# session 14
-46
-80
78
-50
-625
-1006
-926
-802
-759
-625
-512
-514
-488
-430
-457
-533
-539
-494
-482
-474
-436
-476
-615
-721
-762
-772
-753
-785
-876
-897
-879
-901
-879
-836
-841
-788
-596
-99
769
1090
-3
-1423
-1628
-990
-553
-354
-214
-242
-328
-326
-325
-359
-376
-391
-379
-284
-201
-237
-274
-168
-43
-29
-1
121
222
256
287
311
300
286
325
406
427
410
547
744
700
586
716
791
554
421
589
668
524
413
390
327
236
212
199
182
486
1090
1067
20
-957
-1006
-632
-396
-252
-160
-123
-38
32
-2
-3
85
119
88
103
160
226
322
390
391
422
469
402
333
429
525
448
327
285
263
235
249
295
317
291
248
250
325
400
397
321
169
-38
-182
-189
-114
-79
-136
-173
-116
72
638
1337
1114
-152
-1032
-816
-341
-187
-146
-134
-182
-140
0
38
-80
-163
-72
36
-15
-105
-97
-73
-80
-62
-22
21
45
26
-4
-46
-161
-319
-448
-513
-452
-292
-185
-156
-131
-150
-236
-273
-218
-169
-202
-256
-251
-227
-224
-203
-209
-281
-314
-262
-37
461
719
62
-978
-1307
-960
-644
-505
-400
-373
-410
-444
-523
-598
-530
-400
-357
-335
-258
-166
-58
35
6
-82
-102
-99
-100
-76
-126
-271
-344
-294
-247
-238
-188
-80
19
85
174
282
325
353
494
660
679
607
624
746
797
710
734
897
816
732
1380
2142
1668
390
-265
-193
-10
150
208
88
-21
-69
-158
-186
-94
-50
-116
-172
-157
-143
-191
-232
-156
25
176
201
167
194
231
158
42
-7
-36
-76
-79
-51
-26
18
101
175
165
93
74
110
108
88
91
85
104
162
141
93
176
328
568
982
1055
303
-592
-731
-371
-198
-267
-337
-374
-431
-496
-522
-503
-495
-530
-553
-527
-503
-506
-503
-462
-348
-229
-252
-347
-301
-152
-72
-66
-87
-116
-110
-72
-37
1
29
33
50
69
47
13
-7
-39
-81
-131
-196
-196
-139
-163
-197
-122
16
445
1246
1396
205
-1090
-1225
-691
-303
-113
-67
-117
-83
6
6
-43
-37
25
73
73
78
99
106
121
117
54
41
107
65
-61
3
210
249
124
96
185
237
279
366
383
303
265
260
156
-9
-115
-134
-109
-95
-98
-109
-156
-172
-96
-15
316
1174
1658
709
-758
-1145
-610
-176
-13
153
289
273
209
263
327
257
225
332
369
299
287
313
318
353
364
277
196
147
13
-125
-111
-75
-197
-354
-390
-371
-375
-344
-246
-164
-168
-186
-121
-32
-23
-66
-118
-181
-193
-143
-122
-119
-57
93
470
1000
994
133
-705
-762
-459
-344
-321
-263
-243
-214
-158
-191
-231
-84
131
186
139
122
84
-28
-166
-266
-280
-251
-281
-349
-377
-408
-476
-507
-471
-446
-478
-510
-478
-420
-409
-418
-357
-216
-97
-55
14
159
270
349
487
588
580
562
528
655
1341
2019
1436
-75
-870
-617
-280
-207
-152
-146
-255
-327
-293
-264
-302
-344
-330
-280
-241
-225
-175
-42
99
180
285
423
454
391
370
379
334
271
254
259
258
291
371
415
359
247
138
84
121
176
157
113
127
172
212
239
240
273
410
687
1156
1486
981
-211
-921
-702
-324
-310
-398
-362
-321
-346
-346
-289
-240
-216
-192
-184
-198
-195
-181
-172
-103
10
23
-51
-55
9
73
114
31
-116
-79
67
49
-46
-38
-5
-12
-3
15
21
-3
-86
-187
-273
-382
-457
-393
-303
-332
-382
-349
-223
166
697
588
-380
-1163
-1032
-539
-286
-194
-132
-139
-158
-138
-137
-138
-86
-47
-53
-20
29
-2
-30
44
108
94
86
100
105
134
168
158
159
200
234
257
302
370
426
407
287
117
-38
-129
-159
-208
-309
-375
-362
-352
-404
-456
-425
-348
-164
400
1042
757
-473
-1282
-1036
-503
-224
-37
130
222
303
407
482
498
514
618
723
678
607
669
738
688
598
533
469
381
278
170
40
-87
-133
-123
-154
-215
-254
-293
-339
-347
-298
-231
-153
-49
38
46
-8
-76
-116
-99
-90
-143
-160
-96
71
530
1040
788
-249
-982
-881
-519
-347
-275
-248
-319
-370
-290
-194
-143
-17
99
17
-58
138
377
334
133
90
196
179
12
-51
7
-22
-133
-188
-189
-166
-98
-22
20
62
108
127
111
63
48
143
199
53
-67
67
206
161
194
330
269
318
954
1445
840
-205
-522
-217
61
163
152
82
17
-89
-214
-214
-137
-113
-92
-49
-108
-256
-325
-305
-308
-299
-198
-89
-47
8
84
75
9
-10
-14
-73
-117
-81
-36
-33
-35
-20
8
28
-14
-97
-154
-222
-290
-261
-250
-364
-348
-92
134
366
737
725
-2
-715
-748
-418
-210
-171
-221
-283
-291
-285
-314
-353
-387
-426
-467
-495
-487
-455
-435
-400
-323
-246
-176
-101
-56
-13
64
83
54
137
273
290
283
373
455
484
520
510
427
395
449
473
425
366
326
278
199
125
114
134
267
741
1211
805
-373
-1105
-918
-494
-298
-228
-190
-164
-119
-78
-41
23
75
87
91
86
64
60
69
53
61
130
192
218
263
312
310
295
323
341
298
256
268
281
251
241
296
327
266
234
311
335
193
62
111
181
50
-158
-169
-48
120
552
920
365
-838
-1402
-1082
-679
-510
-421
-403
-420
-389
-350
-332
-337
-359
-313
-183
-86
-59
-27
57
159
192
150
144
190
196
150
95
54
64
104
106
86
73
12
-94
-165
-204
-257
-295
-302
-319
-344
-345
-344
-370
-386
-362
-333
-280
-146
59
450
1038
1173
333
-714
-937
-532
-207
-95
-59
-62
-47
4
36
42
49
63
93
116
103
90
125
178
190
165
157
183
184
139
102
74
22
4
50
77
63
69
90
89
84
73
48
51
74
62
18
-45
-120
-153
-153
-183
-182
-112
44
576
1346
1243
-107
-1296
-1272
-663
-229
3
108
129
156
141
85
158
331
354
225
192
284
312
286
359
470
474
430
411
350
213
55
-90
-205
-283
-349
-405
-421
-408
-392
-378
-376
-387
-367
-302
-243
-215
-204
-221
-255
-251
-243
-260
-222
-136
75
707
1344
909
-372
-1016
-688
-297
-165
-67
-61
-141
-95
29
35
-29
-6
80
103
68
85
144
158
172
252
307
290
299
346
352
329
299
251
228
231
184
104
66
49
12
-14
-14
-2
25
52
57
51
40
43
68
64
19
1
17
210
745
1080
448
-648
-1030
-678
-361
-285
-261
-265
-284
-265
-250
-261
-261
-252
-251
-236
-206
-190
-179
-150
-120
-106
-87
-49
-18
-15
-33
-61
-90
-102
-110
-137
-159
-139
-110
-104
-93
-75
-71
-52
5
66
113
145
127
82
67
50
19
55
165
422
949
1243
574
-570
-1004
-651
-262
-94
-19
-8
-26
-31
-36
-9
44
33
-16
32
146
178
147
180
240
235
215
242
266
260
241
195
139
131
139
99
59
78
83
32
7
20
-7
-61
-71
-58
-78
-120
-138
-109
-66
-71
-94
-57
34
328
972
1322
551
-717
-1153
-749
-365
-236
-174
-147
-141
-124
-119
-110
-70
-20
26
71
118
166
198
219
251
274
263
258
275
270
221
167
129
96
64
44
20
-13
-10
38
48
-3
-39
-31
-16
-26
-72
-127
-151
-143
-128
-139
-182
-206
-173
21
491
811
261
-831
-1319
-999
-619
-498
-448
-417
-419
-401
-370
-347
-312
-272
-244
-220
-189
-152
-112
-81
-61
-37
-6
17
37
59
67
55
34
11
-17
-46
-70
-76
-55
-45
-80
-123
-120
-87
-74
-88
-89
-63
-59
-71
-27
42
61
97
181
365
944
1655
1428
203
-596
-352
99
246
309
354
333
349
408
411
390
402
407
386
392
411
395
359
337
334
334
309
270
242
195
120
71
45
-22
-92
-100
-89
-121
-163
-177
-187
-207
-226
-228
-209
-190
-189
-192
-193
-174
-129
-127
-154
-118
-11
355
1082
1329
334
-924
-1135
-645
-334
-214
-105
-81
-99
-77
-69
-89
-84
-58
-39
-34
-34
-24
5
33
45
57
82
96
67
5
-46
-71
-104
-147
-166
-184
-232
-260
-243
-242
-258
-246
-237
-259
-262
-244
-245
-255
-260
-266
-256
-255
-289
-297
-266
-106
426
958
542
-658
-1311
-1016
-584
-431
-369
-331
-323
-290
-255
-223
-160
-108
-86
-47
13
65
111
150
192
253
312
347
375
406
422
428
436
442
452
483
512
514
500
491
482
472
458
425
395
390
371
319
277
253
235
222
190
154
162
218
437
883
1016
299
-694
-993
-652
-328
-219
-188
-180
-176
-159
-150
-150
-140
-122
-103
-86
-65
-46
-41
-46
-43
-35
-34
-28
-14
-15
-27
-42
-78
-126
-144
-147
-170
-187
-175
-179
-197
-186
-175
-195
-197
-167
-148
-150
-164
-178
-159
-142
-191
-218
-138
61
536
1088
848
-321
-1176
-991
-466
-203
-62
32
12
2
67
97
81
104
148
158
160
180
197
210
229
230
214
209
210
181
135
102
67
17
-13
-6
7
9
2
-18
-33
-13
3
-27
-56
-42
-32
-46
-38
-25
-32
-24
-18
-43
-25
6
84
625
1439
1276
-79
-1051
-851
-383
-239
-182
-133
-141
-123
-79
-41
4
12
-23
-24
10
25
18
-11
-53
-64
-22
41
86
110
122
118
105
116
142
147
148
161
149
111
84
65
49
45
37
25
26
16
-18
-51
-67
-68
-76
-100
-115
-104
56
528
901
432
-603
-1101
-832
-465
-303
-222
-198
-215
-201
-180
-183
-181
-169
-164
-159
-151
-144
-136
-127
-105
-66
-29
2
43
75
67
37
23
25
32
44
54
52
38
23
13
8
-4
-27
-39
-36
-48
-77
-92
-99
-116
-111
-90
-105
-113
-56
93
485
975
838
-101
-859
-777
-351
-113
-21
31
48
71
101
122
156
195
214
238
279
311
338
377
404
402
393
403
420
406
351
282
231
202
193
188
164
123
100
105
116
109
89
60
7
-50
-70
-84
-130
-174
-204
-223
-217
-234
-265
-213
-100
204
899
1285
428
-916
-1262
-743
-352
-237
-157
-130
-131
-97
-74
-65
-42
-27
-11
25
59
80
105
130
144
150
148
137
119
90
50
4
-38
-61
-64
-61
-66
-85
-110
-120
-116
-114
-120
-138
-166
-179
-173
-189
-226
-260
-297
-322
-329
-362
-380
-331
-219
192
922
1034
-42
-1132
-1105
-546
-288
-226
-159
-152
-155
-121
-114
-132
-138
-149
-162
-156
-137
-116
-80
-32
-1
1
23
80
110
92
78
87
88
78
79
100
134
155
167
187
207
221
240
238
219
239
289
302
286
270
247
249
270
252
244
257
291
694
1477
1580
476
-589
-589
-154
6
29
65
47
32
53
45
24
32
40
34
39
57
74
94
121
143
161
189
209
188
132
77
37
-3
-46
-73
-76
-74
-80
-85
-89
-107
-132
-142
-145
-167
-182
-169
-161
-180
-205
-222
-224
-212
-223
-251
-235
-188
-67
316
698
376
-574
-1170
-1004
-610
-383
-280
-231
-214
-194
-172
-151
-127
-112
-102
-82
-59
-44
-31
-11
30
86
120
135
156
154
105
58
34
4
-30
-60
-88
-84
-55
-57
-81
-82
-85
-91
-65
-41
-44
-23
21
34
39
51
36
30
62
53
6
15
137
519
1070
1016
-11
-1004
-1037
-548
-236
-108
-29
-24
-48
-34
-5
16
30
38
52
80
109
140
183
225
247
262
285
291
261
221
185
149
117
89
63
50
44
28
14
17
18
5
-8
-10
-22
-47
-53
-38
-33
-42
-58
-85
-81
-49
-61
-85
-75
-38
355
1206
1437
288
-962
-974
-382
-149
-130
-65
-67
-93
-46
-7
-8
10
46
71
105
155
190
211
243
278
297
308
324
333
310
260
209
172
140
111
88
61
33
15
-5
-30
-41
-45
-55
-64
-79
-98
-92
-74
-80
-102
-118
-126
-124
-130
-153
-155
-134
0
410
761
367
-586
-1092
-853
-466
-297
-247
-236
-246
-239
-221
-212
-202
-179
-148
-114
-82
-53
-19
20
53
81
111
140
155
145
115
78
41
12
-8
-30
-50
-55
-58
-77
-93
-92
-96
-100
-78
-51
-53
-54
-26
-14
-35
-36
-16
-22
-29
-28
-46
-51
-17
139
537
814
328
-646
-1097
-804
-397
-206
-125
-98
-106
-88
-55
-36
-19
3
22
41
61
82
113
159
203
234
252
263
263
240
198
156
118
82
58
49
43
39
37
26
11
8
8
4
3
3
-3
2
25
32
12
-16
-30
-14
-6
-42
-45
-19
25
452
1259
1307
87
-990
-858
-299
-107
-78
-26
-33
-38
-4
5
9
38
70
100
140
180
214
244
265
282
295
300
301
294
258
209
173
139
96
66
44
12
-8
-5
-16
-45
-63
-70
-69
-64
-71
-81
-69
-58
-76
-100
-115
-129
-128
-129
-149
-157
-136
0
424
795
378
-637
-1152
-848
-421
-256
-186
-135
-140
-144
-113
-86
-68
-39
-7
23
64
103
125
144
174
199
211
226
233
206
163
133
110
81
61
59
57
51
50
48
37
22
9
-6
-17
-18
-8
7
12
-6
-34
-68
-108
-136
-160
-201
-221
-220
-173
183
753
672
-326
-1119
-950
-459
-268
-224
-172
-169
-170
-137
-119
-108
-71
-26
19
63
97
128
170
205
222
242
266
267
236
200
172
131
75
32
10
-9
-34
-62
-85
-102
-116
-126
-136
-145
-142
-131
-123
-105
-88
-95
-112
-116
-107
-87
-83
-95
-86
-53
159
706
1060
487
-533
-883
-528
-191
-90
-56
-50
-61
-58
-52
-43
-28
-11
18
51
74
110
168
211
236
267
301
317
305
266
218
175
133
101
83
65
45
38
41
39
33
34
37
39
46
59
