# session 10
24
100
-83
7
731
1416
1492
1359
1381
1378
1299
1258
1210
1127
1051
959
846
761
702
642
588
542
495
455
421
379
335
298
268
240
210
178
150
119
85
78
86
73
68
84
64
34
46
22
-21
6
58
404
1296
1693
497
-1101
-1351
-707
-367
-317
-242
-242
-289
-284
-290
-314
-299
-278
-278
-261
-208
-138
-69
-19
1
-1
-3
0
-9
-47
-107
-175
-235
-273
-285
-287
-296
-307
-306
-291
-280
-280
-280
-277
-274
-267
-257
-254
-258
-265
-258
-212
-158
-156
-199
-243
-247
-195
-183
-251
-248
-179
-62
528
1423
1272
-196
-1261
-1022
-470
-291
-219
-144
-140
-122
-80
-72
-55
-11
22
54
105
163
225
285
313
303
315
372
412
384
333
303
267
194
128
122
127
87
46
44
39
23
23
16
-13
-28
-38
-66
-59
-5
13
-16
-6
35
28
-3
-6
-5
10
53
40
-2
32
127
504
1323
1651
573
-853
-1095
-495
-108
-7
80
115
99
115
155
186
197
197
216
258
309
368
429
467
476
475
484
500
489
426
331
246
188
143
97
56
28
10
-11
-36
-54
-71
-96
-125
-150
-184
-241
-316
-385
-488
-735
-1095
-1391
-1577
-1660
-1522
-1197
-924
-762
-644
-569
-466
-338
-83
746
1686
1194
-573
-1481
-943
-327
-186
-91
-1
-10
11
61
74
91
129
162
193
230
277
331
380
412
416
391
365
358
338
272
180
106
62
28
-6
-25
-23
-17
-12
-22
-47
-28
39
32
-71
-136
-117
-88
-73
-47
-1
62
106
117
125
118
84
99
140
126
142
227
453
1162
1931
1424
-209
-1057
-560
24
120
135
180
165
157
167
159
165
185
195
210
246
286
315
340
365
371
349
312
275
231
173
95
10
-56
-100
-138
-165
-172
-175
-195
-219
-229
-229
-236
-252
-266
-277
-283
-282
-279
-288
-292
-271
-253
-276
-309
-321
-331
-330
-315
-334
-350
-304
-196
167
807
890
-154
-1295
-1382
-813
-431
-286
-196
-175
-178
-141
-107
-91
-62
-19
28
79
133
201
277
328
355
386
406
396
379
354
292
210
134
61
11
-6
-17
-42
-68
-84
-94
-104
-116
-124
-124
-124
-137
-147
-137
-128
-129
-117
-96
-101
-114
-114
-125
-126
-86
-78
-106
-54
60
332
1042
1586
820
-741
-1373
-877
-357
-173
-69
-24
-26
13
51
63
92
129
157
190
235
291
347
387
407
413
406
391
367
318
243
159
90
47
23
5
-11
-20
-26
-35
-45
-50
-53
-67
-84
-83
-75
-76
-72
-67
-80
-86
-63
-54
-69
-70
-78
-97
-73
-62
-105
-84
-16
191
980
1827
1214
-587
-1458
-925
-363
-258
-178
-115
-159
-156
-105
-92
-75
-34
-6
27
88
153
200
244
290
310
284
243
218
192
138
58
-25
-88
-121
-133
-139
-142
-144
-146
-150
-154
-158
-164
-177
-189
-189
-188
-195
-198
-198
-201
-193
-173
-165
-172
-182
-200
-205
-168
-150
-182
-165
-85
105
684
1299
842
-594
-1410
-1020
-432
-219
-119
-43
-56
-57
-17
10
34
55
71
119
184
226
270
341
406
435
439
435
429
414
372
307
236
161
92
52
31
4
-16
-11
-4
-9
-6
2
-6
-22
-26
-21
-20
-24
-27
-37
-48
-43
-27
-32
-50
-56
-70
-83
-65
-72
-108
-70
12
273
1010
1539
681
-904
-1438
-863
-361
-217
-118
-68
-76
-48
-16
-8
16
46
68
108
160
203
245
292
326
329
309
287
263
216
143
67
1
-56
-100
-125
-139
-145
-147
-151
-159
-162
-160
-158
-164
-173
-180
-186
-194
-201
-203
-204
-214
-209
-177
-165
-190
-200
-202
-218
-203
-184
-214
-201
-135
48
726
1517
1069
-539
-1432
-994
-418
-279
-217
-152
-162
-148
-110
-100
-83
-49
-20
14
48
79
127
190
238
257
258
251
238
219
184
127
67
23
-8
-30
-38
-37
-33
-32
-39
-50
-53
-47
-51
-61
-60
-57
-65
-75
-78
-76
-71
-66
-60
-54
-48
-34
-22
-25
-30
-30
-32
-16
-7
-25
7
95
291
857
1459
1036
-351
-1190
-875
-299
-34
98
180
190
206
242
263
287
316
347
400
461
507
557
622
672
699
723
741
732
701
660
596
511
442
406
371
333
318
322
318
308
303
301
299
298
285
277
289
296
282
281
289
284
285
286
279
303
301
107
-326
-902
-1504
-2005
-2326
-2490
-2621
-2823
-2962
-2751
-2032
-854
160
-106
-1540
-2440
-2008
-1209
-773
-522
-339
-250
-163
-63
5
74
157
227
294
374
459
540
612
672
715
733
728
716
690
636
566
501
445
397
365
342
325
317
312
308
305
300
292
287
279
257
236
229
221
200
181
175
169
161
159
157
156
170
177
154
127
113
96
100
117
89
75
125
271
805
1570
1401
-28
-1134
-909
-274
-54
-6
57
50
40
68
74
75
100
123
146
181
215
248
295
336
346
334
315
294
269
226
159
82
14
-39
-77
-103
-121
-131
-143
-161
-176
-181
-187
-199
-209
-213
-222
-234
-237
-234
-235
-232
-221
-202
-177
-171
-187
-189
-173
-177
-198
-207
-222
-234
-206
-197
-226
-192
-105
111
710
1220
611
-762
-1363
-903
-387
-232
-172
-124
-122
-104
-74
-64
-52
-25
10
55
101
145
196
246
277
298
317
316
297
281
253
184
92
15
-30
-52
-74
-100
-111
-103
-103
-116
-123
-127
-140
-146
-138
-135
-135
-132
-146
-163
-147
-124
-128
-125
-103
-109
-121
-93
-71
-95
-103
-86
-97
-99
-72
-85
-82
22
203
668
1371
1280
-85
-1311
-1235
-586
-247
-113
-14
-4
-9
21
47
79
116
133
158
208
258
306
366
424
448
444
441
433
395
336
271
191
109
52
19
-9
-31
-45
-54
-56
-56
-59
-62
-71
-83
-86
-84
-92
-102
-105
-107
-108
-106
-108
-106
-101
-108
-108
-78
-59
-79
-97
-101
-114
-100
-77
-111
-111
-33
115
692
1573
1405
-206
-1430
-1139
-435
-216
-162
-76
-75
-83
-49
-33
-17
16
41
70
113
162
216
268
305
327
328
311
283
242
193
139
69
-6
-55
-80
-101
-116
-119
-117
-117
-119
-119
-121
-129
-141
-144
-136
-131
-135
-142
-148
-151
-153
-146
-129
-121
-114
-88
-69
-87
-102
-95
-102
-102
-76
-89
-107
-58
50
454
1216
1373
210
-1091
-1161
-519
-187
-137
-76
-52
-57
-32
-17
-11
21
52
71
105
154
201
243
289
329
347
343
333
322
293
236
161
87
31
-3
-19
-29
-36
-40
-47
-52
-46
-46
-60
-73
-74
-70
-70
-85
-103
-106
-103
-112
-121
-125
-128
-117
-104
-103
-98
-96
-119
-132
-124
-135
-145
-138
-157
-156
-83
117
663
1263
878
-521
-1421
-1099
-466
-217
-161
-116
-105
-99
-73
-40
-1
25
35
61
108
163
227
293
337
360
375
381
385
380
324
220
128
68
7
-51
-88
-105
-106
-96
-93
-105
-119
-125
-120
-113
-116
-120
-118
-119
-117
-108
-101
-92
-77
-71
-72
-65
-59
-52
-23
-2
-15
-29
-30
-34
-8
18
-27
-30
95
296
814
1563
1388
-120
-1357
-1195
-524
-223
-102
2
8
5
53
80
95
133
168
191
218
252
295
337
362
380
399
401
385
359
304
218
127
46
-25
-73
-95
-109
-130
-147
-146
-135
-132
-147
-155
-131
-96
-91
-115
-136
-148
-165
-181
-185
-190
-199
-201
-203
-215
-215
-188
-174
-194
-209
-212
-217
-199
-184
-206
-178
-95
35
513
1182
970
-347
-1345
-1176
-613
-335
-216
-137
-125
-107
-66
-51
-41
-11
27
69
115
167
234
304
364
416
441
421
393
375
330
250
170
105
51
21
13
11
14
14
2
-2
7
9
-4
-11
-8
-17
-44
-69
-76
-75
-78
-82
-85
-88
-97
-101
-76
-43
-60
-104
-92
-47
-58
-94
-75
-58
-86
-47
70
274
791
1324
906
-400
-1211
-971
-463
-213
-96
-40
-39
-24
2
16
41
68
89
124
171
221
278
340
397
434
442
427
399
351
279
191
105
27
-44
-96
-117
-125
-136
-138
-128
-125
-127
-124
-124
-132
-145
-162
-170
-166
-167
-181
-196
-198
-193
-194
-207
-213
-189
-160
-162
-176
-179
-190
-183
-146
-165
-200
-135
-21
358
1258
1708
579
-1057
-1413
-786
-368
-253
-145
-100
-105
-81
-66
-50
-9
26
56
100
146
201
282
370
443
485
479
431
363
286
199
108
27
-37
-84
-116
-135
-140
-132
-117
-100
-86
-81
-83
-79
-70
-72
-88
-102
-110
-120
-124
-117
-112
-114
-113
-110
-116
-114
-83
-58
-69
-89
-98
-101
-79
-57
-88
-100
-51
82
622
1482
1484
139
-1075
-1002
-413
-172
-112
-32
-16
-19
12
24
29
63
106
139
176
222
276
342
412
469
498
496
470
432
376
298
222
159
98
40
7
0
-4
-10
-8
1
3
-6
-19
-33
-41
-35
-38
-59
-77
-83
-89
-97
-102
-118
-145
-154
-133
-118
-138
-166
-170
-160
-155
-158
-158
-133
-107
-111
-108
-89
-133
-207
-189
-160
-217
-211
-98
136
822
1586
1091
-581
-1517
-1090
-536
-402
-290
-202
-241
-217
-164
-191
-147
-34
-40
-82
10
119
149
219
339
363
277
181
157
166
20
-259
-357
-318
-479
-660
-561
-483
-499
-144
380
433
238
262
282
132
35
-16
-152
-293
-327
-286
-326
-456
-449
-457
-777
-963
-698
-592
-721
-364
372
825
979
943
549
96
283
1053
1394
861
339
436
531
276
138
91
-117
192
1250
1511
92
-1418
-1601
-1129
-945
-981
-919
-724
-607
-714
-739
-391
-6
34
-69
-67
-52
25
343
793
1261
1761
2074
2050
1845
1524
1223
1185
1153
764
340
240
212
38
-120
-193
-268
-277
-170
-69
31
253
407
187
-60
253
698
578
579
1249
1352
384
-272
-230
-296
-344
-94
73
2
-474
-1472
-2228
-2103
-1586
-1286
-1177
-1052
-883
-779
-819
-856
-681
-418
-384
-518
-544
-500
-479
-328
-10
269
416
524
655
873
1230
1522
1443
1115
932
887
657
227
-80
-158
-271
-504
-549
-400
-498
-791
-791
-623
-711
-842
-712
-598
-624
-535
-465
-577
-522
-358
-527
-693
-476
-255
-129
-7
-195
-366
-9
186
-257
-519
-268
-180
-407
-457
-231
-2
199
360
332
584
1596
2150
933
-795
-1276
-996
-875
-703
-455
-407
-299
-10
121
100
157
189
154
285
581
788
857
925
1083
1352
1580
1564
1418
1355
1223
910
668
538
269
-58
-196
-225
-255
-180
-17
49
1
7
152
260
100
-89
207
652
346
-444
-687
-475
-463
-477
-269
-225
-410
-329
-64
-50
341
1602
2055
415
-1318
-1129
-111
285
336
232
-260
-603
-412
-246
-365
-378
-136
116
112
-71
-75
21
-128
-332
-298
-122
87
200
119
51
43
-63
-121
-116
-260
-362
-319
-422
-531
-380
-346
-622
-718
-460
-253
-270
-319
-311
-281
-220
-206
-325
-407
-283
-97
-29
-62
-77
-72
-225
-494
-494
-219
-113
-202
-168
-44
-29
-141
-227
215
1373
2069
1160
-315
-670
-160
59
-51
-3
153
184
161
241
359
423
559
782
896
956
1065
1008
818
843
1035
1072
877
558
248
-12
-277
-436
-347
-155
-167
-566
-1115
-1251
-880
-525
-417
-318
-183
-108
6
120
113
379
1170
1638
1000
-133
-821
-959
-788
-523
-463
-587
-565
-521
-748
-872
-569
-308
-352
-363
-323
-424
-500
-395
-173
10
-67
-243
-107
98
-76
-274
-141
-92
-355
-546
-505
-442
-403
-259
-39
34
-112
-205
-86
72
161
211
440
1244
2088
1586
-18
-845
-469
-64
5
101
151
119
207
260
118
25
77
87
69
128
191
242
360
503
623
784
945
961
866
808
731
529
359
342
237
-128
-476
-548
-478
-474
-542
-572
-501
-412
-395
-384
-361
-387
-337
-165
-152
-272
-105
211
213
129
197
-28
-506
-526
-218
-259
-452
-340
-152
-147
-182
-120
100
483
772
685
424
347
262
-82
-277
-82
85
128
373
780
1230
1529
1000
-346
-1267
-1130
-586
-238
-172
-249
-222
-66
71
202
294
267
308
522
637
492
279
114
-97
-331
-365
-108
178
189
27
-39
-56
-99
-76
-157
-458
-558
-336
-328
-616
-704
-525
-380
-322
-265
-231
-208
88
882
1466
811
-621
-1386
-1187
-745
-379
-55
158
292
374
318
225
247
262
184
152
174
180
278
486
591
525
432
345
176
-55
-238
-333
-420
-583
-754
-760
-597
-433
-306
-170
-89
-82
-77
64
658
1500
1414
-10
-1291
-1218
-523
-257
-370
-541
-693
-571
-172
-37
-192
-119
14
-210
-408
-243
-73
-38
77
182
153
126
130
123
117
5
-179
-253
-343
-567
-665
-579
-562
-559
-273
251
622
663
651
764
817
969
1647
2256
1619
83
-800
-582
-44
237
176
-20
-58
-2
-13
18
49
-38
-59
67
168
224
320
463
582
543
436
499
542
261
-157
-393
-416
-395
-459
-396
-56
108
-156
-355
-233
-69
58
148
36
-147
-142
77
682
1592
1728
476
-915
-1172
-703
-338
-236
-303
-359
-271
-223
-308
-328
-265
-221
-111
68
197
326
493
607
695
778
712
499
334
279
259
210
89
-46
-76
-37
-31
-19
6
-27
-90
-143
-198
-217
-223
-289
-334
-117
537
1206
958
-151
-807
-518
-142
-117
-180
-332
-596
-717
-725
-820
-835
-654
-580
-709
-703
-510
-462
-589
-577
-381
-277
-336
-352
-322
-429
-599
-613
-492
-340
-195
-185
-347
-483
-505
-520
-538
-523
-501
-398
-87
331
594
666
742
845
1018
1643
2447
2158
600
-564
-405
181
384
349
308
284
248
131
15
66
152
61
-28
106
256
225
223
398
560
589
608
664
643
512
361
208
-24
-324
-536
-605
-654
-691
-610
-536
-603
-623
-494
-419
-408
-288
-101
1
8
173
937
1981
1839
-65
