# session 5
-2
-90
105
17
-697
-1189
-827
-277
-143
-147
-79
-66
-78
-45
-18
-2
29
59
84
119
157
199
246
286
308
316
315
302
267
204
119
35
-30
-81
-130
-165
-183
-198
-207
-203
-201
-216
-235
-246
-246
-231
-225
-238
-228
-187
-171
-182
-186
-195
-185
-145
-157
-176
-152
-156
296
1544
2078
557
-1247
-1255
-394
-121
-139
-34
-13
-38
14
41
42
80
119
153
200
239
275
330
383
410
420
420
414
407
382
325
248
171
104
49
10
-12
-23
-33
-50
-70
-78
-82
-98
-115
-123
-128
-137
-141
-127
-103
-104
-123
-131
-143
-156
-135
-135
-176
-190
-214
-17
862
1683
975
-695
-1315
-740
-283
-216
-137
-96
-137
-123
-89
-87
-68
-33
-6
29
70
107
151
194
232
268
293
303
309
302
259
189
117
47
-21
-73
-106
-135
-164
-179
-190
-212
-232
-243
-254
-260
-260
-263
-259
-230
-200
-205
-226
-216
-181
-161
-152
-142
-145
-134
-109
-57
315
1052
1233
219
-955
-1109
-617
-284
-159
-83
-64
-54
-18
1
18
56
85
107
141
172
200
242
291
322
333
346
371
378
345
300
251
179
101
49
18
-6
-28
-48
-50
-49
-71
-89
-79
-81
-100
-94
-85
-109
-124
-98
-82
-105
-123
-127
-123
-93
-87
-127
-121
-57
219
1014
1667
925
-690
-1346
-836
-334
-190
-90
-28
-31
-7
22
29
57
101
134
163
193
233
286
333
361
375
372
359
345
318
260
179
94
19
-39
-83
-118
-135
-138
-146
-155
-158
-167
-182
-189
-200
-216
-217
-215
-240
-253
-229
-219
-241
-252
-264
-279
-248
-236
-280
-270
-239
-12
918
1857
1159
-699
-1477
-889
-381
-312
-226
-158
-185
-165
-115
-98
-68
-26
-2
33
106
175
207
233
282
328
350
356
350
329
295
242
167
83
15
-22
-40
-61
-81
-82
-79
-86
-94
-96
-98
-99
-104
-118
-118
-106
-113
-117
-86
-70
-90
-94
-97
-120
-115
-109
-121
-101
-101
201
1322
2253
1289
-679
-1287
-599
-171
-164
-96
-57
-89
-63
-29
-6
31
47
68
115
146
172
225
271
294
311
321
310
292
282
264
199
97
25
-4
-38
-74
-78
-86
-130
-156
-137
-120
-128
-149
-165
-158
-153
-186
-190
-136
-144
-221
-221
-150
-146
-189
-186
-173
-185
-173
-168
-199
-200
-200
10
909
1845
1278
-429
-1235
-773
-337
-307
-259
-201
-223
-204
-166
-164
-140
-95
-70
-43
-2
37
77
119
153
182
209
227
244
257
241
193
126
54
-7
-43
-64
-84
-92
-91
-97
-100
-85
-77
-90
-98
-85
-72
-73
-73
-62
-58
-63
-49
-28
-40
-56
-35
-18
-33
-49
-60
-68
-49
-54
-104
-91
-13
158
772
1534
1202
-295
-1296
-1057
-502
-244
-119
-64
-68
-25
25
26
43
88
127
172
221
253
289
339
381
421
460
472
463
455
428
368
293
203
110
44
-6
-59
-89
-90
-100
-128
-144
-145
-155
-178
-183
-166
-176
-212
-215
-199
-203
-203
-195
-211
-219
-188
-174
-196
-201
-194
-200
-188
-176
-215
-212
-117
61
633
1521
1507
63
-1278
-1294
-716
-388
-216
-96
-86
-79
-31
-2
18
41
59
100
156
198
249
317
366
388
408
423
418
403
375
318
235
149
78
27
-8
-35
-61
-78
-73
-62
-68
-86
-93
-90
-99
-116
-115
-111
-141
-179
-180
-163
-165
-185
-202
-198
-179
-174
-189
-200
-199
-192
-189
-208
-201
-137
-5
471
1287
1424
237
-1078
-1236
-693
-347
-222
-127
-95
-97
-71
-47
-33
-5
29
65
107
151
197
256
325
394
434
429
409
404
384
318
226
144
74
2
-57
-78
-82
-95
-97
-82
-81
-99
-103
-91
-94
-115
-130
-135
-146
-162
-166
-167
-176
-179
-168
-166
-172
-155
-131
-142
-158
-156
-162
-159
-134
-137
-139
-100
16
528
1393
1481
225
-1034
-1106
-570
-240
-103
-40
-64
-95
-83
-50
-10
22
54
95
123
154
220
288
325
367
424
452
444
439
422
354
265
188
100
12
-35
-65
-110
-132
-112
-85
-73
-82
-106
-119
-116
-127
-143
-128
-112
-144
-184
-191
-187
-178
-161
-172
-198
-188
-166
-174
-175
-141
-111
-110
-121
-132
-144
-142
-118
-108
-116
-110
-60
260
1034
1535
763
-663
-1198
-746
-303
-166
-102
-88
-99
-61
-27
-28
-10
31
59
83
126
176
209
242
299
362
399
405
395
383
365
327
272
209
140
75
27
-6
-15
7
28
28
28
47
64
66
66
72
64
44
42
47
33
19
23
20
9
15
27
24
20
21
15
12
22
36
41
32
19
22
24
2
-1
34
35
-13
-30
-12
-17
-27
-15
-17
-35
-38
-30
-39
-78
-103
-64
-14
-36
-80
-102
-130
-129
-90
-116
-174
-133
-89
-177
-275
-258
-191
-163
-199
-253
-236
-173
-204
-313
-323
-238
-244
-285
-207
-77
345
1279
1667
497
-1052
-1469
-1140
-821
-499
-319
-427
-439
-132
179
151
-127
-282
-212
-131
-175
-302
-297
-35
143
-7
-117
19
59
-116
-240
-292
-456
-555
-348
-237
-525
-572
-253
-551
-1134
-439
893
760
-332
-294
481
213
-634
-409
671
1264
1248
1342
1542
1400
1066
918
862
728
606
471
241
110
145
39
-236
-333
-276
-279
-247
-179
-94
246
535
180
-319
-289
-284
-615
-445
326
772
879
1275
1569
1255
1238
2174
2610
1299
-349
-665
-287
-245
-232
-46
-105
-267
-141
14
15
161
309
126
10
182
206
278
749
849
361
398
930
792
201
14
-91
-567
-1174
-1683
-1879
-1611
-1248
-1093
-956
-803
-749
-647
-450
-316
-278
-300
-344
-319
-337
-514
-573
-387
-338
-501
-529
-515
-721
-867
-789
-832
-940
-685
-242
-24
77
187
138
-29
-89
-55
-122
-359
-504
-288
99
500
1006
1078
145
-924
-1037
-577
-267
-87
1
-44
-23
24
-156
-419
-444
-227
22
136
123
121
175
234
305
397
423
366
376
487
480
302
252
421
473
316
230
218
117
48
29
-144
-387
-505
-516
-394
-162
-33
17
273
788
1311
1475
1160
845
965
1256
1667
2543
3100
2080
187
-803
-617
-132
126
78
-126
-254
-261
-221
-177
-143
-123
-152
-180
-44
210
317
208
123
249
385
226
-74
-180
-177
-244
-303
-392
-617
-826
-908
-924
-809
-610
-593
-723
-745
-694
-690
-661
-554
-425
-391
-538
-672
-575
-492
-666
-792
-664
-503
-188
484
789
93
-739
-671
-81
246
251
174
121
86
40
98
306
415
340
319
339
174
-35
-46
18
8
-1
-11
-65
-68
9
45
-25
-162
-311
-399
-402
-400
-387
-195
185
506
679
832
941
892
747
591
441
370
358
249
59
-27
14
69
134
217
228
193
271
438
490
404
358
343
170
-55
-87
-115
-338
-443
-323
-280
-224
48
298
483
850
1395
1965
2066
1056
-461
-1042
-638
-341
-403
-375
-275
-343
-485
-526
-494
-507
-604
-674
-644
-626
-651
-552
-289
-40
100
193
262
255
208
261
355
208
-163
-386
-370
-412
-683
-1004
-1078
-957
-1020
-1170
-951
-660
-818
-1027
-811
-458
-302
-362
-288
548
1708
1588
81
-905
-484
200
262
92
90
75
-16
-15
20
16
101
257
396
625
926
1085
1115
1211
1371
1460
1427
1313
1165
981
763
629
609
496
224
47
27
-122
-445
-609
-510
-432
-496
-525
-468
-423
-387
-345
-369
-413
-340
-135
42
-21
-264
-329
-149
-28
-74
-240
-498
-581
-375
-341
-664
-800
-592
-582
-806
-778
-532
-379
-252
202
1201
1977
1224
-533
-1346
-947
-554
-532
-542
-526
-518
-502
-488
-399
-139
270
668
907
1018
1077
1078
1083
1144
1136
1027
934
838
709
640
555
351
189
133
27
-102
-156
-217
-323
-412
-469
-510
-539
-511
-426
-417
-424
-293
-261
-428
-409
-270
-388
-438
-208
-209
-389
-272
-235
-620
-823
-583
-275
292
1183
1255
-31
-1258
-1286
-739
-358
-152
-105
-77
187
461
479
432
383
214
137
284
357
241
212
409
681
826
801
779
879
917
766
575
400
161
-4
7
12
-23
92
272
259
57
-156
-244
-229
-286
-380
-292
-145
-181
-230
-121
-29
-10
57
114
100
96
105
88
169
602
1387
1661
496
-1236
-1797
-1322
-1033
-888
-535
-497
-773
-711
-442
-385
-316
-167
-199
-272
-231
-213
-96
225
411
381
424
466
288
32
-131
-240
-350
-499
-663
-631
-291
70
234
420
724
861
796
752
687
549
505
523
428
309
289
247
75
-149
-288
-284
-244
-306
-379
-326
-229
-11
559
966
358
-814
-1300
-983
-608
-404
-261
-241
-318
-379
-407
-384
-372
-491
-561
-383
-227
-297
-311
-140
-19
-4
66
200
286
287
217
84
-27
-27
-28
-169
-327
-348
-295
-257
-244
-301
-419
-499
-565
-672
-686
-588
-541
-422
-44
383
689
951
1141
1217
1212
1130
1060
1086
1349
2153
2961
2385
548
-715
-687
-247
15
116
88
33
45
59
48
48
55
81
156
203
136
101
219
263
122
11
-70
-255
-379
-400
-546
-723
-664
-484
-424
-444
-438
-424
-398
-403
-497
-487
-251
-65
-56
-68
-94
-82
99
221
146
132
122
-79
-171
-4
134
159
49
-64
352
881
329
-774
-966
-537
-311
6
432
430
216
250
325
212
140
225
237
143
103
1
-190
-166
-18
-80
-167
-119
-151
-182
-44
56
51
67
26
-70
-56
6
-45
-126
-77
40
34
-92
-216
-380
-532
-430
-261
-467
-827
-835
-630
-564
-591
-605
-607
-538
-452
-263
540
1697
1705
147
-1210
-1146
-701
-828
-649
274
548
-79
-26
502
32
-646
-304
131
-15
45
451
683
859
1169
1369
1422
1452
1350
1124
972
841
577
305
176
122
91
71
-47
-225
-266
-207
-256
-371
-392
-374
-446
-546
-552
-472
-383
-346
-352
-303
-200
-196
-250
-161
114
652
1339
1353
293
-811
-1053
-806
-585
-430
-388
-450
-432
-287
-151
-142
-189
-115
21
4
-56
92
288
274
244
454
686
644
449
362
368
274
33
-178
-254
-344
-486
-509
-431
-414
-416
-293
-60
101
83
46
113
180
204
244
252
183
124
176
289
313
242
144
132
638
1656
1894
584
-894
-1189
-833
-599
-414
-272
-301
-321
-264
-261
-261
-226
-236
-198
-74
-99
-235
-190
-152
-395
-535
-283
-68
-120
-116
-6
-7
-20
25
-82
-239
-139
40
44
114
352
474
492
625
745
698
673
787
823
632
394
297
261
116
-113
-205
-103
-79
-3
711
1478
864
-637
-1175
-685
-309
-185
-74
-118
-216
-252
-378
-500
-453
-376
-304
-147
-73
-180
-243
-147
-62
-95
-180
-249
-302
-352
-360
-279
-153
-76
-51
-10
80
173
180
154
277
431
265
-116
-259
-169
-183
-306
-378
-417
-444
-435
-410
-358
-370
-554
-703
-661
-524
55
1130
1332
-79
-1488
-1500
-834
-484
-487
-586
-546
-346
-310
-477
-463
-243
-186
-302
-338
-320
-251
117
697
1091
1314
1597
1837
1895
1854
1749
1579
1416
1274
1157
1120
1125
1107
1073
967
755
557
425
306
224
202
164
78
-57
-254
-425
-438
-325
-263
-304
-310
-240
2
784
1704
1347
-313
-1424
-1300
-957
-769
-519
-511
-765
-788
-568
-434
-409
-371
-300
-256
-290
-309
-240
-204
-235
-200
-132
-143
-181
-234
-340
-383
-307
-287
-407
-522
-522
-500
-563
-591
-491
-452
-540
-518
-360
-299
-371
-441
-463
-462
-474
-509
-494
-428
-459
-560
-520
-386
-158
619
1651
1527
70
-1022
-905
-437
-284
-288
-254
-169
-98
-93
-71
62
248
368
396
384
374
449
675
877
863
776
803
840
788
750
771
750
666
591
521
423
349
310
253
215
228
216
150
77
12
-39
-73
-140
-245
-324
-347
-301
-260
-288
-236
-91
119
924
2164
2104
316
-1049
-850
-254
-27
83
130
98
88
57
2
-2
7
3
6
-2
-1
32
45
44
86
99
17
-32
46
130
139
101
-23
-210
-302
-282
-285
-319
-306
-273
-267
-250
-211
-205
-235
-249
-259
-270
-236
-233
-331
-365
-305
-339
-386
-312
-115
517
1370
1125
-347
-1255
-928
-509
-456
-334
-180
-183
-207
-192
-181
-171
-180
-182
-148
-120
-76
-22
-51
-82
-9
55
95
201
211
37
-74
-49
-32
19
118
121
83
125
142
89
80
85
33
15
44
-7
-136
-225
-270
-321
-353
-379
-452
-513
-494
-397
-32
612
762
-104
-1066
-1101
-586
-242
-62
76
122
203
361
430
440
502
530
482
471
522
568
600
622
619
604
590
564
523
484
472
470
422
342
297
284
243
195
206
224
187
154
152
130
122
161
180
137
65
31
63
4
-278
-519
-496
-390
-56
773
1139
4
-1503
-1735
-1091
-655
-493
-404
-362
-281
-203
-148
-28
34
-23
30
233
354
349
388
522
590
496
407
443
464
401
348
289
161
22
-78
-169
-255
-307
-325
-309
-267
-273
-360
-400
-324
-265
-289
-286
-248
-275
-316
-299
-308
-355
-342
-298
-29
817
1546
901
-640
-1347
-990
-640
-595
-524
-481
-562
-569
-467
-425
-457
-444
-363
-273
-219
-190
-127
-18
65
118
207
312
383
447
484
428
317
191
77
84
171
135
30
45
116
148
171
128
58
114
167
68
20
90
90
62
80
59
92
237
469
1136
2013
1766
246
-789
-578
-146
-70
-50
20
40
-2
-60
-72
-95
-214
-306
-291
-295
-290
-156
-12
36
94
203
270
271
289
385
479
449
331
223
139
87
90
91
49
24
35
8
-62
-108
-134
-170
-195
-238
-329
-362
-286
-251
-273
-194
-38
269
951
1398
657
-654
-1073
-622
-251
-116
1
-17
-187
-330
-417
-498
-575
-661
-732
-746
-699
-611
-513
-411
-250
-36
123
201
291
430
521
485
411
413
418
365
365
459
530
507
436
394
412
415
326
194
118
112
