# session 12
21
23
50
6
-113
-171
-145
-129
-143
-137
-111
-97
-108
-114
-98
-89
-100
-114
-129
-137
-130
-147
-179
-191
-202
2
611
905
76
-1068
-1227
-672
-341
-296
-266
-274
-308
-300
-280
-263
-240
-226
-218
-201
-182
-165
-153
-144
-132
-115
-95
-72
-53
-52
-70
-87
-91
-95
-105
-102
-88
-86
-90
-73
-50
-41
-35
-22
-1
22
27
13
3
-4
-7
0
-4
-15
-32
-19
290
915
1050
159
-851
-957
-484
-163
-57
0
21
36
65
65
60
98
142
146
145
179
221
232
226
253
310
336
329
336
334
285
232
211
191
155
132
128
117
93
78
85
90
72
54
66
82
70
51
35
15
23
45
19
-16
-14
118
636
1223
858
-433
-1210
-886
-345
-161
-125
-87
-68
-47
-34
-41
-24
18
40
37
51
97
130
138
162
188
194
205
209
166
107
70
33
-11
-40
-58
-74
-83
-90
-96
-85
-73
-91
-117
-114
-101
-98
-101
-124
-147
-129
-125
-176
-186
-154
-113
303
1111
1187
-29
-1164
-1076
-492
-272
-247
-187
-167
-168
-151
-148
-138
-99
-71
-61
-28
17
31
26
49
83
94
113
161
176
122
63
45
34
8
-13
-23
-29
-29
-30
-43
-55
-50
-43
-40
-31
-21
-23
-36
-58
-64
-46
-62
-90
-85
-113
108
926
1460
570
-830
-1088
-497
-185
-165
-95
-61
-82
-57
-28
-23
5
46
71
84
103
123
146
173
190
195
212
238
241
223
199
160
112
80
56
29
21
26
12
-10
-12
-10
-28
-49
-40
-18
-29
-63
-80
-81
-75
-74
-105
-128
-138
-167
54
643
819
-8
-946
-992
-527
-266
-207
-161
-137
-143
-147
-125
-78
-46
-42
-34
-9
13
36
74
118
152
190
240
258
226
191
162
109
60
41
17
-14
-26
-36
-49
-42
-33
-35
-25
-11
-8
1
22
38
39
21
14
40
33
-9
-11
4
208
830
1176
338
-909
-1136
-565
-196
-101
-7
11
-34
-6
40
33
36
81
112
115
136
179
206
229
281
329
341
335
324
285
212
136
92
63
14
-43
-70
-79
-103
-127
-122
-105
-116
-150
-164
-152
-155
-175
-163
-146
-172
-188
-169
-174
-179
-189
-190
235
1067
1058
-280
-1346
-1066
-416
-221
-182
-119
-119
-97
-58
-73
-58
9
29
15
44
96
123
142
183
222
234
248
263
235
175
130
103
71
24
-11
-10
-4
-28
-54
-54
-47
-45
-49
-55
-45
-33
-45
-54
-48
-63
-74
-57
-69
-97
-142
-171
269
1215
1334
-29
-1210
-946
-255
-98
-109
-23
-1
-6
23
29
37
75
108
122
133
157
184
192
198
228
250
242
230
223
204
169
118
68
42
26
-9
-45
-49
-41
-47
-60
-62
-55
-59
-79
-86
-74
-79
-98
-110
-136
-160
-155
-164
-204
-253
-241
80
639
610
-340
-1153
-1012
-508
-303
-261
-204
-199
-217
-189
-158
-145
-123
-91
-70
-53
-22
24
71
121
169
204
245
285
285
254
222
174
105
60
49
42
22
-13
-33
-13
1
-15
-13
6
-2
-11
7
20
21
16
-3
1
30
8
-38
-40
16
342
931
954
-47
-1014
-966
-415
-100
23
113
130
122
139
157
195
254
290
309
335
360
402
474
538
565
574
570
546
506
442
338
236
177
122
47
-2
-19
-52
-97
-122
-142
-168
-177
-184
-230
-275
-280
-297
-340
-348
-347
-379
-380
-350
-372
-396
-364
-193
370
952
480
-872
-1530
-1074
-540
-377
-280
-202
-196
-165
-114
-96
-76
-36
2
40
80
116
157
206
254
299
325
310
270
230
180
119
73
46
19
-6
-24
-39
-40
-33
-42
-66
-72
-57
-63
-96
-111
-93
-91
-114
-129
-146
-168
-170
-176
-195
-198
-177
49
619
889
135
-934
-1114
-609
-291
-229
-157
-121
-140
-126
-88
-52
-11
20
46
93
150
198
250
306
350
383
413
435
433
404
373
347
313
285
279
274
266
277
292
276
247
233
229
218
193
160
145
151
136
80
13
-19
-8
-14
-74
-112
-98
-19
342
889
813
-170
-1036
-1000
-552
-291
-194
-152
-173
-191
-165
-137
-116
-87
-59
-32
0
36
83
134
170
185
203
232
241
200
136
77
23
-20
-42
-64
-89
-93
-90
-101
-109
-115
-137
-146
-136
-157
-198
-198
-183
-192
-186
-177
-210
-228
-203
-200
-199
-177
-78
400
1063
859
-376
-1246
-1016
-494
-297
-252
-205
-178
-162
-144
-105
-58
-42
-22
21
50
89
162
197
195
243
324
347
314
277
234
186
165
165
138
92
79
94
83
55
53
53
22
1
7
-5
-30
-23
1
0
-19
-46
-69
-58
-61
-111
-122
-115
-9
624
1421
1033
-473
-1308
-924
-445
-349
-285
-220
-231
-205
-158
-150
-121
-59
-8
45
120
190
246
298
330
328
310
302
295
261
199
137
92
58
30
9
-10
-26
-34
-34
-34
-44
-56
-54
-54
-76
-84
-59
-41
-50
-63
-80
-76
-48
-65
-88
-65
-73
259
1287
1811
567
-1097
-1268
-542
-231
-213
-121
-100
-127
-91
-70
-72
-41
-8
11
47
91
129
171
204
204
188
177
168
144
102
46
-8
-48
-74
-88
-91
-95
-106
-113
-114
-114
-122
-128
-126
-131
-149
-144
-117
-107
-112
-117
-134
-125
-88
-100
-111
-99
-122
275
1325
1672
306
-1151
-1063
-324
-95
-89
5
13
-13
22
32
21
58
93
93
116
164
157
128
180
256
244
202
210
209
157
99
55
14
-6
5
12
-18
-50
-43
-36
-54
-64
-66
-75
-70
-73
-87
-56
-10
-28
-66
-75
-89
-99
-105
-136
-153
-158
-36
527
1132
685
-621
-1258
-853
-387
-265
-205
-155
-158
-142
-124
-125
-102
-69
-45
-3
34
46
80
138
173
194
229
248
224
179
146
116
72
18
-25
-57
-81
-83
-73
-82
-96
-83
-76
-92
-86
-63
-74
-88
-56
-42
-77
-98
-97
-112
-103
-77
-95
-113
-85
103
675
1191
691
-563
-1192
-875
-436
-237
-128
-90
-98
-70
-38
-21
12
38
44
68
115
161
202
253
321
369
384
405
423
385
322
297
280
242
209
185
157
144
143
125
97
73
52
41
47
47
27
16
28
39
31
20
3
-13
-7
-20
-59
-50
-10
175
811
1380
760
-682
-1336
-928
-476
-338
-254
-215
-234
-211
-173
-163
-139
-99
-70
-43
-13
24
72
123
164
187
195
193
177
138
77
9
-49
-95
-137
-166
-174
-179
-190
-185
-169
-164
-167
-153
-127
-118
-133
-138
-116
-94
-86
-91
-118
-141
-118
-96
-113
-98
-50
112
674
1272
873
-390
-1080
-751
-301
-166
-97
-30
-27
-26
-9
-4
10
38
63
86
115
154
193
225
250
260
259
270
279
250
196
147
99
54
27
16
7
-4
-9
-12
-20
-24
-26
-47
-67
-69
-91
-128
-111
-62
-63
-96
-115
-133
-137
-126
-158
-196
-174
-67
336
993
1022
-54
-1142
-1198
-691
-377
-254
-175
-165
-159
-114
-82
-62
-20
17
39
83
152
208
250
292
319
310
287
279
266
211
140
85
38
-1
-16
-16
-21
-24
-10
11
18
7
-13
-41
-53
-28
-10
-29
-38
-19
-24
-49
-47
-31
-24
-26
-46
-40
32
212
755
1496
1350
-17
-1142
-1027
-469
-225
-123
-37
-43
-51
-13
5
14
41
64
78
114
189
250
244
224
250
272
261
245
191
76
-20
-54
-71
-93
-105
-102
-96
-110
-133
-128
-110
-111
-120
-122
-128
-138
-142
-132
-119
-141
-189
-203
-197
-206
-190
-172
-195
-180
-114
115
804
1432
840
-593
-1190
-719
-279
-182
-104
-78
-137
-126
-60
-37
-38
-29
-7
36
82
115
150
185
191
178
179
182
164
131
90
47
11
-22
-52
-67
-67
-68
-86
-118
-141
-143
-134
-135
-154
-172
-171
-172
-174
-151
-127
-140
-154
-143
-139
-137
-137
-162
-163
-100
66
504
980
701
-367
-1088
-880
-382
-140
-55
10
52
83
106
120
153
213
282
325
338
364
418
466
512
564
581
571
573
558
487
407
349
292
240
212
191
174
168
152
128
127
133
112
92
99
94
46
0
-5
2
-13
-46
-90
-132
-139
-151
-202
-205
-154
22
625
1270
805
-638
-1437
-1078
-564
-395
-308
-244
-256
-253
-220
-211
-203
-179
-160
-146
-126
-92
-50
-15
0
7
12
2
-30
-75
-127
-182
-234
-274
-296
-302
-296
-284
-281
-282
-266
-240
-233
-244
-254
-268
-292
-301
-270
-234
-235
-250
-252
-261
-249
-215
-235
-280
-300
-203
440
1476
1451
-119
-1360
-1071
-386
-228
-207
-116
-114
-115
-72
-69
-63
-20
0
11
51
99
140
181
206
203
183
164
151
134
89
26
-21
-48
-71
-80
-67
-57
-65
-67
-54
-46
-44
-29
-5
9
11
12
18
37
85
133
134
111
116
147
180
196
202
240
278
427
1042
1731
1296
-122
-857
-417
127
275
345
416
409
398
426
471
513
537
561
606
654
693
731
762
778
780
768
755
739
685
596
523
455
369
314
297
256
200
173
147
118
125
127
77
44
70
77
32
-8
-20
-30
-50
-74
-98
-124
-145
-154
-172
-197
-202
-213
-119
325
755
333
-758
-1328
-1039
-637
-524
-507
-491
-517
-556
-589
-617
-625
-630
-653
-664
-636
-592
-550
-494
-416
-306
-160
-15
71
107
126
133
140
167
202
275
461
738
979
1104
1139
1151
1169
1192
1257
1394
1517
1523
1448
1339
1129
764
310
-200
-763
-1238
-1501
-1669
-1845
-1952
-1973
-1792
-1243
-912
-1611
-2763
-3114
-2679
-2277
-2130
-2053
-2000
-1940
-1827
-1719
-1701
-1796
-1995
-2303
-2701
-3071
-3321
-3493
-3623
-3694
-3737
-3715
-3503
-3119
-2587
-1885
-1396
-1495
-1675
-1336
-793
-400
77
605
737
472
226
119
-33
-201
-217
-210
-411
-749
-1010
-951
-263
917
1855
2091
2136
2893
4162
4610
4139
4197
4848
4599
3116
1442
527
696
1550
2498
3299
3769
4043
4714
5700
6272
6352
6412
6830
7934
9511
10725
11285
11519
11459
11139
10890
10550
9559
8092
6864
5920
4960
4290
3788
2314
-172
-2141
-3064
-3773
-4562
-5174
-5687
-6193
-6575
-6829
-7019
-7116
-7097
-7016
-6946
-6888
-6803
-6701
-6587
-6418
-6259
-6174
-6013
-5720
-5292
-4324
-2993
-2685
-3728
-4443
-3996
-3415
-3272
-3163
-2985
-2885
-2779
-2633
-2509
-2383
-2243
-2118
-1990
-1839
-1684
-1535
-1397
-1284
-1185
-1088
-994
-898
-811
-756
-718
-670
-626
-590
-531
-458
-397
-331
-245
-155
-79
-8
64
132
192
255
323
388
453
525
585
616
635
667
730
808
847
867
926
1004
1278
1951
2386
1689
452
50
512
943
1107
1215
1275
1297
1352
1403
1428
1467
1507
1522
1539
1579
1621
1646
1661
1672
1680
1685
1681
1661
1615
1537
1444
1367
1298
1222
1160
1119
1068
1004
955
905
845
804
768
708
649
606
542
477
451
433
387
337
292
270
305
331
289
280
341
546
1181
1841
1387
-28
-798
-438
43
159
189
203
148
101
69
22
-14
-37
-60
-69
-62
-47
-31
-29
-47
-75
-106
-145
-200
-278
-371
-458
-525
-578
-629
-678
-720
-752
-778
-796
-815
-839
-857
-868
-874
-871
-863
-864
-860
-829
-801
-798
-796
-796
-791
-754
-738
-759
-729
-691
-503
278
1064
430
-1202
-1853
-1268
-765
-691
-614
-537
-536
-505
-458
-436
-395
-343
-304
-260
-208
-154
-87
-21
15
23
34
57
72
62
27
-17
-54
-70
-68
-64
-62
-56
-46
-38
-35
-37
-35
-27
-24
-29
-24
-15
-12
5
20
12
2
-3
-12
3
19
-2
0
18
118
688
1493
1297
-64
-986
-692
-144
18
64
124
128
143
178
189
208
241
262
284
317
348
376
404
422
432
438
439
434
414
366
298
241
202
166
137
121
111
96
81
76
74
65
52
41
36
38
35
22
32
67
67
33
24
22
7
24
33
3
-4
-2
182
893
1512
838
-635
-1200
-689
-208
-80
-8
31
20
30
36
42
89
133
146
175
220
241
256
296
332
333
328
335
320
269
203
135
71
20
-24
-56
-67
-73
-97
-132
-148
-145
-153
-169
-172
-172
-176
-176
-193
-212
-187
-153
-163
-180
-184
-206
-208
-179
-203
-232
-187
-92
327
1144
1275
14
-1282
-1277
-641
-332
-249
-176
-165
-158
-124
-113
-98
-63
-37
-7
37
79
120
167
207
225
226
224
212
175
117
59
5
-43
-76
-99
-121
-135
-138
-140
-144
-145
-146
-149
-148
-146
-150
-151
-148
-159
-169
-149
-132
-145
-159
-169
-181
-164
-153
-179
-171
-151
12
716
1431
837
-710
-1347
-786
-283
-213
-158
-95
-103
-83
-51
-45
-17
27
52
76
108
146
189
219
228
236
248
253
249
227
179
121
77
51
32
15
3
-1
-2
-4
-7
-8
-7
-13
-20
-21
-24
-25
-17
-19
-27
-10
11
-3
-24
-34
-49
-43
-23
-43
-59
-42
35
496
1276
1251
-28
-1113
-933
-308
-84
-46
25
31
19
55
79
91
126
158
179
218
265
295
319
357
387
398
415
432
407
340
270
204
149
121
98
59
28
13
-8
-22
-7
0
-21
-40
-52
-62
-50
-26
-33
-60
-62
-46
-53
-87
-105
-103
-127
-151
-126
-118
-160
-154
-106
43
552
1027
500
-741
-1260
-811
-372
-274
-207
-157
-186
-182
-143
-129
-116
-87
-64
-40
-11
13
39
69
91
106
123
133
115
71
15
-39
-83
-118
-149
-177
-198
-210
-213
-217
-222
-217
-206
-204
-210
-212
-208
-207
-206
-195
-177
-174
-170
-144
-124
-137
-153
-156
-152
-130
-121
-138
-122
-82
115
770
1374
789
-643
-1269
-775
-252
-118
-64
-16
-2
44
81
81
100
143
177
213
267
321
365
404
443
478
501
512
513
492
429
346
283
241
204
179
172
169
161
149
137
129
