# session 0
-155
-164
-171
-181
-190
-190
-188
-192
-192
-186
-172
-155
-143
-134
-126
-136
-165
-185
-178
-161
-163
-185
-175
-147
-167
-171
-100
48
552
1389
1467
194
-1066
-1063
-465
-201
-162
-97
-74
-83
-57
-21
-15
-32
-32
-6
9
13
37
67
83
96
111
131
166
200
214
231
269
303
315
327
346
355
348
332
300
244
175
107
41
-11
-38
-49
-62
-70
-63
-54
-57
-66
-64
-49
-40
-46
-55
-54
-46
-42
-48
-54
-48
-46
-55
-61
-63
-68
-68
-65
-70
-74
-70
-63
-55
-38
-22
-16
-10
-7
-18
-44
-70
-70
-45
-28
-29
-40
-76
-94
-40
63
430
1219
1573
593
-758
-999
-474
-202
-145
-27
0
-54
-48
-29
-30
-16
-6
-8
-1
8
18
30
19
1
16
49
88
141
160
122
120
181
214
214
230
221
183
200
243
190
73
15
-14
-93
-161
-162
-161
-174
-155
-159
-204
-190
-127
-130
-160
-125
-87
-119
-153
-110
-53
-84
-155
-157
-111
-107
-141
-148
-118
-104
-119
-129
-130
-117
-77
-68
-107
-102
-69
-101
-151
-148
-137
-145
-148
-150
-156
-156
-119
-55
35
406
1134
1374
425
-790
-1027
-552
-206
-86
-4
23
22
50
69
61
66
77
72
86
135
151
116
116
166
183
155
163
240
301
265
233
308
367
318
288
337
360
331
299
261
208
148
75
17
-4
-17
-38
-55
-73
-88
-94
-99
-107
-112
-120
-128
-139
-151
-156
-152
-154
-168
-180
-190
-199
-199
-188
-182
-178
-157
-134
-145
-176
-182
-174
-179
-180
-177
-189
-177
-164
-191
-173
-95
113
842
1770
1512
-59
-1140
-907
-391
-233
-156
-82
-91
-83
-47
-41
-34
-12
-3
0
7
16
34
55
71
97
122
132
149
177
186
190
233
278
279
271
294
311
288
237
173
91
2
-71
-118
-146
-163
-170
-168
-169
-173
-173
-169
-159
-137
-115
-105
-101
-93
-88
-91
-97
-99
-99
-106
-113
-108
-106
-125
-147
-145
-118
-99
-116
-137
-122
-104
-122
-135
-121
-126
-147
-149
-147
-137
-129
-157
-162
-120
74
853
1932
1802
158
-1100
-940
-433
-313
-252
-155
-149
-123
-70
-82
-105
-83
-64
-61
-46
-24
-15
-2
40
93
133
167
202
239
276
299
324
367
369
324
343
421
434
371
287
176
66
2
-41
-79
-96
-109
-126
-116
-89
-90
-112
-104
-74
-86
-125
-105
-40
-22
-46
-58
-59
-62
-65
-70
-75
-74
-78
-87
-97
-105
-93
-64
-39
-22
-32
-79
-121
-131
-119
-99
-104
-121
-97
-94
-130
-106
-15
392
1426
2163
1274
-405
-966
-477
-154
-124
-43
-19
-75
-64
-32
-37
-29
-6
-3
-6
-2
0
10
34
53
51
48
54
65
90
128
156
172
197
216
197
156
148
180
189
130
35
-53
-124
-171
-188
-209
-246
-256
-240
-240
-250
-245
-251
-275
-281
-273
-282
-295
-290
-280
-268
-246
-223
-213
-198
-173
-156
-148
-135
-115
-95
-87
-106
-136
-152
-150
-140
-137
-148
-141
-125
-146
-145
-66
121
674
1501
1566
374
-862
-1047
-634
-330
-177
-105
-110
-98
-61
-56
-54
-30
-6
14
42
72
80
61
60
96
121
129
166
212
220
221
235
235
245
297
346
350
328
297
268
243
200
140
99
79
61
54
60
51
35
39
50
46
36
35
33
16
4
2
-13
-26
-26
-40
-64
-58
-51
-69
-60
-39
-65
-75
-22
6
-26
-42
-34
-40
-50
-61
-57
-26
-36
-74
-37
82
452
1255
1746
944
-484
-1054
-722
-378
-256
-176
-145
-154
-132
-100
-87
-80
-73
-66
-65
-64
-54
-48
-54
-43
-5
17
12
15
40
62
70
82
98
106
109
120
135
136
115
75
22
-39
-88
-108
-120
-147
-159
-136
-125
-147
-158
-137
-121
-130
-136
-120
-108
-116
-122
-113
-116
-134
-142
-141
-143
-145
-146
-149
-136
-113
-111
-104
-67
-58
-96
-116
-106
-104
-105
-100
-92
-66
-56
-75
-29
161
591
1232
1426
542
-709
-1099
-686
-302
-174
-120
-101
-105
-100
-100
-94
-77
-72
-66
-46
-36
-32
-11
24
61
96
121
157
204
229
238
270
302
304
306
320
326
330
330
300
245
185
123
64
14
-18
-33
-51
-84
-93
-55
-17
-19
-32
-35
-39
-44
-41
-43
-56
-57
-51
-51
-52
-54
-62
-59
-42
-36
-33
-11
-10
-51
-85
-94
-102
-97
-98
-122
-109
-75
-99
-117
-90
112
950
2047
1828
125
-1081
-863
-348
-231
-201
-157
-179
-173
-144
-151
-151
-140
-145
-147
-141
-135
-114
-86
-67
-42
-3
28
49
77
106
131
156
178
192
208
224
226
216
201
161
88
15
-37
-81
-126
-158
-164
-156
-151
-157
-167
-163
-152
-170
-212
-205
-147
-127
-157
-165
-136
-116
-112
-107
-92
-74
-62
-49
-37
-44
-68
-85
-80
-63
-64
-84
-74
-55
-97
-135
-87
47
485
1229
1382
359
-791
-932
-467
-189
-121
-76
-58
-45
-20
-7
13
43
50
54
84
111
120
136
156
164
183
188
104
0
18
110
151
162
194
223
239
254
262
252
215
144
69
21
-10
-36
-38
-44
-79
-70
-5
-43
-188
-231
-137
-68
-59
-51
-49
-51
-45
-55
-73
-71
-71
-78
-58
-38
-69
-114
-121
-113
-114
-127
-143
-120
-95
-146
-174
-101
103
760
1714
1679
228
-1045
-1027
-520
-320
-276
-242
-264
-268
-235
-220
-209
-183
-159
-134
-104
-75
-47
-17
18
57
92
126
166
201
229
270
314
325
323
338
353
344
323
292
239
173
113
55
-12
-67
-92
-105
-117
-126
-135
-141
-138
-134
-135
-138
-145
-158
-165
-168
-167
-159
-157
-163
-146
-118
-128
-159
-172
-172
-169
-166
-172
-161
-153
-177
-148
-34
215
895
1707
1430
-72
-1171
-1006
-470
-261
-198
-152
-160
-155
-129
-125
-123
-111
-106
-102
-90
-78
-69
-48
-15
7
29
66
78
94
195
262
174
126
241
286
187
162
228
220
152
111
80
37
6
-11
-27
-39
-40
-28
-15
-17
-21
-18
-15
3
36
44
32
38
31
12
58
110
68
47
129
143
34
-20
17
25
-15
-14
47
36
-84
-83
136
583
1430
2086
1373
-207
-887
-538
-266
-226
-140
-156
-215
-142
-97
-127
-103
-105
-180
-189
-144
-154
-164
-115
-88
-121
-136
-107
-81
-71
-44
-8
7
11
25
41
52
65
75
64
22
-32
-59
-58
-75
-112
-122
-117
-140
-178
-199
-203
-199
-197
-207
-216
-223
-242
-241
-215
-212
-225
-207
-190
-214
-232
-230
-237
-240
-223
-192
-163
-165
-178
-118
76
472
974
1032
271
-706
-1037
-726
-340
-157
-102
-69
-58
-78
-73
-30
-10
-18
7
56
85
97
107
118
141
164
176
198
228
237
237
261
293
306
312
325
337
345
342
315
264
209
162
131
112
97
86
88
92
89
94
112
120
111
110
119
115
98
93
99
86
62
67
94
94
57
10
-21
-36
-54
-59
-27
-29
-106
-120
-41
127
758
1728
1719
288
-930
-839
-316
-152
-133
-99
-117
-118
-87
-89
-99
-88
-76
-81
-96
-107
-120
-147
-163
-155
-150
-153
-141
-121
-116
-114
-99
-81
-60
-39
-29
-18
8
18
-18
-63
-81
-98
-119
-114
-98
-99
-97
-82
-76
-78
-78
-82
-85
-88
-109
-127
-113
-105
-123
-124
-107
-117
-150
-177
-193
-192
-194
-214
-216
-214
-237
-218
-114
187
864
1392
799
-563
-1236
-898
-437
-264
-196
-169
-171
-142
-118
-120
-104
-79
-78
-84
-77
-66
-63
-67
-72
-64
-43
-23
-16
-14
-4
14
28
32
37
48
58
68
89
109
99
74
66
69
59
41
36
43
51
55
59
59
49
26
9
6
-3
-22
-7
42
73
72
66
67
93
133
155
192
247
242
239
312
475
1061
2045
2182
828
-521
-582
-70
133
166
212
197
171
173
165
153
151
146
147
156
153
138
129
129
127
124
127
124
106
84
68
56
35
-13
-63
-78
-80
-103
-137
-169
-200
-228
-260
-297
-314
-310
-303
-301
-299
-298
-299
-290
-275
-273
-280
-270
-247
-240
-241
-220
-186
-173
-189
-206
-202
-191
-187
-179
-168
-186
-206
-170
-84
175
724
1037
430
-633
-1068
-782
-434
-278
-219
-230
-248
-218
-205
-228
-230
-215
-212
-202
-180
-164
-153
-136
-107
-78
-65
-56
-40
-25
-10
11
24
45
90
125
132
140
142
108
69
48
10
-45
-64
-46
-36
-33
-12
11
22
40
66
84
107
137
144
144
163
165
122
82
81
87
73
76
99
90
91
154
258
593
1260
1533
744
-352
-646
-293
-1
98
143
151
147
157
158
159
171
172
160
155
160
157
147
149
158
149
140
159
179
172
161
162
163
157
149
145
147
145
119
72
25
-19
-71
-113
-131
-141
-157
-175
-198
-230
-261
-274
-291
-320
-317
-281
-285
-319
-297
-243
-242
-275
-279
-271
-278
-258
-227
-252
-261
-178
28
557
1246
1144
-44
-1083
-1055
-551
-281
-199
-147
-127
-109
-88
-83
-59
-24
-20
-14
24
48
43
58
101
125
127
142
167
171
167
178
195
204
202
196
191
187
177
155
111
52
1
-34
-63
-107
-163
-154
-75
-89
-199
-191
-66
-42
-116
-143
-123
-115
-112
-105
-94
-91
-113
-131
-120
-125
-126
-74
-38
-52
-34
83
525
1337
1588
511
-809
-981
-419
-111
-64
-24
-36
-54
-24
-35
-70
-54
-42
-75
-99
-96
-96
-95
-83
-82
-93
-80
-56
-56
-57
-22
12
19
33
64
84
111
154
166
130
88
59
40
39
46
40
26
22
21
17
10
11
19
24
25
31
35
35
48
69
59
17
-5
-6
-14
-11
-8
-41
-47
-23
108
778
1759
1659
174
-954
-759
-246
-155
-171
-121
-111
-104
-82
-82
-68
-32
-11
3
18
26
31
40
49
66
88
101
107
119
131
138
143
149
149
141
137
132
104
50
-8
-57
-104
-140
-160
-184
-212
-221
-211
-211
-216
-214
-212
-210
-203
-193
-184
-169
-155
-142
-125
-124
-151
-168
-159
-166
-177
-156
-156
-187
-174
-111
184
927
1417
662
-698
-1156
-693
-298
-212
-163
-129
-127
-103
-79
-72
-57
-36
-24
-12
10
35
56
74
93
113
135
160
178
184
194
209
219
223
224
225
231
236
223
188
147
107
67
37
16
1
-11
-20
-28
-35
-45
-54
-60
-67
-73
-78
-84
-95
-96
-86
-83
-88
-86
-76
-84
-117
-144
-145
-146
-155
-137
-124
-166
-177
-105
80
634
1375
1258
18
-987
-873
-361
-154
-115
-63
-41
-34
-19
-10
-1
9
18
39
62
81
99
111
114
125
138
135
128
127
118
105
104
103
95
100
122
141
148
140
115
77
35
-2
-25
-35
-44
-56
-63
-58
-49
-49
-51
-45
-40
-42
-36
-28
-37
-47
-41
-39
-46
-38
-22
-22
-27
-15
-1
-14
-41
-48
-52
-72
-66
-40
-59
-68
-11
134
591
1275
1281
206
-866
-978
-555
-268
-158
-110
-103
-93
-74
-74
-75
-58
-38
-25
-19
-13
0
14
26
32
37
60
87
94
90
93
94
88
88
90
88
84
84
80
52
3
-45
-87
-124
-149
-163
-172
-169
-155
-142
-134
-125
-113
-100
-91
-93
-97
-91
-84
-87
-97
-104
-108
-115
-119
-116
-114
-112
-107
-87
-52
-31
-44
-60
-57
-50
-57
-55
-33
-42
-68
-39
29
346
1224
1919
1188
-404
-1091
-682
-258
-142
-68
-31
-49
-43
-29
-30
-17
-6
-9
-9
-4
-1
6
20
32
42
56
74
85
94
108
125
138
148
150
148
151
158
153
129
91
42
-12
-59
-90
-107
-120
-122
-114
-106
-100
-87
-73
-71
-76
-76
-75
-86
-103
-110
-109
-111
-115
-113
-104
-90
-78
-72
-63
-47
-31
-13
14
38
50
42
13
-7
-2
-11
-28
-15
-26
-65
-64
-4
408
1423
2052
1090
-525
-994
-482
-158
-133
-74
-42
-60
-36
-10
-10
-1
12
22
37
47
51
57
70
85
96
101
109
115
114
109
108
106
94
82
88
95
81
62
50
19
-35
-81
-115
-142
-155
-156
-154
-150
-144
-132
-115
-106
-100
-89
-87
-96
-101
-109
-135
-158
-165
-168
-166
-160
-171
-187
-175
-157
-175
-192
-167
-144
-154
-153
-119
-96
-98
-86
-63
-58
-58
-60
-80
-96
-87
-67
-44
-57
-93
-41
118
500
1299
1811
932
-689
-1304
-799
-322
-207
-149
-100
-87
-75
-77
-75
-47
-32
-30
-14
-7
-6
21
49
55
74
113
128
122
136
170
197
219
235
240
239
249
271
291
288
259
212
156
99
59
43
22
-19
-50
-42
-19
-21
-47
-58
-49
-55
-70
-65
-60
-80
-97
-92
-84
-85
-85
-79
-74
-67
-50
-35
-29
-11
16
13
-22
-41
-25
-18
-35
-25
-25
-86
-94
-6
256
1084
2040
1580
-285
-1429
-1046
-439
-302
-244
-168
-174
-160
-123
-126
-123
-97
-78
-63
-45
-28
-9
13
38
63
84
103
125
146
161
170
177
181
180
176
165
149
139
123
79
15
-46
-95
-126
-141
-155
-167
-162
-148
-140
-137
-127
-108
-91
-89
-94
-89
-85
-89
-93
-96
-103
-108
-115
-119
-109
-103
-116
-117
-106
-121
-142
-134
-118
-117
-106
-82
-77
-101
-138
-149
-128
-130
-129
-82
-88
-142
-98
21
490
1696
2489
1300
-699
-1219
-550
-176
-152
-77
-62
-88
-52
-46
-67
-45
-26
-32
-29
-23
-23
-18
-7
8
25
35
45
65
81
89
100
111
116
126
141
151
157
162
152
121
74
19
-29
-57
-69
-69
-58
-45
-32
-15
1
16
33
43
37
25
12
-12
-38
-54
-70
-90
-102
-110
-118
-118
-112
-112
-108
-92
-80
-70
-45
-22
-19
