# session 9
-43
-79
21
-83
-505
-765
-649
-501
-461
-334
-126
-4
10
16
49
38
-32
-45
6
-11
-74
-66
-34
-72
-129
-151
-164
-191
-236
-264
-239
-227
-262
-257
-204
-194
-194
-180
-214
-199
-49
147
559
1222
1236
69
-1091
-1080
-463
-217
-293
-273
-165
-100
-22
84
128
161
281
379
348
293
322
395
439
430
403
390
406
476
525
414
253
258
292
150
-3
-2
2
-80
-129
-117
-138
-203
-267
-316
-331
-311
-287
-288
-334
-390
-389
-372
-363
-240
-48
162
748
1559
1417
59
-1041
-1008
-550
-289
-171
-144
-162
-105
-34
-29
-19
21
23
-6
-1
22
16
10
46
67
36
28
84
117
65
-21
-35
63
174
196
157
110
65
38
4
-67
-123
-161
-245
-323
-315
-309
-365
-391
-351
-270
-158
-113
-95
41
157
461
1585
2654
1854
-120
-906
-339
152
239
276
252
203
239
244
161
100
74
37
19
35
46
29
-2
-53
-161
-308
-396
-399
-390
-390
-380
-366
-328
-267
-232
-222
-182
-125
-90
-69
-74
-133
-185
-167
-161
-212
-208
-134
-134
-204
-199
-144
-167
-209
-182
-119
193
890
1172
251
-1012
-1288
-778
-399
-272
-160
-99
-120
-106
0
124
161
135
154
218
251
261
295
354
398
393
382
429
471
436
406
411
357
312
384
400
244
122
132
136
84
6
-105
-139
-25
35
-97
-229
-196
-115
-128
-188
-199
-167
-134
-115
-26
320
772
665
-197
-998
-1054
-643
-320
-215
-209
-224
-232
-211
-153
-82
-5
86
169
242
327
380
354
313
291
238
176
183
238
253
217
188
159
92
14
-33
-57
-73
-100
-160
-202
-184
-177
-215
-210
-158
-172
-244
-268
-243
-197
-118
-74
-57
60
255
594
1204
1429
472
-888
-1285
-854
-481
-328
-241
-246
-288
-289
-274
-258
-230
-184
-105
-15
35
76
154
230
278
329
363
354
360
398
375
264
170
139
113
69
45
49
56
55
33
-19
-89
-183
-307
-411
-476
-562
-663
-710
-718
-712
-667
-637
-627
-528
-336
114
1047
1651
781
-788
-1299
-757
-293
-162
-65
21
64
105
159
225
262
274
336
402
377
334
360
405
429
437
429
439
465
421
322
285
283
221
168
226
331
409
463
478
450
435
435
391
317
280
291
291
258
210
148
102
98
81
49
62
120
438
1127
1355
376
-872
-1150
-758
-491
-407
-351
-317
-263
-206
-209
-214
-168
-131
-133
-145
-161
-169
-139
-116
-131
-126
-91
-79
-60
-11
-18
-104
-208
-329
-470
-584
-675
-753
-770
-733
-699
-666
-631
-645
-683
-650
-562
-501
-470
-445
-442
-437
-407
-393
-376
-281
-66
391
975
971
50
-877
-939
-462
-105
28
84
142
212
258
269
289
327
354
368
390
436
502
570
622
655
681
702
708
690
642
580
541
490
419
427
456
328
172
206
258
155
76
97
53
-30
-14
33
20
7
10
-3
1
14
4
42
111
264
806
1397
965
-365
-1110
-822
-409
-290
-217
-159
-176
-182
-167
-164
-149
-134
-152
-167
-146
-122
-114
-96
-62
-35
-32
-37
-33
-20
-16
-43
-97
-145
-173
-196
-215
-226
-230
-229
-223
-211
-197
-191
-189
-170
-143
-129
-118
-113
-134
-141
-111
-119
-152
-102
-20
221
924
1451
682
-802
-1355
-888
-460
-333
-233
-188
-214
-178
-101
-76
-84
-72
-49
-19
39
113
165
197
223
237
256
295
332
347
335
286
220
170
142
120
106
109
119
114
97
98
112
99
59
38
42
24
-17
-51
-76
-69
-42
-70
-96
-48
49
539
1536
1787
393
-1125
-1192
-567
-327
-269
-165
-183
-225
-172
-132
-126
-104
-78
-49
0
55
107
154
192
219
226
219
219
221
194
136
84
55
26
-7
-24
-26
-34
-49
-64
-69
-69
-94
-132
-115
-57
-50
-87
-97
-100
-124
-124
-105
-108
-102
-66
123
685
1187
695
-553
-1185
-839
-390
-260
-210
-162
-156
-137
-103
-89
-72
-43
-26
-20
-2
20
38
61
89
107
111
110
111
115
110
75
11
-45
-64
-63
-76
-109
-124
-97
-92
-138
-136
-70
-57
-81
-44
-5
-14
-8
1
-15
-7
2
-21
4
105
363
889
1188
556
-546
-974
-638
-268
-123
-48
-11
-12
-6
1
7
39
71
82
96
116
128
139
158
173
182
192
202
215
225
210
169
137
118
85
33
5
19
28
-9
-47
-35
-18
-38
-57
-44
-43
-77
-98
-104
-119
-111
-102
-149
-159
-115
-71
367
1272
1405
104
-1127
-1051
-484
-301
-263
-176
-160
-151
-104
-97
-108
-90
-73
-67
-59
-49
-28
4
27
36
48
82
127
153
151
139
128
113
99
87
74
61
43
19
11
24
26
-8
-41
-35
-15
-21
-44
-68
-99
-111
-96
-112
-138
-125
-77
241
933
1154
185
-998
-1134
-587
-255
-175
-119
-101
-98
-66
-46
-37
-15
10
37
61
77
102
143
175
188
202
236
271
280
278
283
280
255
225
208
200
182
159
156
151
116
86
82
68
33
10
-4
-29
-58
-85
-97
-88
-102
-158
-183
-174
-92
304
798
518
-574
-1262
-978
-467
-277
-239
-201
-190
-190
-189
-174
-129
-94
-97
-93
-57
-25
-12
14
55
78
86
109
136
130
100
90
87
47
-6
-23
-29
-55
-68
-58
-64
-82
-76
-68
-85
-81
-40
-21
-32
-38
-56
-74
-51
-48
-79
-84
-56
243
983
1308
337
-970
-1178
-611
-257
-156
-62
-46
-70
-35
1
4
16
43
81
135
185
216
234
260
314
368
392
401
396
360
313
270
217
159
117
89
62
35
19
11
-7
-22
-28
-52
-81
-74
-68
-97
-114
-118
-147
-145
-115
-146
-170
-117
9
493
1215
1033
-351
-1368
-1099
-485
-261
-170
-71
-52
-41
-8
5
27
64
87
109
139
164
193
234
269
287
294
301
305
286
236
178
133
90
46
22
15
0
-17
-26
-43
-51
-30
-43
-115
-147
-112
-110
-149
-159
-165
-188
-180
-175
-205
-220
-195
74
744
1049
161
-1062
-1254
-690
-338
-263
-197
-167
-163
-131
-120
-119
-85
-44
-14
17
57
107
147
169
202
246
259
256
266
257
213
174
146
107
68
46
34
23
10
-9
-32
-46
-53
-71
-93
-93
-85
-109
-155
-192
-208
-206
-216
-237
-234
-228
-120
333
795
434
-604
-1168
-895
-474
-298
-228
-188
-180
-158
-128
-112
-81
-41
-15
16
70
118
151
189
231
264
296
335
359
356
335
302
261
235
226
220
211
206
200
187
177
179
181
157
125
121
125
108
84
55
17
18
35
3
-27
-21
135
774
1491
1028
-506
-1368
-998
-473
-301
-203
-148
-168
-144
-118
-136
-109
-48
-29
-10
48
89
105
145
185
183
177
192
187
157
129
96
53
24
6
-19
-40
-35
-13
-13
-37
-38
-15
-25
-62
-63
-38
-38
-52
-65
-96
-111
-99
-120
-135
-88
40
519
1279
1235
-83
-1239
-1105
-468
-198
-121
-39
-34
-50
-33
-22
-4
29
49
76
119
150
173
205
239
260
253
219
183
154
108
40
-21
-58
-81
-94
-93
-83
-74
-66
-61
-52
-34
-33
-69
-102
-108
-136
-192
-241
-281
-311
-335
-375
-389
-386
-332
165
1004
949
-395
-1440
-1194
-599
-427
-387
-303
-285
-277
-240
-223
-196
-146
-105
-63
-10
35
76
125
166
188
205
228
251
258
227
176
147
137
116
98
98
89
67
54
45
38
44
44
36
49
69
71
68
54
28
41
69
47
40
50
96
566
1359
1303
60
-912
-731
-227
-68
-23
41
46
58
96
100
93
103
113
133
170
202
229
262
286
300
322
356
386
377
321
261
221
171
112
80
65
34
0
-18
-27
-26
-31
-68
-92
-70
-60
-86
-100
-117
-157
-155
-134
-168
-187
-147
-22
417
932
612
-556
-1297
-1041
-522
-281
-195
-143
-134
-129
-110
-95
-91
-90
-72
-38
-17
-1
41
84
90
97
143
181
175
164
161
134
88
52
23
-4
-27
-48
-64
-78
-96
-101
-97
-114
-126
-91
-48
-45
-55
-58
-56
-27
-17
-73
-100
-70
39
533
1202
914
-461
-1376
-1082
-511
-300
-218
-166
-184
-172
-132
-129
-116
-80
-62
-34
30
89
123
164
203
214
217
234
238
206
156
111
70
30
-10
-41
-50
-42
-43
-53
-59
-64
-74
-88
-104
-98
-73
-76
-110
-148
-175
-175
-175
-210
-231
-259
-205
352
1141
881
-516
-1373
-989
-414
-266
-221
-149
-133
-107
-53
-18
14
56
89
122
170
227
286
341
381
407
426
444
459
459
430
375
325
300
290
274
245
214
200
198
192
181
167
152
143
143
145
141
114
57
20
34
24
-22
-16
-5
50
473
1004
681
-452
-1096
-786
-319
-157
-100
-55
-66
-84
-75
-57
-44
-37
-24
6
42
83
100
74
69
120
144
123
124
127
90
45
4
-51
-92
-107
-128
-155
-162
-156
-165
-194
-225
-245
-253
-247
-235
-232
-242
-245
-222
-191
-200
-220
-182
-142
-10
505
1012
572
-594
-1183
-866
-427
-247
-166
-136
-160
-159
-129
-117
-109
-71
-24
6
44
105
150
171
198
228
241
254
279
284
239
169
119
79
23
-20
-25
-23
-38
-59
-68
-67
-69
-87
-117
-128
-109
-103
-128
-152
-156
-140
-124
-148
-163
-162
-126
348
1241
1272
-126
-1340
-1159
-486
-219
-128
-30
-21
-16
31
51
75
130
164
179
223
281
324
358
381
376
353
337
345
357
326
253
194
160
121
92
83
68
56
69
81
83
94
93
75
82
101
81
53
52
22
-20
-1
7
-51
-77
-65
115
710
1126
385
-912
-1268
-712
-288
-206
-158
-137
-154
-132
-102
-90
-64
-28
5
32
51
87
143
166
152
145
131
89
75
95
62
-29
-87
-91
-94
-106
-110
-113
-119
-124
-125
-121
-116
-123
-136
-139
-143
-160
-180
-193
-198
-174
-136
-134
-134
-103
-54
208
706
739
-122
-994
-976
-449
-112
9
91
123
120
139
164
164
157
165
181
188
199
225
255
279
293
303
321
339
338
312
258
188
129
89
59
44
41
32
22
26
33
38
37
22
14
21
20
11
-3
-53
-100
-73
-55
-113
-141
-127
-17
512
1166
836
-489
-1330
-1069
-551
-327
-237
-200
-217
-215
-193
-173
-144
-129
-115
-76
-44
-35
-8
35
58
51
30
17
18
-11
-83
-146
-178
-220
-284
-330
-352
-374
-390
-399
-421
-452
-465
-469
-493
-517
-506
-490
-503
-514
-511
-515
-507
-507
-545
-548
-509
-325
314
936
359
-1123
-1815
-1372
-887
-753
-658
-602
-643
-620
-473
-234
93
432
652
716
727
883
1270
1699
1932
1956
1867
1687
1439
1187
937
685
543
643
918
1166
1303
1383
1455
1519
1536
1492
1428
1350
1193
967
794
716
647
533
380
205
78
-10
-151
-279
-339
-326
152
1033
936
-648
-1895
-1602
-871
-656
-635
-572
-539
-443
-261
-72
150
399
605
759
880
960
1012
1059
1078
1055
1012
964
899
805
674
511
341
181
29
-113
-236
-341
-436
-505
-543
-577
-627
-687
-767
-866
-946
-1008
-1090
-1189
-1294
-1383
-1408
-1424
-1483
-1483
-1460
-1339
-546
550
197
-1655
-2685
-2097
-1401
-1260
-1161
-1049
-1070
-1071
-1032
-1018
-996
-999
-1083
-1235
-1460
-1658
-1636
-1435
-1273
-1190
-1121
-1085
-1111
-1181
-1289
-1410
-1518
-1623
-1717
-1770
-1788
-1773
-1711
-1619
-1537
-1484
-1458
-1455
-1486
-1550
-1588
-1566
-1504
-1398
-1253
-1089
-807
-364
18
281
701
1397
2551
4395
5764
4874
2593
1601
2272
3060
3617
4393
4980
4901
4597
4643
4971
5231
5184
4676
3751
2713
1906
1316
569
-68
395
1815
2770
2844
2793
2825
2700
2541
2455
2295
2013
1720
1549
1462
1231
955
1135
1905
2978
3940
3852
2096
-241
-2059
-3805
-5591
-6899
-7810
-7919
-7488
-8719
-10693
-9015
-4179
-946
-87
309
474
1377
4436
8010
9759
9102
5450
-60
-3258
-2721
-1449
-943
-310
284
355
391
555
602
634
715
713
675
650
509
232
-89
-516
-1024
-1426
-1895
-2682
-3374
-3514
-3385
-3342
-3297
-3186
-3090
-2986
-2848
-2731
-2643
-2528
-2366
-2202
-2080
-1996
-1907
-1770
-1604
-1498
-1434
-1330
-1213
-903
-145
378
-302
-1476
-1673
-1028
-567
-413
-262
-146
-73
37
135
200
284
372
446
531
624
699
765
833
903
979
1051
1095
1108
1113
1123
1126
1120
1106
1076
1043
1034
1043
1032
1010
1006
1008
990
972
969
956
941
949
950
931
915
893
857
842
820
765
744
777
877
1204
1565
1268
263
-490
-424
7
295
409
439
427
418
421
425
429
425
421
434
447
453
470
492
493
484
478
457
417
367
316
269
221
160
96
46
13
-10
-39
-86
-130
-158
-194
-241
-267
-277
-314
-357
-354
-335
-336
-326
-317
-338
-336
-315
-329
-304
-202
21
608
1193
689
-770
-1583
-1220
-673
-476
-391
-345
-364
-361
-340
-341
-333
-306
-274
-234
-199
-165
-118
-74
-55
-51
-57
-75
-91
-114
-169
-233
-274
-295
-311
-320
-318
-313
-309
-300
-296
-301
-306
-309
-320
-326
-309
-287
-274
-256
-226
-212
-233
-237
-197
-190
-209
-186
-151
191
1140
1681
608
-1000
-1304
-640
-275
-248
-174
-133
-153
-130
-102
-91
-61
-20
27
93
156
214
286
349
375
376
371
356
322
276
226
168
106
73
75
73
66
87
115
121
122
115
88
80
92
68
29
34
52
41
33
27
-2
-13
7
-9
-29
12
101
401
981
1120
191
-970
-1187
-677
-268
-112
-40
-27
-18
30
62
71
98
133
162
185
196
212
244
267
273
273
262
241
228
207
151
85
36
-6
-45
-77
-98
-93
-67
-49
-47
-48
-44
-26
0
7
-11
-17
-4
-2
-9
-17
-36
-56
-58
-64
-90
-103
-84
