# session 40
-14
-37
20
26
-162
-388
-439
-402
-400
-375
-334
-341
-341
-310
-305
-289
-186
92
653
1100
645
-523
-1195
-958
-520
-324
-247
-207
-197
-177
-162
-155
-127
-102
-104
-102
-75
-44
-28
-23
-12
19
65
93
90
92
130
175
194
206
231
247
246
250
254
232
184
131
76
13
-42
-67
-78
-99
-115
-111
-101
-95
-87
-77
-69
-64
-59
-52
-45
-41
-43
-45
-35
-28
-35
-38
-28
-23
-24
-22
-21
-14
1
5
-6
-11
0
15
17
6
-1
3
14
28
38
40
48
57
41
12
-4
-9
-10
-8
-7
4
10
-13
-11
53
199
588
1081
936
-43
-849
-769
-321
-95
-34
-8
-24
-29
-6
-7
-12
13
21
-7
-25
-11
2
13
33
47
47
55
70
80
90
110
143
178
195
191
192
209
223
213
178
134
91
30
-45
-87
-94
-98
-104
-105
-106
-106
-103
-109
-111
-98
-89
-95
-89
-69
-64
-71
-63
-42
-34
-50
-60
-45
-37
-57
-76
-75
-72
-72
-70
-74
-84
-84
-80
-82
-69
-38
-30
-46
-50
-47
-64
-86
-93
-91
-87
-86
-86
-78
-82
-93
-63
24
263
707
900
306
-611
-898
-533
-178
-66
-25
5
1
-9
14
61
75
31
-3
13
37
50
58
60
66
89
112
125
141
163
183
202
223
240
253
266
276
278
272
250
209
158
104
49
4
-25
-45
-53
-55
-62
-68
-67
-75
-85
-72
-61
-83
-97
-75
-60
-73
-87
-90
-93
-95
-92
-92
-94
-94
-95
-97
-97
-96
-93
-88
-87
-85
-77
-79
-85
-63
-26
-25
-41
-27
-6
-13
-30
-42
-47
-44
-49
-65
-56
-40
-47
-32
52
263
675
984
612
-289
-825
-654
-290
-120
-71
-51
-64
-88
-104
-104
-56
13
32
5
-19
-28
-6
63
113
87
48
72
109
102
105
157
189
177
173
193
225
258
254
200
138
65
-18
-55
-50
-80
-141
-156
-117
-81
-80
-89
-73
-48
-49
-47
-14
-1
-22
-38
-49
-50
-23
-24
-64
-65
-49
-71
-67
-34
-59
-96
-80
-64
-56
-23
-32
-80
-55
10
0
-58
-93
-92
-61
-45
-58
-52
-59
-102
-83
17
266
828
1250
744
-345
-869
-631
-289
-134
-66
-52
-55
-33
-28
-42
-26
-5
-4
13
33
28
26
40
44
59
100
132
142
153
174
201
231
262
278
272
278
303
296
239
181
121
34
-39
-64
-88
-127
-130
-99
-85
-94
-103
-106
-112
-116
-103
-85
-100
-121
-99
-86
-125
-133
-96
-104
-133
-108
-88
-119
-137
-114
-94
-104
-123
-124
-130
-143
-133
-117
-89
-42
-52
-105
-100
-84
-109
-110
-90
-95
-105
-113
-106
-65
107
695
1458
1308
55
-878
-704
-243
-136
-144
-86
-47
-46
-52
-47
-38
-59
-91
-65
4
33
20
30
52
48
59
107
137
148
178
204
208
230
273
296
300
306
300
261
197
125
54
-9
-64
-106
-116
-100
-100
-118
-120
-118
-133
-141
-116
-81
-67
-78
-97
-117
-127
-110
-80
-69
-69
-59
-55
-74
-100
-114
-106
-76
-29
9
-7
-62
-76
-38
-23
-55
-89
-87
-61
-53
-61
-44
-25
-49
-66
-41
27
344
984
1262
521
-552
-812
-380
-83
-66
-55
-27
-32
-15
12
4
-8
7
23
23
25
34
39
47
65
76
75
83
106
125
140
158
173
181
185
185
189
198
191
152
98
48
-3
-60
-96
-99
-98
-111
-116
-104
-95
-104
-112
-117
-137
-151
-134
-118
-132
-151
-150
-144
-145
-146
-139
-131
-130
-123
-107
-99
-92
-77
-79
-105
-122
-122
-119
-113
-109
-107
-92
-82
-85
-39
91
337
721
937
544
-243
-707
-615
-322
-105
0
26
21
22
23
20
19
20
18
15
16
25
35
42
52
65
77
92
112
136
162
189
212
234
263
289
302
305
295
262
208
149
93
46
10
-15
-34
-48
-57
-63
-68
-74
-79
-82
-84
-88
-92
-95
-98
-102
-104
-105
-106
-107
-107
-104
-101
-100
-100
-101
-95
-81
-71
-63
-45
-34
-52
-75
-83
-85
-84
-84
-91
-84
-78
-100
-95
-28
163
656
1147
812
-275
-924
-676
-257
-123
-92
-63
-65
-56
-33
-28
-25
-13
-6
3
15
23
31
43
55
68
83
100
117
135
152
170
186
201
213
222
227
226
213
180
127
67
12
-32
-65
-85
-93
-94
-92
-89
-86
-83
-82
-81
-81
-81
-81
-82
-84
-85
-86
-88
-90
-93
-97
-102
-108
-109
-98
-87
-86
-77
-59
-62
-84
-95
-93
-88
-83
-85
-81
-70
-82
-83
-34
93
479
1043
1031
100
-785
-773
-318
-95
-69
-46
-37
-35
-17
-9
-10
-2
5
9
17
26
36
48
59
72
86
104
126
148
167
185
203
218
234
250
256
250
242
219
168
103
51
8
-32
-58
-67
-73
-81
-83
-83
-84
-86
-88
-89
-88
-90
-98
-101
-96
-97
-103
-100
-95
-103
-107
-93
-81
-79
-68
-56
-65
-82
-92
-97
-90
-85
-101
-107
-102
-124
-115
-25
158
568
1034
851
-89
-832
-792
-427
-198
-97
-67
-82
-69
-36
-25
-24
-18
-9
2
12
23
39
52
58
79
106
112
110
130
162
179
186
204
226
237
235
233
229
205
154
89
26
-25
-63
-89
-97
-95
-102
-112
-107
-100
-101
-98
-92
-98
-104
-95
-87
-87
-82
-79
-92
-100
-81
-59
-58
-55
-35
-33
-62
-84
-82
-79
-82
-86
-77
-64
-75
-74
-3
158
528
1033
1022
147
-763
-862
-460
-182
-87
-48
-44
-40
-20
-13
-13
-2
7
11
17
26
36
50
63
73
87
108
126
138
152
175
196
208
220
238
254
253
226
183
134
75
12
-41
-79
-103
-109
-105
-113
-126
-125
-115
-109
-105
-103
-103
-99
-97
-104
-109
-106
-104
-104
-104
-103
-95
-88
-88
-77
-58
-59
-79
-96
-106
-105
-96
-102
-101
-86
-96
-99
-42
93
489
1096
1115
124
-858
-867
-377
-132
-97
-62
-49
-50
-34
-25
-22
-8
-1
1
17
33
35
33
47
72
88
92
108
140
163
165
174
209
239
240
236
238
225
194
153
96
36
-8
-45
-75
-82
-75
-78
-87
-87
-76
-60
-59
-76
-83
-73
-79
-89
-82
-80
-90
-81
-69
-86
-107
-101
-82
-70
-62
-54
-47
-53
-69
-80
-79
-75
-80
-92
-83
-73
-86
-74
-14
161
660
1220
970
-153
-945
-764
-290
-105
-77
-50
-41
-42
-38
-28
-7
-1
-5
6
13
13
33
54
55
60
74
87
102
122
143
161
170
182
204
215
211
209
199
167
119
62
-1
-55
-88
-105
-111
-109
-109
-112
-111
-103
-95
-93
-94
-92
-90
-88
-81
-77
-82
-84
-79
-81
-92
-95
-94
-101
-106
-97
-81
-68
-55
-38
-32
-47
-61
-69
-79
-75
-60
-66
-68
-56
-68
-69
-18
102
489
1058
1012
26
-873
-826
-344
-112
-72
-32
-18
-26
-12
3
6
10
19
27
33
43
56
65
67
73
91
110
123
139
162
185
202
217
231
242
257
260
227
180
150
115
54
-9
-53
-76
-79
-78
-87
-93
-91
-87
-81
-72
-66
-60
-54
-57
-63
-62
-55
-52
-56
-57
-51
-52
-62
-64
-62
-71
-78
-69
-59
-63
-72
-73
-68
-68
-73
-75
-69
-64
-65
-69
-70
-65
-56
-47
-37
-22
-6
-1
-16
-38
-49
-45
-45
-49
-36
-29
-51
-47
7
140
557
1114
1008
17
-820
-758
-325
-113
-53
-11
-12
-18
-4
0
2
12
16
20
26
29
36
47
55
68
86
90
95
122
152
160
165
190
213
219
218
220
222
210
170
106
40
-18
-68
-103
-123
-135
-141
-136
-130
-126
-123
-118
-114
-112
-115
-119
-116
-101
-86
-88
-103
-108
-96
-82
-81
-87
-91
-94
-96
-96
-97
-98
-92
-85
-84
-80
-69
-58
-48
-38
-36
-48
-67
-78
-72
-67
-76
-68
-56
-78
-76
-14
140
608
1224
1085
-21
-903
-796
-333
-127
-70
-28
-27
-20
3
8
12
24
30
36
46
50
55
70
86
96
108
126
145
167
193
219
244
268
290
306
314
313
293
247
179
104
34
-15
-48
-83
-108
-112
-124
-143
-131
-110
-123
-136
-116
-100
-102
-97
-83
-76
-74
-71
-68
-62
-61
-65
-67
-68
-73
-76
-73
-72
-74
-73
-71
-72
-75
-77
-79
-79
-80
-83
-79
-64
-52
-49
-37
-20
-29
-54
-66
-62
-57
-61
-62
-45
-46
-65
-32
74
339
842
1105
494
-528
-893
-544
-188
-70
-28
-10
-12
2
14
11
10
12
16
21
24
27
37
50
60
72
85
102
124
149
171
194
224
253
273
286
294
293
271
218
146
72
6
-47
-86
-113
-132
-142
-142
-141
-139
-138
-133
-118
-105
-106
-111
-105
-99
-99
-97
-93
-93
-95
-94
-92
-92
-93
-92
-91
-92
-93
-91
-89
-87
-86
-85
-87
-86
-83
-80
-75
-67
-60
-50
-36
-30
-41
-57
-69
-68
-61
-66
-64
-47
-60
-70
-22
94
489
1188
1335
347
-740
-800
-306
-83
-75
-41
-29
-37
-20
-11
-12
-2
5
6
13
21
26
35
44
54
66
82
100
121
144
168
194
220
240
256
270
278
270
237
177
105
37
-16
-58
-89
-110
-121
-124
-125
-125
-122
-117
-111
-103
-97
-94
-90
-83
-78
-75
-72
-69
-69
-69
-67
-66
-68
-68
-67
-65
-66
-68
-69
-69
-68
-67
-64
-62
-60
-57
-54
-52
-52
-50
-38
-22
-14
-4
13
15
-3
-23
-29
-23
-19
-25
-19
-8
-25
-27
25
171
605
1175
1060
44
-787
-685
-234
-52
-34
-10
-4
-2
12
15
15
23
26
26
32
40
46
52
59
67
75
85
101
123
142
162
184
197
201
218
238
238
228
212
166
96
31
-21
-74
-118
-137
-144
-154
-158
-153
-148
-143
-140
-137
-132
-129
-129
-124
-117
-117
-119
-115
-113
-119
-123
-116
-110
-117
-121
-114
-116
-127
-121
-109
-114
-119
-111
-104
-109
-120
-119
-97
-86
-94
-79
-48
-55
-89
-112
-116
-106
-98
-102
-95
-95
-122
-92
55
368
880
1156
571
-501
-995
-724
-342
-164
-85
-45
-25
-12
-23
-31
-8
20
26
12
6
39
82
83
66
83
125
150
154
169
208
237
247
274
318
333
320
313
314
295
223
120
56
31
-27
-89
-75
-42
-75
-100
-57
-32
-61
-49
3
-1
-33
-12
22
-1
-36
-17
13
-6
-26
-9
-7
-32
-44
-40
-22
0
-15
-41
-24
-5
3
43
48
-9
-6
36
4
-9
42
12
-39
21
46
-23
8
180
556
1250
1603
747
-634
-1079
-623
-254
-136
8
89
58
57
84
71
54
62
67
63
64
73
82
91
96
93
98
129
166
190
223
274
304
312
324
331
320
287
229
152
56
-57
-151
-200
-242
-297
-324
-325
-343
-360
-350
-349
-370
-376
-365
-372
-395
-416
-430
-437
-445
-465
-489
-507
-525
-541
-545
-545
-551
-556
-550
-540
-529
-504
-458
-406
-370
-350
-336
-303
-235
-159
-121
-107
-89
-69
-35
19
59
92
131
120
99
170
373
861
1482
1305
18
-1043
-902
-323
-107
-79
-35
-39
-43
-6
41
145
348
578
738
789
773
750
734
707
676
656
642
623
607
600
596
593
592
589
580
567
550
513
445
356
267
184
107
47
5
-27
-51
-64
-81
-109
-128
-135
-143
-158
-172
-189
-211
-229
-241
-256
-273
-286
-300
-312
-322
-334
-348
-357
-365
-374
-378
-380
-389
-392
-376
-355
-345
-332
-315
-317
-329
-316
-286
-237
-156
-80
-19
52
88
95
150
262
671
1568
2020
985
-528
-837
-250
54
31
50
47
-2
-11
-21
-51
-64
-74
-87
-87
-83
-78
-65
-50
-34
-14
12
39
70
100
125
149
175
200
219
230
231
219
184
116
26
-56
-113
-150
-179
-207
-228
-237
-243
-250
-253
-248
-244
-240
-240
-244
-245
-238
-234
-236
-238
-235
-230
-228
-227
-226
-224
-220
-213
-206
-199
-189
-180
-171
-162
-153
-135
-103
-76
-55
-25
2
3
-6
-7
6
33
51
65
95
103
97
137
228
548
1217
1515
686
-487
-732
-264
21
45
73
67
22
36
73
77
83
100
82
46
49
80
93
101
126
146
142
138
156
179
189
202
232
252
236
218
239
263
241
185
117
46
-3
-39
-85
-106
-87
-90
-132
-143
-109
-93
-104
-101
-100
-113
-110
-93
-96
-110
-114
-114
-113
-110
-111
-113
-115
-115
-114
-113
-113
-112
-110
-109
-106
-103
-101
-93
-80
-72
-61
-37
-13
-10
-23
-31
-21
-13
-21
-17
-2
-20
-29
29
169
529
1025
972
63
-816
-853
-423
-146
-52
-7
-3
-4
15
24
24
30
33
34
43
54
60
67
76
85
93
108
126
142
156
175
195
212
227
239
248
250
239
209
161
97
30
-30
-75
-100
-111
-118
-123
-124
-123
-120
-117
-117
-117
-116
-115
-116
-117
-117
-115
-117
-121
-119
-114
-116
-119
-117
-114
-113
-112
-110
-107
-102
-98
-98
-98
-90
-83
-80
-69
-49
-41
-52
-67
-74
-66
-64
-70
-57
-48
-72
-61
10
213
757
1286
880
-316
-955
-619
-174
-71
-55
-23
-25
-19
0
-1
2
12
15
17
25
35
40
48
60
73
83
97
116
131
146
164
180
190
198
207
211
208
195
164
113
58
7
-36
-69
-89
-97
-98
-95
-92
-88
-84
-81
-77
-71
-68
-68
-67
-64
-64
-64
-62
-61
-62
-61
-60
-63
-67
-68
-67
-69
-70
-71
-74
-75
-67
-61
-56
-38
-18
-17
-31
-43
-46
-36
-33
-36
-22
-20
-40
-16
67
329
928
1323
676
-519
-929
-486
-103
-38
-14
12
11
22
31
