# session 7
14
11
13
36
39
4
5
46
59
66
107
144
159
184
213
225
240
260
244
182
114
48
-27
-86
-115
-143
-165
-161
-163
-189
-208
-206
-198
-182
-167
-173
-174
-147
-126
-125
-129
-152
-158
-112
-111
-165
-189
-215
39
964
1635
743
-802
-1165
-597
-307
-307
-233
-194
-206
-177
-175
-198
-165
-119
-117
-108
-59
-6
26
50
70
86
100
106
88
38
-33
-109
-179
-242
-290
-316
-332
-351
-358
-354
-362
-374
-369
-346
-309
-263
-212
-136
-33
42
70
98
136
171
197
202
210
224
267
635
1367
1531
510
-620
-701
-179
123
213
277
277
255
273
291
291
297
323
362
377
371
399
455
484
496
516
527
516
479
404
315
237
158
77
13
-35
-71
-102
-133
-141
-126
-133
-157
-148
-121
-119
-128
-128
-137
-148
-139
-140
-169
-177
-166
-193
-205
-163
-58
350
938
768
-401
-1307
-1156
-639
-396
-301
-230
-234
-255
-225
-173
-142
-124
-84
-38
-14
14
65
113
154
201
233
245
248
231
179
122
78
34
-5
-31
-58
-89
-104
-108
-113
-107
-99
-112
-120
-105
-118
-160
-151
-104
-98
-129
-150
-153
-129
-104
-117
-123
-94
24
488
1092
886
-277
-1118
-918
-407
-201
-141
-87
-89
-104
-85
-62
-42
-13
12
29
59
105
139
158
192
239
270
283
291
288
247
169
103
67
27
-27
-64
-67
-65
-72
-69
-57
-70
-94
-94
-85
-102
-114
-86
-64
-88
-116
-122
-128
-118
-122
-167
-162
-93
110
780
1495
992
-557
-1380
-979
-444
-256
-149
-93
-116
-97
-46
-19
15
60
95
131
185
245
290
321
353
382
392
385
368
334
277
205
131
76
44
13
-14
-24
-24
-27
-32
-39
-46
-50
-53
-71
-105
-117
-77
-42
-75
-134
-162
-165
-152
-145
-147
-126
-112
118
913
1572
851
-690
-1275
-766
-312
-212
-137
-76
-78
-65
-27
16
56
78
107
157
193
228
295
359
379
373
358
345
336
303
227
141
71
14
-30
-55
-68
-74
-75
-85
-105
-109
-100
-109
-123
-117
-114
-119
-100
-87
-122
-153
-152
-160
-178
-186
-194
-177
-152
-26
532
1236
984
-306
-1197
-987
-483
-279
-199
-129
-118
-104
-61
-33
-12
18
44
68
102
147
196
243
272
274
269
276
278
253
199
119
23
-52
-90
-115
-149
-181
-201
-207
-213
-233
-251
-250
-241
-243
-257
-271
-268
-254
-253
-262
-269
-281
-274
-240
-247
-265
-217
-134
246
1182
1687
609
-1012
-1384
-777
-380
-273
-152
-93
-87
-43
-5
24
65
102
151
211
249
289
354
405
422
414
380
342
321
285
212
144
100
61
40
45
37
17
30
46
18
-5
8
-7
-51
-61
-62
-84
-83
-60
-72
-96
-96
-101
-102
-85
-103
-116
-81
-2
500
1495
1691
280
-1171
-1166
-499
-225
-162
-67
-59
-69
-23
7
26
65
98
141
206
254
285
331
375
384
375
366
356
333
279
192
106
49
15
-18
-63
-99
-107
-105
-114
-126
-135
-148
-164
-165
-162
-179
-195
-178
-160
-172
-189
-211
-235
-211
-191
-234
-234
-202
-77
642
1617
1265
-459
-1454
-981
-387
-290
-244
-177
-196
-174
-118
-106
-88
-47
-16
24
80
128
174
223
256
268
269
257
235
218
183
100
9
-39
-59
-82
-100
-107
-108
-109
-120
-139
-135
-118
-130
-150
-135
-119
-135
-142
-122
-114
-127
-152
-174
-152
-124
-159
-179
-158
-98
399
1331
1454
172
-1024
-946
-388
-206
-192
-132
-116
-122
-108
-90
-55
-28
-26
4
65
119
171
222
247
268
304
329
340
343
309
230
158
113
74
31
-8
-32
-39
-41
-48
-54
-58
-73
-92
-91
-73
-62
-68
-81
-73
-48
-47
-65
-69
-76
-82
-58
-64
-109
-100
-39
264
1030
1439
463
-991
-1280
-642
-229
-145
-55
-14
-35
-3
50
74
92
114
147
195
236
269
310
355
388
406
412
405
370
300
212
134
75
19
-38
-80
-109
-130
-137
-145
-168
-181
-176
-188
-215
-224
-215
-211
-214
-213
-202
-193
-199
-207
-220
-234
-207
-192
-233
-224
-194
-95
581
1521
1148
-582
-1530
-962
-306
-206
-154
-71
-90
-75
-21
-14
5
56
92
134
193
235
263
298
328
344
359
375
365
319
252
179
110
57
16
-21
-46
-59
-76
-96
-105
-109
-115
-120
-121
-124
-126
-126
-129
-134
-124
-106
-108
-121
-126
-138
-137
-112
-123
-144
-137
-112
292
1207
1432
116
-1263
-1185
-436
-150
-134
-61
-38
-41
-2
19
31
71
110
140
174
214
257
299
335
372
403
410
393
357
297
216
132
66
12
-35
-71
-95
-113
-129
-142
-157
-171
-176
-168
-160
-162
-163
-155
-154
-155
-134
-111
-123
-144
-149
-155
-154
-139
-152
-168
-158
-123
171
800
947
-3
-1068
-1113
-557
-242
-167
-106
-88
-97
-74
-46
-25
2
39
78
114
150
194
245
302
360
397
412
422
411
352
257
163
83
11
-53
-88
-89
-90
-117
-144
-142
-138
-152
-151
-127
-111
-115
-131
-143
-125
-93
-90
-98
-86
-91
-117
-101
-74
-99
-104
-60
94
657
1306
920
-467
-1293
-954
-392
-163
-59
0
-4
23
75
98
121
161
200
242
295
353
409
466
527
569
583
582
556
481
374
272
186
111
36
-27
-59
-76
-103
-122
-122
-130
-149
-157
-156
-164
-169
-161
-162
-168
-144
-103
-99
-114
-118
-128
-117
-87
-110
-130
-124
-96
402
1396
1499
40
-1269
-1112
-457
-269
-263
-197
-187
-177
-136
-134
-136
-102
-73
-58
-36
-11
20
61
96
105
103
110
110
76
9
-70
-142
-198
-238
-272
-306
-330
-331
-331
-354
-364
-337
-316
-317
-298
-264
-250
-253
-247
-215
-166
-122
-102
-105
-109
-92
-69
-71
-65
-14
140
565
1090
964
-18
-864
-807
-314
-29
62
120
133
141
195
242
257
281
320
355
391
425
460
499
527
540
554
559
529
470
395
312
229
152
81
34
10
-11
-28
-30
-31
-44
-53
-54
-59
-63
-64
-77
-102
-107
-93
-94
-111
-124
-136
-131
-110
-123
-142
-112
-58
227
909
1216
336
-910
-1204
-730
-361
-238
-159
-121
-116
-98
-75
-48
-15
14
46
93
145
197
251
296
324
336
335
321
292
237
151
63
7
-30
-67
-86
-96
-116
-117
-104
-141
-196
-181
-140
-152
-168
-161
-176
-186
-156
-145
-171
-188
-209
-228
-208
-198
-218
-204
-149
111
755
1128
375
-858
-1207
-704
-293
-212
-175
-127
-123
-125
-108
-87
-51
5
53
84
127
179
216
241
270
299
308
296
279
257
207
125
54
15
-19
-53
-64
-48
-37
-58
-90
-93
-78
-82
-89
-81
-87
-107
-95
-61
-61
-85
-93
-97
-98
-84
-88
-104
-86
-60
152
818
1325
660
-656
-1120
-638
-220
-136
-82
-39
-47
-30
-2
3
22
59
88
117
157
200
242
282
310
318
318
323
319
284
219
146
83
34
-5
-32
-46
-55
-62
-63
-61
-67
-77
-84
-92
-97
-88
-79
-81
-75
-57
-57
-74
-84
-93
-94
-80
-91
-107
-90
-65
178
835
1190
390
-848
-1177
-681
-273
-159
-111
-87
-75
-47
-36
-24
17
48
66
107
161
206
256
305
328
324
321
331
324
271
188
106
39
-11
-52
-81
-92
-97
-109
-118
-122
-129
-130
-123
-128
-139
-135
-125
-133
-144
-123
-93
-102
-122
-125
-141
-145
-111
-117
-141
-104
-8
419
1234
1351
64
-1258
-1248
-581
-260
-173
-75
-46
-48
-13
17
36
68
101
142
193
236
277
328
367
379
377
368
344
292
216
132
56
-5
-50
-77
-98
-114
-123
-129
-140
-148
-153
-160
-167
-174
-183
-188
-185
-192
-197
-175
-152
-162
-173
-170
-182
-178
-151
-164
-176
-163
-122
386
1417
1611
192
-1202
-1125
-454
-227
-199
-112
-96
-99
-54
-31
-21
13
43
75
128
183
230
278
318
329
318
312
312
288
227
152
84
30
-12
-47
-69
-79
-87
-97
-105
-109
-109
-110
-119
-126
-124
-123
-125
-120
-109
-105
-98
-74
-55
-65
-81
-90
-91
-71
-63
-89
-82
-52
105
741
1459
1050
-377
-1169
-789
-272
-140
-93
-38
-40
-32
-5
5
21
50
84
128
172
212
262
312
340
354
368
380
379
345
276
198
122
53
8
-23
-60
-89
-90
-90
-105
-114
-113
-116
-123
-135
-152
-160
-155
-155
-168
-168
-150
-150
-167
-155
-128
-137
-160
-162
-163
-157
-153
-183
-170
-103
13
537
1377
1292
-153
-1355
-1201
-563
-291
-196
-107
-104
-107
-54
-14
1
26
69
122
169
209
256
311
359
396
418
425
413
369
292
203
114
33
-23
-54
-84
-112
-125
-128
-135
-140
-146
-153
-158
-159
-165
-172
-175
-174
-173
-171
-172
-170
-162
-161
-161
-136
-110
-114
-123
-128
-143
-129
-111
-142
-131
-73
52
694
1669
1464
-246
-1468
-1129
-432
-227
-159
-71
-71
-63
-18
-3
16
60
99
139
194
249
302
358
407
432
436
433
425
395
329
240
157
92
44
15
4
-7
-25
-34
-27
-24
-38
-54
-55
-54
-62
-67
-65
-70
-76
-71
-66
-62
-56
-73
-112
-116
-78
-65
-87
-105
-121
-124
-101
-115
-139
-102
-46
280
1133
1581
536
-988
-1281
-650
-278
-226
-156
-133
-150
-116
-92
-94
-64
-27
-5
25
62
93
133
181
213
229
248
263
258
229
173
93
18
-37
-79
-107
-117
-128
-146
-156
-156
-153
-150
-147
-148
-150
-150
-154
-160
-154
-146
-145
-135
-116
-112
-117
-104
-96
-102
-86
-57
-59
-74
-82
-94
-84
-60
-76
-59
54
244
677
1250
1100
-86
-1137
-1131
-607
-260
-90
0
10
24
65
83
100
136
160
184
240
299
329
365
422
471
505
532
532
492
416
311
201
115
48
-16
-67
-99
-120
-132
-130
-131
-145
-154
-150
-155
-168
-170
-168
-175
-187
-189
-177
-166
-165
-164
-161
-166
-163
-138
-123
-137
-142
-137
-139
-123
-116
-148
-122
-18
236
935
1614
1032
-584
-1423
-984
-412
-224
-119
-52
-67
-48
-1
11
23
56
87
121
164
216
279
336
373
397
408
395
364
313
227
117
23
-47
-100
-135
-151
-156
-157
-160
-163
-159
-156
-159
-162
-163
-170
-182
-187
-182
-181
-186
-177
-164
-174
-178
-141
-118
-146
-161
-150
-157
-145
-121
-148
-146
-112
1
725
1835
1622
-221
-1440
-973
-264
-151
-119
-27
-38
-31
23
36
53
96
123
150
199
252
303
354
395
413
407
384
357
322
259
176
90
15
-39
-65
-75
-80
-82
-83
-89
-95
-95
-100
-113
-116
-105
-102
-110
-110
-101
-99
-103
-97
-86
-96
-103
-70
-35
-52
-80
-81
-85
-77
-55
-83
-93
-37
66
603
1580
1601
-1
-1400
-1179
-405
-161
-130
-41
-33
-44
-11
-1
10
47
74
99
141
186
231
279
318
338
343
336
325
301
243
150
51
-30
-90
-131
-158
-178
-191
-199
-204
-207
-214
-222
-222
-221
-224
-227
-227
-231
-229
-220
-216
-212
-202
-201
-200
-175
-159
-180
-194
-191
-206
-202
-179
-203
-215
-172
-55
501
1369
1223
-332
-1497
-1173
-468
-276
-249
-171
-166
-162
-118
-101
-87
-50
-21
9
55
103
150
199
247
291
323
340
344
330
279
194
106
39
-11
-49
-72
-89
-104
-112
-114
-117
-114
-110
-116
-121
-110
-97
-96
-100
-96
-88
-78
-57
-33
-26
-13
23
43
29
19
16
10
32
52
23
24
84
236
747
1373
1068
-238
-1089
-792
-214
11
82
153
193
248
326
386
430
457
449
450
502
552
573
613
675
713
743
785
795
750
678
588
479
378
300
238
186
148
120
98
81
61
35
13
-1
-15
-40
-65
-77
-82
-96
-108
-106
-110
-132
-145
-144
-170
-219
-249
-273
-311
-327
-345
-405
-422
-373
-211
320
873
390
-978
-1643
-1074
-273
156
380
473
441
394
350
275
197
137
102
100
103
92
95
107
94
121
324
702
1066
1211
1069
734
373
78
-156
-345
-498
-636
-749
-824
-885
-950
-1008
-1072
-1166
-1276
-1382
-1483
-1571
-1643
-1703
-1750
-1785
-1787
-1706
-1548
-1388
-1224
-993
-706
-413
-171
-109
-217
-306
-317
-123
508
936
121
-1322
-1774
-1197
-701
-560
-478
-467
-551
-667
-999
-1695
-2466
-2872
-2847
-2674
-2566
-2518
-2472
-2417
-2346
-2260
-2175
-2078
-1939
-1754
-1528
-1304
-1138
-958
-701
-473
-203
333
1076
2247
4475
7182
8584
8150
7049
6323
6217
6568
6946
7027
6957
6976
6991
6852
6634
6387
6034
5632
5264
4701
3690
2503
1662
1335
1294
1191
1028
1159
1185
67
-1798
-2788
-2652
-2418
-2418
-2424
-2449
-2486
-2545
-2710
-2756
-2498
-2239
-2211
-2234
-2194
-2162
-2127
-2060
-2020
-2037
-2062
-2072
-2112
-2196
-2295
-2393
-2500
-2601
-2659
-2660
-2608
-2487
-2296
-2141
-2125
-2143
-2043
-1873
-1747
-1658
-1562
-1464
-1376
-1301
-1220
-1126
-1053
-1002
-922
-822
-767
-741
-686
-621
-564
-486
-432
-410
-311
-124
272
1057
1504
593
-909
-1320
-680
-140
44
180
259
245
256
321
397
473
545
610
675
747
827
911
988
1043
1071
1077
1068
1043
993
915
825
739
663
602
568
552
538
528
530
532
522
509
499
487
474
466
462
451
438
434
430
415
414
439
438
394
364
355
338
335
320
272
269
295
492
1255
2009
1353
-357
-1126
-577
-29
57
95
138
117
126
143
131
142
167
178
199
237
271
306
348
385
396
376
341
314
287
226
137
48
-35
-105
-150
-173
-188
-202
-210
-219
-236
-252
-260
-271
-288
-301
-309
-317
-325
-333
-339
-336
-334
-340
-332
-310
-318
-352
-369
-380
-385
-364
-372
-411
-392
-327
-44
733
1269
428
-1099
-1578
-994
-528
-441
-383
-341
-353
-337
-308
-291
-261
-234
-217
-177
-118
-69
-23
23
58
82
96
92
74
49
