# session 4
-51
-129
90
-39
-925
-1742
-1803
-1585
-1550
-1519
-1422
-1386
-1366
-1279
-1158
-1087
-1051
-980
-898
-551
378
1008
101
-1480
-1898
-1293
-881
-790
-677
-602
-580
-527
-484
-448
-382
-331
-288
-233
-201
-169
-82
1
25
52
117
180
236
298
344
388
457
502
468
402
361
318
263
235
214
163
134
150
148
120
120
133
108
64
37
40
66
62
16
7
22
167
764
1413
1008
-293
-998
-687
-271
-157
-107
-89
-125
-118
-96
-117
-121
-84
-55
-41
-23
-11
8
55
92
94
107
145
169
177
204
255
307
340
337
301
258
220
179
145
125
111
100
89
66
50
71
93
80
63
53
42
57
68
24
32
149
339
768
1283
1028
-149
-1045
-941
-456
-174
-55
-20
-38
-31
-17
-32
-29
1
24
41
56
59
51
46
56
94
143
161
146
132
138
157
165
140
96
59
15
-41
-86
-111
-128
-139
-147
-165
-192
-214
-216
-206
-206
-210
-215
-236
-247
-227
-244
-267
-225
-165
193
1096
1501
333
-1188
-1320
-580
-211
-156
-67
-57
-85
-41
-29
-54
-27
2
-5
15
61
79
78
94
112
116
128
154
165
161
174
188
183
172
151
102
46
4
-31
-66
-104
-137
-149
-151
-157
-153
-140
-148
-168
-174
-188
-218
-211
-186
-193
-195
-189
-68
498
1174
846
-436
-1161
-800
-305
-177
-140
-103
-116
-98
-51
-38
-37
-15
18
48
66
83
103
111
123
166
206
207
195
201
227
267
286
249
197
158
106
44
7
-16
-49
-79
-84
-72
-74
-95
-95
-72
-74
-96
-104
-113
-126
-106
-83
-103
-100
-45
114
635
1273
1014
-266
-1211
-1058
-511
-217
-117
-72
-44
-10
0
-3
30
71
85
98
130
163
179
193
222
254
273
286
293
298
319
334
312
282
247
171
92
56
31
-8
-39
-69
-100
-107
-114
-154
-183
-167
-163
-188
-191
-190
-211
-199
-180
-220
-224
-166
9
651
1412
996
-556
-1456
-1065
-497
-330
-246
-164
-164
-156
-122
-111
-91
-46
-14
13
54
91
118
153
190
218
250
280
283
270
273
282
265
230
186
127
66
28
5
-23
-46
-66
-91
-104
-109
-133
-150
-130
-118
-139
-139
-133
-160
-159
-130
-160
-170
-124
-42
521
1530
1511
-90
-1368
-1090
-411
-244
-201
-102
-106
-115
-71
-51
-38
-1
32
57
85
112
144
177
205
227
240
253
272
286
295
310
313
292
257
216
171
131
95
57
23
-3
-28
-44
-47
-61
-84
-89
-78
-87
-115
-147
-175
-178
-170
-197
-210
-203
-175
270
1189
1355
57
-1226
-1173
-555
-321
-283
-208
-200
-220
-196
-170
-153
-131
-105
-74
-45
-22
1
26
46
64
92
123
135
136
146
160
160
137
100
52
-6
-62
-100
-130
-156
-162
-163
-182
-196
-190
-190
-191
-174
-161
-172
-189
-205
-207
-178
-169
-192
-173
-129
58
701
1315
799
-536
-1147
-726
-256
-129
-74
-28
-25
-1
41
68
90
118
152
185
209
233
269
307
335
352
365
375
380
387
400
406
397
362
299
234
194
154
78
19
31
51
9
-40
-47
-42
-31
-10
-20
-59
-72
-77
-98
-97
-103
-153
-148
-53
229
957
1569
871
-746
-1500
-1045
-508
-324
-211
-141
-154
-149
-119
-94
-54
-14
2
10
31
61
88
111
140
171
187
193
203
197
173
161
145
92
28
-16
-58
-103
-129
-138
-147
-164
-185
-194
-197
-220
-240
-221
-203
-221
-231
-223
-234
-225
-200
-229
-235
-210
-134
542
1713
1659
-159
-1531
-1170
-444
-303
-266
-164
-179
-185
-128
-110
-99
-61
-33
-11
27
68
106
142
167
190
221
249
264
274
282
276
254
220
174
128
87
50
17
-12
-39
-58
-68
-80
-95
-109
-118
-109
-89
-86
-89
-93
-112
-102
-65
-90
-113
-88
-55
454
1600
1860
270
-1281
-1116
-335
-130
-124
-25
-24
-34
29
55
60
95
125
136
147
169
202
232
248
264
285
298
305
307
302
289
260
208
147
87
21
-41
-85
-121
-161
-189
-203
-221
-233
-231
-239
-260
-250
-226
-240
-263
-257
-255
-245
-225
-247
-262
-243
-179
332
1254
1271
-144
-1313
-1090
-460
-271
-215
-126
-138
-158
-124
-114
-107
-67
-38
-35
-13
40
84
111
147
194
242
298
347
370
390
395
351
291
261
225
167
128
102
53
8
-12
-38
-72
-86
-92
-114
-136
-138
-144
-176
-215
-241
-255
-251
-254
-289
-304
-281
-150
336
910
636
-506
-1226
-963
-492
-319
-251
-198
-197
-175
-127
-104
-72
-14
32
65
111
167
216
249
277
315
357
390
417
439
444
432
404
355
289
220
164
127
96
49
4
-10
-15
-37
-41
-18
-10
-24
-39
-53
-53
-47
-67
-73
-41
-51
-84
-54
49
471
1256
1390
183
-1119
-1189
-577
-236
-140
-56
-15
1
15
2
3
50
92
98
114
164
203
209
219
241
252
256
266
273
271
260
234
188
131
70
0
-68
-111
-136
-168
-193
-199
-217
-244
-256
-267
-278
-255
-233
-256
-279
-279
-281
-260
-250
-295
-293
-244
-94
616
1543
1145
-597
-1578
-1067
-429
-305
-241
-154
-161
-145
-102
-91
-64
-21
1
26
65
97
126
156
177
193
212
220
221
230
227
195
149
102
51
-5
-55
-91
-118
-144
-164
-171
-174
-175
-169
-163
-164
-150
-120
-115
-127
-132
-144
-141
-104
-108
-137
-106
-79
218
1169
1794
749
-931
-1256
-530
-132
-112
-34
13
0
39
68
70
110
160
188
227
275
309
342
371
373
359
350
344
337
333
322
296
255
195
122
50
-15
-75
-124
-154
-170
-189
-215
-222
-205
-199
-207
-195
-172
-176
-193
-199
-209
-209
-182
-182
-200
-191
-166
148
960
1364
384
-1004
-1238
-608
-221
-159
-95
-57
-61
-32
2
22
49
82
119
151
171
202
241
258
270
302
328
328
333
348
339
292
242
197
124
29
-32
-62
-106
-146
-151
-161
-191
-195
-181
-197
-214
-197
-191
-218
-223
-200
-193
-183
-173
-204
-211
-146
-7
469
1170
1043
-251
-1303
-1144
-540
-248
-136
-61
-56
-39
13
39
57
95
126
140
163
209
256
285
302
323
348
362
360
353
349
327
281
226
158
67
-10
-48
-69
-92
-109
-126
-149
-166
-176
-198
-222
-224
-206
-203
-221
-231
-238
-249
-237
-238
-274
-267
-235
-83
560
1271
793
-681
-1390
-897
-372
-272
-218
-162
-187
-174
-121
-102
-81
-41
-18
-2
38
82
102
116
148
176
176
170
180
196
199
161
85
43
48
14
-49
-49
-19
-46
-84
-69
-39
-21
5
27
36
56
80
85
88
97
83
66
88
108
84
72
103
271
796
1320
929
-273
-989
-723
-244
-56
-1
27
17
22
43
42
40
58
80
97
117
146
176
203
235
260
268
276
289
288
267
236
189
127
68
26
-10
-43
-61
-71
-95
-121
-131
-136
-139
-141
-157
-170
-156
-145
-155
-162
-181
-205
-180
-169
-218
-225
-186
-10
678
1414
886
-657
-1371
-862
-355
-272
-200
-118
-139
-141
-102
-90
-74
-32
-3
7
40
88
115
125
144
162
165
163
168
181
180
137
70
15
-31
-78
-113
-138
-167
-185
-180
-175
-186
-186
-167
-157
-161
-145
-112
-102
-119
-137
-146
-136
-124
-149
-164
-138
-133
126
900
1323
413
-913
-1138
-547
-213
-195
-150
-111
-115
-95
-65
-42
-9
22
49
91
141
178
207
242
273
293
314
338
345
332
313
280
228
173
126
85
53
27
4
-9
-10
-17
-26
-27
-31
-37
-27
-13
-21
-46
-54
-54
-69
-60
-27
-51
-94
-81
12
474
1289
1358
87
-1152
-1132
-514
-197
-104
-35
-14
1
23
29
58
97
110
130
174
201
210
224
246
264
280
296
299
279
246
214
172
111
46
-9
-55
-94
-127
-148
-158
-170
-190
-203
-203
-213
-232
-226
-203
-200
-214
-219
-227
-239
-218
-200
-237
-252
-191
10
574
1149
708
-654
-1430
-1073
-517
-304
-210
-144
-137
-117
-80
-65
-48
-17
15
51
87
120
151
186
228
267
290
307
327
318
273
229
187
122
59
24
-5
-39
-60
-68
-72
-67
-61
-64
-65
-62
-71
-73
-50
-30
-25
-23
-35
-52
-32
-18
-42
-32
9
166
777
1498
1182
-146
-962
-689
-238
-114
-67
-29
-50
-47
-29
-44
-36
7
31
45
75
110
141
169
190
203
210
211
212
216
201
157
94
31
-20
-61
-103
-135
-143
-151
-177
-193
-189
-193
-199
-188
-178
-177
-160
-141
-150
-167
-173
-172
-157
-164
-196
-190
-173
14
748
1467
874
-684
-1397
-922
-412
-283
-203
-137
-130
-95
-56
-53
-30
21
61
95
135
166
187
213
244
267
279
286
294
297
271
220
171
120
60
13
-16
-45
-63
-70
-79
-93
-108
-117
-116
-123
-132
-114
-92
-99
-111
-117
-125
-102
-74
-108
-124
-77
26
550
1490
1556
108
-1249
-1192
-554
-283
-196
-95
-82
-94
-71
-46
-14
24
47
75
117
162
208
252
292
332
351
345
343
346
323
273
213
146
80
32
0
-23
-41
-57
-71
-79
-85
-100
-111
-116
-135
-157
-148
-134
-151
-165
-171
-195
-190
-168
-199
-195
-173
-134
541
1809
1861
48
-1386
-1069
-364
-248
-231
-136
-151
-154
-102
-97
-87
-38
-6
12
48
89
131
171
198
215
227
227
228
238
233
191
126
60
6
-34
-64
-87
-102
-118
-135
-139
-142
-163
-179
-170
-162
-162
-148
-134
-150
-171
-185
-206
-206
-184
-201
-215
-191
-158
218
1102
1439
361
-943
-1056
-502
-261
-238
-170
-154
-174
-152
-128
-116
-90
-63
-35
-2
28
54
83
111
135
154
168
186
202
200
176
138
83
26
-17
-46
-72
-89
-91
-79
-80
-107
-125
-104
-77
-77
-78
-48
-4
-2
-37
-43
-26
-28
-19
-5
-31
-43
-48
58
756
1735
1497
-98
-1129
-769
-191
-69
-30
49
46
34
60
91
124
150
174
208
230
249
295
329
339
380
425
417
399
398
358
287
254
245
196
97
-9
-66
-73
-89
-126
-145
-152
-157
-143
-149
-209
-260
-240
-179
-149
-180
-222
-231
-219
-199
-210
-271
-284
-246
-79
652
1558
1142
-565
-1514
-1030
-429
-300
-250
-249
-312
-231
-133
-206
-244
-131
-69
-88
-22
70
55
48
137
181
154
186
236
208
169
148
78
1
-31
-90
-166
-166
-149
-188
-205
-187
-182
-160
-170
-270
-301
-204
-187
-265
-227
-121
-137
-211
-194
-138
-159
-213
-193
-183
-129
507
1599
1674
221
-1037
-952
-450
-310
-262
-197
-218
-193
-116
-131
-162
-70
53
82
93
167
220
224
281
379
425
438
466
505
545
548
464
351
289
255
219
205
198
167
132
101
58
27
43
75
53
14
29
28
-22
-6
52
41
10
0
-18
-8
9
-15
-32
69
540
1274
1287
150
-905
-898
-431
-186
-92
-64
-102
-105
-101
-117
-69
-24
-68
-81
0
44
25
35
88
134
163
181
190
196
177
116
43
-13
-61
-114
-156
-180
-209
-253
-282
-299
-330
-358
-360
-365
-377
-371
-366
-374
-368
-352
-343
-322
-302
-311
-298
-237
-215
-217
-157
-34
329
993
1169
230
-894
-1048
-553
-221
-129
-78
-52
-41
-15
18
50
77
104
138
163
181
213
241
252
279
330
363
371
381
373
327
275
226
157
90
53
25
-7
-27
-45
-75
-93
-89
-87
-92
-85
-78
-91
-105
-97
-90
-100
-104
-96
-100
-91
-76
-108
-125
-84
36
574
1433
1377
-48
-1238
-1077
-452
-208
-128
-43
-45
-49
-11
1
6
39
70
94
135
176
204
233
270
300
323
341
348
341
313
255
179
109
53
8
-30
-55
-65
-69
-71
-77
-90
-104
-111
-117
-124
-133
-147
-155
-144
-144
-166
-177
-191
-212
-194
-192
-234
-216
-187
9
895
1830
1156
-697
-1462
-829
-305
-267
-205
-136
-158
-138
-103
-103
-79
-39
-13
23
71
118
166
211
250
288
313
324
343
356
325
259
187
114
50
7
-22
-49
-71
-91
-105
-112
-123
-136
-143
-149
-153
-149
-153
-167
-156
-133
-135
-145
-154
-175
-173
-153
-163
-162
-167
-82
578
1565
1387
-212
-1310
-957
-334
-210
-186
-79
-46
-57
-51
-42
-26
-1
36
78
97
110
152
203
232
257
285
300
308
318
303
253
187
122
64
18
-23
-54
-66
-82
-115
-136
-135
-141
-160
-170
-172
-177
-182
-190
-193
-185
-186
-195
-195
-203
-221
-226
-238
-248
-209
-134
142
757
1049
261
-895
-1166
-685
-310
-190
-116
-89
-82
-40
-10
3
39
81
115
148
177
215
272
323
355
380
408
434
440
425
415
367
251
183
205
162
44
11
27
-14
-36
2
-4
-52
-69
-68
-66
-43
-31
-57
-78
-74
-77
-88
-98
-120
-140
-147
-157
-135
-45
228
854
1359
794
-576
-1326
-1030
-504
-232
-132
-118
-106
-55
-39
-46
0
60
76
95
147
169
177
242
316
329
328
342
341
332
314
242
151
101
55
-22
-73
-82
-94
-102
-97
-119
-151
-136
-113
-135
-164
-160
-154
-161
-147
-115
-119
-149
-136
-107
-125
-142
-120
-123
-130
119
884
1626
1159
-418
-1417
-1119
-510
-258
-150
-79
-77
-61
-17
13
12
-11
22
130
210
202
176
211
285
313
305
315
292
214
177
157
47
-78
-114
-148
-222
-247
-230
-234
-242
-247
-259
-251
-244
-263
-266
-276
-327
-341
-306
-311
-333
-309
-298
-328
-318
-295
-333
-335
-282
-192
406
1500
1569
-55
-1445
-1193
-450
-277
-259
-122
-85
-88
-26
7
14
69
148
216
268
301
349
431
499
526
534
536
543
557
534
465
402
347
268
222
234
224
181
183
207
182
