# session 19
-23
-37
-22
16
-5
-95
-139
-120
-114
-116
-101
-98
-110
-111
-103
-97
-93
-95
-96
-86
-78
-85
-92
-81
-64
-63
-67
-55
-41
-51
-60
-45
-17
4
14
23
37
32
0
-20
-8
-2
-13
-13
-15
-26
18
120
288
657
1038
785
-143
-822
-724
-334
-125
-53
-17
-14
-8
10
21
32
47
52
60
80
93
99
116
144
169
200
244
285
318
342
347
325
290
248
190
120
63
25
-6
-34
-53
-71
-90
-96
-87
-79
-73
-61
-50
-48
-47
-43
-45
-53
-60
-64
-63
-64
-72
-80
-84
-86
-88
-89
-95
-104
-103
-94
-91
-96
-97
-92
-92
-99
-99
-92
-91
-94
-93
-88
-88
-92
-94
-89
-83
-80
-78
-74
-72
-72
-72
-68
-61
-54
-42
-26
-15
-8
-9
-33
-63
-66
-57
-61
-57
-45
-64
-69
-1
145
469
921
920
114
-786
-948
-569
-254
-137
-87
-61
-40
-15
-8
-8
4
18
28
44
60
72
92
121
151
185
231
283
331
371
394
393
369
326
269
199
130
73
28
-7
-32
-48
-59
-64
-63
-58
-51
-43
-33
-23
-18
-22
-24
-17
-18
-33
-41
-38
-43
-56
-61
-62
-67
-72
-74
-73
-73
-74
-75
-75
-71
-71
-73
-65
-57
-65
-74
-74
-75
-56
-22
-33
-78
-91
-80
-67
-27
8
-18
-64
-68
-47
-29
-15
-7
-12
-28
-40
-34
-30
-36
-24
-11
-32
-21
87
330
764
1068
621
-386
-926
-674
-277
-126
-74
-36
-32
-23
-7
-7
3
29
40
40
49
65
85
108
130
160
206
262
307
338
360
373
367
332
272
200
130
69
13
-33
-61
-82
-103
-116
-117
-113
-104
-93
-89
-91
-86
-80
-84
-89
-85
-87
-95
-95
-94
-104
-112
-113
-115
-119
-114
-109
-108
-105
-104
-106
-105
-97
-90
-86
-83
-79
-80
-87
-88
-80
-81
-90
-87
-75
-73
-78
-77
-74
-71
-65
-60
-60
-55
-47
-48
-53
-43
-25
-13
-7
5
20
19
2
-13
-15
-13
-26
-31
-13
-20
-35
32
168
425
896
1116
459
-604
-1006
-673
-294
-136
-62
-29
-26
-6
20
27
32
44
58
73
87
97
109
132
168
207
245
297
351
385
402
414
415
391
337
262
188
125
65
9
-29
-51
-68
-77
-81
-82
-75
-67
-62
-57
-51
-55
-62
-63
-65
-68
-73
-81
-87
-90
-94
-101
-105
-109
-116
-121
-112
-99
-105
-120
-110
-89
-102
-130
-128
-105
-102
-120
-132
-121
-101
-101
-120
-124
-108
-92
-80
-66
-47
-28
-22
-30
-48
-64
-61
-60
-76
-71
-45
-54
-47
45
277
783
1268
908
-260
-1014
-814
-371
-185
-100
-44
-59
-59
-26
-19
-17
11
29
27
46
81
95
103
133
177
223
279
341
395
432
446
432
393
330
246
163
97
40
-14
-54
-76
-86
-88
-83
-80
-85
-88
-79
-68
-61
-53
-49
-59
-73
-74
-76
-99
-125
-126
-117
-129
-138
-121
-109
-123
-134
-133
-134
-126
-107
-99
-100
-97
-95
-89
-79
-81
-91
-82
-64
-74
-100
-96
-71
-67
-73
-55
-39
-42
-38
-23
-25
-44
-48
-34
-19
-14
-17
-17
-1
24
38
41
47
52
43
23
11
13
9
1
8
5
-1
48
162
429
921
1143
492
-532
-890
-558
-230
-122
-66
-34
-35
-25
-7
2
12
23
32
53
83
90
80
93
132
166
196
243
295
334
359
372
365
336
295
245
171
88
30
-15
-66
-92
-98
-123
-150
-144
-130
-128
-119
-105
-100
-103
-105
-101
-96
-98
-104
-108
-110
-112
-120
-131
-132
-125
-127
-136
-130
-109
-99
-110
-114
-109
-113
-112
-84
-64
-73
-76
-58
-46
-49
-53
-46
-32
-28
-33
-32
-32
-42
-48
-42
-27
-6
4
-3
-1
22
29
-7
-46
-40
-24
-36
-33
-13
-37
-40
68
247
602
1132
1155
212
-821
-964
-530
-232
-138
-81
-58
-55
-38
-24
-13
5
20
33
47
52
59
91
122
141
180
247
306
351
387
418
443
435
361
269
215
148
37
-41
-59
-89
-135
-142
-127
-132
-139
-130
-121
-120
-117
-100
-81
-86
-104
-102
-84
-87
-108
-113
-102
-96
-102
-112
-111
-103
-98
-93
-89
-91
-91
-80
-74
-80
-76
-62
-63
-73
-68
-58
-57
-52
-39
-37
-44
-40
-29
-32
-39
-35
-31
-34
-29
-19
-20
-27
-25
-13
9
19
-4
-40
-49
-30
-28
-52
-45
-17
-26
-27
50
255
706
1155
883
-131
-845
-716
-314
-133
-89
-54
-35
-32
-30
-17
6
12
12
30
53
63
74
94
118
151
205
263
300
332
388
430
419
387
352
291
219
157
85
5
-44
-59
-72
-90
-103
-116
-124
-106
-81
-96
-122
-107
-81
-85
-94
-93
-99
-104
-100
-99
-106
-122
-140
-143
-138
-135
-127
-120
-120
-118
-119
-133
-138
-118
-104
-110
-111
-106
-109
-113
-104
-93
-99
-106
-96
-90
-101
-103
-82
-61
-55
-46
-27
-20
-37
-53
-50
-41
-46
-46
-24
-23
-34
24
162
453
989
1263
593
-546
-1012
-691
-303
-146
-79
-46
-39
-29
-17
-9
-2
2
4
9
21
41
63
86
114
148
190
246
306
355
388
405
408
388
329
245
167
99
33
-22
-62
-99
-127
-126
-110
-101
-99
-93
-81
-72
-62
-51
-46
-50
-48
-37
-33
-41
-45
-40
-39
-44
-50
-52
-48
-44
-48
-54
-49
-42
-46
-51
-45
-39
-45
-54
-56
-55
-59
-58
-46
-33
-31
-23
-6
-2
-18
-40
-51
-47
-49
-62
-51
-42
-68
-44
79
351
923
1395
874
-412
-1091
-785
-349
-205
-138
-93
-101
-91
-67
-65
-57
-37
-24
-14
0
18
39
64
95
135
185
242
306
366
407
420
407
369
307
227
138
56
-12
-63
-102
-130
-148
-159
-164
-160
-151
-145
-139
-131
-123
-117
-112
-110
-110
-113
-116
-117
-118
-125
-131
-134
-137
-140
-137
-136
-135
-130
-123
-121
-122
-121
-116
-105
-98
-104
-104
-94
-97
-99
-80
-68
-87
-102
-86
-60
-38
-18
-15
-31
-39
-28
-27
-41
-50
-42
-17
-13
-32
5
131
392
867
1186
692
-369
-931
-685
-282
-111
-48
-11
-6
4
21
28
38
51
59
71
87
102
119
139
164
197
239
286
338
388
428
451
452
429
382
314
237
163
92
31
-17
-54
-80
-93
-96
-93
-86
-77
-73
-70
-64
-58
-55
-54
-55
-59
-65
-74
-83
-91
-97
-104
-109
-111
-112
-113
-112
-111
-112
-112
-111
-110
-108
-107
-105
-103
-103
-103
-102
-99
-97
-97
-96
-84
-67
-57
-48
-32
-24
-41
-64
-68
-61
-66
-68
-53
-58
-73
-25
105
429
988
1181
395
-703
-982
-550
-215
-136
-93
-68
-71
-55
-39
-33
-19
-4
4
17
33
49
67
89
117
151
189
235
287
334
360
369
366
339
285
218
147
76
15
-26
-57
-87
-107
-110
-108
-110
-109
-98
-91
-92
-90
-84
-86
-94
-98
-97
-101
-108
-108
-108
-117
-124
-117
-111
-115
-112
-103
-104
-104
-93
-81
-83
-90
-83
-68
-66
-72
-68
-64
-67
-62
-50
-48
-50
-50
-49
-48
-44
-35
-21
-7
7
21
25
11
-12
-22
-14
-15
-28
-11
8
-22
-9
113
333
760
1174
839
-253
-1000
-847
-404
-182
-91
-36
-27
-23
-3
12
23
35
42
49
64
86
102
107
125
167
215
252
295
349
391
411
418
407
367
308
243
171
96
31
-17
-51
-76
-93
-103
-100
-90
-84
-81
-76
-73
-73
-74
-75
-74
-71
-75
-86
-93
-95
-98
-100
-100
-104
-107
-106
-106
-107
-105
-100
-99
-98
-93
-92
-96
-96
-91
-91
-93
-91
-91
-92
-83
-73
-65
-55
-49
-57
-62
-63
-72
-81
-83
-67
-49
-105
-195
-131
83
373
885
1297
779
-448
-1081
-776
-353
-205
-141
-112
-124
-101
-63
-59
-56
-43
-36
-24
1
26
52
80
102
122
165
231
292
332
365
393
399
376
327
256
174
96
34
-19
-58
-78
-92
-108
-112
-98
-86
-85
-85
-79
-64
-44
-38
-49
-53
-44
-37
-41
-48
-54
-58
-60
-61
-63
-63
-59
-54
-51
-48
-41
-34
-30
-28
-25
-23
-23
-24
-26
-26
-26
-31
-34
-26
-21
-26
-26
-14
-3
7
20
23
1
-27
-38
-37
-44
-44
-30
-43
-63
-20
100
392
910
1112
399
-661
-987
-600
-245
-140
-101
-76
-73
-61
-46
-37
-26
-16
-6
5
12
25
50
74
96
124
162
202
241
282
322
347
346
328
295
236
163
101
50
-4
-54
-84
-100
-116
-124
-116
-107
-105
-102
-93
-84
-83
-92
-95
-87
-88
-100
-104
-100
-104
-111
-112
-115
-120
-118
-111
-112
-116
-113
-110
-113
-114
-108
-105
-104
-96
-86
-77
-58
-38
-37
-53
-70
-81
-77
-72
-84
-78
-63
-86
-73
42
258
707
1193
917
-214
-1047
-925
-475
-242
-134
-66
-56
-46
-20
-10
1
21
36
53
76
97
114
134
164
202
242
288
345
397
436
461
464
436
386
321
245
168
99
41
-4
-35
-56
-65
-63
-56
-49
-42
-36
-31
-27
-25
-25
-23
-22
-23
-27
-30
-34
-41
-47
-52
-58
-63
-64
-64
-65
-66
-67
-68
-72
-80
-82
-74
-71
-75
-78
-88
-102
-93
-64
-42
-25
-12
-31
-88
-140
-132
-81
-57
-63
-67
-87
-109
-87
79
580
1174
985
-141
-1031
-926
-435
-208
-162
-123
-120
-144
-150
-140
-122
-94
-77
-83
-73
-49
-48
-26
34
35
1
44
104
109
139
199
204
162
117
53
-28
-99
-153
-185
-198
-206
-213
-207
-183
-148
-120
-103
-82
-61
-47
-22
13
36
61
99
125
133
140
140
136
143
147
140
134
130
132
136
129
123
124
112
100
106
110
106
115
119
98
72
50
33
27
28
33
41
41
41
77
281
769
1160
762
-271
-926
-801
-434
-234
-148
-111
-119
-119
-105
-100
-87
-64
-55
-51
-32
-19
-15
6
44
69
92
132
172
198
229
263
276
262
226
176
120
66
13
-40
-88
-119
-129
-132
-137
-135
-127
-122
-120
-117
-115
-112
-107
-105
-107
-110
-114
-119
-125
-130
-134
-133
-130
-132
-136
-130
-120
-119
-118
-114
-117
-118
-104
-85
-71
-53
-35
-30
-44
-64
-65
-56
-62
-57
-42
-52
-49
10
173
626
1191
1042
-19
-900
-841
-384
-152
-86
-44
-39
-33
-8
0
2
19
35
45
60
79
99
120
145
172
202
242
290
335
373
398
400
382
352
297
225
162
104
38
-17
-45
-65
-82
-84
-81
-83
-86
-82
-74
-66
-62
-64
-67
-72
-77
-85
-96
-102
-106
-117
-130
-129
-116
-115
-133
-138
-125
-121
-123
-119
-117
-119
-117
-118
-117
-100
-86
-89
-75
-48
-50
-74
-82
-76
-77
-89
-86
-68
-78
-91
-31
122
471
996
1069
213
-827
-1057
-650
-300
-163
-99
-78
-73
-54
-44
-38
-16
3
13
26
42
56
77
104
131
155
186
233
287
332
364
389
395
377
340
277
195
123
72
21
-31
-61
-72
-86
-93
-86
-79
-74
-65
-58
-54
-47
-42
-42
-41
-44
-55
-65
-69
-71
-74
-76
-79
-79
-75
-70
-65
-62
-59
-56
-59
-68
-68
-61
-60
-61
-54
-50
-45
-26
-8
-14
-39
-55
-51
-48
-56
-47
-35
-57
-52
28
215
684
1229
1012
-99
-948
-840
-390
-181
-113
-65
-61
-60
-43
-36
-33
-22
-12
-1
14
30
45
65
90
122
158
195
238
285
323
347
354
343
308
254
187
118
55
1
-44
-78
-102
-117
-120
-117
-113
-110
-103
-96
-91
-90
-89
-89
-90
-93
-97
-101
-102
-105
-110
-115
-117
-116
-115
-115
-113
-107
-103
-102
-100
-98
-99
-100
-93
-84
-86
-91
-86
-82
-84
-85
-82
-81
-80
-74
-63
-55
-49
-36
-15
-9
-28
-47
-43
-36
-47
-45
-33
-49
-41
38
202
601
1107
980
-17
-896
-887
-447
-187
-106
-63
-42
-24
-9
-7
4
22
27
34
57
80
91
101
125
152
175
210
261
304
331
358
382
391
377
342
287
218
153
99
53
11
-26
-50
-56
-49
-43
-44
-45
-37
-27
-27
-30
-27
-23
-32
-41
-40
-41
-49
-54
-53
-54
-56
-57
-58
-59
-57
-58
-60
-61
-66
-74
-66
-49
-51
-61
-53
-44
-53
-54
-41
-38
-50
-51
-41
-36
-40
-52
-68
-65
-51
-47
-34
-7
-8
-29
-44
-50
-2
70
17
-100
-68
33
-3
-103
-133
-117
-93
-71
-77
-93
-82
-79
-114
-142
-117
-81
-79
-82
-53
-25
-31
-52
-73
-88
-68
-39
-42
-29
6
0
21
164
437
816
974
439
-456
-807
-507
-176
-67
-46
-48
-45
-18
-7
-16
-19
-17
3
37
33
8
18
41
34
40
113
206
220
162
157
223
246
214
205
214
203
181
157
118
75
39
-3
-50
-55
-15
-11
-50
-55
-34
-41
-48
-25
-18
-57
-94
-80
-32
-10
-25
-37
-35
-46
-55
-33
-9
-4
-11
-30
-48
-46
-39
-28
-1
9
-13
-20
-5
-2
-4
7
15
10
8
6
-10
-23
-16
6
17
0
-14
11
51
53
19
-14
-21
-9
-19
-48
-44
-35
-52
-14
137
424
831
961
343
-599
-935
-617
-296
-188
-124
-93
-112
-127
-133
-111
-53
-36
-61
-55
-42
-49
-27
12
21
22
44
90
153
203
221
236
257
255
222
186
149
85
6
-44
-63
-86
-125
-166
-172
-134
-118
-153
-155
-106
-96
-126
-121
-93
-85
-80
-76
-100
-129
-113
-66
-67
-119
-122
-61
-45
-79
-75
-56
-68
-57
-20
-36
-73
-44
-5
-20
-21
15
29
31
44
46
71
120
105
34
17
51
60
63
78
69
85
182
382
816
1263
965
-92
-807
-673
-284
-61
42
58
