# session 6
-54
-55
-50
54
174
169
134
184
299
449
564
561
488
428
405
380
285
188
167
219
709
1665
1680
-23
-1646
-1674
-1027
-668
-405
-243
-287
-258
-190
-300
-349
-149
87
238
352
307
55
-84
97
316
331
293
327
366
356
251
76
-14
-31
-123
-235
-253
-243
-260
-243
-179
-126
-88
-36
22
50
38
9
1
51
118
134
150
182
233
699
1680
1981
764
-657
-887
-476
-323
-345
-358
-401
-404
-370
-376
-365
-314
-288
-274
-258
-263
-231
-142
-85
-44
54
124
106
94
120
110
55
-20
-114
-169
-157
-175
-250
-265
-211
-197
-219
-216
-226
-262
-251
-202
-198
-197
-145
-133
-159
-69
124
532
1453
2234
1594
-26
-794
-390
26
63
86
107
55
52
71
18
-56
-124
-205
-244
-224
-205
-185
-117
-16
57
61
43
107
246
356
420
443
386
317
314
271
148
90
110
66
-25
-28
19
-25
-117
-139
-169
-267
-288
-244
-287
-288
-178
-27
578
1572
1505
-83
-1380
-1277
-743
-533
-425
-355
-404
-431
-421
-504
-644
-742
-819
-894
-899
-844
-798
-725
-551
-339
-189
-90
12
126
245
355
447
550
671
753
808
915
1016
1012
1000
1064
1038
879
805
842
750
558
487
475
368
228
132
92
74
127
742
1819
1767
17
-1412
-1229
-590
-380
-285
-248
-344
-307
-147
-128
-225
-257
-199
-145
-174
-237
-246
-238
-255
-231
-174
-168
-186
-199
-257
-317
-311
-323
-395
-445
-479
-506
-432
-321
-319
-324
-241
-199
-205
-150
-118
-156
-143
-113
-186
-269
-203
-82
-128
-99
563
1344
878
-612
-1369
-947
-419
-259
-172
-84
-64
-46
8
70
115
154
207
262
319
399
497
583
595
516
461
495
500
441
409
375
286
214
159
53
-52
-107
-150
-181
-183
-184
-177
-132
-91
-113
-144
-112
-51
12
88
80
-7
13
92
195
782
1662
1486
14
-1113
-1049
-644
-470
-362
-328
-406
-433
-408
-433
-459
-433
-402
-374
-294
-178
-96
-36
45
118
172
239
278
260
258
275
210
102
86
133
136
92
25
-69
-135
-126
-80
-17
40
50
65
100
54
-23
-7
39
105
207
280
772
1941
2404
1010
-717
-966
-349
-54
-14
39
-4
-62
7
54
-51
-159
-143
-106
-148
-182
-107
13
60
50
74
126
158
187
233
261
256
251
262
248
192
132
84
39
26
38
-2
-78
-102
-115
-187
-258
-320
-431
-534
-579
-598
-559
-460
-298
102
547
303
-651
-1291
-1118
-692
-467
-390
-369
-362
-347
-367
-401
-374
-350
-405
-435
-376
-333
-325
-256
-141
-65
-23
3
38
141
271
326
329
343
363
418
519
576
553
531
513
449
398
389
334
211
81
-55
-184
-214
-205
-330
-484
-479
-410
-97
727
1097
-35
-1529
-1744
-1129
-758
-582
-355
-192
-37
215
460
611
698
760
799
826
887
928
870
834
910
925
827
776
744
619
524
538
501
365
285
281
237
160
128
137
135
82
-2
-2
102
149
73
3
-1
-12
-90
-220
-271
-203
-98
301
1024
962
-461
-1719
-1575
-932
-734
-683
-553
-531
-556
-515
-489
-469
-381
-278
-191
-91
-28
-3
101
252
290
248
274
341
333
250
136
16
-75
-151
-257
-383
-484
-545
-588
-656
-720
-677
-548
-495
-521
-467
-347
-322
-327
-172
1
-50
-142
-40
168
641
1475
1690
555
-754
-947
-493
-212
-75
17
-27
-115
-143
-138
-131
-112
-50
23
38
51
132
190
175
190
245
243
236
302
349
328
328
336
293
250
226
170
86
6
-64
-142
-248
-324
-309
-267
-232
-167
-144
-131
48
225
182
211
418
705
1614
2831
2438
315
-1063
-802
-326
-234
-120
-29
-95
-164
-194
-212
-211
-244
-279
-239
-213
-274
-314
-307
-341
-381
-350
-302
-263
-161
-7
117
200
284
391
495
552
556
547
541
497
405
341
345
331
246
156
72
-57
-163
-198
-269
-355
-317
-190
76
587
787
35
-1022
-1270
-839
-499
-376
-286
-239
-204
-162
-207
-300
-332
-340
-342
-335
-381
-402
-287
-160
-127
-86
-5
49
105
194
232
176
114
114
109
41
-14
-7
3
9
52
78
46
26
25
-21
-74
-77
-64
-72
-119
-205
-248
-223
-116
278
767
484
-711
-1641
-1562
-1044
-733
-620
-547
-457
-323
-162
27
276
527
684
729
687
610
595
665
728
737
740
756
767
796
839
815
703
590
511
414
315
262
207
135
104
70
-6
-18
23
-34
-150
-198
-203
-158
-34
26
29
145
328
705
1402
1443
16
-1531
-1680
-1075
-777
-669
-547
-533
-518
-411
-354
-364
-316
-196
-108
-92
-74
-37
1
120
288
289
140
67
93
120
135
102
13
-50
-84
-151
-221
-231
-198
-178
-194
-240
-301
-358
-398
-420
-417
-402
-406
-357
-197
-61
15
146
265
589
1598
2453
1612
-221
-935
-437
-22
66
156
164
83
71
77
38
16
-14
-103
-145
-98
-82
-101
-54
8
12
14
39
53
64
82
118
162
137
14
-91
-39
117
129
-85
-265
-256
-230
-258
-233
-193
-221
-252
-260
-297
-326
-316
-327
-321
-231
-38
412
937
726
-318
-1054
-894
-436
-141
-10
-36
-41
114
191
102
105
232
266
172
81
73
109
96
26
-64
-196
-318
-317
-229
-154
-127
-158
-204
-192
-148
-91
62
262
349
331
323
310
269
267
270
209
177
223
231
181
149
130
121
128
249
731
1253
881
-339
-1139
-986
-554
-331
-234
-180
-163
-158
-152
-123
-61
12
83
125
97
70
99
104
93
136
94
-93
-175
-57
53
78
100
117
124
167
211
178
140
246
416
403
250
235
361
416
399
374
333
376
506
495
355
322
391
599
1123
1431
724
-488
-974
-690
-470
-526
-516
-400
-373
-427
-440
-422
-423
-397
-305
-186
-109
-97
-82
-14
37
17
-17
-17
-4
-5
-29
-76
-139
-187
-210
-247
-304
-344
-379
-425
-443
-437
-449
-443
-405
-395
-409
-403
-391
-378
-344
-316
-288
-226
-113
228
848
1075
284
-852
-1210
-814
-419
-317
-337
-353
-347
-327
-332
-375
-403
-368
-303
-242
-188
-151
-102
34
207
263
231
321
543
675
635
564
538
513
480
456
399
299
235
242
269
256
191
118
68
15
-55
-120
-162
-164
-152
-159
-107
-1
140
732
1834
2099
692
-806
-834
-121
214
275
337
319
247
205
194
202
170
113
129
178
168
147
159
168
175
199
223
255
302
326
308
260
195
143
113
64
26
80
179
202
153
109
87
67
21
-55
-131
-222
-368
-476
-468
-471
-519
-456
-325
8
938
1683
778
-1076
-1751
-1141
-631
-507
-368
-273
-274
-224
-139
-82
-75
-143
-191
-131
-87
-129
-134
-79
-64
-83
-83
-82
-109
-148
-200
-294
-410
-469
-460
-448
-431
-355
-261
-214
-148
-16
99
181
317
453
480
448
420
370
324
301
275
270
298
520
1159
1613
899
-482
-1081
-767
-435
-371
-368
-368
-363
-345
-338
-311
-266
-248
-243
-232
-224
-195
-131
-60
-3
53
109
152
172
172
167
157
113
36
-19
-44
-88
-149
-190
-204
-213
-260
-343
-366
-299
-249
-245
-219
-184
-143
-44
31
59
162
275
522
1337
2054
1274
-446
-1167
-715
-300
-221
-143
-75
-87
-108
-115
-141
-219
-323
-348
-285
-239
-226
-194
-158
-119
-59
-15
60
244
437
548
647
703
632
543
529
521
491
479
483
476
434
359
304
278
224
172
164
112
-1
-42
-36
-76
-67
42
324
1032
1667
1047
-529
-1339
-958
-425
-191
-42
48
84
112
63
-15
-26
-40
-82
-76
-65
-98
-77
4
16
-15
19
62
60
86
115
72
-4
-127
-254
-130
169
207
6
-46
82
192
176
37
-32
68
99
8
-2
-26
-178
-252
-215
-221
-241
-183
115
671
728
-274
-1361
-1464
-1012
-750
-622
-465
-375
-353
-325
-282
-235
-195
-164
-145
-152
-170
-155
-106
-77
-80
-54
18
51
3
-42
-57
-124
-217
-228
-186
-188
-216
-223
-228
-241
-230
-194
-176
-176
-152
-111
-96
-105
-106
-63
16
52
53
134
298
619
1210
1478
639
-680
-1123
-662
-214
-82
-45
-30
-43
-61
-75
-71
-48
-35
-18
40
106
136
187
303
425
510
579
620
606
566
549
549
508
401
316
324
345
313
303
319
253
122
25
-45
-107
-135
-152
-180
-212
-257
-280
-265
-282
-291
-217
-25
622
1638
1688
177
-1214
-1163
-531
-245
-122
-16
-25
-39
-4
0
-8
-1
-3
23
98
157
167
172
190
193
188
184
157
138
163
152
54
5
61
50
-58
-63
66
178
258
357
426
431
412
388
364
352
335
264
154
110
114
68
23
14
168
906
1781
1282
-503
-1519
-1128
-623
-530
-432
-354
-407
-392
-318
-296
-222
-97
-89
-144
-58
97
88
-26
-13
85
82
12
-3
14
5
-30
-102
-210
-318
-425
-571
-755
-917
-1018
-1064
-1078
-1078
-1073
-1053
-1022
-998
-986
-979
-975
-940
-866
-825
-802
-703
-567
-256
481
990
266
-1079
-1531
-1051
-613
-451
-323
-241
-212
-147
-94
-91
-64
14
93
158
227
300
395
524
662
789
903
1014
1133
1235
1281
1286
1270
1225
1182
1175
1162
1124
1101
1079
1027
967
904
835
804
792
747
694
641
559
508
477
378
324
362
469
1090
2086
1885
70
-1319
-1116
-495
-310
-239
-159
-173
-175
-143
-140
-130
-103
-86
-70
-51
-34
-13
13
28
30
28
29
29
20
-1
-31
-73
-127
-179
-214
-242
-266
-271
-280
-314
-349
-375
-411
-442
-450
-476
-538
-595
-645
-694
-705
-709
-735
-711
-626
-319
492
1112
343
-1201
-1735
-1202
-804
-745
-647
-610
-691
-660
-533
-519
-602
-608
-510
-425
-406
-392
-330
-252
-198
-157
-112
-67
-32
-15
-27
-50
-67
-85
-96
-83
-52
-16
28
68
95
120
149
183
233
288
322
352
383
378
366
416
466
437
398
464
847
1610
1943
1000
-374
-734
-250
73
121
187
213
171
169
188
191
213
241
252
281
322
340
361
382
362
339
360
385
390
388
357
306
287
286
258
230
230
231
217
200
189
178
148
102
77
69
39
-8
-57
-111
-132
-118
-146
-185
-155
-68
275
970
1168
128
-1173
-1412
-893
-534
-430
-368
-359
-368
-345
-335
-338
-313
-271
-226
-181
-166
-178
-167
-127
-94
-84
-82
-78
-66
-52
-64
-103
-129
-131
-145
-173
-177
-158
-157
-185
-206
-200
-201
-223
-223
-197
-191
-209
-231
-251
-236
-211
-235
-239
-198
-56
574
1467
1297
-173
-1209
-908
-295
-83
-7
40
4
12
62
59
52
71
78
94
133
156
171
209
248
247
236
263
304
305
294
309
300
251
232
240
218
194
202
201
172
150
150
139
100
72
77
67
27
-20
-73
-103
-96
-122
-155
-172
-137
435
1539
1668
103
-1325
-1202
-534
-325
-285
-192
-185
-198
-152
-104
-80
-61
-31
8
36
58
106
167
192
166
150
187
223
209
179
163
128
62
-2
-29
-32
-66
-142
-197
-199
-197
-222
-259
-292
-305
-292
-266
-245
-245
-257
-231
-176
-151
-116
-55
-2
315
979
1119
150
-896
-956
-487
-245
-188
-142
-144
-149
-119
-103
-97
-76
-52
-30
-9
6
21
38
45
47
60
82
107
125
127
115
88
54
37
39
27
-2
-15
-10
-13
-18
-3
13
2
-11
-2
-6
-21
-9
-5
-22
1
35
14
20
111
311
773
1216
813
-372
-1116
-888
-385
-123
-15
33
45
73
114
145
168
181
198
222
234
252
283
304
325
359
377
374
373
368
339
291
237
182
125
73
34
7
-15
-41
-68
-81
-80
-95
-129
-139
-138
-170
-190
-170
-183
-216
-187
-158
-167
-151
-98
216
940
1208
173
-1162
-1348
-731
-349
-270
-213
-191
-198
-175
-144
-114
-84
-69
-53
-21
13
56
105
132
128
124
135
139
129
123
109
64
6
-37
-67
-87
-97
-110
-128
-145
-159
-152
-131
-124
-112
-77
-66
-77
-66
-60
-68
-53
-64
-100
-82
-74
96
820
1450
764
-679
-1171
-667
-306
-280
-218
-164
-184
-164
-117
-90
-62
-37
-15
24
68
101
136
173
204
233
265
296
304
273
236
222
203
156
109
82
63
37
4
-26
-47
-62
-74
-88
-96
-83
-70
-90
-110
-108
-126
-141
-111
-115
-151
-123
-65
195
904
1312
435
-925
-1253
-713
-325
-215
-120
-81
-95
-71
-34
-13
14
48
79
107
144
185
210
228
258
287
295
293
287
272
236
176
112
64
22
-13
-24
-40
-77
-99
-102
-115
-126
-124
-134
-147
-133
-116
-121
-138
-157
-147
-97
-95
-133
-97
-6
344
1201
1661
594
-1002
-1352
-723
-313
-209
-103
-74
-99
-62
-24
-15
17
58
84
118
160
195
224
252
277
300
320
333
327
300
271
241
193
137
99
78
62
40
13
-10
-22
-34
-49
-69
-93
-102
-89
-89
-115
-135
-153
-165
-143
-149
-192
-176
-122
148
971
1575
705
-884
-1335
-727
-321
-275
-201
-154
-170
-142
-102
-87
-66
-41
-17
8
42
105
166
172
163
186
211
217
215
179
104
43
5
-40
-70
-66
-74
-112
-131
-132
-158
-196
-205
-187
-170
-168
-181
-186
-162
-156
-201
-213
-172
-180
-194
-170
-128
347
1344
1565
283
-944
-854
-336
-248
-236
-105
-87
-138
-113
-66
-51
-41
-13
19
44
75
114
145
174
206
237
266
272
238
198
163
105
40
-3
-24
-30
-45
-90
-110
-95
-126
-195
-202
-163
-152
-150
-132
-141
-169
-175
-181
-188
-172
-187
-211
-199
-199
134
1106
1638
568
-965
-1233
-633
-306
-240
-138
-90
-87
-45
-9
17
61
96
127
174
211
240
289
327
332
352
403
427
398
345
284
216
147
