# session 16
15
-148
369
6
-2017
-3703
-3781
-3424
-3322
-3053
-2805
-2805
-2709
-2580
-2621
-2514
-2288
-2368
-2419
-2013
-1816
-2193
-2221
-1668
-1568
-1969
-1873
-1337
-1150
-1247
-1233
-1184
-1066
-803
-734
-887
-872
-795
-859
-841
-745
-700
-577
-491
-576
-602
-562
-597
-540
-371
-323
-220
359
1137
1193
284
-728
-1070
-768
-258
-11
-2
216
417
235
335
858
780
270
405
796
663
512
756
866
664
696
964
811
436
646
1120
1112
898
822
718
614
560
534
690
823
613
505
938
1339
1073
597
537
484
57
-195
-99
-147
-321
-311
-162
-32
-36
-88
37
135
-110
-321
-55
235
33
-162
205
787
1198
1292
686
-382
-920
-751
-431
-83
156
20
-90
153
292
220
383
630
541
315
270
327
345
382
531
651
572
502
593
548
356
318
261
35
-1
126
29
-98
25
86
-52
-129
-257
-577
-630
-316
-282
-537
-433
-119
-189
-438
-402
-271
-411
-609
-349
106
-195
-946
-741
5
-266
-927
-677
-310
-503
-187
951
1570
786
-710
-1492
-931
-25
-47
-555
-308
326
127
-578
-704
-379
-215
-63
274
431
280
220
333
384
523
742
524
62
159
572
463
39
-7
163
31
-247
-274
-249
-501
-744
-660
-542
-660
-767
-687
-582
-496
-354
-299
-417
-498
-472
-511
-562
-450
-318
-342
-361
-238
-158
-208
-234
-186
-78
81
234
650
1461
1587
300
-928
-839
-384
-314
-103
215
218
134
88
-45
-41
142
203
224
409
526
475
538
715
728
615
618
760
839
698
428
228
146
73
-103
-232
-36
207
11
-255
-77
149
108
79
65
6
99
106
-144
-143
154
193
45
65
160
231
241
126
108
252
251
140
123
24
-195
-64
750
1697
1594
160
-1265
-1453
-811
-341
-230
-132
-4
-49
-156
-74
-11
-118
-23
195
53
-115
162
449
460
501
422
-62
-516
-565
-511
-552
-506
-393
-381
-416
-392
-296
-169
-188
-415
-561
-461
-315
-270
-285
-293
-252
-225
-296
-341
-225
-84
-59
-75
-63
-74
-112
-40
185
298
108
-129
-168
-53
201
640
1240
1633
1064
-366
-1276
-1000
-413
-223
-192
-56
-28
-190
-165
79
64
-149
-83
155
242
252
330
466
558
571
658
768
681
560
538
423
325
364
218
-37
-31
8
-91
13
235
177
-32
-33
192
274
-41
-345
-287
-207
-159
18
-118
-510
-498
-408
-606
-376
234
276
44
316
478
-119
-603
-64
1020
1585
1065
-126
-896
-820
-489
-283
-63
77
16
52
275
243
-78
-97
223
195
-255
-399
-55
94
-242
-522
-468
-462
-680
-866
-889
-846
-824
-808
-682
-456
-398
-577
-677
-600
-584
-624
-551
-478
-482
-409
-300
-286
-248
-122
-62
-100
-112
-20
108
107
30
91
217
218
174
258
605
1066
1234
1371
1986
2212
1095
-280
-568
-188
80
228
307
324
437
606
656
578
472
488
645
740
761
823
744
512
487
602
491
280
273
426
506
311
-27
-123
-75
-277
-532
-489
-380
-426
-445
-340
-235
-265
-392
-345
-163
-254
-455
-344
-186
-162
-5
47
-102
125
458
119
-333
-189
-52
-257
-238
24
317
952
1425
605
-759
-905
-284
-280
-369
98
216
-167
-84
315
303
6
-394
-877
-1008
-796
-884
-1150
-917
-394
-188
-194
-99
33
56
-47
-167
-222
-309
-443
-469
-384
-346
-372
-333
-230
-220
-285
-298
-291
-230
-52
-54
-316
-312
36
106
-158
-221
-88
-63
19
279
345
70
-103
31
72
38
574
1351
1057
-180
-922
-870
-477
192
514
129
38
316
27
-138
472
619
118
139
422
437
718
1027
745
458
618
714
586
534
552
517
437
317
224
212
174
78
60
85
8
-76
-50
-29
-73
-94
-109
-179
-230
-186
-124
-149
-226
-260
-269
-304
-293
-125
65
-72
-427
-376
28
88
124
851
1315
344
-1033
-1370
-1004
-687
-426
-261
-259
-223
-188
-295
-359
-246
-146
-181
-183
-9
244
419
376
106
-60
76
181
114
144
224
129
17
35
37
-27
-65
-90
-120
-133
-225
-389
-325
-18
53
-91
65
349
239
-13
32
232
366
409
389
399
340
118
117
383
287
-57
178
1002
1656
1418
285
-648
-613
-216
-121
-378
-620
-294
22
-490
-683
43
65
-569
-248
321
78
-73
84
-76
-66
388
679
676
422
-115
-391
-160
0
-112
-137
-115
-252
-316
-192
-227
-421
-379
-214
-271
-320
-192
-265
-533
-476
-237
-387
-646
-448
-143
-126
-80
11
-195
-432
-361
-227
-161
-51
146
611
1143
885
-235
-1037
-789
-91
194
54
16
201
346
395
421
420
422
434
469
639
830
690
307
162
325
501
554
484
385
370
288
67
-30
-35
-208
-365
-274
-167
-226
-322
-375
-368
-310
-312
-376
-364
-315
-348
-355
-242
-170
-239
-303
-275
-244
-258
-276
-286
-291
-254
-152
36
383
729
542
-311
-1068
-1076
-648
-358
-261
-181
-113
-107
-110
-83
-61
-59
-53
-44
-40
-16
54
149
222
268
320
370
367
318
289
277
215
124
96
117
88
23
10
49
87
117
140
148
147
151
179
241
272
234
214
259
283
273
288
303
299
304
279
238
263
361
728
1454
1679
632
-698
-974
-524
-244
-165
-89
-74
-71
-32
-38
-59
-32
-26
-42
9
91
127
170
248
284
278
281
239
145
107
107
55
-33
-137
-214
-180
-129
-202
-287
-259
-228
-264
-285
-283
-324
-363
-321
-254
-260
-293
-268
-236
-252
-238
-179
-137
-110
-171
-291
-139
268
621
1086
1419
679
-751
-1388
-1083
-651
-360
-247
-309
-313
-263
-317
-402
-400
-276
-111
-76
-95
-6
91
124
172
239
342
439
346
138
74
97
79
119
187
72
-158
-196
-55
-47
-178
-205
-182
-259
-315
-314
-404
-517
-516
-495
-524
-548
-563
-586
-589
-564
-496
-408
-375
-366
-288
-119
274
898
1120
448
-429
-543
-17
447
631
675
623
548
577
634
585
490
388
273
250
322
371
392
365
297
400
623
610
430
409
433
311
147
-14
-131
-81
-55
-251
-382
-265
-137
-97
-59
-32
-10
78
207
235
110
46
203
330
212
60
54
59
-25
-120
-130
-44
108
467
1117
1420
689
-430
-802
-493
-218
-139
-149
-231
-194
43
84
-216
-344
-141
-65
-152
-88
-2
-18
71
223
233
195
198
166
137
103
-41
-185
-195
-195
-233
-198
-130
-122
-155
-198
-178
-52
-51
-290
-353
-53
48
-289
-453
-226
-108
-147
4
225
274
119
-226
-450
-246
75
301
641
697
-92
-1071
-1264
-884
-625
-564
-507
-447
-400
-362
-341
-297
-249
-267
-294
-256
-202
-134
-12
97
124
107
111
161
202
145
36
-23
-24
24
105
142
118
93
85
74
57
31
23
71
139
159
133
100
83
107
152
150
100
44
23
125
295
277
142
313
750
993
982
802
221
-512
-679
-376
-137
138
412
266
8
126
295
246
209
226
304
510
511
238
291
704
788
577
673
887
641
110
-236
-425
-565
-551
-460
-403
-247
-81
-147
-184
40
102
-193
-437
-449
-375
-303
-290
-248
-115
-129
-282
-274
-253
-381
-300
-24
-129
-583
-680
-168
418
452
-108
-690
-779
-496
-295
-318
-359
-260
-65
116
214
229
198
154
78
-26
-51
21
59
72
165
224
141
82
143
141
-1
-131
-169
-172
-180
-186
-147
-61
-62
-186
-238
-183
-193
-218
-148
-80
-6
113
85
-90
-140
-69
-53
-88
-164
-266
-267
-160
-34
237
804
1290
1008
59
-576
-465
-196
-111
103
430
470
287
216
231
185
155
203
267
307
304
248
241
385
554
567
488
460
452
420
418
397
235
28
-9
94
119
-15
-180
-252
-224
-115
44
106
-2
-73
13
29
-111
-161
-30
116
114
-98
-359
-457
-470
-469
-334
-30
430
743
267
-773
-1243
-929
-553
-302
-94
-124
-267
-247
-245
-350
-291
-143
-198
-294
-143
102
111
-116
-198
107
449
414
167
36
-1
-38
-63
-67
-51
-115
-314
-380
-157
7
-73
-80
76
78
-123
-235
-165
-74
-51
-51
-37
-32
-36
-28
-74
-199
-202
13
224
399
757
1030
665
-118
-555
-440
-151
15
50
91
186
195
80
27
43
-84
-269
-219
-43
19
46
107
186
347
453
352
268
320
303
215
203
185
65
-72
-91
93
306
241
22
1
65
-18
-101
-92
-108
-147
-153
-173
-207
-209
-203
-206
-204
-206
-201
-150
-23
272
662
641
-63
-819
-910
-511
-182
-68
-35
-10
15
38
62
86
97
96
109
136
157
184
221
255
288
327
340
316
286
262
214
143
82
34
-7
-29
-35
-43
-51
-50
-44
-28
-13
-23
-53
-66
-54
-48
-78
-124
-145
-145
-144
-138
-151
-173
-140
-39
232
758
997
303
-765
-1104
-726
-364
-228
-166
-141
-133
-114
-110
-99
-58
-28
-20
2
41
76
111
157
203
226
227
218
198
156
100
36
-22
-64
-94
-117
-128
-131
-133
-131
-128
-127
-123
-116
-117
-130
-133
-117
-108
-123
-139
-142
-147
-136
-109
-121
-130
-69
60
441
1084
1147
93
-990
-985
-423
-157
-110
-49
-32
-39
-6
16
19
43
74
95
127
165
197
242
296
332
353
361
343
313
284
234
164
111
78
45
19
11
4
-6
-10
-7
-5
-5
-2
-8
-25
-32
-13
-7
-39
-67
-75
-83
-76
-72
-103
-99
-19
164
623
1076
676
-490
-1144
-829
-360
-197
-132
-84
-88
-77
-55
-50
-33
-8
17
61
105
131
156
176
222
313
324
210
137
157
132
38
-34
-49
-44
-74
-124
-143
-152
-157
-119
-82
-91
-100
-92
-104
-139
-155
-113
-60
-84
-149
-149
-105
-79
-99
-152
-156
-110
33
617
1378
1091
-332
-1218
-857
-301
-168
-145
-104
-110
-108
-98
-78
-20
10
-6
13
64
107
164
210
210
227
273
253
196
198
193
102
19
-1
-28
-68
-71
-62
-76
-95
-98
-91
-89
-86
-88
-100
-86
-54
-69
-113
-117
-109
-147
-193
-174
-132
-149
-177
-186
-87
498
1338
1156
-247
-1147
-735
-202
-213
-197
-37
-82
-174
-75
25
6
38
135
125
58
125
249
271
325
453
402
216
214
331
326
260
213
130
62
72
80
39
16
31
42
37
-1
-81
-122
-76
-50
-102
-142
-129
-116
-132
-159
-158
-122
-118
-167
-168
-128
-206
-193
367
1029
706
-399
-967
-703
-328
-128
-38
-67
-106
-110
-143
-78
73
51
-48
29
92
-21
-28
165
262
214
232
288
245
177
171
147
74
25
12
-15
-54
-78
-95
-110
-118
-131
-149
-152
-144
-139
-124
-88
-50
-23
-19
-43
-63
-56
-32
1
7
-26
-12
109
334
618
648
107
-607
-785
-446
-98
41
18
-46
-16
59
49
1
1
30
61
79
73
85
130
169
196
219
226
227
240
232
177
104
48
4
-34
-59
-77
-107
-133
-135
-131
-146
-166
-172
-165
-158
-148
-133
-120
-122
-135
-145
-143
-126
-105
-99
-90
-56
-5
168
568
832
419
-423
-858
-654
-289
-95
-25
13
35
47
61
74
83
99
119
135
154
177
200
224
246
273
307
323
314
295
259
203
156
114
61
15
-7
-9
4
0
-25
-35
-34
-46
-55
-59
-69
-58
-26
-44
-125
-169
-139
-115
-124
-136
-149
-165
-164
7
508
899
426
-612
-1097
-806
-433
-300
-245
-207
-208
-208
-189
-169
-157
-145
-122
-90
-62
-35
8
64
110
138
151
153
154
160
151
116
79
64
58
48
43
37
32
36
45
47
39
32
43
54
37
25
56
70
37
19
15
-19
-33
-7
-12
-24
8
110
492
1064
997
-21
-930
-905
-459
-216
-121
-61
-62
-58
-14
8
16
53
84
89
115
166
193
221
288
338
334
328
322
275
224
210
188
114
26
7
36
0
-73
-69
-30
-39
-66
-76
-84
-87
-91
-87
-69
-91
-157
-166
-126
-146
-181
-161
-176
-219
-189
-79
322
1046
1168
112
-965
-972
-485
-273
-230
-175
-153
-150
-153
-148
-111
-93
-78
-8
38
19
39
105
141
166
200
198
164
144
131
100
48
-10
-43
-37
-42
-94
-136
-125
-102
-95
-87
-84
-88
-76
-70
-100
-116
-86
-74
-105
-116
-96
-92
-108
-134
-149
-129
-99
52
602
1188
828
-369
-1047
-759
-341
-211
-140
-100
-122
-93
-49
-68
-76
-39
-12
11
48
90
131
155
178
224
245
225
240
280
253
185
147
105
57
55
51
13
13
43
32
18
33
26
16
36
26
-11
5
48
33
-21
-40
-18
-4
-32
-64
-41
-4
74
464
1043
960
-42
-888
-819
-392
-189
-93
4
17
5
36
50
43
69
109
126
130
138
155
192
249
288
286
275
282
272
223
166
122
76
34
8
-9
-23
-32
-39
-45
-54
-65
-74
-80
-74
-63
-75
-92
-73
-75
-136
-177
-169
-167
-154
-154
-218
-233
-176
-72
399
1096
903
-362
-1206
-932
-455
-317
-245
-200
-254
-249
-181
-173
-182
-131
-68
-71
-104
-73
14
69
79
85
77
52
48
60
39
-17
-69
-105
-140
-172
-179
-170
-169
-163
-139
-132
-143
-124
-90
-90
-107
-98
-74
-55
-30
-5
-11
-35
-27
-4
-3
1
14
19
43
151
517
1123
1228
265
-859
-993
-468
-123
1
91
99
89
136
163
167
200
217
204
244
330
357
320
331
412
448
430
476
534
432
293
325
361
218
102
132
124
45
36
65
30
-25
-40
-51
-85
-116
-134
-158
-186
-207
-219
-228
-241
-276
-326
-344
-307
-278
-294
-293
-256
-79
490
1057
658
-518
-1119
-798
-404
-294
-229
-168
-155
-142
-143
-151
-121
-89
-86
-79
-58
-36
-8
26
56
67
61
49
46
56
59
39
