# session 11
-303
-436
-66
-300
-1833
-3188
-3188
-2773
-2745
-2689
-2519
-2479
-2397
-2237
-2169
-2095
-1955
-1880
-1833
-1758
-1754
-1757
-1636
-1555
-1618
-1578
-1412
-1406
-1507
-1481
-1405
-1398
-1380
-1310
-1177
-951
-753
-688
-586
-332
-179
-276
-372
-333
-285
-200
-72
-90
-78
335
1049
1812
2317
1994
1045
593
910
1241
1325
1356
1278
1132
1121
1157
1133
1165
1214
1292
1794
2539
2544
1721
1111
1052
1020
866
728
544
337
230
177
127
129
140
93
37
9
-38
-121
-205
-273
-327
-346
-337
-352
-366
-303
-204
-155
-133
-117
-117
-95
-87
-161
-235
-221
30
722
1376
974
-403
-1416
-1368
-847
-486
-358
-392
-502
-527
-459
-435
-436
-361
-281
-295
-322
-272
-183
-79
74
244
373
483
571
566
457
310
179
73
3
-7
14
3
-19
4
27
4
-4
23
21
0
15
30
19
26
40
-5
-77
-87
-50
-34
-12
45
136
458
1081
1298
457
-678
-903
-435
-208
-279
-270
-250
-299
-321
-414
-590
-616
-497
-396
-282
-149
-57
-6
-59
-148
-18
212
194
46
39
39
-92
-174
-121
-84
-128
-169
-174
-162
-129
-97
-97
-98
-70
-44
-64
-108
-113
-85
-87
-100
-76
-65
-100
-149
-222
-293
-251
23
561
970
568
-484
-1112
-902
-482
-266
-111
29
58
35
51
105
197
316
388
392
391
412
452
519
588
614
599
578
565
534
461
378
311
249
199
178
172
163
148
111
41
-75
-211
-254
-195
-220
-355
-417
-387
-383
-403
-389
-339
-280
-249
-196
-74
17
257
1029
1712
1079
-454
-1178
-783
-338
-226
-106
38
72
61
16
-66
-45
96
172
144
143
176
169
167
228
291
300
260
163
29
-76
-129
-177
-257
-321
-299
-228
-192
-180
-146
-96
-60
-78
-133
-134
-112
-171
-215
-138
-80
-121
-141
-113
-109
-127
-145
-146
-74
176
635
874
315
-703
-1160
-851
-430
-245
-180
-162
-170
-124
-4
109
160
198
216
115
-29
-8
143
216
194
197
231
235
222
231
227
176
107
29
-46
-65
-47
-71
-107
-94
-63
-31
3
15
45
135
191
138
68
64
68
34
18
43
31
-23
-23
221
854
1377
912
-296
-981
-741
-270
-7
121
176
184
196
202
185
206
297
346
280
204
185
160
141
176
211
193
134
62
6
-45
-116
-177
-220
-270
-310
-341
-392
-414
-369
-311
-276
-223
-129
-64
-105
-175
-126
-46
-92
-144
-55
60
45
-56
-78
32
276
809
1300
737
-803
-1746
-1477
-959
-747
-625
-553
-542
-440
-265
-147
-102
-57
30
102
92
85
192
336
369
347
387
415
350
282
245
183
132
86
-24
-112
-81
-29
-30
-21
7
2
-28
-58
-86
-116
-153
-191
-197
-175
-172
-158
-62
30
-20
-93
-54
11
374
1358
1988
1038
-559
-1008
-471
-81
44
126
76
26
84
60
-22
4
47
47
85
139
204
356
508
542
550
592
559
491
552
650
582
422
312
197
49
-59
-132
-199
-239
-258
-269
-269
-283
-293
-257
-225
-253
-294
-312
-327
-307
-269
-292
-300
-226
-174
62
744
1151
443
-659
-956
-606
-325
-207
-125
-76
-36
-46
-125
-159
-146
-196
-293
-348
-344
-268
-130
-4
67
93
68
25
35
68
38
-15
-1
19
-52
-126
-125
-129
-157
-145
-140
-160
-133
-86
-75
-42
19
11
-59
-113
-144
-168
-204
-270
-289
-194
-8
413
1034
1071
83
-947
-1052
-597
-235
-70
-102
-246
-273
-247
-336
-372
-279
-280
-348
-276
-147
-101
-43
95
267
456
588
572
517
515
464
377
364
358
307
311
350
358
390
424
386
348
371
368
298
235
185
117
73
32
-54
-63
18
-29
-130
-25
186
515
1145
1393
468
-796
-1080
-575
-191
-121
-134
-149
-161
-151
-121
-94
-73
-20
65
136
186
233
289
341
337
275
250
276
260
199
167
153
146
198
275
303
335
432
546
643
716
694
557
390
232
86
-35
-118
-110
-47
-142
-382
-508
-513
-489
-393
-325
-161
520
1143
476
-1029
-1731
-1415
-944
-560
-254
-235
-373
-412
-411
-410
-320
-206
-193
-238
-212
-115
-80
-124
-145
-171
-268
-363
-451
-597
-724
-761
-783
-814
-829
-860
-882
-832
-726
-593
-458
-415
-493
-556
-546
-578
-662
-703
-719
-728
-676
-602
-554
-486
-442
-485
-483
-299
29
374
341
-540
-1642
-1490
-192
593
644
942
1153
761
729
1513
2098
2088
2174
2419
2189
1536
1016
679
392
264
238
307
675
995
759
467
733
1040
868
775
1167
1407
1050
569
290
23
-251
-443
-475
-147
286
297
123
251
521
666
637
468
426
540
421
279
766
1463
1213
1
-943
-888
-375
-172
-265
-269
-195
-279
-476
-581
-589
-613
-636
-603
-559
-541
-535
-550
-562
-517
-462
-455
-398
-169
115
180
8
-121
-121
-200
-369
-428
-373
-345
-348
-291
-202
-195
-225
-160
-57
17
73
-43
-333
-431
-330
-410
-535
-389
-257
-271
48
554
251
-902
-1615
-1299
-764
-630
-649
-568
-439
-365
-416
-480
-375
-250
-299
-293
-87
15
-70
-71
36
160
353
470
338
164
117
97
90
102
28
-98
-155
-159
-139
-86
-33
3
38
87
161
228
260
301
350
340
293
276
272
245
227
275
375
556
1049
1677
1498
271
-715
-590
-81
92
132
213
221
199
218
223
229
273
305
331
399
463
482
507
504
362
150
57
54
-58
-260
-343
-303
-321
-423
-476
-423
-290
-120
4
19
-15
-14
-29
-81
-57
-10
-93
-132
68
228
95
-67
-59
-77
-156
-112
139
730
1437
1340
256
-630
-660
-417
-279
-145
-116
-227
-298
-317
-310
-208
-121
-194
-293
-268
-194
-133
-52
17
35
46
52
23
12
38
35
-13
-73
-137
-168
-147
-136
-151
-119
-70
-119
-238
-285
-248
-214
-188
-140
-85
-29
26
74
144
231
259
235
304
649
1298
1736
1241
92
-576
-465
-276
-298
-290
-277
-351
-342
-212
-142
-167
-189
-214
-287
-297
-91
199
249
40
-146
-191
-234
-335
-371
-295
-263
-367
-489
-519
-483
-429
-378
-347
-363
-405
-349
-111
145
219
164
87
45
236
664
862
696
600
641
563
506
655
1000
1567
1840
1030
-346
-949
-641
-248
-95
-74
-130
-161
-139
-165
-196
-147
-103
-135
-192
-226
-260
-275
-87
350
656
555
318
282
336
222
81
273
702
922
841
651
449
324
281
142
-109
-317
-478
-619
-693
-731
-777
-780
-727
-663
-584
-528
-571
-593
-483
-269
397
1549
1750
127
-1533
-1567
-890
-655
-631
-633
-805
-888
-737
-632
-678
-728
-729
-725
-733
-727
-686
-633
-588
-527
-470
-456
-440
-364
-282
-280
-322
-282
-129
6
36
35
109
213
229
251
488
782
785
628
750
1138
1400
1493
1672
1823
1654
1317
1123
1044
971
1048
1450
1853
1512
454
-226
-16
366
413
376
372
282
175
104
25
18
63
-29
-201
-251
-227
-239
-232
-185
-183
-229
-259
-272
-297
-333
-348
-332
-345
-392
-360
-254
-217
-213
-126
-51
-62
-20
66
19
-105
-111
-52
-85
-172
-210
-217
-255
-331
-427
-523
-502
-162
343
350
-386
-1121
-1146
-707
-415
-381
-323
-189
-149
-99
122
266
155
59
107
113
39
11
48
92
111
130
186
220
182
157
172
147
87
59
31
-45
-104
-65
16
38
35
63
52
-5
-12
-4
-89
-239
-389
-515
-581
-657
-801
-828
-660
-399
184
979
886
-374
-1300
-985
-283
30
85
132
233
319
260
158
180
153
-53
-100
158
272
78
-45
24
242
542
441
-37
-7
428
267
-268
-349
-218
-320
-428
-392
-360
-360
-353
-352
-357
-380
-406
-375
-320
-321
-357
-391
-422
-404
-342
-308
-277
-222
-153
174
931
1521
1262
561
228
329
660
1194
1575
1423
1016
770
678
674
780
882
870
811
765
694
718
977
1180
1006
784
818
743
384
150
131
8
-205
-300
-320
-371
-434
-490
-547
-597
-646
-707
-722
-633
-538
-573
-651
-623
-559
-554
-597
-679
-689
-524
-345
-140
344
635
-30
-1107
-1449
-1093
-707
-435
-276
-330
-428
-424
-447
-432
-87
449
661
488
355
384
332
190
145
163
107
4
-47
-16
48
85
102
126
116
29
-82
-117
-58
17
45
35
3
-36
-72
-105
-135
-176
-197
-127
-31
-35
-66
22
140
237
619
1252
1236
156
-950
-1119
-726
-449
-334
-267
-318
-431
-422
-296
-227
-252
-249
-181
-125
-111
-102
-78
-22
44
45
66
225
306
177
154
254
152
35
141
128
-54
0
176
145
147
384
508
301
70
84
196
211
176
140
63
-11
-6
63
120
188
563
1286
1457
348
-1057
-1296
-548
8
34
-39
-44
-75
-103
-122
-181
-197
-109
-33
-14
30
100
151
201
244
259
266
272
275
294
309
312
359
433
436
360
296
279
263
248
284
322
238
34
-155
-257
-315
-384
-490
-615
-681
-637
-573
-546
-470
-347
-111
493
1044
557
-687
-1288
-955
-477
-164
23
28
11
82
27
-135
-128
6
17
-41
16
100
84
76
118
106
57
41
18
-28
-79
-153
-241
-302
-337
-322
-227
-102
-22
11
33
52
53
47
42
18
13
111
238
225
129
112
97
19
51
206
441
1032
1679
1248
-235
-1188
-984
-517
-311
-173
-67
-44
-15
28
33
19
20
12
-30
-53
-16
13
3
31
77
21
-130
-254
-315
-369
-408
-401
-401
-385
-246
-71
-3
80
238
290
251
305
406
462
490
445
354
348
368
311
252
234
238
268
297
575
1321
1695
759
-642
-1096
-753
-494
-484
-543
-617
-676
-698
-693
-719
-764
-642
-478
-700
-1063
-915
-431
-155
-33
76
62
38
148
237
216
199
199
187
215
260
262
271
302
290
260
255
226
162
145
197
252
300
364
379
332
319
292
197
224
485
923
1453
1530
611
-587
-907
-523
-266
-242
-238
-281
-316
-230
-128
-108
-86
-62
-180
-363
-353
-183
-91
-76
-4
121
221
244
204
187
210
175
54
-42
-31
8
-24
-72
-47
1
-12
-46
-46
-55
-106
-154
-198
-291
-387
-410
-417
-469
-495
-445
-386
-261
201
873
896
-113
-1135
-1184
-670
-343
-227
-145
-105
-82
-74
-88
-13
127
179
199
270
251
128
96
157
157
92
70
112
142
164
266
369
316
181
112
104
165
263
239
119
78
49
-33
-24
29
-71
-234
-291
-327
-382
-345
-263
-228
-158
-31
230
863
1406
865
-455
-1102
-726
-215
-29
47
150
170
78
61
193
271
239
269
309
229
182
236
202
115
153
245
260
221
180
163
166
146
70
-50
-93
2
28
-113
-143
-3
-27
-236
-281
-122
-54
-163
-254
-242
-238
-299
-362
-349
-222
-65
82
405
783
545
-400
-1104
-1016
-639
-409
-248
-121
-65
-12
44
38
6
40
133
163
107
86
126
132
85
42
33
62
105
126
115
71
-1
-65
-81
-69
-88
-132
-129
-87
-66
-60
-62
-67
-20
50
60
79
166
193
151
173
234
257
255
354
880
1643
1528
223
-880
-855
-389
-147
-37
11
-79
-271
-511
-710
-784
-800
-814
-770
-682
-622
-568
-463
-310
-157
-24
114
234
265
214
156
121
94
87
122
180
224
240
240
264
330
376
394
453
514
503
465
421
351
342
385
354
327
388
465
739
1225
1144
143
-777
-806
-376
-67
66
77
30
38
78
61
37
65
68
8
-8
80
181
233
271
313
323
283
205
102
4
-73
-149
-217
-233
-202
-160
-123
-117
-132
-116
-83
-105
-168
-198
-203
-246
-311
-342
-346
-345
-303
-264
-306
-340
-313
-266
-48
182
-337
-1616
-2461
-2293
-1795
-1524
-1389
-1280
-1202
-1128
-1044
-938
-791
-618
-436
-258
-112
11
141
269
377
480
594
682
736
825
950
1008
1002
1020
1059
1072
1056
1004
922
842
776
715
661
615
576
525
439
337
241
150
95
59
16
52
179
407
1014
1743
1454
56
-887
-645
-134
43
120
182
153
124
132
122
102
96
77
36
13
30
52
52
56
63
44
16
20
47
62
47
7
-37
-67
-78
-50
10
53
65
84
122
134
94
33
-15
-56
-104
-161
-216
-265
-340
-428
-427
-360
-263
181
920
870
-400
-1517
-1454
-926
-709
-663
-606
-596
-583
-529
-487
-472
-441
-370
-315
-333
-340
-262
-191
-175
-126
-47
-15
4
58
94
70
27
26
62
77
65
78
109
114
114
132
141
136
146
159
151
139
135
130
142
149
115
102
131
213
645
1360
1326
141
-895
-819
-323
-131
-97
-58
-70
-87
-78
-78
-76
-64
-51
-33
-15
-3
13
38
72
108
127
139
173
212
222
208
185
143
95
75
73
51
25
16
2
-21
-37
-46
-47
-43
-51
-55
-58
-97
-122
-94
-109
-152
-99
44
455
1202
1350
177
-1132
-1235
-659
-342
-224
-103
-81
-116
-98
-41
6
8
-33
-56
-37
6
60
93
97
117
166
215
265
314
333
329
316
280
233
231
261
246
188
194
267
236
104
105
206
144
27
115
215
100
3
80
96
13
36
120
378
1147
1725
885
-770
-1445
-961
-463
-352
-324
-282
-280
-312
-342
-313
-258
-270
-301
-247
-166
-148
-151
-128
-107
-94
-66
-46
-44
-43
-54
-91
-137
-171
-189
-197
-202
-196
-183
-188
-207
-211
-207
-211
-206
-187
-182
-175
-156
-167
-177
-133
-115
-130
-111
-90
266
1281
1847
719
-903
-1157
-505
-191
-159
-70
-52
-86
-64
-51
-59
-37
-6
3
12
42
83
116
148
192
230
255
285
306
294
269
252
221
179
157
147
119
85
69
66
68
62
42
29
40
46
27
5
-12
-19
-11
-14
-27
-13
9
220
870
1308
556
-749
-1103
-566
-186
-119
-63
-38
