# session 17
-77
-90
-79
-70
-120
-203
-232
-211
-200
-194
-177
-168
-167
-149
-123
-121
-136
-141
-132
-117
-92
-82
-93
-78
-20
207
748
1093
474
-658
-1081
-683
-267
-112
-39
-21
-39
-20
12
35
63
73
74
104
146
175
204
246
290
321
337
349
369
380
362
322
280
238
196
165
145
129
117
113
119
127
115
89
84
98
94
84
92
91
78
85
90
67
45
24
-21
-27
38
51
-32
-50
48
245
678
1046
553
-621
-1232
-909
-436
-254
-201
-174
-163
-133
-100
-93
-102
-97
-66
-28
-1
31
72
98
111
137
177
201
189
159
143
123
48
-51
-87
-75
-100
-134
-110
-80
-102
-118
-89
-89
-136
-152
-119
-100
-103
-99
-101
-113
-106
-87
-91
-123
-150
-141
-102
-89
-130
-138
-81
1
331
1000
1179
196
-958
-1043
-464
-171
-177
-158
-108
-73
-51
-57
-59
-26
2
3
8
33
71
110
126
120
132
149
124
87
79
64
18
-32
-83
-132
-145
-122
-113
-132
-143
-123
-95
-93
-104
-100
-102
-119
-96
-43
-26
-33
-27
-25
-19
4
11
-5
-22
-25
1
26
3
-11
35
197
669
1198
914
-233
-1014
-796
-291
-82
-22
30
40
43
71
94
99
106
127
143
147
176
235
275
294
319
328
309
303
310
299
256
175
95
79
88
43
-5
7
20
-8
-23
-21
-40
-55
-50
-60
-81
-81
-77
-78
-76
-91
-100
-63
-40
-81
-121
-124
-117
-106
-106
-109
-85
31
449
1051
977
-115
-1118
-1102
-576
-273
-185
-132
-107
-114
-129
-110
-60
-48
-59
-9
53
57
70
133
173
179
208
229
199
156
140
117
55
-11
-48
-70
-85
-84
-85
-92
-90
-89
-95
-88
-82
-92
-94
-83
-87
-94
-88
-90
-99
-75
-40
-55
-91
-88
-78
-79
-59
-59
-79
-47
38
366
1082
1378
415
-882
-1091
-523
-195
-152
-90
-55
-69
-51
-21
-9
-4
7
39
85
110
125
169
221
241
237
234
237
237
217
175
129
78
23
-16
-35
-48
-52
-54
-74
-83
-63
-61
-95
-115
-101
-94
-106
-114
-101
-82
-85
-104
-102
-78
-89
-124
-122
-103
-110
-117
-117
-108
-70
28
421
1109
1189
102
-1041
-1112
-593
-281
-164
-92
-86
-82
-49
-30
-14
0
15
59
103
115
139
191
234
256
263
261
267
268
237
195
168
124
56
15
7
2
-2
-5
-18
-24
-17
-18
-27
-28
-28
-35
-47
-57
-50
-41
-55
-65
-49
-48
-68
-66
-68
-93
-78
-52
-81
-71
11
174
683
1287
923
-425
-1244
-912
-373
-197
-124
-53
-58
-67
-43
-34
-28
4
40
59
75
110
154
193
233
266
265
233
204
192
173
127
61
6
-28
-59
-88
-96
-87
-85
-97
-104
-99
-100
-114
-118
-110
-114
-130
-130
-109
-102
-120
-112
-73
-74
-112
-117
-104
-107
-94
-90
-101
-64
-27
185
968
1651
905
-699
-1264
-684
-240
-197
-135
-78
-99
-81
-33
-20
-26
-28
-4
47
82
101
148
208
235
235
230
219
214
215
188
128
71
28
-12
-39
-50
-55
-58
-59
-59
-64
-77
-79
-70
-84
-108
-93
-70
-92
-106
-70
-60
-94
-88
-47
-54
-87
-92
-103
-109
-77
-72
-90
-51
70
450
1075
1103
25
-1083
-1134
-591
-249
-132
-67
-39
-26
-39
-54
-5
46
36
39
87
120
141
173
198
222
251
260
248
250
256
231
173
112
60
18
-8
-20
-29
-36
-34
-36
-48
-54
-47
-54
-80
-89
-72
-64
-63
-48
-52
-83
-85
-62
-75
-96
-84
-75
-75
-75
-100
-101
-28
163
647
1173
858
-343
-1168
-983
-487
-226
-107
-56
-59
-37
-13
-21
-6
31
58
85
107
113
147
218
261
255
262
283
267
227
202
167
103
34
-16
-39
-43
-46
-55
-56
-56
-67
-62
-37
-37
-77
-100
-84
-81
-108
-121
-116
-123
-111
-74
-78
-121
-129
-114
-125
-128
-132
-155
-131
-91
99
864
1673
1088
-582
-1317
-744
-231
-193
-147
-72
-77
-64
-46
-53
-24
19
34
46
75
110
147
181
206
219
215
187
151
125
102
65
16
-23
-45
-59
-71
-77
-76
-76
-72
-67
-73
-83
-77
-62
-66
-88
-101
-93
-76
-73
-74
-46
-12
-19
-40
-43
-51
-48
-24
-37
-55
-37
-1
383
1301
1656
489
-931
-1016
-360
-103
-119
-55
-25
-46
-29
-22
-34
-26
-12
2
28
58
90
126
159
184
193
179
160
157
148
112
60
8
-35
-63
-79
-95
-109
-116
-119
-124
-130
-136
-139
-144
-154
-161
-162
-163
-160
-150
-144
-140
-119
-97
-106
-125
-125
-124
-125
-110
-107
-123
-113
-75
118
631
968
375
-700
-1067
-649
-252
-137
-88
-54
-53
-42
-17
4
22
43
70
99
127
155
185
219
255
284
313
344
349
327
299
253
193
151
118
77
51
46
33
9
-7
-5
4
-3
-18
-19
-15
-26
-34
-18
-5
-14
-28
-26
-23
-30
-41
-47
-44
-32
-34
-57
-37
59
260
648
949
555
-426
-1036
-876
-469
-211
-70
-8
7
35
51
40
65
114
127
135
178
214
222
241
277
310
341
373
388
363
293
202
110
30
-19
-32
-50
-92
-124
-130
-136
-151
-159
-160
-170
-188
-197
-202
-206
-206
-216
-241
-241
-205
-183
-208
-232
-219
-205
-214
-216
-212
-201
-161
-69
253
842
988
106
-947
-1045
-512
-209
-177
-145
-122
-121
-97
-87
-105
-94
-36
19
32
37
83
134
133
128
181
239
233
200
175
132
66
23
2
-27
-48
-34
-26
-49
-60
-54
-65
-71
-54
-48
-53
-46
-51
-63
-44
-18
-25
-26
-1
9
-2
-6
-17
-35
-23
-7
-10
18
79
233
651
1018
594
-452
-998
-695
-257
-89
-12
56
71
77
100
112
119
133
152
183
229
270
286
302
346
382
377
363
365
362
346
301
222
157
126
82
31
32
69
65
3
-45
-31
12
22
-3
-30
-50
-78
-93
-76
-51
-45
-68
-130
-186
-168
-131
-157
-174
-164
-212
-229
-147
-28
318
826
650
-418
-1208
-1030
-545
-324
-264
-234
-224
-202
-172
-147
-116
-85
-47
0
36
60
92
130
165
198
218
211
194
180
141
80
46
20
-50
-118
-124
-109
-110
-104
-111
-135
-121
-98
-123
-122
-84
-92
-96
-34
-16
-71
-70
-13
-25
-119
-172
-125
-80
-93
-90
-63
-73
-68
125
583
966
655
-299
-947
-762
-303
-119
-80
-2
46
54
71
75
74
109
145
150
186
257
282
275
318
366
362
358
386
395
363
317
278
226
144
88
100
109
72
65
101
93
55
50
37
-9
-35
-44
-73
-107
-132
-138
-110
-100
-148
-168
-119
-120
-189
-175
-96
-116
-164
-92
87
432
817
617
-293
-973
-829
-412
-249
-200
-123
-112
-166
-187
-148
-102
-91
-89
-68
-52
-47
-29
15
74
108
93
93
146
164
112
88
102
60
-25
-61
-56
-78
-114
-112
-91
-98
-118
-111
-104
-120
-127
-113
-106
-109
-119
-132
-117
-77
-59
-64
-80
-118
-137
-88
-33
-39
-52
-8
154
569
1032
857
-106
-913
-835
-324
-52
-14
16
54
74
97
110
108
119
148
174
188
209
248
286
309
333
358
361
348
343
328
283
224
168
110
60
36
26
15
11
7
-17
-31
-11
8
-1
-21
-36
-48
-53
-55
-57
-46
-25
-32
-69
-84
-73
-91
-114
-100
-98
-101
-70
-6
288
815
809
-144
-1059
-1038
-547
-263
-170
-127
-133
-131
-103
-91
-85
-68
-53
-35
-7
23
49
82
128
168
182
177
174
170
151
113
64
14
-31
-62
-76
-88
-101
-99
-93
-106
-122
-124
-129
-140
-138
-134
-133
-127
-118
-117
-112
-104
-106
-110
-111
-123
-137
-122
-101
-109
-107
-63
50
375
820
763
-59
-867
-911
-482
-180
-72
-9
19
25
49
74
87
102
114
126
152
185
214
241
262
280
302
309
297
291
276
227
163
112
70
36
15
-3
-18
-19
-20
-29
-30
-22
-27
-37
-37
-39
-44
-38
-42
-61
-60
-38
-35
-57
-69
-71
-76
-68
-53
-71
-73
-18
115
496
990
820
-215
-1046
-941
-458
-199
-106
-53
-47
-40
-13
-2
5
29
52
71
94
125
160
200
241
271
280
270
249
216
175
129
77
20
-28
-61
-81
-89
-88
-85
-83
-77
-70
-67
-69
-72
-75
-80
-84
-82
-83
-91
-84
-58
-52
-77
-92
-93
-102
-96
-81
-101
-103
-62
67
574
1274
1091
-185
-1108
-868
-328
-169
-143
-90
-88
-88
-61
-53
-47
-25
-3
16
37
67
105
143
177
207
217
204
185
162
123
78
39
1
-44
-82
-101
-107
-105
-93
-82
-78
-72
-69
-73
-73
-69
-72
-83
-86
-83
-90
-90
-71
-60
-65
-62
-66
-97
-117
-90
-66
-87
-88
-34
94
464
957
837
-139
-996
-957
-478
-196
-104
-48
-29
-25
-8
10
31
55
69
86
118
149
170
201
247
280
281
271
265
253
229
197
150
92
40
-2
-31
-44
-49
-54
-55
-49
-41
-39
-44
-55
-62
-65
-69
-80
-87
-80
-71
-79
-82
-59
-46
-65
-82
-85
-91
-83
-66
-85
-88
-22
111
488
1027
911
-162
-1072
-968
-450
-198
-116
-52
-48
-54
-30
-15
-3
22
47
69
98
129
162
202
242
271
284
279
258
233
208
171
122
70
24
-13
-36
-44
-44
-43
-40
-38
-38
-39
-41
-45
-51
-58
-66
-72
-74
-73
-72
-78
-84
-69
-50
-61
-82
-85
-91
-95
-78
-81
-99
-67
19
336
1008
1286
381
-856
-1076
-530
-191
-138
-86
-58
-67
-46
-25
-22
-5
21
43
66
92
124
164
200
229
248
248
232
211
185
150
108
62
11
-35
-64
-76
-77
-73
-71
-70
-71
-74
-79
-84
-90
-96
-103
-111
-116
-118
-122
-122
-116
-111
-106
-89
-76
-89
-109
-112
-117
-119
-104
-108
-125
-96
-8
275
812
979
181
-868
-1072
-601
-246
-153
-111
-90
-91
-78
-62
-48
-29
-11
10
40
69
97
124
148
175
201
212
215
215
210
200
173
122
65
22
-2
-11
-11
-10
-14
-18
-18
-22
-33
-33
-21
-21
-29
-31
-38
-49
-50
-43
-34
-24
-26
-32
-19
-2
-10
-22
-14
-19
-44
-35
-15
-34
-11
113
345
759
1053
563
-512
-1082
-810
-363
-147
-51
-8
-8
6
33
47
60
76
94
117
143
168
196
227
258
288
302
296
287
277
250
202
146
89
36
-2
-18
-26
-39
-53
-56
-52
-55
-61
-60
-61
-71
-79
-81
-87
-98
-101
-98
-99
-98
-93
-94
-102
-93
-70
-71
-93
-97
-91
-96
-85
-80
-107
-81
18
213
685
1121
656
-546
-1168
-810
-333
-179
-121
-75
-78
-71
-48
-38
-21
2
21
42
67
95
130
167
198
225
236
225
201
175
146
109
65
18
-28
-64
-85
-91
-90
-87
-84
-83
-82
-81
-79
-80
-82
-90
-97
-100
-104
-107
-103
-101
-106
-106
-97
-91
-80
-62
-57
-73
-84
-84
-89
-84
-70
-80
-87
-47
60
402
935
940
15
-933
-973
-478
-176
-104
-60
-42
-47
-34
-12
3
19
42
67
90
108
129
167
211
238
252
267
267
246
224
201
165
127
88
38
-8
-24
-20
-22
-29
-28
-20
-19
-30
-37
-35
-42
-55
-55
-49
-54
-62
-59
-59
-67
-64
-54
-53
-45
-15
-1
-28
-58
-64
-66
-60
-37
-49
-76
-10
138
396
855
1045
329
-764
-1114
-712
-312
-154
-79
-45
-38
-16
5
15
33
53
66
86
118
147
180
224
259
277
295
302
281
252
227
187
130
71
18
-20
-41
-52
-59
-61
-63
-66
-66
-64
-65
-69
-71
-77
-88
-91
-88
-91
-96
-92
-92
-95
-89
-79
-77
-67
-48
-48
-67
-72
-71
-83
-73
-55
-79
-70
19
171
571
1098
893
-249
-1110
-927
-403
-178
-110
-56
-52
-49
-25
-12
2
26
45
66
94
120
150
189
228
264
287
287
266
235
195
151
105
55
5
-35
-63
-78
-80
-78
-78
-76
-70
-67
-65
-66
-70
-75
-80
-86
-95
-102
-107
-112
-113
-114
-114
-110
-107
-103
-86
-66
-70
-90
-98
-101
-108
-96
-89
-109
-96
-32
127
570
1033
700
-393
-1070
-815
-335
-150
-105
-66
-60
-56
-39
-28
-17
3
26
53
78
102
134
171
199
226
257
269
255
234
211
177
133
86
37
-9
-41
-55
-60
-61
-56
-55
-60
-53
-45
-57
-66
-53
-56
-82
-90
-81
-92
-102
-87
-82
-98
-96
-75
-68
-72
-60
-45
-51
-66
-68
-73
-79
-62
-59
-80
-29
111
355
809
1087
483
-658
-1148
-775
-326
-155
-75
-19
-13
-11
9
28
42
60
90
123
148
176
212
253
301
342
353
348
343
322
283
243
194
133
80
39
3
-13
-11
-12
-14
-7
-4
-5
0
4
-1
-8
-13
-21
-28
-25
-21
-27
-25
-1
9
-10
-13
-2
-22
-49
-33
-11
-14
-8
-10
-47
-71
-83
-107
-85
16
251
708
964
351
-722
-1117
-721
-323
-207
-160
-124
-125
-115
-92
-81
-68
-46
-21
3
22
45
81
120
152
182
202
202
189
167
124
75
39
5
-44
-92
-117
-126
-135
-142
-134
-118
-111
-106
-96
-91
-95
-95
-89
-83
-82
-85
-87
-85
-82
-84
-91
-88
-75
-63
-58
-62
-66
-52
-22
-14
-33
-45
-50
-64
-58
-40
-51
-49
12
147
508
990
879
-91
-963
-932
-444
-165
-90
-34
-3
0
10
23
35
48
62
89
124
148
169
204
245
281
316
341
335
303
267
228
180
129
82
32
-23
-59
-67
-69
-75
-67
-53
-55
-64
-59
-54
-60
-66
-66
-65
-67
-71
-75
-76
-69
-60
-51
