# session 2
4
-8
-3
59
83
-10
-81
-50
-51
-111
-104
-73
-110
-133
-122
116
1115
2336
2028
198
-954
-656
-211
-190
-156
-88
-112
-90
-27
-17
-6
27
46
67
91
85
83
117
149
154
166
196
223
235
246
268
282
262
223
193
172
141
90
25
-30
-75
-123
-152
-157
-165
-172
-159
-150
-159
-166
-160
-155
-155
-156
-159
-162
-162
-162
-175
-185
-178
-168
-169
-168
-161
-158
-157
-152
-140
-122
-109
-102
-93
-94
-119
-141
-141
-135
-132
-120
-111
-129
-128
-68
24
314
971
1370
653
-623
-1088
-651
-233
-125
-74
-30
-26
-15
-3
-1
9
12
8
14
18
25
51
78
89
112
150
173
175
181
202
208
185
166
170
177
183
197
197
167
128
93
55
19
-10
-33
-46
-54
-65
-80
-91
-90
-81
-75
-73
-71
-78
-90
-91
-88
-93
-98
-102
-98
-79
-70
-83
-79
-62
-69
-82
-87
-95
-97
-95
-87
-57
-55
-81
-29
96
367
997
1492
913
-362
-960
-642
-233
-73
4
36
27
35
54
60
66
74
76
74
80
99
118
130
145
168
182
185
188
194
200
203
200
191
179
165
153
142
108
48
-14
-67
-109
-135
-153
-172
-183
-184
-190
-201
-204
-200
-199
-205
-210
-206
-202
-206
-210
-203
-196
-193
-190
-188
-185
-177
-176
-187
-184
-165
-155
-164
-179
-178
-159
-165
-180
-153
-140
-166
-140
-39
349
1269
1846
875
-797
-1307
-721
-280
-191
-107
-66
-90
-72
-43
-34
-12
12
22
41
66
82
98
121
146
171
195
219
238
256
278
297
309
313
310
301
284
250
199
141
78
14
-28
-46
-61
-80
-86
-71
-63
-73
-79
-79
-95
-109
-105
-106
-120
-120
-114
-128
-147
-156
-162
-159
-137
-119
-121
-115
-85
-62
-69
-84
-79
-57
-65
-87
-48
-22
-85
-88
-12
179
1012
2185
1970
145
-1090
-777
-238
-180
-154
-75
-87
-81
-49
-59
-48
-7
12
28
59
70
66
87
122
134
129
136
148
152
162
182
192
184
179
182
182
170
139
90
34
-18
-62
-91
-109
-126
-143
-149
-147
-147
-153
-160
-165
-173
-176
-173
-178
-192
-194
-186
-184
-183
-184
-199
-203
-186
-188
-201
-175
-135
-132
-151
-172
-190
-188
-178
-169
-150
-140
-144
-123
-2
407
1044
1148
208
-912
-1123
-649
-275
-155
-102
-76
-69
-49
-31
-23
-9
12
28
30
34
56
78
86
103
140
174
193
216
250
284
305
304
282
265
270
272
248
214
184
147
100
61
44
42
31
9
-4
-2
-4
-6
6
7
-18
-36
-33
-42
-64
-73
-73
-82
-84
-77
-78
-80
-76
-72
-59
-35
-29
-57
-87
-90
-74
-71
-74
-61
-66
-85
-42
64
314
863
1258
713
-434
-973
-648
-209
-54
-25
-5
15
39
42
23
14
18
18
21
29
37
50
64
72
84
100
105
110
128
140
137
134
134
134
140
149
154
156
145
107
53
14
-6
-30
-64
-85
-84
-85
-102
-116
-121
-129
-147
-162
-168
-168
-170
-173
-176
-178
-171
-159
-156
-156
-148
-137
-134
-142
-160
-166
-156
-160
-162
-151
-167
-167
-96
43
435
1058
1113
123
-946
-1083
-629
-298
-165
-98
-82
-73
-51
-47
-43
-26
-15
-7
11
24
27
45
75
102
133
168
190
205
228
251
258
252
250
251
248
242
231
200
151
101
58
31
20
5
-18
-21
-6
-8
-22
-25
-22
-23
-22
-22
-30
-41
-47
-48
-44
-40
-46
-59
-64
-57
-42
-23
-16
-30
-58
-80
-88
-94
-102
-94
-85
-111
-118
-67
55
468
1105
1101
45
-976
-986
-477
-194
-123
-76
-57
-47
-33
-37
-35
-16
-5
3
20
25
22
35
58
77
93
115
136
155
175
188
188
188
199
205
194
183
173
151
116
69
11
-31
-44
-51
-59
-60
-61
-66
-65
-59
-53
-47
-45
-41
-34
-39
-56
-66
-67
-76
-81
-72
-68
-73
-65
-48
-53
-83
-106
-105
-103
-112
-105
-94
-119
-127
-68
74
500
1141
1157
124
-934
-1027
-548
-225
-122
-78
-64
-51
-28
-18
-19
-16
-8
8
22
33
48
73
100
117
123
127
133
150
170
172
161
164
170
153
134
138
144
113
50
-10
-56
-97
-125
-137
-150
-162
-159
-152
-156
-159
-159
-163
-164
-157
-151
-150
-152
-145
-125
-112
-113
-106
-101
-111
-122
-132
-139
-121
-102
-98
-78
-78
-113
-78
25
301
1048
1695
1042
-511
-1224
-790
-305
-166
-81
-21
-23
0
34
37
35
42
48
57
70
81
88
100
122
139
143
154
182
205
220
241
255
247
244
258
252
207
149
92
30
-27
-60
-76
-89
-101
-106
-101
-97
-99
-100
-94
-83
-74
-80
-94
-99
-94
-94
-98
-103
-105
-100
-95
-95
-81
-58
-55
-78
-98
-95
-83
-89
-88
-70
-85
-102
-69
-1
435
1432
1899
792
-719
-981
-421
-162
-168
-110
-83
-99
-74
-54
-59
-56
-47
-35
-18
-11
-4
15
36
54
71
91
118
144
157
163
172
174
168
158
148
139
120
73
16
-26
-65
-105
-116
-107
-115
-134
-131
-114
-105
-103
-102
-103
-104
-104
-110
-121
-127
-130
-139
-148
-151
-154
-162
-156
-143
-144
-147
-133
-115
-116
-133
-150
-148
-142
-151
-146
-129
-141
-140
-86
61
532
1176
1065
-82
-1064
-1006
-504
-239
-147
-83
-76
-71
-33
-9
-2
12
26
42
69
96
112
129
159
194
219
240
271
303
310
303
300
297
291
284
271
263
262
227
146
75
46
40
34
12
-20
-28
-8
9
9
2
3
10
-8
-37
-22
11
-6
-59
-90
-96
-92
-87
-92
-94
-74
-66
-91
-104
-88
-78
-73
-53
-31
-23
-27
-40
-61
-81
-83
-72
-75
-76
-60
-68
-77
-37
73
478
1178
1297
256
-900
-997
-454
-147
-98
-56
-30
-25
-6
-2
-15
-14
-4
0
3
8
16
22
28
38
51
64
73
75
79
88
94
96
100
106
110
105
84
61
46
18
-24
-54
-69
-81
-90
-94
-94
-90
-88
-85
-78
-82
-95
-96
-97
-113
-115
-102
-101
-100
-94
-107
-117
-92
-72
-80
-76
-61
-65
-66
-42
-27
-43
-64
-78
-88
-85
-87
-104
-97
-75
-91
-95
-48
84
533
1173
1123
76
-881
-890
-435
-166
-80
-36
-21
-9
5
3
13
30
20
8
30
57
62
69
87
88
88
114
142
145
151
167
170
164
168
163
151
153
149
120
88
61
14
-39
-60
-56
-59
-68
-68
-64
-60
-47
-23
-8
-16
-27
-29
-36
-58
-69
-50
-42
-65
-77
-57
-39
-30
-29
-52
-80
-87
-90
-96
-92
-78
-60
-67
-92
-52
63
368
1083
1647
1010
-449
-1174
-833
-366
-195
-106
-43
-28
-13
-1
-1
2
-4
-4
23
42
36
45
77
100
104
115
145
172
177
179
196
214
208
191
184
177
145
84
18
-41
-96
-141
-165
-176
-184
-186
-181
-178
-171
-155
-136
-121
-112
-107
-100
-95
-93
-88
-84
-82
-78
-78
-85
-91
-91
-88
-84
-81
-74
-60
-55
-77
-111
-126
-120
-126
-144
-130
-120
-161
-161
-100
83
769
1670
1456
-51
-1136
-934
-410
-238
-178
-117
-115
-97
-61
-54
-44
-25
-20
-9
11
20
34
61
78
85
104
131
152
174
201
218
224
226
232
237
233
210
172
131
89
42
-15
-67
-96
-102
-104
-102
-88
-70
-60
-55
-49
-44
-40
-32
-26
-28
-29
-27
-31
-47
-72
-84
-59
-31
-50
-76
-49
-4
-7
-24
3
41
31
-6
-29
-33
-29
-35
-46
-44
-57
-81
-54
77
493
1230
1502
571
-737
-1098
-647
-280
-174
-110
-82
-88
-68
-46
-40
-32
-23
-16
-1
13
22
33
48
61
79
101
116
127
142
159
163
159
157
157
151
141
126
96
51
2
-47
-87
-111
-120
-122
-119
-118
-119
-114
-100
-94
-98
-96
-81
-76
-92
-110
-108
-97
-98
-108
-112
-110
-107
-107
-113
-118
-104
-78
-64
-62
-54
-45
-50
-69
-92
-98
-86
-93
-99
-73
-82
-118
-78
61
532
1464
1844
688
-866
-1148
-538
-197
-152
-81
-56
-73
-46
-29
-38
-21
3
10
20
32
40
52
78
106
126
140
158
180
199
213
221
220
214
205
198
187
161
115
57
-2
-54
-95
-120
-129
-129
-126
-122
-117
-113
-106
-98
-94
-96
-98
-98
-99
-104
-110
-112
-111
-113
-118
-121
-117
-112
-116
-123
-117
-94
-62
-40
-46
-71
-93
-98
-89
-94
-101
-73
-66
-105
-100
-55
248
1278
2281
1590
-330
-1193
-648
-175
-170
-134
-77
-106
-95
-62
-62
-52
-37
-38
-27
-7
1
7
24
46
66
83
102
121
138
149
154
151
143
134
130
133
123
83
28
-23
-66
-96
-103
-103
-111
-116
-108
-101
-103
-104
-99
-96
-98
-98
-93
-91
-98
-103
-98
-93
-98
-105
-102
-97
-100
-107
-111
-106
-92
-81
-73
-56
-39
-44
-64
-85
-90
-79
-81
-93
-70
-65
-109
-102
-49
199
1087
2024
1459
-311
-1172
-673
-183
-150
-113
-54
-81
-72
-36
-39
-34
-14
-7
-1
12
21
32
48
67
84
96
108
126
141
140
133
129
128
118
104
103
106
85
43
2
-35
-65
-74
-72
-75
-72
-61
-59
-65
-65
-60
-56
-56
-57
-58
-61
-69
-75
-71
-65
-68
-75
-76
-73
-75
-75
-67
-65
-80
-88
-73
-57
-49
-29
-6
-12
-41
-65
-68
-56
-55
-61
-42
-44
-85
-63
16
262
1016
1745
1172
-377
-1097
-629
-148
-85
-62
-15
-29
-30
-6
5
8
14
26
38
44
80
135
128
61
33
72
115
115
95
97
108
100
86
75
54
47
60
57
25
-8
-35
-57
-76
-96
-105
-98
-98
-97
-58
-31
-91
-167
-136
-57
-66
-128
-140
-119
-106
-94
-109
-131
-87
-47
-88
-109
-71
-79
-119
-119
-106
-86
-49
-57
-110
-119
-72
-53
-98
-121
-77
-83
-150
-110
72
425
997
1209
410
-724
-1025
-610
-274
-168
-87
-16
-7
-47
-34
38
-21
-189
-273
-436
-701
-477
303
693
316
-23
127
280
178
123
127
-28
-115
66
224
261
362
374
202
134
171
103
59
197
395
370
-14
-317
-95
250
325
455
645
295
-505
-583
521
1298
599
-291
-202
162
310
238
-411
-885
-91
867
561
-170
-197
23
-102
-236
-52
158
143
134
328
587
836
1132
1226
694
-231
-704
-501
-231
-192
-183
-137
43
351
153
-728
-1200
-857
-877
-1645
-2098
-1911
-1678
-1455
-1130
-948
-776
-442
-355
-544
-551
-517
-656
-568
-214
-39
-13
92
151
155
279
395
380
451
584
544
580
836
933
1051
1536
1823
1795
1962
1618
302
-516
-115
342
332
248
142
159
404
399
149
229
453
379
346
566
622
476
538
738
687
522
628
804
693
572
680
562
-82
-914
-1594
-2055
-2269
-2210
-1981
-1746
-1434
-924
-520
-501
-595
-557
-549
-661
-753
-769
-717
-557
-335
-158
-24
78
182
400
526
271
125
506
757
554
475
578
706
1121
1335
764
270
496
638
348
199
228
118
-25
-33
77
224
258
206
290
443
410
261
173
125
121
166
211
455
960
1153
608
-356
-1289
-1854
-1843
-1608
-1601
-1651
-1540
-1417
-1292
-1036
-670
-243
66
48
-35
73
45
-242
-375
-330
-416
-445
-181
97
222
348
448
432
414
461
538
622
677
722
758
683
575
593
618
570
582
600
497
382
369
441
440
145
-244
-268
-77
-6
229
665
617
3
-438
-479
-468
-500
-490
-401
-232
-126
-123
-56
-8
-107
-135
-56
-80
-77
74
144
96
109
155
134
65
-33
-76
90
402
589
576
579
659
595
357
180
96
-40
-191
-260
-309
-392
-431
-371
-298
-288
-263
-178
-158
-198
-130
-51
-114
-129
-46
-94
-124
59
133
-36
-110
17
139
119
-12
-69
11
33
-100
-253
-269
-147
-80
-151
-171
-131
-192
-170
69
195
313
912
1356
588
-728
-1157
-728
-354
-359
-508
-462
-222
-183
-349
-294
-59
32
6
-33
-77
-38
53
89
140
192
150
138
163
38
-74
51
130
-6
-65
1
2
-8
30
12
-44
-68
-70
-52
-41
-69
-64
24
108
99
40
53
119
96
59
170
251
108
12
202
383
274
82
54
107
102
80
115
131
53
-33
-9
421
1465
2140
1163
-611
-1281
-870
-537
-464
-409
-461
-512
-413
-351
-367
-292
-170
-90
-22
-64
-212
-203
-15
116
170
219
225
240
325
337
200
87
89
68
-45
-143
-184
-230
-269
-257
-207
-164
-191
-248
-163
-6
-7
-38
140
392
440
206
-36
118
493
567
390
248
127
84
110
-30
-261
-356
-424
-562
-612
-521
-420
-234
388
1205
1157
72
-734
-568
-199
-154
-175
-149
-169
-156
-79
-53
-61
7
82
17
-77
-10
105
86
62
164
269
328
431
514
489
465
493
387
123
-34
-59
-248
-570
-686
-620
-593
-539
-406
-340
-319
-214
-107
-77
8
164
158
-12
42
348
372
20
-81
232
346
65
-119
-20
76
84
107
117
47
-48
147
988
1946
1775
462
-498
-405
0
224
376
360
141
-2
-15
-50
-102
-180
-282
-276
-181
-94
52
133
-49
-191
-10
140
7
-141
-188
-219
-129
22
45
92
227
138
-125
-214
-284
-533
-661
-581
-590
-668
-618
-541
-528
-504
-463
-419
-353
-318
-288
-189
-134
-208
-240
-157
-151
-312
-367
-77
213
74
-199
-151
243
1030
1789
1358
-172
-1077
-801
-438
-396
-252
-102
-129
-58
149
286
406
471
289
52
56
168
155
32
-33
57
99
-61
-98
191
410
306
171
218
333
403
405
332
260
266
279
245
258
353
382
270
149
136
169
146
74
30
42
