# session 15
13
20
34
19
-23
-33
2
43
72
93
99
78
33
-14
-50
-79
-107
-131
-144
-149
-156
-159
-155
-154
-159
-170
-184
-187
-180
-190
-204
-190
-174
-184
-197
-208
-220
-208
-198
-212
-198
-181
-48
519
1100
655
-563
-1109
-705
-288
-192
-134
-90
-102
-88
-53
-38
-18
11
38
75
114
138
162
200
232
236
230
234
232
198
138
81
37
1
-26
-50
-73
-91
-100
-113
-130
-135
-131
-132
-138
-135
-126
-115
-95
-85
-93
-102
-118
-133
-118
-114
-131
-118
-112
51
681
1236
687
-550
-1037
-630
-258
-188
-145
-106
-110
-94
-67
-55
-35
3
42
71
96
136
185
225
263
302
325
332
335
315
264
211
172
139
119
116
105
85
88
105
106
99
94
86
84
97
101
94
97
101
95
86
70
54
68
71
30
10
5
116
694
1374
991
-380
-1164
-830
-348
-208
-141
-89
-116
-127
-103
-94
-84
-64
-49
-28
5
30
49
79
109
115
108
105
84
35
-16
-56
-91
-114
-129
-152
-177
-194
-203
-204
-201
-199
-199
-196
-182
-169
-171
-162
-122
-100
-119
-135
-140
-150
-140
-128
-141
-128
-113
-23
477
1116
841
-347
-1034
-689
-219
-116
-94
-46
-41
-24
5
9
16
38
62
96
131
154
177
207
227
238
248
258
260
236
186
140
109
78
53
37
12
-16
-29
-37
-53
-64
-62
-60
-67
-76
-84
-87
-80
-67
-63
-70
-82
-101
-109
-87
-77
-108
-118
-96
-1
384
858
621
-383
-1069
-882
-429
-210
-134
-95
-83
-53
-17
-10
1
40
79
113
158
196
214
244
291
312
318
344
355
317
261
206
149
105
75
48
31
26
17
8
5
-3
-8
2
17
19
15
11
9
21
40
46
46
40
24
28
56
49
25
37
107
427
1012
1100
152
-919
-1061
-605
-299
-195
-136
-132
-148
-138
-126
-116
-104
-94
-65
-25
-7
8
51
91
98
104
121
116
81
28
-33
-87
-123
-154
-184
-202
-212
-220
-218
-209
-204
-207
-213
-216
-216
-211
-211
-220
-213
-181
-162
-174
-194
-210
-198
-164
-168
-185
-159
-119
173
900
1240
361
-810
-939
-383
-91
-56
4
35
34
70
97
103
126
160
189
224
271
317
351
370
378
377
379
382
369
335
290
236
188
162
150
137
123
111
94
68
43
26
9
-12
-24
-21
-20
-31
-37
-23
-10
-17
-31
-40
-57
-68
-67
-78
-85
-70
-5
301
786
756
-93
-913
-949
-549
-272
-164
-124
-127
-131
-115
-95
-76
-64
-48
-20
-3
5
36
82
107
114
127
142
132
92
49
10
-44
-93
-103
-107
-132
-142
-125
-113
-112
-117
-129
-130
-117
-110
-103
-93
-97
-101
-81
-69
-82
-87
-85
-87
-62
-33
-60
-75
-4
191
681
1207
880
-315
-1098
-886
-417
-204
-91
-10
-1
8
42
75
120
166
188
200
224
262
316
360
372
377
390
373
326
301
277
177
38
-28
-26
-37
-53
-40
-52
-104
-106
-75
-135
-241
-237
-162
-162
-221
-252
-250
-239
-219
-193
-174
-175
-180
-158
-141
-147
-130
-77
187
850
1268
550
-680
-1035
-565
-216
-153
-97
-57
-55
-28
-6
-3
17
46
69
100
132
168
221
250
222
200
232
251
213
174
149
85
17
23
59
46
17
11
4
-13
-20
-22
-35
-51
-55
-46
-42
-62
-77
-56
-35
-50
-70
-81
-110
-122
-102
-111
-137
-119
-43
229
726
853
112
-824
-1012
-612
-286
-168
-112
-101
-106
-84
-68
-58
-27
4
29
69
107
134
173
208
226
264
300
281
239
207
155
88
49
29
5
-15
-26
-28
-30
-47
-70
-84
-92
-81
-62
-81
-122
-125
-107
-100
-83
-66
-76
-102
-126
-124
-99
-118
-142
-81
10
245
816
1109
353
-752
-997
-558
-236
-125
-50
-35
-49
-40
-44
-47
-22
7
27
54
91
129
175
231
275
301
315
313
291
260
229
195
154
119
104
100
85
69
62
53
38
22
3
-13
-19
-22
-18
-8
-8
-11
-6
-13
-32
-36
-38
-44
-45
-54
-60
-50
-7
326
986
1112
134
-926
-986
-492
-233
-188
-155
-147
-148
-132
-120
-102
-78
-66
-54
-27
12
45
68
93
120
120
100
88
71
27
-28
-74
-114
-150
-175
-192
-205
-205
-187
-177
-188
-204
-206
-195
-195
-214
-228
-230
-231
-214
-182
-179
-197
-204
-213
-223
-199
-179
-185
-158
-92
118
652
1034
470
-641
-1073
-665
-229
-99
-52
11
44
49
63
113
177
215
231
252
286
340
397
432
449
471
494
505
490
436
362
296
247
215
189
155
130
130
137
126
109
103
100
83
65
60
59
49
39
43
53
45
28
20
13
9
11
-6
-18
1
27
292
948
1214
309
-890
-1074
-535
-212
-157
-104
-85
-100
-80
-57
-46
-26
-4
16
39
54
70
99
126
134
126
120
113
94
63
13
-67
-139
-169
-191
-216
-197
-160
-172
-212
-221
-213
-218
-230
-238
-243
-250
-259
-256
-235
-225
-239
-254
-261
-271
-265
-255
-271
-262
-233
-167
257
965
949
-165
-1117
-997
-474
-253
-208
-160
-138
-125
-105
-92
-61
-23
-1
28
72
100
121
160
199
211
205
213
247
257
195
119
91
70
28
3
4
12
18
4
-12
3
15
2
8
35
36
22
25
30
30
37
47
54
56
56
76
90
47
18
59
119
418
1095
1324
378
-790
-946
-443
-124
-21
43
39
31
71
95
105
134
158
173
213
266
301
330
359
370
372
380
363
317
274
217
125
51
24
2
-39
-68
-71
-71
-81
-91
-104
-119
-122
-123
-143
-154
-143
-146
-158
-139
-119
-137
-165
-177
-175
-160
-173
-206
-191
-164
29
721
1310
632
-800
-1281
-705
-253
-203
-156
-103
-114
-99
-67
-60
-54
-36
-6
43
92
124
144
162
175
170
155
154
156
132
80
22
-24
-50
-67
-86
-93
-87
-83
-85
-92
-102
-106
-107
-114
-116
-105
-102
-112
-102
-70
-61
-78
-93
-104
-107
-94
-100
-114
-104
-94
145
840
1252
464
-773
-1055
-551
-229
-192
-149
-120
-122
-92
-65
-49
-13
26
48
65
88
116
144
164
184
206
217
216
207
178
117
46
-4
-29
-50
-76
-97
-97
-82
-76
-86
-92
-83
-83
-93
-87
-69
-67
-73
-67
-54
-48
-48
-52
-58
-71
-76
-59
-45
-44
-29
67
425
971
977
53
-899
-964
-496
-173
-51
-1
2
18
55
64
76
122
162
177
201
242
277
304
338
371
391
407
403
355
285
229
179
123
82
64
44
15
0
0
1
-7
-24
-43
-52
-56
-61
-62
-68
-88
-100
-89
-90
-110
-117
-122
-140
-132
-119
-144
-148
-117
18
522
1059
638
-608
-1248
-853
-355
-214
-162
-115
-122
-117
-95
-88
-67
-34
-9
24
70
109
142
173
197
208
213
212
199
168
119
59
12
-10
-21
-41
-59
-58
-51
-51
-52
-54
-62
-68
-66
-62
-57
-52
-62
-70
-52
-37
-54
-69
-77
-92
-91
-78
-93
-99
-92
-24
413
1079
970
-167
-1032
-824
-300
-131
-118
-71
-52
-46
-25
-12
1
27
59
84
103
128
160
183
193
199
199
197
194
171
122
65
20
-13
-37
-51
-58
-64
-71
-75
-75
-76
-82
-93
-97
-95
-98
-103
-100
-94
-89
-73
-58
-71
-93
-103
-110
-104
-93
-108
-120
-118
-62
311
907
853
-157
-1002
-871
-377
-175
-139
-92
-82
-88
-72
-59
-39
4
47
76
103
138
174
198
217
249
280
293
295
285
237
157
96
71
42
8
2
6
-8
-16
-10
-18
-32
-28
-20
-24
-31
-30
-18
-11
-16
-13
1
-4
-23
-23
-20
-34
-32
-27
-41
-27
30
251
788
1120
460
-705
-1116
-689
-263
-112
-36
2
-5
7
37
46
57
95
139
165
189
231
279
310
327
344
360
359
326
258
180
117
67
11
-41
-65
-75
-91
-100
-102
-117
-136
-142
-152
-168
-172
-175
-187
-191
-191
-202
-200
-181
-181
-198
-208
-219
-212
-186
-201
-221
-198
-141
233
996
1141
-1
-1169
-1115
-499
-249
-216
-144
-126
-131
-99
-82
-72
-31
13
45
85
137
185
226
262
278
272
265
258
228
177
126
80
43
19
10
7
-1
-13
-13
-10
-14
-25
-33
-36
-32
-42
-72
-81
-64
-61
-74
-68
-61
-82
-112
-127
-130
-131
-141
-163
-160
-145
-78
285
837
768
-189
-1006
-924
-458
-215
-131
-65
-47
-44
-22
0
23
54
78
105
149
200
246
284
309
330
349
356
345
311
259
202
149
104
72
53
39
32
26
19
17
20
10
-5
-8
-6
-14
-24
-20
-10
-15
-28
-19
5
4
-16
-25
-39
-54
-39
-32
-50
-35
22
211
672
982
451
-574
-1006
-668
-249
-75
-4
31
26
29
52
74
103
134
152
174
211
243
272
317
357
374
383
391
370
307
233
174
117
59
28
13
-16
-40
-37
-38
-51
-56
-63
-84
-105
-118
-125
-123
-117
-125
-149
-162
-146
-129
-138
-150
-143
-147
-162
-143
-117
-136
-142
-80
134
649
1089
629
-563
-1254
-1018
-572
-367
-278
-234
-236
-223
-193
-179
-166
-139
-106
-71
-36
-1
44
96
130
133
121
112
94
46
-29
-105
-171
-228
-264
-285
-307
-321
-316
-312
-315
-309
-302
-310
-318
-318
-327
-354
-366
-351
-343
-355
-345
-310
-306
-334
-340
-329
-325
-311
-314
-327
-295
-269
-79
669
1384
787
-698
-1300
-801
-357
-285
-223
-159
-154
-124
-81
-54
-10
44
89
132
178
231
296
360
399
412
412
403
383
356
327
290
251
219
207
224
252
257
254
274
302
316
329
348
363
378
398
402
396
406
422
428
439
458
480
506
522
516
510
532
563
557
550
591
645
912
1647
2154
1425
104
-309
153
489
528
574
609
588
589
601
595
595
614
639
661
681
709
740
761
769
764
736
698
665
616
538
450
374
310
258
218
180
139
98
57
22
-16
-75
-118
-72
57
188
270
302
288
247
198
115
-15
-136
-225
-344
-483
-561
-601
-657
-686
-697
-737
-758
-739
-608
-150
270
-250
-1530
-2280
-2104
-1776
-1728
-1811
-1939
-2086
-2192
-2274
-2345
-2385
-2415
-2444
-2442
-2405
-2343
-2231
-2049
-1806
-1547
-1335
-1224
-1227
-1357
-1624
-1984
-2354
-2673
-2924
-3117
-3275
-3415
-3531
-3626
-3719
-3809
-3882
-3947
-4011
-4051
-4054
-4054
-4075
-4051
-3935
-3717
-3258
-2594
-2241
-2360
-2353
-2031
-1792
-1420
-549
199
143
-381
-605
-172
617
1571
3245
5494
7204
8778
11401
13964
14773
14369
13819
13072
12025
10944
10002
9117
8089
7172
6770
6546
6292
6509
6926
6831
6687
6859
6555
5737
5396
5586
5526
5331
5751
6070
4454
1207
-1275
-2255
-2883
-3505
-3839
-4110
-4411
-4586
-4725
-4826
-4745
-4628
-4654
-4733
-4794
-4864
-4897
-4850
-4778
-4730
-4684
-4621
-4561
-4481
-4350
-4248
-4190
-4069
-3914
-3548
-2630
-1938
-2742
-4254
-4585
-3838
-3302
-3131
-2942
-2799
-2724
-2603
-2481
-2381
-2244
-2084
-1953
-1840
-1690
-1518
-1383
-1238
-1051
-958
-982
-936
-797
-725
-735
-734
-700
-637
-554
-482
-426
-361
-293
-223
-144
-63
16
81
120
178
268
322
353
427
476
460
482
560
609
640
693
742
786
836
876
920
955
963
993
1056
1282
1938
2550
2052
693
-7
361
859
1026
1090
1127
1108
1097
1102
1096
1100
1110
1112
1130
1162
1186
1207
1235
1250
1247
1237
1217
1183
1139
1066
953
842
767
712
659
612
576
539
495
449
415
392
365
332
302
273
251
240
216
172
139
125
105
92
104
101
66
45
30
-15
-32
-16
-44
-54
21
193
653
1184
869
-363
-1209
-1025
-547
-319
-204
-133
-138
-145
-144
-164
-171
-152
-135
-114
-82
-47
-2
48
80
97
113
108
65
17
-30
-109
-206
-271
-317
-369
-392
-385
-401
-435
-443
-442
-455
-464
-468
-486
-501
-496
-496
-514
-518
-496
-492
-510
-495
-447
-435
-453
-445
-425
-409
-386
-396
-404
-326
-243
-8
705
1224
440
-1016
-1543
-1091
-652
-481
-383
-343
-311
-262
-266
-282
-248
-201
-148
-68
-4
32
99
209
277
262
235
248
264
236
155
51
-16
-42
-63
-70
-62
-72
-83
-68
-68
-96
-105
-91
-91
-110
-118
-113
-129
-170
-185
-174
-177
-177
-141
-94
-60
-41
-35
-21
2
21
51
81
107
156
255
611
1316
1608
737
-480
-755
-267
110
244
336
376
388
433
468
485
516
539
551
582
606
612
647
692
705
709
692
624
566
526
417
275
207
172
94
29
21
22
-6
-41
-63
-73
-80
-87
-104
-135
-165
-175
-185
-220
-254
-261
-269
-298
-309
-293
-289
-301
-299
-291
-302
-323
-311
-291
-328
-353
-282
-126
301
940
883
-295
-1397
-1406
-891
-590
-448
-354
-349
-330
-260
-248
-278
-258
-235
-228
-147
-56
-82
-96
33
143
135
127
134
83
22
-18
-79
-142
-169
-192
-213
-204
-180
-160
-141
-140
-155
-138
-98
-84
-81
-57
-2
91
141
85
45
105
161
160
185
254
317
348
341
334
378
427
433
444
448
397
373
423
631
1203
1710
1204
-52
-680
-354
85
253
316
327
290
252
216
191
164
111
83
93
65
14
33
89
105
100
106
105
75
-3
-108
-166
-156
-181
-278
-330
-288
-260
-281
-272
-219
-174
-154
-141
-131
-131
-143
-166
-228
-333
-418
-445
-459
-495
-519
-508
-480
-454
-440
-431
-403
-354
-306
-271
-260
-278
-281
-243
-237
-288
-283
-186
-6
439
1004
882
-135
-979
-916
-464
-197
-72
-3
-4
6
43
50
58
104
142
176
238
298
339
403
483
525
533
520
479
425
371
303
232
172
121
85
50
22
49
103
113
116
155
173
149
128
