# session 1
-26
-37
-19
77
118
12
-70
-47
-39
-61
-54
-51
-69
-72
-69
-76
-82
-86
-97
-106
-111
-120
-132
-142
-150
-150
-137
-126
-128
-123
-108
-104
-116
-123
-118
-113
-110
-103
-93
-86
-84
-87
-90
-82
-68
-63
-61
-55
-52
-56
-55
-49
-49
-46
-33
-27
-36
-40
-33
-27
-26
-21
-8
8
21
32
45
45
21
-6
-17
-21
-24
-21
-20
-20
-3
1
-20
-1
74
277
827
1428
1187
68
-733
-598
-180
-23
10
53
62
60
75
82
76
76
84
94
100
102
106
117
133
146
153
159
173
194
215
230
243
265
296
317
324
332
345
345
329
301
261
196
115
51
4
-51
-96
-106
-110
-125
-131
-130
-139
-137
-119
-108
-106
-100
-91
-91
-96
-96
-99
-110
-121
-117
-105
-105
-127
-151
-159
-166
-181
-192
-193
-195
-213
-237
-245
-238
-235
-234
-221
-203
-191
-189
-191
-185
-177
-180
-176
-157
-154
-164
-152
-134
-136
-134
-119
-107
-93
-71
-52
-40
-42
-72
-102
-102
-92
-93
-93
-95
-106
-103
-102
-127
-116
-32
194
762
1383
1155
0
-884
-807
-375
-171
-115
-69
-55
-49
-25
-3
7
9
11
21
36
46
54
62
73
88
100
109
124
142
152
165
188
211
231
252
264
274
297
310
290
249
202
138
59
-11
-56
-78
-92
-109
-115
-103
-85
-77
-68
-48
-18
3
14
35
64
82
93
110
130
149
183
235
264
239
190
163
155
146
134
132
148
164
165
164
171
161
133
118
121
117
97
72
48
17
-19
-46
-69
-96
-124
-145
-166
-184
-186
-180
-184
-196
-198
-191
-191
-202
-202
-185
-170
-159
-144
-147
-178
-205
-215
-230
-245
-258
-278
-288
-288
-319
-344
-301
-153
278
970
1171
354
-647
-793
-340
-41
10
21
19
11
34
59
67
71
71
55
26
1
-8
-20
-41
-44
-13
22
44
70
106
135
157
189
212
218
229
245
247
240
236
214
164
102
36
-26
-75
-106
-130
-149
-148
-132
-124
-128
-133
-137
-144
-143
-125
-104
-96
-93
-89
-90
-86
-72
-63
-68
-76
-84
-92
-97
-96
-86
-70
-63
-62
-59
-58
-64
-64
-51
-35
-27
-19
6
39
48
26
5
6
9
2
-4
-6
-10
-23
-37
-45
-36
-14
3
12
31
40
4
-39
-37
-20
-25
-26
-23
-41
-39
-19
-45
-72
-22
134
577
1250
1338
366
-735
-945
-545
-244
-144
-98
-86
-86
-71
-70
-83
-78
-46
1
60
142
241
343
455
564
619
600
545
498
503
562
593
549
488
449
400
342
299
257
208
158
91
16
-42
-96
-161
-212
-234
-249
-269
-285
-295
-306
-327
-360
-398
-423
-423
-404
-384
-360
-324
-296
-284
-268
-252
-251
-254
-247
-241
-238
-226
-198
-165
-135
-109
-91
-83
-84
-87
-93
-104
-112
-109
-102
-95
-83
-65
-50
-35
-16
6
23
31
31
27
18
5
-10
-23
-33
-37
-38
-31
-15
3
21
44
68
88
107
104
69
39
36
24
-4
-17
-30
-58
-56
-27
-20
2
69
256
790
1415
1212
69
-798
-697
-281
-136
-121
-90
-89
-91
-71
-61
-61
-52
-30
-5
10
19
39
68
91
110
125
135
155
192
232
267
296
316
331
358
392
404
382
352
328
289
217
137
70
4
-74
-135
-149
-140
-153
-183
-193
-170
-141
-136
-156
-164
-142
-129
-140
-140
-128
-130
-135
-131
-126
-121
-119
-126
-131
-128
-126
-118
-111
-119
-127
-114
-105
-107
-103
-100
-111
-109
-89
-82
-94
-96
-85
-80
-82
-79
-72
-62
-49
-32
-12
8
6
-26
-52
-48
-47
-69
-73
-52
-49
-57
-47
-55
-71
-32
110
545
1261
1470
569
-605
-907
-512
-193
-105
-64
-46
-51
-41
-24
-12
-4
-4
-1
11
24
33
41
47
59
78
95
115
144
164
173
190
225
260
281
299
324
345
349
328
283
225
157
74
0
-46
-85
-129
-152
-159
-175
-182
-162
-146
-147
-142
-134
-140
-140
-116
-95
-99
-107
-99
-94
-104
-107
-97
-92
-90
-89
-95
-95
-81
-74
-83
-86
-78
-72
-72
-73
-68
-63
-62
-64
-71
-81
-74
-55
-54
-71
-75
-66
-59
-52
-49
-52
-51
-51
-67
-67
-38
-23
-37
-49
-50
-49
-38
-29
-36
-37
-21
-2
10
24
39
37
10
-18
-22
-12
-6
-7
-14
-8
15
2
-33
1
137
516
1202
1515
731
-454
-804
-409
-99
-33
-4
-1
-6
23
33
21
32
47
53
55
52
62
95
112
107
113
131
151
170
170
167
200
249
265
270
293
305
308
336
348
303
248
207
144
68
13
-39
-97
-124
-124
-136
-152
-142
-126
-132
-139
-125
-112
-115
-116
-106
-100
-106
-105
-94
-95
-111
-120
-127
-139
-136
-120
-121
-141
-148
-142
-142
-150
-153
-157
-160
-154
-148
-151
-160
-166
-169
-170
-164
-154
-155
-165
-166
-164
-169
-170
-166
-174
-180
-157
-143
-167
-174
-147
-131
-120
-111
-120
-100
-99
-250
-435
-449
-389
-383
-356
-321
-345
-338
-302
-356
-410
-336
-152
301
1061
1379
615
-493
-826
-466
-163
-95
-18
84
77
27
70
157
185
174
163
148
135
131
130
126
162
264
329
327
402
484
364
227
311
424
417
419
452
482
579
677
636
515
427
364
289
187
89
70
93
52
-4
20
63
56
42
35
24
39
60
61
111
184
154
89
140
192
111
46
95
126
93
90
115
106
85
87
97
101
103
114
127
127
125
155
180
139
90
116
152
124
87
76
57
43
55
64
55
50
48
36
24
39
67
69
50
45
59
65
45
5
-27
-48
-74
-99
-116
-143
-156
-130
-130
-199
-237
-159
69
516
943
729
-183
-942
-966
-617
-417
-418
-460
-476
-485
-492
-469
-462
-536
-607
-579
-530
-559
-619
-636
-606
-562
-555
-587
-603
-585
-573
-575
-574
-571
-570
-566
-552
-533
-542
-598
-643
-622
-622
-763
-975
-1089
-1073
-1034
-1062
-1169
-1263
-1264
-1218
-1212
-1285
-1390
-1414
-1431
-1638
-1916
-1981
-1889
-1868
-1943
-1950
-1652
-924
248
1858
3442
4064
3492
2516
1724
1134
887
1051
1235
1285
1662
2554
3557
4375
4922
5102
5051
4912
4439
3570
2711
2067
1498
1048
887
882
828
837
1062
1393
1635
1607
1225
681
241
-60
-298
-486
-600
-694
-841
-958
-966
-997
-1140
-1216
-1046
-671
-245
-30
-357
-1133
-1692
-1628
-1271
-1042
-995
-1012
-978
-902
-912
-965
-935
-874
-846
-815
-789
-780
-740
-674
-633
-635
-648
-629
-585
-561
-543
-500
-472
-467
-426
-354
-295
-245
-221
-241
-270
-292
-328
-375
-437
-509
-557
-582
-593
-568
-523
-497
-478
-452
-422
-379
-338
-326
-323
-299
-258
-216
-189
-172
-144
-132
-148
-123
-55
-31
-30
-8
-26
-64
-31
24
21
6
29
69
103
117
116
131
154
172
200
230
235
229
221
206
210
241
262
259
264
281
272
241
257
324
350
324
317
329
318
303
297
266
219
199
200
189
165
146
129
123
140
137
99
101
178
387
878
1393
1222
283
-527
-595
-261
-27
50
79
94
92
88
90
88
76
70
76
76
70
81
110
131
143
159
181
196
201
207
223
243
262
283
304
317
323
325
325
315
281
220
143
68
9
-35
-71
-104
-131
-150
-159
-160
-157
-160
-164
-164
-163
-165
-168
-172
-176
-176
-172
-170
-175
-182
-184
-184
-182
-181
-187
-196
-194
-183
-180
-186
-187
-189
-194
-192
-188
-188
-180
-165
-160
-159
-160
-162
-158
-149
-146
-138
-116
-100
-92
-87
-93
-113
-130
-133
-124
-115
-114
-120
-125
-114
-115
-141
-126
-47
178
785
1465
1244
54
-850
-797
-420
-265
-241
-230
-229
-197
-141
-100
-73
-65
-80
-81
-51
-19
-2
11
21
31
54
79
88
106
156
211
245
269
290
309
330
349
359
366
362
329
267
184
94
22
-28
-72
-105
-118
-119
-120
-124
-126
-114
-100
-101
-93
-74
-72
-81
-70
-59
-63
-61
-49
-46
-50
-48
-47
-46
-39
-34
-37
-38
-39
-50
-53
-46
-50
-60
-56
-51
-56
-64
-71
-66
-48
-44
-56
-50
-39
-67
-107
-104
-80
-80
-88
-83
-75
-64
-64
-90
-84
-14
130
562
1235
1329
380
-649
-767
-342
-103
-65
-28
-13
-25
-19
-5
5
13
13
22
46
60
57
58
64
74
94
113
122
135
153
172
197
230
263
292
302
299
321
349
335
288
232
162
93
38
-18
-71
-101
-115
-126
-134
-138
-138
-133
-125
-121
-122
-127
-127
-121
-117
-118
-124
-127
-120
-116
-127
-135
-134
-133
-133
-130
-127
-126
-127
-136
-142
-133
-123
-126
-133
-120
-94
-82
-79
-65
-58
-83
-113
-117
-119
-132
-128
-114
-122
-125
-109
-120
-128
-65
99
534
1191
1290
336
-765
-959
-516
-195
-110
-74
-58
-57
-44
-34
-31
-21
-9
-2
6
17
27
36
47
59
74
93
114
135
158
180
204
234
263
288
310
329
342
346
335
302
243
168
97
39
-10
-54
-83
-96
-103
-112
-115
-111
-109
-108
-100
-90
-89
-89
-85
-84
-87
-86
-82
-82
-83
-83
-84
-85
-85
-85
-82
-79
-78
-76
-72
-72
-73
-71
-65
-58
-54
-53
-53
-49
-43
-43
-46
-43
-41
-44
-43
-39
-54
-77
-71
-43
-26
-13
2
-6
-33
-43
-42
-50
-52
-42
-45
-49
-32
-41
-59
-16
109
482
1181
1487
666
-537
-858
-432
-132
-98
-71
-51
-65
-56
-39
-40
-35
-20
-9
2
15
26
34
46
59
69
81
99
112
125
148
176
196
216
238
258
275
291
297
290
271
234
176
107
34
-29
-75
-110
-136
-150
-160
-166
-162
-156
-156
-155
-148
-142
-144
-145
-139
-133
-132
-133
-132
-132
-134
-136
-139
-138
-136
-134
-134
-131
-126
-122
-122
-123
-121
-119
-119
-116
-110
-105
-102
-97
-91
-86
-83
-83
-81
-77
-74
-65
-46
-30
-16
4
10
-15
-45
-49
-43
-48
-46
-38
-46
-46
-27
-40
-55
-8
131
590
1389
1628
626
-628
-875
-420
-129
-74
-34
-21
-26
-6
5
1
11
24
30
41
54
63
72
84
95
108
126
143
160
180
201
220
242
266
289
308
324
333
334
324
296
242
169
95
27
-31
-77
-108
-128
-142
-149
-151
-153
-150
-142
-135
-131
-127
-126
-127
-124
-120
-122
-128
-130
-131
-134
-140
-145
-146
-142
-141
-140
-135
-131
-133
-128
-116
-113
-112
-105
-97
-90
-79
-70
-67
-63
-56
-52
-54
-55
-55
-55
-58
-57
-53
-50
-47
-42
-33
-28
-29
-26
-21
-20
-21
-11
5
17
31
51
51
18
-6
3
8
-9
-24
-15
23
47
-3
-61
-24
95
444
1125
1439
632
-575
-915
-494
-178
-126
-88
-60
-68
-50
-20
-12
-3
15
29
36
40
47
59
67
75
106
140
128
91
109
175
188
135
107
120
116
104
136
183
181
151
135
110
57
9
-29
-64
-84
-89
-83
-61
-37
-46
-84
-110
-96
-63
-44
-47
-53
-57
-60
-46
-37
-62
-63
-16
-22
-96
-117
-79
-66
-71
-75
-81
-60
-49
-95
-106
-40
-23
-79
-91
-61
-60
-72
-71
-63
-41
-48
-104
-123
-70
-40
-63
-69
-46
-48
-69
-41
29
49
6
-20
-23
-47
-52
-22
-33
-69
-51
-32
-58
-57
-31
-38
-28
94
418
893
1051
477
-390
-719
-431
-101
-31
-64
-46
4
21
-13
-51
-34
20
36
19
33
52
36
56
107
73
4
39
110
116
116
141
153
169
202
218
214
212
214
214
208
194
162
106
51
23
-9
-62
-94
-93
-98
-110
-103
-88
-82
-80
-90
-111
-121
-106
-83
-82
-103
-109
-90
-91
-116
-114
-85
-82
-111
-122
-90
-63
-85
-117
-111
-84
-77
-83
-86
-83
-76
-75
-73
-49
-30
-57
-90
-77
-50
-31
1
27
21
7
-5
-23
-33
-32
-38
-46
-40
-37
-43
-36
-31
-48
-47
23
230
640
995
780
6
-619
-634
-314
-96
-54
-46
-15
0
-7
-1
20
28
24
29
41
51
64
73
76
83
99
113
122
129
140
154
164
177
197
211
217
233
250
253
248
224
178
139
98
15
-67
-91
-89
-102
-111
-108
-109
-112
-111
-111
-113
-114
-115
-113
-112
-118
-124
-124
-123
-123
-121
-117
-114
-110
-108
-111
-115
-115
-112
-110
-111
-110
-107
-105
-106
-106
-104
-99
-88
-69
-52
-41
-25
-12
-19
-39
-58
-78
-88
-79
-72
-83
-86
-68
-66
-76
-41
57
324
843
1166
684
-286
-797
-613
-265
-93
-43
-32
-25
-1
15
8
9
29
41
46
56
60
63
77
86
100
133
144
141
186
218
175
160
226
261
238
242
274
287
273
243
215
184
125
53
5
-26
-57
-71
-74
-93
-110
-103
-99
-108
-106
-100
-104
-103
-96
-100
-116
-125
-120
-109
-106
-116
-132
-137
-124
-110
-109
-116
-120
-115
-106
-101
-104
-109
-109
-103
-103
-103
-79
-50
-43
-35
-20
-41
-85
-96
-86
-89
-88
-83
-90
-80
-57
-73
-96
-57
57
361
902
1154
555
-439
-851
-562
-199
-74
-54
-34
-25
-22
-14
-6
0
11
25
33
36
44
57
73
87
92
92
107
132
149
158
175
198
220
239
251
261
272
273
264
253
226
162
83
23
-17
-51
-76
-88
-88
-89
-104
-118
-115
-104
-102
-102
-100
-101
-105
-106
-104
-105
-107
-106
-106
-107
-104
-102
-106
-106
-101
-99
-99
-98
-99
-101
-107
-108
-93
-67
-48
-37
-27
-14
6
9
-18
-47
-50
-45
-48
-46
-40
-43
-39
-25
-30
-34
6
126
469
1014
1162
448
-516
-813
-485
-151
-39
-17
-8
-4
9
17
14
19
28
31
31
