# session 9
-4
28
-47
8
333
627
654
581
552
506
431
363
284
201
155
134
109
81
63
58
54
42
29
26
29
26
16
7
4
-4
-24
-37
-38
-43
-52
-53
-56
-56
-47
-50
-66
-70
-69
-80
-85
-77
-73
-75
-81
-93
-94
-84
-86
-89
-77
-69
-82
-93
-85
-71
-57
-43
-27
-9
-9
-37
-61
-63
-63
-72
-69
-64
-72
-68
-55
-75
-79
-12
163
688
1474
1545
392
-835
-987
-491
-178
-103
-64
-49
-46
-31
-25
-19
-5
4
9
19
27
35
48
62
71
81
95
113
133
153
169
187
212
239
264
286
307
325
338
337
321
285
222
137
59
2
-48
-94
-122
-131
-138
-146
-150
-152
-154
-152
-147
-142
-142
-148
-149
-146
-148
-156
-158
-152
-149
-155
-157
-155
-157
-153
-144
-146
-153
-144
-137
-144
-144
-132
-125
-128
-129
-124
-118
-115
-113
-113
-112
-108
-102
-102
-108
-104
-81
-59
-50
-31
-11
-22
-57
-73
-67
-66
-70
-61
-56
-64
-52
-40
-66
-58
34
272
884
1604
1413
131
-920
-882
-391
-136
-62
-20
-14
-7
12
16
20
32
41
48
56
62
69
82
95
108
125
142
155
166
182
206
230
250
274
306
328
342
359
373
371
350
305
235
153
78
15
-40
-83
-110
-121
-126
-131
-136
-138
-137
-134
-134
-133
-128
-127
-131
-134
-134
-136
-137
-139
-144
-149
-147
-144
-147
-147
-141
-138
-139
-138
-133
-128
-125
-124
-120
-112
-107
-104
-104
-102
-97
-94
-93
-91
-85
-81
-79
-78
-80
-79
-73
-70
-73
-74
-64
-47
-32
-19
1
18
3
-32
-48
-44
-44
-42
-35
-43
-49
-27
-32
-61
-26
87
427
1169
1671
977
-389
-956
-566
-165
-84
-57
-29
-32
-20
1
7
18
29
27
31
43
52
60
71
79
91
108
119
127
145
169
184
196
216
243
265
279
292
304
308
300
278
237
181
123
65
1
-52
-84
-105
-122
-128
-128
-132
-134
-131
-130
-129
-129
-132
-135
-132
-127
-125
-127
-131
-137
-141
-140
-136
-140
-146
-145
-143
-142
-140
-138
-135
-132
-132
-135
-129
-119
-117
-121
-121
-117
-115
-113
-109
-107
-108
-108
-104
-102
-99
-87
-69
-54
-38
-16
-14
-41
-67
-69
-66
-71
-68
-58
-64
-67
-48
-54
-71
-25
113
512
1250
1602
785
-523
-1002
-624
-225
-92
-47
-27
-27
-12
2
4
12
24
28
34
43
52
61
72
85
98
113
128
143
160
181
204
225
249
277
301
318
332
345
351
341
310
258
194
122
54
-1
-40
-70
-91
-101
-105
-110
-112
-109
-107
-106
-104
-103
-102
-100
-100
-102
-103
-103
-105
-108
-108
-111
-114
-115
-116
-119
-116
-111
-110
-107
-102
-101
-100
-97
-95
-93
-87
-83
-84
-81
-79
-83
-86
-80
-73
-71
-70
-66
-64
-67
-71
-69
-68
-68
-62
-60
-62
-51
-29
-16
-5
9
0
-34
-51
-48
-59
-70
-57
-53
-61
-48
-51
-84
-60
41
335
1049
1669
1154
-233
-1004
-723
-270
-129
-95
-61
-54
-46
-35
-34
-25
-11
-4
4
13
21
36
51
58
67
86
103
117
135
156
176
197
223
249
273
295
313
324
328
325
309
270
209
137
66
0
-51
-86
-110
-127
-138
-145
-146
-144
-142
-136
-130
-131
-133
-127
-121
-122
-124
-123
-124
-128
-130
-131
-133
-135
-137
-137
-135
-132
-131
-130
-129
-127
-125
-121
-118
-116
-114
-111
-109
-107
-101
-97
-97
-94
-90
-90
-91
-89
-88
-89
-87
-76
-56
-39
-26
-7
-2
-27
-58
-63
-57
-61
-59
-52
-58
-56
-36
-51
-72
-25
108
546
1371
1713
742
-630
-979
-494
-149
-94
-58
-37
-45
-28
-9
-6
3
15
20
27
40
50
59
72
90
107
122
136
153
174
196
217
238
266
293
316
335
352
363
365
354
322
267
198
128
62
5
-38
-69
-89
-99
-104
-107
-109
-107
-105
-104
-101
-97
-97
-96
-91
-88
-90
-91
-91
-94
-96
-93
-93
-100
-105
-103
-100
-101
-105
-105
-101
-99
-100
-102
-98
-90
-90
-94
-93
-89
-86
-87
-90
-89
-84
-83
-84
-78
-74
-80
-82
-76
-74
-75
-77
-83
-82
-75
-82
-88
-69
-67
-86
-52
-19
-81
-120
-56
-33
-81
-74
-28
-30
-54
-67
-66
-62
-95
-135
-99
42
421
1045
1246
451
-618
-903
-544
-260
-181
-126
-98
-110
-76
10
32
-50
-98
-31
42
44
38
65
78
57
77
162
187
112
92
170
214
201
216
257
293
316
284
223
248
330
328
260
223
180
98
53
50
16
-21
-25
-47
-79
-63
-35
-35
-36
-28
-20
-10
-22
-51
-33
16
2
-59
-62
-20
-21
-51
-44
-38
-61
-48
-12
-34
-62
-26
-1
-32
-43
-24
-24
-33
-27
-17
-11
-9
-10
-12
-11
-11
-11
-12
-18
-31
-39
-35
-30
-40
-62
-72
-73
-79
-78
-68
-76
-99
-106
-106
-122
-134
-133
-138
-146
-151
-161
-160
-147
-164
-186
-142
35
462
1044
1190
485
-535
-996
-778
-402
-216
-160
-130
-117
-101
-67
-50
-48
-30
-13
-14
1
35
55
57
64
94
134
149
136
138
168
194
205
217
231
249
276
299
311
320
315
293
255
195
129
91
48
-27
-77
-77
-65
-62
-66
-79
-85
-81
-79
-70
-63
-77
-89
-73
-54
-56
-69
-83
-92
-93
-87
-81
-86
-96
-86
-65
-68
-89
-95
-85
-79
-81
-84
-88
-82
-66
-66
-77
-68
-61
-82
-98
-88
-71
-57
-54
-64
-62
-57
-78
-88
-59
-48
-69
-57
-16
-29
-66
-46
-7
-24
-60
-63
-55
-58
-47
-39
-53
-46
-25
-41
-40
46
308
887
1406
1033
-105
-797
-582
-176
-50
-30
-1
-6
-3
32
50
40
27
26
41
52
56
78
107
96
76
101
122
93
83
129
171
180
187
191
194
234
283
283
264
271
270
235
196
152
85
25
-9
-40
-73
-90
-103
-124
-132
-127
-127
-133
-140
-144
-135
-125
-136
-151
-146
-144
-153
-151
-146
-160
-177
-174
-171
-178
-180
-178
-181
-180
-178
-183
-185
-179
-177
-178
-179
-178
-160
-134
-125
-106
-70
-88
-143
-143
-114
-131
-160
-148
-115
-100
-115
-147
-151
-92
-35
69
574
1430
1619
543
-735
-1008
-550
-199
-110
-68
-23
-1
7
5
0
8
25
43
64
87
98
95
102
125
139
140
150
176
203
228
249
265
285
311
341
370
386
387
385
368
318
251
184
113
44
-3
-33
-56
-72
-81
-90
-97
-94
-88
-87
-89
-89
-84
-77
-83
-95
-98
-96
-100
-105
-104
-102
-103
-106
-108
-115
-123
-124
-119
-116
-115
-114
-119
-124
-116
-110
-126
-141
-131
-120
-126
-134
-129
-120
-110
-99
-89
-76
-56
-45
-69
-108
-119
-111
-116
-121
-113
-116
-112
-84
-96
-139
-106
21
387
1158
1670
977
-397
-1024
-712
-303
-154
-116
-113
-105
-69
-51
-44
-20
0
13
17
-9
-20
22
55
39
36
72
112
138
157
168
185
208
232
282
340
342
312
322
356
357
316
259
206
149
61
-45
-106
-106
-104
-132
-148
-133
-126
-129
-109
-73
-59
-67
-65
-61
-82
-97
-65
-49
-89
-114
-93
-85
-95
-95
-104
-124
-136
-138
-136
-132
-126
-103
-81
-107
-158
-144
-77
-69
-114
-105
-59
-70
-109
-91
-56
-62
-73
-66
-57
-38
-6
6
10
23
11
-27
-31
-13
-27
-50
-48
-56
-66
-45
-55
-94
-48
60
326
1051
1729
1219
-204
-965
-662
-228
-106
-78
-61
-60
-40
-32
-36
-19
-9
-8
10
25
18
11
23
47
52
44
62
102
129
145
157
169
198
237
271
308
329
328
349
365
310
228
178
121
41
-26
-72
-105
-121
-127
-142
-160
-160
-132
-106
-126
-157
-143
-122
-140
-147
-122
-119
-144
-156
-157
-159
-161
-175
-198
-204
-186
-166
-172
-198
-214
-198
-159
-133
-148
-164
-141
-125
-137
-118
-77
-83
-105
-94
-86
-93
-68
-35
-48
-71
-48
-15
-15
-11
16
34
42
47
14
-32
-33
-18
-23
-27
-25
-19
-6
-12
-13
37
186
621
1284
1397
478
-584
-764
-352
-92
-50
-20
-3
-8
13
41
38
22
32
57
58
45
51
72
88
90
86
104
136
137
124
153
207
225
212
228
270
275
261
285
303
266
223
195
140
74
29
-22
-67
-68
-68
-112
-152
-146
-128
-125
-132
-133
-117
-101
-111
-130
-125
-102
-95
-111
-124
-122
-119
-114
-103
-102
-108
-98
-88
-99
-113
-116
-110
-96
-93
-105
-104
-93
-94
-98
-96
-97
-101
-100
-99
-100
-96
-93
-98
-103
-100
-97
-97
-88
-69
-56
-48
-30
-9
-16
-50
-74
-68
-54
-58
-71
-70
-65
-58
-46
-60
-74
-31
99
496
1204
1522
759
-449
-934
-634
-261
-114
-69
-52
-48
-37
-26
-21
-13
-2
10
19
26
36
50
63
75
91
104
113
126
147
168
192
219
245
268
290
314
333
345
350
342
312
259
189
115
46
-12
-55
-82
-99
-112
-119
-118
-114
-113
-115
-113
-110
-110
-112
-112
-113
-115
-118
-120
-124
-126
-126
-128
-132
-133
-131
-129
-125
-123
-123
-125
-126
-126
-122
-117
-116
-116
-112
-108
-107
-103
-100
-100
-100
-95
-91
-89
-89
-90
-88
-86
-80
-63
-45
-32
-15
-1
-17
-52
-64
-56
-57
-59
-52
-58
-64
-43
-48
-73
-39
70
460
1316
1836
1000
-472
-1004
-569
-183
-105
-66
-41
-49
-33
-13
-9
1
12
18
27
36
43
53
65
76
87
100
115
131
148
167
190
215
242
269
294
316
334
347
349
339
308
250
176
100
33
-26
-74
-107
-127
-139
-147
-151
-151
-149
-147
-145
-141
-135
-130
-127
-125
-123
-121
-118
-116
-117
-118
-118
-119
-120
-120
-119
-118
-118
-118
-116
-112
-110
-109
-107
-104
-102
-99
-97
-95
-92
-89
-87
-86
-84
-82
-80
-77
-74
-74
-75
-73
-69
-67
-66
-65
-65
-64
-60
-59
-63
-62
-51
-43
-47
-55
-52
-37
-29
-32
-32
-36
-40
-29
-27
-37
-21
-15
-44
-28
56
331
1077
1800
1345
-97
-942
-674
-220
-92
-65
-35
-39
-30
-11
-9
-3
7
7
14
31
41
43
49
60
74
88
103
118
133
150
171
195
220
244
269
294
313
326
333
336
321
279
217
147
78
13
-41
-80
-105
-120
-131
-136
-137
-135
-134
-132
-129
-126
-122
-120
-119
-118
-116
-114
-114
-117
-120
-123
-125
-128
-129
-130
-130
-130
-129
-128
-127
-124
-122
-122
-121
-118
-116
-113
-109
-106
-104
-100
-98
-97
-94
-91
-89
-87
-84
-82
-80
-74
-71
-72
-70
-67
-66
-65
-63
-64
-64
-57
-48
-48
-57
-58
-43
-30
-33
-35
-35
-41
-39
-33
-42
-38
-25
-50
-55
5
190
802
1678
1674
372
-828
-840
-332
-117
-89
-50
-44
-45
-22
-12
-10
3
11
14
24
35
43
52
62
74
89
104
118
135
153
174
197
221
246
271
297
319
334
343
345
333
297
235
161
89
23
-35
-79
-107
-123
-133
-140
-142
-139
-135
-132
-130
-128
-126
-124
-122
-120
-117
-116
-115
-114
-114
-116
-117
-116
-118
-121
-120
-117
-113
-112
-112
-109
-107
-106
-102
-97
-95
-96
-94
-91
-88
-84
-81
-77
-74
-74
-74
-71
-68
-66
-65
-63
-62
-60
-57
-54
-54
-54
-53
-50
-49
-48
-43
-31
-28
-40
-46
-32
-18
-20
-23
-23
-27
-23
-17
-26
-19
-4
-29
-36
21
193
764
1598
1616
382
-794
-830
-326
-94
-67
-35
-29
-35
-16
-4
-6
1
13
23
30
34
39
47
55
64
77
87
95
112
136
154
169
191
211
228
251
276
294
304
302
285
257
206
127
50
-7
-55
-100
-138
-170
-183
-174
-168
-168
-160
-157
-169
-173
-162
-160
-170
-169
-158
-157
-166
-168
-164
-160
-159
-161
-164
-158
-147
-146
-151
-151
-149
-148
-136
-123
-128
-136
-127
-118
-117
-111
-103
-102
-103
-99
-93
-89
-90
-92
-87
-80
-78
-77
-66
-55
-58
-60
-53
-47
-42
-32
-20
-14
-20
-37
-41
-23
-8
-6
-4
-6
-5
6
2
-2
20
18
-7
21
127
498
1280
1752
1012
-324
-873
-539
-166
-44
6
25
21
45
69
70
78
88
87
97
117
121
125
149
167
165
169
187
206
229
246
253
273
316
345
347
354
373
387
391
386
361
308
241
177
116
54
7
-16
-36
-59
-68
-65
-69
-75
-72
-61
-56
-58
-63
-72
-82
-82
-78
-86
-97
-102
-105
-103
-103
-117
-131
-126
-117
-117
-127
-136
-131
-125
-137
-151
-147
-142
-154
-165
-160
-150
-148
-148
-148
-154
-162
-161
-160
-170
-174
-160
-156
-172
-175
-164
-170
-184
-180
-169
-169
-179
-186
-179
-171
-182
-197
-189
-170
-174
-186
-186
-186
-194
-194
-197
-200
-185
-189
-214
-190
-90
237
936
1391
744
-510
-1056
-739
-369
-254
-214
-202
-214
-192
-165
-167
-164
-146
-135
-125
-108
-97
-92
-80
-60
-45
-28
-6
15
35
63
92
112
133
160
189
215
241
267
284
285
268
234
182
122
73
37
1
-27
-36
-33
-30
-22
-11
-5
2
17
29
33
37
51
72
92
101
101
106
112
111
115
130
144
148
148
160
184
199
193
196
227
240
212
192
209
234
243
245
250
259
264
261
255
258
265
268
273
278
276
268
260
256
260
265
262
255
247
235
229
232
234
220
196
188
197
190
164
147
133
111
96
79
58
46
17
-15
0
89
445
1159
1511
733
-533
-1045
-764
-438
-331
-307
-317
-344
-361
-377
-395
-410
-429
-449
-467
-486
-500
-511
-528
-544
-553
-559
-563
-566
-572
-571
-561
-556
-551
-532
