# session 15
-4
39
-69
48
520
823
701
514
458
379
266
216
194
141
92
86
103
105
99
99
93
79
72
70
73
77
62
37
31
29
9
-4
-4
-12
-20
-16
-23
-44
-53
-44
-38
-43
-51
-59
-66
-65
-60
-69
-84
-82
-72
-76
-89
-87
-80
-84
-86
-82
-88
-99
-95
-90
-100
-109
-103
-89
-73
-62
-54
-38
-26
-48
-85
-92
-82
-88
-88
-81
-98
-95
-68
-108
-137
-64
123
842
2089
2326
693
-955
-979
-340
-170
-181
-106
-114
-141
-108
-95
-95
-70
-58
-60
-50
-33
-14
3
12
23
45
70
92
114
138
163
194
236
285
327
364
404
438
450
443
415
344
233
123
36
-46
-123
-174
-202
-220
-215
-198
-200
-214
-207
-188
-180
-177
-170
-161
-149
-136
-135
-141
-137
-128
-129
-141
-148
-137
-116
-108
-119
-129
-125
-117
-116
-119
-116
-112
-115
-115
-106
-101
-105
-103
-93
-88
-87
-88
-92
-94
-86
-76
-77
-87
-90
-77
-61
-62
-69
-70
-68
-68
-63
-58
-58
-57
-58
-69
-74
-57
-43
-50
-58
-55
-50
-40
-25
-13
6
20
-5
-37
-27
-15
-34
-35
-20
-43
-48
-13
-35
-60
-9
153
849
2081
2356
819
-779
-844
-252
-100
-128
-59
-50
-73
-51
-41
-37
-21
-13
-4
12
21
26
38
52
64
73
87
115
144
162
172
188
221
264
298
323
353
385
401
397
374
322
243
155
73
0
-68
-129
-164
-169
-171
-184
-191
-182
-169
-164
-164
-168
-168
-155
-138
-138
-146
-144
-136
-137
-141
-139
-137
-142
-143
-136
-135
-143
-141
-130
-127
-135
-135
-124
-116
-117
-120
-123
-121
-111
-100
-101
-101
-93
-95
-104
-97
-84
-88
-91
-73
-61
-73
-84
-74
-63
-64
-61
-52
-59
-74
-67
-51
-59
-78
-73
-54
-56
-63
-49
-33
-42
-54
-41
-29
-34
-30
-19
-24
-27
-23
-29
-15
-2
-31
-32
38
275
980
1788
1488
34
-950
-715
-203
-65
-47
-6
-12
-11
15
15
12
31
45
41
39
49
62
73
83
96
110
124
135
149
167
188
210
236
267
295
317
337
357
372
373
352
303
229
143
62
-4
-54
-94
-125
-143
-148
-149
-148
-145
-140
-140
-141
-138
-133
-130
-126
-127
-136
-142
-134
-127
-135
-146
-144
-134
-131
-135
-140
-145
-143
-130
-118
-119
-130
-133
-122
-112
-126
-143
-127
-93
-91
-111
-109
-94
-95
-99
-89
-85
-93
-92
-82
-77
-82
-84
-71
-56
-57
-67
-68
-63
-63
-68
-68
-50
-25
-21
-42
-53
-37
-25
-32
-35
-26
-21
-23
-33
-33
-4
-2
-43
-24
77
345
1022
1684
1259
-133
-1004
-776
-287
-94
-40
-10
-16
-9
13
21
21
23
28
44
59
63
71
85
98
108
116
125
141
160
178
206
238
252
265
303
342
354
359
375
379
347
287
222
151
68
-7
-55
-91
-123
-139
-145
-145
-131
-119
-125
-133
-136
-141
-137
-120
-113
-123
-130
-132
-137
-144
-145
-141
-137
-135
-136
-139
-140
-139
-138
-138
-133
-127
-126
-128
-128
-129
-132
-127
-112
-106
-107
-103
-101
-105
-103
-93
-86
-86
-85
-82
-80
-77
-73
-68
-65
-64
-63
-63
-61
-59
-64
-63
-37
-6
2
9
24
12
-30
-48
-33
-26
-30
-34
-41
-33
-24
-50
-56
4
159
652
1413
1500
406
-759
-884
-401
-121
-70
-37
-24
-25
-9
-2
-4
7
22
30
38
47
56
66
75
80
90
117
140
143
149
177
208
230
246
266
297
328
343
346
349
338
300
239
169
100
35
-23
-68
-96
-109
-115
-124
-132
-132
-129
-129
-127
-121
-119
-124
-126
-118
-116
-125
-131
-131
-133
-133
-127
-127
-133
-134
-133
-133
-129
-124
-119
-116
-117
-121
-120
-116
-117
-119
-113
-104
-101
-102
-99
-101
-108
-103
-93
-91
-77
-44
-27
-28
-20
-15
-43
-77
-76
-59
-60
-70
-72
-67
-54
-56
-83
-72
10
240
820
1446
1190
-26
-953
-855
-364
-126
-76
-49
-41
-32
-15
-7
-4
-1
2
13
28
38
51
65
73
82
100
116
123
139
165
188
204
222
249
283
318
336
340
347
355
332
268
193
130
64
-15
-72
-91
-108
-136
-147
-143
-138
-130
-122
-125
-132
-128
-121
-120
-122
-125
-127
-130
-135
-136
-131
-129
-131
-127
-121
-122
-129
-133
-132
-124
-109
-99
-106
-119
-121
-112
-106
-101
-85
-64
-52
-36
-21
-35
-65
-73
-74
-87
-85
-61
-63
-85
-79
-72
-79
-49
26
309
1056
1696
1153
-267
-1049
-771
-303
-124
-68
-49
-79
-93
-66
-36
-15
1
6
-3
-6
12
34
44
55
75
99
116
122
131
156
192
223
247
277
312
331
341
361
369
347
309
248
154
64
-3
-65
-118
-143
-149
-148
-146
-142
-138
-139
-140
-131
-127
-141
-148
-135
-131
-135
-124
-112
-120
-133
-136
-137
-137
-133
-123
-114
-115
-118
-116
-118
-129
-128
-106
-91
-102
-111
-94
-84
-100
-107
-91
-78
-69
-57
-45
-21
3
-17
-63
-72
-57
-66
-75
-67
-76
-79
-48
-50
-85
-58
62
440
1212
1655
848
-548
-1038
-568
-153
-87
-67
-37
-44
-30
-6
-8
-3
21
36
32
34
51
68
74
80
94
110
127
145
160
183
212
233
247
265
285
303
325
335
323
307
282
223
142
71
14
-34
-68
-99
-129
-145
-139
-129
-131
-138
-137
-126
-115
-113
-118
-120
-124
-125
-120
-115
-121
-134
-140
-142
-142
-134
-132
-136
-130
-119
-114
-107
-115
-143
-142
-114
-114
-133
-125
-110
-105
-97
-100
-116
-117
-100
-84
-62
-31
-15
-22
-45
-70
-83
-88
-92
-84
-75
-79
-75
-74
-95
-71
17
229
825
1548
1354
58
-999
-965
-467
-177
-65
-18
-27
-26
-2
-1
-7
12
36
49
53
54
64
82
95
109
133
152
156
161
180
206
231
259
290
315
328
341
368
390
373
324
271
207
116
26
-33
-73
-112
-138
-140
-133
-138
-156
-163
-149
-134
-126
-123
-126
-127
-120
-123
-136
-136
-137
-152
-155
-134
-126
-141
-147
-137
-135
-135
-127
-122
-127
-126
-111
-105
-114
-115
-102
-96
-101
-105
-98
-91
-98
-107
-100
-89
-84
-68
-52
-46
-28
-8
-30
-68
-70
-59
-68
-64
-52
-63
-58
-39
-67
-76
-13
152
793
1827
1914
443
-950
-918
-298
-92
-109
-67
-56
-63
-43
-34
-33
-24
-17
1
22
25
26
41
57
66
75
87
101
126
161
186
197
215
249
280
296
311
328
339
332
304
249
173
92
24
-32
-79
-117
-140
-148
-149
-149
-150
-146
-141
-145
-149
-136
-123
-129
-137
-132
-128
-134
-134
-128
-129
-135
-135
-131
-130
-130
-127
-128
-132
-129
-122
-120
-120
-119
-117
-111
-105
-102
-97
-93
-94
-89
-81
-82
-87
-83
-76
-75
-75
-73
-72
-71
-70
-67
-56
-41
-31
-20
0
20
17
-11
-40
-47
-41
-37
-32
-37
-46
-32
-27
-56
-44
41
306
1004
1690
1256
-164
-1018
-733
-229
-84
-67
-34
-32
-27
-9
-4
2
18
27
31
40
49
58
69
86
103
114
121
137
160
179
194
214
237
259
278
292
304
319
331
328
301
255
195
129
65
9
-35
-67
-88
-99
-102
-100
-100
-104
-105
-101
-95
-94
-98
-98
-92
-91
-95
-97
-96
-98
-103
-106
-104
-100
-100
-103
-104
-102
-98
-94
-95
-98
-97
-97
-101
-99
-92
-91
-91
-89
-88
-90
-92
-86
-77
-76
-81
-80
-80
-87
-86
-80
-82
-81
-69
-65
-73
-75
-71
-76
-82
-74
-60
-50
-35
-12
-1
-12
-40
-63
-61
-58
-75
-83
-71
-81
-89
-73
-90
-105
-43
104
542
1306
1531
539
-746
-1074
-638
-265
-137
-79
-59
-67
-54
-29
-18
-9
8
18
19
32
50
58
71
95
112
119
132
154
176
199
215
231
259
289
305
324
358
378
371
361
346
288
197
125
71
4
-42
-43
-59
-103
-115
-96
-89
-84
-73
-68
-71
-78
-84
-80
-77
-83
-78
-70
-83
-101
-100
-97
-100
-96
-97
-116
-127
-121
-122
-131
-122
-107
-113
-125
-121
-121
-131
-125
-113
-119
-127
-117
-108
-114
-121
-123
-119
-98
-68
-56
-54
-45
-46
-66
-84
-93
-98
-89
-81
-92
-85
-57
-78
-108
-54
66
467
1316
1758
841
-603
-1062
-610
-223
-129
-90
-61
-51
-35
-27
-20
-8
-2
6
17
26
43
59
65
79
101
113
121
136
157
183
204
220
247
279
293
305
330
343
333
314
276
207
131
63
-1
-55
-92
-117
-135
-145
-148
-141
-136
-143
-151
-141
-126
-128
-138
-130
-115
-118
-131
-130
-122
-129
-138
-129
-118
-126
-134
-126
-116
-113
-115
-120
-121
-114
-107
-108
-106
-97
-96
-102
-99
-91
-84
-79
-74
-76
-76
-67
-62
-64
-52
-27
-10
-2
15
18
-13
-43
-43
-39
-46
-44
-44
-52
-40
-32
-60
-53
26
268
905
1580
1266
-55
-980
-803
-298
-104
-72
-34
-24
-20
-4
-1
4
19
29
33
40
50
60
71
86
99
109
122
139
151
162
184
212
236
253
271
292
306
311
312
309
291
243
170
98
41
-13
-65
-103
-118
-121
-128
-141
-145
-135
-125
-126
-131
-132
-130
-124
-119
-120
-126
-132
-131
-130
-135
-140
-141
-139
-134
-125
-126
-137
-127
-104
-106
-122
-118
-109
-118
-128
-122
-111
-103
-94
-86
-88
-92
-78
-66
-83
-103
-95
-73
-57
-39
-16
-1
-4
-20
-44
-62
-58
-50
-56
-62
-65
-62
-39
-40
-74
-52
61
380
1082
1622
1025
-359
-1075
-755
-277
-114
-71
-25
-13
-22
-18
2
18
21
26
38
48
62
82
95
99
103
114
128
148
173
196
213
232
259
285
303
315
332
350
351
331
294
239
165
90
23
-29
-64
-92
-120
-134
-134
-130
-125
-126
-123
-112
-111
-126
-126
-113
-118
-128
-117
-106
-119
-130
-122
-119
-128
-134
-130
-124
-121
-121
-122
-112
-97
-101
-120
-121
-107
-103
-103
-95
-93
-98
-96
-90
-87
-84
-83
-85
-85
-84
-80
-72
-71
-75
-74
-72
-73
-68
-61
-54
-37
-16
-2
9
9
-15
-38
-46
-55
-60
-49
-46
-52
-36
-28
-47
-34
49
359
1083
1634
1010
-382
-1031
-641
-182
-75
-52
-19
-21
-15
2
9
21
34
36
42
53
58
66
82
95
104
115
130
144
158
173
192
214
235
253
270
290
304
305
303
300
280
234
171
105
40
-16
-60
-92
-111
-114
-113
-120
-126
-120
-115
-118
-118
-112
-111
-113
-111
-109
-115
-118
-113
-110
-115
-123
-122
-110
-103
-115
-131
-126
-106
-101
-109
-113
-109
-106
-107
-108
-104
-96
-92
-93
-94
-94
-88
-81
-84
-89
-81
-77
-87
-87
-76
-73
-73
-70
-71
-61
-35
-18
-13
-5
-11
-41
-62
-59
-62
-72
-64
-50
-48
-48
-68
-85
-36
74
389
1082
1548
887
-438
-1063
-745
-291
-100
-42
-27
-25
-6
5
7
18
29
35
47
59
68
81
95
110
128
145
160
176
187
194
210
235
261
287
313
338
357
363
360
348
312
246
167
93
20
-45
-92
-116
-127
-134
-141
-143
-140
-137
-137
-143
-150
-145
-128
-122
-131
-138
-140
-143
-140
-132
-139
-154
-153
-137
-134
-143
-142
-128
-121
-127
-133
-128
-119
-120
-128
-125
-115
-108
-104
-102
-107
-113
-109
-102
-98
-88
-67
-47
-35
-22
-18
-38
-62
-70
-71
-74
-69
-73
-90
-76
-50
-72
-78
-15
151
702
1525
1551
305
-910
-948
-397
-128
-95
-57
-45
-46
-19
0
4
18
28
21
17
33
56
67
81
121
147
127
116
145
172
189
223
262
283
300
321
342
360
369
356
321
266
194
111
33
-25
-73
-114
-134
-137
-144
-150
-145
-138
-137
-134
-132
-133
-127
-117
-120
-127
-126
-121
-121
-123
-121
-119
-120
-120
-116
-113
-112
-110
-106
-104
-103
-101
-98
-96
-94
-93
-93
-89
-81
-78
-79
-78
-75
-73
-72
-72
-73
-74
-70
-60
-41
-22
-10
5
17
0
-33
-44
-42
-48
-49
-40
-48
-56
-39
-47
-68
-33
76
462
1249
1654
791
-597
-1053
-589
-180
-94
-64
-36
-34
-23
-13
-13
-3
10
15
25
38
45
53
68
81
88
100
118
136
151
169
191
211
235
269
299
311
318
330
330
309
274
212
124
42
-18
-72
-119
-147
-164
-179
-183
-174
-169
-171
-168
-161
-158
-155
-151
-151
-153
-149
-148
-152
-154
-153
-155
-156
-155
-156
-159
-159
-155
-153
-154
-154
-149
-144
-142
-140
-137
-135
-130
-125
-122
-121
-119
-118
-115
-110
-101
-86
-69
-54
-35
-21
-35
-67
-82
-75
-75
-79
-74
-74
-79
-61
-59
-91
-73
18
308
1061
1773
1291
-197
-1081
-801
-288
-109
-59
-19
-17
-8
13
20
32
50
60
67
79
93
110
127
141
158
174
189
208
233
254
272
296
325
352
380
408
425
432
432
417
370
295
214
143
74
9
-34
-57
-74
-85
-88
-88
-89
-89
-84
-77
-74
-72
-69
-65
-62
-60
-60
-63
-65
-64
-66
-71
-72
-71
-70
-69
-70
-72
-70
-66
-68
-72
-74
-72
-69
-68
-69
-74
-78
-76
-75
-84
-93
-90
-82
-83
-91
-96
-99
-102
-102
-103
-109
-112
-108
-109
-114
-115
-119
-125
-127
-129
-137
-142
-141
-136
-119
-99
-86
-78
-87
-119
-144
-144
-144
-151
-148
-146
-159
-152
-136
-161
-171
-115
40
569
1408
1516
337
-916
-1054
-554
-266
-199
-150
-138
-144
-128
-113
-104
-88
-74
-65
-52
-37
-26
-13
6
25
41
58
79
101
124
148
173
204
241
275
302
329
355
372
377
370
341
287
217
145
82
36
3
-18
-26
-20
-10
-2
10
27
42
55
67
