# session 17
8
8
2
96
227
239
209
247
288
298
328
364
380
400
423
428
414
377
311
231
157
86
19
-32
-64
-82
-90
-91
-91
-88
-85
-83
-79
-74
-75
-75
-70
-68
-70
-68
-66
-70
-74
-75
-79
-82
-81
-78
-76
-78
-82
-81
-78
-79
-80
-74
-69
-68
-66
-63
-62
-64
-66
-65
-63
-61
-56
-53
-57
-59
-53
-52
-52
-45
-40
-49
-56
-53
-50
-49
-46
-46
-36
-13
-2
-3
6
2
-29
-48
-41
-43
-49
-44
-47
-52
-38
-48
-68
-30
83
449
1188
1593
826
-487
-1000
-629
-225
-101
-62
-39
-41
-28
-13
-14
-8
11
23
28
38
53
64
72
85
102
117
131
143
157
177
203
226
246
274
304
329
344
352
348
328
292
240
169
86
6
-55
-100
-135
-159
-178
-197
-201
-172
-136
-129
-156
-190
-191
-151
-116
-117
-130
-137
-142
-143
-138
-137
-143
-146
-143
-144
-150
-144
-132
-131
-132
-129
-129
-136
-137
-129
-114
-106
-109
-106
-94
-95
-104
-98
-90
-97
-102
-90
-78
-85
-94
-85
-63
-45
-37
-30
-18
-11
-24
-43
-43
-41
-53
-55
-47
-60
-61
-36
-49
-75
-38
90
565
1458
1795
738
-661
-942
-425
-117
-89
-65
-61
-62
-27
-13
-19
-6
7
16
32
38
36
46
64
85
102
102
111
150
189
198
202
230
273
304
321
345
367
378
403
417
343
215
130
74
-4
-73
-108
-133
-145
-135
-134
-149
-153
-152
-160
-155
-131
-116
-116
-115
-117
-123
-115
-104
-109
-119
-112
-96
-94
-105
-109
-105
-106
-112
-116
-115
-98
-80
-94
-114
-101
-82
-90
-97
-89
-87
-98
-103
-93
-82
-81
-81
-80
-81
-82
-77
-73
-68
-59
-58
-67
-75
-81
-77
-58
-44
-37
-14
9
-6
-48
-68
-55
-45
-53
-50
-41
-50
-48
-43
-71
-66
3
190
793
1621
1552
242
-906
-882
-374
-153
-110
-68
-74
-80
-55
-47
-38
-8
10
8
13
30
49
59
70
86
102
120
145
167
177
189
219
261
300
330
349
367
390
406
401
372
317
240
159
80
6
-54
-97
-132
-153
-158
-157
-157
-152
-139
-125
-121
-133
-147
-145
-132
-132
-142
-128
-106
-121
-151
-143
-122
-129
-140
-135
-134
-136
-129
-129
-140
-136
-128
-131
-136
-137
-141
-132
-105
-97
-119
-137
-133
-116
-100
-95
-105
-116
-113
-106
-114
-119
-95
-64
-52
-36
-13
-24
-64
-78
-59
-65
-93
-81
-48
-55
-61
-49
-71
-68
3
214
879
1740
1587
178
-927
-799
-276
-100
-86
-50
-45
-44
-32
-35
-26
-7
-4
3
31
54
62
77
96
95
90
115
149
167
186
213
228
244
294
359
391
394
411
440
437
387
316
231
137
65
26
-14
-67
-111
-140
-149
-133
-113
-117
-132
-135
-131
-131
-132
-135
-140
-134
-125
-127
-129
-118
-116
-131
-139
-135
-138
-144
-134
-124
-135
-146
-137
-132
-139
-131
-111
-109
-117
-108
-97
-104
-108
-95
-88
-92
-90
-80
-74
-76
-77
-74
-70
-68
-66
-70
-78
-75
-62
-53
-46
-41
-44
-52
-56
-55
-54
-50
-41
-32
-28
-20
-13
-13
-4
8
-4
-21
-22
-35
-52
-37
-16
-15
-32
-64
-61
5
200
810
1638
1565
257
-873
-816
-296
-96
-80
-59
-70
-65
-31
-29
-34
-21
-19
-9
28
46
36
43
69
79
79
94
120
139
155
180
212
241
269
301
332
356
377
390
387
372
339
270
173
87
27
-26
-78
-109
-115
-125
-138
-137
-136
-144
-147
-143
-142
-143
-138
-129
-123
-127
-137
-136
-124
-126
-142
-145
-129
-115
-117
-130
-136
-128
-119
-116
-116
-120
-125
-126
-126
-124
-114
-105
-113
-122
-113
-100
-106
-114
-106
-102
-115
-114
-93
-88
-97
-91
-82
-95
-101
-79
-66
-79
-83
-67
-51
-40
-20
-4
-16
-47
-62
-56
-54
-53
-40
-43
-62
-47
-34
-61
-52
29
308
1063
1809
1374
-98
-1008
-761
-255
-72
-52
-57
-58
-15
18
6
-7
3
23
42
45
46
68
79
62
69
119
151
146
165
206
215
213
264
335
354
350
389
436
430
395
361
322
258
160
57
-6
-42
-81
-114
-130
-144
-156
-163
-161
-143
-127
-128
-134
-140
-146
-148
-141
-127
-124
-146
-159
-133
-110
-130
-161
-157
-128
-107
-108
-121
-132
-136
-129
-112
-107
-118
-122
-117
-113
-106
-103
-114
-114
-90
-80
-93
-99
-92
-87
-83
-80
-75
-71
-76
-83
-75
-61
-61
-73
-87
-89
-70
-44
-41
-67
-80
-56
-36
-42
-24
7
-12
-48
-35
-6
-19
-46
-48
-47
-51
-42
-54
-79
-36
64
353
1107
1775
1218
-246
-987
-620
-173
-99
-85
-41
-44
-42
-30
-40
-37
-14
0
17
41
54
63
82
92
91
98
119
148
169
187
218
243
256
287
335
357
355
372
406
410
364
292
216
137
60
-4
-56
-97
-125
-142
-151
-158
-158
-150
-148
-156
-152
-133
-124
-130
-136
-135
-132
-132
-134
-127
-120
-126
-132
-121
-112
-122
-129
-118
-107
-110
-113
-110
-108
-108
-104
-103
-113
-99
-56
-57
-104
-107
-73
-94
-131
-104
-68
-82
-100
-91
-89
-98
-96
-87
-85
-92
-91
-59
-33
-52
-61
-16
15
-10
-47
-80
-96
-69
-48
-80
-105
-65
-38
-77
-83
-12
162
705
1510
1548
346
-852
-923
-406
-140
-97
-59
-42
-39
-23
-19
-15
-1
4
10
29
41
45
60
77
85
98
119
138
156
179
200
229
269
296
310
339
371
389
408
416
372
289
228
186
115
17
-57
-94
-114
-124
-124
-127
-130
-127
-127
-132
-126
-111
-105
-112
-112
-101
-101
-117
-123
-116
-119
-126
-114
-99
-102
-109
-112
-112
-110
-117
-126
-115
-96
-98
-108
-109
-110
-107
-99
-100
-107
-100
-87
-86
-90
-87
-82
-80
-75
-69
-68
-71
-69
-62
-60
-63
-57
-48
-52
-59
-55
-54
-62
-61
-50
-44
-40
-25
7
38
35
1
-20
-22
-32
-36
-21
-18
-34
-36
-24
-39
-60
-22
55
295
983
1692
1311
-87
-980
-714
-196
-71
-96
-68
-45
-21
10
4
-8
4
5
-10
-2
24
40
51
64
76
83
91
105
127
149
161
176
207
239
253
271
313
345
342
332
319
271
197
130
65
-8
-66
-105
-131
-143
-151
-161
-155
-131
-119
-122
-119
-112
-112
-119
-126
-130
-121
-108
-109
-118
-115
-111
-119
-122
-112
-108
-123
-134
-128
-124
-123
-114
-102
-101
-106
-111
-122
-127
-109
-87
-88
-98
-99
-101
-106
-106
-96
-90
-97
-101
-82
-66
-81
-91
-78
-71
-77
-81
-82
-73
-48
-34
-32
-9
21
15
-15
-32
-34
-35
-36
-36
-43
-48
-33
-30
-46
-18
65
371
1166
1866
1310
-192
-998
-677
-220
-104
-67
-29
-42
-40
-15
-4
8
24
24
23
27
27
45
82
105
107
113
124
132
142
164
204
243
263
283
306
317
336
375
390
360
317
269
198
113
33
-39
-95
-127
-146
-160
-162
-160
-167
-164
-148
-135
-118
-114
-151
-171
-120
-73
-98
-134
-123
-98
-105
-150
-207
-225
-175
-112
-103
-123
-119
-108
-106
-96
-111
-171
-188
-116
-52
-68
-105
-108
-101
-114
-129
-103
-54
-41
-61
-82
-110
-122
-82
-37
-47
-77
-78
-65
-59
-53
-46
-61
-96
-103
-60
-21
-17
-7
27
44
22
-3
1
14
-6
-38
-41
-35
-42
-35
-40
-82
-69
19
199
764
1571
1530
266
-861
-816
-281
-85
-104
-75
-38
-24
-17
-25
-18
10
18
17
42
65
60
59
70
83
110
142
149
151
183
213
209
211
254
305
329
326
317
328
349
340
287
216
149
91
28
-47
-103
-119
-119
-124
-130
-134
-139
-134
-126
-127
-132
-126
-122
-130
-131
-119
-116
-130
-136
-125
-117
-119
-120
-124
-135
-139
-137
-135
-127
-118
-121
-124
-121
-123
-120
-105
-104
-114
-109
-102
-106
-102
-93
-93
-90
-79
-86
-95
-75
-60
-74
-82
-71
-79
-96
-87
-68
-63
-52
-19
6
-5
-32
-53
-56
-51
-59
-69
-58
-56
-73
-61
-51
-81
-67
14
232
885
1657
1420
61
-962
-852
-358
-140
-80
-33
-25
-23
-10
-6
4
18
22
26
42
62
76
78
82
106
132
137
141
171
206
218
224
256
299
327
348
377
402
407
395
365
308
231
146
67
2
-55
-102
-123
-126
-138
-151
-147
-141
-143
-141
-134
-134
-139
-140
-139
-139
-132
-126
-135
-147
-146
-141
-146
-148
-147
-149
-147
-139
-138
-145
-142
-133
-130
-128
-124
-123
-123
-115
-107
-109
-114
-111
-107
-105
-99
-90
-89
-89
-83
-83
-88
-87
-82
-76
-62
-45
-29
-9
3
-17
-51
-63
-58
-61
-62
-53
-60
-65
-40
-43
-72
-44
65
468
1323
1805
926
-543
-1024
-544
-154
-94
-64
-37
-47
-34
-12
-7
1
8
7
17
36
51
58
66
79
96
112
126
136
152
182
213
231
251
285
313
329
349
369
369
346
302
236
160
90
28
-27
-73
-108
-128
-136
-140
-140
-138
-134
-131
-131
-129
-125
-122
-119
-115
-116
-118
-116
-113
-113
-115
-117
-117
-113
-110
-111
-114
-115
-115
-111
-104
-103
-107
-105
-103
-103
-97
-91
-93
-93
-85
-82
-85
-82
-77
-79
-79
-75
-72
-68
-66
-67
-68
-66
-65
-64
-63
-63
-61
-60
-53
-32
-10
1
13
22
2
-31
-44
-43
-46
-41
-34
-46
-47
-27
-39
-52
-5
129
580
1369
1612
609
-681
-952
-459
-124
-71
-44
-28
-34
-18
-5
-6
5
17
17
28
44
53
62
73
74
78
104
138
155
157
168
194
221
240
258
278
297
310
319
324
315
280
223
157
90
27
-32
-78
-105
-119
-132
-143
-143
-134
-133
-137
-136
-132
-132
-131
-127
-128
-135
-137
-129
-123
-124
-127
-127
-127
-126
-127
-129
-130
-129
-131
-132
-130
-130
-128
-121
-118
-120
-118
-115
-116
-115
-113
-115
-115
-109
-106
-108
-107
-103
-102
-96
-79
-63
-51
-30
-11
-28
-65
-78
-70
-72
-78
-68
-63
-68
-52
-41
-64
-54
14
223
840
1590
1426
153
-909
-883
-385
-129
-73
-37
-22
-18
-4
2
3
11
25
47
62
58
67
96
106
106
128
147
146
161
195
219
241
270
298
334
374
392
385
384
386
359
296
224
151
75
7
-40
-78
-111
-124
-124
-131
-138
-133
-129
-135
-139
-135
-134
-138
-139
-141
-148
-152
-150
-148
-151
-156
-161
-158
-153
-154
-156
-153
-146
-137
-135
-142
-139
-125
-123
-131
-129
-122
-121
-121
-119
-121
-122
-119
-119
-117
-99
-75
-63
-51
-28
-25
-58
-85
-80
-69
-73
-76
-71
-73
-67
-54
-68
-77
-32
112
576
1323
1501
527
-684
-977
-551
-196
-89
-55
-43
-39
-21
-8
-3
7
20
28
35
43
52
64
84
105
106
106
133
159
168
198
247
267
263
268
283
302
328
346
345
329
289
224
150
83
25
-24
-64
-92
-106
-111
-112
-114
-112
-107
-103
-103
-104
-104
-100
-96
-97
-101
-100
-100
-101
-101
-102
-104
-103
-104
-111
-117
-114
-107
-104
-105
-105
-102
-98
-91
-88
-95
-102
-91
-85
-99
-95
-65
-65
-99
-107
-85
-74
-79
-85
-87
-71
-38
-14
-8
-12
-31
-59
-68
-70
-81
-75
-60
-71
-76
-46
-47
-73
-41
85
505
1302
1675
805
-544
-1010
-622
-239
-113
-64
-45
-42
-25
-17
-20
-14
-4
1
8
15
19
25
34
46
63
76
84
94
113
138
162
183
210
242
261
277
317
354
339
286
245
208
139
56
-9
-63
-113
-144
-156
-160
-157
-157
-158
-132
-106
-124
-146
-129
-106
-95
-90
-104
-117
-102
-87
-91
-94
-91
-88
-78
-65
-58
-54
-54
-58
-62
-71
-80
-73
-68
-78
-82
-74
-78
-87
-76
-65
-79
-88
-75
-77
-93
-90
-74
-79
-94
-93
-72
-55
-47
-33
-15
-20
-48
-66
-71
-84
-85
-63
-63
-83
-71
-61
-78
-52
36
354
1162
1837
1218
-298
-1040
-657
-189
-84
-58
-23
-24
-11
6
-1
0
18
31
39
46
54
65
77
89
103
112
119
133
149
162
180
202
225
249
273
294
314
327
327
313
282
230
161
87
18
-38
-83
-118
-136
-141
-143
-148
-147
-140
-135
-136
-136
-130
-127
-128
-130
-130
-130
-131
-130
-129
-127
-126
-128
-128
-128
-128
-124
-118
-118
-123
-123
-117
-110
-104
-102
-103
-102
-100
-97
-93
-87
-86
-90
-90
-84
-82
-85
-82
-77
-79
-81
-77
-72
-70
-68
-68
-68
-65
-62
-62
-62
-64
-65
-58
-47
-41
-29
-13
-7
-12
-20
-31
-40
-39
-32
-30
-42
-41
-17
-25
-47
-8
105
479
1249
1660
836
-518
-986
-565
-177
-81
-44
-23
-26
-6
14
16
24
35
42
53
60
65
85
103
105
115
137
148
155
171
193
219
246
262
278
304
326
339
351
356
344
314
262
191
120
55
-7
-51
-76
-96
-113
-115
-108
-107
-111
-106
-104
-110
-110
-101
-98
-102
-101
-99
-103
-105
-103
-104
-110
-111
-107
-105
-108
-112
-110
-103
-99
-103
-104
-96
-93
-97
-94
-85
-84
-86
-84
-79
-75
-69
-65
-66
-68
-65
-61
-61
-64
-66
-66
-64
-62
-62
-64
-62
-59
-63
-68
-67
-67
-69
-58
-36
-23
-15
-6
-13
-43
-62
-60
-64
-76
-72
-72
-77
-60
-66
-97
-68
28
343
1124
1743
1087
-398
-1074
-665
-216
-130
-111
-85
-99
-89
-62
-61
-64
-54
-46
-39
-29
-20
-10
0
12
24
34
50
73
87
93
108
137
163
186
209
229
243
252
258
254
229
180
115
48
-9
-56
-103
-135
-143
-147
-159
-159
-146
-136
-130
-121
-112
-104
-97
-88
-79
-74
-73
-64
-49
-39
