# session 11
25
63
-24
63
821
1739
1485
118
-769
-555
-123
-26
-24
19
27
20
32
40
44
49
60
71
75
75
85
97
105
118
133
143
153
165
181
204
225
242
263
285
297
305
313
318
317
304
269
209
142
82
29
-18
-59
-87
-103
-112
-118
-119
-117
-116
-114
-111
-111
-116
-116
-113
-115
-120
-117
-112
-115
-123
-125
-122
-125
-132
-132
-130
-132
-134
-137
-138
-132
-125
-130
-136
-132
-126
-129
-129
-125
-126
-130
-124
-113
-113
-119
-117
-114
-119
-118
-107
-99
-99
-100
-103
-109
-109
-97
-84
-86
-93
-87
-75
-70
-72
-81
-86
-77
-65
-59
-49
-46
-58
-54
-47
-49
-35
-34
-64
-44
50
354
1104
1749
1222
-169
-915
-638
-228
-111
-69
-29
-28
-24
-6
5
14
19
23
34
42
47
60
79
94
113
130
139
154
174
195
221
251
271
287
316
347
368
380
385
381
356
301
227
153
83
17
-36
-71
-92
-104
-110
-113
-112
-112
-115
-111
-100
-100
-109
-109
-101
-100
-106
-107
-105
-110
-119
-119
-116
-117
-118
-116
-121
-125
-120
-116
-120
-118
-107
-103
-112
-116
-109
-100
-98
-102
-104
-99
-91
-91
-96
-99
-100
-97
-86
-82
-91
-95
-91
-89
-89
-86
-82
-76
-74
-81
-91
-94
-90
-79
-67
-56
-40
-21
-22
-47
-66
-63
-63
-63
-49
-56
-73
-51
-45
-87
-76
0
270
1041
1795
1336
-112
-924
-630
-209
-138
-132
-90
-81
-69
-43
-40
-40
-23
-26
-64
-63
9
70
73
63
64
70
78
86
112
163
190
186
217
274
288
276
293
325
345
357
337
272
199
148
101
44
-19
-69
-72
-37
-37
-80
-95
-80
-80
-72
-50
-60
-88
-86
-68
-64
-72
-82
-88
-82
-75
-80
-89
-87
-81
-85
-90
-86
-84
-84
-81
-82
-90
-98
-93
-82
-83
-94
-94
-85
-83
-90
-100
-107
-106
-99
-92
-84
-86
-96
-98
-93
-94
-93
-75
-54
-47
-39
-31
-51
-86
-94
-82
-86
-92
-87
-92
-93
-79
-93
-109
-64
50
459
1270
1633
718
-620
-999
-564
-224
-146
-99
-75
-85
-72
-48
-40
-36
-29
-19
-7
2
14
34
49
58
77
99
111
125
152
179
198
221
253
283
308
330
351
365
369
357
316
248
174
99
21
-44
-86
-114
-136
-146
-150
-154
-151
-140
-132
-128
-122
-119
-117
-110
-103
-107
-113
-114
-113
-113
-113
-116
-119
-116
-114
-119
-120
-117
-119
-122
-114
-103
-102
-107
-105
-101
-101
-105
-105
-100
-91
-78
-66
-52
-30
-16
-31
-61
-74
-74
-77
-78
-70
-76
-88
-67
-59
-94
-82
-4
241
952
1721
1377
-52
-1008
-815
-328
-147
-94
-53
-54
-46
-23
-20
-17
-3
5
15
29
34
37
52
72
86
101
119
136
155
180
206
232
262
296
330
358
379
391
396
386
348
277
189
99
17
-47
-97
-137
-157
-161
-164
-169
-170
-167
-162
-156
-146
-143
-149
-145
-131
-130
-139
-134
-126
-134
-142
-137
-136
-145
-146
-140
-139
-139
-135
-129
-128
-129
-124
-118
-120
-124
-120
-112
-106
-102
-103
-102
-102
-105
-104
-100
-100
-94
-72
-53
-39
-23
-22
-46
-74
-78
-66
-67
-73
-68
-72
-71
-47
-55
-80
-51
64
521
1410
1780
764
-647
-981
-482
-148
-103
-70
-49
-53
-34
-13
-14
-9
8
18
24
44
60
57
64
95
108
105
123
148
165
194
228
249
277
318
342
352
374
398
400
374
327
259
178
101
37
-23
-74
-97
-109
-136
-149
-135
-134
-153
-149
-130
-124
-120
-112
-119
-123
-109
-100
-107
-107
-100
-105
-111
-106
-102
-107
-115
-113
-102
-98
-109
-117
-107
-92
-93
-103
-106
-100
-97
-96
-89
-84
-85
-84
-79
-78
-79
-79
-80
-79
-72
-68
-69
-70
-70
-67
-61
-58
-62
-65
-60
-51
-47
-58
-64
-53
-43
-49
-56
-44
-28
-28
-35
-36
-39
-39
-29
-33
-44
-29
-27
-53
-31
53
336
1054
1661
1111
-262
-949
-607
-182
-95
-76
-36
-35
-30
-13
-10
-6
3
9
15
20
22
31
45
55
65
80
95
111
132
151
162
174
200
232
260
280
300
322
333
327
308
274
211
133
71
24
-30
-77
-98
-109
-122
-126
-125
-118
-104
-112
-136
-120
-82
-89
-110
-94
-77
-87
-98
-105
-108
-97
-83
-89
-100
-97
-99
-112
-112
-97
-87
-89
-100
-110
-105
-84
-77
-84
-78
-65
-81
-107
-95
-63
-65
-79
-61
-52
-82
-89
-61
-58
-66
-45
-39
-72
-84
-55
-34
-39
-51
-60
-60
-51
-45
-50
-47
-40
-44
-44
-36
-41
-34
-4
-4
-27
-24
-31
-61
-46
-23
-57
-58
20
243
871
1606
1373
63
-909
-776
-298
-119
-92
-62
-50
-32
-18
-33
-34
-11
2
3
10
18
25
35
51
63
71
86
107
124
142
168
195
215
229
247
276
301
306
306
312
304
271
218
155
91
31
-22
-60
-76
-89
-109
-118
-117
-122
-118
-93
-79
-86
-94
-104
-119
-118
-98
-84
-91
-107
-112
-110
-117
-125
-119
-104
-99
-106
-111
-113
-117
-111
-93
-90
-103
-96
-76
-82
-96
-86
-79
-87
-77
-55
-60
-78
-74
-63
-71
-78
-69
-65
-67
-57
-51
-63
-69
-60
-57
-61
-57
-55
-60
-60
-56
-50
-40
-34
-43
-48
-37
-27
-28
-27
-24
-30
-30
-26
-33
-27
-14
-36
-37
28
193
680
1389
1411
327
-758
-830
-354
-103
-67
-34
-24
-36
-21
-3
0
4
12
16
32
54
59
55
59
63
72
102
129
133
151
192
203
184
197
241
275
298
317
316
305
307
295
234
151
97
58
0
-56
-83
-100
-114
-116
-112
-111
-112
-110
-105
-103
-104
-103
-102
-105
-106
-101
-100
-107
-109
-107
-112
-121
-118
-110
-112
-121
-118
-102
-102
-120
-122
-107
-105
-108
-97
-87
-94
-102
-96
-78
-73
-87
-94
-86
-80
-72
-64
-76
-85
-75
-77
-84
-70
-59
-56
-42
-33
-55
-77
-74
-58
-54
-58
-51
-39
-35
-27
-15
-27
-49
-44
-28
-33
-37
-28
-22
-21
-31
-48
-32
36
272
881
1484
1150
-69
-884
-700
-243
-85
-68
-34
-26
-39
-35
-17
0
4
5
28
48
37
28
45
65
83
109
118
111
131
168
172
168
195
229
249
268
288
308
315
295
272
256
206
131
75
28
-25
-57
-64
-78
-100
-104
-89
-82
-95
-102
-93
-92
-98
-89
-77
-83
-92
-92
-97
-103
-103
-107
-108
-95
-95
-114
-114
-97
-102
-118
-115
-104
-100
-97
-93
-94
-95
-93
-90
-93
-93
-91
-100
-105
-78
-47
-53
-69
-63
-62
-69
-59
-54
-68
-56
-20
-12
-13
4
-3
-45
-66
-63
-71
-66
-42
-52
-78
-62
-53
-70
-39
75
390
990
1334
715
-436
-970
-678
-267
-112
-71
-47
-49
-47
-32
-25
-25
-15
5
26
31
28
34
51
67
84
103
112
114
130
162
182
188
202
228
255
275
286
293
303
309
288
232
169
121
70
10
-42
-77
-89
-82
-82
-95
-95
-91
-106
-106
-86
-99
-138
-136
-108
-109
-119
-105
-100
-117
-123
-118
-121
-125
-123
-119
-108
-90
-83
-94
-103
-93
-77
-79
-91
-93
-88
-86
-88
-75
-47
-33
-34
-19
-7
-44
-91
-85
-68
-85
-88
-67
-70
-73
-60
-78
-93
-35
196
800
1479
1279
64
-908
-835
-340
-114
-87
-56
-29
-34
-55
-56
-23
-8
-34
-42
-7
21
19
15
22
34
59
93
110
110
123
152
175
190
217
242
250
275
323
334
307
293
257
166
84
37
-24
-84
-103
-120
-154
-161
-141
-141
-162
-166
-143
-121
-121
-131
-129
-113
-104
-116
-128
-115
-100
-104
-107
-101
-104
-109
-102
-94
-97
-109
-108
-82
-65
-89
-112
-103
-98
-110
-100
-70
-50
-38
-24
-19
-21
-32
-57
-74
-69
-58
-54
-58
-63
-44
-18
-35
-52
-4
166
645
1315
1359
359
-734
-894
-432
-129
-83
-64
-47
-52
-42
-28
-23
-12
-3
-7
0
23
44
54
60
67
83
105
123
133
143
163
191
218
236
254
274
291
299
298
295
281
237
168
99
46
-5
-58
-97
-112
-118
-126
-129
-122
-125
-137
-133
-116
-114
-127
-131
-123
-121
-123
-128
-132
-129
-125
-134
-145
-143
-134
-133
-135
-133
-132
-132
-131
-127
-129
-131
-117
-89
-68
-57
-53
-71
-101
-111
-105
-104
-99
-90
-100
-110
-91
-89
-103
-71
28
383
1145
1625
920
-427
-1034
-713
-290
-130
-78
-57
-56
-42
-28
-23
-12
0
5
13
24
36
51
67
80
94
109
123
136
151
175
204
226
241
264
291
312
324
326
322
307
265
194
122
64
10
-44
-87
-110
-117
-117
-114
-115
-118
-117
-113
-111
-105
-98
-99
-102
-102
-102
-105
-106
-106
-106
-108
-114
-120
-119
-108
-102
-105
-111
-111
-103
-95
-95
-103
-102
-92
-89
-91
-91
-92
-91
-84
-80
-84
-88
-88
-84
-67
-45
-29
-12
-2
-20
-55
-68
-62
-67
-69
-62
-68
-69
-52
-66
-77
-32
105
584
1400
1597
526
-743
-948
-451
-149
-103
-72
-58
-58
-37
-21
-17
-8
-4
0
12
26
37
50
63
72
84
101
117
132
149
171
194
212
230
250
271
291
306
312
309
295
259
199
132
70
19
-23
-56
-80
-97
-109
-108
-99
-97
-103
-105
-97
-87
-82
-83
-82
-83
-85
-84
-83
-83
-84
-86
-94
-98
-97
-97
-98
-96
-94
-94
-95
-97
-99
-100
-98
-93
-89
-88
-88
-86
-84
-84
-82
-77
-73
-74
-77
-77
-71
-68
-70
-71
-67
-69
-72
-66
-60
-62
-66
-66
-63
-68
-73
-63
-48
-50
-62
-55
-38
-39
-43
-41
-51
-59
-50
-49
-49
-31
-42
-62
-18
107
532
1360
1739
827
-529
-948
-551
-213
-111
-64
-57
-57
-32
-31
-39
-21
-12
-23
-21
1
31
52
54
57
70
82
101
131
135
109
124
202
244
220
240
308
306
258
263
282
257
202
118
37
24
21
-48
-107
-98
-83
-85
-100
-133
-132
-87
-91
-130
-104
-53
-59
-78
-70
-69
-75
-70
-72
-83
-75
-63
-68
-77
-79
-77
-73
-69
-72
-73
-69
-65
-62
-59
-55
-59
-68
-67
-67
-83
-91
-74
-55
-57
-71
-82
-83
-78
-75
-74
-76
-78
-75
-72
-75
-74
-65
-61
-66
-68
-63
-58
-55
-52
-50
-45
-37
-37
-42
-43
-45
-43
-34
-38
-47
-31
-33
-61
-37
50
348
1074
1633
1026
-318
-930
-578
-182
-91
-62
-39
-52
-42
-21
-20
-18
-7
0
8
17
22
28
40
57
76
92
105
120
139
159
178
199
227
254
275
299
321
329
328
323
296
244
180
114
50
-10
-65
-106
-128
-138
-146
-155
-162
-155
-138
-128
-129
-130
-126
-118
-112
-113
-113
-106
-105
-114
-120
-117
-114
-116
-119
-117
-109
-110
-115
-115
-118
-120
-108
-96
-101
-105
-99
-95
-92
-88
-89
-92
-86
-78
-78
-80
-72
-66
-72
-73
-63
-64
-73
-70
-63
-64
-70
-68
-49
-24
-11
-4
-1
-13
-37
-51
-47
-43
-51
-51
-45
-53
-47
-26
-49
-71
-21
139
667
1513
1645
463
-814
-948
-436
-158
-97
-39
-31
-46
-26
-8
-5
9
26
29
28
34
45
61
77
87
99
117
133
149
173
195
215
246
275
293
319
353
368
371
373
358
310
238
159
95
38
-27
-87
-120
-134
-138
-141
-147
-149
-140
-135
-135
-126
-114
-114
-118
-112
-100
-98
-104
-109
-110
-109
-113
-125
-129
-116
-105
-108
-113
-112
-109
-104
-99
-104
-111
-111
-107
-100
-95
-93
-91
-89
-91
-90
-84
-86
-93
-90
-83
-81
-83
-82
-81
-77
-74
-74
-76
-73
-65
-69
-78
-68
-51
-51
-64
-65
-50
-33
-29
-35
-39
-45
-50
-39
-39
-53
-38
-37
-73
-51
37
304
1061
1789
1281
-204
-987
-639
-193
-105
-76
-33
-40
-37
-17
-11
-9
-3
11
27
26
22
34
52
64
73
81
93
121
147
159
175
203
229
256
289
312
323
336
350
346
314
260
191
113
38
-19
-67
-108
-132
-142
-155
-164
-158
-153
-155
-147
-137
-138
-139
-127
-113
-111
-119
-121
-113
-106
-111
-114
-110
-114
-121
-111
-98
-103
-111
-106
-101
-106
-103
-93
-91
-93
-92
-86
-79
-74
-72
-67
-62
-66
-71
-67
-61
-59
-59
-57
-53
-48
-50
-55
-50
-38
-35
-42
-43
-38
-34
-36
-41
-31
-13
-17
-41
-37
-11
-7
-25
-18
3
-6
-33
-35
-13
1
-12
-38
-30
10
171
732
1472
1408
273
-744
-776
-342
-93
-24
-6
-7
12
26
14
19
35
36
41
44
28
29
65
94
93
90
104
118
123
146
184
200
202
221
236
239
284
347
336
276
268
276
194
70
15
19
11
-38
-102
-137
-142
-153
-171
-174
-166
-166
-173
-186
-206
-213
-204
-192
-162
-133
-169
-225
-171
-75
-101
-181
-160
-99
-109
-143
-138
-123
-115
-101
-89
-79
-59
-43
-35
-19
-15
-45
-64
-40
-33
-77
-90
-47
-37
-69
-60
-23
-28
-52
-52
-45
-45
-34
-22
-25
-32
-35
-33
-8
25
18
-35
-68
-32
11
-26
-75
-37
13
-9
-37
-30
-24
-24
-29
-38
-8
103
414
935
1180
644
-286
-745
-558
-223
-70
-46
-47
-41
-24
-19
-29
-18
16
35
14
-30
-20
65
104
55
41
74
69
68
111
139
147
168
187
202
234
266
279
279
276
283
281
222
128
75
54
0
-58
-76
-91
-121
-125
-109
-111
-120
-113
-101
-100
-102
-102
-102
-98
-87
-81
-97
-123
-116
-80
-83
-121
-108
-62
-58
-81
-82
-75
-72
-62
-49
-37
-31
-41
-51
-45
-33
-18
1
5
-12
-18
-10
-10
