# session 18
48
24
71
86
-3
-45
43
111
88
80
107
110
107
120
121
112
116
129
134
134
139
150
157
160
168
184
193
197
211
229
240
253
270
282
286
287
286
278
257
214
155
96
43
-5
-44
-69
-84
-95
-103
-106
-105
-106
-107
-105
-105
-105
-105
-102
-98
-104
-115
-118
-117
-123
-129
-133
-136
-137
-135
-135
-135
-132
-130
-132
-133
-130
-128
-130
-128
-123
-124
-126
-124
-121
-120
-117
-115
-116
-113
-106
-105
-108
-108
-107
-108
-106
-92
-68
-52
-40
-22
-18
-43
-69
-73
-72
-78
-73
-67
-77
-73
-56
-72
-79
-19
143
619
1346
1460
443
-736
-973
-534
-193
-89
-53
-41
-31
-13
-9
-7
12
26
28
32
43
55
71
87
100
110
123
141
161
178
195
217
243
267
287
310
332
342
345
345
330
286
218
140
67
2
-52
-91
-114
-127
-134
-136
-134
-130
-129
-131
-132
-129
-124
-123
-124
-124
-126
-128
-131
-134
-133
-132
-134
-138
-140
-139
-137
-134
-132
-131
-130
-129
-125
-121
-121
-121
-115
-109
-107
-103
-99
-102
-103
-94
-78
-62
-41
-16
-6
-24
-55
-68
-65
-68
-69
-63
-69
-71
-49
-55
-83
-54
50
454
1340
1873
996
-537
-1074
-594
-178
-104
-71
-43
-49
-33
-16
-17
-10
4
14
25
36
48
59
68
80
94
107
126
146
160
179
211
242
259
275
301
327
339
341
337
317
270
198
116
41
-18
-67
-107
-132
-145
-151
-154
-152
-142
-135
-141
-145
-136
-126
-125
-127
-125
-124
-125
-126
-127
-127
-126
-123
-122
-127
-130
-127
-123
-123
-121
-120
-118
-113
-109
-110
-109
-105
-100
-98
-96
-93
-89
-85
-85
-85
-82
-78
-76
-77
-79
-77
-75
-76
-69
-47
-27
-16
3
20
5
-32
-48
-47
-49
-47
-39
-47
-47
-24
-32
-55
-21
90
466
1227
1630
810
-538
-992
-540
-141
-68
-47
-21
-24
-14
3
8
17
27
31
40
48
51
59
73
88
103
116
128
144
159
175
196
217
232
250
271
285
293
301
305
293
258
204
143
80
21
-30
-68
-94
-110
-118
-121
-121
-117
-113
-113
-112
-105
-102
-103
-104
-100
-97
-97
-102
-104
-102
-100
-105
-110
-110
-112
-113
-108
-102
-105
-110
-110
-106
-107
-105
-100
-98
-98
-96
-92
-91
-89
-87
-88
-87
-80
-74
-75
-77
-76
-74
-69
-64
-67
-68
-62
-62
-66
-58
-47
-53
-64
-61
-43
-23
-7
7
16
8
-15
-35
-40
-39
-39
-35
-31
-38
-40
-23
-27
-47
-19
83
401
1059
1475
843
-389
-944
-605
-177
-52
-38
-19
-13
1
16
7
-7
10
46
63
60
68
71
42
30
82
145
160
152
160
174
183
199
219
232
245
259
272
286
290
279
262
235
177
106
50
3
-43
-75
-89
-99
-101
-93
-89
-95
-103
-109
-114
-108
-97
-99
-104
-99
-96
-105
-110
-115
-115
-104
-105
-130
-142
-126
-110
-113
-128
-128
-114
-117
-134
-131
-116
-116
-126
-129
-122
-112
-106
-101
-100
-106
-104
-98
-111
-119
-92
-67
-82
-105
-104
-76
-43
-35
-38
-9
23
5
-39
-55
-53
-60
-69
-59
-41
-51
-68
-49
-30
-44
-29
85
447
1137
1553
897
-381
-1010
-731
-291
-103
-49
-31
-23
0
12
2
8
32
46
53
67
82
94
106
116
127
148
171
185
192
202
221
248
282
314
333
342
349
358
371
365
310
221
139
68
-9
-78
-118
-140
-162
-178
-179
-170
-163
-167
-174
-172
-160
-156
-163
-163
-156
-158
-161
-150
-147
-166
-176
-159
-147
-157
-163
-152
-141
-139
-138
-128
-117
-116
-122
-121
-115
-114
-113
-108
-111
-121
-120
-103
-84
-70
-57
-37
-13
-15
-55
-86
-76
-60
-68
-74
-66
-67
-60
-45
-67
-77
-22
134
665
1530
1692
514
-817
-1004
-472
-146
-81
-40
-27
-29
-11
-4
-6
8
22
29
41
50
59
75
89
92
99
117
140
156
170
189
217
249
277
303
331
353
363
365
359
328
263
179
99
28
-31
-81
-122
-146
-152
-156
-161
-159
-153
-147
-144
-144
-137
-122
-118
-124
-122
-118
-121
-119
-110
-109
-113
-112
-111
-117
-123
-122
-116
-116
-121
-116
-107
-106
-108
-104
-104
-104
-96
-89
-93
-90
-80
-83
-88
-81
-77
-82
-78
-65
-63
-71
-73
-68
-64
-55
-38
-23
-13
0
8
-6
-34
-47
-48
-55
-55
-43
-47
-53
-34
-40
-69
-32
78
429
1224
1768
1032
-419
-1032
-633
-206
-103
-70
-36
-33
-27
-16
-11
-2
7
14
25
39
52
60
64
75
96
115
125
135
152
179
205
225
247
281
315
337
356
370
368
348
308
240
162
87
11
-57
-101
-133
-157
-167
-167
-171
-169
-160
-155
-154
-152
-151
-147
-137
-134
-140
-145
-140
-134
-130
-129
-132
-137
-137
-133
-135
-139
-136
-132
-133
-132
-127
-123
-119
-114
-114
-115
-111
-106
-105
-105
-103
-100
-95
-88
-89
-96
-94
-87
-90
-95
-89
-78
-67
-51
-34
-16
-1
-8
-38
-56
-49
-49
-61
-57
-49
-56
-45
-33
-62
-63
0
187
831
1744
1698
299
-934
-896
-345
-123
-93
-46
-41
-46
-24
-17
-14
5
17
19
28
43
53
64
78
92
107
124
144
162
181
205
232
259
287
314
339
362
380
388
379
345
284
204
122
50
-11
-62
-93
-114
-134
-146
-144
-140
-138
-134
-130
-129
-126
-122
-116
-109
-107
-103
-97
-100
-110
-111
-105
-100
-100
-102
-103
-97
-92
-92
-92
-90
-90
-91
-86
-75
-71
-78
-78
-66
-62
-66
-65
-60
-56
-56
-58
-54
-45
-47
-55
-53
-50
-49
-42
-37
-45
-45
-33
-35
-49
-46
-34
-34
-34
-31
-35
-41
-38
-34
-35
-35
-31
-23
-21
-25
-31
-33
-28
-21
-27
-37
-32
-23
-23
-23
-26
-35
-36
-30
-28
-27
-25
-24
-12
11
26
36
41
20
-15
-24
-17
-23
-29
-30
-33
-18
-8
-43
-47
25
222
814
1591
1464
165
-886
-766
-247
-79
-79
-46
-42
-46
-25
-17
-16
-4
9
17
18
17
30
49
54
58
73
91
106
124
140
155
173
190
206
230
256
273
284
292
290
280
255
205
141
82
27
-28
-73
-100
-114
-120
-123
-126
-127
-126
-128
-129
-124
-113
-100
-101
-118
-129
-129
-129
-118
-101
-110
-131
-127
-120
-132
-134
-125
-125
-128
-121
-112
-110
-112
-113
-111
-108
-105
-99
-91
-94
-98
-88
-77
-80
-83
-80
-78
-71
-66
-69
-68
-64
-61
-49
-44
-58
-61
-47
-48
-60
-52
-34
-31
-37
-35
-32
-35
-40
-35
-23
-19
-26
-25
-11
-8
-17
-9
8
0
-15
-9
-7
-18
-19
-15
-9
8
4
-17
14
115
421
1070
1491
851
-386
-907
-533
-123
-30
-18
4
4
17
36
33
33
43
50
55
59
60
70
86
96
106
119
124
131
152
171
182
200
226
248
261
273
288
301
306
296
266
221
176
121
48
-22
-65
-87
-109
-136
-147
-136
-128
-130
-127
-123
-125
-121
-115
-129
-146
-138
-119
-119
-131
-133
-129
-130
-135
-134
-122
-115
-126
-135
-128
-125
-132
-126
-113
-115
-119
-111
-106
-111
-111
-106
-107
-113
-111
-97
-83
-87
-100
-99
-86
-84
-94
-96
-86
-76
-71
-73
-74
-67
-60
-68
-78
-67
-46
-41
-39
-22
-5
-6
-18
-30
-39
-41
-33
-25
-42
-56
-28
-13
-49
-43
50
302
932
1599
1306
12
-947
-846
-356
-113
-47
-13
-7
0
17
22
27
47
66
68
59
61
85
108
117
123
134
150
166
178
190
211
235
254
277
311
339
348
352
357
348
318
272
205
123
53
-8
-69
-108
-121
-129
-137
-142
-144
-140
-131
-128
-130
-134
-139
-138
-134
-137
-141
-136
-130
-133
-141
-146
-144
-146
-155
-157
-143
-127
-126
-133
-136
-137
-144
-142
-129
-122
-125
-120
-114
-119
-119
-108
-105
-112
-108
-96
-98
-107
-97
-82
-85
-93
-78
-51
-36
-25
-9
-9
-37
-67
-69
-60
-58
-53
-54
-64
-52
-43
-72
-64
16
255
927
1684
1396
2
-986
-803
-289
-107
-76
-40
-38
-36
-22
-18
-6
10
13
17
29
39
49
61
70
81
95
108
122
148
179
203
222
239
255
282
316
334
338
346
344
303
237
177
114
35
-36
-73
-104
-145
-161
-143
-134
-143
-139
-132
-141
-146
-135
-124
-121
-120
-125
-126
-110
-101
-115
-120
-104
-96
-104
-105
-102
-100
-92
-87
-91
-86
-72
-66
-71
-73
-72
-66
-62
-61
-51
-37
-42
-57
-51
-36
-38
-48
-51
-51
-51
-47
-44
-39
-35
-44
-49
-30
-8
10
33
24
-30
-57
-34
-30
-50
-48
-61
-98
-76
-26
-49
-70
-8
190
770
1516
1383
123
-916
-845
-351
-137
-92
-65
-84
-86
-56
-56
-59
-34
-20
-24
-15
3
10
10
28
61
85
95
104
118
140
174
202
221
252
290
310
321
340
356
356
337
294
217
119
34
-20
-59
-99
-125
-133
-143
-157
-164
-163
-160
-161
-160
-144
-123
-123
-141
-147
-142
-149
-163
-156
-138
-139
-154
-152
-136
-134
-144
-149
-147
-144
-144
-140
-130
-122
-121
-119
-111
-106
-108
-113
-107
-88
-75
-69
-59
-34
-4
-1
-36
-65
-58
-50
-64
-66
-49
-54
-60
-39
-45
-67
-31
78
468
1305
1796
965
-489
-1044
-633
-209
-80
-37
-34
-51
-29
-3
-3
6
21
22
30
53
56
37
51
106
134
118
115
144
174
195
213
229
255
305
351
359
353
368
388
369
302
208
115
41
-19
-75
-120
-145
-152
-159
-169
-167
-154
-154
-162
-155
-139
-138
-146
-143
-132
-129
-132
-132
-129
-130
-134
-137
-133
-123
-124
-137
-134
-116
-120
-138
-129
-102
-95
-102
-103
-118
-149
-145
-90
-48
-61
-86
-86
-79
-80
-80
-76
-79
-80
-70
-62
-70
-63
-29
-2
6
16
17
-7
-39
-54
-54
-47
-35
-32
-45
-44
-30
-41
-40
15
250
926
1667
1366
-18
-983
-775
-253
-94
-85
-45
-42
-46
-15
4
2
-1
3
26
59
64
50
50
65
80
93
106
127
154
170
178
196
224
255
281
299
320
340
343
331
309
256
171
86
21
-36
-87
-122
-139
-146
-151
-156
-159
-157
-154
-152
-150
-142
-130
-117
-120
-132
-131
-127
-140
-143
-118
-99
-115
-137
-138
-131
-138
-144
-133
-119
-115
-118
-119
-117
-122
-141
-147
-120
-94
-101
-116
-110
-98
-100
-106
-105
-98
-78
-59
-59
-50
-14
-2
-39
-80
-87
-72
-64
-70
-83
-77
-40
-26
-68
-82
-21
143
691
1567
1720
538
-780
-969
-460
-151
-87
-46
-35
-38
-21
-8
0
14
20
25
32
40
55
73
82
90
110
134
150
162
181
211
237
261
293
327
350
370
389
394
378
347
293
208
113
41
-10
-70
-130
-154
-147
-140
-139
-139
-143
-142
-132
-128
-130
-125
-122
-132
-134
-120
-113
-123
-129
-123
-118
-131
-150
-143
-118
-108
-118
-120
-112
-111
-121
-124
-117
-112
-112
-111
-115
-122
-112
-90
-87
-97
-99
-102
-101
-81
-71
-92
-100
-71
-54
-63
-63
-57
-63
-66
-65
-74
-77
-59
-52
-58
-45
-17
0
10
16
1
-27
-42
-42
-40
-40
-37
-38
-32
-17
-32
-54
-12
73
383
1185
1805
1126
-339
-968
-557
-148
-90
-70
-24
-19
-18
-16
-18
1
17
10
10
29
48
54
61
79
94
96
106
134
155
166
191
224
242
254
279
305
324
343
350
332
297
249
177
90
16
-33
-67
-96
-126
-144
-144
-139
-133
-131
-138
-146
-136
-125
-129
-133
-131
-131
-126
-117
-117
-119
-121
-127
-127
-116
-114
-123
-123
-115
-118
-128
-123
-106
-100
-103
-101
-100
-103
-102
-98
-97
-94
-90
-87
-89
-91
-90
-81
-77
-86
-85
-69
-63
-70
-72
-67
-67
-68
-65
-67
-76
-79
-60
-31
-11
2
13
12
-11
-43
-54
-36
-26
-31
-26
-26
-41
-31
-24
-54
-39
50
318
1045
1788
1384
-71
-994
-762
-274
-106
-60
-22
-26
-20
0
-1
2
19
27
27
35
50
59
67
83
100
113
127
140
153
177
208
231
248
275
311
338
352
359
365
358
322
253
173
100
30
-38
-91
-124
-147
-162
-165
-162
-160
-161
-159
-157
-154
-150
-147
-148
-147
-142
-139
-140
-141
-146
-153
-152
-144
-143
-147
-146
-143
-144
-141
-135
-132
-131
-128
-128
-128
-120
-116
-122
-120
-111
-112
-112
-103
-99
-104
-102
-100
-100
-93
-88
-94
-96
-84
-74
-77
-83
-82
-82
-85
-83
-81
-86
-81
-65
-53
-41
-23
-16
-26
-42
-55
-53
-47
-49
-41
-34
-46
-38
-25
-55
-50
29
228
864
1744
1673
306
-874
-839
-328
-115
-68
-14
-9
-19
1
18
32
49
54
53
62
79
95
115
129
131
138
163
187
205
227
248
263
292
332
359
378
402
419
424
422
399
339
261
187
115
42
-15
-48
-70
-87
-97
-99
-100
-101
-96
-91
-91
-88
-82
-84
-87
-83
-80
-85
-91
-90
-85
-83
-92
-101
-98
-91
-95
-106
-107
-100
-94
-92
-99
-106
-105
-97
-95
-98
-103
-103
-100
-97
-99
-103
-107
-106
-99
-101
-113
-121
-114
-108
-113
-120
-119
-117
-121
-124
-123
-121
-122
-125
-131
-130
-120
-120
-137
-146
-134
-124
-127
-131
-127
-119
-117
-123
-129
-134
-134
-126
-129
-139
-124
-118
-144
-129
-49
250
1029
1717
1166
-304
-1048
-680
-239
-173
-162
-120
-120
-112
-91
-87
-75
-55
-46
-39
-26
-11
3
16
33
57
80
99
118
138
162
189
216
244
277
310
334
353
370
383
383
361
324
278
221
162
122
99
73
49
43
48
57
72
