# session 25
5
40
-46
10
331
556
481
365
352
309
215
160
152
162
152
113
95
111
121
128
124
81
58
81
77
52
57
48
25
48
52
-4
-1
50
10
-54
-20
16
-18
-31
0
8
-15
-38
-48
-40
-38
-44
-37
-44
-73
-55
-1
-5
-49
-23
36
4
-74
-68
-31
-78
-126
-82
-42
-75
-103
-99
-105
-95
-35
190
779
1383
1119
-33
-923
-905
-502
-245
-128
-80
-89
-86
-65
-69
-70
-45
-25
-13
9
17
15
33
59
62
61
77
101
127
150
159
173
206
232
241
253
270
279
273
249
213
167
100
22
-36
-73
-100
-115
-130
-146
-141
-131
-139
-143
-133
-131
-140
-134
-120
-117
-126
-138
-146
-145
-142
-141
-135
-135
-146
-143
-129
-132
-142
-133
-121
-125
-132
-126
-110
-95
-98
-115
-114
-95
-89
-95
-87
-64
-43
-29
-16
1
0
-30
-54
-49
-45
-52
-44
-38
-59
-64
-54
-56
-26
60
310
947
1551
1130
-188
-1004
-775
-294
-105
-50
-14
-19
-12
13
18
23
39
47
51
65
77
85
97
110
122
138
156
173
189
208
231
257
277
293
313
328
332
335
337
315
265
207
145
75
11
-34
-66
-91
-103
-112
-123
-122
-114
-119
-126
-121
-119
-121
-118
-113
-112
-113
-117
-125
-130
-130
-129
-133
-137
-135
-133
-137
-140
-137
-136
-137
-137
-134
-134
-134
-135
-138
-137
-129
-130
-131
-112
-91
-83
-67
-53
-80
-124
-134
-122
-120
-123
-120
-125
-125
-99
-89
-109
-82
15
317
1038
1640
1100
-294
-1081
-833
-372
-167
-81
-40
-38
-21
-3
0
14
32
35
37
39
34
41
74
111
123
106
92
114
158
180
183
204
239
257
264
283
302
300
282
257
216
163
119
61
-17
-56
-42
-56
-105
-114
-89
-87
-95
-92
-86
-82
-76
-67
-61
-63
-65
-69
-77
-73
-58
-72
-100
-79
-39
-69
-135
-141
-104
-95
-108
-108
-106
-108
-104
-102
-108
-97
-73
-70
-86
-88
-70
-48
-29
-17
-8
4
-6
-47
-68
-44
-33
-60
-72
-59
-51
-43
-47
-68
-43
54
319
911
1423
1022
-144
-900
-759
-335
-120
-52
-30
-35
-22
6
10
5
13
16
15
26
37
43
59
78
84
89
102
113
123
141
164
196
230
241
245
275
301
278
240
225
201
134
60
13
-28
-84
-134
-161
-174
-179
-178
-182
-192
-186
-160
-152
-171
-177
-160
-147
-141
-138
-142
-146
-137
-126
-127
-131
-125
-111
-113
-136
-143
-123
-104
-101
-106
-114
-114
-101
-86
-72
-64
-63
-40
2
-9
-72
-90
-60
-56
-66
-51
-49
-72
-72
-75
-114
-101
-9
221
869
1643
1417
33
-1031
-905
-361
-130
-87
-54
-50
-46
-27
-17
-5
5
7
23
44
43
37
52
79
100
114
126
142
172
200
207
217
253
292
312
326
340
349
348
319
249
171
110
49
-19
-75
-111
-134
-148
-136
-118
-135
-165
-153
-127
-131
-133
-114
-100
-94
-86
-96
-113
-102
-82
-84
-88
-79
-84
-102
-97
-83
-87
-95
-95
-92
-87
-83
-94
-103
-97
-91
-103
-116
-101
-62
-42
-44
-33
-27
-63
-112
-141
-160
-166
-140
-106
-104
-95
-61
-68
-93
-44
101
561
1417
1726
630
-852
-1191
-626
-218
-132
-86
-65
-65
-38
-21
-20
1
16
8
16
51
72
63
62
105
163
188
190
210
238
245
253
293
346
372
382
403
425
418
382
328
250
147
46
-23
-69
-120
-165
-175
-170
-178
-192
-188
-156
-116
-101
-109
-105
-89
-90
-97
-86
-68
-61
-62
-70
-89
-107
-124
-151
-174
-180
-186
-197
-202
-211
-229
-233
-213
-182
-159
-149
-136
-100
-76
-103
-145
-152
-143
-153
-169
-163
-164
-184
-168
-138
-153
-139
-43
252
1055
1909
1490
-163
-1243
-987
-416
-202
-133
-94
-105
-86
-53
-59
-67
-55
-42
-39
-44
-38
-12
15
40
68
81
78
89
117
140
168
217
271
302
315
331
347
349
331
287
214
124
39
-28
-76
-121
-161
-180
-181
-185
-191
-191
-197
-213
-221
-209
-182
-154
-141
-139
-141
-140
-132
-112
-90
-74
-64
-60
-49
-32
-23
-23
-17
-12
-13
-13
-5
7
15
17
27
41
44
43
49
54
65
87
96
88
90
106
123
138
149
156
149
117
89
98
113
98
91
101
91
88
96
76
85
154
395
1133
1984
1659
81
-1028
-817
-248
-53
-16
25
28
48
88
96
100
119
127
128
134
137
144
160
162
151
159
184
193
193
205
222
234
252
271
276
277
285
279
237
174
114
47
-44
-139
-213
-276
-332
-370
-398
-419
-425
-434
-465
-487
-476
-447
-419
-412
-436
-454
-438
-422
-422
-411
-395
-394
-388
-373
-373
-378
-367
-346
-300
-207
-107
-56
-34
15
79
113
135
188
248
274
270
245
192
130
71
3
-67
-124
-181
-248
-302
-342
-388
-446
-503
-550
-593
-639
-680
-708
-736
-762
-772
-780
-796
-789
-764
-766
-795
-806
-799
-812
-831
-812
-785
-797
-780
-714
-690
-640
-435
-69
652
1637
1828
700
-423
-356
305
712
942
1194
1411
1596
1746
1802
1785
1748
1707
1672
1636
1571
1491
1429
1371
1296
1220
1152
1074
990
916
849
786
736
698
660
615
566
517
472
415
329
218
104
-7
-120
-219
-291
-350
-401
-429
-445
-470
-498
-510
-515
-530
-547
-547
-534
-535
-552
-562
-558
-551
-550
-549
-537
-520
-509
-503
-493
-479
-467
-457
-448
-431
-404
-379
-366
-354
-338
-331
-328
-317
-311
-309
-291
-268
-269
-269
-250
-243
-249
-230
-195
-180
-178
-167
-154
-148
-141
-128
-114
-93
-65
-49
-38
-7
25
33
48
84
99
85
86
102
102
99
111
109
79
24
-78
-169
-151
-50
315
1195
1804
965
-667
-1312
-832
-378
-306
-297
-293
-317
-314
-304
-303
-285
-265
-256
-241
-217
-184
-141
-109
-95
-72
-23
30
64
93
137
181
213
256
311
351
368
376
379
376
368
332
257
180
126
52
-51
-111
-98
-72
-77
-84
-58
-17
3
6
19
34
34
33
44
48
48
68
89
86
83
101
115
106
98
106
116
113
102
103
117
122
112
108
117
118
105
97
97
92
86
78
70
75
82
68
54
59
59
47
41
36
28
30
29
11
-3
-1
5
0
-13
-21
-25
-32
-38
-35
-36
-44
-48
-45
-46
-53
-46
-17
10
9
-22
-60
-83
-87
-87
-88
-93
-106
-99
-81
-111
-138
-86
74
593
1462
1652
464
-927
-1156
-629
-293
-206
-145
-135
-153
-134
-114
-111
-103
-85
-65
-55
-58
-57
-34
-9
0
11
37
59
72
91
117
138
162
197
235
263
281
296
306
306
287
238
163
82
13
-49
-107
-150
-166
-166
-170
-181
-180
-156
-135
-134
-135
-131
-128
-125
-115
-112
-119
-118
-106
-102
-105
-98
-86
-85
-82
-71
-62
-57
-53
-52
-52
-40
-22
-14
-12
-10
-6
-2
2
6
8
1
-4
6
17
15
9
10
9
4
0
-5
-10
-14
-14
-10
-5
-2
8
30
49
46
10
-46
-70
-49
-43
-64
-70
-67
-65
-63
-83
-88
-57
91
747
1764
1788
275
-1122
-1094
-460
-203
-194
-181
-186
-169
-128
-130
-152
-163
-149
-117
-122
-160
-163
-136
-109
-88
-102
-130
-105
-56
-28
6
21
-35
-94
-72
-6
28
2
-43
-70
-108
-173
-240
-325
-408
-395
-333
-338
-342
-254
-159
-102
-15
90
163
239
328
383
419
448
429
391
388
382
355
353
356
330
318
332
322
292
270
250
236
229
203
175
178
179
153
133
130
115
99
94
70
31
17
22
14
8
6
-19
-40
-16
4
-21
-47
-49
-57
-62
-42
-24
-18
-12
-30
-84
-122
-119
-120
-144
-158
-162
-175
-189
-206
-207
-156
-77
166
844
1478
1004
-381
-1183
-905
-427
-260
-204
-175
-199
-185
-141
-137
-134
-104
-82
-79
-83
-93
-85
-46
-11
-12
-24
-4
51
92
88
78
110
163
188
189
197
222
250
247
213
185
147
57
-42
-94
-120
-146
-161
-172
-193
-198
-174
-153
-167
-178
-145
-112
-120
-126
-106
-91
-84
-84
-104
-114
-88
-67
-72
-85
-96
-91
-74
-67
-76
-88
-84
-59
-52
-74
-69
-37
-40
-69
-65
-35
-25
-41
-48
-32
-24
-42
-50
-34
-20
-18
-22
-29
-20
1
-1
-9
20
55
50
41
57
58
28
2
-7
-7
6
17
0
-11
1
-17
-32
25
145
501
1198
1522
703
-556
-962
-531
-130
-29
-10
6
12
29
39
35
37
49
59
61
66
83
102
107
106
113
133
152
158
162
184
214
238
263
295
318
322
325
342
351
318
248
170
99
37
-24
-81
-124
-144
-152
-163
-170
-168
-166
-162
-147
-145
-160
-150
-123
-134
-164
-160
-142
-146
-161
-162
-146
-138
-156
-177
-178
-166
-153
-149
-157
-152
-136
-142
-158
-149
-135
-136
-134
-120
-117
-125
-123
-116
-111
-106
-104
-99
-81
-64
-61
-41
-14
-27
-63
-68
-64
-82
-89
-69
-62
-72
-61
-58
-79
-50
44
296
937
1558
1160
-150
-997
-815
-347
-126
-45
-16
-28
-8
34
32
12
24
48
49
46
68
94
98
104
127
145
150
160
173
191
228
273
295
302
322
349
364
374
379
348
279
207
139
56
-24
-68
-93
-125
-138
-120
-113
-134
-151
-147
-136
-132
-139
-139
-123
-114
-122
-130
-132
-130
-122
-125
-139
-139
-127
-128
-130
-123
-125
-136
-136
-128
-123
-110
-97
-107
-126
-124
-112
-105
-100
-97
-103
-106
-96
-82
-78
-87
-95
-87
-60
-36
-26
-14
1
-11
-44
-53
-42
-45
-53
-56
-68
-63
-33
-39
-59
-17
109
513
1255
1533
616
-657
-982
-515
-153
-77
-42
-15
-13
0
7
3
16
34
37
40
57
73
79
80
87
103
122
140
156
176
198
218
240
264
286
310
330
336
335
331
302
242
172
101
28
-35
-77
-99
-119
-139
-145
-136
-134
-143
-143
-137
-133
-125
-118
-116
-116
-114
-114
-113
-112
-110
-114
-123
-121
-111
-115
-132
-132
-119
-115
-115
-112
-115
-122
-118
-109
-108
-109
-108
-110
-106
-100
-103
-102
-93
-96
-104
-94
-71
-53
-40
-27
-18
-30
-60
-76
-71
-71
-76
-72
-75
-76
-60
-68
-82
-34
72
402
1122
1572
855
-485
-1070
-719
-273
-109
-61
-37
-31
-18
-2
6
15
22
32
47
60
68
77
88
97
114
137
157
167
181
207
237
258
280
310
338
359
371
377
367
335
275
196
114
45
-13
-64
-99
-119
-133
-140
-137
-137
-140
-131
-119
-116
-116
-114
-118
-121
-118
-119
-123
-122
-124
-128
-124
-124
-134
-135
-122
-118
-131
-137
-126
-124
-136
-140
-132
-120
-109
-109
-118
-115
-104
-109
-118
-107
-81
-54
-37
-29
-34
-59
-91
-102
-101
-108
-108
-97
-100
-97
-85
-105
-101
-27
120
608
1427
1553
371
-905
-1018
-464
-161
-103
-51
-33
-40
-19
-1
3
22
45
48
38
37
56
76
87
106
130
139
141
159
192
219
233
251
277
305
333
351
346
335
328
296
221
135
68
10
-45
-81
-102
-126
-142
-136
-128
-134
-137
-132
-132
-127
-110
-108
-123
-122
-112
-111
-107
-99
-105
-118
-122
-123
-114
-102
-108
-122
-115
-102
-104
-110
-103
-96
-95
-89
-82
-89
-96
-83
-68
-74
-86
-81
-73
-80
-78
-48
-23
-20
-11
1
-18
-55
-67
-59
-56
-53
-56
-68
-60
-51
-79
-71
10
185
684
1381
1355
238
-836
-889
-404
-132
-73
-32
-22
-34
-22
-3
2
3
13
28
33
37
54
72
79
90
107
119
129
142
161
183
207
232
258
277
291
308
318
307
288
257
192
116
59
5
-55
-102
-134
-161
-171
-170
-169
-162
-149
-147
-153
-160
-168
-161
-132
-114
-123
-131
-123
-122
-133
-142
-141
-137
-137
-136
-128
-119
-120
-127
-124
-110
-101
-101
-98
-91
-92
-92
-76
-61
-56
-41
-15
8
24
15
-19
-34
-20
-25
-49
-45
-31
-44
-49
-39
-59
-59
14
189
705
1469
1526
394
-823
-1025
-578
-238
-106
-56
-65
-76
-53
-23
-10
-14
-21
-14
0
9
20
35
50
71
95
112
129
150
169
188
210
243
286
317
325
334
351
344
305
252
184
94
17
-22
-55
-106
-144
-147
-144
-164
-182
-168
-143
-138
-142
-131
-118
-120
-132
-140
-134
-115
-112
-128
-128
-117
-136
-159
-143
-115
-118
-131
-137
-138
-121
-97
-101
-111
-104
-111
-139
-137
-110
-103
-108
-96
-76
-57
-25
1
-14
-55
-71
-61
-59
-58
-44
-46
-58
-45
-42
-59
-26
65
344
1010
1543
1002
-289
-976
-702
-263
-93
-38
-9
-6
10
29
33
46
55
43
39
60
82
89
93
109
136
151
152
158
182
211
232
252
279
306
329
349
359
357
339
298
237
167
93
21
-35
-78
-111
-128
-135
-141
-143
-145
-151
-146
-136
-134
-132
-122
-122
-135
-138
-127
-123
-130
-132
-127
-126
-132
-133
-127
-123
-123
-121
-116
-115
-117
-115
-109
-103
-99
-98
-99
-96
-93
-91
-88
-85
-86
-83
-75
-71
-78
-82
-77
-71
-65
-50
-33
-19
-2
1
-30
-62
-62
-56
-67
-66
-58
-65
-61
-56
-78
-67
4
222
855
1584
1314
-52
-1046
-878
-347
-145
-111
-67
-59
-59
-40
-35
-34
-19
-8
-5
7
24
32
40
57
74
83
94
113
129
148
175
201
220
246
277
297
308
321
325
302
255
195
120
41
-18
-56
-89
-117
-134
-145
-146
-135
-123
-123
-124
-118
-113
-110
-101
-89
-88
-88
-78
-70
-72
-72
-67
-62
-57
-50
-49
-50
-50
-48
-41
-35
-35
-34
-28
-27
