# session 16
-177
-157
-184
-142
13
127
123
100
115
129
133
141
155
169
159
124
103
105
98
87
94
92
84
98
93
55
76
173
482
1259
1930
1348
-151
-927
-584
-123
-4
33
65
52
60
82
82
82
92
98
103
108
113
124
136
145
157
172
183
195
213
235
255
278
305
330
353
378
397
409
413
398
353
286
205
122
48
-11
-62
-103
-126
-135
-142
-145
-144
-145
-145
-140
-133
-130
-131
-128
-123
-123
-124
-123
-121
-121
-121
-121
-123
-124
-124
-122
-119
-119
-120
-118
-119
-119
-111
-105
-109
-112
-109
-107
-105
-99
-96
-94
-91
-88
-88
-86
-85
-86
-85
-82
-80
-80
-81
-81
-77
-74
-74
-72
-69
-71
-76
-75
-70
-67
-68
-68
-68
-66
-64
-63
-64
-62
-58
-59
-65
-67
-59
-44
-27
-14
4
24
17
-16
-36
-35
-35
-34
-30
-43
-46
-23
-35
-59
-11
122
534
1321
1662
734
-613
-972
-491
-136
-81
-52
-30
-35
-17
1
4
16
27
27
31
44
56
64
74
86
99
113
128
141
154
173
196
216
239
268
298
321
333
339
344
340
309
253
184
111
37
-27
-73
-107
-135
-151
-153
-152
-152
-151
-148
-144
-146
-148
-144
-136
-131
-130
-129
-129
-131
-128
-123
-125
-131
-131
-130
-134
-132
-126
-122
-121
-119
-116
-115
-113
-111
-111
-111
-109
-106
-104
-103
-100
-96
-93
-90
-87
-82
-80
-81
-80
-73
-68
-71
-71
-67
-67
-66
-63
-62
-54
-34
-16
-4
14
17
-12
-39
-39
-36
-42
-37
-35
-46
-33
-20
-54
-57
20
221
826
1645
1568
255
-905
-894
-378
-135
-83
-40
-33
-33
-12
-3
-2
8
19
29
37
45
57
70
81
94
109
124
141
160
178
199
225
250
277
310
339
358
373
386
382
353
298
221
133
55
-8
-59
-102
-129
-141
-149
-153
-150
-145
-142
-138
-133
-130
-127
-125
-125
-122
-119
-118
-116
-114
-116
-120
-123
-125
-123
-119
-119
-119
-115
-110
-105
-105
-112
-112
-103
-98
-97
-95
-92
-90
-86
-81
-79
-79
-79
-76
-70
-64
-67
-70
-64
-61
-67
-70
-65
-59
-55
-54
-59
-60
-52
-50
-57
-56
-50
-53
-56
-53
-51
-52
-47
-42
-47
-48
-31
-15
-20
-24
-21
-27
-34
-30
-35
-34
-13
-25
-50
-14
110
536
1361
1743
833
-540
-956
-521
-171
-94
-48
-23
-38
-26
0
5
6
14
24
31
38
46
55
68
83
95
107
119
133
152
177
198
219
252
286
306
326
353
372
380
377
347
280
190
100
27
-26
-78
-132
-163
-163
-162
-168
-165
-151
-143
-145
-149
-150
-145
-138
-135
-137
-135
-134
-139
-144
-142
-141
-139
-137
-139
-145
-147
-145
-143
-140
-142
-145
-138
-128
-132
-135
-127
-119
-120
-120
-114
-109
-106
-101
-95
-97
-100
-94
-86
-88
-94
-94
-90
-91
-92
-82
-64
-46
-24
0
3
-22
-49
-57
-56
-56
-49
-49
-59
-44
-36
-63
-52
15
266
1066
1968
1613
14
-1018
-736
-209
-97
-89
-45
-54
-56
-29
-22
-18
-1
7
13
27
36
42
54
68
82
97
113
129
146
170
198
224
252
282
312
344
368
378
380
373
343
280
194
107
33
-35
-95
-136
-158
-169
-172
-171
-169
-165
-159
-153
-148
-144
-142
-139
-133
-128
-123
-119
-117
-117
-118
-116
-109
-108
-115
-116
-107
-104
-107
-103
-97
-97
-95
-88
-82
-84
-81
-73
-69
-70
-70
-66
-62
-61
-60
-58
-57
-60
-63
-58
-52
-52
-55
-56
-55
-55
-55
-54
-52
-49
-49
-52
-44
-18
0
5
19
21
-13
-43
-37
-35
-53
-57
-44
-40
-30
-34
-61
-42
52
307
925
1518
1134
-151
-996
-803
-313
-111
-68
-37
-29
-25
-16
-15
-3
14
16
19
31
39
49
70
86
92
98
112
133
150
162
182
212
237
260
288
314
333
352
365
361
333
278
206
129
51
-20
-73
-109
-137
-155
-161
-161
-158
-153
-147
-144
-142
-139
-135
-131
-130
-130
-129
-129
-130
-130
-128
-131
-135
-134
-131
-133
-134
-129
-126
-130
-133
-130
-129
-129
-127
-128
-128
-122
-117
-116
-114
-109
-107
-108
-106
-106
-100
-81
-61
-45
-23
-13
-36
-69
-75
-68
-74
-75
-66
-74
-74
-54
-70
-89
-45
97
623
1555
1831
664
-775
-1031
-488
-155
-102
-62
-48
-53
-31
-18
-16
-2
7
8
19
36
47
57
73
89
101
115
135
157
178
199
223
251
284
315
341
363
380
388
384
357
300
220
135
56
-10
-60
-99
-129
-146
-150
-149
-151
-148
-141
-136
-134
-133
-128
-121
-117
-118
-117
-114
-113
-114
-114
-114
-114
-113
-115
-119
-116
-108
-107
-112
-114
-114
-113
-107
-102
-102
-100
-96
-93
-93
-89
-82
-80
-80
-79
-76
-74
-75
-75
-72
-68
-66
-66
-63
-57
-58
-64
-63
-58
-58
-60
-58
-55
-44
-23
-6
6
24
24
-8
-36
-38
-37
-42
-36
-35
-42
-28
-25
-54
-36
53
320
1008
1685
1267
-124
-986
-732
-242
-90
-67
-34
-35
-30
-9
-4
-2
10
18
23
33
43
52
61
71
89
107
121
133
147
164
184
209
236
262
285
303
318
332
342
337
311
261
196
129
62
-4
-55
-89
-113
-129
-135
-134
-135
-144
-147
-132
-117
-115
-111
-111
-126
-135
-121
-103
-102
-116
-133
-141
-139
-138
-138
-132
-124
-119
-126
-140
-148
-144
-137
-132
-130
-131
-126
-117
-117
-122
-124
-122
-118
-110
-105
-105
-102
-97
-94
-92
-90
-84
-75
-72
-73
-74
-72
-71
-68
-58
-41
-22
-3
17
23
-3
-37
-42
-33
-41
-48
-41
-45
-46
-29
-47
-70
-22
105
570
1498
1913
866
-642
-1033
-522
-166
-108
-62
-35
-46
-33
-15
-11
-4
4
14
28
36
45
65
78
84
102
123
134
150
171
193
225
257
276
299
333
360
379
398
402
379
329
260
177
89
12
-43
-90
-126
-138
-143
-157
-156
-138
-134
-141
-133
-123
-127
-133
-126
-117
-120
-125
-124
-125
-131
-132
-127
-125
-126
-130
-133
-129
-120
-118
-121
-125
-125
-121
-117
-117
-117
-111
-104
-108
-118
-113
-95
-84
-85
-85
-80
-87
-104
-106
-85
-66
-62
-63
-63
-61
-60
-62
-65
-63
-61
-58
-56
-55
-53
-50
-47
-46
-44
-33
-13
2
10
21
15
-24
-56
-44
-16
-11
-23
-26
-13
-14
-48
-46
17
168
706
1569
1674
447
-820
-892
-353
-106
-72
-27
-40
-51
-1
5
-29
-7
42
50
24
-1
15
69
89
61
67
108
121
129
163
169
158
202
267
285
291
310
312
314
344
360
324
255
187
115
35
-30
-65
-87
-110
-120
-120
-121
-127
-129
-119
-113
-120
-118
-101
-102
-116
-110
-89
-70
-66
-96
-132
-127
-111
-111
-99
-92
-131
-165
-153
-126
-121
-135
-147
-131
-97
-94
-121
-132
-113
-93
-88
-102
-117
-105
-77
-74
-100
-125
-111
-66
-55
-80
-75
-50
-62
-83
-75
-65
-69
-66
-59
-66
-72
-56
-41
-52
-63
-47
-34
-38
-30
-21
-44
-55
-20
3
-8
-15
-16
-38
-54
-30
0
-14
-24
26
148
542
1268
1530
606
-655
-939
-432
-78
-34
-9
16
1
11
39
39
28
33
42
48
53
62
80
104
112
108
118
141
154
156
171
206
238
250
259
289
315
315
316
337
331
274
215
173
110
24
-34
-57
-83
-124
-147
-136
-121
-121
-123
-120
-125
-137
-141
-132
-123
-124
-127
-124
-123
-127
-127
-124
-126
-128
-128
-130
-130
-129
-128
-119
-112
-121
-123
-102
-90
-102
-115
-107
-94
-93
-96
-92
-89
-88
-79
-74
-78
-76
-67
-58
-49
-54
-72
-77
-61
-47
-51
-61
-59
-53
-54
-56
-55
-51
-51
-57
-56
-39
-27
-34
-46
-44
-28
-20
-25
-27
-28
-29
-23
-19
-25
-24
-15
-5
13
79
397
1058
1443
791
-417
-928
-551
-121
-29
-38
-11
5
10
22
25
24
30
42
51
54
61
69
75
87
108
123
128
136
152
167
183
205
224
241
266
288
295
301
311
306
282
239
173
113
73
21
-45
-82
-87
-96
-108
-107
-98
-100
-107
-103
-93
-97
-112
-112
-101
-100
-108
-113
-124
-132
-120
-109
-122
-129
-118
-119
-132
-124
-107
-113
-131
-129
-111
-104
-112
-120
-115
-99
-90
-94
-95
-95
-100
-98
-85
-83
-85
-69
-59
-76
-87
-74
-66
-70
-63
-54
-62
-68
-61
-59
-65
-61
-51
-42
-28
-11
2
11
9
-19
-47
-45
-36
-41
-38
-35
-42
-35
-31
-55
-42
39
262
843
1492
1256
19
-954
-873
-364
-113
-69
-43
-26
-19
-13
-8
0
10
16
26
39
46
52
67
87
101
105
117
141
156
166
190
220
236
251
278
306
324
338
352
353
328
274
205
137
72
8
-48
-84
-99
-108
-115
-115
-112
-114
-113
-104
-103
-111
-113
-107
-105
-108
-111
-110
-107
-111
-125
-130
-125
-127
-128
-122
-121
-125
-119
-110
-115
-123
-116
-108
-109
-111
-110
-107
-105
-102
-99
-92
-90
-97
-98
-93
-92
-91
-84
-82
-87
-86
-78
-71
-58
-41
-24
-7
6
-6
-37
-54
-52
-53
-58
-57
-57
-54
-41
-51
-66
-28
93
476
1175
1480
671
-572
-983
-558
-156
-62
-43
-21
-21
-13
6
16
21
26
29
36
48
59
67
78
90
102
114
129
143
155
169
188
214
240
258
273
293
308
314
317
311
278
221
155
86
18
-35
-73
-101
-119
-126
-130
-134
-134
-128
-122
-120
-119
-118
-118
-118
-117
-116
-116
-117
-120
-125
-127
-121
-117
-124
-124
-115
-114
-122
-119
-110
-113
-117
-105
-100
-106
-103
-94
-92
-88
-82
-86
-92
-89
-85
-84
-83
-85
-86
-84
-78
-56
-23
-7
-10
-12
-18
-38
-54
-53
-42
-33
-36
-59
-66
-45
-53
-77
-36
95
464
1160
1541
821
-464
-1036
-706
-259
-94
-62
-49
-49
-38
-16
1
15
31
43
46
51
67
78
80
89
108
123
134
151
172
191
202
217
248
280
293
305
329
348
352
342
304
239
165
88
13
-44
-80
-105
-123
-134
-136
-135
-140
-145
-141
-137
-137
-132
-126
-126
-126
-124
-131
-148
-160
-154
-139
-141
-158
-155
-135
-127
-128
-125
-129
-136
-130
-127
-134
-127
-105
-100
-113
-111
-90
-83
-95
-102
-94
-82
-76
-80
-80
-60
-36
-34
-29
5
32
5
-46
-62
-46
-43
-57
-55
-41
-33
-41
-66
-60
-8
100
537
1358
1643
630
-704
-989
-478
-144
-106
-72
-30
-14
-5
-14
-18
5
17
14
24
41
52
59
67
77
91
107
127
146
155
166
196
225
234
247
285
317
314
310
329
327
264
182
123
65
-2
-53
-92
-135
-158
-152
-144
-145
-148
-145
-134
-130
-139
-144
-135
-126
-126
-128
-124
-120
-124
-131
-126
-121
-131
-137
-122
-115
-132
-138
-119
-108
-122
-128
-111
-93
-94
-106
-107
-98
-95
-98
-95
-89
-85
-83
-77
-54
-23
-10
-9
-2
-14
-51
-68
-50
-41
-55
-66
-69
-60
-46
-52
-58
-28
76
476
1224
1536
669
-616
-1002
-551
-162
-77
-48
-28
-27
1
15
-4
-6
14
26
35
52
71
76
64
73
106
120
121
144
167
181
218
250
239
242
291
326
326
338
350
318
264
217
151
58
-14
-46
-69
-104
-134
-142
-137
-136
-146
-149
-136
-123
-127
-131
-120
-113
-129
-144
-130
-111
-117
-133
-136
-132
-136
-137
-129
-127
-129
-122
-116
-126
-135
-128
-121
-123
-119
-113
-110
-109
-111
-105
-89
-97
-125
-125
-99
-77
-59
-40
-23
-13
-31
-72
-88
-78
-82
-84
-63
-63
-82
-66
-62
-87
-57
39
339
1076
1686
1134
-266
-1054
-805
-333
-132
-68
-31
-28
-24
-3
10
13
20
29
41
56
71
80
96
116
121
118
131
156
179
201
222
238
258
286
314
334
350
361
361
341
297
239
172
99
31
-21
-63
-94
-108
-114
-121
-125
-122
-120
-120
-119
-116
-113
-116
-123
-125
-124
-127
-127
-118
-117
-129
-137
-128
-121
-134
-147
-135
-120
-123
-127
-122
-125
-132
-129
-123
-124
-125
-122
-119
-113
-106
-103
-101
-101
-106
-110
-103
-93
-92
-98
-99
-95
-90
-75
-50
-34
-26
-14
-12
-28
-46
-63
-80
-80
-60
-53
-65
-50
-29
-58
-71
-6
198
804
1622
1566
282
-892
-926
-419
-146
-76
-41
-39
-30
-2
3
1
14
30
41
47
51
61
77
94
112
129
143
160
179
201
227
249
270
305
343
368
383
398
411
410
379
311
225
140
66
0
-65
-121
-149
-152
-149
-148
-147
-145
-143
-141
-139
-138
-135
-130
-125
-119
-116
-119
-121
-111
-104
-115
-125
-120
-119
-123
-115
-108
-114
-108
-94
-105
-124
-115
-98
-96
-96
-87
-81
-79
-85
-95
-96
-89
-86
-85
-81
-83
-87
-82
-71
-69
-77
-82
-79
-76
-71
-65
-66
-72
-74
-68
-58
-57
-68
-70
-59
-53
-45
-31
-24
-13
14
18
-20
-50
-50
-46
-48
-49
-58
-58
-36
-40
-68
-45
58
424
1209
1704
953
-440
-973
-545
-158
-111
-90
-45
-48
-48
-30
-13
1
0
-11
-2
16
25
39
53
57
66
85
103
121
141
151
156
178
208
233
250
262
283
311
323
307
279
244
188
117
47
-6
-45
-80
-109
-122
-125
-127
-121
-110
-112
-118
-111
-99
-98
-100
-96
-88
-81
-78
-81
-80
-72
-70
-76
-80
-79
-75
-70
-70
-75
-73
-66
-65
-65
-56
-49
-57
-61
-50
-45
-52
-54
-47
-42
-37
-38
-41
-29
-15
-19
-23
-9
-4
-14
-15
-5
1
4
5
1
-4
-2
16
40
57
70
73
50
21
20
29
17
