# session 5
-2
-15
16
68
26
-99
-148
-114
-106
-119
-112
-108
-109
-104
-101
-102
-104
-110
-111
-107
-107
-112
-113
-109
-104
-103
-104
-102
-96
-94
-94
-92
-89
-87
-84
-77
-71
-72
-74
-71
-66
-64
-62
-62
-61
-58
-57
-59
-60
-63
-62
-52
-46
-51
-51
-46
-46
-48
-46
-47
-48
-42
-40
-46
-45
-39
-41
-43
-39
-31
-24
-29
-43
-41
-21
-16
-30
-32
-29
-35
-28
-22
-33
-24
-15
-48
-38
58
305
977
1762
1515
118
-923
-802
-320
-132
-83
-38
-33
-27
-9
-9
-7
3
7
13
26
38
49
61
71
85
102
118
135
151
166
186
212
237
267
305
339
367
390
408
415
410
387
333
249
159
79
8
-57
-104
-131
-148
-158
-160
-160
-160
-159
-156
-153
-152
-150
-148
-146
-146
-146
-145
-147
-152
-157
-159
-158
-156
-156
-158
-155
-153
-151
-149
-145
-143
-141
-138
-135
-132
-130
-128
-125
-121
-117
-114
-112
-108
-105
-101
-97
-95
-94
-92
-90
-88
-86
-84
-82
-79
-75
-73
-71
-68
-66
-64
-63
-62
-59
-57
-55
-53
-52
-52
-47
-39
-39
-42
-41
-32
-24
-23
-23
-24
-29
-24
-18
-27
-21
-5
-29
-37
27
208
799
1693
1756
476
-769
-806
-291
-86
-72
-30
-24
-30
-5
7
8
20
28
31
41
50
56
65
75
87
100
114
128
145
163
182
203
226
254
283
311
337
361
378
383
379
357
310
240
161
86
16
-43
-88
-119
-140
-153
-158
-161
-164
-164
-162
-162
-162
-160
-157
-155
-151
-146
-144
-141
-137
-136
-135
-134
-134
-133
-133
-132
-132
-131
-130
-128
-125
-123
-119
-115
-113
-111
-108
-103
-100
-98
-95
-92
-88
-87
-86
-84
-83
-83
-82
-79
-76
-73
-73
-73
-72
-71
-69
-66
-65
-66
-65
-59
-55
-55
-56
-55
-55
-59
-57
-46
-39
-45
-48
-35
-24
-29
-34
-30
-34
-39
-29
-29
-35
-19
-22
-50
-16
100
454
1236
1788
1096
-326
-947
-570
-167
-84
-55
-25
-30
-22
-4
-1
6
14
17
27
44
52
56
65
79
90
99
109
124
144
167
190
213
236
265
300
330
347
366
388
392
375
345
290
208
127
59
-8
-68
-105
-126
-140
-148
-152
-154
-151
-147
-150
-154
-149
-143
-143
-142
-135
-130
-133
-135
-133
-138
-141
-133
-129
-139
-143
-133
-130
-135
-133
-129
-132
-132
-126
-123
-123
-122
-120
-117
-114
-113
-111
-109
-106
-103
-101
-101
-99
-93
-91
-93
-91
-83
-80
-82
-81
-78
-78
-75
-72
-72
-72
-71
-70
-63
-48
-41
-53
-65
-55
-35
-32
-38
-36
-39
-42
-31
-33
-41
-22
-29
-61
-24
101
500
1360
1899
1075
-422
-994
-578
-187
-98
-54
-28
-35
-16
3
3
10
20
24
34
48
58
66
76
86
99
115
131
146
164
183
204
226
255
285
314
340
363
382
394
397
381
339
273
192
112
39
-23
-72
-105
-123
-134
-141
-144
-144
-142
-140
-141
-143
-143
-141
-140
-138
-137
-138
-139
-139
-139
-140
-142
-141
-141
-143
-144
-141
-138
-136
-134
-131
-127
-125
-123
-119
-115
-114
-116
-115
-111
-107
-105
-105
-103
-100
-98
-97
-94
-92
-90
-89
-86
-83
-81
-79
-78
-76
-75
-74
-71
-69
-69
-68
-65
-63
-64
-59
-47
-40
-46
-48
-36
-25
-25
-29
-30
-34
-32
-25
-32
-35
-16
-25
-49
-8
116
521
1339
1768
902
-486
-923
-475
-122
-70
-42
-19
-27
-11
8
9
18
30
36
45
55
62
71
81
91
104
118
131
145
160
177
196
217
244
270
293
315
338
351
354
356
348
315
255
181
107
38
-20
-67
-100
-120
-129
-134
-138
-141
-146
-151
-147
-144
-142
-136
-131
-134
-135
-132
-131
-133
-135
-137
-137
-134
-135
-137
-135
-131
-131
-130
-129
-130
-129
-124
-121
-121
-122
-121
-121
-117
-112
-112
-112
-106
-103
-106
-104
-97
-94
-95
-95
-94
-90
-86
-88
-90
-87
-82
-77
-71
-68
-69
-70
-67
-63
-57
-50
-52
-62
-58
-38
-30
-37
-38
-38
-42
-34
-31
-41
-30
-27
-52
-25
85
398
1138
1791
1285
-142
-978
-739
-284
-116
-62
-26
-23
-13
3
6
14
27
32
39
51
60
69
80
90
99
112
127
143
161
180
197
215
239
267
297
327
351
365
379
389
383
349
288
208
127
53
-13
-64
-96
-116
-131
-138
-138
-137
-137
-135
-133
-132
-132
-134
-135
-135
-135
-137
-137
-138
-141
-145
-146
-145
-144
-145
-145
-141
-136
-135
-134
-130
-127
-124
-121
-116
-115
-114
-109
-103
-99
-97
-95
-93
-92
-91
-89
-89
-88
-86
-84
-81
-79
-77
-77
-75
-71
-69
-68
-68
-67
-65
-63
-62
-61
-61
-60
-54
-45
-43
-53
-54
-38
-27
-31
-33
-34
-36
-30
-33
-40
-22
-23
-53
-28
73
401
1205
1854
1216
-268
-951
-566
-155
-89
-63
-30
-40
-29
-7
-5
2
16
21
28
39
44
52
64
74
83
97
113
128
142
159
179
200
223
248
275
301
323
339
349
353
344
315
261
190
114
45
-12
-61
-100
-122
-133
-141
-146
-148
-148
-148
-145
-144
-143
-141
-137
-136
-136
-135
-134
-133
-132
-132
-132
-132
-132
-131
-131
-129
-129
-128
-127
-124
-121
-119
-116
-113
-112
-110
-107
-103
-100
-99
-97
-94
-91
-87
-83
-79
-75
-72
-71
-70
-68
-67
-66
-64
-62
-62
-60
-57
-55
-55
-54
-54
-55
-55
-52
-45
-40
-45
-51
-45
-32
-29
-31
-28
-30
-29
-24
-32
-33
-17
-31
-43
10
149
603
1419
1694
682
-635
-918
-438
-122
-72
-38
-26
-36
-14
6
5
10
20
21
27
42
55
62
69
80
91
104
118
131
146
165
183
205
234
263
287
308
330
352
363
359
342
307
248
173
97
27
-30
-73
-98
-110
-119
-134
-142
-134
-127
-131
-136
-134
-130
-128
-127
-126
-124
-124
-128
-132
-129
-129
-137
-142
-138
-134
-134
-133
-130
-127
-126
-126
-126
-124
-125
-127
-126
-125
-126
-120
-113
-110
-106
-100
-101
-106
-105
-100
-97
-94
-90
-90
-87
-78
-74
-77
-77
-72
-67
-65
-66
-69
-68
-57
-45
-37
-43
-55
-54
-38
-32
-32
-26
-28
-30
-24
-31
-36
-21
-35
-54
0
153
621
1465
1789
781
-620
-1002
-549
-193
-99
-50
-32
-34
-15
0
3
14
24
30
38
45
53
62
72
82
93
105
120
137
152
169
191
215
240
268
298
324
344
359
370
373
358
315
246
167
90
21
-37
-78
-103
-120
-130
-134
-134
-133
-132
-132
-132
-129
-126
-125
-124
-124
-126
-127
-125
-125
-129
-131
-131
-132
-131
-130
-128
-126
-122
-119
-117
-116
-118
-117
-114
-114
-113
-110
-108
-106
-104
-103
-102
-99
-96
-94
-91
-88
-85
-84
-81
-78
-75
-73
-71
-68
-65
-62
-61
-61
-59
-59
-61
-61
-59
-53
-47
-51
-56
-46
-32
-35
-43
-43
-44
-41
-36
-44
-40
-25
-45
-57
-1
160
699
1567
1710
528
-745
-867
-356
-108
-87
-52
-40
-46
-25
-11
-8
4
13
18
26
35
43
54
66
78
89
98
108
123
141
158
178
202
228
255
281
304
324
339
348
346
325
280
215
143
71
5
-50
-92
-120
-135
-144
-150
-151
-146
-142
-139
-135
-129
-126
-123
-119
-117
-115
-115
-116
-119
-120
-118
-117
-116
-115
-113
-113
-117
-118
-112
-105
-102
-99
-97
-96
-94
-90
-89
-89
-89
-86
-82
-78
-75
-73
-74
-72
-66
-64
-66
-64
-57
-51
-49
-49
-51
-55
-58
-55
-53
-55
-59
-56
-47
-42
-43
-51
-60
-54
-33
-27
-42
-50
-46
-42
-42
-53
-51
-29
-41
-70
-28
97
471
1251
1720
944
-444
-984
-598
-211
-110
-69
-47
-54
-38
-18
-11
2
14
15
16
22
36
51
58
66
85
105
116
125
139
157
182
207
228
252
282
315
340
355
365
367
353
313
251
178
99
25
-33
-78
-112
-134
-147
-154
-160
-160
-153
-148
-149
-147
-142
-143
-143
-140
-140
-142
-141
-139
-140
-143
-143
-141
-137
-135
-136
-138
-135
-133
-135
-135
-131
-126
-124
-124
-122
-119
-116
-111
-104
-104
-108
-106
-100
-96
-93
-88
-86
-88
-89
-86
-76
-60
-46
-28
-4
1
-26
-55
-58
-51
-56
-60
-55
-60
-60
-37
-48
-78
-38
91
511
1387
1888
998
-517
-1061
-624
-224
-124
-76
-51
-55
-36
-20
-18
-6
7
12
21
33
41
50
63
76
89
102
117
135
156
176
199
225
254
286
318
347
371
390
400
397
374
321
242
158
79
6
-54
-96
-122
-138
-148
-153
-154
-152
-152
-151
-147
-143
-140
-137
-136
-136
-135
-132
-132
-135
-136
-135
-136
-138
-139
-140
-140
-139
-135
-132
-131
-130
-127
-126
-124
-120
-115
-112
-110
-106
-103
-101
-100
-99
-98
-98
-98
-95
-92
-91
-90
-89
-87
-86
-87
-85
-74
-56
-42
-28
-7
-2
-29
-55
-56
-53
-59
-55
-47
-58
-54
-33
-53
-64
-6
153
693
1574
1728
534
-761
-890
-374
-119
-91
-54
-43
-47
-23
-11
-11
1
11
18
30
40
47
58
71
82
96
111
124
139
157
178
200
224
250
277
304
329
350
364
370
365
340
288
219
146
76
11
-43
-80
-106
-127
-138
-142
-144
-143
-140
-140
-138
-130
-124
-125
-126
-122
-123
-126
-122
-115
-116
-122
-126
-123
-118
-122
-131
-132
-127
-124
-125
-125
-122
-120
-117
-114
-114
-114
-111
-107
-108
-106
-103
-101
-99
-95
-88
-83
-82
-85
-83
-77
-75
-78
-76
-69
-65
-66
-69
-71
-68
-64
-63
-60
-50
-50
-61
-56
-40
-40
-50
-46
-41
-44
-36
-34
-41
-23
-18
-58
-43
62
341
1052
1780
1400
-22
-952
-755
-287
-121
-77
-41
-43
-34
-10
-4
2
11
15
25
41
47
47
56
75
93
106
117
131
147
168
191
213
237
266
296
324
349
368
383
395
390
353
289
213
134
58
-3
-52
-92
-121
-136
-141
-142
-140
-141
-144
-143
-137
-133
-133
-134
-135
-135
-135
-136
-137
-136
-139
-145
-146
-145
-146
-146
-142
-138
-135
-135
-137
-136
-131
-128
-128
-127
-124
-120
-115
-110
-108
-107
-103
-98
-97
-98
-97
-95
-94
-92
-89
-86
-84
-83
-82
-80
-77
-75
-72
-70
-68
-67
-65
-61
-54
-47
-49
-55
-51
-34
-26
-29
-27
-28
-32
-25
-23
-33
-17
-8
-41
-30
54
313
1054
1857
1491
8
-930
-674
-201
-88
-67
-28
-37
-33
-7
-3
2
16
21
25
36
43
49
61
73
83
95
110
125
141
159
178
200
223
248
275
302
324
340
351
354
345
315
259
188
115
46
-15
-64
-99
-122
-136
-146
-150
-150
-149
-148
-146
-144
-143
-141
-138
-135
-133
-131
-128
-126
-126
-126
-125
-125
-125
-127
-126
-125
-124
-123
-120
-118
-117
-117
-115
-112
-108
-105
-103
-99
-97
-96
-93
-90
-89
-87
-85
-85
-85
-83
-81
-80
-78
-78
-78
-75
-71
-68
-68
-68
-66
-61
-59
-58
-56
-57
-61
-56
-42
-37
-43
-41
-27
-16
-19
-25
-23
-22
-27
-24
-20
-29
-21
-10
-37
-36
36
225
814
1621
1556
279
-834
-793
-288
-87
-66
-32
-29
-29
-5
3
0
13
24
27
34
43
52
61
68
76
90
104
116
130
150
169
184
202
228
257
282
304
326
342
346
340
322
283
218
142
74
17
-34
-77
-105
-119
-128
-133
-131
-128
-127
-127
-128
-127
-124
-122
-123
-126
-123
-117
-116
-124
-130
-127
-125
-130
-132
-126
-122
-123
-121
-118
-120
-119
-118
-121
-121
-112
-106
-108
-108
-102
-101
-104
-103
-98
-97
-98
-98
-97
-96
-93
-90
-88
-89
-94
-93
-83
-81
-87
-86
-79
-79
-86
-89
-89
-84
-76
-75
-88
-93
-75
-61
-67
-65
-52
-51
-48
-37
-40
-35
-15
-31
-45
17
177
670
1521
1775
705
-645
-939
-477
-159
-80
-29
-14
-18
3
16
16
26
38
43
49
57
66
76
86
97
110
124
140
157
174
193
215
238
261
287
315
340
359
374
382
380
360
316
246
164
90
24
-31
-72
-99
-114
-122
-127
-129
-128
-126
-127
-127
-123
-121
-122
-123
-122
-121
-121
-125
-128
-131
-133
-137
-139
-139
-140
-142
-141
-137
-135
-133
-131
-128
-126
-124
-123
-120
-115
-112
-113
-114
-113
-111
-107
-105
-104
-103
-103
-105
-102
-98
-97
-96
-92
-89
-89
-87
-85
-83
-83
-81
-80
-78
-77
-77
-81
-85
-77
-65
-64
-71
-65
-48
-39
-43
-44
-41
-45
-44
-36
-44
-44
-22
-36
-59
-10
131
594
1444
1757
734
-619
-902
-410
-113
-84
-51
-31
-38
-19
-5
-5
5
16
22
33
42
47
59
72
81
92
107
122
137
154
172
191
214
240
266
288
312
333
347
355
355
341
305
244
172
104
43
-12
-58
-88
-104
-114
-121
-123
-122
-119
-116
-112
-109
-103
-94
-91
-92
-88
-84
-86
-88
-88
-90
-93
-94
-92
-91
-95
-97
-96
-95
-93
-89
-88
-91
-90
-84
-84
-86
-82
-77
-77
-74
-70
-69
-69
-67
-65
-67
-69
-64
-57
-57
-62
-60
-56
-55
-56
-58
-55
-49
-49
-53
-57
-60
-61
-53
-40
-39
-52
-59
-47
-38
-46
-52
-53
-60
-58
-50
-62
-67
-53
-70
-82
-29
126
632
1471
1669
573
-739
-999
-536
-216
-137
-102
-93
-90
-71
-69
-77
-68
-55
-45
-33
-31
-34
-21
4
15
16
25
45
64
82
102
121
141
170
201
225
247
271
290
301
305
289
244
176
104
32
-36
-91
-129
-152
-165
-171
-175
-175
-168
-159
-153
-147
-138
-130
-122
-110
-101
-99
-94
-84
-79
-75
-65
