# session 13
-12
-15
-25
77
216
213
142
136
147
129
121
122
113
100
87
75
69
66
55
46
43
41
33
30
30
23
15
19
24
16
6
5
5
-4
-9
-8
-7
-13
-18
-18
-18
-21
-26
-26
-26
-31
-37
-39
-38
-40
-45
-46
-43
-42
-34
-15
-1
5
13
6
-26
-51
-53
-57
-63
-55
-57
-72
-62
-51
-75
-66
15
258
870
1487
1152
-100
-948
-761
-283
-112
-96
-66
-59
-61
-45
-34
-29
-18
-8
-4
2
16
30
40
51
65
76
86
101
119
134
147
162
185
213
234
247
262
280
288
284
266
224
163
97
37
-17
-66
-103
-124
-132
-136
-139
-142
-142
-141
-140
-137
-134
-137
-137
-128
-120
-119
-123
-125
-124
-121
-121
-121
-124
-131
-133
-127
-123
-125
-123
-116
-114
-114
-111
-109
-108
-102
-97
-98
-97
-91
-92
-94
-85
-78
-81
-80
-73
-75
-79
-74
-69
-72
-71
-66
-57
-43
-29
-14
9
16
-15
-47
-49
-48
-60
-59
-52
-58
-48
-36
-64
-73
-10
157
681
1498
1642
552
-702
-950
-509
-185
-93
-54
-36
-31
-19
-12
-8
2
11
24
40
50
54
65
82
97
110
127
143
157
176
200
221
243
270
295
318
342
362
372
370
349
303
235
154
74
6
-48
-89
-115
-128
-134
-137
-137
-135
-133
-133
-132
-130
-129
-130
-131
-131
-130
-131
-134
-136
-137
-139
-144
-148
-146
-142
-141
-143
-144
-143
-140
-137
-138
-135
-130
-127
-127
-127
-123
-117
-112
-108
-108
-110
-110
-103
-88
-68
-50
-32
-16
-24
-55
-72
-68
-70
-73
-64
-69
-75
-56
-61
-89
-64
34
421
1296
1860
1047
-459
-1038
-603
-192
-110
-82
-58
-62
-47
-29
-25
-14
-4
2
15
27
35
47
60
71
87
104
115
129
153
178
197
217
245
275
298
317
333
342
339
320
278
212
136
62
-3
-57
-98
-125
-141
-151
-153
-149
-148
-147
-141
-135
-131
-126
-122
-120
-117
-114
-114
-114
-112
-111
-113
-114
-114
-115
-114
-112
-114
-115
-112
-107
-105
-105
-104
-103
-102
-100
-99
-97
-93
-91
-91
-89
-85
-84
-84
-81
-79
-79
-77
-75
-74
-72
-68
-64
-56
-39
-22
-12
4
20
6
-26
-36
-30
-35
-41
-33
-36
-38
-18
-25
-50
-16
93
457
1240
1725
962
-439
-1002
-605
-185
-78
-51
-32
-30
-10
8
8
13
21
26
35
43
51
65
76
82
95
114
128
139
152
171
194
216
237
262
288
308
321
334
340
328
293
236
162
88
26
-29
-75
-105
-124
-137
-142
-143
-141
-136
-132
-131
-127
-125
-129
-132
-132
-134
-134
-130
-127
-130
-133
-134
-135
-136
-136
-137
-138
-137
-130
-125
-125
-124
-120
-121
-122
-116
-111
-109
-106
-109
-113
-107
-96
-97
-99
-92
-88
-92
-87
-76
-79
-86
-82
-74
-74
-75
-73
-75
-72
-54
-34
-25
-12
4
-1
-27
-44
-45
-48
-52
-43
-39
-51
-41
-21
-45
-57
-5
154
711
1599
1748
567
-741
-953
-489
-180
-86
-35
-27
-28
-10
-2
6
22
27
28
40
54
64
77
91
103
114
127
145
161
177
198
222
246
270
296
321
341
355
363
363
343
295
227
152
77
9
-48
-92
-119
-132
-140
-144
-142
-141
-139
-135
-130
-128
-128
-127
-125
-125
-126
-124
-123
-126
-128
-127
-129
-133
-133
-130
-129
-127
-123
-120
-118
-116
-113
-109
-108
-106
-103
-102
-101
-95
-91
-93
-94
-90
-86
-86
-84
-80
-78
-78
-76
-72
-69
-69
-69
-66
-62
-60
-58
-56
-55
-54
-51
-50
-50
-49
-51
-54
-48
-37
-34
-38
-39
-32
-24
-25
-28
-26
-26
-25
-21
-28
-27
-8
-24
-45
-8
106
556
1455
1857
859
-571
-931
-444
-122
-85
-47
-24
-38
-28
-11
-6
5
16
21
31
43
50
59
68
79
90
102
116
133
150
168
188
209
231
253
276
295
309
319
323
313
285
235
166
94
31
-23
-70
-105
-121
-128
-137
-141
-139
-137
-135
-134
-136
-136
-131
-127
-124
-122
-122
-123
-122
-121
-116
-113
-122
-133
-130
-126
-132
-127
-112
-110
-118
-115
-108
-109
-108
-103
-104
-108
-104
-94
-87
-88
-91
-85
-79
-81
-83
-76
-69
-68
-63
-57
-60
-64
-60
-59
-63
-62
-56
-56
-56
-48
-46
-55
-53
-42
-46
-55
-46
-32
-32
-39
-37
-26
-19
-23
-21
-16
-19
-18
-10
-21
-27
-3
-8
-37
-5
105
487
1301
1771
933
-491
-968
-504
-124
-72
-46
-15
-23
-15
2
6
16
28
32
39
50
57
63
76
91
99
102
113
138
158
172
189
204
218
241
263
280
301
315
304
282
257
210
140
74
25
-16
-56
-93
-121
-134
-134
-136
-140
-142
-140
-137
-133
-130
-126
-120
-116
-115
-114
-115
-116
-115
-115
-117
-118
-118
-120
-122
-120
-116
-119
-118
-108
-99
-97
-100
-109
-108
-89
-84
-102
-104
-77
-55
-69
-108
-121
-76
-40
-62
-86
-67
-47
-44
-39
-38
-50
-54
-49
-52
-56
-55
-59
-62
-51
-43
-49
-48
-37
-40
-55
-58
-43
-34
-34
-27
-23
-35
-40
-23
-19
-36
-42
-47
-52
-25
50
370
1143
1722
1101
-288
-967
-646
-224
-106
-63
-23
-26
-24
-10
-10
-5
7
13
21
43
62
65
62
74
95
111
124
141
159
178
197
214
242
279
304
320
343
356
348
337
323
277
204
133
62
-14
-68
-97
-123
-132
-121
-125
-144
-142
-125
-122
-126
-122
-118
-119
-124
-130
-132
-128
-128
-131
-131
-128
-130
-139
-142
-134
-131
-133
-122
-116
-132
-133
-109
-105
-116
-107
-97
-105
-104
-90
-92
-98
-89
-84
-86
-82
-77
-80
-85
-81
-69
-60
-69
-84
-78
-61
-62
-70
-68
-67
-67
-62
-58
-59
-60
-56
-46
-31
-30
-45
-47
-27
-17
-24
-27
-28
-31
-28
-30
-25
-11
-31
-58
-20
103
541
1407
1809
855
-551
-924
-446
-117
-75
-40
-19
-31
-12
13
13
14
26
35
37
43
59
70
70
76
90
105
123
140
151
164
186
209
232
259
286
305
314
321
330
325
291
231
163
95
29
-25
-65
-96
-119
-132
-136
-136
-138
-140
-137
-131
-130
-134
-134
-129
-126
-128
-130
-127
-125
-124
-125
-130
-133
-130
-127
-129
-126
-122
-123
-126
-123
-117
-112
-113
-119
-116
-103
-98
-101
-97
-89
-89
-91
-88
-84
-83
-79
-72
-71
-75
-76
-71
-66
-67
-69
-62
-53
-56
-64
-62
-52
-47
-50
-52
-45
-38
-36
-32
-33
-41
-34
-19
-19
-21
-17
-24
-29
-19
-20
-20
-10
-25
-34
19
170
670
1481
1631
513
-740
-886
-365
-88
-67
-34
-11
-19
-15
-6
2
18
27
30
37
43
52
68
80
83
87
105
129
144
153
171
195
218
245
267
279
296
316
326
324
311
276
220
157
96
35
-21
-70
-105
-124
-130
-128
-131
-136
-131
-122
-128
-134
-126
-119
-123
-130
-131
-127
-124
-126
-128
-129
-131
-134
-140
-146
-142
-128
-125
-136
-133
-117
-116
-131
-134
-123
-120
-124
-121
-112
-108
-112
-115
-110
-99
-94
-99
-105
-99
-90
-88
-90
-85
-78
-77
-79
-69
-45
-28
-17
2
3
-33
-69
-69
-57
-56
-55
-58
-67
-52
-38
-63
-59
21
254
893
1656
1463
135
-942
-892
-390
-143
-81
-40
-29
-30
-23
-10
6
16
16
24
40
55
62
63
73
95
117
131
145
162
178
196
220
253
280
296
315
342
363
371
363
333
283
216
139
63
0
-50
-88
-109
-122
-129
-131
-129
-126
-123
-122
-120
-116
-118
-121
-122
-125
-125
-119
-122
-127
-117
-111
-127
-141
-135
-126
-122
-117
-118
-123
-118
-108
-110
-114
-106
-99
-104
-107
-99
-95
-99
-93
-83
-83
-86
-82
-82
-89
-90
-80
-71
-73
-83
-80
-65
-61
-62
-47
-23
-10
-3
-1
-21
-47
-52
-52
-59
-51
-47
-59
-45
-34
-68
-62
16
250
931
1695
1382
-24
-970
-752
-255
-101
-73
-33
-39
-43
-19
-8
-2
12
18
18
26
39
48
53
60
74
93
109
126
146
160
172
193
224
253
272
288
308
323
329
329
306
246
175
115
57
-5
-57
-90
-111
-125
-137
-143
-140
-133
-126
-121
-125
-131
-127
-123
-129
-129
-121
-121
-124
-123
-124
-127
-131
-129
-124
-126
-132
-130
-127
-127
-122
-117
-113
-101
-89
-96
-109
-105
-94
-92
-93
-84
-71
-71
-78
-76
-72
-72
-68
-65
-65
-62
-61
-60
-53
-51
-60
-63
-56
-43
-21
-4
1
13
26
4
-35
-42
-30
-33
-40
-36
-39
-36
-20
-35
-47
8
145
558
1287
1531
602
-627
-902
-432
-102
-54
-37
-21
-18
0
9
13
31
41
40
53
67
69
74
88
99
108
121
135
141
146
162
186
204
221
242
259
272
292
306
303
295
274
220
151
87
25
-26
-60
-86
-106
-114
-119
-127
-127
-119
-119
-122
-118
-115
-122
-127
-122
-117
-124
-129
-119
-109
-115
-127
-131
-132
-130
-121
-115
-123
-131
-130
-130
-128
-118
-114
-117
-113
-109
-118
-121
-111
-105
-107
-106
-106
-110
-110
-100
-92
-100
-113
-110
-94
-88
-94
-98
-89
-74
-64
-57
-43
-17
7
5
-28
-57
-60
-53
-57
-59
-50
-49
-49
-36
-49
-66
-20
104
508
1325
1772
935
-492
-1054
-672
-250
-107
-56
-32
-33
-18
1
2
5
21
36
42
51
67
80
87
101
124
139
147
163
187
211
237
264
284
304
333
363
382
390
389
377
339
268
186
110
41
-17
-60
-97
-124
-133
-130
-132
-135
-130
-125
-133
-136
-125
-122
-134
-139
-133
-132
-140
-143
-139
-138
-139
-141
-145
-150
-150
-146
-141
-138
-136
-139
-141
-137
-127
-120
-126
-130
-118
-110
-118
-116
-104
-104
-109
-104
-98
-100
-101
-94
-86
-84
-86
-86
-81
-75
-76
-73
-52
-28
-15
0
13
-9
-48
-59
-49
-54
-57
-50
-56
-56
-36
-50
-70
-24
118
607
1476
1745
650
-713
-944
-416
-120
-97
-60
-39
-50
-37
-23
-17
2
16
18
31
46
50
61
82
98
107
118
134
152
171
191
213
239
266
291
312
328
338
344
346
331
290
227
157
82
13
-37
-69
-95
-117
-130
-132
-130
-126
-123
-124
-127
-128
-128
-125
-120
-114
-110
-105
-105
-109
-106
-100
-102
-107
-113
-116
-112
-107
-106
-109
-112
-113
-110
-106
-104
-101
-100
-100
-96
-89
-90
-95
-93
-86
-84
-85
-82
-82
-89
-90
-82
-79
-80
-78
-75
-76
-79
-82
-82
-78
-73
-70
-67
-63
-65
-69
-65
-55
-53
-60
-59
-42
-31
-36
-39
-37
-42
-40
-38
-47
-38
-25
-50
-44
32
249
923
1800
1673
270
-893
-839
-327
-117
-84
-50
-44
-36
-19
-21
-19
-3
6
12
22
31
43
61
76
87
97
109
131
157
178
197
220
248
278
308
337
359
373
388
392
369
313
240
161
83
12
-51
-97
-122
-137
-150
-156
-153
-149
-148
-145
-139
-135
-131
-126
-123
-124
-123
-121
-122
-122
-124
-128
-130
-129
-129
-130
-128
-129
-132
-131
-129
-127
-123
-120
-119
-114
-109
-107
-105
-101
-97
-95
-93
-92
-90
-87
-86
-85
-82
-77
-76
-76
-75
-74
-73
-69
-66
-66
-66
-66
-64
-61
-58
-58
-58
-55
-52
-56
-61
-56
-44
-41
-48
-50
-37
-22
-21
-27
-29
-34
-33
-24
-32
-37
-19
-33
-57
-19
99
563
1504
1946
927
-555
-932
-439
-126
-98
-62
-44
-56
-35
-20
-22
-10
5
9
17
29
38
49
63
75
91
110
127
140
154
177
205
229
252
279
307
330
348
358
356
345
315
258
181
107
42
-17
-69
-102
-122
-138
-148
-152
-154
-153
-147
-143
-142
-139
-133
-127
-122
-120
-119
-111
-103
-107
-112
-110
-110
-114
-115
-114
-112
-108
-106
-109
-109
-105
-104
-104
-102
-97
-94
-93
-96
-97
-92
-88
-89
-90
-88
-88
-89
-87
-84
-83
-81
-78
-74
-71
-70
-73
-77
-76
-71
-68
-69
-65
-62
-63
-61
-52
-52
-60
-60
-48
-38
-41
-45
-38
-25
-24
-27
-24
-27
-34
-32
-34
-38
-19
-22
-56
-34
60
349
1088
1749
1228
-199
-956
-622
-172
-80
-68
-35
-40
-37
-16
-11
-5
8
15
24
39
50
59
69
80
94
108
121
137
154
170
190
211
232
253
277
301
319
329
333
329
308
262
200
134
71
13
-36
-71
-96
-114
-122
-123
-127
-132
-131
-125
-122
-120
-117
-115
-115
-111
-105
-102
-100
-100
-103
-105
-105
-108
-111
-113
-116
-117
-114
-114
-115
-112
-109
-106
-105
-106
-108
-109
-108
-102
-97
-98
-98
-94
-90
-86
-83
-86
-94
-93
-84
-79
-83
-86
-81
-79
-80
-79
-77
-77
-71
-70
-79
-81
-68
-56
-51
-57
-72
-72
-48
-35
-43
-46
-46
-47
-40
-41
-46
-31
-39
-65
-25
84
414
1186
1766
1119
-309
-1008
-689
-248
-98
-49
-23
-30
-25
-7
2
9
19
26
34
42
52
61
73
90
105
118
136
155
168
187
217
242
261
288
323
348
364
380
392
385
353
294
214
131
60
-3
-60
-97
-113
-124
-132
-133
-131
-129
-125
-121
-123
-123
-120
-118
-117
-116
-115
-118
-121
-122
-121
-122
-125
-126
-126
-127
-129
-127
-126
-125
-125
-124
-121
-119
-117
-114
-111
-109
-105
-99
-95
-91
-87
-83
-79
-73
-71
-72
-72
-68
-67
-68
-67
-64
-64
-64
-62
-58
-57
-57
-55
-50
-48
-52
-55
-58
-58
-50
-36
-34
-40
-33
-15
-10
-14
-15
-19
-19
-9
-11
-16
4
-1
-28
2
106
487
1344
1899
1094
-386
-926
-479
-102
-56
-30
-4
-15
1
22
21
28
41
46
59
