# session 20
2
6
-6
13
66
84
62
59
55
32
51
129
333
809
1254
970
-25
-782
-739
-314
-54
-5
1
15
10
6
32
58
50
33
35
57
87
98
89
86
95
106
117
127
133
147
173
194
204
212
233
254
259
257
261
253
215
156
94
36
-9
-47
-85
-113
-120
-121
-134
-141
-129
-120
-129
-142
-140
-127
-122
-125
-128
-134
-142
-140
-131
-122
-119
-124
-123
-116
-125
-141
-138
-123
-114
-111
-113
-118
-117
-115
-120
-119
-105
-92
-91
-94
-92
-81
-65
-45
-27
-19
-29
-50
-64
-71
-72
-67
-66
-77
-77
-60
-68
-88
-61
22
308
966
1460
916
-339
-1006
-725
-264
-97
-66
-40
-35
-35
-23
-11
3
18
25
28
38
52
64
74
84
96
108
122
135
148
168
194
212
228
250
263
268
283
299
289
255
211
160
99
37
-13
-53
-82
-100
-114
-125
-126
-121
-119
-116
-110
-104
-96
-94
-100
-105
-107
-109
-105
-100
-100
-101
-101
-106
-107
-103
-102
-102
-97
-94
-95
-96
-97
-92
-82
-81
-83
-76
-73
-81
-84
-78
-71
-54
-28
-10
4
12
-7
-44
-61
-53
-50
-59
-63
-62
-54
-41
-56
-74
-34
79
430
1118
1485
748
-519
-1024
-636
-192
-62
-53
-46
-40
-13
12
2
-7
12
24
24
41
61
64
73
88
92
99
121
143
165
177
173
184
220
243
249
272
294
283
259
245
211
140
68
9
-49
-92
-109
-121
-142
-155
-138
-111
-115
-141
-145
-127
-122
-130
-132
-120
-107
-113
-130
-130
-117
-115
-115
-112
-121
-130
-122
-107
-97
-100
-118
-123
-103
-93
-101
-95
-87
-96
-96
-82
-70
-55
-48
-60
-70
-62
-53
-50
-53
-53
-34
-11
-7
-1
25
39
19
-17
-33
-23
-20
-38
-46
-39
-34
-27
-33
-43
-8
88
382
1022
1448
812
-445
-982
-595
-175
-86
-58
-15
-20
-18
6
15
29
49
46
36
51
82
109
111
86
78
109
129
131
161
186
172
185
241
257
238
251
275
276
274
263
214
150
110
82
27
-35
-60
-74
-118
-140
-115
-107
-130
-132
-123
-128
-123
-121
-149
-175
-167
-153
-156
-153
-139
-138
-152
-163
-169
-161
-126
-111
-136
-130
-96
-103
-126
-119
-115
-124
-116
-100
-90
-81
-78
-74
-67
-73
-78
-59
-50
-53
-32
-11
-24
-32
-5
19
17
7
13
40
52
18
-18
-16
-15
-38
-44
-19
-8
-26
-37
-37
-32
6
114
438
999
1221
541
-507
-905
-569
-169
-47
-47
-15
20
12
7
28
34
29
41
50
46
57
77
83
85
94
105
120
132
134
144
170
184
180
192
225
245
240
233
237
232
198
148
102
53
-3
-40
-52
-72
-104
-118
-113
-105
-96
-94
-105
-111
-105
-97
-94
-95
-95
-88
-84
-90
-86
-74
-83
-99
-98
-94
-90
-80
-77
-88
-88
-74
-71
-81
-80
-71
-68
-73
-73
-67
-62
-68
-79
-75
-55
-53
-69
-65
-50
-62
-84
-78
-60
-54
-48
-24
-6
-3
1
1
-26
-52
-49
-49
-67
-68
-57
-57
-50
-46
-70
-66
2
181
648
1240
1184
202
-769
-875
-444
-146
-73
-51
-36
-28
-13
-8
-16
-5
17
25
27
43
61
63
62
74
87
101
126
143
145
159
185
203
220
241
251
254
265
279
282
255
194
128
77
30
-20
-62
-89
-106
-114
-113
-102
-93
-101
-115
-111
-97
-93
-100
-102
-97
-91
-91
-99
-105
-104
-98
-97
-103
-109
-104
-97
-99
-104
-101
-97
-91
-83
-84
-96
-100
-89
-80
-82
-84
-83
-79
-70
-64
-72
-82
-80
-73
-62
-45
-28
-15
2
7
-20
-56
-61
-49
-47
-49
-55
-65
-57
-44
-60
-54
12
165
622
1297
1340
312
-788
-925
-439
-118
-62
-43
-22
-14
1
14
13
11
16
33
51
50
50
68
83
88
98
110
122
138
153
167
188
208
221
245
269
268
263
282
295
252
176
122
73
1
-47
-61
-103
-143
-120
-102
-142
-158
-117
-96
-118
-127
-115
-114
-121
-114
-102
-99
-100
-105
-113
-115
-120
-127
-109
-85
-97
-110
-95
-99
-123
-116
-98
-103
-95
-74
-87
-112
-95
-62
-63
-90
-97
-76
-60
-69
-76
-61
-43
-34
-20
0
6
-10
-38
-57
-55
-51
-53
-49
-43
-48
-48
-50
-53
-23
64
369
1012
1416
777
-454
-997
-638
-198
-64
-45
-34
-31
-12
3
4
15
24
20
30
53
61
59
68
84
96
111
126
135
145
167
192
205
216
247
278
275
259
274
290
260
207
161
111
48
-13
-52
-68
-84
-103
-111
-109
-114
-122
-118
-106
-96
-94
-102
-105
-90
-78
-93
-115
-118
-108
-102
-101
-104
-103
-101
-108
-108
-92
-88
-103
-107
-100
-99
-99
-93
-90
-87
-82
-83
-86
-81
-78
-82
-84
-85
-83
-72
-62
-60
-50
-33
-26
-14
8
3
-36
-61
-60
-65
-70
-58
-50
-56
-52
-54
-66
-38
56
336
921
1335
818
-338
-955
-685
-236
-66
-36
-13
-7
-9
-1
13
26
28
30
46
59
61
67
82
95
102
109
122
136
150
168
188
202
215
232
248
263
278
278
267
257
231
176
113
53
-5
-48
-68
-82
-97
-108
-109
-104
-100
-103
-104
-101
-100
-100
-99
-97
-94
-95
-99
-98
-95
-105
-111
-104
-102
-111
-113
-109
-107
-104
-97
-92
-95
-101
-100
-93
-92
-92
-88
-86
-91
-91
-86
-85
-84
-77
-76
-80
-78
-71
-68
-61
-42
-27
-15
2
-2
-39
-64
-59
-59
-69
-66
-61
-62
-57
-63
-81
-55
18
234
824
1453
1193
1
-923
-884
-429
-157
-75
-42
-31
-26
-14
4
18
18
21
41
59
64
71
83
92
107
127
141
153
170
187
201
221
245
267
289
311
326
332
329
307
263
204
138
67
0
-48
-80
-101
-115
-124
-132
-136
-131
-124
-120
-114
-110
-116
-126
-123
-115
-119
-127
-125
-125
-128
-125
-127
-135
-132
-121
-123
-133
-136
-130
-117
-113
-123
-128
-117
-106
-110
-116
-107
-93
-92
-100
-102
-96
-93
-91
-90
-83
-62
-41
-34
-22
-2
-8
-41
-59
-57
-62
-63
-50
-48
-56
-48
-53
-65
-34
67
452
1255
1694
847
-560
-1037
-576
-168
-82
-51
-36
-50
-30
-1
0
1
16
29
36
41
49
63
77
88
100
118
134
148
169
191
208
225
251
275
293
308
320
323
310
273
219
159
91
18
-42
-78
-103
-124
-138
-143
-142
-136
-129
-131
-135
-129
-120
-119
-113
-102
-101
-105
-104
-104
-110
-105
-94
-97
-108
-111
-109
-109
-103
-92
-93
-100
-100
-97
-93
-83
-78
-86
-91
-80
-71
-71
-69
-63
-61
-63
-65
-62
-53
-52
-65
-67
-59
-56
-56
-50
-47
-47
-47
-53
-54
-31
-2
8
11
15
-1
-29
-36
-25
-30
-42
-45
-46
-33
-19
-41
-51
3
152
647
1424
1524
415
-782
-915
-411
-117
-71
-44
-31
-28
-11
-4
-3
8
17
26
43
50
47
57
85
104
103
105
122
145
166
180
190
213
247
273
287
295
304
318
315
274
216
153
80
7
-45
-83
-116
-138
-146
-149
-156
-158
-151
-144
-138
-134
-135
-138
-134
-125
-127
-132
-126
-115
-122
-137
-140
-136
-134
-130
-130
-136
-133
-122
-123
-131
-130
-125
-118
-114
-117
-113
-99
-96
-101
-100
-103
-101
-81
-70
-79
-83
-79
-77
-78
-81
-72
-46
-27
-16
10
23
-9
-39
-31
-22
-36
-37
-22
-30
-38
-13
-15
-55
-40
53
313
940
1502
1076
-167
-925
-708
-234
-22
19
17
18
45
39
-16
-32
10
40
35
33
57
89
95
76
77
116
146
138
135
159
184
198
220
241
255
272
283
287
299
292
232
158
113
73
19
-30
-66
-92
-106
-111
-107
-100
-106
-116
-111
-99
-93
-94
-96
-96
-93
-88
-81
-80
-88
-94
-93
-89
-91
-95
-94
-89
-89
-98
-103
-96
-91
-96
-103
-100
-91
-88
-89
-89
-93
-94
-89
-88
-87
-80
-80
-86
-89
-90
-89
-84
-78
-74
-74
-85
-94
-90
-76
-54
-34
-27
-23
-21
-39
-60
-60
-62
-77
-79
-73
-81
-70
-40
-69
-110
-44
85
362
1006
1510
945
-343
-1008
-724
-288
-138
-93
-32
-1
-2
-1
10
24
44
61
55
51
86
117
100
89
122
158
167
176
193
208
215
231
276
315
311
307
333
345
332
311
266
197
125
58
10
-29
-90
-140
-134
-118
-129
-138
-132
-131
-136
-135
-122
-105
-105
-120
-119
-110
-121
-144
-141
-119
-106
-112
-125
-138
-146
-144
-126
-107
-109
-120
-120
-112
-110
-117
-120
-101
-76
-80
-112
-128
-109
-86
-83
-74
-40
-33
-85
-121
-94
-65
-66
-67
-65
-56
-24
-17
-65
-85
-15
56
51
24
21
-7
-49
-14
84
140
111
36
-44
-111
-140
-131
-51
341
1133
1554
786
-474
-872
-433
-82
-40
-18
16
17
36
48
25
17
36
44
41
66
105
108
77
72
112
138
118
107
142
168
158
167
215
248
246
241
247
260
275
265
214
148
75
2
-40
-67
-127
-191
-203
-190
-190
-198
-199
-199
-201
-195
-172
-156
-171
-194
-177
-129
-107
-133
-160
-154
-138
-129
-123
-128
-135
-131
-130
-140
-138
-128
-135
-134
-93
-60
-78
-107
-102
-80
-68
-59
-51
-42
-23
8
18
-14
-52
-51
-29
-30
-41
-35
-42
-63
-46
-27
-53
-54
18
301
995
1590
1092
-245
-1008
-746
-274
-101
-64
-38
-35
-23
-1
-8
-25
-1
45
47
16
23
56
60
61
89
107
107
126
164
191
208
232
261
286
316
349
368
365
353
329
274
201
132
60
-15
-69
-97
-113
-127
-142
-144
-137
-146
-159
-136
-99
-90
-94
-100
-118
-127
-123
-119
-106
-95
-109
-123
-118
-115
-121
-125
-121
-109
-110
-123
-125
-122
-126
-116
-103
-109
-103
-86
-93
-100
-82
-81
-100
-95
-81
-88
-94
-83
-65
-47
-20
8
0
-47
-81
-74
-58
-57
-54
-59
-74
-48
-18
-75
-126
-43
189
755
1492
1385
106
-976
-860
-286
-75
-76
-44
-31
-44
-60
-86
-84
-44
-28
-39
-17
22
28
36
94
138
112
84
117
165
182
206
257
272
247
263
315
320
295
305
312
272
220
175
105
19
-45
-78
-85
-80
-98
-128
-116
-88
-98
-115
-105
-87
-83
-99
-117
-98
-66
-77
-98
-91
-87
-105
-116
-115
-116
-114
-94
-67
-81
-145
-157
-65
-11
-90
-153
-109
-78
-110
-113
-78
-78
-97
-72
-37
-48
-66
-45
-19
-7
2
-5
-30
-54
-73
-70
-48
-50
-74
-67
-49
-68
-61
2
69
313
881
1233
683
-383
-900
-623
-200
-39
-15
-9
-28
-33
-3
13
6
16
35
26
7
23
54
57
48
58
76
83
95
109
116
126
144
164
194
213
200
198
231
246
227
212
160
44
-37
-44
-55
-86
-94
-95
-114
-130
-115
-89
-88
-94
-88
-109
-137
-92
-28
-50
-123
-168
-136
-42
-24
-120
-142
-63
-16
29
39
-78
-131
-51
-83
-170
-104
-39
-85
-89
-50
-61
-57
-3
28
32
36
19
5
11
-8
-38
-40
-49
-41
-4
-37
-91
-48
-51
-133
-7
399
838
994
556
-322
-885
-749
-349
-130
-85
-76
-51
-29
-31
-15
12
-10
4
69
-4
-117
20
202
125
26
112
182
159
174
225
242
233
235
255
257
247
290
331
275
225
230
132
3
54
114
-25
-153
-112
-66
-92
-103
-89
-77
-65
-76
-98
-71
-28
-51
-108
-112
-72
-52
-67
-96
-99
-69
-69
-113
-134
-123
-123
-128
-120
-119
-135
-153
-154
-119
-83
-92
-112
-87
-50
-66
-118
-135
-125
-136
-139
-98
-95
-159
-183
-139
-113
-96
-43
95
487
1052
1129
337
-637
-929
-597
-226
-81
-54
-27
-7
-38
-73
-21
54
29
-3
82
116
-7
-54
76
151
98
88
148
174
168
184
209
220
244
291
319
313
318
338
318
241
172
133
71
-11
-44
-49
-88
-129
-125
-107
-111
-118
-97
-66
-68
-91
-95
-80
-62
-63
-94
-99
-70
-95
-160
-134
-41
-13
-44
-66
-80
-87
-79
-78
-79
-51
-25
-46
-79
-59
-1
28
8
-11
-5
-16
-54
-72
-68
-83
-98
-72
-37
-52
-96
-88
-15
164
634
1201
1079
49
-912
-987
-542
-245
-174
-128
-91
-102
-104
-76
-59
-44
-15
2
6
16
30
57
96
107
97
115
151
175
201
231
243
252
285
307
295
298
335
347
299
231
175
117
35
-47
-92
-100
-101
-113
-131
-147
-159
-162
-147
-125
-118
-121
-118
-117
-113
-100
-97
-115
-133
-131
-115
-105
-115
-131
-129
-111
-108
-120
-107
-81
-93
-120
-93
-40
-32
-57
-59
-52
-68
-87
-83
-77
-81
-87
-101
-101
-82
-89
-89
-23
142
615
1307
1320
211
-921
-1016
-500
-174
-104
-87
-84
-79
-47
-14
-12
-36
-42
-11
15
11
19
51
61
54
75
102
110
136
179
194
197
231
273
295
315
337
342
336
324
275
183
96
21
-56
-106
-125
-154
-168
-148
-152
-182
-169
-127
-121
-139
-142
-131
-127
-125
-106
-84
-87
-104
-109
-102
-102
-102
-88
-78
-92
-101
-82
-71
-71
-55
-45
-65
-75
-44
2
20
-4
-41
-51
-46
-51
-56
-50
-44
-31
-24
-42
-39
13
173
685
1418
1421
287
-824
-864
-342
-81
-66
-35
3
-6
-48
-66
-18
24
0
-21
8
32
27
28
41
57
79
92
91
112
141
135
133
177
214
215
219
230
225
212
193
154
96
26
-44
-99
-146
-182
-193
-198
-221
-234
-216
-192
-187
-200
-211
-200
-182
-179
-173
-154
-148
-151
-143
-130
-120
-108
-90
