# session 2
201
215
198
223
326
407
404
383
385
381
371
371
371
367
367
365
355
348
348
347
343
338
332
325
321
317
310
304
301
296
289
281
272
264
260
252
239
230
227
220
207
194
183
172
163
153
143
130
117
104
92
88
91
90
90
95
83
43
3
-12
-24
-47
-61
-69
-89
-98
-104
-143
-165
-119
21
469
1158
1225
206
-894
-1056
-651
-404
-357
-337
-343
-361
-362
-371
-389
-397
-406
-421
-433
-439
-444
-450
-457
-461
-463
-465
-467
-461
-445
-440
-455
-453
-414
-387
-387
-364
-343
-396
-476
-502
-515
-573
-645
-700
-749
-798
-839
-869
-888
-899
-907
-908
-898
-887
-886
-893
-888
-869
-855
-850
-836
-812
-809
-819
-804
-782
-785
-783
-760
-742
-720
-679
-636
-596
-546
-500
-466
-421
-371
-344
-331
-300
-258
-222
-178
-113
-55
-19
4
16
28
63
101
120
151
201
229
249
294
340
368
407
458
503
547
585
605
617
633
658
716
825
985
1167
1321
1416
1472
1510
1523
1511
1503
1505
1505
1522
1554
1580
1621
1666
1674
1716
1825
2007
2500
3195
3193
2163
1214
1220
1670
1912
1994
2059
2077
2084
2115
2126
2112
2093
2060
2025
2009
1993
1957
1927
1919
1913
1895
1872
1853
1846
1843
1820
1780
1754
1734
1698
1658
1620
1562
1488
1406
1297
1171
1044
903
749
608
488
372
255
143
41
-66
-180
-283
-387
-519
-645
-725
-810
-919
-994
-1028
-1071
-1134
-1234
-1389
-1535
-1614
-1657
-1686
-1687
-1716
-1801
-1860
-1894
-2049
-2349
-2666
-2944
-3215
-3479
-3723
-3963
-4212
-4486
-4780
-5049
-5287
-5521
-5730
-5874
-5975
-6097
-6320
-6681
-7074
-7383
-7639
-7903
-8140
-8333
-8528
-8740
-8939
-9116
-9288
-9453
-9589
-9689
-9754
-9737
-9573
-9346
-9315
-9577
-9960
-10340
-10696
-10935
-11083
-11257
-11236
-10802
-10164
-9343
-8240
-7099
-5645
-3711
-2114
840
8793
19014
23976
23060
21624
21215
20366
19391
18780
18047
17241
16603
15948
15255
14637
14043
13462
12937
12427
11916
11437
10992
10565
10152
9750
9371
9019
8676
8342
8036
7755
7485
7228
6991
6771
6566
6373
6197
6041
5895
5759
5642
5531
5423
5348
5278
5192
5154
5115
4989
4946
4917
4197
2391
447
203
2301
4272
2571
-2833
-8474
-11873
-13308
-14002
-14469
-14321
-13263
-10778
-5062
3536
10079
11604
11049
11094
11329
11370
11203
11244
11879
10120
2798
-6714
-12980
-15915
-17713
-18610
-18616
-18412
-18200
-17914
-17615
-17311
-16959
-16397
-15510
-14632
-14134
-13748
-13070
-12387
-12024
-11450
-10322
-9363
-8907
-8303
-7436
-6886
-6756
-6832
-6985
-6910
-6500
-6049
-5591
-4911
-4134
-3495
-2932
-2350
-1843
-1481
-1144
-708
-220
204
553
879
1170
1370
1490
1594
1715
1852
1998
2138
2269
2409
2547
2644
2690
2718
2787
2949
3181
3381
3505
3584
3573
3456
3381
3380
3491
4002
4643
4568
4176
4960
7063
9091
10164
10871
12263
13943
14163
12505
10389
8665
7118
5793
4890
4235
3685
3278
2970
2687
2425
2191
1984
1812
1655
1490
1334
1208
1105
1004
908
830
762
677
594
555
538
511
486
461
441
436
415
346
259
173
65
-67
-186
-255
-284
-312
-362
-418
-469
-523
-577
-623
-672
-740
-819
-891
-962
-1033
-1099
-1159
-1216
-1272
-1329
-1382
-1427
-1465
-1499
-1527
-1553
-1573
-1582
-1592
-1612
-1628
-1630
-1635
-1645
-1652
-1648
-1632
-1603
-1574
-1558
-1545
-1528
-1517
-1520
-1526
-1526
-1526
-1525
-1515
-1498
-1483
-1467
-1444
-1419
-1400
-1388
-1370
-1345
-1321
-1298
-1266
-1223
-1183
-1149
-1109
-1071
-1053
-1049
-1026
-987
-957
-925
-879
-836
-789
-735
-708
-676
-576
-381
69
778
1016
175
-971
-1276
-853
-461
-300
-217
-170
-132
-76
-30
3
46
91
131
171
209
246
282
313
345
378
411
449
492
530
566
609
660
707
748
786
817
841
859
864
851
819
772
711
645
584
533
497
474
462
460
465
473
476
472
464
458
458
460
459
454
448
444
438
429
420
413
406
398
389
380
372
356
338
328
319
301
286
280
270
253
237
224
214
207
202
195
184
167
151
140
125
108
99
94
87
81
76
65
55
54
48
24
-5
-20
-26
-41
-62
-80
-94
-108
-116
-110
-98
-90
-85
-77
-79
-100
-117
-111
-106
-111
-108
-109
-119
-105
-102
-143
-143
-55
197
840
1490
1098
-262
-1111
-859
-389
-255
-232
-196
-195
-187
-168
-170
-166
-149
-147
-155
-151
-140
-135
-132
-118
-95
-80
-68
-50
-32
-15
14
49
79
108
140
164
171
165
152
138
119
77
7
-71
-141
-201
-240
-256
-266
-272
-267
-263
-261
-253
-242
-234
-228
-221
-212
-200
-186
-177
-174
-171
-165
-159
-156
-152
-146
-137
-133
-132
-128
-122
-117
-114
-110
-103
-94
-85
-80
-74
-64
-55
-52
-48
-38
-28
-20
-11
-2
3
8
16
25
33
39
45
53
60
63
68
75
80
82
85
89
93
91
89
94
100
97
93
100
105
79
45
52
92
130
168
195
177
133
93
53
24
38
83
124
154
177
199
216
207
171
144
133
112
85
64
36
23
37
11
-39
-2
159
559
1225
1486
660
-552
-923
-520
-186
-118
-95
-102
-139
-142
-143
-177
-207
-230
-264
-301
-351
-417
-463
-472
-466
-459
-447
-432
-427
-433
-428
-375
-259
-119
-13
59
159
304
442
524
544
525
493
454
410
367
330
297
272
266
272
271
263
258
249
224
192
167
145
114
76
45
25
1
-35
-60
-64
-63
-71
-83
-93
-103
-114
-126
-135
-141
-152
-176
-198
-208
-217
-230
-236
-234
-237
-244
-242
-235
-225
-206
-190
-188
-186
-170
-147
-128
-112
-98
-84
-71
-57
-33
-4
30
68
87
64
29
19
20
6
-10
-17
-35
-50
-41
-53
-77
-29
108
479
1181
1525
711
-592
-1047
-647
-270
-167
-128
-110
-113
-92
-69
-62
-48
-30
-16
3
21
34
51
65
74
89
107
122
142
168
192
218
250
276
298
325
352
363
357
344
327
287
219
140
66
4
-42
-78
-107
-121
-121
-127
-134
-126
-116
-114
-110
-99
-91
-89
-85
-78
-69
-62
-55
-47
-41
-34
-28
-29
-33
-32
-26
-22
-24
-28
-28
-27
-33
-36
-25
-16
-24
-30
-20
-14
-23
-25
-19
-25
-36
-32
-27
-36
-41
-33
-31
-38
-43
-47
-56
-63
-61
-57
-60
-65
-73
-88
-105
-116
-122
-118
-107
-98
-91
-86
-86
-83
-75
-75
-79
-75
-67
-60
-49
-37
-21
-12
-33
-78
-104
-111
-125
-136
-131
-143
-164
-158
-164
-191
-154
-32
287
941
1369
719
-541
-1075
-712
-319
-221
-186
-156
-168
-165
-139
-127
-123
-117
-113
-101
-79
-62
-50
-26
-2
16
49
103
150
190
240
303
369
436
501
558
614
666
696
703
702
684
631
551
470
391
309
243
205
186
170
153
130
107
96
87
52
6
-16
-23
-41
-60
-68
-88
-118
-133
-140
-161
-179
-182
-187
-201
-207
-201
-202
-208
-196
-171
-162
-174
-183
-190
-213
-239
-241
-224
-218
-224
-234
-242
-248
-246
-238
-226
-217
-215
-218
-228
-241
-249
-244
-220
-183
-148
-118
-82
-64
-92
-142
-171
-184
-208
-228
-222
-212
-201
-163
-142
-155
-114
14
339
1047
1605
1037
-324
-1041
-751
-302
-131
-65
-30
-31
-10
21
31
40
58
71
83
92
97
104
116
129
143
158
176
196
219
247
280
315
353
391
423
447
464
474
470
445
397
325
238
150
76
13
-40
-77
-96
-104
-109
-110
-107
-104
-100
-98
-96
-93
-90
-91
-90
-86
-84
-87
-90
-90
-91
-95
-99
-100
-102
-105
-106
-103
-102
-102
-103
-103
-103
-101
-98
-96
-95
-94
-93
-90
-87
-85
-81
-76
-73
-69
-65
-63
-64
-63
-62
-63
-65
-64
-63
-64
-64
-64
-66
-67
-67
-68
-68
-65
-66
-69
-70
-72
-72
-61
-45
-36
-24
-9
-15
-44
-60
-57
-58
-58
-54
-62
-66
-49
-64
-89
-45
87
486
1248
1597
722
-583
-947
-495
-161
-108
-71
-45
-47
-27
-10
-9
4
21
27
36
48
56
64
78
92
109
128
147
164
183
206
233
262
290
318
347
370
380
383
382
370
331
269
194
119
51
-7
-54
-91
-116
-125
-127
-133
-137
-135
-130
-128
-125
-121
-117
-110
-105
-102
-100
-100
-105
-104
-99
-101
-108
-108
-105
-103
-104
-110
-115
-108
-99
-102
-106
-106
-104
-102
-102
-107
-111
-106
-101
-103
-102
-96
-93
-93
-94
-95
-93
-88
-86
-84
-80
-77
-73
-70
-71
-75
-77
-77
-72
-66
-63
-64
-61
-58
-60
-60
-56
-58
-61
-57
-53
-54
-53
-53
-57
-57
-56
-57
-54
-40
-25
-15
2
22
20
-10
-37
-40
-39
-43
-37
-33
-42
-30
-21
-51
-35
73
329
971
1688
1414
69
-906
-773
-310
-126
-67
-26
-35
-27
4
6
6
26
41
45
52
61
71
85
99
113
131
150
163
178
203
228
254
285
319
348
373
392
408
419
415
388
338
268
185
101
28
-34
-81
-108
-122
-132
-136
-134
-131
-128
-123
-117
-111
-103
-100
-101
-99
-95
-95
-96
-98
-105
-119
-129
-135
-141
-146
-146
-144
-146
-153
-157
-160
-160
-159
-155
-149
-145
-142
-138
-135
-132
-129
-125
-120
-118
-116
-108
-98
-91
-86
-80
-76
-72
-67
-67
-68
-66
-62
-59
-59
-62
-66
-72
-81
-89
-91
-94
-101
-109
-114
-119
-122
-116
-96
-65
-44
-49
-65
-70
-74
-85
-94
-110
-136
-127
-99
-116
-111
-19
176
730
1570
1649
450
-743
-790
-286
-66
-44
-8
-9
-18
6
13
2
3
7
6
7
9
14
21
29
44
78
112
124
138
170
208
242
280
325
368
389
394
410
426
418
398
369
304
221
152
82
10
-32
-57
-84
-100
-106
-113
-115
-112
-111
-114
-119
-120
-109
-98
-91
-77
-63
-64
-67
-63
-63
-63
-57
-58
-67
-71
-73
-77
-80
-80
-75
-66
-65
-72
-72
-68
-71
-74
-71
-69
-71
-80
-89
-81
-63
-60
-66
-64
-62
-66
-65
-56
-54
-61
-62
-60
-65
-71
-71
-72
-76
-79
-76
-72
-75
-79
-80
-83
-88
-84
-77
-77
-81
-83
-88
-93
-98
-109
-114
-108
-100
-90
-64
-38
-45
-73
-81
-70
-68
-67
-51
-45
-55
-41
-27
-55
-47
51
294
890
1555
1315
65
-892
-811
-355
-145
-91
-58
-63
-65
-45
-34
-24
-1
18
22
31
53
67
69
81
109
130
134
140
161
187
207
229
263
303
341
367
376
377
384
392
373
320
256
189
112
36
-26
-70
-99
-119
-132
-137
-136
-132
-125
-118
-110
-101
-95
-91
-83
-76
-76
-75
-75
-80
-90
-98
-104
-109
-115
-121
-129
-136
-139
-139
-140
-141
-142
-142
-139
-134
-133
-136
-139
-137
-132
-137
-149
-157
-164
-174
-183
-184
-177
-154
-123
-101
-82
-56
-48
-75
-101
-99
-91
-96
-93
-81
-85
-79
-59
-77
-93
-36
127
643
1506
1728
627
-696
-949
-488
-191
-119
-72
-61
-65
-45
-35
-35
-27
-20
-16
-3
10
20
35
53
73
94
115
138
162
188
216
247
278
314
353
389
416
437
449
444
413
353
269
179
94
19
-42
-86
-117
-136
-144
-148
-152
-151
-144
-138
-137
-134
-127
-123
-123
-120
-117
-116
-117
-119
-120
-118
-115
-116
-116
-114
-114
-117
-120
-118
-115
-114
-114
-116
-116
-115
-112
-107
-104
-101
-96
-89
-86
-84
-82
-80
-77
-73
-71
-71
-71
-68
-66
-64
-61
-56
-54
-51
-40
-22
-6
9
25
22
-5
-29
-35
-40
-49
-44
-42
-58
-56
-45
-70
-71
3
190
745
1529
1514
304
-823
-844
-359
-135
-94
-57
-59
-59
-30
-20
-23
-15
-12
-8
9
20
19
25
41
55
67
81
95
113
138
165
189
214
247
283
315
336
352
367
371
349
296
217
130
53
-13
-77
-127
-152
-162
-171
-175
-173
-167
-160
-153
-148
-143
-137
-131
-125
-120
-117
-113
-109
-105
-104
-102
-101
-101
-100
-98
-97
-99
-101
-101
-102
-103
-104
-101
-100
-108
-116
-118
-115
-114
-118
-130
-147
-152
-127
-83
-39
3
44
52
16
-22
-28
-21
-28
-39
-44
-54
-58
-50
-67
-86
-45
83
513
1311
1635
706
-618
-993
-565
-226
-148
-109
-87
-87
-68
-53
-48
-36
-24
-15
-1
11
20
33
48
62
81
102
118
131
147
169
193
219
251
281
308
333
354
361
355
331
281
206
122
44
-27
-85
-128
-154
-166
-169
-171
-172
-167
-159
-156
-152
-145
-139
-133
-124
-117
-114
-111
-109
-109
-111
-111
-110
-111
-111
-109
-107
-106
-105
-103
-100
-101
-101
-96
-92
-91
-89
-85
-82
-80
-78
-77
-78
-76
-72
-67
-51
-33
-22
-8
3
-13
-45
-56
-52
-59
-64
-54
-53
-62
-47
-42
-67
-44
57
334
983
1558
1103
-189
-942
-689
-237
-85
-54
-26
-23
-16
1
9
14
18
20
29
39
44
52
66
79
93
108
122
135
150
169
194
220
245
274
306
333
351
360
364
356
324
265
190
114
41
-21
-69
-99
-119
-133
-138
-139
-143
-145
-138
-134
-135
-131
-122
-119
-119
-118
-120
-124
-125
-124
-129
-136
-137
-134
-135
-138
-141
-142
-142
-141
-138
-136
-139
-142
-141
-136
-133
-131
-130
-130
-130
-128
-124
-122
-119
-115
-115
-115
-110
-101
-85
-67
-52
-37
-22
-29
-57
-75
-73
-72
-77
-73
-64
-71
-69
-52
-69
-83
-23
130
586
1380
1637
635
-680
-1000
-548
-203
-106
-56
-39
-39
-18
-5
-6
5
19
26
32
40
50
62
74
83
95
110
126
143
161
182
207
234
264
292
319
339
350
355
354
337
294
227
152
77
9
-47
-86
-111
-128
-137
-141
-142
-141
-139
-137
-133
-129
-125
-123
-121
-118
-114
-113
-115
-115
-113
-109
-107
-105
-101
-97
-90
-84
-80
-76
-71
-63
-57
-53
-51
-47
-41
-34
-27
-23
-22
-20
-17
-14
-11
