# session 21
-37
-39
-46
37
161
177
128
120
131
135
156
181
176
162
168
162
121
87
88
87
76
90
99
75
61
68
64
68
140
388
842
1121
714
-170
-720
-600
-228
-19
32
51
55
42
41
58
82
86
68
60
72
76
76
83
88
91
101
111
117
123
136
149
148
148
168
190
196
202
207
195
171
142
94
39
-1
-33
-67
-95
-111
-117
-123
-134
-139
-134
-137
-145
-135
-125
-136
-145
-134
-137
-159
-163
-141
-132
-152
-151
-114
-100
-124
-125
-108
-123
-138
-117
-105
-129
-139
-111
-75
-62
-61
-51
-35
-23
-26
-52
-80
-82
-71
-67
-65
-68
-74
-57
-48
-74
-73
-14
123
489
986
1014
278
-585
-825
-497
-140
-23
-31
-23
2
17
29
39
49
61
61
51
50
57
67
87
105
108
107
114
130
149
159
161
172
190
196
210
234
234
215
209
192
137
75
32
-5
-42
-76
-106
-119
-111
-110
-125
-129
-112
-109
-128
-132
-113
-104
-110
-113
-113
-107
-103
-110
-120
-119
-117
-113
-103
-103
-109
-104
-95
-99
-103
-99
-97
-100
-96
-75
-45
-25
-21
-14
-9
-26
-50
-55
-50
-53
-55
-51
-59
-71
-54
-39
-52
-45
27
308
959
1479
996
-238
-956
-737
-281
-80
-45
-31
-4
17
10
2
16
26
23
29
40
42
41
46
61
80
94
107
123
138
153
172
196
217
233
254
276
275
261
245
203
138
83
43
2
-46
-93
-117
-120
-129
-139
-136
-136
-135
-118
-105
-115
-128
-124
-119
-140
-166
-153
-119
-112
-122
-116
-111
-121
-130
-131
-121
-100
-98
-115
-110
-91
-86
-77
-63
-63
-57
-50
-68
-77
-51
-29
-18
10
40
44
19
-17
-33
-38
-53
-58
-46
-50
-48
-18
-20
-52
-32
72
394
1012
1346
686
-458
-928
-599
-200
-51
-26
-46
-66
-42
-8
9
21
25
22
28
34
37
55
83
94
93
100
119
136
145
151
167
198
224
231
230
244
264
267
253
228
182
126
81
32
-35
-83
-93
-96
-105
-101
-90
-92
-101
-105
-106
-95
-77
-74
-79
-77
-86
-103
-104
-92
-89
-90
-93
-98
-97
-95
-100
-104
-100
-98
-99
-96
-95
-95
-91
-96
-107
-103
-86
-79
-85
-89
-89
-87
-90
-97
-101
-98
-90
-89
-87
-73
-61
-53
-29
-3
-19
-59
-69
-65
-81
-89
-71
-59
-60
-59
-70
-66
-19
80
420
1076
1397
706
-445
-952
-679
-260
-51
-10
-26
-15
19
25
27
56
67
44
40
61
73
80
97
114
127
136
147
170
191
188
191
221
251
261
268
282
297
296
265
232
209
146
34
-43
-52
-58
-86
-108
-115
-115
-105
-92
-90
-95
-98
-96
-89
-77
-73
-87
-99
-98
-102
-109
-97
-81
-99
-138
-149
-143
-162
-178
-134
-85
-103
-128
-110
-104
-115
-94
-70
-82
-92
-74
-55
-54
-65
-64
-44
-40
-66
-76
-56
-51
-57
-29
1
-10
-24
0
26
6
-40
-56
-39
-28
-33
-39
-49
-41
-9
-21
-66
-35
92
401
1006
1401
822
-347
-898
-589
-181
-60
-49
-40
-47
-43
-19
3
10
-3
-4
28
54
47
44
64
75
72
82
108
140
163
164
169
200
231
231
234
267
290
275
254
230
174
106
65
26
-31
-72
-94
-125
-143
-131
-119
-123
-132
-135
-117
-95
-106
-125
-117
-102
-100
-102
-107
-109
-103
-107
-116
-111
-111
-123
-124
-118
-112
-104
-104
-108
-102
-106
-125
-125
-104
-93
-93
-91
-91
-89
-79
-72
-79
-88
-86
-72
-56
-50
-51
-48
-46
-54
-53
-27
2
11
25
55
54
5
-29
-21
-16
-20
-13
-20
-34
-17
-9
-35
-17
83
400
1077
1534
888
-402
-951
-568
-158
-66
-34
5
-1
5
28
32
36
56
62
53
55
68
74
78
91
101
105
114
128
137
143
155
171
186
196
206
215
221
222
217
200
166
115
57
4
-38
-73
-99
-112
-117
-120
-119
-121
-125
-120
-109
-104
-105
-105
-102
-99
-98
-102
-104
-104
-106
-108
-105
-104
-106
-104
-104
-103
-102
-103
-105
-102
-98
-100
-99
-89
-83
-88
-94
-92
-86
-81
-79
-78
-77
-74
-71
-69
-68
-65
-60
-56
-54
-52
-48
-49
-51
-48
-44
-34
-15
-1
6
20
28
5
-26
-32
-29
-35
-35
-34
-41
-29
-19
-44
-42
22
220
812
1538
1356
90
-908
-807
-307
-97
-63
-31
-27
-22
0
5
7
23
29
28
39
50
55
63
76
87
100
118
135
149
167
188
208
229
251
270
284
292
296
296
283
240
173
104
47
-6
-56
-93
-113
-123
-125
-127
-131
-129
-122
-119
-116
-110
-107
-108
-106
-102
-103
-106
-107
-105
-102
-99
-100
-103
-103
-101
-103
-106
-103
-99
-99
-99
-95
-93
-90
-84
-82
-85
-87
-85
-85
-87
-86
-83
-81
-81
-81
-77
-74
-76
-80
-80
-74
-66
-64
-66
-64
-59
-56
-55
-55
-54
-53
-54
-53
-41
-19
-4
2
16
29
11
-22
-35
-36
-42
-38
-31
-42
-37
-20
-40
-44
18
183
693
1434
1436
282
-825
-850
-344
-97
-61
-23
-12
-17
1
13
16
25
31
34
42
51
59
71
85
97
110
124
137
151
169
189
208
228
248
266
281
292
297
295
282
251
198
133
70
15
-32
-71
-98
-112
-118
-120
-121
-120
-118
-114
-109
-105
-102
-100
-99
-99
-97
-94
-93
-96
-99
-98
-99
-101
-101
-101
-100
-98
-95
-93
-89
-86
-88
-89
-84
-82
-85
-83
-76
-75
-75
-72
-68
-68
-70
-73
-73
-70
-73
-77
-72
-64
-65
-70
-73
-71
-66
-64
-67
-70
-71
-70
-68
-70
-72
-71
-66
-51
-32
-20
-9
3
-10
-44
-59
-52
-55
-59
-51
-54
-57
-40
-51
-73
-33
86
460
1201
1582
779
-523
-981
-583
-196
-87
-45
-20
-19
-8
7
11
19
31
39
47
58
68
79
91
105
118
129
146
165
179
193
216
241
263
284
304
319
328
331
322
294
243
177
107
41
-13
-56
-87
-108
-118
-122
-124
-123
-119
-114
-110
-107
-107
-108
-106
-103
-102
-102
-104
-102
-99
-100
-106
-106
-102
-102
-106
-108
-105
-101
-101
-103
-103
-101
-100
-101
-99
-98
-98
-96
-95
-96
-94
-90
-90
-89
-82
-79
-82
-83
-82
-84
-82
-77
-76
-75
-69
-64
-67
-75
-75
-66
-59
-49
-31
-17
-4
9
1
-32
-51
-49
-52
-53
-46
-51
-50
-27
-39
-63
-21
91
476
1258
1634
750
-591
-971
-505
-145
-79
-44
-28
-38
-20
-3
-5
5
18
22
30
41
51
64
74
83
101
122
128
135
157
183
203
224
251
273
289
303
310
306
295
271
223
154
83
22
-27
-66
-99
-121
-127
-130
-134
-126
-117
-123
-121
-100
-98
-119
-125
-110
-97
-85
-79
-91
-104
-98
-87
-85
-84
-79
-79
-80
-79
-78
-78
-77
-77
-79
-79
-78
-78
-79
-82
-83
-82
-82
-81
-75
-74
-86
-88
-76
-78
-90
-83
-72
-85
-95
-82
-68
-70
-76
-76
-71
-66
-60
-42
-24
-17
-8
0
-19
-51
-60
-54
-56
-55
-47
-40
-21
-14
-43
-49
1
113
526
1262
1490
578
-608
-900
-472
-118
-15
12
18
26
47
38
19
30
49
60
80
82
64
91
143
123
72
98
148
142
136
171
197
222
270
291
280
290
292
259
249
239
164
74
24
-22
-79
-121
-149
-167
-179
-186
-184
-180
-176
-163
-150
-142
-126
-110
-100
-90
-96
-124
-143
-140
-130
-119
-111
-111
-115
-112
-107
-104
-98
-93
-98
-112
-115
-101
-93
-110
-123
-103
-88
-103
-108
-91
-91
-102
-94
-79
-67
-51
-55
-88
-107
-86
-52
-35
-32
-15
16
17
-20
-45
-43
-40
-37
-24
-24
-34
-19
-10
-37
-25
61
307
926
1547
1202
-78
-957
-794
-305
-86
-32
-4
-7
-4
10
4
-4
9
28
37
38
38
52
74
84
86
103
129
141
144
162
202
242
254
260
286
319
337
345
343
319
270
202
125
57
9
-30
-66
-85
-89
-99
-116
-120
-117
-123
-133
-134
-128
-121
-116
-118
-128
-131
-120
-115
-125
-128
-118
-117
-131
-134
-123
-116
-115
-110
-109
-118
-126
-125
-116
-103
-98
-107
-111
-95
-89
-110
-120
-103
-90
-97
-96
-82
-79
-90
-97
-92
-85
-80
-76
-71
-69
-62
-47
-38
-36
-17
3
-11
-36
-41
-49
-66
-55
-36
-49
-55
-30
-41
-71
-32
84
432
1154
1570
813
-505
-991
-578
-178
-78
-34
-1
-16
-21
2
28
38
32
34
55
70
72
79
92
105
122
142
155
166
186
206
222
242
271
298
316
330
339
342
333
300
246
184
115
45
-9
-50
-88
-108
-113
-122
-130
-126
-124
-121
-112
-115
-126
-120
-109
-110
-106
-96
-101
-112
-113
-116
-127
-129
-121
-119
-121
-117
-114
-118
-120
-114
-112
-115
-115
-111
-108
-101
-92
-88
-91
-87
-70
-60
-63
-67
-63
-57
-50
-44
-46
-49
-49
-50
-51
-49
-47
-48
-47
-49
-53
-58
-58
-55
-54
-60
-63
-58
-52
-51
-50
-35
-10
4
11
30
38
9
-21
-22
-24
-32
-25
-18
-26
-17
-10
-38
-33
38
231
801
1502
1323
85
-896
-797
-302
-92
-57
-24
-19
-19
-1
6
7
17
29
36
44
54
66
76
85
97
111
127
144
160
174
190
211
236
264
286
300
311
325
331
313
272
221
156
79
9
-38
-74
-107
-125
-130
-140
-151
-147
-138
-136
-137
-131
-127
-127
-125
-117
-110
-113
-119
-118
-112
-110
-115
-122
-122
-117
-116
-119
-121
-120
-119
-117
-113
-112
-110
-104
-104
-107
-103
-95
-95
-97
-92
-86
-85
-86
-86
-81
-76
-76
-75
-70
-71
-77
-72
-64
-63
-65
-62
-62
-62
-58
-54
-55
-52
-34
-15
-4
13
29
13
-21
-33
-33
-42
-46
-34
-36
-45
-28
-27
-54
-33
59
370
1088
1624
1010
-345
-994
-647
-203
-77
-49
-24
-22
-6
13
11
15
30
38
43
55
67
74
83
95
112
128
141
155
172
191
211
235
263
289
311
328
341
348
344
317
265
196
121
50
-13
-63
-97
-118
-130
-135
-137
-140
-140
-138
-136
-132
-124
-120
-120
-114
-107
-106
-102
-98
-102
-107
-103
-101
-105
-108
-105
-101
-98
-97
-93
-88
-89
-92
-89
-81
-79
-80
-81
-83
-80
-73
-72
-74
-72
-70
-70
-68
-62
-58
-57
-56
-54
-53
-55
-58
-55
-51
-53
-56
-50
-45
-50
-54
-48
-44
-48
-51
-44
-37
-37
-42
-41
-34
-21
-4
9
17
26
22
-2
-21
-22
-25
-29
-22
-25
-39
-26
-15
-37
-28
40
247
835
1511
1292
67
-888
-817
-348
-118
-62
-34
-35
-30
-8
-2
1
14
19
23
38
50
53
63
82
97
102
107
123
148
172
191
215
245
275
300
320
334
347
354
339
296
231
153
74
8
-48
-101
-139
-157
-163
-168
-167
-158
-151
-150
-151
-151
-145
-138
-134
-127
-119
-118
-124
-128
-127
-125
-122
-120
-122
-125
-123
-119
-120
-120
-116
-113
-113
-113
-112
-113
-110
-103
-102
-104
-100
-93
-93
-95
-95
-92
-86
-80
-81
-88
-89
-84
-78
-81
-85
-82
-78
-71
-53
-35
-23
-7
3
-20
-55
-60
-51
-58
-63
-53
-53
-55
-35
-39
-68
-37
70
422
1209
1739
1000
-439
-1032
-624
-198
-89
-45
-16
-26
-16
2
4
17
35
38
41
55
69
78
89
104
119
133
154
177
189
203
235
270
295
320
349
373
386
391
384
353
291
212
130
54
-8
-53
-92
-123
-132
-134
-141
-144
-140
-136
-131
-125
-119
-114
-111
-112
-109
-100
-97
-104
-106
-96
-90
-96
-102
-101
-104
-106
-98
-92
-96
-98
-97
-100
-98
-88
-85
-93
-98
-91
-84
-84
-85
-78
-75
-81
-86
-81
-77
-80
-81
-81
-84
-77
-62
-69
-84
-75
-65
-72
-64
-44
-51
-75
-79
-66
-50
-41
-47
-59
-58
-46
-36
-33
-36
-37
-24
-3
12
28
47
37
0
-17
-13
-24
-38
-31
-29
-44
-32
-16
-45
-50
20
198
742
1513
1477
249
-877
-875
-358
-119
-88
-51
-34
-34
-19
-6
2
10
8
5
14
33
48
55
64
79
92
97
119
160
182
179
197
233
252
269
303
330
338
341
333
300
243
164
79
8
-50
-97
-131
-150
-157
-157
-156
-159
-159
-153
-144
-140
-139
-136
-131
-128
-124
-121
-120
-114
-108
-110
-111
-107
-113
-118
-109
-100
-102
-102
-98
-96
-92
-87
-86
-87
-84
-79
-79
-78
-72
-59
-51
-59
-74
-73
-52
-35
-37
-49
-55
-51
-40
-32
-34
-41
-39
-30
-30
-37
-34
-30
-30
-20
-6
-11
-23
-19
-12
-13
-17
-17
-12
-4
7
24
46
67
78
73
50
24
16
20
16
14
20
17
9
17
11
-1
40
137
412
1020
1433
830
-394
-978
-657
-205
-37
5
26
22
23
33
37
44
56
65
71
73
71
75
91
114
128
132
142
154
154
153
180
227
260
272
283
301
320
339
342
314
268
208
125
44
-11
-58
-109
-145
-167
-182
-183
-178
-178
-177
-173
-174
-167
-150
-142
-149
-156
-157
-154
-151
-151
-153
-155
-155
-158
-164
-166
-161
-161
-167
-165
-158
-158
-162
-163
-168
-177
-168
-144
-134
-150
-165
-157
-135
-132
-151
-146
-118
-123
-141
-110
-76
-82
-74
-44
-53
-86
-95
-94
-100
-108
-107
-96
-78
-63
-74
-97
-63
32
250
824
1440
1113
-196
-1124
-933
-364
-115
-74
-30
4
2
-12
-5
22
37
34
34
44
56
62
64
78
101
110
117
137
152
148
151
178
211
234
248
263
279
275
237
