# session 19
2
3
1
4
23
52
57
42
48
54
32
34
100
296
793
1352
1205
202
-698
-763
-355
-90
-39
-10
20
3
-12
13
28
17
12
34
72
88
65
49
54
59
85
130
137
127
161
196
184
197
251
263
255
293
313
277
261
265
231
178
118
27
-53
-74
-77
-109
-144
-150
-147
-155
-165
-161
-143
-122
-119
-129
-134
-143
-156
-148
-127
-131
-152
-149
-129
-131
-148
-148
-136
-131
-140
-154
-155
-138
-122
-115
-106
-103
-121
-137
-127
-107
-102
-108
-109
-105
-99
-89
-71
-55
-47
-37
-22
-19
-31
-47
-67
-78
-73
-69
-69
-61
-50
-53
-68
-63
-14
132
566
1222
1343
428
-684
-906
-445
-111
-59
-52
-32
-27
-12
13
26
16
1
9
36
51
56
69
81
85
96
116
129
141
157
164
169
193
219
240
262
273
269
277
289
275
232
178
123
73
16
-39
-75
-92
-103
-109
-112
-109
-104
-105
-108
-109
-110
-96
-76
-86
-110
-111
-105
-109
-105
-104
-117
-120
-106
-102
-111
-106
-95
-102
-112
-102
-86
-86
-94
-95
-86
-76
-76
-79
-71
-61
-60
-61
-58
-46
-19
2
5
15
19
-10
-40
-40
-42
-61
-62
-45
-39
-40
-42
-60
-59
-15
82
416
1034
1297
587
-513
-919
-569
-178
-62
-56
-44
-29
-18
-10
1
13
10
3
12
30
40
50
64
71
71
78
91
107
125
140
152
175
201
211
214
231
253
266
274
261
218
168
111
40
-17
-42
-65
-105
-131
-127
-120
-129
-136
-129
-123
-128
-129
-119
-115
-119
-120
-118
-117
-115
-111
-111
-115
-121
-119
-111
-108
-110
-107
-108
-112
-106
-95
-91
-93
-96
-95
-88
-86
-89
-86
-79
-76
-66
-45
-25
-8
-3
-20
-42
-48
-53
-61
-52
-33
-39
-51
-42
-49
-62
-23
96
455
1121
1448
738
-455
-967
-666
-255
-83
-39
-24
-18
-9
-3
-2
8
22
30
38
47
51
55
71
85
87
96
118
134
143
163
188
203
212
228
253
276
279
278
286
277
229
167
113
54
-12
-62
-88
-107
-117
-117
-125
-136
-131
-121
-123
-131
-131
-124
-116
-113
-118
-121
-119
-120
-124
-121
-111
-113
-123
-121
-109
-107
-114
-116
-112
-109
-109
-107
-99
-94
-96
-98
-92
-84
-80
-80
-82
-81
-69
-49
-34
-21
-3
-1
-27
-48
-44
-45
-61
-60
-48
-53
-49
-32
-46
-58
-12
130
573
1279
1435
482
-695
-955
-497
-141
-66
-44
-20
-21
-20
-8
1
13
22
22
28
42
50
58
74
86
89
96
113
133
143
146
162
194
222
237
248
261
271
276
270
254
222
170
103
37
-18
-61
-96
-118
-128
-134
-141
-143
-140
-139
-142
-138
-128
-122
-121
-124
-128
-129
-129
-129
-128
-125
-125
-126
-127
-128
-130
-126
-122
-126
-127
-122
-118
-115
-111
-108
-109
-108
-106
-97
-76
-57
-46
-29
-17
-35
-67
-79
-73
-71
-72
-68
-71
-78
-64
-56
-74
-62
12
272
929
1564
1210
-72
-970
-845
-363
-126
-65
-35
-30
-25
-7
4
8
16
25
34
47
60
68
78
95
110
117
126
144
163
175
192
217
240
260
283
306
318
318
317
305
262
198
133
64
-2
-46
-77
-108
-128
-135
-139
-142
-136
-129
-126
-126
-124
-122
-121
-124
-123
-118
-113
-115
-119
-124
-128
-130
-129
-126
-120
-118
-125
-130
-125
-120
-121
-121
-115
-112
-109
-101
-99
-109
-111
-100
-84
-66
-51
-39
-24
-18
-42
-71
-77
-74
-78
-76
-73
-80
-71
-55
-73
-80
-37
122
684
1521
1575
364
-867
-963
-435
-143
-95
-60
-49
-53
-32
-21
-24
-15
-1
5
16
34
46
52
61
74
88
101
116
138
163
181
193
215
244
267
286
303
311
309
300
274
221
152
83
18
-37
-79
-113
-137
-144
-140
-138
-141
-141
-135
-130
-128
-124
-119
-120
-122
-119
-116
-116
-115
-116
-118
-120
-121
-120
-119
-120
-123
-122
-121
-120
-114
-109
-112
-116
-113
-110
-108
-98
-77
-60
-51
-35
-16
-24
-57
-76
-70
-70
-79
-78
-73
-74
-64
-63
-86
-72
-5
212
844
1545
1273
-30
-986
-841
-324
-106
-76
-48
-38
-37
-21
-9
-2
4
10
23
38
44
51
70
86
94
102
117
133
153
171
184
201
227
251
269
281
290
300
303
287
249
194
126
56
0
-47
-83
-99
-104
-119
-133
-122
-104
-107
-116
-104
-97
-114
-125
-108
-91
-93
-94
-91
-100
-110
-103
-92
-96
-101
-90
-80
-84
-92
-89
-80
-75
-77
-79
-74
-66
-61
-59
-58
-57
-53
-48
-47
-50
-54
-57
-59
-56
-48
-46
-56
-62
-59
-57
-49
-34
-20
-10
3
17
22
9
-16
-32
-27
-23
-28
-26
-26
-33
-26
-25
-47
-37
34
254
777
1269
970
-74
-835
-754
-321
-91
-62
-50
-25
-24
-28
-16
-16
-25
-16
-2
2
10
23
31
42
54
59
66
83
99
113
131
152
179
203
215
226
244
257
263
262
242
198
146
92
32
-20
-50
-74
-99
-112
-114
-112
-108
-110
-112
-98
-84
-90
-100
-95
-89
-94
-104
-106
-95
-90
-105
-114
-103
-95
-106
-112
-98
-87
-94
-105
-99
-86
-87
-91
-74
-64
-81
-78
-53
-71
-106
-84
-45
-60
-88
-74
-42
-26
-18
-2
16
11
-23
-50
-37
-16
-28
-45
-42
-41
-39
-39
-65
-73
-14
157
615
1240
1255
289
-735
-871
-437
-146
-82
-46
-14
-2
7
7
13
33
45
48
53
54
56
75
94
104
126
152
157
146
152
180
205
212
212
221
238
258
276
282
267
238
204
154
89
28
-21
-61
-88
-106
-121
-127
-129
-132
-133
-132
-132
-132
-127
-120
-121
-135
-146
-137
-124
-125
-128
-131
-144
-150
-135
-123
-128
-135
-138
-138
-133
-131
-122
-103
-106
-131
-126
-102
-113
-125
-95
-73
-86
-95
-94
-105
-104
-67
-28
-24
-28
-11
-3
-34
-67
-71
-69
-62
-41
-35
-49
-47
-50
-69
-39
51
316
963
1537
1094
-183
-961
-737
-266
-81
-46
-20
-16
-15
-4
4
19
37
38
29
35
56
69
70
75
91
115
135
145
152
174
208
235
243
244
258
295
330
328
312
307
271
194
138
105
39
-33
-65
-87
-117
-127
-119
-117
-112
-105
-110
-120
-121
-118
-117
-120
-125
-122
-114
-118
-132
-134
-133
-144
-143
-126
-131
-148
-137
-119
-125
-132
-132
-143
-141
-110
-87
-98
-110
-99
-93
-115
-128
-102
-77
-82
-80
-50
-23
-12
-15
-33
-58
-70
-65
-66
-68
-56
-56
-76
-68
-44
-63
-68
-9
164
718
1508
1486
244
-909
-896
-349
-107
-81
-38
-23
-31
-20
-13
-7
8
11
16
39
53
48
52
65
75
88
111
132
144
153
163
184
219
259
286
286
278
297
320
301
252
198
134
60
-2
-42
-71
-106
-134
-130
-111
-125
-157
-153
-130
-140
-150
-115
-82
-86
-91
-91
-107
-119
-104
-87
-93
-111
-115
-106
-111
-123
-116
-104
-107
-103
-87
-92
-106
-89
-72
-90
-106
-84
-58
-62
-77
-80
-68
-51
-45
-57
-73
-74
-63
-59
-59
-50
-33
-9
18
28
5
-20
-25
-31
-53
-60
-43
-38
-58
-59
-41
-49
-44
9
122
511
1190
1373
474
-652
-879
-433
-123
-78
-56
-25
-18
-8
6
11
17
28
37
40
43
55
70
79
86
97
111
127
140
152
170
188
193
200
221
243
257
265
267
266
256
215
154
105
60
11
-30
-63
-94
-110
-114
-124
-125
-109
-107
-116
-111
-100
-103
-105
-97
-100
-121
-132
-118
-107
-114
-120
-118
-119
-123
-119
-111
-112
-125
-130
-117
-107
-114
-117
-107
-103
-110
-110
-102
-99
-101
-102
-103
-102
-91
-80
-73
-60
-38
-19
-4
-1
-30
-64
-64
-56
-74
-85
-64
-49
-54
-49
-48
-59
-31
62
353
963
1391
864
-313
-962
-722
-270
-77
-40
-21
-11
-1
16
28
33
33
37
50
63
71
80
91
100
109
122
137
149
159
172
191
211
232
256
278
293
304
311
309
292
252
191
123
56
-7
-54
-80
-96
-110
-119
-121
-122
-120
-117
-114
-113
-112
-109
-106
-110
-120
-121
-114
-112
-116
-118
-121
-127
-131
-131
-128
-124
-124
-124
-117
-111
-115
-121
-114
-102
-103
-108
-104
-99
-96
-90
-85
-88
-87
-80
-81
-86
-73
-46
-28
-18
-5
-8
-35
-57
-57
-59
-63
-57
-54
-64
-53
-37
-57
-57
-2
155
692
1469
1459
259
-881
-907
-379
-112
-71
-36
-28
-33
-13
1
3
14
21
21
33
51
60
66
80
98
115
128
135
148
168
183
199
222
244
262
285
302
303
300
293
262
202
136
75
20
-30
-81
-119
-128
-123
-127
-131
-126
-123
-121
-115
-115
-119
-119
-118
-115
-108
-111
-128
-137
-125
-113
-120
-135
-136
-126
-120
-123
-127
-127
-123
-115
-109
-109
-109
-104
-100
-102
-99
-93
-92
-91
-88
-94
-96
-84
-79
-90
-90
-72
-50
-36
-32
-17
13
13
-35
-66
-47
-33
-51
-61
-52
-46
-34
-38
-70
-50
49
287
883
1525
1232
-42
-958
-807
-304
-90
-59
-38
-31
-20
3
9
10
23
36
40
51
64
68
77
94
101
107
130
153
167
183
200
219
245
269
282
293
311
325
323
303
265
209
143
69
-3
-58
-92
-116
-127
-127
-124
-121
-120
-128
-122
-100
-101
-127
-128
-100
-93
-108
-106
-96
-106
-115
-106
-103
-109
-106
-101
-101
-96
-89
-96
-110
-104
-88
-92
-100
-90
-82
-85
-78
-68
-78
-88
-85
-87
-85
-66
-55
-57
-63
-80
-106
-122
-128
-135
-154
-170
-153
-109
-74
-52
-29
-28
-56
-60
-36
-51
-75
-31
4
-23
6
85
59
-30
32
436
1106
1369
633
-476
-856
-495
-136
-43
-27
-5
3
10
30
55
63
42
30
63
94
85
74
85
91
88
102
126
133
132
145
164
180
199
222
227
224
238
253
250
250
238
173
98
73
45
-35
-95
-91
-86
-112
-127
-114
-101
-104
-116
-121
-114
-105
-104
-100
-87
-85
-102
-110
-96
-94
-113
-118
-104
-103
-108
-100
-101
-114
-108
-91
-93
-105
-104
-100
-100
-97
-94
-97
-95
-90
-94
-99
-80
-51
-36
-27
-16
-28
-65
-87
-77
-67
-76
-85
-87
-90
-77
-68
-90
-83
-10
199
752
1384
1197
58
-888
-885
-436
-160
-77
-47
-39
-34
-16
3
13
14
18
29
47
63
71
76
84
98
117
134
144
159
182
198
210
230
251
266
283
301
305
297
278
242
187
123
56
-4
-51
-81
-103
-120
-128
-129
-131
-127
-112
-106
-115
-116
-106
-103
-107
-106
-106
-111
-112
-112
-117
-115
-109
-111
-117
-117
-115
-112
-105
-101
-105
-109
-106
-102
-101
-99
-92
-81
-79
-85
-83
-76
-77
-80
-76
-72
-70
-66
-64
-58
-41
-18
0
10
2
-30
-54
-50
-41
-47
-50
-55
-61
-45
-38
-61
-40
32
257
931
1663
1316
-83
-1000
-762
-253
-94
-75
-40
-34
-30
-14
-8
-3
3
5
18
35
40
45
59
74
85
97
111
127
146
164
179
199
228
254
270
283
294
300
301
288
249
183
109
44
-12
-63
-104
-130
-136
-136
-142
-146
-142
-138
-137
-132
-122
-119
-119
-114
-108
-106
-108
-109
-110
-112
-111
-111
-111
-107
-102
-103
-107
-103
-98
-101
-103
-99
-96
-95
-94
-91
-84
-78
-80
-85
-80
-68
-64
-71
-74
-69
-66
-66
-66
-63
-59
-59
-63
-63
-62
-63
-61
-54
-52
-54
-50
-48
-49
-35
-12
4
20
30
12
-20
-30
-25
-29
-29
-22
-29
-23
-9
-32
-39
26
176
663
1447
1553
426
-769
-857
-330
-66
-45
-16
-4
-8
12
22
23
39
53
53
52
61
78
95
102
107
120
135
149
167
184
196
207
224
245
264
277
289
300
302
289
267
235
182
113
50
0
-42
-70
-85
-101
-117
-116
-107
-107
-112
-113
-109
-106
-102
-99
-103
-108
-97
-85
-107
-136
-134
-128
-134
-127
-118
-125
-122
-115
-134
-153
-138
-120
-129
-145
-146
-138
-130
-127
-129
-128
-121
-122
-133
-137
-128
-122
-121
-111
-108
-124
-137
-121
-98
-95
-104
-107
-108
-109
-103
-99
-101
-97
-93
-89
-61
-30
-36
-34
8
6
-64
-103
-79
-61
-65
-64
-67
-70
-50
-55
-93
-71
29
293
954
1585
1162
-168
-973
-722
-246
-90
-79
-59
-33
-10
-14
-32
-24
-6
10
32
48
44
27
19
48
87
91
83
111
148
157
157
177
214
245
263
280
290
286
290
299
272
212
161
115
60
10
-29
-53
-60
-67
-68
-54
-49
-63
-61
-42
-31
-26
-24
-25
-22
-22
-29
-23
-12
-22
-40
-34
-17
-18
-23
-7
11
-1
-31
-45
-44
-37
-19
-6
-12
-21
-28
-25
2
16
-14
-29
1
17
-3
-18
-17
-9
-2
-17
-32
-9
24
23
24
63
84
48
7
3
12
8
7
9
-1
1
34
32
-9
12
115
403
1070
1622
1106
-222
-982
-728
-248
-56
-23
-15
-19
-17
-12
1
22
17
-10
-14
-2
-3
-3
0
3
35
84
84
50
32
7
-11
26
95
148
183
189
172
167
161
120
51
-22
-98
-162
-207
-278
-376
-407
-365
-355
-391
-404
-389
-383
-390
-395
-382
-353
-333
-351
-383
-378
-352
-348
-354
-346
-338
-341
-340
-328
-316
-307
-306
-304
-284
-255
-243
-237
-213
-190
-189
-182
-145
-108
-104
-109
-82
-39
-18
-9
19
50
70
99
134
150
166
201
228
250
306
373
398
431
509
527
463
459
540
585
596
634
648
657
741
798
782
852
1012
1347
2094
2604
1904
699
165
