# session 24
1
20
-38
107
467
644
581
554
574
510
409
321
227
158
115
58
15
11
3
-25
-32
-6
12
-6
-29
-24
-13
-20
-17
0
-15
-44
-35
-14
-21
-40
-54
-55
-41
-35
-51
-63
-65
-76
-80
-55
-42
-69
-87
-65
-45
-60
-79
-77
-67
-69
-76
-71
-55
-34
-14
3
4
-15
-33
-44
-55
-58
-50
-51
-68
-81
-61
-35
-58
-79
-35
139
703
1503
1493
256
-930
-986
-458
-159
-96
-72
-68
-62
-40
-27
-23
-20
-9
10
18
10
19
46
59
62
79
97
94
108
156
184
181
204
248
263
270
308
338
327
302
269
205
125
56
-6
-68
-117
-151
-174
-176
-166
-166
-177
-183
-177
-159
-147
-148
-147
-143
-149
-151
-136
-132
-147
-144
-125
-121
-130
-138
-144
-137
-128
-137
-136
-119
-124
-132
-112
-110
-134
-121
-93
-104
-116
-95
-74
-67
-56
-38
-15
-15
-45
-65
-59
-72
-93
-67
-39
-62
-68
-42
-66
-86
-12
180
730
1547
1598
371
-903
-1056
-541
-191
-86
-50
-37
-21
2
8
4
4
24
49
53
51
70
90
93
104
128
141
148
173
205
221
246
296
327
337
375
408
395
393
408
350
239
167
115
30
-57
-108
-125
-131
-141
-146
-147
-157
-155
-140
-139
-135
-116
-123
-143
-130
-118
-135
-140
-124
-119
-129
-141
-142
-129
-127
-143
-145
-126
-116
-127
-134
-127
-124
-130
-130
-118
-105
-102
-108
-110
-108
-111
-106
-84
-78
-99
-104
-82
-81
-105
-98
-62
-47
-54
-37
-5
-7
-36
-47
-45
-67
-90
-71
-50
-67
-62
-30
-49
-72
-24
185
853
1730
1611
194
-980
-888
-332
-114
-82
-46
-52
-51
-15
1
-4
1
20
40
41
40
66
85
71
74
113
137
147
179
198
200
226
262
285
316
341
339
344
363
354
315
265
191
101
29
-23
-68
-99
-116
-126
-126
-128
-142
-147
-126
-115
-135
-140
-116
-117
-140
-132
-109
-109
-118
-126
-139
-142
-124
-112
-119
-135
-138
-126
-122
-125
-119
-117
-129
-129
-119
-122
-122
-108
-109
-118
-109
-102
-106
-97
-88
-96
-100
-99
-102
-90
-70
-76
-88
-77
-63
-62
-52
-30
-6
9
-2
-32
-49
-56
-70
-71
-50
-46
-56
-43
-48
-90
-68
44
333
1060
1781
1353
-124
-1085
-886
-378
-147
-57
-24
-52
-45
4
16
5
21
45
47
41
50
72
91
101
110
121
137
160
176
186
218
259
281
295
322
356
382
385
372
356
325
260
173
84
0
-63
-102
-130
-145
-148
-167
-190
-178
-145
-139
-149
-148
-140
-136
-138
-139
-130
-126
-135
-141
-137
-133
-133
-139
-150
-152
-140
-133
-144
-154
-143
-129
-129
-130
-123
-127
-137
-135
-123
-116
-109
-103
-112
-122
-114
-106
-103
-84
-59
-47
-29
-1
-13
-69
-96
-75
-62
-73
-72
-68
-69
-59
-69
-85
-52
69
586
1604
2023
845
-758
-1094
-508
-156
-117
-68
-40
-53
-42
-27
-16
3
8
3
18
42
48
48
63
86
107
115
118
146
187
199
211
253
285
298
333
375
383
374
364
332
259
161
73
8
-49
-98
-135
-166
-179
-172
-173
-187
-184
-162
-144
-145
-167
-175
-143
-128
-151
-150
-131
-143
-149
-121
-117
-149
-161
-144
-123
-109
-120
-142
-127
-101
-115
-136
-119
-103
-112
-123
-119
-101
-89
-97
-96
-63
-46
-51
-25
9
-19
-73
-82
-68
-69
-75
-77
-76
-62
-59
-80
-72
-30
174
882
1737
1498
18
-1097
-933
-358
-151
-121
-51
-20
-36
-36
-24
-13
11
31
26
31
56
50
34
71
120
121
113
130
159
193
214
221
254
307
330
333
352
371
361
327
282
221
140
50
-22
-63
-96
-143
-170
-154
-151
-180
-177
-142
-139
-154
-147
-148
-153
-132
-121
-132
-126
-119
-132
-125
-111
-117
-106
-95
-128
-142
-111
-101
-114
-103
-102
-127
-126
-84
-45
-59
-114
-128
-82
-54
-57
-30
-4
-34
-72
-69
-64
-90
-100
-70
-51
-62
-79
-95
-87
-29
165
691
1349
1285
212
-830
-920
-428
-90
-37
-67
-60
-20
14
17
-10
-36
-15
29
46
47
63
73
71
76
101
141
164
157
164
207
243
260
280
296
309
327
337
333
324
289
216
134
63
-9
-73
-110
-121
-131
-146
-160
-173
-182
-176
-158
-149
-153
-160
-166
-169
-167
-156
-140
-134
-149
-158
-148
-152
-173
-165
-137
-138
-152
-146
-140
-149
-147
-124
-104
-98
-88
-60
-38
-55
-92
-108
-109
-115
-106
-79
-83
-107
-92
-77
-104
-95
-16
265
1012
1736
1301
-154
-1087
-881
-368
-147
-81
-40
-38
-41
-26
-14
-7
10
26
28
32
48
63
72
87
102
109
129
165
187
199
221
253
284
309
327
349
374
385
366
315
244
175
111
39
-28
-76
-106
-119
-121
-131
-141
-135
-126
-123
-125
-124
-114
-104
-109
-125
-126
-111
-107
-121
-129
-123
-118
-124
-136
-140
-122
-104
-111
-124
-116
-97
-99
-118
-117
-96
-89
-94
-86
-74
-80
-90
-78
-62
-71
-85
-75
-57
-42
-23
-15
-13
4
4
-44
-78
-61
-49
-58
-54
-55
-61
-51
-66
-90
-52
75
536
1425
1801
766
-709
-1095
-583
-200
-117
-66
-47
-66
-52
-27
-28
-22
-3
5
5
18
38
53
61
64
73
96
122
146
168
183
198
222
244
276
318
333
333
356
361
306
234
165
77
0
-47
-99
-153
-168
-161
-170
-189
-193
-174
-153
-149
-154
-152
-148
-155
-161
-139
-109
-109
-126
-128
-129
-147
-150
-123
-112
-132
-144
-130
-114
-117
-125
-118
-109
-109
-112
-121
-124
-104
-90
-109
-120
-91
-67
-73
-63
-14
11
-23
-70
-88
-86
-77
-65
-67
-82
-80
-53
-56
-91
-68
21
295
1084
1907
1463
-151
-1145
-840
-296
-138
-91
-39
-40
-23
-3
-19
-9
20
17
27
59
65
64
79
79
89
139
171
171
196
229
230
247
303
338
339
365
404
401
370
339
288
205
119
39
-34
-87
-125
-152
-152
-138
-143
-165
-176
-171
-151
-122
-110
-124
-135
-125
-111
-108
-112
-118
-120
-108
-101
-112
-116
-108
-115
-123
-103
-90
-117
-139
-118
-97
-109
-112
-100
-105
-107
-85
-76
-79
-75
-82
-91
-70
-58
-73
-70
-60
-78
-88
-67
-64
-83
-77
-63
-73
-72
-51
-47
-56
-60
-76
-82
-56
-45
-55
-25
26
31
23
25
-4
-39
-26
-17
-40
-35
-23
-49
-43
-8
-37
-59
23
275
938
1710
1455
39
-994
-805
-268
-99
-84
-40
-35
-36
-11
-4
-13
-14
-2
17
30
34
43
60
79
94
94
100
139
171
159
156
208
256
258
262
296
327
335
330
313
283
244
185
100
11
-39
-51
-71
-112
-138
-136
-126
-117
-113
-118
-127
-126
-121
-114
-109
-110
-114
-110
-105
-110
-110
-102
-108
-125
-126
-109
-97
-106
-122
-119
-99
-92
-98
-103
-106
-95
-79
-86
-102
-92
-68
-56
-65
-87
-86
-54
-38
-44
-47
-50
-50
-50
-63
-58
-32
-31
-45
-35
-27
-45
-52
-35
-34
-47
-46
-46
-50
-40
-43
-65
-44
-2
-7
-12
25
16
-45
-63
-38
-41
-63
-69
-70
-65
-44
-41
-70
-64
2
249
920
1613
1286
-40
-977
-837
-334
-96
-45
-28
-35
-43
-28
1
8
-11
-1
38
49
39
46
63
77
91
107
129
148
150
159
197
234
240
246
284
321
328
334
347
324
277
247
199
108
27
-22
-73
-115
-120
-112
-123
-137
-140
-137
-132
-127
-120
-104
-97
-112
-124
-117
-110
-113
-121
-130
-124
-103
-97
-111
-121
-125
-129
-119
-99
-100
-120
-122
-100
-88
-97
-100
-100
-114
-117
-85
-65
-84
-103
-99
-92
-98
-100
-94
-101
-109
-98
-93
-104
-102
-91
-83
-56
-19
-28
-71
-85
-79
-90
-102
-90
-71
-65
-66
-69
-84
-74
-19
132
647
1486
1669
551
-765
-973
-433
-95
-42
-6
18
14
11
-7
-21
11
51
53
44
57
71
73
82
97
108
131
159
168
169
185
215
244
264
278
296
315
327
336
334
303
242
172
104
39
-14
-55
-88
-113
-125
-124
-121
-119
-116
-111
-112
-117
-118
-115
-114
-120
-123
-118
-118
-123
-122
-120
-123
-129
-131
-133
-137
-143
-140
-129
-125
-127
-123
-119
-122
-124
-120
-122
-127
-124
-118
-121
-125
-115
-101
-100
-109
-112
-106
-100
-92
-79
-68
-50
-17
-8
-47
-78
-68
-65
-81
-75
-66
-82
-74
-52
-74
-75
4
224
841
1619
1495
208
-905
-925
-455
-190
-99
-48
-38
-29
-9
-2
6
23
35
40
47
60
79
94
106
123
141
156
168
186
216
243
260
289
334
367
378
393
413
414
387
343
276
187
98
19
-49
-89
-111
-140
-162
-151
-137
-156
-175
-155
-133
-148
-170
-161
-152
-166
-163
-140
-146
-176
-182
-171
-175
-181
-168
-160
-174
-187
-185
-181
-184
-186
-178
-170
-169
-170
-164
-160
-160
-156
-151
-146
-132
-111
-93
-71
-46
-45
-74
-95
-88
-78
-77
-70
-69
-77
-57
-45
-83
-71
35
315
1056
1868
1534
31
-1022
-876
-385
-165
-75
-27
-35
-24
0
-1
5
22
32
41
53
58
66
83
100
114
129
148
172
197
224
255
292
334
374
410
442
471
488
475
421
334
228
117
15
-66
-126
-171
-200
-208
-208
-213
-214
-203
-190
-186
-186
-180
-170
-164
-163
-165
-163
-156
-153
-163
-171
-165
-155
-156
-159
-160
-159
-158
-156
-155
-155
-151
-148
-152
-156
-147
-136
-134
-137
-136
-132
-128
-130
-135
-133
-114
-94
-81
-61
-38
-46
-75
-87
-85
-90
-85
-76
-92
-87
-57
-86
-119
-84
54
779
2167
2622
1063
-732
-916
-310
-134
-166
-99
-96
-119
-82
-67
-71
-49
-32
-30
-17
-1
13
28
41
55
73
95
116
136
160
187
216
248
281
312
340
358
368
369
348
291
208
119
34
-40
-97
-138
-164
-179
-186
-185
-180
-176
-175
-169
-160
-153
-153
-151
-146
-139
-136
-133
-128
-125
-124
-123
-123
-122
-122
-122
-121
-117
-113
-113
-113
-111
-108
-106
-104
-100
-99
-97
-90
-83
-84
-86
-82
-80
-88
-99
-94
-78
-71
-76
-73
-57
-46
-42
-19
9
-7
-50
-65
-57
-60
-61
-54
-60
-57
-42
-67
-85
-31
127
649
1524
1723
566
-775
-972
-449
-145
-97
-58
-37
-35
-19
-15
-17
-5
8
12
20
33
42
50
66
84
97
110
129
148
168
193
215
238
268
299
322
342
357
360
346
308
242
159
81
14
-41
-82
-112
-131
-137
-136
-134
-130
-126
-126
-125
-119
-112
-108
-105
-106
-108
-105
-101
-101
-100
-96
-96
-99
-100
-97
-93
-94
-95
-93
-91
-90
-87
-82
-80
-80
-78
-78
-78
-76
-75
-75
-73
-70
-73
-74
-69
-66
-70
-77
-78
-71
-70
-75
-75
-71
-71
-75
-74
-67
-47
-25
-17
-8
8
-3
-46
-66
-55
-53
-57
-53
-60
-60
-44
-61
-76
-23
112
532
1276
1509
541
-726
-1020
-547
-184
-89
-33
-5
-23
-21
-5
-7
15
68
74
40
42
65
59
61
94
118
129
150
173
183
193
220
256
276
282
310
350
352
329
328
321
272
199
130
65
8
-43
-84
-100
-105
-121
-126
-109
-108
-132
-135
-119
-122
-140
-139
-127
-124
-125
-128
-135
-142
-149
-157
-160
-155
-153
-151
-151
-157
-157
-143
-136
-148
-153
-139
-130
-136
-136
-123
-117
-117
-108
-96
-95
-98
-99
-98
-88
-73
-72
-82
-80
-72
-67
-46
-19
-18
-12
23
25
-27
-54
-35
-35
-50
-37
-29
-38
-25
-24
-55
-32
59
300
944
1601
1221
-128
-989
-744
-236
-65
-38
-4
-3
-3
15
21
27
40
46
48
53
59
68
84
101
112
123
138
158
174
181
189
213
242
263
281
294
300
308
319
309
262
200
144
89
23
-36
-75
-97
-110
-123
-137
-134
-112
-100
-110
-123
-123
-116
-115
-126
-129
-117
-117
-139
-140
-119
-122
-146
-146
-135
-138
-138
-139
-150
-149
-135
-134
-130
-114
-119
-127
-106
-101
-128
-136
-123
-119
-105
-85
-84
-79
-62
-52
-34
-20
-48
-86
-88
-76
-82
-115
-156
-126
-20
0
-121
-176
-59
146
585
1284
1457
506
-705
-1037
-642
-260
-94
-26
-11
-15
3
27
39
51
53
41
66
116
113
76
82
120
142
150
158
178
213
239
241
245
280
329
345
330
329
340
339
309
227
118
50
9
-56
-112
-127
-147
-174
-171
-152
-149
-146
-136
-146
-162
-156
-151
-158
-142
-126
-152
-173
-143
-125
-150
-163
-150
-148
-153
-149
-151
-151
-126
-110
-122
-129
-118
-112
-113
-107
-101
-99
-101
-98
-91
-91
-95
-81
-59
-57
-50
-16
5
-11
-35
-53
-59
-52
-47
-55
-66
-51
-23
-44
-77
-37
48
360
1193
1858
1163
-400
-1112
-697
-224
-101
-47
-6
-25
-27
7
28
26
29
55
71
57
56
88
108
96
101
141
169
166
184
229
257
269
290
313
337
362
370
365
365
344
280
194
115
44
-21
-68
-96
-127
-151
-145
-130
-134
-146
-144
-135
-138
-138
-116
-101
-117
-126
-104
-97
-116
-112
-90
-100
-127
-127
-106
-96
-101
-110
-116
-117
-113
-108
-106
-103
-96
-92
-93
-94
-104
-112
-102
-91
-88
-76
-62
-53
-38
-47
-97
-128
-110
-99
-120
-127
-121
-129
-123
-113
-144
-149
-77
109
643
1373
1321
125
-1008
-1063
-538
-224
-159
-133
-110
-96
-92
-96
-85
-62
-51
-42
-31
-27
-26
-8
20
42
50
56
77
104
122
139
170
203
226
253
282
295
297
298
284
239
177
112
44
-28
-82
-105
-111
-112
-114
-114
-105
-90
-83
-78
-66
-50
-35
-25
-23
-14
18
