# session 23
-14
-22
-15
65
126
72
15
30
39
24
27
31
22
19
21
18
16
15
12
7
5
5
4
2
0
-2
-6
-9
-8
-8
-13
-16
-16
-16
-16
-18
-20
-22
-22
-23
-26
-26
-25
-27
-30
-32
-33
-35
-36
-36
-39
-44
-45
-44
-38
-25
-12
-1
18
31
8
-31
-43
-40
-48
-48
-43
-54
-54
-39
-60
-72
-19
118
584
1376
1553
490
-744
-931
-448
-158
-107
-69
-54
-57
-39
-27
-24
-11
-2
1
9
20
27
35
49
64
76
88
103
121
145
171
188
204
233
265
284
301
321
328
321
300
255
184
104
25
-42
-86
-116
-142
-159
-165
-168
-166
-158
-157
-156
-149
-144
-143
-136
-126
-124
-125
-124
-123
-123
-122
-122
-121
-119
-121
-122
-119
-118
-120
-117
-113
-115
-116
-113
-112
-109
-103
-103
-107
-106
-100
-94
-90
-91
-93
-92
-89
-88
-85
-78
-75
-74
-71
-66
-62
-60
-58
-57
-57
-60
-60
-55
-50
-47
-34
-15
-1
13
30
26
-7
-31
-28
-27
-34
-29
-27
-37
-21
-14
-48
-35
56
310
1012
1770
1415
-30
-994
-792
-297
-113
-58
-17
-20
-13
9
11
15
30
37
41
49
58
68
79
92
105
118
133
151
173
194
216
241
269
301
332
357
375
386
386
365
316
241
156
76
5
-53
-95
-123
-143
-155
-155
-152
-153
-152
-148
-143
-140
-135
-130
-128
-126
-124
-120
-119
-121
-124
-122
-121
-124
-124
-119
-117
-120
-120
-115
-111
-110
-109
-106
-104
-102
-99
-96
-95
-91
-87
-87
-86
-85
-84
-82
-80
-78
-77
-77
-77
-74
-69
-67
-66
-63
-60
-60
-59
-56
-56
-55
-50
-46
-45
-45
-44
-42
-39
-35
-25
-8
6
14
26
30
6
-24
-29
-25
-30
-28
-26
-34
-22
-17
-47
-32
51
268
897
1625
1354
15
-942
-779
-292
-108
-67
-30
-31
-26
-6
-6
-2
17
21
16
25
46
59
64
71
82
95
113
131
145
161
183
207
233
262
291
314
329
341
347
340
307
241
162
89
22
-39
-87
-120
-144
-156
-158
-161
-162
-153
-142
-141
-143
-139
-132
-125
-123
-126
-128
-123
-114
-109
-117
-126
-125
-119
-122
-128
-130
-128
-126
-123
-121
-124
-126
-125
-124
-121
-116
-115
-116
-114
-112
-111
-108
-106
-104
-98
-92
-92
-91
-86
-81
-83
-84
-76
-68
-59
-43
-29
-16
5
14
-13
-46
-48
-41
-47
-45
-37
-47
-44
-23
-42
-56
4
160
657
1486
1676
572
-739
-988
-514
-180
-82
-30
-16
-17
1
10
11
23
34
39
46
54
63
75
89
103
117
131
147
168
190
212
238
268
301
330
355
378
395
400
386
348
282
198
112
36
-28
-79
-116
-138
-148
-151
-152
-150
-146
-144
-142
-138
-134
-133
-131
-128
-127
-128
-125
-121
-121
-123
-126
-128
-128
-126
-125
-125
-124
-123
-123
-125
-123
-120
-118
-116
-113
-110
-108
-106
-102
-99
-97
-98
-96
-92
-90
-88
-86
-83
-80
-79
-78
-78
-77
-76
-74
-70
-68
-68
-69
-67
-64
-63
-62
-51
-30
-14
-4
13
19
-7
-35
-39
-39
-44
-38
-41
-49
-30
-29
-63
-40
53
335
1076
1756
1242
-203
-991
-680
-224
-98
-62
-29
-35
-26
-3
1
8
21
27
32
45
55
63
73
85
98
113
129
145
162
183
207
232
258
285
311
334
352
359
358
342
301
238
163
87
20
-32
-73
-107
-125
-133
-139
-141
-137
-132
-129
-129
-130
-128
-121
-118
-119
-119
-115
-110
-109
-111
-112
-116
-123
-123
-117
-119
-123
-119
-113
-113
-113
-112
-111
-114
-120
-121
-115
-107
-103
-100
-98
-96
-94
-92
-94
-93
-86
-85
-88
-86
-81
-78
-74
-69
-73
-78
-74
-68
-58
-40
-25
-11
5
2
-27
-46
-44
-50
-62
-55
-48
-54
-43
-38
-64
-47
39
270
912
1630
1353
25
-953
-850
-381
-156
-83
-41
-40
-36
-14
-2
4
13
18
28
44
54
59
72
90
102
110
123
143
165
184
205
231
262
292
320
343
364
382
384
362
321
259
174
86
13
-47
-98
-131
-148
-159
-162
-157
-155
-159
-158
-149
-140
-136
-138
-138
-133
-129
-130
-132
-132
-133
-135
-134
-135
-136
-137
-139
-138
-134
-132
-133
-134
-131
-128
-126
-124
-120
-116
-114
-114
-111
-107
-104
-101
-99
-100
-103
-101
-97
-87
-69
-52
-36
-16
-9
-37
-70
-72
-66
-73
-70
-63
-70
-62
-45
-69
-77
-18
159
762
1663
1702
387
-886
-940
-407
-148
-97
-49
-43
-48
-24
-12
-9
4
15
23
34
44
54
67
82
97
114
129
147
168
190
215
242
271
302
333
360
379
393
397
380
334
263
178
96
27
-29
-73
-105
-125
-137
-140
-139
-139
-139
-137
-132
-126
-123
-120
-115
-110
-108
-106
-105
-104
-103
-101
-100
-99
-97
-96
-96
-95
-92
-88
-88
-88
-85
-84
-82
-80
-77
-76
-74
-73
-73
-72
-69
-68
-69
-68
-66
-65
-65
-65
-64
-63
-62
-60
-58
-56
-54
-54
-55
-55
-54
-53
-53
-51
-50
-51
-51
-49
-47
-46
-48
-50
-49
-46
-49
-55
-53
-49
-47
-35
-16
-6
5
21
9
-28
-46
-42
-47
-50
-45
-54
-57
-37
-44
-61
-22
112
584
1408
1646
594
-713
-960
-471
-163
-106
-59
-40
-50
-32
-13
-10
-1
14
26
35
41
49
61
70
82
101
117
128
143
165
188
205
227
257
284
304
326
346
353
348
334
298
228
148
82
23
-35
-80
-104
-116
-122
-123
-125
-128
-127
-124
-119
-113
-111
-110
-108
-104
-99
-96
-97
-95
-92
-93
-94
-92
-90
-90
-88
-87
-88
-86
-82
-78
-77
-80
-81
-78
-73
-71
-70
-68
-66
-65
-62
-59
-58
-59
-57
-53
-50
-52
-55
-55
-54
-55
-52
-46
-44
-50
-53
-47
-43
-44
-45
-45
-49
-51
-48
-48
-49
-44
-42
-47
-50
-44
-41
-45
-50
-50
-51
-52
-50
-48
-44
-31
-15
-5
5
15
3
-27
-43
-41
-45
-48
-43
-46
-42
-29
-50
-63
-7
134
580
1358
1603
619
-663
-971
-524
-184
-96
-52
-36
-43
-28
-14
-12
-4
9
16
24
34
44
56
69
85
99
111
121
135
153
179
207
231
254
283
312
335
350
361
363
345
300
233
154
77
7
-53
-98
-124
-142
-154
-156
-157
-160
-155
-144
-138
-138
-136
-134
-133
-127
-119
-118
-122
-123
-117
-113
-115
-122
-128
-128
-124
-120
-116
-114
-115
-117
-117
-114
-112
-111
-110
-110
-110
-108
-105
-100
-96
-100
-99
-93
-92
-94
-93
-94
-89
-67
-49
-43
-27
-13
-33
-66
-77
-77
-83
-78
-69
-80
-82
-61
-73
-95
-50
87
521
1338
1705
784
-610
-1067
-643
-243
-114
-60
-42
-43
-24
-9
-6
2
14
23
34
42
50
63
78
91
107
126
143
160
182
206
233
264
299
331
359
385
404
412
404
369
301
213
125
45
-24
-78
-115
-139
-153
-157
-158
-159
-155
-150
-147
-144
-138
-131
-126
-123
-119
-116
-116
-115
-115
-115
-113
-113
-114
-112
-111
-112
-112
-108
-105
-103
-102
-99
-96
-93
-93
-91
-89
-88
-88
-86
-85
-82
-78
-77
-76
-74
-72
-70
-68
-68
-67
-64
-59
-57
-55
-52
-50
-50
-50
-48
-45
-38
-22
-5
7
24
40
24
-12
-28
-24
-29
-33
-26
-31
-31
-13
-29
-50
-7
127
585
1415
1699
674
-671
-968
-485
-157
-97
-58
-39
-44
-26
-11
-11
-4
6
14
23
30
37
53
73
85
90
100
115
132
153
182
206
227
260
297
319
334
350
363
362
339
290
220
136
52
-17
-64
-103
-141
-167
-174
-174
-173
-170
-165
-162
-161
-155
-143
-136
-135
-138
-140
-137
-128
-120
-122
-127
-125
-120
-124
-132
-134
-133
-136
-137
-134
-132
-132
-126
-122
-126
-129
-122
-116
-117
-116
-111
-107
-102
-97
-99
-99
-92
-85
-86
-86
-79
-73
-74
-74
-70
-67
-58
-37
-18
-5
15
23
-6
-42
-45
-34
-40
-40
-33
-43
-38
-9
-30
-68
-22
119
569
1431
1807
816
-629
-1049
-586
-207
-105
-50
-28
-35
-18
-4
-2
11
26
32
38
48
59
75
91
103
114
128
143
159
181
207
233
261
294
328
357
381
402
414
406
371
308
224
134
52
-18
-78
-122
-149
-164
-171
-173
-171
-166
-160
-155
-150
-144
-137
-133
-131
-126
-120
-114
-112
-113
-115
-114
-112
-113
-114
-112
-110
-110
-110
-108
-102
-97
-97
-97
-95
-94
-92
-87
-84
-84
-80
-73
-70
-69
-67
-63
-59
-56
-55
-51
-46
-45
-45
-42
-39
-40
-41
-41
-40
-39
-37
-36
-37
-38
-42
-42
-40
-41
-42
-40
-41
-44
-45
-37
-19
-4
4
19
28
6
-27
-35
-31
-40
-42
-37
-43
-36
-27
-55
-53
20
198
751
1545
1533
306
-850
-883
-378
-130
-87
-51
-42
-38
-16
-13
-17
-2
14
23
29
33
42
56
65
76
92
104
115
137
160
172
190
221
252
275
299
323
342
356
357
330
277
209
133
56
-15
-70
-107
-134
-153
-162
-164
-166
-167
-160
-151
-150
-153
-147
-138
-135
-136
-133
-129
-130
-130
-125
-124
-127
-131
-133
-135
-134
-132
-131
-131
-133
-130
-124
-124
-134
-139
-129
-115
-114
-123
-125
-119
-116
-112
-106
-107
-111
-97
-75
-63
-47
-25
-25
-53
-80
-86
-82
-80
-76
-66
-70
-75
-62
-72
-91
-42
101
521
1319
1712
843
-554
-1079
-709
-300
-134
-59
-32
-30
-15
0
7
20
33
43
55
68
81
92
103
118
135
150
168
189
208
228
255
288
323
359
394
423
444
454
446
406
331
235
137
49
-28
-88
-129
-154
-167
-170
-169
-167
-161
-154
-149
-147
-142
-138
-136
-136
-134
-131
-130
-132
-136
-137
-137
-140
-143
-143
-143
-143
-144
-142
-140
-138
-136
-134
-132
-131
-127
-124
-123
-123
-120
-114
-111
-110
-106
-101
-100
-102
-100
-95
-93
-96
-98
-96
-93
-83
-66
-52
-36
-11
-6
-38
-66
-62
-58
-65
-57
-55
-62
-43
-43
-80
-60
27
344
1252
2111
1519
-183
-1053
-652
-184
-117
-89
-46
-64
-55
-27
-28
-22
-6
3
14
27
32
41
59
75
87
101
119
138
161
186
207
232
266
301
331
358
379
388
390
371
319
240
155
72
-3
-65
-109
-137
-154
-164
-167
-166
-165
-163
-157
-151
-147
-143
-141
-140
-137
-132
-127
-127
-128
-126
-125
-125
-125
-123
-121
-122
-122
-120
-119
-115
-110
-109
-110
-112
-109
-101
-94
-91
-92
-90
-86
-82
-81
-78
-76
-75
-75
-74
-71
-69
-69
-68
-66
-65
-63
-59
-59
-61
-57
-54
-59
-62
-56
-48
-36
-17
-1
15
33
30
-3
-28
-29
-32
-35
-26
-30
-38
-19
-25
-60
-32
77
428
1240
1816
1075
-410
-1012
-578
-164
-98
-70
-35
-46
-37
-11
-5
-1
8
15
21
26
36
54
66
70
84
105
119
132
152
173
192
215
245
277
303
319
335
352
355
337
293
226
150
78
11
-43
-78
-110
-141
-155
-154
-154
-153
-149
-149
-150
-141
-133
-134
-134
-128
-125
-125
-123
-121
-120
-117
-114
-114
-113
-111
-110
-112
-114
-108
-100
-101
-106
-100
-92
-94
-99
-95
-88
-87
-84
-80
-84
-86
-76
-65
-66
-71
-71
-67
-69
-72
-65
-57
-59
-62
-66
-71
-67
-60
-63
-63
-55
-43
-22
-6
1
16
20
-14
-48
-46
-38
-41
-37
-38
-47
-32
-24
-51
-39
39
240
804
1465
1248
30
-900
-781
-285
-75
-47
-19
-8
-2
14
22
30
42
46
47
52
57
66
81
92
99
114
130
138
146
162
183
205
226
247
272
298
316
323
327
325
302
246
170
98
36
-25
-79
-114
-135
-148
-150
-149
-151
-151
-147
-143
-142
-143
-143
-138
-134
-136
-141
-143
-139
-134
-136
-142
-140
-136
-139
-141
-135
-131
-128
-126
-131
-137
-133
-124
-122
-121
-116
-113
-115
-114
-110
-104
-102
-102
-100
-96
-83
-61
-43
-30
-15
-8
-31
-61
-69
-64
-67
-65
-58
-65
-68
-49
-52
-72
-28
98
449
1144
1568
897
-394
-1027
-761
-322
-109
-36
-13
-4
8
15
19
33
47
54
63
72
80
94
111
124
134
144
157
173
190
212
241
271
297
322
347
365
378
386
382
354
301
232
149
58
-15
-57
-89
-120
-138
-142
-143
-142
-137
-137
-140
-133
-127
-135
-138
-131
-131
-137
-134
-129
-139
-148
-145
-145
-149
-145
-141
-151
-158
-150
-140
-140
-145
-143
-138
-139
-143
-140
-134
-131
-132
-134
-136
-135
-125
-102
-82
-72
-60
-55
-75
-99
-104
-105
-109
-99
-92
-95
-76
-61
-107
-130
-52
107
565
1368
1618
598
-734
-1077
-633
-251
-111
-52
-39
-35
-9
4
7
24
34
32
41
57
62
74
96
106
110
126
146
165
189
214
240
270
297
323
355
385
403
406
390
346
275
187
100
22
-47
-100
-131
-150
-165
-166
-158
-155
-154
-147
-142
-140
-134
-128
-130
-134
-132
-125
-121
-122
-121
-114
-117
-127
-125
-120
-127
-131
-124
-118
-116
-111
-108
-110
-106
-94
-90
-94
-93
-85
-81
-79
-76
-74
-75
-73
-71
-72
-64
-40
-18
-4
13
18
-8
-36
-38
-37
-45
-40
-35
-44
-29
-18
-56
-60
2
224
997
1996
1796
183
-1012
-819
-267
-125
-110
-64
-76
-79
-47
-39
-39
-26
-17
-12
-6
3
21
31
30
47
83
98
89
100
138
171
187
208
242
275
298
317
331
328
302
252
179
89
4
-60
-112
-165
-206
-217
-219
-232
-242
-237
-231
-226
-223
-215
-196
-181
-187
-193
-181
-173
-173
-164
-154
-154
-148
-135
-135
