# session 10
-34
-31
-37
-50
-30
35
79
77
74
72
48
24
17
2
-16
-7
6
-19
-42
-24
-7
-4
30
166
615
1330
1525
653
-497
-861
-533
-205
-95
-51
-5
20
9
-7
16
56
52
22
27
55
68
74
87
98
99
97
109
135
159
176
188
194
210
241
264
274
287
293
281
260
239
206
148
82
37
3
-39
-66
-70
-85
-110
-114
-98
-92
-101
-112
-113
-104
-100
-105
-110
-118
-133
-137
-124
-124
-140
-139
-126
-131
-138
-135
-144
-152
-135
-127
-143
-142
-114
-109
-129
-122
-103
-114
-126
-115
-114
-121
-105
-92
-106
-99
-64
-46
-44
-40
-55
-82
-88
-85
-99
-106
-89
-86
-102
-92
-80
-102
-93
-22
192
786
1442
1177
-51
-932
-790
-332
-142
-90
-49
-48
-47
-28
-18
-8
3
3
9
25
37
45
56
66
81
100
112
127
147
162
177
201
228
256
287
306
311
320
332
336
324
283
203
127
91
46
-27
-62
-60
-98
-146
-133
-109
-136
-166
-157
-133
-121
-123
-125
-120
-117
-115
-107
-99
-100
-98
-98
-106
-104
-88
-84
-99
-111
-113
-108
-98
-99
-111
-109
-92
-91
-102
-98
-89
-90
-93
-93
-92
-87
-67
-39
-18
-12
-11
0
4
-17
-44
-52
-48
-44
-51
-74
-78
-43
-30
-51
-30
33
206
756
1409
1189
-5
-900
-776
-299
-90
-46
-20
-32
-36
-7
8
16
46
54
27
28
58
59
53
71
80
84
114
139
131
124
144
189
224
221
220
249
260
255
278
293
266
240
206
108
0
-44
-63
-98
-113
-118
-153
-183
-166
-145
-145
-136
-122
-140
-166
-157
-129
-121
-138
-148
-128
-110
-128
-147
-127
-113
-136
-134
-90
-83
-124
-135
-103
-88
-95
-99
-94
-82
-74
-88
-105
-90
-64
-60
-69
-67
-58
-54
-45
-22
-2
3
6
6
-12
-31
-25
-8
-15
-41
-58
-69
-77
-60
-46
-59
-47
31
322
978
1466
920
-305
-899
-582
-177
-74
-50
-16
-19
-17
5
14
17
25
35
42
47
54
65
70
72
87
112
133
145
155
173
197
219
233
242
269
307
328
330
336
332
302
257
192
107
33
-23
-67
-98
-118
-139
-152
-159
-172
-182
-178
-169
-157
-141
-140
-160
-179
-178
-168
-167
-171
-172
-173
-178
-178
-174
-167
-148
-140
-161
-160
-138
-160
-188
-160
-139
-163
-168
-157
-163
-137
-90
-96
-111
-66
-34
-66
-93
-88
-97
-102
-79
-76
-103
-105
-69
-61
-92
-73
-2
107
574
1432
1659
568
-718
-933
-466
-168
-95
-58
-43
-17
-2
-38
-40
28
64
21
-29
-9
56
73
39
63
151
171
108
114
218
274
249
251
295
316
323
354
382
385
381
359
317
278
220
123
28
-44
-86
-75
-65
-113
-146
-101
-74
-127
-160
-112
-70
-91
-125
-131
-117
-106
-114
-113
-98
-125
-170
-146
-97
-110
-133
-120
-124
-148
-142
-124
-124
-130
-125
-122
-125
-126
-119
-112
-114
-121
-121
-114
-99
-77
-66
-63
-51
-49
-69
-86
-100
-121
-109
-67
-58
-72
-67
-77
-88
-44
55
410
1162
1573
795
-490
-943
-563
-208
-122
-91
-62
-65
-73
-60
-34
-24
-31
-29
-22
-13
7
25
34
53
77
91
104
119
134
155
178
208
241
261
268
282
299
313
329
321
272
212
159
105
53
2
-55
-100
-111
-108
-118
-126
-115
-109
-119
-117
-104
-109
-116
-105
-99
-103
-102
-107
-122
-122
-118
-123
-120
-105
-105
-116
-113
-98
-99
-118
-125
-109
-94
-97
-101
-97
-94
-94
-92
-97
-109
-96
-59
-35
-28
-18
-17
-40
-61
-67
-78
-88
-75
-62
-71
-65
-50
-73
-82
-19
177
741
1488
1424
227
-855
-857
-365
-134
-101
-66
-57
-54
-24
-16
-36
-31
-2
-2
-11
29
73
49
19
40
84
136
167
129
110
186
234
186
168
227
282
314
332
322
313
314
273
192
115
45
-24
-61
-75
-95
-121
-144
-155
-137
-120
-133
-145
-135
-137
-137
-108
-92
-118
-137
-122
-107
-115
-126
-121
-110
-110
-118
-118
-119
-127
-121
-101
-97
-109
-112
-108
-114
-122
-114
-99
-88
-74
-55
-44
-54
-81
-100
-102
-101
-103
-91
-87
-107
-106
-88
-103
-100
-39
166
804
1613
1489
200
-884
-879
-432
-203
-123
-77
-81
-75
-45
-36
-35
-20
-7
-3
4
16
34
55
70
90
114
125
128
147
179
202
222
249
274
296
323
346
355
366
368
329
257
185
113
33
-33
-74
-104
-134
-152
-151
-142
-141
-144
-141
-137
-133
-128
-129
-140
-138
-122
-123
-140
-143
-134
-137
-146
-145
-141
-143
-147
-143
-137
-136
-135
-130
-128
-129
-129
-126
-124
-126
-127
-110
-86
-77
-68
-45
-45
-82
-104
-99
-100
-104
-95
-94
-95
-69
-72
-115
-96
-17
236
1018
1863
1474
-37
-954
-683
-233
-135
-115
-78
-81
-72
-53
-48
-36
-25
-26
-12
9
17
26
45
57
64
84
112
134
148
165
189
217
244
266
287
311
329
341
348
339
304
244
164
86
26
-26
-71
-97
-112
-125
-131
-129
-128
-130
-130
-119
-108
-112
-124
-121
-105
-106
-122
-126
-119
-123
-125
-118
-120
-132
-134
-130
-128
-125
-123
-126
-129
-125
-117
-112
-114
-116
-109
-102
-107
-115
-113
-96
-74
-61
-48
-23
-10
-40
-77
-80
-71
-78
-76
-66
-75
-73
-55
-78
-94
-47
96
614
1483
1662
522
-745
-891
-390
-134
-110
-79
-65
-67
-45
-35
-41
-39
-28
-16
-2
8
19
33
43
57
80
99
113
126
140
161
190
215
240
270
291
301
312
324
320
298
256
193
125
58
-9
-60
-87
-108
-130
-136
-132
-133
-134
-128
-123
-125
-134
-136
-127
-124
-129
-129
-127
-130
-133
-131
-132
-139
-139
-130
-129
-134
-133
-131
-134
-135
-124
-116
-121
-131
-133
-126
-115
-99
-78
-59
-47
-47
-65
-90
-96
-90
-94
-96
-87
-86
-82
-64
-80
-104
-59
61
468
1324
1825
995
-447
-998
-623
-250
-136
-77
-55
-64
-42
-20
-22
-16
-1
3
10
27
43
53
62
79
97
113
133
153
166
179
205
238
267
288
304
324
346
353
344
326
281
204
118
46
-13
-59
-94
-122
-136
-138
-142
-148
-147
-148
-151
-146
-139
-146
-151
-144
-143
-152
-151
-144
-151
-157
-152
-148
-150
-152
-151
-148
-145
-147
-144
-136
-137
-142
-135
-125
-123
-123
-119
-121
-123
-120
-113
-100
-82
-67
-48
-25
-35
-72
-84
-72
-77
-87
-75
-70
-75
-58
-58
-88
-68
15
316
1107
1795
1242
-205
-941
-601
-172
-90
-76
-44
-49
-44
-23
-17
-11
-1
7
19
30
36
48
70
86
92
108
133
150
163
180
198
225
252
250
250
298
348
352
344
339
299
229
159
94
32
-24
-70
-92
-93
-95
-105
-111
-111
-109
-102
-96
-100
-102
-96
-96
-101
-93
-88
-101
-112
-109
-111
-120
-125
-125
-126
-123
-117
-121
-133
-133
-123
-126
-140
-140
-126
-117
-115
-122
-136
-136
-119
-110
-116
-124
-128
-123
-111
-103
-92
-68
-51
-50
-60
-79
-95
-96
-96
-99
-92
-98
-112
-82
-66
-108
-102
-2
322
1126
1835
1288
-201
-1016
-745
-314
-165
-99
-58
-62
-71
-84
-86
-60
-41
-27
5
29
31
33
42
59
81
97
110
128
148
179
226
263
274
294
335
360
366
385
410
407
364
292
204
109
30
-19
-50
-77
-104
-125
-128
-125
-135
-141
-126
-120
-138
-141
-118
-111
-126
-135
-131
-128
-123
-121
-137
-151
-147
-138
-137
-139
-145
-150
-145
-139
-142
-145
-140
-136
-137
-142
-139
-122
-101
-87
-73
-62
-70
-95
-112
-110
-110
-117
-111
-106
-112
-93
-73
-101
-109
-47
180
857
1673
1493
165
-863
-770
-307
-133
-102
-66
-65
-66
-46
-31
-24
-19
-14
-3
11
23
31
39
57
79
91
105
130
154
173
196
224
256
286
308
328
354
371
369
350
309
242
161
86
22
-33
-76
-102
-120
-137
-144
-137
-127
-122
-115
-108
-108
-111
-102
-90
-91
-99
-101
-103
-107
-103
-98
-108
-119
-111
-104
-109
-111
-114
-117
-112
-112
-120
-118
-113
-117
-115
-110
-112
-113
-107
-106
-110
-106
-96
-95
-100
-99
-97
-96
-92
-90
-96
-100
-92
-79
-64
-46
-30
-19
-22
-41
-61
-66
-68
-69
-57
-58
-68
-46
-43
-87
-73
7
271
1115
2059
1685
68
-965
-748
-301
-175
-119
-74
-87
-77
-48
-45
-43
-34
-24
-6
6
10
29
53
66
80
104
125
141
162
190
219
251
286
316
340
368
398
417
425
419
375
290
196
110
24
-54
-110
-148
-172
-184
-192
-194
-188
-184
-183
-175
-166
-164
-161
-152
-144
-145
-148
-151
-154
-156
-159
-164
-167
-164
-163
-167
-166
-156
-147
-148
-149
-148
-148
-147
-140
-133
-133
-132
-127
-120
-119
-118
-114
-110
-108
-107
-105
-103
-103
-98
-81
-56
-36
-18
-10
-30
-60
-66
-59
-61
-57
-50
-60
-52
-27
-52
-76
-36
100
699
1792
2127
859
-632
-846
-341
-123
-118
-67
-54
-66
-44
-31
-29
-16
-6
-3
8
21
31
44
61
76
89
104
123
146
174
197
217
249
291
329
357
377
393
403
400
370
306
218
123
40
-23
-72
-115
-148
-169
-182
-183
-172
-168
-174
-167
-151
-144
-147
-144
-132
-126
-132
-138
-141
-144
-142
-135
-135
-140
-142
-143
-147
-142
-130
-131
-139
-140
-138
-137
-132
-127
-125
-123
-117
-111
-114
-124
-124
-114
-112
-118
-115
-107
-106
-101
-89
-90
-103
-98
-82
-84
-94
-84
-74
-82
-82
-65
-63
-78
-82
-66
-48
-47
-50
-44
-45
-51
-39
-36
-43
-27
-33
-69
-42
57
425
1367
2131
1427
-200
-941
-570
-184
-112
-62
-30
-44
-28
-9
-12
-2
15
22
32
41
49
65
82
90
101
119
139
160
182
202
227
262
297
326
350
373
399
421
427
410
364
289
200
107
18
-50
-96
-132
-156
-163
-164
-166
-165
-162
-152
-140
-135
-135
-131
-123
-118
-117
-113
-108
-110
-115
-115
-120
-127
-123
-120
-128
-127
-119
-126
-129
-113
-108
-123
-122
-102
-97
-106
-107
-100
-92
-83
-82
-93
-92
-76
-68
-73
-75
-71
-73
-72
-62
-58
-67
-68
-56
-55
-67
-68
-58
-54
-58
-56
-47
-43
-49
-50
-38
-31
-39
-46
-44
-38
-34
-30
-30
-36
-37
-30
-30
-36
-36
-30
-30
-34
-35
-39
-46
-48
-42
-31
-20
-3
23
36
15
-13
-18
-24
-36
-28
-28
-42
-21
-11
-57
-51
26
330
1258
2214
1719
33
-865
-505
-110
-117
-118
-74
-87
-81
-60
-63
-50
-34
-35
-28
-12
-9
-5
12
31
45
58
68
84
108
128
149
178
205
228
256
283
304
324
338
336
315
274
212
135
56
-14
-67
-104
-129
-151
-164
-162
-153
-156
-164
-159
-148
-144
-137
-131
-133
-133
-124
-119
-120
-118
-113
-115
-118
-114
-111
-115
-119
-115
-112
-112
-111
-109
-104
-97
-98
-101
-96
-91
-89
-89
-89
-88
-86
-84
-78
-69
-71
-82
-82
-71
-67
-68
-69
-71
-69
-62
-63
-64
-60
-61
-65
-64
-64
-66
-59
-55
-61
-61
-52
-56
-65
-62
-48
-47
-67
-73
-50
-33
-38
-39
-36
-42
-44
-44
-39
-16
-27
-66
-39
69
412
1221
1850
1212
-229
-895
-547
-166
-96
-66
-32
-41
-31
-7
-6
-7
-2
0
9
26
36
41
56
79
92
93
107
138
164
175
190
220
252
279
306
336
360
373
381
375
344
288
213
129
54
-9
-69
-113
-135
-145
-151
-154
-158
-152
-136
-127
-133
-135
-132
-127
-120
-116
-123
-128
-124
-123
-126
-127
-128
-131
-132
-132
-129
-130
-130
-124
-114
-116
-122
-121
-120
-121
-116
-111
-113
-112
-105
-101
-101
-99
-95
-89
-83
-82
-88
-89
-79
-69
-69
-71
-68
-61
-59
-61
-59
-54
-55
-59
-55
-49
-53
-50
-39
-38
-44
-40
-26
-17
-19
-26
-30
-25
-16
-22
-32
-12
-3
-38
-35
30
259
982
1837
1589
169
-820
-633
-184
-78
-65
-28
-38
-34
-8
-8
-9
5
10
14
24
31
42
53
58
68
87
104
120
137
152
167
191
225
254
272
293
321
340
337
332
326
286
201
104
30
-24
-72
-117
-142
-140
-139
-150
-158
-168
-175
-156
-144
-169
-176
-149
-143
-154
-140
-131
-152
-159
-144
-138
-142
-147
-150
-145
-138
-143
-150
-145
-136
-131
-133
-136
-132
-131
-141
-148
-141
-129
-125
-130
-128
-113
-109
-116
-118
-115
-112
-107
-98
-95
-96
-90
-81
-79
-83
-83
-75
-70
-77
-86
-80
-66
-63
-63
-60
-62
-65
-57
-47
-38
-32
-35
-32
-28
-32
-18
-2
-34
-40
28
204
780
1625
1641
415
-704
-691
-219
-48
-43
-9
4
15
40
43
39
46
51
58
69
77
86
95
106
123
141
155
170
189
205
219
240
268
295
318
339
360
378
386
386
375
338
272
201
137
73
15
-22
-49
-66
-67
-69
-87
-94
-80
-73
-74
-68
-68
-78
-78
-73
-73
-76
-80
-80
-77
-84
-98
-97
-90
-95
-103
-101
-99
-101
-105
-110
-112
-110
-106
-102
-102
-108
-114
-112
-109
-112
-114
-114
-113
-106
-103
-114
-122
-119
-122
-126
-120
-120
-129
-122
-113
-124
-134
-128
-129
-139
-140
-132
-128
-133
-145
-147
-138
-138
-142
-136
-140
-152
-147
-140
-144
-137
-144
-163
-134
-35
330
1116
1592
830
-526
-1028
-626
-254
-177
-144
-124
-140
-126
-97
-91
-88
-74
-63
-57
-48
-32
-16
-6
7
30
51
67
90
117
140
167
198
223
253
294
326
343
360
376
373
348
305
245
178
122
77
36
8
-1
1
8
19
24
25
35
53
69
