# session 6
-22
-66
48
71
-277
-703
-798
-727
-752
-781
-763
-757
-705
-600
-549
-564
-581
-567
-519
-487
-495
-487
-259
601
1844
1943
317
-1068
-806
-164
-209
-337
-230
-214
-234
-163
-112
-80
-10
48
88
137
186
235
293
347
395
444
487
513
525
511
438
307
153
16
-92
-172
-233
-277
-301
-315
-330
-341
-338
-333
-333
-330
-327
-331
-335
-333
-333
-335
-315
-257
-199
-182
-200
-234
-260
-240
-217
-241
-232
9
728
1677
1665
196
-1069
-781
-38
14
-125
-40
-9
-33
22
58
74
131
189
237
300
364
429
514
598
660
712
762
809
827
775
632
423
204
22
-105
-190
-254
-300
-326
-340
-353
-364
-369
-365
-356
-352
-352
-354
-360
-369
-368
-367
-372
-342
-262
-211
-228
-259
-277
-263
-214
-231
-276
-97
402
1132
1639
1050
-389
-994
-378
71
-74
-120
-19
-38
-42
19
44
76
139
185
225
279
332
381
437
497
547
583
609
622
599
509
351
170
18
-91
-174
-235
-274
-300
-322
-338
-349
-361
-368
-367
-368
-371
-371
-378
-395
-402
-409
-431
-409
-324
-265
-271
-300
-326
-312
-261
-279
-325
-203
282
1279
2124
1472
-276
-978
-339
26
-179
-192
-84
-118
-109
-39
-14
25
91
136
185
244
290
330
376
417
451
481
498
488
439
342
206
62
-60
-153
-222
-272
-309
-337
-355
-361
-364
-369
-368
-364
-362
-358
-361
-376
-391
-399
-419
-420
-346
-256
-234
-256
-277
-285
-251
-224
-269
-268
23
871
2027
2157
609
-842
-664
2
-27
-184
-79
-55
-83
-14
34
58
130
197
247
309
364
402
444
488
521
545
553
538
497
421
313
188
62
-53
-142
-207
-255
-288
-309
-323
-328
-330
-333
-337
-338
-338
-336
-335
-345
-363
-374
-385
-384
-328
-243
-210
-234
-263
-275
-253
-222
-245
-258
-53
605
1597
1879
643
-826
-856
-118
28
-157
-101
-34
-61
-20
33
52
104
174
228
281
336
387
437
485
532
576
606
622
616
568
463
313
151
7
-116
-216
-280
-313
-344
-368
-372
-375
-385
-388
-386
-385
-379
-374
-376
-382
-391
-398
-405
-426
-422
-345
-256
-244
-271
-284
-289
-263
-230
-264
-247
54
770
1660
1738
410
-943
-824
-77
23
-147
-67
-12
-50
-10
39
57
114
182
225
279
351
411
466
537
617
681
723
751
756
698
557
367
176
7
-123
-213
-284
-343
-374
-386
-402
-418
-419
-413
-413
-411
-403
-400
-398
-387
-388
-409
-411
-400
-414
-402
-325
-268
-274
-289
-305
-299
-239
-245
-304
-145
348
1115
1758
1301
-206
-986
-402
111
-41
-119
-8
-19
-23
45
67
92
160
211
255
317
371
424
494
565
621
664
697
707
669
564
403
223
59
-67
-155
-217
-265
-301
-325
-342
-351
-349
-348
-356
-367
-376
-378
-369
-364
-371
-376
-379
-399
-420
-385
-305
-263
-266
-281
-315
-309
-231
-221
-291
-213
247
1250
2206
1698
-102
-987
-370
85
-117
-159
-37
-74
-85
-18
0
31
111
173
223
287
345
387
408
429
492
570
594
570
533
448
284
106
-22
-110
-194
-267
-296
-286
-306
-375
-417
-401
-393
-411
-402
-377
-387
-402
-376
-368
-408
-417
-389
-401
-418
-341
-236
-217
-264
-303
-282
-218
-213
-265
-220
118
1075
2260
2066
208
-1030
-530
83
-61
-160
-30
-40
-60
20
69
104
172
231
283
341
375
397
459
558
615
607
623
675
634
491
361
229
38
-107
-158
-226
-322
-362
-364
-370
-363
-359
-382
-397
-384
-385
-406
-399
-363
-355
-377
-381
-380
-414
-446
-401
-291
-224
-245
-290
-299
-255
-212
-244
-280
-190
183
1140
2190
1773
-83
-1069
-451
65
-130
-183
-31
-45
-69
-2
41
83
143
175
227
317
362
370
439
539
564
549
586
628
591
511
409
239
46
-79
-159
-243
-301
-323
-350
-383
-396
-400
-407
-390
-371
-389
-404
-392
-402
-410
-376
-372
-413
-413
-389
-386
-341
-271
-269
-285
-268
-277
-262
-205
-232
-238
61
772
1657
1770
434
-988
-862
-47
66
-101
-1
27
-24
70
140
104
136
259
354
380
405
505
629
682
717
819
921
944
912
833
674
449
205
-5
-137
-212
-279
-335
-366
-387
-402
-410
-423
-425
-395
-389
-426
-428
-390
-392
-401
-374
-379
-414
-409
-412
-428
-358
-268
-276
-301
-299
-313
-274
-234
-319
-306
63
803
1669
1675
256
-1012
-706
25
-3
-171
-67
-46
-60
14
20
23
123
194
201
233
294
348
392
430
475
526
560
573
547
458
324
172
17
-104
-179
-237
-280
-286
-291
-323
-330
-301
-309
-350
-350
-326
-326
-330
-323
-316
-318
-338
-364
-370
-371
-346
-261
-189
-204
-257
-266
-217
-176
-217
-279
-199
274
1380
2382
1769
-75
-874
-252
124
-101
-133
-9
-25
-32
21
48
93
172
211
215
264
349
396
412
451
497
522
534
527
477
364
215
92
-21
-176
-299
-317
-318
-348
-341
-330
-382
-414
-376
-347
-347
-349
-369
-371
-324
-309
-355
-387
-400
-427
-405
-308
-236
-221
-214
-234
-273
-256
-232
-263
-257
-19
852
2180
2351
613
-915
-627
68
-19
-169
-43
-38
-77
-9
31
49
110
168
226
290
333
391
490
578
636
688
715
697
642
541
389
202
-6
-176
-252
-288
-335
-367
-384
-412
-426
-414
-407
-414
-415
-408
-398
-391
-392
-386
-378
-391
-410
-412
-422
-431
-370
-267
-231
-254
-260
-256
-249
-221
-234
-296
-169
494
1580
1975
753
-872
-1025
-188
96
-84
-56
18
-17
14
73
92
141
211
263
322
391
460
539
621
692
757
817
848
831
751
600
400
199
22
-120
-213
-266
-314
-360
-387
-398
-407
-414
-420
-421
-416
-410
-407
-402
-395
-387
-377
-365
-355
-351
-360
-370
-376
-395
-403
-340
-245
-219
-247
-259
-258
-236
-188
-195
-214
-20
632
1674
2147
1038
-651
-969
-196
103
-90
-76
4
-30
1
69
87
126
195
247
299
360
416
479
550
608
654
697
730
732
683
572
411
232
70
-58
-150
-218
-270
-304
-324
-338
-349
-355
-357
-359
-362
-362
-359
-355
-349
-343
-336
-332
-326
-320
-328
-348
-358
-366
-375
-342
-256
-209
-236
-263
-271
-267
-233
-225
-256
-163
242
1071
1864
1443
-200
-1146
-577
52
-40
-145
-40
-34
-42
28
67
92
152
211
267
334
405
476
548
618
689
753
801
826
805
706
528
314
116
-45
-172
-267
-329
-366
-392
-410
-420
-422
-419
-417
-420
-422
-415
-405
-400
-397
-386
-374
-363
-352
-346
-350
-355
-354
-360
-376
-353
-266
-200
-209
-232
-235
-239
-199
-163
-212
-153
245
939
1654
1611
335
-917
-768
-26
88
-68
6
55
20
63
118
139
183
235
282
339
401
461
523
584
641
697
746
782
777
697
542
352
174
26
-93
-177
-225
-256
-282
-301
-313
-321
-330
-338
-344
-347
-354
-361
-360
-356
-358
-360
-353
-354
-370
-378
-379
-397
-396
-321
-242
-243
-269
-276
-281
-248
-212
-262
-256
17
702
1720
2079
853
-695
-768
-55
35
-160
-82
-26
-66
-17
37
53
106
166
205
260
321
366
408
448
479
507
532
544
520
435
298
148
13
-99
-183
-239
-273
-296
-314
-326
-332
-336
-341
-346
-349
-352
-352
-350
-349
-350
-347
-343
-356
-376
-383
-395
-411
-362
-262
-226
-254
-266
-274
-267
-213
-223
-287
-156
378
1415
2351
1805
-38
-954
-342
115
-99
-152
-29
-58
-58
21
50
88
163
220
280
359
423
476
532
582
621
653
666
644
567
431
265
107
-26
-132
-205
-252
-289
-317
-334
-345
-355
-361
-367
-372
-370
-367
-371
-371
-364
-363
-362
-360
-367
-379
-388
-407
-405
-325
-229
-225
-268
-276
-272
-256
-216
-234
-262
-59
604
1635
2091
988
-661
-945
-182
86
-117
-102
-24
-57
-22
44
60
107
183
237
294
368
434
491
548
603
658
712
750
750
681
534
338
142
-22
-140
-227
-295
-339
-362
-385
-400
-398
-399
-407
-401
-392
-395
-393
-378
-375
-378
-369
-357
-352
-347
-341
-344
-353
-358
-370
-383
-346
-252
-193
-209
-230
-235
-230
-183
-170
-225
-125
306
1062
1847
1688
208
-983
-641
72
66
-80
16
32
-6
53
102
128
182
233
281
351
420
479
549
627
700
768
824
855
834
738
568
360
162
2
-109
-182
-238
-284
-311
-320
-329
-344
-356
-362
-366
-374
-377
-374
-373
-377
-376
-373
-372
-368
-367
-378
-389
-396
-414
-407
-329
-251
-256
-286
-293
-291
-254
-224
-271
-250
34
753
1794
2051
680
-832
-763
-23
28
-161
-75
-32
-70
-15
36
51
110
175
218
273
335
387
439
490
535
576
609
620
591
498
345
168
8
-118
-205
-260
-296
-322
-338
-344
-348
-352
-355
-354
-353
-353
-352
-349
-348
-348
-343
-335
-329
-334
-348
-358
-369
-389
-367
-267
-187
-205
-242
-242
-243
-219
-176
-210
-225
38
774
1841
2209
951
-694
-841
-76
86
-127
-68
1
-46
-1
68
84
135
211
263
320
389
454
517
577
628
680
727
757
753
681
529
334
145
-10
-129
-223
-294
-336
-354
-367
-382
-388
-383
-384
-393
-396
-391
-389
-386
-377
-372
-369
-358
-352
-357
-353
-348
-362
-379
-389
-387
-334
-246
-216
-242
-249
-252
-250
-198
-197
-242
-74
422
1212
1927
1526
-68
-1012
-473
110
-19
-120
-11
-22
-40
31
65
87
149
202
252
322
388
446
510
572
630
684
726
744
714
601
416
218
47
-92
-193
-254
-292
-321
-340
-348
-353
-357
-357
-355
-354
-354
-355
-350
-340
-334
-331
-323
-310
-305
-314
-334
-351
-361
-368
-336
-245
-181
-203
-242
-252
-243
-179
-134
-211
-224
45
694
1764
2396
1362
-385
-755
-81
70
-151
-89
-14
-65
-16
66
71
88
146
205
259
316
367
404
435
469
496
508
497
450
352
225
100
-10
-105
-173
-214
-249
-276
-280
-278
-292
-303
-298
-300
-313
-312
-303
-314
-326
-304
-273
-273
-291
-295
-301
-324
-340
-344
-350
-308
-199
-129
-169
-222
-224
-210
-184
-164
-191
-165
128
866
1749
1691
255
-1018
-788
-23
88
-63
-9
23
4
59
96
110
168
216
245
307
368
406
457
524
575
610
636
642
609
525
396
242
90
-40
-145
-220
-266
-304
-349
-383
-395
-383
-345
-338
-399
-433
-375
-322
-341
-363
-353
-351
-353
-348
-362
-385
-377
-364
-394
-425
-387
-291
-215
-218
-266
-290
-284
-257
-194
-150
-214
-273
-84
504
1458
2091
1312
-411
-1124
-502
-44
-144
-102
70
85
72
94
91
112
163
210
285
396
489
545
600
685
795
879
908
906
856
705
515
381
256
63
-111
-138
-108
-169
-212
-130
-114
-248
-312
-242
-211
-265
-300
-285
-310
-407
-456
-406
-361
-350
-314
-278
-289
-313
-322
-312
-268
-221
-255
-344
-357
-303
-307
-369
-366
-116
521
1342
1690
928
-582
-1443
-1033
-327
-141
-182
-90
33
-4
-161
-165
-6
-9
-57
169
363
283
353
683
853
819
774
649
474
434
459
353
114
-119
-245
-294
-359
-433
-444
-419
-421
-405
-332
-295
-357
-383
-291
-264
-372
-391
-281
-249
-262
-187
-113
-92
-53
-39
-48
49
190
199
129
124
188
222
105
-91
-70
184
524
1252
2100
1622
-180
-1105
-504
-10
-129
-100
36
-7
-26
-12
-68
-79
-6
127
296
387
435
578
713
693
577
443
332
280
194
-18
-259
-409
-505
-563
-509
-413
-467
-649
-686
-435
-144
-133
-317
-422
-448
-462
-403
-354
-434
-515
-472
-417
-457
-519
-499
-418
-364
-354
-353
-360
-383
-402
-369
-279
-232
-205
-67
221
1039
2561
3177
1487
-528
-535
288
267
17
137
215
207
283
309
262
257
337
442
455
423
482
557
573
609
616
510
380
312
298
287
167
-60
-260
-411
-502
-410
-194
-97
-172
-297
-409
-495
-575
-657
-674
-621
-617
-672
-691
-674
-655
-614
-565
-537
-524
-530
-567
-575
-518
-501
-558
-536
-412
-334
-272
135
1222
2273
1670
-394
-1481
-823
-181
-274
-308
-171
-167
-131
-20
29
96
192
213
252
383
504
607
759
893
942
969
1031
1088
1020
770
483
307
195
113
89
74
49
29
-26
-28
97
135
-25
-144
-124
-115
-140
-124
-80
-71
-104
-124
-118
-127
-113
-116
-261
-375
-225
-72
-183
-367
-439
-303
197
930
1350
790
-661
-1616
-1147
-300
-187
-379
-285
-148
-212
-221
15
219
205
236
414
517
562
666
700
633
616
635
596
538
479
351
171
17
-121
-257
-320
-297
-275
-286
-298
-295
-293
-283
-242
-207
-232
-260
-223
-155
-95
-76
-117
-135
-69
2
32
34
-24
-88
-77
-70
-129
-193
-210
-100
259
975
1873
1964
543
-1008
-1000
-193
-5
-180
-156
-120
-157
-187
-237
-186
-38
-39
-95
70
289
306
257
303
357
342
293
249
158
-54
-295
-422
-502
-632
-754
-834
-870
-824
-748
-725
-733
-734
-735
-756
-790
-765
-716
-774
-832
-720
-623
-711
-781
-696
-636
-686
-707
-672
-672
-635
-507
-465
-466
-268
205
1255
2642
2567
482
-1030
-524
189
67
-5
172
181
166
246
277
289
370
497
574
565
599
716
766
736
749
791
810
827
812
705
543
399
276
160
81
30
-47
-99
-55
-13
-36
-14
66
61
-51
-162
-211
-197
-143
-98
-73
-32
21
22
-20
-4
35
-48
-129
-17
47
-97
-29
386
874
1678
2452
1688
-242
-853
57
482
175
140
300
302
295
317
344
423
465
476
605
779
831
828
890
965
968
927
876
773
606
438
300
147
-45
-203
-261
-288
-372
-457
-476
-488
-569
-698
-804
-850
-896
-1025
-1177
-1234
-1244
-1338
-1472
-1503
-1456
-1476
-1610
-1778
-1872
-1906
-2051
-2287
-2363
-2277
-2058
-1493
-784
-357
