# session 33
-32
-46
-12
-29
-162
-289
-307
-284
-288
-299
-311
-336
-355
-340
-299
-266
-251
-218
-191
-200
-166
-124
-188
-124
351
1151
2048
2290
1018
-694
-876
1
244
-15
-4
60
1
23
72
64
79
110
115
133
163
184
207
236
261
288
320
355
395
436
475
523
583
639
690
742
792
827
836
790
660
465
254
55
-125
-266
-359
-414
-443
-453
-450
-439
-425
-411
-397
-384
-372
-362
-356
-353
-352
-351
-351
-350
-346
-342
-340
-340
-334
-325
-318
-311
-302
-294
-288
-280
-271
-264
-255
-247
-239
-232
-224
-218
-213
-209
-203
-197
-193
-187
-180
-174
-169
-163
-159
-155
-151
-146
-142
-138
-133
-129
-124
-120
-118
-118
-115
-111
-109
-107
-104
-103
-99
-93
-96
-108
-115
-125
-151
-181
-195
-186
-155
-127
-111
-80
-55
-73
-49
7
-54
-65
293
1033
2050
2660
1682
-220
-788
32
391
98
51
142
79
73
127
120
127
164
174
186
212
232
252
280
306
332
366
400
437
479
524
574
630
688
743
797
846
880
886
835
704
508
290
79
-111
-263
-368
-429
-460
-469
-465
-453
-438
-424
-409
-396
-386
-379
-372
-366
-363
-361
-358
-355
-353
-350
-346
-340
-333
-327
-322
-316
-310
-301
-293
-286
-279
-270
-262
-255
-249
-242
-236
-230
-224
-217
-210
-204
-197
-191
-186
-183
-179
-173
-167
-162
-159
-155
-150
-145
-142
-139
-136
-132
-128
-123
-121
-119
-115
-112
-110
-108
-104
-99
-97
-95
-92
-91
-90
-85
-86
-98
-107
-111
-128
-159
-178
-177
-155
-126
-107
-86
-57
-63
-63
-2
-16
-85
115
695
1608
2546
2304
505
-813
-349
360
215
20
117
102
49
102
118
107
138
157
161
185
210
228
251
276
301
331
362
394
431
472
515
562
612
663
713
761
800
822
813
742
597
402
201
11
-153
-278
-360
-408
-431
-436
-432
-423
-410
-397
-386
-378
-370
-363
-359
-356
-354
-352
-351
-348
-344
-340
-335
-330
-325
-318
-312
-306
-299
-291
-282
-274
-266
-259
-252
-245
-239
-232
-225
-220
-214
-207
-199
-193
-189
-183
-178
-174
-168
-163
-159
-154
-148
-144
-141
-136
-132
-130
-129
-126
-123
-119
-116
-113
-111
-108
-104
-102
-100
-96
-93
-91
-91
-92
-90
-84
-84
-95
-100
-104
-123
-153
-172
-178
-165
-131
-104
-87
-61
-60
-65
-8
-3
-81
66
594
1460
2458
2486
826
-759
-534
287
265
20
99
116
50
93
122
105
128
153
158
177
202
222
245
268
292
320
351
383
420
460
501
550
604
658
706
752
797
832
832
765
624
433
226
25
-147
-276
-366
-423
-452
-461
-457
-446
-432
-420
-409
-397
-386
-379
-374
-369
-364
-363
-363
-362
-358
-353
-348
-345
-343
-337
-326
-316
-308
-299
-290
-284
-280
-275
-270
-264
-258
-252
-246
-237
-227
-218
-211
-202
-194
-189
-184
-176
-169
-163
-155
-150
-148
-142
-135
-132
-133
-134
-134
-133
-131
-129
-129
-129
-128
-124
-119
-118
-117
-111
-108
-113
-120
-123
-134
-157
-183
-197
-186
-151
-125
-109
-78
-67
-83
-40
-4
-80
-16
461
1331
2351
2541
1057
-687
-723
168
317
49
84
134
68
92
131
118
138
169
173
190
218
237
259
286
310
338
370
403
442
485
530
581
636
692
747
801
848
881
883
822
677
474
256
47
-136
-277
-370
-425
-452
-457
-451
-440
-427
-411
-394
-382
-374
-367
-361
-358
-356
-353
-351
-349
-346
-342
-338
-334
-330
-325
-318
-311
-306
-300
-292
-286
-279
-271
-263
-255
-249
-242
-237
-232
-225
-219
-212
-204
-198
-195
-190
-184
-181
-177
-171
-165
-161
-158
-155
-149
-144
-140
-137
-133
-129
-126
-124
-120
-117
-114
-111
-108
-105
-101
-99
-97
-94
-92
-100
-108
-112
-124
-149
-173
-183
-171
-140
-114
-100
-72
-56
-74
-41
4
-68
-38
373
1149
2179
2660
1467
-419
-774
94
360
65
56
129
63
72
118
104
116
150
157
170
197
214
233
261
286
311
342
376
412
451
494
543
596
648
702
756
802
838
851
812
695
515
309
103
-85
-235
-339
-404
-438
-450
-448
-441
-428
-413
-399
-388
-378
-369
-362
-357
-352
-352
-351
-349
-344
-340
-337
-332
-325
-318
-314
-308
-300
-292
-286
-277
-268
-260
-251
-242
-237
-235
-229
-220
-212
-205
-197
-192
-188
-183
-179
-176
-170
-163
-157
-153
-150
-146
-140
-135
-133
-132
-126
-118
-116
-117
-115
-109
-107
-107
-103
-95
-91
-93
-91
-85
-80
-80
-81
-80
-80
-85
-92
-96
-104
-128
-156
-172
-167
-140
-110
-97
-76
-49
-56
-39
15
-37
-58
285
992
1935
2579
1769
-135
-904
-122
375
119
32
136
84
61
116
113
113
148
156
162
192
216
229
248
272
299
333
366
400
437
481
531
582
635
697
760
811
851
879
860
761
585
371
156
-43
-216
-340
-413
-458
-484
-484
-468
-459
-451
-436
-423
-415
-406
-396
-389
-387
-384
-380
-380
-379
-376
-373
-370
-369
-364
-354
-342
-334
-329
-321
-312
-306
-301
-287
-273
-269
-266
-257
-249
-246
-241
-234
-227
-218
-211
-205
-197
-191
-189
-185
-178
-175
-173
-165
-157
-153
-151
-147
-142
-137
-133
-132
-129
-122
-122
-129
-133
-136
-152
-176
-200
-215
-199
-159
-135
-116
-79
-78
-87
-27
-28
-108
89
721
1637
2460
2144
389
-897
-433
321
221
22
118
116
64
114
132
121
151
172
178
202
227
243
267
295
321
351
385
423
466
513
565
622
684
748
811
871
919
948
933
837
652
421
190
-22
-201
-331
-414
-460
-478
-478
-472
-461
-444
-426
-412
-399
-386
-376
-369
-363
-358
-355
-355
-353
-348
-344
-342
-338
-330
-323
-317
-309
-302
-296
-289
-281
-273
-265
-256
-250
-246
-242
-236
-228
-223
-220
-212
-200
-198
-201
-191
-178
-180
-186
-184
-178
-166
-157
-161
-164
-150
-137
-136
-136
-134
-129
-120
-115
-119
-116
-106
-108
-123
-130
-137
-159
-178
-177
-161
-136
-116
-102
-71
-53
-70
-31
14
-61
-37
330
1026
2099
2832
1817
-220
-807
40
367
56
30
121
46
44
101
86
89
122
127
136
169
190
205
231
256
278
298
311
331
378
433
465
488
522
559
587
613
634
637
606
523
388
228
73
-69
-192
-286
-350
-387
-397
-389
-382
-377
-367
-354
-346
-341
-331
-323
-325
-327
-321
-313
-311
-312
-314
-314
-309
-304
-300
-295
-291
-287
-280
-273
-268
-263
-255
-249
-246
-241
-234
-227
-220
-213
-208
-203
-196
-191
-189
-185
-177
-170
-167
-163
-160
-155
-147
-144
-146
-144
-140
-135
-126
-118
-122
-131
-132
-131
-143
-164
-186
-191
-167
-141
-130
-103
-85
-100
-73
-37
-91
-35
404
1245
2282
2572
1142
-761
-975
-11
295
32
24
87
32
53
100
86
99
130
133
147
176
195
219
256
285
301
321
358
403
444
487
542
598
649
703
763
817
858
869
816
679
478
257
47
-135
-276
-374
-431
-458
-462
-456
-447
-436
-422
-408
-397
-388
-380
-375
-373
-370
-366
-365
-364
-362
-359
-357
-354
-348
-341
-333
-326
-320
-314
-306
-298
-291
-282
-272
-265
-259
-256
-251
-243
-235
-228
-222
-217
-212
-207
-202
-196
-192
-188
-183
-178
-175
-169
-166
-170
-175
-181
-198
-223
-245
-254
-227
-183
-165
-144
-109
-116
-108
-42
-80
-137
158
885
1925
2688
1935
-53
-955
-196
352
102
-4
104
59
34
94
96
96
133
148
158
185
206
226
255
281
308
342
377
416
461
509
563
624
688
750
812
870
913
928
883
747
539
306
81
-120
-277
-382
-444
-475
-484
-480
-469
-454
-440
-427
-413
-400
-392
-386
-379
-374
-372
-370
-367
-364
-363
-360
-353
-346
-341
-336
-328
-320
-314
-306
-297
-289
-282
-274
-267
-260
-252
-246
-241
-236
-229
-223
-216
-210
-203
-198
-193
-186
-180
-177
-173
-167
-163
-158
-152
-149
-145
-140
-145
-156
-161
-174
-204
-225
-218
-193
-162
-141
-125
-95
-84
-97
-52
-23
-100
-28
428
1268
2349
2659
1200
-610
-687
186
306
21
58
106
37
64
105
90
110
141
147
163
189
208
231
257
281
311
345
378
416
457
503
553
608
665
723
780
830
865
870
812
670
470
254
49
-130
-269
-360
-412
-437
-445
-442
-433
-420
-408
-398
-389
-381
-372
-367
-365
-364
-361
-357
-356
-354
-351
-347
-343
-336
-328
-321
-314
-306
-299
-293
-285
-274
-266
-258
-250
-244
-238
-230
-224
-220
-213
-206
-202
-196
-188
-185
-183
-176
-170
-169
-165
-156
-151
-150
-146
-139
-135
-132
-131
-131
-127
-122
-116
-114
-120
-128
-129
-140
-171
-199
-198
-180
-153
-123
-110
-95
-63
-64
-68
-15
-31
-94
122
708
1601
2504
2230
412
-897
-399
333
191
-1
99
88
41
92
99
89
124
142
146
173
194
209
236
265
292
318
344
379
429
476
516
566
629
690
744
797
851
889
883
806
649
436
212
8
-165
-297
-385
-435
-457
-462
-459
-453
-442
-427
-412
-405
-400
-393
-386
-384
-384
-382
-380
-380
-382
-379
-368
-361
-358
-352
-343
-336
-327
-318
-310
-301
-292
-285
-277
-267
-259
-253
-248
-243
-234
-225
-221
-218
-211
-201
-195
-190
-186
-181
-176
-174
-171
-166
-159
-156
-154
-145
-142
-148
-151
-154
-169
-187
-206
-227
-214
-165
-137
-130
-101
-94
-108
-53
-39
-129
54
740
1659
2297
1844
216
-908
-452
273
211
28
110
112
66
111
133
127
155
175
181
204
229
248
274
301
327
359
395
433
474
523
577
638
703
771
842
908
962
993
971
858
653
406
163
-54
-230
-356
-431
-469
-485
-486
-476
-463
-450
-438
-426
-413
-403
-396
-392
-388
-385
-384
-383
-381
-379
-377
-373
-369
-365
-359
-352
-344
-335
-325
-318
-312
-305
-297
-290
-282
-272
-263
-258
-253
-244
-235
-230
-226
-219
-212
-205
-200
-196
-189
-184
-180
-175
-169
-165
-159
-156
-166
-177
-188
-216
-247
-247
-225
-200
-173
-155
-132
-101
-108
-105
-40
-66
-143
100
791
1808
2645
2115
247
-811
-210
359
132
-9
97
61
25
83
90
87
124
141
149
176
200
220
248
275
303
337
371
409
453
502
553
608
670
735
798
856
902
926
898
786
592
361
135
-66
-230
-346
-414
-449
-462
-462
-454
-441
-430
-419
-408
-400
-394
-388
-381
-377
-377
-376
-371
-367
-364
-359
-353
-348
-344
-336
-326
-317
-310
-304
-297
-289
-280
-268
-257
-251
-247
-239
-232
-228
-224
-214
-201
-196
-196
-189
-177
-173
-173
-167
-158
-151
-145
-138
-134
-130
-129
-132
-132
-126
-115
-112
-119
-124
-127
-153
-192
-205
-189
-166
-145
-127
-97
-62
-73
-79
-16
-29
-100
158
864
1758
2354
1734
-39
-1029
-376
324
187
33
133
119
84
138
149
139
167
183
190
213
233
251
277
303
325
353
384
418
457
499
544
597
652
708
765
820
867
893
877
788
615
396
179
-15
-179
-300
-375
-418
-440
-449
-448
-439
-428
-419
-410
-402
-398
-396
-393
-392
-391
-387
-384
-384
-384
-381
-377
-372
-367
-361
-351
-342
-336
-331
-324
-316
-308
-300
-293
-284
-276
-269
-263
-256
-250
-243
-235
-228
-222
-218
-212
-205
-197
-194
-191
-185
-178
-175
-170
-165
-160
-154
-154
-165
-174
-180
-206
-241
-248
-230
-203
-174
-153
-126
-97
-106
-95
-32
-74
-130
170
909
1924
2614
1851
-9
-802
-86
375
108
12
112
64
44
103
102
104
142
155
164
193
216
235
261
287
314
346
380
415
456
503
553
605
660
719
780
831
871
892
861
743
552
332
116
-77
-229
-335
-399
-429
-438
-437
-431
-421
-410
-400
-393
-385
-378
-374
-372
-370
-367
-365
-364
-362
-354
-346
-342
-339
-330
-321
-313
-305
-297
-290
-283
-272
-262
-255
-249
-243
-236
-228
-221
-215
-209
-201
-193
-186
-182
-178
-173
-167
-161
-157
-151
-145
-140
-134
-130
-130
-128
-122
-120
-118
-113
-116
-130
-137
-144
-174
-206
-206
-187
-164
-134
-110
-86
-66
-78
-60
0
-50
-94
206
909
1928
2681
1926
-5
-827
-78
395
115
18
119
62
39
98
94
92
128
140
146
172
192
210
235
259
282
309
335
364
400
438
476
519
566
611
656
699
731
745
721
631
473
282
90
-84
-225
-326
-391
-428
-444
-449
-448
-439
-428
-421
-418
-415
-412
-409
-408
-409
-408
-404
-402
-401
-397
-391
-385
-378
-371
-364
-357
-350
-340
-332
-327
-320
-309
-300
-296
-290
-283
-275
-265
-257
-251
-243
-232
-230
-232
-225
-213
-201
-188
-182
-179
-167
-161
-179
-189
-181
-188
-181
-117
-64
-77
-97
-94
-96
-101
-98
-103
-116
-127
-137
-145
-141
-125
-97
-68
-58
-54
-40
-31
13
60
-8
-15
336
1083
2143
2756
1683
-299
-829
66
452
163
115
204
156
155
195
196
211
222
224
259
293
312
347
379
393
407
421
446
493
522
537
586
645
669
696
738
761
801
851
808
688
578
430
212
33
-64
-142
-212
-255
-275
-281
-283
-276
-261
-269
-289
-273
-256
-270
-268
-256
-289
-328
-314
-288
-298
-312
-294
-270
-273
-296
-308
-287
-267
-299
-331
-307
-281
-284
-277
-270
-276
-271
-287
-339
-344
-288
-267
-290
-292
-289
-317
-323
-283
-272
-312
-338
-331
-319
-293
-269
-287
-315
-313
-321
-350
-342
-324
-348
-381
-406
-445
-435
-362
-333
-357
-354
-344
-316
-254
-285
-301
118
1016
1887
1946
664
-1024
-1343
-430
51
-147
-181
-64
-106
-118
-53
-62
-59
4
0
-22
58
135
117
120
192
241
253
294
351
374
397
472
557
608
657
726
791
834
843
823
777
644
438
294
209
80
-28
-37
-25
-25
11
55
67
83
134
