# session 36
-22
-43
-4
50
-24
-189
-221
-114
-65
-102
-142
-172
-180
-157
-173
-202
-146
-125
-204
-103
386
1343
2526
2620
861
-840
-673
130
115
-120
-42
-21
-81
-42
-21
-31
8
35
33
63
101
110
126
160
183
196
219
247
270
292
329
372
391
397
426
457
460
443
396
288
148
19
-104
-215
-289
-337
-374
-388
-384
-377
-368
-358
-358
-355
-335
-319
-329
-334
-321
-338
-374
-346
-283
-279
-307
-301
-288
-298
-297
-277
-269
-271
-260
-242
-246
-256
-233
-200
-177
-143
-117
-142
-186
-201
-187
-176
-198
-201
-152
-160
-188
-7
525
1560
2659
2313
299
-1042
-505
215
77
-103
-21
-44
-81
-20
-7
-19
25
65
72
82
102
123
146
169
190
215
241
269
298
312
324
369
428
450
449
455
461
443
383
276
141
1
-122
-209
-260
-295
-318
-332
-342
-338
-327
-329
-323
-290
-273
-293
-300
-294
-317
-328
-293
-268
-279
-275
-256
-254
-254
-247
-245
-237
-222
-218
-223
-215
-191
-165
-149
-158
-180
-182
-168
-167
-162
-137
-111
-75
-44
-82
-148
-147
-123
-138
-136
-86
-64
-106
-136
-41
348
1316
2553
2593
825
-782
-587
183
163
-87
-33
-4
-55
-32
-22
-29
3
11
8
56
92
83
103
140
130
119
156
197
209
209
204
212
245
266
256
245
254
249
214
171
120
41
-47
-111
-145
-161
-185
-230
-257
-241
-227
-243
-250
-237
-235
-242
-242
-242
-242
-238
-234
-235
-232
-222
-207
-196
-194
-195
-192
-188
-183
-176
-164
-158
-160
-163
-165
-164
-145
-114
-99
-88
-57
-47
-87
-134
-150
-144
-139
-139
-130
-122
-130
-99
110
792
1991
2627
1470
-479
-1051
-300
139
-14
-82
-36
-64
-73
-52
-55
-44
-16
8
41
76
86
78
92
141
180
178
177
205
235
254
282
321
337
326
355
446
480
386
269
198
103
-32
-142
-232
-314
-353
-375
-403
-368
-290
-286
-333
-331
-312
-320
-319
-319
-333
-323
-304
-305
-299
-289
-299
-306
-297
-291
-273
-243
-224
-225
-235
-237
-224
-217
-220
-201
-144
-91
-81
-109
-146
-179
-184
-149
-157
-208
-177
-138
-188
-65
436
1283
2207
2135
469
-1046
-768
107
168
-36
16
20
-8
66
87
59
95
148
165
168
183
224
259
260
266
303
347
380
395
401
428
471
504
531
557
569
563
542
491
368
183
11
-108
-204
-279
-320
-358
-396
-397
-372
-369
-371
-346
-329
-348
-360
-340
-335
-369
-386
-356
-340
-368
-364
-309
-287
-311
-313
-306
-313
-299
-277
-271
-255
-260
-292
-262
-177
-153
-193
-223
-214
-182
-164
-178
-197
-176
-139
-180
-202
-15
357
1137
2392
2688
958
-837
-690
145
130
-118
-58
-73
-123
-14
7
-122
-129
7
80
61
54
91
145
166
130
112
161
215
240
262
274
273
280
286
289
314
341
300
204
142
88
-21
-107
-128
-180
-258
-274
-265
-285
-304
-311
-290
-231
-197
-224
-254
-249
-233
-224
-221
-224
-235
-248
-248
-218
-182
-186
-228
-242
-210
-187
-194
-199
-199
-199
-177
-140
-112
-91
-76
-87
-115
-140
-144
-123
-121
-141
-124
-103
-92
35
455
1424
2564
2370
527
-787
-383
232
104
-88
-83
-108
-85
-32
-34
5
46
6
-10
50
100
123
143
141
128
145
181
185
184
238
289
258
212
225
256
261
242
223
206
139
18
-59
-75
-114
-178
-211
-221
-225
-212
-194
-202
-243
-283
-256
-176
-172
-255
-277
-230
-221
-212
-191
-246
-302
-254
-219
-254
-240
-177
-181
-240
-250
-214
-210
-222
-182
-148
-186
-212
-190
-184
-184
-174
-192
-179
-106
-77
-94
-63
-39
-95
-162
-183
-175
-157
-151
-130
-95
-132
-131
258
1164
2114
2062
514
-1119
-1129
-172
172
12
24
37
-41
15
90
73
98
144
127
132
192
210
196
238
299
307
321
383
405
383
411
482
531
563
593
607
628
659
623
499
358
214
46
-83
-141
-219
-326
-362
-347
-369
-389
-362
-329
-319
-335
-364
-356
-334
-353
-365
-351
-357
-356
-335
-346
-348
-317
-326
-348
-315
-296
-321
-323
-317
-325
-282
-214
-222
-268
-275
-291
-327
-300
-235
-202
-172
-133
-140
-187
-217
-204
-193
-211
-173
-120
-193
-195
140
806
1837
2617
1789
-132
-789
-9
317
-38
-103
21
-36
-52
26
37
35
76
90
69
75
120
179
235
267
280
313
352
354
379
450
485
491
555
636
657
660
670
614
477
330
178
-26
-227
-329
-360
-392
-415
-420
-434
-434
-410
-405
-413
-402
-389
-391
-391
-382
-376
-382
-379
-356
-350
-364
-351
-320
-319
-341
-341
-316
-284
-254
-243
-260
-276
-265
-249
-249
-253
-265
-287
-274
-211
-149
-112
-93
-115
-183
-213
-162
-139
-182
-165
-134
-181
-83
339
1134
2260
2635
1162
-637
-644
202
211
-92
0
63
-9
25
43
9
59
125
120
130
184
219
225
230
240
270
318
350
367
400
433
444
446
451
471
518
558
542
449
318
210
119
1
-121
-206
-276
-331
-327
-300
-325
-357
-317
-269
-304
-343
-311
-290
-316
-314
-300
-317
-313
-279
-277
-297
-286
-265
-263
-255
-231
-223
-247
-271
-265
-229
-200
-201
-217
-226
-223
-209
-184
-158
-156
-181
-200
-200
-196
-186
-165
-177
-199
-144
-59
-56
-96
-117
-149
-165
-130
-119
-116
-76
-130
-195
26
562
1489
2555
2305
348
-965
-374
323
113
-54
64
29
-24
-3
-36
3
122
125
74
106
150
157
178
202
221
256
270
240
242
286
298
285
302
331
328
303
285
276
240
167
100
40
-48
-141
-201
-234
-246
-251
-272
-281
-261
-253
-267
-266
-262
-280
-297
-285
-264
-261
-256
-241
-255
-270
-224
-187
-230
-256
-220
-206
-207
-189
-207
-238
-212
-187
-196
-183
-170
-182
-174
-164
-188
-191
-154
-126
-96
-48
-50
-105
-134
-127
-138
-156
-126
-84
-116
-145
-26
339
1251
2499
2536
697
-909
-633
166
152
-60
7
14
-37
24
54
-7
-11
60
91
76
101
152
153
139
173
220
225
211
226
258
266
272
300
308
270
237
239
246
214
143
76
2
-104
-175
-181
-201
-247
-247
-245
-307
-350
-299
-233
-235
-274
-288
-271
-262
-269
-277
-296
-317
-290
-248
-258
-272
-239
-227
-256
-263
-249
-230
-198
-198
-231
-228
-216
-219
-166
-104
-125
-134
-83
-94
-160
-173
-162
-189
-215
-171
-100
-123
-132
205
1029
2001
2182
853
-876
-1152
-257
198
59
27
60
0
23
85
81
103
136
124
150
201
182
164
224
277
273
279
325
376
398
397
410
438
453
458
476
504
505
453
345
195
48
-63
-157
-256
-330
-362
-365
-343
-317
-334
-369
-354
-308
-296
-301
-296
-320
-360
-361
-340
-332
-321
-306
-299
-296
-301
-312
-320
-320
-296
-254
-251
-292
-310
-281
-246
-212
-171
-169
-206
-204
-168
-182
-224
-209
-149
-172
-275
-195
238
1020
2085
2521
1225
-620
-841
45
253
-52
-58
9
-55
-42
5
-6
22
91
112
93
92
117
157
204
227
228
259
313
333
350
412
465
482
515
553
555
553
550
470
312
149
-5
-157
-264
-336
-404
-419
-377
-372
-399
-389
-378
-389
-372
-356
-390
-403
-351
-310
-329
-353
-350
-351
-367
-340
-274
-273
-339
-343
-295
-299
-314
-285
-281
-278
-200
-141
-174
-206
-216
-239
-221
-187
-199
-191
-193
-228
-61
474
1438
2491
2295
435
-939
-457
282
125
-102
-16
-5
-31
14
19
16
52
77
94
105
110
154
211
225
240
281
292
292
346
417
447
454
486
542
573
558
536
506
410
245
57
-111
-214
-259
-301
-359
-403
-413
-395
-363
-339
-342
-361
-357
-326
-306
-309
-313
-323
-338
-333
-311
-312
-319
-285
-262
-295
-311
-270
-224
-223
-258
-272
-236
-217
-230
-216
-204
-233
-241
-224
-241
-249
-192
-117
-74
-70
-108
-169
-177
-120
-129
-200
-141
-57
-155
-136
293
1077
2141
2603
1290
-584
-755
164
311
-38
-22
62
-7
2
64
73
63
65
98
146
161
170
209
240
244
249
273
312
361
397
417
446
483
497
508
532
534
506
469
396
261
110
-21
-145
-246
-295
-308
-321
-334
-335
-334
-339
-337
-328
-321
-335
-370
-380
-336
-299
-320
-352
-348
-317
-302
-324
-331
-290
-277
-280
-219
-188
-249
-276
-243
-226
-201
-171
-164
-147
-149
-202
-203
-128
-96
-124
-133
-100
-73
-93
-115
-113
-147
-171
-102
-51
-97
-120
-94
-115
-163
-165
-132
-108
-101
-80
-69
-115
-117
-32
-7
-14
139
636
1712
2719
2102
166
-736
-133
269
60
18
109
66
59
94
67
67
100
88
80
121
147
139
158
203
205
169
169
187
157
150
226
269
222
209
243
208
137
124
118
57
-6
-37
-77
-122
-140
-152
-170
-175
-210
-269
-247
-167
-160
-206
-216
-209
-217
-223
-227
-234
-227
-207
-201
-211
-209
-200
-215
-225
-196
-173
-190
-198
-172
-160
-178
-181
-166
-169
-172
-159
-160
-165
-148
-141
-156
-150
-127
-129
-139
-126
-107
-119
-147
-150
-144
-161
-165
-140
-133
-128
-91
-74
-86
-70
-44
-37
32
425
1442
2520
2154
245
-1077
-677
74
124
-10
43
72
53
51
47
71
101
79
74
136
180
167
166
202
232
242
254
272
290
309
320
321
343
391
407
376
379
410
353
221
134
77
-31
-155
-231
-259
-268
-274
-277
-273
-265
-247
-235
-256
-282
-271
-253
-261
-264
-248
-244
-268
-300
-312
-292
-273
-273
-255
-217
-222
-258
-254
-228
-229
-230
-212
-214
-229
-215
-191
-185
-184
-186
-186
-171
-173
-198
-184
-144
-144
-160
-151
-152
-177
-199
-220
-232
-207
-179
-174
-143
-104
-110
-93
-67
-123
-9
588
1474
2066
1636
110
-1081
-748
114
256
77
123
168
136
160
184
182
196
201
206
233
249
249
269
306
332
347
373
415
445
462
508
570
583
567
601
669
700
690
630
479
279
115
-35
-217
-366
-416
-417
-426
-426
-413
-416
-417
-381
-354
-380
-395
-369
-360
-369
-357
-355
-364
-332
-301
-322
-323
-281
-284
-319
-308
-291
-309
-300
-256
-236
-234
-217
-212
-230
-228
-204
-197
-206
-200
-179
-164
-163
-184
-213
-190
-107
-50
-53
-78
-125
-170
-160
-143
-145
-106
-110
-176
-69
312
1090
2253
2559
996
-699
-602
180
185
-25
38
2
-67
16
45
8
51
98
91
91
105
129
176
201
193
208
237
246
283
341
336
310
353
404
403
409
435
415
354
281
165
5
-131
-207
-258
-319
-368
-355
-314
-333
-381
-375
-347
-341
-328
-322
-335
-334
-321
-309
-295
-312
-341
-318
-280
-287
-286
-250
-235
-263
-293
-267
-208
-209
-242
-206
-157
-168
-167
-117
-93
-103
-93
-75
-91
-114
-110
-119
-126
-85
-94
-144
-29
336
1131
2312
2563
943
-744
-633
150
158
-63
9
15
-51
-6
16
-13
13
55
74
92
97
96
121
156
184
206
217
215
219
244
277
286
272
264
276
287
273
230
192
145
47
-60
-124
-191
-258
-269
-261
-271
-266
-264
-285
-274
-248
-252
-230
-195
-231
-286
-270
-230
-222
-238
-252
-229
-189
-203
-248
-230
-179
-175
-197
-208
-209
-179
-138
-159
-208
-184
-119
-104
-111
-78
-44
-64
-97
-101
-109
-136
-159
-148
-89
-50
-93
-109
121
878
2041
2399
974
-826
-1004
-144
124
-108
-112
-32
-68
-54
-3
-11
-2
42
52
44
65
103
139
165
178
198
228
246
275
335
380
381
384
410
445
495
539
528
463
368
243
92
-57
-174
-251
-303
-332
-336
-336
-337
-324
-313
-332
-354
-351
-339
-333
-332
-330
-325
-322
-317
-303
-313
-355
-367
-332
-307
-303
-289
-279
-279
-268
-261
-275
-280
-269
-261
-234
-188
-156
-141
-140
-149
-162
-190
-199
-173
-173
-174
-150
-189
-146
235
986
2047
2627
1501
-438
-859
27
320
16
5
85
16
29
83
69
82
125
137
152
185
208
229
258
286
313
345
382
421
459
500
550
603
649
692
734
760
742
645
468
249
33
-154
-295
-390
-446
-476
-490
-487
-475
-466
-461
-457
-453
-449
-443
-441
-444
-448
-446
-439
-430
-422
-412
-405
-404
-399
-390
-382
-371
-363
-365
-366
-363
-370
-376
-361
-320
-254
-203
-214
-255
-277
-282
-265
-253
-271
-243
-207
-281
-257
110
876
2040
2688
1490
-491
-859
20
242
-80
-80
-7
-76
-63
-19
-28
1
44
51
76
122
146
155
178
222
262
281
305
353
407
440
456
498
575
632
656
680
667
568
408
220
29
-123
-230
-316
-371
-384
-380
-387
-393
-383
-370
-369
-361
-344
-339
-346
-354
-353
-334
-316
-324
-331
-307
-293
-311
-303
-256
-227
-224
-224
-230
-225
-198
-193
-201
-166
-129
-150
-170
-156
-158
-174
-150
-93
-35
-7
-32
-72
-81
-78
-70
-66
-83
-58
-17
-90
-96
276
1068
2108
2520
1271
-546
-775
150
413
122
118
190
129
127
149
151
207
254
244
247
275
299
325
356
375
367
370
435
513
529
533
577
599
587
624
695
715
681
621
506
338
165
14
-109
-210
-291
-329
-331
-348
-375
-370
-358
-372
-389
-400
-421
-432
-406
-382
-399
-423
-426
-427
-431
-429
-430
-441
-444
-432
-422
-421
-422
-426
-434
-432
-424
-433
-440
-414
-396
-415
-419
-390
-376
-387
-385
-380
-390
-400
-408
-417
-403
-362
-317
-275
-258
-285
-325
-347
-340
-326
-342
-327
-259
-293
-359
-167
378
1413
2590
2347
348
-995
-460
173
-47
-192
-64
-104
-156
-87
-61
-62
-24
15
51
81
107
162
217
240
271
321
352
383
437
490
527
568
616
661
699
728
744
744
716
640
525
405
301
222
175
154
140
133
140
