# session 41
-64
-78
-31
-74
-266
-438
-461
-392
-363
-410
-403
-313
-314
-403
-383
-297
-308
-340
-302
-277
-284
-283
-304
-304
-197
-87
-124
-234
-261
-213
-179
-163
-145
-156
-196
-218
-160
7
393
1300
2372
2155
368
-913
-517
140
79
-36
45
-40
-123
-2
58
-11
3
67
64
46
51
85
165
192
126
143
255
259
178
186
237
235
248
285
277
260
271
267
234
156
43
-17
-34
-118
-236
-258
-210
-216
-258
-240
-213
-244
-248
-205
-223
-276
-264
-237
-249
-240
-204
-202
-222
-221
-204
-196
-225
-256
-221
-171
-167
-162
-158
-195
-205
-170
-160
-158
-133
-146
-183
-167
-128
-97
-47
-39
-107
-133
-94
-92
-92
-56
-53
-82
-119
-146
-21
407
1285
2337
2293
612
-845
-570
196
178
-41
30
59
0
17
43
38
35
48
106
157
139
119
146
175
203
218
194
199
267
289
238
239
299
304
273
289
280
194
144
160
126
33
-34
-94
-181
-242
-263
-276
-261
-217
-204
-215
-220
-247
-275
-250
-215
-223
-234
-220
-205
-216
-242
-242
-208
-188
-193
-187
-182
-199
-192
-155
-155
-191
-196
-168
-157
-166
-158
-134
-147
-191
-175
-107
-123
-197
-177
-112
-134
-169
-146
-149
-158
-103
-87
-141
-142
-105
-105
-85
-56
-122
-207
-157
-49
-38
-85
-85
-66
-55
-30
-44
-83
-24
24
-75
-50
329
1041
2053
2536
1366
-422
-747
17
256
60
84
117
30
31
79
66
28
46
129
168
123
114
171
217
236
238
209
178
190
257
330
340
319
335
345
305
286
313
322
293
234
143
47
-56
-150
-171
-176
-232
-240
-205
-269
-351
-321
-273
-269
-260
-256
-259
-248
-262
-300
-299
-272
-283
-303
-272
-235
-254
-268
-242
-234
-240
-228
-225
-222
-195
-187
-201
-197
-198
-201
-163
-145
-188
-197
-159
-155
-165
-146
-130
-133
-146
-162
-147
-114
-119
-140
-131
-114
-125
-130
-110
-127
-183
-184
-145
-165
-197
-162
-110
-94
-107
-115
-66
-31
-68
24
400
1113
2102
2400
1068
-541
-559
239
337
85
112
132
40
37
85
124
172
179
156
167
185
170
183
252
294
275
278
317
332
324
338
374
415
442
449
461
461
420
394
401
346
191
6
-138
-193
-213
-298
-385
-365
-324
-340
-331
-293
-314
-359
-341
-312
-330
-337
-293
-275
-323
-346
-299
-278
-320
-327
-282
-274
-297
-274
-231
-237
-254
-227
-223
-276
-275
-201
-188
-238
-232
-171
-154
-195
-218
-186
-153
-151
-149
-159
-175
-150
-144
-190
-169
-76
-54
-99
-115
-111
-109
-95
-102
-149
-180
-167
-155
-153
-124
-80
-73
-83
-36
18
-49
-95
146
783
1867
2768
2085
100
-836
-131
406
166
21
88
50
27
67
67
84
133
138
108
123
191
245
248
239
249
277
314
345
370
400
432
460
485
508
527
532
528
530
507
403
247
113
-2
-133
-251
-325
-365
-381
-382
-380
-372
-360
-354
-348
-342
-348
-356
-352
-347
-344
-342
-343
-341
-333
-328
-328
-322
-312
-306
-303
-297
-285
-273
-267
-264
-259
-252
-249
-246
-240
-235
-227
-214
-205
-204
-205
-200
-190
-188
-194
-190
-173
-161
-158
-156
-151
-145
-142
-144
-143
-145
-160
-178
-199
-213
-198
-167
-151
-120
-91
-122
-116
-29
-45
-82
237
994
1966
2463
1481
-365
-952
-98
404
173
83
167
138
136
178
169
171
200
207
216
244
271
285
296
318
353
379
393
415
450
484
516
549
580
611
648
681
696
684
623
493
312
121
-52
-193
-298
-372
-414
-419
-412
-414
-414
-402
-392
-387
-378
-373
-375
-370
-359
-358
-363
-361
-356
-357
-355
-347
-335
-326
-320
-317
-312
-306
-299
-288
-275
-268
-265
-260
-256
-252
-241
-230
-222
-211
-201
-197
-194
-189
-185
-178
-174
-176
-172
-158
-148
-142
-137
-144
-159
-167
-176
-197
-222
-236
-226
-198
-177
-149
-104
-106
-122
-61
-45
-126
4
542
1467
2451
2325
613
-778
-399
358
261
35
118
117
61
108
132
120
141
159
175
205
221
230
256
284
306
329
355
381
401
420
460
507
531
549
589
628
640
635
606
516
363
192
34
-109
-233
-324
-372
-387
-390
-396
-401
-391
-372
-362
-361
-357
-356
-360
-353
-340
-344
-354
-341
-322
-322
-324
-318
-311
-306
-299
-293
-285
-278
-277
-278
-269
-250
-236
-234
-234
-229
-223
-218
-211
-206
-205
-202
-192
-185
-184
-174
-165
-170
-169
-154
-148
-156
-156
-159
-175
-185
-187
-205
-236
-243
-215
-186
-164
-120
-95
-108
-69
-29
-98
-55
378
1232
2284
2523
1088
-605
-618
246
355
71
105
147
70
99
154
143
149
173
181
197
217
228
242
268
293
308
324
358
397
422
444
475
506
530
556
584
599
595
572
509
388
226
60
-86
-198
-275
-325
-356
-371
-375
-376
-377
-372
-359
-353
-357
-359
-354
-350
-350
-351
-349
-347
-342
-336
-330
-324
-319
-313
-304
-299
-298
-290
-277
-271
-265
-256
-250
-249
-243
-234
-226
-222
-216
-206
-201
-204
-199
-184
-177
-177
-168
-160
-159
-156
-148
-146
-150
-154
-162
-173
-184
-203
-223
-217
-190
-166
-130
-101
-110
-89
-44
-88
-84
260
1068
2176
2612
1327
-537
-815
96
384
98
80
153
89
92
136
129
140
166
174
194
218
226
241
266
285
302
324
345
366
389
410
430
455
479
497
514
528
527
504
449
352
213
61
-69
-163
-239
-303
-337
-342
-341
-345
-344
-340
-338
-337
-333
-332
-334
-333
-330
-332
-334
-333
-326
-319
-318
-319
-312
-302
-295
-289
-283
-278
-274
-265
-252
-243
-238
-235
-231
-223
-215
-211
-205
-197
-194
-191
-181
-173
-171
-169
-166
-165
-164
-164
-162
-149
-130
-102
-54
-27
-55
-101
-124
-123
-118
-129
-116
-72
-108
-147
79
728
1831
2706
1943
-111
-1022
-233
347
113
-2
93
46
21
78
79
77
110
128
140
161
179
203
230
247
262
284
304
323
347
371
390
411
430
441
450
462
467
452
409
324
199
64
-62
-173
-251
-292
-324
-351
-359
-352
-347
-346
-343
-342
-342
-339
-337
-340
-341
-338
-337
-335
-330
-326
-323
-318
-313
-309
-301
-289
-283
-280
-271
-259
-252
-249
-243
-237
-233
-224
-214
-215
-218
-215
-218
-220
-201
-170
-130
-83
-75
-116
-154
-164
-151
-138
-153
-144
-107
-143
-160
99
812
1988
2756
1734
-347
-1018
-136
333
66
-2
88
27
14
70
69
73
107
120
136
168
187
202
225
249
275
298
314
335
365
390
410
433
457
470
476
481
475
442
378
283
150
-1
-130
-225
-295
-340
-359
-363
-363
-361
-356
-346
-340
-339
-339
-339
-337
-330
-329
-336
-330
-315
-314
-323
-320
-306
-294
-290
-290
-287
-285
-285
-265
-235
-237
-257
-243
-216
-223
-238
-228
-220
-223
-209
-178
-141
-97
-81
-121
-163
-169
-159
-154
-166
-162
-120
-132
-173
29
663
1721
2614
2047
46
-1159
-542
222
136
-10
75
39
-3
69
93
77
109
135
136
157
191
213
226
245
275
304
323
346
375
394
413
449
478
492
514
539
539
510
455
347
185
19
-108
-208
-298
-360
-383
-394
-402
-393
-376
-370
-369
-360
-353
-355
-354
-349
-346
-343
-343
-347
-344
-336
-334
-334
-325
-318
-319
-312
-293
-282
-280
-274
-270
-275
-273
-266
-261
-245
-221
-193
-151
-121
-143
-184
-205
-200
-185
-190
-193
-152
-165
-215
-21
620
1695
2614
2076
107
-1070
-463
248
115
-47
43
29
-7
41
52
48
80
103
124
157
178
196
224
248
268
298
329
357
387
418
450
486
524
559
587
608
618
595
505
343
151
-25
-168
-281
-359
-397
-409
-418
-423
-411
-390
-379
-379
-373
-361
-356
-359
-357
-353
-354
-355
-349
-343
-342
-337
-326
-321
-319
-311
-300
-294
-290
-282
-272
-263
-258
-256
-253
-250
-248
-251
-248
-231
-205
-162
-113
-107
-141
-163
-172
-174
-158
-162
-165
-116
-128
-197
-56
459
1479
2700
2638
723
-825
-445
301
169
-46
45
32
-21
37
57
45
81
111
122
149
173
192
218
245
269
300
329
353
379
408
441
478
513
542
570
596
610
595
533
414
251
79
-74
-197
-284
-336
-361
-371
-373
-369
-362
-356
-349
-343
-341
-337
-332
-332
-335
-334
-327
-320
-317
-314
-310
-305
-299
-294
-292
-284
-270
-260
-258
-251
-240
-234
-230
-225
-216
-210
-207
-204
-196
-190
-183
-174
-171
-170
-166
-160
-156
-150
-143
-140
-140
-138
-129
-124
-137
-150
-147
-154
-188
-211
-197
-180
-160
-125
-105
-95
-78
-83
-70
-14
-45
-89
129
700
1711
2729
2303
365
-748
-134
424
180
41
141
92
55
114
117
107
135
147
157
182
195
208
235
257
273
296
318
335
356
377
397
424
452
475
495
515
528
525
491
412
288
144
7
-115
-213
-278
-319
-347
-360
-361
-358
-353
-346
-342
-340
-339
-339
-341
-342
-341
-341
-339
-336
-333
-330
-325
-320
-316
-305
-291
-283
-279
-272
-265
-260
-254
-247
-241
-233
-226
-222
-215
-207
-203
-199
-191
-186
-184
-180
-174
-170
-167
-161
-153
-145
-143
-143
-140
-134
-129
-126
-130
-139
-143
-146
-164
-191
-204
-192
-172
-147
-111
-95
-95
-74
-69
-79
-33
-21
-82
24
451
1311
2477
2670
1029
-618
-446
341
300
45
112
126
66
107
130
112
135
159
164
179
199
218
242
261
276
297
318
335
356
379
400
424
448
466
481
499
515
517
493
432
325
185
44
-83
-191
-270
-314
-333
-342
-348
-348
-338
-327
-322
-320
-318
-318
-319
-317
-316
-319
-321
-320
-315
-310
-306
-300
-292
-290
-288
-274
-259
-255
-257
-252
-242
-235
-230
-224
-215
-206
-202
-199
-194
-187
-185
-186
-180
-168
-162
-158
-152
-147
-146
-142
-137
-136
-134
-130
-130
-131
-123
-111
-108
-112
-117
-122
-127
-129
-143
-174
-197
-190
-171
-142
-106
-90
-80
-68
-75
-51
-8
-59
-49
304
1064
2108
2613
1474
-397
-811
52
384
113
82
158
98
100
147
136
140
170
178
185
206
227
243
258
280
306
325
342
367
396
421
447
474
498
524
551
574
591
586
533
423
270
103
-49
-176
-274
-339
-375
-393
-400
-402
-394
-379
-367
-360
-351
-343
-343
-345
-343
-342
-344
-345
-342
-339
-337
-339
-334
-319
-308
-307
-303
-294
-284
-276
-269
-263
-256
-249
-242
-236
-229
-223
-216
-212
-207
-199
-192
-189
-185
-179
-173
-168
-163
-159
-154
-150
-147
-143
-137
-135
-131
-127
-132
-141
-145
-155
-183
-209
-213
-197
-169
-141
-120
-92
-79
-92
-58
-14
-74
-59
304
1094
2221
2775
1588
-303
-672
154
389
93
83
149
78
85
133
126
137
162
165
185
214
227
245
272
291
309
335
361
387
416
447
481
516
546
577
609
634
644
632
572
445
277
103
-61
-200
-295
-353
-389
-408
-407
-395
-382
-371
-361
-353
-347
-344
-341
-337
-335
-337
-338
-332
-326
-324
-321
-315
-310
-306
-301
-296
-287
-275
-265
-259
-255
-252
-245
-234
-226
-223
-218
-210
-202
-196
-189
-186
-186
-180
-169
-164
-164
-157
-149
-148
-146
-140
-138
-137
-134
-130
-128
-126
-124
-120
-114
-109
-107
-104
-101
-107
-117
-120
-123
-148
-180
-189
-171
-144
-121
-101
-72
-63
-80
-47
-3
-63
-52
285
1010
2086
2696
1623
-262
-707
118
399
102
78
156
89
87
135
125
130
158
165
176
199
217
236
256
273
292
314
333
358
387
412
435
467
500
526
548
567
579
573
532
440
304
148
-5
-136
-236
-308
-356
-380
-384
-380
-372
-364
-358
-354
-349
-340
-334
-332
-332
-331
-328
-327
-328
-325
-319
-316
-314
-304
-293
-286
-280
-274
-267
-257
-248
-244
-238
-230
-224
-215
-204
-202
-203
-193
-181
-176
-174
-168
-161
-157
-152
-147
-141
-136
-134
-134
-130
-123
-121
-121
-118
-114
-110
-105
-102
-103
-104
-97
-89
-90
-99
-104
-113
-134
-158
-171
-164
-137
-112
-94
-66
-53
-66
-32
6
-57
-21
381
1181
2211
2567
1268
-518
-720
160
386
103
105
170
103
113
158
146
155
182
185
198
226
239
246
266
293
317
336
354
375
396
421
456
491
516
538
565
588
598
588
537
431
284
122
-40
-185
-289
-352
-390
-417
-429
-428
-418
-408
-401
-395
-386
-381
-385
-385
-375
-370
-376
-377
-370
-367
-367
-362
-358
-354
-346
-338
-333
-327
-318
-307
-300
-294
-286
-276
-271
-266
-257
-247
-239
-237
-234
-229
-223
-218
-210
-202
-200
-197
-189
-179
-174
-171
-168
-166
-159
-153
-152
-150
-142
-140
-147
-149
-148
-161
-188
-215
-219
-188
-158
-140
-103
-75
-89
-63
-12
-67
-56
332
1150
2196
2592
1359
-437
-714
151
411
131
123
194
130
139
187
177
188
219
226
243
271
285
299
326
354
377
400
424
452
481
510
542
578
613
644
669
689
705
699
645
528
368
194
33
-102
-205
-273
-309
-324
-330
-328
-318
-307
-301
-294
-287
-285
-282
-277
-275
-276
-275
-273
-270
-268
-267
-266
-262
-259
-257
-251
-243
-238
-233
-226
-223
-223
-220
-213
-208
-206
-204
-199
-196
-194
-192
-189
-188
-189
-187
-183
-183
-182
-180
-180
-181
-180
-178
-181
-183
-181
-182
-187
-188
-189
-201
-214
-225
-244
-271
-293
-300
-282
-254
-240
-220
-202
-217
-202
-153
-200
-219
81
796
1868
2538
1566
-370
-974
-148
249
-31
-90
-9
-75
-82
-27
-38
-38
-6
2
13
38
54
70
93
116
138
162
186
214
243
271
306
343
374
408
444
470
486
489
454
370
244
96
-53
-179
-271
-331
-364
-372
-365
-354
-338
-313
-288
-267
-246
-221
-200
-181
-160
-140
-121
-99
-73
