# session 27
48
18
82
64
-234
-475
-158
724
1870
2447
1322
-759
-1464
-608
-73
-276
-339
-226
-239
-234
-174
-161
-141
-89
-64
-44
3
48
73
98
130
160
193
238
282
321
366
416
461
507
548
576
596
583
505
389
254
88
-70
-174
-262
-365
-423
-409
-379
-372
-366
-343
-318
-316
-333
-331
-310
-313
-330
-326
-316
-316
-308
-301
-310
-307
-287
-286
-297
-283
-259
-249
-247
-240
-213
-184
-193
-222
-219
-193
-181
-173
-159
-152
-152
-141
-129
-128
-122
-123
-153
-189
-212
-227
-212
-170
-146
-125
-89
-90
-84
-28
-59
-109
182
980
2179
3017
2159
-1
-1034
-332
233
15
-88
13
-24
-32
41
39
30
74
100
112
142
167
189
225
263
295
333
374
408
448
505
559
602
656
714
739
744
736
651
463
251
69
-101
-251
-356
-414
-424
-404
-394
-406
-405
-377
-349
-342
-340
-346
-378
-406
-376
-318
-303
-317
-303
-294
-340
-384
-358
-335
-365
-358
-310
-316
-324
-263
-231
-273
-289
-256
-240
-250
-251
-233
-215
-221
-230
-215
-196
-175
-131
-121
-171
-198
-177
-173
-189
-195
-204
-224
-239
-226
-193
-162
-107
-76
-150
-176
-74
-77
-99
219
906
1971
2893
2187
63
-949
-233
264
-12
-133
-35
-41
-69
-73
11
163
120
-35
46
235
246
172
152
183
307
429
379
315
454
621
616
565
591
660
751
808
764
683
578
360
111
-22
-116
-266
-380
-407
-422
-431
-382
-327
-362
-425
-392
-326
-355
-400
-364
-334
-355
-345
-308
-309
-323
-340
-363
-332
-271
-281
-335
-350
-328
-271
-216
-255
-322
-278
-210
-254
-320
-276
-191
-194
-249
-236
-192
-204
-238
-248
-240
-202
-166
-195
-263
-302
-291
-264
-254
-214
-125
-81
-80
-69
-133
-169
168
945
1954
2608
1857
-72
-1083
-434
200
24
-97
58
48
-24
29
60
56
96
118
107
127
181
248
294
285
284
346
389
378
442
595
660
621
658
772
829
842
849
769
584
380
179
-33
-214
-320
-369
-388
-398
-437
-471
-425
-342
-316
-331
-348
-367
-367
-342
-327
-338
-358
-353
-322
-318
-350
-347
-311
-310
-331
-303
-274
-314
-336
-276
-250
-286
-279
-251
-266
-264
-215
-170
-187
-256
-267
-209
-220
-250
-172
-117
-172
-199
-208
-288
-328
-285
-263
-231
-165
-154
-164
-150
-153
-118
-76
-118
-39
407
1357
2689
3091
1430
-575
-699
114
166
-125
-112
-68
-60
-15
-55
-78
23
88
67
59
72
92
150
232
268
243
243
328
431
488
532
570
579
634
767
862
849
774
631
423
240
104
-92
-341
-462
-431
-433
-487
-465
-434
-476
-455
-372
-404
-481
-443
-369
-365
-404
-451
-445
-382
-357
-374
-375
-388
-393
-338
-320
-386
-411
-347
-289
-289
-319
-331
-311
-321
-374
-357
-254
-198
-194
-157
-148
-225
-264
-217
-183
-156
-130
-199
-238
-6
661
2005
3311
2696
312
-997
-366
147
-155
-223
-40
-134
-222
-99
-60
-111
-43
41
6
-8
70
140
185
210
189
218
341
425
450
515
591
629
681
777
854
841
757
662
497
222
-25
-176
-313
-421
-462
-511
-535
-454
-398
-455
-485
-429
-396
-421
-431
-410
-415
-445
-421
-344
-324
-379
-386
-320
-310
-366
-360
-305
-308
-326
-290
-256
-292
-353
-339
-261
-258
-309
-239
-100
-87
-179
-231
-207
-175
-204
-220
-146
-136
-202
-68
452
1622
3138
3160
941
-939
-641
130
1
-195
-77
-95
-148
-56
-7
-38
-29
5
24
73
150
181
178
198
226
257
333
410
433
449
510
593
658
703
753
789
761
665
511
305
108
-46
-196
-322
-351
-329
-358
-412
-409
-375
-368
-356
-322
-317
-358
-391
-364
-310
-298
-322
-340
-340
-318
-291
-312
-338
-299
-257
-265
-274
-278
-280
-264
-280
-298
-226
-171
-224
-248
-229
-270
-261
-152
-125
-201
-218
-191
-187
-162
-126
-137
-162
-164
-149
-117
-101
-137
-155
-119
-126
-189
-212
-196
-201
-180
-118
-102
-130
-121
-72
-15
-13
-79
-20
350
1195
2542
3219
1827
-325
-778
20
230
-55
-66
12
-32
-36
19
46
39
61
126
139
106
134
192
197
194
248
334
368
331
340
438
503
504
529
570
599
636
651
614
531
375
175
31
-60
-165
-258
-298
-305
-297
-315
-365
-362
-323
-341
-370
-350
-348
-357
-324
-323
-375
-370
-304
-274
-312
-356
-342
-308
-319
-320
-295
-320
-311
-216
-215
-321
-332
-267
-246
-228
-212
-239
-243
-211
-210
-232
-223
-177
-143
-170
-202
-180
-177
-209
-178
-107
-110
-164
-162
-106
-87
-136
-170
-154
-161
-194
-178
-158
-202
-221
-164
-111
-91
-80
-66
-30
-24
-63
57
546
1554
2767
2756
842
-889
-643
202
176
-62
3
14
-4
67
66
44
90
113
119
162
193
208
218
212
244
326
368
373
402
425
436
513
626
658
636
670
719
680
564
430
296
162
15
-141
-250
-311
-362
-381
-352
-327
-328
-336
-355
-376
-378
-377
-361
-305
-281
-344
-390
-368
-357
-344
-286
-280
-350
-344
-260
-256
-320
-319
-275
-271
-289
-278
-239
-203
-197
-233
-275
-256
-199
-180
-195
-205
-207
-195
-190
-195
-169
-140
-157
-181
-177
-167
-160
-157
-143
-112
-118
-163
-157
-115
-131
-186
-221
-242
-228
-175
-141
-127
-100
-96
-77
-13
-54
-140
46
588
1581
2818
2841
925
-784
-530
269
190
-103
-38
40
5
5
45
77
77
64
99
168
194
197
227
249
253
289
333
361
411
482
537
571
593
623
683
744
760
726
641
470
241
74
-13
-142
-291
-323
-317
-402
-456
-391
-350
-368
-354
-354
-401
-392
-347
-368
-387
-343
-338
-375
-350
-316
-347
-363
-318
-297
-325
-331
-294
-270
-283
-300
-308
-301
-255
-218
-238
-245
-222
-240
-259
-228
-198
-182
-175
-203
-211
-173
-163
-180
-165
-148
-152
-150
-144
-135
-120
-125
-148
-146
-116
-103
-125
-142
-135
-166
-235
-237
-160
-103
-101
-110
-119
-126
-67
2
-44
-33
293
1050
2283
3087
1976
-196
-855
-26
268
-76
-52
113
22
3
98
48
-12
101
207
174
137
187
247
257
248
257
278
334
444
494
428
426
566
656
640
648
678
665
613
518
398
263
59
-158
-237
-240
-310
-373
-352
-341
-365
-363
-345
-330
-321
-357
-385
-335
-322
-379
-363
-323
-353
-332
-270
-306
-349
-308
-297
-327
-310
-271
-269
-301
-312
-262
-229
-276
-285
-215
-201
-242
-240
-236
-243
-206
-190
-202
-157
-148
-217
-199
-132
-179
-210
-129
-111
-155
-124
-110
-170
-160
-85
-80
-124
-142
-145
-140
-149
-198
-234
-212
-180
-164
-126
-66
-58
-99
-64
-7
-86
-78
328
1165
2369
3048
1819
-362
-942
-55
277
-48
-87
50
72
91
97
49
-13
-29
83
226
234
197
234
269
275
313
354
356
363
421
502
541
546
604
701
707
638
648
699
618
410
202
35
-107
-220
-281
-321
-436
-548
-457
-277
-271
-358
-362
-344
-353
-352
-385
-437
-400
-320
-319
-358
-355
-339
-342
-344
-342
-338
-326
-316
-320
-319
-307
-296
-285
-278
-276
-262
-235
-234
-260
-268
-250
-236
-234
-230
-220
-209
-204
-200
-189
-173
-166
-159
-142
-132
-148
-163
-157
-159
-178
-197
-224
-246
-221
-177
-151
-116
-98
-105
-60
-37
-103
22
612
1656
2734
2616
760
-914
-697
151
169
-58
16
35
-20
31
67
61
94
124
133
158
189
210
237
270
304
340
379
423
468
510
554
609
663
712
755
788
803
776
676
505
303
104
-75
-213
-301
-352
-379
-388
-386
-381
-374
-365
-360
-360
-359
-360
-364
-363
-358
-358
-362
-361
-356
-350
-344
-340
-337
-330
-322
-316
-309
-302
-295
-289
-283
-278
-270
-259
-252
-249
-243
-233
-226
-221
-217
-213
-207
-201
-194
-185
-178
-178
-178
-173
-166
-158
-152
-148
-142
-139
-146
-153
-160
-181
-211
-229
-225
-199
-172
-148
-105
-82
-93
-52
-17
-85
-21
434
1365
2605
2976
1390
-613
-785
100
244
-43
-8
47
-18
15
63
56
79
112
120
140
168
190
217
251
281
313
348
385
426
469
514
559
607
656
700
734
753
747
683
540
349
161
-5
-147
-251
-313
-347
-363
-369
-370
-367
-360
-356
-357
-359
-358
-359
-361
-363
-361
-358
-355
-351
-347
-343
-337
-331
-326
-319
-312
-306
-299
-291
-284
-278
-272
-267
-261
-254
-248
-240
-232
-226
-223
-218
-211
-204
-196
-189
-186
-185
-182
-175
-170
-165
-160
-157
-155
-149
-140
-136
-135
-131
-132
-143
-153
-163
-185
-214
-226
-206
-175
-158
-128
-83
-84
-83
-22
-37
-96
112
716
1784
2936
2671
601
-908
-446
282
120
-72
38
26
-18
45
64
57
92
114
125
154
175
192
222
256
287
319
349
383
423
463
504
548
590
629
666
699
714
685
593
449
278
105
-52
-176
-262
-314
-344
-362
-366
-360
-353
-352
-353
-352
-347
-343
-343
-344
-339
-332
-332
-335
-333
-328
-322
-314
-309
-309
-303
-293
-291
-288
-275
-264
-255
-247
-248
-251
-239
-224
-224
-222
-207
-197
-200
-194
-178
-175
-180
-172
-159
-158
-158
-150
-141
-138
-138
-137
-131
-122
-120
-119
-111
-111
-118
-123
-134
-152
-170
-195
-209
-183
-147
-120
-82
-71
-75
-22
-21
-86
139
847
1825
2526
1970
137
-1058
-546
209
150
-15
75
76
39
96
120
112
142
166
174
195
221
244
269
294
324
354
385
426
468
498
534
587
634
674
721
753
746
709
619
452
248
63
-95
-228
-321
-373
-402
-420
-418
-391
-376
-387
-386
-363
-356
-369
-368
-355
-362
-370
-350
-331
-344
-357
-341
-321
-314
-310
-308
-306
-299
-287
-277
-272
-270
-261
-251
-248
-247
-240
-227
-223
-229
-224
-203
-196
-203
-192
-179
-192
-198
-176
-167
-177
-170
-150
-146
-149
-144
-142
-139
-133
-147
-166
-165
-176
-218
-251
-251
-227
-194
-171
-135
-90
-84
-71
-42
-90
-84
256
1140
2552
3354
2059
-203
-813
0
250
-63
-62
24
-42
-23
34
17
30
77
86
94
130
159
179
215
259
294
332
381
428
473
531
607
691
765
821
872
920
927
848
672
443
211
-6
-193
-326
-397
-433
-456
-466
-457
-436
-421
-415
-408
-397
-386
-380
-376
-374
-378
-384
-382
-376
-375
-375
-366
-355
-351
-348
-341
-330
-324
-323
-319
-307
-298
-295
-284
-271
-265
-252
-233
-235
-251
-246
-225
-217
-218
-204
-191
-191
-183
-171
-181
-192
-176
-159
-158
-154
-143
-141
-139
-131
-135
-150
-162
-177
-201
-223
-224
-199
-171
-160
-133
-97
-96
-76
-23
-59
-87
178
910
2220
3342
2585
281
-853
-170
317
30
-60
51
-17
-48
28
43
41
74
96
117
147
165
183
219
260
289
313
349
399
448
492
548
606
651
695
748
787
793
748
628
444
246
56
-110
-232
-322
-390
-416
-405
-396
-394
-384
-372
-365
-351
-342
-355
-365
-355
-350
-362
-364
-352
-344
-341
-335
-336
-343
-340
-323
-311
-309
-308
-296
-282
-279
-274
-259
-253
-260
-255
-240
-232
-227
-218
-215
-212
-202
-195
-190
-172
-161
-175
-190
-181
-163
-157
-154
-146
-140
-135
-131
-130
-127
-118
-114
-124
-148
-176
-197
-212
-221
-205
-171
-147
-112
-70
-79
-81
-18
-30
-80
144
790
1916
3020
2580
440
-943
-386
305
114
-65
37
19
-14
46
59
58
98
115
118
143
171
195
223
248
275
315
354
385
424
477
525
558
595
644
689
716
730
712
622
463
287
120
-47
-195
-284
-328
-353
-363
-362
-358
-346
-328
-326
-342
-354
-351
-347
-346
-340
-338
-344
-337
-325
-340
-355
-334
-312
-315
-315
-301
-296
-297
-287
-275
-275
-269
-251
-247
-259
-258
-243
-232
-225
-218
-213
-200
-182
-187
-202
-189
-168
-170
-173
-160
-149
-143
-137
-138
-135
-119
-111
-122
-134
-141
-152
-168
-186
-213
-227
-204
-170
-146
-113
-98
-102
-68
-65
-127
-6
515
1520
2727
2811
980
-863
-756
135
186
-74
-1
41
-28
1
37
31
67
105
106
121
155
173
192
229
260
283
321
365
397
438
493
534
563
609
665
699
703
687
629
496
309
131
-31
-186
-293
-335
-363
-397
-403
-390
-387
-384
-368
-356
-354
-349
-340
-342
-353
-358
-350
-339
-338
-337
-323
-312
-322
-338
-332
-314
-307
-302
-288
-282
-290
-278
-253
-254
-262
-250
-238
-229
-212
-210
-223
-218
-201
-197
-194
-180
-169
-173
-178
-178
-186
-196
-204
-229
-251
-225
-173
-132
-103
-101
-110
-68
-41
-86
47
666
1732
2642
2253
364
-1147
-846
54
184
3
52
80
45
88
122
121
143
164
177
211
240
253
273
310
350
383
412
451
499
545
594
650
696
726
761
806
823
782
681
517
303
87
-86
-215
-314
-370
-382
-378
-383
-389
-374
-351
-345
-344
-336
-334
-337
-331
-331
-346
-352
-334
-323
-336
-351
-340
-319
-319
-334
-334
-320
-305
-298
-305
-306
-283
-267
-282
-292
-277
-267
-268
-259
-250
-254
-254
-235
-223
-228
-229
-224
-225
-216
-198
-195
-198
-192
-199
-216
-216
-225
-263
-279
-263
-250
-237
-205
-164
-143
-156
-135
-72
-110
-167
78
740
1824
2822
2322
255
-1014
-433
235
55
-101
-1
-29
-65
0
20
17
52
75
91
128
152
157
181
224
261
291
327
373
423
464
511
579
638
663
695
751
774
739
666
537
339
130
-36
-162
-256
-310
-335
-342
-332
-322
-327
-330
-318
-303
-297
-298
-302
-301
-295
-285
-278
-278
-277
-266
-248
-232
-225
-227
-221
-197
-178
-178
-176
-159
-146
-139
-127
-108
-92
-88
-92
-85
-64
-52
-51
-40
-20
-18
-24
-12
5
10
23
45
47
36
38
53
58
58
65
76
74
59
44
31
5
-14
7
42
45
