# session 18
-69
-95
-30
-15
-207
-437
-473
-408
-401
-410
-394
-383
-370
-359
-354
-339
-320
-310
-298
-281
-272
-266
-256
-247
-235
-224
-222
-216
-199
-190
-194
-189
-185
-201
-201
-171
-148
-125
-78
-49
-82
-138
-142
-117
-140
-141
-78
-120
-170
127
758
1650
2495
2001
-15
-1245
-621
46
-143
-257
-112
-130
-146
-45
-4
9
75
130
168
229
295
357
431
505
578
662
741
793
829
855
848
788
676
521
352
201
70
-48
-143
-204
-230
-236
-233
-230
-228
-222
-219
-223
-231
-235
-238
-243
-248
-254
-263
-269
-270
-271
-274
-277
-272
-263
-260
-260
-258
-254
-249
-241
-233
-227
-222
-218
-215
-212
-207
-197
-189
-188
-188
-178
-165
-160
-162
-160
-154
-147
-135
-121
-118
-117
-104
-98
-105
-103
-92
-90
-92
-85
-77
-83
-92
-89
-78
-75
-77
-60
-24
4
13
-5
-53
-72
-51
-72
-82
-16
-52
-93
316
1068
1667
1793
941
-649
-1340
-622
8
-87
-158
-47
-53
-55
18
43
52
97
143
186
244
312
388
466
542
635
743
846
931
981
994
975
904
764
577
381
200
36
-109
-220
-283
-311
-325
-335
-334
-316
-292
-282
-283
-284
-279
-276
-286
-298
-291
-283
-300
-316
-311
-307
-305
-300
-315
-331
-323
-327
-330
-292
-265
-281
-277
-254
-259
-267
-255
-249
-248
-241
-238
-234
-226
-228
-236
-233
-215
-173
-117
-103
-151
-173
-136
-141
-154
-98
-133
-176
225
961
1441
1340
431
-906
-1346
-617
-45
-131
-188
-80
-77
-64
17
32
35
95
140
166
230
311
387
481
592
710
841
963
1063
1156
1213
1169
1010
783
536
310
110
-76
-232
-331
-369
-374
-373
-365
-349
-336
-325
-305
-299
-318
-314
-272
-257
-282
-290
-280
-290
-305
-305
-306
-309
-297
-290
-309
-335
-345
-348
-345
-307
-235
-189
-218
-277
-276
-235
-254
-264
-199
-239
-316
-40
611
1459
2176
1705
-99
-1235
-712
-93
-235
-350
-229
-231
-245
-169
-131
-108
-49
7
61
124
192
280
391
513
646
783
916
1042
1138
1170
1106
933
685
425
188
-24
-216
-358
-418
-436
-464
-484
-468
-442
-429
-433
-451
-447
-399
-361
-360
-361
-353
-361
-354
-310
-304
-373
-404
-343
-322
-371
-358
-304
-329
-387
-398
-396
-365
-253
-167
-219
-313
-302
-233
-244
-289
-235
-210
-323
-257
189
935
1979
2483
1202
-760
-1103
-271
-69
-321
-254
-159
-208
-160
-81
-60
-10
52
89
149
237
323
415
528
654
790
931
1059
1159
1219
1219
1138
969
729
454
211
54
-45
-148
-249
-300
-309
-323
-335
-304
-228
-160
-147
-179
-191
-182
-213
-238
-177
-122
-165
-205
-170
-151
-172
-163
-138
-135
-132
-137
-161
-169
-153
-142
-141
-141
-137
-125
-113
-106
-108
-118
-110
-78
-68
-91
-99
-81
-60
-42
-34
-43
-47
-33
-36
-65
-69
-32
-15
-32
-35
-24
-36
-44
-11
7
-19
-20
9
-18
-72
-52
-6
-18
-48
-45
-27
-19
-38
-69
-59
-36
-52
-58
-50
-90
-117
-64
-37
-83
-104
-94
-94
-81
-65
-84
-102
-95
-95
-104
-102
-99
-107
-115
-114
-110
-111
-118
-127
-127
-120
-120
-130
-128
-110
-109
-126
-125
-115
-122
-128
-116
-90
-47
-32
-86
-122
-95
-112
-139
-62
-67
-170
38
612
1390
2303
2332
686
-895
-718
-28
-130
-336
-213
-185
-227
-156
-101
-81
-31
16
59
123
183
236
301
374
441
503
582
674
742
783
832
873
857
784
674
532
383
251
126
1
-95
-147
-176
-196
-202
-200
-200
-196
-190
-191
-200
-211
-217
-221
-229
-242
-253
-263
-266
-266
-271
-278
-277
-270
-267
-271
-268
-247
-229
-233
-230
-208
-204
-213
-193
-161
-158
-165
-156
-151
-156
-148
-128
-119
-117
-107
-101
-100
-91
-78
-78
-86
-80
-68
-72
-74
-65
-61
-61
-53
-51
-58
-56
-50
-56
-61
-47
-34
-35
-36
-32
-31
-27
-23
-29
-32
-22
-15
-20
-21
-15
-14
-18
-21
-25
-31
-29
-20
-18
-25
-32
-32
-29
-28
-34
-43
-44
-39
-41
-49
-51
-48
-46
-44
-43
-46
-52
-58
-63
-70
-70
-59
-45
-25
14
38
-5
-64
-59
-58
-99
-61
-25
-122
-39
416
1048
1888
2355
1222
-671
-1065
-236
12
-247
-217
-138
-192
-153
-83
-76
-41
12
46
99
164
219
283
360
436
517
604
689
768
836
878
893
877
805
658
471
307
166
14
-137
-247
-303
-329
-348
-358
-351
-338
-336
-339
-338
-335
-329
-322
-325
-334
-338
-346
-358
-353
-334
-335
-356
-362
-341
-325
-328
-330
-323
-318
-312
-304
-302
-297
-282
-276
-277
-269
-254
-250
-250
-241
-227
-219
-220
-221
-214
-216
-228
-203
-128
-68
-70
-115
-149
-139
-133
-150
-110
-93
-157
60
759
1531
1849
1199
-358
-1400
-942
-124
-44
-178
-83
-44
-68
-6
41
40
78
135
177
224
286
363
453
550
662
793
929
1054
1160
1235
1255
1190
1020
778
525
287
61
-134
-270
-348
-382
-393
-404
-412
-403
-386
-372
-360
-347
-334
-322
-313
-305
-296
-293
-296
-295
-294
-303
-307
-295
-287
-294
-300
-294
-287
-287
-299
-317
-329
-331
-316
-276
-226
-197
-221
-266
-260
-239
-259
-235
-198
-276
-218
276
1076
1917
2107
835
-896
-1175
-381
-125
-340
-309
-221
-252
-213
-142
-129
-99
-38
13
64
126
196
281
385
507
643
788
938
1068
1159
1203
1164
996
734
463
213
-24
-223
-355
-432
-475
-487
-484
-482
-475
-460
-444
-429
-416
-406
-399
-389
-375
-368
-369
-370
-366
-363
-361
-360
-355
-345
-342
-356
-365
-361
-363
-349
-289
-221
-200
-229
-271
-273
-247
-255
-235
-170
-231
-287
45
821
1914
2680
1817
-288
-1229
-519
-35
-264
-310
-182
-206
-187
-100
-80
-49
22
67
115
188
254
327
438
569
700
835
979
1111
1206
1251
1226
1094
865
611
371
141
-59
-198
-285
-332
-347
-349
-351
-342
-321
-300
-285
-272
-256
-243
-236
-231
-223
-216
-211
-210
-211
-207
-198
-195
-196
-188
-176
-172
-172
-166
-163
-168
-166
-151
-145
-147
-138
-123
-117
-115
-106
-102
-105
-101
-91
-84
-78
-72
-72
-69
-57
-50
-52
-51
-43
-36
-32
-30
-32
-33
-28
-23
-27
-32
-32
-30
-28
-27
-25
-23
-24
-28
-25
-20
-23
-28
-27
-30
-34
-27
-20
-22
-25
-28
-34
-33
-28
-34
-40
-36
-36
-43
-46
-46
-47
-52
-61
-62
-52
-50
-59
-64
-64
-66
-65
-65
-70
-76
-79
-81
-80
-80
-87
-94
-101
-113
-119
-111
-95
-63
-15
-11
-72
-101
-67
-82
-110
-46
-64
-164
56
644
1415
2277
2249
601
-945
-753
-56
-134
-327
-223
-211
-240
-160
-124
-117
-53
-2
28
87
148
200
260
325
392
473
559
640
717
784
837
877
889
848
745
597
436
284
141
13
-92
-173
-226
-244
-247
-254
-257
-250
-244
-243
-242
-244
-257
-272
-273
-270
-280
-292
-297
-303
-306
-297
-296
-309
-314
-309
-301
-292
-286
-287
-283
-272
-260
-247
-238
-234
-228
-215
-202
-194
-190
-184
-178
-171
-159
-149
-150
-148
-135
-125
-127
-126
-117
-107
-103
-100
-96
-95
-98
-96
-86
-78
-82
-84
-74
-67
-64
-62
-66
-69
-60
-54
-59
-56
-49
-50
-48
-37
-38
-44
-28
-17
-33
-33
9
47
44
0
-47
-40
-29
-55
-17
3
-87
102
767
1412
1646
1211
-68
-1172
-931
-140
0
-155
-82
-26
-46
12
59
55
94
156
193
231
288
347
409
488
579
677
780
875
960
1041
1092
1087
1031
904
694
470
282
90
-103
-229
-289
-338
-365
-360
-355
-351
-328
-308
-310
-309
-292
-283
-295
-300
-285
-288
-313
-312
-285
-284
-299
-301
-315
-337
-331
-318
-334
-349
-330
-307
-303
-304
-298
-287
-274
-260
-263
-282
-293
-283
-272
-270
-267
-263
-256
-245
-243
-247
-233
-207
-195
-192
-187
-184
-189
-194
-180
-148
-120
-111
-127
-152
-145
-141
-164
-126
-95
-179
-76
448
1263
2248
2589
1213
-705
-987
-186
-39
-304
-241
-158
-207
-160
-89
-74
-25
39
75
125
197
269
344
426
516
621
735
849
957
1052
1112
1122
1073
945
739
506
294
105
-60
-188
-271
-316
-337
-346
-341
-327
-314
-299
-279
-266
-257
-243
-232
-233
-231
-228
-239
-244
-223
-207
-211
-209
-196
-193
-191
-183
-184
-190
-183
-166
-159
-160
-156
-153
-149
-145
-148
-149
-134
-125
-132
-125
-105
-98
-102
-104
-103
-98
-88
-81
-85
-91
-83
-69
-70
-72
-58
-52
-64
-67
-54
-49
-51
-49
-46
-50
-56
-51
-39
-38
-46
-44
-37
-42
-48
-41
-34
-36
-36
-28
-20
-27
-39
-37
-32
-41
-45
-34
-33
-48
-50
-39
-40
-48
-47
-47
-49
-49
-52
-53
-37
-26
-38
-36
2
39
23
-39
-70
-50
-64
-77
-20
-57
-115
247
968
1595
1843
1172
-356
-1164
-570
20
-109
-219
-115
-124
-138
-71
-51
-37
20
59
90
149
209
265
338
422
513
609
704
799
893
972
1024
1045
1012
901
722
522
333
154
-15
-160
-262
-316
-337
-341
-336
-328
-321
-308
-287
-276
-280
-277
-269
-272
-281
-283
-287
-299
-307
-309
-317
-322
-319
-317
-317
-312
-306
-307
-307
-301
-294
-290
-283
-273
-267
-264
-257
-248
-241
-236
-234
-231
-222
-210
-200
-193
-190
-185
-173
-160
-156
-154
-151
-148
-137
-122
-118
-121
-116
-109
-110
-110
-105
-99
-96
-98
-101
-96
-89
-91
-92
-84
-78
-78
-81
-90
-86
-64
-60
-68
-44
-8
-1
-25
-57
-58
-46
-70
-53
-6
-83
-66
394
1185
2085
2510
1442
-458
-1042
-280
59
-194
-203
-104
-157
-134
-46
-32
-10
55
104
148
205
261
326
410
503
602
709
825
946
1058
1146
1196
1188
1108
949
727
489
272
71
-105
-233
-315
-363
-380
-379
-379
-369
-342
-320
-315
-311
-302
-294
-290
-289
-290
-288
-286
-288
-292
-292
-293
-294
-289
-277
-272
-274
-273
-267
-260
-251
-247
-249
-244
-237
-235
-223
-203
-197
-202
-199
-188
-178
-168
-159
-150
-146
-145
-140
-130
-123
-118
-111
-104
-98
-94
-92
-87
-79
-75
-80
-83
-72
-61
-66
-72
-62
-60
-75
-76
-67
-71
-76
-72
-72
-78
-73
-64
-65
-71
-66
-59
-72
-82
-57
-40
-64
-72
-38
-34
-59
-34
24
35
-4
-50
-61
-48
-68
-62
3
-53
-67
424
1176
1585
1481
628
-722
-1210
-504
37
-73
-135
-44
-49
-35
26
38
54
101
133
162
209
269
337
409
484
576
677
777
888
1002
1087
1134
1151
1113
979
766
543
339
144
-35
-177
-276
-327
-340
-347
-356
-349
-334
-328
-325
-320
-317
-303
-285
-285
-296
-299
-299
-298
-295
-298
-306
-308
-311
-316
-317
-316
-317
-315
-309
-305
-305
-301
-291
-284
-277
-269
-267
-268
-262
-254
-250
-245
-237
-229
-223
-220
-219
-219
-232
-252
-258
-258
-252
-210
-140
-101
-118
-158
-168
-156
-177
-172
-103
-145
-229
52
748
1604
2194
1588
-172
-1183
-638
-57
-195
-285
-171
-193
-210
-131
-100
-82
-27
10
46
106
167
240
327
408
504
638
796
947
1071
1173
1267
1302
1202
983
724
463
204
-35
-224
-347
-419
-459
-475
-476
-474
-468
-457
-441
-426
-414
-404
-394
-384
-375
-367
-365
-364
-358
-354
-351
-345
-340
-337
-332
-330
-332
-326
-319
-330
-346
-353
-349
-310
-234
-179
-184
-222
-251
-236
-212
-227
-200
-149
-224
-232
179
1027
2154
2738
1541
-598
-1249
-416
-40
-295
-295
-184
-230
-198
-106
-89
-60
4
44
89
159
229
303
389
487
606
750
897
1032
1149
1239
1274
1215
1046
803
545
302
77
-115
-247
-317
-356
-377
-371
-356
-352
-342
-319
-305
-299
-283
-272
-278
-267
-239
-232
-243
-244
-236
-233
-231
-231
-232
-224
-214
-212
-213
-208
-207
-208
-198
-183
-178
-177
-169
-162
-161
-155
-146
-138
-133
-129
-123
-113
-105
-101
-95
-89
-86
-83
-77
-74
-72
-70
-67
-67
-66
-60
-57
-61
-64
-60
-53
-51
-53
-56
-55
-53
-56
-58
-51
-46
-53
-56
-51
-51
-60
-63
-56
-52
-60
-65
-58
-50
-49
-55
-59
-60
-64
-66
-56
-40
-19
15
38
4
-54
-58
-42
-75
-62
-2
-76
-97
306
1030
1872
2355
1428
-486
-1215
-446
23
-203
-255
-157
-201
-190
-111
-95
-73
-23
7
52
119
166
212
279
356
433
509
586
670
757
827
876
912
919
862
734
565
390
222
59
-89
-203
-272
-303
-315
-335
-352
-332
-297
-296
-310
-304
-299
-309
-317
-319
-324
-328
-334
-345
-353
-352
-354
-359
-358
-355
-357
-358
-356
-351
-338
-323
-319
-321
-317
-302
-284
-278
-280
-271
-253
-246
-245
-237
-229
-226
-217
-207
-205
-188
-139
-91
-76
-85
-113
-147
-141
-121
-136
-110
-68
-139
-58
531
1405
2017
1718
211
-1270
-1205
-285
-1
-170
-127
-57
-92
-52
10
19
51
111
157
203
259
322
396
477
567
676
802
929
1052
1158
1229
1252
1212
1074
843
589
358
137
-67
-217
-308
-362
-384
-385
-383
-371
-347
-330
-326
-318
-305
-300
-295
-289
-291
-295
-290
-285
-288
-290
-289
-293
-296
-294
-296
-303
-299
-292
-296
-300
-295
-290
-292
-293
-292
-291
-303
-327
-337
-332
-318
-272
-199
-161
-186
-238
-261
-239
-235
-255
-208
-189
-293
-202
365
1339
2385
2399
640
-1178
-1128
-254
-168
-394
-305
-257
-304
-237
-184
-187
-131
-64
-36
12
80
139
210
301
402
517
650
781
901
1012
1102
1141
1102
960
737
497
271
55
-139
-282
-372
-418
-434
-434
-425
-411
-402
-393
-375
-357
-349
-338
-322
-316
-318
-310
-295
-285
-281
-280
-272
-253
-239
-233
-215
-187
-169
-160
-151
-143
-134
-128
-131
-133
-110
-47
30
63
42
3
-17
6
27
22
69
108
31
100
612
1533
2581
2717
1077
-810
-922
-44
263
90
