# session 4
-49
-129
80
-10
-800
-1519
-1578
-1553
-1809
-2024
-2167
-2261
-2052
-1683
-1467
-1307
-1132
-1070
-1078
-1027
-913
-826
-838
-830
-573
114
1183
1754
757
-949
-1394
-693
-321
-337
-189
-103
-122
-34
-103
-297
-115
252
242
91
235
427
424
444
564
628
620
590
556
582
620
508
301
194
140
1
-171
-269
-245
-120
-74
-193
-283
-269
-290
-306
-253
-266
-347
-341
-282
-258
-227
-185
-157
-103
-79
-132
-156
-158
-308
-486
-332
40
130
79
606
1683
2224
1365
-264
-1066
-608
-25
24
-30
48
75
45
70
157
219
217
250
349
396
420
564
735
720
593
599
716
725
645
634
615
424
163
57
126
208
161
17
-68
-77
-118
-178
-212
-255
-270
-215
-194
-253
-323
-362
-359
-328
-293
-206
-78
-57
-161
-236
-265
-325
-335
-234
-202
-288
-150
417
951
629
-638
-1640
-1368
-550
-272
-345
-324
-299
-215
-54
-74
-119
48
80
-74
103
519
622
525
575
594
501
587
747
636
416
341
247
28
-152
-251
-365
-473
-481
-393
-327
-383
-503
-524
-418
-329
-309
-271
-226
-235
-239
-203
-156
-64
51
48
-40
-62
-84
-179
-159
-6
9
-36
207
790
1509
1710
639
-854
-1035
-197
125
-54
7
136
83
61
106
102
75
64
126
303
473
527
515
482
452
474
509
466
346
183
11
-128
-266
-443
-590
-658
-662
-574
-493
-575
-624
-422
-295
-486
-605
-443
-341
-417
-451
-410
-394
-404
-407
-402
-411
-447
-477
-471
-412
-339
-356
-372
-139
490
1583
2489
1826
-95
-975
-261
347
272
230
281
212
206
299
359
392
421
449
521
580
539
499
550
560
491
514
625
630
533
470
383
199
29
-81
-217
-327
-308
-264
-308
-348
-331
-365
-461
-522
-551
-580
-565
-533
-523
-485
-450
-503
-554
-564
-640
-683
-554
-424
-417
-475
-543
-416
-35
502
1551
2647
1946
-286
-1245
-472
-46
-322
-330
-199
-264
-252
-129
-82
-63
6
101
197
286
378
469
553
664
786
854
886
885
788
650
582
496
282
43
-88
-130
-128
-80
-14
-14
-117
-221
-247
-267
-291
-261
-283
-398
-401
-246
-130
-88
-55
-101
-225
-310
-366
-401
-328
-275
-354
-252
265
862
877
-133
-1496
-1761
-894
-307
-412
-488
-344
-252
-249
-258
-193
-26
165
341
395
259
251
558
751
626
577
686
662
560
531
435
235
72
-76
-242
-335
-352
-389
-454
-471
-409
-333
-327
-351
-334
-309
-315
-293
-222
-153
-110
-78
-35
45
113
92
27
-7
-25
11
89
34
-81
3
397
1378
2532
2076
-107
-1250
-392
275
-27
-100
109
34
-22
84
69
55
175
217
201
325
435
359
305
411
486
417
310
223
135
18
-202
-469
-547
-433
-411
-544
-618
-580
-513
-408
-298
-290
-334
-314
-306
-435
-587
-569
-416
-325
-363
-413
-396
-370
-378
-393
-401
-372
-310
-322
-358
-212
177
931
1852
1688
13
-1183
-633
175
163
89
264
272
203
276
380
440
479
498
526
599
694
722
679
702
804
810
667
528
534
623
591
399
213
82
-64
-189
-237
-275
-357
-402
-359
-348
-419
-417
-342
-396
-550
-610
-585
-555
-519
-524
-578
-597
-619
-680
-687
-653
-646
-633
-624
-535
-191
393
1162
1597
680
-1024
-1433
-479
23
-191
-230
-131
-158
-112
-13
-13
-12
73
173
244
316
413
507
564
613
663
663
609
555
531
513
456
332
171
54
26
46
49
43
87
153
154
113
86
35
-61
-149
-230
-293
-247
-136
-123
-184
-186
-170
-195
-198
-176
-168
-171
-216
-246
-21
659
1603
1875
635
-1102
-1477
-693
-279
-392
-372
-292
-349
-365
-318
-296
-205
-67
-66
-85
117
321
241
152
329
510
479
397
355
300
263
232
106
-91
-267
-390
-447
-468
-520
-545
-479
-440
-474
-443
-338
-296
-313
-296
-284
-324
-312
-186
-62
-6
47
99
93
50
33
77
119
95
86
149
543
1825
3199
2523
128
-1014
-331
119
-116
-125
11
5
68
113
17
39
214
309
328
367
379
354
356
410
530
657
648
472
263
115
-57
-318
-517
-539
-542
-617
-619
-552
-588
-723
-828
-834
-728
-588
-549
-632
-716
-691
-573
-490
-521
-565
-523
-479
-464
-383
-317
-384
-466
-480
-416
-116
574
1511
1869
762
-913
-1234
-352
118
-4
-2
88
85
166
302
324
314
409
558
644
671
721
797
864
944
994
911
773
750
810
793
629
382
193
102
22
-37
-31
-58
-136
-154
-142
-183
-223
-254
-334
-406
-412
-426
-452
-413
-370
-402
-440
-449
-485
-531
-548
-527
-499
-541
-556
-328
158
872
1442
901
-614
-1370
-830
-282
-267
-270
-181
-151
-122
-84
-80
-124
-167
-75
120
203
168
178
258
343
398
414
430
479
510
456
328
170
22
-74
-107
-97
-66
-48
-50
-34
-26
-58
-57
-7
16
18
9
-38
-54
-63
-204
-341
-248
-100
-137
-249
-261
-183
-129
-184
-253
-149
278
1219
2279
2063
286
-1002
-609
32
-112
-297
-150
-113
-198
-196
-223
-315
-299
-190
-140
-131
-52
114
288
348
292
277
312
266
204
206
149
54
28
-77
-272
-328
-309
-376
-379
-306
-364
-475
-455
-412
-459
-488
-435
-393
-413
-433
-406
-337
-253
-198
-180
-176
-174
-130
-49
-39
-41
120
548
1546
2810
2658
633
-887
-513
191
145
-25
-52
-84
-7
78
64
114
185
192
268
358
337
367
494
535
507
521
502
406
320
266
154
-5
-86
-126
-263
-411
-445
-486
-588
-612
-578
-588
-594
-583
-586
-562
-575
-665
-615
-418
-386
-479
-466
-521
-662
-530
-219
-153
-326
-488
-458
-70
757
1748
1943
691
-756
-817
-145
-10
-152
-95
-70
-93
-15
43
51
98
157
218
297
369
460
560
610
647
672
626
612
684
648
472
353
290
163
38
6
16
10
-8
-31
-64
-119
-174
-147
-53
-31
-127
-231
-272
-280
-276
-240
-191
-195
-263
-332
-356
-321
-304
-395
-354
171
933
1160
348
-1043
-1715
-1110
-302
-194
-315
-239
-215
-245
-160
-148
-264
-221
4
168
249
275
204
192
321
409
462
578
572
392
308
366
344
175
-5
-98
-155
-239
-283
-241
-216
-268
-304
-274
-259
-307
-348
-321
-275
-229
-138
-42
-28
-45
5
72
51
22
107
130
-26
-27
276
806
1800
2627
1756
-169
-797
-148
114
-26
52
62
-77
-57
35
59
96
121
95
90
98
90
166
350
470
445
386
330
197
8
-143
-248
-352
-451
-530
-591
-620
-624
-620
-576
-510
-525
-598
-615
-605
-596
-520
-448
-508
-601
-590
-506
-423
-408
-476
-515
-461
-395
-385
-391
-336
-123
510
1629
2216
1116
-642
-1022
-255
111
-2
36
136
164
240
302
315
367
446
519
595
646
664
679
692
707
722
717
707
715
719
671
556
433
346
239
83
-41
-94
-113
-132
-183
-238
-282
-401
-547
-518
-367
-327
-390
-424
-430
-453
-502
-553
-576
-602
-631
-606
-602
-551
-131
560
914
519
-512
-1433
-1403
-676
-187
-122
-145
-167
-136
-33
-35
-92
22
197
234
243
312
364
415
491
521
510
539
589
598
561
498
404
269
124
12
-52
-68
-53
-37
-19
0
-17
-47
-30
-16
-67
-123
-156
-203
-207
-98
18
-15
-168
-268
-212
-125
-176
-218
-36
361
1180
2273
2187
341
-1151
-801
-24
-38
-224
-170
-173
-256
-285
-274
-240
-204
-182
-140
-72
9
97
159
187
203
219
252
253
138
32
43
-64
-341
-425
-333
-391
-440
-295
-264
-423
-490
-447
-407
-356
-359
-443
-476
-461
-479
-453
-362
-348
-395
-384
-368
-357
-268
-242
-345
-252
225
1107
2209
2326
687
-877
-634
163
158
15
158
149
104
251
328
281
287
298
274
304
388
473
526
500
466
515
551
483
426
438
413
304
178
40
-144
-269
-243
-218
-315
-382
-357
-396
-486
-503
-525
-605
-611
-517
-448
-421
-385
-352
-333
-356
-466
-530
-435
-387
-430
-321
4
876
2388
2793
874
-1039
-857
-141
-328
-528
-295
-168
-181
-150
-122
-96
-69
-9
173
366
429
456
515
538
527
525
510
459
405
360
289
172
39
-62
-103
-97
-85
-82
-78
-102
-165
-214
-226
-247
-296
-332
-335
-342
-369
-361
-294
-267
-353
-469
-507
-464
-398
-354
-248
28
570
1499
2125
1116
-912
-1577
-686
-158
-359
-385
-259
-265
-209
-109
-105
-61
66
130
138
196
279
310
299
283
271
265
259
227
175
141
125
63
-64
-158
-164
-169
-212
-225
-208
-199
-178
-165
-195
-200
-144
-108
-106
-80
-38
-9
3
-29
-83
-111
-142
-164
-153
-212
-239
60
636
1173
1232
302
-1040
-1280
-420
102
-12
-41
83
90
61
93
133
152
168
204
263
335
411
470
509
552
590
603
608
615
605
569
487
356
226
126
35
-42
-85
-121
-180
-246
-295
-330
-363
-392
-406
-414
-428
-425
-382
-346
-361
-396
-427
-426
-362
-353
-444
-334
154
792
1157
647
-646
-1340
-780
-149
-174
-262
-183
-192
-177
-58
-6
-5
49
109
161
231
278
311
383
410
343
336
438
457
365
338
353
242
82
53
86
44
-7
6
13
1
5
-41
-143
-180
-149
-154
-212
-266
-255
-165
-113
-196
-334
-393
-329
-254
-327
-361
42
785
1248
838
-418
-1463
-1268
-441
-152
-284
-259
-181
-190
-155
-102
-82
-36
28
73
135
227
310
369
414
452
472
469
469
475
437
354
281
200
72
-28
-49
-68
-127
-174
-196
-222
-243
-267
-330
-407
-403
-328
-293
-300
-268
-247
-298
-334
-304
-237
-155
-143
-190
-139
105
892
2276
2715
1105
-606
-523
136
59
-122
-13
-1
-52
-1
32
25
64
141
204
244
300
363
385
366
327
284
275
260
161
59
57
57
-35
-127
-150
-162
-207
-267
-317
-346
-376
-432
-495
-533
-537
-498
-432
-401
-421
-444
-451
-453
-457
-502
-546
-484
-416
-430
-276
207
899
1469
1118
-306
-1246
-759
-96
-137
-227
-97
-93
-128
-52
14
61
138
184
199
236
296
365
427
465
484
480
448
425
427
396
312
241
189
96
19
43
69
9
-28
4
0
-57
-94
-105
-119
-143
-163
-137
-78
-78
-138
-183
-184
-133
-111
-220
-266
1
563
1307
1567
505
-932
-987
-179
-36
-310
-276
-212
-288
-256
-156
-118
-84
-34
5
69
166
218
224
273
337
300
217
198
187
128
83
43
-49
-140
-182
-223
-282
-317
-316
-308
-316
-349
-393
-415
-421
-439
-460
-439
-359
-269
-221
-217
-258
-300
-262
-217
-263
-255
-13
740
2096
2764
1411
-453
-624
106
145
-96
-7
57
5
32
61
53
93
168
233
273
281
299
341
355
336
335
349
353
352
327
261
201
161
82
-30
-105
-168
-259
-307
-313
-379
-458
-461
-455
-486
-473
-425
-398
-364
-341
-386
-415
-419
-520
-594
-491
-412
-370
-82
486
1173
1456
604
-719
-957
-328
-125
-291
-238
-146
-168
-132
-64
-46
-25
13
51
96
136
183
260
328
343
335
345
357
349
333
295
201
97
28
-37
-94
-107
-116
-152
-176
-175
-161
-138
-123
-117
-119
-152
-167
-100
-24
-8
-27
-78
-112
-70
-74
-145
-59
336
1164
2053
1732
69
-951
-464
78
-13
-69
-34
-148
-136
19
5
-95
-48
49
73
107
166
175
165
183
207
230
232
187
104
-3
-112
-179
-244
-345
-398
-382
-376
-360
-318
-340
-395
-380
-350
-367
-371
-362
-384
-368
-292
-258
-282
-293
-279
-237
-188
-223
-286
-147
379
1294
1882
1055
-579
-1083
-381
7
-127
-91
30
21
67
162
179
196
287
377
418
436
453
485
556
606
570
532
559
558
498
474
464
359
190
70
7
-50
-122
-205
-255
-285
-368
-438
-380
-343
-437
-430
-251
-180
-290
-364
-358
-398
-440
-383
-365
-412
-161
484
986
753
-273
-1275
-1239
-466
-91
-195
-186
-111
-168
-176
-102
-70
-24
67
112
143
197
217
235
297
336
326
316
310
305
312
297
236
158
74
-12
-80
-130
-178
-204
-206
-233
-277
-268
-233
-237
-258
-253
-226
-174
-97
-34
-39
-106
-107
-7
-9
-103
11
454
1308
2258
2015
325
-810
-405
76
-95
-165
-19
-27
-73
-45
-24
-8
-7
-17
34
109
160
220
259
257
273
285
230
170
150
105
2
-110
-183
-235
-309
-368
-363
-349
-365
-392
-465
-535
-471
-366
-395
-471
-458
-398
-359
-363
-411
-448
-414
-342
-358
-458
-425
-121
617
1750
2092
682
-885
-801
-76
-68
-246
-142
-129
-193
-133
-77
-56
24
110
144
179
268
373
426
437
457
480
474
447
418
416
427
370
226
110
93
102
66
11
-29
-76
-135
-171
-181
-191
-214
-250
-270
-232
-186
-199
-233
-274
-345
-355
-279
-263
-237
115
842
1404
953
-471
-1401
-950
-177
-68
-183
-124
-135
-203
-107
37
50
20
59
118
155
198
240
290
372
412
339
270
314
375
361
317
258
142
1
-86
-119
-154
-199
-220
-211
-204
-218
-248
-288
-314
-313
-304
-277
-207
-141
-143
-187
-202
-166
-128
-170
-233
-145
339
1483
2612
2102
154
-838
-261
162
-58
-95
9
-66
-70
32
35
20
71
111
145
203
235
244
269
307
331
309
234
178
191
218
185
72
-77
-196
-271
-339
-416
-484
-525
-556
-597
-629
-640
-651
-642
-593
-565
-578
-568
-561
-639
-746
-729
-580
-493
-518
-461
-286
203
1438
2435
1400
-697
-1244
-475
-227
-435
-384
-314
-340
-256
-153
-114
-62
-6
37
102
172
231
285
322
356
394
390
348
353
409
433
398
331
242
166
146
161
166
157
122
64
46
98
120
68
48
92
118
150
238
267
197
188
271
309
327
375
349
421
1014
1983
2466
1729
-53
