# session 13
5
-4
7
28
30
17
15
29
49
74
108
172
260
321
364
451
549
586
598
648
715
750
713
590
459
385
314
213
158
154
119
53
13
24
80
97
7
-73
-45
-21
-58
-89
-153
-235
-212
-202
-301
-230
168
717
1097
705
-454
-1113
-667
-148
-153
-213
-180
-209
-216
-209
-215
-105
37
51
58
125
113
88
201
328
346
358
382
334
242
126
-14
-65
-49
-167
-342
-348
-292
-344
-403
-408
-410
-389
-384
-445
-459
-387
-344
-376
-449
-470
-399
-406
-527
-472
35
1151
2251
1824
-29
-1033
-497
-22
-152
-194
-125
-114
-11
76
61
129
272
358
407
429
426
468
540
571
582
572
497
408
370
320
203
86
33
-6
-106
-232
-280
-259
-273
-301
-267
-246
-279
-249
-208
-306
-369
-262
-222
-276
-228
-235
-343
-80
659
1136
537
-919
-1801
-1272
-372
-171
-291
-256
-239
-274
-227
-151
-103
-66
-17
70
150
162
135
127
188
313
380
359
369
387
281
123
58
13
-106
-217
-251
-265
-302
-311
-263
-211
-182
-159
-156
-178
-173
-127
-99
-116
-114
-63
-22
6
1
95
1051
2882
3402
1416
-554
-484
112
-63
-250
-135
-144
-215
-182
-127
-83
-65
-49
19
83
120
185
249
266
285
335
360
335
330
329
176
-44
-65
-12
-167
-378
-440
-470
-521
-535
-559
-572
-485
-377
-357
-395
-434
-451
-463
-501
-523
-515
-507
-467
-365
135
1450
2461
1404
-680
-1249
-527
-242
-390
-334
-245
-241
-198
-166
-153
-103
-33
62
170
233
286
382
450
440
431
467
490
469
423
354
277
215
165
118
78
31
-18
-33
-33
-70
-122
-144
-161
-196
-208
-203
-216
-248
-280
-278
-269
-331
-328
-52
460
1069
1268
384
-874
-1020
-356
-143
-295
-300
-286
-242
-95
-47
-55
33
97
99
153
233
274
302
325
333
355
392
389
314
222
158
82
-32
-144
-197
-181
-186
-281
-367
-368
-370
-408
-436
-470
-492
-444
-385
-371
-382
-412
-383
-290
-322
-443
-356
172
1282
2265
1616
-253
-994
-313
41
-172
-151
-54
-102
-41
75
120
207
288
298
362
463
494
506
532
527
528
557
559
529
455
322
223
201
134
-1
-77
-90
-125
-153
-140
-151
-209
-272
-310
-294
-240
-212
-204
-207
-284
-359
-305
-255
-299
-129
480
1118
916
-391
-1575
-1398
-553
-292
-446
-432
-358
-347
-297
-241
-213
-146
-59
-9
35
120
195
200
188
233
308
369
410
426
392
297
159
37
-57
-161
-257
-302
-319
-329
-319
-303
-298
-281
-251
-231
-219
-201
-171
-147
-153
-148
-105
-99
-120
-10
447
1400
2219
1641
10
-714
-209
101
-71
-93
-48
-125
-125
-43
-13
-13
13
65
114
163
252
340
374
410
459
482
513
527
442
315
216
112
21
-28
-79
-122
-139
-185
-260
-326
-382
-393
-351
-327
-325
-301
-292
-326
-369
-368
-334
-377
-447
-315
44
666
1426
1302
-100
-1142
-828
-362
-440
-449
-328
-374
-398
-310
-261
-226
-153
-97
-52
28
144
260
357
445
517
556
593
605
504
322
198
154
96
8
-45
-50
-48
-65
-90
-87
-63
-91
-171
-186
-126
-87
-60
-41
-108
-176
-134
-147
-293
-319
16
871
1821
1535
-131
-1160
-670
-157
-302
-331
-196
-257
-263
-154
-177
-170
9
121
111
144
213
255
290
312
334
383
391
311
207
131
51
-55
-145
-185
-232
-316
-343
-304
-323
-410
-450
-445
-459
-472
-445
-392
-355
-366
-411
-414
-355
-344
-411
-419
-227
473
1717
2199
826
-828
-861
-144
-60
-209
-136
-135
-190
-137
-83
-27
107
229
283
324
378
442
507
549
589
658
710
692
620
515
382
254
163
109
55
-27
-113
-141
-118
-122
-178
-234
-274
-302
-273
-204
-190
-226
-273
-334
-317
-234
-290
-384
-81
738
1495
1167
-344
-1422
-995
-217
-156
-290
-206
-169
-169
-91
-63
-91
-68
1
75
135
175
203
211
228
308
390
394
357
316
239
123
11
-74
-151
-237
-316
-370
-408
-420
-413
-430
-436
-359
-256
-214
-202
-184
-174
-179
-214
-259
-266
-259
-268
-200
234
1226
1935
1094
-565
-1006
-276
82
-66
-41
66
49
54
99
108
115
153
219
277
281
272
311
367
401
423
443
462
461
397
295
200
75
-58
-92
-73
-132
-231
-270
-275
-294
-311
-307
-293
-274
-253
-245
-243
-240
-280
-325
-264
-193
-255
-258
63
766
1488
1256
-146
-1162
-818
-252
-291
-387
-332
-392
-427
-328
-262
-218
-110
-15
20
73
166
238
281
320
331
316
327
358
345
295
265
239
141
-23
-143
-179
-205
-244
-257
-257
-278
-301
-290
-257
-221
-194
-186
-190
-204
-239
-244
-202
-229
-264
-55
457
1073
1240
370
-840
-966
-248
17
-173
-165
-66
-82
-62
15
57
90
148
225
297
344
396
475
551
600
640
686
724
717
638
518
404
304
213
126
39
-40
-92
-126
-173
-217
-221
-218
-240
-228
-155
-104
-109
-143
-210
-248
-205
-225
-322
-229
124
616
983
564
-592
-1135
-620
-195
-277
-279
-188
-238
-260
-206
-201
-203
-166
-108
-16
88
163
213
235
271
368
439
398
328
284
183
42
-34
-76
-161
-238
-255
-278
-342
-386
-376
-346
-334
-350
-375
-364
-309
-268
-279
-327
-350
-296
-257
-326
-305
-15
494
1134
1349
466
-699
-774
-201
-87
-228
-178
-145
-181
-144
-109
-100
-45
16
51
101
164
224
291
361
416
452
474
475
432
340
231
141
69
6
-42
-72
-100
-124
-135
-162
-212
-227
-198
-203
-233
-202
-130
-93
-112
-162
-172
-126
-135
-212
-230
39
974
2138
1950
277
-751
-339
44
-137
-170
-51
-79
-78
-3
9
10
59
104
142
194
252
306
351
387
419
441
448
448
422
357
272
182
89
4
-69
-139
-198
-223
-227
-248
-295
-331
-342
-354
-348
-308
-288
-305
-329
-374
-381
-309
-337
-443
-236
330
803
682
-192
-1060
-945
-296
-139
-287
-207
-117
-168
-150
-83
-77
-26
120
241
282
314
383
444
449
436
453
457
411
365
313
186
38
-26
-47
-113
-193
-240
-268
-294
-325
-363
-359
-304
-279
-286
-239
-189
-227
-297
-329
-307
-241
-262
-375
-250
216
637
543
-249
-1132
-1110
-386
-46
-184
-211
-136
-147
-131
-64
-14
56
147
216
280
356
420
465
492
499
494
481
465
448
415
347
244
134
43
-23
-69
-97
-108
-115
-123
-128
-138
-160
-178
-169
-133
-91
-69
-95
-152
-168
-123
-106
-146
-172
-21
688
1797
1876
302
-1040
-745
-68
-102
-250
-171
-170
-215
-182
-143
-111
-74
-24
65
164
251
362
481
578
675
762
809
817
770
632
438
255
94
-50
-163
-241
-288
-300
-290
-285
-287
-285
-278
-273
-255
-213
-177
-193
-235
-267
-309
-320
-279
-299
-309
-47
429
742
477
-449
-1235
-1018
-322
-125
-275
-275
-210
-191
-142
-111
-110
-27
104
162
177
247
362
466
547
633
729
777
719
590
422
204
-4
-121
-186
-264
-337
-387
-421
-432
-426
-429
-434
-435
-449
-462
-427
-360
-321
-324
-353
-388
-370
-334
-387
-446
-294
204
917
1081
115
-945
-833
-194
-97
-250
-200
-140
-136
-86
-47
-29
24
95
169
240
284
330
397
445
475
504
502
482
482
449
329
187
102
55
-7
-77
-114
-116
-115
-122
-137
-152
-161
-190
-215
-165
-65
-21
-48
-92
-113
-102
-92
-96
-120
-21
796
2286
2646
889
-824
-679
-9
-79
-234
-125
-128
-163
-85
-51
-42
40
114
152
222
312
383
459
552
625
664
688
669
559
377
195
41
-102
-228
-315
-370
-412
-447
-464
-458
-447
-450
-459
-466
-455
-413
-381
-392
-407
-433
-464
-409
-352
-432
-389
-1
441
560
89
-821
-1234
-727
-215
-242
-302
-207
-199
-221
-179
-146
-114
-51
5
62
139
216
289
361
421
464
494
496
446
340
200
62
-49
-129
-185
-217
-231
-237
-240
-238
-237
-228
-215
-237
-286
-265
-169
-129
-156
-158
-159
-195
-199
-188
-213
-190
177
1234
2296
1759
-80
-910
-311
54
-146
-146
-31
-61
-54
-14
-23
14
89
130
172
243
317
375
420
470
521
559
594
600
518
376
250
148
45
-49
-109
-130
-133
-143
-166
-192
-212
-226
-239
-242
-211
-166
-138
-137
-174
-207
-161
-129
-202
-215
8
598
1481
1668
421
-874
-749
-124
-134
-292
-209
-201
-244
-180
-131
-125
-79
-15
48
120
181
230
291
366
438
483
483
420
281
107
-46
-178
-277
-302
-305
-361
-443
-472
-454
-457
-495
-506
-488
-503
-519
-467
-406
-401
-421
-438
-418
-359
-383
-456
-337
94
819
1347
767
-536
-932
-330
-62
-248
-229
-129
-165
-143
-64
-40
0
73
124
172
233
285
331
379
419
444
456
443
398
322
226
124
34
-44
-110
-157
-182
-196
-201
-198
-209
-227
-227
-236
-265
-243
-149
-82
-92
-129
-137
-122
-139
-180
-229
-185
558
2137
2784
1209
-600
-606
26
-44
-204
-81
-76
-125
-60
-24
-9
73
153
203
270
349
429
516
592
636
651
647
612
523
385
240
116
7
-85
-149
-195
-233
-258
-276
-301
-327
-344
-370
-412
-416
-346
-267
-245
-271
-318
-350
-324
-306
-378
-448
-222
586
1486
1167
-396
-1295
-767
-206
-294
-362
-264
-277
-285
-215
-181
-154
-88
-32
19
86
149
208
282
342
360
363
373
354
279
162
26
-101
-185
-237
-296
-353
-368
-354
-352
-372
-392
-401
-404
-406
-389
-334
-266
-235
-240
-269
-312
-302
-240
-257
-299
-108
430
1094
1173
143
-1012
-940
-192
5
-148
-95
-27
-53
-5
67
101
156
230
294
366
439
515
607
689
744
787
815
803
733
593
413
251
121
16
-50
-85
-119
-142
-147
-161
-183
-188
-182
-192
-213
-208
-162
-117
-96
-92
-126
-154
-107
-95
-182
-147
216
891
1415
915
-428
-1018
-419
53
-66
-115
-33
-68
-62
10
13
44
145
197
209
264
344
431
531
611
655
682
673
574
382
184
57
-31
-137
-243
-312
-351
-390
-431
-458
-464
-476
-505
-538
-576
-595
-526
-413
-383
-423
-450
-481
-488
-432
-440
-504
-347
125
691
849
100
-954
-1062
-418
-167
-311
-278
-182
-197
-176
-114
-69
-1
75
125
185
252
287
314
368
434
482
511
523
495
414
295
173
67
-30
-110
-152
-172
-203
-221
-204
-204
-244
-269
-267
-275
-270
-211
-142
-113
-111
-135
-174
-152
-108
-144
-164
3
547
1498
1914
828
-592
-657
-30
19
-156
-71
-21
-55
-11
21
22
69
123
167
237
312
376
452
535
609
673
704
671
575
433
272
125
11
-71
-135
-187
-225
-249
-265
-270
-272
-283
-293
-296
-313
-329
-296
-235
-209
-230
-277
-298
-250
-232
-324
-375
-148
598
1629
1703
278
-954
-706
-143
-246
-379
-232
-187
-224
-179
-129
-91
-26
30
87
168
239
294
352
402
429
436
409
327
203
74
-45
-149
-225
-269
-302
-338
-355
-348
-349
-354
-343
-337
-351
-366
-372
-364
-320
-254
-216
-226
-250
-238
-196
-201
-239
-207
89
943
1897
1550
-124
-1093
-587
-71
-194
-256
-145
-160
-171
-96
-52
-16
46
95
144
220
287
334
387
448
490
503
504
488
429
312
165
37
-56
-141
-225
-289
-328
-353
-349
-299
-263
-299
-370
-421
-428
-349
-223
-200
-288
-341
-349
-349
-292
-257
-336
-329
71
941
1695
1221
-305
-1069
-516
-39
-176
-239
-137
-162
-171
-53
45
70
79
118
206
317
413
501
602
702
777
828
838
770
623
439
248
73
-52
-124
-179
-229
-248
-246
-253
-267
-274
-279
-284
-286
-269
-235
-232
-256
-236
-218
-286
-317
-222
-184
-286
-299
132
1128
1838
1079
-479
-976
-413
-111
-194
-154
-100
-142
-113
-35
-16
-28
3
83
155
218
312
374
378
441
540
518
424
373
288
127
0
-63
-117
-164
-200
-242
-275
-276
-239
-195
-200
-258
-295
-275
-245
-228
-201
-188
-215
-248
-248
-222
-239
-326
-355
-225
176
1062
1840
1186
-521
-1212
-573
-142
-280
-314
-253
-288
-261
-178
-139
-114
-80
3
129
206
272
393
433
356
383
517
509
390
377
354
125
-110
-112
-61
-162
-281
-298
-316
-356
-335
-316
-375
-391
-292
-233
-288
-277
-158
-142
-276
-371
-342
-285
-312
-384
-296
162
986
1516
765
-747
-1195
-444
-22
-201
-207
-73
-100
-114
-34
20
54
91
119
210
409
558
524
457
538
665
669
576
468
346
198
55
-48
-112
-152
-166
-162
-174
-217
-259
-278
-290
-293
-287
-332
-384
-314
-186
-160
-188
-197
-217
-168
-59
-116
-273
-87
701
1635
1538
86
-1117
-880
-201
-71
-144
-144
-171
-137
-64
-42
26
131
166
196
276
312
285
293
357
407
422
415
365
263
172
122
43
-50
-41
-27
-171
-318
-289
-201
-163
-157
-205
-272
-271
-234
-205
-141
-64
-43
-90
-165
-164
-97
-120
-155
82
709
1546
1743
511
-1010
-1060
-230
-4
-165
-138
-130
-112
15
1
-47
107
200
135
273
601
690
518
463
595
651
591
571
528
344
138
39
4
-17
-69
-194
-289
-251
-211
-292
-383
-406
-442
-486
-457
-407
-397
-353
-274
-285
-347
-313
-297
-417
-460
-166
662
1757
1810
281
-1014
-794
-270
-326
-354
-227
-279
-316
-188
-82
-77
-85
-1
121
121
97
219
290
128
7
126
226
113
-48
-132
-192
-223
-209
-265
-419
-480
-378
-305
-336
-380
-437
-495
-470
-408
-412
-445
-416
-332
-331
-449
-447
-297
-336
-499
-381
33
675
1285
899
-477
-1141
-564
-104
-214
-219
-83
-69
-51
11
49
143
263
301
356
511
637
698
797
884
877
884
925
828
606
433
308
169
95
121
148
100
3
-33
74
225
268
227
199
