# session 29
24
1
51
101
-36
-286
-338
-240
-268
-271
134
1018
2028
2160
676
-1107
-1234
-253
98
-130
-136
-53
-97
-92
-39
-26
-10
10
18
44
84
106
117
140
173
205
238
273
302
323
348
378
404
427
449
468
479
479
459
397
287
150
17
-97
-182
-237
-273
-298
-309
-308
-303
-300
-296
-284
-273
-273
-286
-286
-267
-265
-288
-296
-281
-275
-280
-279
-275
-268
-262
-265
-263
-255
-258
-263
-251
-238
-239
-237
-225
-216
-214
-210
-199
-192
-191
-188
-182
-179
-171
-160
-164
-179
-180
-178
-190
-199
-212
-227
-202
-159
-149
-126
-86
-97
-90
-35
-65
-50
353
1243
2314
2548
1070
-806
-990
-30
271
18
24
94
36
55
101
88
109
148
145
153
188
215
235
259
281
303
331
366
406
437
452
479
526
566
592
616
632
623
578
476
321
158
17
-111
-219
-282
-316
-345
-362
-355
-347
-349
-344
-333
-331
-337
-341
-341
-343
-346
-348
-347
-343
-332
-328
-338
-343
-331
-320
-319
-320
-322
-321
-313
-304
-301
-301
-310
-328
-332
-309
-262
-196
-154
-169
-210
-244
-257
-238
-225
-231
-200
-196
-261
-145
389
1363
2384
2234
415
-1160
-865
22
68
-154
-96
-74
-118
-73
-46
-49
-8
28
43
79
120
141
175
227
260
275
307
361
412
457
507
555
596
640
685
714
720
690
591
425
234
48
-113
-234
-313
-360
-378
-375
-367
-367
-370
-359
-337
-332
-342
-342
-338
-336
-328
-323
-331
-342
-340
-332
-327
-325
-318
-304
-297
-303
-309
-310
-309
-302
-285
-250
-190
-143
-153
-199
-223
-215
-198
-199
-211
-182
-158
-210
-169
186
1030
2320
2877
1416
-683
-1000
-93
144
-130
-111
-48
-120
-108
-62
-59
-27
17
36
62
98
125
154
185
211
240
281
324
366
410
455
494
538
593
638
666
687
667
570
420
252
69
-100
-217
-288
-331
-355
-364
-363
-355
-349
-345
-332
-315
-317
-338
-347
-334
-322
-319
-318
-313
-310
-312
-305
-287
-282
-304
-317
-300
-285
-285
-273
-254
-260
-279
-274
-252
-243
-241
-231
-225
-225
-220
-222
-233
-231
-211
-181
-125
-68
-66
-104
-132
-145
-132
-114
-131
-113
-60
-117
-148
151
891
2070
2857
1828
-288
-976
-147
237
-45
-83
-4
-80
-77
-12
-16
-1
45
56
74
117
144
168
206
239
268
307
346
378
413
455
496
529
564
609
651
676
678
642
547
406
254
104
-38
-145
-209
-251
-285
-304
-309
-307
-302
-299
-301
-301
-300
-307
-319
-322
-318
-313
-312
-310
-307
-303
-303
-305
-304
-298
-285
-276
-275
-267
-255
-252
-247
-235
-222
-213
-211
-209
-199
-192
-197
-193
-178
-176
-178
-171
-164
-159
-152
-145
-144
-142
-132
-123
-122
-127
-129
-128
-121
-107
-107
-124
-134
-137
-159
-192
-207
-196
-165
-131
-110
-80
-53
-68
-52
3
-47
-59
271
958
1926
2580
1716
-177
-856
-83
325
51
-14
78
26
21
78
78
89
117
115
125
163
193
219
241
251
272
313
350
373
395
431
475
512
543
579
615
637
646
636
577
455
304
160
22
-106
-201
-263
-307
-330
-335
-334
-330
-325
-328
-336
-338
-339
-340
-337
-331
-330
-332
-332
-329
-327
-328
-326
-320
-314
-310
-306
-300
-292
-282
-276
-272
-265
-256
-251
-246
-233
-223
-224
-224
-220
-216
-207
-195
-191
-188
-179
-181
-182
-159
-146
-172
-193
-178
-151
-143
-153
-152
-122
-111
-145
-161
-125
-103
-132
-185
-220
-213
-189
-179
-158
-119
-97
-74
-55
-78
-60
-4
-61
-66
274
982
2045
2768
1820
-137
-744
34
324
6
-12
90
14
13
83
71
61
97
118
134
165
194
214
242
281
315
336
354
373
406
466
531
576
618
660
688
703
716
714
642
474
282
127
-27
-182
-273
-306
-342
-385
-394
-365
-341
-349
-357
-339
-323
-327
-325
-316
-327
-351
-347
-314
-290
-282
-280
-293
-307
-292
-266
-266
-290
-303
-271
-216
-192
-189
-192
-231
-265
-235
-213
-225
-201
-175
-183
-159
-156
-223
-216
-139
-152
-184
-132
-117
-141
-95
-63
-101
-95
-85
-159
-185
-100
-54
-79
-85
-73
-75
-91
-125
-143
-116
-100
-120
-127
-125
-147
-163
-154
-155
-147
-115
-93
-65
-32
-44
-42
-21
-60
11
434
1244
2205
2334
879
-719
-673
169
296
49
58
86
40
67
91
77
105
155
156
126
141
206
240
237
264
301
309
331
372
385
410
469
505
518
566
614
601
545
511
508
459
312
113
-57
-152
-212
-297
-358
-342
-309
-301
-296
-289
-278
-281
-326
-325
-240
-223
-305
-337
-312
-305
-297
-288
-281
-242
-232
-303
-343
-287
-239
-261
-284
-258
-228
-227
-226
-207
-205
-227
-231
-196
-161
-176
-204
-182
-146
-147
-158
-159
-158
-136
-113
-134
-157
-138
-120
-113
-91
-90
-124
-130
-108
-108
-106
-92
-113
-129
-87
-66
-99
-102
-86
-115
-142
-153
-197
-211
-146
-112
-130
-91
-32
-37
-29
-14
-90
-47
369
1106
2023
2421
1286
-531
-923
-58
303
52
6
93
89
89
60
26
82
139
139
162
211
227
211
203
236
296
332
347
381
428
455
469
513
583
633
658
688
724
725
632
453
295
169
-19
-204
-274
-309
-372
-385
-374
-396
-386
-341
-331
-336
-331
-344
-354
-337
-324
-314
-300
-324
-361
-343
-303
-301
-315
-316
-323
-318
-289
-280
-297
-278
-239
-253
-271
-230
-207
-245
-258
-236
-227
-208
-180
-192
-210
-194
-188
-184
-145
-144
-203
-201
-139
-135
-162
-145
-132
-142
-143
-137
-130
-142
-189
-208
-184
-185
-203
-189
-167
-124
-80
-114
-119
-12
-5
-58
240
958
1839
2314
1465
-297
-974
-211
297
86
6
106
72
54
96
89
109
172
179
152
163
195
220
259
321
361
352
354
417
487
531
595
662
674
691
776
858
872
832
740
579
363
144
-30
-180
-319
-383
-389
-421
-450
-420
-386
-390
-394
-379
-359
-350
-353
-349
-346
-363
-369
-341
-330
-359
-366
-344
-332
-315
-295
-331
-374
-346
-301
-298
-293
-280
-289
-286
-249
-234
-258
-263
-226
-214
-251
-267
-219
-172
-175
-198
-202
-180
-157
-166
-190
-182
-162
-161
-162
-173
-208
-233
-236
-237
-208
-157
-137
-136
-128
-124
-86
-49
-100
-51
343
1084
2074
2544
1402
-450
-845
7
316
31
-3
84
32
20
58
51
60
120
168
169
165
195
229
244
266
300
335
382
440
498
550
587
616
664
734
800
847
867
841
739
556
331
108
-90
-232
-314
-385
-438
-429
-406
-421
-428
-403
-380
-365
-367
-384
-370
-335
-344
-376
-374
-357
-351
-349
-339
-316
-304
-326
-347
-334
-316
-305
-284
-273
-279
-255
-221
-251
-296
-268
-216
-210
-216
-202
-188
-186
-195
-201
-183
-173
-194
-182
-133
-138
-182
-172
-140
-153
-168
-166
-180
-204
-230
-246
-209
-165
-164
-138
-94
-97
-70
-40
-104
-29
419
1197
2156
2430
1078
-654
-758
115
279
0
24
76
15
57
100
53
46
99
140
161
169
185
230
271
281
291
330
386
430
446
463
531
626
678
704
768
840
844
782
672
498
286
90
-88
-245
-338
-373
-404
-437
-442
-421
-397
-393
-406
-406
-395
-379
-358
-364
-394
-394
-381
-393
-382
-338
-335
-364
-361
-347
-343
-313
-288
-321
-350
-311
-270
-273
-272
-262
-269
-259
-227
-226
-242
-225
-208
-231
-243
-204
-180
-218
-253
-231
-181
-122
-65
-57
-110
-163
-158
-118
-128
-154
-96
-83
-179
-57
478
1337
2255
2198
567
-904
-615
195
166
-65
8
14
-39
22
51
22
35
75
112
138
164
222
260
225
204
272
352
377
383
420
494
575
625
652
685
728
759
758
701
563
358
157
-1
-144
-272
-346
-367
-371
-369
-361
-361
-373
-377
-367
-356
-350
-346
-346
-345
-349
-364
-364
-336
-308
-312
-335
-333
-304
-295
-307
-300
-283
-284
-288
-282
-275
-261
-246
-253
-269
-271
-265
-258
-235
-186
-128
-109
-143
-183
-189
-165
-149
-183
-199
-133
-134
-222
-72
480
1380
2277
2025
272
-1044
-600
165
97
-85
-1
-22
-89
-39
3
16
55
81
85
95
121
154
174
188
225
265
290
323
359
374
396
454
507
511
508
537
547
494
403
296
178
54
-75
-191
-253
-271
-296
-322
-318
-306
-302
-287
-264
-257
-263
-264
-252
-238
-238
-248
-251
-247
-243
-230
-211
-201
-219
-250
-245
-206
-194
-206
-195
-179
-189
-198
-187
-170
-161
-176
-196
-170
-124
-125
-146
-133
-107
-104
-110
-98
-69
-30
6
12
-25
-69
-70
-47
-58
-87
-68
-35
-57
-31
215
859
1920
2489
1381
-513
-1022
-199
220
-18
-98
-5
-11
-14
24
20
1
15
48
64
58
71
104
117
129
176
209
190
185
244
313
342
337
317
321
365
399
397
395
379
300
190
101
15
-91
-196
-266
-287
-284
-290
-306
-321
-326
-314
-303
-316
-336
-341
-339
-333
-335
-355
-366
-357
-360
-371
-351
-316
-321
-356
-346
-288
-259
-277
-292
-288
-284
-277
-244
-193
-146
-117
-122
-169
-217
-225
-204
-197
-217
-204
-140
-156
-150
305
1236
1997
1784
366
-1178
-1339
-393
152
48
-1
74
67
70
103
104
115
147
171
194
223
250
278
310
339
372
414
457
501
557
616
660
706
771
835
877
898
882
784
595
361
131
-67
-220
-326
-394
-426
-426
-418
-416
-415
-407
-396
-390
-388
-386
-383
-382
-384
-384
-378
-376
-385
-395
-392
-387
-384
-379
-371
-366
-369
-379
-383
-371
-339
-281
-233
-239
-271
-289
-304
-296
-270
-279
-267
-213
-263
-287
98
961
1987
2309
1059
-723
-1010
-138
155
-107
-107
-26
-87
-78
-25
-28
-9
29
42
64
98
125
163
203
227
259
313
366
413
464
516
573
637
703
768
826
857
837
734
542
312
99
-82
-226
-325
-382
-402
-403
-409
-415
-402
-381
-377
-383
-381
-376
-375
-375
-372
-369
-367
-369
-371
-368
-367
-367
-362
-361
-370
-377
-375
-376
-358
-297
-241
-243
-274
-299
-307
-286
-280
-296
-251
-215
-295
-246
231
1213
2410
2600
946
-836
-792
55
105
-158
-95
-63
-132
-93
-51
-61
-33
6
24
53
86
114
148
179
211
260
309
344
385
439
490
538
590
642
686
721
732
691
575
394
193
5
-150
-266
-338
-376
-395
-403
-399
-392
-393
-394
-386
-379
-384
-388
-384
-382
-381
-376
-368
-362
-359
-360
-358
-357
-363
-366
-357
-328
-271
-222
-228
-265
-291
-298
-276
-258
-271
-238
-195
-261
-243
148
1024
2282
2825
1416
-633
-942
-46
159
-145
-130
-67
-137
-109
-55
-65
-39
8
22
45
84
108
132
168
201
231
267
305
339
376
417
455
490
523
553
577
585
556
466
320
152
-2
-125
-218
-285
-327
-346
-354
-355
-355
-355
-354
-348
-342
-342
-341
-337
-334
-335
-334
-326
-320
-320
-318
-312
-309
-309
-304
-293
-288
-286
-282
-278
-274
-272
-279
-286
-274
-241
-188
-124
-99
-131
-169
-185
-183
-160
-159
-167
-118
-111
-186
-72
425
1378
2548
2605
770
-964
-729
146
133
-113
-30
-15
-75
-23
5
-2
38
65
68
103
141
155
182
221
253
284
320
351
381
416
447
474
512
554
588
615
634
624
562
444
295
143
5
-111
-202
-267
-303
-320
-332
-342
-349
-354
-357
-359
-365
-369
-360
-352
-358
-366
-361
-351
-347
-344
-338
-331
-325
-318
-311
-306
-299
-290
-286
-282
-272
-261
-257
-257
-255
-254
-258
-269
-277
-264
-216
-152
-120
-138
-174
-201
-200
-174
-174
-184
-142
-149
-220
-61
569
1667
2633
2151
194
-1040
-506
170
30
-131
-38
-57
-95
-39
-19
-20
17
40
55
87
116
138
169
203
233
266
301
339
379
416
454
501
551
595
636
672
691
665
567
406
230
67
-86
-212
-293
-339
-358
-355
-362
-385
-387
-364
-364
-385
-387
-386
-404
-395
-352
-346
-389
-416
-410
-406
-404
-375
-337
-325
-332
-334
-335
-318
-269
-248
-286
-303
-274
-276
-309
-277
-180
-125
-140
-162
-170
-179
-168
-157
-167
-137
-111
-176
-141
259
1206
2575
3057
1467
-570
-741
121
197
-127
-75
-5
-84
-65
-8
-10
13
53
64
82
121
152
176
204
224
240
278
335
402
461
487
509
548
553
538
588
658
635
529
404
243
38
-126
-184
-214
-302
-368
-331
-291
-328
-354
-324
-309
-327
-335
-342
-360
-344
-295
-286
-319
-324
-299
-299
-323
-321
-280
-245
-253
-272
-259
-241
-251
-254
-233
-220
-216
-204
-202
-207
-195
-192
-214
-208
-167
-159
-183
-172
-144
-164
-192
-158
-112
-125
-155
-165
-188
-213
-211
-219
-232
-187
-124
-131
-150
-104
-64
-54
-45
-94
-81
285
1071
2056
2434
1295
-441
-781
35
293
-10
-11
95
11
3
90
98
79
83
88
131
185
192
197
229
254
278
297
291
306
366
407
420
447
464
461
479
515
528
506
446
342
221
104
-17
-120
-179
-212
-249
-280
-292
-293
-302
-327
-340
-316
-290
-304
-320
-311
-310
-322
-315
-307
-319
-318
-297
-299
-319
-309
-269
-242
-250
-272
-268
-237
-226
-240
-238
-223
-214
-208
-203
-193
-178
-172
-174
-172
-173
-173
-163
-156
-148
-137
-141
-154
-137
-95
-76
-101
-128
-128
-132
-157
-165
-162
-177
-174
-128
-76
-52
-72
-106
-39
58
-23
-80
270
1012
1987
2588
1700
-151
-783
-7
379
85
7
92
39
30
80
73
77
110
128
144
148
141
175
233
252
249
270
304
330
348
358
372
399
419
437
467
480
467
444
384
277
158
29
-102
-197
-275
-352
-379
-358
-363
-392
-398
-382
-376
-389
-401
-390
-368
-367
-384
-396
-395
-384
-370
-364
-366
-354
-320
-301
-311
-305
-257
