# session 34
181
187
158
152
215
276
275
281
313
297
262
297
347
336
337
403
415
339
355
471
474
407
487
617
619
588
635
702
730
737
783
856
846
751
671
578
385
141
-58
-190
-277
-342
-380
-384
-380
-374
-358
-354
-363
-352
-336
-343
-348
-337
-329
-334
-347
-358
-351
-336
-350
-385
-382
-333
-309
-320
-320
-302
-301
-327
-342
-325
-316
-323
-313
-316
-338
-305
-252
-268
-298
-288
-277
-252
-258
-357
-377
-215
-110
-169
-198
-165
-191
-223
-195
-169
-169
-155
-145
-158
-166
-162
-175
-210
-238
-238
-215
-192
-175
-139
-99
-123
-155
-85
-38
-99
-10
441
1359
2566
2763
1066
-677
-548
265
242
-14
61
76
16
71
94
67
105
148
147
142
153
190
222
213
234
324
374
363
391
449
475
511
585
635
648
683
755
807
796
730
609
432
233
47
-114
-239
-319
-361
-378
-395
-413
-407
-377
-357
-357
-353
-345
-343
-344
-344
-346
-344
-342
-349
-355
-339
-316
-314
-323
-319
-310
-308
-305
-293
-285
-286
-277
-257
-245
-244
-241
-237
-234
-226
-216
-215
-214
-202
-191
-186
-185
-182
-176
-171
-169
-168
-161
-154
-151
-149
-145
-144
-142
-135
-136
-154
-162
-149
-149
-180
-216
-230
-214
-180
-155
-131
-91
-86
-103
-49
-29
-112
22
616
1566
2469
2285
584
-858
-546
262
239
8
77
95
51
101
122
105
132
154
158
177
196
213
247
282
307
323
333
369
445
497
500
527
610
691
745
796
844
869
865
802
652
435
208
7
-162
-292
-376
-420
-438
-443
-441
-437
-428
-414
-402
-397
-392
-384
-381
-384
-381
-374
-371
-369
-367
-369
-368
-361
-356
-354
-349
-339
-327
-322
-319
-307
-292
-287
-285
-276
-265
-256
-251
-248
-239
-227
-221
-220
-216
-207
-198
-193
-183
-175
-183
-187
-169
-171
-187
-168
-137
-145
-158
-158
-173
-192
-192
-200
-228
-244
-220
-180
-155
-131
-104
-100
-77
-36
-99
-136
177
898
1931
2701
1989
60
-843
-129
400
144
19
90
-9
-35
102
149
115
124
144
152
172
194
219
254
281
301
330
362
394
434
475
518
570
628
683
739
790
828
844
812
708
537
312
72
-105
-206
-289
-367
-407
-418
-423
-422
-416
-409
-398
-381
-365
-365
-373
-370
-364
-368
-365
-346
-337
-347
-348
-337
-332
-334
-327
-312
-301
-296
-292
-286
-281
-281
-275
-258
-244
-240
-236
-227
-221
-221
-221
-211
-196
-193
-196
-188
-176
-177
-178
-169
-162
-158
-153
-149
-145
-143
-146
-145
-143
-150
-157
-162
-183
-210
-222
-205
-169
-142
-118
-86
-87
-96
-41
-36
-107
62
639
1548
2436
2203
481
-835
-410
331
226
18
105
94
40
99
117
99
133
160
159
180
208
223
243
270
289
308
340
372
399
433
473
507
541
581
619
652
679
691
677
616
492
323
150
-8
-141
-243
-309
-343
-360
-372
-372
-360
-354
-357
-352
-341
-340
-344
-340
-341
-342
-328
-312
-322
-343
-346
-330
-317
-317
-318
-303
-281
-278
-286
-277
-262
-258
-255
-248
-245
-240
-224
-212
-210
-206
-198
-197
-196
-186
-177
-172
-166
-163
-164
-158
-151
-147
-142
-136
-133
-123
-113
-120
-130
-126
-125
-137
-146
-154
-168
-189
-201
-181
-144
-125
-103
-70
-82
-86
-24
-37
-84
148
767
1729
2558
2001
84
-964
-275
377
170
17
119
87
48
101
104
98
135
151
152
175
197
213
237
257
276
299
321
341
367
395
422
453
487
515
539
562
581
587
570
510
400
260
117
-21
-142
-224
-269
-302
-329
-342
-340
-336
-334
-329
-323
-329
-336
-331
-323
-320
-317
-319
-328
-326
-314
-310
-316
-312
-292
-277
-280
-283
-268
-254
-254
-252
-247
-246
-239
-222
-212
-217
-220
-211
-199
-190
-185
-180
-175
-169
-167
-170
-167
-152
-141
-144
-148
-141
-131
-128
-126
-124
-129
-141
-150
-154
-158
-179
-212
-206
-162
-137
-121
-86
-83
-85
-32
-48
-93
212
1000
1958
2367
1388
-426
-1104
-297
309
147
41
127
96
71
119
124
125
154
168
180
205
222
235
262
291
314
337
362
389
420
451
483
520
560
600
638
669
691
701
675
588
434
246
69
-76
-197
-290
-338
-356
-370
-380
-377
-370
-365
-360
-355
-352
-353
-352
-348
-346
-349
-348
-339
-338
-341
-337
-333
-334
-328
-314
-307
-305
-302
-297
-288
-275
-267
-265
-259
-248
-241
-235
-228
-222
-215
-206
-199
-196
-194
-187
-179
-172
-168
-163
-159
-156
-148
-141
-148
-157
-158
-165
-189
-215
-226
-213
-183
-159
-138
-100
-87
-105
-70
-40
-109
-31
467
1374
2376
2437
867
-762
-655
210
286
20
66
103
37
69
110
104
125
148
151
173
197
206
227
259
282
304
331
357
380
412
450
487
519
553
589
619
640
655
650
593
472
307
134
-21
-149
-248
-313
-349
-367
-374
-372
-368
-363
-359
-354
-349
-349
-349
-346
-344
-344
-342
-338
-334
-330
-324
-320
-319
-314
-305
-296
-289
-283
-277
-270
-263
-258
-254
-246
-234
-229
-230
-222
-202
-192
-195
-193
-184
-177
-174
-169
-163
-159
-156
-148
-139
-134
-135
-134
-128
-128
-135
-141
-151
-169
-185
-195
-196
-171
-142
-133
-104
-69
-81
-66
-14
-61
-61
297
1077
2137
2656
1505
-425
-874
20
376
84
41
123
63
66
117
107
115
148
154
162
185
201
220
244
263
280
302
326
347
366
392
425
450
470
492
514
526
532
529
501
425
301
158
24
-91
-181
-247
-293
-322
-331
-328
-326
-327
-327
-322
-318
-318
-321
-320
-317
-318
-323
-324
-320
-314
-309
-307
-305
-300
-291
-285
-280
-272
-264
-261
-259
-255
-248
-236
-227
-224
-220
-212
-205
-198
-195
-197
-196
-186
-178
-174
-171
-164
-154
-150
-154
-158
-154
-145
-136
-133
-139
-146
-150
-157
-169
-184
-209
-231
-211
-162
-134
-114
-93
-98
-77
-36
-86
-66
374
1258
2216
2367
981
-784
-987
-49
296
59
50
125
68
70
111
106
127
161
159
165
193
217
239
267
289
305
329
365
401
433
473
521
565
607
659
708
744
769
775
718
577
385
180
-12
-169
-283
-361
-405
-415
-412
-414
-413
-396
-377
-368
-368
-367
-359
-347
-343
-347
-346
-339
-335
-336
-332
-319
-309
-305
-294
-279
-276
-269
-250
-238
-238
-235
-223
-209
-199
-199
-197
-186
-179
-174
-161
-157
-168
-169
-148
-134
-145
-151
-138
-139
-155
-153
-165
-214
-228
-174
-126
-107
-99
-106
-74
-32
-89
19
652
1363
1297
326
-821
-1230
-685
22
218
148
165
187
173
201
227
220
233
256
258
269
294
299
300
329
359
363
373
409
446
475
502
538
578
614
649
684
701
689
645
541
367
171
3
-129
-230
-296
-338
-363
-365
-354
-351
-347
-326
-306
-304
-309
-304
-293
-290
-292
-292
-295
-310
-321
-315
-308
-310
-312
-302
-285
-279
-290
-291
-273
-265
-272
-259
-233
-232
-245
-235
-223
-230
-210
-161
-161
-191
-192
-204
-219
-178
-163
-195
-167
-177
-204
207
1093
1719
1413
180
-1046
-1110
-277
187
68
-8
42
45
77
127
110
88
121
157
154
159
218
279
293
305
340
375
409
446
483
536
606
668
726
788
836
875
903
862
707
468
210
-10
-179
-312
-411
-463
-474
-472
-470
-465
-453
-438
-433
-430
-413
-391
-385
-384
-376
-374
-385
-385
-370
-368
-373
-360
-364
-403
-396
-340
-357
-428
-405
-313
-260
-228
-212
-248
-295
-317
-317
-279
-258
-256
-202
-213
-304
-124
501
1507
2500
2256
456
-855
-431
209
36
-147
-45
-78
-158
-98
-21
16
37
27
26
62
94
115
151
188
211
247
301
345
393
441
445
466
596
735
770
775
813
809
692
458
182
-20
-148
-279
-388
-430
-458
-495
-490
-461
-464
-467
-441
-442
-478
-458
-381
-348
-379
-400
-392
-390
-387
-368
-350
-351
-356
-345
-326
-312
-314
-332
-336
-311
-281
-246
-199
-182
-207
-223
-204
-184
-215
-258
-202
-154
-245
-199
261
1170
2385
2809
1342
-569
-742
77
174
-116
-76
-20
-84
-62
-17
-25
-26
12
75
109
109
147
190
170
185
279
323
310
362
437
458
493
582
661
689
688
705
753
736
564
316
119
-29
-185
-322
-398
-425
-429
-443
-472
-465
-412
-384
-385
-368
-359
-386
-395
-363
-342
-351
-363
-360
-347
-336
-334
-326
-333
-381
-402
-332
-246
-224
-231
-234
-252
-261
-243
-269
-340
-327
-220
-160
-193
-240
-247
-215
-165
-118
-93
-116
-165
-176
-153
-150
-170
-159
-111
-141
-189
21
564
1491
2603
2583
774
-783
-455
303
153
-122
-15
15
-65
-26
37
38
49
82
92
93
116
129
121
158
250
305
301
308
371
452
459
411
479
653
708
642
662
755
741
598
421
239
50
-99
-197
-301
-395
-400
-345
-340
-405
-444
-389
-318
-344
-399
-365
-318
-351
-378
-343
-318
-333
-360
-376
-362
-335
-324
-306
-279
-282
-313
-328
-292
-248
-264
-297
-260
-206
-214
-245
-240
-219
-214
-228
-222
-184
-179
-224
-223
-166
-162
-198
-192
-203
-270
-291
-246
-218
-195
-176
-209
-200
-110
-89
-105
-54
-100
-180
62
669
1678
2818
2637
712
-678
-251
335
123
-28
61
-20
-71
31
62
37
60
81
100
141
156
151
172
205
236
283
319
320
340
404
454
473
508
565
613
639
666
708
713
599
394
209
63
-99
-246
-315
-341
-372
-397
-401
-398
-400
-409
-400
-364
-342
-355
-368
-362
-362
-366
-355
-350
-362
-356
-331
-319
-314
-299
-295
-300
-291
-275
-273
-271
-258
-245
-244
-240
-222
-221
-247
-242
-192
-171
-189
-187
-178
-193
-191
-161
-149
-159
-162
-163
-158
-137
-134
-160
-179
-201
-247
-262
-227
-191
-162
-130
-112
-93
-80
-91
-67
-52
-127
-78
312
1120
2352
3016
1786
-227
-663
127
333
41
28
65
-19
-1
56
54
69
73
56
115
200
204
181
195
220
258
297
293
294
358
427
451
473
512
551
590
625
643
640
599
490
316
128
-22
-130
-224
-303
-348
-362
-374
-390
-387
-366
-355
-352
-356
-374
-380
-351
-326
-340
-361
-362
-352
-344
-337
-333
-333
-329
-319
-305
-288
-278
-278
-277
-263
-254
-261
-258
-239
-232
-230
-213
-200
-202
-202
-199
-206
-204
-183
-161
-154
-161
-169
-158
-154
-180
-181
-128
-90
-97
-119
-141
-149
-152
-195
-245
-224
-174
-162
-161
-138
-95
-62
-70
-52
-3
-64
-121
117
711
1771
2903
2554
535
-727
-177
379
109
-41
93
68
6
45
68
82
111
113
109
130
152
164
188
232
269
283
296
325
354
374
394
426
472
516
552
586
612
619
601
533
396
223
55
-91
-203
-276
-318
-336
-358
-392
-393
-355
-348
-371
-359
-330
-336
-351
-347
-350
-360
-355
-341
-327
-312
-310
-318
-322
-318
-308
-296
-291
-286
-275
-268
-259
-245
-242
-242
-233
-228
-228
-219
-213
-217
-210
-183
-160
-164
-167
-160
-174
-191
-166
-134
-138
-145
-128
-119
-135
-152
-135
-111
-137
-163
-132
-120
-172
-206
-208
-218
-191
-121
-81
-75
-79
-81
-45
-48
-112
12
485
1367
2545
2815
1209
-570
-530
267
256
-7
73
97
23
56
78
62
97
122
116
138
174
191
194
208
247
282
288
302
351
392
401
414
453
497
527
544
563
585
590
539
423
268
108
-32
-135
-206
-267
-323
-356
-364
-357
-346
-341
-349
-349
-339
-344
-357
-341
-315
-326
-345
-331
-312
-316
-322
-323
-317
-297
-280
-290
-295
-272
-256
-268
-266
-238
-236
-263
-252
-204
-186
-204
-206
-194
-190
-186
-185
-197
-197
-171
-151
-151
-144
-139
-150
-151
-137
-144
-154
-139
-120
-114
-115
-128
-138
-133
-144
-174
-189
-197
-204
-185
-150
-116
-82
-76
-64
-12
-41
-114
64
616
1609
2716
2526
613
-790
-326
359
181
-2
94
57
19
83
71
56
117
140
126
151
183
191
207
237
253
257
275
319
363
386
404
433
462
485
510
536
559
572
552
480
370
238
91
-55
-182
-265
-294
-319
-366
-384
-357
-341
-348
-348
-340
-335
-343
-361
-361
-344
-334
-329
-323
-326
-330
-329
-323
-311
-308
-316
-304
-273
-265
-271
-265
-258
-256
-248
-241
-241
-230
-215
-215
-213
-196
-186
-188
-180
-172
-176
-174
-155
-140
-141
-148
-150
-135
-117
-125
-144
-130
-101
-103
-121
-125
-135
-159
-171
-177
-191
-182
-152
-136
-107
-68
-78
-63
1
-44
-93
187
878
1950
2800
2072
61
-849
-112
402
146
37
118
58
50
130
130
114
142
157
165
185
199
219
246
264
286
316
336
353
380
407
429
457
489
511
532
567
597
594
556
481
357
203
53
-79
-181
-248
-300
-351
-375
-358
-328
-322
-335
-347
-350
-349
-345
-337
-331
-329
-335
-346
-347
-330
-313
-314
-325
-327
-317
-313
-313
-294
-274
-278
-283
-271
-268
-275
-273
-262
-240
-215
-219
-256
-259
-206
-178
-208
-219
-187
-181
-213
-213
-177
-167
-183
-180
-176
-190
-178
-143
-141
-176
-213
-233
-227
-221
-233
-230
-217
-208
-157
-116
-153
-131
-41
-103
-154
181
961
2086
2779
1750
-282
-929
-89
337
65
-21
57
27
18
46
54
76
91
103
135
137
129
173
221
234
258
290
295
309
352
386
407
444
488
514
525
539
563
581
551
456
322
171
17
-108
-186
-233
-271
-313
-344
-323
-277
-273
-293
-288
-277
-280
-273
-253
-252
-276
-275
-230
-207
-235
-235
-187
-197
-261
-239
-139
-111
-151
-156
-134
-125
-118
-123
-140
-120
-72
-54
-65
-57
-29
-33
-63
-47
1
-8
-39
-11
23
8
1
27
39
29
25
29
15
-20
-29
2
2
-52
-84
-48
6
30
35
45
