# session 21
11
32
2
14
168
356
422
408
434
496
540
544
506
465
470
476
414
338
294
215
105
49
5
-72
-92
-41
-30
-69
-101
-100
-56
-42
-128
-183
-129
-111
-162
-169
-158
-176
-161
-130
-159
-198
-178
-154
-187
-215
-201
-208
-225
-179
-132
-160
-193
-182
-159
-130
-129
-177
-184
-126
-114
-158
-150
-97
-88
-112
-105
-79
-79
-98
-105
-110
-112
-98
-68
-26
13
17
1
-1
-15
-45
-50
-34
-21
-56
-121
-14
426
1197
2032
1971
445
-1065
-961
-135
11
-183
-152
-116
-136
-72
-29
-61
-68
-23
32
57
62
85
122
154
173
178
204
268
318
328
351
409
456
448
414
426
445
356
215
162
166
129
56
-9
-39
-59
-112
-126
-55
-50
-164
-204
-120
-102
-187
-215
-159
-148
-200
-195
-152
-228
-358
-338
-235
-235
-287
-278
-246
-245
-256
-257
-255
-266
-267
-235
-203
-199
-201
-207
-223
-195
-121
-97
-137
-167
-176
-170
-142
-144
-167
-161
-167
-135
138
773
1682
2108
1006
-896
-1453
-541
16
-174
-194
-23
-57
-120
-91
-101
-102
-3
80
53
11
69
173
203
187
231
307
314
289
333
417
446
415
376
359
354
321
246
165
100
34
-35
-88
-115
-108
-74
-53
-80
-113
-87
-55
-83
-103
-81
-91
-116
-101
-97
-122
-118
-101
-127
-166
-160
-121
-112
-139
-153
-153
-145
-108
-72
-84
-123
-150
-144
-110
-99
-122
-125
-112
-108
-93
-77
-82
-75
-67
-103
-136
-118
-115
-139
-111
-76
-95
-8
421
1218
1882
1419
-253
-1454
-1049
-197
-73
-202
-105
-70
-130
-95
-60
-80
-60
-25
-3
54
101
86
79
116
140
173
262
342
358
364
383
378
367
383
409
412
363
253
122
35
-1
-43
-112
-155
-163
-190
-216
-178
-129
-148
-184
-173
-150
-152
-172
-194
-189
-156
-160
-205
-204
-148
-124
-145
-154
-155
-181
-202
-181
-138
-114
-114
-120
-122
-130
-147
-154
-143
-130
-114
-88
-77
-71
-51
-52
-91
-122
-125
-113
-104
-107
-74
-34
-79
-21
469
1298
1899
1522
-7
-1400
-1289
-365
-17
-130
-105
-55
-77
-46
-25
-45
-22
30
66
88
99
130
190
220
225
267
315
342
408
501
543
548
562
574
571
542
453
322
207
111
7
-101
-184
-215
-213
-222
-238
-234
-223
-222
-213
-200
-202
-207
-191
-179
-196
-213
-211
-219
-235
-242
-246
-238
-217
-238
-296
-294
-233
-211
-241
-249
-217
-177
-144
-119
-119
-151
-189
-214
-207
-171
-169
-186
-140
-133
-154
181
932
1543
1463
431
-1026
-1533
-776
-79
-87
-159
-58
-54
-86
-46
-15
2
38
65
80
100
128
166
210
257
312
370
430
499
561
601
645
694
710
699
679
608
467
314
179
41
-80
-153
-192
-215
-220
-212
-208
-209
-208
-204
-200
-201
-205
-207
-206
-206
-211
-218
-223
-225
-231
-242
-251
-251
-247
-245
-254
-269
-270
-250
-213
-168
-145
-156
-170
-185
-201
-188
-188
-217
-167
-126
-219
-99
467
1116
1534
1303
12
-1276
-1119
-235
-22
-209
-179
-131
-160
-117
-75
-83
-66
-26
9
36
55
88
149
203
237
278
336
410
485
540
581
635
687
705
688
626
502
349
204
56
-84
-182
-247
-295
-302
-285
-284
-282
-265
-261
-267
-259
-254
-269
-272
-254
-247
-254
-257
-265
-270
-248
-233
-251
-256
-231
-211
-206
-199
-193
-194
-214
-256
-274
-228
-166
-130
-100
-86
-112
-146
-161
-156
-134
-134
-137
-112
-147
-164
98
631
1337
1920
1397
-296
-1276
-671
16
-71
-198
-99
-96
-121
-65
-35
-27
9
41
63
87
110
147
191
215
235
283
347
405
460
520
570
596
610
631
641
604
507
393
312
235
125
33
-6
-45
-80
-67
-49
-63
-73
-66
-41
-4
-13
-58
-48
-1
-25
-100
-115
-80
-87
-123
-120
-109
-139
-164
-152
-142
-144
-141
-145
-164
-180
-190
-200
-197
-186
-187
-199
-215
-239
-249
-235
-251
-305
-312
-280
-300
-343
-347
-358
-388
-377
-338
-312
-284
-261
-261
-229
-187
-235
-175
316
1125
1790
1686
416
-1068
-1244
-427
-37
-156
-148
-80
-113
-104
-73
-87
-79
-51
-40
-17
19
44
76
129
177
210
253
314
370
409
448
501
560
597
603
596
560
454
305
180
79
-28
-118
-173
-209
-230
-239
-243
-246
-254
-268
-275
-279
-292
-304
-311
-328
-346
-345
-340
-348
-352
-348
-344
-331
-305
-290
-284
-264
-238
-226
-210
-187
-177
-173
-159
-142
-122
-96
-79
-70
-49
-25
-12
2
8
-10
-27
-32
-33
-1
64
128
179
187
182
245
264
174
272
825
1927
3222
3220
1167
-773
-664
134
89
-166
-104
-104
-166
-119
-98
-124
-109
-85
-71
-49
-32
-14
21
64
113
182
246
284
327
405
488
547
594
634
649
615
518
368
200
44
-82
-184
-279
-344
-350
-334
-338
-348
-343
-332
-327
-326
-322
-317
-323
-336
-340
-335
-331
-332
-339
-339
-323
-290
-264
-276
-314
-320
-293
-281
-279
-263
-250
-244
-250
-272
-272
-245
-262
-296
-261
-219
-253
-290
-289
-326
-397
-408
-350
-297
-285
-281
-269
-286
-289
-230
-244
-251
165
886
1210
791
-259
-1359
-1488
-627
-8
-62
-134
-46
-36
-34
26
61
91
138
168
200
253
303
348
394
431
470
520
563
597
636
668
686
703
708
696
679
637
532
388
253
132
19
-66
-117
-153
-180
-176
-153
-153
-155
-122
-88
-86
-89
-79
-76
-82
-86
-86
-82
-74
-70
-71
-76
-84
-89
-84
-78
-77
-78
-72
-60
-49
-40
-27
-8
10
22
28
36
52
64
61
43
11
-13
4
50
87
99
86
59
43
20
-5
11
-9
-76
79
615
1409
2055
1653
4
-1229
-858
-80
-33
-188
-124
-114
-151
-107
-78
-70
-24
13
33
67
95
118
157
190
201
213
233
247
256
263
265
261
254
237
206
155
83
-8
-101
-178
-241
-295
-334
-354
-366
-375
-377
-375
-371
-368
-369
-377
-385
-389
-388
-386
-390
-392
-388
-385
-384
-378
-369
-365
-363
-367
-372
-365
-351
-353
-368
-370
-351
-335
-347
-380
-389
-357
-319
-292
-271
-273
-299
-315
-292
-248
-238
-232
-164
-140
-160
104
711
1342
1680
1158
-320
-1307
-797
26
100
-29
52
81
66
122
153
167
222
266
286
321
366
410
450
485
524
566
601
634
669
697
720
743
758
761
753
714
632
532
436
340
254
190
145
109
80
58
52
54
46
38
38
22
-11
-42
-77
-118
-144
-165
-199
-224
-229
-240
-269
-282
-265
-247
-242
-236
-233
-236
-220
-190
-156
-104
-61
-73
-110
-129
-134
-125
-124
-132
-113
-130
-167
64
679
1404
1724
966
-652
-1519
-928
-196
-196
-337
-282
-273
-294
-256
-239
-235
-203
-179
-161
-128
-94
-65
-30
8
43
83
133
189
234
268
301
327
331
323
308
264
182
79
-18
-106
-178
-224
-246
-266
-286
-292
-289
-284
-274
-268
-276
-292
-308
-319
-319
-324
-345
-353
-333
-319
-327
-330
-322
-325
-339
-350
-355
-349
-325
-286
-241
-212
-214
-231
-247
-240
-197
-175
-167
-112
-114
-153
110
718
1402
1852
1325
-286
-1294
-714
49
5
-134
-19
6
-11
60
105
124
167
196
223
269
299
319
367
423
457
479
510
548
583
615
636
641
639
643
626
557
454
356
269
191
129
77
38
23
18
7
1
-6
-30
-44
-30
-29
-58
-83
-102
-136
-165
-175
-191
-213
-227
-244
-266
-282
-300
-318
-325
-325
-295
-219
-163
-178
-222
-250
-249
-222
-208
-197
-144
-137
-161
70
668
1400
1775
1062
-541
-1370
-742
-34
-67
-194
-122
-124
-152
-111
-92
-88
-59
-40
-28
-4
17
36
68
100
126
158
199
232
251
266
286
294
281
256
221
161
90
16
-71
-149
-175
-170
-187
-215
-225
-230
-239
-241
-239
-242
-244
-243
-242
-237
-227
-219
-215
-211
-211
-215
-217
-223
-231
-238
-258
-279
-271
-245
-232
-225
-227
-267
-325
-365
-373
-353
-347
-346
-291
-265
-264
6
610
1219
1437
757
-662
-1382
-728
25
33
-85
-3
8
-12
42
72
77
113
147
172
209
248
288
334
376
415
456
496
536
577
613
643
667
675
658
624
568
476
369
274
192
120
68
33
0
-29
-48
-57
-55
-54
-62
-71
-76
-96
-122
-131
-117
-97
-91
-115
-157
-192
-218
-242
-268
-294
-314
-329
-331
-307
-262
-224
-214
-233
-267
-288
-272
-255
-264
-240
-220
-267
-123
452
1226
1727
1343
-109
-1367
-1162
-308
-103
-266
-205
-120
-137
-111
-90
-127
-124
-76
-46
-19
22
44
51
80
126
158
187
237
283
303
311
316
310
302
284
239
166
81
4
-46
-85
-129
-138
-105
-94
-110
-78
-4
39
52
72
83
75
68
77
96
109
94
58
35
35
23
-26
-84
-112
-139
-184
-188
-156
-175
-240
-280
-286
-280
-274
-263
-259
-318
-336
-39
640
1410
1597
533
-1098
-1579
-780
-192
-256
-290
-186
-180
-194
-175
-150
-96
-69
-80
-53
-22
-31
-6
70
136
182
221
264
326
391
434
442
429
436
467
455
366
256
184
124
34
-37
-55
-81
-120
-120
-135
-185
-181
-122
-92
-104
-139
-185
-207
-180
-157
-182
-200
-175
-180
-225
-207
-149
-153
-161
-102
-74
-135
-187
-177
-144
-136
-176
-210
-173
-121
-86
139
853
1850
2041
640
-1210
-1658
-815
-159
-106
-134
-109
-126
-106
-44
-23
-19
7
23
31
69
123
155
180
229
284
317
346
389
437
476
499
503
507
507
464
375
282
195
107
36
-3
-31
-64
-95
-107
-107
-118
-134
-128
-119
-138
-160
-155
-151
-164
-172
-168
-164
-162
-161
-160
-164
-170
-157
-143
-162
-189
-180
-151
-137
-151
-176
-180
-164
-153
-147
-138
-140
-150
-153
-162
-176
-176
-179
-205
-215
-177
-127
-93
-60
-42
-60
-41
28
-9
-66
209
839
1549
1873
1069
-549
-1243
-541
67
-31
-124
-50
-71
-87
-53
-62
-61
-22
3
12
17
33
73
101
114
155
199
210
217
237
252
267
285
290
286
283
262
205
126
54
-8
-59
-82
-88
-100
-106
-95
-91
-107
-125
-143
-169
-201
-232
-259
-285
-313
-333
-344
-356
-364
-358
-348
-341
-333
-325
-314
-291
-270
-265
-262
-249
-223
-179
-130
-106
-105
-92
-57
-27
-11
-1
-1
-4
-9
-30
-61
-85
-108
-112
-84
-61
-49
-26
-36
-52
-4
2
-45
120
608
1418
2310
2146
457
-907
-578
125
70
-93
0
16
6
88
127
130
165
186
195
229
259
283
335
392
407
400
411
430
436
440
443
437
432
421
382
328
280
208
101
7
-53
-106
-157
-180
-183
-196
-219
-228
-228
-237
-245
-240
-238
-243
-248
-256
-250
-233
-235
-251
-261
-276
-288
-263
-237
-255
-278
-277
-279
-293
-299
-299
-311
-326
-322
-307
-310
-324
-312
-287
-286
-296
-286
-271
-279
-298
-308
-322
-329
-293
-246
-231
-205
-165
-163
-141
-90
-122
-82
309
973
1568
1506
335
-1026
-1107
-293
32
-139
-155
-87
-106
-96
-71
-83
-69
-28
-11
-2
33
87
131
161
195
235
271
303
336
365
384
403
428
448
450
440
418
366
290
218
163
114
68
41
34
31
25
27
31
28
17
9
6
11
15
10
-4
-13
-7
-4
-17
-20
-3
3
-9
-7
9
8
-2
2
6
-7
-16
-5
8
4
-7
-5
6
-1
-32
-63
-80
-96
-130
-170
-202
-233
-245
-217
-175
-122
-72
-77
-68
4
-35
-96
224
941
1784
2274
1469
-378
-1231
-517
67
-106
-197
-97
-131
-152
-99
-100
-112
-97
-96
-90
-68
-53
-36
-12
10
41
82
119
152
190
232
273
307
329
338
324
274
178
45
-92
-206
-299
-381
-436
-458
-464
-468
-468
-459
-441
-426
-425
-428
-425
-414
-399
-387
-378
-368
-361
-362
-360
-356
-363
-380
-394
-404
-414
-423
-421
-403
-374
-347
-328
-306
-280
-254
-230
-203
-181
-172
-166
-154
-146
-156
-183
-194
-155
-97
-39
31
70
92
162
182
131
275
754
1656
2825
2941
1163
-591
-477
277
245
31
128
153
106
163
204
207
245
271
278
308
340
354
380
421
450
473
507
542
570
598
621
629
624
612
588
536
442
317
197
104
24
-41
-75
-85
-92
-101
-108
-115
-122
-133
-151
-170
-192
-218
-244
-264
-282
-298
-307
-310
-315
-324
-335
-344
-350
-357
-366
-375
-383
-392
-399
-402
-404
-404
-400
-394
-390
-387
-383
-380
-390
-408
-406
-375
-326
-273
-239
-248
-289
-319
-308
-288
-302
-295
-256
-289
-264
125
812
1427
1420
316
-1103
-1305
-471
-48
-194
-216
-137
-159
-144
-86
-76
-59
-15
10
20
40
64
92
125
150
175
218
266
295
320
357
390
413
433
443
426
381
308
213
118
45
-4
-49
-85
-94
-88
-84
-76
-62
-53
-43
-30
-27
-25
-15
-8
-7
-10
-15
-15
-1
21
29
11
-1
29
71
71
34
18
35
34
-20
-62
-20
64
112
114
86
33
-16
-15
6
-16
-21
22
-15
-37
289
1046
1998
2405
1304
-622
-1289
-517
-10
-172
-229
-139
-154
-140
-74
-55
-37
3
23
36
59
85
114
147
185
229
274
318
367
413
444
470
490
495
480
430
327
184
43
-83
-193
-279
-337
-375
-399
-410
-410
-409
-421
-434
-428
-425
-447
-468
-467
-466
-473
-472
-469
-470
-464
-454
-447
-439
-430
-426
-420
-413
-422
-440
-440
-417
-368
-294
-239
-235
-257
-268
-238
-194
-205
-199
-127
-151
-172
185
888
1602
1832
880
-729
-1212
-425
39
-157
-217
-129
-163
-164
-99
-75
-46
10
55
110
173
222
278
353
417
463
504
544
584
622
652
668
670
665
652
613
533
422
305
