# session 39
-96
-127
-51
-20
-217
-449
-453
-386
-436
-467
-408
-392
-427
-409
-352
-331
-337
-337
-343
-345
-325
-305
-287
-266
-277
-299
-286
-281
-309
-329
-346
-348
-296
-247
-222
-170
-163
-195
-138
-114
-137
226
1026
1707
1735
774
-611
-970
-176
350
207
105
151
136
143
167
171
208
234
232
259
274
271
315
357
352
373
421
443
468
504
518
529
538
550
615
690
710
712
673
524
351
228
85
-80
-190
-262
-339
-380
-357
-329
-345
-351
-314
-295
-305
-287
-272
-305
-330
-310
-288
-292
-311
-320
-298
-267
-260
-283
-303
-275
-231
-258
-310
-279
-222
-232
-250
-222
-200
-211
-219
-209
-214
-216
-176
-148
-176
-181
-146
-168
-214
-194
-175
-200
-176
-116
-130
-172
-145
-95
-89
-124
-172
-197
-197
-206
-213
-181
-120
-79
-101
-144
-114
-71
-116
-139
-88
-126
-127
264
1111
2105
2364
1128
-474
-637
136
313
47
35
93
54
67
90
79
95
121
156
217
229
189
204
269
298
307
337
372
421
485
526
551
608
675
699
705
753
800
737
565
375
176
-61
-249
-327
-393
-493
-523
-465
-434
-451
-454
-439
-432
-427
-418
-411
-406
-402
-401
-401
-400
-396
-389
-385
-384
-382
-378
-375
-371
-365
-356
-349
-347
-343
-331
-324
-319
-305
-314
-358
-375
-329
-257
-193
-158
-175
-223
-248
-230
-204
-211
-208
-174
-206
-250
-29
615
1666
2553
2013
141
-895
-281
305
93
-58
42
18
-18
31
49
68
103
99
108
167
209
203
198
241
320
362
357
385
465
527
560
605
665
716
760
792
775
678
513
309
91
-113
-270
-372
-437
-480
-496
-480
-449
-427
-427
-435
-419
-387
-383
-393
-384
-372
-378
-379
-374
-380
-383
-370
-359
-353
-344
-336
-332
-327
-325
-327
-328
-343
-364
-342
-262
-181
-159
-185
-225
-256
-244
-207
-224
-238
-171
-169
-246
-59
632
1751
2634
2025
84
-977
-342
280
89
-63
37
15
-27
17
34
43
78
88
96
135
170
192
223
251
271
304
346
365
382
440
512
553
579
613
641
656
645
562
396
205
29
-131
-260
-340
-386
-416
-424
-418
-417
-413
-398
-394
-395
-378
-358
-363
-372
-365
-356
-356
-355
-352
-354
-358
-348
-328
-321
-327
-324
-311
-317
-331
-323
-287
-235
-185
-167
-201
-252
-267
-229
-199
-226
-222
-166
-198
-227
36
738
1894
2768
1937
-148
-1018
-231
289
39
-54
39
-12
-37
7
14
41
80
77
85
125
156
177
199
219
244
276
304
332
360
379
406
438
447
450
480
500
466
390
279
128
-30
-149
-233
-303
-356
-375
-368
-361
-357
-346
-341
-345
-347
-345
-340
-329
-324
-328
-333
-330
-319
-316
-330
-327
-294
-279
-292
-288
-270
-270
-265
-240
-239
-252
-232
-209
-217
-227
-234
-252
-240
-181
-118
-80
-75
-107
-148
-161
-140
-124
-137
-122
-98
-146
-119
217
978
2133
2749
1557
-442
-884
8
334
48
24
101
39
36
75
75
107
138
132
150
195
219
233
251
266
289
319
328
324
351
394
413
422
441
439
421
435
443
371
258
168
68
-61
-156
-210
-264
-300
-303
-309
-321
-313
-297
-300
-310
-311
-305
-300
-300
-304
-302
-297
-303
-306
-287
-265
-265
-275
-271
-257
-254
-256
-245
-230
-228
-230
-222
-211
-205
-198
-192
-189
-181
-171
-165
-160
-156
-157
-152
-137
-127
-130
-125
-110
-110
-118
-109
-105
-122
-121
-100
-109
-138
-145
-137
-146
-146
-122
-112
-113
-81
-65
-90
-50
2
-56
-16
358
1117
2190
2616
1295
-525
-690
190
351
45
74
147
72
77
114
101
118
148
147
157
183
197
216
239
245
246
264
284
286
283
294
305
295
285
284
278
261
239
207
158
103
44
-23
-84
-126
-160
-195
-219
-231
-239
-239
-243
-261
-272
-264
-259
-265
-264
-261
-266
-271
-272
-278
-281
-266
-246
-244
-249
-249
-249
-246
-233
-219
-213
-208
-203
-201
-200
-195
-188
-182
-180
-180
-180
-175
-159
-145
-145
-147
-140
-134
-135
-135
-131
-129
-125
-115
-107
-105
-112
-129
-145
-149
-145
-132
-114
-96
-83
-84
-83
-84
-95
-68
-18
-61
-81
165
752
1736
2563
1871
-83
-953
-173
394
156
41
130
77
57
124
124
113
148
166
172
188
197
205
226
248
260
260
266
291
315
313
301
307
316
298
273
267
248
194
143
106
44
-41
-101
-139
-181
-214
-225
-235
-246
-249
-247
-243
-236
-235
-244
-247
-249
-255
-257
-256
-258
-256
-251
-258
-265
-251
-231
-224
-221
-219
-222
-218
-209
-212
-215
-197
-183
-193
-197
-179
-166
-171
-172
-162
-157
-162
-158
-148
-149
-158
-151
-132
-127
-126
-120
-127
-137
-126
-124
-154
-161
-133
-107
-62
3
2
-68
-111
-101
-84
-100
-114
-71
-64
-138
-44
416
1286
2327
2369
699
-905
-665
227
253
3
90
119
39
79
121
98
114
150
159
170
192
218
245
266
278
293
315
338
360
374
386
399
411
421
430
432
426
414
378
298
187
64
-61
-154
-201
-248
-302
-320
-312
-320
-327
-317
-313
-318
-314
-311
-317
-318
-317
-322
-323
-313
-305
-302
-308
-320
-316
-289
-269
-271
-271
-258
-254
-270
-271
-241
-221
-225
-224
-212
-210
-216
-212
-194
-174
-166
-169
-172
-167
-166
-173
-176
-175
-172
-149
-108
-73
-40
-23
-59
-107
-117
-121
-129
-127
-128
-114
-104
-151
-80
372
1249
2248
2374
884
-853
-928
5
281
57
61
106
49
72
116
101
112
149
167
191
220
235
254
280
299
318
344
366
387
419
448
464
485
517
529
526
545
557
498
376
225
55
-103
-212
-286
-345
-379
-391
-398
-397
-384
-368
-358
-358
-365
-360
-337
-326
-334
-338
-329
-330
-346
-349
-335
-329
-335
-328
-313
-309
-309
-302
-292
-285
-278
-268
-258
-262
-266
-245
-222
-220
-221
-222
-229
-229
-229
-234
-221
-186
-139
-85
-68
-106
-138
-147
-150
-137
-142
-156
-106
-103
-190
-67
478
1489
2628
2541
683
-831
-444
324
196
-28
74
64
-4
49
76
61
92
134
160
181
196
221
257
281
301
330
353
381
428
459
465
495
557
597
606
616
616
579
496
358
178
10
-122
-241
-328
-356
-362
-374
-375
-371
-372
-355
-331
-332
-341
-333
-327
-334
-334
-322
-316
-319
-320
-309
-296
-295
-302
-293
-270
-266
-278
-273
-250
-234
-232
-239
-238
-220
-208
-211
-201
-183
-184
-192
-183
-167
-159
-156
-154
-151
-149
-145
-136
-127
-122
-122
-125
-123
-117
-118
-121
-115
-112
-128
-143
-140
-149
-181
-202
-181
-145
-124
-97
-67
-79
-73
-15
-53
-105
152
792
1781
2636
2067
156
-825
-130
438
189
56
157
110
77
139
141
130
160
176
185
205
217
230
257
284
301
315
336
363
381
396
419
440
458
482
499
501
503
495
439
328
194
64
-54
-158
-243
-302
-332
-345
-354
-351
-345
-353
-352
-330
-319
-329
-335
-335
-334
-333
-337
-340
-330
-322
-326
-319
-301
-296
-301
-297
-284
-278
-278
-267
-250
-242
-239
-230
-221
-217
-214
-212
-206
-197
-196
-196
-184
-172
-168
-165
-160
-158
-159
-160
-145
-126
-128
-139
-129
-113
-111
-110
-107
-117
-131
-130
-136
-166
-194
-195
-176
-154
-131
-100
-65
-66
-73
-23
-15
-80
41
526
1416
2452
2434
749
-743
-439
361
307
65
141
158
101
137
150
134
165
187
183
205
235
248
264
285
301
314
332
353
377
398
406
417
450
480
483
478
476
457
412
333
210
70
-47
-140
-226
-290
-315
-325
-338
-338
-325
-323
-326
-318
-312
-315
-314
-309
-311
-316
-312
-311
-324
-326
-303
-285
-287
-288
-281
-277
-269
-258
-254
-253
-244
-229
-220
-220
-219
-207
-198
-205
-208
-189
-171
-172
-173
-164
-163
-163
-150
-142
-144
-136
-125
-127
-132
-130
-124
-118
-118
-124
-120
-108
-99
-95
-100
-115
-125
-128
-142
-165
-181
-179
-156
-129
-101
-66
-62
-75
-34
-18
-65
58
535
1416
2436
2387
687
-784
-447
361
304
71
149
143
84
138
152
130
166
183
178
214
239
231
245
282
305
314
318
332
367
394
402
416
435
438
439
460
464
428
383
328
223
86
-29
-127
-223
-281
-296
-311
-335
-335
-322
-322
-320
-310
-314
-321
-314
-311
-318
-314
-305
-306
-312
-310
-304
-299
-293
-286
-280
-273
-262
-258
-262
-258
-239
-221
-219
-225
-221
-205
-198
-195
-182
-178
-189
-185
-166
-157
-156
-150
-146
-146
-147
-147
-139
-127
-122
-120
-119
-122
-114
-99
-105
-123
-116
-92
-88
-103
-111
-109
-114
-132
-160
-185
-177
-144
-135
-124
-72
-46
-57
-17
-12
-78
59
574
1470
2453
2339
616
-802
-421
374
303
72
145
148
98
142
151
135
170
196
196
209
225
243
267
283
293
306
320
347
383
395
390
404
433
449
450
447
449
441
393
300
195
88
-33
-147
-228
-281
-313
-323
-326
-335
-336
-326
-322
-321
-315
-317
-325
-318
-305
-307
-316
-318
-312
-310
-314
-306
-292
-293
-299
-286
-263
-257
-259
-251
-243
-239
-231
-225
-229
-219
-199
-197
-203
-189
-175
-179
-174
-159
-159
-164
-154
-141
-139
-139
-139
-139
-132
-126
-124
-118
-108
-103
-105
-104
-97
-94
-103
-111
-112
-121
-138
-150
-174
-191
-162
-123
-103
-73
-61
-84
-49
-5
-54
13
451
1316
2369
2511
958
-697
-606
261
352
101
140
164
102
136
160
137
163
190
182
196
231
250
262
279
293
309
326
341
359
383
405
426
445
454
456
460
461
450
414
335
220
103
-10
-125
-220
-274
-311
-339
-340
-329
-331
-333
-324
-317
-317
-317
-318
-316
-312
-322
-326
-310
-303
-315
-315
-300
-294
-293
-287
-282
-274
-263
-262
-258
-242
-239
-250
-238
-208
-200
-209
-206
-198
-193
-186
-180
-179
-177
-168
-157
-152
-156
-153
-141
-133
-134
-133
-128
-123
-120
-121
-120
-112
-106
-106
-103
-102
-108
-113
-119
-133
-154
-177
-185
-162
-135
-110
-73
-64
-76
-31
-14
-83
19
497
1378
2419
2475
835
-760
-546
317
334
76
139
161
96
137
167
145
163
193
203
209
215
242
279
286
284
309
334
345
368
401
421
435
449
458
468
482
482
461
421
346
233
100
-29
-142
-223
-274
-311
-339
-344
-335
-333
-334
-326
-323
-325
-318
-310
-309
-311
-313
-317
-313
-307
-316
-322
-303
-286
-295
-298
-278
-265
-267
-263
-252
-253
-255
-240
-221
-216
-216
-209
-201
-195
-190
-188
-187
-181
-173
-169
-162
-154
-153
-154
-146
-138
-139
-140
-137
-132
-125
-125
-129
-120
-107
-107
-110
-111
-123
-130
-128
-144
-176
-191
-178
-155
-134
-100
-64
-75
-86
-32
-30
-80
88
644
1619
2587
2245
366
-890
-333
402
252
57
152
137
87
137
147
134
163
177
181
209
234
244
260
278
292
313
335
350
363
388
417
442
458
469
480
487
485
469
420
327
209
84
-47
-161
-239
-289
-324
-340
-341
-339
-336
-330
-320
-312
-312
-314
-311
-305
-306
-315
-319
-309
-295
-292
-295
-293
-290
-285
-275
-269
-270
-264
-251
-244
-236
-223
-216
-213
-207
-199
-194
-190
-191
-189
-175
-160
-156
-154
-150
-147
-144
-141
-138
-134
-127
-123
-121
-116
-106
-102
-104
-101
-101
-108
-100
-81
-87
-112
-115
-105
-116
-148
-173
-172
-144
-119
-101
-72
-61
-69
-23
1
-73
0
455
1317
2372
2547
1004
-693
-624
267
363
90
129
163
92
117
146
129
154
187
189
198
216
227
244
267
284
297
313
333
355
377
399
421
443
461
471
475
476
470
440
365
244
100
-36
-152
-245
-310
-349
-377
-386
-375
-366
-366
-360
-351
-351
-354
-348
-340
-340
-347
-354
-350
-343
-344
-344
-333
-325
-334
-335
-315
-300
-303
-305
-291
-277
-275
-272
-261
-254
-253
-244
-231
-225
-222
-219
-216
-211
-200
-189
-188
-189
-177
-163
-168
-176
-160
-138
-134
-139
-137
-130
-127
-128
-123
-111
-111
-116
-102
-92
-105
-111
-105
-118
-144
-163
-170
-150
-112
-92
-72
-41
-42
-27
22
-13
-32
258
951
1993
2704
1831
-112
-813
18
498
228
138
229
181
171
221
215
222
250
249
266
304
318
329
352
366
382
415
443
455
473
502
526
546
569
592
601
604
610
594
530
431
312
173
31
-82
-158
-206
-238
-257
-259
-256
-258
-254
-240
-231
-227
-222
-224
-230
-233
-235
-238
-239
-241
-250
-252
-239
-232
-239
-236
-222
-217
-225
-225
-216
-218
-231
-224
-201
-199
-211
-209
-202
-209
-212
-200
-198
-209
-211
-203
-204
-210
-209
-208
-212
-216
-218
-220
-223
-231
-240
-233
-222
-229
-244
-245
-242
-245
-247
-248
-258
-275
-289
-299
-309
-334
-370
-381
-348
-313
-305
-291
-275
-286
-261
-221
-279
-276
60
800
1865
2419
1288
-617
-1036
-151
182
-105
-139
-64
-129
-130
-83
-92
-85
-63
-55
-22
13
15
26
62
85
103
136
166
186
214
248
277
303
329
358
390
411
408
391
353
262
123
-17
-133
-231
-302
-339
-355
-361
-349
-325
-303
-293
-280
-249
-218
-205
-198
-179
-163
-155
-140
-120
-108
-99
-81
-67
-51
-19
13
24
33
53
75
91
106
125
148
163
170
188
218
238
248
261
273
282
293
305
313
322
334
341
345
354
359
363
372
379
376
372
373
375
373
365
360
360
357
347
335
327
319
299
269
246
235
212
168
120
88
87
102
98
86
84
56
30
51
7
-73
83
594
1496
2436
2110
223
-1083
-583
100
-90
-314
-258
-326
-419
-399
-424
-486
-504
-523
-552
-569
-587
-606
-623
-646
-668
-681
-694
-706
-708
-717
-729
-723
-712
-724
-736
-718
