# session 9
-25
-76
78
-24
-635
-1162
-1183
-1071
-1100
-1105
-1039
-976
-898
-837
-823
-814
-806
-768
-681
-676
-686
-418
146
843
1240
554
-829
-1252
-554
-157
-309
-310
-206
-230
-211
-133
-98
-53
18
70
125
200
272
339
411
476
528
567
579
545
456
323
175
37
-73
-149
-194
-214
-216
-208
-196
-185
-173
-159
-150
-150
-150
-151
-158
-169
-188
-217
-241
-270
-304
-281
-182
-115
-134
-163
-179
-198
-167
-142
-212
-215
84
830
1803
1878
421
-960
-744
3
39
-116
-14
20
-7
61
119
148
215
282
333
392
447
493
536
570
593
609
612
594
530
408
260
122
4
-93
-162
-207
-245
-280
-297
-294
-301
-324
-334
-322
-317
-328
-338
-335
-331
-341
-360
-374
-387
-407
-384
-298
-240
-259
-287
-298
-301
-256
-223
-284
-283
11
812
1956
2160
595
-992
-833
-42
-17
-205
-101
-61
-97
-35
18
44
114
184
236
298
364
428
496
554
602
650
687
689
636
516
344
170
22
-102
-192
-242
-283
-327
-357
-371
-385
-390
-383
-380
-382
-380
-368
-357
-350
-340
-333
-345
-365
-379
-404
-414
-345
-247
-224
-253
-273
-282
-249
-203
-248
-263
-3
669
1671
2097
938
-730
-962
-200
8
-200
-158
-82
-108
-61
1
20
70
132
173
224
285
341
407
474
529
575
617
642
614
501
328
160
24
-88
-169
-215
-244
-264
-274
-278
-287
-299
-309
-321
-331
-336
-338
-342
-343
-347
-365
-382
-384
-400
-409
-341
-235
-208
-243
-268
-280
-263
-239
-281
-297
-68
670
1910
2492
1192
-696
-982
-203
-15
-197
-86
-20
-155
-176
-55
27
33
48
118
191
255
348
424
449
471
523
597
644
575
396
239
151
39
-133
-246
-224
-194
-267
-333
-304
-274
-312
-352
-351
-360
-391
-389
-344
-305
-291
-335
-433
-454
-383
-352
-304
-179
-175
-298
-306
-247
-263
-229
-153
-161
111
1101
2093
1633
-137
-1191
-688
2
8
-101
-18
25
4
-29
-37
76
207
229
274
382
415
422
504
579
613
666
693
666
615
467
242
113
65
-23
-87
-115
-241
-379
-350
-249
-241
-290
-315
-319
-315
-317
-336
-353
-334
-302
-294
-302
-304
-295
-255
-199
-192
-223
-243
-262
-248
-183
-184
-238
-108
399
1250
1762
941
-619
-1059
-313
86
-92
-119
-37
-71
-58
8
29
61
125
184
251
320
379
441
497
541
590
636
648
609
506
354
195
51
-71
-163
-225
-273
-308
-332
-346
-352
-355
-359
-361
-361
-362
-363
-357
-346
-346
-364
-380
-388
-399
-393
-331
-253
-233
-254
-266
-283
-275
-221
-234
-283
-108
461
1338
1831
976
-617
-1078
-337
70
-100
-124
-36
-65
-58
-9
9
66
152
198
243
319
388
450
533
616
669
706
732
695
568
387
207
56
-65
-164
-236
-269
-285
-306
-321
-327
-332
-342
-350
-349
-346
-355
-366
-352
-332
-338
-352
-352
-363
-377
-339
-262
-228
-239
-251
-281
-278
-199
-197
-277
-157
288
1045
1753
1377
-131
-977
-433
89
-48
-118
-1
-12
-25
41
72
99
161
212
266
335
391
439
500
561
608
648
669
637
537
387
226
85
-25
-106
-163
-202
-226
-244
-257
-267
-275
-284
-292
-296
-301
-310
-316
-314
-323
-349
-365
-374
-396
-382
-291
-216
-230
-262
-271
-270
-223
-189
-255
-265
19
818
1987
2266
769
-843
-768
-30
-23
-218
-115
-78
-120
-56
-5
11
74
143
197
271
345
398
447
492
526
545
542
502
410
266
107
-28
-128
-205
-263
-301
-324
-337
-350
-366
-373
-370
-372
-378
-369
-350
-347
-348
-332
-323
-357
-403
-414
-414
-430
-400
-295
-225
-246
-272
-273
-281
-250
-216
-261
-241
102
936
1993
2082
538
-977
-818
-33
12
-181
-88
-48
-89
-24
35
43
101
182
238
303
388
467
540
628
721
782
802
799
745
596
390
202
56
-69
-176
-249
-286
-310
-336
-350
-349
-352
-359
-359
-359
-363
-358
-347
-343
-339
-329
-329
-344
-344
-327
-320
-333
-355
-369
-322
-223
-175
-201
-215
-214
-213
-172
-163
-212
-122
280
1107
2025
1789
90
-1097
-604
90
-7
-144
-30
-30
-57
17
54
60
110
166
214
279
358
434
501
572
647
706
739
728
636
475
307
150
-3
-123
-191
-233
-277
-312
-324
-329
-338
-340
-338
-344
-348
-339
-336
-344
-345
-339
-338
-336
-332
-347
-367
-374
-390
-387
-304
-211
-214
-256
-259
-258
-237
-192
-232
-279
-68
580
1629
2218
1187
-605
-1026
-236
63
-166
-147
-56
-102
-72
2
19
65
144
206
274
354
429
510
596
666
722
764
769
709
572
386
199
40
-86
-175
-233
-277
-311
-333
-348
-359
-360
-356
-356
-352
-346
-349
-355
-348
-338
-331
-322
-312
-306
-297
-288
-297
-316
-321
-322
-340
-329
-250
-166
-166
-218
-234
-194
-141
-134
-175
-165
34
729
1995
2608
1280
-659
-971
-175
40
-175
-131
-56
-90
-45
18
29
66
124
168
223
282
331
388
458
521
565
599
625
612
532
398
241
85
-40
-124
-194
-246
-255
-272
-327
-348
-326
-340
-367
-342
-315
-329
-345
-345
-347
-350
-336
-288
-253
-292
-347
-335
-310
-322
-315
-290
-306
-305
-215
-139
-171
-216
-193
-176
-195
-185
-180
-244
-208
83
577
1296
1787
916
-912
-1496
-570
-53
-229
-97
49
-211
-276
8
137
91
164
307
372
417
469
484
534
617
616
632
778
843
739
672
604
373
126
-10
-94
-53
151
285
230
153
127
36
-101
-72
160
299
135
-91
-95
-35
-107
-127
-11
-7
-127
-146
-160
-315
-384
-250
-144
-171
-224
-261
-277
-302
-383
-425
-375
-363
-221
403
1150
1085
-67
-1407
-1793
-1166
-468
-244
-256
-269
-271
-239
-165
-97
-93
-113
-33
98
144
176
278
400
553
682
603
399
358
427
322
56
-138
-196
-219
-283
-377
-433
-426
-397
-355
-291
-237
-203
-168
-134
-112
-105
-95
-25
77
85
-2
-24
73
153
181
294
415
298
99
135
215
124
94
173
140
159
659
1570
1906
782
-849
-1222
-534
-169
-218
-147
-100
-173
-164
-160
-210
-38
306
383
191
160
337
434
446
503
515
401
248
102
-65
-254
-419
-490
-429
-351
-447
-634
-568
-306
-280
-394
-256
-130
-323
-431
-264
-235
-383
-397
-356
-429
-494
-490
-501
-522
-502
-442
-386
-339
-229
-105
-113
-127
-2
38
-30
83
427
1298
2798
3232
1350
-629
-526
286
275
103
219
207
132
173
187
211
339
433
412
373
412
551
711
753
695
698
762
720
520
261
15
-210
-419
-581
-625
-547
-480
-479
-432
-363
-434
-600
-709
-769
-776
-672
-569
-571
-597
-631
-679
-598
-488
-631
-764
-496
-243
-448
-649
-419
-204
-399
-575
-352
149
1144
2430
2264
125
-1456
-1020
-267
-276
-300
-134
-108
-77
35
98
155
238
318
423
537
649
809
968
1037
1050
1075
1071
985
846
688
492
302
175
27
-159
-242
-236
-268
-268
-203
-208
-259
-244
-239
-285
-289
-267
-282
-316
-377
-480
-519
-423
-302
-303
-417
-528
-581
-582
-523
-511
-592
-458
66
729
1215
947
-383
-1534
-1231
-340
-143
-337
-289
-112
-34
-34
-31
-19
-38
-15
127
305
416
427
381
414
531
566
499
427
340
227
122
30
-24
-39
-102
-184
-159
-63
-5
58
153
188
155
139
134
110
134
179
116
18
41
85
48
56
108
37
-73
-78
-101
-164
-153
-195
-289
-117
516
1600
2397
1525
-525
-1307
-488
-46
-379
-431
-170
-80
-108
-136
-184
-197
-122
8
102
153
258
411
521
569
570
542
518
415
178
-14
-81
-239
-533
-675
-585
-531
-613
-633
-532
-479
-501
-485
-464
-543
-658
-665
-564
-495
-519
-559
-565
-527
-433
-364
-384
-375
-306
-288
-246
-135
-144
-182
19
548
1752
3243
3040
796
-698
-202
327
31
-53
206
243
131
94
152
232
183
127
323
563
560
515
572
550
537
713
825
683
496
331
74
-174
-289
-345
-401
-454
-510
-558
-606
-673
-718
-756
-814
-807
-734
-737
-844
-946
-940
-817
-736
-779
-741
-562
-476
-524
-533
-421
-205
-107
-320
-481
-253
255
1284
2537
2196
-4
-1400
-824
-98
-140
-175
-50
-63
-28
143
245
274
364
494
572
630
748
877
970
1094
1197
1174
1142
1154
1016
734
535
432
324
233
166
108
97
103
31
-94
-143
-104
-113
-178
-206
-254
-310
-220
-115
-217
-361
-353
-268
-156
-55
-127
-389
-663
-773
-667
-579
-655
-500
81
606
598
-197
-1468
-1969
-1263
-624
-679
-748
-672
-625
-342
20
-31
-382
-588
-409
53
380
453
577
711
629
539
594
580
470
411
318
109
-69
-136
-163
-147
-64
8
24
45
90
107
94
116
163
170
156
152
142
172
217
108
-63
18
247
227
16
-25
108
190
90
-191
-315
44
696
1542
2312
1776
-105
-1097
-436
88
-166
-270
-123
-114
-145
-158
-202
-208
-187
-161
-92
-14
71
185
268
291
293
280
237
121
-79
-241
-336
-474
-587
-558
-475
-366
-222
-221
-352
-373
-330
-390
-462
-466
-466
-458
-440
-465
-480
-437
-422
-447
-396
-300
-282
-275
-220
-243
-285
-194
-155
-212
-79
313
1268
2827
3164
1123
-794
-522
231
68
-70
120
63
-63
-4
78
192
326
308
241
339
517
597
585
595
689
783
778
726
677
532
282
60
-114
-253
-291
-303
-410
-510
-499
-472
-510
-572
-591
-578
-600
-646
-649
-635
-607
-526
-520
-613
-578
-493
-606
-709
-628
-571
-475
-285
-364
-597
-457
212
1396
2226
1184
-829
-1231
-296
-23
-300
-240
-109
-116
-73
-31
37
234
402
447
497
594
682
762
832
880
945
1010
986
883
776
604
341
161
129
74
-15
23
124
99
-6
-5
78
45
-109
-194
-202
-237
-244
-212
-253
-308
-248
-171
-177
-193
-219
-343
-453
-366
-226
-299
-443
-243
364
975
922
-238
-1698
-1936
-1012
-395
-479
-530
-370
-303
-328
-344
-334
-255
-156
-120
-13
223
349
306
256
194
270
722
1091
838
350
111
-30
-184
-256
-309
-362
-331
-284
-282
-244
-161
-107
-78
-58
-64
-76
-70
-57
-24
29
59
88
176
249
225
195
221
212
184
184
72
-58
63
396
1196
2550
2778
778
-1091
-804
20
-91
-253
-20
33
-66
-29
52
91
104
111
165
234
298
450
614
578
442
422
392
184
-59
-209
-351
-553
-749
-828
-773
-714
-676
-527
-345
-365
-493
-462
-272
-88
-121
-471
-749
-550
-259
-367
-569
-464
-298
-357
-460
-442
-444
-506
-492
-451
-446
-276
199
1010
1909
1809
210
-1171
-866
-20
68
-93
62
202
155
188
369
462
406
429
582
654
608
630
752
859
960
1036
923
671
551
551
426
172
-34
-144
-220
-266
-264
-247
-268
-341
-429
-449
-378
-308
-324
-404
-482
-502
-469
-472
-535
-560
-550
-587
-610
-573
-543
-503
-493
-587
-525
-111
524
1390
1867
752
-1071
-1363
-506
-310
-509
-293
-143
-260
-229
-123
-120
-66
50
102
160
283
358
396
564
807
905
859
809
744
592
394
223
84
-37
-91
-47
40
89
69
45
86
126
66
-3
34
93
86
69
2
-188
-280
-81
73
-131
-336
-199
-29
-98
-227
-262
-194
42
621
1675
2344
1226
-870
-1509
-632
-131
-324
-420
-407
-482
-537
-552
-460
-205
-24
-53
-96
-20
76
118
191
321
338
209
169
240
176
-20
-131
-171
-321
-594
-735
-584
-395
-440
-550
-510
-438
-458
-498
-493
-483
-496
-478
-402
-327
-275
-208
-137
-94
-82
-84
-36
36
19
37
212
554
1587
3203
3310
1094
-702
-368
311
190
81
130
-6
-58
66
117
112
157
243
343
415
455
501
534
553
576
571
544
516
421
250
80
-89
-269
-404
-475
-505
-523
-568
-616
-612
-580
-603
-692
-734
-691
-743
-909
-891
-627
-420
-354
-298
-294
-385
-435
-354
-234
-270
-423
-406
-159
493
1817
2542
1047
-1106
-1310
-357
-157
-341
-202
-113
-141
-32
77
100
173
288
352
407
525
668
775
896
1036
1078
1046
1068
982
671
477
494
320
21
-1
64
-42
-63
80
94
-69
-200
-219
-225
-294
-367
-414
-494
-599
-655
-666
-667
-623
-545
-559
-622
-571
-539
-553
-136
741
1280
861
-382
-1571
-1684
-895
-348
-376
-436
-338
-290
-291
-217
-107
-25
27
-10
-20
210
453
418
339
444
550
501
357
284
346
322
79
-137
-179
-213
-283
-283
-237
-210
-175
-118
-85
-116
-186
-229
-241
-241
-185
-78
-24
-37
-33
16
46
5
-12
56
54
-5
45
237
1137
2974
3646
1561
-748
-754
40
-33
-238
-127
-136
-165
-57
-7
-2
58
106
139
206
256
292
414
579
610
516
433
346
168
-61
-248
-369
-460
-546
-589
-552
-465
-389
-414
-545
-596
-525
-582
-741
-677
-517
-627
-815
-733
-560
-546
-566
-521
-504
-483
-410
-438
-491
-248
352
1316
2247
1833
22
-987
-362
226
84
27
148
109
93
206
283
294
318
390
482
548
616
718
771
739
704
678
617
546
490
398
256
132
82
86
69
24
9
-19
-129
-230
-214
-166
-192
-225
-179
-140
-188
-254
-324
-431
-454
-356
-358
-497
-539
-492
-450
-226
270
1010
1813
1706
223
-1029
-822
-277
-328
-433
-378
-420
-426
-322
-271
-257
-216
-167
-87
31
124
176
252
368
446
438
404
370
286
152
16
-104
-189
-228
-262
-304
-316
-294
-297
-346
-391
-446
-556
-627
-622
-687
-779
-705
-603
-634
-594
-439
-419
-499
-460
-400
-437
-357
56
859
1847
1992
563
-964
-870
-42
91
-77
8
56
23
77
111
89
97
131
198
293
372
455
563
638
677
723
747
694
582
447
284
119
11
-51
-137
-243
-252
-116
12
7
-57
-111
-173
-176
-65
54
91
