# session 32
15
-3
42
24
-132
-256
-249
-232
-205
-153
-200
-189
176
922
1988
2648
1640
-329
-916
-87
270
-22
-62
31
-29
-28
30
25
36
74
86
101
131
151
172
203
231
257
284
312
346
382
411
441
478
515
547
574
596
605
590
531
415
257
90
-59
-183
-278
-341
-374
-386
-385
-379
-369
-356
-345
-336
-328
-320
-316
-315
-315
-315
-313
-310
-309
-305
-297
-292
-289
-281
-274
-272
-266
-254
-247
-243
-236
-226
-216
-210
-207
-202
-194
-187
-181
-175
-168
-164
-159
-152
-148
-146
-141
-137
-135
-131
-125
-123
-120
-112
-105
-103
-104
-104
-105
-105
-100
-95
-92
-92
-90
-86
-85
-84
-79
-79
-89
-99
-105
-121
-150
-172
-163
-131
-114
-92
-56
-58
-63
-7
-14
-71
127
702
1646
2619
2356
493
-874
-404
341
216
16
112
102
50
103
118
104
133
154
159
182
205
220
244
271
293
318
344
371
401
434
468
502
536
568
596
618
634
632
587
485
335
167
4
-138
-248
-324
-371
-393
-397
-396
-390
-378
-365
-356
-351
-344
-339
-336
-334
-329
-326
-326
-327
-324
-319
-314
-309
-305
-300
-293
-286
-280
-272
-262
-256
-253
-247
-238
-230
-225
-218
-209
-202
-198
-194
-188
-182
-176
-172
-167
-161
-157
-153
-148
-142
-138
-137
-135
-131
-126
-124
-122
-119
-116
-114
-110
-107
-107
-104
-99
-102
-110
-116
-125
-143
-167
-184
-170
-141
-125
-95
-65
-79
-63
-8
-52
-56
288
1037
2095
2711
1670
-317
-922
-65
355
81
25
115
49
33
91
95
100
128
129
121
140
180
220
241
248
270
306
332
350
381
411
430
461
508
535
531
533
542
524
462
349
195
45
-73
-175
-263
-319
-343
-351
-350
-344
-334
-322
-310
-306
-301
-287
-276
-288
-301
-286
-270
-278
-283
-276
-274
-275
-270
-268
-268
-258
-248
-247
-245
-234
-222
-214
-213
-223
-225
-200
-174
-181
-200
-194
-172
-166
-171
-169
-156
-144
-141
-141
-134
-132
-133
-124
-116
-125
-125
-103
-93
-100
-100
-98
-104
-104
-101
-112
-134
-142
-132
-117
-92
-63
-58
-50
-12
-17
-36
134
669
1699
2724
2325
335
-1022
-532
239
178
4
83
75
30
72
88
81
106
120
122
144
164
173
190
210
224
237
255
276
294
308
328
350
356
352
357
367
362
339
300
234
136
26
-75
-161
-229
-274
-302
-317
-322
-320
-314
-303
-295
-293
-287
-279
-281
-287
-286
-281
-280
-285
-288
-282
-276
-277
-278
-275
-272
-266
-257
-249
-242
-237
-231
-220
-212
-215
-214
-199
-189
-194
-193
-183
-183
-181
-169
-159
-155
-151
-147
-147
-150
-150
-148
-155
-167
-175
-199
-227
-209
-166
-143
-121
-108
-111
-79
-63
-101
68
729
1797
2609
2037
83
-1249
-760
130
191
22
89
100
57
101
125
116
142
167
173
193
220
242
264
290
317
345
376
411
447
487
533
579
621
665
711
745
758
743
669
515
308
100
-81
-230
-345
-422
-465
-479
-474
-461
-447
-433
-418
-403
-390
-381
-376
-374
-373
-371
-372
-373
-370
-369
-370
-365
-358
-357
-357
-354
-346
-338
-330
-323
-315
-312
-312
-302
-292
-292
-299
-310
-321
-320
-292
-230
-162
-147
-174
-199
-218
-217
-194
-203
-199
-155
-201
-222
99
841
2000
2910
2090
-78
-1016
-240
242
-49
-130
-22
-80
-96
-30
-27
-22
15
33
55
90
114
143
178
205
239
281
321
363
413
466
521
582
646
702
744
774
777
715
566
354
128
-78
-246
-372
-456
-501
-516
-519
-512
-497
-479
-462
-447
-433
-421
-411
-402
-394
-389
-384
-376
-370
-367
-358
-347
-342
-338
-330
-324
-320
-311
-306
-306
-294
-266
-225
-169
-141
-172
-211
-220
-216
-199
-199
-215
-174
-148
-217
-139
275
1111
2383
2932
1409
-705
-923
34
213
-85
-43
15
-58
-29
16
5
34
77
90
116
153
178
207
240
270
304
341
379
418
468
522
571
617
666
710
741
754
723
618
449
255
65
-99
-223
-307
-355
-373
-376
-378
-374
-356
-335
-320
-308
-298
-294
-290
-278
-271
-275
-271
-261
-262
-263
-257
-261
-263
-240
-225
-239
-238
-214
-216
-232
-229
-237
-256
-230
-180
-172
-179
-164
-166
-187
-186
-183
-204
-209
-191
-189
-189
-163
-139
-146
-156
-157
-165
-159
-131
-122
-134
-152
-178
-173
-121
-100
-116
-104
-105
-164
-185
-162
-200
-242
-190
-123
-111
-115
-94
-63
-77
-101
-24
1
-124
-11
514
1301
2308
2613
1138
-651
-655
198
256
19
99
87
-24
31
94
77
96
148
182
196
190
188
214
239
251
299
369
388
408
482
510
484
537
653
689
671
725
811
794
695
575
385
144
-37
-150
-228
-276
-343
-409
-391
-355
-396
-435
-396
-352
-357
-370
-370
-379
-382
-362
-359
-374
-367
-353
-355
-355
-359
-347
-320
-342
-360
-316
-310
-340
-291
-250
-300
-315
-265
-251
-264
-253
-249
-263
-246
-210
-212
-225
-213
-206
-197
-171
-177
-212
-195
-139
-145
-198
-181
-118
-135
-179
-133
-102
-164
-171
-115
-142
-197
-178
-165
-183
-174
-172
-175
-107
-34
-52
-64
-25
-72
-107
180
863
1899
2780
2202
200
-947
-324
308
108
-2
155
111
36
128
162
95
97
169
200
194
235
300
288
240
283
382
416
408
456
543
588
596
645
730
784
816
872
890
785
600
420
212
-36
-236
-366
-460
-478
-463
-520
-566
-499
-424
-421
-428
-409
-396
-410
-422
-387
-348
-361
-376
-370
-385
-382
-340
-328
-347
-347
-349
-346
-302
-268
-286
-300
-271
-239
-241
-263
-263
-223
-203
-243
-243
-157
-131
-198
-224
-203
-192
-165
-140
-148
-147
-146
-177
-182
-137
-116
-143
-147
-121
-124
-136
-110
-93
-114
-131
-125
-118
-149
-202
-188
-115
-90
-109
-91
-68
-102
-115
-20
34
-47
9
401
1171
2380
3056
1790
-298
-743
99
315
1
21
102
-10
2
113
91
41
89
131
133
165
197
191
207
277
325
291
272
362
464
486
501
545
586
640
687
672
670
723
682
472
239
88
-44
-194
-324
-412
-448
-431
-432
-456
-421
-368
-386
-390
-341
-348
-376
-332
-311
-356
-348
-314
-331
-307
-259
-322
-392
-330
-255
-269
-298
-290
-264
-237
-232
-248
-262
-253
-215
-187
-215
-251
-212
-164
-196
-230
-192
-160
-176
-180
-173
-182
-169
-130
-132
-169
-176
-136
-103
-132
-188
-170
-106
-103
-126
-100
-98
-149
-139
-73
-75
-130
-143
-123
-119
-141
-177
-196
-158
-114
-129
-127
-68
-65
-74
-12
-15
-28
256
962
2078
2893
2016
-73
-923
-137
364
90
-28
89
80
46
69
78
93
127
156
178
186
185
206
239
260
292
339
363
396
478
526
514
565
669
704
713
787
854
848
774
607
370
157
16
-104
-282
-459
-490
-431
-427
-442
-437
-448
-422
-363
-384
-426
-373
-303
-315
-356
-366
-355
-334
-322
-334
-340
-336
-354
-368
-338
-294
-267
-271
-310
-319
-266
-249
-290
-298
-268
-246
-227
-224
-243
-237
-217
-215
-202
-181
-186
-206
-212
-191
-160
-158
-181
-172
-141
-150
-173
-151
-124
-139
-146
-115
-111
-151
-173
-142
-103
-104
-129
-151
-169
-174
-157
-164
-201
-185
-124
-115
-124
-77
-34
-28
-57
-118
-13
399
1134
2260
2916
1743
-249
-684
114
306
11
34
108
39
46
63
51
116
153
108
128
195
199
207
261
274
271
330
390
409
443
488
528
610
715
762
749
761
828
856
755
565
379
211
28
-162
-314
-395
-416
-433
-468
-462
-408
-406
-442
-390
-309
-317
-348
-343
-333
-324
-337
-367
-330
-256
-258
-297
-292
-284
-296
-278
-256
-285
-303
-252
-202
-219
-254
-240
-199
-226
-306
-291
-177
-121
-154
-178
-164
-163
-187
-186
-167
-199
-226
-148
-81
-133
-187
-174
-163
-152
-123
-138
-189
-199
-175
-162
-157
-152
-153
-156
-156
-158
-161
-167
-183
-189
-181
-195
-218
-196
-159
-149
-122
-93
-113
-87
-28
-97
-36
539
1386
1951
1692
358
-976
-881
31
309
115
133
195
151
175
222
215
224
250
258
274
300
320
342
368
392
416
446
481
522
566
614
668
728
791
854
916
971
1004
988
885
691
449
205
-14
-196
-327
-412
-464
-485
-478
-465
-456
-443
-426
-414
-406
-397
-388
-383
-381
-379
-376
-373
-372
-371
-369
-366
-362
-357
-351
-346
-342
-338
-333
-323
-313
-306
-300
-293
-287
-282
-274
-266
-264
-265
-255
-238
-231
-233
-229
-222
-218
-215
-208
-204
-202
-196
-188
-184
-182
-177
-179
-186
-196
-219
-255
-281
-273
-232
-196
-186
-158
-125
-137
-111
-51
-122
-141
263
1075
2066
2556
1553
-221
-712
30
311
29
1
84
26
31
85
80
92
129
142
155
181
203
229
259
286
318
360
403
448
500
561
629
704
782
861
936
997
1029
1002
883
667
403
145
-86
-277
-412
-494
-538
-555
-552
-542
-532
-518
-502
-487
-474
-464
-457
-450
-441
-435
-432
-428
-420
-413
-407
-401
-395
-387
-378
-370
-363
-355
-344
-333
-326
-319
-308
-298
-292
-285
-275
-265
-257
-249
-243
-241
-241
-246
-259
-273
-270
-232
-156
-97
-99
-133
-157
-165
-147
-141
-155
-118
-99
-180
-105
374
1299
2476
2753
1164
-686
-720
143
224
-53
-1
40
-29
6
48
40
68
105
119
146
178
201
229
263
293
327
366
408
453
502
558
619
681
743
803
857
897
908
853
709
498
269
53
-135
-279
-369
-418
-441
-446
-441
-431
-422
-411
-402
-396
-390
-385
-381
-377
-372
-369
-366
-361
-355
-351
-345
-337
-329
-322
-314
-304
-296
-290
-283
-276
-269
-260
-251
-245
-241
-234
-225
-219
-214
-205
-197
-192
-188
-183
-179
-174
-168
-164
-161
-157
-151
-146
-142
-140
-136
-130
-133
-146
-153
-161
-186
-210
-213
-192
-163
-150
-130
-90
-87
-94
-37
-37
-108
55
601
1528
2558
2447
641
-861
-497
300
220
-2
89
90
31
83
110
98
126
147
152
175
198
215
241
268
291
319
349
377
410
447
486
529
575
620
662
702
733
745
721
635
485
307
131
-30
-164
-261
-324
-363
-385
-392
-391
-387
-383
-381
-380
-379
-379
-379
-377
-375
-374
-374
-370
-365
-362
-357
-350
-343
-338
-331
-324
-316
-309
-301
-293
-286
-277
-267
-259
-254
-248
-242
-234
-227
-222
-215
-205
-200
-197
-190
-183
-180
-177
-172
-169
-164
-158
-156
-151
-141
-137
-138
-133
-128
-133
-143
-157
-179
-199
-208
-198
-168
-142
-127
-93
-74
-93
-59
-13
-78
-38
381
1188
2253
2680
1365
-559
-848
65
330
44
48
120
55
74
127
115
126
159
167
180
206
224
246
274
300
325
354
384
413
446
483
521
564
609
650
687
719
737
725
659
524
344
162
-3
-144
-251
-323
-368
-392
-397
-395
-392
-386
-378
-373
-372
-373
-372
-370
-369
-369
-368
-365
-361
-358
-355
-349
-340
-333
-327
-322
-314
-306
-298
-290
-282
-275
-266
-259
-255
-247
-239
-233
-227
-219
-214
-212
-205
-198
-192
-188
-184
-179
-173
-167
-162
-157
-154
-150
-145
-143
-141
-135
-131
-137
-145
-156
-174
-193
-209
-210
-182
-154
-141
-107
-80
-96
-67
-21
-86
-59
351
1167
2238
2665
1370
-519
-803
90
340
49
49
118
53
67
115
104
120
153
159
174
201
217
236
264
290
316
344
375
409
444
481
520
564
608
651
690
720
738
727
661
524
341
156
-12
-154
-260
-327
-366
-387
-395
-393
-385
-379
-375
-369
-364
-360
-359
-358
-356
-354
-352
-350
-347
-341
-335
-330
-327
-322
-315
-307
-300
-294
-287
-279
-271
-265
-260
-254
-247
-241
-236
-228
-219
-212
-207
-201
-194
-190
-186
-180
-174
-169
-164
-157
-150
-145
-141
-138
-134
-130
-127
-124
-123
-119
-115
-119
-131
-141
-152
-170
-189
-199
-189
-159
-134
-114
-80
-72
-84
-37
-14
-88
-1
464
1333
2407
2572
981
-731
-644
230
294
29
85
120
53
89
126
110
131
160
164
182
209
225
245
272
298
324
354
384
416
451
489
529
569
607
645
683
712
725
708
633
491
310
131
-31
-169
-270
-332
-369
-387
-391
-389
-384
-376
-369
-365
-364
-364
-364
-364
-365
-364
-362
-359
-356
-353
-348
-342
-336
-330
-325
-320
-314
-306
-299
-292
-284
-276
-268
-262
-254
-248
-243
-237
-230
-224
-219
-213
-206
-201
-196
-191
-184
-178
-174
-170
-164
-160
-156
-153
-150
-148
-145
-140
-136
-133
-129
-124
-123
-121
-117
-119
-127
-133
-139
-159
-183
-195
-191
-168
-137
-115
-93
-65
-74
-70
-9
-26
-88
120
711
1683
2644
2278
363
-886
-321
371
197
26
131
108
65
124
137
128
161
178
184
211
234
248
273
300
324
352
383
414
447
484
522
562
604
646
683
717
744
755
728
639
486
303
129
-26
-156
-248
-302
-330
-347
-351
-345
-336
-329
-321
-314
-312
-312
-311
-310
-309
-309
-310
-309
-305
-301
-295
-290
-287
-281
-272
-266
-263
-258
-251
-244
-238
-235
-232
-229
-221
-209
-200
-202
-207
-201
-189
-183
-185
-182
-176
-174
-177
-173
-163
-161
-163
-157
-153
-159
-162
-157
-159
-164
-159
-153
-155
-153
-148
-152
-155
-149
-152
-164
-166
-167
-186
-211
-235
-258
-252
-212
-185
-177
-149
-137
-152
-111
-84
-157
-52
485
1370
2273
2230
633
-950
-801
80
180
-56
-2
36
-22
12
47
34
55
81
87
106
133
152
177
204
227
256
290
322
359
402
448
494
544
596
647
694
732
754
740
656
496
300
109
-64
-209
-314
-377
-408
-419
-417
-406
-390
-370
-352
-335
-320
-307
-298
-290
-284
-278
-272
-265
-257
-249
-239
-228
-215
-202
-188
-175
-162
-148
-135
-123
-110
-95
-81
-69
-55
