# session 10
-67
-38
-87
-61
154
383
468
489
491
430
362
333
277
145
-23
-130
-155
-226
-364
-395
-308
-273
-299
-334
-400
-430
-376
-405
-556
-562
-348
-207
-259
-315
-322
-354
-340
-280
-310
-350
-175
445
1580
2290
1307
-477
-948
-264
16
-121
-30
79
32
51
117
145
205
289
357
425
475
496
508
498
460
441
442
411
339
282
246
193
146
126
94
71
90
63
-46
-111
-98
-108
-154
-203
-301
-397
-337
-193
-184
-283
-344
-382
-392
-372
-459
-502
-86
659
999
344
-990
-1713
-1161
-365
-254
-379
-325
-316
-365
-322
-252
-207
-155
-92
-15
40
61
147
313
439
497
539
546
510
477
418
290
153
65
0
-43
-35
-7
-8
-32
-51
-69
-101
-143
-147
-97
-45
-15
28
68
52
-4
2
75
46
-69
15
418
1179
2044
1865
266
-924
-546
59
-50
-202
-117
-102
-87
-2
22
30
82
104
118
189
261
280
282
285
292
311
292
182
50
-38
-133
-270
-396
-478
-521
-537
-544
-559
-586
-613
-619
-625
-628
-570
-465
-412
-410
-342
-233
-277
-439
-429
-283
-308
-408
-336
111
1369
2702
2043
-271
-1315
-592
-139
-334
-299
-160
-178
-113
4
26
57
130
149
150
233
375
465
483
514
564
564
533
533
528
456
344
250
176
116
94
102
70
-17
-89
-116
-139
-164
-175
-180
-182
-167
-152
-146
-157
-209
-242
-213
-246
-340
-244
217
1028
1596
879
-723
-1327
-654
-225
-389
-392
-239
-266
-339
-306
-210
-123
-94
-60
33
101
117
144
191
250
278
202
97
98
132
32
-179
-298
-226
-136
-190
-297
-356
-403
-425
-404
-412
-435
-396
-356
-369
-339
-226
-136
-136
-188
-199
-152
-154
-208
-189
167
1324
2748
2527
488
-796
-300
238
70
-23
44
1
20
92
66
53
136
223
244
231
259
332
365
353
368
388
373
372
364
282
210
213
178
69
-3
-62
-181
-255
-234
-258
-346
-368
-344
-377
-432
-445
-451
-467
-457
-475
-558
-573
-517
-540
-545
-390
35
1080
2126
1461
-535
-1340
-651
-309
-536
-460
-270
-298
-310
-259
-245
-179
-74
-32
-6
56
124
211
333
432
481
507
522
520
485
384
238
130
89
64
23
-12
-38
-57
-61
-71
-97
-113
-117
-125
-129
-125
-109
-105
-162
-211
-149
-108
-211
-246
25
700
1613
1767
467
-884
-771
-86
-63
-255
-163
-108
-188
-210
-177
-150
-102
-1
126
219
267
307
346
356
314
248
210
195
171
133
57
-62
-143
-145
-146
-194
-253
-305
-353
-369
-356
-364
-409
-484
-540
-490
-380
-371
-458
-489
-420
-343
-377
-468
-429
-164
588
1768
1960
363
-1046
-672
95
40
-118
-2
-3
-71
-27
41
109
188
239
290
376
447
481
515
531
508
513
543
490
384
344
330
278
229
181
111
76
65
-1
-82
-97
-85
-91
-109
-161
-198
-145
-113
-189
-236
-234
-297
-317
-260
-301
-255
249
909
811
-401
-1651
-1623
-721
-269
-367
-374
-293
-332
-341
-241
-176
-180
-141
-36
44
76
120
172
186
195
239
301
367
409
358
227
115
33
-72
-171
-214
-245
-289
-290
-245
-229
-246
-230
-189
-175
-181
-166
-133
-129
-151
-114
-40
-52
-86
40
538
1639
2638
2033
209
-630
-167
84
-90
-63
-29
-130
-80
36
7
-47
-10
74
162
223
258
307
350
326
292
311
287
205
216
261
167
65
89
70
-60
-154
-207
-286
-351
-377
-397
-408
-422
-443
-428
-411
-452
-490
-474
-443
-422
-476
-558
-419
-15
632
1513
1675
270
-1216
-1114
-411
-368
-484
-368
-354
-378
-293
-249
-235
-159
-87
-13
115
190
183
259
424
488
444
438
447
393
343
335
283
188
148
174
205
207
156
81
52
52
7
-74
-131
-148
-137
-124
-121
-134
-153
-151
-214
-396
-417
-55
601
1446
1831
870
-572
-811
-246
-158
-324
-275
-299
-358
-218
-117
-181
-193
-104
-36
-11
14
57
124
216
288
301
299
314
269
164
101
51
-86
-209
-189
-160
-254
-343
-334
-334
-385
-413
-419
-438
-441
-405
-367
-356
-370
-403
-402
-343
-325
-352
-271
102
1002
1993
1684
3
-978
-435
121
10
-57
40
21
43
148
188
239
358
400
351
369
439
429
395
434
467
442
428
429
401
379
349
242
118
80
70
5
-81
-151
-197
-214
-252
-324
-345
-310
-307
-314
-274
-244
-307
-410
-433
-448
-536
-385
238
783
464
-681
-1643
-1519
-695
-211
-211
-210
-166
-205
-228
-196
-138
-29
61
55
33
52
82
146
257
331
332
329
353
363
341
301
230
144
101
79
19
-40
-65
-109
-165
-166
-169
-218
-208
-110
-52
-40
25
90
68
64
146
171
77
-1
163
1057
2623
3173
1540
-422
-683
-137
-144
-342
-316
-311
-312
-236
-212
-199
-129
-110
-98
10
75
58
143
251
222
243
397
433
326
266
211
62
-113
-250
-348
-404
-442
-470
-475
-507
-579
-585
-504
-462
-477
-473
-475
-506
-500
-465
-467
-533
-621
-590
-392
56
1111
2183
1581
-399
-1277
-632
-241
-439
-432
-309
-305
-229
-127
-109
-72
-10
30
99
168
187
237
358
461
505
534
563
596
626
606
526
420
317
248
216
179
128
79
5
-67
-82
-92
-166
-230
-196
-135
-126
-138
-158
-176
-138
-141
-252
-206
192
824
1316
886
-520
-1338
-732
-20
-85
-250
-194
-209
-249
-220
-210
-183
-97
-14
49
83
97
149
214
232
263
318
308
253
229
184
84
-10
-87
-161
-195
-214
-266
-321
-356
-390
-410
-402
-399
-407
-390
-330
-249
-181
-167
-191
-173
-143
-198
-269
-222
239
1455
2498
1699
-219
-831
-119
187
-25
-8
95
59
59
108
120
153
222
237
190
179
232
280
287
270
270
330
407
422
407
401
338
212
114
36
-75
-141
-159
-254
-365
-346
-286
-296
-317
-321
-350
-392
-424
-447
-472
-510
-501
-453
-492
-492
-186
355
805
657
-367
-1320
-1093
-392
-337
-503
-314
-170
-275
-303
-188
-99
-70
-41
11
66
106
147
200
239
266
331
432
508
546
566
522
389
242
130
35
-24
-24
-28
-82
-124
-111
-107
-130
-94
-4
23
8
74
131
28
-85
-64
-52
-98
-43
325
1290
2265
1689
-214
-1099
-451
14
-141
-139
-45
-132
-166
-115
-95
-36
26
7
35
171
268
261
229
227
254
271
225
149
111
71
-22
-113
-180
-278
-378
-417
-446
-460
-392
-352
-443
-497
-457
-488
-517
-396
-293
-318
-334
-326
-346
-351
-367
-378
-331
-125
752
2128
2159
293
-1038
-549
82
-52
-151
-46
-84
-131
-73
-14
41
106
172
258
323
347
386
440
453
441
450
466
471
471
452
404
347
278
186
99
43
-18
-105
-171
-182
-170
-183
-233
-276
-262
-221
-200
-181
-199
-290
-331
-250
-219
-304
-283
53
689
1104
445
-985
-1569
-900
-296
-329
-395
-310
-299
-314
-272
-235
-227
-192
-84
39
110
172
214
150
76
141
232
193
112
103
135
161
148
67
-29
-83
-146
-234
-264
-215
-173
-187
-212
-209
-204
-205
-195
-189
-165
-107
-91
-104
-65
-42
-70
-56
276
1424
2795
2421
306
-864
-281
199
-3
-79
-57
-147
-89
46
56
46
51
24
54
154
212
212
208
209
192
163
163
205
234
207
141
75
43
27
-37
-143
-221
-271
-319
-348
-369
-412
-426
-371
-312
-308
-345
-396
-427
-442
-480
-487
-429
-406
-353
-172
69
719
1846
1922
143
-1358
-1004
-249
-270
-377
-250
-240
-256
-171
-128
-106
-8
110
185
234
279
327
363
370
381
425
463
474
480
446
352
270
239
193
97
36
58
56
-17
-51
-32
-76
-167
-181
-145
-148
-155
-142
-171
-216
-236
-275
-271
-204
-226
-222
97
717
1391
1448
286
-1033
-998
-267
-138
-243
-80
-59
-219
-205
-120
-142
-144
-61
14
49
98
168
220
255
283
264
216
226
239
138
5
-59
-132
-233
-267
-274
-346
-432
-460
-445
-402
-355
-356
-397
-415
-400
-370
-331
-304
-279
-235
-221
-224
-187
-218
-307
-154
437
1345
1890
1150
-330
-805
-196
114
-41
-9
103
58
39
101
140
165
187
169
151
204
283
327
358
374
356
370
422
398
311
270
251
193
135
112
81
29
-9
-46
-98
-114
-117
-205
-292
-219
-94
-85
-133
-169
-222
-252
-242
-246
-252
-277
-337
-184
348
929
998
222
-932
-1321
-738
-230
-259
-335
-288
-305
-335
-261
-146
-102
-110
-54
47
88
99
142
183
193
193
218
268
288
267
276
289
225
126
68
17
-65
-143
-186
-207
-208
-174
-144
-173
-223
-210
-135
-75
-48
-9
8
-33
-30
16
-9
-26
51
460
1736
3052
2299
-55
-1094
-416
-4
-199
-194
-107
-159
-143
-95
-112
-74
16
41
42
93
156
213
297
366
366
323
250
131
5
-88
-158
-218
-269
-313
-345
-373
-417
-467
-487
-499
-547
-585
-566
-552
-571
-546
-489
-471
-475
-502
-552
-521
-462
-504
-468
-163
519
1587
2017
717
-954
-1040
-299
-181
-303
-163
-99
-131
-68
-20
-5
73
164
230
300
371
466
588
645
598
542
547
574
567
507
414
330
282
250
200
147
113
62
-24
-94
-116
-118
-129
-155
-189
-193
-152
-122
-134
-161
-190
-194
-175
-221
-296
-127
491
1347
1587
528
-852
-989
-266
-13
-194
-224
-200
-235
-208
-162
-130
-66
-11
2
23
67
102
115
120
91
13
-35
-22
-30
-68
-99
-176
-258
-224
-167
-218
-280
-271
-284
-331
-334
-336
-369
-357
-311
-302
-266
-165
-95
-78
-77
-115
-155
-165
-189
-179
27
728
1821
2000
492
-945
-737
-44
-46
-157
-20
27
25
91
117
117
137
160
226
308
335
372
456
484
446
439
468
487
502
487
397
266
155
80
9
-110
-229
-248
-216
-251
-318
-337
-308
-255
-216
-219
-232
-235
-242
-258
-312
-354
-297
-283
-386
-252
288
853
955
244
-951
-1457
-898
-313
-265
-313
-290
-328
-334
-275
-236
-188
-112
-45
26
110
178
241
312
365
392
403
411
434
442
396
326
256
162
80
42
-5
-85
-147
-179
-209
-241
-260
-266
-270
-264
-233
-194
-165
-157
-185
-190
-118
-96
-152
-115
102
870
2361
3012
1428
-531
-654
5
-33
-209
-90
-80
-134
-65
-27
-33
16
65
81
131
221
286
304
319
353
388
403
394
359
301
216
113
24
-38
-105
-183
-249
-303
-354
-391
-429
-486
-527
-546
-575
-572
-511
-484
-513
-516
-531
-575
-538
-518
-612
-510
-20
609
985
519
-776
-1528
-975
-286
-289
-399
-303
-275
-285
-220
-164
-134
-81
-5
78
159
240
332
415
467
505
535
545
541
509
422
302
202
129
62
1
-44
-84
-125
-148
-155
-174
-200
-220
-234
-219
-157
-106
-102
-119
-151
-157
-105
-94
-154
-156
106
1037
2345
2380
659
-650
-332
160
7
-70
50
23
-1
59
66
70
130
182
213
232
227
235
283
312
285
261
301
386
431
372
253
165
113
48
-31
-111
-186
-233
-246
-267
-312
-343
-354
-379
-376
-293
-204
-187
-221
-279
-303
-249
-229
-297
-284
132
1206
2183
1528
-346
-1120
-461
-91
-321
-340
-223
-231
-198
-174
-238
-220
-123
-74
-8
96
120
87
142
257
283
214
190
267
332
262
88
-78
-197
-303
-392
-453
-517
-564
-546
-530
-570
-574
-518
-512
-540
-495
-433
-432
-453
-477
-472
-410
-412
-485
-386
49
794
1313
691
-650
-1031
-356
-22
-205
-207
-90
-82
-55
-15
7
91
189
232
264
299
316
346
396
438
471
508
545
578
585
520
392
276
178
57
-44
-75
-87
-113
-122
-119
-137
-157
-164
-177
-166
-100
-43
-62
-105
-101
-90
-125
-151
-151
-166
254
1614
2693
1629
-489
-1010
-205
41
-202
-153
-63
-118
-92
-34
-33
11
92
142
182
234
300
402
521
594
627
699
790
795
696
561
404
220
51
-76
-170
-235
-278
-314
-330
-329
-343
-374
-380
-352
-314
-295
-306
-323
-331
-362
-381
-348
-381
-447
-231
279
655
487
-338
-1198
-1150
-439
-111
-220
-245
-232
-281
-229
-136
-119
-99
-48
-1
69
144
188
260
389
491
530
583
677
703
573
349
146
-2
-133
-262
-335
-345
-385
-459
-452
-378
-375
-438
-454
-407
-357
-345
-360
-363
-366
-396
-387
-336
-353
-364
-150
329
824
727
-243
-1082
-806
-143
-66
-229
-174
-100
-92
-49
-33
-38
28
111
118
101
154
279
374
383
409
516
582
567
558
511
362
195
48
-97
-179
-187
-191
-205
-224
-265
-298
-268
-221
-245
-266
-160
-41
-76
-161
-172
-143
-94
-73
-163
-248
67
1089
2081
1576
-128
-921
-371
12
-145
-152
-46
-66
-54
3
5
26
103
178
231
276
332
412
499
570
615
644
677
692
651
556
425
273
134
36
-36
-93
-127
-140
-149
-165
-186
-192
-190
-203
-198
-149
-109
-116
-150
-186
-168
-120
-168
-240
-86
403
1029
1111
176
-810
-664
-10
82
-84
-36
-8
-62
-15
61
86
120
164
196
235
273
305
350
388
404
420
441
449
437
387
279
127
-25
-139
-207
-263
-314
-340
-350
-380
-417
-431
-448
-494
-515
-466
-404
-400
-436
-471
-479
-446
-434
-492
-514
-226
563
1266
735
-733
-1319
-663
-196
-333
-376
-280
-306
-315
-257
-234
-207
-152
-110
-71
-16
40
97
152
197
236
278
330
369
349
247
87
-83
-230
-347
-433
-481
-500
-509
-516
-528
-538
-537
-534
-519
-463
-397
-371
-376
-393
-406
-367
-318
-337
-338
-168
367
1255
1553
442
-840
-743
-37
46
-101
-2
48
15
82
153
179
244
332
408
498
592
672
787
969
1133
1212
1273
1339
1314
1167
975
785
617
500
428
379
351
347
