# session 14
-38
-37
-34
-50
-147
-276
-297
-247
-260
-319
-379
-402
-306
-202
-256
-336
-319
-317
-360
-397
-418
-368
-126
594
1698
1889
395
-1045
-839
-126
-125
-261
-135
-115
-164
-91
-7
36
102
186
261
324
407
493
512
526
593
597
576
625
466
2
-262
-147
-113
-262
-289
-225
-281
-377
-380
-356
-374
-383
-346
-295
-239
-178
-156
-181
-223
-264
-263
-248
-297
-299
-127
360
1436
2355
1510
-499
-1205
-502
-187
-403
-375
-284
-352
-349
-266
-200
-118
-4
127
248
334
402
446
450
464
484
445
366
283
185
90
5
-86
-141
-135
-135
-173
-215
-227
-198
-199
-271
-295
-239
-241
-295
-293
-272
-322
-424
-445
-357
-331
-402
-330
196
1285
2106
1347
-363
-928
-283
6
-200
-203
-124
-147
-100
-29
15
124
234
276
308
350
428
529
525
427
400
445
413
247
75
55
81
-36
-162
-157
-180
-259
-220
-155
-242
-356
-356
-330
-339
-320
-261
-230
-249
-267
-272
-276
-237
-173
-164
-141
95
694
1391
1243
-112
-1270
-1058
-354
-173
-213
-167
-181
-187
-94
2
73
129
181
277
386
440
483
550
578
572
607
639
576
449
327
197
61
-36
-95
-169
-279
-372
-383
-368
-419
-480
-463
-417
-393
-377
-382
-388
-351
-333
-339
-269
-227
-311
-270
94
703
1217
861
-421
-1155
-636
-88
-176
-247
-122
-109
-118
-36
40
66
55
121
341
483
392
324
403
434
418
476
448
223
45
37
-18
-194
-288
-238
-191
-217
-254
-256
-240
-256
-306
-315
-274
-262
-254
-164
-78
-108
-174
-164
-106
-84
-136
-166
160
1167
2186
1671
-258
-1318
-714
-105
-225
-277
-119
-99
-88
-9
6
25
110
180
253
365
445
468
475
472
468
479
479
433
329
189
56
-36
-98
-125
-116
-156
-270
-318
-283
-322
-395
-361
-311
-331
-313
-261
-271
-290
-267
-252
-259
-299
-314
-164
254
1035
1741
1223
-375
-1141
-545
-76
-243
-311
-186
-142
-99
-63
-94
-20
179
247
169
196
334
398
422
505
549
491
370
204
79
34
-40
-118
-100
-101
-192
-226
-188
-204
-267
-286
-257
-265
-320
-268
-101
-71
-207
-248
-177
-157
-178
-213
-258
-218
49
625
1016
342
-899
-1100
-344
-37
-210
-132
17
-39
-59
22
66
101
174
242
267
272
302
336
322
299
314
315
256
190
174
185
135
1
-118
-150
-160
-209
-243
-251
-308
-366
-310
-234
-278
-319
-237
-162
-171
-194
-215
-207
-178
-242
-288
-41
545
1373
1824
899
-762
-1204
-454
-106
-292
-300
-227
-219
-117
-20
-38
-56
27
221
413
494
527
569
582
577
566
532
489
412
273
128
29
-21
-40
-79
-159
-228
-259
-270
-281
-316
-375
-408
-372
-280
-206
-196
-209
-245
-330
-367
-326
-302
-255
62
957
1981
1653
-178
-1318
-780
-171
-287
-301
-84
-91
-184
-148
-84
-35
23
68
114
180
236
258
276
293
255
173
134
137
87
-6
-41
-14
-8
-44
-87
-135
-215
-299
-342
-366
-398
-399
-365
-333
-281
-211
-195
-218
-203
-154
-118
-122
-125
-51
275
1209
2289
1915
21
-1089
-584
-104
-269
-297
-162
-188
-195
-114
-45
50
130
122
143
288
436
459
418
433
498
513
437
310
183
84
13
-52
-125
-188
-222
-255
-290
-311
-355
-415
-405
-347
-361
-393
-327
-261
-294
-323
-297
-279
-268
-277
-324
-225
420
1591
2078
821
-823
-921
-186
-113
-285
-104
-49
-210
-184
-35
26
53
99
146
194
242
266
248
226
241
244
209
210
212
112
9
37
87
61
42
50
1
-85
-119
-124
-195
-313
-375
-384
-384
-333
-251
-248
-301
-302
-243
-202
-232
-266
-113
410
1241
1583
552
-998
-1290
-512
-128
-245
-235
-177
-193
-119
-26
-31
-10
87
134
126
192
332
427
466
496
491
445
406
349
222
84
8
-45
-102
-127
-136
-166
-192
-204
-229
-249
-250
-257
-250
-201
-166
-185
-230
-300
-337
-269
-240
-335
-324
53
1006
2158
2031
237
-1081
-666
-30
-153
-284
-175
-176
-186
-121
-109
-88
8
76
104
171
275
356
392
401
403
404
387
323
214
103
21
-27
-71
-131
-189
-214
-208
-226
-304
-372
-349
-311
-354
-398
-381
-362
-327
-260
-261
-297
-262
-277
-380
-312
168
1104
1841
1159
-544
-1193
-471
-11
-172
-168
-35
-55
-39
47
85
141
241
317
374
433
480
514
537
537
522
504
477
416
303
161
34
-61
-135
-202
-269
-332
-368
-361
-345
-369
-409
-415
-394
-363
-310
-271
-277
-294
-326
-350
-290
-257
-336
-253
183
845
1429
1184
-131
-1095
-704
-87
-142
-264
-157
-155
-203
-138
-69
-38
13
96
200
297
363
399
422
443
457
455
420
303
128
25
25
4
-61
-91
-117
-192
-229
-185
-163
-197
-215
-208
-222
-249
-235
-161
-101
-158
-306
-384
-300
-185
-208
-292
-179
469
1617
2072
744
-1031
-1255
-525
-327
-401
-209
-107
-185
-186
-160
-142
-44
59
116
193
264
279
284
299
299
300
310
298
264
227
203
191
181
165
119
30
-31
-1
53
40
-65
-199
-236
-171
-142
-166
-161
-139
-143
-205
-327
-379
-333
-342
-338
-57
619
1421
1427
74
-1331
-1273
-468
-222
-318
-263
-230
-228
-122
-50
-56
-9
67
125
278
522
668
671
637
592
518
439
331
179
47
-52
-151
-188
-121
-76
-131
-162
-114
-115
-175
-178
-137
-113
-77
-32
-12
25
89
51
-115
-212
-191
-245
-347
-220
401
1554
2298
1307
-612
-1212
-482
-125
-323
-318
-211
-250
-251
-185
-141
-69
35
106
153
228
313
340
311
320
368
351
262
168
68
-46
-122
-172
-252
-315
-356
-468
-583
-549
-453
-449
-475
-465
-487
-552
-544
-404
-226
-155
-217
-298
-264
-165
-197
-334
-250
367
1378
1746
533
-1132
-1346
-509
-175
-305
-244
-154
-174
-112
-9
44
112
195
263
332
383
412
444
454
435
447
509
567
530
364
206
190
203
123
24
-28
-71
-117
-154
-188
-225
-258
-276
-277
-263
-211
-128
-65
-45
-90
-168
-157
-106
-189
-272
-88
531
1704
2595
1705
-303
-1010
-295
24
-247
-245
-101
-141
-142
-35
15
13
55
150
251
351
453
504
488
481
513
529
463
282
56
-86
-135
-163
-183
-195
-225
-277
-361
-450
-451
-387
-402
-489
-529
-537
-540
-484
-407
-399
-436
-463
-462
-413
-381
-421
-441
-248
506
1702
1909
291
-1296
-1117
-323
-269
-438
-349
-306
-319
-226
-122
-65
-10
64
165
279
368
433
495
548
575
578
558
497
383
239
94
-21
-83
-130
-203
-252
-250
-257
-296
-327
-332
-298
-260
-282
-295
-207
-133
-159
-158
-121
-160
-153
-24
-26
-190
-118
495
1536
2116
1114
-738
-1320
-531
-63
-240
-317
-250
-196
-69
25
49
132
219
244
301
386
406
385
397
435
457
461
445
385
291
203
110
-1
-75
-91
-109
-144
-165
-178
-180
-173
-218
-308
-335
-309
-312
-283
-184
-132
-153
-189
-252
-267
-191
-205
-277
-129
344
1247
2137
1632
-218
-1190
-587
-75
-239
-291
-189
-219
-205
-107
-71
-52
1
58
119
189
277
355
366
358
413
472
446
346
203
45
-72
-133
-177
-236
-312
-358
-350
-350
-381
-397
-433
-505
-509
-438
-410
-402
-338
-294
-316
-350
-388
-387
-314
-315
-383
-243
228
974
1521
914
-579
-1201
-591
-164
-307
-336
-236
-251
-226
-144
-99
-19
103
195
293
407
478
522
575
613
621
620
586
488
360
245
148
69
10
-40
-85
-123
-151
-166
-170
-180
-197
-207
-213
-241
-281
-264
-175
-96
-78
-114
-164
-140
-67
-84
-144
-84
305
1350
2430
1934
93
-802
-277
64
-137
-155
-61
-99
-72
23
59
102
177
229
276
339
388
407
419
427
418
401
388
343
242
128
45
-21
-96
-167
-221
-277
-338
-367
-382
-425
-458
-463
-506
-562
-536
-464
-425
-416
-426
-456
-493
-525
-503
-462
-512
-477
-101
468
887
732
-262
-1263
-1135
-391
-171
-311
-270
-199
-204
-156
-107
-90
-11
109
210
313
414
480
525
551
526
475
442
393
281
137
14
-79
-150
-204
-246
-275
-308
-343
-341
-313
-308
-315
-301
-286
-277
-244
-184
-118
-62
-21
-22
-49
-18
36
15
-13
18
401
1681
2991
2301
124
-790
-165
135
-103
-104
-15
-24
41
86
53
91
172
220
284
352
383
405
429
430
411
368
292
211
153
97
28
-29
-59
-75
-91
-109
-133
-155
-161
-153
-165
-213
-257
-282
-323
-343
-285
-235
-279
-318
-309
-341
-367
-353
-432
-471
-150
478
998
814
-293
-1293
-1097
-393
-250
-376
-292
-222
-251
-219
-155
-105
-36
44
139
253
345
418
498
561
586
589
564
491
361
208
89
5
-83
-168
-227
-274
-319
-347
-353
-354
-356
-356
-363
-382
-393
-376
-328
-279
-269
-276
-281
-330
-366
-287
-243
-315
-221
223
911
1399
887
-420
-963
-356
97
-18
-46
58
49
62
136
170
215
295
355
400
433
436
446
489
496
446
426
433
354
226
188
188
101
-2
-33
-68
-150
-192
-185
-217
-290
-318
-283
-257
-258
-242
-205
-171
-129
-84
-70
-109
-163
-151
-107
-140
-176
-85
359
1477
2465
1683
-298
-1057
-420
-89
-237
-184
-139
-253
-233
-135
-117
-82
-2
49
84
139
200
237
237
227
215
186
163
148
85
-16
-81
-102
-136
-203
-274
-318
-332
-342
-353
-345
-318
-307
-332
-366
-389
-388
-343
-292
-307
-356
-365
-361
-355
-306
-281
-312
-203
201
788
1050
386
-748
-1027
-382
19
-66
-60
43
37
44
111
164
221
291
343
401
459
480
498
558
604
592
575
579
550
468
366
267
163
31
-90
-108
-74
-116
-195
-215
-214
-223
-223
-250
-307
-328
-306
-276
-228
-189
-199
-225
-249
-259
-202
-163
-230
-194
164
868
1663
1598
190
-1059
-807
-93
-56
-198
-115
-105
-134
-52
-2
3
64
143
202
275
342
382
426
481
514
502
435
322
200
88
-21
-122
-198
-255
-306
-342
-362
-385
-402
-412
-436
-458
-443
-427
-449
-470
-461
-432
-375
-310
-295
-324
-357
-373
-341
-311
-346
-323
-63
613
1597
1826
513
-924
-858
-127
-30
-196
-126
-81
-112
-69
-26
-7
57
141
225
323
414
482
543
598
650
702
709
638
519
377
223
96
5
-86
-170
-213
-240
-272
-284
-280
-296
-308
-280
-280
-340
-352
-286
-253
-261
-236
-202
-203
-226
-256
-246
-201
-244
-332
-235
272
1307
2138
1433
-313
-974
-347
-18
-206
-192
-94
-139
-117
-36
-10
29
93
142
218
306
362
418
474
474
465
500
490
384
250
124
-5
-110
-175
-223
-279
-334
-353
-346
-357
-380
-383
-383
-403
-421
-421
-430
-470
-487
-412
-298
-249
-263
-303
-336
-298
-250
-294
-311
-121
531
1815
2651
1570
-350
-813
-168
-38
-259
-192
-126
-181
-138
-69
-44
22
116
197
262
288
298
343
394
414
413
396
353
283
179
58
-21
-67
-135
-206
-239
-272
-318
-323
-286
-258
-250
-255
-265
-267
-267
-276
-308
-345
-313
-217
-189
-252
-301
-301
-258
-206
-249
-319
-175
433
1575
2353
1438
-429
-1061
-428
-117
-266
-236
-197
-278
-231
-120
-82
-35
45
116
183
242
293
337
363
402
446
414
331
280
225
119
9
-79
-157
-213
-248
-286
-315
-326
-338
-345
-318
-286
-303
-327
-283
-233
-268
-280
-184
-154
-259
-293
-220
-196
-199
-166
-164
-201
-226
-177
57
608
1468
1943
1058
-523
-982
-309
74
-48
-98
-77
-90
-41
53
139
165
123
157
315
462
557
646
729
817
899
912
835
705
572
457
286
47
-101
-134
-211
-321
-354
-359
-386
-380
-363
-398
-440
-436
-426
-453
-463
-397
-354
-426
-451
-315
-240
-343
-423
-402
-369
-310
-287
-341
-234
196
845
1346
921
-433
-1198
-684
-139
-217
-247
-88
-101
-143
-50
11
15
64
116
150
234
338
376
372
390
428
444
414
359
297
224
168
136
60
-59
-121
-101
-75
-86
-110
-123
-130
-151
-193
-225
-218
-204
-221
-229
-200
-186
-199
-188
-169
-176
-203
-264
-304
-236
-175
-221
-181
155
905
1804
1699
78
-1335
-1091
-309
-209
-312
-202
-162
-190
-126
-69
-70
-33
74
192
284
364
446
524
580
601
604
587
510
387
289
212
102
-26
-108
-131
-151
-188
-188
-164
-184
-231
-247
-254
-280
-291
-281
-289
-299
-267
-239
-242
-230
-199
-172
-149
-186
-255
-220
-152
-182
-139
217
996
1934
1923
429
-915
-694
10
27
-124
-23
39
60
128
114
78
152
258
328
387
413
414
443
463
401
295
224
178
103
-1
-102
-174
-200
-214
-280
-344
-290
-204
-246
-349
-387
-395
-413
-419
-425
-451
-498
-541
-537
-491
-428
-367
-340
-344
-387
-459
-427
-308
-305
-312
-166
108
978
2343
2341
417
-969
-598
-115
-303
-361
-187
-162
-232
-272
-207
-18
118
142
173
215
251
325
357
307
323
390
331
193
130
113
87
54
-22
-122
-168
-175
-190
-207
-207
-184
-182
-223
-229
-193
-200
-220
-209
-223
-266
-298
-301
-244
-155
-116
-128
-175
-214
-172
-133
-160
-112
57
484
1417
2068
1238
-261
-648
-157
-13
-164
-151
-112
-122
-68
-2
20
46
101
174
249
307
350
390
426
424
370
349
406
434
359
259
197
146
85
50
46
23
-10
5
21
-15
-43
-42
-68
-99
-111
-152
-202
-211
-237
-303
-318
-267
-247
-283
-345
-414
-421
-363
-389
-459
-338
136
1022
1715
1027
-666
-1348
-687
-248
-415
-429
-300
-341
-377
-293
-197
-119
-41
21
83
180
295
371
408
459
543
628
653
566
416
294
182
41
-64
-96
-118
-171
-220
-235
-233
-234
-230
-227
-237
-230
-199
-189
-208
-224
-236
-223
-161
-88
-52
-52
-64
-83
