# session 15
-10
-37
55
-14
-376
-652
-612
-503
-479
-433
-353
-293
-218
-115
-7
113
228
325
432
532
586
616
626
555
393
205
38
-108
-218
-293
-360
-417
-432
-429
-452
-472
-461
-448
-443
-427
-424
-447
-445
-414
-426
-453
-393
-289
-263
-290
-286
-298
-330
-288
-248
-300
-215
197
776
1133
688
-494
-1140
-623
-15
-16
-106
-36
-24
-15
60
105
145
233
324
396
481
580
662
713
750
770
740
671
582
446
288
173
94
25
-18
-34
-55
-85
-114
-138
-141
-121
-127
-165
-190
-193
-205
-227
-240
-250
-236
-163
-90
-98
-142
-168
-180
-149
-111
-157
-191
-18
549
1505
1925
832
-686
-851
-169
-15
-190
-134
-72
-92
-30
30
43
103
191
265
349
422
463
502
537
537
514
484
416
300
178
75
-18
-95
-143
-177
-208
-230
-247
-265
-280
-297
-315
-320
-319
-340
-370
-377
-378
-397
-399
-356
-304
-288
-301
-325
-363
-372
-326
-330
-395
-290
191
1022
1618
984
-577
-1271
-640
-109
-209
-265
-161
-154
-146
-81
-37
23
116
196
281
391
500
589
652
686
704
701
648
522
343
162
19
-85
-162
-208
-235
-264
-287
-290
-288
-294
-307
-320
-330
-341
-357
-366
-365
-370
-378
-353
-297
-262
-260
-252
-256
-283
-256
-201
-254
-296
-35
595
1289
1286
185
-909
-793
-128
17
-100
-46
-6
-30
22
100
131
157
225
331
428
504
576
630
658
677
677
628
512
353
200
69
-48
-127
-148
-149
-171
-204
-218
-217
-227
-238
-237
-239
-257
-287
-325
-354
-375
-408
-400
-310
-235
-239
-245
-244
-283
-281
-241
-303
-378
-247
355
1655
2678
1773
-279
-990
-355
-123
-366
-335
-222
-243
-208
-127
-81
-25
45
128
232
313
374
437
475
467
424
350
262
166
57
-51
-141
-188
-187
-198
-252
-285
-280
-295
-320
-308
-293
-314
-333
-320
-322
-374
-400
-363
-376
-443
-390
-238
-188
-232
-251
-261
-255
-209
-228
-274
-177
214
1205
2376
2099
228
-919
-455
-22
-241
-303
-176
-197
-188
-104
-67
4
116
180
232
306
394
496
536
491
479
511
495
442
348
200
100
58
-23
-86
-58
-45
-118
-190
-194
-164
-166
-201
-200
-154
-141
-163
-140
-87
-80
-95
-80
-52
-24
16
41
25
-9
-26
-6
19
-5
-12
115
517
1347
2053
1493
-20
-706
-228
101
-73
-133
-61
-89
-106
-65
-44
-10
46
81
119
183
244
293
326
334
341
349
311
208
81
-53
-200
-329
-410
-459
-500
-544
-589
-621
-625
-627
-649
-664
-663
-666
-637
-579
-607
-717
-747
-682
-633
-583
-528
-545
-572
-539
-535
-519
-423
-476
-686
-590
-118
430
1066
1338
419
-900
-1024
-298
5
-66
-14
60
64
69
78
135
230
295
360
443
498
587
746
823
711
601
663
725
633
468
269
118
129
112
-46
-67
51
20
-72
-51
-32
-37
-15
-49
-80
-12
33
8
-3
-40
-90
-41
41
65
63
34
12
93
190
141
30
37
127
309
961
1997
2129
696
-672
-592
-118
-265
-342
-42
-15
-240
-212
-61
-64
-33
141
224
180
252
445
521
465
446
461
421
375
347
263
131
41
19
9
-35
-85
-86
-68
-96
-143
-143
-105
-89
-121
-174
-204
-219
-231
-215
-187
-196
-227
-224
-180
-158
-224
-337
-370
-324
-346
-437
-423
-259
108
815
1334
718
-608
-1117
-632
-259
-309
-332
-264
-250
-260
-216
-103
-31
-81
-96
13
72
32
31
71
98
136
131
66
59
59
-81
-247
-291
-316
-397
-447
-449
-446
-440
-433
-449
-479
-497
-498
-508
-536
-562
-575
-580
-577
-575
-579
-550
-492
-479
-517
-507
-432
-354
-277
-191
-111
19
422
1294
1970
1227
-435
-973
-177
320
156
112
227
256
313
382
375
411
534
618
651
730
835
870
863
900
949
938
854
725
591
446
302
251
265
193
92
115
155
92
40
57
45
12
15
3
-27
-28
-51
-101
-91
-67
-100
-102
-41
-28
-83
-127
-149
-152
-134
-146
-178
-93
295
1073
1673
1092
-355
-1028
-566
-183
-300
-379
-330
-335
-324
-276
-250
-202
-126
-62
1
78
150
221
289
319
303
287
276
226
120
-12
-135
-215
-248
-272
-302
-318
-320
-325
-336
-343
-339
-325
-336
-385
-422
-419
-423
-435
-409
-376
-355
-297
-272
-369
-461
-426
-336
-264
-254
-322
-259
166
843
1246
708
-587
-1286
-753
-71
-29
-115
7
57
20
72
157
215
283
348
421
533
621
672
754
825
827
830
811
659
432
240
73
-50
-107
-185
-272
-265
-225
-247
-280
-300
-339
-355
-339
-346
-345
-301
-292
-351
-402
-391
-341
-287
-231
-186
-203
-262
-265
-247
-306
-345
-248
95
1012
2108
1859
128
-967
-551
-74
-200
-262
-154
-136
-99
-31
-33
-5
98
181
240
333
437
513
583
643
646
617
593
505
313
115
-6
-84
-153
-185
-187
-192
-190
-170
-175
-214
-235
-226
-226
-246
-263
-276
-303
-355
-403
-365
-224
-120
-147
-211
-245
-274
-258
-226
-291
-356
-113
751
1936
2063
525
-879
-709
-125
-199
-343
-237
-214
-214
-125
-80
-60
4
59
109
203
324
448
553
596
578
556
529
422
236
70
-59
-186
-266
-258
-235
-249
-273
-289
-298
-295
-308
-346
-358
-337
-342
-369
-374
-373
-399
-408
-350
-277
-257
-266
-293
-339
-300
-203
-248
-363
-257
310
1496
2484
1733
-206
-961
-324
-3
-211
-207
-128
-173
-125
-26
11
86
178
209
271
397
477
501
542
581
580
566
525
415
269
135
21
-65
-124
-148
-131
-133
-193
-224
-213
-245
-264
-209
-190
-248
-285
-294
-329
-356
-339
-301
-275
-250
-201
-172
-231
-316
-297
-198
-168
-247
-308
-125
599
1669
1840
394
-1112
-1046
-269
-105
-244
-198
-171
-171
-94
-68
-55
62
174
212
265
385
521
597
625
697
786
764
656
554
408
195
20
-105
-219
-260
-233
-255
-310
-313
-298
-306
-329
-376
-409
-379
-343
-339
-317
-295
-324
-365
-390
-400
-343
-236
-197
-226
-230
-225
-241
-230
-222
-261
-209
109
740
1395
1282
117
-903
-743
-134
-13
-150
-151
-70
-4
20
39
96
132
171
304
430
466
550
691
732
692
683
685
650
529
297
84
23
11
-85
-207
-264
-253
-202
-153
-165
-245
-311
-307
-272
-266
-289
-294
-285
-308
-344
-353
-371
-367
-253
-133
-171
-283
-319
-291
-238
-203
-242
-238
2
569
1308
1472
467
-703
-722
-145
-46
-193
-162
-111
-78
-18
-21
-3
100
158
197
296
352
365
470
588
587
557
571
520
356
180
58
-55
-170
-205
-148
-139
-218
-261
-238
-254
-288
-248
-192
-215
-274
-290
-278
-316
-373
-341
-301
-371
-371
-218
-166
-235
-238
-283
-367
-271
-205
-336
-230
432
1475
2166
1440
-242
-921
-348
-30
-218
-212
-130
-191
-156
-49
-38
-9
93
170
261
386
436
449
554
649
618
565
549
459
274
99
-36
-167
-249
-220
-164
-195
-260
-273
-275
-288
-269
-244
-258
-276
-276
-287
-315
-336
-338
-339
-351
-341
-290
-248
-247
-242
-231
-253
-257
-218
-232
-285
-204
293
1424
2334
1510
-430
-1107
-345
49
-214
-265
-128
-144
-174
-98
-4
53
101
189
305
401
477
537
581
636
697
704
630
493
334
193
56
-93
-192
-213
-216
-220
-219
-249
-302
-312
-286
-264
-259
-284
-327
-344
-326
-307
-311
-321
-338
-393
-426
-337
-202
-175
-242
-286
-276
-255
-238
-240
-283
-274
124
1185
2168
1578
-312
-1207
-511
26
-190
-266
-102
-95
-140
-106
-58
8
92
163
246
369
486
550
598
647
671
676
658
568
423
269
123
13
-78
-186
-247
-230
-217
-224
-219
-226
-249
-266
-295
-323
-313
-278
-276
-317
-327
-280
-282
-362
-403
-372
-333
-284
-230
-213
-231
-287
-333
-261
-180
-259
-308
-12
810
1908
2045
522
-958
-795
-97
-135
-327
-196
-119
-143
-95
-56
-26
73
162
198
269
382
472
554
647
696
700
699
642
486
310
170
35
-87
-142
-163
-206
-251
-276
-279
-246
-217
-235
-274
-299
-308
-291
-275
-295
-304
-279
-291
-354
-385
-358
-314
-251
-191
-212
-272
-254
-198
-195
-231
-270
-275
-117
532
1733
2300
1020
-786
-995
-210
-61
-292
-228
-137
-150
-97
-47
-15
50
98
174
311
385
409
517
648
695
708
723
677
550
384
218
75
-40
-131
-192
-218
-231
-245
-253
-272
-315
-328
-291
-282
-310
-306
-287
-303
-324
-328
-345
-369
-370
-370
-375
-330
-246
-209
-227
-259
-313
-321
-233
-213
-304
-252
140
1000
1944
1671
-58
-1226
-738
-56
-102
-181
-67
-87
-121
-43
15
37
74
146
273
400
468
532
623
678
683
696
724
683
522
309
146
53
-21
-102
-176
-213
-209
-219
-264
-270
-232
-246
-293
-283
-259
-281
-304
-307
-312
-311
-319
-353
-362
-336
-324
-302
-233
-196
-232
-262
-269
-278
-258
-244
-277
-224
109
891
1805
1662
90
-1126
-753
-50
-78
-223
-124
-97
-110
-37
11
32
98
180
262
347
409
473
558
624
653
668
656
587
466
317
162
24
-80
-144
-180
-204
-221
-233
-245
-253
-253
-257
-268
-283
-298
-296
-278
-280
-302
-304
-291
-298
-304
-285
-268
-247
-203
-182
-216
-251
-249
-224
-187
-193
-243
-190
117
772
1487
1269
-134
-1144
-729
-50
-48
-168
-80
-58
-75
-8
44
59
108
197
293
376
448
520
576
609
629
625
599
558
473
328
173
53
-38
-113
-160
-177
-183
-189
-194
-202
-213
-222
-229
-238
-248
-255
-259
-270
-282
-277
-266
-268
-263
-240
-226
-209
-173
-158
-180
-199
-216
-215
-181
-182
-207
-99
290
1026
1599
967
-577
-1207
-527
2
-110
-172
-76
-60
-28
39
60
95
162
230
321
413
478
554
622
632
631
647
620
530
416
275
117
-9
-82
-133
-181
-210
-214
-214
-230
-250
-261
-276
-296
-303
-302
-315
-333
-340
-337
-332
-327
-331
-346
-351
-316
-247
-206
-226
-248
-248
-272
-264
-204
-229
-257
3
586
1283
1497
516
-937
-1189
-396
-25
-189
-201
-115
-106
-50
-2
-11
56
181
258
348
481
555
579
654
748
758
705
656
582
432
243
62
-86
-163
-198
-259
-300
-256
-214
-250
-291
-282
-263
-264
-279
-299
-315
-319
-321
-333
-333
-309
-296
-309
-298
-240
-190
-181
-198
-234
-251
-190
-153
-228
-198
148
831
1637
1680
423
-786
-642
-53
-63
-192
-78
-50
-112
-72
10
65
113
173
259
362
449
523
600
662
689
690
659
555
386
222
87
-34
-139
-222
-268
-260
-249
-275
-277
-244
-254
-283
-265
-261
-323
-370
-351
-331
-362
-396
-385
-377
-383
-321
-243
-274
-322
-289
-284
-303
-253
-273
-368
-210
359
1236
1844
1173
-392
-983
-376
-74
-292
-275
-152
-186
-152
-60
-41
13
127
209
280
393
515
607
681
740
752
710
627
479
297
153
22
-141
-252
-254
-242
-274
-281
-241
-229
-254
-262
-253
-259
-275
-278
-270
-267
-283
-317
-336
-313
-292
-295
-264
-190
-155
-181
-209
-227
-218
-163
-156
-233
-207
144
1040
2144
2041
317
-1000
-636
-7
-101
-222
-117
-119
-119
-21
36
74
146
204
273
375
474
565
635
651
649
665
631
523
406
287
119
-58
-150
-162
-190
-250
-261
-226
-230
-265
-276
-275
-291
-305
-311
-322
-340
-356
-358
-340
-329
-344
-363
-364
-352
-337
-338
-367
-373
-312
-239
-231
-253
-245
-251
-271
-232
-214
-263
-139
338
1118
1790
1379
-215
-1249
-758
-76
-106
-204
-101
-102
-109
-21
20
39
116
205
287
374
447
537
664
755
777
789
801
732
568
394
242
79
-64
-139
-184
-228
-241
-233
-245
-264
-266
-261
-263
-283
-303
-289
-272
-301
-330
-310
-298
-329
-340
-314
-299
-306
-319
-324
-290
-228
-202
-204
-182
-172
-196
-178
-151
-215
-224
54
769
1786
2053
722
-842
-892
-157
-11
-186
-144
-80
-80
-38
16
64
119
177
265
366
441
512
599
666
697
705
689
633
523
365
186
27
-77
-131
-178
-225
-222
-189
-199
-226
-207
-188
-218
-245
-256
-280
-283
-260
-274
-326
-356
-347
-338
-349
-361
-388
-439
-407
-262
-188
-249
-298
-305
-306
-274
-276
-316
-206
218
1192
2398
2283
404
-996
-637
-90
-262
-336
-190
-231
-241
-115
-79
-80
7
112
204
312
396
460
552
620
607
575
545
433
267
147
28
-145
-279
-312
-312
-315
-294
-269
-272
-289
-315
-344
-344
-306
-275
-296
-353
-382
-360
-341
-341
-320
-301
-333
-365
-354
-367
-395
-310
-177
-189
-266
-257
-262
-286
-223
-219
-292
-127
456
1455
2304
1705
-176
-1130
-518
-30
-207
-217
-67
-81
-71
-10
18
108
192
218
339
487
514
573
718
760
736
785
794
674
524
384
237
97
-38
-131
-150
-159
-179
-167
-166
-221
-254
-212
-182
-240
-299
-256
-185
-199
-248
-261
-278
-288
-222
-166
-221
-259
-188
-166
-251
-273
-195
-137
-103
-53
-52
-129
-148
-40
-1
-127
-106
301
1040
1846
1835
437
-971
-872
-110
20
-136
-55
24
3
22
82
146
180
209
320
446
473
503
640
771
797
763
723
671
576
433
279
109
-87
-189
-161
-184
-296
-319
-263
-283
-342
-340
-326
-343
-349
-340
-365
-414
-425
-417
-451
-490
-474
-446
-454
-487
-512
-503
-483
-480
-461
-430
-429
-438
-450
-475
-436
-377
-439
-453
-160
483
1361
1669
522
-1034
-1218
-484
-242
-377
-358
-351
-377
-276
-183
-177
-141
-53
34
136
253
332
382
476
580
599
551
498
414
266
89
-55
-134
-173
-209
-235
-231
-199
-176
-171
-132
-72
-70
-85
-36
8
-13
-17
31
56
44
67
131
145
110
134
208
244
293
413
492
473
465
517
561
614
692
701
730
1137
2043
3015
3279
2239
105
