# session 12
-124
-143
-62
-97
-532
-1040
-1068
-876
-945
-951
-663
-556
-682
-593
-398
-362
-282
-117
-104
-206
-310
-421
-449
-420
-501
-511
-99
629
1203
1061
-101
-1506
-1788
-972
-350
-334
-346
-257
-305
-351
-255
-241
-315
-149
183
313
340
468
529
528
647
704
552
411
329
163
-17
-131
-228
-258
-230
-316
-489
-508
-334
-149
-40
29
9
-155
-293
-254
-167
-134
-120
-153
-228
-269
-280
-254
-153
-79
-82
-35
36
-30
-102
-15
-12
-135
28
591
1532
2776
3036
1302
-522
-385
494
498
205
220
258
339
472
422
384
493
429
261
399
679
713
656
717
720
603
522
461
319
130
-50
-215
-345
-375
-322
-338
-410
-367
-318
-445
-588
-614
-631
-652
-633
-632
-637
-604
-592
-617
-620
-569
-509
-542
-626
-550
-381
-428
-553
-461
-400
-532
-540
-207
798
2337
2559
496
-1433
-1269
-450
-351
-419
-343
-373
-365
-238
-134
-40
37
49
101
265
462
624
731
793
864
969
1029
946
774
640
515
350
277
275
135
-17
52
144
76
49
110
32
-194
-344
-330
-284
-306
-308
-232
-189
-228
-239
-200
-206
-247
-277
-351
-383
-203
-64
-304
-522
-166
468
823
616
-428
-1751
-1926
-947
-318
-412
-462
-339
-269
-215
-251
-342
-206
75
184
143
151
313
622
829
727
519
495
631
696
515
172
-115
-279
-358
-376
-401
-443
-408
-307
-245
-221
-210
-224
-226
-193
-181
-195
-187
-151
-99
-38
38
137
182
134
95
65
23
104
224
179
155
425
1190
2401
2761
1133
-779
-890
-169
-82
-150
-27
-126
-209
30
218
162
132
238
332
366
458
633
732
675
564
472
375
216
-20
-224
-285
-307
-444
-631
-721
-688
-582
-504
-590
-722
-588
-259
-165
-389
-558
-465
-355
-502
-707
-619
-351
-224
-257
-348
-450
-495
-457
-396
-387
-436
-396
-44
885
2161
2370
633
-1237
-1243
-309
-8
-79
16
94
137
256
346
365
374
426
549
659
713
821
972
1016
987
998
964
783
581
520
474
232
-99
-288
-336
-312
-236
-204
-218
-167
-132
-233
-339
-364
-424
-502
-452
-347
-373
-478
-505
-492
-522
-536
-526
-582
-620
-563
-608
-772
-686
-154
680
1219
516
-1046
-1654
-1022
-553
-508
-354
-352
-544
-407
-81
-26
-105
-70
-7
53
193
349
439
525
642
716
725
708
651
520
345
190
85
38
55
111
168
229
265
233
221
288
289
200
204
255
156
16
39
116
80
-3
-29
-47
-114
-160
-116
-42
-28
-25
50
214
795
2040
2704
1298
-840
-1254
-405
-162
-481
-546
-464
-442
-374
-316
-336
-326
-242
-146
-87
-68
-15
164
391
479
396
294
295
311
111
-327
-671
-649
-435
-358
-438
-504
-547
-633
-676
-621
-590
-628
-628
-575
-534
-462
-342
-285
-287
-232
-162
-158
-135
-60
-13
7
1
-44
-44
198
1307
3402
4329
2254
-439
-774
20
-23
-233
-58
-71
-131
26
13
-141
-64
101
122
123
236
431
611
701
718
690
618
545
443
192
-91
-192
-240
-417
-573
-622
-701
-781
-741
-642
-593
-597
-598
-578
-661
-893
-1028
-968
-903
-787
-527
-428
-569
-624
-495
202
1841
2824
1344
-917
-1338
-541
-161
-150
-240
-458
-401
-64
56
-1
86
266
410
515
581
641
710
749
796
848
804
682
574
471
385
324
190
35
60
179
164
89
71
-3
-92
-26
60
-34
-189
-272
-310
-243
-101
-152
-369
-374
-193
-163
-206
-124
-103
-215
-257
-259
-283
-192
-142
-278
-159
452
1065
1052
57
-1360
-1777
-979
-340
-372
-378
-240
-297
-367
-248
-172
-238
-203
1
195
311
364
338
356
512
645
652
637
589
403
161
3
-86
-166
-243
-299
-326
-318
-273
-199
-146
-157
-178
-158
-168
-214
-157
-44
-54
-93
27
162
129
39
13
59
160
160
40
75
389
1212
2566
2905
1053
-879
-747
70
0
-216
-87
-122
-241
-119
28
33
83
235
319
299
310
388
458
478
453
404
317
150
-39
-192
-383
-599
-670
-625
-647
-709
-707
-686
-696
-740
-752
-645
-593
-720
-645
-287
-261
-609
-659
-443
-461
-534
-386
-281
-329
-357
-408
-453
-298
77
874
1964
1887
14
-1495
-1069
-154
-40
-137
-52
-41
-21
113
215
262
326
426
568
711
785
834
963
1116
1136
1053
1020
985
824
652
518
250
-37
-44
54
-38
-109
-20
-63
-260
-276
-131
-100
-169
-190
-198
-253
-273
-220
-214
-286
-304
-306
-404
-439
-375
-416
-326
240
888
923
38
-1323
-1906
-1195
-374
-356
-582
-496
-325
-355
-457
-305
43
137
-38
-51
153
299
330
362
432
487
471
421
373
248
46
-88
-141
-205
-229
-159
-87
-64
-61
-82
-123
-138
-138
-159
-165
-117
-58
-30
9
84
125
100
89
95
44
25
87
81
74
195
506
1582
3129
2866
345
-1296
-687
-9
-222
-285
-98
-141
-194
-102
-50
-37
22
96
161
223
282
338
348
295
272
288
187
-30
-192
-299
-442
-559
-549
-480
-508
-611
-624
-549
-489
-415
-376
-505
-682
-711
-638
-610
-670
-648
-395
-238
-460
-663
-544
-384
-371
-441
-480
-276
279
1207
2093
1704
-51
-1109
-564
65
19
-24
75
86
144
239
260
332
503
616
616
625
731
862
926
942
924
863
788
697
571
448
336
208
95
54
69
52
-36
-108
-82
-32
-64
-135
-164
-195
-265
-323
-371
-408
-355
-256
-276
-415
-536
-574
-568
-621
-658
-367
316
987
992
-114
-1600
-1928
-1033
-361
-415
-526
-423
-289
-225
-253
-238
-47
136
146
152
296
438
459
461
543
623
607
517
391
244
107
5
-58
-94
-121
-139
-144
-141
-118
-99
-138
-187
-161
-94
-68
-76
-64
-8
70
115
107
61
-12
-51
12
46
-79
-114
218
947
1959
2378
1141
-726
-1146
-404
-118
-272
-185
-79
-139
-120
-86
-148
-30
273
317
101
84
280
390
422
456
404
267
106
-108
-280
-266
-207
-299
-443
-519
-592
-670
-692
-648
-503
-365
-478
-697
-630
-428
-493
-657
-579
-402
-361
-373
-353
-378
-412
-366
-341
-370
-252
184
1195
2518
2530
613
-924
-550
150
44
-96
29
71
77
105
132
256
419
505
531
524
579
730
763
651
650
711
623
525
523
440
260
153
149
173
146
48
-29
-24
-7
-45
-109
-141
-149
-183
-233
-282
-337
-364
-363
-417
-531
-629
-670
-659
-653
-688
-595
-181
435
854
542
-619
-1655
-1544
-792
-451
-531
-568
-473
-315
-179
-147
-186
-221
-172
-12
135
254
464
644
630
579
627
651
610
565
440
207
32
-11
-50
-121
-117
-69
-95
-134
-114
-111
-127
-103
-99
-129
-93
-2
49
46
32
-5
-76
-98
-61
-118
-194
-20
463
1402
2503
2250
281
-1092
-639
0
-113
-191
-70
-110
-142
-66
-51
-41
33
86
140
269
380
400
412
462
499
477
342
103
-115
-272
-426
-515
-504
-511
-555
-555
-522
-468
-455
-588
-682
-510
-372
-534
-619
-398
-245
-286
-285
-344
-584
-702
-557
-387
-273
-145
-66
207
1286
2569
2079
-150
-1393
-758
-123
-206
-179
-6
-31
-59
0
18
54
161
269
360
461
575
701
813
872
888
886
853
776
661
510
337
186
85
31
1
-42
-106
-163
-211
-238
-206
-170
-228
-334
-382
-381
-357
-277
-201
-246
-349
-306
-159
-195
-384
-289
283
1100
1550
797
-823
-1538
-846
-206
-269
-341
-221
-197
-219
-199
-194
-171
-106
-80
-115
-83
50
61
-86
-38
250
313
65
-81
-94
-229
-302
-126
-70
-326
-511
-470
-451
-474
-414
-339
-309
-286
-277
-257
-162
-56
-44
-96
-99
-75
-151
-258
-203
-77
-66
-83
38
763
2447
3573
2205
-189
-771
-64
23
-256
-187
-133
-227
-230
-196
-172
-94
-4
66
145
235
345
447
487
529
667
783
695
508
437
363
114
-88
-31
64
-22
-153
-158
-123
-199
-320
-340
-297
-288
-299
-296
-255
-176
-121
-108
-121
-168
-171
-132
-228
-334
-115
420
1128
1495
591
-1004
-1384
-594
-227
-356
-328
-402
-625
-591
-427
-380
-313
-191
-130
-82
18
124
205
269
308
333
364
358
260
103
-45
-175
-269
-285
-283
-343
-392
-356
-292
-253
-254
-288
-275
-202
-177
-197
-174
-126
-77
-26
-47
-81
-2
25
-97
-71
213
882
2322
3427
2229
-173
-893
-202
-67
-355
-311
-249
-267
-126
-15
-77
-108
1
128
156
160
294
478
532
531
569
530
420
374
308
125
-50
-169
-282
-307
-246
-287
-460
-606
-647
-642
-671
-726
-699
-581
-510
-506
-466
-431
-466
-479
-456
-475
-460
-333
-169
35
531
1506
2168
1184
-797
-1457
-643
-211
-429
-375
-187
-251
-285
-165
-80
-51
-14
42
136
263
385
473
538
622
731
783
716
613
548
457
336
292
283
202
126
144
153
84
16
-2
-2
-13
-54
-122
-156
-133
-130
-175
-203
-237
-283
-237
-201
-305
-228
248
828
1144
723
-491
-1294
-869
-215
-184
-285
-197
-183
-239
-201
-112
-53
-41
-49
-3
111
240
336
384
404
428
440
395
299
175
2
-195
-277
-199
-137
-214
-334
-392
-404
-402
-419
-452
-451
-447
-509
-553
-495
-423
-399
-381
-396
-423
-357
-291
-318
-261
105
1047
2323
2407
630
-894
-609
57
-52
-183
-3
42
-4
80
197
252
279
319
380
420
444
496
533
512
499
525
518
461
413
365
274
170
106
70
23
-41
-109
-169
-211
-276
-374
-387
-320
-351
-421
-342
-268
-347
-387
-369
-451
-503
-471
-532
-465
76
853
1268
757
-581
-1456
-1026
-322
-321
-509
-410
-299
-280
-221
-184
-227
-221
-68
104
134
122
218
316
308
277
274
245
205
205
200
137
84
109
153
141
95
44
-25
-108
-168
-184
-170
-130
-74
-59
-89
-55
69
138
71
-10
52
158
102
9
95
447
1464
2780
2450
168
-1302
-741
-77
-225
-289
-142
-178
-204
-97
-47
-76
-62
23
92
92
142
293
371
349
406
513
466
278
90
-68
-210
-309
-351
-358
-363
-398
-438
-447
-447
-469
-521
-583
-582
-505
-489
-559
-543
-446
-499
-667
-662
-533
-532
-529
-319
227
1351
2212
1232
-722
-1205
-458
-261
-462
-324
-185
-195
-93
10
21
87
180
201
235
341
441
516
605
665
665
686
741
722
618
503
407
355
324
220
92
68
88
26
-87
-141
-107
-93
-183
-249
-175
-90
-99
-111
-118
-173
-181
-158
-254
-317
-21
673
1343
1107
-238
-1268
-929
-239
-204
-384
-399
-431
-446
-395
-363
-249
-68
-47
-97
22
199
254
263
270
187
63
27
46
33
18
31
21
-10
-53
-167
-280
-248
-182
-251
-353
-358
-329
-339
-364
-332
-229
-146
-146
-200
-266
-260
-171
-161
-236
-225
22
959
2456
2689
832
-779
-490
187
91
-61
28
14
-12
40
51
67
124
149
169
236
308
352
392
450
508
540
548
528
451
328
207
113
30
-64
-168
-254
-308
-318
-287
-271
-324
-392
-416
-431
-465
-485
-480
-463
-466
-533
-583
-527
-483
-436
-157
248
619
987
747
-471
-1350
-962
-420
-480
-485
-282
-314
-432
-345
-225
-200
-141
-28
27
33
76
163
273
392
463
488
540
586
530
413
317
227
143
104
87
43
-12
-32
-14
9
18
20
-2
-51
-60
25
141
164
79
38
65
-21
-158
-121
10
544
2009
3030
1689
-544
-958
-192
-69
-260
-124
-69
-214
-259
-162
-23
26
-53
-43
118
205
191
213
213
135
73
48
-2
-83
-168
-226
-257
-316
-385
-377
-359
-424
-459
-425
-467
-543
-508
-460
-512
-568
-542
-469
-399
-391
-496
-584
-504
-430
-503
-486
-159
666
1837
1987
328
-1190
-885
-79
-87
-266
-153
-96
-129
-108
-39
69
162
235
368
493
551
637
743
768
756
785
815
772
631
455
331
249
187
168
137
32
-59
-63
-57
-91
-114
-115
-156
-225
-237
-237
-342
-426
-324
-185
-174
-246
-343
-268
239
948
1098
155
-1235
-1636
-872
-254
-284
-337
-290
-354
-314
-120
-62
-142
-138
-38
34
62
103
142
115
88
171
280
278
202
121
39
-18
-56
-126
-206
-252
-273
-299
-323
-302
-244
-226
-255
-260
-229
-199
-175
-157
-156
-161
-130
-75
-60
-58
-95
-55
1000
3315
4379
2319
-251
-560
70
9
-84
77
-9
-134
-49
15
-2
-25
-57
-19
100
165
162
181
223
246
257
272
297
294
206
71
-51
-134
-110
-35
-111
-277
-327
-367
-522
-612
-555
-509
-534
-542
-521
-543
-579
-562
-575
-638
-599
-561
-669
-591
-34
866
1571
1105
-522
-1498
-1034
-550
-662
-578
-310
-333
-416
-350
-296
-262
-184
-100
-6
116
231
326
407
454
473
508
561
583
531
418
290
181
133
181
237
184
110
126
147
122
112
97
50
32
35
8
-5
0
-28
-28
-11
-111
-203
-57
373
1188
1926
1363
-226
-887
-340
-33
-197
-214
-176
-231
-238
-196
-76
93
132
100
155
220
241
284
327
335
345
371
368
269
114
23
-53
-196
-264
-183
-132
-194
-274
-327
-354
-378
-439
-511
-547
-555
-527
-474
-451
-456
-446
-416
-409
-460
-519
-462
71
1428
2604
1808
-282
-1084
-409
-54
-266
-289
-172
-112
-29
19
35
126
250
333
379
426
490
508
447
398
412
433
427
426
427
380
271
167
111
51
-27
-77
-99
-137
-182
-211
-241
-289
-333
-323
-274
-271
-332
-399
-406
-303
-206
-342
-514
-218
469
933
668
-434
-1545
-1484
-606
-215
-358
-363
-285
-313
-289
-248
-287
-262
-119
9
64
73
71
108
177
222
255
314
368
366
298
192
80
-19
-68
-82
-138
-193
-152
-119
-172
-178
-132
-170
-222
-177
-118
-67
2
-13
-54
44
114
39
78
436
1308
2546
2782
1211
-378
-385
129
74
-53
41
50
-11
-24
1
89
