# session 16
-77
-102
-9
-81
-454
-757
-756
-683
-694
-692
-663
-660
-660
-650
-644
-634
-617
-605
-591
-572
-557
-544
-525
-504
-491
-479
-454
-429
-416
-414
-411
-402
-392
-366
-298
-227
-220
-242
-232
-226
-213
-155
-153
-184
19
552
1292
1783
1144
-422
-1151
-497
83
-15
-63
64
58
54
135
174
203
274
340
406
494
579
657
733
784
807
814
798
751
670
544
381
227
104
1
-75
-104
-107
-117
-130
-132
-135
-143
-151
-159
-169
-176
-186
-200
-210
-220
-237
-236
-215
-207
-224
-236
-234
-231
-234
-249
-267
-265
-259
-271
-263
-201
-149
-172
-206
-199
-200
-187
-138
-163
-161
165
797
1470
1668
736
-734
-1100
-342
86
-68
-100
2
8
24
65
83
141
222
254
287
391
529
627
674
711
745
748
710
634
515
359
190
26
-116
-220
-280
-307
-319
-328
-329
-322
-318
-320
-329
-346
-344
-321
-317
-342
-358
-359
-361
-363
-359
-352
-348
-351
-353
-347
-345
-355
-346
-292
-228
-210
-232
-239
-235
-243
-203
-164
-224
-167
264
970
1643
1603
356
-981
-960
-214
-34
-188
-135
-79
-102
-53
6
33
89
157
219
308
411
507
603
689
746
773
769
715
604
450
284
131
-1
-111
-190
-233
-251
-257
-253
-244
-239
-237
-236
-240
-252
-266
-272
-271
-276
-289
-299
-300
-301
-307
-315
-325
-336
-348
-348
-298
-217
-194
-236
-249
-240
-251
-211
-180
-265
-218
210
926
1705
1804
557
-857
-849
-132
-42
-226
-138
-74
-105
-43
25
49
107
181
251
345
456
565
675
769
833
864
847
767
626
441
245
70
-73
-182
-251
-283
-292
-291
-285
-276
-273
-274
-274
-273
-276
-283
-293
-307
-316
-317
-315
-315
-325
-344
-360
-364
-370
-361
-301
-233
-238
-281
-290
-302
-310
-251
-248
-339
-228
269
1113
1961
1752
157
-1061
-711
-79
-154
-277
-156
-137
-144
-49
13
43
110
178
245
337
439
538
621
673
705
714
676
589
475
336
179
35
-81
-170
-229
-255
-260
-252
-236
-230
-239
-238
-227
-238
-261
-269
-273
-280
-275
-273
-286
-292
-301
-323
-319
-294
-283
-252
-187
-166
-201
-214
-211
-224
-202
-179
-232
-223
54
774
1838
2151
790
-857
-948
-212
-88
-273
-210
-155
-173
-115
-65
-47
18
88
141
219
310
394
477
539
570
586
578
534
460
351
206
70
-37
-135
-209
-234
-236
-240
-241
-242
-248
-243
-236
-250
-273
-281
-277
-278
-286
-294
-294
-291
-300
-310
-296
-279
-286
-300
-299
-300
-306
-269
-183
-136
-169
-199
-190
-189
-173
-138
-167
-165
83
689
1606
2097
1118
-605
-1092
-340
72
-83
-112
-39
-45
1
75
103
145
203
256
342
440
513
577
646
697
723
727
705
654
565
437
295
163
47
-44
-102
-137
-154
-160
-165
-173
-182
-193
-202
-212
-224
-235
-248
-264
-270
-267
-268
-272
-272
-274
-284
-292
-292
-294
-303
-308
-309
-319
-330
-313
-265
-220
-209
-231
-246
-244
-255
-233
-182
-219
-228
91
743
1476
1690
651
-965
-1370
-548
-58
-178
-185
-86
-108
-95
-29
3
54
128
178
242
339
429
521
627
700
714
709
709
672
556
403
265
121
-47
-175
-222
-237
-262
-281
-287
-290
-282
-260
-244
-241
-250
-276
-309
-314
-290
-267
-266
-276
-284
-285
-289
-293
-282
-276
-293
-301
-293
-291
-288
-261
-202
-151
-166
-216
-228
-211
-169
-131
-178
-159
194
882
1662
1792
577
-951
-1075
-254
11
-177
-136
-33
-42
-1
49
46
111
242
311
320
379
522
670
743
754
766
780
748
646
489
320
170
45
-52
-118
-166
-199
-205
-203
-207
-187
-162
-201
-242
-187
-147
-224
-277
-220
-195
-259
-293
-262
-243
-252
-233
-200
-230
-299
-300
-241
-199
-171
-149
-173
-198
-166
-157
-200
-185
-171
-238
-124
355
996
1489
1217
-160
-1359
-1038
-148
-22
-204
-97
-15
-43
23
81
66
108
205
284
396
558
691
776
862
935
980
1010
985
839
621
415
222
33
-81
-123
-191
-273
-272
-226
-235
-256
-209
-168
-219
-275
-250
-237
-301
-322
-261
-262
-331
-333
-319
-367
-359
-295
-329
-396
-367
-327
-336
-336
-323
-320
-330
-380
-427
-393
-340
-375
-436
-419
-364
-328
-291
-262
-239
-206
-229
-243
-131
-123
-245
5
606
1052
1171
630
-570
-1145
-536
23
-51
-126
-48
-20
22
45
22
94
208
251
306
423
537
649
784
887
932
964
969
896
785
662
460
227
92
13
-100
-196
-230
-237
-223
-206
-223
-226
-188
-195
-237
-224
-205
-239
-254
-234
-251
-290
-293
-261
-233
-237
-256
-245
-220
-218
-209
-173
-163
-195
-196
-151
-136
-148
-91
13
32
-42
-88
-35
13
-40
-82
-54
-81
-37
308
906
1616
1839
767
-751
-964
-210
45
-109
-47
14
-37
13
89
108
163
229
265
341
449
541
644
743
791
809
807
780
738
622
399
192
54
-86
-182
-198
-247
-305
-253
-202
-291
-354
-235
-127
-202
-294
-258
-225
-275
-292
-270
-305
-334
-283
-290
-400
-385
-229
-217
-354
-362
-246
-206
-227
-246
-296
-299
-205
-179
-267
-272
-174
-152
-192
-170
-133
-168
-212
-188
-128
-103
-115
-112
-101
-135
-174
-140
-97
-126
-160
-131
-84
-57
-37
-34
-60
-86
-96
-95
-87
-78
-61
-42
-63
-102
-73
-10
-25
-82
-77
-45
-58
-86
-84
-60
-21
22
-2
-103
-130
-53
-50
-87
-48
-98
-125
264
883
1345
1452
701
-609
-977
-274
81
-91
-39
82
-14
-33
91
160
179
223
306
415
504
571
632
676
742
824
829
782
770
750
675
566
433
331
280
164
7
-32
-7
-49
-83
-55
-58
-101
-97
-42
-14
-50
-88
-87
-102
-151
-193
-209
-182
-149
-184
-228
-196
-181
-244
-271
-220
-190
-222
-267
-266
-214
-192
-249
-299
-273
-224
-224
-281
-317
-270
-215
-236
-281
-271
-231
-247
-326
-321
-189
-117
-167
-186
-176
-252
-308
-197
-117
-256
-273
152
800
1418
1550
498
-1018
-1279
-470
-85
-208
-191
-134
-166
-114
-31
-29
-34
24
126
221
294
380
514
668
744
735
770
848
834
727
576
344
118
13
-80
-237
-343
-343
-298
-288
-326
-323
-249
-198
-209
-246
-260
-223
-178
-180
-218
-257
-245
-188
-203
-295
-291
-197
-195
-240
-196
-166
-235
-280
-245
-199
-151
-98
-124
-241
-294
-188
-94
-174
-266
-183
-75
-120
-210
-202
-123
-54
-57
-125
-131
-68
-99
-159
-63
-13
-129
-39
419
1169
2029
1931
267
-1143
-783
15
-23
-217
-97
-39
-65
-23
13
64
169
240
267
323
418
537
674
783
822
847
927
984
908
742
574
388
198
77
5
-88
-176
-206
-200
-186
-169
-169
-191
-191
-156
-141
-162
-170
-168
-200
-238
-240
-242
-272
-296
-300
-307
-320
-321
-309
-302
-309
-310
-288
-268
-272
-277
-265
-260
-263
-243
-203
-171
-125
-66
-76
-152
-167
-123
-143
-170
-115
-131
-203
-31
445
1195
1953
1598
-143
-1322
-815
-91
-130
-240
-159
-176
-175
-89
-69
-56
25
103
164
241
328
426
538
654
758
818
838
830
751
578
373
189
26
-117
-230
-304
-347
-387
-421
-413
-379
-356
-335
-307
-292
-290
-290
-291
-286
-275
-288
-314
-303
-269
-271
-297
-296
-285
-303
-313
-291
-276
-276
-262
-245
-249
-258
-272
-298
-298
-262
-226
-178
-114
-108
-154
-149
-132
-162
-125
-52
-119
-139
156
752
1655
2267
1366
-480
-1094
-352
54
-131
-144
-29
-42
-75
-48
47
165
208
224
300
374
436
561
701
785
851
921
952
920
796
567
339
208
101
-52
-199
-299
-340
-329
-351
-403
-354
-226
-187
-238
-264
-258
-258
-247
-238
-263
-290
-284
-275
-275
-281
-315
-334
-270
-212
-247
-285
-265
-267
-311
-339
-341
-314
-235
-140
-106
-153
-202
-197
-218
-256
-165
-57
-121
-125
164
841
2011
2682
1450
-541
-961
-225
-46
-286
-256
-189
-222
-150
-46
-49
-64
44
213
283
287
364
508
634
717
788
865
872
763
660
589
406
139
-48
-163
-278
-356
-381
-409
-448
-428
-330
-256
-278
-331
-329
-302
-318
-356
-368
-346
-299
-256
-272
-339
-367
-340
-326
-320
-289
-296
-346
-314
-204
-179
-246
-262
-243
-279
-315
-291
-276
-294
-281
-218
-142
-112
-146
-173
-153
-139
-117
-83
-159
-244
-45
470
1387
2491
2356
448
-1046
-680
11
-114
-292
-152
-93
-133
-109
-40
37
99
149
223
314
388
438
520
679
803
822
859
922
858
689
524
333
120
-10
-82
-203
-323
-339
-312
-321
-317
-278
-282
-317
-298
-248
-262
-311
-298
-255
-280
-333
-338
-335
-346
-330
-306
-304
-286
-260
-279
-331
-347
-305
-271
-311
-357
-333
-296
-264
-185
-128
-156
-179
-176
-201
-192
-172
-217
-150
136
645
1655
2591
1837
-220
-1072
-369
22
-223
-230
-106
-157
-151
-65
-31
29
121
169
216
288
352
443
569
667
742
820
836
752
636
530
393
216
55
-64
-161
-237
-280
-290
-282
-306
-343
-287
-196
-220
-277
-243
-222
-269
-289
-280
-295
-302
-292
-302
-313
-310
-315
-317
-299
-295
-305
-287
-257
-266
-289
-279
-271
-306
-318
-252
-176
-154
-153
-146
-151
-172
-183
-139
-103
-176
-167
144
716
1579
2204
1313
-632
-1318
-473
59
-102
-134
-62
-108
-96
-43
3
118
210
222
268
358
437
535
648
748
850
929
934
888
824
705
517
311
140
14
-90
-187
-259
-283
-279
-277
-275
-263
-260
-270
-272
-265
-261
-260
-269
-295
-313
-303
-301
-324
-337
-321
-314
-336
-347
-326
-311
-322
-317
-289
-286
-307
-309
-292
-292
-314
-340
-336
-282
-194
-135
-161
-221
-225
-202
-183
-135
-148
-222
-59
433
1152
1940
1870
335
-1087
-875
-111
-55
-205
-126
-102
-114
-46
9
54
98
105
156
283
394
489
598
687
758
834
890
901
834
670
484
333
174
8
-116
-211
-285
-312
-299
-272
-259
-278
-293
-268
-229
-204
-192
-213
-264
-275
-237
-228
-261
-277
-274
-281
-283
-267
-253
-263
-304
-337
-327
-323
-350
-335
-248
-168
-161
-212
-241
-230
-236
-213
-142
-179
-230
36
669
1607
2350
1658
-262
-1193
-558
-61
-211
-219
-116
-162
-124
-29
-27
14
110
134
170
302
437
530
646
797
913
959
968
969
902
707
456
253
77
-109
-250
-310
-347
-399
-416
-371
-342
-368
-370
-322
-304
-315
-309
-328
-356
-323
-293
-337
-356
-311
-308
-349
-345
-320
-316
-299
-284
-294
-292
-280
-277
-260
-250
-280
-305
-298
-277
-242
-200
-160
-122
-129
-166
-167
-162
-165
-113
-105
-161
4
491
1263
2124
2000
363
-1010
-729
-47
-68
-197
-101
-82
-91
-30
5
24
67
125
202
297
405
512
593
673
784
884
932
922
852
724
558
378
197
25
-127
-251
-327
-345
-342
-344
-321
-282
-276
-285
-273
-268
-291
-311
-309
-302
-290
-272
-280
-317
-329
-321
-337
-347
-318
-304
-327
-328
-288
-275
-315
-351
-356
-372
-368
-271
-160
-155
-208
-207
-189
-221
-212
-144
-189
-247
-19
539
1529
2584
2193
178
-1077
-557
0
-186
-280
-167
-172
-146
-71
-61
-3
98
116
133
244
365
460
589
733
821
870
920
928
839
668
464
263
77
-86
-206
-280
-338
-388
-401
-368
-322
-304
-317
-334
-333
-304
-272
-286
-323
-328
-323
-326
-310
-296
-311
-322
-314
-310
-312
-308
-298
-292
-296
-317
-341
-346
-336
-318
-259
-176
-159
-218
-235
-183
-174
-201
-165
-157
-199
-64
365
1260
2502
2638
815
-910
-754
-57
-119
-280
-176
-170
-178
-87
-61
-55
35
114
160
242
337
412
531
690
798
846
889
923
902
778
558
338
150
-37
-182
-258
-321
-371
-373
-349
-328
-322
-331
-320
-287
-276
-290
-297
-298
-304
-314
-326
-328
-314
-297
-290
-295
-299
-301
-303
-288
-270
-284
-297
-255
-228
-278
-306
-259
-258
-330
-341
-269
-206
-151
-100
-125
-181
-159
-128
-133
-101
-120
-215
-103
381
1301
2403
2358
563
-974
-730
-75
-137
-230
-107
-143
-157
-43
-29
-29
77
133
133
227
353
420
521
682
779
812
888
950
887
747
582
367
150
-2
-127
-237
-287
-297
-303
-294
-288
-300
-290
-251
-252
-312
-349
-316
-280
-302
-319
-289
-297
-358
-352
-294
-300
-333
-319
-296
-288
-282
-291
-294
-271
-258
-277
-314
-343
-340
-320
-299
-240
-160
-132
-164
-195
-199
-193
-156
-108
-163
-219
-19
497
1466
2601
2386
364
-1140
-725
-50
-176
-265
-109
-137
-174
-75
-29
-10
56
103
158
277
394
451
514
650
797
868
878
865
828
758
615
371
134
5
-91
-208
-259
-260
-311
-345
-292
-253
-260
-249
-261
-304
-288
-267
-316
-327
-271
-287
-344
-313
-275
-315
-324
-279
-295
-318
-252
-213
-286
-317
-238
-197
-250
-298
-307
-311
-313
-305
-265
-183
-128
-154
-185
-171
-181
-191
-127
-125
-219
-113
373
1303
2479
2597
801
-1018
-929
-110
-95
-300
-169
-126
-192
-110
-29
-33
16
101
139
191
301
414
506
599
697
789
861
882
834
721
578
420
213
-5
-122
-174
-267
-341
-333
-325
-326
-291
-288
-327
-306
-266
-312
-365
-326
-278
-309
-342
-323
-313
-325
-316
-317
-343
-333
-299
-301
-303
-287
-296
-322
-330
-304
-252
-256
-347
-387
-328
-294
-286
-206
-121
-145
-226
-258
-219
-143
-143
-231
-161
216
961
2126
2726
1411
-689
-1164
-335
-40
-264
-246
-160
-181
-148
-96
-48
41
96
119
193
292
381
492
612
712
800
873
922
925
829
640
456
318
178
28
-99
-192
-242
-247
-233
-216
-209
-219
-221
-205
-206
-225
-213
-178
-178
-207
-211
-203
-204
-184
-154
-156
-169
-164
-170
-179
-147
-110
-125
-141
-114
-109
-127
-94
-69
-143
-214
-184
-120
-56
17
41
-5
-29
12
35
-12
-49
-6
