# session 11
-78
-35
-134
-89
258
506
381
168
88
24
-52
-75
-85
-108
-121
-139
-168
-182
-162
-119
-85
-81
-99
-138
-161
-112
-81
-148
-138
188
892
1541
1155
-244
-1006
-457
83
-34
-122
-10
-12
-41
10
42
60
110
173
239
316
411
525
633
734
830
901
932
906
782
569
340
146
-4
-107
-176
-235
-280
-296
-305
-330
-355
-349
-342
-358
-355
-303
-257
-246
-260
-303
-323
-268
-259
-350
-316
72
840
1419
818
-611
-1115
-435
-16
-186
-216
-109
-133
-132
-68
-51
-23
45
95
147
226
312
403
502
582
630
663
678
631
498
315
132
-31
-161
-252
-320
-373
-400
-411
-422
-430
-435
-443
-451
-452
-425
-365
-323
-324
-338
-366
-373
-320
-323
-405
-319
156
933
1321
491
-876
-1116
-364
-56
-257
-254
-156
-177
-147
-72
-39
19
94
137
192
271
346
423
503
565
613
651
661
628
536
387
226
92
-27
-132
-197
-233
-274
-303
-307
-319
-351
-366
-360
-360
-333
-253
-197
-214
-250
-268
-250
-204
-237
-320
-172
376
1049
1052
-75
-1236
-1084
-264
-60
-225
-164
-98
-136
-77
14
41
96
191
264
328
404
479
554
637
710
765
798
792
719
574
382
190
31
-93
-187
-245
-276
-300
-318
-329
-337
-335
-323
-323
-322
-288
-246
-236
-244
-268
-311
-296
-236
-263
-292
-98
400
1066
1210
230
-887
-798
-118
-5
-158
-81
-29
-76
-46
4
27
80
145
201
266
327
392
487
584
653
703
738
726
639
485
299
132
6
-83
-148
-194
-224
-247
-260
-265
-276
-297
-307
-306
-315
-306
-258
-226
-238
-264
-305
-325
-270
-272
-394
-326
221
1025
1286
378
-895
-1078
-389
-94
-236
-221
-146
-177
-157
-94
-67
-19
55
113
171
242
312
386
462
522
562
587
587
533
418
270
126
-4
-109
-181
-239
-292
-326
-342
-366
-394
-418
-439
-456
-469
-451
-381
-329
-345
-382
-412
-418
-366
-365
-454
-367
86
799
1267
684
-648
-1121
-439
10
-141
-164
-35
-35
-19
61
102
151
222
271
320
371
397
423
465
498
518
545
585
593
519
379
226
76
-65
-163
-218
-263
-306
-328
-331
-335
-354
-378
-386
-390
-390
-342
-256
-217
-227
-232
-239
-241
-213
-202
-222
-118
458
1564
2101
964
-641
-813
-130
-30
-249
-200
-135
-145
-83
-39
-40
6
78
143
196
228
302
447
561
607
654
705
708
644
502
306
129
-6
-127
-225
-280
-313
-338
-346
-337
-330
-334
-344
-346
-350
-358
-337
-282
-242
-242
-272
-308
-293
-245
-255
-312
-290
141
1282
2225
1457
-295
-820
-188
19
-205
-168
-84
-146
-142
-75
-34
23
81
107
141
199
265
339
418
477
510
534
535
470
330
157
-12
-152
-253
-327
-386
-424
-447
-468
-485
-492
-498
-510
-524
-537
-544
-511
-427
-364
-362
-385
-411
-405
-350
-346
-419
-389
4
921
1743
1206
-378
-1018
-372
25
-157
-169
-55
-86
-79
1
35
75
143
187
229
285
330
368
422
474
497
497
491
469
410
301
164
38
-66
-154
-214
-245
-269
-286
-284
-279
-292
-321
-342
-345
-345
-320
-250
-189
-182
-202
-233
-245
-199
-173
-235
-237
36
754
1595
1419
-3
-949
-496
59
-50
-147
-36
-32
-46
15
49
82
152
212
262
319
384
467
554
622
677
720
742
723
628
461
276
115
-14
-111
-185
-244
-280
-293
-304
-315
-317
-324
-343
-350
-362
-398
-390
-294
-208
-210
-253
-293
-293
-250
-273
-352
-272
136
869
1340
644
-687
-1002
-332
-39
-215
-205
-121
-158
-141
-72
-44
0
69
115
160
220
284
354
426
482
521
549
547
485
359
197
40
-81
-163
-220
-262
-291
-308
-320
-328
-328
-328
-349
-376
-388
-404
-415
-356
-258
-218
-239
-274
-293
-263
-239
-304
-366
-193
580
1803
2077
618
-806
-650
-47
-115
-260
-148
-133
-163
-93
-45
-16
58
123
170
232
291
342
403
458
487
497
493
461
385
270
141
15
-95
-182
-242
-284
-311
-322
-325
-327
-323
-329
-356
-379
-395
-421
-405
-306
-213
-203
-236
-269
-268
-220
-224
-310
-312
60
1074
2106
1655
-110
-974
-381
36
-169
-204
-90
-128
-124
-41
-13
24
102
159
209
276
339
391
441
479
497
497
487
458
382
253
106
-15
-113
-214
-304
-333
-300
-274
-294
-328
-340
-352
-367
-362
-357
-389
-399
-324
-233
-213
-240
-270
-286
-255
-223
-277
-331
-118
634
1553
1390
-119
-1162
-681
-1
-52
-173
-66
-51
-71
-5
42
77
146
208
266
348
441
537
639
727
790
834
851
810
685
489
272
77
-79
-197
-283
-341
-378
-394
-395
-394
-393
-385
-379
-394
-409
-401
-408
-429
-396
-323
-290
-289
-292
-310
-289
-248
-302
-321
-85
396
964
1056
119
-969
-877
-146
21
-140
-91
-43
-83
-56
-31
-22
71
187
243
294
379
476
569
653
726
795
845
830
716
520
302
110
-48
-166
-238
-285
-324
-341
-342
-354
-371
-368
-351
-356
-382
-390
-392
-417
-407
-324
-251
-246
-274
-304
-290
-240
-276
-366
-287
189
1149
1853
1085
-544
-1004
-280
31
-187
-178
-76
-113
-93
-21
0
42
121
185
247
321
393
469
542
582
596
615
618
556
428
273
114
-28
-135
-215
-274
-309
-329
-341
-346
-346
-348
-347
-349
-362
-385
-412
-424
-376
-285
-231
-239
-268
-301
-301
-260
-264
-323
-294
98
1086
1962
1312
-452
-1133
-421
4
-199
-224
-112
-141
-126
-50
-28
20
114
181
237
314
396
478
557
630
687
717
719
677
561
385
197
25
-120
-221
-284
-336
-374
-384
-382
-385
-378
-367
-374
-389
-390
-389
-402
-405
-355
-278
-249
-274
-304
-319
-288
-239
-272
-312
-124
440
1233
1451
385
-931
-935
-156
46
-154
-125
-33
-34
-2
39
49
89
165
250
330
402
496
611
705
780
851
880
833
715
539
332
139
-20
-142
-223
-270
-307
-342
-366
-365
-359
-373
-387
-379
-380
-399
-406
-407
-410
-374
-306
-273
-284
-318
-336
-289
-260
-319
-316
-94
507
1404
1560
295
-909
-667
-16
-43
-195
-101
-86
-120
-59
-16
2
60
120
172
249
336
422
516
601
662
696
694
634
507
330
145
-9
-123
-209
-271
-313
-339
-355
-361
-363
-369
-373
-368
-377
-407
-422
-429
-456
-440
-339
-253
-249
-276
-299
-290
-248
-255
-322
-304
129
1268
2281
1595
-276
-995
-332
7
-215
-216
-113
-154
-135
-59
-38
5
81
135
192
265
333
402
470
523
564
589
577
513
399
253
98
-39
-135
-202
-266
-313
-327
-332
-338
-332
-327
-333
-338
-349
-373
-398
-424
-438
-380
-275
-228
-248
-274
-291
-271
-231
-264
-334
-208
451
1605
2082
834
-802
-908
-151
-14
-207
-140
-85
-123
-69
-8
9
65
140
204
279
364
460
574
682
765
823
850
824
712
517
296
97
-66
-186
-265
-328
-375
-389
-388
-399
-404
-390
-385
-394
-399
-398
-398
-409
-432
-414
-329
-261
-258
-284
-314
-298
-238
-260
-323
-216
165
924
1635
1151
-325
-929
-322
32
-161
-177
-76
-109
-99
-35
-18
18
83
131
190
269
349
438
535
616
677
712
697
611
459
273
101
-35
-136
-210
-260
-294
-317
-332
-340
-343
-346
-348
-346
-359
-383
-394
-409
-434
-398
-292
-224
-229
-256
-281
-265
-219
-249
-333
-284
251
1489
2394
1446
-442
-939
-231
-16
-250
-214
-137
-185
-142
-71
-49
16
104
164
233
311
375
437
499
542
562
553
501
409
286
149
19
-87
-168
-227
-268
-298
-317
-325
-327
-326
-329
-332
-333
-346
-371
-382
-394
-424
-403
-302
-226
-233
-263
-286
-281
-239
-257
-343
-287
260
1403
2166
1213
-606
-1087
-343
-47
-248
-203
-111
-176
-163
-76
-21
42
100
145
240
360
449
532
637
731
801
843
826
725
562
361
163
7
-111
-212
-282
-317
-347
-374
-382
-379
-376
-378
-387
-401
-407
-404
-402
-404
-389
-339
-281
-266
-281
-293
-311
-295
-240
-262
-312
-139
370
1092
1436
627
-735
-1033
-315
34
-123
-124
-42
-75
-62
0
22
61
132
204
280
358
444
549
647
734
821
871
838
714
519
314
149
5
-127
-228
-295
-319
-303
-308
-351
-380
-383
-378
-351
-318
-326
-364
-391
-396
-386
-348
-293
-251
-239
-262
-280
-233
-193
-235
-292
-284
212
1615
2651
1529
-513
-929
-187
-43
-254
-156
-91
-169
-137
-64
-37
19
79
105
147
213
267
311
369
425
461
479
457
376
261
133
-2
-98
-150
-220
-300
-329
-314
-299
-296
-303
-302
-283
-287
-333
-362
-358
-387
-433
-408
-311
-223
-203
-257
-318
-286
-205
-221
-311
-353
-160
768
2201
2323
477
-1008
-663
-53
-217
-335
-166
-158
-203
-129
-69
-42
14
78
140
211
292
359
392
430
490
518
511
502
450
315
138
-22
-118
-159
-210
-276
-303
-306
-315
-310
-294
-296
-299
-299
-322
-356
-359
-350
-376
-385
-302
-197
-184
-240
-282
-254
-185
-200
-273
-222
125
1047
2153
1907
117
-993
-479
48
-132
-211
-70
-75
-103
-45
-12
17
96
174
235
321
408
438
454
526
606
641
648
614
498
315
121
-20
-95
-158
-234
-296
-311
-288
-281
-316
-346
-331
-304
-308
-339
-361
-352
-352
-381
-362
-261
-187
-219
-286
-309
-271
-219
-229
-263
-225
98
1096
2203
1763
-74
-955
-337
65
-184
-249
-123
-122
-127
-98
-89
-38
44
107
163
218
274
329
354
364
403
450
444
372
251
108
-27
-133
-207
-260
-301
-326
-334
-340
-351
-358
-355
-354
-357
-364
-385
-412
-426
-448
-460
-390
-281
-239
-259
-291
-305
-265
-239
-286
-326
-225
470
2016
2916
1541
-530
-840
-133
-76
-289
-197
-151
-188
-117
-60
-42
25
90
132
196
270
342
416
471
519
572
596
572
503
369
188
34
-76
-170
-241
-283
-317
-342
-348
-351
-354
-347
-338
-333
-337
-352
-354
-345
-368
-387
-320
-225
-202
-221
-241
-261
-231
-199
-264
-303
-133
459
1585
2232
1125
-597
-840
-128
-15
-226
-142
-88
-155
-105
-37
-40
-4
78
145
204
275
354
438
524
609
676
705
676
573
409
234
81
-48
-151
-216
-252
-282
-309
-326
-334
-333
-330
-333
-334
-329
-338
-356
-356
-363
-394
-374
-282
-211
-211
-245
-273
-251
-206
-230
-288
-291
32
1188
2500
2045
33
-941
-344
16
-226
-239
-131
-182
-175
-104
-92
-62
2
42
89
154
213
278
349
409
455
484
474
406
283
135
-3
-116
-204
-264
-300
-324
-339
-345
-347
-349
-347
-342
-339
-339
-355
-382
-400
-420
-449
-422
-316
-231
-223
-249
-277
-268
-220
-228
-281
-281
-3
1093
2598
2517
482
-912
-484
22
-183
-253
-120
-153
-162
-76
-49
-19
58
113
164
239
306
367
432
487
529
560
556
497
389
251
114
2
-90
-169
-227
-263
-283
-294
-301
-301
-296
-298
-304
-304
-305
-308
-308
-321
-344
-369
-401
-391
-294
-202
-202
-238
-256
-254
-220
-208
-248
-240
17
899
2178
2273
522
-972
-691
-27
-107
-245
-137
-134
-145
-70
-47
-30
40
96
149
227
305
396
500
583
653
722
754
720
611
438
243
65
-78
-182
-257
-312
-345
-367
-387
-396
-393
-389
-390
-387
-379
-376
-377
-378
-389
-405
-406
-416
-437
-392
-290
-244
-261
-282
-299
-269
-219
-262
-283
-94
418
1401
2140
1303
-421
-894
-216
5
-214
-172
-91
-138
-102
-43
-39
10
85
126
178
256
335
422
514
589
649
692
682
590
432
258
101
-30
-132
-201
-245
-277
-297
-304
-308
-314
-320
-321
-315
-313
-313
-308
-314
-342
-359
-363
-391
-392
-302
-204
-186
-213
-245
-249
-201
-196
-254
-268
-89
802
2405
2879
1092
-734
-646
-15
-137
-295
-163
-162
-200
-125
-89
-75
-9
46
88
157
226
285
353
418
466
499
511
473
375
244
112
-6
-102
-175
-231
-273
-298
-311
-320
-321
-318
-320
-322
-316
-315
-321
-322
-329
-355
-377
-397
-424
-396
-288
-208
-213
-242
-264
-257
-214
-220
-273
-242
96
1157
2531
2412
430
-972
-567
-8
-176
-270
-147
-168
-184
-101
-59
-27
41
97
156
235
312
393
479
552
614
659
673
639
534
367
190
33
-98
-193
-251
-303
-354
-379
-377
-376
-381
-378
-370
-372
-375
-368
-357
-355
-358
-367
-383
-395
-420
-449
-409
-300
-236
-246
-261
-276
-273
-225
-228
-271
-174
202
1097
2170
1930
126
-1033
-532
21
-146
-230
-109
-132
-148
-76
-47
-20
44
94
153
244
331
412
508
608
692
762
796
747
604
416
229
58
-81
-181
-251
-292
-313
-333
-353
-361
-359
-357
-358
-360
-355
-342
-334
-330
-330
-343
-354
-354
-374
-397
-337
-228
-188
-209
-230
-240
-205
-167
-215
-254
-135
392
1609
2548
1596
-362
-896
-182
32
-202
-149
-60
-109
-74
-9
4
52
121
167
222
285
342
408
475
528
568
587
561
480
352
202
63
-48
-128
-184
-220
-245
-260
-265
-268
-271
-271
-270
-274
-277
-279
-280
-278
-287
-313
-331
-345
-378
-374
-274
-169
-158
-188
-206
-215
-178
-149
-210
-229
2
759
2089
2741
1401
-522
-808
-108
-21
-231
-149
-97
-146
-106
-70
-51
20
79
122
204
292
367
463
559
629
696
749
735
631
467
270
69
-96
-211
-295
-356
-390
-417
-446
-457
-458
-463
-458
-450
-459
-470
-470
-471
-470
-459
-457
-474
-484
-481
-498
-526
-494
-402
-349
-363
-379
-392
-394
-346
-334
-383
-276
123
855
1657
1473
-33
-1140
-736
-98
-160
-276
-171
-164
-182
-111
-67
-37
33
99
161
247
336
427
534
640
725
789
817
775
650
472
293
142
23
-65
-118
-144
-153
-150
-140
-133
-128
-120
-109
-98
-83
-65
-45
-24
-3
13
22
26
29
