# session 28
-54
-68
-26
-53
-216
-356
-362
-331
-336
-333
-318
-312
-300
-291
-296
-291
-274
-273
-278
-266
-255
-253
-245
-235
-233
-224
-206
-202
-210
-207
-195
-185
-178
-170
-161
-156
-154
-149
-143
-140
-135
-132
-138
-146
-153
-168
-187
-201
-213
-203
-164
-136
-121
-93
-85
-85
-37
-44
-103
107
746
1679
2443
1966
109
-1137
-594
205
136
-43
57
58
12
67
91
85
118
139
142
167
197
221
248
275
304
340
375
410
454
504
554
601
650
703
755
794
818
810
734
578
381
185
4
-152
-265
-335
-379
-401
-402
-396
-389
-378
-367
-361
-356
-353
-355
-358
-357
-357
-360
-360
-359
-358
-355
-350
-351
-348
-336
-326
-326
-325
-315
-303
-295
-290
-283
-276
-269
-257
-248
-246
-242
-231
-220
-213
-207
-201
-196
-189
-180
-175
-171
-165
-158
-156
-157
-152
-145
-150
-159
-167
-185
-210
-227
-234
-211
-169
-148
-126
-95
-102
-92
-35
-78
-121
214
1006
2033
2592
1619
-323
-1022
-204
296
57
-18
78
22
10
80
88
94
133
147
160
195
221
241
271
308
346
379
410
455
507
554
609
676
738
791
844
883
893
850
727
535
318
112
-73
-223
-328
-387
-415
-423
-418
-401
-387
-382
-377
-364
-356
-358
-355
-346
-350
-364
-365
-355
-352
-354
-347
-336
-331
-328
-322
-313
-305
-299
-297
-294
-286
-274
-261
-252
-251
-254
-249
-238
-228
-215
-206
-203
-197
-189
-188
-186
-176
-170
-168
-162
-154
-149
-145
-142
-143
-143
-142
-146
-153
-157
-168
-193
-213
-215
-204
-175
-153
-147
-119
-91
-101
-76
-32
-87
-47
378
1204
2231
2584
1278
-574
-860
14
279
7
6
79
21
40
92
85
101
136
143
164
200
217
233
264
294
325
366
400
424
463
516
568
618
669
716
755
788
798
757
645
474
285
101
-67
-204
-296
-351
-382
-390
-386
-378
-367
-353
-344
-338
-334
-334
-335
-333
-332
-334
-332
-326
-323
-323
-319
-312
-304
-296
-295
-293
-280
-271
-275
-273
-260
-253
-253
-247
-236
-234
-236
-230
-216
-204
-199
-195
-187
-181
-183
-179
-167
-160
-159
-155
-152
-146
-137
-134
-135
-131
-124
-125
-128
-124
-117
-119
-134
-144
-148
-162
-190
-210
-208
-182
-150
-130
-100
-70
-80
-67
-5
-42
-77
238
939
1858
2500
1789
-87
-1016
-321
287
107
-11
83
49
30
95
103
97
129
142
148
175
196
215
247
278
300
329
371
414
447
484
540
603
653
700
753
804
833
815
729
579
387
180
-10
-159
-265
-340
-388
-405
-403
-400
-396
-385
-376
-369
-361
-358
-360
-355
-348
-350
-356
-355
-351
-350
-351
-348
-342
-339
-336
-326
-315
-314
-311
-298
-285
-277
-271
-266
-264
-259
-250
-240
-232
-224
-216
-211
-209
-206
-194
-182
-184
-189
-184
-173
-165
-158
-155
-159
-153
-137
-135
-153
-161
-159
-176
-204
-219
-224
-210
-171
-141
-121
-89
-87
-94
-37
-37
-111
83
711
1649
2496
2168
375
-945
-499
255
163
-34
61
62
16
75
103
88
113
140
153
175
198
221
251
279
308
348
389
421
458
511
566
618
675
733
784
833
866
852
768
617
425
219
24
-138
-258
-340
-391
-408
-400
-393
-392
-383
-365
-355
-354
-351
-347
-348
-348
-346
-347
-345
-334
-330
-333
-327
-316
-314
-314
-306
-299
-296
-289
-277
-269
-266
-261
-256
-252
-245
-234
-231
-232
-221
-207
-209
-212
-198
-186
-188
-187
-177
-169
-167
-161
-154
-150
-147
-144
-141
-138
-133
-126
-125
-125
-119
-120
-137
-153
-170
-197
-214
-206
-182
-153
-134
-114
-81
-75
-82
-37
-38
-98
70
611
1494
2467
2399
687
-842
-570
229
191
-40
44
62
3
52
85
75
101
130
138
157
180
201
231
261
286
317
352
386
426
473
518
558
606
665
719
760
789
795
748
635
468
277
93
-64
-193
-289
-344
-365
-371
-371
-366
-360
-354
-347
-338
-337
-344
-347
-341
-339
-342
-342
-338
-332
-325
-320
-319
-314
-301
-291
-290
-293
-289
-280
-269
-262
-256
-250
-241
-233
-228
-223
-219
-216
-209
-195
-182
-180
-180
-175
-170
-167
-154
-138
-139
-147
-138
-125
-130
-136
-130
-124
-122
-113
-106
-111
-109
-99
-103
-122
-135
-140
-150
-170
-195
-198
-162
-127
-111
-79
-61
-76
-38
0
-72
14
549
1382
2161
2143
730
-848
-847
52
262
19
49
117
60
74
118
112
126
156
170
188
207
221
244
273
300
328
361
397
434
475
526
585
638
685
736
789
824
832
797
686
505
306
112
-66
-207
-301
-361
-394
-407
-412
-411
-405
-392
-382
-383
-384
-371
-364
-374
-378
-366
-360
-368
-378
-381
-375
-365
-358
-354
-348
-340
-334
-330
-324
-316
-305
-297
-294
-290
-282
-270
-258
-251
-251
-247
-232
-220
-221
-218
-208
-208
-212
-198
-180
-185
-195
-182
-168
-190
-227
-243
-261
-276
-234
-168
-150
-139
-116
-131
-108
-42
-104
-103
396
1317
2157
2191
901
-677
-848
-27
231
-16
-17
65
23
46
105
100
112
149
158
165
189
216
244
274
306
350
399
442
488
547
616
686
752
822
899
961
998
1002
930
750
509
272
60
-124
-257
-338
-389
-414
-411
-396
-387
-376
-361
-350
-352
-357
-361
-359
-351
-348
-353
-356
-353
-345
-344
-359
-371
-362
-350
-346
-337
-328
-326
-320
-314
-322
-325
-311
-300
-297
-284
-271
-270
-260
-238
-238
-254
-251
-233
-224
-216
-199
-192
-196
-186
-170
-173
-189
-212
-248
-270
-264
-257
-241
-204
-174
-149
-125
-129
-109
-64
-109
-127
187
983
2189
2919
1897
-98
-758
-50
246
-34
-63
14
-52
-38
32
24
26
65
80
92
117
137
165
206
246
286
324
355
394
457
528
593
653
720
798
867
905
913
872
739
524
300
99
-89
-241
-329
-376
-407
-412
-406
-412
-414
-398
-385
-383
-374
-361
-360
-366
-363
-357
-362
-373
-367
-347
-338
-340
-331
-318
-317
-315
-304
-294
-289
-282
-272
-265
-264
-261
-245
-229
-229
-235
-231
-219
-207
-200
-199
-197
-193
-186
-173
-156
-148
-152
-155
-151
-149
-144
-132
-126
-136
-153
-180
-214
-219
-199
-198
-200
-172
-130
-97
-98
-106
-54
-36
-115
-28
461
1422
2640
2880
1223
-607
-601
207
215
-70
-13
23
-28
19
49
33
59
91
110
132
133
144
191
226
242
278
326
363
400
450
508
555
594
651
719
762
785
799
762
626
428
236
63
-101
-228
-295
-330
-362
-384
-388
-378
-364
-363
-372
-374
-368
-364
-363
-372
-384
-377
-367
-369
-362
-344
-348
-361
-351
-331
-323
-318
-307
-300
-303
-302
-281
-262
-263
-268
-262
-255
-243
-231
-232
-235
-224
-211
-203
-193
-184
-178
-178
-181
-180
-167
-155
-150
-146
-146
-148
-139
-124
-132
-156
-161
-154
-170
-200
-213
-205
-186
-165
-137
-98
-87
-91
-40
-18
-89
1
490
1456
2681
2918
1224
-671
-686
172
224
-52
24
76
1
25
66
61
85
112
119
135
150
167
200
233
260
286
311
345
385
415
442
487
534
565
600
640
661
651
615
527
374
206
68
-50
-159
-234
-274
-304
-321
-313
-301
-312
-327
-317
-305
-320
-338
-334
-328
-332
-332
-328
-326
-324
-325
-329
-331
-324
-308
-290
-282
-289
-298
-293
-278
-270
-263
-250
-240
-238
-235
-222
-212
-215
-222
-219
-197
-176
-180
-188
-171
-157
-168
-171
-157
-157
-154
-129
-115
-130
-144
-135
-115
-108
-123
-137
-144
-159
-178
-192
-206
-196
-164
-151
-127
-79
-73
-72
-19
-39
-78
180
901
2063
2982
2248
127
-937
-244
326
87
-40
64
32
14
77
78
65
87
100
116
152
179
192
203
218
241
263
290
329
362
380
407
444
460
464
484
508
502
482
447
353
210
85
-12
-104
-174
-215
-243
-254
-260
-287
-307
-291
-277
-293
-305
-299
-295
-298
-307
-316
-314
-304
-301
-302
-296
-289
-292
-299
-298
-279
-266
-270
-263
-241
-246
-274
-271
-239
-222
-223
-226
-224
-217
-208
-202
-196
-186
-180
-179
-175
-168
-161
-157
-160
-160
-152
-145
-135
-120
-120
-132
-125
-110
-114
-118
-117
-139
-164
-165
-171
-183
-168
-142
-109
-64
-57
-55
-3
-14
-58
153
789
1867
2829
2278
209
-1026
-408
299
142
-18
88
76
31
70
81
82
113
131
148
171
179
191
220
241
255
284
319
342
351
369
402
430
447
464
474
476
478
469
427
353
252
131
18
-63
-128
-187
-227
-246
-250
-246
-253
-269
-272
-269
-278
-285
-280
-282
-290
-293
-289
-277
-273
-290
-305
-297
-284
-283
-285
-278
-272
-270
-267
-259
-261
-268
-255
-235
-244
-260
-247
-233
-241
-242
-231
-223
-213
-207
-211
-197
-173
-179
-197
-187
-171
-167
-162
-150
-141
-136
-138
-141
-149
-169
-186
-193
-211
-230
-215
-182
-151
-109
-84
-92
-57
-25
-80
1
512
1463
2434
2340
666
-921
-751
136
233
-12
45
98
39
66
106
100
117
138
144
168
194
207
233
264
283
310
351
384
409
439
475
516
560
594
627
665
683
671
633
536
369
194
47
-93
-213
-277
-301
-323
-343
-348
-342
-335
-332
-333
-333
-331
-328
-329
-334
-335
-333
-334
-337
-334
-329
-324
-317
-313
-318
-320
-306
-289
-288
-298
-296
-276
-264
-267
-266
-254
-244
-240
-230
-219
-221
-233
-232
-218
-206
-198
-189
-178
-176
-178
-176
-170
-179
-202
-215
-224
-251
-253
-205
-169
-158
-127
-106
-92
-49
-68
-114
97
766
1900
2837
2185
100
-1042
-381
282
112
-25
69
40
14
69
71
72
115
127
133
171
195
199
223
256
273
292
331
369
394
430
482
515
524
542
579
610
623
605
537
415
264
110
-37
-163
-243
-283
-311
-320
-309
-310
-323
-320
-309
-308
-309
-308
-309
-312
-317
-311
-301
-314
-330
-318
-301
-300
-297
-290
-291
-286
-269
-260
-270
-278
-272
-260
-252
-246
-240
-229
-214
-211
-225
-230
-215
-198
-192
-191
-184
-168
-160
-165
-163
-154
-150
-147
-136
-127
-131
-148
-165
-177
-191
-200
-172
-119
-99
-113
-95
-72
-87
-65
-21
-70
-50
342
1228
2409
2818
1386
-620
-944
-26
273
1
-7
64
0
12
68
64
70
92
101
124
152
167
193
230
255
276
303
324
347
386
426
453
480
510
533
556
580
582
548
472
352
208
76
-37
-132
-201
-242
-274
-297
-298
-290
-298
-306
-298
-295
-310
-317
-316
-327
-335
-326
-323
-332
-323
-309
-317
-328
-320
-316
-324
-324
-312
-295
-284
-281
-274
-259
-262
-275
-265
-240
-231
-233
-227
-214
-202
-198
-198
-198
-191
-179
-174
-176
-165
-152
-161
-167
-160
-175
-201
-213
-238
-251
-211
-163
-130
-103
-110
-99
-37
-74
-95
327
1204
2011
2013
747
-838
-1063
-171
256
72
43
124
91
103
156
151
157
189
198
208
244
276
290
301
327
367
397
417
445
477
509
554
596
618
650
693
703
683
649
563
408
237
80
-64
-165
-223
-273
-305
-303
-297
-305
-305
-295
-289
-282
-275
-274
-273
-277
-287
-284
-271
-276
-284
-271
-266
-273
-264
-258
-271
-261
-230
-235
-261
-254
-227
-227
-245
-234
-207
-213
-237
-228
-209
-216
-229
-232
-244
-260
-256
-243
-229
-190
-140
-137
-177
-212
-235
-227
-192
-209
-223
-164
-192
-212
221
993
1468
1245
206
-1012
-1176
-352
143
41
9
90
68
76
130
119
100
132
165
186
207
219
241
288
327
340
365
411
451
487
542
606
657
705
761
808
833
825
746
579
370
169
-11
-157
-260
-323
-348
-352
-353
-350
-338
-328
-323
-318
-312
-306
-305
-318
-333
-337
-342
-346
-344
-350
-358
-347
-339
-354
-358
-341
-334
-346
-356
-360
-358
-328
-257
-197
-200
-227
-236
-251
-258
-236
-236
-232
-190
-231
-286
-34
615
1551
2235
1605
-78
-853
-253
164
-63
-151
-61
-95
-98
-33
-25
-21
18
46
69
97
122
151
179
208
251
298
340
392
456
524
595
668
740
808
865
899
869
733
514
272
44
-152
-294
-381
-431
-458
-465
-455
-443
-440
-435
-423
-419
-421
-418
-418
-423
-420
-411
-406
-402
-396
-390
-385
-376
-361
-351
-350
-345
-333
-327
-328
-330
-334
-340
-321
-251
-168
-151
-186
-206
-209
-203
-184
-192
-187
-121
-142
-231
-56
528
1529
2574
2329
465
-861
-412
214
29
-126
-5
-38
-95
-23
12
10
48
78
95
131
165
191
229
268
303
345
391
435
483
542
605
667
725
780
830
865
867
796
632
416
207
19
-146
-263
-325
-356
-372
-374
-372
-370
-364
-361
-365
-369
-367
-367
-369
-368
-370
-374
-374
-367
-365
-367
-363
-354
-348
-344
-332
-320
-321
-324
-314
-297
-290
-286
-277
-265
-256
-246
-236
-235
-240
-235
-219
-209
-211
-208
-195
-182
-174
-167
-159
-155
-151
-145
-147
-157
-173
-198
-219
-227
-231
-221
-190
-165
-133
-92
-102
-110
-38
-52
-137
113
826
1735
2295
1623
-24
-790
-154
333
116
10
113
80
48
100
112
118
153
170
180
204
226
251
284
310
337
373
410
445
484
527
573
620
669
717
760
792
812
802
732
598
438
281
135
16
-67
-129
-177
-203
-211
-214
-216
-224
-236
-244
-252
-268
-282
-290
-303
-320
-330
-338
-353
-366
-371
-374
-376
-379
-380
-370
-358
-354
-349
-335
-320
-305
-291
-281
-272
-259
-247
-233
-223
-221
-215
-200
-193
-192
-181
-168
-164
-162
-158
-153
-147
-142
-140
-129
-115
-120
-140
-158
-175
-199
-220
-236
-238
-213
-191
-183
-157
-143
-158
-119
-92
-179
-109
413
1293
2108
1946
401
-971
-709
114
151
-91
-52
-27
-65
-27
-18
-40
-11
15
9
10
23
44
65
68
70
94
121
135
152
175
