# session 20
-83
-94
-64
-76
-193
-309
-322
-288
-282
-281
-267
-262
-265
-262
-255
-251
-246
-237
-230
-226
-218
-210
-207
-204
-200
-197
-194
-191
-189
-187
-186
-184
-178
-168
-152
-116
-71
-64
-114
-157
-136
-123
-155
-118
-80
-169
-96
383
1154
2147
2606
1342
-640
-1049
-226
1
-272
-242
-157
-213
-180
-113
-105
-71
-22
3
41
93
133
177
227
281
342
405
467
536
613
686
752
812
855
870
850
775
642
487
339
188
41
-74
-152
-204
-230
-235
-235
-234
-228
-222
-217
-216
-219
-225
-231
-238
-248
-260
-267
-268
-268
-270
-270
-264
-258
-255
-252
-250
-247
-241
-233
-228
-220
-212
-211
-208
-199
-190
-182
-174
-168
-166
-160
-151
-142
-139
-138
-132
-122
-119
-117
-106
-94
-92
-92
-88
-85
-81
-76
-71
-67
-65
-65
-65
-61
-58
-57
-53
-42
-39
-46
-46
-42
-44
-46
-44
-48
-56
-55
-51
-58
-62
-55
-51
-57
-58
-54
-56
-61
-67
-75
-66
-30
9
31
31
-4
-56
-64
-47
-68
-55
-8
-75
-56
402
1197
2059
2390
1239
-721
-1326
-470
18
-188
-227
-123
-153
-140
-74
-69
-54
-8
21
54
100
139
179
229
283
342
406
478
563
652
738
820
889
932
945
914
815
653
469
293
119
-50
-188
-282
-340
-369
-374
-365
-357
-351
-339
-321
-313
-316
-317
-313
-310
-310
-310
-311
-313
-316
-318
-319
-322
-325
-325
-324
-322
-319
-318
-315
-310
-310
-308
-299
-287
-279
-273
-265
-257
-253
-252
-247
-237
-231
-229
-226
-230
-242
-250
-247
-220
-156
-92
-74
-112
-166
-176
-152
-163
-163
-112
-152
-199
112
891
1995
2721
1776
-450
-1480
-683
-22
-205
-297
-177
-203
-213
-137
-116
-101
-47
-13
15
65
113
159
217
281
348
428
519
619
727
836
938
1022
1076
1084
1014
851
632
410
198
-8
-184
-305
-377
-417
-432
-429
-421
-409
-390
-371
-359
-352
-347
-342
-338
-338
-339
-339
-342
-344
-341
-337
-337
-333
-324
-319
-316
-308
-302
-303
-300
-299
-308
-313
-299
-260
-199
-147
-143
-183
-225
-231
-202
-205
-215
-158
-161
-241
-60
556
1586
2702
2543
480
-1304
-1002
-101
-106
-311
-200
-174
-214
-142
-101
-100
-47
2
26
73
127
171
225
291
359
434
523
624
728
827
921
1000
1056
1068
1002
849
643
435
235
46
-112
-224
-294
-328
-336
-331
-326
-313
-294
-277
-269
-264
-260
-256
-255
-256
-260
-264
-266
-268
-267
-265
-265
-264
-261
-257
-255
-251
-244
-238
-233
-227
-223
-221
-215
-209
-205
-203
-199
-193
-185
-183
-183
-176
-165
-162
-160
-156
-153
-150
-144
-140
-138
-133
-125
-122
-124
-123
-118
-114
-114
-114
-109
-103
-102
-102
-100
-97
-94
-93
-91
-90
-91
-86
-80
-85
-99
-113
-125
-142
-171
-189
-169
-146
-135
-93
-65
-75
-29
-5
-88
28
553
1397
2408
2630
1080
-805
-929
-78
49
-204
-143
-86
-144
-101
-47
-49
-17
24
40
73
116
150
193
243
290
340
401
465
532
606
681
751
812
859
885
876
810
682
525
372
225
79
-46
-132
-186
-222
-238
-239
-235
-232
-231
-231
-233
-238
-249
-258
-259
-263
-274
-282
-283
-285
-289
-286
-280
-275
-272
-272
-269
-258
-249
-247
-242
-231
-222
-218
-211
-202
-195
-190
-184
-175
-166
-158
-147
-136
-129
-126
-121
-113
-107
-100
-94
-90
-86
-80
-76
-75
-75
-72
-68
-63
-60
-61
-62
-60
-60
-60
-58
-54
-51
-51
-55
-53
-44
-43
-51
-51
-42
-35
-33
-37
-43
-41
-33
-29
-34
-40
-39
-38
-37
-33
-29
-31
-35
-37
-32
-28
-33
-38
-34
-32
-35
-33
-30
-36
-46
-52
-66
-93
-113
-98
-40
19
11
-42
-49
-34
-48
-14
0
-86
69
679
1452
2090
1965
497
-1064
-1025
-156
11
-205
-148
-88
-134
-92
-42
-40
-8
29
44
82
129
156
188
235
284
335
398
464
529
600
675
743
799
841
864
851
779
646
484
328
181
36
-92
-186
-243
-270
-283
-292
-291
-282
-274
-267
-262
-263
-265
-264
-269
-278
-284
-288
-296
-302
-306
-311
-313
-311
-310
-313
-311
-305
-299
-293
-287
-282
-276
-268
-261
-257
-253
-247
-239
-232
-228
-224
-218
-210
-203
-198
-192
-185
-176
-168
-163
-159
-153
-148
-145
-141
-135
-132
-130
-124
-116
-114
-113
-107
-102
-102
-103
-100
-96
-93
-92
-92
-89
-83
-88
-105
-117
-129
-154
-183
-185
-149
-122
-117
-80
-47
-64
-28
19
-64
-9
468
1269
2283
2753
1507
-496
-956
-138
112
-166
-147
-61
-120
-92
-27
-28
-4
42
62
89
131
168
212
264
314
374
445
520
599
685
773
858
935
992
1018
994
898
736
546
355
167
-10
-156
-255
-315
-348
-358
-350
-341
-336
-323
-305
-298
-297
-294
-293
-299
-303
-306
-313
-318
-318
-317
-318
-313
-306
-303
-301
-295
-288
-283
-278
-270
-263
-258
-251
-242
-236
-232
-224
-216
-212
-207
-200
-195
-191
-185
-179
-175
-167
-159
-157
-155
-148
-141
-139
-137
-134
-133
-131
-129
-128
-123
-115
-113
-117
-116
-109
-104
-103
-100
-96
-93
-90
-83
-79
-81
-80
-75
-79
-90
-97
-108
-129
-159
-183
-170
-133
-118
-96
-50
-55
-55
14
-16
-79
205
864
1797
2698
2310
327
-1044
-559
115
-51
-205
-81
-90
-121
-51
-30
-26
21
50
66
105
143
177
223
272
324
390
458
527
606
689
768
844
909
946
952
910
800
633
454
279
107
-52
-175
-257
-306
-327
-328
-321
-316
-308
-297
-289
-287
-285
-284
-287
-292
-296
-301
-306
-306
-306
-309
-307
-300
-297
-295
-288
-281
-281
-279
-272
-265
-260
-252
-245
-241
-238
-232
-224
-217
-211
-206
-198
-189
-184
-180
-173
-168
-164
-157
-150
-148
-145
-137
-132
-132
-130
-122
-117
-118
-118
-114
-109
-108
-108
-106
-101
-98
-98
-95
-90
-84
-82
-81
-79
-75
-70
-69
-71
-69
-69
-75
-82
-93
-112
-138
-166
-169
-139
-120
-102
-54
-41
-55
0
2
-75
120
708
1587
2574
2561
782
-944
-788
31
23
-202
-103
-73
-128
-72
-29
-31
5
39
54
89
131
162
202
252
304
359
419
485
559
640
723
801
862
902
922
904
812
657
488
323
148
-18
-145
-233
-292
-321
-328
-329
-324
-312
-300
-291
-288
-289
-287
-285
-288
-290
-286
-288
-297
-298
-290
-288
-291
-288
-284
-287
-285
-272
-267
-271
-267
-255
-252
-252
-243
-233
-226
-217
-211
-207
-199
-193
-189
-180
-171
-168
-164
-158
-155
-151
-142
-136
-130
-123
-122
-123
-121
-117
-114
-109
-104
-104
-102
-100
-105
-105
-92
-85
-90
-92
-89
-86
-84
-79
-71
-69
-78
-83
-83
-97
-112
-129
-161
-174
-153
-133
-95
-48
-57
-44
15
-31
27
589
1469
2144
2017
638
-1014
-1222
-307
93
-98
-107
-15
-40
-20
32
31
51
94
110
131
173
207
239
286
339
393
456
527
607
696
786
867
941
998
1020
988
890
729
537
347
164
-9
-152
-249
-310
-340
-347
-343
-326
-302
-287
-280
-271
-261
-257
-254
-251
-254
-261
-270
-276
-281
-287
-293
-298
-302
-304
-304
-307
-308
-300
-291
-289
-288
-281
-274
-269
-260
-252
-250
-247
-236
-227
-225
-220
-210
-204
-203
-199
-190
-182
-180
-179
-174
-166
-162
-162
-161
-160
-160
-156
-153
-168
-196
-212
-212
-187
-126
-56
-34
-75
-129
-130
-106
-126
-114
-54
-121
-170
193
1004
2097
2811
1895
-216
-1146
-450
11
-234
-295
-183
-224
-226
-156
-146
-128
-77
-51
-24
25
70
114
167
223
290
370
454
549
658
770
877
980
1061
1103
1087
985
797
576
357
133
-79
-242
-351
-421
-459
-473
-474
-464
-450
-437
-424
-414
-410
-411
-410
-405
-402
-401
-398
-395
-394
-391
-386
-383
-378
-370
-362
-356
-349
-342
-341
-347
-351
-341
-301
-232
-178
-177
-208
-245
-260
-237
-229
-246
-202
-178
-261
-159
404
1445
2657
2764
869
-1169
-1179
-226
-90
-328
-247
-192
-241
-185
-129
-124
-82
-36
-7
42
95
136
193
261
327
403
494
595
707
827
945
1047
1123
1162
1131
1002
794
559
330
112
-82
-226
-310
-350
-372
-382
-377
-364
-351
-338
-324
-317
-311
-302
-299
-302
-299
-295
-297
-297
-295
-295
-294
-288
-281
-271
-261
-258
-256
-246
-237
-235
-233
-227
-219
-209
-200
-199
-198
-189
-179
-175
-170
-164
-160
-157
-152
-146
-142
-139
-134
-128
-123
-118
-113
-110
-106
-101
-98
-96
-94
-93
-92
-89
-88
-96
-109
-121
-140
-168
-192
-193
-167
-146
-137
-93
-58
-78
-45
7
-71
-31
444
1283
2320
2751
1451
-567
-1012
-177
86
-190
-176
-90
-149
-126
-62
-59
-35
5
21
47
87
120
159
208
253
303
363
429
500
574
648
722
792
848
882
888
842
728
570
410
257
103
-37
-140
-202
-240
-264
-276
-278
-278
-279
-277
-278
-284
-291
-299
-305
-308
-311
-317
-320
-320
-320
-318
-313
-314
-315
-308
-301
-300
-297
-288
-280
-276
-274
-270
-264
-256
-250
-245
-238
-229
-222
-220
-215
-208
-202
-197
-189
-182
-174
-166
-163
-161
-152
-145
-146
-142
-136
-136
-135
-127
-121
-119
-117
-113
-108
-106
-110
-117
-126
-141
-157
-173
-179
-157
-133
-121
-81
-50
-64
-31
9
-63
3
483
1330
2373
2694
1220
-804
-1098
-170
98
-167
-143
-62
-112
-80
-24
-29
-4
37
51
77
119
154
193
240
287
337
394
453
519
587
651
711
767
809
829
820
758
634
481
336
193
48
-76
-160
-211
-238
-249
-251
-251
-248
-245
-246
-248
-249
-254
-264
-273
-277
-281
-286
-287
-282
-278
-278
-278
-278
-277
-272
-267
-267
-262
-251
-245
-243
-240
-237
-230
-219
-214
-213
-205
-196
-196
-197
-190
-181
-175
-170
-166
-159
-149
-141
-140
-139
-134
-131
-129
-126
-119
-111
-107
-108
-109
-106
-104
-100
-90
-91
-103
-108
-111
-130
-152
-169
-186
-178
-147
-131
-105
-72
-75
-49
0
-61
-29
433
1270
2220
2528
1207
-802
-1266
-340
80
-154
-165
-65
-110
-95
-28
-29
-20
22
47
72
112
145
177
222
273
322
376
443
512
581
658
733
789
832
866
863
799
674
511
341
179
23
-117
-221
-283
-312
-319
-317
-317
-313
-303
-295
-293
-294
-297
-299
-298
-298
-303
-306
-306
-309
-317
-323
-322
-317
-314
-315
-315
-308
-300
-296
-292
-285
-276
-269
-262
-252
-243
-239
-234
-225
-217
-211
-205
-198
-191
-184
-179
-174
-161
-153
-160
-165
-163
-177
-201
-224
-253
-251
-201
-162
-143
-111
-108
-98
-44
-79
-115
207
994
2095
2795
1819
-380
-1341
-532
77
-133
-212
-86
-120
-133
-57
-44
-40
5
36
61
101
140
182
233
283
339
408
481
556
642
730
811
885
944
973
956
875
722
530
341
165
-3
-146
-246
-306
-334
-337
-328
-319
-311
-304
-298
-291
-283
-283
-290
-293
-295
-303
-308
-303
-299
-301
-295
-286
-284
-283
-277
-271
-268
-266
-262
-255
-248
-243
-237
-233
-231
-225
-217
-213
-208
-202
-201
-196
-185
-178
-176
-172
-168
-165
-158
-152
-149
-145
-137
-131
-131
-129
-123
-121
-120
-114
-112
-125
-139
-147
-163
-190
-207
-191
-156
-144
-126
-78
-73
-83
-18
-20
-97
107
715
1662
2676
2506
572
-1058
-741
58
-8
-211
-104
-93
-138
-73
-38
-38
0
27
44
85
122
150
195
244
291
346
406
469
540
616
689
758
818
859
877
856
771
627
465
305
142
-13
-133
-216
-267
-288
-290
-290
-285
-277
-271
-270
-269
-271
-277
-284
-286
-288
-293
-298
-299
-297
-294
-290
-289
-285
-278
-275
-273
-266
-260
-258
-255
-251
-247
-241
-234
-228
-222
-216
-210
-205
-201
-200
-196
-187
-182
-182
-177
-165
-157
-155
-151
-144
-141
-142
-141
-137
-132
-130
-128
-123
-120
-119
-117
-112
-107
-106
-103
-99
-103
-114
-126
-142
-164
-187
-186
-153
-126
-122
-86
-46
-66
-49
16
-46
-61
318
1062
2096
2827
1908
-230
-1110
-335
131
-133
-183
-72
-127
-119
-41
-50
-41
20
36
40
80
127
170
216
257
298
353
412
468
530
600
673
738
787
817
824
782
680
541
393
243
92
-48
-159
-233
-269
-279
-282
-283
-281
-280
-282
-282
-283
-286
-282
-280
-288
-299
-302
-300
-300
-297
-291
-287
-285
-283
-283
-280
-268
-259
-258
-256
-252
-250
-245
-237
-230
-225
-219
-213
-206
-200
-195
-186
-176
-172
-169
-163
-157
-151
-144
-139
-137
-131
-125
-125
-127
-123
-119
-115
-113
-112
-109
-104
-99
-94
-91
-92
-88
-76
-73
-86
-99
-107
-125
-155
-166
-141
-117
-95
-47
-33
-61
-10
34
-45
57
568
1402
2415
2652
1081
-870
-1000
-73
99
-169
-114
-49
-109
-71
-19
-27
-1
42
61
84
115
148
190
233
273
320
374
436
505
575
640
701
760
809
833
821
767
655
495
331
181
35
-103
-209
-272
-302
-311
-314
-311
-306
-305
-305
-297
-293
-300
-303
-300
-303
-309
-308
-308
-315
-318
-313
-309
-314
-313
-305
-304
-311
-309
-298
-292
-290
-281
-273
-272
-272
-266
-256
-246
-243
-244
-241
-236
-230
-221
-212
-208
-208
-204
-194
-189
-198
-205
-201
-205
-222
-243
-273
-289
-256
-205
-171
-151
-154
-131
-77
-115
-117
298
1178
2143
2369
1038
-942
-1470
-543
17
-146
-187
-86
-113
-105
-34
-21
-14
25
54
78
113
151
193
240
292
347
403
468
551
637
713
792
872
925
941
927
855
700
502
315
141
-19
-150
-247
-306
-328
-323
-305
-286
-276
-265
-248
-236
-228
-217
-212
-215
-215
-218
-223
-220
-211
-207
-206
-200
-194
-187
-181
-178
-174
-162
-151
-147
-143
-128
-111
-102
-96
-90
-83
-77
-71
-62
-52
-46
-37
-19
-3
8
25
34
24
18
28
30
9
-3
14
