# session 3
-34
-110
87
21
-709
-1430
-1495
-1308
-1317
-1354
-1306
-1282
-1261
-1191
-1104
-1043
-1030
-1020
-969
-915
-891
-870
-812
-658
-260
502
1100
564
-736
-1158
-511
-125
-263
-271
-180
-211
-195
-121
-93
-50
19
68
118
162
180
206
250
293
337
378
413
455
507
560
593
554
424
250
82
-56
-162
-235
-269
-278
-296
-316
-312
-301
-304
-300
-264
-211
-179
-180
-197
-230
-235
-173
-159
-241
-161
337
1121
1510
796
-430
-725
-104
213
60
28
96
77
78
105
116
163
214
226
248
293
329
374
437
482
508
541
574
605
655
697
668
554
386
202
39
-82
-170
-231
-263
-285
-311
-330
-340
-358
-382
-384
-345
-284
-246
-253
-284
-313
-308
-273
-288
-359
-296
190
1124
1669
835
-600
-893
-214
42
-159
-159
-81
-126
-128
-82
-64
-28
21
50
83
120
141
171
229
287
323
338
340
352
382
408
402
348
246
107
-42
-164
-243
-293
-327
-353
-375
-390
-404
-428
-443
-432
-400
-348
-292
-271
-295
-335
-341
-296
-279
-333
-251
241
971
1134
175
-1018
-1076
-289
79
-57
-82
-13
-29
-19
19
30
75
145
178
199
239
277
305
331
356
376
379
362
349
349
356
367
350
266
124
-25
-146
-224
-266
-287
-296
-299
-312
-330
-338
-333
-317
-286
-246
-222
-234
-261
-281
-305
-293
-242
-267
-280
37
638
951
451
-606
-1144
-649
1
63
-63
-22
-2
-32
-1
39
58
108
172
223
279
339
385
422
462
495
511
520
541
571
598
610
586
490
312
102
-73
-191
-265
-312
-337
-350
-367
-387
-397
-390
-379
-373
-350
-307
-286
-291
-299
-324
-336
-283
-270
-334
-250
153
844
1408
992
-286
-878
-313
121
-45
-116
-18
-55
-93
-46
-23
5
70
110
130
170
216
264
320
365
401
449
493
516
534
550
524
423
258
75
-88
-216
-305
-357
-387
-407
-418
-418
-423
-440
-464
-484
-484
-442
-365
-297
-267
-274
-290
-275
-242
-237
-273
-340
-129
905
2110
1690
-171
-1051
-394
63
-139
-177
-61
-100
-97
-12
9
26
87
131
163
213
255
285
320
353
378
401
421
439
465
486
467
388
260
111
-34
-151
-229
-281
-320
-339
-346
-354
-359
-368
-394
-408
-377
-331
-299
-271
-252
-263
-292
-320
-308
-265
-278
-320
-143
442
1098
961
-180
-1074
-750
-61
32
-101
-48
-17
-46
-7
35
52
96
140
172
224
278
308
329
359
394
417
420
417
428
444
449
420
334
200
55
-81
-188
-252
-285
-313
-335
-350
-371
-397
-412
-423
-433
-423
-382
-326
-289
-279
-277
-287
-291
-245
-210
-246
-181
187
825
1314
916
-310
-978
-453
129
76
-29
55
58
30
73
94
100
143
185
215
249
271
292
335
383
418
455
484
500
528
564
565
502
380
223
62
-81
-188
-252
-289
-319
-345
-360
-367
-377
-386
-383
-384
-402
-387
-324
-287
-299
-317
-341
-338
-286
-298
-362
-271
86
784
1493
1175
-183
-881
-352
61
-115
-179
-82
-117
-148
-109
-102
-89
-43
-12
13
42
58
78
120
165
201
235
271
303
338
373
374
303
173
37
-73
-158
-217
-252
-277
-296
-303
-305
-305
-313
-337
-354
-359
-373
-361
-274
-174
-143
-175
-218
-193
-108
-94
-173
-236
25
1168
2683
2650
834
-416
-160
117
-138
-209
-93
-109
-130
-110
-125
-115
-71
-48
-22
22
54
79
116
156
189
214
235
258
295
340
361
323
222
85
-52
-162
-238
-290
-327
-351
-364
-376
-386
-392
-406
-426
-436
-449
-459
-414
-332
-302
-325
-347
-350
-312
-269
-310
-336
-66
659
1474
1391
134
-852
-520
102
73
-79
6
30
-6
29
57
75
137
190
221
265
311
350
397
442
471
488
490
486
489
491
460
389
277
127
-33
-159
-247
-311
-350
-367
-382
-396
-396
-387
-382
-386
-390
-389
-383
-365
-321
-269
-261
-294
-328
-341
-324
-296
-312
-332
-118
548
1231
899
-432
-1174
-620
16
-11
-107
-13
0
-17
45
85
101
145
191
229
268
300
334
385
432
465
498
539
581
623
665
671
585
411
213
27
-133
-243
-305
-350
-383
-394
-390
-384
-383
-390
-402
-403
-396
-392
-373
-316
-258
-244
-255
-266
-282
-260
-208
-221
-255
-117
375
1218
1667
809
-563
-778
-102
114
-75
-56
4
-49
-45
-8
-7
12
35
59
134
221
258
283
334
386
430
472
510
550
586
581
493
323
119
-56
-184
-278
-341
-376
-396
-409
-411
-410
-413
-411
-407
-414
-420
-419
-428
-420
-355
-281
-261
-282
-307
-305
-265
-249
-289
-308
-83
800
2031
2049
420
-806
-438
125
-6
-127
-29
-51
-84
-21
-2
-8
26
55
80
124
163
200
250
305
360
417
466
508
550
580
565
475
323
149
-11
-138
-230
-292
-335
-364
-375
-369
-357
-350
-344
-343
-352
-359
-371
-397
-387
-315
-264
-283
-317
-343
-354
-309
-303
-400
-343
149
962
1423
746
-605
-1061
-403
46
-82
-119
-12
-17
-12
56
88
118
177
221
257
296
324
352
387
416
439
458
464
461
464
463
427
332
187
34
-94
-198
-276
-321
-348
-372
-384
-381
-380
-380
-370
-367
-377
-378
-374
-376
-349
-277
-230
-238
-260
-281
-277
-231
-237
-296
-159
429
1365
1812
917
-505
-781
-113
132
-62
-57
16
-21
-3
51
61
95
150
176
201
241
270
298
339
379
409
427
434
439
449
448
410
321
188
37
-94
-193
-269
-321
-345
-356
-365
-369
-370
-370
-373
-384
-395
-393
-404
-424
-387
-295
-248
-268
-289
-302
-301
-263
-264
-324
-196
453
1481
1838
710
-740
-839
-108
78
-113
-72
-3
-43
-18
29
35
74
134
167
206
259
296
329
377
420
443
454
462
469
478
472
413
294
140
-18
-152
-246
-308
-353
-379
-388
-393
-396
-389
-386
-392
-399
-404
-412
-429
-448
-421
-332
-259
-255
-282
-300
-289
-246
-232
-270
-222
221
1218
1970
1253
-337
-843
-186
123
-103
-134
-22
-10
3
6
-17
39
129
169
199
243
265
273
309
362
383
375
389
430
459
459
424
347
222
60
-90
-182
-236
-305
-367
-373
-357
-359
-348
-331
-368
-417
-408
-386
-404
-436
-451
-411
-306
-225
-252
-327
-338
-275
-226
-243
-282
-178
439
1584
2066
832
-819
-959
-130
138
-80
-127
-54
-10
12
-12
5
81
100
119
224
279
257
334
482
530
537
624
707
707
725
772
689
441
190
12
-159
-320
-393
-403
-423
-451
-472
-492
-479
-438
-435
-465
-477
-475
-465
-464
-482
-445
-336
-271
-297
-348
-357
-286
-227
-290
-374
-246
480
1780
2256
869
-706
-634
77
61
-171
-91
-23
-60
-61
-50
-35
28
110
140
111
135
244
300
282
317
397
460
507
502
460
462
411
204
9
-71
-180
-341
-398
-358
-354
-397
-425
-419
-393
-362
-350
-380
-418
-429
-434
-443
-409
-329
-257
-225
-253
-306
-294
-239
-239
-272
-296
-17
1171
2633
2317
245
-903
-338
105
-115
-136
-17
-90
-113
-44
-35
2
88
130
147
193
271
341
365
395
452
467
469
513
521
466
390
264
95
-59
-206
-329
-389
-433
-479
-472
-451
-477
-500
-473
-438
-420
-420
-449
-479
-478
-456
-408
-336
-297
-297
-281
-270
-296
-278
-217
-251
-279
155
1256
2108
1360
-452
-1166
-400
188
45
-55
42
50
37
75
85
89
157
245
280
298
371
462
527
579
632
704
798
853
864
867
784
563
303
81
-95
-213
-291
-358
-393
-412
-445
-453
-430
-431
-442
-426
-421
-441
-444
-452
-506
-524
-415
-279
-265
-340
-390
-371
-327
-349
-415
-333
100
904
1485
880
-529
-1050
-406
60
-44
-94
-22
-42
-51
-11
6
25
65
112
164
213
259
306
340
369
414
462
492
508
514
486
395
241
68
-80
-193
-269
-307
-323
-334
-342
-341
-332
-321
-311
-297
-289
-306
-335
-347
-365
-392
-359
-259
-194
-205
-229
-224
-188
-168
-202
-259
-195
423
1783
2599
1455
-372
-685
-17
73
-163
-107
-55
-115
-82
-36
-37
6
72
109
142
180
215
254
296
336
376
409
426
431
425
393
313
183
30
-109
-212
-283
-331
-364
-380
-384
-386
-388
-386
-380
-372
-369
-380
-390
-382
-383
-396
-354
-272
-247
-278
-293
-288
-270
-237
-237
-276
-174
500
1744
2232
944
-605
-609
88
142
-50
3
21
-27
2
24
38
92
133
157
203
247
285
338
397
443
480
505
517
512
474
396
278
124
-39
-169
-260
-339
-407
-437
-440
-446
-447
-437
-433
-433
-429
-428
-430
-424
-420
-437
-447
-399
-315
-271
-285
-316
-336
-326
-283
-263
-306
-241
399
1614
2077
757
-877
-919
-95
90
-107
-71
-32
-82
-43
11
19
54
105
155
229
302
367
448
525
586
655
726
784
838
869
812
641
410
183
-20
-188
-302
-363
-393
-411
-429
-440
-435
-428
-429
-423
-412
-419
-434
-418
-389
-396
-406
-353
-274
-253
-280
-301
-306
-283
-244
-266
-303
-128
466
1320
1538
426
-898
-872
-72
139
-45
-12
40
-9
24
81
75
86
132
167
205
257
307
357
422
500
566
605
640
680
688
617
458
244
43
-98
-194
-272
-329
-361
-382
-392
-394
-395
-397
-396
-394
-385
-383
-402
-418
-421
-435
-428
-350
-269
-266
-294
-305
-303
-271
-250
-302
-333
-71
802
1891
1795
212
-906
-469
139
29
-100
4
2
-28
23
42
50
101
144
176
223
268
310
364
422
476
524
559
577
575
538
449
309
146
-6
-128
-217
-280
-319
-344
-362
-371
-372
-373
-373
-371
-368
-368
-378
-391
-398
-414
-432
-394
-302
-254
-276
-301
-308
-292
-253
-260
-328
-273
309
1538
2293
1237
-586
-961
-156
128
-95
-76
6
-40
-16
44
55
97
159
197
239
289
334
381
422
459
502
535
539
522
485
418
312
171
15
-125
-225
-291
-338
-374
-399
-410
-414
-422
-427
-423
-419
-417
-419
-426
-434
-444
-473
-477
-396
-286
-259
-291
-307
-312
-301
-261
-264
-315
-196
437
1523
1958
761
-858
-993
-141
130
-73
-58
8
-22
14
66
71
110
175
220
267
323
381
447
510
562
624
692
738
758
750
682
532
332
137
-30
-157
-242
-298
-345
-377
-390
-395
-395
-391
-390
-391
-390
-385
-384
-389
-392
-386
-392
-400
-359
-280
-255
-287
-300
-301
-290
-243
-257
-316
-159
385
1216
1683
907
-532
-909
-196
161
-20
-41
40
7
17
71
77
102
157
196
233
280
323
363
406
458
515
564
596
597
557
503
436
302
108
-59
-162
-235
-287
-318
-342
-361
-367
-367
-373
-377
-373
-374
-377
-382
-404
-424
-420
-429
-445
-390
-292
-263
-297
-321
-327
-304
-272
-298
-341
-207
481
1759
2355
1077
-665
-805
-43
65
-160
-96
-39
-82
-37
11
17
70
135
172
222
280
321
356
397
435
466
495
521
528
497
423
307
162
21
-98
-190
-257
-306
-343
-364
-372
-379
-386
-391
-392
-389
-388
-391
-390
-397
-414
-431
-461
-480
-414
-292
-240
-264
-288
-302
-289
-250
-265
-300
-216
231
1355
2475
1931
-34
-982
-337
133
-79
-141
-39
-72
-65
13
28
41
105
173
233
280
312
356
406
443
482
531
578
610
616
578
481
320
136
-20
-148
-261
-337
-370
-391
-408
-407
-399
-405
-418
-412
-395
-393
-396
-390
-382
-383
-388
-392
-402
-420
-410
-331
-243
-230
-252
-255
-255
-231
-189
-213
-238
-27
649
1674
2037
843
-716
-828
-47
150
-52
-19
39
1
37
81
79
117
172
202
242
294
339
387
445
500
551
602
645
666
659
603
478
300
117
-36
-149
-228
-284
-326
-352
-366
-380
-390
-387
-386
-394
-400
-396
-390
-381
-378
-392
-407
-413
-430
-442
-385
-289
-261
-290
-305
-317
-306
-258
-270
-331
-210
399
1553
2295
1335
-475
-939
-167
136
-98
-93
-2
-48
-30
31
36
62
117
159
208
263
294
305
328
382
456
519
559
579
567
500
375
217
59
-81
-192
-269
-318
-352
-372
-380
-388
-396
-396
-392
-393
-394
-391
-385
-375
-360
-356
-371
-383
-383
-399
-414
-355
-253
-219
-242
-253
-263
-257
-207
-203
-254
-143
451
1625
2455
1576
-314
-944
-190
202
-27
-65
28
-7
10
78
88
113
171
213
260
313
351
390
430
465
506
548
573
578
558
507
422
299
148
7
-97
-177
-248
-299
-329
-348
-362
-369
-368
-369
-379
-388
-382
-372
-372
-371
-369
-369
-361
-345
-351
-376
-390
-400
-400
-339
-242
-219
-262
-275
-269
-264
-222
-214
-250
-64
538
1390
1845
1063
-511
-1110
-387
165
40
-24
75
54
47
112
126
137
196
247
295
361
420
468
526
590
650
706
757
799
820
793
685
497
273
69
-92
-211
-293
-345
-378
-400
-420
-438
-448
-451
-453
-456
-455
-452
-452
-449
-439
-437
-437
-432
-439
-454
-452
-456
-462
-399
-287
-250
-285
-302
-306
-290
-244
-269
-325
-180
352
1343
2127
1438
-286
-925
-226
153
-72
-99
5
-36
-31
33
42
62
113
146
184
237
282
329
385
435
480
527
565
582
568
513
415
282
130
-19
-141
-226
-284
-326
-359
-384
-397
-402
-408
-410
-404
-401
-398
-389
-378
-372
-365
-354
-352
-355
-354
-354
-356
-327
-249
-188
-195
-222
-229
-221
-180
-141
-172
-175
105
924
2017
2140
660
-761
-576
166
194
4
77
108
76
132
171
175
221
271
305
357
413
457
505
559
612
664
707
734
741
719
645
510
332
149
-7
-125
-207
-262
-303
-335
-356
-367
-372
-376
-383
-387
-386
-383
-381
-378
-372
-361
-358
-367
-374
-379
-381
-349
-276
-209
-202
-243
-269
-250
-219
-201
-180
