# session 2
-13
-31
4
66
50
-26
-49
-26
-3
15
-7
-61
-117
-146
-96
-75
-160
-75
367
1079
1808
1675
282
-847
-577
-60
-195
-339
-174
-24
9
-55
-154
-183
-179
-140
-35
-4
-111
-169
-42
112
91
11
77
175
139
72
45
-11
-45
20
102
135
145
103
-13
-101
-125
-199
-334
-394
-355
-343
-397
-427
-391
-331
-294
-285
-281
-300
-365
-381
-316
-324
-370
-259
112
1123
2544
2555
600
-819
-364
192
-44
-131
30
-49
-142
-64
7
55
105
89
60
101
167
182
159
183
241
229
175
178
193
171
177
225
291
411
536
538
445
335
156
-79
-251
-361
-458
-497
-482
-495
-505
-454
-412
-414
-423
-454
-489
-477
-461
-471
-485
-498
-431
-145
532
1575
1981
743
-917
-1092
-326
-103
-289
-302
-275
-295
-247
-154
-51
29
28
-10
11
87
142
148
160
192
200
200
221
206
171
238
366
401
387
420
409
304
208
137
29
-50
-61
-86
-142
-164
-172
-200
-201
-149
-110
-135
-183
-206
-231
-245
-181
-133
-203
-196
85
708
1569
1762
494
-945
-895
-123
8
-189
-178
-174
-230
-238
-281
-320
-264
-196
-168
-133
-92
-65
-25
24
35
29
48
48
-3
-34
-33
-56
-46
67
165
168
189
245
172
-18
-139
-194
-290
-361
-358
-367
-377
-334
-308
-300
-218
-119
-126
-214
-258
-220
-231
-306
-247
80
892
2099
2320
728
-762
-505
205
147
-33
15
-22
-22
98
136
136
176
157
120
173
246
246
209
214
265
289
254
226
237
235
201
196
256
319
337
320
225
20
-147
-171
-188
-292
-397
-466
-522
-541
-536
-540
-530
-505
-504
-506
-504
-548
-574
-542
-583
-576
-269
189
764
1429
1155
-375
-1276
-622
14
-147
-267
-158
-177
-187
-112
-109
-121
-59
-2
14
48
109
148
150
154
171
178
177
183
195
224
293
373
434
481
518
520
466
346
194
72
1
-36
-56
-80
-96
-85
-87
-112
-79
-6
-19
-117
-186
-176
-129
-125
-142
-44
311
1082
1854
1432
-156
-1016
-478
22
-155
-313
-221
-125
-96
-157
-223
-164
-103
-143
-175
-145
-100
-49
-3
18
31
50
37
-27
-81
-85
-110
-175
-177
-83
3
34
51
43
-31
-140
-230
-300
-359
-397
-402
-398
-420
-423
-353
-282
-270
-278
-293
-290
-239
-257
-344
-267
60
804
1954
2207
651
-869
-619
131
61
-133
-9
10
-26
86
156
124
128
169
192
214
250
290
309
281
238
253
297
307
330
377
357
322
396
504
526
476
375
223
49
-157
-340
-352
-267
-326
-464
-474
-454
-516
-516
-446
-453
-506
-522
-477
-398
-458
-566
-276
353
916
1265
877
-402
-1131
-567
-70
-250
-255
-43
-114
-230
-169
-129
-131
-99
-84
-77
-48
-36
-31
1
48
95
126
119
86
80
147
255
310
325
399
476
413
244
88
-29
-112
-171
-237
-276
-242
-205
-232
-251
-184
-82
-46
-98
-184
-214
-147
-113
-187
-186
41
665
1793
2403
1254
-478
-748
-81
43
-130
-44
7
-53
-37
-41
-108
-139
-164
-207
-192
-130
-113
-132
-113
-78
-70
-48
-5
-9
-47
-46
-23
-5
46
95
90
119
192
153
10
-87
-159
-250
-278
-262
-307
-373
-364
-309
-293
-310
-318
-344
-369
-316
-264
-303
-264
43
736
1622
1637
194
-1114
-818
-26
-2
-175
-36
40
-15
12
68
107
174
213
201
225
295
330
317
305
322
362
398
393
367
382
448
527
604
650
628
562
471
300
64
-121
-214
-287
-372
-445
-483
-476
-429
-359
-317
-358
-437
-490
-553
-576
-510
-526
-532
-76
672
876
177
-886
-1406
-1014
-362
-142
-183
-162
-125
-91
-38
-38
-51
-22
-30
-53
10
90
92
70
69
59
47
49
61
97
153
187
233
355
477
457
328
225
141
1
-145
-212
-237
-289
-342
-340
-303
-262
-198
-136
-121
-112
-95
-112
-100
-43
-60
-78
87
578
1644
2694
2132
184
-765
-188
200
-18
-46
75
47
10
0
-19
17
58
47
30
30
60
129
161
116
69
54
32
1
-15
-38
-85
-117
-76
13
28
-79
-180
-215
-292
-435
-549
-593
-563
-489
-440
-416
-370
-306
-257
-263
-329
-377
-367
-341
-341
-370
-392
-324
164
1352
2236
1325
-478
-931
-240
-24
-212
-124
-28
-97
-68
20
22
27
101
176
206
218
257
315
340
299
250
276
325
286
203
171
170
195
297
418
451
417
353
229
100
46
10
-70
-134
-155
-181
-218
-234
-242
-257
-253
-232
-264
-342
-369
-407
-507
-380
136
690
750
-30
-1203
-1539
-804
-194
-207
-241
-172
-250
-294
-150
-15
-1
-15
12
55
108
177
205
158
130
176
206
181
163
170
188
230
295
360
394
354
229
71
-67
-161
-213
-248
-282
-310
-316
-293
-257
-237
-224
-188
-150
-143
-151
-154
-123
-80
-115
-133
122
712
1496
1888
1067
-365
-718
-67
168
-49
-17
121
134
132
94
51
87
96
63
87
102
59
43
47
41
88
155
152
123
112
84
64
70
56
58
124
133
12
-124
-229
-371
-500
-533
-515
-480
-414
-359
-371
-434
-298
483
1509
1298
-266
-1160
-566
39
-73
-186
-95
-87
-88
-37
-26
6
98
165
194
218
226
221
218
204
185
183
169
123
90
106
145
174
200
198
91
-70
-128
-117
-160
-169
-90
-76
-119
-100
-104
-181
-189
-116
-97
-147
-172
-146
-121
-146
-177
-142
-73
-58
-91
-129
-176
-198
-195
-235
-197
111
625
1092
980
-147
-1398
-1362
-482
-154
-310
-263
-163
-205
-203
-161
-169
-167
-124
-57
1
-6
-11
74
134
110
160
300
351
290
273
361
480
555
608
683
735
692
553
350
130
-32
-128
-212
-288
-340
-384
-420
-421
-376
-309
-261
-247
-263
-297
-288
-225
-209
-231
-80
522
1597
2234
1308
-344
-781
-132
138
-35
-43
-10
-58
-38
-12
-27
22
126
179
172
187
221
161
35
-1
56
71
10
-45
-29
47
104
79
33
51
47
-78
-210
-254
-320
-464
-549
-509
-488
-562
-568
-423
-309
-323
-357
-374
-403
-407
-369
-313
-291
-327
-319
-147
449
1659
2397
1227
-685
-1016
-231
-43
-238
-146
-104
-177
-71
29
-14
-4
57
53
58
100
96
96
173
243
236
227
268
299
281
261
286
339
377
393
387
327
214
86
-35
-130
-164
-151
-151
-186
-249
-299
-269
-179
-154
-207
-250
-276
-287
-278
-281
-232
-95
115
734
1648
1482
-151
-1269
-790
-143
-205
-283
-177
-209
-233
-159
-175
-208
-128
-49
-44
-38
-12
-5
13
97
172
133
75
124
173
135
112
158
241
335
343
202
34
-73
-172
-268
-307
-308
-325
-349
-347
-348
-387
-413
-378
-317
-257
-228
-258
-267
-225
-249
-287
-124
445
1573
2497
1745
-163
-880
-173
179
-54
-21
111
26
-9
57
82
92
87
77
142
214
199
172
185
186
193
220
189
125
129
135
116
232
427
432
259
107
-22
-187
-300
-319
-348
-438
-509
-500
-464
-457
-437
-378
-349
-376
-405
-448
-486
-413
-326
-372
-345
-26
581
1358
1554
449
-851
-835
-166
-71
-235
-174
-147
-198
-149
-88
-80
-42
31
81
97
105
129
155
171
185
191
181
177
184
188
211
259
285
285
291
250
124
16
3
12
-26
-77
-94
-80
-70
-85
-104
-115
-116
-92
-62
-77
-119
-105
-54
-87
-168
-123
136
801
1731
1720
213
-1040
-705
2
-30
-230
-198
-214
-273
-225
-169
-180
-200
-175
-119
-79
-58
-37
-18
-16
-44
-69
-43
-11
-51
-102
-77
-30
-14
21
95
152
146
68
-50
-154
-229
-289
-326
-333
-326
-331
-344
-309
-233
-201
-212
-225
-263
-280
-236
-255
-302
-157
316
1250
2104
1511
-254
-964
-233
192
-33
-57
52
22
64
145
142
177
246
256
276
329
343
337
348
347
320
286
262
258
252
239
263
321
351
330
259
127
-17
-140
-273
-360
-305
-231
-303
-417
-426
-408
-432
-420
-375
-385
-424
-442
-480
-469
-378
-381
-366
6
572
902
700
-217
-1175
-1050
-233
38
-157
-150
-50
-73
-92
-74
-51
4
59
68
67
86
105
117
143
183
210
216
209
206
229
268
308
355
379
345
284
208
103
10
-42
-80
-115
-159
-206
-188
-121
-115
-141
-106
-54
-39
-66
-144
-161
-44
-30
-167
-39
485
1124
1532
1084
-192
-876
-359
135
3
-94
-16
-86
-209
-232
-171
-51
40
39
15
10
30
83
111
86
83
132
154
110
55
48
76
90
70
34
1
-39
-113
-214
-310
-368
-372
-340
-334
-369
-401
-413
-413
-382
-337
-325
-330
-336
-369
-360
-284
-304
-364
-176
352
1235
1970
1349
-359
-1060
-363
74
-118
-128
-20
-81
-64
52
78
79
133
176
189
200
223
265
306
325
341
371
378
332
282
296
357
415
469
492
434
335
247
135
7
-68
-115
-190
-245
-254
-298
-379
-372
-273
-210
-202
-198
-236
-312
-312
-282
-363
-365
74
817
1086
253
-1069
-1451
-720
-115
-137
-210
-134
-130
-162
-126
-59
-12
0
22
105
191
209
171
118
88
103
112
68
9
-20
-24
-9
41
119
180
182
112
8
-87
-159
-213
-243
-256
-270
-283
-292
-305
-270
-155
-75
-100
-140
-171
-213
-175
-104
-154
-166
113
725
1627
2104
1119
-516
-852
-91
201
17
39
94
43
86
137
96
77
103
115
115
136
162
123
55
127
302
342
230
147
138
128
101
107
140
119
30
-60
-135
-208
-258
-296
-337
-364
-380
-384
-359
-338
-357
-378
-364
-320
-306
-376
-421
-361
-361
-416
-236
269
1056
1764
1366
-145
-986
-494
-11
-87
-108
-34
-93
-123
-94
-114
-117
-58
6
63
118
152
158
150
144
146
158
187
217
209
180
201
267
318
327
295
242
192
116
2
-64
-69
-111
-187
-198
-162
-160
-170
-153
-137
-146
-188
-254
-275
-219
-195
-236
-162
213
913
1448
880
-598
-1292
-663
-84
-164
-229
-125
-143
-181
-129
-87
-77
-80
-76
-22
55
82
57
40
77
120
84
8
-18
-22
-40
-27
32
95
136
141
81
-33
-132
-188
-228
-259
-272
-275
-267
-242
-235
-238
-210
-188
-221
-254
-264
-287
-282
-248
-246
-219
28
819
2009
2231
693
-810
-617
119
125
-29
75
73
10
66
111
115
154
197
236
281
294
289
314
347
355
353
343
316
294
287
287
316
354
307
170
58
-12
-129
-271
-339
-343
-368
-430
-461
-427
-382
-368
-366
-368
-376
-365
-387
-472
-458
-368
-433
-426
39
701
1048
727
-326
-1192
-898
-155
-56
-256
-185
-76
-100
-106
-74
-44
3
38
45
84
166
221
226
227
237
230
221
232
235
212
218
278
310
254
173
121
53
-46
-119
-158
-212
-268
-282
-267
-244
-211
-180
-157
-108
-41
-31
-113
-189
-140
-54
-90
-177
-110
460
1662
2331
1144
-689
-993
-236
15
-76
14
-10
-102
7
58
-59
-47
90
137
126
145
165
184
211
216
220
239
220
154
107
91
73
53
17
-68
-175
-255
-322
-395
-439
-442
-442
-464
-493
-502
-486
-460
-425
-377
-357
-380
-410
-419
-372
-283
-277
-322
-189
306
1232
1983
1323
-406
-1122
-440
24
-140
-163
-51
-78
-79
-28
-7
54
134
155
167
215
260
286
301
333
406
461
456
481
546
533
489
546
596
489
304
152
28
-90
-197
-284
-346
-395
-435
-443
-431
-427
-392
-305
-249
-277
-340
-372
-335
-303
-366
-344
38
765
1408
1168
-107
-1069
-732
-70
-44
-187
-110
-77
-121
-103
-66
-41
0
48
89
112
130
174
225
259
273
268
263
265
233
179
199
280
286
183
70
-11
-103
-213
-296
-335
-361
-387
-401
-406
-416
-428
-409
-354
-310
-305
-315
-345
-366
-306
-264
-322
-219
231
824
1206
877
-207
-916
-503
95
99
-5
87
110
79
121
154
155
177
215
249
279
303
327
351
374
391
372
336
334
346
335
346
393
405
346
246
143
51
-28
-96
-154
-198
-231
-261
-278
-293
-328
-341
-291
-245
-255
-284
-314
-310
-266
-283
-320
-151
330
1050
1486
843
-425
-817
-271
3
-153
-160
-75
-102
-118
-97
-102
-97
-60
-2
65
109
126
152
173
151
129
157
186
171
179
231
231
160
99
50
-29
-123
-208
-283
-355
-423
-444
-414
-407
-440
-455
-452
-448
-417
-376
-368
-393
-428
-411
-356
-381
-414
-244
232
1025
1571
899
-457
-796
-175
42
-167
-152
-85
-151
-150
-101
-104
-86
-38
-11
13
44
64
82
107
132
152
162
166
176
206
258
325
375
364
275
140
5
-101
-173
-223
-251
-259
-269
-286
-290
-297
-317
-284
-183
-102
-90
-117
-121
-80
-64
-96
-163
-203
455
2286
3550
2254
15
-474
116
97
-140
-39
-12
-104
-70
-19
-8
40
85
96
119
147
159
170
188
201
206
199
190
204
244
287
321
344
325
234
103
-16
-104
-173
-235
-282
-305
-325
-364
-398
-404
-397
-371
-323
-301
-317
-337
-354
-360
-349
-379
-425
-267
332
1113
1117
-56
-1106
-859
-154
-47
-186
-138
-101
-116
-94
-77
-34
50
79
68
103
156
176
194
235
263
256
229
210
209
227
247
257
249
196
80
-70
-203
-302
-371
-413
-443
-468
-483
-493
-494
-483
-456
-408
-359
-348
-375
-419
-455
-439
-407
-456
-480
-259
285
932
948
-92
-1075
-838
-144
-59
-212
-146
-104
-135
-91
-44
-29
13
67
116
168
213
252
295
345
401
448
478
516
574
637
697
737
705
576
396
225
92
8
-30
-44
-50
-50
-47
-35
-19
-16
3
87
191
229
224
238
269
326
401
405
401
708
1429
2074
2005
1135
-137
