# session 40
33
10
52
92
-57
-276
-276
-236
-327
-167
482
1471
2390
2145
416
-886
-486
196
79
-105
-11
-19
-70
-21
5
6
36
56
77
113
136
158
197
224
242
280
329
368
409
461
513
569
635
703
765
816
845
847
788
622
386
156
-54
-244
-367
-428
-474
-504
-503
-491
-484
-470
-453
-440
-424
-411
-407
-399
-381
-375
-375
-362
-348
-350
-354
-347
-339
-340
-340
-330
-317
-308
-300
-292
-287
-280
-273
-271
-265
-248
-234
-229
-224
-216
-210
-207
-200
-192
-184
-179
-174
-166
-165
-171
-160
-136
-128
-137
-137
-128
-124
-123
-119
-112
-110
-121
-136
-146
-164
-190
-193
-171
-152
-133
-111
-92
-67
-64
-76
-26
-6
-90
6
498
1383
2476
2690
1165
-504
-442
341
338
63
116
139
73
106
130
117
148
173
173
195
224
237
256
283
308
334
361
389
429
478
517
550
602
669
721
759
794
806
769
669
500
288
84
-93
-236
-336
-399
-431
-435
-437
-441
-426
-399
-391
-387
-369
-355
-353
-350
-343
-339
-339
-337
-333
-330
-322
-310
-312
-320
-305
-282
-277
-277
-264
-252
-247
-240
-232
-231
-224
-213
-215
-220
-204
-184
-180
-181
-178
-175
-169
-161
-159
-157
-151
-149
-149
-142
-132
-126
-125
-123
-121
-120
-120
-115
-109
-109
-111
-106
-96
-92
-94
-95
-93
-88
-86
-90
-92
-82
-76
-84
-89
-81
-80
-91
-100
-110
-134
-160
-171
-164
-144
-110
-85
-80
-65
-57
-57
-9
-4
-81
39
508
1293
2294
2514
1067
-535
-453
331
330
60
117
140
75
114
144
119
133
159
169
188
200
211
245
268
272
301
347
372
388
417
454
491
530
570
612
648
671
691
695
639
508
338
158
-15
-157
-260
-335
-383
-402
-407
-409
-400
-388
-380
-371
-360
-355
-353
-349
-341
-335
-333
-334
-332
-327
-323
-318
-314
-312
-306
-294
-283
-276
-270
-264
-258
-254
-251
-240
-220
-209
-211
-210
-204
-195
-184
-180
-178
-173
-168
-165
-157
-148
-145
-141
-134
-132
-133
-129
-123
-124
-126
-119
-112
-114
-113
-101
-95
-101
-103
-98
-92
-90
-89
-89
-84
-77
-75
-82
-84
-75
-70
-76
-78
-72
-81
-97
-97
-102
-133
-162
-166
-151
-122
-98
-84
-56
-52
-83
-39
21
-46
-8
407
1173
2163
2543
1303
-428
-609
225
394
106
108
149
84
115
156
132
140
167
171
187
211
224
240
259
282
313
338
356
382
415
449
486
525
560
598
635
665
680
673
628
523
359
176
11
-137
-264
-343
-378
-401
-415
-413
-402
-392
-385
-377
-365
-353
-348
-348
-345
-338
-330
-329
-337
-338
-323
-307
-305
-306
-302
-296
-288
-279
-274
-266
-256
-252
-249
-234
-220
-219
-215
-205
-202
-197
-183
-173
-174
-174
-165
-154
-149
-152
-150
-139
-130
-129
-127
-122
-124
-128
-119
-108
-108
-107
-101
-100
-100
-95
-96
-97
-90
-82
-81
-81
-80
-78
-74
-74
-79
-77
-70
-65
-65
-71
-82
-92
-103
-118
-138
-160
-161
-134
-110
-100
-72
-49
-62
-36
6
-57
-31
360
1094
2057
2527
1434
-359
-715
140
419
117
91
167
103
110
157
137
140
171
177
190
212
220
236
264
282
296
326
357
381
410
444
475
509
548
581
608
640
667
666
622
528
379
199
25
-128
-249
-331
-382
-410
-416
-410
-409
-405
-393
-384
-380
-369
-355
-353
-357
-353
-345
-341
-337
-333
-334
-335
-327
-318
-316
-313
-303
-292
-287
-284
-273
-260
-253
-251
-248
-243
-228
-216
-215
-211
-196
-188
-187
-182
-179
-181
-169
-154
-153
-152
-141
-137
-143
-144
-136
-125
-119
-119
-120
-114
-106
-106
-108
-101
-93
-96
-98
-93
-86
-81
-82
-94
-103
-98
-100
-121
-147
-170
-172
-144
-114
-93
-64
-59
-71
-27
-2
-68
23
488
1316
2287
2404
910
-688
-583
284
367
100
136
171
107
131
159
142
161
187
191
207
227
237
255
280
302
323
346
369
398
431
461
489
526
565
595
623
652
668
659
605
485
316
136
-29
-166
-271
-348
-397
-414
-412
-408
-407
-400
-384
-372
-374
-371
-359
-354
-354
-346
-340
-346
-348
-343
-341
-339
-330
-320
-315
-311
-303
-294
-289
-286
-271
-255
-252
-253
-247
-239
-234
-221
-204
-203
-210
-202
-188
-188
-186
-173
-168
-170
-160
-146
-143
-147
-148
-144
-139
-135
-131
-127
-121
-117
-114
-113
-111
-105
-98
-103
-114
-111
-113
-131
-150
-170
-183
-163
-138
-128
-89
-53
-64
-37
-6
-78
-16
453
1298
2262
2413
965
-688
-662
231
363
94
132
176
105
130
163
142
161
191
192
205
229
241
258
285
307
326
340
357
391
434
464
489
524
560
592
625
652
658
642
589
479
317
133
-35
-165
-267
-344
-384
-398
-404
-402
-394
-390
-385
-368
-355
-357
-361
-355
-341
-334
-332
-333
-338
-340
-335
-325
-316
-311
-312
-307
-293
-283
-280
-273
-268
-268
-265
-252
-234
-220
-218
-218
-209
-200
-202
-204
-195
-180
-169
-167
-168
-163
-153
-142
-145
-150
-143
-138
-145
-138
-115
-110
-120
-121
-117
-113
-107
-106
-107
-118
-140
-143
-136
-166
-195
-175
-142
-114
-77
-73
-72
-30
-58
-89
211
929
1869
2437
1628
-212
-1006
-225
391
201
86
189
153
121
173
171
165
197
200
197
233
260
260
277
309
327
339
366
397
420
443
472
504
540
579
611
632
643
641
613
530
386
212
39
-114
-226
-303
-358
-388
-398
-405
-402
-381
-369
-371
-360
-344
-342
-345
-340
-340
-342
-334
-325
-329
-332
-327
-326
-322
-308
-297
-294
-291
-288
-283
-271
-263
-259
-250
-244
-248
-240
-217
-208
-212
-204
-194
-194
-190
-180
-181
-184
-172
-154
-152
-152
-144
-143
-150
-144
-128
-126
-132
-127
-120
-116
-108
-109
-120
-125
-126
-140
-165
-191
-193
-169
-152
-135
-86
-69
-92
-46
-9
-82
1
492
1372
2370
2431
850
-742
-568
303
343
74
128
153
82
120
162
146
158
182
192
211
226
233
254
283
301
317
344
374
396
416
447
483
515
539
565
597
626
640
624
559
437
278
106
-56
-185
-277
-339
-373
-391
-404
-409
-407
-404
-391
-373
-369
-371
-362
-359
-370
-370
-356
-353
-358
-351
-339
-334
-325
-317
-317
-317
-305
-289
-279
-276
-277
-270
-252
-234
-230
-232
-235
-228
-207
-197
-208
-207
-188
-177
-174
-166
-161
-161
-157
-156
-157
-147
-139
-139
-139
-137
-128
-110
-101
-111
-116
-115
-128
-140
-136
-151
-196
-204
-162
-144
-141
-90
-53
-57
-17
-16
-87
56
578
1474
2501
2487
807
-687
-398
370
297
59
130
120
52
111
149
128
141
160
153
164
195
217
233
258
282
297
312
331
357
389
418
442
471
499
521
550
582
585
546
474
365
210
49
-68
-161
-264
-336
-355
-367
-386
-382
-364
-356
-351
-346
-344
-336
-331
-338
-344
-349
-348
-325
-305
-318
-329
-313
-298
-291
-282
-296
-317
-291
-244
-245
-267
-259
-238
-228
-220
-218
-218
-206
-203
-227
-226
-181
-156
-168
-165
-148
-157
-174
-165
-147
-158
-173
-149
-110
-103
-112
-116
-128
-139
-131
-115
-120
-149
-167
-161
-172
-201
-187
-151
-146
-119
-68
-63
-40
-15
-107
-84
344
1125
2133
2616
1462
-388
-726
143
396
98
91
147
62
86
152
133
131
164
176
196
209
186
186
233
265
276
309
337
339
362
416
455
490
534
543
535
544
539
528
521
432
244
80
-28
-143
-247
-301
-322
-335
-365
-398
-379
-328
-323
-354
-372
-369
-333
-305
-343
-372
-318
-272
-314
-363
-345
-302
-291
-293
-281
-289
-316
-290
-230
-230
-257
-234
-196
-183
-192
-237
-280
-252
-184
-131
-96
-108
-178
-201
-116
-63
-146
-217
-155
-97
-129
-130
-69
-54
-106
-167
-177
-114
-88
-141
-146
-82
-72
-132
-206
-269
-263
-168
-97
-135
-195
-156
-57
-34
-101
-52
399
1307
2208
2166
729
-890
-1045
-143
237
28
64
236
162
89
163
148
83
173
267
208
194
289
317
295
298
292
349
455
433
377
463
544
549
612
661
623
665
773
755
664
574
372
110
-39
-134
-270
-389
-442
-428
-377
-368
-396
-403
-401
-376
-318
-309
-339
-313
-274
-298
-331
-318
-291
-299
-339
-356
-322
-288
-280
-275
-284
-290
-259
-270
-326
-292
-216
-244
-289
-261
-225
-203
-183
-205
-250
-274
-254
-192
-148
-173
-212
-205
-180
-176
-186
-192
-186
-160
-154
-206
-254
-252
-253
-233
-143
-113
-184
-181
-126
-143
-116
-74
-159
-78
526
1609
2638
2417
637
-760
-425
280
215
9
21
0
17
78
59
51
86
88
103
157
204
199
160
200
318
340
287
320
375
374
422
516
590
655
673
661
743
832
755
577
396
208
22
-184
-378
-433
-423
-496
-547
-505
-486
-498
-482
-466
-466
-474
-429
-299
-291
-471
-496
-342
-366
-464
-362
-304
-428
-425
-283
-301
-393
-342
-279
-321
-333
-298
-317
-320
-261
-267
-352
-368
-279
-173
-135
-175
-209
-185
-167
-234
-314
-235
-82
-149
-284
-58
534
1535
2761
2715
763
-819
-470
238
132
-45
-2
-64
-89
-12
-1
10
72
91
86
100
104
126
187
234
252
269
293
329
393
463
479
464
550
715
766
698
680
707
656
503
276
27
-166
-291
-387
-453
-465
-446
-444
-468
-480
-464
-435
-392
-363
-381
-381
-334
-342
-412
-407
-331
-337
-399
-359
-277
-305
-362
-336
-293
-284
-290
-320
-328
-255
-197
-252
-325
-294
-243
-269
-286
-240
-205
-188
-163
-155
-139
-132
-183
-202
-163
-180
-193
-128
-134
-159
105
910
2254
3095
1986
-143
-792
-8
304
-11
-101
-49
-48
40
82
-5
-36
6
37
94
155
160
152
157
163
220
315
346
321
337
409
490
520
508
553
658
728
741
676
511
348
229
38
-200
-327
-359
-404
-444
-458
-465
-427
-387
-415
-423
-374
-372
-402
-404
-392
-348
-317
-375
-418
-377
-352
-341
-301
-319
-386
-357
-257
-267
-383
-380
-220
-163
-290
-369
-297
-207
-197
-250
-287
-269
-250
-244
-224
-215
-198
-139
-120
-159
-142
-105
-149
-195
-166
-123
-111
-148
-179
-37
511
1709
2959
2593
497
-856
-328
319
113
-55
86
71
-20
23
71
49
41
101
171
162
138
191
231
210
256
343
343
338
418
483
495
522
567
613
664
710
757
770
667
485
326
172
-28
-219
-334
-377
-379
-373
-391
-424
-420
-375
-353
-372
-367
-339
-352
-380
-368
-349
-346
-336
-329
-328
-341
-368
-343
-290
-304
-308
-258
-268
-303
-274
-274
-298
-249
-206
-227
-226
-221
-240
-207
-162
-194
-210
-148
-138
-205
-199
-127
-128
-176
-172
-137
-122
-131
-145
-159
-158
-120
-86
-117
-145
-117
-122
-193
-225
-193
-170
-164
-150
-122
-80
-52
-57
-52
-51
-95
-27
374
1270
2486
2838
1379
-394
-511
246
319
46
69
98
25
45
87
89
124
159
130
116
181
237
221
223
260
267
290
355
378
378
417
445
461
524
570
572
625
703
684
573
419
261
150
21
-172
-284
-276
-320
-415
-412
-349
-344
-377
-394
-398
-379
-352
-368
-398
-379
-349
-340
-321
-333
-386
-372
-310
-314
-337
-319
-327
-335
-292
-274
-286
-261
-248
-260
-247
-256
-288
-245
-174
-181
-211
-207
-206
-214
-212
-196
-176
-175
-172
-154
-166
-178
-130
-113
-157
-150
-136
-188
-160
-44
-51
-155
-167
-133
-161
-179
-156
-174
-204
-161
-119
-131
-112
-80
-110
-90
0
-37
-104
115
698
1749
2846
2451
416
-819
-225
386
201
91
146
49
50
128
77
67
153
170
152
166
174
209
252
233
226
285
330
332
338
370
416
435
436
480
513
475
470
543
565
468
317
178
61
-81
-238
-301
-265
-268
-335
-354
-319
-314
-345
-354
-325
-290
-295
-324
-330
-324
-323
-308
-294
-297
-286
-286
-320
-311
-253
-249
-287
-268
-226
-251
-284
-242
-209
-251
-263
-201
-164
-182
-201
-201
-201
-215
-208
-155
-135
-167
-152
-123
-176
-208
-137
-97
-116
-101
-106
-159
-145
-104
-146
-162
-104
-118
-193
-199
-182
-201
-182
-116
-89
-119
-124
-67
-54
-102
5
422
1256
2358
2558
996
-684
-616
198
260
45
122
139
47
57
96
101
121
139
126
117
178
262
250
190
217
284
294
305
357
370
350
382
428
432
469
531
517
482
507
494
360
181
46
-57
-180
-315
-387
-394
-400
-402
-369
-337
-350
-388
-403
-385
-383
-394
-369
-338
-349
-365
-364
-380
-371
-302
-279
-357
-389
-314
-284
-323
-320
-290
-277
-255
-262
-287
-244
-210
-272
-286
-197
-168
-210
-196
-154
-157
-180
-199
-203
-163
-106
-92
-122
-149
-139
-116
-124
-139
-121
-90
-79
-82
-83
-84
-121
-189
-201
-146
-131
-122
-15
59
-4
-39
-14
-30
64
444
1246
2408
2777
1301
-498
-583
219
346
157
211
216
159
198
207
194
233
227
202
260
303
271
287
344
334
319
375
410
399
422
448
415
396
453
495
470
453
470
447
375
302
220
107
3
-83
-156
-172
-180
-280
-345
-244
-164
-232
-268
-217
-220
-269
-286
-297
-282
-210
-184
-246
-283
-265
-264
-277
-280
-287
-276
-233
-208
-227
-258
-264
-233
-223
-274
-284
-218
-211
-273
-270
-224
-228
-248
-254
-264
-250
-220
-227
-250
-249
-243
-246
-250
-270
-294
-281
-240
-224
-241
-258
-257
-271
-317
-328
-284
-287
-348
-338
-270
-272
-304
-287
-263
-232
-193
-226
-219
91
834
1845
2218
1008
-758
-1068
-183
201
-22
-71
-9
-52
-38
35
45
21
29
80
117
114
145
199
193
189
251
288
281
321
377
384
402
437
426
411
455
490
471
472
501
456
334
248
225
190
145
133
121
95
91
