# session 25
-63
-81
-45
-4
-80
-228
-272
-230
-228
-243
-225
-216
-230
-231
-218
-212
-209
-204
-200
-200
-194
-186
-186
-184
-175
-173
-176
-164
-150
-157
-166
-158
-150
-151
-149
-145
-141
-139
-145
-156
-167
-191
-226
-244
-234
-208
-182
-159
-122
-96
-118
-96
-36
-98
-100
358
1241
2172
2389
1114
-683
-1006
-114
230
-36
-62
30
-14
-2
56
54
67
109
127
145
181
211
237
268
305
351
398
441
491
548
601
652
713
772
811
831
834
791
673
492
286
88
-81
-218
-318
-372
-390
-392
-383
-373
-367
-358
-348
-353
-362
-358
-353
-355
-353
-351
-349
-340
-336
-339
-333
-322
-322
-315
-297
-295
-299
-286
-271
-274
-278
-268
-252
-240
-235
-235
-231
-223
-214
-203
-196
-191
-180
-171
-169
-164
-152
-146
-148
-150
-147
-139
-129
-123
-125
-127
-121
-111
-106
-103
-95
-98
-113
-125
-138
-161
-178
-185
-178
-151
-130
-111
-72
-63
-73
-18
-15
-84
143
827
1717
2335
1791
12
-1147
-592
195
122
-56
56
66
21
86
119
97
118
153
170
195
229
256
284
322
361
394
427
481
545
597
645
706
764
804
838
857
838
760
615
427
232
50
-106
-221
-300
-350
-367
-365
-365
-365
-353
-337
-335
-345
-348
-337
-335
-350
-360
-354
-348
-354
-360
-355
-346
-344
-345
-341
-332
-323
-312
-304
-301
-292
-278
-273
-272
-264
-251
-242
-236
-232
-227
-219
-213
-208
-201
-192
-187
-182
-176
-171
-165
-161
-164
-164
-154
-146
-145
-141
-135
-137
-144
-152
-167
-187
-204
-219
-218
-185
-152
-132
-96
-84
-98
-47
-23
-110
32
678
1637
2421
2099
372
-1037
-707
125
141
-66
16
42
-3
52
90
84
114
142
153
180
211
239
275
312
349
398
444
483
533
596
662
723
776
822
863
884
864
785
632
430
224
37
-127
-250
-323
-360
-376
-378
-370
-358
-346
-337
-332
-328
-324
-322
-323
-324
-325
-323
-319
-314
-313
-312
-307
-301
-297
-295
-292
-287
-278
-273
-273
-265
-251
-245
-246
-242
-234
-229
-223
-214
-205
-198
-188
-182
-181
-178
-171
-166
-164
-159
-152
-148
-144
-138
-133
-130
-129
-123
-114
-111
-115
-113
-102
-95
-98
-104
-110
-122
-144
-166
-182
-191
-181
-146
-119
-99
-59
-52
-67
-10
1
-88
116
797
1623
2169
1720
97
-1095
-646
169
160
-31
55
74
33
84
108
103
136
158
170
204
227
243
281
323
355
395
439
484
539
599
657
717
778
825
859
883
878
810
659
456
251
61
-111
-243
-328
-379
-406
-409
-399
-389
-379
-368
-360
-357
-355
-354
-359
-364
-365
-360
-359
-363
-363
-360
-362
-359
-346
-347
-357
-346
-326
-330
-336
-314
-291
-292
-293
-271
-241
-239
-260
-268
-250
-229
-222
-219
-208
-197
-195
-200
-197
-183
-173
-174
-174
-163
-152
-144
-140
-135
-115
-95
-117
-154
-153
-148
-164
-140
-112
-160
-201
-175
-199
-257
-190
-44
13
-21
-56
-42
-27
-59
71
608
1536
2542
2626
1057
-673
-663
202
263
-48
42
156
87
96
140
112
118
182
218
218
239
279
302
316
351
401
438
468
520
592
640
682
769
847
853
850
877
798
548
328
232
63
-205
-341
-342
-388
-450
-439
-445
-500
-464
-315
-255
-385
-491
-418
-355
-424
-444
-370
-394
-501
-486
-352
-274
-335
-465
-492
-374
-310
-371
-379
-312
-322
-399
-414
-342
-295
-324
-319
-243
-234
-299
-319
-300
-262
-204
-193
-207
-176
-187
-237
-206
-158
-169
-143
-94
-132
-182
-164
-140
-122
-70
-64
-156
-230
-196
-145
-158
-158
-115
-107
-114
-65
-18
-6
-1
-28
17
462
1584
2971
3118
1251
-709
-751
110
222
-66
-79
-32
-63
-53
-10
8
-44
-89
52
273
296
187
190
280
320
306
292
339
454
554
626
716
757
737
780
877
869
738
578
380
148
7
-37
-135
-290
-365
-348
-364
-440
-452
-337
-247
-293
-327
-264
-292
-415
-391
-267
-263
-309
-297
-310
-325
-301
-339
-377
-300
-271
-362
-370
-298
-319
-347
-282
-274
-357
-364
-314
-331
-337
-280
-271
-278
-218
-209
-283
-284
-254
-301
-283
-155
-128
-187
-162
-150
-225
-212
-128
-136
-158
-117
-142
-245
-270
-184
-90
-40
-21
-39
-50
-29
-70
-100
200
1063
2404
3259
2213
-71
-1067
-370
160
0
-87
-61
-96
-40
3
-47
2
102
65
-18
33
181
245
203
215
308
337
309
362
509
621
624
617
700
750
686
698
800
718
452
252
117
-75
-248
-316
-336
-383
-439
-430
-352
-289
-315
-403
-441
-365
-289
-326
-379
-347
-299
-285
-301
-362
-382
-298
-249
-293
-307
-296
-337
-341
-270
-239
-258
-257
-264
-285
-263
-237
-255
-242
-191
-209
-263
-225
-150
-153
-182
-190
-233
-261
-178
-103
-161
-224
-200
-195
-230
-207
-155
-143
-121
-101
-133
-127
-84
-26
328
1130
1932
1998
903
-636
-1118
-420
93
-9
-61
59
76
25
18
70
130
117
92
146
204
212
232
281
313
329
377
444
490
556
641
670
689
776
858
884
906
887
738
499
278
94
-85
-228
-292
-314
-342
-368
-352
-312
-326
-378
-352
-256
-237
-301
-327
-303
-299
-325
-336
-284
-218
-253
-332
-301
-239
-294
-342
-276
-236
-275
-286
-276
-275
-220
-172
-238
-296
-241
-206
-239
-208
-145
-169
-208
-198
-206
-223
-204
-191
-173
-123
-118
-152
-147
-167
-238
-243
-200
-226
-265
-231
-171
-138
-138
-148
-99
-23
-74
-161
19
568
1572
2738
2652
764
-824
-583
91
12
-170
-88
-66
-86
-43
-14
2
15
12
41
83
73
71
144
198
185
240
376
414
374
439
569
635
676
721
735
758
783
698
504
320
179
29
-128
-237
-287
-332
-392
-418
-384
-351
-363
-367
-340
-331
-359
-379
-364
-343
-339
-327
-320
-343
-353
-323
-300
-290
-270
-285
-329
-310
-249
-237
-240
-213
-206
-218
-218
-234
-238
-183
-132
-135
-155
-162
-164
-190
-229
-180
-69
-65
-134
-140
-134
-143
-102
-96
-160
-166
-136
-181
-234
-221
-204
-207
-195
-155
-100
-97
-133
-76
-6
-84
-42
427
1327
2477
2833
1333
-605
-789
46
154
-117
-51
3
-83
-69
-21
-7
29
58
73
117
151
142
142
201
290
343
330
314
372
476
572
654
685
666
701
785
780
667
516
359
213
66
-102
-221
-254
-294
-365
-361
-307
-315
-343
-331
-352
-394
-350
-266
-271
-363
-403
-320
-268
-349
-368
-258
-260
-373
-357
-271
-281
-294
-276
-319
-329
-244
-234
-291
-262
-238
-277
-251
-223
-256
-210
-151
-214
-230
-152
-171
-238
-213
-199
-240
-211
-128
-95
-104
-132
-182
-191
-149
-166
-235
-229
-184
-204
-203
-114
-75
-132
-131
-30
1
-96
-73
264
958
2119
3033
2180
51
-836
-165
164
-104
-75
33
-77
-93
-32
-43
-15
20
2
45
140
167
140
148
218
287
300
313
386
459
483
510
570
611
620
649
680
648
563
450
285
95
-34
-112
-204
-280
-296
-302
-312
-283
-258
-279
-284
-273
-314
-346
-292
-258
-306
-320
-292
-329
-353
-275
-232
-288
-308
-277
-288
-301
-281
-275
-263
-227
-233
-266
-251
-216
-208
-209
-205
-204
-205
-210
-203
-178
-161
-151
-155
-183
-184
-150
-154
-160
-98
-74
-144
-154
-84
-79
-133
-143
-119
-122
-152
-165
-156
-172
-199
-172
-120
-95
-87
-84
-49
-18
-61
-11
350
1135
2344
2984
1708
-387
-882
-86
150
-107
-71
-8
-84
-34
28
-27
-15
64
54
37
116
178
172
187
219
228
243
274
326
408
473
494
492
469
455
497
547
535
456
321
179
85
-6
-133
-200
-186
-220
-291
-265
-199
-224
-278
-284
-280
-271
-239
-243
-299
-330
-318
-297
-261
-230
-248
-276
-278
-287
-284
-254
-261
-282
-233
-194
-249
-284
-225
-187
-225
-240
-185
-165
-214
-230
-192
-170
-155
-141
-162
-164
-127
-144
-188
-157
-109
-115
-107
-80
-109
-156
-145
-105
-80
-68
-85
-119
-131
-140
-171
-178
-151
-142
-135
-102
-104
-133
-69
37
3
-63
112
613
1573
2700
2564
665
-880
-578
162
121
-75
-29
-18
-29
1
9
35
76
83
91
102
117
161
191
198
240
291
307
321
347
356
361
392
445
483
472
423
382
357
309
212
98
17
-60
-156
-198
-190
-235
-288
-261
-233
-264
-278
-249
-229
-252
-293
-289
-251
-272
-305
-255
-224
-287
-293
-214
-207
-265
-276
-249
-227
-222
-245
-258
-229
-206
-204
-197
-208
-224
-191
-147
-149
-166
-173
-174
-160
-157
-178
-162
-104
-86
-119
-143
-134
-131
-147
-137
-100
-94
-113
-146
-204
-218
-180
-179
-153
-45
-25
-92
-62
-63
-96
312
1192
1927
1953
916
-656
-1230
-495
116
50
-3
69
22
24
78
35
44
146
154
112
165
236
236
231
265
303
321
354
438
506
502
500
548
590
606
621
624
598
522
375
199
45
-69
-146
-218
-290
-305
-263
-245
-271
-283
-272
-276
-283
-259
-227
-229
-252
-259
-253
-273
-317
-312
-258
-239
-259
-263
-270
-283
-273
-268
-266
-232
-218
-253
-254
-221
-224
-233
-198
-181
-216
-234
-203
-184
-194
-186
-165
-158
-156
-151
-149
-144
-139
-158
-189
-201
-226
-284
-284
-183
-80
-57
-104
-127
-56
-47
-155
-16
567
1433
2329
2335
773
-812
-694
98
106
-131
-38
-10
-73
-6
34
4
47
95
94
116
134
114
150
243
290
294
317
365
420
458
482
548
638
667
646
646
649
601
477
286
104
-12
-111
-218
-279
-288
-301
-324
-339
-334
-304
-291
-327
-336
-288
-276
-318
-333
-310
-291
-284
-285
-294
-302
-305
-304
-308
-309
-283
-248
-251
-281
-285
-263
-243
-231
-216
-199
-205
-227
-216
-203
-252
-270
-179
-115
-150
-165
-139
-145
-158
-161
-177
-165
-120
-116
-140
-142
-153
-190
-220
-213
-171
-147
-165
-136
-61
-54
-63
-18
-47
-86
162
851
2007
2934
2175
48
-984
-301
229
-12
-120
0
-24
-65
-28
-14
5
60
85
63
73
145
197
192
208
250
274
324
396
409
407
463
514
539
574
583
578
598
537
356
212
120
-17
-142
-195
-225
-238
-234
-270
-325
-308
-243
-237
-279
-267
-226
-248
-280
-268
-281
-319
-292
-234
-229
-257
-274
-271
-241
-223
-259
-286
-255
-236
-252
-222
-174
-195
-231
-218
-218
-241
-209
-149
-153
-190
-182
-158
-169
-179
-166
-176
-197
-159
-100
-108
-143
-143
-128
-128
-148
-184
-185
-137
-132
-200
-231
-195
-168
-123
-54
-81
-138
-57
-2
-64
155
848
1724
2272
1681
-11
-1054
-530
153
56
-93
32
48
-5
28
48
58
88
77
72
137
196
212
227
241
265
317
352
362
402
457
500
569
641
651
635
643
632
556
416
255
133
31
-110
-241
-303
-327
-339
-327
-312
-308
-299
-274
-252
-257
-276
-274
-264
-290
-312
-273
-235
-262
-286
-272
-281
-299
-283
-282
-295
-264
-246
-277
-270
-225
-223
-246
-253
-235
-204
-205
-229
-202
-156
-173
-214
-211
-179
-171
-184
-180
-157
-137
-117
-117
-159
-198
-195
-187
-217
-243
-211
-155
-129
-110
-86
-79
-51
-24
-87
-68
327
1132
2136
2538
1385
-442
-906
-130
199
-51
-101
-34
-52
3
62
29
26
67
75
81
116
161
199
220
239
281
320
347
395
465
520
558
595
638
688
732
735
661
529
379
210
31
-110
-215
-308
-348
-329
-329
-348
-334
-321
-339
-320
-263
-263
-313
-320
-293
-293
-301
-284
-268
-275
-284
-279
-272
-273
-277
-273
-269
-255
-232
-226
-232
-227
-234
-240
-204
-189
-242
-262
-202
-165
-180
-169
-155
-193
-217
-177
-138
-136
-137
-139
-146
-137
-123
-137
-150
-126
-114
-144
-157
-147
-168
-194
-197
-199
-187
-150
-121
-88
-60
-64
-51
-49
-102
-11
421
1319
2575
2993
1481
-453
-695
9
95
-100
-27
-20
-107
-65
-20
-33
5
44
28
48
115
155
167
172
172
229
327
350
333
400
493
515
531
588
615
603
616
620
527
349
166
25
-90
-210
-298
-309
-314
-363
-377
-336
-315
-318
-309
-288
-296
-337
-340
-283
-274
-317
-301
-264
-287
-301
-274
-283
-304
-274
-242
-247
-249
-240
-248
-257
-236
-211
-229
-261
-239
-184
-164
-170
-173
-185
-191
-164
-142
-158
-163
-137
-126
-142
-144
-117
-96
-108
-141
-149
-119
-92
-93
-96
-95
-96
-87
-93
-140
-178
-160
-143
-165
-151
-82
-44
-74
-113
-83
27
76
-16
2
368
1147
2282
2831
1601
-358
-805
-6
262
-42
-87
29
31
25
43
47
44
38
72
134
137
127
209
289
250
207
275
362
386
399
436
489
554
579
551
562
615
594
485
362
242
116
-19
-155
-249
-280
-298
-315
-299
-280
-281
-275
-272
-280
-270
-265
-277
-263
-251
-286
-302
-267
-250
-274
-293
-285
-269
-265
-258
-238
-238
-261
-261
-254
-280
-269
-192
-163
-202
-207
-200
-236
-242
-207
-202
-192
-151
-158
-195
-193
-186
-183
-147
-128
-166
-190
-165
-136
-143
-182
-193
-149
-131
-155
-143
-132
-168
-170
-145
-168
-189
-189
-242
-273
-194
-127
-134
-129
-130
-149
-86
-67
-107
256
1100
1790
1804
915
-492
-1118
-516
102
76
-20
32
31
43
72
42
63
147
171
163
182
203
226
260
300
350
375
350
363
459
549
579
602
653
688
679
685
716
666
507
333
191
44
-116
-230
-247
-206
-194
-224
-247
-242
-214
-162
-131
-179
-226
-194
-159
-154
-122
-111
-165
-201
-179
-152
-132
-127
-160
-195
-174
-116
-103
-140
-142
-93
-82
-126
-136
-76
-34
-68
-105
-96
-93
-83
-24
-17
-99
-122
-43
4
-35
-79
-74
-62
-80
-88
-73
-69
-52
-19
-37
-62
-42
-58
-102
-99
-102
-129
-125
-108
-67
-5
-39
-98
8
116
-7
