# session 1
90
34
187
2
-503
-518
-82
56
-91
-106
-55
-73
-69
-37
-28
-16
6
22
43
72
103
131
147
165
193
210
210
220
241
258
274
299
321
338
350
332
253
130
11
-90
-179
-248
-287
-313
-331
-334
-333
-339
-343
-342
-337
-335
-338
-339
-333
-329
-326
-320
-319
-324
-328
-335
-340
-311
-244
-186
-186
-234
-259
-234
-227
-230
-188
-191
-239
-71
461
1281
1960
1562
77
-825
-369
172
76
-35
33
14
-5
41
45
36
59
75
89
111
125
144
174
192
204
225
242
251
266
281
292
308
335
365
392
393
331
206
72
-41
-133
-205
-249
-271
-282
-289
-297
-301
-299
-300
-306
-310
-313
-314
-313
-312
-318
-335
-351
-354
-360
-374
-339
-250
-199
-225
-266
-269
-252
-257
-253
-213
-228
-282
-195
210
1191
2411
2366
663
-608
-281
204
10
-116
-10
-41
-80
-23
-12
-18
16
31
27
45
66
82
107
139
174
208
228
230
227
232
236
237
244
255
258
237
179
91
-5
-93
-169
-227
-266
-290
-305
-311
-314
-316
-314
-308
-300
-293
-289
-288
-281
-271
-267
-267
-273
-289
-298
-304
-330
-336
-269
-183
-169
-215
-239
-212
-196
-209
-174
-142
-202
-203
53
787
2059
2710
1450
-388
-618
117
191
-75
-31
8
-60
-32
1
-14
9
39
48
75
109
132
160
188
210
233
253
265
279
300
319
335
353
370
374
351
291
191
69
-47
-143
-216
-267
-301
-322
-336
-347
-353
-356
-361
-367
-370
-369
-370
-369
-361
-350
-340
-329
-318
-314
-310
-302
-293
-291
-295
-300
-308
-295
-232
-156
-145
-192
-225
-214
-206
-218
-193
-152
-185
-174
150
927
1886
2025
693
-763
-712
92
233
14
46
84
27
51
81
66
86
120
130
152
180
195
214
241
258
261
264
275
291
306
317
319
321
330
337
338
333
299
217
110
15
-60
-131
-193
-226
-237
-253
-274
-281
-281
-289
-300
-303
-298
-297
-306
-307
-293
-282
-277
-272
-276
-290
-293
-281
-247
-200
-185
-207
-226
-222
-200
-152
-86
-51
-81
-135
-141
-127
-137
-114
-76
-120
-126
191
985
1913
1882
417
-912
-670
122
188
-18
15
26
-4
52
66
32
57
106
131
137
138
174
227
234
219
230
248
260
270
260
250
268
273
258
270
278
237
192
151
81
7
-60
-142
-213
-238
-254
-281
-281
-261
-281
-329
-330
-298
-298
-320
-316
-296
-291
-305
-324
-330
-326
-325
-306
-277
-279
-299
-303
-313
-332
-312
-241
-157
-125
-178
-234
-205
-169
-201
-197
-132
-144
-160
97
764
1696
2095
1035
-648
-1010
-157
259
45
-6
79
42
21
43
42
69
128
161
158
146
170
240
285
276
292
346
353
324
348
399
412
415
433
449
469
486
448
335
187
37
-94
-184
-237
-282
-313
-325
-335
-350
-353
-352
-364
-379
-376
-364
-355
-348
-352
-362
-344
-305
-302
-335
-348
-333
-332
-361
-382
-335
-237
-188
-228
-275
-265
-246
-261
-241
-188
-232
-259
14
679
1668
2269
1338
-456
-947
-111
271
16
-19
64
4
5
61
68
90
120
116
132
179
215
245
266
272
289
318
332
339
350
356
367
379
377
377
382
344
248
119
-14
-121
-200
-269
-298
-293
-329
-378
-358
-330
-357
-370
-358
-370
-367
-341
-348
-359
-333
-323
-341
-336
-317
-326
-341
-342
-359
-369
-309
-217
-194
-231
-245
-229
-236
-246
-196
-166
-236
-225
102
894
2032
2421
1060
-660
-732
108
231
-29
27
73
-25
-5
68
64
69
114
141
156
188
214
225
259
299
297
294
337
374
371
371
384
385
392
416
411
337
224
110
-17
-151
-236
-265
-297
-338
-347
-335
-342
-359
-363
-370
-377
-366
-356
-362
-351
-333
-341
-340
-309
-305
-331
-320
-294
-315
-347
-335
-323
-333
-297
-199
-141
-184
-242
-224
-186
-203
-199
-154
-177
-190
45
710
1817
2487
1467
-380
-824
-15
273
5
2
77
9
25
86
76
80
109
123
154
195
222
247
258
251
264
296
302
288
285
297
310
317
317
321
325
291
206
102
14
-62
-146
-230
-280
-291
-302
-322
-329
-332
-350
-366
-365
-364
-368
-368
-366
-365
-356
-344
-343
-343
-333
-323
-319
-318
-322
-330
-337
-350
-342
-276
-195
-175
-204
-222
-214
-206
-206
-181
-149
-182
-176
131
915
1934
2158
835
-751
-826
12
242
21
23
72
25
46
88
85
108
147
169
196
226
248
276
301
316
334
354
367
377
386
393
398
402
405
409
408
384
331
252
157
59
-27
-89
-130
-160
-192
-228
-250
-262
-282
-300
-293
-280
-291
-303
-302
-306
-317
-311
-295
-292
-297
-298
-300
-305
-313
-321
-331
-352
-358
-296
-202
-171
-210
-250
-256
-240
-226
-204
-177
-191
-184
41
643
1569
2051
1074
-628
-1070
-222
262
88
24
84
35
-2
-6
-3
66
136
144
168
218
231
215
214
242
266
255
236
247
276
298
313
312
294
288
293
262
192
118
15
-127
-221
-224
-204
-212
-243
-293
-341
-370
-387
-404
-415
-405
-372
-343
-358
-391
-389
-360
-344
-343
-368
-418
-408
-337
-335
-390
-359
-250
-186
-220
-283
-252
-192
-262
-310
-206
-182
-234
-141
-79
-90
243
1044
1877
1926
723
-629
-661
94
331
158
124
85
-75
-139
-33
96
161
237
332
342
337
428
490
479
525
579
565
583
594
454
301
347
503
574
574
595
584
456
269
108
-30
-120
-117
-103
-164
-236
-297
-402
-446
-345
-278
-384
-510
-534
-532
-562
-530
-352
-154
-165
-359
-477
-437
-385
-390
-405
-423
-454
-462
-438
-424
-452
-483
-458
-397
-241
288
1175
1663
993
-476
-1447
-1160
-265
178
84
50
201
235
154
131
165
288
443
358
113
79
184
182
183
249
235
213
289
332
314
390
518
531
482
521
582
530
386
224
83
-6
-65
-82
-49
-132
-332
-341
-213
-251
-251
-78
-129
-361
-336
-263
-429
-456
-228
-152
-256
-314
-346
-332
-207
-116
-141
-189
-245
-355
-478
-496
-324
-88
-79
-246
-24
802
1452
1064
-222
-1445
-1662
-868
-75
55
-61
14
108
77
51
65
58
104
250
351
334
316
358
396
409
401
375
376
398
381
351
346
311
269
301
331
291
264
230
85
-83
-161
-191
-184
-126
-117
-195
-228
-160
-121
-170
-218
-214
-218
-235
-181
-84
-89
-184
-194
-121
-127
-151
-53
-3
-123
-175
-107
-179
-305
-224
-114
-191
-212
46
517
1293
2201
2087
491
-859
-640
32
78
-26
20
-51
-131
-99
-122
-204
-244
-248
-205
-123
-83
-92
-108
-114
-57
88
232
261
151
43
109
251
288
292
291
169
10
-30
-15
-42
-115
-213
-299
-364
-408
-413
-411
-409
-377
-358
-386
-389
-353
-335
-334
-348
-362
-297
-165
-96
-127
-193
-211
-126
-43
-113
-238
-236
-138
-55
-54
-110
-43
272
970
2090
2552
1170
-679
-812
46
147
-128
44
259
228
201
193
126
111
161
172
132
104
103
82
31
3
23
51
71
84
75
47
26
29
41
15
-65
-162
-266
-361
-365
-271
-212
-242
-272
-258
-250
-297
-391
-466
-452
-349
-255
-262
-340
-372
-338
-316
-302
-233
-168
-198
-250
-245
-263
-324
-332
-287
-234
-198
-201
-133
134
762
2031
3137
2304
59
-851
-94
298
7
8
175
115
73
168
207
141
116
176
174
127
215
340
350
359
380
338
356
425
378
337
421
443
332
219
127
6
-149
-327
-456
-501
-548
-621
-644
-626
-631
-638
-629
-628
-616
-555
-474
-441
-469
-473
-400
-334
-283
-125
60
73
-56
-189
-295
-365
-400
-382
-278
-210
-267
-265
24
762
1757
1893
482
-984
-922
-160
-2
-158
-111
-62
-92
-33
80
130
125
134
210
314
332
280
312
440
508
486
506
577
569
477
448
542
623
593
546
516
433
363
350
243
59
-10
-25
-124
-221
-251
-272
-268
-221
-222
-339
-506
-612
-619
-587
-582
-578
-537
-519
-569
-604
-587
-579
-576
-556
-549
-516
-453
-459
-411
-84
550
1418
1880
896
-884
-1330
-311
313
64
-149
-121
-92
-33
10
-13
-2
18
7
50
120
130
126
171
228
239
241
324
438
453
451
562
660
648
636
644
579
433
246
66
-42
-83
-93
-64
-40
-73
-90
-39
-55
-212
-298
-156
-21
-103
-199
-119
-45
-93
-102
-60
-123
-237
-262
-256
-304
-334
-329
-407
-513
-345
162
750
1090
619
-750
-1682
-1207
-432
-389
-458
-207
-83
-134
-104
-79
-62
92
246
257
271
374
469
472
399
334
323
308
285
333
413
406
347
353
395
384
337
263
126
-20
-99
-136
-161
-172
-219
-296
-280
-162
-114
-166
-200
-223
-239
-151
-87
-196
-247
-158
-171
-200
-100
-142
-293
-219
-168
-364
-352
-88
-110
-248
68
854
1848
2314
1273
-516
-1072
-359
72
-112
-237
-180
-157
-182
-217
-268
-316
-313
-246
-174
-127
-91
-102
-159
-147
-6
168
226
156
169
350
428
330
353
509
503
344
219
122
35
-45
-210
-404
-440
-364
-354
-401
-415
-402
-384
-363
-378
-427
-431
-398
-406
-395
-289
-192
-171
-160
-156
-174
-178
-166
-99
-8
-67
-157
-5
460
1596
3110
2978
685
-912
-391
247
-5
-147
15
46
35
61
83
145
166
142
195
241
194
180
214
202
196
225
190
104
70
51
-27
-110
-145
-183
-261
-358
-460
-538
-543
-519
-511
-460
-395
-410
-401
-308
-267
-256
-209
-306
-510
-484
-265
-195
-289
-347
-311
-240
-202
-226
-266
-265
-237
-221
-230
-259
-253
-118
241
1050
2100
2083
417
-1036
-762
44
130
10
108
122
74
161
257
256
244
267
298
340
406
439
392
362
435
495
432
381
466
545
482
407
471
581
600
556
465
263
31
-111
-264
-463
-507
-405
-408
-548
-681
-739
-699
-615
-612
-666
-656
-598
-577
-588
-604
-609
-554
-464
-459
-547
-616
-565
-389
-298
-401
-311
311
1293
2023
1562
-36
-1025
-560
33
-45
-157
-89
-117
-125
-40
-15
-19
24
67
97
150
219
270
293
335
415
460
473
543
605
577
601
702
664
532
538
586
479
318
218
102
-46
-99
-36
-42
-186
-276
-236
-222
-246
-205
-143
-129
-156
-215
-262
-284
-327
-315
-208
-195
-327
-437
-509
-565
-536
-495
-377
120
850
1168
607
-622
-1473
-1138
-306
-27
-177
-248
-217
-106
89
169
95
90
205
257
188
123
150
236
286
254
215
221
239
250
259
258
253
255
233
184
166
162
84
-26
-50
-41
-94
-147
-138
-111
-120
-162
-162
-112
-135
-213
-192
-116
-121
-159
-132
-19
85
-3
-214
-292
-293
-342
-284
-143
-100
6
383
1138
2130
2229
675
-881
-793
-98
-52
-182
-138
-239
-387
-380
-335
-315
-301
-294
-256
-215
-211
-216
-213
-143
42
165
107
98
204
151
37
226
493
444
306
315
286
190
134
27
-132
-218
-272
-347
-396
-427
-459
-456
-441
-452
-449
-417
-394
-380
-368
-352
-286
-202
-201
-245
-228
-143
-47
-69
-198
-150
221
1089
2574
3350
1858
-363
-705
136
200
-216
-193
23
61
-49
-159
-103
10
-8
2
152
230
170
134
160
164
129
110
127
139
138
142
126
80
-16
-194
-341
-314
-238
-295
-389
-386
-419
-601
-714
-610
-541
-634
-658
-587
-561
-443
-211
-157
-287
-280
252
1526
2511
1570
-477
-1117
-328
43
-168
-150
-47
-99
-76
-1
-28
-68
-43
3
44
73
116
208
305
375
439
470
459
510
614
601
504
513
558
460
308
192
40
-70
-48
-76
-242
-318
-210
-128
-153
-154
-156
-248
-296
-199
-132
-190
-236
-220
-238
-304
-358
-386
-374
-307
-278
-349
-391
-351
-382
-509
-568
-528
-506
-595
-727
-593
-167
138
559
1419
1419
-154
-1226
-573
137
21
-67
6
-79
-147
-170
-152
61
238
142
24
37
36
25
69
95
92
140
210
240
251
280
343
435
512
560
624
732
852
888
781
610
460
319
210
150
51
-61
-37
49
2
-144
-239
-273
-273
-220
-150
-120
-123
-146
-190
-213
-170
-117
-156
-202
-87
244
935
1766
1560
-30
-1191
-810
-200
-293
-436
-365
-426
-530
-506
-478
-460
-384
-347
-382
-345
-235
-151
-22
116
65
-22
91
178
89
99
238
216
75
80
192
197
81
-42
-136
-231
-321
-378
-414
-436
-416
-379
-384
-395
-384
-417
-443
-361
-268
-255
-205
-88
-42
-100
-168
-144
-50
-64
-147
-16
337
1044
2302
2832
1264
-711
-790
42
119
-45
74
59
-6
102
126
60
103
152
140
164
194
185
198
204
148
103
118
125
94
53
-10
-67
-54
-50
-142
-208
-166
-147
-200
-240
-254
-273
-301
-334
-380
-461
-467
-240
-10
-155
-462
-430
-117
55
-47
-251
-352
-313
-263
-249
-234
-266
-267
16
765
1799
2101
842
-714
-794
-15
174
-17
45
154
124
121
202
292
317
289
288
329
348
324
300
299
294
268
263
268
243
227
245
230
192
217
286
342
376
350
224
80
0
-89
-234
-314
-292
-307
-368
-356
-288
-271
-327
-427
-516
-559
-590
-616
-613
-600
-554
-460
-469
-541
-353
93
697
1494
1612
226
-1193
-1008
-255
-208
-344
-281
-320
-321
-169
-141
-196
-141
-83
-90
-55
-3
-3
31
136
187
169
207
282
294
269
255
245
271
338
368
347
294
180
41
-47
-106
-172
-212
-231
-264
-284
-279
-283
-300
-310
-300
-254
-194
-189
-229
-249
-266
-298
-262
-225
-310
-303
56
773
1703
1959
640
-974
-973
-110
5
-269
-232
-194
-271
-247
-207
-205
-137
-50
-18
19
97
180
235
262
272
260
208
186
267
307
181
115
278
444
445
394
341
223
