# session 31
-72
-59
-127
24
391
560
490
454
461
419
377
358
330
298
271
248
233
215
194
178
152
122
108
106
126
161
166
132
84
40
26
23
3
26
42
-52
-35
289
959
2153
3046
1989
-216
-876
-37
251
-82
-97
-8
-90
-91
-34
-49
-50
-15
-2
4
34
73
97
104
116
141
162
172
182
195
208
222
241
251
242
228
215
184
117
21
-80
-173
-254
-312
-339
-359
-386
-409
-417
-419
-416
-413
-417
-422
-418
-407
-399
-396
-393
-386
-382
-382
-377
-367
-358
-350
-336
-319
-307
-305
-311
-315
-314
-318
-312
-272
-216
-175
-156
-156
-177
-210
-219
-195
-193
-190
-144
-162
-209
-40
417
1319
2524
2563
699
-901
-571
173
54
-151
-51
-56
-101
-47
-27
-19
24
41
54
94
119
133
161
181
191
217
245
255
259
272
283
282
275
271
266
264
267
254
211
158
112
54
-16
-63
-95
-131
-147
-141
-161
-200
-206
-187
-190
-207
-209
-203
-204
-209
-208
-201
-200
-205
-200
-184
-180
-187
-184
-175
-183
-191
-175
-158
-160
-162
-152
-146
-149
-154
-153
-145
-147
-160
-157
-129
-104
-85
-54
-22
-26
-71
-121
-117
-81
-89
-97
-64
-89
-104
90
560
1517
2627
2352
404
-897
-393
231
33
-139
-28
-32
-71
-20
2
-8
-1
14
41
68
81
105
127
131
146
173
173
163
170
175
168
156
135
116
108
95
67
39
18
3
-12
-44
-77
-95
-118
-152
-175
-186
-202
-217
-222
-228
-241
-244
-237
-237
-248
-249
-236
-235
-254
-262
-245
-226
-224
-232
-236
-224
-206
-201
-205
-200
-190
-184
-183
-183
-181
-171
-161
-156
-149
-146
-152
-147
-126
-118
-121
-96
-44
-16
-41
-86
-100
-87
-101
-111
-67
-53
-82
29
413
1251
2400
2559
916
-753
-657
126
163
-69
-20
7
-42
-6
28
26
47
65
72
98
121
132
151
172
177
180
201
225
226
211
207
201
173
143
131
124
105
79
57
44
33
14
-10
-32
-63
-99
-122
-135
-146
-156
-172
-192
-196
-189
-189
-195
-203
-216
-222
-212
-198
-207
-233
-237
-209
-197
-206
-195
-176
-186
-202
-193
-181
-186
-191
-185
-173
-162
-159
-165
-164
-158
-159
-166
-171
-176
-177
-177
-167
-123
-66
-48
-81
-130
-151
-138
-143
-151
-116
-125
-161
0
500
1443
2453
2135
165
-1233
-713
114
59
-113
-20
-22
-44
24
24
-1
48
90
88
102
141
173
187
198
232
274
285
272
282
320
345
346
346
353
359
357
357
365
348
268
156
60
-28
-118
-189
-236
-278
-314
-335
-332
-320
-328
-349
-354
-351
-359
-364
-355
-348
-350
-352
-344
-320
-300
-311
-333
-328
-304
-291
-293
-292
-271
-248
-249
-256
-245
-233
-234
-237
-242
-254
-265
-254
-198
-126
-94
-110
-140
-160
-154
-143
-136
-99
-99
-170
-99
282
1157
2605
3346
1862
-377
-772
78
246
-50
-42
8
-31
17
57
41
61
95
115
139
166
189
204
224
263
295
317
361
399
400
407
440
455
451
463
475
460
431
380
274
133
10
-87
-176
-252
-295
-312
-338
-365
-349
-318
-329
-355
-355
-349
-349
-342
-343
-348
-334
-329
-352
-349
-308
-291
-306
-309
-296
-287
-281
-275
-270
-264
-263
-257
-239
-226
-229
-227
-214
-209
-208
-196
-192
-209
-211
-174
-145
-158
-168
-149
-142
-166
-178
-162
-150
-156
-159
-164
-189
-221
-220
-179
-146
-143
-128
-108
-121
-94
-38
-91
-105
211
881
1844
2482
1596
-281
-910
-95
330
67
17
116
60
57
123
114
106
148
179
197
223
248
271
292
311
334
360
382
403
423
442
461
481
495
506
513
515
522
519
462
346
220
114
20
-67
-132
-172
-204
-230
-242
-247
-257
-269
-274
-275
-282
-296
-307
-311
-310
-308
-307
-312
-324
-330
-322
-306
-295
-287
-281
-282
-280
-272
-269
-270
-263
-254
-251
-249
-246
-244
-240
-233
-228
-223
-215
-207
-201
-196
-191
-190
-189
-184
-179
-178
-173
-162
-155
-159
-165
-168
-177
-202
-231
-246
-233
-201
-179
-166
-126
-106
-129
-92
-41
-100
-53
315
1029
2166
2888
1767
-263
-745
78
304
-9
-5
68
-9
10
74
66
78
114
125
141
167
183
204
234
257
278
303
324
344
371
402
423
441
459
474
484
491
492
468
396
275
132
5
-91
-171
-239
-281
-299
-311
-322
-322
-317
-318
-319
-318
-319
-324
-326
-323
-321
-321
-317
-309
-306
-306
-306
-302
-290
-275
-272
-271
-260
-248
-245
-240
-235
-231
-222
-209
-202
-198
-189
-181
-179
-178
-175
-170
-164
-155
-150
-150
-152
-151
-145
-138
-132
-130
-131
-129
-124
-125
-130
-131
-142
-167
-197
-222
-212
-173
-152
-129
-83
-80
-86
-30
-49
-113
108
739
1753
2726
2347
429
-818
-291
338
139
-19
94
67
22
87
106
96
125
142
150
176
200
221
249
273
294
320
343
364
392
422
447
471
501
529
543
556
571
556
482
360
208
45
-92
-189
-263
-322
-351
-358
-364
-370
-371
-371
-364
-356
-363
-378
-376
-367
-371
-378
-371
-360
-361
-369
-366
-350
-338
-332
-324
-312
-300
-295
-296
-291
-277
-262
-255
-250
-236
-223
-219
-214
-203
-196
-190
-181
-174
-170
-164
-164
-170
-162
-144
-136
-136
-133
-130
-131
-129
-125
-131
-142
-150
-172
-221
-251
-222
-174
-159
-131
-81
-82
-75
-9
-48
-108
157
782
1803
2922
2686
752
-577
-126
401
137
-24
75
32
5
82
95
90
118
126
134
162
184
209
239
254
269
298
323
343
370
396
412
423
436
454
467
466
457
431
361
239
106
-5
-96
-182
-257
-306
-328
-333
-326
-324
-335
-340
-336
-334
-332
-330
-336
-336
-327
-327
-336
-332
-318
-312
-309
-299
-292
-291
-281
-269
-269
-273
-268
-263
-259
-254
-245
-234
-224
-217
-215
-211
-203
-195
-192
-190
-185
-177
-164
-149
-150
-164
-162
-141
-135
-146
-142
-130
-129
-123
-112
-119
-132
-138
-154
-184
-211
-215
-181
-146
-136
-107
-80
-87
-43
-1
-67
10
443
1229
2363
2908
1604
-344
-632
196
336
26
48
107
35
54
102
98
112
129
132
157
184
198
217
241
260
275
292
313
333
346
354
365
379
379
365
358
355
332
286
227
145
41
-46
-104
-153
-203
-236
-251
-260
-268
-269
-272
-283
-287
-281
-287
-298
-295
-290
-296
-299
-294
-292
-291
-287
-281
-274
-269
-266
-260
-253
-249
-245
-233
-222
-220
-217
-206
-195
-189
-183
-177
-178
-180
-167
-147
-142
-148
-141
-127
-126
-128
-121
-119
-125
-120
-107
-94
-88
-94
-108
-103
-85
-91
-114
-120
-115
-116
-133
-165
-177
-150
-127
-109
-66
-54
-62
-17
-17
-65
119
668
1592
2545
2259
383
-972
-474
304
201
8
100
86
39
103
120
97
126
155
159
174
193
203
219
239
259
277
290
306
331
336
308
291
305
313
290
257
234
209
168
111
46
-13
-60
-103
-145
-176
-194
-210
-224
-229
-230
-232
-235
-236
-239
-244
-248
-251
-250
-248
-249
-252
-249
-243
-239
-233
-226
-222
-220
-217
-212
-206
-199
-196
-193
-187
-178
-172
-169
-168
-165
-158
-153
-153
-151
-148
-145
-143
-142
-141
-138
-135
-135
-135
-134
-132
-129
-126
-121
-122
-128
-125
-117
-119
-116
-111
-130
-170
-199
-207
-192
-166
-143
-104
-74
-84
-65
-28
-72
-30
373
1204
2247
2528
1124
-707
-895
32
316
66
57
105
46
73
117
99
118
156
151
152
181
205
225
254
281
304
326
343
361
384
408
429
444
456
465
471
471
467
441
359
231
102
-8
-105
-184
-242
-280
-298
-307
-314
-305
-291
-298
-312
-311
-305
-308
-311
-314
-317
-313
-309
-307
-302
-299
-309
-315
-299
-277
-270
-270
-264
-257
-252
-244
-233
-226
-225
-225
-220
-211
-202
-196
-193
-189
-180
-170
-170
-179
-182
-174
-163
-158
-160
-159
-149
-144
-146
-145
-140
-142
-147
-152
-161
-174
-201
-227
-207
-163
-144
-119
-91
-101
-77
-36
-96
-36
469
1380
2338
2436
979
-698
-750
116
294
42
68
118
56
84
135
131
148
173
174
189
216
237
262
290
313
337
367
398
427
459
494
528
558
588
614
631
639
629
569
442
270
93
-65
-191
-284
-343
-371
-383
-390
-389
-377
-368
-364
-356
-350
-353
-360
-362
-359
-358
-364
-371
-369
-362
-356
-347
-340
-341
-340
-330
-322
-319
-310
-297
-293
-293
-282
-268
-265
-263
-255
-249
-244
-233
-219
-214
-214
-208
-196
-190
-188
-182
-174
-175
-188
-206
-221
-223
-195
-128
-62
-46
-74
-111
-129
-115
-113
-126
-85
-72
-148
-41
478
1447
2613
2753
1060
-680
-589
212
210
-42
29
50
-17
23
55
47
83
117
128
159
194
213
239
273
305
337
367
399
436
474
506
541
582
619
643
657
662
643
570
425
240
66
-80
-203
-290
-336
-359
-370
-369
-363
-357
-351
-343
-337
-334
-334
-334
-334
-338
-337
-328
-322
-324
-321
-314
-309
-301
-296
-296
-294
-286
-276
-269
-262
-257
-248
-237
-235
-236
-227
-215
-207
-205
-202
-193
-186
-185
-178
-167
-164
-162
-152
-146
-148
-149
-148
-145
-137
-132
-132
-126
-119
-123
-133
-139
-155
-176
-187
-191
-181
-159
-146
-117
-75
-81
-76
-20
-47
-69
212
878
1925
2759
1998
-70
-996
-198
379
129
20
128
83
60
118
115
110
142
157
170
199
216
232
264
291
305
324
355
388
408
420
443
476
497
503
510
520
519
493
428
319
182
42
-80
-170
-235
-282
-306
-312
-322
-330
-322
-312
-318
-322
-316
-313
-317
-319
-322
-328
-327
-321
-315
-312
-311
-310
-306
-292
-277
-275
-280
-273
-256
-245
-245
-244
-235
-225
-215
-209
-208
-205
-197
-191
-189
-183
-171
-162
-163
-163
-156
-147
-146
-146
-140
-132
-132
-133
-124
-115
-115
-113
-108
-112
-122
-128
-137
-157
-179
-184
-160
-137
-132
-99
-55
-68
-63
-8
-42
-52
273
1022
2105
2765
1746
-291
-964
-95
373
104
42
135
67
61
131
122
117
154
158
157
186
214
235
263
282
291
309
340
370
395
413
427
447
469
482
484
482
475
446
375
254
113
-15
-123
-208
-263
-294
-319
-337
-336
-330
-330
-327
-328
-334
-331
-326
-325
-321
-319
-330
-337
-333
-330
-325
-312
-303
-295
-286
-283
-279
-269
-266
-267
-261
-253
-242
-225
-213
-212
-209
-205
-199
-181
-167
-175
-177
-155
-136
-141
-147
-135
-123
-120
-114
-103
-99
-98
-89
-80
-79
-76
-70
-73
-77
-75
-78
-87
-90
-94
-116
-152
-176
-153
-119
-122
-108
-61
-68
-73
-14
-38
-68
226
909
1906
2678
1970
7
-922
-199
356
126
16
110
65
43
95
94
99
136
141
141
170
198
215
234
257
288
327
354
364
379
413
458
500
536
557
560
565
582
573
493
355
201
55
-80
-197
-285
-339
-366
-377
-378
-374
-368
-361
-352
-347
-348
-350
-349
-347
-346
-349
-355
-357
-347
-332
-329
-331
-323
-309
-303
-306
-302
-287
-273
-265
-259
-256
-245
-223
-218
-234
-228
-207
-208
-214
-196
-177
-177
-180
-173
-164
-160
-154
-144
-140
-146
-148
-139
-127
-122
-119
-109
-108
-121
-126
-128
-137
-144
-162
-198
-194
-152
-134
-113
-77
-79
-62
-14
-65
-15
541
1504
2275
2070
621
-800
-749
82
290
81
93
140
95
120
161
155
166
189
203
225
241
254
290
326
344
362
380
399
436
481
521
562
603
636
666
697
717
713
656
519
326
131
-41
-186
-292
-360
-400
-414
-411
-401
-391
-379
-367
-357
-351
-349
-346
-344
-345
-347
-344
-342
-343
-344
-341
-338
-336
-330
-320
-312
-307
-303
-298
-292
-285
-279
-271
-264
-255
-246
-241
-240
-234
-225
-219
-213
-206
-201
-196
-189
-185
-183
-178
-173
-172
-170
-161
-151
-148
-154
-160
-170
-190
-216
-236
-224
-183
-158
-143
-107
-96
-104
-51
-37
-109
30
590
1559
2615
2559
817
-731
-477
290
231
-1
77
84
26
71
98
93
127
151
155
180
208
225
248
278
305
332
364
400
434
467
503
543
581
616
647
672
680
662
590
450
266
84
-80
-219
-316
-372
-402
-408
-394
-386
-394
-392
-375
-362
-357
-355
-356
-356
-351
-346
-344
-345
-343
-335
-327
-329
-335
-320
-297
-296
-309
-300
-276
-268
-272
-269
-259
-251
-246
-237
-224
-218
-219
-209
-195
-196
-198
-187
-178
-176
-167
-158
-160
-162
-157
-151
-145
-142
-145
-141
-130
-127
-126
-117
-114
-122
-130
-140
-159
-181
-196
-189
-157
-135
-121
-80
-60
-78
-36
0
-70
-1
442
1277
2388
2768
1355
-500
-660
194
330
39
67
121
54
83
127
108
125
164
174
187
210
230
255
285
310
334
361
389
420
454
487
521
556
586
613
638
651
647
615
524
364
184
28
-103
-209
-280
-324
-343
-345
-346
-349
-342
-328
-320
-317
-312
-310
-312
-310
-303
-304
-313
-315
-308
-304
-305
-298
-285
-280
-280
-274
-265
-264
-262
-253
-244
-237
-227
-223
-226
-223
-209
-201
-202
-198
-191
-190
-191
-184
-178
-175
-170
-167
-167
-167
-164
-158
-155
-156
-156
-152
-149
-149
-148
-148
-150
-150
-146
-140
-141
-151
-163
-180
-209
-235
-241
-221
-193
-179
-156
-122
-126
-124
-69
-93
-149
59
629
1605
2663
2426
512
-873
-407
287
123
-66
32
11
-36
19
33
27
64
82
85
111
136
150
173
202
230
259
289
320
348
375
408
448
484
513
542
569
579
566
519
414
253
81
-68
-187
-275
-330
-362
-378
-377
-364
-350
-336
-324
-314
-303
-292
-284
-279
-274
-270
-265
-257
-251
-244
-235
-225
-214
-204
-195
-179
-161
-146
-134
-124
-122
-115
-92
