# session 26
-93
-91
-133
18
249
279
270
333
293
247
301
268
182
228
258
166
145
197
157
96
113
133
125
106
56
14
23
31
9
-38
-85
-70
-15
-7
-19
0
29
19
-46
-22
275
876
1841
2712
2144
172
-927
-316
247
22
-106
-24
-91
-111
-31
-33
-48
-20
-14
13
65
67
59
109
186
234
227
204
237
316
388
441
473
514
597
661
642
575
499
423
316
134
-72
-225
-336
-402
-400
-389
-430
-484
-481
-422
-373
-353
-353
-392
-427
-373
-315
-363
-398
-337
-333
-409
-389
-315
-347
-378
-318
-307
-330
-286
-297
-366
-321
-256
-279
-251
-210
-273
-290
-219
-224
-259
-217
-183
-190
-178
-176
-194
-175
-152
-184
-195
-114
-77
-159
-183
-101
-92
-142
-109
-60
-88
-135
-158
-164
-154
-136
-116
-107
-108
-74
-36
-63
-47
32
-17
-32
367
1177
2161
2602
1498
-381
-911
-98
286
-2
-83
44
38
0
28
48
48
78
140
176
163
158
194
242
278
302
336
390
441
473
516
588
655
706
753
760
738
764
760
590
337
148
13
-100
-209
-359
-462
-406
-336
-376
-381
-316
-329
-362
-308
-281
-333
-350
-328
-322
-309
-304
-323
-320
-310
-315
-296
-298
-352
-333
-243
-244
-314
-304
-240
-220
-245
-278
-289
-251
-186
-182
-233
-242
-213
-208
-195
-167
-177
-194
-189
-180
-172
-188
-217
-191
-173
-248
-282
-196
-153
-184
-142
-84
-102
-88
-74
-107
198
1025
1818
1908
989
-489
-1199
-617
93
135
10
37
33
17
57
106
145
148
141
171
185
190
235
257
266
334
395
424
480
508
498
569
694
760
795
835
841
793
678
514
346
174
0
-141
-265
-361
-353
-301
-339
-397
-340
-274
-315
-350
-297
-255
-262
-268
-286
-305
-271
-234
-259
-296
-303
-291
-270
-271
-294
-292
-281
-292
-282
-251
-245
-251
-243
-251
-281
-280
-239
-211
-214
-215
-205
-196
-195
-198
-200
-204
-208
-177
-117
-102
-137
-139
-125
-164
-183
-134
-113
-122
-110
-147
-224
-216
-167
-174
-170
-98
-28
-25
-50
-25
-22
-95
13
466
1208
2263
2850
1675
-332
-820
-13
237
-64
-78
9
-26
-7
34
47
69
42
20
86
110
89
169
246
211
226
308
316
318
386
431
472
569
641
653
657
652
625
585
504
354
169
-3
-143
-252
-340
-406
-417
-359
-304
-315
-351
-370
-377
-350
-313
-344
-381
-331
-278
-295
-306
-297
-314
-302
-268
-319
-374
-287
-176
-206
-287
-279
-230
-256
-319
-286
-191
-167
-207
-231
-214
-193
-242
-307
-250
-139
-138
-203
-192
-149
-211
-294
-225
-115
-138
-176
-134
-130
-166
-143
-124
-187
-255
-239
-180
-176
-200
-168
-119
-98
-71
-96
-157
-76
38
-29
0
441
1332
2533
2902
1301
-723
-898
-10
185
-57
-145
-213
-117
145
165
26
31
82
74
100
162
188
173
172
235
324
373
413
482
523
529
600
738
811
818
873
932
879
759
612
389
166
39
-84
-256
-367
-395
-420
-443
-436
-411
-379
-351
-353
-374
-373
-352
-347
-361
-368
-367
-369
-371
-369
-367
-368
-369
-367
-364
-367
-370
-364
-358
-362
-361
-347
-333
-319
-308
-318
-324
-291
-241
-221
-230
-228
-201
-189
-211
-220
-203
-205
-226
-227
-230
-267
-295
-261
-203
-181
-169
-153
-152
-111
-72
-148
-99
392
1335
2516
2916
1418
-681
-1025
-102
172
-95
-82
-17
-80
-49
9
2
23
63
80
108
146
168
201
252
281
293
337
422
503
558
608
670
736
798
851
890
897
844
703
490
268
70
-119
-283
-389
-444
-473
-479
-469
-453
-434
-419
-408
-392
-371
-355
-348
-347
-349
-346
-339
-332
-326
-320
-317
-315
-309
-304
-303
-301
-293
-283
-277
-276
-270
-258
-249
-248
-244
-234
-226
-225
-219
-210
-212
-215
-203
-196
-209
-228
-245
-272
-300
-285
-222
-183
-190
-172
-139
-144
-108
-60
-121
-78
367
1276
2523
3060
1615
-575
-1014
-95
187
-109
-100
-13
-77
-66
-12
-10
17
55
62
78
109
136
166
200
231
265
306
352
398
445
506
577
638
687
741
793
813
773
659
480
275
74
-109
-256
-351
-406
-435
-443
-440
-434
-427
-416
-407
-409
-415
-412
-401
-389
-380
-376
-376
-371
-365
-360
-352
-344
-339
-335
-331
-331
-326
-308
-293
-292
-291
-282
-274
-273
-276
-283
-297
-305
-288
-231
-158
-120
-137
-175
-202
-195
-175
-190
-181
-122
-160
-212
40
728
1923
3068
2518
213
-1182
-545
149
-57
-198
-74
-105
-138
-64
-46
-51
-9
26
45
72
98
129
165
204
243
281
324
378
426
469
525
586
637
686
727
743
719
627
459
260
74
-96
-240
-339
-390
-408
-412
-409
-403
-398
-394
-387
-383
-382
-375
-367
-366
-364
-359
-354
-348
-341
-337
-332
-325
-319
-313
-310
-308
-304
-306
-317
-328
-318
-271
-192
-141
-158
-200
-224
-231
-219
-218
-224
-176
-159
-230
-147
306
1257
2603
3019
1286
-872
-1047
-106
62
-205
-157
-104
-164
-128
-84
-83
-45
-7
6
40
77
98
129
166
196
234
280
317
359
417
468
502
539
585
623
642
630
559
417
243
75
-81
-216
-306
-352
-380
-396
-391
-379
-377
-379
-375
-369
-364
-356
-353
-356
-352
-340
-333
-330
-324
-318
-312
-304
-295
-293
-289
-279
-273
-270
-270
-282
-299
-297
-266
-208
-140
-111
-138
-174
-195
-199
-178
-173
-177
-133
-137
-195
-39
463
1450
2775
2936
949
-1035
-884
41
62
-186
-100
-78
-140
-90
-58
-68
-33
3
19
48
81
106
131
162
205
249
281
316
367
411
445
489
541
583
609
628
630
574
444
283
135
-6
-139
-234
-288
-325
-345
-344
-343
-348
-348
-347
-348
-347
-346
-350
-352
-347
-345
-346
-345
-341
-340
-341
-341
-337
-332
-320
-304
-306
-325
-333
-330
-321
-287
-219
-156
-142
-169
-202
-224
-224
-202
-200
-211
-165
-151
-220
-61
585
1601
2486
2175
333
-1218
-951
-73
21
-159
-81
-48
-91
-46
-9
-10
19
50
70
96
117
147
193
226
248
286
330
364
403
451
500
547
591
628
656
674
657
562
393
212
55
-88
-209
-285
-327
-364
-388
-387
-378
-371
-363
-353
-351
-356
-356
-352
-352
-355
-352
-349
-349
-343
-339
-340
-340
-335
-328
-330
-341
-347
-335
-300
-246
-198
-196
-227
-255
-259
-232
-217
-236
-209
-178
-237
-157
334
1263
2421
2747
1235
-703
-918
-86
68
-193
-152
-93
-152
-122
-78
-83
-56
-20
-5
23
60
90
123
160
199
241
285
326
366
417
486
549
589
625
671
706
686
577
394
198
20
-148
-290
-372
-405
-420
-428
-424
-410
-402
-404
-401
-390
-385
-383
-375
-373
-376
-364
-353
-367
-381
-364
-344
-340
-339
-339
-348
-358
-364
-366
-337
-261
-189
-182
-217
-240
-242
-221
-206
-218
-188
-151
-215
-216
112
998
2537
3554
2310
-140
-936
-153
117
-206
-210
-117
-183
-163
-97
-101
-78
-27
-8
19
61
92
131
174
199
231
292
359
397
420
466
535
597
639
674
699
682
592
431
241
59
-96
-217
-300
-348
-373
-383
-381
-372
-365
-360
-355
-363
-377
-374
-358
-351
-349
-341
-330
-322
-315
-307
-301
-297
-291
-284
-275
-262
-250
-247
-249
-247
-240
-225
-209
-206
-210
-205
-193
-185
-179
-170
-160
-152
-151
-152
-144
-131
-128
-125
-122
-135
-152
-168
-202
-232
-225
-195
-163
-138
-116
-87
-77
-84
-44
-29
-96
-17
416
1380
2883
3585
2017
-269
-689
92
174
-138
-84
-28
-111
-80
-24
-35
-13
26
33
44
75
104
130
156
183
211
239
265
288
312
343
373
396
424
458
484
499
495
444
336
209
92
-21
-127
-206
-255
-284
-300
-314
-330
-335
-338
-342
-336
-331
-340
-342
-332
-333
-338
-330
-319
-317
-315
-307
-302
-304
-301
-290
-281
-275
-268
-265
-262
-254
-250
-249
-241
-232
-221
-209
-207
-215
-214
-207
-205
-196
-182
-178
-178
-172
-170
-169
-159
-148
-151
-160
-170
-187
-207
-219
-231
-235
-208
-168
-141
-108
-87
-94
-55
-17
-94
-80
285
1119
2567
3681
2640
169
-806
-61
258
-94
-127
-16
-94
-95
-16
-20
-23
18
42
59
85
104
122
151
184
211
236
268
298
314
326
350
373
389
406
416
422
419
365
258
153
61
-47
-143
-198
-230
-257
-272
-274
-270
-270
-282
-299
-300
-286
-278
-283
-280
-269
-275
-291
-285
-266
-259
-258
-251
-250
-255
-248
-240
-253
-259
-243
-236
-238
-232
-228
-225
-215
-211
-205
-190
-188
-195
-181
-166
-172
-166
-140
-140
-162
-159
-134
-128
-133
-119
-102
-107
-121
-133
-149
-169
-192
-212
-209
-186
-157
-113
-82
-101
-92
-24
-44
-101
87
672
1828
3179
3037
849
-922
-594
185
76
-137
-37
-34
-81
-29
-10
-19
16
40
46
74
103
119
144
175
193
210
239
271
292
309
335
361
370
364
361
367
367
341
284
192
85
-7
-80
-142
-179
-200
-231
-260
-263
-258
-266
-273
-266
-263
-271
-269
-260
-266
-280
-277
-262
-256
-256
-248
-235
-239
-253
-251
-242
-242
-230
-211
-213
-227
-222
-208
-207
-201
-183
-158
-123
-104
-131
-158
-142
-126
-138
-145
-133
-124
-129
-131
-120
-114
-119
-121
-121
-129
-132
-127
-144
-179
-195
-200
-211
-210
-194
-165
-120
-95
-99
-56
-23
-82
-14
415
1270
2488
3052
1687
-433
-884
-15
258
-37
-40
42
-23
-13
43
39
51
81
84
98
131
147
156
179
207
222
231
254
280
292
298
305
307
309
312
309
302
282
227
143
55
-23
-88
-144
-189
-213
-222
-234
-256
-264
-249
-232
-238
-258
-265
-256
-249
-246
-240
-235
-232
-231
-233
-235
-233
-228
-228
-226
-219
-222
-230
-216
-197
-201
-209
-199
-197
-212
-205
-181
-182
-196
-190
-173
-166
-163
-159
-155
-147
-138
-140
-148
-142
-122
-113
-122
-115
-94
-94
-112
-124
-136
-148
-160
-186
-203
-180
-144
-102
-67
-66
-48
-12
-48
-21
339
1158
2396
3124
1959
-257
-985
-146
268
-15
-71
23
-36
-35
39
31
9
35
66
88
112
138
156
163
177
209
231
243
269
297
302
303
317
323
313
315
322
300
243
165
83
5
-67
-127
-168
-193
-210
-218
-226
-239
-242
-237
-238
-240
-236
-239
-252
-256
-252
-254
-259
-257
-256
-255
-251
-255
-258
-239
-222
-239
-256
-241
-220
-213
-210
-206
-204
-203
-197
-188
-182
-176
-164
-154
-150
-140
-132
-139
-141
-123
-118
-134
-133
-114
-114
-123
-107
-98
-127
-146
-135
-147
-192
-208
-180
-162
-150
-105
-66
-65
-47
-32
-59
41
482
1390
2564
2811
1188
-751
-895
6
210
-47
-20
51
4
27
60
40
51
88
116
143
154
153
169
198
226
239
243
262
285
284
279
298
320
320
304
280
240
195
155
92
3
-72
-122
-162
-198
-223
-232
-235
-240
-244
-247
-257
-260
-246
-239
-241
-230
-222
-242
-253
-227
-214
-235
-246
-231
-219
-212
-206
-205
-206
-215
-223
-206
-185
-188
-197
-195
-201
-208
-201
-189
-176
-166
-171
-172
-157
-153
-169
-165
-132
-115
-127
-136
-140
-151
-161
-183
-202
-177
-134
-108
-88
-72
-42
-15
-38
10
377
1243
2447
2872
1424
-633
-1031
-128
224
-24
-43
42
-6
-11
20
16
42
73
65
80
117
125
129
164
196
198
200
225
251
270
294
309
306
301
292
278
274
248
176
103
46
-32
-111
-149
-166
-186
-197
-195
-192
-199
-208
-206
-203
-209
-212
-208
-210
-216
-218
-222
-230
-225
-208
-216
-249
-253
-228
-232
-255
-252
-235
-232
-232
-218
-207
-209
-214
-210
-196
-184
-197
-228
-238
-213
-188
-167
-110
-47
-59
-124
-154
-139
-144
-166
-139
-99
-133
-113
196
938
2102
2791
1669
-486
-1229
-387
134
-65
-134
-63
-117
-126
-70
-65
-66
-49
-41
-23
12
42
64
84
99
111
136
176
203
219
255
299
316
323
350
374
373
351
291
182
57
-61
-179
-266
-297
-314
-340
-354
-357
-358
-343
-323
-320
-327
-335
-342
-339
-335
-341
-340
-329
-331
-339
-333
-322
-319
-310
-294
-293
-299
-295
-290
-279
-247
-206
-158
-112
-110
-153
-166
-127
-116
-154
-137
-81
-108
-65
349
1219
2358
2838
1554
-492
-1008
-129
275
36
9
89
23
28
100
105
115
156
158
153
201
255
268
282
323
357
374
405
449
481
508
553
609
646
650
639
630
590
468
297
150
34
-78
-165
-203
-213
-223
-231
-222
-199
-194
-208
-203
-190
-210
-232
-221
-212
-231
-241
-230
-232
-257
-275
-283
-301
-325
-337
-322
-276
-226
-217
-239
-254
-269
-289
-299
-292
-254
-243
-304
-264
62
848
2243
3203
2033
-348
-1161
-355
1
-305
-339
-238
-310
-333
-279
-281
-291
-263
-232
-212
-197
-177
-148
-125
-110
-91
-65
-37
-6
22
43
63
83
94
101
109
81
-1
-112
-238
-380
-510
-609
-677
-704
-701
-695
-684
-663
-659
-661
-644
-634
-648
-648
-632
-619
-604
-588
-583
-575
-562
-548
-529
-512
-512
-522
-527
-521
-509
-492
-455
-383
-306
-276
-305
-343
-336
-290
-276
-276
-216
-182
-224
-106
374
1344
2681
3104
1468
-602
-794
110
292
41
102
175
127
190
269
269
307
385
414
425
476
537
578
633
702
737
754
798
854
898
937
971
999
1012
1002
1000
1024
1002
895
771
681
604
533
497
487
484
485
477
464
478
498
485
467
478
487
473
449
429
419
409
401
407
395
347
305
290
275
244
205
181
170
128
56
16
2
-42
-108
-149
-177
-235
-308
-345
-374
-454
-552
-612
-664
-737
-810
-876
-947
-1030
-1127
-1219
-1283
-1353
-1461
-1570
-1663
-1764
-1860
-1943
-2025
-2083
-2141
-2257
-2363
-2418
-2545
-2552
-2007
-1103
-334
