# session 22
14
11
17
84
138
112
120
208
268
285
316
355
408
460
435
385
407
387
249
127
55
-50
-138
-159
-157
-116
-53
-65
-126
-158
-184
-193
-148
-109
-118
-133
-165
-197
-172
-152
-190
-187
-127
-133
-202
-226
-199
-185
-191
-186
-188
-211
-205
-158
-153
-187
-188
-172
-161
-147
-185
-231
-160
-100
-233
-357
-239
-80
-93
-120
-58
-66
-121
-88
-63
-4
370
1055
1821
2113
1135
-505
-987
-249
164
-33
-124
-70
-85
-91
-69
-50
-5
31
23
7
33
109
170
190
235
308
333
349
444
540
549
547
577
573
562
593
575
427
237
109
22
-92
-209
-238
-194
-192
-244
-263
-237
-241
-291
-323
-316
-291
-256
-234
-270
-340
-359
-317
-283
-289
-296
-274
-265
-303
-320
-259
-213
-243
-256
-225
-232
-262
-257
-264
-293
-256
-178
-183
-217
-171
-143
-196
-191
-136
-183
-250
-188
-100
-98
-106
-76
-68
-73
-31
0
-39
25
452
1287
2094
1866
286
-1097
-899
-59
108
-85
-72
-25
-27
34
78
74
106
136
126
151
204
225
255
327
354
311
308
378
421
419
450
484
452
430
465
454
362
277
216
147
72
-18
-104
-113
-67
-64
-94
-102
-110
-137
-161
-164
-152
-138
-145
-198
-259
-254
-202
-206
-246
-216
-155
-183
-273
-293
-233
-208
-267
-315
-283
-241
-266
-311
-292
-237
-221
-243
-254
-233
-204
-218
-260
-253
-210
-211
-235
-233
-244
-291
-300
-240
-196
-206
-187
-140
-148
-139
-91
-132
-85
323
1002
1769
1999
803
-930
-1177
-246
97
-141
-141
-74
-134
-113
-59
-65
-54
-28
-12
16
40
65
123
188
232
274
330
401
467
508
555
638
711
745
780
799
722
556
397
262
114
-21
-106
-157
-197
-231
-242
-212
-182
-194
-214
-210
-209
-216
-212
-201
-201
-198
-183
-179
-191
-185
-180
-204
-208
-187
-204
-215
-179
-198
-270
-233
-116
-85
-122
-143
-159
-170
-156
-152
-164
-163
-155
-161
-182
-200
-208
-236
-269
-240
-179
-162
-143
-114
-130
-113
-75
-141
-61
467
1249
1889
1714
253
-1234
-1111
-152
87
-130
-104
-34
-53
-18
15
13
38
64
72
88
111
144
190
239
289
337
378
428
488
550
617
677
703
714
736
729
636
471
286
109
-42
-157
-243
-301
-325
-322
-313
-305
-306
-318
-330
-334
-334
-339
-344
-340
-335
-335
-329
-315
-311
-318
-324
-318
-301
-290
-294
-295
-283
-277
-283
-279
-267
-268
-267
-245
-226
-227
-228
-220
-213
-209
-205
-207
-218
-229
-234
-251
-288
-296
-235
-170
-148
-119
-99
-105
-44
0
-91
10
582
1417
2132
1949
412
-1018
-793
72
160
-52
22
66
31
92
139
127
149
182
202
230
256
278
308
343
384
438
488
532
584
642
693
740
779
801
805
777
682
511
307
114
-55
-192
-286
-338
-361
-365
-361
-355
-348
-344
-341
-337
-338
-345
-351
-354
-356
-359
-359
-354
-350
-350
-344
-331
-324
-321
-313
-307
-303
-295
-286
-282
-279
-274
-269
-259
-248
-245
-242
-233
-233
-242
-246
-249
-261
-273
-290
-304
-274
-225
-200
-169
-145
-151
-115
-96
-168
-42
520
1339
2005
1695
67
-1294
-947
-23
90
-96
-12
36
3
58
99
90
117
150
164
196
238
270
303
341
383
433
485
534
590
656
718
770
814
846
857
827
729
560
360
171
9
-124
-218
-277
-312
-327
-328
-327
-331
-333
-328
-324
-331
-338
-334
-333
-340
-343
-342
-344
-342
-333
-327
-327
-323
-317
-313
-307
-298
-290
-289
-284
-269
-256
-253
-251
-245
-238
-234
-239
-249
-244
-211
-154
-102
-89
-112
-149
-175
-163
-154
-180
-149
-105
-184
-120
422
1274
1963
1727
195
-1262
-1105
-188
24
-158
-103
-48
-88
-47
2
0
26
68
98
136
175
208
250
301
353
407
461
519
586
654
715
771
821
854
864
836
732
547
336
143
-27
-163
-251
-302
-328
-338
-340
-333
-325
-326
-335
-338
-334
-338
-344
-346
-349
-353
-350
-343
-343
-344
-339
-336
-334
-332
-332
-338
-351
-365
-367
-344
-280
-201
-172
-199
-223
-235
-233
-218
-229
-220
-164
-215
-273
36
754
1703
2306
1437
-514
-1295
-477
74
-148
-216
-95
-127
-126
-50
-40
-32
18
53
79
116
152
192
242
289
339
396
453
513
578
638
686
725
757
767
734
636
476
289
112
-39
-158
-238
-281
-304
-313
-308
-299
-295
-292
-286
-288
-297
-304
-310
-311
-305
-302
-303
-302
-296
-288
-281
-276
-273
-273
-272
-270
-269
-263
-252
-248
-248
-243
-239
-238
-227
-212
-209
-214
-211
-207
-217
-225
-211
-177
-123
-65
-41
-60
-93
-119
-109
-90
-110
-92
-39
-106
-115
232
881
1777
2389
1474
-492
-1165
-304
166
-86
-127
-14
-62
-60
12
19
29
68
86
109
146
172
199
240
279
314
357
401
439
477
520
564
599
628
647
646
612
532
411
273
149
44
-46
-112
-150
-179
-202
-214
-220
-230
-243
-255
-266
-272
-276
-284
-290
-289
-285
-281
-278
-283
-292
-293
-288
-281
-278
-280
-279
-276
-277
-277
-267
-257
-253
-249
-240
-233
-227
-224
-220
-212
-203
-196
-187
-179
-180
-177
-167
-169
-177
-183
-197
-213
-232
-258
-247
-192
-157
-134
-98
-104
-95
-23
-65
-115
262
1016
1713
1866
860
-782
-1263
-394
162
-7
-63
44
23
27
84
77
86
138
152
152
188
225
247
279
327
370
411
461
520
575
627
679
723
755
778
783
743
635
472
297
143
11
-104
-189
-238
-269
-289
-289
-282
-287
-293
-286
-284
-293
-302
-307
-310
-308
-312
-319
-319
-314
-313
-316
-312
-304
-301
-300
-292
-284
-281
-277
-269
-262
-255
-246
-241
-241
-236
-225
-212
-204
-205
-209
-213
-223
-231
-236
-264
-295
-269
-214
-185
-150
-126
-138
-92
-54
-140
11
686
1451
1724
1103
-313
-1265
-813
6
100
-50
29
69
32
69
103
101
123
149
167
196
227
253
293
340
380
427
488
545
597
657
724
782
824
853
859
816
701
521
321
135
-26
-154
-241
-290
-308
-308
-302
-293
-280
-270
-269
-272
-273
-276
-282
-287
-291
-295
-297
-299
-303
-305
-297
-289
-289
-291
-294
-297
-292
-285
-284
-284
-281
-279
-276
-273
-268
-258
-247
-241
-238
-233
-222
-214
-210
-206
-203
-210
-233
-265
-300
-318
-289
-221
-176
-168
-140
-114
-129
-95
-47
-129
-101
396
1268
2096
2093
728
-775
-801
-21
124
-98
-50
12
-33
4
52
44
70
112
123
143
182
216
249
292
338
389
450
514
575
638
708
773
822
860
884
866
772
605
401
202
23
-134
-250
-312
-334
-341
-345
-343
-338
-333
-327
-325
-328
-331
-329
-328
-332
-332
-325
-320
-318
-312
-305
-303
-304
-303
-294
-283
-279
-280
-273
-264
-264
-268
-260
-249
-247
-249
-243
-232
-224
-217
-212
-212
-207
-196
-189
-186
-181
-173
-165
-158
-163
-177
-194
-217
-242
-254
-242
-204
-168
-155
-122
-78
-87
-77
-18
-74
-106
282
1083
1977
2304
1221
-536
-976
-149
219
-34
-62
34
-14
-2
63
55
60
104
127
148
180
206
243
292
334
376
429
482
530
584
647
705
752
787
810
813
768
651
478
296
131
-8
-113
-186
-236
-265
-276
-280
-281
-278
-279
-285
-292
-305
-315
-315
-313
-314
-314
-314
-312
-310
-313
-315
-311
-307
-308
-307
-299
-286
-281
-284
-283
-272
-265
-264
-260
-254
-248
-240
-231
-224
-217
-212
-205
-192
-181
-179
-176
-166
-156
-150
-145
-140
-139
-140
-133
-122
-125
-139
-148
-156
-177
-202
-214
-202
-169
-146
-126
-82
-72
-91
-39
-16
-100
28
576
1372
2085
1851
244
-1119
-767
104
139
-68
21
54
11
68
103
85
110
143
155
184
220
246
281
324
364
399
441
495
551
598
639
681
716
738
748
741
692
580
421
262
127
9
-90
-157
-196
-223
-240
-248
-252
-262
-275
-282
-284
-288
-291
-291
-295
-304
-305
-300
-302
-307
-308
-311
-309
-299
-294
-295
-288
-277
-271
-265
-256
-249
-241
-233
-228
-222
-211
-202
-198
-194
-188
-179
-174
-170
-161
-153
-153
-153
-145
-141
-139
-134
-133
-134
-130
-126
-131
-139
-148
-160
-169
-183
-220
-235
-201
-166
-135
-88
-89
-97
-27
-37
-106
229
999
1644
1677
731
-762
-1291
-494
162
71
-10
94
78
59
123
138
131
161
184
197
225
255
283
319
357
395
440
490
542
597
651
704
751
786
807
808
773
678
523
342
175
36
-82
-176
-239
-264
-271
-279
-282
-274
-266
-266
-267
-270
-279
-289
-291
-291
-295
-303
-306
-303
-300
-300
-301
-299
-295
-289
-285
-280
-271
-264
-265
-265
-259
-255
-251
-244
-237
-236
-236
-231
-221
-216
-217
-215
-206
-198
-192
-186
-180
-173
-165
-159
-160
-168
-180
-196
-216
-237
-255
-253
-218
-181
-159
-120
-98
-114
-70
-33
-121
-32
531
1395
2142
1954
400
-1038
-815
56
145
-77
-6
38
-12
35
82
79
107
137
147
171
203
232
272
316
356
404
460
518
578
641
702
758
811
852
872
859
789
642
446
248
74
-76
-192
-263
-297
-313
-318
-314
-306
-302
-302
-304
-309
-313
-318
-325
-329
-329
-329
-327
-322
-322
-323
-319
-313
-312
-310
-308
-306
-303
-298
-292
-284
-277
-271
-264
-256
-249
-243
-236
-229
-222
-212
-203
-196
-190
-181
-172
-168
-163
-156
-150
-146
-139
-133
-130
-125
-123
-128
-138
-151
-170
-196
-217
-209
-173
-148
-126
-82
-77
-90
-31
-26
-107
83
692
1509
2160
1750
49
-1149
-635
169
116
-63
41
50
9
71
100
91
123
149
159
188
221
248
285
328
370
413
461
512
567
616
660
707
751
779
786
769
707
582
411
234
78
-47
-143
-209
-248
-271
-282
-275
-260
-259
-270
-277
-281
-292
-302
-306
-309
-314
-313
-305
-300
-301
-302
-301
-298
-294
-290
-287
-280
-273
-269
-266
-259
-247
-239
-239
-239
-230
-217
-212
-208
-202
-194
-189
-189
-182
-172
-172
-168
-159
-173
-179
-166
-197
-224
-138
-71
-145
-180
-85
-47
-109
-134
-133
-186
-232
-189
-125
-120
-116
-78
-81
-71
0
-41
-68
384
1202
1764
1580
412
-998
-1186
-282
204
42
-4
70
42
71
139
136
136
150
146
187
250
272
288
325
363
406
453
493
555
636
698
745
795
832
847
832
765
642
499
349
178
8
-122
-217
-279
-300
-308
-320
-305
-280
-284
-289
-271
-275
-304
-317
-315
-317
-323
-324
-316
-321
-360
-368
-307
-267
-296
-325
-319
-303
-292
-296
-303
-291
-279
-285
-285
-265
-241
-224
-216
-216
-217
-214
-207
-208
-213
-201
-178
-181
-193
-170
-138
-164
-219
-239
-250
-261
-221
-187
-212
-183
-98
-71
-41
-27
-130
-16
629
1494
2003
1497
-60
-1151
-680
126
113
-80
22
50
7
77
112
74
101
155
161
175
226
260
287
340
392
433
484
523
575
683
772
790
827
914
956
895
751
558
351
163
17
-97
-222
-339
-353
-281
-248
-288
-330
-331
-309
-306
-330
-330
-295
-284
-312
-318
-303
-319
-350
-336
-291
-266
-284
-332
-346
-295
-246
-250
-274
-295
-297
-273
-270
-286
-254
-196
-190
-213
-212
-211
-224
-211
-170
-161
-199
-211
-165
-129
-133
-148
-164
-172
-146
-119
-142
-195
-231
-230
-199
-163
-151
-139
-108
-119
-131
-32
9
-102
72
746
1496
1864
1329
-136
-1090
-568
173
97
-101
19
74
43
96
123
86
84
114
150
202
251
281
309
342
375
409
451
506
579
642
665
692
775
847
837
782
706
571
389
208
43
-90
-180
-245
-283
-273
-246
-255
-283
-279
-250
-244
-274
-317
-325
-288
-267
-305
-336
-307
-278
-309
-336
-304
-287
-324
-329
-283
-271
-297
-297
-269
-242
-230
-244
-266
-268
-263
-269
-256
-209
-173
-185
-221
-233
-219
-202
-186
-167
-167
-186
-177
-151
-161
-192
-222
-272
-288
-217
-158
-166
-146
-109
-123
-90
-32
-115
-82
454
1289
1895
1663
308
-1016
-905
-63
131
-60
-9
66
35
36
45
62
111
116
114
174
227
231
248
299
345
385
442
509
560
600
644
698
767
810
797
777
745
623
435
242
38
-128
-182
-189
-250
-319
-307
-248
-236
-270
-282
-265
-257
-264
-290
-324
-324
-293
-283
-281
-267
-278
-305
-306
-310
-326
-298
-244
-233
-258
-277
-288
-287
-261
-222
-205
-222
-243
-240
-231
-240
-243
-217
-187
-173
-170
-193
-212
-183
-182
-252
-277
-224
-188
-190
-187
-159
-107
-69
-60
-88
-141
-16
502
1355
2135
1911
251
-1286
-1055
-52
158
-38
20
36
-38
28
90
68
82
107
99
117
158
206
255
268
274
336
407
438
475
539
607
655
660
648
671
693
635
501
330
158
28
-67
-160
-234
-269
-285
-284
-269
-266
-255
-248
-285
-314
-275
-244
-279
-311
-303
-288
-282
-297
-328
-317
-265
-258
-310
-328
-276
-240
-278
-303
-254
-242
-300
-296
-228
-217
-236
-223
-219
-226
-204
-206
-255
-259
-212
-218
-262
-232
-132
-61
-57
-92
-144
-158
-121
-139
-191
-121
-56
-107
97
791
1671
2124
1341
-405
-1229
-476
205
28
-123
5
-4
-66
-9
51
66
81
115
154
167
182
237
284
306
357
427
471
515
589
648
672
705
754
777
775
741
631
458
288
141
-2
-133
-221
-263
-269
-239
-214
-238
-262
-242
-233
-261
-265
-241
-255
-310
-337
-313
-276
-265
-285
-308
-292
-264
-281
-303
-275
-247
-267
-292
-277
-243
-226
-235
-264
-287
-281
-270
-260
-204
-124
-111
-175
-230
-209
-170
-222
-271
-171
-127
-250
-135
467
1354
2040
1565
-210
-1418
-875
-42
-91
-280
-177
-184
-258
-184
-132
-179
-183
-141
-126
-113
-89
-91
-86
-30
26
57
88
108
105
121
171
