# session 19
-47
-96
38
12
-451
-926
-982
-861
-853
-851
-799
-777
-760
-719
-694
-675
-638
-607
-591
-566
-531
-504
-487
-470
-450
-431
-414
-395
-376
-365
-350
-325
-308
-295
-275
-262
-256
-239
-227
-226
-213
-193
-185
-177
-160
-146
-130
-90
-38
-14
-24
-53
-83
-77
-53
-71
-54
11
-49
-46
419
1162
1805
2000
1054
-621
-1182
-391
104
-76
-115
-9
-35
-25
36
49
89
154
180
211
263
306
358
434
509
579
668
770
864
946
1020
1072
1080
1046
953
793
597
403
218
48
-100
-214
-281
-325
-362
-353
-316
-322
-332
-280
-229
-251
-307
-324
-291
-265
-284
-305
-306
-314
-321
-322
-342
-348
-304
-271
-289
-312
-301
-278
-274
-277
-264
-261
-274
-250
-189
-166
-184
-190
-182
-181
-180
-185
-194
-177
-140
-123
-123
-124
-145
-183
-226
-249
-170
-8
50
-45
-112
-92
-108
-125
-53
-64
-183
13
702
1633
2353
1896
52
-1271
-806
-33
-111
-265
-139
-173
-236
-113
-30
-46
-9
50
48
38
113
244
331
372
434
525
638
762
868
966
1066
1114
1080
960
740
473
241
37
-166
-335
-442
-498
-515
-519
-534
-536
-502
-458
-429
-439
-460
-423
-409
-535
-629
-514
-378
-375
-376
-355
-383
-371
-326
-369
-390
-309
-305
-372
-348
-315
-326
-256
-191
-245
-290
-342
-474
-436
-195
-113
-196
-230
-270
-197
214
986
2215
3125
2102
-173
-1014
-281
35
-258
-270
-176
-245
-231
-130
-84
-53
-25
-3
54
117
167
241
305
339
448
644
773
811
899
1025
1054
993
909
757
510
238
-3
-187
-281
-316
-363
-413
-424
-419
-421
-413
-405
-415
-410
-376
-358
-363
-356
-343
-345
-351
-363
-384
-379
-344
-328
-343
-346
-327
-329
-356
-360
-327
-292
-274
-289
-331
-351
-329
-308
-297
-263
-210
-169
-155
-163
-176
-174
-172
-182
-140
-90
-170
-178
222
1062
2222
2893
1736
-502
-1280
-442
10
-229
-250
-141
-183
-167
-94
-80
-45
21
59
105
168
199
219
293
411
518
613
688
735
830
986
1076
1051
963
817
628
450
270
77
-73
-161
-218
-246
-253
-275
-311
-307
-240
-167
-157
-183
-179
-172
-224
-283
-254
-202
-236
-272
-219
-187
-224
-221
-198
-251
-284
-206
-137
-161
-191
-182
-175
-169
-153
-154
-170
-168
-145
-131
-135
-139
-130
-132
-151
-140
-100
-94
-126
-132
-109
-100
-99
-89
-90
-100
-100
-94
-94
-96
-99
-82
-39
-24
-60
-98
-99
-68
-33
-33
-51
-48
-49
-72
-68
-39
-42
-61
-61
-59
-68
-93
-123
-102
-32
-2
-34
-62
-68
-74
-84
-96
-92
-54
-14
-2
6
20
0
-43
-55
-64
-93
-43
11
-99
-80
369
1026
1783
2252
1332
-513
-1115
-326
58
-194
-220
-121
-155
-121
-70
-105
-73
30
66
74
122
166
194
243
307
361
410
465
524
571
599
623
656
674
652
592
496
377
266
172
70
-30
-94
-132
-160
-161
-151
-167
-185
-193
-212
-216
-212
-251
-281
-236
-211
-266
-301
-277
-270
-292
-297
-289
-287
-287
-283
-285
-287
-277
-267
-267
-263
-258
-258
-252
-247
-259
-259
-221
-185
-184
-193
-192
-194
-199
-185
-159
-153
-170
-181
-169
-153
-153
-157
-162
-173
-163
-127
-105
-98
-73
-55
-79
-121
-131
-119
-137
-139
-78
-92
-150
92
724
1574
2241
1709
-168
-1418
-877
-54
-74
-231
-138
-124
-145
-81
-52
-40
15
56
80
126
175
221
278
336
392
459
534
610
680
735
772
791
781
727
617
471
324
194
70
-44
-129
-178
-205
-218
-210
-194
-187
-186
-180
-175
-173
-173
-179
-188
-193
-199
-206
-205
-203
-206
-207
-212
-227
-224
-207
-219
-243
-238
-221
-213
-212
-225
-241
-232
-215
-218
-220
-203
-193
-199
-198
-201
-216
-212
-208
-240
-247
-178
-114
-108
-94
-83
-140
-184
-133
-99
-149
-147
-113
-160
-39
547
1476
2285
2056
328
-1357
-1279
-312
-49
-230
-189
-135
-171
-128
-75
-71
-37
11
41
78
122
168
231
294
354
435
528
616
708
796
858
887
870
802
691
540
352
165
5
-130
-235
-301
-336
-350
-350
-347
-336
-314
-299
-299
-294
-280
-272
-270
-267
-272
-281
-286
-291
-294
-291
-288
-291
-295
-297
-296
-295
-299
-308
-321
-324
-289
-226
-186
-186
-205
-234
-244
-222
-231
-243
-188
-203
-263
22
777
1748
2368
1618
-345
-1433
-801
-109
-226
-341
-227
-245
-273
-190
-141
-129
-86
-45
-6
50
105
163
234
308
399
515
625
723
836
942
1002
1010
954
806
591
366
157
-31
-191
-309
-378
-419
-449
-451
-417
-387
-382
-377
-365
-359
-354
-344
-336
-338
-345
-347
-344
-346
-351
-349
-353
-368
-381
-385
-378
-341
-270
-212
-205
-243
-288
-286
-253
-266
-264
-195
-235
-308
-27
735
1938
2964
2287
13
-1260
-635
-50
-275
-369
-236
-267
-270
-175
-149
-134
-70
-23
10
62
120
188
268
351
439
535
634
734
826
899
952
966
913
779
586
389
219
58
-92
-194
-251
-285
-292
-272
-254
-247
-242
-235
-220
-204
-200
-206
-208
-204
-196
-193
-205
-213
-203
-189
-186
-188
-180
-168
-163
-164
-157
-146
-146
-146
-136
-134
-141
-133
-107
-92
-103
-117
-108
-85
-78
-87
-87
-72
-63
-65
-66
-61
-57
-51
-36
-25
-28
-40
-49
-45
-35
-31
-32
-33
-31
-23
-17
-20
-25
-26
-26
-29
-36
-38
-29
-22
-33
-45
-34
-20
-29
-41
-40
-40
-45
-45
-40
-33
-26
-29
-37
-38
-33
-41
-61
-64
-41
-31
-45
-48
-41
-45
-52
-53
-58
-58
-48
-48
-60
-68
-75
-97
-129
-147
-131
-84
-28
17
16
-45
-80
-50
-59
-74
-14
-54
-128
152
728
1480
2373
2282
550
-898
-602
13
-144
-302
-174
-184
-230
-165
-142
-145
-95
-51
-21
26
70
104
146
189
230
284
358
432
487
537
599
653
683
696
689
641
548
433
324
214
89
-33
-122
-178
-210
-232
-252
-257
-241
-232
-240
-245
-245
-261
-284
-297
-300
-298
-296
-293
-292
-305
-320
-316
-302
-302
-301
-287
-276
-274
-275
-275
-269
-262
-267
-268
-246
-221
-209
-197
-179
-174
-180
-177
-164
-156
-157
-161
-159
-144
-123
-117
-120
-116
-109
-110
-111
-102
-96
-106
-112
-92
-72
-83
-95
-76
-56
-64
-77
-82
-87
-86
-80
-66
-27
14
18
-6
-43
-67
-43
-26
-41
-8
-16
-97
128
808
1569
2009
1537
5
-1140
-779
-46
-32
-179
-89
-70
-96
-38
-14
-7
54
94
101
142
202
243
282
339
414
498
579
659
745
831
903
948
960
932
842
676
468
284
136
-21
-177
-266
-292
-319
-349
-347
-329
-325
-326
-316
-304
-292
-278
-277
-284
-283
-284
-298
-301
-294
-301
-310
-301
-294
-301
-307
-308
-309
-311
-310
-299
-281
-273
-281
-287
-274
-258
-262
-273
-267
-253
-251
-247
-239
-241
-241
-222
-216
-232
-228
-207
-210
-231
-228
-195
-155
-119
-93
-107
-156
-163
-132
-141
-127
-78
-149
-175
199
995
2105
2850
1907
-224
-1108
-399
15
-240
-271
-154
-197
-181
-103
-96
-70
-7
28
68
118
151
212
306
380
447
541
647
757
863
939
1002
1078
1098
1002
833
638
435
239
48
-125
-226
-259
-295
-333
-332
-312
-303
-289
-269
-261
-252
-231
-221
-233
-244
-244
-247
-251
-247
-254
-274
-270
-241
-227
-230
-226
-222
-224
-222
-221
-221
-206
-193
-200
-201
-179
-164
-168
-171
-165
-159
-151
-144
-148
-152
-133
-112
-116
-119
-108
-109
-126
-125
-100
-80
-79
-87
-88
-79
-78
-93
-92
-65
-62
-88
-88
-67
-64
-77
-80
-73
-68
-81
-91
-70
-52
-65
-75
-66
-63
-70
-77
-86
-83
-66
-61
-70
-77
-89
-102
-104
-117
-163
-193
-168
-149
-154
-115
-68
-63
-23
-20
-99
73
651
1456
2301
2332
818
-797
-784
-47
8
-192
-130
-109
-153
-95
-51
-50
-16
13
31
83
136
169
215
276
329
390
467
545
625
715
795
851
892
913
882
782
632
461
291
138
5
-106
-192
-253
-282
-279
-274
-276
-267
-255
-261
-264
-248
-233
-229
-228
-239
-249
-250
-257
-268
-256
-243
-253
-253
-237
-233
-232
-230
-246
-254
-228
-204
-207
-209
-197
-193
-192
-182
-174
-172
-164
-155
-156
-149
-130
-123
-129
-130
-122
-110
-106
-109
-104
-95
-102
-101
-71
-54
-71
-75
-62
-72
-90
-75
-49
-44
-44
-37
-38
-43
-42
-44
-49
-42
-35
-38
-39
-28
-20
-23
-31
-35
-26
-20
-34
-44
-36
-32
-37
-35
-34
-42
-45
-46
-58
-60
-50
-55
-69
-63
-48
-50
-68
-83
-80
-73
-81
-86
-75
-69
-56
-12
13
-29
-74
-58
-57
-92
-54
-26
-117
-20
503
1290
2150
2336
984
-739
-912
-141
-8
-254
-206
-146
-204
-168
-107
-100
-65
-12
16
53
106
151
196
249
300
356
436
534
619
692
768
834
875
895
878
792
653
494
326
161
25
-90
-192
-257
-287
-306
-303
-275
-254
-248
-242
-238
-239
-238
-239
-252
-263
-264
-261
-262
-269
-270
-264
-266
-277
-277
-267
-266
-268
-257
-245
-243
-241
-235
-229
-223
-211
-195
-186
-181
-173
-163
-155
-156
-160
-150
-128
-120
-130
-129
-110
-93
-92
-97
-88
-73
-75
-83
-71
-60
-62
-57
-53
-62
-60
-38
-30
-40
-40
-30
-26
-27
-28
-27
-29
-38
-38
-26
-22
-27
-27
-24
-27
-28
-22
-22
-33
-45
-47
-42
-38
-36
-36
-43
-43
-37
-47
-62
-50
-39
-56
-70
-67
-68
-66
-50
-37
-18
14
19
-28
-61
-43
-44
-61
-20
-35
-121
69
653
1474
2319
2241
614
-926
-769
-47
-77
-274
-171
-149
-202
-145
-99
-94
-56
-12
19
40
64
139
223
250
287
384
469
530
614
703
777
847
897
909
878
781
620
440
268
98
-58
-182
-271
-329
-358
-362
-357
-364
-369
-329
-270
-277
-322
-310
-288
-324
-323
-253
-235
-277
-294
-309
-344
-327
-270
-263
-295
-301
-287
-290
-315
-321
-272
-208
-206
-259
-291
-256
-194
-193
-257
-280
-215
-154
-152
-165
-163
-150
-142
-147
-145
-136
-141
-124
-84
-103
-144
-89
-6
-18
-63
-57
-39
-33
-34
-38
-19
5
-9
-28
-7
10
5
7
3
-8
7
2
-44
-31
63
127
125
99
55
13
14
21
-5
-12
-27
-61
130
722
1601
2391
2143
415
-1168
-1034
-224
-123
-307
-268
-270
-298
-213
-158
-149
-104
-76
-67
-18
49
105
169
240
312
391
486
594
703
810
919
1008
1051
1056
1022
904
703
492
295
95
-92
-232
-320
-373
-404
-422
-431
-423
-396
-370
-359
-356
-352
-349
-347
-341
-341
-345
-343
-338
-345
-357
-357
-349
-345
-343
-341
-341
-341
-336
-335
-335
-328
-322
-323
-322
-316
-309
-300
-289
-283
-279
-268
-264
-274
-282
-289
-297
-273
-199
-126
-104
-136
-186
-188
-160
-177
-167
-102
-154
-198
164
1012
2173
2885
1841
-389
-1294
-488
48
-173
-226
-113
-157
-151
-72
-65
-56
-4
29
60
112
161
210
269
332
409
512
625
732
842
958
1063
1136
1159
1104
951
727
485
253
35
-153
-289
-375
-419
-435
-440
-439
-431
-421
-410
-398
-389
-376
-359
-350
-351
-350
-347
-348
-351
-352
-352
-348
-339
-332
-328
-325
-321
-317
-315
-321
-323
-300
-245
-182
-154
-176
-228
-261
-243
-226
-242
-208
-177
-262
-208
301
1272
2429
2667
982
-1127
-1365
-406
-142
-382
-334
-256
-302
-257
-194
-188
-148
-95
-69
-26
35
88
144
216
297
383
483
602
728
846
949
1033
1080
1057
933
722
482
250
29
-168
-314
-405
-453
-471
-475
-470
-456
-442
-432
-419
-402
-390
-385
-379
-372
-366
-362
-360
-358
-355
-355
-354
-349
-346
-346
-348
-356
-365
-364
-336
-275
-206
-178
-201
-247
-270
-250
-244
-265
-223
-185
-263
-208
271
1243
2541
2964
1301
-918
-1229
-304
-84
-345
-289
-212
-264
-214
-144
-137
-93
-33
-1
46
109
160
218
293
372
457
554
655
760
866
959
1029
1064
1041
936
758
554
353
158
-16
-148
-236
-286
-300
-293
-285
-277
-265
-251
-240
-229
-221
-216
-213
-211
-215
-219
-219
-219
-219
-218
-217
-217
-214
-211
-208
-201
-190
-182
-180
-176
-170
-164
-157
-147
-140
-138
-134
-124
-115
-112
-108
-100
-92
-87
-81
-76
-72
-65
-57
-48
-41
-40
-42
-42
-41
-40
-37
-36
-34
-27
-21
-26
-27
-20
-20
-25
-22
-17
-15
-13
-16
-21
-15
-6
-14
-28
-26
-18
-18
-20
-17
-18
-23
-26
-28
-31
-32
-36
-43
-42
-35
-35
-41
-42
-37
-36
-42
-46
-44
-48
-56
-55
-50
-52
-60
-66
-72
-71
-51
-14
23
42
24
-33
-72
-50
-49
-87
-53
-37
-125
36
632
1366
1997
1915
498
-1045
-1039
-221
-58
-251
-193
-136
-173
-135
-95
-94
-60
-19
6
46
91
124
160
203
253
311
372
436
507
584
657
724
783
820
829
807
733
598
440
301
177
50
-70
-162
-219
-247
-260
-264
-262
-260
-260
-255
-250
-255
-268
-278
-287
-297
-306
-315
-327
-339
-344
-346
-350
-355
-357
-359
-359
-356
-351
-347
-345
-346
-341
-330
-320
-316
-312
-308
-304
-297
-286
-278
-274
-267
-256
-249
-244
-239
-240
-242
-238
-244
-261
-267
-255
-217
-155
-114
-124
-149
-170
-173
-157
-169
-169
-109
-142
-227
7
685
1742
2740
2359
372
-1018
-621
-32
-204
-337
-214
-220
-237
-156
-126
-114
-60
-20
10
65
118
166
228
296
373
466
568
678
798
918
1025
1111
1167
1162
1067
881
651
421
199
-10
-176
-286
-353
-389
-400
-396
-385
-372
-355
-335
-318
-307
-295
-282
-276
-273
-267
-259
-251
-239
-228
-226
-221
-210
-202
-195
-187
-181
-175
-160
-144
-136
-130
-116
-102
-96
-90
-77
-67
-62
-56
-46
-38
-35
-34
-33
-27
-19
-13
-8
-2
4
9
14
