# session 38
-15
20
-53
8
346
652
687
629
608
518
355
214
90
-33
-122
-174
-206
-220
-225
-227
-221
-212
-211
-211
-204
-193
-186
-189
-194
-193
-189
-189
-186
-180
-179
-174
-159
-150
-153
-153
-148
-145
-143
-141
-140
-132
-120
-117
-120
-117
-110
-112
-118
-112
-100
-98
-101
-95
-92
-94
-89
-84
-88
-86
-79
-84
-92
-95
-109
-138
-151
-128
-101
-98
-90
-54
-49
-66
-25
-15
-71
45
434
1161
2274
2696
1302
-449
-522
235
257
-16
40
78
11
41
67
41
52
74
75
89
116
137
152
162
172
189
203
211
221
229
230
236
245
241
234
234
230
204
168
141
113
51
-26
-66
-98
-171
-235
-239
-233
-253
-265
-255
-240
-235
-250
-276
-278
-264
-268
-284
-280
-266
-272
-281
-270
-270
-299
-304
-257
-224
-243
-267
-261
-229
-203
-223
-245
-203
-163
-181
-176
-142
-152
-167
-140
-125
-133
-134
-127
-121
-134
-156
-138
-116
-147
-160
-108
-67
-72
-96
-128
-155
-161
-151
-116
-66
-40
-56
-63
-20
-8
-48
24
301
950
2108
2758
1599
-236
-577
145
295
23
28
70
-12
-17
23
46
94
117
98
103
123
131
137
136
141
166
178
175
182
174
159
177
191
157
124
124
112
75
42
16
-14
-47
-73
-95
-116
-134
-145
-159
-171
-173
-172
-178
-186
-189
-192
-196
-198
-201
-206
-205
-198
-201
-212
-209
-189
-175
-172
-181
-195
-185
-155
-143
-152
-157
-153
-150
-147
-145
-144
-138
-130
-127
-125
-125
-124
-115
-105
-104
-106
-106
-101
-95
-92
-90
-89
-94
-101
-99
-93
-101
-120
-136
-141
-142
-137
-113
-95
-103
-92
-70
-88
-63
178
856
2004
2640
1511
-456
-1000
-169
262
46
-11
63
20
10
53
53
61
87
93
104
130
148
160
176
190
208
231
249
263
281
296
307
320
334
343
344
339
327
301
251
173
80
-7
-85
-156
-213
-248
-266
-276
-278
-276
-274
-276
-280
-281
-276
-274
-281
-287
-287
-286
-284
-279
-277
-280
-280
-272
-262
-253
-244
-238
-242
-247
-244
-238
-232
-222
-213
-205
-203
-205
-200
-188
-181
-181
-173
-161
-161
-169
-175
-178
-172
-158
-148
-144
-146
-160
-175
-189
-212
-235
-234
-191
-117
-77
-89
-67
-45
-94
-22
394
1206
2262
2567
1163
-640
-792
93
322
89
114
149
60
82
141
137
160
189
176
190
233
240
229
250
289
316
343
371
389
421
485
532
540
565
612
637
650
645
576
441
265
80
-67
-176
-291
-397
-443
-436
-424
-445
-467
-435
-385
-383
-388
-372
-387
-419
-405
-381
-381
-368
-363
-390
-382
-331
-328
-370
-378
-360
-359
-344
-305
-300
-322
-315
-296
-288
-260
-244
-269
-256
-197
-212
-293
-289
-210
-215
-296
-293
-205
-151
-131
-98
-98
-156
-187
-172
-185
-188
-120
-124
-181
20
550
1402
2429
2420
719
-721
-368
318
165
-15
87
22
-38
64
83
48
87
122
138
178
207
219
248
278
295
313
352
407
441
461
514
585
643
705
765
786
783
756
632
403
176
9
-143
-295
-398
-446
-494
-538
-521
-469
-456
-462
-456
-454
-444
-423
-426
-440
-431
-433
-445
-426
-406
-403
-396
-399
-397
-345
-318
-378
-408
-356
-329
-345
-341
-337
-346
-325
-265
-206
-182
-196
-226
-253
-250
-223
-228
-213
-133
-151
-237
-76
512
1682
2924
2548
410
-875
-258
313
38
-86
38
-24
-73
-3
15
19
62
76
71
103
161
188
178
199
261
288
264
266
322
373
371
355
406
479
457
393
388
351
215
100
40
-60
-193
-278
-303
-314
-343
-364
-338
-293
-296
-321
-291
-245
-281
-341
-318
-261
-265
-296
-282
-259
-275
-276
-245
-258
-289
-254
-225
-255
-229
-173
-234
-303
-220
-130
-136
-109
-63
-124
-205
-186
-135
-150
-193
-182
-149
-149
-93
145
806
2060
2866
1735
-354
-932
-108
236
-36
-66
23
-59
-101
-42
-7
4
7
7
33
65
85
99
89
94
161
197
155
151
204
220
213
221
212
192
187
186
162
111
40
-42
-129
-196
-208
-177
-177
-242
-282
-258
-239
-219
-170
-190
-269
-259
-187
-182
-216
-214
-199
-202
-212
-220
-241
-264
-235
-172
-167
-204
-191
-162
-170
-170
-147
-137
-118
-68
-44
-77
-126
-145
-141
-143
-131
-113
-159
-190
-40
353
1178
2264
2297
654
-845
-695
-29
-3
-94
23
10
-50
17
51
2
-17
13
52
77
103
136
105
40
62
133
143
156
209
183
99
123
196
152
76
84
82
22
-11
-14
-44
-95
-134
-141
-124
-143
-189
-189
-171
-206
-218
-159
-132
-167
-192
-204
-207
-174
-157
-186
-201
-190
-190
-185
-161
-150
-161
-174
-172
-151
-126
-118
-123
-111
-78
-60
-73
-100
-131
-146
-135
-128
-122
-109
-126
-123
24
475
1432
2373
1918
95
-991
-471
152
67
-45
18
-26
-57
-11
-35
-56
4
52
67
75
65
89
152
139
73
91
161
183
205
243
227
191
197
197
180
179
153
90
42
4
-41
-92
-166
-219
-208
-214
-261
-258
-224
-233
-253
-245
-243
-257
-252
-234
-243
-265
-270
-279
-279
-241
-223
-253
-239
-192
-215
-259
-248
-244
-224
-125
-62
-106
-141
-148
-199
-237
-215
-190
-177
-153
-153
-190
-165
90
763
1810
2348
1289
-582
-1197
-407
173
98
16
20
-25
-1
71
99
100
81
72
116
179
197
170
178
261
310
281
298
358
358
358
407
423
420
454
456
413
386
323
210
113
-12
-178
-256
-253
-296
-351
-326
-290
-314
-332
-301
-302
-355
-349
-293
-320
-373
-310
-250
-329
-382
-303
-278
-341
-323
-273
-297
-293
-249
-279
-306
-243
-198
-187
-140
-139
-228
-268
-220
-205
-248
-239
-175
-199
-235
-15
526
1440
2358
1935
17
-1126
-468
238
107
-23
34
-19
-16
48
21
9
57
88
130
172
160
163
212
244
261
292
318
350
391
406
406
427
474
536
556
515
493
480
358
153
-18
-152
-261
-308
-337
-385
-401
-394
-402
-399
-383
-369
-330
-305
-348
-382
-361
-365
-386
-350
-310
-336
-352
-318
-309
-331
-321
-293
-273
-275
-313
-321
-272
-265
-306
-301
-262
-214
-149
-129
-162
-175
-194
-217
-181
-173
-204
-154
-151
-218
-20
534
1461
2600
2595
780
-713
-332
350
141
-94
12
4
-41
32
48
22
61
99
112
137
161
195
242
256
259
293
319
341
396
438
446
478
531
548
549
565
570
520
400
252
110
-43
-194
-287
-322
-335
-336
-346
-369
-359
-340
-345
-326
-305
-341
-355
-326
-339
-341
-285
-281
-326
-329
-314
-292
-246
-251
-302
-293
-250
-242
-236
-226
-237
-231
-203
-204
-206
-184
-179
-197
-200
-178
-150
-148
-179
-193
-156
-104
-100
-157
-199
-164
-101
-86
-114
-129
-107
-100
-133
-153
-141
-153
-194
-215
-186
-132
-107
-105
-81
-74
-94
-43
-17
-109
-20
402
1063
2059
2668
1598
-203
-521
244
362
40
57
123
53
74
120
107
122
146
149
175
197
186
200
246
275
296
309
299
312
353
359
354
399
442
444
440
437
415
375
313
229
137
45
-52
-147
-218
-260
-296
-316
-307
-306
-329
-332
-321
-328
-326
-308
-324
-349
-333
-319
-337
-331
-300
-293
-308
-321
-308
-273
-267
-287
-281
-270
-276
-255
-223
-235
-252
-228
-203
-199
-202
-220
-230
-197
-165
-168
-171
-167
-176
-184
-173
-151
-129
-123
-139
-152
-135
-117
-128
-133
-107
-101
-134
-163
-151
-122
-151
-224
-218
-133
-100
-107
-72
-65
-103
-59
1
-71
-62
245
830
1819
2673
1981
108
-641
42
404
150
88
127
44
59
130
126
142
184
166
126
155
250
286
225
205
271
313
321
357
377
352
353
389
398
372
366
402
423
365
273
199
99
-24
-104
-154
-198
-221
-251
-297
-311
-298
-286
-280
-302
-333
-319
-287
-286
-280
-267
-296
-324
-297
-278
-295
-280
-252
-276
-293
-240
-202
-254
-295
-226
-165
-206
-231
-198
-200
-198
-163
-191
-234
-193
-157
-161
-141
-140
-175
-171
-142
-139
-155
-160
-125
-84
-101
-137
-126
-114
-127
-118
-110
-129
-106
-47
-72
-156
-167
-119
-108
-154
-217
-215
-131
-86
-94
-63
-44
-65
-23
-27
-128
4
485
1256
2284
2532
1020
-650
-529
327
335
58
133
154
61
108
155
105
109
177
200
184
200
234
224
225
287
309
284
315
335
296
337
412
374
338
390
391
335
329
303
188
82
29
-25
-89
-152
-221
-272
-289
-285
-271
-271
-281
-265
-257
-283
-282
-273
-317
-333
-275
-260
-292
-276
-257
-284
-284
-265
-273
-265
-251
-267
-249
-199
-214
-250
-218
-179
-194
-216
-212
-193
-186
-203
-195
-148
-138
-175
-174
-132
-129
-163
-161
-140
-152
-139
-81
-86
-152
-159
-112
-91
-97
-107
-115
-108
-93
-99
-119
-130
-129
-138
-167
-181
-150
-121
-109
-69
-39
-54
-56
-68
-77
94
569
1488
2528
2314
485
-815
-323
376
248
94
174
109
53
121
146
159
179
139
139
209
228
223
254
255
240
281
333
338
315
306
347
396
386
362
372
375
355
318
257
187
117
32
-69
-165
-220
-234
-260
-306
-314
-295
-281
-255
-247
-305
-345
-300
-266
-306
-323
-276
-257
-297
-310
-275
-271
-301
-291
-252
-260
-286
-256
-216
-242
-284
-251
-185
-168
-189
-208
-209
-185
-180
-215
-211
-159
-150
-165
-148
-147
-165
-164
-167
-154
-105
-111
-159
-135
-96
-124
-132
-101
-116
-142
-132
-128
-142
-166
-195
-174
-121
-137
-168
-119
-71
-66
-49
-76
-98
119
683
1644
2560
2126
261
-872
-283
385
220
61
183
174
86
105
145
153
157
166
189
217
228
230
249
285
300
288
293
328
364
386
384
359
362
395
396
372
378
367
278
167
90
17
-75
-175
-253
-277
-270
-272
-272
-272
-287
-288
-280
-291
-288
-265
-270
-289
-299
-316
-313
-283
-280
-288
-269
-255
-262
-260
-249
-242
-250
-259
-232
-204
-221
-229
-196
-189
-203
-193
-192
-199
-177
-158
-173
-178
-167
-170
-174
-161
-152
-146
-142
-170
-194
-153
-111
-134
-140
-98
-99
-142
-137
-121
-170
-213
-166
-107
-98
-76
-40
-32
-16
-19
-57
27
424
1338
2500
2552
833
-771
-582
224
258
40
96
114
62
97
113
104
139
138
110
151
192
167
168
217
223
196
216
259
252
227
249
272
251
234
223
185
162
152
98
44
17
-62
-146
-143
-147
-208
-221
-209
-251
-262
-203
-191
-224
-229
-237
-268
-261
-219
-208
-232
-232
-216
-242
-262
-211
-179
-219
-240
-217
-206
-203
-187
-178
-193
-201
-180
-169
-181
-172
-158
-171
-158
-125
-126
-126
-115
-143
-164
-130
-105
-99
-65
-32
-22
-12
-22
-71
-112
-117
-103
-83
-74
-82
-59
84
620
1747
2597
1769
-173
-1008
-340
231
113
-26
29
49
7
-8
50
110
90
73
91
66
51
113
165
168
180
210
223
202
177
190
211
203
202
201
174
158
140
79
9
-45
-97
-122
-136
-192
-248
-246
-224
-225
-245
-260
-252
-230
-219
-223
-242
-258
-246
-223
-219
-225
-231
-240
-257
-258
-226
-203
-218
-214
-197
-222
-235
-207
-216
-223
-156
-103
-108
-93
-83
-133
-179
-182
-174
-173
-178
-179
-165
-137
-58
233
1041
2188
2362
737
-1025
-1008
-60
198
-7
10
58
8
21
52
43
58
105
150
151
119
144
204
213
209
229
253
290
300
275
321
396
353
280
309
346
311
265
215
115
-25
-142
-191
-218
-279
-308
-279
-294
-354
-334
-267
-271
-306
-291
-266
-269
-267
-253
-256
-278
-292
-274
-248
-266
-299
-273
-215
-211
-237
-212
-184
-228
-260
-209
-161
-140
-98
-80
-116
-130
-138
-194
-211
-164
-152
-155
-133
-149
-113
173
896
2027
2500
1145
-768
-996
-50
248
1
0
46
-23
8
67
48
57
95
91
92
131
162
177
204
240
268
270
259
274
310
328
350
399
415
362
318
340
342
263
179
109
-14
-152
-238
-298
-310
-271
-285
-335
-317
-292
-321
-313
-273
-277
-293
-288
-287
-291
-298
-319
-312
-266
-250
-268
-250
-227
-276
-315
-243
-186
-249
-284
-217
-188
-222
-204
-168
-191
-214
-192
-161
-129
-93
-74
-89
-131
-163
-153
-141
-159
-147
-95
-115
-180
-70
375
1301
2435
2449
680
-988
-806
80
193
-1
54
63
-10
29
92
102
103
104
123
158
169
180
225
260
259
267
298
317
324
349
393
427
429
422
432
436
416
397
347
235
125
28
-110
-225
-243
-263
-329
-333
-293
-302
-303
-264
-268
-296
-289
-287
-299
-295
-287
-277
-277
-306
-310
-271
-262
-278
-269
-260
-261
-241
-229
-244
-244
-235
-243
-237
-212
-207
-211
-201
-183
-160
-157
-185
-189
-158
-141
-134
-136
-156
-145
-108
-117
-150
-130
-95
-115
-141
-117
-102
-144
-173
-136
-69
-22
-20
-40
-49
-75
-108
-89
-76
-82
-20
-33
-155
-13
477
1213
2230
2535
1090
-547
-443
342
293
7
78
99
24
82
141
110
95
124
173
207
206
226
272
284
295
330
341
360
418
440
434
470
503
508
537
581
594
569
500
396
280
151
10
-119
-206
-250
-290
-335
-351
-343
-326
-297
-296
-348
-369
-333
-320
-332
-314
-296
-312
-332
-352
-365
-328
-282
-289
-312
-317
-313
-285
-256
-279
-293
-253
-252
-292
-266
-218
-232
-251
-232
-221
-226
-233
-229
-198
-182
-203
-197
-163
-174
-206
-187
-150
-154
-180
-185
-171
-155
-132
-114
-137
-179
-181
-179
-216
-230
-200
-192
-196
-163
-127
-110
-93
-85
-68
-62
-110
-58
273
956
1984
2542
1491
-250
-596
164
354
52
56
130
30
17
75
47
46
126
142
89
101
148
148
155
188
186
