# session 23
5
13
-8
107
374
565
585
573
646
752
793
791
809
815
782
713
581
412
281
161
17
-81
-115
-140
-169
-196
-197
-152
-109
-118
-149
-171
-189
-204
-210
-199
-181
-184
-210
-229
-223
-206
-197
-195
-195
-195
-192
-206
-232
-215
-162
-149
-165
-161
-161
-168
-156
-156
-167
-150
-145
-176
-155
-90
-88
-127
-130
-111
-97
-105
-155
-206
-183
-84
25
72
43
-38
-127
-138
-50
-14
-75
-69
-37
-107
-30
423
1180
1989
1963
471
-1040
-913
-47
114
-78
-43
-3
-32
-23
-29
-8
77
125
125
135
158
194
229
237
267
336
365
366
440
542
557
538
584
633
610
575
552
457
304
192
99
-32
-134
-177
-228
-268
-232
-209
-280
-317
-221
-150
-230
-317
-274
-199
-214
-285
-315
-273
-222
-251
-321
-319
-250
-192
-173
-210
-275
-272
-210
-210
-258
-240
-184
-190
-241
-258
-217
-165
-161
-199
-218
-190
-163
-180
-197
-155
-131
-194
-224
-148
-89
-104
-125
-145
-153
-121
-111
-137
-133
-118
-137
-168
-208
-243
-227
-180
-110
-25
-24
-67
-10
2
-92
137
837
1563
1865
1235
-308
-1268
-684
132
112
-54
49
59
32
112
130
111
156
170
152
175
198
221
272
300
325
403
457
453
488
560
602
634
660
662
696
731
648
497
377
225
33
-84
-129
-180
-220
-238
-264
-266
-237
-236
-252
-240
-229
-251
-273
-267
-248
-236
-233
-242
-266
-280
-266
-280
-328
-314
-247
-246
-277
-236
-195
-235
-259
-231
-247
-287
-246
-192
-214
-228
-188
-177
-203
-207
-185
-157
-166
-217
-213
-130
-90
-122
-156
-169
-163
-143
-138
-140
-138
-153
-189
-238
-261
-206
-154
-169
-138
-67
-95
-108
-34
-80
-98
303
995
1680
1957
1059
-563
-1050
-225
248
25
-55
29
5
22
70
52
75
139
152
162
196
212
237
282
302
338
442
519
510
521
591
652
706
752
734
698
711
680
523
319
146
-14
-158
-241
-272
-296
-308
-299
-294
-294
-287
-282
-273
-261
-280
-302
-271
-247
-289
-325
-311
-290
-274
-266
-285
-305
-281
-246
-259
-284
-263
-238
-243
-218
-190
-247
-301
-247
-188
-196
-207
-205
-193
-159
-162
-190
-156
-117
-159
-179
-129
-115
-129
-92
-86
-146
-158
-111
-97
-111
-110
-99
-95
-117
-156
-168
-168
-177
-150
-114
-114
-80
-20
-33
-52
-34
-42
97
578
1317
1969
1699
188
-1024
-649
149
145
-63
27
46
-20
38
91
65
66
104
134
154
165
190
246
297
311
330
387
443
474
524
598
631
621
627
650
658
629
530
388
273
157
9
-104
-157
-217
-292
-310
-258
-207
-210
-237
-244
-245
-259
-275
-272
-246
-228
-254
-291
-291
-284
-301
-302
-270
-249
-252
-257
-255
-261
-274
-273
-243
-210
-205
-221
-229
-223
-217
-219
-214
-188
-160
-153
-154
-144
-132
-139
-156
-147
-124
-135
-146
-109
-70
-81
-131
-173
-146
-76
-65
-90
-78
-84
-152
-185
-147
-136
-184
-200
-169
-161
-132
-35
-18
-104
-85
-45
-116
76
749
1570
2089
1584
-84
-1242
-698
169
129
-98
11
78
49
61
56
75
122
103
100
185
238
236
258
260
262
358
452
447
466
557
619
656
691
693
700
721
681
578
443
256
70
-51
-154
-253
-289
-268
-267
-319
-345
-286
-233
-270
-314
-305
-294
-295
-279
-260
-266
-293
-312
-302
-311
-352
-344
-287
-267
-270
-256
-252
-258
-266
-290
-293
-249
-216
-217
-223
-237
-254
-232
-173
-151
-188
-216
-201
-191
-191
-170
-147
-149
-168
-193
-195
-174
-197
-270
-279
-207
-164
-170
-151
-136
-153
-102
-19
-75
-77
394
1296
2095
1974
537
-1002
-1042
-144
178
-8
-30
1
-24
37
82
57
82
135
138
124
151
226
281
267
271
343
409
455
530
600
648
705
750
761
789
842
817
657
451
259
50
-130
-194
-217
-282
-332
-331
-336
-357
-347
-307
-273
-267
-301
-335
-303
-257
-286
-324
-309
-321
-371
-356
-296
-282
-297
-298
-299
-305
-314
-316
-283
-247
-260
-277
-266
-268
-268
-238
-222
-235
-241
-261
-296
-286
-233
-179
-130
-99
-112
-148
-168
-155
-148
-158
-127
-121
-186
-24
621
1568
2234
1686
-94
-1281
-771
45
37
-138
-59
-48
-90
-53
-30
-16
28
54
67
103
144
173
198
247
322
373
407
459
507
554
644
745
796
811
805
767
683
512
286
125
22
-134
-287
-331
-336
-373
-367
-317
-303
-303
-290
-317
-344
-311
-287
-310
-305
-294
-339
-354
-310
-304
-329
-315
-304
-331
-343
-329
-312
-298
-310
-318
-259
-192
-206
-248
-252
-238
-223
-236
-265
-229
-212
-261
-57
589
1480
2128
1582
-229
-1387
-792
26
-21
-173
-77
-104
-147
-60
-23
-37
-6
30
55
91
126
168
221
255
277
337
414
453
501
606
692
721
759
795
771
698
574
383
190
46
-98
-259
-364
-374
-336
-315
-337
-366
-348
-304
-303
-322
-302
-275
-291
-317
-312
-300
-306
-316
-318
-314
-296
-279
-295
-322
-318
-310
-323
-304
-202
-113
-162
-265
-275
-245
-253
-267
-245
-164
-136
-254
-196
360
1210
1924
1795
324
-1212
-1119
-160
72
-147
-108
-55
-109
-73
-26
-39
-21
35
81
95
98
151
229
256
269
331
404
459
510
563
632
700
729
748
774
736
610
446
279
123
-13
-148
-263
-302
-283
-290
-317
-293
-251
-266
-293
-267
-252
-295
-318
-296
-294
-296
-272
-275
-311
-332
-329
-298
-256
-255
-289
-300
-292
-304
-337
-334
-253
-164
-159
-197
-207
-214
-228
-219
-224
-237
-180
-161
-246
-96
534
1416
2036
1555
-149
-1366
-881
5
50
-147
-92
-84
-115
-61
-41
-39
25
63
59
106
182
195
181
230
315
361
399
474
534
553
602
684
718
725
744
702
568
403
244
101
-27
-145
-217
-240
-260
-260
-231
-231
-258
-279
-294
-278
-252
-264
-269
-261
-313
-346
-285
-267
-316
-283
-237
-293
-323
-263
-233
-269
-296
-268
-218
-216
-252
-257
-251
-253
-214
-174
-212
-260
-249
-225
-185
-107
-72
-94
-119
-162
-183
-133
-113
-120
-74
-123
-198
119
881
1757
2101
1049
-781
-1309
-367
188
-47
-142
-40
-36
-11
-1
-56
11
153
143
58
96
183
198
233
314
326
331
426
484
479
548
616
594
612
681
669
611
557
434
260
120
20
-46
-97
-163
-198
-175
-179
-224
-240
-238
-264
-283
-261
-241
-258
-274
-261
-263
-303
-327
-301
-260
-246
-264
-285
-284
-272
-262
-258
-267
-268
-248
-241
-245
-222
-201
-209
-208
-198
-215
-228
-202
-182
-203
-221
-205
-196
-220
-212
-125
-41
-44
-88
-132
-176
-175
-126
-76
-65
-141
-162
186
964
1902
2239
1094
-747
-1237
-340
171
-55
-150
-46
-47
-58
-28
-21
12
64
68
67
113
166
202
233
244
259
321
379
396
437
502
531
553
598
604
555
507
466
375
227
95
15
-65
-162
-207
-204
-233
-261
-222
-209
-261
-258
-218
-251
-286
-259
-256
-291
-296
-295
-312
-297
-259
-261
-286
-271
-243
-265
-307
-303
-256
-226
-227
-213
-201
-250
-291
-256
-242
-284
-257
-155
-104
-112
-106
-115
-178
-194
-125
-102
-116
-94
-142
-165
182
980
1984
2358
1107
-837
-1265
-314
134
-94
-130
-67
-120
-82
-16
-28
-7
25
22
66
129
142
158
191
216
267
334
373
406
458
500
521
539
550
546
538
513
418
255
118
37
-62
-180
-237
-232
-226
-242
-255
-243
-238
-268
-280
-254
-257
-291
-285
-259
-275
-296
-284
-278
-280
-268
-268
-275
-256
-253
-285
-280
-229
-205
-219
-234
-229
-237
-291
-320
-237
-128
-106
-121
-119
-146
-175
-150
-133
-152
-143
-161
-199
-1
567
1426
2191
1801
-15
-1336
-824
67
45
-181
-85
-39
-91
-75
-42
-7
46
69
75
100
140
182
201
212
269
344
367
379
433
478
493
532
583
576
528
490
444
349
204
60
-47
-134
-207
-227
-221
-242
-260
-245
-240
-260
-269
-259
-252
-261
-276
-276
-276
-299
-304
-260
-227
-245
-264
-259
-266
-271
-250
-240
-253
-252
-245
-267
-295
-280
-220
-157
-134
-149
-160
-170
-195
-204
-201
-194
-137
-114
-196
-106
430
1347
2213
1991
235
-1317
-1027
-54
74
-150
-89
-47
-93
-65
-60
-56
34
71
24
56
143
162
156
199
260
305
343
378
409
438
463
476
488
508
511
484
427
313
159
41
-31
-127
-227
-249
-217
-212
-233
-245
-247
-240
-231
-244
-269
-271
-250
-240
-250
-257
-257
-265
-271
-259
-241
-231
-227
-236
-262
-275
-254
-228
-233
-250
-230
-164
-108
-118
-177
-211
-188
-168
-189
-168
-126
-214
-266
58
745
1650
2304
1575
-389
-1391
-649
73
-61
-185
-63
-63
-105
-79
-56
-11
23
-5
15
102
127
118
172
227
239
275
321
324
344
415
459
450
445
458
452
405
312
191
76
-29
-130
-194
-202
-206
-241
-257
-235
-235
-255
-249
-249
-275
-270
-240
-244
-272
-284
-263
-232
-244
-282
-278
-244
-234
-245
-253
-266
-271
-247
-205
-163
-132
-136
-183
-218
-187
-156
-193
-197
-144
-174
-153
224
990
1944
2285
1010
-940
-1339
-324
161
-98
-150
-35
-79
-92
-31
-41
-45
42
110
93
87
139
184
204
240
285
320
345
367
401
443
459
463
485
493
451
346
207
116
72
-12
-125
-175
-178
-209
-270
-273
-203
-176
-222
-230
-205
-233
-259
-233
-226
-247
-248
-245
-243
-231
-241
-248
-220
-212
-238
-227
-196
-215
-238
-211
-204
-251
-260
-209
-191
-199
-149
-89
-105
-159
-171
-143
-133
-163
-161
-118
-158
-186
86
713
1619
2280
1518
-445
-1375
-589
110
-39
-166
-67
-71
-82
-47
-47
-13
44
34
23
78
150
184
172
171
219
253
267
324
381
376
375
406
407
381
373
365
311
198
72
2
-11
-29
-90
-180
-242
-221
-174
-185
-207
-202
-221
-245
-227
-215
-234
-234
-219
-237
-268
-264
-225
-203
-219
-239
-239
-235
-237
-225
-199
-203
-232
-227
-201
-211
-223
-194
-157
-131
-92
-67
-113
-180
-154
-99
-123
-117
-61
-107
-105
265
1120
2245
2521
961
-967
-1099
-142
122
-92
-69
-61
-147
-102
-48
-66
-25
43
48
50
84
121
160
180
181
233
313
323
318
364
361
307
345
426
406
330
270
186
76
-15
-94
-161
-192
-198
-207
-216
-225
-242
-250
-234
-222
-241
-258
-243
-236
-262
-272
-238
-218
-237
-252
-262
-271
-238
-197
-210
-235
-242
-265
-280
-245
-205
-209
-242
-261
-222
-145
-119
-154
-164
-146
-155
-183
-201
-186
-161
-209
-213
91
781
1785
2450
1543
-530
-1425
-593
74
-96
-184
-62
-101
-128
-44
-27
-47
12
89
119
130
136
144
200
292
329
316
357
446
496
503
528
589
620
563
500
500
463
329
194
91
-18
-108
-171
-233
-238
-184
-177
-228
-241
-209
-204
-238
-267
-270
-266
-251
-231
-261
-322
-316
-261
-252
-271
-270
-265
-257
-237
-238
-264
-280
-275
-255
-243
-262
-274
-253
-227
-186
-128
-119
-163
-192
-208
-220
-207
-187
-159
-156
-202
-26
636
1521
1970
1285
-414
-1552
-1062
-116
52
-93
-41
-29
-54
22
54
19
49
110
135
153
184
214
243
274
315
373
425
464
505
544
585
635
665
661
653
631
539
382
223
72
-89
-207
-241
-255
-302
-328
-308
-291
-276
-257
-277
-306
-286
-278
-313
-312
-285
-297
-318
-309
-295
-293
-310
-329
-308
-274
-287
-318
-324
-327
-308
-237
-176
-183
-232
-274
-270
-240
-232
-199
-162
-239
-227
216
1081
2066
2333
1020
-793
-1069
-196
70
-204
-191
-102
-150
-115
-69
-107
-74
15
29
28
88
151
174
192
234
292
355
423
491
532
555
609
682
707
675
626
538
371
178
34
-93
-241
-347
-375
-370
-368
-369
-374
-353
-308
-311
-355
-347
-313
-359
-417
-357
-273
-295
-331
-293
-284
-339
-348
-304
-297
-328
-333
-322
-321
-286
-199
-132
-143
-206
-241
-210
-197
-222
-181
-148
-220
-125
426
1439
2512
2431
624
-1040
-857
-31
12
-178
-100
-102
-168
-107
-48
-42
-24
-1
28
65
94
137
183
203
230
287
346
385
414
458
506
527
542
583
589
516
409
286
135
-9
-117
-206
-276
-308
-316
-321
-313
-296
-289
-289
-294
-315
-336
-325
-296
-288
-300
-313
-310
-292
-278
-283
-287
-283
-288
-284
-258
-247
-257
-255
-251
-261
-267
-272
-270
-211
-128
-114
-150
-174
-185
-184
-176
-169
-120
-106
-194
-106
422
1349
2337
2323
656
-998
-856
22
100
-139
-77
-53
-127
-82
-11
4
29
59
79
109
152
190
203
210
265
339
367
398
468
506
500
523
570
589
589
565
468
324
205
106
-8
-105
-155
-192
-235
-257
-251
-243
-245
-257
-266
-263
-262
-267
-263
-258
-268
-272
-258
-249
-251
-247
-239
-235
-234
-233
-230
-228
-228
-226
-211
-198
-203
-209
-194
-182
-189
-195
-187
-181
-180
-177
-168
-155
-146
-143
-132
-122
-128
-135
-130
-129
-141
-146
-143
-163
-202
-208
-180
-165
-162
-143
-105
-83
-94
-61
1
-51
-63
331
1193
2220
2519
1205
-640
-946
-67
215
-71
-75
13
-54
-49
16
20
30
61
76
97
134
169
199
228
262
305
344
373
407
448
482
512
541
561
572
575
555
489
378
250
130
20
-84
-167
-220
-252
-273
-288
-302
-324
-346
-353
-352
-361
-370
-365
-356
-359
-367
-363
-351
-339
-327
-314
-304
-300
-306
-319
-323
-308
-285
-266
-255
-246
-233
-221
-216
-215
-206
-192
-184
-179
-166
-151
-148
-150
-144
-139
-137
-128
-121
-129
-145
-160
-178
-192
-176
-134
-112
-95
-64
-58
-37
29
0
-43
261
1035
2135
2870
2001
-83
-1027
-269
313
85
-27
89
59
27
81
95
90
106
125
156
