# session 37
10
26
7
28
144
262
295
297
323
343
357
390
419
430
447
470
475
466
456
436
382
284
164
59
-24
-100
-165
-206
-219
-222
-231
-238
-235
-233
-236
-235
-235
-239
-237
-228
-227
-234
-234
-222
-216
-227
-227
-203
-185
-192
-197
-183
-173
-178
-176
-160
-152
-154
-144
-132
-136
-139
-131
-125
-116
-103
-102
-108
-108
-106
-106
-97
-86
-83
-86
-86
-80
-75
-75
-86
-91
-84
-94
-125
-135
-133
-147
-142
-110
-86
-65
-51
-62
-33
8
-48
-38
291
1035
2141
2695
1487
-452
-824
78
386
101
84
154
80
82
131
116
117
148
160
163
175
197
222
236
248
267
282
294
314
336
345
349
366
387
396
400
399
381
344
286
200
90
-24
-120
-194
-248
-283
-306
-322
-330
-326
-323
-329
-332
-325
-322
-329
-341
-342
-330
-319
-319
-325
-329
-325
-310
-298
-299
-300
-290
-278
-274
-271
-261
-252
-252
-246
-231
-229
-236
-223
-202
-197
-196
-192
-192
-186
-169
-160
-163
-164
-160
-154
-152
-148
-140
-134
-133
-125
-114
-118
-126
-125
-124
-135
-147
-158
-174
-178
-159
-135
-108
-77
-74
-90
-46
1
-53
-34
299
1035
2109
2607
1390
-468
-772
113
394
119
105
164
96
111
162
149
152
180
183
188
212
238
254
262
283
315
331
336
357
380
390
408
434
444
445
453
460
451
420
355
256
145
33
-77
-164
-211
-237
-271
-298
-300
-294
-298
-298
-296
-304
-309
-298
-291
-298
-306
-309
-307
-302
-306
-310
-294
-276
-276
-277
-267
-261
-258
-250
-253
-265
-251
-219
-209
-215
-210
-203
-203
-200
-195
-195
-191
-181
-173
-168
-167
-165
-161
-157
-149
-139
-134
-136
-136
-132
-128
-125
-122
-119
-122
-130
-132
-135
-139
-139
-149
-179
-186
-154
-128
-114
-84
-78
-96
-54
-16
-72
-16
378
1183
2245
2508
1051
-669
-681
202
339
75
110
156
85
98
136
130
139
156
172
202
217
219
239
267
279
285
309
341
358
367
388
414
434
449
458
462
466
452
408
349
277
166
30
-84
-163
-222
-263
-290
-307
-308
-298
-293
-297
-297
-284
-275
-291
-311
-303
-283
-272
-269
-285
-302
-284
-262
-277
-283
-241
-203
-214
-246
-251
-240
-248
-257
-228
-198
-210
-214
-189
-194
-228
-223
-183
-162
-165
-166
-158
-149
-151
-162
-161
-150
-146
-138
-124
-129
-141
-132
-128
-142
-137
-121
-132
-157
-167
-173
-179
-199
-232
-228
-182
-159
-137
-89
-96
-116
-47
-39
-65
316
1156
1901
1896
785
-657
-930
-108
358
187
109
191
179
165
194
200
211
235
243
261
301
325
330
341
347
353
392
441
459
478
519
554
574
596
625
660
687
685
654
580
431
231
44
-109
-237
-327
-381
-419
-427
-396
-381
-401
-402
-365
-340
-346
-349
-346
-351
-354
-348
-350
-354
-342
-332
-343
-351
-336
-322
-321
-316
-305
-301
-299
-292
-284
-280
-274
-268
-267
-261
-242
-224
-226
-228
-211
-192
-189
-188
-188
-195
-190
-168
-157
-161
-161
-157
-165
-174
-164
-153
-170
-201
-220
-235
-238
-209
-182
-166
-129
-111
-125
-80
-57
-141
-33
535
1465
2342
2199
657
-666
-411
290
250
37
101
110
60
100
133
137
160
171
187
218
220
230
282
324
339
372
414
439
466
506
550
601
651
698
754
806
828
814
751
600
373
138
-61
-225
-340
-401
-435
-461
-473
-466
-452
-448
-444
-430
-430
-437
-408
-363
-355
-384
-409
-398
-368
-367
-382
-370
-347
-343
-338
-321
-315
-319
-317
-309
-295
-271
-246
-245
-267
-271
-242
-222
-230
-226
-194
-175
-191
-213
-202
-167
-157
-161
-142
-133
-159
-162
-134
-130
-146
-143
-122
-81
-21
6
-38
-112
-142
-103
-61
-57
-51
-70
-115
-28
298
1073
2393
3015
1568
-461
-686
169
286
-12
7
25
-18
103
154
31
2
81
87
76
144
198
186
191
226
243
245
253
267
273
257
246
274
299
301
331
353
293
209
160
93
3
-56
-103
-165
-212
-238
-259
-268
-270
-276
-273
-269
-277
-267
-249
-282
-328
-298
-232
-225
-254
-263
-263
-265
-250
-233
-240
-248
-236
-223
-218
-217
-217
-225
-236
-214
-161
-151
-175
-166
-185
-247
-211
-108
-105
-156
-139
-98
-85
-80
-63
-29
-16
-73
-141
-131
-81
-92
-152
-150
-98
-90
-60
164
847
2065
2772
1647
-340
-932
-184
216
40
-10
41
-1
-4
36
34
34
61
71
65
86
123
116
93
126
181
194
194
207
208
203
209
216
213
205
192
179
168
153
126
83
25
-43
-100
-134
-156
-180
-197
-203
-205
-210
-218
-227
-226
-215
-210
-216
-226
-233
-237
-237
-238
-245
-254
-256
-250
-242
-236
-229
-220
-214
-216
-221
-214
-194
-184
-190
-190
-180
-170
-170
-176
-168
-129
-93
-84
-68
-43
-61
-113
-142
-137
-136
-142
-129
-115
-120
-99
42
590
1784
2750
1971
-88
-1100
-489
125
58
-34
26
4
-19
17
25
23
47
61
63
77
98
110
122
146
167
173
182
203
220
232
241
244
245
243
235
221
201
173
131
64
-18
-90
-146
-194
-225
-242
-252
-249
-240
-236
-232
-224
-220
-220
-221
-224
-226
-221
-219
-227
-233
-230
-229
-230
-231
-231
-226
-215
-212
-211
-200
-195
-196
-189
-188
-185
-150
-110
-100
-80
-55
-87
-146
-159
-139
-138
-151
-137
-110
-116
-116
6
462
1516
2619
2240
269
-1059
-595
149
117
-42
19
10
-26
15
25
19
52
69
74
102
120
124
145
170
184
196
209
229
250
256
272
314
336
330
336
352
347
314
256
163
43
-74
-164
-237
-299
-335
-350
-359
-353
-333
-320
-318
-317
-308
-296
-292
-299
-305
-305
-305
-308
-315
-318
-310
-304
-299
-288
-283
-284
-275
-270
-276
-276
-272
-262
-235
-206
-174
-138
-141
-185
-212
-215
-205
-194
-219
-221
-161
-186
-238
-2
655
1748
2688
2040
-44
-1106
-362
277
56
-73
32
-32
-92
-20
11
15
82
120
75
67
157
208
174
191
275
303
272
284
361
422
413
413
457
460
450
525
575
489
367
246
72
-76
-146
-236
-338
-354
-320
-302
-299
-314
-323
-296
-293
-332
-317
-246
-243
-306
-315
-288
-328
-367
-316
-271
-269
-236
-217
-247
-255
-261
-306
-305
-248
-226
-239
-216
-156
-110
-105
-124
-165
-222
-226
-185
-198
-193
-121
-157
-209
-4
504
1532
2692
2278
183
-993
-341
222
-25
-171
-83
-71
-43
-4
-6
22
35
18
41
68
65
77
105
135
177
201
196
191
207
262
319
308
268
266
285
303
293
232
184
165
69
-78
-154
-197
-268
-299
-275
-260
-256
-262
-278
-265
-231
-231
-253
-258
-250
-250
-254
-237
-214
-227
-246
-225
-214
-238
-235
-198
-190
-208
-209
-194
-181
-181
-196
-200
-188
-177
-154
-104
-62
-65
-97
-134
-152
-124
-97
-148
-189
-128
-101
-132
-24
379
1314
2507
2471
657
-849
-563
147
85
-107
-26
-28
-91
-41
-1
-22
-12
28
53
66
72
79
94
100
101
141
199
205
184
205
241
234
202
198
230
248
231
207
157
68
4
-23
-67
-123
-176
-227
-231
-194
-187
-202
-223
-282
-301
-234
-216
-259
-237
-204
-234
-247
-235
-252
-259
-243
-236
-218
-190
-192
-215
-229
-212
-169
-153
-177
-188
-195
-211
-163
-75
-65
-96
-86
-86
-121
-128
-134
-176
-167
-77
-51
-125
-96
219
1000
2164
2569
1203
-573
-782
-19
173
-28
-5
21
-40
-1
43
19
36
68
55
63
119
144
110
101
168
221
211
214
230
202
196
260
295
256
214
213
213
185
154
112
26
-61
-99
-150
-224
-245
-227
-245
-271
-267
-267
-278
-260
-235
-256
-272
-253
-272
-306
-277
-254
-273
-259
-237
-255
-264
-261
-259
-221
-184
-200
-215
-190
-187
-228
-237
-193
-167
-180
-190
-194
-186
-136
-88
-92
-99
-79
-104
-173
-173
-119
-150
-202
-140
-108
-188
-59
544
1559
2437
2033
225
-1046
-610
137
91
-65
78
100
-28
-34
46
70
69
101
136
152
165
166
189
244
245
226
307
393
376
359
409
484
537
501
454
536
627
576
465
336
158
3
-102
-211
-307
-364
-377
-343
-345
-395
-381
-328
-339
-343
-297
-297
-323
-323
-352
-383
-334
-270
-275
-316
-340
-327
-290
-272
-296
-337
-349
-302
-246
-248
-266
-270
-292
-293
-237
-188
-202
-254
-278
-256
-246
-241
-178
-113
-109
-108
-118
-189
-220
-160
-142
-162
-109
-113
-207
-81
398
1289
2474
2679
1040
-609
-494
210
178
-19
22
-21
-62
26
51
25
67
98
91
126
172
187
219
249
234
261
362
412
387
420
497
514
534
634
705
690
671
660
590
439
241
59
-92
-233
-335
-384
-419
-436
-430
-439
-430
-371
-343
-352
-332
-333
-376
-367
-338
-360
-355
-303
-302
-344
-337
-296
-303
-335
-302
-253
-289
-339
-314
-278
-262
-238
-239
-265
-249
-206
-211
-239
-209
-160
-173
-191
-178
-187
-169
-95
-104
-192
-182
-112
-112
-115
-90
-115
-142
-98
-58
-74
-117
-169
-184
-140
-115
-133
-108
-38
-33
-73
-20
22
-82
-45
295
835
1890
3006
2408
327
-594
71
386
78
43
99
-12
8
83
44
58
112
78
80
166
175
137
184
229
205
211
248
263
302
337
303
287
342
367
339
336
349
324
274
208
95
-33
-94
-123
-197
-250
-254
-299
-335
-272
-228
-274
-299
-276
-278
-287
-279
-267
-246
-240
-267
-288
-284
-272
-244
-230
-261
-290
-277
-244
-217
-217
-230
-216
-197
-205
-222
-237
-227
-191
-186
-199
-173
-162
-183
-165
-154
-188
-166
-118
-142
-157
-117
-131
-173
-132
-94
-140
-151
-97
-90
-117
-115
-121
-135
-120
-100
-94
-109
-154
-162
-104
-82
-106
-91
-58
-56
-34
-21
-51
42
452
1337
2450
2523
864
-728
-541
269
265
-6
41
75
20
44
80
100
117
76
58
145
205
179
206
263
218
178
278
370
345
347
418
433
406
439
487
490
495
506
466
373
253
125
4
-120
-221
-244
-245
-292
-332
-334
-332
-318
-303
-307
-301
-290
-303
-317
-316
-319
-324
-322
-312
-300
-297
-296
-305
-332
-327
-267
-235
-262
-275
-276
-284
-246
-192
-214
-259
-245
-207
-196
-213
-222
-201
-184
-190
-180
-171
-194
-202
-173
-147
-137
-159
-184
-148
-99
-140
-190
-139
-85
-126
-168
-155
-171
-226
-236
-197
-169
-144
-83
-51
-80
-69
-55
-107
28
568
1452
2377
2347
798
-635
-397
342
251
-11
94
129
62
117
146
104
119
135
120
174
232
207
229
324
331
286
326
373
377
441
525
534
530
546
558
621
683
643
566
473
278
80
-12
-132
-299
-352
-342
-394
-406
-349
-363
-407
-365
-330
-365
-353
-296
-316
-362
-335
-312
-351
-366
-330
-313
-328
-337
-321
-289
-294
-335
-320
-254
-234
-244
-251
-278
-251
-176
-207
-291
-256
-191
-200
-191
-167
-204
-217
-171
-158
-178
-174
-170
-192
-205
-153
-83
-126
-207
-149
-69
-131
-198
-167
-142
-172
-214
-227
-189
-165
-174
-125
-64
-81
-79
-62
-103
14
413
1123
2241
2798
1497
-373
-559
261
358
73
83
83
29
91
90
34
84
161
186
185
166
185
229
201
183
276
355
343
336
361
375
406
447
438
411
446
502
483
406
335
239
71
-73
-116
-161
-259
-303
-295
-320
-335
-299
-272
-286
-298
-276
-248
-263
-291
-279
-267
-277
-271
-269
-304
-315
-267
-230
-257
-292
-278
-248
-253
-274
-269
-247
-234
-221
-203
-190
-199
-235
-250
-202
-155
-162
-176
-169
-155
-136
-141
-177
-180
-136
-104
-117
-153
-159
-120
-92
-103
-103
-90
-116
-154
-129
-75
-74
-118
-147
-137
-116
-132
-150
-102
-44
-21
-7
-38
-39
202
823
1891
2752
2029
56
-864
-177
375
168
19
86
62
30
73
89
76
91
100
87
113
175
194
176
184
202
197
187
200
249
301
303
275
262
260
258
263
234
170
144
146
94
4
-77
-144
-170
-172
-210
-244
-230
-229
-245
-233
-231
-239
-216
-207
-247
-277
-244
-187
-185
-237
-257
-219
-200
-231
-251
-226
-193
-192
-204
-185
-170
-217
-248
-188
-144
-177
-180
-143
-148
-172
-164
-166
-195
-190
-131
-91
-112
-137
-125
-120
-140
-149
-142
-127
-97
-83
-116
-141
-134
-167
-222
-173
-62
-46
-90
-82
-56
-24
122
615
1660
2569
1945
90
-841
-285
207
67
-1
81
32
-1
48
62
74
86
46
32
74
87
99
150
171
157
152
121
85
124
196
219
203
188
192
191
152
104
86
83
58
-2
-65
-121
-191
-223
-175
-132
-165
-232
-274
-266
-224
-198
-199
-196
-176
-177
-203
-190
-170
-224
-247
-160
-131
-195
-179
-123
-163
-201
-153
-111
-111
-109
-123
-160
-163
-126
-133
-182
-144
-18
-19
-176
-210
-66
-7
-76
-89
-55
-68
-73
-31
6
25
23
-38
-84
-35
1
-47
-60
-12
19
99
456
1331
2324
2186
648
-597
-431
123
127
-3
32
-10
-57
39
70
-18
0
100
95
49
72
98
98
107
106
103
138
157
127
130
168
154
124
141
127
67
68
76
-29
-127
-93
-43
-42
-55
-124
-214
-206
-168
-196
-226
-214
-204
-203
-209
-220
-217
-222
-255
-262
-224
-205
-226
-242
-231
-218
-234
-260
-246
-219
-226
-237
-233
-228
-203
-182
-187
-165
-142
-187
-232
-207
-197
-241
-245
-194
-191
-239
-216
-70
315
1191
2110
1806
197
-943
-662
-64
-16
-111
-78
-101
-134
-93
-75
-76
-44
-19
-5
20
29
27
44
67
86
115
144
163
167
153
158
201
223
193
166
177
196
186
139
85
51
23
-26
-74
-79
-53
-47
-62
-54
-32
-40
-52
-10
38
29
