# session 5
142
208
-18
114
957
1638
1552
1272
1239
1204
1094
1057
1022
943
903
877
784
678
643
642
594
533
544
592
589
538
468
421
444
415
267
212
420
1109
2390
3021
1653
-271
-555
92
125
-119
-97
-100
-162
-136
-113
-87
-6
42
47
65
83
97
115
113
103
100
70
21
-16
-85
-203
-297
-355
-415
-474
-508
-530
-579
-655
-694
-685
-691
-723
-763
-786
-752
-702
-720
-746
-686
-610
-607
-635
-645
-618
-559
-537
-545
-445
-44
918
1986
1683
-126
-1276
-800
-214
-282
-309
-196
-234
-214
-79
-46
-56
38
155
189
205
281
359
385
415
441
399
362
395
413
396
420
402
241
85
71
53
-64
-147
-141
-153
-217
-273
-292
-322
-406
-449
-346
-207
-185
-245
-292
-317
-347
-359
-308
-274
-360
-335
146
923
1290
636
-670
-1319
-829
-213
-125
-163
-121
-131
-102
-37
-30
28
155
214
223
259
296
332
394
446
453
447
456
454
439
441
429
352
248
160
74
-6
-76
-139
-184
-230
-274
-263
-237
-271
-307
-288
-268
-265
-215
-124
-58
-42
-60
-80
-44
16
1
-26
34
290
1199
2508
2416
449
-963
-514
129
0
-112
9
7
-11
47
64
69
92
100
148
253
297
262
290
399
439
389
365
353
268
128
-22
-167
-264
-320
-396
-462
-473
-511
-604
-621
-556
-549
-609
-633
-593
-506
-430
-452
-491
-412
-328
-394
-487
-459
-362
-281
-279
-364
-391
-191
487
1661
2152
831
-911
-1047
-241
-47
-232
-187
-137
-175
-129
-50
5
76
143
214
329
427
432
412
479
589
616
576
581
618
601
559
528
431
274
177
128
36
-65
-104
-119
-158
-189
-192
-198
-221
-246
-260
-262
-258
-251
-259
-306
-365
-375
-321
-270
-295
-283
36
669
1138
817
-355
-1373
-1230
-446
-122
-208
-183
-114
-121
-96
-73
-70
3
67
47
88
209
230
177
195
231
195
173
222
250
204
137
75
-16
-118
-173
-202
-244
-261
-253
-273
-295
-279
-294
-351
-361
-321
-309
-322
-302
-230
-157
-132
-137
-143
-149
-109
-44
-48
-29
162
688
1778
2667
1848
-40
-676
-38
190
-46
-36
13
-21
63
111
52
76
150
160
185
251
287
303
330
330
300
275
251
249
291
286
180
81
44
-24
-156
-261
-303
-341
-391
-418
-435
-485
-532
-507
-444
-432
-476
-495
-446
-396
-395
-423
-482
-524
-458
-414
-485
-423
-135
456
1659
2530
1429
-599
-1064
-327
-147
-354
-278
-198
-204
-130
-96
-102
-32
43
86
140
175
203
264
319
339
352
345
311
302
316
281
199
147
112
51
11
11
10
13
-10
-98
-152
-123
-144
-217
-209
-168
-198
-222
-172
-114
-105
-153
-217
-214
-160
-159
-184
-150
-11
526
1501
1760
413
-1102
-1077
-283
-92
-256
-255
-245
-253
-177
-128
-117
-79
-51
2
140
250
241
211
240
256
204
152
168
218
224
164
98
75
46
-31
-103
-150
-228
-317
-352
-358
-375
-383
-374
-362
-340
-309
-281
-262
-263
-272
-253
-230
-255
-268
-198
-151
-183
-109
230
992
2079
2331
890
-679
-646
61
147
25
71
29
8
99
112
122
209
216
170
221
310
361
409
434
407
394
419
417
355
269
197
126
15
-100
-122
-86
-130
-251
-327
-356
-424
-497
-520
-542
-562
-499
-406
-399
-452
-493
-483
-388
-309
-381
-468
-414
-382
-388
-162
297
882
1365
905
-511
-1214
-618
-119
-229
-245
-150
-199
-187
-99
-82
-52
31
95
166
235
256
275
316
333
329
333
345
364
362
300
205
126
71
45
46
43
26
18
23
32
31
11
-24
-50
-51
-36
-54
-105
-125
-101
-100
-139
-185
-193
-136
-126
-234
-220
121
817
1753
2016
770
-723
-760
-88
-65
-292
-186
-80
-101
-70
-70
-112
-46
42
11
-22
47
117
144
214
287
268
235
263
246
120
-29
-157
-280
-357
-332
-248
-198
-211
-271
-360
-426
-416
-362
-349
-392
-429
-437
-455
-463
-399
-315
-294
-308
-315
-301
-229
-176
-231
-240
6
703
1784
2108
731
-848
-792
-5
68
-113
16
90
40
81
129
133
185
253
283
325
396
427
408
397
413
434
429
385
351
378
411
372
275
205
155
44
-78
-124
-150
-172
-162
-216
-315
-306
-245
-256
-301
-354
-410
-407
-400
-444
-458
-464
-501
-452
-378
-389
-208
380
1080
1242
333
-999
-1265
-484
-68
-270
-346
-218
-157
-142
-118
-43
91
180
193
187
185
219
267
252
220
243
232
146
126
205
214
115
55
62
37
-13
-49
-107
-159
-139
-123
-174
-188
-134
-134
-185
-169
-99
-52
-16
35
71
41
-52
-104
-61
-55
-134
-105
220
1002
1954
1830
174
-1159
-793
3
47
-95
-41
-73
-110
-44
-37
-34
53
84
79
193
330
356
348
354
302
211
161
137
98
63
11
-84
-148
-156
-195
-255
-265
-255
-257
-264
-300
-343
-342
-340
-382
-447
-506
-508
-429
-354
-335
-333
-359
-404
-372
-317
-361
-358
-54
710
1739
1946
570
-940
-907
-152
-20
-169
-85
-11
-14
39
102
171
258
298
319
374
411
414
430
445
455
493
489
411
380
401
333
211
154
111
37
-8
-30
-65
-91
-121
-173
-203
-208
-220
-239
-268
-291
-275
-285
-331
-296
-217
-240
-298
-284
-319
-417
-302
161
841
1361
972
-400
-1308
-858
-171
-163
-286
-198
-202
-284
-257
-176
-108
-49
-27
-3
97
204
207
159
168
220
251
233
172
121
112
87
0
-78
-82
-59
-89
-147
-173
-188
-235
-275
-277
-282
-299
-292
-269
-258
-239
-193
-148
-131
-127
-130
-147
-123
-55
-65
-124
-64
243
1153
2452
2462
570
-949
-620
51
-5
-109
-28
-54
-33
93
125
111
164
219
239
279
356
422
436
411
410
464
501
436
309
203
121
20
-101
-210
-270
-294
-332
-377
-394
-426
-504
-544
-507
-476
-491
-514
-505
-435
-377
-435
-510
-491
-510
-577
-499
-342
-271
-207
-41
546
1673
2036
535
-1127
-1027
-201
-81
-190
-59
-30
-92
-34
39
38
22
60
182
304
346
376
435
453
428
411
381
359
388
378
272
178
148
122
83
50
42
57
32
-53
-123
-132
-113
-97
-85
-87
-111
-129
-95
-63
-109
-184
-214
-218
-218
-235
-291
-279
34
774
1493
1132
-463
-1619
-1210
-387
-271
-391
-310
-259
-237
-166
-171
-166
-28
87
111
166
247
294
342
379
369
367
398
418
397
318
193
94
27
-79
-204
-278
-315
-333
-338
-377
-423
-381
-303
-305
-353
-377
-389
-372
-325
-318
-329
-277
-239
-250
-206
-155
-175
-125
203
1122
2425
2585
867
-712
-523
174
147
-51
-13
-9
-40
-9
32
97
169
186
197
253
309
341
357
326
284
306
307
211
155
193
159
29
-63
-95
-128
-186
-263
-314
-330
-372
-422
-408
-386
-435
-482
-458
-424
-395
-349
-358
-433
-461
-447
-450
-435
-444
-485
-438
-221
550
1951
2362
665
-1059
-875
-127
-161
-297
-173
-177
-200
-103
-74
-59
75
204
242
274
335
382
408
429
443
433
403
380
365
312
220
132
50
-15
-39
-54
-97
-118
-92
-74
-93
-120
-152
-210
-246
-228
-225
-239
-174
-97
-135
-214
-239
-246
-225
-205
-257
-210
180
922
1651
1458
22
-1192
-958
-234
-102
-197
-171
-203
-226
-151
-110
-108
-68
-5
64
138
190
221
250
277
305
322
308
276
257
225
143
47
-22
-76
-117
-147
-181
-189
-171
-182
-201
-193
-224
-298
-332
-337
-355
-351
-312
-288
-289
-294
-288
-233
-165
-214
-286
-101
449
1273
1738
911
-627
-1058
-331
54
-124
-155
-70
-98
-98
-39
-10
25
90
151
199
242
286
329
365
397
421
430
434
435
430
406
333
224
137
80
17
-46
-92
-136
-174
-195
-216
-239
-246
-246
-258
-266
-236
-180
-144
-143
-168
-201
-191
-134
-130
-183
-163
201
1313
2606
2299
294
-955
-491
-4
-214
-317
-231
-291
-322
-262
-263
-266
-211
-161
-123
-73
-23
12
26
28
31
24
-9
-58
-112
-171
-222
-247
-265
-297
-321
-321
-325
-339
-333
-321
-328
-326
-312
-319
-321
-284
-255
-257
-250
-239
-254
-281
-302
-277
-223
-231
-229
2
586
1414
1726
690
-792
-1012
-291
-46
-222
-185
-105
-138
-104
-32
6
71
149
208
292
392
461
518
580
620
638
662
694
710
701
652
539
386
246
129
20
-58
-98
-141
-200
-233
-238
-258
-299
-322
-314
-297
-272
-242
-234
-246
-252
-276
-293
-255
-252
-293
-179
294
1195
1923
1321
-276
-958
-392
-28
-194
-216
-132
-168
-152
-86
-83
-57
32
99
135
185
243
289
317
331
337
329
303
270
242
211
146
39
-61
-113
-144
-181
-222
-272
-309
-310
-318
-372
-408
-389
-371
-381
-383
-371
-353
-320
-307
-356
-390
-332
-314
-384
-276
150
722
1100
718
-385
-995
-541
-52
-112
-183
-103
-115
-117
-44
-27
-22
59
145
182
215
280
349
372
361
380
419
422
397
374
342
273
170
73
22
-7
-53
-89
-99
-129
-179
-196
-201
-234
-245
-207
-197
-238
-232
-169
-142
-160
-186
-214
-201
-167
-211
-245
-76
431
1253
1642
749
-548
-706
-132
-19
-185
-136
-85
-127
-103
-56
-37
3
49
79
112
144
166
187
208
222
235
247
254
259
252
203
112
11
-72
-129
-166
-198
-228
-243
-256
-272
-260
-238
-260
-294
-304
-322
-319
-238
-152
-147
-190
-213
-188
-161
-203
-261
-232
195
1443
2657
2061
152
-660
-157
47
-183
-164
-95
-169
-165
-117
-128
-110
-59
-29
6
54
90
126
162
185
200
212
212
209
206
186
140
71
-29
-136
-207
-241
-273
-308
-334
-346
-342
-344
-368
-382
-379
-396
-399
-330
-248
-236
-257
-283
-304
-269
-251
-336
-357
3
959
1989
1702
-1
-1036
-500
54
-114
-194
-40
-35
-60
-1
36
78
151
199
245
307
342
356
387
427
450
457
459
462
450
398
310
193
41
-105
-199
-265
-320
-326
-325
-366
-380
-365
-413
-463
-428
-411
-436
-369
-264
-262
-296
-293
-307
-313
-293
-339
-359
-100
519
1204
1173
68
-943
-721
-45
24
-154
-88
-8
-33
-15
61
122
139
154
229
317
364
412
464
483
507
542
542
553
592
552
432
318
170
-16
-118
-145
-219
-310
-334
-324
-338
-366
-380
-374
-379
-412
-423
-368
-289
-259
-268
-268
-274
-294
-298
-302
-324
-244
221
1147
1663
723
-765
-963
-192
53
-148
-105
-8
-55
-55
-6
29
94
157
178
207
255
297
343
392
411
407
423
453
469
473
463
390
242
85
-45
-160
-226
-233
-263
-337
-370
-355
-356
-375
-385
-392
-395
-391
-357
-276
-225
-272
-349
-352
-289
-257
-303
-329
-137
514
1418
1443
73
-1112
-800
-80
-57
-186
-69
-29
-75
-57
-30
11
90
144
182
241
306
370
440
502
548
590
645
707
725
660
522
336
136
-18
-121
-230
-344
-390
-375
-392
-444
-446
-413
-415
-434
-426
-413
-401
-355
-286
-259
-316
-397
-381
-283
-292
-372
-240
160
709
1142
764
-412
-987
-427
56
-64
-122
-15
-48
-67
39
93
85
127
201
268
329
374
402
440
502
580
657
696
696
672
590
443
292
140
-21
-124
-167
-237
-318
-327
-304
-320
-351
-362
-368
-373
-379
-395
-382
-319
-266
-268
-305
-352
-338
-258
-268
-376
-298
281
1265
1675
627
-772
-831
-131
-34
-220
-101
-22
-105
-100
-32
37
116
143
154
234
319
349
373
432
489
495
474
483
482
408
318
241
109
-55
-165
-232
-288
-324
-356
-392
-405
-387
-369
-400
-455
-464
-434
-405
-351
-294
-298
-326
-332
-336
-325
-309
-343
-351
-132
504
1334
1325
2
-1135
-796
-39
-10
-177
-72
-26
-77
-34
36
73
125
191
256
320
377
436
490
524
552
590
619
618
593
568
511
353
146
7
-84
-200
-284
-295
-323
-383
-392
-362
-360
-386
-415
-420
-395
-358
-303
-244
-243
-287
-314
-306
-255
-227
-272
-231
74
679
1314
1138
-98
-972
-543
74
20
-103
2
4
-52
7
71
74
92
143
196
259
335
406
480
543
573
605
656
688
681
610
450
248
83
-40
-161
-263
-286
-273
-330
-404
-379
-331
-359
-385
-366
-368
-379
-336
-286
-284
-291
-306
-366
-379
-276
-229
-326
-312
79
781
1192
525
-783
-1170
-438
48
-93
-153
-34
-21
-23
25
26
26
90
162
216
279
335
395
489
562
585
617
663
664
635
586
449
227
19
-143
-266
-334
-377
-426
-445
-442
-468
-490
-469
-447
-456
-486
-518
-483
-362
-275
-293
-340
-371
-366
-310
-276
-316
-384
-182
869
2270
2066
76
-1117
-525
44
-152
-231
-85
-108
-149
-93
-44
14
78
110
169
249
269
261
314
405
451
456
486
533
526
455
354
227
87
-35
-132
-199
-236
-286
-330
-312
-290
-322
-346
-343
-354
-353
-334
-326
-290
-234
-224
-237
-251
-280
-253
-208
-265
-231
172
870
1398
1018
-279
-1099
-614
63
58
-73
24
69
47
71
87
118
206
279
306
345
411
474
531
593
650
695
729
743
717
628
467
281
114
-26
-140
-221
-279
-318
-345
-372
-397
-404
-406
-419
-428
-430
-441
-434
-380
-324
-318
-332
-349
-376
-358
-309
-350
-407
-205
400
1134
1165
68
-990
-804
-127
-36
-181
-105
-50
-81
-42
11
36
86
144
186
225
262
292
318
336
351
366
377
384
370
313
228
128
8
-105
-168
-201
-239
-275
-294
-306
-321
-330
-331
-338
-355
-368
-389
-420
-400
-312
-247
-249
-276
-306
-305
-262
-268
-336
-348
23
1209
2479
1989
-29
-1012
-402
-3
-242
-277
-169
-211
-198
-121
-106
-75
-7
32
63
104
128
137
147
158
169
171
162
153
