# session 15
134
137
66
283
720
849
713
676
636
440
203
115
752
2301
3155
1952
211
-175
174
176
85
155
202
302
470
516
590
897
1094
848
549
635
856
867
764
689
630
566
429
217
94
73
-25
-158
-176
-193
-328
-423
-393
-383
-419
-400
-368
-395
-404
-361
-352
-377
-390
-422
-447
-408
-369
-378
-369
-336
-343
-361
-342
-329
-350
-376
-408
-479
-610
-410
775
2231
2044
256
-912
-707
-341
-332
-291
-216
-250
-266
-226
-202
-156
-95
-103
-140
-103
-32
-18
-21
43
129
151
134
99
-1
-100
-116
-142
-218
-239
-240
-318
-344
-223
-156
-212
-191
-113
-156
-203
-135
-115
-178
-172
-131
-144
-143
-111
-117
-158
-199
-220
-209
-178
-138
-123
-181
-269
-377
-336
529
2090
2467
838
-745
-763
-262
-172
-116
31
46
35
61
46
75
167
146
-8
-164
-276
-276
-65
225
355
364
404
419
351
271
164
14
-58
-47
-99
-210
-256
-233
-200
-153
-105
-93
-90
-56
-34
-60
-71
-13
41
10
-56
-61
-22
-27
-65
-54
-26
-61
-70
-4
-58
-242
-367
-394
156
1735
2853
1717
-286
-783
-273
-198
-307
-172
-133
-207
-154
-77
-86
-96
-49
28
72
72
105
195
275
313
333
346
349
327
245
132
69
14
-103
-181
-185
-214
-191
-80
-88
-173
-120
-70
-130
-117
-89
-187
-221
-145
-146
-151
-78
-94
-200
-243
-197
-102
-94
-221
-233
-115
-177
-436
-639
-217
1359
2794
1991
-135
-950
-484
-309
-451
-376
-258
-246
-283
-329
-269
-143
-146
-178
-58
44
18
72
204
217
227
314
272
146
163
202
77
-94
-176
-219
-278
-308
-265
-224
-266
-305
-218
-117
-173
-260
-208
-157
-216
-222
-143
-132
-147
-94
-88
-167
-165
-90
-125
-225
-182
-69
-101
-278
-403
11
1239
2124
1228
-476
-967
-414
-117
-141
-71
-11
-33
-35
-16
25
96
154
171
183
258
381
438
443
535
676
697
612
575
548
370
146
83
27
-175
-277
-161
-94
-174
-258
-268
-192
-136
-221
-281
-162
-95
-188
-193
-105
-163
-285
-244
-121
-107
-192
-229
-179
-166
-206
-195
-219
-404
-531
-126
1026
2041
1508
-169
-1010
-619
-248
-260
-227
-179
-188
-128
-91
-120
-74
-25
-80
-39
192
339
289
292
461
573
523
478
491
394
196
71
-19
-159
-230
-221
-269
-320
-293
-321
-391
-308
-168
-185
-256
-250
-242
-241
-211
-221
-246
-199
-165
-210
-233
-221
-246
-258
-232
-215
-188
-212
-339
-449
-516
-151
1334
2792
1988
-202
-943
-333
-161
-313
-142
-55
-175
-138
-11
-11
-75
-50
96
213
203
212
329
426
449
474
514
514
448
358
279
175
34
-86
-136
-126
-107
-127
-152
-124
-89
-110
-164
-225
-271
-262
-229
-211
-171
-124
-133
-157
-128
-82
-108
-163
-132
-122
-235
-226
-69
-141
-417
-605
-504
541
2355
2704
755
-905
-711
-174
-245
-285
-156
-156
-185
-160
-136
-98
-59
-38
7
58
94
161
254
306
328
367
393
350
260
168
70
-47
-169
-264
-282
-233
-209
-226
-229
-225
-228
-231
-265
-280
-213
-186
-272
-280
-160
-131
-203
-205
-167
-165
-137
-110
-142
-169
-189
-200
-135
-109
-251
-442
-533
-59
1436
2685
1838
-114
-770
-275
-105
-250
-193
-119
-138
-113
-80
-75
-45
-7
16
48
89
125
156
191
227
234
206
190
186
150
113
101
49
-46
-85
-66
-71
-97
-94
-79
-88
-108
-116
-121
-126
-113
-104
-128
-150
-139
-137
-151
-131
-98
-101
-119
-127
-128
-128
-152
-174
-130
-104
-200
-379
-495
-75
1178
2139
1414
-170
-785
-430
-151
-121
-83
-62
-71
-63
-58
-30
46
113
136
158
207
267
322
366
400
417
397
338
273
208
115
10
-57
-100
-152
-190
-205
-213
-183
-132
-157
-237
-246
-201
-197
-214
-226
-245
-237
-198
-169
-131
-90
-102
-126
-114
-129
-186
-214
-213
-195
-157
-182
-287
-430
-461
207
1609
2119
761
-724
-771
-265
-181
-195
-99
-81
-83
-44
-37
-30
13
52
83
127
176
228
285
333
362
373
366
340
295
227
137
40
-44
-101
-131
-144
-148
-144
-136
-135
-132
-123
-128
-126
-102
-143
-262
-303
-234
-194
-200
-175
-147
-156
-153
-129
-133
-145
-139
-154
-160
-121
-142
-248
-402
-490
171
1762
2468
1026
-653
-718
-185
-179
-251
-147
-136
-150
-97
-75
-65
-18
22
56
104
155
206
266
323
366
388
382
350
299
227
130
27
-60
-115
-145
-160
-166
-167
-169
-170
-170
-171
-175
-179
-180
-178
-176
-180
-183
-177
-174
-174
-160
-138
-132
-123
-112
-134
-157
-147
-157
-160
-113
-142
-287
-472
-555
150
1846
2677
1263
-503
-668
-176
-171
-237
-135
-135
-156
-99
-78
-74
-35
0
27
70
112
151
191
224
245
253
243
217
182
135
78
17
-35
-68
-90
-112
-117
-104
-102
-112
-108
-105
-124
-141
-141
-142
-147
-144
-143
-144
-139
-141
-151
-143
-118
-107
-106
-106
-128
-148
-138
-137
-140
-115
-133
-240
-417
-513
88
1528
2256
1105
-425
-651
-217
-127
-163
-93
-83
-93
-48
-27
-24
4
35
62
95
130
168
208
234
245
249
233
187
132
79
26
-22
-60
-92
-115
-122
-117
-112
-107
-101
-96
-90
-85
-85
-87
-88
-91
-94
-96
-96
-98
-102
-107
-115
-129
-130
-111
-92
-78
-77
-107
-132
-127
-135
-139
-104
-125
-235
-374
-432
156
1579
2313
1142
-412
-629
-213
-178
-236
-158
-153
-172
-125
-99
-96
-69
-42
-18
20
58
90
133
178
203
200
182
160
137
107
69
24
-21
-53
-70
-80
-89
-91
-83
-73
-75
-81
-80
-78
-90
-108
-118
-120
-124
-129
-130
-131
-136
-137
-140
-140
-116
-88
-89
-93
-81
-88
-110
-124
-138
-130
-104
-134
-249
-420
-332
593
1901
1945
504
-606
-532
-209
-180
-167
-115
-112
-94
-61
-48
-19
24
47
61
101
161
210
235
260
292
299
267
223
189
151
89
21
-30
-68
-94
-95
-76
-69
-83
-93
-86
-76
-65
-49
-48
-71
-81
-74
-84
-108
-111
-98
-94
-100
-98
-86
-79
-74
-56
-49
-67
-76
-70
-88
-100
-63
-69
-183
-333
-425
-63
1103
2047
1293
-386
-1012
-571
-264
-249
-192
-182
-221
-168
-97
-82
-60
-8
46
96
145
200
264
324
376
411
416
389
338
264
166
54
-46
-111
-152
-187
-203
-196
-188
-188
-180
-159
-142
-138
-132
-121
-118
-128
-137
-137
-146
-183
-224
-244
-254
-261
-263
-270
-271
-248
-228
-224
-202
-186
-185
-143
-121
-209
-368
-532
-238
1114
2477
1906
16
-822
-416
-143
-187
-124
-70
-91
-62
-33
-30
6
51
79
120
173
225
282
345
399
432
437
414
364
288
193
90
-8
-82
-120
-142
-162
-178
-199
-226
-228
-221
-228
-202
-140
-118
-138
-142
-139
-151
-154
-139
-125
-128
-139
-123
-87
-79
-78
-52
-63
-105
-82
-68
-157
-161
-27
-36
-235
-463
-433
610
2398
2709
836
-740
-596
-116
-163
-212
-140
-152
-152
-116
-124
-135
-107
-53
2
46
98
158
208
261
317
340
343
338
290
191
84
-16
-109
-177
-205
-215
-236
-264
-253
-202
-184
-205
-195
-163
-168
-183
-161
-137
-154
-178
-164
-132
-129
-141
-144
-157
-162
-124
-107
-148
-141
-78
-84
-136
-139
-134
-130
-95
-124
-238
-407
-479
287
1992
2719
1265
-434
-610
-189
-179
-231
-159
-160
-158
-109
-100
-94
-52
-15
14
50
89
143
203
235
245
279
321
309
252
194
117
17
-61
-126
-193
-204
-160
-156
-199
-206
-171
-156
-166
-162
-144
-138
-155
-178
-167
-125
-106
-129
-149
-140
-126
-133
-144
-128
-117
-140
-127
-53
-33
-86
-99
-85
-120
-132
-92
-71
-73
-105
-217
-425
-517
221
1894
2694
1296
-510
-738
-199
-118
-197
-111
-93
-125
-91
-61
-47
-13
17
55
128
173
159
179
287
387
402
384
373
330
252
164
59
-49
-131
-194
-235
-235
-225
-231
-232
-219
-206
-198
-189
-179
-165
-152
-153
-160
-161
-151
-146
-160
-176
-162
-140
-133
-124
-117
-124
-109
-62
-47
-63
-56
-59
-107
-129
-108
-107
-93
-64
-138
-315
-500
-318
896
2489
2372
462
-783
-502
-120
-189
-185
-107
-126
-114
-69
-62
-41
-1
19
45
98
158
211
264
326
384
417
412
375
319
234
106
-35
-135
-185
-212
-232
-246
-250
-241
-226
-220
-219
-209
-189
-173
-164
-157
-150
-147
-143
-134
-133
-144
-149
-141
-137
-135
-124
-117
-125
-125
-109
-94
-71
-45
-63
-103
-100
-99
-119
-85
-79
-196
-367
-495
-74
1432
2773
2025
75
-699
-325
-165
-256
-197
-161
-191
-154
-118
-115
-87
-53
-28
10
56
103
159
212
256
292
310
305
276
221
140
47
-36
-94
-133
-164
-187
-193
-181
-168
-164
-157
-142
-131
-130
-132
-132
-127
-125
-128
-131
-130
-126
-121
-122
-127
-128
-129
-130
-122
-110
-107
-106
-105
-108
-102
-88
-82
-70
-38
-35
-76
-90
-83
-108
-104
-67
-126
-274
-425
-269
825
2345
2358
616
-675
-546
-185
-193
-180
-121
-144
-130
-75
-64
-55
-17
22
58
98
150
213
271
325
376
394
379
366
335
247
133
29
-67
-138
-164
-178
-196
-203
-194
-178
-161
-156
-159
-150
-127
-113
-115
-121
-119
-115
-124
-135
-132
-127
-133
-135
-125
-127
-141
-140
-126
-119
-114
-115
-130
-131
-107
-105
-126
-136
-149
-170
-164
-161
-165
-120
-112
-222
-380
-474
44
1597
2753
1745
-208
-784
-292
-122
-202
-132
-98
-121
-86
-68
-74
-37
8
32
67
116
168
227
292
357
412
442
439
407
341
232
96
-28
-120
-182
-217
-232
-238
-234
-228
-228
-226
-214
-201
-191
-178
-166
-161
-160
-153
-145
-146
-152
-154
-153
-155
-153
-149
-147
-143
-138
-139
-136
-125
-120
-126
-121
-99
-73
-46
-33
-63
-98
-91
-91
-106
-67
-65
-184
-344
-469
-45
1500
2869
2066
48
-718
-307
-139
-227
-157
-120
-151
-113
-80
-79
-50
-14
13
53
95
135
189
250
303
345
368
369
344
291
208
105
3
-79
-133
-166
-186
-196
-199
-197
-190
-186
-185
-178
-170
-166
-165
-161
-157
-153
-149
-148
-147
-145
-145
-149
-149
-145
-146
-146
-138
-129
-124
-119
-111
-105
-102
-99
-94
-92
-95
-92
-79
-59
-31
-5
-19
-62
-71
-66
-87
-68
-37
-112
-250
-384
-225
898
2467
2479
710
-582
-460
-142
-192
-196
-136
-148
-129
-82
-75
-60
-24
-1
27
74
116
159
219
274
304
326
352
359
328
262
168
66
-25
-96
-142
-162
-177
-192
-191
-171
-160
-164
-157
-130
-120
-135
-140
-133
-142
-148
-133
-120
-127
-140
-152
-155
-143
-132
-133
-136
-132
-130
-131
-140
-146
-130
-112
-123
-132
-111
-96
-103
-103
-88
-65
-36
-40
-83
-92
-75
-97
-102
-64
-99
-220
-370
-317
586
2105
2386
778
-683
-661
-208
-154
-157
-95
-107
-102
-54
-41
-29
3
34
70
114
159
213
275
339
404
453
474
470
427
332
202
65
-58
-149
-205
-237
-251
-251
-246
-242
-233
-221
-210
-201
-190
-176
-163
-155
-151
-149
-145
-143
-146
-152
-155
-157
-157
-153
-148
-144
-140
-137
-135
-131
-129
-124
-110
-101
-105
-98
-75
-55
-35
-23
-50
-82
-79
-91
-107
-64
-71
-196
-356
-464
64
1699
2914
1861
-146
-732
-277
-154
-235
-152
-127
-158
-116
-89
-88
-47
-6
10
41
90
140
192
253
323
388
427
429
406
357
267
142
20
-72
-138
-179
-196
-202
-209
-205
-190
-181
-176
-167
-160
-156
-145
-135
-136
-131
-122
-127
-135
-129
-130
-143
-144
-133
-132
-136
-133
-129
-132
-134
-135
-136
-126
-112
-116
-127
-112
-81
-57
-34
-34
-81
-110
-94
-101
-102
-61
-105
-253
-411
-404
398
2035
2726
1346
-311
-553
-196
-192
-238
-167
-171
-176
-131
-118
-108
-69
-41
-20
20
72
129
187
241
297
343
363
361
345
305
235
145
49
-32
-84
-114
-136
-151
-153
-149
-142
-137
-137
-132
-118
-115
-127
-132
-125
-127
-136
-133
-125
-126
-138
-148
-141
-128
-125
-129
-128
-126
-126
-118
-111
-119
-123
-111
-99
-96
-94
-88
-73
-44
-23
-55
-111
-113
-94
-109
-99
-87
-159
-292
-430
-185
1040
2426
2085
281
-757
-506
-201
-224
-198
-146
-146
-115
-96
-108
-77
-22
2
29
74
120
174
238
293
349
408
432
411
370
294
165
20
-97
-183
-236
-259
-275
-292
-288
-272
-268
-262
-243
-237
-227
-175
-126
-137
-168
-171
-166
-175
-191
-199
-194
-186
-187
-184
-177
-180
-185
-177
-167
-159
-146
-130
-125
-124
-113
-94
-70
-44
-46
-88
-107
-89
-102
-106
-53
-85
-242
-408
-429
337
2065
2911
1447
-459
-726
-205
-139
-201
-107
-98
-115
-59
-36
-32
7
42
71
117
164
216
290
372
446
510
555
570
544
469
347
199
57
-49
-110
-148
-175
-184
-180
-176
-171
-159
-149
-142
-132
-121
-110
-98
-89
-82
-75
-70
-67
-63
-60
-57
-53
-50
-50
-49
-45
-38
-35
-34
-31
-22
-15
-17
-17
2
28
46
58
49
9
-10
2
-16
-17
22
-33
-193
-367
-362
533
2301
2931
1311
-451
-587
-151
-167
-222
-139
-150
-164
-116
-106
-106
-74
-52
-33
3
45
91
148
206
262
312
339
338
313
251
145
14
-107
-197
-259
-302
-327
-339
-344
-349
-349
-345
-343
-344
-344
-343
-343
-344
-344
-346
-349
-350
-348
-349
-351
-350
-349
-349
-349
-351
-351
-343
-333
-329
-329
-330
-329
-324
-314
-305
-293
-280
-274
-272
-252
-218
-189
-175
-187
-218
-223
-215
-230
-206
-149
-200
-340
-475
-397
564
2236
2664
1036
-542
-586
-165
-158
-176
-88
-82
-68
-3
25
49
104
151
192
249
312
372
435
510
594
671
722
744
737
691
601
486
369
