# session 21
-108
-130
-65
-39
-219
-460
-511
-449
-443
-447
-413
-396
-400
-388
-368
-342
-314
-298
-288
-264
-233
-222
-220
-224
-248
-258
-235
-242
-253
-206
-218
-342
-470
-482
161
1756
2779
1681
-148
-633
-247
-182
-264
-196
-183
-205
-162
-143
-145
-114
-93
-92
-74
-48
-31
-11
13
38
61
87
124
164
197
234
288
343
386
421
450
458
436
378
285
179
89
21
-30
-61
-75
-81
-79
-72
-72
-75
-71
-64
-63
-64
-59
-52
-53
-57
-56
-52
-54
-58
-56
-52
-55
-57
-50
-44
-48
-52
-52
-55
-56
-55
-56
-58
-54
-52
-54
-52
-50
-53
-57
-56
-54
-53
-56
-61
-59
-52
-50
-53
-54
-52
-49
-48
-52
-54
-55
-55
-51
-46
-45
-42
-31
-23
-22
-9
12
16
4
-14
-43
-55
-46
-65
-76
-38
-75
-213
-339
-347
301
1867
2810
1676
-103
-553
-200
-170
-261
-201
-197
-226
-191
-171
-177
-160
-144
-138
-123
-103
-88
-74
-57
-35
-11
11
36
64
96
133
176
218
254
280
300
312
298
247
166
66
-30
-95
-130
-158
-178
-182
-175
-168
-165
-165
-163
-152
-140
-137
-140
-134
-122
-118
-117
-112
-109
-110
-108
-101
-94
-91
-91
-89
-83
-80
-85
-85
-75
-68
-72
-74
-69
-70
-72
-62
-51
-54
-57
-48
-46
-56
-55
-43
-47
-59
-51
-34
-31
-35
-37
-39
-40
-42
-43
-37
-31
-38
-45
-40
-36
-38
-35
-24
-11
-5
-3
10
31
36
20
-7
-32
-37
-34
-62
-75
-43
-74
-183
-287
-274
398
1885
2650
1462
-202
-564
-190
-114
-169
-115
-110
-132
-112
-110
-112
-87
-76
-78
-55
-29
-23
-14
11
35
56
83
109
134
170
212
252
289
323
352
371
376
355
298
203
95
0
-73
-124
-156
-177
-191
-189
-177
-171
-165
-152
-151
-159
-153
-136
-138
-147
-140
-128
-132
-142
-144
-136
-129
-134
-142
-135
-126
-131
-134
-132
-138
-141
-127
-114
-118
-125
-116
-103
-104
-106
-95
-83
-84
-86
-79
-75
-75
-68
-59
-54
-55
-59
-60
-55
-48
-44
-42
-49
-60
-60
-47
-45
-53
-57
-49
-38
-35
-35
-22
0
4
-6
-23
-49
-52
-42
-56
-45
-19
-99
-246
-365
-207
869
2496
2691
959
-482
-442
-110
-184
-215
-147
-171
-178
-137
-129
-124
-103
-97
-90
-74
-63
-53
-39
-24
-8
11
34
64
106
153
199
244
289
331
361
377
382
365
304
197
82
-4
-64
-109
-136
-146
-151
-152
-145
-136
-135
-138
-130
-119
-121
-128
-120
-107
-105
-107
-102
-94
-92
-91
-88
-89
-89
-82
-77
-81
-83
-80
-83
-85
-82
-80
-80
-76
-74
-72
-69
-67
-69
-71
-68
-65
-64
-63
-63
-63
-58
-56
-60
-61
-55
-52
-56
-58
-58
-59
-59
-58
-58
-53
-46
-41
-35
-27
-22
-11
6
9
-8
-42
-59
-43
-48
-76
-48
-39
-154
-292
-370
-50
1246
2688
2339
495
-551
-333
-136
-240
-222
-179
-215
-201
-165
-167
-156
-135
-131
-122
-100
-85
-71
-51
-29
-9
11
30
54
86
119
153
196
247
283
301
313
312
280
211
107
0
-76
-128
-173
-195
-196
-199
-197
-181
-174
-179
-175
-166
-172
-185
-186
-170
-155
-155
-161
-152
-137
-134
-139
-135
-117
-99
-96
-103
-102
-87
-75
-81
-90
-83
-70
-65
-68
-68
-60
-53
-49
-43
-36
-38
-40
-30
-22
-28
-32
-21
-9
-4
0
2
3
9
20
26
24
21
26
38
48
57
71
83
91
111
134
135
106
69
64
85
75
59
98
93
-18
-147
-202
282
1692
2788
1934
101
-582
-212
-33
-104
-68
-47
-79
-61
-45
-60
-56
-50
-73
-100
-116
-120
-107
-84
-73
-64
-46
-23
-1
18
38
65
106
152
184
200
210
200
145
50
-49
-140
-223
-285
-314
-320
-321
-322
-313
-291
-267
-257
-262
-275
-282
-272
-246
-221
-201
-181
-163
-151
-148
-142
-131
-120
-116
-116
-110
-100
-98
-102
-98
-92
-96
-101
-105
-116
-121
-119
-122
-127
-124
-119
-114
-101
-89
-86
-87
-87
-87
-90
-98
-101
-87
-62
-40
-22
-5
10
26
42
61
85
98
86
50
21
29
31
3
29
72
-16
-174
-289
-96
1053
2682
2726
850
-564
-429
-72
-150
-172
-103
-131
-140
-106
-97
-82
-61
-54
-32
-3
2
4
23
47
69
97
125
151
180
215
256
299
335
366
400
430
439
407
321
201
92
14
-44
-86
-114
-132
-151
-165
-163
-157
-160
-161
-152
-146
-156
-171
-179
-187
-197
-198
-179
-157
-150
-154
-154
-152
-150
-151
-161
-166
-150
-122
-104
-103
-115
-124
-123
-125
-133
-131
-116
-106
-104
-105
-107
-106
-98
-86
-79
-77
-69
-58
-60
-74
-81
-78
-77
-80
-82
-86
-92
-90
-82
-75
-68
-60
-50
-31
-10
-1
2
-9
-41
-48
-30
-44
-37
11
-42
-188
-305
-257
557
2223
2939
1489
-282
-532
-126
-143
-237
-177
-192
-224
-191
-186
-194
-179
-181
-193
-183
-168
-159
-141
-117
-97
-75
-44
-8
25
59
106
167
226
271
305
337
357
345
290
197
88
-7
-67
-101
-128
-149
-154
-151
-149
-144
-136
-132
-128
-120
-116
-116
-114
-105
-92
-82
-80
-75
-64
-60
-61
-53
-41
-38
-37
-34
-33
-36
-34
-22
-8
-4
-8
-4
8
13
1
-9
-5
4
10
15
-3
-66
-144
-185
-197
-221
-264
-300
-324
-326
-271
-172
-99
-72
-43
-1
22
26
29
34
44
56
47
18
7
16
15
2
-22
-58
-69
-64
-93
-106
-89
-160
-295
-401
-283
653
2210
2571
1018
-466
-512
-125
-132
-170
-108
-125
-133
-78
-41
-1
65
103
103
105
125
149
167
176
184
208
248
279
308
357
426
495
554
606
659
715
763
794
761
600
373
210
108
20
-2
15
-21
-15
106
141
-32
-238
-351
-432
-493
-484
-455
-489
-526
-469
-403
-440
-517
-555
-587
-617
-605
-557
-490
-417
-369
-357
-350
-353
-376
-380
-361
-361
-383
-437
-498
-413
-180
-80
-200
-314
-366
-451
-509
-503
-523
-514
-347
-103
58
131
198
269
301
322
382
390
267
173
236
333
355
332
290
225
153
108
89
44
5
28
-14
-189
-369
-422
179
1820
3003
1953
-43
-640
-197
-103
-265
-292
-367
-462
-430
-403
-462
-496
-442
-325
-201
-148
-196
-246
-213
-159
-153
-180
-217
-220
-169
-140
-140
-32
199
408
539
631
678
652
570
466
372
301
244
204
186
179
166
153
152
156
154
153
152
143
132
127
122
108
95
88
80
72
73
77
75
71
70
65
54
43
41
42
36
29
29
28
19
4
-12
-28
-41
-51
-58
-63
-74
-93
-104
-104
-107
-116
-119
-121
-128
-133
-130
-128
-124
-111
-100
-103
-108
-97
-83
-80
-85
-85
-81
-82
-84
-84
-89
-99
-97
-80
-67
-64
-59
-43
-32
-43
-72
-108
-125
-105
-108
-139
-111
-102
-225
-369
-444
-117
1213
2709
2350
425
-656
-409
-204
-329
-312
-262
-300
-288
-253
-258
-251
-233
-225
-208
-189
-182
-173
-152
-127
-106
-89
-70
-44
-11
24
61
103
147
183
213
235
239
216
160
71
-31
-118
-180
-220
-243
-258
-268
-266
-257
-248
-241
-235
-235
-234
-223
-210
-208
-210
-203
-192
-186
-178
-161
-155
-158
-153
-144
-141
-134
-127
-131
-131
-112
-99
-101
-96
-87
-85
-77
-65
-58
-51
-41
-34
-26
-12
-4
0
10
21
30
43
54
62
71
81
89
101
117
130
132
134
144
160
175
186
196
213
231
244
253
267
283
298
308
300
279
285
316
331
347
365
325
289
327
312
197
83
133
902
2429
3063
1709
54
-197
205
231
138
182
191
165
150
111
83
82
53
-23
-115
-185
-216
-244
-302
-346
-339
-318
-325
-350
-359
-338
-300
-264
-236
-214
-182
-133
-108
-159
-266
-367
-438
-490
-513
-510
-506
-499
-481
-461
-438
-412
-404
-411
-406
-394
-396
-405
-401
-379
-347
-320
-300
-264
-217
-186
-168
-152
-147
-147
-137
-117
-93
-83
-94
-97
-71
-41
-33
-31
-28
-25
-17
-7
-5
-1
16
34
39
44
59
74
80
84
90
93
99
107
103
86
74
76
81
79
74
73
68
58
52
61
73
81
87
97
108
106
83
50
18
-10
-20
3
23
18
18
9
-19
-2
3
-106
-246
-338
-52
1253
2837
2612
663
-556
-342
-86
-217
-238
-198
-247
-257
-246
-278
-296
-289
-297
-314
-324
-327
-324
-313
-284
-247
-218
-191
-153
-102
-30
61
150
231
314
388
436
472
497
479
406
312
236
185
147
119
103
97
97
105
111
102
86
76
76
80
81
75
69
64
57
55
59
60
53
41
28
17
10
5
-1
-5
-12
-24
-32
-34
-39
-49
-55
-57
-65
-75
-78
-81
-89
-97
-104
-111
-111
-107
-112
-118
-118
-119
-125
-126
-124
-122
-123
-128
-129
-125
-125
-128
-127
-126
-129
-133
-131
-127
-128
-131
-129
-121
-116
-115
-112
-107
-110
-127
-137
-123
-113
-121
-118
-123
-143
-110
-92
-197
-330
-410
-147
1067
2568
2397
588
-577
-406
-162
-255
-254
-209
-242
-232
-206
-221
-216
-192
-182
-159
-128
-115
-99
-73
-65
-69
-59
-39
-8
32
66
100
153
201
227
255
283
284
259
222
163
78
-15
-86
-125
-145
-163
-177
-180
-174
-170
-170
-164
-154
-148
-141
-136
-140
-137
-119
-109
-114
-111
-98
-89
-85
-85
-88
-85
-75
-68
-62
-54
-49
-53
-52
-36
-24
-26
-30
-25
-17
-11
-9
-11
-8
1
12
15
8
10
26
36
30
26
35
43
41
41
51
61
63
64
68
72
76
76
77
85
96
102
113
129
137
127
116
124
138
136
138
149
127
115
166
160
44
-67
-82
432
1802
2789
1901
167
-434
-92
44
-39
-31
-61
-145
-179
-212
-262
-289
-304
-333
-379
-398
-347
-277
-255
-237
-184
-134
-99
-61
-34
-13
24
62
96
141
183
208
223
216
162
76
-23
-126
-202
-236
-250
-264
-275
-280
-280
-278
-281
-284
-284
-282
-265
-227
-197
-185
-176
-169
-168
-157
-132
-114
-107
-99
-87
-83
-88
-90
-81
-71
-70
-75
-70
-56
-50
-61
-75
-80
-79
-77
-71
-68
-70
-66
-58
-57
-61
-62
-61
-62
-60
-57
-55
-57
-53
-32
2
31
44
47
52
68
84
85
79
72
65
60
61
65
70
69
57
43
45
51
36
29
37
9
-10
27
-6
-139
-266
-254
450
2021
2855
1608
-162
-538
-153
-124
-215
-161
-170
-202
-169
-167
-192
-186
-185
-196
-188
-178
-183
-182
-175
-183
-192
-169
-110
-38
36
110
175
228
279
326
363
387
395
377
326
240
139
54
-4
-38
-59
-74
-83
-83
-75
-71
-71
-69
-66
-67
-68
-67
-68
-70
-68
-66
-71
-75
-72
-70
-71
-74
-77
-82
-85
-86
-84
-84
-87
-89
-87
-90
-93
-90
-88
-93
-95
-93
-91
-88
-86
-93
-99
-94
-86
-86
-90
-87
-83
-84
-85
-82
-80
-83
-85
-79
-77
-78
-74
-66
-59
-51
-44
-35
-19
-6
-12
-39
-72
-76
-67
-89
-87
-52
-111
-240
-341
-264
574
2136
2676
1240
-340
-511
-161
-187
-249
-185
-195
-209
-170
-160
-160
-141
-132
-121
-98
-83
-70
-49
-29
-6
17
36
57
84
114
153
198
232
267
309
325
309
295
270
201
104
16
-50
-98
-132
-150
-158
-163
-158
-142
-139
-154
-154
-135
-130
-137
-132
-116
-107
-107
-106
-105
-102
-96
-91
-93
-100
-102
-94
-82
-81
-90
-94
-87
-79
-73
-70
-68
-63
-63
-70
-68
-53
-50
-59
-57
-43
-40
-49
-55
-52
-46
-40
-41
-45
-43
-35
-29
-32
-32
-24
-13
-2
12
28
34
20
-8
-31
-32
-38
-58
-41
-23
-96
-204
-298
-167
801
2273
2435
844
-496
-476
-139
-163
-196
-149
-160
-159
-128
-125
-125
-108
-88
-67
-53
-45
-32
-17
-2
16
34
59
102
138
160
195
244
279
306
339
368
378
362
300
192
84
-3
-80
-142
-172
-182
-187
-189
-195
-198
-188
-172
-166
-165
-158
-152
-151
-153
-161
-166
-156
-139
-141
-154
-155
-146
-141
-138
-133
-135
-138
-134
-131
-132
-130
-124
-117
-111
-109
-112
-110
-99
-93
-94
-96
-99
-100
-93
-83
-84
-85
-73
-62
-60
-53
-35
-21
-15
-12
-30
-69
-76
-59
-80
-87
-36
-69
-213
-353
-362
339
1970
2865
1585
-252
-620
-182
-130
-217
-154
-155
-181
-135
-113
-117
-95
-79
-75
-58
-36
-16
4
22
40
69
98
125
158
196
231
269
317
366
406
436
451
432
361
246
124
21
-60
-119
-157
-184
-199
-198
-192
-184
-177
-175
-174
-167
-161
-155
-147
-144
-140
-124
-110
-110
-109
-101
-97
-96
-90
-91
-101
-104
-92
-85
-88
-90
-86
-85
-86
-84
-85
-83
-73
-69
-76
-81
-77
-78
-82
-84
-89
-86
-74
-78
-102
-109
-100
-99
-102
-94
-79
-66
-70
-87
-75
-32
-13
-25
-36
-64
-98
-85
-77
-106
-81
-67
-188
-336
-417
-63
1376
2962
2538
510
-562
-289
-119
-243
-199
-183
-241
-150
-61
-137
-208
-164
-115
-114
-101
-62
-38
-31
-11
19
43
75
102
112
156
245
299
307
316
322
364
469
477
304
114
-4
-108
-163
-148
-148
-173
-176
-167
-166
-171
-172
-140
-112
-148
-185
-164
-139
-130
-110
-109
-122
-113
-108
-107
-87
-94
-140
-146
-106
-90
-97
-96
-102
-107
-85
-79
-116
-133
-107
-95
-106
-102
-82
-71
-77
-85
-75
-58
-62
-73
-68
-69
-79
-66
-48
-56
-63
-61
-68
-60
-31
-24
-39
-36
-2
39
59
60
48
15
-1
32
59
70
83
19
-115
-210
-53
867
2314
2557
932
-570
-527
-10
28
-2
102
72
