# session 36
2
2
8
46
77
62
49
74
103
126
161
201
236
277
320
358
385
399
384
331
243
135
33
-39
-86
-119
-137
-142
-142
-147
-149
-137
-120
-117
-123
-120
-110
-103
-96
-89
-90
-90
-83
-76
-69
-67
-72
-71
-61
-58
-61
-57
-54
-55
-52
-53
-59
-55
-42
-43
-56
-56
-47
-45
-46
-42
-42
-45
-39
-36
-43
-48
-45
-42
-40
-40
-42
-43
-44
-45
-44
-44
-44
-39
-34
-34
-34
-28
-18
-5
9
20
19
9
-14
-50
-57
-27
-34
-65
-38
-41
-139
-242
-319
29
1342
2570
1938
157
-603
-278
-97
-167
-138
-123
-153
-125
-99
-104
-95
-82
-73
-58
-46
-36
-16
-2
3
15
36
64
91
112
141
185
228
262
297
332
361
384
390
348
250
124
7
-85
-148
-191
-221
-234
-234
-233
-231
-215
-199
-200
-204
-195
-183
-177
-171
-163
-159
-161
-163
-159
-150
-140
-131
-128
-128
-125
-117
-114
-115
-113
-109
-104
-95
-89
-95
-99
-94
-88
-84
-81
-79
-77
-78
-78
-70
-60
-59
-61
-57
-53
-52
-51
-51
-53
-48
-38
-33
-29
-22
-13
2
22
26
9
-13
-35
-51
-39
-33
-57
-42
-17
-100
-234
-353
-223
835
2430
2562
837
-500
-386
-62
-150
-176
-111
-141
-146
-109
-108
-101
-76
-70
-62
-39
-24
-16
2
21
36
55
76
95
115
144
180
217
256
299
339
372
398
406
372
289
174
55
-41
-108
-157
-189
-204
-208
-211
-210
-202
-195
-194
-193
-188
-180
-170
-162
-157
-150
-140
-135
-133
-129
-123
-121
-118
-114
-112
-111
-107
-104
-103
-102
-101
-101
-100
-92
-86
-86
-85
-79
-74
-74
-74
-71
-70
-70
-67
-61
-59
-62
-60
-57
-58
-57
-54
-54
-55
-51
-47
-47
-47
-47
-48
-48
-43
-36
-27
-18
-8
5
23
32
23
5
-17
-39
-36
-28
-52
-46
-8
-65
-192
-296
-252
531
2065
2638
1272
-254
-417
-83
-115
-176
-118
-135
-152
-116
-111
-112
-86
-71
-66
-50
-37
-28
-13
4
19
33
52
75
99
122
149
184
222
259
294
326
350
362
356
310
214
99
-2
-80
-137
-170
-186
-193
-193
-191
-191
-190
-183
-178
-176
-170
-164
-161
-156
-142
-134
-136
-134
-131
-137
-141
-133
-124
-120
-115
-110
-109
-108
-105
-100
-94
-90
-88
-90
-93
-87
-77
-76
-79
-77
-75
-73
-68
-64
-64
-64
-68
-72
-66
-61
-63
-66
-65
-63
-59
-58
-59
-58
-59
-62
-48
-26
-28
-37
-18
12
24
19
8
-11
-37
-48
-35
-40
-66
-44
-29
-108
-209
-290
-58
1077
2420
2148
436
-571
-346
-88
-146
-132
-95
-129
-122
-92
-93
-78
-51
-47
-42
-15
7
13
17
32
51
71
93
112
130
155
188
227
268
306
335
359
386
399
365
284
187
82
-28
-114
-161
-183
-196
-203
-212
-218
-210
-192
-183
-185
-186
-181
-176
-176
-175
-170
-164
-159
-156
-152
-148
-144
-141
-141
-136
-124
-119
-126
-127
-117
-114
-118
-113
-105
-107
-108
-101
-96
-98
-97
-87
-79
-80
-83
-83
-83
-84
-75
-66
-69
-70
-54
-43
-47
-44
-23
1
16
14
-4
-25
-46
-51
-37
-49
-58
-20
-48
-177
-305
-344
227
1751
2772
1726
-76
-560
-160
-83
-173
-116
-111
-154
-134
-116
-117
-106
-107
-108
-87
-67
-53
-34
-18
-4
18
45
72
102
136
170
204
242
285
330
366
390
407
401
343
242
124
12
-77
-132
-166
-191
-203
-205
-204
-203
-197
-190
-183
-174
-168
-169
-163
-152
-148
-148
-141
-136
-136
-133
-127
-123
-121
-119
-116
-111
-108
-105
-100
-99
-100
-99
-94
-89
-85
-85
-87
-85
-83
-81
-79
-76
-76
-76
-72
-72
-72
-70
-68
-65
-60
-58
-61
-56
-47
-40
-34
-25
-11
7
16
10
-6
-31
-54
-48
-36
-60
-53
-16
-84
-217
-318
-245
607
2171
2648
1171
-339
-427
-80
-131
-187
-122
-144
-161
-119
-108
-107
-85
-77
-73
-54
-37
-27
-13
5
21
37
57
81
105
129
159
195
232
268
303
333
355
366
353
299
201
88
-14
-89
-140
-172
-191
-198
-195
-189
-187
-184
-179
-177
-176
-171
-164
-159
-155
-151
-147
-144
-137
-128
-125
-126
-123
-115
-112
-112
-108
-103
-102
-100
-97
-95
-91
-87
-87
-88
-85
-80
-77
-75
-73
-72
-70
-67
-63
-62
-60
-55
-52
-55
-57
-55
-53
-51
-48
-49
-55
-52
-38
-25
-16
-6
9
17
12
3
-15
-46
-53
-37
-56
-63
-26
-65
-180
-282
-295
333
1823
2629
1463
-166
-483
-127
-110
-183
-128
-133
-155
-123
-115
-114
-84
-71
-73
-60
-40
-24
-13
-5
10
31
49
67
90
113
142
177
208
242
280
310
333
351
343
297
212
100
-8
-83
-139
-180
-196
-199
-205
-205
-197
-190
-183
-177
-180
-181
-172
-166
-161
-153
-151
-152
-146
-139
-140
-140
-131
-121
-114
-114
-119
-120
-114
-100
-90
-95
-100
-92
-83
-86
-90
-86
-81
-76
-70
-70
-79
-81
-72
-64
-60
-54
-50
-46
-38
-29
-24
-16
3
24
25
8
-13
-36
-47
-40
-51
-56
-17
-35
-145
-252
-291
210
1634
2672
1732
-56
-612
-214
-79
-158
-117
-105
-131
-100
-78
-82
-82
-94
-102
-81
-62
-56
-43
-26
-10
20
56
75
91
127
172
211
252
298
341
375
398
408
394
329
212
83
-21
-101
-162
-198
-215
-225
-231
-228
-219
-213
-212
-207
-193
-186
-186
-181
-170
-163
-163
-163
-160
-151
-139
-138
-145
-142
-131
-127
-127
-124
-123
-121
-112
-106
-108
-107
-103
-101
-98
-94
-93
-92
-83
-78
-82
-83
-77
-69
-66
-66
-64
-61
-62
-59
-47
-36
-34
-31
-17
3
21
23
10
-9
-31
-38
-24
-33
-58
-23
-12
-123
-253
-353
-100
1167
2674
2381
506
-555
-280
-43
-160
-153
-104
-134
-122
-98
-105
-84
-58
-57
-46
-25
-17
-7
11
26
40
60
82
104
127
153
180
213
254
297
336
367
389
385
341
255
142
24
-72
-136
-174
-198
-212
-217
-219
-218
-216
-209
-200
-192
-189
-184
-174
-168
-166
-161
-152
-146
-141
-135
-132
-130
-125
-118
-116
-115
-111
-109
-108
-106
-104
-102
-100
-99
-99
-93
-89
-90
-90
-86
-82
-81
-78
-75
-73
-68
-62
-59
-57
-55
-52
-47
-45
-47
-48
-46
-48
-46
-34
-26
-25
-19
0
21
27
16
2
-21
-45
-39
-30
-55
-46
-15
-89
-223
-331
-233
701
2260
2582
1022
-384
-389
-69
-138
-182
-123
-147
-154
-115
-114
-112
-88
-80
-74
-52
-36
-27
-13
1
16
37
57
74
94
123
160
199
235
266
296
329
358
370
352
291
187
68
-31
-98
-138
-161
-177
-189
-195
-196
-192
-182
-175
-174
-170
-163
-162
-158
-147
-146
-153
-147
-131
-122
-122
-121
-120
-122
-121
-109
-98
-98
-102
-98
-93
-89
-85
-83
-81
-81
-80
-74
-68
-70
-75
-72
-68
-67
-64
-57
-57
-60
-58
-56
-59
-58
-51
-49
-54
-56
-47
-41
-48
-50
-34
-25
-24
-9
6
7
15
21
5
-21
-40
-40
-29
-50
-62
-25
-51
-161
-255
-282
220
1615
2591
1642
-72
-578
-202
-86
-156
-112
-100
-127
-109
-89
-72
-52
-53
-51
-28
-15
-6
15
33
45
63
78
91
116
146
173
208
255
308
349
369
388
419
424
366
260
139
25
-70
-145
-197
-218
-221
-224
-223
-225
-235
-227
-202
-197
-211
-214
-211
-202
-191
-193
-190
-169
-168
-189
-185
-164
-166
-173
-162
-157
-163
-155
-144
-151
-156
-141
-135
-143
-136
-120
-123
-133
-125
-109
-110
-125
-132
-125
-114
-109
-115
-116
-101
-88
-90
-86
-67
-52
-41
-17
0
-8
-25
-40
-39
-20
-33
-56
-9
-4
-123
-230
-285
74
1476
2827
2068
11
-748
-220
11
-109
-67
-46
-98
-68
-44
-59
-36
-7
-5
10
28
29
42
77
98
95
94
116
153
181
204
247
307
367
422
460
488
529
529
423
290
193
50
-107
-125
-85
-160
-274
-296
-277
-280
-279
-261
-265
-307
-336
-303
-247
-228
-231
-201
-160
-167
-186
-162
-144
-156
-157
-151
-158
-162
-174
-177
-108
-41
-104
-205
-194
-139
-140
-147
-128
-121
-125
-117
-106
-100
-96
-89
-87
-92
-81
-59
-62
-79
-91
-94
-54
15
12
-51
-48
4
8
-12
-16
-34
-41
-19
-34
-46
4
-28
-171
-280
-298
272
1811
2789
1568
-341
-698
-138
-45
-165
-99
-82
-118
-88
-74
-76
-51
-41
-43
-21
0
5
17
36
49
68
97
123
142
164
196
243
294
342
410
482
499
474
447
384
254
112
-2
-95
-167
-214
-241
-254
-252
-241
-241
-254
-249
-231
-226
-217
-193
-178
-174
-163
-155
-149
-139
-134
-138
-139
-135
-128
-122
-122
-126
-129
-124
-111
-104
-107
-107
-103
-106
-102
-93
-94
-92
-75
-63
-59
-53
-58
-75
-81
-72
-67
-66
-65
-66
-70
-67
-58
-57
-68
-71
-63
-53
-44
-38
-34
-26
-15
-2
12
19
8
-19
-46
-46
-28
-51
-72
-21
-30
-163
-293
-352
132
1618
2766
1824
-49
-610
-181
-76
-179
-123
-113
-147
-111
-94
-104
-80
-59
-54
-38
-22
-14
-2
16
37
57
72
89
115
140
167
205
244
274
310
356
390
408
411
380
296
173
53
-41
-113
-171
-200
-204
-204
-204
-201
-198
-192
-182
-177
-178
-174
-163
-155
-153
-155
-155
-149
-139
-135
-136
-131
-124
-125
-130
-127
-118
-114
-113
-114
-112
-106
-96
-92
-95
-98
-97
-93
-88
-82
-78
-82
-88
-85
-77
-76
-79
-76
-72
-71
-69
-68
-68
-65
-62
-64
-61
-46
-37
-39
-35
-20
-1
9
1
-16
-37
-58
-55
-46
-68
-61
-31
-100
-236
-350
-234
735
2283
2512
864
-524
-447
-88
-155
-183
-110
-138
-148
-108
-105
-98
-70
-68
-62
-31
-16
-22
-16
7
33
54
71
91
117
140
165
200
236
265
295
326
345
353
342
293
205
102
5
-76
-134
-171
-192
-201
-201
-197
-193
-190
-184
-176
-167
-156
-149
-143
-135
-133
-137
-134
-123
-115
-108
-99
-94
-95
-92
-84
-76
-67
-61
-58
-52
-46
-53
-59
-53
-47
-51
-57
-54
-46
-44
-52
-56
-49
-41
-42
-54
-63
-62
-54
-48
-46
-48
-43
-27
-12
-4
-1
-12
-32
-49
-67
-75
-71
-82
-73
-49
-100
-194
-269
-184
615
2009
2325
844
-582
-605
-179
-146
-180
-125
-136
-142
-106
-100
-101
-83
-72
-59
-34
-18
-7
12
30
40
50
67
91
116
141
177
217
247
279
325
359
379
401
393
318
206
84
-51
-158
-199
-219
-250
-262
-258
-265
-268
-254
-239
-217
-197
-213
-236
-212
-171
-176
-205
-195
-153
-135
-152
-161
-142
-128
-139
-141
-114
-99
-109
-112
-109
-120
-112
-80
-74
-92
-94
-84
-71
-52
-51
-58
-40
-10
18
40
31
-5
-28
-38
-41
-32
-36
-40
-29
-65
-152
-210
-108
532
1658
1993
756
-656
-816
-320
-121
-109
-44
-22
-32
-15
-11
-10
21
51
58
62
84
117
137
140
155
184
206
226
259
296
333
372
407
446
485
510
528
530
473
351
200
47
-86
-175
-230
-275
-301
-300
-300
-308
-302
-282
-274
-273
-264
-252
-244
-240
-230
-215
-211
-220
-218
-199
-190
-191
-191
-192
-190
-182
-180
-184
-181
-170
-158
-158
-164
-157
-141
-135
-138
-129
-110
-98
-100
-104
-90
-62
-45
-51
-64
-80
-100
-100
-90
-110
-104
-61
-111
-237
-333
-237
633
2190
2608
1002
-602
-635
-154
-125
-162
-94
-114
-123
-71
-63
-72
-52
-40
-35
-14
5
14
26
50
74
95
114
130
152
187
225
261
307
359
400
434
467
480
444
350
215
78
-34
-115
-170
-200
-215
-219
-217
-214
-211
-205
-193
-181
-175
-174
-173
-168
-161
-161
-165
-160
-151
-151
-151
-144
-138
-139
-134
-129
-131
-131
-125
-120
-119
-116
-110
-108
-109
-102
-94
-96
-98
-89
-81
-82
-75
-56
-37
-32
-34
-38
-62
-87
-72
-63
-92
-67
-35
-135
-282
-374
-126
1116
2682
2472
533
-647
-378
-87
-183
-172
-128
-167
-148
-116
-129
-112
-77
-70
-61
-47
-48
-45
-16
13
22
30
48
68
96
133
164
191
237
289
321
337
353
357
325
241
120
1
-95
-167
-207
-219
-226
-225
-210
-202
-200
-194
-191
-185
-174
-176
-178
-167
-167
-177
-166
-149
-154
-159
-148
-137
-130
-126
-126
-123
-115
-109
-106
-107
-107
-101
-103
-108
-94
-80
-97
-110
-83
-53
-40
-33
-38
-62
-92
-104
-93
-99
-118
-83
-69
-174
-305
-382
-62
1213
2566
2113
268
-676
-367
-122
-197
-173
-139
-172
-151
-126
-137
-105
-50
-52
-81
-68
-34
-22
-17
5
34
56
75
102
131
159
199
245
278
309
352
384
399
401
359
260
147
53
-26
-86
-117
-131
-138
-141
-140
-133
-123
-117
-118
-121
-119
-108
-106
-124
-129
-106
-103
-133
-146
-131
-121
-122
-121
-114
-105
-104
-108
-103
-95
-98
-106
-111
-117
-114
-103
-99
-100
-93
-73
-45
-29
-42
-70
-95
-105
-94
-91
-105
-85
-80
-166
-264
-332
-122
934
2277
2138
503
-575
-407
-126
-173
-181
-141
-153
-141
-121
-123
-108
-88
-79
-57
-36
-37
-30
-4
15
31
60
87
103
126
154
179
215
262
295
315
334
342
332
296
211
89
-23
-104
-160
-195
-218
-232
-230
-217
-212
-216
-217
-209
-198
-194
-194
-186
-173
-175
-182
-179
-172
-170
-166
-162
-162
-158
-146
-141
-148
-150
-143
-138
-132
-117
-109
-117
-113
-84
-56
-44
-36
-42
-62
-78
-85
-75
-59
-73
-82
-54
-82
-170
-227
-127
580
1871
2298
989
-492
-662
-225
-107
-111
-47
-49
-65
-31
-12
-7
14
30
36
45
59
73
86
