# session 41
-19
-1
-62
115
530
749
722
734
802
807
784
749
629
438
266
147
48
-28
-60
-75
-95
-103
-100
-106
-111
-100
-98
-114
-118
-109
-116
-126
-113
-105
-117
-123
-122
-130
-128
-111
-116
-132
-119
-102
-108
-114
-103
-95
-96
-100
-104
-104
-101
-97
-89
-82
-76
-66
-50
-29
-8
-9
-42
-79
-93
-88
-84
-111
-124
-62
-59
-207
-349
-423
-24
1599
3333
2718
314
-874
-436
-122
-221
-173
-130
-188
-157
-115
-138
-127
-83
-65
-53
-27
-11
-5
21
60
76
86
128
181
206
232
292
353
388
422
464
489
479
423
307
158
14
-108
-198
-248
-272
-290
-297
-294
-291
-286
-275
-262
-245
-236
-246
-255
-244
-236
-240
-237
-231
-233
-226
-214
-214
-209
-191
-185
-199
-196
-173
-168
-182
-177
-160
-165
-177
-162
-139
-133
-131
-124
-117
-111
-100
-83
-59
-45
-53
-64
-62
-78
-114
-110
-88
-116
-112
-63
-145
-326
-442
-294
787
2668
3177
1278
-616
-665
-140
-160
-224
-130
-148
-175
-128
-120
-127
-89
-50
-39
-39
-32
-17
6
42
82
104
121
159
212
258
297
330
352
395
455
478
490
514
424
197
38
-5
-77
-161
-173
-175
-214
-236
-236
-238
-215
-174
-182
-223
-204
-139
-141
-193
-182
-139
-157
-180
-141
-119
-162
-179
-139
-124
-144
-128
-105
-126
-146
-141
-147
-137
-104
-101
-115
-128
-167
-172
-96
-64
-105
-76
-6
-28
-77
-73
-68
-79
-94
-129
-152
-132
-88
-70
-136
-252
-392
-333
669
2452
2955
1223
-569
-683
-169
-126
-208
-161
-162
-159
-104
-93
-91
-64
-70
-86
-52
-9
4
8
30
74
119
140
156
195
237
272
326
374
402
463
523
496
434
382
255
63
-80
-147
-179
-223
-285
-293
-234
-217
-268
-295
-261
-224
-235
-260
-247
-212
-199
-202
-181
-164
-212
-264
-228
-179
-194
-191
-150
-170
-217
-186
-137
-141
-139
-131
-152
-153
-151
-185
-176
-98
-58
-76
-84
-63
-45
-79
-138
-115
-49
-91
-153
-95
-87
-213
-317
-343
138
1641
2915
2082
38
-855
-506
-201
-162
-117
-124
-145
-102
-84
-98
-76
-47
-46
-32
8
25
23
59
121
156
167
188
233
285
323
355
413
495
566
609
616
565
435
265
121
-7
-161
-276
-283
-257
-282
-312
-301
-285
-284
-281
-269
-259
-254
-246
-229
-226
-234
-232
-222
-221
-215
-203
-200
-199
-186
-175
-178
-177
-162
-154
-164
-164
-146
-146
-156
-134
-109
-121
-125
-92
-60
-46
-43
-58
-74
-94
-124
-118
-95
-118
-105
-68
-179
-361
-475
-250
1099
3081
3174
905
-784
-556
-102
-208
-217
-116
-159
-170
-127
-130
-119
-86
-80
-66
-36
-21
0
33
51
72
119
159
182
220
276
331
388
445
488
515
538
540
477
337
165
12
-109
-197
-250
-280
-294
-283
-261
-262
-275
-267
-255
-253
-247
-244
-248
-242
-228
-223
-225
-222
-215
-213
-213
-204
-192
-190
-192
-183
-174
-171
-168
-165
-164
-160
-153
-143
-136
-136
-135
-124
-118
-118
-104
-79
-60
-41
-34
-51
-69
-83
-99
-92
-88
-114
-89
-52
-159
-331
-437
-195
1088
2874
2912
855
-688
-527
-109
-170
-195
-127
-147
-140
-103
-107
-95
-68
-63
-52
-26
-8
14
42
62
81
114
150
183
217
261
309
360
412
458
492
513
508
455
352
210
62
-57
-138
-195
-227
-235
-236
-242
-239
-229
-224
-224
-222
-216
-206
-200
-203
-202
-194
-190
-196
-197
-185
-174
-176
-176
-167
-159
-156
-151
-144
-141
-137
-131
-127
-126
-131
-133
-120
-109
-114
-115
-106
-101
-103
-97
-92
-93
-77
-47
-31
-25
-20
-33
-69
-101
-97
-81
-104
-108
-63
-113
-263
-389
-399
322
2083
3122
1778
-295
-784
-269
-122
-197
-146
-147
-172
-122
-91
-99
-91
-76
-55
-27
-7
3
19
44
70
90
113
149
193
243
300
349
391
444
490
511
523
522
455
311
146
-2
-118
-190
-227
-251
-264
-266
-272
-274
-259
-243
-241
-235
-221
-220
-230
-231
-232
-235
-222
-202
-200
-203
-197
-195
-197
-187
-171
-166
-166
-163
-157
-155
-156
-152
-141
-137
-138
-134
-121
-113
-119
-119
-104
-84
-64
-39
-25
-42
-66
-85
-104
-98
-80
-102
-107
-68
-115
-248
-366
-283
633
2314
2849
1209
-584
-769
-269
-154
-164
-103
-113
-116
-73
-63
-59
-36
-30
-20
13
35
44
63
93
120
146
176
211
254
307
360
414
472
518
548
576
590
545
424
260
88
-62
-164
-220
-261
-291
-297
-289
-286
-284
-277
-270
-262
-254
-247
-242
-239
-236
-228
-217
-210
-208
-208
-208
-203
-197
-194
-192
-187
-186
-187
-179
-164
-153
-151
-152
-152
-151
-148
-142
-139
-136
-125
-112
-112
-112
-93
-65
-47
-40
-44
-56
-84
-112
-99
-85
-123
-108
-45
-142
-345
-481
-332
857
2881
3332
1243
-684
-649
-126
-181
-228
-128
-157
-172
-116
-113
-117
-84
-63
-48
-24
-4
18
46
66
86
118
152
186
232
289
342
394
448
498
540
576
584
531
408
240
69
-69
-163
-230
-277
-295
-293
-289
-293
-293
-283
-275
-271
-260
-246
-245
-244
-232
-223
-223
-219
-213
-217
-220
-207
-188
-187
-194
-189
-176
-168
-165
-160
-156
-152
-149
-149
-147
-144
-142
-133
-121
-120
-124
-115
-105
-107
-103
-84
-72
-73
-67
-47
-19
-4
-10
-18
-34
-67
-63
-35
-60
-64
-15
-94
-287
-423
-280
852
2817
3312
1300
-631
-620
-83
-142
-213
-114
-139
-162
-110
-106
-109
-78
-61
-46
-19
-4
11
38
63
88
125
162
190
222
268
320
371
422
470
507
532
541
506
402
247
85
-54
-157
-224
-265
-286
-290
-288
-291
-296
-290
-276
-267
-263
-255
-245
-240
-234
-224
-220
-219
-210
-198
-195
-196
-190
-188
-188
-182
-172
-166
-161
-159
-162
-161
-154
-148
-139
-129
-127
-127
-123
-121
-118
-111
-104
-104
-105
-103
-96
-89
-85
-81
-70
-56
-38
-17
-2
-7
-19
-32
-61
-80
-61
-63
-86
-44
-42
-188
-349
-420
30
1615
3180
2526
317
-734
-346
-92
-198
-163
-116
-153
-128
-93
-101
-88
-63
-52
-33
-9
2
15
43
70
89
114
149
180
213
260
313
362
409
453
485
510
517
475
369
224
78
-44
-129
-183
-219
-240
-246
-243
-239
-238
-237
-234
-229
-225
-219
-212
-208
-205
-199
-201
-210
-204
-188
-185
-187
-175
-167
-167
-163
-159
-165
-166
-159
-158
-156
-140
-131
-136
-138
-131
-125
-122
-123
-123
-116
-108
-107
-111
-111
-103
-93
-87
-72
-47
-33
-31
-32
-36
-48
-70
-85
-71
-76
-109
-80
-47
-151
-309
-423
-201
1068
2800
2770
740
-723
-543
-132
-169
-174
-115
-149
-141
-91
-94
-95
-63
-44
-36
-15
7
20
36
63
91
110
139
184
230
270
312
359
413
465
502
526
539
511
413
267
112
-25
-128
-194
-236
-258
-264
-263
-258
-250
-240
-240
-242
-235
-231
-234
-227
-211
-205
-206
-203
-199
-197
-190
-183
-180
-179
-176
-168
-159
-158
-160
-151
-143
-144
-143
-136
-132
-130
-123
-119
-117
-111
-109
-111
-108
-97
-89
-84
-75
-60
-38
-17
-15
-32
-52
-72
-87
-77
-75
-105
-85
-42
-125
-279
-397
-239
866
2568
2789
940
-659
-630
-176
-153
-168
-108
-132
-137
-89
-80
-77
-50
-35
-31
-13
11
36
56
72
97
131
163
197
236
278
324
381
439
485
522
555
565
521
412
254
91
-36
-130
-202
-245
-262
-272
-275
-267
-262
-259
-249
-238
-233
-232
-230
-225
-216
-211
-208
-204
-200
-198
-191
-186
-185
-180
-173
-169
-163
-156
-152
-149
-144
-140
-134
-129
-128
-126
-119
-112
-110
-112
-111
-101
-91
-92
-94
-90
-91
-97
-89
-72
-70
-74
-59
-31
-9
-3
-13
-26
-44
-72
-74
-58
-76
-71
-24
-92
-266
-405
-323
634
2456
3139
1481
-419
-629
-148
-128
-201
-127
-137
-158
-112
-104
-110
-79
-57
-49
-31
-13
3
24
43
64
92
121
153
191
231
276
323
369
413
451
482
502
487
412
286
138
4
-98
-171
-218
-239
-246
-255
-257
-250
-245
-240
-234
-230
-228
-222
-213
-207
-206
-206
-201
-194
-189
-188
-184
-177
-173
-171
-168
-161
-157
-154
-149
-143
-141
-138
-131
-128
-130
-129
-119
-114
-117
-113
-104
-100
-101
-99
-96
-98
-102
-95
-79
-74
-80
-69
-38
-14
-11
-19
-29
-45
-72
-77
-61
-83
-98
-46
-73
-226
-360
-348
354
2043
3094
1865
-148
-675
-209
-90
-185
-132
-110
-126
-95
-90
-93
-63
-48
-48
-28
-8
1
18
41
61
87
126
167
203
237
279
334
390
441
491
540
561
538
472
350
178
19
-85
-159
-223
-262
-279
-286
-286
-280
-266
-247
-249
-260
-252
-238
-239
-235
-220
-215
-215
-212
-208
-201
-188
-180
-179
-181
-183
-179
-164
-152
-156
-167
-158
-137
-134
-142
-137
-129
-123
-116
-117
-123
-121
-116
-112
-107
-105
-101
-85
-73
-75
-73
-44
-13
-17
-40
-58
-80
-92
-75
-81
-102
-70
-72
-185
-319
-358
184
1715
2910
1986
-35
-814
-395
-137
-169
-121
-97
-126
-101
-72
-67
-46
-25
-16
0
26
47
62
78
102
132
166
207
252
302
361
420
473
532
595
641
661
642
555
392
195
20
-112
-208
-274
-312
-327
-332
-332
-327
-315
-304
-297
-293
-283
-267
-252
-247
-249
-249
-238
-230
-227
-220
-209
-207
-204
-197
-196
-200
-192
-178
-171
-171
-170
-165
-158
-153
-150
-145
-138
-133
-132
-138
-143
-132
-106
-95
-105
-107
-84
-52
-30
-28
-42
-54
-67
-92
-91
-73
-94
-92
-51
-131
-302
-428
-319
738
2649
3209
1335
-573
-652
-144
-155
-208
-118
-138
-160
-113
-104
-103
-69
-48
-36
-12
7
23
49
78
104
130
161
199
246
296
349
411
476
537
588
623
631
590
478
305
120
-35
-146
-215
-251
-280
-303
-300
-281
-276
-280
-272
-263
-260
-250
-239
-235
-231
-217
-205
-205
-205
-196
-188
-186
-183
-181
-181
-177
-167
-162
-162
-159
-151
-146
-143
-139
-134
-133
-133
-128
-118
-114
-115
-115
-112
-111
-111
-103
-94
-95
-98
-96
-92
-83
-67
-61
-62
-47
-18
-4
-13
-26
-34
-55
-69
-50
-58
-89
-47
-44
-204
-376
-455
-15
1625
3309
2674
347
-769
-348
-83
-213
-181
-130
-168
-141
-110
-120
-100
-72
-64
-49
-30
-14
12
38
57
82
113
144
179
219
263
319
386
448
495
535
569
578
529
406
235
72
-50
-140
-208
-246
-264
-274
-271
-263
-268
-268
-251
-237
-237
-237
-232
-227
-221
-214
-207
-202
-204
-203
-189
-177
-177
-181
-177
-171
-163
-156
-153
-155
-151
-139
-134
-133
-125
-118
-116
-116
-113
-110
-105
-102
-107
-106
-92
-83
-86
-88
-81
-78
-79
-74
-68
-68
-69
-65
-64
-61
-52
-48
-46
-36
-24
-9
14
22
3
-15
-32
-49
-39
-37
-71
-47
-15
-131
-300
-404
-171
1148
3016
3057
909
-675
-482
-64
-160
-188
-111
-145
-149
-104
-100
-90
-62
-55
-48
-25
-2
17
30
47
78
109
131
160
205
247
285
332
394
455
495
518
537
531
452
307
151
15
-107
-197
-237
-248
-261
-268
-262
-260
-259
-247
-242
-257
-262
-242
-230
-231
-226
-217
-215
-211
-202
-202
-207
-202
-193
-187
-179
-171
-169
-172
-179
-181
-168
-149
-137
-139
-146
-141
-124
-127
-141
-129
-106
-109
-122
-119
-109
-109
-110
-103
-94
-96
-103
-101
-90
-85
-90
-82
-66
-62
-57
-33
-13
-7
-5
-17
-43
-62
-62
-55
-70
-79
-41
-64
-196
-320
-398
49
1661
3162
2367
135
-814
-371
-121
-208
-148
-102
-128
-83
-61
-97
-87
-41
-15
-5
1
19
52
74
89
112
135
167
224
282
328
389
468
533
574
615
662
682
627
482
292
124
-16
-145
-236
-268
-283
-307
-315
-306
-306
-305
-293
-279
-267
-258
-250
-245
-243
-240
-223
-212
-224
-228
-205
-188
-191
-192
-190
-187
-174
-164
-171
-175
-164
-157
-153
-142
-135
-135
-131
-125
-122
-121
-129
-137
-121
-101
-106
-112
-96
-85
-89
-79
-50
-22
-9
-23
-49
-69
-89
-91
-74
-100
-116
-57
-91
-264
-417
-392
451
2328
3283
1696
-454
-807
-228
-138
-228
-148
-143
-166
-115
-101
-109
-79
-58
-53
-29
-7
7
31
63
88
105
125
163
215
264
315
381
451
512
561
598
621
601
499
336
163
-6
-149
-229
-274
-319
-343
-337
-331
-330
-321
-310
-302
-294
-284
-282
-287
-276
-251
-234
-230
-229
-232
-231
-219
-213
-217
-212
-206
-209
-199
-176
-171
-175
-163
-152
-161
-165
-149
-137
-140
-139
-133
-133
-129
-113
-105
-104
-92
-84
-89
-91
-84
-80
-84
-87
-79
-61
-48
-54
-61
-49
-30
-21
-10
16
43
43
30
30
14
-30
-24
20
-10
-35
32
-12
-207
-362
-322
564
2510
3477
1835
-327
-642
-78
-43
-144
-52
-64
-109
-47
-10
-19
-6
8
22
56
83
87
98
125
160
195
221
239
272
330
389
430
472
536
603
635
643
648
609
486
310
147
18
-78
-145
-186
-207
-215
-218
-221
-217
-208
-202
-199
-199
-200
-196
-185
-182
-193
-197
-189
-186
-190
-189
-185
-184
-182
-180
-188
-196
-188
-179
-191
-206
-200
-187
-185
-187
-190
-195
-192
-190
-204
-218
-208
-198
-202
-204
-206
-213
-215
-220
-231
-226
-218
-234
-242
-223
-219
-234
-239
-240
-243
-231
-222
-224
-204
-169
-165
-187
-196
-201
-232
-253
-230
-234
-258
-214
-221
-379
-546
-591
5
1753
3174
2165
-95
-892
-398
-213
-328
-270
-246
-283
-228
-183
-185
-158
-132
-124
-88
-43
-19
10
49
83
118
161
204
242
288
357
438
503
561
631
693
733
761
754
666
517
370
258
179
128
97
84
90
103
117
134
