# session 37
-31
-34
-32
30
86
47
-11
-9
0
-10
-6
6
4
0
3
7
9
7
4
1
3
7
8
4
4
13
32
53
61
52
32
8
-15
-14
-5
-28
-30
7
-43
-170
-269
-245
406
1830
2536
1371
-199
-509
-160
-112
-165
-111
-110
-132
-110
-95
-85
-66
-58
-51
-34
-26
-26
-12
18
39
43
53
80
106
125
151
185
211
235
262
283
286
275
237
157
52
-55
-148
-211
-246
-265
-275
-279
-280
-278
-275
-273
-263
-253
-250
-247
-243
-245
-242
-229
-225
-228
-221
-209
-203
-200
-194
-191
-191
-182
-172
-170
-165
-154
-150
-150
-140
-117
-91
-70
-67
-80
-101
-122
-122
-106
-117
-121
-86
-107
-199
-274
-230
377
1683
2362
1282
-285
-668
-290
-134
-138
-83
-77
-91
-59
-39
-37
-19
1
15
30
49
69
87
105
128
147
162
187
222
251
277
317
362
391
407
428
445
429
368
264
135
13
-73
-129
-169
-192
-204
-209
-204
-198
-199
-199
-190
-182
-179
-175
-167
-160
-155
-154
-154
-151
-149
-151
-151
-147
-142
-138
-136
-135
-136
-136
-132
-130
-129
-121
-113
-114
-114
-96
-67
-51
-53
-60
-75
-103
-107
-88
-106
-112
-64
-110
-262
-379
-335
435
2071
2831
1412
-378
-620
-163
-146
-227
-155
-160
-183
-138
-126
-133
-106
-86
-79
-61
-43
-30
-14
3
19
40
66
92
117
145
178
214
251
286
317
341
357
351
302
203
83
-21
-102
-162
-198
-211
-215
-218
-218
-215
-211
-205
-198
-195
-192
-185
-179
-177
-175
-170
-163
-156
-153
-149
-144
-137
-131
-126
-120
-116
-115
-113
-112
-111
-106
-102
-102
-96
-86
-82
-83
-71
-44
-23
-21
-28
-41
-71
-88
-68
-74
-99
-63
-63
-192
-326
-384
18
1431
2792
2158
215
-637
-272
-91
-202
-162
-127
-167
-142
-109
-113
-95
-75
-71
-54
-34
-22
-7
13
30
47
65
86
114
145
174
204
238
271
301
325
342
345
317
246
141
32
-54
-116
-157
-179
-186
-190
-193
-191
-186
-181
-178
-175
-169
-165
-162
-159
-155
-152
-147
-142
-137
-133
-126
-121
-117
-114
-112
-110
-107
-103
-103
-102
-98
-97
-95
-92
-90
-91
-90
-87
-88
-86
-77
-68
-68
-67
-53
-30
-15
-16
-25
-43
-71
-72
-58
-80
-81
-40
-96
-240
-349
-283
519
2086
2699
1290
-339
-523
-130
-135
-201
-136
-147
-167
-128
-116
-115
-93
-81
-71
-49
-33
-22
-6
12
28
47
67
87
112
139
167
197
227
256
281
301
315
315
282
209
109
10
-68
-120
-153
-171
-177
-178
-177
-174
-171
-166
-163
-161
-159
-157
-155
-151
-147
-143
-141
-137
-131
-124
-120
-116
-111
-108
-105
-104
-103
-103
-101
-101
-102
-101
-100
-99
-99
-99
-97
-96
-94
-92
-91
-92
-89
-79
-71
-69
-64
-51
-31
-14
-12
-21
-40
-66
-71
-57
-74
-79
-39
-77
-207
-317
-295
364
1826
2604
1464
-155
-508
-164
-124
-190
-137
-138
-159
-126
-113
-115
-92
-75
-68
-51
-32
-20
-4
13
27
42
63
87
113
141
171
199
227
259
292
315
325
323
303
249
156
56
-22
-75
-113
-135
-142
-142
-145
-146
-144
-143
-142
-137
-131
-130
-130
-127
-129
-132
-127
-121
-123
-123
-114
-109
-112
-116
-118
-112
-101
-100
-109
-115
-117
-115
-105
-95
-102
-112
-107
-98
-101
-107
-108
-103
-96
-90
-79
-61
-49
-39
-27
-28
-52
-84
-98
-83
-80
-98
-82
-71
-139
-233
-306
-71
994
2243
2017
437
-561
-407
-142
-154
-140
-110
-131
-119
-87
-81
-75
-62
-51
-33
-13
-1
11
24
40
61
80
97
116
136
162
203
243
270
292
313
330
342
329
266
168
67
-27
-104
-152
-178
-196
-205
-204
-199
-194
-194
-193
-187
-178
-171
-166
-162
-159
-156
-152
-149
-149
-146
-137
-131
-130
-126
-122
-123
-120
-112
-109
-111
-111
-108
-101
-95
-95
-94
-90
-82
-73
-69
-65
-51
-27
-9
-7
-19
-43
-68
-69
-60
-80
-88
-48
-67
-175
-277
-271
306
1659
2460
1443
-180
-635
-282
-142
-165
-121
-125
-142
-105
-86
-89
-73
-58
-49
-29
-6
11
28
44
61
85
111
129
150
183
220
252
286
322
353
375
388
380
334
246
133
23
-65
-127
-165
-184
-192
-199
-203
-201
-192
-186
-184
-180
-171
-163
-158
-155
-153
-149
-145
-143
-141
-134
-126
-124
-124
-121
-120
-119
-116
-114
-113
-112
-111
-112
-112
-109
-106
-104
-101
-96
-93
-91
-88
-84
-84
-85
-78
-66
-63
-63
-52
-30
-14
-12
-14
-29
-60
-69
-56
-74
-84
-43
-77
-213
-329
-322
310
1804
2695
1603
-105
-536
-183
-129
-203
-148
-142
-161
-125
-111
-117
-96
-78
-70
-54
-37
-22
-5
12
28
45
66
89
111
135
166
201
234
266
297
322
337
339
316
251
151
46
-40
-104
-147
-172
-183
-185
-185
-185
-183
-179
-175
-171
-166
-162
-157
-152
-149
-145
-139
-135
-133
-127
-119
-115
-114
-113
-107
-102
-102
-103
-100
-95
-94
-94
-94
-93
-93
-92
-91
-89
-86
-85
-85
-83
-81
-81
-83
-79
-71
-64
-61
-52
-35
-17
-8
-10
-20
-43
-64
-57
-55
-77
-58
-35
-123
-251
-329
-136
878
2292
2358
807
-397
-353
-100
-158
-173
-130
-153
-147
-116
-118
-112
-92
-84
-73
-53
-37
-22
0
19
32
45
65
93
122
151
181
210
242
278
307
326
336
330
294
217
114
16
-54
-103
-141
-161
-167
-168
-165
-163
-163
-160
-153
-151
-147
-140
-136
-136
-130
-125
-125
-126
-126
-125
-115
-104
-105
-111
-111
-105
-100
-98
-104
-112
-108
-98
-98
-104
-103
-98
-100
-98
-91
-94
-102
-99
-92
-92
-92
-87
-84
-72
-49
-33
-26
-21
-23
-40
-63
-75
-68
-74
-89
-64
-61
-147
-239
-269
74
1211
2314
1834
217
-615
-373
-131
-156
-137
-105
-121
-105
-77
-76
-71
-54
-37
-17
4
15
22
36
53
69
87
108
135
172
207
233
263
304
343
367
380
390
375
305
189
67
-36
-114
-167
-199
-217
-227
-231
-230
-223
-215
-213
-214
-205
-193
-191
-191
-179
-170
-173
-177
-174
-169
-164
-154
-143
-138
-136
-131
-131
-137
-139
-130
-120
-119
-123
-119
-105
-101
-111
-108
-88
-80
-87
-78
-49
-25
-22
-30
-44
-68
-84
-71
-72
-95
-74
-55
-136
-254
-329
-80
1022
2363
2207
558
-559
-431
-138
-150
-144
-105
-120
-106
-75
-72
-60
-38
-27
-15
6
28
46
59
73
91
107
125
148
177
210
245
281
318
353
377
394
401
377
303
190
70
-33
-111
-165
-196
-213
-222
-223
-216
-209
-203
-196
-188
-182
-178
-174
-168
-162
-157
-152
-148
-146
-143
-139
-136
-135
-132
-127
-124
-120
-118
-117
-118
-117
-115
-113
-113
-111
-106
-104
-108
-111
-108
-103
-99
-96
-94
-95
-92
-84
-76
-71
-63
-47
-31
-24
-25
-30
-50
-74
-65
-60
-82
-61
-37
-129
-261
-338
-127
942
2401
2426
793
-434
-367
-103
-163
-174
-128
-153
-149
-116
-112
-102
-83
-76
-64
-43
-26
-11
6
20
37
58
78
99
128
160
188
221
258
294
324
347
358
350
307
222
110
7
-71
-127
-165
-188
-197
-201
-200
-193
-187
-187
-184
-176
-171
-166
-158
-154
-153
-145
-133
-129
-132
-131
-123
-117
-113
-108
-101
-96
-97
-96
-92
-88
-87
-90
-92
-87
-81
-83
-88
-87
-78
-70
-72
-80
-83
-77
-64
-56
-56
-49
-22
1
-4
-19
-30
-59
-80
-65
-65
-76
-47
-65
-179
-280
-301
114
1377
2479
1855
190
-558
-302
-133
-184
-157
-134
-148
-125
-109
-112
-92
-73
-68
-50
-30
-27
-11
25
44
44
60
92
120
147
177
212
253
290
320
351
377
383
359
290
182
67
-34
-114
-166
-194
-211
-221
-223
-217
-210
-207
-203
-195
-185
-181
-181
-180
-175
-171
-172
-166
-153
-148
-153
-152
-146
-142
-141
-136
-127
-124
-127
-124
-117
-119
-125
-121
-115
-115
-112
-103
-98
-99
-94
-74
-47
-32
-37
-48
-64
-83
-87
-77
-93
-100
-65
-90
-196
-290
-259
362
1740
2498
1415
-212
-626
-257
-132
-163
-111
-104
-122
-94
-78
-77
-57
-38
-29
-14
6
28
50
65
77
95
119
145
174
206
241
279
319
358
394
421
434
427
379
280
152
35
-55
-123
-172
-201
-214
-219
-219
-217
-214
-209
-204
-200
-195
-192
-189
-186
-181
-176
-175
-177
-175
-167
-161
-159
-158
-154
-150
-147
-144
-137
-130
-127
-124
-118
-115
-111
-105
-99
-97
-93
-88
-86
-87
-81
-70
-62
-61
-53
-35
-17
-11
-13
-21
-47
-71
-59
-57
-85
-65
-49
-153
-288
-367
-112
1067
2543
2411
665
-490
-346
-109
-191
-188
-143
-174
-165
-131
-129
-118
-97
-89
-75
-54
-40
-26
-8
7
26
50
72
93
119
154
191
224
260
297
327
347
358
349
298
205
94
-5
-79
-132
-166
-181
-186
-190
-191
-186
-178
-177
-173
-164
-157
-157
-155
-150
-148
-145
-137
-128
-122
-117
-112
-113
-118
-115
-100
-88
-92
-101
-101
-100
-103
-98
-89
-91
-96
-92
-87
-90
-92
-93
-93
-86
-78
-73
-62
-41
-28
-33
-42
-56
-81
-88
-69
-83
-100
-64
-82
-203
-307
-311
180
1520
2550
1762
78
-556
-263
-134
-187
-142
-130
-153
-119
-99
-109
-96
-76
-62
-36
-16
-17
-8
20
44
56
72
101
131
158
187
222
269
319
352
366
377
387
364
288
172
49
-50
-117
-170
-210
-223
-214
-209
-213
-213
-209
-203
-201
-200
-191
-180
-181
-185
-173
-156
-158
-172
-171
-152
-140
-147
-153
-146
-140
-142
-139
-136
-140
-141
-132
-125
-126
-125
-116
-106
-103
-96
-70
-45
-47
-63
-81
-105
-111
-95
-106
-117
-80
-92
-189
-278
-268
271
1590
2446
1509
-132
-654
-306
-142
-165
-116
-102
-120
-92
-73
-74
-56
-34
-21
-6
9
28
52
71
86
105
129
155
185
222
261
299
341
383
416
440
453
442
385
275
143
26
-65
-135
-179
-200
-212
-221
-220
-212
-205
-201
-197
-193
-187
-179
-173
-169
-164
-159
-155
-153
-152
-151
-147
-142
-140
-139
-140
-140
-138
-134
-130
-129
-127
-123
-119
-118
-118
-117
-115
-112
-109
-108
-103
-93
-86
-83
-71
-46
-28
-29
-36
-48
-76
-86
-66
-80
-96
-55
-82
-225
-344
-345
228
1738
2822
1855
15
-572
-212
-129
-223
-169
-158
-193
-160
-137
-142
-123
-102
-94
-77
-60
-46
-27
-7
11
29
50
77
107
135
166
205
244
280
313
342
363
367
333
252
144
37
-52
-114
-151
-175
-188
-188
-183
-180
-178
-171
-162
-154
-149
-144
-139
-133
-127
-122
-118
-115
-113
-111
-108
-106
-100
-95
-96
-95
-89
-86
-89
-88
-86
-88
-85
-79
-82
-86
-84
-85
-88
-82
-78
-79
-76
-71
-72
-71
-57
-38
-26
-27
-32
-34
-55
-89
-89
-80
-86
-59
-64
-180
-296
-341
-42
1138
2491
2227
527
-506
-343
-129
-189
-170
-134
-157
-138
-115
-125
-111
-88
-79
-65
-49
-42
-27
-10
-2
13
42
71
90
109
140
184
229
269
303
338
367
379
359
288
175
62
-32
-106
-155
-178
-197
-217
-223
-215
-206
-200
-195
-186
-177
-173
-168
-159
-156
-160
-154
-142
-137
-137
-134
-125
-118
-120
-127
-126
-116
-107
-109
-117
-117
-107
-99
-101
-101
-94
-91
-92
-86
-77
-67
-49
-31
-28
-36
-54
-80
-89
-82
-97
-104
-69
-88
-191
-283
-307
136
1428
2472
1730
21
-681
-371
-164
-182
-140
-123
-145
-124
-105
-104
-86
-67
-59
-43
-20
-1
13
29
49
72
92
119
158
200
235
274
324
372
406
429
445
442
392
280
141
18
-76
-144
-188
-214
-228
-227
-221
-217
-210
-199
-192
-188
-183
-179
-172
-163
-159
-154
-142
-139
-142
-129
-118
-129
-139
-128
-116
-119
-119
-112
-106
-107
-110
-108
-101
-104
-108
-103
-97
-84
-66
-85
-120
-99
-60
-74
-80
-36
-12
-38
-74
-89
-76
-80
-97
-67
-69
-183
-320
-382
60
1483
2764
2094
224
-601
-296
-126
-199
-163
-150
-185
-157
-131
-125
-98
-94
-102
-73
-45
-43
-29
1
19
30
49
77
109
145
186
224
255
290
333
366
381
381
347
258
138
27
-65
-140
-186
-207
-219
-221
-210
-206
-210
-204
-194
-192
-179
-157
-151
-153
-147
-142
-137
-124
-123
-130
-110
-86
-92
-103
-98
-96
-104
-105
-103
-108
-112
-112
-114
-106
-87
-96
-129
-133
-108
-99
-109
-106
-93
-85
-74
-60
-65
-80
-85
-95
-105
-102
-110
-106
-70
-103
-218
-324
-310
351
1838
2645
1501
-150
-524
-182
-134
-186
-122
-120
-140
-103
-81
-72
-54
-48
-38
-16
-7
-6
5
22
39
61
91
126
144
153
184
235
281
316
348
373
390
391
349
257
143
39
-40
-98
-142
-170
-177
-179
-188
-185
-173
-170
-174
-173
-164
-151
-148
-152
-149
-139
-137
-136
-129
-127
-132
-127
-114
-115
-126
-134
-138
-138
-127
-117
-123
-128
-116
-105
-111
-115
-104
-93
-92
-83
-64
-54
-49
-40
-40
-62
-90
-99
-90
-104
-127
-95
-85
-175
-275
-350
-95
1102
2502
2213
437
-609
-391
-139
-204
-188
-138
-160
-148
-112
-104
-98
-85
-76
-69
-57
-28
-2
4
17
41
54
67
99
134
165
198
233
273
313
342
359
349
303
231
143
39
-66
-139
-174
-194
-217
-232
-230
-216
-201
-195
-198
-200
-198
-197
-200
-193
-176
-168
-172
-169
-156
-158
-167
-158
-144
-148
-150
-131
-123
-135
-135
-123
-123
-125
-111
-90
-79
-73
-50
-18
-8
-18
-22
-24
-43
-57
-46
-49
-56
-21
-19
-98
-171
-198
167
1373
2485
1903
211
-598
-325
-76
-71
-28
-4
-18
15
45
49
79
