# session 9
-56
1
-170
33
819
1359
1233
982
918
841
716
637
566
492
449
416
390
381
355
308
278
263
231
176
113
68
74
115
134
119
130
165
140
90
110
130
117
172
203
57
-177
-298
208
1692
2862
2076
290
-434
-188
-95
-194
-193
-199
-226
-196
-151
-133
-133
-118
-62
0
42
101
177
227
252
279
301
286
230
161
108
40
-63
-113
-87
-140
-283
-336
-326
-388
-428
-364
-299
-267
-231
-225
-251
-253
-244
-251
-251
-255
-288
-312
-292
-266
-251
-210
-171
-213
-271
-227
-209
-343
-463
-523
-321
844
2329
1960
-135
-1277
-821
-391
-413
-338
-267
-308
-259
-174
-155
-128
-88
-75
-43
25
75
92
127
193
236
246
259
274
279
258
175
48
-59
-139
-202
-222
-211
-213
-210
-185
-169
-161
-131
-97
-81
-63
-49
-53
-41
-4
1
-31
-39
-17
-15
-45
-74
-52
10
8
-37
12
53
-104
-377
-435
363
2017
2751
1344
-428
-707
-268
-173
-169
-103
-151
-172
-103
-95
-119
-93
-53
-26
-9
6
32
56
81
136
185
179
157
153
129
53
-75
-209
-274
-268
-249
-230
-196
-166
-153
-140
-108
-54
-14
-18
-46
-67
-77
-71
-65
-75
-74
-53
-63
-110
-136
-144
-171
-177
-150
-148
-124
-52
-89
-234
-382
-409
420
2298
3161
1541
-462
-732
-238
-188
-234
-140
-123
-132
-105
-89
-65
-42
-42
-26
4
27
61
99
140
196
248
292
344
362
319
247
159
48
-65
-159
-230
-270
-290
-309
-323
-339
-362
-358
-331
-333
-349
-326
-289
-276
-280
-287
-271
-230
-215
-230
-233
-246
-256
-217
-190
-185
-130
-122
-259
-487
-577
285
2307
3349
1731
-460
-835
-299
-222
-267
-165
-179
-202
-113
-64
-74
-55
-6
51
90
109
139
191
254
344
458
552
567
493
418
386
287
88
-50
-49
-47
-113
-144
-86
-22
-19
-56
-92
-94
-57
-29
-41
-53
-50
-58
-56
-32
-31
-75
-145
-227
-297
-345
-376
-382
-391
-399
-373
-397
-509
-607
-650
-210
1195
2300
1305
-674
-1243
-674
-458
-543
-463
-388
-367
-294
-233
-180
-117
-91
-61
17
93
151
198
221
260
338
382
358
327
313
284
222
123
3
-95
-166
-232
-263
-227
-174
-170
-174
-122
-59
-56
-63
-12
43
32
10
10
-30
-55
32
108
43
-36
-38
-27
-22
-3
27
37
-56
-228
-377
-332
518
2178
2795
1206
-630
-822
-270
-135
-151
-76
-67
-55
-12
-29
-44
-17
-23
-34
25
87
89
118
214
278
281
292
319
329
288
163
8
-91
-175
-295
-346
-264
-168
-162
-193
-186
-157
-151
-171
-199
-215
-201
-177
-174
-191
-196
-180
-178
-194
-185
-154
-177
-225
-198
-161
-194
-182
-119
-176
-323
-503
-440
785
2810
3077
939
-765
-637
-256
-351
-305
-192
-263
-277
-202
-168
-115
-50
-45
-45
-10
27
59
104
140
148
154
181
208
212
200
162
81
-14
-79
-122
-162
-194
-212
-209
-195
-202
-221
-220
-219
-226
-214
-207
-232
-250
-247
-246
-245
-251
-275
-265
-216
-214
-237
-187
-132
-146
-119
-62
-130
-275
-403
-189
1049
2671
2569
685
-562
-375
-95
-179
-177
-154
-217
-200
-155
-161
-139
-93
-41
51
122
125
132
177
229
285
319
292
251
249
240
181
106
52
6
-54
-119
-151
-139
-138
-165
-150
-106
-121
-163
-145
-103
-97
-101
-97
-102
-103
-76
-65
-106
-145
-146
-142
-100
-28
-59
-149
-143
-158
-300
-421
-374
298
1768
2470
1054
-813
-1078
-476
-289
-291
-199
-217
-256
-206
-185
-183
-140
-111
-92
-40
8
35
74
121
168
216
227
199
193
207
169
80
-1
-68
-148
-214
-218
-192
-199
-218
-204
-191
-198
-170
-111
-78
-59
-41
-49
-52
-18
26
43
-24
-128
-95
37
45
-54
-112
-106
-36
3
-124
-347
-490
-17
1605
3075
2278
82
-849
-417
-156
-200
-102
-32
-55
-25
-3
-10
26
64
63
92
168
220
223
226
243
247
230
202
167
127
70
-31
-159
-267
-337
-373
-369
-335
-304
-287
-279
-271
-253
-237
-236
-230
-203
-172
-160
-177
-199
-192
-168
-162
-178
-202
-231
-249
-224
-188
-208
-213
-134
-127
-251
-398
-514
43
1857
3253
2162
5
-663
-262
-187
-258
-169
-184
-241
-204
-185
-184
-158
-162
-163
-114
-79
-72
-39
14
62
108
128
110
112
150
153
106
71
44
-20
-90
-138
-178
-207
-202
-180
-164
-155
-142
-128
-133
-154
-155
-132
-125
-149
-154
-122
-104
-109
-93
-86
-114
-130
-144
-168
-131
-119
-239
-430
-655
-324
1429
3245
2488
-23
-1117
-589
-282
-351
-232
-180
-275
-251
-179
-170
-147
-109
-95
-59
13
83
146
230
338
434
476
480
481
469
409
294
160
48
-29
-65
-73
-103
-151
-155
-141
-167
-183
-137
-89
-95
-117
-122
-121
-120
-111
-86
-48
-33
-63
-91
-94
-112
-130
-127
-153
-166
-116
-148
-282
-392
-361
402
2033
2671
1012
-878
-972
-338
-245
-274
-164
-176
-199
-125
-95
-98
-61
-20
9
41
71
103
132
153
193
236
234
214
217
209
165
131
107
34
-71
-127
-150
-194
-212
-180
-173
-198
-194
-166
-151
-144
-131
-118
-125
-160
-197
-200
-179
-178
-193
-182
-164
-178
-181
-177
-224
-238
-192
-261
-418
-540
-567
202
2032
2933
1400
-544
-798
-327
-320
-366
-239
-221
-219
-124
-78
-95
-92
-66
-29
17
46
58
73
98
130
160
174
170
163
140
75
-11
-82
-146
-200
-223
-228
-228
-204
-173
-159
-145
-117
-98
-93
-81
-67
-67
-71
-58
-32
-10
0
7
15
-1
-31
-18
6
-17
-8
38
-27
-195
-374
-274
805
2405
2363
323
-1119
-794
-239
-230
-204
-107
-124
-98
-29
-24
-10
31
45
61
102
138
181
245
305
344
374
383
357
309
252
179
94
14
-54
-106
-141
-163
-178
-184
-182
-175
-164
-157
-155
-147
-134
-130
-137
-149
-169
-192
-193
-173
-161
-154
-137
-152
-204
-208
-172
-200
-216
-132
-134
-302
-534
-712
-5
2088
3423
1903
-442
-872
-266
-194
-273
-157
-173
-226
-174
-168
-190
-156
-124
-109
-79
-47
-17
18
51
94
144
168
157
135
112
85
42
-22
-84
-126
-158
-185
-193
-188
-182
-174
-164
-157
-151
-146
-148
-153
-156
-161
-171
-175
-168
-168
-180
-184
-177
-181
-199
-195
-183
-204
-197
-152
-203
-323
-419
-371
440
1988
2383
705
-875
-766
-204
-186
-206
-87
-79
-80
-28
-8
21
76
107
143
197
224
241
285
333
364
381
381
366
349
322
262
179
93
14
-45
-75
-92
-107
-110
-104
-104
-105
-101
-99
-103
-102
-96
-98
-113
-123
-119
-112
-112
-110
-103
-116
-159
-174
-145
-154
-169
-126
-151
-313
-531
-553
335
2032
2520
848
-784
-756
-257
-261
-305
-229
-236
-226
-183
-188
-169
-125
-121
-89
1
62
81
121
186
250
298
316
311
302
259
164
56
-39
-131
-205
-219
-191
-178
-180
-173
-158
-141
-117
-90
-82
-108
-133
-128
-124
-150
-181
-188
-171
-144
-132
-145
-166
-161
-144
-153
-148
-96
-111
-258
-457
-465
287
1761
2327
981
-586
-726
-234
-141
-178
-112
-101
-89
-30
-13
-23
-10
13
40
76
120
167
199
225
268
302
301
285
264
223
155
69
-18
-78
-101
-101
-98
-109
-124
-115
-90
-79
-77
-66
-62
-76
-86
-82
-84
-105
-122
-123
-121
-122
-117
-119
-147
-168
-144
-132
-150
-120
-97
-185
-344
-580
-461
889
2612
2321
266
-811
-421
-173
-317
-275
-213
-263
-235
-190
-205
-190
-142
-120
-104
-74
-40
-7
25
63
97
109
107
105
91
66
32
-31
-107
-148
-160
-171
-169
-151
-134
-119
-105
-97
-87
-76
-65
-54
-53
-72
-103
-129
-131
-113
-98
-86
-79
-105
-131
-115
-121
-140
-92
-89
-192
-347
-613
-317
1470
3188
2323
90
-607
-102
-38
-191
-87
-58
-112
-75
-64
-87
-63
-43
-39
-12
19
48
88
129
161
189
200
195
183
163
125
73
15
-47
-104
-145
-165
-172
-174
-173
-170
-164
-158
-156
-157
-157
-150
-146
-152
-160
-162
-150
-130
-119
-115
-111
-130
-150
-132
-127
-146
-117
-109
-200
-327
-454
-178
1025
2146
1521
-100
-685
-305
-148
-205
-131
-102
-140
-110
-76
-78
-64
-43
-30
-2
35
68
99
129
151
163
159
136
108
89
81
74
50
8
-30
-51
-62
-67
-67
-67
-70
-71
-69
-70
-75
-80
-83
-82
-85
-97
-101
-88
-76
-70
-62
-71
-88
-80
-89
-108
-72
-64
-158
-296
-516
-369
910
2295
1730
-93
-763
-289
-108
-218
-153
-116
-161
-132
-104
-117
-97
-63
-47
-24
8
38
68
97
119
122
103
83
72
59
34
4
-22
-52
-95
-124
-120
-116
-128
-129
-126
-137
-138
-124
-121
-129
-134
-128
-118
-128
-151
-144
-119
-106
-91
-84
-96
-97
-105
-118
-77
-56
-150
-320
-582
-499
771
2363
2057
188
-722
-319
-67
-165
-113
-49
-84
-77
-59
-59
-30
0
15
41
74
109
148
187
229
269
287
279
261
251
243
214
145
50
-30
-65
-81
-108
-126
-118
-114
-125
-131
-137
-154
-154
-146
-156
-153
-117
-88
-87
-84
-70
-60
-51
-47
-76
-117
-113
-104
-170
-295
-470
-395
583
1930
1810
165
-877
-596
-214
-208
-170
-110
-136
-126
-92
-90
-67
-27
-11
5
39
74
107
134
159
175
168
137
102
68
26
-22
-63
-101
-137
-160
-168
-171
-173
-173
-166
-146
-124
-116
-113
-97
-81
-83
-91
-91
-88
-90
-96
-96
-105
-133
-128
-95
-122
-149
-99
-114
-236
-388
-531
-3
1625
2626
1354
-480
-727
-197
-156
-240
-144
-137
-159
-99
-66
-58
-19
14
31
56
86
119
155
188
212
218
201
179
160
135
97
49
-5
-56
-95
-109
-102
-98
-103
-101
-94
-89
-76
-66
-78
-90
-83
-78
-84
-76
-60
-60
-67
-77
-100
-109
-97
-113
-118
-80
-115
-242
-423
-536
113
1688
2396
1035
-552
-649
-199
-197
-241
-149
-159
-184
-135
-116
-115
-87
-55
-28
4
37
73
111
146
163
155
135
117
93
63
34
-2
-51
-100
-132
-144
-141
-140
-149
-152
-145
-146
-157
-155
-139
-135
-151
-167
-163
-143
-131
-133
-130
-134
-153
-152
-140
-157
-147
-118
-171
-299
-506
-498
562
2217
2234
325
-938
-575
-123
-184
-164
-81
-133
-132
-57
-36
-33
-7
18
55
114
166
203
242
284
319
341
345
337
318
270
187
94
5
-72
-126
-147
-145
-135
-133
-136
-131
-128
-131
-127
-118
-121
-134
-130
-105
-92
-104
-107
-102
-119
-135
-128
-123
-107
-91
-154
-285
-476
-552
237
1847
2310
692
-865
-782
-227
-172
-171
-73
-90
-96
-32
-10
-1
40
71
90
121
168
225
273
302
322
326
291
231
182
138
72
-7
-66
-93
-116
-150
-173
-169
-154
-143
-145
-153
-142
-125
-137
-152
-140
-131
-146
-153
-150
-160
-167
-164
-184
-204
-187
-186
-215
-194
-170
-232
-334
-464
-250
942
2243
1782
44
-727
-360
-184
-294
-244
-197
-212
-155
-118
-130
-119
-124
-136
-85
-20
6
24
44
76
129
136
76
43
56
47
4
-55
-120
-160
-181
-213
-219
-173
-136
-133
-131
-137
-133
-60
33
47
5
-15
-8
18
57
61
19
-28
-42
-23
-24
-38
4
24
-75
-272
-583
-451
1018
2690
2157
37
-891
-425
-173
-267
-190
-132
-186
-165
-104
-64
-18
18
58
127
174
179
197
253
312
333
307
272
253
217
139
47
-32
-95
-146
-195
-238
-240
-210
-195
-185
-161
-152
-159
-146
-135
-146
-150
-141
-135
-121
-103
-111
-125
-130
-158
-178
-148
-142
-166
-136
-133
-217
-288
-399
-160
1193
2586
1826
-313
-1116
-526
-185
-216
-134
-99
-117
-52
-29
-49
2
63
87
128
172
190
225
301
351
342
337
342
291
228
230
223
112
-43
-132
-159
-186
-224
-243
-235
-221
-218
-232
-238
-204
-163
-169
-194
-181
-157
-163
-170
-161
-168
-189
-203
-213
-202
-193
-219
-205
-164
-245
-378
-458
-371
497
1981
2153
408
-975
-740
-242
-259
-251
-148
-166
-168
-115
-103
-83
-40
-21
1
47
94
141
201
258
288
290
286
271
223
158
104
39
-50
-122
-159
-188
-211
-208
-181
-157
-147
-130
-109
-110
-121
-108
-89
-97
-119
-135
-129
-94
-65
-67
-73
-82
-108
-101
-68
-72
-73
-70
-155
-274
-432
-441
576
2364
2579
604
-908
-649
-157
-194
-169
-71
-106
-91
-30
-33
-3
69
99
121
184
235
258
303
375
428
442
432
415
400
356
242
93
-21
-92
-156
-212
-238
-229
-208
-205
-213
-197
-169
-170
-184
-182
-183
-205
-214
-191
-164
-162
-179
-186
-182
-195
-215
-197
-179
-204
-190
-151
-209
-319
-473
-413
697
2400
2370
313
-1059
-705
-246
-322
-295
-154
-136
-115
-71
-69
-61
-53
-47
13
95
132
161
223
275
292
315
339
304
216
130
48
-56
-151
-197
-221
-265
-315
-334
-327
-322
-314
-295
-276
-260
-231
-191
-165
-160
-155
-142
-133
-126
-115
-108
-94
-66
-59
-64
-62
-106
-147
-105
-123
-260
-428
-624
-191
1548
2946
1896
-167
-705
-233
-181
-294
-201
-174
-192
-144
-122
-98
-31
-13
-35
-9
45
75
104
158
213
253
273
267
245
226
181
90
4
-50
-101
-148
-162
-158
-158
-144
-113
-86
-78
-83
-90
-89
-85
-83
-75
-61
-59
-64
-53
-33
-21
-18
-38
-75
-70
-42
-70
-89
-45
-71
-179
-281
-324
275
1772
2471
1014
-767
-882
-250
-130
-170
-67
-57
-79
-34
-13
-8
21
43
61
101
155
210
254
298
357
400
397
368
338
291
201
75
-48
-136
-193
-239
-266
-261
-247
-248
-255
-247
-231
-225
-224
-215
-206
-212
-223
-221
-207
-198
-196
-185
-160
-149
-166
-178
-159
