# session 31
-14
-13
-27
36
142
154
99
84
88
75
68
70
66
63
66
65
62
62
61
54
46
45
47
41
29
21
17
14
11
10
6
2
-1
-2
-5
-8
-11
-15
-19
-22
-21
-21
-25
-29
-30
-30
-32
-34
-35
-37
-38
-39
-41
-43
-42
-41
-43
-46
-49
-52
-48
-39
-38
-40
-34
-16
3
6
-5
-23
-53
-70
-56
-62
-87
-55
-53
-171
-301
-376
-46
1273
2658
2205
391
-511
-246
-103
-227
-200
-167
-207
-186
-155
-159
-144
-124
-117
-104
-86
-73
-58
-42
-27
-8
12
33
54
79
110
145
184
225
269
306
334
348
337
281
181
65
-36
-110
-161
-192
-208
-216
-217
-212
-205
-202
-199
-194
-188
-184
-178
-171
-165
-159
-151
-145
-141
-136
-131
-128
-126
-120
-114
-112
-112
-111
-110
-108
-103
-95
-93
-97
-97
-88
-80
-75
-74
-74
-75
-72
-66
-62
-58
-55
-55
-54
-51
-55
-58
-54
-49
-47
-44
-42
-39
-35
-39
-44
-34
-19
-17
-18
-5
15
31
33
18
-18
-47
-36
-19
-43
-44
-10
-61
-181
-290
-227
608
2120
2565
1128
-329
-415
-73
-107
-155
-97
-118
-131
-93
-86
-87
-66
-54
-46
-32
-24
-8
22
42
44
53
81
109
128
151
190
238
281
313
345
380
407
406
361
272
158
35
-72
-138
-174
-205
-220
-213
-213
-222
-215
-201
-203
-203
-186
-176
-183
-184
-175
-168
-166
-164
-158
-148
-143
-146
-145
-137
-134
-132
-123
-120
-127
-129
-116
-106
-112
-119
-110
-101
-105
-103
-93
-91
-94
-90
-86
-84
-80
-81
-82
-76
-71
-71
-65
-56
-49
-38
-17
-2
-9
-26
-48
-70
-66
-51
-71
-73
-39
-88
-217
-338
-285
549
2105
2601
1130
-404
-493
-103
-123
-175
-105
-119
-140
-104
-96
-96
-72
-58
-49
-28
-11
-1
16
38
60
81
103
127
155
186
222
264
313
362
403
435
455
444
377
257
118
-3
-91
-149
-189
-214
-226
-230
-230
-227
-223
-218
-214
-209
-201
-189
-178
-172
-169
-164
-155
-146
-140
-136
-132
-131
-127
-120
-118
-119
-116
-112
-109
-108
-107
-105
-99
-94
-91
-91
-89
-85
-82
-80
-77
-71
-66
-64
-64
-62
-57
-53
-51
-52
-52
-50
-48
-47
-44
-40
-37
-37
-31
-14
10
23
18
3
-20
-44
-37
-26
-50
-41
-5
-80
-227
-347
-245
728
2352
2690
1076
-372
-370
-54
-145
-189
-124
-150
-159
-119
-117
-114
-88
-78
-72
-55
-41
-28
-11
4
19
38
57
79
105
134
166
204
247
289
327
358
378
372
322
226
105
-10
-93
-146
-181
-203
-211
-213
-212
-209
-204
-202
-199
-195
-188
-181
-175
-171
-165
-156
-148
-143
-139
-135
-131
-127
-124
-122
-119
-114
-111
-109
-106
-103
-101
-97
-92
-88
-84
-80
-78
-77
-74
-70
-66
-64
-61
-58
-53
-51
-50
-49
-48
-46
-45
-43
-41
-38
-36
-34
-35
-35
-30
-20
-14
-14
-12
4
27
36
25
3
-24
-37
-21
-27
-58
-30
-10
-107
-231
-326
-94
1092
2550
2352
617
-436
-250
-58
-168
-159
-120
-158
-146
-115
-118
-106
-87
-83
-72
-54
-38
-21
-6
7
25
46
65
82
100
130
171
209
247
288
321
346
369
364
298
188
71
-35
-114
-158
-182
-204
-223
-229
-219
-211
-217
-215
-199
-189
-192
-191
-178
-162
-156
-159
-156
-144
-134
-133
-130
-119
-109
-107
-111
-110
-102
-94
-92
-96
-97
-89
-81
-78
-78
-83
-86
-79
-73
-77
-73
-59
-58
-71
-80
-74
-66
-68
-68
-60
-55
-64
-69
-60
-45
-35
-32
-32
-20
3
16
4
-26
-54
-57
-39
-49
-77
-52
-38
-124
-235
-328
-96
1060
2451
2208
468
-576
-349
-83
-147
-138
-104
-138
-120
-86
-93
-88
-64
-48
-32
-19
-9
10
30
42
62
89
108
130
166
207
245
289
337
383
424
457
468
438
351
220
85
-28
-115
-174
-204
-217
-229
-238
-238
-231
-224
-220
-215
-207
-196
-186
-181
-178
-172
-161
-148
-144
-147
-146
-137
-129
-124
-126
-135
-136
-125
-119
-119
-117
-115
-115
-114
-110
-105
-100
-100
-98
-91
-87
-90
-88
-80
-79
-82
-82
-79
-77
-73
-68
-68
-68
-61
-51
-46
-44
-34
-10
13
14
-1
-15
-35
-51
-38
-40
-62
-31
-22
-131
-265
-361
-53
1272
2715
2300
445
-506
-228
-54
-173
-149
-115
-156
-133
-99
-106
-95
-77
-71
-55
-36
-26
-11
10
26
42
62
85
109
135
167
203
244
290
333
369
398
410
383
304
187
63
-42
-117
-166
-195
-210
-216
-220
-221
-219
-217
-217
-213
-205
-196
-189
-180
-170
-163
-156
-149
-144
-140
-136
-133
-130
-125
-120
-117
-117
-116
-112
-109
-108
-106
-104
-103
-102
-99
-95
-91
-88
-87
-85
-80
-76
-75
-75
-72
-69
-66
-62
-58
-58
-55
-52
-50
-48
-45
-47
-49
-42
-29
-22
-27
-23
5
31
29
23
23
-15
-61
-47
-32
-55
-26
-8
-121
-242
-305
-93
1044
2554
2461
707
-432
-252
-38
-159
-146
-100
-156
-147
-106
-117
-105
-75
-71
-58
-36
-33
-24
5
27
27
36
74
114
119
120
166
230
272
305
347
379
397
395
340
227
99
1
-66
-114
-151
-185
-212
-217
-204
-197
-200
-196
-189
-186
-178
-174
-178
-175
-158
-145
-142
-143
-149
-154
-152
-146
-142
-140
-135
-130
-135
-141
-135
-125
-121
-120
-119
-117
-108
-105
-125
-137
-121
-111
-126
-137
-121
-93
-104
-163
-162
-66
-8
-48
-73
-46
-34
-41
-19
22
33
2
-37
-57
-62
-44
-35
-77
-88
-36
-86
-231
-311
-219
500
1906
2437
1062
-492
-595
-139
-112
-159
-92
-115
-121
-85
-132
-148
-65
-21
-36
-36
-21
21
81
85
53
90
172
199
212
295
386
433
510
614
655
668
698
657
513
318
101
-71
-146
-206
-300
-347
-332
-338
-358
-317
-266
-304
-369
-343
-258
-209
-212
-234
-232
-194
-172
-189
-202
-190
-171
-163
-169
-184
-189
-172
-144
-131
-141
-153
-158
-168
-172
-155
-136
-141
-158
-161
-147
-139
-158
-179
-149
-85
-64
-77
-55
-6
29
53
69
72
88
115
86
14
-9
-18
-110
-241
-303
38
1142
2163
1604
-16
-720
-316
-42
-107
-81
-36
-66
-56
-33
-53
-51
-13
1
-12
-3
35
62
71
84
110
147
193
236
273
327
413
497
556
616
686
722
691
576
384
171
-10
-152
-252
-310
-340
-357
-358
-344
-333
-338
-341
-319
-292
-276
-259
-236
-220
-215
-212
-204
-191
-178
-172
-174
-170
-159
-164
-181
-174
-151
-150
-155
-140
-124
-126
-139
-151
-146
-126
-124
-128
-105
-94
-124
-140
-110
-84
-78
-64
-49
-55
-62
-59
-75
-106
-107
-94
-113
-105
-67
-126
-273
-381
-191
767
2061
2037
468
-649
-430
-53
-96
-116
-66
-89
-73
-28
-36
-39
-16
4
22
40
53
73
96
118
148
178
202
240
298
357
411
475
547
612
663
695
689
614
459
264
83
-69
-182
-242
-267
-286
-297
-297
-296
-291
-281
-278
-274
-261
-252
-249
-237
-224
-215
-203
-194
-189
-168
-148
-152
-159
-153
-157
-163
-160
-163
-169
-160
-149
-150
-153
-148
-136
-129
-134
-137
-131
-128
-127
-123
-120
-114
-102
-93
-85
-67
-51
-43
-38
-39
-48
-64
-89
-93
-78
-91
-92
-54
-100
-239
-329
-156
699
1941
2031
559
-612
-443
-42
-86
-116
-45
-70
-77
-28
-24
-28
-1
11
19
52
76
76
87
122
144
151
175
216
253
298
358
412
470
539
588
610
619
579
446
261
90
-59
-173
-231
-261
-290
-291
-267
-257
-254
-239
-227
-227
-215
-194
-187
-193
-198
-197
-195
-195
-199
-194
-179
-176
-176
-164
-157
-167
-170
-157
-149
-153
-152
-143
-134
-130
-128
-127
-123
-116
-113
-115
-112
-102
-100
-103
-97
-87
-87
-90
-86
-76
-64
-51
-41
-31
-15
-5
-15
-31
-46
-69
-74
-60
-77
-85
-40
-73
-216
-340
-293
458
1989
2619
1184
-489
-599
-90
-81
-165
-84
-93
-123
-78
-63
-64
-34
-20
-18
5
32
48
61
77
101
129
147
163
192
233
288
360
431
481
518
540
519
461
406
332
183
1
-125
-186
-226
-262
-284
-275
-247
-240
-252
-247
-234
-227
-204
-189
-210
-224
-205
-194
-200
-200
-173
-130
-131
-178
-196
-168
-148
-145
-138
-136
-139
-136
-131
-128
-118
-111
-129
-144
-115
-80
-92
-114
-100
-75
-72
-76
-81
-91
-89
-72
-66
-69
-61
-48
-52
-57
-50
-47
-49
-41
-32
-27
-18
-9
-11
-24
-50
-72
-52
-42
-73
-53
-30
-132
-267
-355
-89
1207
2762
2400
359
-705
-282
2
-158
-138
-66
-114
-103
-62
-69
-56
-31
-26
-12
8
16
30
52
64
77
99
123
147
177
208
242
283
329
374
415
447
464
449
382
263
118
-16
-117
-181
-220
-243
-248
-244
-241
-236
-227
-223
-223
-219
-212
-206
-203
-200
-195
-192
-191
-187
-177
-171
-169
-166
-161
-157
-151
-146
-141
-136
-134
-131
-127
-121
-117
-115
-113
-110
-105
-102
-102
-101
-98
-94
-92
-89
-84
-80
-79
-77
-74
-72
-66
-54
-46
-42
-34
-15
5
9
-1
-20
-48
-57
-41
-56
-73
-28
-43
-171
-287
-317
207
1696
2752
1690
-183
-628
-129
-51
-181
-113
-93
-132
-95
-74
-83
-62
-45
-41
-23
-4
7
26
48
61
75
93
113
134
162
193
226
262
299
330
353
368
375
352
278
164
45
-50
-119
-162
-187
-203
-209
-208
-204
-197
-188
-185
-186
-182
-178
-177
-171
-161
-157
-155
-149
-145
-140
-133
-130
-128
-119
-113
-118
-118
-111
-108
-110
-108
-101
-93
-89
-88
-83
-78
-81
-84
-79
-74
-77
-80
-78
-74
-72
-71
-71
-67
-67
-69
-63
-51
-45
-43
-35
-18
5
16
6
-18
-47
-57
-44
-53
-68
-31
-38
-147
-269
-345
81
1498
2680
1868
45
-575
-178
-65
-180
-131
-108
-143
-112
-91
-98
-74
-55
-56
-41
-17
-5
7
26
45
62
79
94
112
138
168
199
227
257
289
316
332
336
315
256
163
60
-30
-97
-143
-171
-183
-189
-195
-192
-180
-173
-175
-176
-172
-168
-167
-163
-156
-156
-160
-152
-142
-144
-152
-151
-143
-137
-137
-134
-127
-126
-128
-123
-119
-123
-118
-103
-102
-107
-98
-88
-95
-104
-106
-105
-97
-88
-84
-65
-40
-46
-64
-53
-32
-30
-30
-19
-4
13
26
24
3
-30
-48
-34
-37
-66
-51
-31
-94
-180
-232
29
1104
2302
1955
296
-642
-382
-89
-124
-123
-99
-116
-85
-54
-70
-67
-41
-29
-19
-2
14
32
48
59
73
99
125
143
168
200
202
200
265
360
396
386
384
368
292
166
44
-36
-93
-156
-211
-230
-221
-211
-208
-207
-206
-205
-198
-191
-186
-182
-176
-168
-160
-155
-155
-159
-159
-153
-145
-136
-134
-146
-150
-129
-112
-121
-118
-88
-73
-87
-98
-93
-101
-131
-136
-90
-48
-61
-94
-106
-96
-74
-59
-68
-80
-67
-39
-12
11
13
-18
-57
-61
-45
-67
-81
-37
-62
-191
-318
-340
272
1780
2661
1495
-234
-566
-129
-88
-182
-118
-118
-152
-115
-99
-103
-78
-62
-58
-39
-19
-8
7
29
49
65
77
93
117
150
193
237
269
293
322
355
377
372
324
233
120
14
-67
-122
-160
-184
-196
-196
-191
-188
-187
-183
-177
-172
-169
-165
-158
-153
-152
-152
-150
-148
-145
-142
-139
-136
-133
-131
-130
-130
-130
-128
-119
-111
-111
-112
-109
-106
-104
-99
-96
-95
-92
-87
-87
-89
-88
-84
-78
-67
-57
-53
-49
-30
-3
8
-3
-25
-53
-68
-53
-57
-78
-48
-40
-134
-245
-326
-35
1202
2533
2106
332
-562
-264
-62
-167
-149
-110
-141
-120
-89
-97
-88
-64
-54
-40
-23
-10
4
23
43
63
80
100
124
148
172
207
245
276
301
325
344
349
327
260
154
45
-43
-107
-150
-173
-185
-189
-188
-185
-180
-173
-171
-171
-165
-160
-158
-155
-150
-150
-150
-148
-147
-146
-140
-131
-129
-131
-129
-123
-119
-118
-119
-116
-111
-106
-102
-100
-97
-93
-89
-87
-86
-83
-80
-82
-81
-71
-60
-57
-51
-31
-8
-2
-13
-32
-58
-72
-60
-66
-87
-60
-54
-144
-248
-327
-42
1178
2483
2057
319
-552
-267
-76
-178
-159
-123
-156
-139
-111
-114
-101
-80
-73
-60
-40
-26
-10
8
24
41
62
82
103
128
155
184
217
251
278
297
311
313
285
215
112
10
-69
-125
-164
-186
-195
-198
-196
-191
-186
-183
-179
-175
-173
-169
-164
-159
-157
-154
-149
-147
-145
-140
-137
-134
-129
-125
-125
-123
-119
-115
-111
-107
-106
-105
-102
-100
-97
-90
-85
-83
-82
-75
-66
-58
-50
-39
-21
1
8
-6
-30
-56
-61
-46
-59
-70
-34
-50
-148
-247
-296
174
1541
2532
1648
-12
-510
-159
-75
-160
-114
-104
-132
-102
-83
-86
-65
-47
-40
-23
-3
9
22
42
61
79
98
120
142
167
197
229
260
289
313
331
340
328
280
193
91
-2
-72
-117
-145
-162
-168
-166
-164
-164
-159
-151
-148
-149
-145
-141
-143
-148
-145
-137
-134
-135
-132
-132
-137
-136
-126
-125
-129
-121
-108
-106
-107
-109
-114
-113
-111
-117
-105
-77
-76
-78
-44
-22
-24
-8
-11
-57
-90
-107
-121
-91
-54
-76
-95
-63
-31
-25
-38
-56
-47
-45
-102
-126
-68
-68
-122
-95
-85
-189
-301
-290
299
1689
2500
1426
-203
-567
-185
-130
-211
-153
-139
-162
-139
-127
-118
-91
-78
-70
-52
-41
-26
-2
16
37
68
82
86
106
136
165
199
237
271
299
321
335
327
271
168
52
-47
-124
-182
-226
-244
-233
-214
-220
-235
-223
-191
-172
-167
-162
-159
-152
-133
-121
-127
-126
-104
-84
-78
-74
