# session 18
22
19
3
82
257
385
351
187
21
-89
237
1659
3271
2875
734
-503
-220
77
-13
6
55
15
35
77
69
76
97
103
117
143
162
187
221
253
287
337
402
469
536
608
675
713
716
677
575
412
230
74
-41
-125
-196
-253
-285
-298
-304
-309
-313
-318
-318
-316
-326
-342
-347
-341
-339
-342
-338
-312
-273
-242
-225
-210
-196
-189
-184
-177
-170
-166
-165
-162
-158
-155
-152
-149
-148
-146
-136
-125
-121
-120
-117
-112
-106
-101
-97
-95
-95
-96
-94
-99
-119
-143
-151
-144
-138
-131
-118
-105
-94
-85
-81
-83
-81
-66
-47
-41
-42
-30
-4
10
-2
-9
-3
-29
-70
-83
-115
-155
-115
-120
-275
-439
-501
20
1683
3124
2253
94
-729
-305
-150
-261
-191
-150
-181
-135
-101
-111
-93
-65
-49
-25
-3
19
55
95
128
169
224
286
350
419
485
532
557
563
536
454
327
191
65
-38
-105
-141
-160
-166
-162
-157
-150
-141
-138
-141
-143
-143
-144
-143
-141
-141
-136
-127
-120
-119
-118
-113
-106
-103
-104
-102
-92
-81
-76
-72
-68
-69
-82
-103
-119
-122
-121
-121
-115
-116
-137
-154
-145
-131
-131
-126
-104
-84
-78
-76
-67
-56
-51
-51
-50
-46
-43
-39
-38
-47
-56
-53
-45
-43
-38
-31
-35
-47
-46
-35
-36
-46
-50
-50
-42
-28
-23
-15
13
29
18
15
15
-25
-63
-45
-37
-64
-43
-44
-169
-323
-405
10
1482
2934
2355
335
-667
-367
-153
-241
-191
-133
-176
-176
-141
-133
-124
-101
-75
-50
-31
-10
24
59
91
134
182
227
291
372
446
510
566
596
577
494
349
186
46
-65
-153
-211
-242
-258
-265
-268
-264
-252
-239
-237
-235
-219
-205
-210
-217
-212
-205
-197
-189
-189
-190
-178
-164
-166
-168
-162
-161
-165
-157
-146
-149
-151
-140
-131
-134
-134
-124
-114
-115
-118
-114
-106
-101
-102
-104
-101
-96
-94
-93
-92
-93
-90
-82
-81
-83
-80
-79
-75
-58
-47
-53
-49
-18
9
9
2
3
-14
-48
-46
-34
-61
-47
-7
-105
-286
-405
-189
1037
2816
2929
912
-668
-536
-125
-198
-214
-129
-161
-165
-115
-110
-102
-70
-56
-42
-14
10
37
71
104
142
193
251
314
385
460
528
578
602
590
526
400
236
80
-42
-125
-179
-211
-228
-235
-236
-231
-225
-220
-216
-212
-210
-208
-201
-195
-192
-190
-185
-178
-171
-164
-161
-160
-155
-149
-145
-143
-142
-140
-136
-133
-130
-127
-123
-119
-116
-112
-109
-110
-109
-105
-99
-99
-102
-100
-94
-91
-90
-88
-84
-82
-81
-80
-77
-75
-74
-73
-72
-68
-64
-61
-60
-58
-56
-54
-48
-39
-38
-38
-23
-2
6
8
-3
-35
-42
-31
-57
-49
-4
-92
-279
-407
-262
828
2665
3096
1251
-487
-519
-114
-192
-239
-153
-181
-192
-139
-133
-130
-99
-85
-72
-44
-20
4
37
73
108
150
197
251
308
365
420
467
498
504
468
383
264
138
27
-60
-118
-153
-169
-173
-175
-176
-179
-185
-188
-186
-184
-184
-182
-177
-171
-164
-157
-152
-145
-142
-150
-163
-167
-166
-162
-156
-147
-140
-134
-128
-124
-121
-116
-111
-112
-118
-121
-119
-115
-108
-101
-106
-130
-159
-162
-137
-116
-116
-111
-96
-97
-110
-104
-81
-66
-62
-59
-56
-49
-38
-29
-24
-19
-12
-8
-7
-7
-6
-3
0
-1
-2
3
14
26
34
34
36
50
66
74
57
19
4
12
-9
-14
22
-35
-188
-322
-269
583
2263
2963
1524
-232
-522
-164
-177
-254
-187
-185
-198
-161
-150
-149
-120
-100
-92
-77
-58
-35
-6
23
51
84
125
168
216
273
324
362
393
408
385
323
232
124
19
-69
-137
-181
-201
-208
-212
-214
-207
-193
-189
-195
-189
-179
-179
-175
-166
-170
-167
-144
-132
-149
-160
-148
-131
-123
-125
-129
-128
-117
-108
-110
-119
-119
-109
-102
-101
-96
-90
-93
-92
-76
-65
-75
-83
-74
-67
-71
-69
-61
-62
-67
-61
-53
-58
-66
-61
-56
-60
-61
-53
-47
-42
-35
-29
-17
3
14
6
-21
-48
-44
-41
-69
-55
-26
-106
-257
-386
-171
1012
2557
2485
661
-636
-498
-161
-197
-198
-142
-160
-148
-114
-115
-108
-92
-92
-73
-35
-12
5
38
80
122
161
206
270
346
410
458
500
531
530
476
364
220
85
-24
-107
-166
-197
-208
-209
-209
-211
-206
-197
-191
-187
-181
-177
-171
-159
-149
-151
-153
-149
-144
-143
-141
-136
-132
-130
-129
-128
-125
-124
-124
-122
-116
-111
-108
-104
-103
-103
-98
-91
-88
-88
-86
-82
-78
-75
-76
-77
-73
-68
-65
-61
-62
-66
-65
-59
-58
-58
-54
-49
-46
-45
-46
-44
-39
-38
-39
-35
-28
-21
-20
-16
2
24
28
21
2
-31
-36
-24
-50
-47
-2
-72
-243
-374
-260
733
2463
2964
1306
-402
-540
-157
-190
-242
-167
-180
-191
-147
-142
-145
-122
-109
-99
-77
-56
-38
-10
27
68
108
147
197
254
312
367
412
441
450
430
367
266
146
36
-49
-106
-146
-170
-179
-180
-178
-176
-171
-164
-161
-158
-154
-151
-149
-145
-143
-141
-136
-129
-124
-120
-117
-114
-109
-104
-98
-95
-91
-88
-87
-88
-87
-85
-84
-83
-81
-82
-81
-78
-76
-77
-77
-76
-75
-73
-72
-73
-72
-71
-70
-68
-66
-64
-61
-59
-59
-57
-54
-53
-54
-53
-51
-49
-45
-45
-46
-44
-41
-40
-39
-37
-34
-30
-29
-31
-32
-31
-30
-28
-28
-33
-34
-26
-21
-20
-18
-25
-35
-30
-21
-25
-21
7
31
29
16
4
-19
-36
-24
-31
-59
-30
-15
-124
-270
-353
-10
1315
2763
2421
582
-499
-326
-122
-208
-203
-163
-178
-158
-137
-136
-109
-89
-91
-69
-32
-15
1
30
57
81
121
170
212
259
329
392
421
443
473
468
400
294
182
76
-14
-83
-128
-146
-147
-154
-164
-157
-145
-146
-148
-139
-130
-136
-139
-122
-111
-129
-138
-119
-119
-150
-158
-135
-124
-136
-142
-139
-138
-133
-141
-188
-241
-248
-232
-226
-221
-204
-185
-170
-162
-166
-174
-174
-168
-166
-174
-178
-170
-168
-179
-184
-173
-152
-127
-105
-91
-79
-72
-84
-119
-132
-102
-96
-121
-99
-85
-180
-324
-345
213
1576
2474
1475
-310
-834
-344
-123
-171
-95
-40
-49
-17
-7
-20
9
32
25
44
73
77
92
142
203
264
330
400
480
583
688
762
798
791
713
553
345
144
-23
-157
-254
-309
-338
-359
-378
-387
-384
-378
-386
-390
-367
-341
-344
-339
-301
-268
-255
-240
-229
-237
-236
-211
-204
-224
-221
-184
-146
-121
-116
-137
-154
-140
-121
-118
-113
-103
-102
-98
-83
-73
-70
-63
-58
-45
-18
2
13
32
45
36
32
35
5
-25
-8
-10
-40
-8
0
-138
-319
-385
120
1625
2891
2036
-29
-818
-323
-55
-131
-84
-56
-93
-46
10
21
51
85
101
128
161
179
200
230
263
318
386
408
401
465
606
721
771
776
728
621
462
260
52
-110
-219
-282
-295
-276
-263
-255
-243
-238
-238
-234
-229
-229
-222
-211
-205
-203
-212
-219
-209
-196
-197
-199
-199
-223
-261
-272
-263
-270
-296
-314
-319
-328
-347
-368
-383
-382
-346
-284
-236
-214
-195
-186
-193
-193
-180
-185
-206
-223
-241
-254
-229
-182
-182
-257
-348
-401
-426
-445
-439
-406
-374
-329
-288
-296
-258
-155
-212
-432
-597
-509
476
2338
2946
1104
-814
-837
-251
-242
-274
-162
-218
-281
-214
-160
-130
-69
2
86
185
276
356
426
483
540
603
667
738
824
914
997
1067
1114
1128
1082
953
758
550
376
241
126
34
-13
-24
-32
-43
-50
-53
-55
-57
-65
-73
-80
-91
-97
-86
-67
-54
-40
-26
-18
-12
-7
-12
-18
-20
-23
-31
-42
-47
-50
-59
-82
-109
-130
-139
-139
-143
-150
-147
-138
-136
-142
-148
-165
-209
-274
-337
-380
-403
-421
-449
-483
-510
-531
-557
-579
-591
-590
-571
-538
-513
-520
-542
-529
-479
-433
-399
-354
-305
-268
-235
-191
-142
-107
-80
-37
3
-6
-12
24
24
20
87
60
-128
-300
-304
498
2469
3660
2148
-152
-602
-28
1
-135
-31
-21
-66
-14
8
-4
24
46
52
75
100
118
147
179
205
237
282
335
393
460
534
600
650
683
687
635
517
354
190
55
-45
-113
-153
-175
-185
-187
-184
-182
-178
-171
-165
-164
-167
-169
-170
-168
-165
-165
-168
-166
-159
-156
-157
-156
-151
-147
-144
-140
-140
-141
-140
-139
-137
-132
-129
-129
-127
-123
-120
-119
-118
-118
-117
-113
-112
-113
-112
-108
-105
-105
-104
-101
-98
-97
-95
-92
-93
-92
-90
-87
-85
-83
-82
-80
-77
-75
-74
-71
-69
-68
-66
-63
-62
-63
-60
-58
-56
-54
-53
-53
-49
-38
-32
-29
-15
7
19
13
8
6
-21
-50
-40
-42
-69
-34
-24
-160
-325
-418
-51
1439
3065
2597
453
-680
-353
-114
-241
-211
-159
-201
-179
-139
-145
-130
-102
-91
-73
-47
-27
-5
22
49
81
119
160
205
255
312
366
412
449
473
461
404
308
189
71
-22
-86
-130
-159
-172
-174
-174
-172
-164
-151
-144
-145
-146
-140
-133
-131
-132
-132
-124
-115
-117
-120
-111
-105
-113
-116
-108
-102
-97
-90
-93
-103
-106
-103
-95
-79
-67
-68
-69
-65
-62
-57
-51
-55
-61
-57
-50
-52
-59
-59
-53
-50
-53
-58
-65
-67
-64
-66
-75
-84
-108
-145
-161
-146
-129
-122
-113
-98
-87
-88
-97
-100
-89
-72
-65
-70
-70
-60
-55
-50
-23
18
40
35
27
26
13
-17
-26
-11
-31
-48
-9
-35
-154
-244
-240
330
1825
2812
1658
-329
-891
-387
-192
-260
-199
-167
-187
-148
-118
-120
-97
-62
-35
-6
27
63
102
136
168
209
254
294
338
397
466
521
557
583
599
571
472
333
194
63
-53
-132
-177
-204
-217
-224
-241
-251
-234
-206
-191
-183
-172
-160
-144
-129
-128
-139
-143
-136
-128
-127
-129
-132
-136
-135
-135
-154
-181
-186
-173
-167
-170
-175
-176
-171
-168
-171
-171
-163
-155
-151
-146
-136
-127
-124
-125
-123
-115
-108
-108
-109
-103
-93
-88
-88
-87
-87
-88
-81
-71
-65
-63
-57
-48
-39
-36
-36
-35
-32
-22
-5
7
11
22
43
50
36
28
32
15
-18
-14
-4
-31
-14
19
-77
-224
-309
-103
1068
2769
2813
784
-747
-552
-101
-165
-188
-112
-148
-156
-113
-118
-119
-90
-79
-74
-55
-34
-13
15
46
76
109
147
197
260
324
383
435
476
496
485
432
329
188
48
-62
-140
-193
-221
-231
-235
-236
-227
-212
-203
-199
-193
-181
-168
-160
-154
-143
-132
-124
-117
-109
-104
-104
-102
-95
-90
-89
-89
-87
-88
-89
-87
-85
-86
-85
-83
-81
-80
-77
-72
-67
-63
-62
-61
-58
-58
-62
-63
-60
-59
-60
-60
-59
-59
-56
-53
-54
-55
-54
-55
-57
-56
-55
-54
-53
-53
-52
-50
-50
-48
-45
-46
-48
-45
-43
-44
-42
-40
-43
-44
-40
-32
-24
-15
-2
17
32
26
11
12
5
-30
-44
-34
-56
-56
-11
-69
-221
-325
-231
643
2315
2922
1317
-496
-662
-173
-160
-233
-153
-161
-187
-145
-137
-146
-125
-111
-101
-79
-59
-45
-24
-1
26
63
103
142
189
247
307
356
391
422
447
445
389
279
149
32
-61
-129
-168
-189
-204
-211
-205
-198
-196
-193
-183
-173
-166
-161
-156
-152
-145
-140
-140
-137
-133
-133
-134
-123
-109
-108
-113
-114
-112
-111
-104
-93
-89
-88
-91
-94
-87
-78
-80
-78
-61
-49
-55
-61
-56
-48
-42
-43
-50
-48
-31
-24
-32
-38
-36
-32
-24
-15
-7
-2
0
-2
-4
-10
-18
-16
-11
-11
-8
-1
-5
-18
-18
-10
-5
8
36
46
23
0
-12
-38
-62
-58
-70
-86
-47
-53
-167
-283
-322
153
1602
2802
1945
-43
-805
-366
-129
-196
-150
-135
-199
-184
-140
-139
-128
-102
-90
-84
-71
-48
-14
24
62
99
137
176
221
262
298
339
388
429
441
425
371
265
122
-11
-116
-197
-253
-283
-303
-311
-302
-293
-292
-287
-269
-246
-234
-238
-241
-222
-189
-162
-147
-142
-138
-124
-107
-102
-102
-93
-85
-91
-96
-92
-94
-99
-97
-89
-80
-68
-59
-58
-53
-38
-28
-25
-22
-21
-22
-20
-19
-21
-21
-19
-21
-29
-37
-37
-33
-35
-38
-37
-37
-37
-31
-27
-31
-29
-17
-14
-18
-14
-1
7
11
25
50
66
61
49
49
32
-10
-19
-10
-37
-26
13
-68
-222
-322
-148
958
2665
2868
964
-630
-540
-108
-171
-211
-132
-156
-164
-123
-126
-125
-98
-89
-79
-53
-32
-12
20
53
82
115
155
200
247
296
348
403
448
475
483
459
390
286
165
48
-42
-100
-144
-182
-199
-198
-193
-188
-186
-186
-183
-182
-185
-188
-187
-182
-180
-199
-236
-261
-266
-267
-270
-270
-267
-262
-253
-249
-252
-255
-252
-251
-259
-265
-263
-256
-249
-239
-239
-255
-261
-238
-203
-174
-149
-119
-96
-90
-85
-79
-79
-84
-86
-87
-84
-73
-60
-44
-23
-9
-7
-3
6
16
28
40
45
52
65
76
78
57
29
26
13
-15
18
31
-94
-247
-338
-37
1298
2867
2590
659
-491
-288
-92
-227
-223
-179
-224
-215
-168
-158
-143
-118
-97
-68
-40
-23
-5
21
50
82
118
156
198
248
306
364
412
451
480
486
449
365
248
126
24
-51
-104
-140
-158
-165
-166
-165
-161
-158
-154
-150
-147
-142
-134
-126
-123
-119
-115
-112
-109
-101
-91
-88
-90
-84
-72
-67
-71
-75
-73
-68
-66
-68
-70
-64
-52
-44
-45
-46
-40
-36
-37
-37
-36
-44
-51
-49
-41
-36
-34
-39
-53
-59
-45
-37
-53
-54
-19
0
-19
-43
-65
-79
-67
-71
-87
-51
-103
-359
-426
8
