# session 5
-5
2
-36
139
449
512
385
356
386
345
291
281
264
236
249
251
177
70
-110
-87
840
2133
1990
500
-314
-52
117
17
56
89
31
38
66
58
67
85
87
96
112
126
147
168
179
185
195
197
188
182
186
189
184
164
115
38
-40
-96
-126
-141
-147
-149
-152
-158
-164
-167
-171
-177
-180
-182
-184
-187
-187
-183
-180
-176
-171
-171
-171
-161
-144
-133
-122
-122
-150
-167
-162
-181
-186
-148
-173
-265
-392
-520
-47
1296
1973
828
-538
-584
-179
-196
-236
-157
-179
-187
-123
-109
-117
-89
-60
-36
-8
10
26
51
74
95
119
136
139
136
132
133
137
127
88
22
-58
-122
-152
-166
-181
-187
-185
-189
-190
-177
-168
-172
-166
-154
-156
-156
-142
-133
-137
-137
-117
-93
-94
-103
-83
-55
-49
-40
-37
-63
-73
-62
-81
-74
-27
-63
-163
-319
-440
213
1695
2138
672
-650
-485
-34
-68
-79
12
-13
-20
32
51
64
85
95
118
152
175
199
227
249
271
294
306
304
303
300
287
269
236
162
55
-43
-106
-137
-153
-173
-188
-184
-173
-174
-173
-162
-154
-153
-150
-149
-147
-138
-130
-132
-140
-141
-132
-123
-118
-108
-96
-86
-72
-71
-103
-119
-102
-115
-123
-78
-97
-194
-330
-506
-85
1374
2265
1087
-526
-646
-131
-109
-170
-67
-76
-107
-55
-39
-45
-15
9
24
51
73
93
120
148
169
189
204
210
203
187
173
159
129
67
-16
-99
-159
-193
-206
-210
-208
-203
-199
-196
-188
-178
-174
-175
-168
-158
-158
-155
-145
-146
-153
-146
-132
-125
-125
-127
-123
-101
-80
-66
-50
-58
-95
-100
-86
-109
-105
-70
-116
-210
-355
-424
346
1853
2145
593
-632
-416
-47
-140
-148
-62
-93
-94
-43
-40
-37
-6
15
34
59
82
110
141
167
190
212
226
232
231
222
209
190
156
100
25
-51
-108
-137
-147
-152
-154
-148
-142
-143
-143
-139
-136
-132
-125
-123
-121
-119
-124
-129
-118
-101
-89
-88
-95
-92
-77
-72
-71
-51
-27
-13
0
-12
-42
-49
-50
-57
-26
-20
-86
-170
-307
-171
833
1932
1522
103
-470
-172
-61
-134
-72
-49
-83
-51
-25
-34
-17
7
15
31
53
69
92
120
147
170
184
191
193
188
176
167
159
133
73
-6
-79
-129
-159
-180
-190
-193
-195
-197
-193
-192
-195
-193
-187
-180
-175
-173
-172
-168
-161
-154
-146
-147
-152
-149
-141
-133
-118
-110
-120
-123
-108
-94
-73
-43
-54
-98
-102
-87
-109
-94
-45
-94
-197
-338
-452
199
1687
2121
620
-720
-532
-63
-111
-137
-47
-81
-100
-53
-42
-28
13
37
56
83
108
144
185
209
226
252
278
293
298
291
278
260
222
154
62
-41
-116
-143
-155
-175
-179
-169
-168
-162
-143
-136
-142
-131
-118
-124
-125
-110
-106
-113
-109
-99
-96
-93
-90
-89
-83
-73
-68
-72
-74
-62
-46
-35
-18
-13
-50
-79
-66
-76
-89
-41
-52
-160
-305
-501
-144
1349
2464
1421
-359
-676
-160
-92
-169
-71
-63
-95
-47
-31
-42
-13
15
26
51
81
102
124
158
197
229
253
268
270
263
254
231
183
107
12
-90
-173
-222
-244
-251
-254
-251
-244
-239
-236
-226
-209
-197
-193
-186
-176
-175
-172
-164
-157
-153
-149
-147
-144
-136
-128
-121
-113
-112
-116
-110
-94
-71
-43
-43
-88
-108
-84
-95
-103
-59
-84
-196
-350
-517
-17
1539
2432
1194
-442
-572
-96
-102
-161
-56
-62
-90
-44
-34
-42
-15
8
29
67
97
117
150
194
229
251
272
292
299
291
277
260
224
156
69
-13
-78
-125
-147
-153
-153
-151
-149
-147
-142
-138
-135
-131
-128
-129
-129
-128
-124
-119
-117
-119
-110
-98
-97
-99
-90
-83
-91
-96
-87
-81
-85
-87
-75
-60
-45
-22
-20
-58
-83
-76
-86
-79
-36
-63
-161
-301
-446
7
1339
2072
1027
-337
-486
-132
-122
-149
-72
-82
-96
-56
-49
-47
-18
4
20
43
65
94
130
159
187
216
241
255
258
249
236
222
197
147
67
-25
-103
-152
-182
-200
-202
-192
-189
-193
-186
-170
-162
-165
-167
-163
-163
-165
-156
-143
-143
-146
-140
-131
-132
-139
-141
-131
-123
-122
-124
-120
-112
-103
-101
-108
-114
-104
-80
-46
-13
-23
-80
-106
-89
-91
-81
-52
-100
-204
-382
-469
347
1927
2224
599
-696
-486
-80
-142
-140
-51
-84
-84
-26
-12
0
31
44
60
94
127
166
211
246
274
307
344
386
422
422
376
324
313
292
168
36
49
80
-70
-237
-205
-108
-122
-179
-198
-221
-244
-186
-63
-5
-46
-95
-101
-107
-129
-129
-106
-122
-185
-234
-236
-193
-136
-124
-160
-170
-144
-149
-186
-165
-70
9
11
-41
-88
-111
-145
-173
-144
-124
-181
-300
-415
-77
1090
2025
1335
-168
-722
-383
-130
-102
-111
-143
-140
-134
-197
-221
-155
-81
5
121
175
173
235
310
280
254
326
353
305
333
375
276
157
135
28
-250
-454
-472
-507
-596
-541
-359
-254
-259
-268
-237
-197
-202
-227
-208
-191
-226
-230
-206
-235
-217
-78
7
-58
-140
-188
-208
-158
-101
-107
-65
21
33
67
158
136
93
179
192
114
185
248
95
25
203
405
838
1785
2331
1411
-76
-509
-58
185
109
85
100
83
99
134
109
32
9
61
71
-1
-64
-65
-21
43
116
154
92
5
63
221
277
204
63
-120
-242
-273
-326
-348
-243
-207
-353
-431
-317
-243
-332
-422
-409
-400
-435
-409
-319
-276
-290
-283
-253
-253
-265
-255
-252
-258
-225
-150
-88
-83
-90
-33
13
-52
-127
-124
-106
-63
19
30
-39
-126
-298
-319
435
1671
1928
839
-174
-276
-55
42
61
-18
-104
-68
-11
-2
20
48
76
131
187
215
223
223
263
336
311
205
204
266
221
129
1
-228
-311
-97
56
-71
-241
-300
-299
-258
-223
-250
-302
-312
-246
-130
-82
-114
-86
0
6
-34
-39
-70
-130
-138
-122
-123
-93
-45
-44
-58
-55
-66
-92
-107
-106
-100
-100
-99
-96
-119
-166
-210
-245
-346
-536
-243
1141
2476
1874
42
-668
-132
113
-159
-291
-297
-352
-315
-212
-159
-110
-81
-117
-128
-78
-29
31
112
181
278
393
428
431
496
511
384
231
108
-32
-128
-161
-243
-306
-225
-121
-67
12
7
-138
-191
-113
-86
-24
196
328
170
-52
-100
-92
-172
-247
-257
-244
-186
-129
-149
-153
-108
-93
-52
40
87
115
145
111
63
-12
106
1121
2572
2525
826
-336
-174
90
-21
-45
30
-41
-203
-305
-332
-346
-321
-223
-139
-125
-146
-202
-230
-106
48
42
25
151
238
211
238
294
233
111
5
-94
-124
-69
-47
-72
-43
18
36
32
24
-1
7
63
84
20
-75
-128
-119
-117
-159
-180
-226
-466
-823
-1063
-1181
-1220
-1083
-839
-712
-655
-527
-419
-356
-290
-380
-604
-721
-664
47
1707
2638
1304
-561
-823
-274
-188
-251
-155
-152
-192
-146
-115
-124
-100
-64
-61
-60
-21
-6
-81
-88
134
381
395
291
242
189
98
22
-115
-347
-498
-497
-525
-641
-627
-401
-176
-87
-37
54
171
279
343
356
346
349
392
457
494
478
427
385
384
384
343
304
317
358
346
258
195
212
230
198
147
117
85
23
-35
-201
-325
572
2433
2953
1236
-319
-299
-3
-104
-38
139
122
63
38
8
53
154
181
141
151
246
335
367
381
402
441
531
648
691
642
596
560
444
301
214
54
-169
-210
-159
-302
-522
-627
-676
-675
-638
-690
-746
-659
-562
-574
-590
-566
-564
-571
-562
-555
-525
-463
-461
-531
-540
-471
-464
-528
-564
-556
-513
-474
-517
-543
-458
-452
-569
-692
-795
-199
1574
2671
1317
-659
-976
-464
-386
-415
-357
-402
-327
-143
-122
-124
-19
-4
-91
-108
-51
22
82
101
127
213
322
406
451
463
456
407
280
111
-17
-95
-175
-242
-254
-223
-172
-112
-64
-29
5
17
6
10
33
53
98
172
154
-1
-103
-22
100
125
100
81
46
-1
-21
-15
13
58
54
6
-2
-30
-158
-342
-368
384
1923
2528
1106
-556
-703
-177
-82
-127
-41
-38
-76
-3
85
83
72
122
145
105
128
214
248
277
377
494
588
637
592
506
469
438
329
156
-1
-118
-217
-280
-293
-300
-309
-274
-236
-246
-239
-190
-180
-226
-267
-286
-291
-299
-329
-336
-270
-188
-156
-111
-21
-18
-104
-57
73
3
-159
-149
-73
-69
-93
-125
-107
-46
-67
-201
-365
-8
1497
2880
2025
-120
-885
-352
-156
-318
-306
-309
-376
-354
-318
-296
-242
-219
-225
-186
-117
-77
-44
19
97
192
321
428
463
447
410
377
343
250
104
-19
-118
-245
-361
-400
-415
-450
-436
-385
-405
-451
-415
-361
-381
-419
-394
-342
-324
-312
-283
-278
-280
-254
-224
-201
-195
-227
-228
-168
-121
-53
53
50
3
80
104
-34
-152
-83
667
2148
2696
1283
-300
-514
-189
-95
-13
11
-74
-42
3
-56
-57
-27
-91
-142
-133
-140
-106
10
103
137
184
228
209
166
150
107
-23
-174
-237
-221
-228
-277
-293
-269
-241
-195
-156
-165
-156
-84
1
63
75
59
108
185
142
44
56
103
26
-108
-146
-108
-105
-137
-124
-68
-50
-80
-95
-81
-98
-130
-99
-83
-167
-288
-459
-250
1159
2869
2635
760
-261
-6
176
84
142
195
139
104
78
42
0
-88
-142
-80
-16
-20
6
70
101
133
196
246
282
331
353
283
117
-71
-238
-387
-482
-489
-474
-499
-521
-496
-451
-409
-378
-398
-448
-430
-380
-410
-417
-271
-148
-197
-240
-168
-134
-190
-203
-136
-96
-133
-180
-181
-157
-160
-198
-203
-192
-271
-401
-545
-521
419
2094
2426
725
-712
-589
-168
-177
-159
-82
-103
-94
-59
-32
70
203
255
213
146
144
219
290
337
370
356
324
355
423
452
447
435
384
250
65
-60
-56
-21
-76
-133
-85
-27
-49
-70
-45
-19
9
44
52
34
32
29
-42
-178
-280
-332
-390
-423
-395
-376
-411
-438
-410
-376
-398
-428
-384
-321
-275
-218
-240
-359
-479
-550
30
1742
2946
1815
-176
-703
-272
-178
-234
-146
-148
-202
-169
-136
-136
-112
-74
-45
-2
56
103
136
179
250
348
434
477
530
611
593
448
340
272
107
-32
-2
17
-86
-150
-168
-252
-312
-265
-212
-220
-238
-228
-180
-136
-148
-180
-184
-194
-222
-218
-180
-176
-213
-216
-169
-163
-222
-258
-244
-242
-273
-299
-261
-207
-262
-358
-459
-533
213
2043
2883
1302
-557
-670
-84
12
-73
-125
-210
-179
-130
-198
-180
-50
-47
-123
-82
-7
-17
-13
56
115
170
248
293
301
334
379
351
223
73
-27
-95
-118
-63
-29
-80
-94
-57
-104
-180
-155
-108
-112
-76
4
-4
-111
-154
-77
-37
-97
-132
-98
-42
35
83
45
-13
-30
-27
-25
-37
-42
-34
-104
-246
-371
-427
52
1422
2379
1397
-384
-924
-487
-261
-274
-265
-269
-222
-168
-215
-235
-192
-183
-124
1
13
-57
-26
66
133
223
331
389
404
397
368
349
326
214
24
-102
-132
-186
-282
-320
-307
-310
-311
-285
-254
-221
-198
-204
-206
-199
-218
-234
-220
-202
-166
-126
-173
-226
-97
123
218
215
185
82
-17
-9
20
11
-30
-139
-249
-357
-411
353
2078
2749
1156
-594
-719
-290
-286
-273
-157
-187
-195
-124
-136
-169
-131
-96
-95
-95
-93
-50
46
142
240
360
407
376
436
585
609
462
306
204
63
-130
-255
-266
-237
-202
-179
-200
-218
-216
-259
-285
-208
-174
-283
-358
-306
-249
-233
-218
-224
-240
-233
-226
-230
-216
-181
-145
-121
-113
-91
-67
-95
-103
-56
-93
-240
-418
-400
477
2064
2528
1114
-259
-297
10
-86
-215
-196
-130
-51
-33
-38
5
-6
-71
-42
58
103
97
105
138
163
189
300
432
373
167
96
172
147
-52
-280
-425
-453
-394
-357
-384
-382
-332
-335
-371
-338
-279
-279
-275
-212
-158
-155
-154
-118
-66
-36
-59
-89
-69
-41
-52
-68
-88
-127
-124
-106
-122
-87
-63
-205
-399
-519
-283
937
2446
2207
367
-681
-396
-148
-234
-182
-111
-141
-111
-58
-61
-28
63
100
82
128
214
218
203
272
341
363
423
494
493
472
466
407
278
116
-30
-85
-75
-115
-194
-231
-236
-227
-191
-165
-177
-181
-178
-202
-227
-237
-256
-256
-218
-205
-234
-230
-185
-172
-191
-185
-152
-104
-33
-8
-58
-58
-42
-164
-312
-453
-431
647
2541
2860
959
-559
-436
-117
-237
-223
-136
-187
-171
-110
-148
-167
-117
-101
-88
-15
35
19
28
99
180
257
325
368
409
463
467
380
243
114
9
-72
-106
-82
-74
-138
-192
-186
-197
-230
-218
-199
-203
-182
-149
-153
-166
-153
-127
-123
-172
-243
-266
-235
-201
-200
-224
-255
-287
-301
-293
-318
-353
-326
-349
-470
-574
-687
-355
1102
2428
1585
-391
-1012
-540
-423
-489
-336
-307
-385
-309
-213
-223
-231
-176
-108
-82
-89
-63
-1
41
67
118
176
215
264
347
425
434
343
189
50
-44
-113
-158
-164
-145
-136
-142
-142
-141
-153
-152
-101
-47
-43
-30
58
161
192
139
83
119
192
173
149
193
114
-137
-406
-685
-884
-773
-591
-787
-1136
-1191
-1055
-466
1210
2753
2057
44
-667
-120
143
98
216
279
249
306
365
376
436
523
555
536
523
565
650
731
799
886
986
1056
1089
1117
1142
1126
1051
958
888
815
697
554
393
145
-161
-358
-374
-272
-138
-108
-338
-797
-1220
-1370
-1313
-1246
-1124
-849
-599
-526
-506
-427
-367
-415
-549
-727
-937
-1044
-900
-675
-615
-706
-879
-1020
-1008
-930
-335
1408
2905
2106
160
-455
-22
93
31
113
89
33
74
80
64
77
40
