# session 2
-16
-17
-26
141
334
267
122
135
180
170
184
219
235
251
274
297
316
320
317
317
313
291
237
159
76
-3
-60
-81
-94
-118
-134
-137
-134
-118
-104
-103
-99
-85
-84
-94
-99
-87
-81
-99
-109
-83
-65
-79
-84
-68
-63
-71
-66
-50
-29
-12
-32
-77
-79
-52
-72
-81
-39
-79
-200
-330
-394
217
1682
2325
992
-557
-655
-198
-168
-214
-137
-132
-140
-104
-89
-81
-72
-79
-67
-34
-10
4
17
33
66
107
138
162
199
245
280
300
319
340
344
304
214
95
-17
-102
-156
-188
-206
-213
-211
-211
-212
-205
-194
-189
-184
-178
-178
-180
-175
-173
-177
-172
-162
-162
-159
-147
-143
-146
-140
-144
-162
-163
-134
-105
-83
-69
-91
-125
-106
-82
-117
-108
-54
-122
-282
-479
-520
431
2241
2709
1042
-413
-334
-26
-161
-185
-104
-148
-149
-97
-106
-107
-81
-79
-68
-36
-21
-11
17
37
55
93
129
150
176
203
221
243
262
261
241
199
120
14
-76
-127
-150
-161
-163
-164
-167
-165
-162
-156
-147
-140
-138
-130
-122
-126
-132
-128
-115
-104
-104
-100
-80
-77
-98
-107
-98
-90
-75
-68
-90
-100
-73
-53
-45
-25
-37
-74
-52
-16
-58
-77
-36
-87
-218
-371
-371
481
2023
2330
770
-545
-438
-90
-153
-166
-98
-139
-162
-122
-97
-89
-90
-89
-71
-57
-47
-20
11
27
45
78
109
121
127
152
196
227
233
233
231
204
137
41
-51
-121
-165
-180
-179
-193
-206
-179
-147
-155
-157
-118
-103
-139
-143
-96
-77
-99
-106
-91
-87
-91
-87
-86
-100
-114
-104
-95
-114
-119
-89
-96
-148
-159
-120
-82
-52
-50
-102
-122
-74
-68
-95
-54
-64
-202
-353
-554
-347
1112
2696
2126
136
-656
-240
-97
-201
-120
-106
-164
-109
-59
-68
-49
-22
-18
-7
24
67
97
91
90
130
174
208
253
296
325
356
386
393
398
413
378
236
49
-77
-137
-181
-214
-228
-236
-239
-237
-240
-243
-238
-230
-224
-218
-209
-196
-184
-185
-196
-191
-166
-150
-161
-176
-172
-162
-160
-160
-150
-139
-144
-145
-109
-62
-44
-40
-62
-122
-132
-93
-118
-130
-57
-91
-250
-416
-507
162
1839
2638
1210
-499
-616
-136
-128
-186
-115
-137
-144
-85
-78
-88
-60
-41
-35
-16
7
29
57
100
137
143
147
193
247
259
258
274
288
293
297
268
176
55
-49
-135
-204
-234
-238
-240
-231
-215
-211
-203
-182
-165
-133
-75
-57
-102
-130
-112
-106
-112
-103
-98
-103
-87
-69
-91
-124
-122
-96
-84
-92
-106
-117
-117
-97
-62
-43
-68
-110
-117
-96
-75
-39
-42
-130
-199
-337
-513
218
2021
2702
1111
-490
-470
-67
-142
-154
-58
-122
-145
-63
-57
-90
-67
-22
5
11
-2
-11
7
44
89
136
169
176
170
171
198
267
329
296
211
180
149
20
-98
-80
-46
-133
-226
-202
-157
-194
-227
-178
-135
-171
-198
-162
-139
-151
-142
-130
-150
-156
-126
-113
-126
-120
-104
-108
-115
-112
-118
-133
-143
-153
-155
-137
-102
-64
-37
-41
-84
-120
-105
-94
-95
-50
-43
-140
-274
-420
-126
1172
2366
1715
53
-547
-222
-123
-186
-116
-111
-149
-116
-101
-87
-34
-31
-47
7
44
2
-9
49
93
107
130
163
190
211
226
236
240
239
250
261
221
126
28
-42
-94
-131
-150
-155
-156
-157
-155
-151
-150
-147
-136
-124
-123
-132
-138
-136
-129
-117
-107
-113
-128
-132
-122
-110
-109
-108
-94
-77
-79
-91
-100
-106
-98
-68
-35
-21
-25
-36
-58
-102
-119
-52
-25
-131
-242
-374
-350
601
2096
2122
455
-646
-402
-114
-194
-163
-96
-132
-107
-61
-91
-98
-51
-36
-39
-5
23
37
83
109
81
94
154
177
206
274
287
242
239
261
251
247
223
95
-68
-137
-151
-204
-259
-256
-223
-206
-208
-206
-189
-180
-195
-199
-178
-171
-185
-181
-147
-123
-137
-160
-151
-132
-129
-130
-117
-97
-84
-88
-96
-93
-86
-84
-71
-44
-38
-63
-64
-38
-62
-92
-47
-56
-181
-333
-527
-225
1277
2638
1805
-121
-684
-196
-86
-189
-87
-55
-108
-72
-32
-39
-31
-13
-3
13
37
66
97
117
134
169
213
249
275
306
341
362
368
370
362
323
235
107
-20
-106
-162
-209
-242
-250
-243
-237
-238
-237
-229
-221
-215
-204
-195
-191
-187
-182
-179
-175
-168
-162
-162
-165
-167
-164
-159
-155
-152
-152
-156
-162
-157
-132
-102
-83
-78
-99
-123
-110
-98
-110
-70
-51
-179
-360
-553
-438
813
2536
2412
460
-672
-324
-45
-172
-135
-68
-115
-96
-55
-71
-60
-27
-21
-11
12
32
54
81
113
148
176
200
235
270
294
313
329
336
333
305
232
122
6
-91
-155
-188
-207
-221
-229
-234
-236
-229
-219
-209
-198
-188
-182
-172
-163
-162
-161
-154
-150
-150
-145
-138
-135
-132
-127
-124
-124
-127
-131
-132
-131
-117
-87
-62
-55
-70
-103
-111
-86
-101
-119
-60
-69
-210
-362
-513
-137
1415
2763
1908
10
-545
-129
-94
-219
-131
-110
-154
-120
-95
-98
-76
-61
-53
-32
-11
8
33
58
84
115
144
173
205
233
253
267
282
295
290
256
190
92
-18
-97
-135
-160
-186
-200
-199
-196
-194
-190
-182
-173
-172
-171
-158
-145
-149
-150
-138
-131
-130
-125
-122
-120
-110
-102
-108
-112
-102
-89
-90
-98
-103
-94
-68
-44
-32
-31
-53
-77
-62
-53
-83
-65
-38
-118
-248
-420
-360
689
2204
2157
488
-528
-269
-47
-163
-130
-73
-120
-108
-67
-72
-65
-45
-35
-15
7
15
31
60
84
108
139
169
193
215
237
255
266
270
266
248
198
111
6
-87
-151
-183
-196
-204
-211
-212
-209
-204
-200
-201
-198
-186
-177
-178
-174
-167
-164
-160
-153
-147
-143
-139
-137
-136
-130
-126
-128
-127
-122
-118
-117
-119
-117
-102
-80
-61
-47
-58
-95
-96
-58
-73
-105
-65
-70
-178
-329
-503
-92
1437
2553
1507
-269
-603
-124
-86
-174
-81
-78
-107
-54
-39
-54
-27
-5
0
17
41
63
91
117
143
174
207
238
277
316
338
348
370
389
378
333
246
113
-19
-105
-159
-193
-205
-210
-221
-227
-225
-220
-211
-201
-197
-196
-189
-177
-174
-177
-170
-160
-164
-168
-156
-146
-148
-143
-131
-129
-127
-117
-113
-121
-129
-123
-94
-59
-41
-55
-92
-106
-83
-89
-107
-65
-74
-188
-329
-522
-242
1234
2606
1802
-123
-694
-200
-82
-184
-80
-45
-108
-97
-76
-73
-44
-22
-13
9
31
44
65
95
129
164
197
231
265
297
327
348
359
365
353
300
204
81
-41
-135
-189
-219
-235
-241
-241
-241
-238
-229
-220
-210
-199
-187
-181
-178
-174
-168
-165
-161
-154
-147
-147
-151
-146
-136
-134
-135
-132
-127
-122
-118
-117
-123
-130
-129
-109
-76
-50
-43
-61
-95
-97
-75
-94
-98
-46
-86
-227
-376
-482
130
1811
2741
1401
-361
-539
-79
-112
-190
-94
-109
-136
-82
-75
-85
-57
-40
-35
-11
13
31
55
79
103
130
157
189
226
256
277
294
308
312
299
253
166
56
-43
-113
-158
-183
-193
-197
-197
-197
-195
-188
-177
-170
-168
-161
-150
-142
-138
-131
-123
-123
-125
-119
-109
-105
-103
-100
-96
-90
-83
-84
-87
-80
-73
-76
-75
-67
-70
-82
-77
-44
-10
1
-13
-42
-56
-38
-41
-69
-35
-15
-112
-245
-407
-272
914
2400
2120
354
-527
-195
-27
-161
-116
-65
-109
-90
-61
-68
-51
-29
-29
-18
2
19
43
67
89
116
138
152
176
207
230
249
262
267
266
243
175
73
-28
-107
-164
-205
-232
-241
-236
-237
-249
-256
-247
-232
-224
-224
-223
-216
-206
-194
-186
-184
-183
-177
-170
-163
-150
-139
-138
-137
-125
-119
-125
-121
-105
-104
-111
-99
-83
-79
-75
-66
-71
-75
-70
-70
-64
-35
-5
-4
-35
-60
-50
-52
-67
-30
-33
-140
-270
-450
-238
1120
2535
1904
8
-668
-200
-57
-183
-104
-60
-110
-87
-57
-55
-32
-13
-5
20
47
67
93
123
158
200
231
257
297
341
376
407
433
445
442
406
315
178
41
-64
-141
-197
-223
-222
-222
-236
-238
-220
-207
-200
-187
-175
-172
-156
-129
-123
-134
-132
-122
-122
-122
-111
-104
-103
-101
-98
-95
-88
-79
-74
-71
-66
-67
-72
-71
-59
-48
-47
-56
-68
-66
-33
10
24
7
-23
-57
-63
-52
-80
-86
-40
-92
-245
-414
-553
17
1671
2620
1316
-449
-644
-161
-157
-220
-114
-122
-155
-106
-96
-107
-78
-56
-45
-23
0
19
42
62
79
107
144
181
216
248
274
292
303
314
308
260
174
74
-34
-140
-212
-244
-257
-261
-257
-254
-254
-252
-247
-238
-227
-220
-218
-215
-207
-202
-199
-190
-185
-183
-171
-160
-167
-161
-137
-132
-144
-139
-128
-125
-125
-129
-130
-121
-126
-140
-120
-90
-96
-106
-85
-57
-37
-12
20
54
82
91
75
40
11
29
48
-7
-25
57
43
-114
-293
-366
288
1824
2518
1235
-244
-341
3
-60
-90
10
-22
-55
4
28
26
55
75
74
80
97
116
136
152
167
204
268
323
343
359
392
403
387
379
363
306
218
114
-2
-94
-142
-167
-176
-179
-195
-194
-159
-166
-237
-275
-243
-213
-205
-191
-179
-177
-166
-158
-161
-159
-168
-199
-212
-210
-238
-272
-254
-215
-212
-254
-303
-292
-219
-189
-238
-262
-259
-314
-362
-307
-231
-191
-89
52
64
-13
-12
8
-24
-8
17
-43
-122
-182
143
1330
2315
1451
-348
-912
-402
-160
-203
-135
-117
-160
-115
-77
-85
-40
5
10
122
326
362
194
73
92
119
108
119
146
157
188
229
227
239
289
266
163
75
-15
-109
-173
-278
-389
-313
-136
-142
-302
-391
-363
-287
-224
-215
-217
-171
-105
-65
-23
21
18
12
73
117
52
-40
-64
-30
-22
-114
-205
-130
37
110
90
33
-29
7
123
147
54
-17
-23
-11
-23
-50
-41
-49
-138
-259
-405
-169
1151
2628
2158
182
-785
-389
-88
-134
-87
-81
-137
-83
-49
-109
-114
-61
-47
-65
-66
-23
45
77
82
112
137
126
145
228
306
340
372
422
473
486
410
254
97
-31
-170
-287
-318
-319
-358
-384
-354
-327
-329
-295
-227
-208
-231
-224
-209
-215
-220
-237
-279
-292
-276
-283
-285
-252
-224
-214
-202
-187
-162
-130
-106
-93
-92
-95
-85
-77
-89
-115
-134
-126
-122
-173
-198
-166
-194
-290
-435
-395
633
2367
2620
799
-666
-536
-166
-233
-209
-97
-110
-109
-79
-69
-24
10
8
43
71
55
79
137
165
196
241
262
276
312
359
400
413
414
466
528
494
376
246
106
-37
-130
-175
-211
-247
-274
-282
-266
-254
-263
-260
-239
-252
-293
-296
-252
-212
-203
-224
-228
-166
-90
-65
-64
-76
-111
-115
-98
-132
-154
-100
-74
-111
-109
-73
-72
-81
-80
-90
-107
-134
-133
-73
-76
-174
-261
-339
11
1340
2491
1712
-54
-635
-239
-119
-175
-76
-86
-166
-116
-72
-93
-55
-14
-73
-133
-104
-52
-37
-18
22
57
107
184
241
258
293
375
455
495
510
484
372
196
32
-103
-222
-311
-346
-333
-320
-338
-336
-291
-272
-287
-254
-178
-150
-176
-193
-184
-190
-227
-232
-164
-122
-166
-195
-161
-141
-138
-113
-107
-122
-97
-55
-62
-111
-146
-129
-82
-77
-98
-87
-108
-184
-260
-353
-32
1296
2573
1956
131
-658
-301
-84
-110
29
142
79
6
1
24
33
17
8
31
41
9
-11
31
91
111
132
195
251
264
286
321
318
319
378
404
318
194
81
-64
-201
-271
-316
-332
-276
-243
-301
-332
-293
-296
-336
-304
-224
-204
-246
-288
-305
-304
-288
-247
-190
-158
-154
-129
-84
-62
-57
-45
-32
-17
3
-1
-32
-63
-80
-65
-54
-95
-91
-41
-130
-308
-441
-405
476
2135
2559
922
-564
-537
-203
-260
-236
-155
-209
-210
-149
-141
-128
-90
-82
-80
-39
25
68
75
72
100
157
202
223
255
303
338
358
376
389
390
369
318
218
69
-75
-162
-194
-200
-227
-293
-341
-331
-311
-314
-310
-299
-289
-252
-210
-222
-252
-227
-202
-239
-259
-204
-151
-152
-171
-166
-128
-84
-51
5
54
17
-70
-103
-75
-69
-90
-49
-3
-85
-220
-341
-213
848
2374
2345
580
-592
-353
-43
-122
-108
-54
-94
-70
-19
-34
-28
24
52
70
106
102
61
95
190
225
229
266
291
323
402
439
419
428
434
377
302
215
67
-110
-233
-304
-379
-450
-455
-405
-378
-381
-364
-332
-329
-334
-304
-278
-286
-288
-271
-260
-239
-215
-234
-266
-255
-223
-195
-154
-119
-120
-126
-116
-116
-122
-101
-77
-75
-76
-136
-287
-429
-570
-445
708
2332
2267
382
-845
-580
-220
-243
-185
-114
-137
-102
-58
-59
-44
-36
-40
-2
41
51
63
96
137
189
274
361
385
373
395
426
447
484
469
375
319
279
124
-44
-85
-98
-165
-200
-183
-176
-169
-137
-111
-105
-97
-94
-114
-147
-175
-189
-191
-200
-224
-227
-182
-146
-171
-191
-141
-93
-102
-102
-72
-79
-123
-134
-112
-118
-145
-109
-41
-78
-195
-342
-346
479
2047
2511
1049
-393
-447
-104
-132
-167
-129
-172
-179
-132
-123
-114
-81
-50
-22
5
27
47
54
57
106
194
230
198
215
307
372
400
435
439
394
309
156
-25
-142
-200
-253
-294
-301
-278
-258
-265
-266
-249
-262
-292
-274
-230
-228
-241
-221
-204
-229
-253
-248
-251
-265
-252
-228
-234
-246
-220
-182
-177
-207
-235
-212
-179
-216
-217
-146
-207
-374
-523
-575
272
2217
3012
1287
-594
-711
-281
-288
-250
-138
-199
-216
-138
-136
-166
-158
-163
-189
-198
-194
-194
-173
-123
-85
-71
-32
44
118
171
