# session 7
183
345
-252
273
2705
4548
4400
3846
3791
3578
3211
3080
2969
2747
2583
2468
2326
2184
2048
1905
1771
1649
1527
1395
1248
1107
1000
903
789
674
567
454
357
270
158
74
10
-153
-385
-687
-897
-114
1634
2116
399
-1185
-1203
-938
-1117
-1188
-1143
-1238
-1304
-1282
-1313
-1404
-1471
-1485
-1491
-1528
-1548
-1524
-1514
-1507
-1443
-1415
-1515
-1614
-1601
-1577
-1609
-1635
-1662
-1731
-1801
-1842
-1878
-1887
-1848
-1807
-1806
-1803
-1752
-1695
-1686
-1683
-1638
-1582
-1548
-1523
-1490
-1438
-1372
-1308
-1241
-1179
-1133
-1061
-977
-934
-853
-728
-714
-797
-950
-961
74
2025
2603
983
-427
-268
145
122
197
376
446
542
666
747
846
966
1062
1163
1275
1371
1484
1643
1786
1853
1906
2024
2169
2266
2335
2425
2519
2577
2597
2605
2649
2749
2830
2837
2837
2893
2985
3087
3183
3263
3354
3433
3440
3419
3453
3523
3587
3643
3710
3815
3911
3919
3901
3918
3899
3879
3895
3815
3635
3364
3154
3948
5825
6493
4839
3248
3298
3653
3532
3507
3568
3556
3747
4006
4042
3973
3669
2685
1287
425
482
1054
1750
2128
1644
650
88
100
505
1319
1763
891
-860
-2547
-4086
-5674
-6985
-7629
-7894
-8367
-8989
-9306
-9309
-9307
-9478
-9729
-9754
-9514
-9290
-9077
-8850
-9003
-9449
-9474
-9078
-8866
-8806
-8573
-8335
-8277
-8249
-8247
-8369
-8471
-8606
-8849
-8350
-6813
-6196
-7673
-9233
-9312
-9034
-9219
-9247
-9074
-9197
-9356
-9184
-9028
-9120
-9138
-8990
-8890
-8877
-8916
-8990
-9053
-9178
-9308
-9264
-9275
-9481
-9486
-9354
-9331
-8744
-7505
-6767
-6411
-5473
-4523
-4116
-3711
-2798
-505
2286
2760
4144
13318
26523
33405
33175
31787
30993
29938
28976
28199
27278
26390
25614
24821
24067
23384
22711
22055
21424
20795
20188
19622
19091
18588
18105
17641
17199
16776
16373
15998
15640
15286
14945
14630
14340
14070
13816
13570
13337
13127
12927
12738
12584
12437
12284
12171
12054
11899
11838
11787
11605
11598
11652
11321
11400
11918
9709
2400
-8121
-18609
-27004
-32554
-35891
-37582
-37623
-37070
-36970
-36612
-35674
-35131
-34724
-33492
-32201
-31592
-30669
-28922
-27066
-25364
-23806
-22638
-21707
-20665
-19483
-18195
-16888
-15755
-14935
-14299
-12967
-10486
-8690
-9192
-10168
-9541
-8267
-7542
-6919
-6159
-5479
-4679
-3755
-2961
-2147
-1170
-273
327
605
712
952
1408
1943
2460
2802
3217
4445
6056
6478
5727
5330
5536
5335
4406
3248
2418
2163
2130
1813
1527
1666
1491
768
568
583
598
3837
10964
15996
15737
14026
13382
12807
12351
12482
12549
12398
12324
12119
11710
11349
10975
10515
10141
9549
8785
9741
13194
15678
14126
10671
8731
8475
8514
8259
7717
7020
6307
5640
5040
4506
4051
3715
3432
3112
2792
2529
2315
2165
2037
1816
1478
1110
761
429
111
-173
-381
-536
-714
-901
-1044
-1155
-1227
-1228
-1193
-1175
-1169
-1152
-1099
-1029
-976
-921
-853
-824
-835
-836
-819
-781
-704
-612
-531
-489
-531
-548
-366
-169
-255
-440
-555
-1000
-1665
-1414
144
1515
855
-1132
-1119
688
-1130
-6972
-11083
-12972
-14822
-15618
-18179
-23879
-25038
-20468
-18282
-17359
-12799
-10647
-14378
-16973
-18745
-24889
-26816
-17811
-9708
-9345
-9545
-9473
-11001
-8229
-724
4501
6436
8021
9100
9329
9589
9881
9808
9369
8823
8665
8944
9000
8715
8702
8582
7362
5933
5956
6829
7101
6943
6884
6714
6418
6156
5846
5518
5201
4744
4101
3353
3148
4541
6488
6116
3659
2388
2926
3293
3101
3045
2996
2835
2705
2496
2260
2131
1933
1581
1207
888
673
494
256
128
8
-708
-1997
-2930
-2879
-2044
-1132
-715
-637
-657
-983
-1253
-701
328
1010
1381
1686
1806
1786
1795
1784
1695
1603
1572
1555
1427
1165
929
795
623
333
37
-229
-527
-767
-894
-1100
-1402
-1605
-1783
-1942
-1813
-1438
-600
1105
2211
849
-1418
-1967
-1397
-1300
-1423
-1346
-1368
-1459
-1462
-1491
-1537
-1510
-1470
-1438
-1352
-1229
-1136
-1089
-1043
-966
-882
-826
-798
-778
-748
-728
-740
-763
-784
-819
-843
-818
-776
-765
-773
-767
-743
-722
-718
-710
-685
-665
-658
-649
-648
-666
-667
-626
-573
-551
-555
-548
-532
-532
-529
-527
-538
-503
-457
-535
-699
-908
-973
-123
1463
1685
-131
-1561
-1253
-669
-687
-718
-633
-657
-649
-584
-590
-598
-559
-542
-547
-532
-520
-511
-458
-381
-336
-296
-264
-312
-329
-127
178
348
389
417
451
456
472
617
864
991
957
954
999
967
927
986
1055
1081
1138
1213
1244
1243
1217
1173
1171
1213
1237
1253
1307
1359
1350
1335
1375
1390
1300
1119
879
980
1895
2725
1964
302
-307
93
254
115
89
53
-62
-186
-371
-519
-475
-321
-191
-92
0
126
353
666
934
1066
1113
1145
1139
1081
1039
1026
985
919
862
796
702
611
574
583
525
333
102
-84
-241
-360
-426
-489
-565
-622
-668
-721
-756
-752
-737
-740
-744
-727
-717
-736
-738
-737
-785
-822
-823
-895
-1098
-1407
-1410
-326
1216
1091
-734
-1811
-1446
-1104
-1196
-1164
-1088
-1134
-1128
-1084
-1084
-1038
-930
-860
-854
-854
-825
-774
-721
-689
-658
-598
-543
-533
-538
-525
-525
-556
-585
-592
-594
-601
-593
-546
-473
-419
-387
-334
-255
-204
-177
-130
-68
-17
34
95
141
153
142
158
233
326
398
432
394
315
273
251
246
294
292
181
-8
-204
299
1986
3148
1984
93
-214
351
419
310
358
308
275
401
499
525
547
522
475
489
521
506
499
544
586
601
618
613
564
520
504
478
415
309
171
66
25
0
-34
-39
-27
-62
-121
-113
-46
-15
-36
-32
21
66
58
13
-27
-38
-28
7
52
35
-40
-50
12
44
45
39
-2
-26
-45
-158
-325
-536
-526
520
2151
2168
319
-895
-579
-195
-258
-224
-143
-167
-129
-53
-34
-7
26
21
20
62
115
151
178
206
222
226
226
212
184
171
167
107
-30
-177
-280
-354
-410
-442
-467
-491
-482
-447
-442
-465
-469
-466
-487
-496
-465
-439
-432
-418
-400
-391
-377
-364
-364
-364
-349
-322
-289
-269
-271
-265
-256
-267
-238
-179
-211
-315
-478
-538
292
1914
2260
563
-859
-628
-95
-93
-79
28
1
-16
34
54
61
78
107
155
189
213
262
299
302
306
299
256
206
163
122
118
130
89
3
-73
-136
-180
-187
-170
-148
-137
-147
-143
-111
-102
-115
-103
-83
-85
-86
-82
-91
-97
-81
-77
-120
-162
-144
-109
-108
-102
-75
-70
-74
-52
-12
25
11
-56
-141
-318
-293
702
2121
1975
226
-808
-421
-8
-46
-22
48
22
44
95
88
91
133
167
186
200
226
271
306
316
329
346
337
305
276
261
246
191
76
-56
-153
-207
-227
-223
-233
-266
-279
-261
-248
-243
-232
-228
-228
-219
-224
-247
-246
-222
-221
-244
-254
-240
-212
-185
-173
-173
-181
-198
-188
-151
-145
-143
-107
-129
-206
-343
-541
-17
1700
2696
1258
-681
-843
-187
-84
-125
0
12
-5
54
69
71
116
139
149
194
239
259
277
306
332
350
360
355
328
285
243
194
118
17
-83
-164
-221
-249
-259
-262
-255
-233
-209
-196
-190
-179
-168
-170
-180
-182
-175
-171
-172
-168
-162
-161
-154
-145
-152
-165
-177
-197
-206
-193
-184
-157
-133
-205
-318
-452
-545
154
1814
2459
860
-858
-853
-259
-192
-198
-86
-108
-120
-12
70
112
156
172
182
217
255
299
372
447
499
549
585
552
474
427
402
351
303
288
265
215
179
163
134
103
108
117
69
-28
-121
-193
-260
-319
-345
-336
-345
-405
-470
-500
-511
-521
-526
-517
-500
-509
-570
-625
-619
-627
-674
-654
-620
-701
-823
-1000
-988
75
1722
1664
-309
-1583
-1263
-871
-933
-901
-819
-860
-871
-797
-616
-301
-6
160
275
400
515
611
691
765
837
892
922
931
917
884
840
788
722
643
569
517
487
462
429
399
386
383
376
369
364
347
320
300
278
244
204
167
131
97
62
28
-8
-48
-79
-101
-140
-169
-180
-230
-279
-279
-347
-480
-622
-751
-172
1526
2513
1162
-707
-929
-375
-310
-367
-254
-233
-242
-184
-157
-151
-125
-103
-69
-20
15
54
116
165
188
207
226
232
221
202
173
121
46
-38
-123
-194
-233
-248
-252
-240
-228
-233
-239
-234
-223
-218
-221
-223
-221
-224
-234
-240
-241
-241
-231
-206
-181
-169
-158
-151
-165
-169
-146
-155
-172
-134
-141
-225
-324
-479
-127
1387
2618
1603
-366
-852
-301
-146
-207
-113
-107
-145
-79
-30
-27
3
44
75
104
125
148
186
232
275
297
284
253
223
190
139
63
-34
-120
-181
-233
-279
-297
-299
-304
-297
-265
-227
-196
-173
-163
-165
-166
-157
-147
-152
-164
-159
-144
-135
-118
-95
-84
-79
-81
-95
-88
-73
-92
-85
-50
-91
-189
-361
-396
596
2371
2597
625
-907
-633
-87
-106
-102
-1
-32
-37
23
35
35
68
104
139
178
216
259
308
357
407
448
454
433
411
379
302
181
44
-77
-164
-224
-269
-294
-295
-281
-264
-255
-246
-231
-214
-202
-197
-196
-191
-183
-182
-190
-197
-197
-187
-172
-165
-159
-162
-184
-185
-161
-177
-181
-130
-155
-268
-427
-580
75
1913
2857
1251
-749
-872
-244
-207
-263
-143
-166
-217
-179
-182
-189
-137
-85
-44
-2
26
65
131
192
224
234
229
218
194
149
85
-3
-112
-214
-280
-318
-348
-378
-390
-368
-334
-311
-285
-256
-248
-257
-256
-244
-241
-248
-251
-250
-258
-272
-271
-261
-254
-229
-194
-195
-211
-192
-178
-157
-70
-33
-102
-203
-367
-9
1682
3228
2268
25
-612
44
286
189
137
-91
-252
-97
82
164
273
378
430
476
524
579
664
750
823
899
942
928
915
925
891
800
710
636
573
532
502
471
465
477
471
452
448
447
439
441
424
371
353
401
399
237
-49
-351
-566
-664
-750
-863
-883
-828
-878
-1024
-1151
-1248
-1297
-1348
-1485
-1652
-1893
-1888
-644
1211
1073
-1144
-2446
-2003
-1591
-1668
-1583
-1464
-1475
-1395
-1295
-1278
-1193
-1049
-1014
-1031
-941
-810
-698
-456
-84
181
307
434
550
619
709
801
809
743
682
671
693
718
744
780
800
798
801
812
812
811
826
843
845
844
860
862
782
627
506
474
452
396
369
360
282
177
123
79
74
178
261
196
-51
-385
38
1693
2640
1137
-797
-802
-21
-11
-235
-195
-231
-320
-255
-134
-44
18
47
87
175
252
286
345
434
444
360
280
200
69
-53
-135
-274
-453
-493
-366
-257
-238
-237
-278
-408
-556
-658
-709
-690
-639
-641
-658
-591
-459
-341
-253
-185
-125
-53
30
89
105
139
233
292
257
237
260
235
254
378
416
327
153
25
819
2676
3324
1494
-334
-249
318
216
80
130
57
-18
-11
-61
-135
-156
-162
-171
-165
-154
-148
-127
-74
-14
13
2
-34
-94
-166
-236
-316
-418
-517
-587
-637
-665
-655
-629
-621
-617
-607
-604
-589
-564
-559
-565
-559
-552
-551
-543
-539
-543
-549
-560
-567
-547
-515
-487
-459
-450
-458
-443
-431
-442
-423
-416
-484
-618
-874
-706
784
2420
1766
-436
-1278
-657
-332
-404
-273
-135
-89
50
231
393
580
740
827
900
998
1073
1084
1043
969
891
857
862
847
816
798
761
686
630
616
580
488
387
295
161
-6
-119
-176
-236
-294
-336
-385
-422
-416
-381
-329
-257
-186
-135
-100
-78
-58
-28
4
34
48
28
2
-21
-60
-54
-25
-117
-292
-536
-726
57
1900
2510
756
-896
-729
-148
-141
-126
7
-25
-81
-113
-214
-258
-169
-62
-1
58
141
218
276
333
375
384
373
350
307
263
225
164
68
-33
-112
-162
-193
-217
-229
-227
-220
-220
-234
-247
-244
-253
-290
-323
-361
-429
-463
-419
-367
-356
-345
-303
-261
-248
-244
-234
-236
-246
-244
-251
-244
-201
-201
-259
-373
-529
-74
1436
2400
1206
-602
-887
-313
-167
-196
-91
-80
-101
-38
-14
-28
4
38
55
99
154
188
222
272
309
314
305
289
260
217
163
87
-10
-107
-182
-231
-256
-260
-251
-239
-226
-206
-184
-163
-144
-129
-120
-123
-142
-164
-169
-167
-171
-166
-163
-172
-160
-137
-135
-116
-106
-145
-66
149
162
-31
-77
-46
-133
-250
-403
-124
1331
2735
1995
73
-571
-138
-25
-132
-61
-39
-70
-27
-13
-30
3
41
55
84
128
168
208
251
300
365
442
490
479
433
381
312
236
173
98
-4
-84
-121
-147
-173
-185
-192
-193
-182
-171
-168
-171
-181
-195
-202
-217
-254
-293
-313
-323
-333
-333
-327
-326
-316
-305
-336
-366
-338
-333
-371
-342
-322
-417
-554
-756
-587
777
2301
1748
-227
-993
-469
-212
-282
-184
-124
-159
-113
-51
-20
25
66
106
166
216
256
306
349
387
436
460
441
413
390
346
273
181
91
20
-38
-89
-108
-98
-101
-116
-109
-93
-101
-116
-106
-91
-99
-104
-88
-76
-89
-104
-95
-87
-115
-122
-37
91
184
215
149
6
-94
-119
-121
-99
-97
-167
-271
-443
-386
644
2069
1891
151
-798
-367
-12
-110
-78
45
58
63
73
50
26
18
26
45
69
116
177
235
288
302
261
222
202
162
103
44
-41
-149
-234
-285
-327
-355
-360
-357
-355
-347
-341
-347
-349
-334
-311
-295
-288
-290
-299
-302
-300
-302
-292
-278
-304
-335
-314
-274
-254
-250
-266
-271
-245
-231
-187
-103
-115
-193
-268
-303
378
1999
2679
1159
-509
-484
111
158
120
216
201
179
230
242
242
275
298
315
350
388
421
457
497
526
541
553
536
444
310
203
113
7
-93
-161
-207
-239
-264
-280
-282
-283
-302
-322
-315
-292
-296
-343
-398
-428
-441
-442
-421
-383
-352
-344
-348
-331
-291
-273
-279
-278
-281
-293
-286
-288
-282
-219
-198
-270
-368
-514
-217
1175
2424
1594
-271
-777
-216
-45
-141
-56
-27
-74
-38
0
8
40
68
86
129
184
225
253
280
313
337
335
328
327
310
271
220
153
57
-37
-84
-104
-138
-167
-165
-150
-137
-127
-128
-126
-108
-97
-104
-105
-95
-90
-82
-64
-51
-52
-77
-121
-106
35
205
262
224
186
180
201
198
179
233
236
-2
-187
10
