# session 10
-61
-66
-92
89
353
360
235
227
240
200
209
252
246
222
204
177
172
178
138
122
161
111
-26
-189
-265
494
2179
2742
1037
-691
-649
-63
-16
-28
72
55
52
102
95
103
157
177
185
229
288
342
388
424
466
502
492
437
380
325
237
117
12
-52
-105
-163
-203
-203
-189
-197
-215
-212
-200
-201
-209
-216
-227
-232
-225
-220
-219
-202
-168
-143
-133
-141
-164
-160
-136
-149
-147
-100
-130
-252
-418
-457
377
2058
2556
893
-716
-668
-181
-200
-229
-138
-164
-176
-113
-89
-77
-39
-9
22
59
89
127
188
268
350
409
425
393
321
228
123
5
-106
-182
-229
-257
-271
-278
-279
-267
-247
-230
-212
-188
-167
-153
-149
-152
-160
-173
-189
-201
-202
-201
-206
-208
-215
-233
-231
-217
-233
-226
-185
-232
-358
-524
-603
163
1862
2479
869
-833
-877
-388
-387
-420
-322
-333
-342
-286
-274
-273
-237
-206
-183
-150
-118
-83
-40
6
53
79
73
55
35
-3
-66
-144
-225
-299
-351
-380
-397
-409
-413
-413
-404
-366
-311
-291
-300
-273
-215
-200
-224
-219
-204
-219
-209
-163
-158
-183
-166
-138
-133
-117
-119
-144
-115
-99
-175
-307
-492
-152
1450
2924
2052
-58
-666
-29
181
85
208
243
240
533
940
1241
1521
1815
2135
2382
2317
2274
2742
3047
2390
1416
928
681
399
202
31
-197
-376
-507
-647
-746
-783
-810
-832
-827
-816
-819
-823
-812
-799
-797
-799
-794
-770
-734
-715
-716
-704
-678
-658
-635
-607
-609
-624
-595
-561
-571
-547
-496
-528
-638
-814
-728
419
2073
2050
190
-1014
-691
-268
-287
-251
-178
-202
-177
-118
-104
-83
-46
-21
18
63
86
119
181
239
275
294
286
246
197
144
61
-60
-188
-284
-331
-351
-365
-372
-367
-360
-353
-339
-316
-287
-254
-220
-188
-159
-125
-85
-61
-59
-51
-25
-7
-8
-1
11
-2
-18
-10
-23
-35
13
13
-89
-215
-339
56
1536
2740
1785
-163
-713
-188
-17
-97
-15
16
-18
20
51
54
81
102
112
140
177
212
255
295
318
327
326
309
275
227
168
106
44
-13
-57
-89
-108
-112
-108
-102
-97
-88
-72
-59
-61
-72
-75
-67
-70
-87
-95
-94
-99
-100
-86
-75
-76
-78
-97
-125
-121
-119
-150
-129
-101
-180
-276
-386
-322
713
2284
2194
249
-961
-580
-174
-251
-225
-149
-185
-166
-111
-94
-62
-25
0
49
98
120
160
225
277
306
321
317
288
238
169
84
-3
-81
-153
-204
-219
-210
-197
-190
-184
-173
-161
-161
-167
-155
-130
-126
-156
-180
-172
-159
-171
-195
-203
-190
-174
-178
-176
-157
-156
-165
-153
-154
-152
-107
-116
-209
-341
-464
36
1536
2413
1122
-683
-879
-267
-161
-219
-111
-102
-134
-77
-50
-58
-34
-8
13
48
86
133
191
240
281
317
325
304
274
234
164
70
-22
-97
-155
-188
-193
-184
-181
-181
-173
-161
-152
-144
-137
-136
-135
-128
-120
-117
-118
-115
-116
-129
-135
-114
-94
-90
-76
-65
-84
-88
-76
-94
-83
-46
-99
-221
-413
-449
545
2297
2516
630
-789
-525
-87
-172
-173
-78
-112
-110
-57
-53
-38
3
24
47
80
110
158
213
240
251
266
263
231
185
134
74
3
-70
-128
-161
-182
-196
-194
-184
-180
-178
-175
-177
-181
-180
-177
-175
-173
-169
-165
-166
-166
-169
-176
-169
-147
-137
-130
-112
-120
-146
-143
-143
-149
-115
-124
-209
-318
-497
-207
1259
2545
1615
-353
-848
-258
-99
-192
-90
-59
-98
-47
-20
-28
23
77
87
105
154
202
234
266
312
350
355
326
286
251
207
134
46
-22
-70
-113
-136
-127
-113
-121
-138
-137
-127
-127
-129
-119
-113
-124
-139
-145
-135
-110
-97
-107
-105
-84
-85
-93
-80
-92
-130
-130
-121
-124
-96
-104
-193
-305
-416
-47
1255
2182
1147
-572
-869
-281
-126
-191
-106
-84
-104
-68
-64
-57
-7
12
19
66
117
156
204
247
271
290
304
286
233
177
122
41
-58
-131
-172
-201
-222
-223
-211
-212
-225
-221
-203
-198
-197
-186
-188
-199
-195
-185
-185
-181
-176
-178
-167
-149
-146
-141
-131
-154
-177
-159
-160
-176
-137
-135
-221
-348
-490
-87
1347
2341
1223
-569
-836
-225
-103
-184
-83
-64
-105
-61
-31
-31
1
32
51
84
122
160
202
241
270
291
296
277
241
199
151
86
11
-52
-91
-110
-115
-115
-111
-104
-99
-92
-81
-73
-72
-73
-73
-68
-59
-54
-51
-47
-48
-58
-53
-33
-20
-8
6
-13
-38
-23
-23
-38
7
12
-92
-223
-390
-104
1297
2539
1646
-269
-756
-179
-27
-132
-47
-16
-48
-10
0
-9
34
58
59
103
147
162
205
270
287
277
288
274
206
141
99
46
-16
-66
-102
-128
-139
-139
-139
-141
-143
-141
-141
-141
-142
-149
-162
-163
-150
-143
-149
-148
-137
-143
-163
-156
-129
-123
-123
-116
-140
-170
-166
-183
-201
-161
-176
-278
-393
-544
-168
1272
2267
1090
-744
-990
-364
-255
-338
-235
-224
-267
-223
-205
-214
-176
-139
-129
-111
-81
-47
-11
19
41
50
37
2
-46
-94
-136
-194
-277
-349
-387
-417
-447
-451
-435
-436
-458
-470
-474
-484
-490
-486
-486
-492
-485
-475
-479
-485
-464
-414
-351
-289
-220
-106
64
212
270
311
410
501
560
655
717
681
615
505
646
1616
2628
1991
248
-430
89
432
401
425
424
373
388
385
354
393
450
469
495
540
551
535
554
618
663
657
653
667
655
604
526
419
307
232
185
133
98
104
97
67
96
144
53
-162
-331
-416
-485
-548
-582
-598
-604
-604
-611
-617
-606
-590
-590
-592
-582
-586
-597
-583
-577
-584
-559
-552
-603
-686
-826
-592
585
1666
955
-704
-1184
-645
-400
-435
-352
-318
-341
-285
-243
-236
-190
-149
-136
-84
-9
10
15
86
167
174
143
132
120
90
53
-5
-77
-127
-161
-200
-219
-207
-189
-172
-159
-153
-134
-103
-92
-89
-72
-58
-59
-54
-43
-40
-41
-42
-50
-51
-29
-1
16
32
28
1
4
17
3
31
73
9
-123
-340
-387
657
2439
2606
722
-587
-272
100
-37
-31
70
28
26
78
78
85
112
122
146
183
210
248
297
328
345
349
337
325
315
273
198
134
83
6
-73
-92
-77
-91
-110
-96
-87
-94
-88
-90
-113
-123
-119
-127
-126
-115
-121
-131
-120
-109
-123
-151
-160
-141
-117
-97
-76
-68
-64
-53
-76
-97
-51
-59
-167
-297
-491
-225
1201
2470
1618
-231
-729
-239
-123
-206
-110
-79
-109
-71
-55
-60
-19
23
41
67
106
143
176
208
231
237
232
216
171
109
62
17
-66
-170
-241
-265
-280
-312
-328
-309
-299
-317
-318
-284
-259
-262
-266
-260
-265
-281
-288
-286
-285
-280
-280
-283
-277
-278
-288
-260
-227
-241
-236
-198
-223
-249
-210
-232
-309
-420
-614
-177
1392
2361
1102
-683
-927
-420
-316
-287
-154
-174
-213
-163
-130
-73
-15
-46
34
355
642
769
921
1036
937
763
671
604
518
481
596
785
750
442
169
36
-83
-162
-158
-165
-205
-216
-218
-241
-241
-214
-215
-231
-236
-261
-261
-174
-121
-189
-257
-270
-285
-294
-280
-261
-233
-221
-242
-257
-279
-319
-288
-238
-306
-459
-712
-711
554
2487
2468
284
-1117
-761
-350
-428
-367
-252
-227
-54
166
217
186
153
88
40
64
137
242
327
313
314
521
791
845
707
509
259
31
-93
-187
-289
-324
-305
-302
-280
-173
-32
31
-39
-163
-216
-185
-163
-178
-183
-177
-197
-236
-252
-245
-254
-278
-288
-291
-292
-265
-232
-215
-119
72
165
116
113
126
18
-160
-411
-269
1235
3144
2811
511
-723
-311
-11
-159
-157
-141
-217
-189
-142
-177
-197
-174
-148
-115
-68
-9
45
82
134
216
264
255
239
211
115
-22
-143
-263
-363
-386
-379
-415
-440
-406
-372
-373
-378
-379
-366
-330
-313
-326
-314
-287
-293
-305
-301
-301
-283
-272
-303
-266
-111
8
3
-47
-74
-58
-32
-45
-66
-84
-92
-34
-10
-129
-313
-517
-176
1500
3186
2502
333
-522
-58
130
14
58
70
35
83
101
82
119
160
163
174
211
254
286
312
357
409
425
412
388
335
246
135
14
-87
-144
-183
-229
-256
-249
-237
-241
-238
-219
-207
-204
-191
-178
-182
-182
-166
-159
-173
-180
-172
-175
-182
-173
-161
-160
-158
-165
-179
-160
-120
-113
-119
-102
-99
-122
-133
-150
-163
-119
-107
-197
-298
-458
-338
922
2555
2267
249
-857
-490
-177
-260
-216
-146
-173
-148
-103
-103
-80
-35
-10
9
51
113
176
240
312
372
400
408
411
399
325
168
3
-99
-170
-230
-248
-263
-311
-318
-271
-267
-299
-294
-298
-330
-311
-268
-279
-269
-184
-142
-193
-235
-226
-220
-225
-203
-160
-132
-144
-183
-184
-118
-52
-33
-20
-26
-78
-106
-76
-68
-61
-19
-58
-183
-359
-518
149
2031
3084
1602
-424
-751
-280
-215
-205
-100
-124
-115
-39
-49
-74
-41
10
77
179
328
444
379
223
228
402
545
569
528
466
348
162
47
47
-38
-232
-246
-97
-125
-287
-269
-143
-131
-142
-84
-49
-48
-42
-69
-97
-49
-6
-48
-92
-108
-154
-189
-161
-105
-64
-91
-214
-331
-348
-312
-301
-312
-293
-249
-259
-305
-266
-224
-135
624
1902
1973
238
-1242
-1035
-298
-179
-284
-157
-32
-90
-126
15
125
34
-28
95
156
55
56
235
382
430
463
474
418
349
307
233
110
29
13
-7
-61
-143
-208
-155
-22
30
0
-28
-68
-86
-14
76
90
50
6
-40
-86
-120
-165
-247
-314
-304
-263
-257
-271
-267
-244
-222
-199
-179
-175
-183
-189
-176
-156
-181
-251
-351
-394
140
1410
2007
756
-930
-1222
-636
-363
-344
-246
-155
-106
-87
-103
-59
23
10
-34
3
42
43
120
282
409
487
559
581
518
437
375
266
79
-102
-193
-227
-259
-251
-198
-188
-222
-222
-213
-237
-224
-157
-123
-113
-54
5
12
44
79
5
-86
-79
-63
-20
101
139
147
284
268
31
-5
65
-51
-58
51
-83
-316
-452
-207
1030
2440
2076
282
-710
-479
-194
-173
-144
-157
-191
-127
-53
-47
-53
-44
-30
-20
-23
10
122
244
305
347
409
440
416
361
242
49
-129
-253
-348
-363
-314
-331
-352
-228
-110
-129
-94
52
110
74
90
121
69
-11
-33
-47
-97
-118
-100
-113
-138
-148
-182
-201
-137
-59
-31
7
55
75
116
129
17
-180
-456
-342
1153
3208
3146
848
-798
-751
-461
-583
-763
-885
-841
-614
-503
-533
-467
-360
-356
-362
-294
-221
-177
-124
-52
6
46
103
166
177
123
31
-87
-208
-306
-387
-439
-441
-424
-393
-312
-216
-135
-47
18
39
57
59
-13
-127
-167
-85
-2
-26
-52
-5
-10
-101
-175
-256
-348
-302
-173
-175
-223
-192
-240
-401
-550
-501
424
2162
2662
910
-824
-820
-309
-304
-300
-155
-151
-159
-100
-110
-149
-111
-29
25
56
110
199
319
463
576
589
515
471
481
394
223
113
-60
-352
-454
-320
-257
-283
-253
-226
-217
-173
-144
-151
-131
-81
-23
14
-19
-68
-48
-30
-71
-70
6
77
120
142
156
189
192
172
205
204
184
307
319
54
-79
-113
81
1681
3856
3469
826
-447
144
446
290
435
554
526
651
723
612
598
704
737
724
754
801
864
958
1066
1170
1196
1034
721
392
94
-186
-452
-698
-867
-923
-984
-1131
-1254
-1313
-1360
-1315
-1211
-1231
-1252
-1141
-1155
-1276
-1204
-1178
-1393
-1385
-1199
-1463
-1822
-1569
-1171
-1178
-1211
-1075
-1016
-1006
-955
-907
-818
-780
-911
-1068
-1022
-313
1156
1900
675
-989
-1186
-555
-288
-219
-54
45
95
164
161
86
71
164
258
297
369
481
526
582
777
930
901
921
1065
1078
935
820
747
699
692
662
611
587
521
421
439
540
517
353
231
248
357
449
451
412
404
372
288
276
376
442
410
440
512
343
54
130
365
186
-60
89
56
-462
-801
-578
360
1941
2596
1139
-638
-850
-382
-374
-462
-372
-343
-367
-366
-370
-350
-291
-250
-279
-350
-333
-225
-192
-201
-87
15
-64
-143
-99
-108
-255
-438
-575
-671
-792
-929
-978
-982
-1034
-1025
-905
-809
-816
-926
-970
-822
-910
-1151
-165
2135
3359
2360
866
236
39
-208
-445
-611
-656
-611
-636
-655
-509
-419
-577
-774
-717
181
2249
3825
2982
1093
709
1483
1808
1609
1400
1210
995
740
422
175
161
251
136
-136
-219
-95
15
74
93
72
55
-5
-100
-104
-104
-245
-397
-426
-427
-474
-522
-521
-463
-415
-450
-489
-444
-403
-461
-547
-570
-550
-529
-523
-569
-662
-708
-683
-688
-724
-684
-613
-624
-699
-797
-890
-890
-849
-900
-931
-959
-1117
-548
1538
3209
2074
-355
-1180
-680
-420
-399
-301
-290
-250
-94
-20
-6
96
238
340
397
462
597
750
830
845
832
803
758
696
656
617
480
280
137
48
-1
9
-10
-76
-42
64
0
-264
-426
-263
14
69
-26
0
106
123
67
18
-4
2
13
4
-21
-54
-100
-171
-226
-183
-132
-225
-336
-325
-122
742
2064
2081
266
-1128
-800
-156
-123
-133
-53
-151
-198
-46
58
39
54
143
244
324
350
341
366
411
423
403
353
312
332
330
197
6
-112
-171
-239
-303
-307
-271
-266
-271
-214
-122
-97
-141
-147
-80
-39
-65
-99
-125
-137
-78
-26
-90
-138
-58
-21
-135
-257
-287
-281
-335
-497
-656
-660
-570
-634
-665
265
2163
2881
1189
-766
-1020
-534
-446
-438
-330
-351
-391
-329
-267
-250
-246
-227
-179
-119
-45
56
169
303
447
535
561
563
503
361
210
66
-72
-143
-179
-251
-271
-185
-120
-115
-103
-81
-83
-152
-286
-298
-100
57
13
-60
-16
70
98
69
25
