# session 39
-33
-43
-24
18
2
-80
-123
-107
-104
-116
-109
-101
-105
-108
-102
-103
-114
-114
-99
-99
-106
-94
-79
-83
-86
-81
-83
-85
-79
-76
-78
-73
-63
-58
-63
-68
-63
-56
-57
-59
-55
-53
-51
-34
-9
7
13
13
9
-12
-53
-65
-47
-68
-79
-30
-78
-250
-397
-406
341
2181
3295
1909
-244
-732
-211
-124
-235
-164
-150
-177
-139
-138
-166
-152
-130
-115
-84
-51
-24
7
29
34
52
97
139
163
199
261
329
394
463
523
563
582
550
430
252
82
-54
-164
-242
-283
-296
-299
-313
-324
-309
-285
-282
-285
-272
-256
-250
-246
-241
-235
-225
-226
-232
-218
-196
-198
-207
-195
-186
-197
-196
-179
-169
-171
-173
-165
-150
-142
-144
-145
-144
-138
-125
-119
-119
-113
-107
-104
-102
-92
-68
-40
-33
-43
-47
-55
-86
-99
-78
-89
-102
-60
-88
-225
-358
-373
318
2029
3078
1796
-255
-776
-290
-141
-190
-116
-109
-132
-84
-65
-80
-61
-33
-14
7
25
45
70
89
114
157
194
225
275
343
408
467
527
588
643
677
677
622
483
282
88
-58
-163
-235
-280
-305
-314
-318
-323
-317
-301
-288
-276
-261
-253
-249
-236
-226
-229
-226
-213
-205
-206
-211
-217
-211
-195
-188
-192
-190
-180
-175
-171
-165
-161
-163
-162
-151
-141
-143
-150
-147
-136
-125
-117
-114
-117
-112
-99
-97
-98
-78
-45
-31
-34
-33
-42
-80
-98
-72
-82
-110
-62
-68
-228
-397
-475
56
1812
3367
2462
134
-787
-316
-104
-224
-173
-135
-173
-139
-107
-116
-99
-76
-62
-38
-18
-10
16
54
78
100
138
182
224
273
329
386
445
503
555
595
618
598
494
313
128
-13
-120
-203
-253
-278
-289
-290
-285
-280
-275
-274
-266
-249
-238
-239
-235
-223
-216
-216
-213
-207
-203
-197
-189
-188
-188
-181
-172
-167
-164
-158
-149
-141
-138
-142
-138
-123
-116
-121
-122
-115
-109
-106
-106
-109
-112
-107
-95
-92
-92
-89
-92
-97
-86
-71
-68
-64
-46
-23
-4
5
0
-17
-52
-77
-57
-47
-81
-58
-16
-124
-305
-428
-243
980
2840
3057
1055
-595
-516
-101
-165
-195
-126
-158
-154
-103
-100
-94
-65
-55
-43
-23
-9
12
41
61
81
112
149
187
224
270
326
380
429
477
522
554
565
524
410
246
84
-50
-144
-201
-240
-264
-268
-266
-268
-263
-252
-247
-247
-241
-233
-231
-228
-218
-211
-215
-218
-210
-196
-187
-188
-189
-187
-186
-186
-178
-166
-164
-168
-164
-151
-142
-141
-142
-137
-134
-138
-136
-122
-117
-126
-130
-118
-109
-114
-119
-108
-97
-92
-88
-84
-79
-61
-39
-27
-25
-26
-32
-52
-78
-77
-60
-89
-99
-40
-79
-251
-398
-401
336
2157
3287
1933
-235
-756
-234
-122
-218
-144
-137
-172
-128
-104
-105
-74
-58
-57
-28
1
7
26
71
110
122
142
192
244
283
340
417
490
552
610
659
682
643
528
355
164
-7
-131
-216
-272
-291
-293
-305
-314
-300
-286
-290
-293
-275
-252
-250
-255
-239
-225
-228
-223
-215
-220
-222
-214
-215
-213
-197
-195
-203
-194
-178
-180
-191
-188
-178
-172
-165
-158
-161
-160
-149
-139
-135
-130
-131
-136
-126
-106
-99
-102
-90
-57
-28
-26
-39
-52
-76
-99
-86
-77
-108
-95
-53
-131
-291
-423
-246
952
2745
2908
913
-710
-600
-135
-160
-181
-103
-122
-121
-77
-84
-84
-47
-26
-17
11
44
66
80
101
132
162
195
245
303
361
431
510
578
636
691
731
726
637
459
244
55
-88
-194
-263
-300
-317
-326
-329
-329
-329
-323
-307
-288
-278
-271
-259
-247
-239
-238
-235
-224
-220
-234
-236
-214
-201
-206
-203
-194
-192
-191
-184
-176
-173
-176
-173
-155
-149
-163
-161
-135
-124
-132
-132
-126
-125
-122
-115
-112
-116
-117
-107
-96
-85
-64
-34
-17
-19
-28
-34
-55
-87
-80
-59
-93
-98
-39
-107
-297
-441
-345
694
2655
3338
1494
-511
-653
-131
-150
-227
-133
-143
-168
-120
-104
-104
-80
-65
-50
-27
-15
5
38
61
82
118
156
193
240
295
349
410
476
533
573
603
621
591
472
286
104
-32
-132
-206
-249
-268
-275
-277
-278
-278
-270
-258
-253
-247
-234
-226
-221
-211
-203
-204
-204
-199
-191
-185
-185
-184
-177
-178
-179
-167
-156
-160
-159
-152
-151
-147
-138
-140
-141
-131
-125
-123
-117
-113
-113
-113
-111
-110
-105
-101
-103
-101
-91
-86
-95
-98
-79
-65
-74
-68
-31
-4
-4
-9
-14
-39
-73
-72
-54
-81
-90
-35
-79
-245
-384
-366
416
2235
3287
1901
-193
-662
-177
-106
-206
-133
-129
-167
-126
-100
-102
-85
-70
-58
-36
-17
5
30
43
61
99
144
180
212
250
302
363
424
482
542
588
601
572
479
325
158
15
-104
-192
-241
-265
-281
-293
-295
-285
-267
-256
-259
-261
-250
-238
-233
-227
-220
-220
-214
-198
-201
-216
-209
-187
-181
-192
-194
-176
-158
-159
-165
-159
-153
-157
-161
-156
-145
-131
-120
-121
-130
-139
-137
-125
-116
-122
-122
-104
-101
-119
-119
-101
-97
-98
-85
-74
-67
-47
-22
-13
-23
-36
-57
-82
-71
-55
-95
-105
-44
-97
-272
-405
-301
681
2490
3097
1362
-538
-706
-191
-139
-185
-106
-120
-146
-96
-73
-85
-64
-28
-11
-2
18
41
64
94
128
155
187
235
286
339
412
503
583
649
709
756
769
717
569
352
137
-43
-184
-269
-308
-337
-359
-360
-351
-349
-348
-341
-328
-309
-295
-286
-275
-264
-257
-251
-243
-235
-232
-233
-234
-231
-225
-217
-205
-201
-206
-207
-196
-183
-179
-179
-175
-164
-159
-163
-161
-146
-132
-134
-140
-135
-126
-128
-120
-97
-93
-101
-80
-44
-29
-33
-36
-48
-81
-94
-71
-84
-110
-56
-61
-229
-400
-453
126
1878
3332
2348
59
-792
-313
-104
-209
-154
-120
-157
-131
-105
-99
-69
-53
-52
-30
-3
16
41
69
97
131
163
194
242
308
374
440
512
582
647
703
730
696
581
392
178
0
-128
-219
-278
-307
-321
-329
-325
-310
-302
-307
-306
-292
-279
-269
-258
-249
-242
-236
-231
-226
-221
-218
-215
-215
-211
-202
-196
-195
-189
-182
-179
-173
-166
-158
-149
-143
-145
-147
-143
-139
-136
-131
-128
-122
-112
-106
-104
-102
-98
-97
-95
-89
-85
-86
-82
-65
-52
-49
-37
-12
8
7
-1
-12
-42
-66
-43
-42
-74
-35
-22
-179
-361
-449
-55
1551
3353
2886
533
-733
-356
-63
-202
-175
-113
-162
-144
-103
-115
-107
-75
-59
-46
-26
-4
19
39
64
93
122
160
209
253
294
354
426
490
546
598
634
633
571
438
253
67
-75
-172
-237
-277
-297
-303
-300
-293
-287
-280
-275
-273
-268
-260
-257
-251
-236
-225
-219
-216
-214
-211
-201
-198
-201
-194
-180
-174
-176
-176
-169
-156
-146
-145
-146
-140
-133
-132
-132
-128
-124
-122
-123
-124
-120
-117
-121
-120
-108
-98
-97
-104
-108
-104
-97
-96
-96
-93
-92
-84
-70
-64
-62
-44
-12
7
0
-13
-18
-41
-61
-44
-50
-83
-40
-24
-175
-353
-433
-6
1597
3293
2743
461
-702
-328
-67
-194
-166
-126
-176
-146
-107
-121
-100
-62
-56
-47
-22
0
19
42
67
94
123
157
193
237
297
359
411
473
548
607
641
650
602
468
279
95
-47
-150
-222
-265
-283
-287
-293
-298
-292
-275
-267
-269
-265
-256
-247
-238
-236
-236
-229
-220
-217
-217
-221
-222
-210
-196
-192
-193
-194
-186
-170
-162
-167
-163
-155
-160
-162
-148
-142
-150
-147
-134
-129
-130
-129
-121
-112
-121
-137
-126
-100
-102
-117
-107
-84
-82
-91
-86
-62
-32
-13
-20
-42
-63
-86
-91
-76
-88
-92
-43
-76
-230
-370
-387
288
2040
3215
1979
-183
-795
-288
-117
-183
-113
-104
-136
-91
-67
-75
-50
-28
-21
3
30
44
64
90
116
145
184
232
281
327
384
461
542
615
685
741
768
747
645
461
242
41
-115
-215
-269
-303
-330
-346
-347
-336
-324
-317
-312
-305
-298
-291
-280
-267
-255
-248
-247
-245
-239
-234
-230
-230
-230
-223
-211
-208
-214
-212
-203
-193
-183
-174
-173
-173
-167
-162
-163
-159
-150
-143
-137
-132
-130
-130
-121
-107
-106
-114
-114
-99
-85
-84
-83
-66
-40
-19
-18
-33
-40
-48
-78
-83
-62
-88
-89
-39
-118
-312
-455
-340
759
2754
3362
1427
-554
-629
-116
-162
-231
-137
-157
-171
-113
-112
-117
-81
-62
-52
-24
-5
9
35
60
84
120
158
189
232
291
349
406
477
556
616
654
676
650
531
345
157
-2
-129
-215
-259
-278
-286
-292
-296
-289
-277
-273
-268
-259
-253
-249
-236
-228
-229
-222
-204
-193
-191
-184
-171
-167
-172
-168
-156
-151
-146
-135
-131
-138
-141
-138
-132
-121
-115
-117
-115
-103
-97
-100
-101
-101
-103
-107
-109
-104
-94
-91
-95
-96
-92
-92
-95
-96
-94
-90
-83
-77
-67
-49
-28
-14
-12
-20
-36
-61
-76
-63
-70
-104
-63
-23
-151
-336
-446
-184
1183
3045
3026
865
-671
-465
-77
-183
-201
-125
-163
-163
-116
-112
-106
-85
-73
-49
-25
-18
3
37
56
72
105
142
175
219
274
328
388
459
518
560
604
641
617
499
321
145
-1
-118
-204
-255
-280
-290
-286
-281
-284
-282
-264
-251
-255
-256
-246
-242
-244
-236
-224
-227
-235
-224
-200
-188
-200
-211
-198
-178
-173
-176
-172
-164
-163
-165
-164
-157
-146
-138
-135
-129
-124
-126
-128
-124
-121
-123
-119
-103
-94
-106
-114
-99
-91
-97
-88
-78
-83
-77
-59
-61
-65
-47
-27
-14
2
4
-10
-38
-70
-67
-53
-76
-60
-19
-117
-297
-420
-233
969
2817
3048
1035
-664
-589
-118
-145
-175
-100
-129
-144
-98
-82
-78
-63
-46
-22
-5
4
35
71
86
108
146
179
213
268
328
394
476
555
618
677
727
746
711
591
385
158
-27
-158
-244
-298
-330
-347
-355
-354
-344
-329
-320
-316
-314
-303
-286
-277
-274
-266
-256
-255
-252
-243
-237
-236
-230
-226
-225
-215
-201
-195
-197
-198
-198
-193
-183
-177
-174
-163
-153
-149
-144
-139
-142
-143
-134
-129
-125
-116
-113
-121
-122
-104
-84
-84
-88
-70
-37
-20
-21
-24
-32
-55
-82
-77
-67
-96
-83
-26
-108
-300
-443
-363
666
2675
3430
1578
-505
-680
-129
-129
-217
-132
-143
-164
-116
-112
-115
-76
-56
-54
-29
3
21
38
62
90
122
157
197
247
305
367
431
503
580
652
708
734
702
581
383
176
10
-119
-215
-262
-282
-303
-315
-308
-304
-302
-291
-282
-279
-268
-253
-252
-254
-242
-227
-223
-224
-216
-206
-200
-195
-194
-194
-189
-184
-183
-177
-169
-168
-167
-155
-140
-134
-135
-137
-138
-134
-125
-119
-117
-115
-117
-119
-109
-98
-100
-103
-94
-87
-86
-85
-84
-83
-78
-74
-74
-72
-66
-58
-45
-28
-8
7
2
-12
-36
-67
-58
-31
-56
-54
-10
-106
-305
-445
-303
883
2913
3387
1329
-588
-575
-81
-160
-224
-130
-157
-175
-126
-119
-113
-83
-75
-63
-31
-8
9
34
59
80
106
139
178
221
269
326
396
467
533
591
642
675
658
559
391
198
24
-112
-206
-261
-288
-302
-309
-301
-285
-281
-284
-278
-271
-275
-279
-265
-245
-240
-245
-238
-227
-222
-220
-218
-215
-209
-206
-202
-195
-196
-199
-184
-163
-161
-164
-155
-148
-152
-155
-149
-137
-135
-142
-139
-120
-109
-115
-117
-113
-109
-102
-97
-100
-103
-97
-91
-93
-95
-94
-83
-69
-66
-66
-47
-19
-5
-5
-10
-16
-33
-64
-67
-54
-79
-71
-18
-98
-291
-432
-343
682
2654
3383
1571
-451
-622
-110
-131
-223
-143
-149
-156
-105
-101
-103
-74
-59
-45
-22
-8
11
34
45
70
117
149
172
215
271
326
383
448
514
574
625
654
640
566
427
243
63
-73
-163
-218
-249
-267
-277
-272
-261
-255
-253
-249
-242
-233
-222
-216
-211
-205
-204
-204
-195
-183
-182
-180
-171
-167
-170
-167
-154
-147
-148
-145
-138
-139
-135
-120
-110
-109
-109
-108
-107
-103
-98
-90
-82
-84
-95
-96
-89
-86
-87
-92
-96
-87
-77
-80
-86
-83
-80
-83
-87
-84
-75
-69
-67
-65
-57
-42
-20
-3
-10
-29
-47
-70
-75
-58
-81
-104
-60
-92
-252
-413
-458
235
2078
3320
2044
-178
-779
-263
-144
-251
-174
-165
-217
-175
-137
-140
-116
-91
-89
-76
-49
-26
-8
14
34
52
83
136
191
238
294
362
426
496
577
637
670
692
650
483
257
68
-79
-196
-272
-321
-358
-369
-360
-362
-362
-344
-329
-329
-323
-307
-298
-299
-295
-284
-278
-275
-266
-260
-261
-258
-245
-233
-227
-222
-211
-198
-192
-192
-186
-178
-173
-168
-156
-142
-137
-129
-113
-105
-108
-96
-75
-80
-92
-76
-54
-57
-66
-57
-43
-43
-39
-15
11
25
38
52
50
11
-44
-43
-5
-9
-7
10
-74
-216
-328
-146
1039
2811
2980
1029
-576
-505
-58
-58
-78
-21
-39
-24
22
16
15
46
66
77
95
114
134
160
191
215
238
278
317
325
343
434
571
666
706
749
809
830
775
645
457
244
54
-88
-175
-218
-248
-275
-273
-256
-264
-277
-269
-268
-277
-269
-252
-241
-248
-279
-290
-262
-249
-238
-219
-262
-316
-283
-260
-291
-250
-183
-219
-281
-258
-221
-262
-322
-309
-277
-281
-275
-280
-299
-236
-199
-323
-376
-256
-243
-327
-274
-213
-273
-292
-267
-312
-329
-259
-230
-260
-249
-224
-237
-223
-174
-194
-249
-231
-203
-242
-297
-303
-222
-171
-307
-489
-580
-378
888
2836
3036
905
-779
-623
-176
-261
-299
-212
-200
-168
-137
-150
-121
-72
-57
-28
17
34
62
125
156
151
194
280
337
384
462
543
617
703
798
889
957
980
961
892
746
549
389
312
270
209
155
143
