# session 28
-21
-27
-28
132
292
182
-24
-93
-125
-190
-213
-200
-200
-202
-196
-188
-181
-177
-171
-164
-165
-164
-155
-153
-156
-150
-141
-141
-140
-132
-129
-127
-117
-109
-112
-109
-99
-96
-97
-88
-76
-76
-80
-76
-68
-59
-54
-54
-47
-35
-35
-44
-44
-37
-31
-19
-11
-14
-12
9
33
43
38
20
-15
-32
-19
-24
-44
-16
-14
-100
-211
-310
43
1373
2553
1805
-25
-686
-245
-48
-140
-103
-81
-110
-67
-31
-50
-51
-30
-14
0
13
21
39
67
83
91
125
167
177
187
241
294
328
387
434
421
413
430
394
284
155
31
-71
-133
-175
-214
-232
-231
-229
-227
-219
-211
-209
-207
-196
-191
-202
-209
-201
-194
-195
-192
-185
-181
-174
-163
-159
-163
-164
-156
-147
-141
-136
-131
-126
-123
-122
-121
-119
-113
-102
-93
-93
-98
-99
-97
-94
-90
-87
-86
-84
-80
-78
-80
-77
-64
-52
-43
-29
-9
7
13
5
-12
-36
-54
-45
-40
-64
-48
-19
-88
-190
-268
-124
874
2358
2430
754
-494
-345
-39
-138
-160
-94
-124
-127
-89
-90
-89
-70
-59
-40
-23
-19
0
30
33
30
53
86
107
126
148
172
198
229
263
285
293
296
285
242
167
74
-7
-56
-96
-146
-176
-173
-161
-148
-139
-147
-152
-141
-134
-141
-142
-139
-143
-149
-147
-141
-139
-138
-129
-122
-128
-136
-134
-130
-130
-128
-122
-119
-117
-109
-99
-100
-110
-115
-113
-107
-97
-94
-101
-97
-85
-84
-86
-73
-62
-68
-75
-69
-53
-42
-43
-54
-61
-55
-46
-41
-35
-15
16
32
19
-9
-34
-35
-18
-29
-48
-18
-20
-111
-224
-266
192
1449
2352
1558
39
-461
-177
-87
-142
-99
-94
-118
-94
-84
-85
-62
-48
-45
-27
-2
15
33
54
75
99
122
144
180
230
268
285
303
337
371
400
423
423
377
280
152
27
-69
-133
-178
-210
-221
-216
-216
-221
-219
-212
-209
-206
-203
-201
-196
-186
-183
-186
-182
-171
-169
-172
-170
-164
-163
-161
-155
-148
-146
-149
-148
-140
-132
-130
-130
-126
-119
-114
-116
-118
-114
-109
-107
-106
-102
-102
-102
-97
-93
-94
-88
-77
-72
-70
-53
-23
-6
-8
-22
-50
-69
-50
-45
-70
-40
-21
-131
-258
-341
-107
1135
2708
2500
603
-512
-245
-31
-184
-173
-117
-163
-149
-106
-110
-98
-72
-64
-50
-31
-20
-4
16
32
50
72
95
117
138
163
197
234
264
289
311
323
325
304
239
138
33
-53
-117
-158
-183
-195
-197
-195
-193
-186
-179
-177
-175
-167
-162
-160
-156
-149
-144
-142
-138
-131
-125
-123
-121
-118
-115
-111
-105
-102
-103
-99
-92
-90
-90
-89
-86
-83
-79
-77
-75
-71
-71
-72
-67
-61
-61
-63
-60
-58
-57
-53
-50
-50
-49
-43
-34
-26
-22
-21
-9
16
30
24
7
-25
-46
-36
-40
-55
-20
-22
-123
-224
-279
89
1371
2530
1879
170
-517
-200
-75
-172
-135
-114
-148
-124
-101
-106
-90
-72
-68
-59
-41
-26
-9
8
24
41
58
79
106
131
154
180
209
234
257
277
292
293
272
215
123
24
-53
-105
-140
-161
-171
-173
-173
-172
-167
-159
-149
-143
-145
-150
-146
-138
-139
-143
-141
-137
-134
-126
-118
-118
-124
-125
-116
-109
-110
-110
-106
-105
-104
-98
-97
-102
-100
-94
-94
-96
-93
-88
-84
-81
-84
-88
-82
-71
-67
-71
-73
-72
-70
-64
-55
-49
-43
-35
-29
-12
13
16
-11
-45
-58
-46
-52
-77
-54
-29
-96
-205
-305
-125
926
2291
2167
505
-593
-405
-101
-138
-125
-83
-121
-118
-82
-80
-66
-37
-30
-30
-19
1
27
48
61
77
98
121
144
166
190
222
256
285
310
333
352
360
340
274
174
67
-26
-96
-138
-166
-187
-193
-188
-185
-182
-174
-171
-172
-165
-155
-151
-148
-141
-136
-133
-128
-126
-127
-123
-115
-113
-112
-109
-111
-114
-109
-104
-106
-107
-102
-98
-97
-96
-95
-90
-85
-86
-87
-84
-82
-81
-77
-74
-75
-74
-67
-57
-51
-50
-45
-25
-2
2
-11
-32
-58
-65
-57
-78
-82
-39
-73
-196
-317
-331
352
1934
2736
1403
-366
-633
-173
-141
-224
-146
-143
-175
-139
-125
-131
-108
-90
-86
-60
-27
-12
-5
6
22
43
69
94
120
155
197
236
262
282
306
326
334
327
277
182
82
-10
-98
-158
-182
-198
-212
-207
-197
-203
-206
-188
-176
-182
-179
-164
-148
-130
-121
-129
-136
-129
-121
-113
-106
-116
-129
-120
-108
-107
-99
-88
-93
-103
-102
-101
-99
-89
-81
-84
-91
-87
-73
-63
-59
-66
-96
-84
41
164
145
58
23
11
-18
-34
-29
-18
-9
-7
-3
15
23
8
-4
-19
-56
-70
-55
-73
-78
-35
-75
-189
-268
-206
552
2068
2606
1071
-630
-726
-180
-115
-180
-113
-115
-131
-93
-87
-92
-65
-47
-35
-10
14
30
44
64
89
110
124
147
185
221
251
291
333
366
392
416
427
413
349
226
80
-37
-119
-184
-230
-248
-262
-256
-196
-167
-225
-251
-207
-216
-269
-251
-201
-193
-190
-168
-155
-139
-103
-93
-140
-185
-174
-143
-134
-132
-127
-127
-130
-129
-124
-115
-119
-124
-110
-97
-112
-126
-116
-97
-86
-92
-106
-108
-98
-85
-74
-77
-91
-84
-63
-56
-37
0
1
-32
-56
-79
-92
-74
-83
-105
-68
-79
-204
-326
-347
175
1592
2614
1692
-30
-520
-138
-90
-227
-166
-122
-158
-146
-116
-107
-98
-90
-74
-51
-38
-26
-2
21
36
60
94
122
136
150
183
227
264
291
318
348
378
380
322
217
114
23
-65
-119
-123
-111
-129
-174
-203
-195
-184
-189
-180
-152
-129
-120
-122
-116
-90
-66
-63
-58
-44
-44
-52
-39
-23
-34
-41
-22
-12
-25
-25
-14
-21
-33
-34
-34
-36
-32
-32
-39
-44
-45
-52
-59
-61
-66
-74
-76
-73
-69
-67
-71
-79
-78
-72
-75
-77
-72
-71
-74
-73
-67
-47
-18
-9
-27
-54
-74
-75
-75
-97
-90
-58
-118
-258
-381
-254
661
2083
2345
926
-364
-409
-127
-160
-187
-139
-161
-167
-132
-124
-119
-96
-83
-72
-53
-40
-26
-2
19
37
59
81
101
125
158
200
242
282
321
358
389
404
392
336
226
88
-30
-113
-175
-219
-237
-243
-248
-244
-234
-230
-227
-218
-208
-202
-196
-189
-179
-170
-160
-152
-148
-144
-138
-135
-132
-129
-127
-125
-120
-117
-113
-107
-106
-107
-102
-97
-96
-93
-87
-82
-80
-79
-77
-71
-64
-64
-66
-62
-55
-53
-55
-54
-47
-40
-40
-40
-36
-23
4
29
29
13
-9
-37
-33
-16
-48
-51
4
-63
-246
-389
-335
529
2228
2887
1405
-241
-382
-37
-125
-196
-115
-142
-167
-119
-110
-114
-90
-79
-71
-48
-30
-21
-5
14
31
55
82
105
130
166
204
242
286
332
370
398
415
403
341
228
95
-23
-107
-163
-199
-219
-224
-223
-222
-220
-214
-207
-203
-200
-194
-187
-181
-174
-167
-160
-152
-147
-145
-142
-134
-128
-127
-125
-121
-119
-115
-112
-112
-109
-102
-102
-104
-100
-95
-93
-92
-87
-82
-80
-78
-75
-75
-75
-70
-68
-69
-67
-64
-64
-62
-56
-53
-53
-52
-52
-50
-44
-39
-39
-40
-29
-1
23
21
5
-14
-39
-41
-28
-53
-54
-7
-71
-245
-385
-338
483
2140
2850
1462
-186
-392
-56
-123
-206
-143
-162
-179
-135
-125
-125
-103
-92
-83
-66
-56
-44
-19
1
17
38
60
83
113
145
173
210
256
297
334
367
389
390
349
257
136
21
-68
-128
-166
-190
-199
-199
-197
-195
-193
-186
-178
-175
-174
-166
-158
-154
-148
-143
-144
-145
-140
-133
-128
-127
-125
-119
-115
-116
-114
-107
-104
-104
-106
-108
-101
-89
-84
-89
-89
-86
-85
-84
-82
-84
-83
-75
-70
-75
-79
-70
-64
-69
-70
-60
-54
-60
-65
-65
-63
-57
-43
-32
-30
-28
-6
21
25
4
-30
-54
-38
-26
-56
-45
-9
-89
-245
-365
-175
900
2364
2374
734
-454
-336
-64
-137
-151
-102
-124
-113
-82
-92
-88
-63
-54
-41
-16
0
8
21
40
60
84
109
132
160
195
233
275
318
355
389
422
440
423
354
236
97
-29
-118
-175
-210
-229
-237
-240
-244
-242
-232
-221
-215
-213
-207
-197
-191
-183
-173
-169
-169
-165
-158
-154
-149
-143
-142
-140
-135
-134
-136
-132
-124
-123
-122
-116
-109
-105
-104
-104
-99
-94
-94
-92
-86
-83
-82
-77
-72
-71
-72
-67
-59
-56
-56
-56
-53
-52
-49
-41
-31
-28
-27
-10
19
33
21
-1
-30
-40
-25
-39
-56
-11
-29
-180
-326
-372
138
1649
2854
1996
148
-475
-129
-75
-198
-142
-127
-168
-138
-114
-117
-98
-84
-83
-66
-45
-33
-17
4
24
46
71
95
117
141
176
219
258
293
332
368
390
395
366
285
161
33
-66
-131
-176
-207
-218
-218
-218
-218
-213
-202
-193
-190
-188
-182
-176
-172
-168
-164
-161
-157
-149
-139
-133
-132
-131
-126
-123
-121
-118
-116
-114
-108
-104
-106
-107
-102
-98
-97
-95
-91
-84
-79
-77
-74
-68
-65
-68
-69
-66
-61
-58
-56
-56
-55
-54
-51
-46
-45
-45
-39
-33
-33
-32
-17
14
37
31
6
-20
-35
-22
-14
-41
-26
8
-74
-211
-301
-165
801
2334
2572
979
-368
-334
-47
-140
-170
-110
-146
-152
-107
-103
-101
-79
-68
-58
-41
-30
-20
0
20
35
52
72
92
115
145
178
207
237
269
296
317
331
326
282
197
92
-7
-86
-138
-171
-195
-204
-200
-196
-192
-188
-190
-194
-190
-184
-178
-173
-171
-168
-163
-161
-158
-150
-148
-148
-138
-129
-125
-117
-112
-118
-121
-116
-112
-109
-101
-99
-103
-94
-82
-86
-91
-79
-69
-79
-84
-72
-62
-65
-69
-68
-70
-69
-59
-54
-62
-67
-62
-59
-57
-48
-40
-40
-30
-1
22
20
-1
-36
-53
-29
-25
-53
-33
-20
-104
-224
-319
-20
1229
2539
2071
272
-627
-308
-59
-134
-124
-95
-120
-99
-74
-75
-59
-43
-42
-27
-4
15
34
50
63
83
104
121
138
163
198
234
268
305
340
365
383
396
380
313
201
78
-28
-107
-163
-197
-214
-221
-221
-216
-210
-203
-197
-193
-190
-185
-177
-168
-161
-158
-157
-152
-146
-144
-141
-131
-127
-133
-138
-133
-126
-123
-125
-124
-117
-111
-112
-114
-111
-106
-104
-100
-98
-101
-100
-87
-80
-84
-86
-79
-74
-74
-74
-72
-69
-65
-64
-66
-62
-51
-44
-42
-38
-25
-3
15
17
-1
-33
-52
-38
-38
-62
-33
-13
-112
-241
-331
-94
1088
2550
2358
597
-482
-280
-61
-165
-158
-113
-151
-142
-107
-105
-96
-77
-67
-50
-33
-22
-8
8
27
48
68
89
113
135
159
191
225
258
292
324
345
352
340
286
187
73
-22
-90
-138
-169
-188
-194
-190
-184
-181
-177
-174
-174
-171
-163
-158
-155
-151
-152
-155
-151
-142
-137
-137
-132
-123
-120
-121
-119
-116
-115
-111
-106
-104
-103
-102
-98
-94
-93
-89
-85
-89
-91
-83
-77
-80
-81
-76
-74
-74
-67
-59
-57
-55
-51
-48
-49
-52
-53
-50
-46
-38
-23
-11
-6
-4
5
25
39
30
9
-20
-43
-32
-28
-54
-35
-14
-105
-232
-321
-125
970
2431
2375
699
-434
-287
-65
-177
-182
-131
-167
-165
-130
-132
-123
-100
-93
-83
-66
-53
-38
-18
0
14
32
58
86
107
133
176
225
259
281
307
337
359
353
306
217
110
15
-54
-98
-114
-108
-96
-89
-93
-111
-129
-136
-142
-151
-148
-138
-137
-142
-143
-141
-139
-138
-137
-131
-126
-130
-133
-128
-122
-119
-118
-121
-123
-116
-109
-109
-109
-103
-101
-104
-101
-93
-93
-106
-111
-101
-92
-89
-89
-90
-91
-84
-76
-75
-77
-71
-62
-59
-60
-58
-57
-61
-59
-46
-36
-34
-21
10
29
20
-2
-33
-57
-48
-42
-58
-37
-26
-108
-221
-302
-23
1141
2427
2091
402
-547
-314
-79
-147
-136
-100
-131
-120
-89
-92
-86
-69
-58
-44
-26
-12
5
24
39
57
80
100
121
148
175
199
232
273
309
335
356
369
356
300
197
75
-28
-101
-151
-182
-199
-208
-207
-197
-188
-182
-179
-178
-178
-174
-166
-160
-155
-148
-140
-135
-130
-127
-125
-120
-119
-123
-122
-114
-110
-112
-112
-109
-104
-101
-100
-98
-94
-90
-86
-85
-88
-84
-73
-69
-73
-72
-66
-63
-64
-66
-66
-64
-61
-60
-57
-51
-48
-53
-55
-45
-34
-30
-27
-15
8
25
23
5
-24
-44
-32
-32
-57
-32
-18
-116
-243
-331
-72
1141
2577
2316
545
-483
-260
-56
-168
-160
-119
-152
-134
-106
-116
-100
-71
-66
-56
-36
-25
-13
9
30
46
64
86
106
126
154
192
234
265
288
314
342
354
334
278
193
88
-16
-92
-136
-162
-182
-192
-193
-191
-188
-184
-179
-174
-169
-165
-161
-155
-146
-143
-145
-142
-136
-130
-127
-126
-123
-119
-117
-114
-109
-107
-108
-107
-105
-102
-97
-97
-98
-94
-88
-89
-90
-84
-78
-80
-81
-79
-78
-78
-74
-71
-75
-74
-69
-67
-67
-64
-62
-61
-59
-60
-64
-59
-47
-39
-36
-32
-20
1
17
11
-12
-43
-57
-45
-46
-64
-40
-37
-131
-235
-306
-55
1101
2456
2188
499
-481
-279
-90
-190
-178
-138
-171
-158
-128
-134
-124
-98
-89
-81
-65
-48
-31
-13
3
19
38
61
90
117
141
169
205
240
268
296
320
330
318
275
193
88
-5
-73
-123
-157
-171
-174
-172
-163
-149
-145
-147
-142
-132
-125
-119
-114
-108
-101
-95
-93
-92
-89
-83
-77
-73
-68
-62
-58
-52
-45
-41
-40
-40
-43
-43
-36
-28
-20
-14
-15
-18
-13
-9
-13
-12
-5
-1
2
10
18
17
11
12
15
16
14
