# session 4
-17
8
-73
86
521
781
766
732
702
627
553
422
224
116
119
117
104
106
82
67
117
159
146
153
168
121
59
39
41
60
60
-26
-146
-194
-196
-219
-244
-238
-240
-268
-276
-249
-248
-255
-197
-176
-276
-389
-523
-369
857
2405
2077
78
-991
-601
-295
-392
-330
-239
-286
-293
-263
-276
-283
-261
-210
-139
-79
-17
58
104
121
149
182
201
210
219
229
237
252
282
282
218
123
45
-4
-30
-48
-64
-77
-87
-85
-56
-24
-31
-65
-70
-59
-72
-78
-43
-2
21
22
-3
-15
12
28
22
51
87
63
40
71
83
75
97
53
-83
-229
-371
-50
1168
2048
1098
-543
-964
-545
-380
-349
-220
-173
-152
-82
-64
-53
20
68
71
103
151
174
189
211
245
299
346
363
373
389
404
416
423
415
378
285
166
86
25
-51
-88
-68
-73
-136
-205
-260
-315
-374
-443
-516
-558
-570
-588
-601
-580
-547
-530
-505
-460
-433
-434
-430
-420
-402
-364
-359
-386
-344
-296
-374
-536
-678
-308
1121
2474
1883
120
-581
-229
-89
-175
-102
-39
-71
-112
-137
-117
-82
-83
-53
12
-17
-116
-121
-25
55
108
181
252
282
292
316
351
355
306
242
193
160
163
187
177
158
193
241
246
262
306
311
290
306
322
297
285
303
300
272
241
206
163
109
70
85
93
31
-33
-75
-138
-182
-250
-417
-639
-826
-385
1270
2688
1786
-310
-1030
-583
-440
-530
-453
-436
-453
-369
-334
-370
-343
-284
-275
-275
-224
-117
-9
52
77
101
113
99
75
62
57
44
7
-67
-180
-297
-366
-414
-510
-587
-537
-406
-299
-233
-193
-176
-172
-185
-216
-239
-235
-211
-185
-181
-184
-170
-162
-169
-160
-147
-177
-228
-278
-349
-377
-290
-206
-176
-95
-48
-136
-253
-381
-50
1523
3141
2495
381
-475
-57
82
-48
24
54
7
48
68
48
84
121
119
133
163
183
210
237
256
291
335
354
356
375
405
420
419
397
338
241
134
47
-5
-34
-56
-69
-69
-68
-84
-102
-107
-115
-144
-173
-186
-193
-193
-184
-180
-181
-164
-132
-113
-102
-83
-86
-117
-112
-91
-115
-111
-86
-174
-324
-479
-458
442
1983
2233
684
-556
-465
-208
-309
-308
-234
-261
-254
-218
-228
-223
-191
-178
-167
-142
-115
-85
-49
-5
37
62
83
119
149
155
164
181
175
135
69
-9
-81
-134
-168
-182
-180
-178
-172
-160
-156
-161
-157
-150
-154
-164
-173
-181
-190
-200
-200
-182
-165
-169
-172
-165
-187
-209
-189
-187
-205
-163
-152
-258
-384
-512
-295
886
2153
1680
2
-722
-376
-197
-258
-192
-171
-215
-176
-142
-157
-143
-117
-108
-90
-60
-30
9
52
86
122
166
209
246
277
297
309
308
275
197
88
-17
-93
-154
-195
-162
-54
52
123
163
152
111
94
83
58
55
93
145
178
172
138
109
91
78
65
28
-15
-42
-89
-121
-91
-139
-299
-464
-638
-231
1369
2599
1533
-379
-782
-305
-286
-380
-263
-258
-301
-231
-184
-174
-122
-74
-45
21
105
161
187
197
212
245
276
290
297
304
311
326
323
268
168
48
-60
-127
-159
-182
-200
-212
-217
-215
-218
-226
-222
-219
-239
-258
-250
-243
-253
-261
-258
-247
-221
-192
-180
-170
-174
-204
-207
-189
-196
-168
-132
-216
-351
-472
-363
662
2154
2108
361
-767
-504
-188
-255
-223
-154
-186
-173
-132
-137
-129
-100
-77
-48
-13
8
26
62
110
155
196
232
259
276
284
285
273
242
181
90
-8
-82
-129
-158
-170
-170
-166
-155
-140
-131
-122
-107
-97
-99
-101
-100
-99
-101
-113
-119
-102
-85
-85
-78
-77
-108
-120
-111
-132
-120
-79
-151
-311
-534
-591
437
2350
2773
958
-550
-417
-78
-215
-228
-136
-174
-172
-122
-128
-121
-91
-85
-71
-39
-20
1
36
67
100
141
176
197
217
233
234
221
192
130
40
-48
-113
-156
-181
-193
-196
-193
-183
-174
-169
-164
-155
-151
-156
-162
-163
-160
-157
-161
-166
-152
-126
-111
-96
-87
-105
-113
-96
-106
-96
-41
-87
-228
-383
-494
136
1780
2590
1232
-385
-476
-64
-127
-185
-90
-116
-141
-93
-91
-98
-71
-58
-51
-23
2
22
52
77
95
125
160
176
176
181
188
183
168
143
103
43
-16
-48
-54
-60
-73
-78
-75
-77
-85
-92
-96
-100
-105
-112
-118
-119
-119
-128
-138
-127
-104
-95
-85
-73
-95
-120
-104
-107
-130
-93
-88
-198
-361
-570
-363
885
2104
1540
-8
-534
-227
-192
-286
-209
-183
-203
-166
-166
-181
-147
-122
-118
-92
-67
-51
-17
17
32
58
94
109
111
128
158
180
182
165
139
92
12
-70
-105
-104
-112
-133
-153
-178
-214
-251
-280
-279
-238
-191
-179
-185
-175
-167
-170
-154
-118
-91
-66
-46
-62
-86
-83
-90
-93
-55
-70
-179
-351
-486
65
1607
2507
1340
-310
-556
-128
-88
-124
-34
-38
-51
-7
-6
-11
19
34
44
68
83
98
132
167
189
205
222
241
258
264
261
263
265
242
182
99
15
-52
-97
-125
-140
-141
-134
-124
-118
-126
-136
-131
-121
-124
-140
-148
-134
-121
-140
-154
-125
-95
-92
-88
-87
-100
-86
-68
-76
-46
-24
-108
-225
-396
-367
702
2310
2285
532
-540
-274
-42
-153
-121
-74
-121
-99
-62
-71
-59
-61
-112
-150
-152
-159
-180
-194
-188
-164
-149
-169
-186
-167
-141
-128
-94
-47
-52
-120
-188
-222
-235
-237
-222
-203
-196
-197
-190
-177
-172
-178
-178
-170
-172
-181
-171
-155
-168
-193
-190
-165
-119
-72
-78
-98
-67
-48
-53
-6
-6
-124
-295
-509
-225
1200
2509
1856
221
-306
-21
-34
-131
-51
-52
-89
-45
-29
-40
-11
7
10
39
66
81
111
142
155
166
189
210
217
211
201
196
194
187
164
113
51
0
-43
-76
-86
-86
-103
-115
-99
-87
-101
-109
-100
-97
-93
-74
-61
-66
-71
-67
-66
-66
-65
-79
-96
-92
-98
-115
-96
-101
-177
-273
-411
-266
756
1902
1519
28
-629
-302
-133
-224
-195
-154
-168
-148
-127
-117
-95
-88
-83
-54
-32
-20
12
52
70
84
111
138
153
158
154
149
150
148
131
93
31
-35
-88
-127
-145
-142
-137
-148
-159
-156
-151
-149
-147
-151
-156
-144
-132
-137
-129
-110
-115
-107
-80
-101
-134
-108
-105
-137
-100
-85
-188
-334
-504
-278
924
2079
1487
-89
-633
-257
-122
-192
-130
-100
-125
-101
-94
-105
-77
-50
-42
-16
25
49
58
79
119
155
170
174
181
186
185
180
177
176
150
75
-11
-64
-90
-115
-131
-133
-133
-134
-127
-121
-118
-114
-109
-111
-115
-113
-114
-120
-112
-93
-84
-80
-79
-98
-111
-83
-79
-103
-67
-54
-159
-293
-457
-325
779
2070
1717
153
-536
-232
-116
-202
-132
-103
-137
-96
-72
-92
-77
-53
-51
-36
-5
22
44
71
106
138
151
155
163
171
172
170
168
161
131
78
20
-43
-99
-119
-114
-124
-140
-141
-144
-154
-156
-156
-158
-153
-148
-154
-155
-145
-129
-117
-113
-102
-91
-112
-128
-109
-108
-111
-77
-102
-202
-310
-438
-91
1179
2083
1171
-333
-610
-206
-175
-249
-162
-147
-174
-132
-102
-103
-89
-68
-44
-17
7
35
68
98
134
170
193
210
228
227
214
215
232
229
189
131
75
32
6
-8
-22
-35
-45
-60
-74
-77
-83
-105
-120
-116
-116
-133
-150
-150
-133
-124
-134
-129
-110
-121
-142
-146
-170
-175
-126
-139
-241
-384
-508
-32
1326
2081
1025
-359
-495
-139
-162
-209
-126
-135
-155
-119
-110
-100
-69
-58
-48
-20
2
20
44
69
98
127
139
141
143
138
128
125
124
105
67
14
-44
-88
-106
-113
-127
-138
-133
-127
-134
-137
-132
-135
-136
-106
-68
-63
-84
-90
-77
-66
-61
-51
-53
-75
-77
-69
-91
-82
-52
-115
-231
-403
-563
39
1508
2027
696
-565
-466
-107
-175
-186
-104
-135
-113
-24
-18
-43
-34
-21
-1
27
42
62
92
117
150
200
234
225
198
187
191
187
177
170
140
70
-1
-35
-40
-50
-73
-95
-117
-141
-151
-150
-154
-158
-159
-168
-173
-160
-148
-147
-136
-122
-130
-145
-132
-92
-57
-67
-90
-76
-94
-198
-401
-703
-494
869
2118
1448
-147
-580
-162
-75
-152
-78
-81
-121
-64
-33
-57
-49
-22
-9
9
31
46
70
108
142
159
169
186
203
204
188
180
193
194
148
65
-16
-75
-114
-139
-155
-163
-166
-170
-171
-164
-158
-160
-161
-158
-159
-163
-162
-159
-155
-144
-124
-103
-108
-137
-135
-108
-121
-125
-81
-107
-241
-472
-673
-70
1540
2319
1056
-417
-479
-89
-131
-179
-92
-98
-104
-56
-42
-39
-24
-14
13
46
63
79
98
111
135
162
175
188
201
195
180
177
179
156
98
27
-32
-74
-102
-112
-114
-119
-124
-124
-123
-122
-121
-118
-114
-114
-124
-132
-132
-132
-126
-109
-90
-78
-86
-114
-113
-95
-120
-121
-73
-123
-281
-516
-663
94
1804
2442
993
-449
-422
-79
-185
-221
-130
-154
-166
-123
-117
-108
-82
-70
-51
-26
-12
14
49
69
90
117
128
125
125
125
120
118
119
102
52
-12
-67
-106
-128
-139
-154
-162
-153
-155
-168
-168
-162
-165
-164
-157
-153
-150
-155
-161
-149
-129
-121
-107
-96
-116
-129
-111
-123
-142
-95
-90
-202
-395
-645
-381
988
2193
1507
-49
-478
-136
-121
-211
-125
-114
-157
-127
-105
-107
-88
-69
-56
-35
-12
15
45
71
113
173
229
271
307
339
362
377
393
407
390
329
257
199
151
108
77
50
22
-5
-31
-54
-66
-76
-92
-104
-110
-123
-144
-159
-165
-163
-156
-146
-133
-142
-176
-181
-159
-181
-193
-142
-160
-296
-521
-745
-256
1260
2109
955
-527
-613
-186
-205
-253
-157
-172
-196
-146
-131
-131
-104
-84
-61
-23
1
15
44
75
91
101
116
128
128
121
116
121
131
125
88
31
-30
-88
-127
-142
-151
-161
-163
-159
-152
-150
-160
-168
-162
-154
-148
-141
-139
-135
-117
-102
-107
-110
-108
-125
-128
-95
-94
-122
-89
-61
-133
-279
-493
-336
858
2121
1588
-100
-730
-282
-70
-141
-78
-34
-58
-30
-5
-3
26
59
81
99
111
134
171
195
212
236
251
250
249
244
227
216
220
210
159
72
-20
-88
-126
-145
-156
-159
-154
-146
-141
-134
-124
-118
-123
-127
-127
-128
-135
-141
-136
-119
-105
-104
-104
-110
-131
-131
-106
-119
-129
-83
-100
-205
-350
-544
-152
1363
2430
1352
-378
-652
-165
-128
-206
-112
-110
-143
-100
-85
-85
-52
-35
-28
2
33
48
66
86
107
132
155
166
169
168
162
155
146
119
62
-23
-106
-158
-176
-183
-191
-196
-194
-181
-164
-163
-169
-146
-94
-51
-42
-62
-95
-126
-140
-130
-113
-100
-82
-78
-106
-106
-72
-91
-109
-80
-180
-446
-724
-803
-4
1743
2531
1185
-360
-436
-59
-136
-198
-107
-119
-142
-115
-121
-120
-90
-73
-56
-22
15
53
84
101
117
139
152
152
148
145
144
145
138
111
65
5
-50
-80
-95
-113
-127
-125
-118
-116
-117
-115
-113
-120
-128
-126
-122
-126
-132
-142
-158
-156
-133
-108
-84
-75
-106
-124
-89
-83
-108
-82
-77
-156
-278
-435
-159
1066
2105
1405
-68
-467
-121
-74
-150
-78
-66
-80
-26
-9
-25
-3
24
32
51
75
91
113
146
173
186
194
198
191
177
165
160
156
149
120
62
-2
-51
-87
-110
-119
-129
-143
-143
-137
-149
-167
-169
-161
-158
-164
-167
-161
-158
-158
-143
-126
-128
-134
-126
-130
-147
-134
-116
-134
-122
-94
-149
-241
-369
-364
455
1794
1819
256
-782
-484
-120
-172
-155
-88
-121
-108
-53
-46
-46
-25
2
33
51
62
92
130
156
182
201
205
205
205
194
177
165
154
121
44
-57
-128
-163
-182
-185
-191
-214
-215
-180
-158
-166
-166
-162
-163
-152
-141
-148
-146
-133
-143
-158
-144
-131
-139
-142
-148
-148
-122
-113
-115
-74
-83
-176
-305
-477
-115
1368
2522
1519
-326
-732
-196
-72
-152
-68
-47
-74
-34
-16
-17
16
40
49
70
98
129
163
190
213
240
260
268
266
254
236
221
201
148
64
-26
-108
-173
-207
-216
-221
-223
-218
-209
-195
-180
-175
-180
-179
-170
-166
-167
-164
-163
-166
-158
-137
-129
-134
-128
-128
-145
-135
-119
-136
-114
-84
-163
-300
-504
-513
582
2347
2422
501
-771
-453
-100
-212
-186
-102
-147
-139
-93
-99
-86
-52
-41
-22
10
34
61
96
126
153
184
207
217
216
206
189
166
130
67
-19
-104
-165
-197
-211
-216
-214
-208
-201
-193
-182
-173
-166
-161
-158
-153
-147
-141
-137
-138
-140
-130
-112
-103
-89
-75
-92
-106
-84
-88
-98
-49
-62
-183
-342
-529
-119
1491
2713
1634
-273
-644
-116
-66
-169
-68
-60
-104
-59
-42
-55
-25
1
10
33
59
80
109
140
168
195
215
227
231
223
209
193
170
127
60
-16
-79
-119
-138
-145
-150
-154
-154
-151
-150
-145
-139
-134
-133
-130
-126
-124
-123
-118
-114
-120
-118
-99
-86
-82
-68
-70
-93
-90
-91
-116
-86
-62
-150
-275
-455
-386
744
2261
2037
263
-643
-287
-84
-204
-152
-102
-153
-131
-96
-108
-95
-68
-59
-42
-15
6
29
52
70
87
100
104
102
94
82
74
67
51
16
-40
-102
-144
-163
-172
-178
-182
-187
-189
-184
-178
-176
-177
-176
-173
-170
-168
-167
-163
-151
-140
-152
-164
-145
-118
-112
-108
-105
-120
-122
-118
-138
-122
-88
-141
-233
-361
-388
380
1760
1964
553
-503
-334
-80
-173
-152
-80
-118
-113
-71
-73
-61
-27
-18
-12
11
35
58
84
104
117
128
135
133
126
119
