# session 0
-79
-77
-68
-57
-46
-32
-25
-29
-26
-14
-14
-17
-2
23
40
39
31
21
-6
-32
-28
-31
-51
-35
-34
-95
-170
-249
37
1177
2201
1540
-57
-621
-240
-95
-181
-130
-101
-138
-105
-50
-27
-10
-4
-23
-51
-51
-8
27
36
62
104
117
115
133
151
157
185
241
276
285
304
320
319
323
308
224
104
9
-58
-99
-112
-117
-115
-105
-115
-131
-117
-110
-141
-160
-136
-101
-89
-101
-97
-78
-101
-126
-70
-25
-87
-154
-133
-84
-71
-88
-101
-84
-59
-64
-84
-83
-60
-50
-59
-50
-29
-46
-86
-86
-64
-66
-71
-56
-52
-68
-64
-44
-41
-43
-26
-29
-56
-57
-37
-24
-4
16
6
-14
-32
-43
-31
-26
-41
-34
-49
-130
-235
-341
-40
1163
2269
1656
47
-551
-180
-49
-187
-160
-86
-103
-120
-102
-95
-110
-84
-19
-8
-28
13
50
-9
-79
-43
57
91
63
89
134
96
44
52
72
102
173
233
260
263
170
7
-58
-48
-138
-268
-259
-183
-200
-277
-301
-247
-165
-124
-133
-142
-144
-174
-207
-202
-190
-193
-179
-130
-40
51
49
-22
-32
20
23
-35
-69
-43
-16
-23
-15
24
41
34
56
87
78
55
54
50
33
33
43
30
8
-3
-14
-21
-8
2
-3
-3
7
12
10
0
-21
-55
-74
-60
-65
-88
-64
-51
-116
-191
-269
-101
847
1944
1629
174
-561
-292
-97
-159
-117
-75
-115
-104
-66
-67
-65
-48
-41
-34
-20
-6
9
24
32
42
63
80
90
110
139
172
216
247
237
225
243
266
265
230
156
55
-33
-95
-145
-186
-209
-210
-204
-208
-223
-240
-244
-232
-215
-204
-195
-184
-179
-184
-179
-149
-128
-144
-166
-160
-147
-139
-131
-121
-117
-122
-118
-79
-29
-18
-42
-65
-82
-92
-90
-89
-94
-97
-93
-83
-75
-76
-77
-71
-62
-58
-51
-28
-3
0
-13
-29
-35
-18
-15
-35
-13
10
-61
-168
-284
-153
829
2107
1963
483
-371
-162
3
-89
-63
-33
-73
-51
-21
-38
-36
-21
-15
-2
18
42
85
127
143
153
174
191
199
212
228
245
270
295
310
322
335
341
327
280
193
86
-9
-80
-135
-179
-205
-209
-211
-226
-238
-233
-232
-245
-251
-244
-239
-244
-243
-228
-220
-231
-238
-225
-209
-204
-207
-213
-213
-196
-169
-153
-155
-154
-138
-123
-117
-117
-118
-113
-106
-103
-106
-106
-106
-105
-98
-85
-78
-66
-30
32
121
195
170
82
34
-7
-62
-45
-37
-145
-260
-320
1
1225
2407
1765
-40
-758
-333
-116
-190
-129
-101
-156
-131
-87
-89
-79
-53
-27
1
18
25
44
63
72
91
115
127
136
153
173
195
223
251
282
313
330
331
314
259
155
34
-72
-153
-205
-228
-238
-242
-241
-238
-237
-236
-228
-216
-211
-209
-201
-193
-192
-186
-173
-169
-170
-164
-151
-142
-140
-138
-131
-123
-118
-117
-120
-120
-111
-102
-101
-96
-85
-81
-87
-84
-65
-38
-18
-24
-64
-82
-56
-62
-73
-18
-31
-168
-315
-463
-61
1561
2974
2099
105
-516
-98
-43
-158
-67
-54
-102
-56
-28
-33
-3
17
11
24
47
57
65
80
93
104
130
165
172
162
182
221
243
260
290
312
321
321
296
227
116
-10
-110
-170
-210
-241
-251
-247
-246
-249
-244
-234
-222
-203
-192
-199
-206
-204
-199
-196
-200
-211
-214
-204
-198
-201
-196
-188
-184
-178
-173
-175
-173
-168
-171
-172
-159
-140
-127
-118
-114
-122
-133
-127
-101
-74
-64
-88
-123
-114
-87
-110
-112
-54
-92
-215
-297
-302
318
1834
2594
1263
-415
-586
-136
-140
-204
-117
-132
-153
-101
-93
-102
-76
-63
-60
-42
-25
-12
8
24
41
84
150
208
229
213
201
229
281
319
345
369
377
373
355
292
185
78
0
-64
-121
-161
-168
-152
-145
-166
-195
-205
-201
-197
-187
-170
-161
-161
-156
-146
-130
-111
-110
-97
-34
-5
-78
-135
-84
-19
-15
-21
-15
-20
-15
4
-10
-55
-76
-77
-70
-32
4
-23
-72
-95
-106
-129
-174
-195
-170
-221
-390
-586
-659
-43
1438
2240
1157
-298
-491
-150
-148
-106
113
160
75
48
46
32
24
17
24
56
73
47
25
40
45
16
10
48
60
25
17
79
156
194
205
227
259
272
242
177
97
13
-71
-135
-168
-186
-196
-195
-196
-199
-184
-160
-143
-130
-126
-127
-130
-146
-159
-145
-149
-182
-168
-126
-143
-169
-157
-156
-121
-16
1
-97
-116
-30
5
-43
-81
-60
-9
18
-4
-54
-78
-81
-124
-156
-121
-154
-288
-406
-491
-83
1321
2417
1502
-265
-727
-261
-139
-227
-174
-164
-193
-165
-161
-174
-142
-106
-99
-76
-19
22
14
18
74
123
131
148
186
212
236
269
286
302
372
476
539
538
486
380
234
92
-23
-110
-160
-175
-179
-184
-189
-191
-190
-185
-170
-151
-146
-151
-146
-135
-132
-130
-126
-123
-115
-112
-125
-137
-122
-101
-109
-130
-131
-121
-122
-138
-149
-132
-91
-54
-56
-111
-152
-123
-106
-138
-119
-112
-233
-381
-497
-204
1153
2605
2109
239
-585
-227
-76
-181
-101
-72
-173
-192
-149
-143
-153
-154
-130
-84
-54
-43
-23
1
12
24
58
83
85
100
140
171
184
197
220
248
271
265
221
150
61
-37
-119
-170
-209
-249
-265
-250
-233
-225
-219
-241
-263
-202
-123
-155
-215
-183
-137
-113
-46
1
-31
-54
-33
-24
-21
-7
-6
-20
-26
-23
-24
-30
-32
-19
0
5
3
14
16
-19
-61
-65
-68
-91
-55
-6
-101
-241
-336
-395
284
1953
2681
1171
-525
-606
-181
-242
-283
-178
-206
-223
-152
-130
-131
-109
-105
-97
-74
-71
-68
-38
-12
4
16
8
8
51
89
100
137
197
232
261
291
289
274
266
205
51
-117
-191
-157
-84
-26
22
15
-142
-353
-374
-234
-175
-201
-183
-146
-145
-146
-137
-128
-116
-117
-129
-119
-83
-61
-64
-58
-34
-33
-51
-49
-45
-56
-56
-63
-113
-156
-140
-123
-179
-211
-93
-7
-173
-391
-459
-266
764
2394
2617
791
-712
-476
90
-4
-144
-58
-56
-94
-22
29
-16
-23
53
92
68
61
75
93
142
205
237
241
237
241
266
284
269
255
273
291
282
254
195
83
-54
-175
-273
-353
-399
-418
-432
-436
-424
-416
-407
-380
-357
-351
-338
-317
-304
-284
-255
-246
-256
-256
-240
-228
-225
-220
-206
-191
-184
-179
-170
-159
-146
-121
-80
-43
-31
-53
-89
-81
-44
-50
-39
22
-19
-166
-319
-345
441
2157
2904
1487
-147
-299
43
-30
-74
31
18
-18
6
14
30
58
43
12
5
1
-17
-31
-21
14
36
19
4
29
83
126
130
131
175
209
198
211
268
265
167
56
-18
-69
-100
-108
-101
-90
-90
-107
-129
-141
-145
-151
-166
-180
-185
-188
-195
-206
-215
-222
-230
-232
-225
-217
-205
-182
-169
-193
-224
-239
-250
-227
-146
-75
-64
-67
-56
-32
-8
-28
-51
0
14
-86
-223
-346
72
1592
2830
1834
-229
-851
-314
-133
-219
-118
-68
-109
-78
-45
-59
-60
-58
-70
-82
-89
-90
-95
-101
-91
-65
-41
-5
57
118
150
181
237
282
282
267
269
271
237
153
30
-83
-147
-181
-208
-212
-205
-210
-217
-216
-214
-207
-197
-192
-187
-185
-189
-183
-169
-165
-168
-158
-146
-143
-137
-115
-94
-95
-100
-95
-97
-91
-54
-23
-30
-54
-69
-60
-42
-52
-40
-1
-58
-202
-361
-357
510
2188
2737
1230
-284
-325
19
-56
-93
-20
-69
-92
-31
-25
-45
-23
-13
-42
-66
-71
-71
-59
-39
-18
22
73
76
25
-2
27
61
59
56
82
114
128
139
124
41
-65
-118
-130
-147
-161
-155
-144
-137
-126
-118
-130
-139
-123
-120
-135
-121
-107
-137
-160
-147
-142
-154
-156
-155
-145
-118
-119
-155
-168
-149
-146
-150
-119
-89
-114
-155
-137
-91
-114
-148
-84
-61
-190
-351
-570
-426
1117
3115
2788
411
-842
-397
-83
-198
-130
-68
-124
-81
-7
14
41
10
-91
-78
24
-2
-22
148
182
-12
67
382
398
226
191
134
38
129
271
264
220
231
217
123
-19
-132
-181
-207
-232
-230
-214
-214
-215
-205
-214
-246
-270
-270
-258
-247
-246
-248
-230
-181
-132
-122
-142
-152
-144
-150
-166
-155
-138
-162
-185
-151
-120
-137
-121
-72
-105
-185
-171
-116
-140
-147
-95
-156
-307
-425
-419
361
2057
2746
1186
-538
-568
-36
-46
-99
16
14
-8
38
44
37
62
67
57
56
44
20
1
-19
-36
-36
-25
-7
4
-4
5
63
117
120
116
144
171
170
140
75
-18
-104
-137
-117
-107
-134
-138
-102
-86
-87
-60
-40
-61
-80
-75
-78
-96
-109
-124
-149
-166
-162
-156
-165
-175
-169
-158
-158
-164
-172
-183
-165
-114
-80
-88
-107
-113
-92
-68
-82
-76
-46
-138
-311
-484
-581
228
2262
3351
1841
-128
-369
43
-69
-176
-82
-125
-174
-136
-120
-67
-20
-75
-87
-24
-10
16
77
77
101
167
99
10
116
225
143
71
134
173
141
127
132
116
77
-2
-91
-132
-145
-175
-199
-201
-199
-199
-189
-172
-160
-161
-172
-173
-165
-166
-178
-187
-189
-184
-174
-168
-173
-176
-152
-120
-122
-147
-154
-141
-125
-119
-115
-94
-63
-39
-39
-90
-127
-75
-54
-115
-100
-58
-148
-311
-526
-362
1025
2703
2371
435
-524
-215
-83
-231
-179
-129
-171
-158
-145
-153
-120
-93
-105
-110
-88
-47
-5
16
13
12
30
58
83
93
93
112
148
164
161
172
193
192
159
98
18
-56
-93
-109
-140
-173
-182
-176
-164
-162
-192
-207
-171
-154
-172
-156
-127
-142
-150
-122
-114
-130
-127
-108
-92
-81
-70
-59
-59
-68
-65
-55
-54
-45
-16
11
22
13
-24
-46
-18
-6
-30
-2
16
-89
-275
-527
-389
963
2604
2264
326
-618
-238
-31
-152
-99
-61
-110
-65
-35
-75
-57
-9
-16
-30
-11
20
46
60
64
79
103
118
127
150
181
197
194
195
207
223
240
237
180
91
17
-36
-79
-109
-138
-171
-191
-197
-201
-199
-189
-193
-202
-193
-180
-179
-177
-164
-150
-150
-157
-151
-137
-137
-146
-138
-126
-131
-137
-123
-109
-112
-118
-109
-75
-27
-16
-62
-106
-101
-71
-83
-134
-125
-81
-129
-217
-312
-291
477
1812
1995
594
-479
-350
-112
-203
-191
-122
-160
-169
-142
-140
-123
-92
-76
-60
-50
-41
-10
14
11
30
75
106
123
141
157
183
214
220
215
231
251
251
226
170
88
7
-54
-87
-99
-110
-124
-130
-125
-116
-119
-135
-140
-129
-136
-158
-151
-121
-111
-122
-133
-147
-166
-158
-127
-120
-137
-136
-121
-121
-127
-126
-124
-112
-83
-62
-63
-81
-117
-133
-116
-117
-113
-69
-92
-181
-279
-427
-65
1362
2425
1417
-325
-678
-194
-101
-156
-74
-90
-122
-54
-36
-58
-5
53
43
28
42
61
99
156
177
175
186
218
319
396
269
155
322
427
222
114
258
299
190
145
136
87
54
45
34
37
30
-11
-52
-70
-88
-108
-117
-131
-149
-153
-155
-164
-167
-166
-165
-151
-131
-132
-148
-157
-160
-158
-161
-193
-228
-228
-235
-274
-297
-302
-296
-257
-225
-226
-211
-224
-307
-414
-419
209
1593
2200
902
-658
-763
-233
-142
-172
-71
-65
-100
-64
-51
-72
-63
-37
-21
-7
15
39
51
52
51
51
53
57
64
75
87
95
111
141
162
164
163
146
94
22
-56
-143
-207
-215
-204
-218
-240
-236
-215
-220
-224
-177
-159
-212
-151
19
7
-167
-232
-179
-120
-38
51
107
152
123
-81
-256
-109
117
6
-196
-88
81
10
-118
-126
-86
-59
-27
27
44
-33
-148
-270
-135
814
2027
1888
499
-294
-76
104
44
96
140
95
104
128
100
63
60
109
148
88
10
11
30
39
81
113
110
118
137
154
187
210
216
238
247
219
214
213
108
-65
-164
-184
-195
-191
-170
-177
-196
-184
-158
-150
-150
-162
-201
-247
-281
-315
-347
-351
-336
-331
-329
-306
-267
-233
-217
-207
-188
-155
-122
-100
-105
-151
-184
-163
-159
-180
-153
-164
-266
-391
-574
-297
1187
2614
1885
-41
-706
-288
-168
-249
-151
-121
-165
-125
-83
-78
-60
-53
-59
-41
-6
8
5
29
80
108
106
113
139
161
181
203
219
230
242
253
264
258
201
102
1
-83
-126
-114
-102
-142
-178
-152
-123
-145
-169
-153
-131
-125
-135
-163
-184
-177
-172
-187
-187
-176
-183
-181
-154
-141
-142
-128
-108
-87
-52
-39
-74
-119
-138
-148
-150
-88
2
-43
-173
-213
-205
154
1326
2256
1395
-275
-717
-218
-41
-115
-73
-84
-128
-86
-61
-85
-92
-96
-98
-74
-41
-18
-1
22
54
88
123
157
179
201
248
299
323
336
365
393
386
339
260
146
28
-48
-87
-125
-148
-142
-147
-167
-160
-133
-129
-132
-115
-108
-125
-119
-86
-85
-106
-84
-42
-43
-66
-59
-41
-43
-39
-17
-7
-33
-71
-77
-57
-77
-101
-51
-48
-163
-288
-436
-150
1312
2778
2079
53
-712
-263
-102
-214
-149
-130
-176
-126
-98
-132
-128
-97
-77
-59
-49
-46
-30
-7
15
38
57
75
104
138
162
182
209
234
247
245
221
166
77
-35
-149
-246
-295
-298
-309
-353
-382
-358
-313
-313
-351
-337
-285
-306
-357
-340
-325
-353
-341
-319
-337
-312
-248
-261
-320
-321
-302
-300
-267
-215
-201
-213
-225
-228
-226
-214
-155
-115
-214
-370
-541
-499
619
2501
2766
824
-669
-451
-50
-162
-184
-120
-166
-137
-56
-54
-59
-36
-18
18
63
70
69
105
159
198
222
245
282
333
380
414
445
481
516
535
529
502
454
366
255
174
135
105
74
65
87
