# session 26
-24
-32
-19
42
64
-10
-71
-60
-51
-63
-63
-60
-61
-56
-53
-52
-51
-56
-58
-52
-51
-58
-58
-54
-56
-57
-53
-54
-58
-55
-49
-47
-51
-56
-56
-51
-51
-55
-54
-51
-49
-49
-48
-47
-45
-44
-45
-41
-33
-27
-16
7
22
15
-7
-37
-53
-38
-45
-68
-36
-31
-138
-263
-344
4
1327
2632
2073
255
-574
-258
-88
-191
-160
-131
-169
-144
-115
-125
-114
-91
-81
-65
-45
-33
-19
-1
16
39
61
78
100
130
161
191
226
261
290
314
332
330
293
215
108
4
-73
-127
-164
-186
-196
-201
-200
-195
-191
-189
-191
-187
-175
-165
-163
-160
-154
-147
-141
-135
-132
-133
-130
-124
-122
-123
-121
-116
-113
-111
-109
-107
-104
-99
-97
-95
-91
-88
-85
-81
-77
-77
-75
-71
-71
-72
-70
-66
-64
-64
-61
-57
-55
-55
-53
-50
-47
-44
-42
-41
-37
-29
-22
-18
-13
-1
20
33
28
13
-16
-34
-21
-30
-51
-17
-18
-130
-249
-318
63
1421
2695
2072
265
-512
-203
-74
-184
-145
-120
-160
-136
-109
-116
-101
-78
-70
-59
-44
-30
-12
8
25
41
60
82
101
124
154
187
217
250
282
304
317
321
298
233
138
41
-39
-97
-131
-148
-164
-177
-175
-165
-163
-168
-165
-154
-149
-148
-145
-142
-144
-144
-136
-126
-124
-127
-125
-116
-114
-118
-112
-101
-104
-111
-109
-104
-104
-104
-99
-94
-94
-94
-89
-86
-87
-86
-84
-84
-84
-78
-70
-66
-69
-72
-65
-60
-64
-64
-57
-54
-55
-51
-53
-57
-47
-38
-44
-42
-23
-15
-14
7
28
21
-4
-27
-41
-38
-44
-58
-34
-27
-110
-213
-295
-63
1072
2436
2189
457
-584
-351
-75
-142
-138
-97
-128
-119
-87
-89
-78
-53
-41
-35
-21
1
22
33
42
61
88
112
132
154
180
213
251
286
313
336
357
366
342
271
163
52
-35
-99
-149
-180
-190
-195
-199
-198
-192
-191
-188
-181
-174
-168
-164
-161
-158
-155
-152
-147
-140
-134
-133
-134
-132
-128
-129
-131
-128
-124
-126
-128
-123
-116
-115
-114
-111
-107
-103
-102
-101
-98
-91
-90
-90
-86
-80
-78
-77
-77
-76
-71
-66
-64
-63
-60
-57
-56
-54
-49
-40
-32
-24
-10
13
30
30
13
-17
-39
-24
-20
-45
-24
-1
-88
-219
-326
-122
1026
2516
2398
638
-503
-303
-42
-151
-161
-106
-136
-133
-103
-103
-93
-75
-70
-54
-32
-24
-13
5
22
43
67
88
110
135
163
193
227
266
302
326
340
349
334
273
174
68
-23
-93
-137
-159
-172
-182
-186
-181
-173
-167
-167
-170
-165
-155
-150
-150
-145
-133
-126
-133
-138
-127
-114
-113
-114
-111
-111
-114
-111
-103
-102
-110
-108
-90
-83
-95
-102
-91
-83
-90
-93
-85
-83
-85
-82
-83
-88
-83
-73
-73
-80
-80
-75
-73
-71
-69
-74
-79
-70
-56
-56
-61
-56
-47
-43
-38
-24
-5
9
12
2
-29
-57
-48
-38
-61
-50
-22
-89
-212
-315
-174
810
2281
2416
805
-495
-416
-81
-138
-173
-116
-134
-137
-103
-98
-90
-63
-53
-44
-19
3
18
37
61
82
100
122
149
176
203
234
269
305
341
367
381
387
372
310
204
89
-12
-93
-146
-175
-193
-205
-204
-196
-192
-188
-181
-178
-176
-170
-162
-157
-153
-149
-144
-137
-133
-133
-133
-134
-134
-131
-128
-128
-128
-129
-125
-119
-118
-123
-127
-124
-118
-115
-114
-112
-108
-104
-103
-102
-95
-88
-86
-86
-82
-78
-77
-71
-68
-72
-71
-65
-65
-61
-49
-41
-42
-31
-5
10
6
-3
-29
-59
-50
-43
-72
-52
-23
-123
-251
-321
-124
1026
2645
2604
712
-538
-291
-19
-181
-189
-116
-158
-152
-109
-116
-108
-81
-77
-67
-48
-38
-25
-6
8
23
44
65
86
113
142
172
207
247
284
314
336
345
325
262
163
58
-35
-104
-145
-169
-185
-191
-189
-186
-184
-180
-178
-175
-169
-164
-160
-153
-145
-139
-134
-129
-124
-119
-116
-116
-114
-111
-109
-107
-104
-103
-104
-103
-99
-96
-94
-92
-90
-86
-82
-82
-82
-77
-71
-68
-64
-61
-62
-64
-63
-60
-56
-54
-54
-53
-53
-52
-49
-48
-49
-43
-31
-24
-21
-13
8
27
29
12
-18
-42
-36
-28
-48
-33
-9
-83
-195
-276
-141
814
2285
2447
858
-418
-337
-45
-139
-172
-115
-143
-144
-107
-109
-107
-82
-73
-66
-48
-36
-24
-6
11
25
41
61
84
109
135
160
189
222
255
279
291
294
281
235
153
57
-24
-80
-116
-139
-155
-163
-160
-151
-150
-150
-144
-134
-129
-130
-131
-129
-125
-124
-122
-120
-122
-125
-125
-119
-113
-112
-114
-113
-109
-109
-110
-106
-101
-101
-104
-106
-102
-92
-84
-89
-94
-87
-80
-86
-89
-78
-69
-68
-66
-68
-73
-67
-59
-61
-62
-59
-60
-62
-59
-55
-49
-40
-32
-23
-9
7
17
17
5
-21
-44
-38
-28
-49
-48
-24
-66
-152
-228
-110
720
1995
2130
697
-516
-471
-119
-111
-127
-78
-99
-105
-68
-58
-58
-44
-36
-21
1
13
22
42
63
78
94
116
139
158
178
207
241
267
286
308
326
334
317
259
165
67
-15
-80
-129
-157
-169
-173
-175
-175
-173
-168
-163
-159
-157
-156
-155
-153
-149
-142
-137
-135
-136
-135
-135
-133
-126
-123
-125
-124
-120
-115
-109
-107
-111
-111
-107
-104
-102
-98
-97
-100
-97
-90
-85
-85
-87
-89
-85
-81
-78
-75
-73
-72
-65
-55
-47
-35
-13
6
6
-11
-43
-69
-59
-47
-73
-67
-32
-84
-199
-303
-204
679
2117
2372
857
-500
-484
-112
-126
-160
-106
-126
-135
-97
-90
-88
-67
-55
-44
-25
-13
1
23
42
60
83
104
124
148
176
206
237
270
301
324
338
339
319
261
166
63
-23
-87
-135
-165
-180
-186
-182
-176
-173
-170
-164
-157
-151
-148
-147
-146
-143
-141
-136
-128
-123
-120
-117
-115
-115
-113
-109
-105
-101
-101
-103
-105
-104
-102
-98
-94
-90
-89
-88
-88
-88
-88
-84
-77
-76
-78
-75
-69
-68
-68
-65
-63
-62
-57
-47
-39
-33
-27
-13
9
18
5
-23
-50
-49
-38
-61
-62
-22
-67
-189
-293
-274
424
1926
2619
1340
-274
-515
-128
-116
-190
-131
-138
-160
-122
-109
-112
-89
-72
-67
-53
-36
-21
-3
17
37
56
78
102
127
152
181
215
251
285
309
325
337
329
281
197
97
2
-75
-125
-157
-177
-185
-184
-181
-180
-177
-173
-170
-166
-163
-161
-158
-150
-144
-141
-139
-134
-131
-129
-125
-120
-117
-115
-113
-113
-109
-102
-99
-103
-104
-101
-101
-104
-102
-97
-94
-93
-90
-88
-88
-85
-82
-83
-83
-77
-67
-61
-58
-52
-32
-8
2
-5
-24
-57
-72
-52
-60
-79
-42
-54
-176
-298
-355
104
1551
2728
1880
34
-582
-189
-90
-208
-158
-140
-179
-147
-123
-130
-110
-89
-85
-71
-52
-38
-20
-1
17
37
61
83
107
136
168
199
230
262
290
313
327
322
280
197
95
2
-69
-119
-151
-169
-178
-182
-183
-180
-174
-169
-165
-159
-153
-148
-143
-138
-135
-133
-130
-123
-117
-112
-110
-107
-102
-99
-97
-94
-90
-89
-88
-87
-88
-90
-86
-82
-81
-79
-75
-72
-73
-73
-72
-66
-54
-44
-42
-36
-13
12
18
5
-17
-46
-51
-35
-52
-65
-26
-46
-158
-261
-294
212
1622
2614
1663
-53
-543
-168
-90
-189
-148
-139
-165
-136
-118
-115
-90
-75
-73
-66
-63
-53
-28
-12
-2
19
35
46
73
107
131
155
192
229
251
259
263
257
216
133
35
-49
-111
-157
-183
-189
-182
-169
-163
-182
-202
-194
-178
-172
-163
-158
-161
-156
-140
-136
-140
-136
-131
-130
-123
-107
-101
-110
-117
-110
-110
-115
-105
-86
-82
-87
-86
-81
-77
-71
-70
-73
-71
-65
-61
-59
-56
-42
-21
-11
-16
-9
25
48
17
-38
-44
-18
-39
-70
-16
20
-76
-199
-307
-155
930
2405
2264
418
-749
-437
-63
-150
-161
-81
-88
-91
-87
-97
-66
-29
-27
-29
-25
-11
31
73
90
105
123
133
148
174
207
245
282
321
359
370
357
343
311
226
112
11
-75
-142
-179
-201
-222
-231
-234
-239
-231
-212
-206
-204
-186
-166
-168
-175
-166
-156
-159
-157
-149
-153
-158
-143
-125
-124
-128
-122
-114
-119
-127
-126
-125
-120
-104
-101
-116
-109
-79
-78
-102
-103
-83
-80
-86
-78
-78
-104
-111
-70
-29
-33
-52
-38
0
19
17
3
-34
-74
-65
-34
-54
-68
-32
-72
-185
-275
-267
427
2035
2836
1448
-339
-548
-70
-93
-211
-130
-130
-168
-133
-118
-110
-76
-65
-67
-50
-35
-22
5
27
41
60
79
98
121
139
159
196
237
265
288
304
300
281
249
178
71
-23
-78
-123
-170
-185
-165
-154
-167
-179
-178
-176
-172
-160
-150
-146
-142
-140
-141
-133
-125
-129
-136
-140
-135
-116
-99
-103
-113
-112
-102
-92
-89
-101
-105
-92
-87
-99
-105
-97
-91
-85
-72
-70
-90
-104
-83
-52
-46
-59
-61
-52
-53
-54
-40
-33
-35
-15
17
28
25
26
15
-22
-54
-52
-47
-54
-26
-22
-113
-215
-286
-29
1144
2495
2160
381
-595
-299
-49
-157
-160
-121
-152
-135
-110
-125
-112
-84
-78
-65
-41
-27
-15
2
16
37
66
83
84
98
132
166
188
212
237
252
262
265
237
177
109
25
-69
-119
-125
-137
-156
-161
-156
-138
-117
-132
-164
-156
-131
-136
-146
-127
-102
-95
-100
-107
-114
-110
-89
-79
-88
-84
-73
-81
-90
-88
-85
-80
-81
-91
-89
-80
-81
-73
-51
-44
-62
-90
-117
-123
-90
-37
0
7
-11
-46
-81
-87
-72
-64
-53
-29
-15
-16
-18
-12
15
51
25
-58
-84
-35
-45
-112
-96
-62
-134
-215
-265
-68
961
2242
2009
367
-616
-408
-161
-207
-168
-90
-94
-107
-111
-122
-115
-70
-6
0
-48
-43
9
21
20
63
105
116
130
147
157
177
208
231
258
289
296
284
267
217
135
62
-8
-87
-135
-144
-153
-165
-163
-150
-117
-99
-146
-193
-166
-115
-102
-117
-145
-171
-165
-139
-129
-135
-133
-113
-106
-126
-137
-125
-121
-128
-128
-125
-116
-94
-84
-94
-98
-92
-93
-99
-98
-96
-92
-70
-48
-54
-64
-49
-21
-5
2
-6
-39
-74
-75
-60
-78
-87
-53
-70
-157
-259
-295
266
1648
2411
1288
-342
-684
-255
-123
-161
-111
-109
-127
-93
-76
-80
-68
-50
-28
-1
14
25
45
67
84
103
125
149
173
199
231
265
297
328
355
371
373
349
287
190
81
-17
-93
-146
-178
-195
-198
-197
-197
-199
-197
-193
-187
-178
-167
-160
-156
-153
-145
-137
-136
-136
-133
-130
-130
-131
-132
-131
-131
-129
-124
-121
-122
-123
-122
-118
-112
-107
-104
-103
-100
-97
-96
-93
-90
-85
-74
-63
-60
-54
-33
-11
-5
-9
-23
-55
-71
-54
-60
-79
-46
-48
-148
-253
-313
88
1449
2638
1895
64
-638
-260
-99
-191
-146
-121
-156
-128
-103
-110
-92
-71
-64
-47
-26
-13
3
23
42
59
79
102
126
152
180
210
241
271
299
321
334
328
286
207
107
11
-66
-119
-155
-177
-185
-184
-183
-183
-179
-173
-169
-168
-165
-160
-154
-147
-143
-141
-138
-132
-127
-125
-124
-122
-119
-116
-112
-109
-108
-107
-104
-100
-99
-98
-96
-94
-90
-85
-83
-82
-79
-73
-71
-71
-69
-68
-71
-70
-57
-46
-47
-46
-27
1
12
6
-9
-38
-61
-51
-50
-75
-51
-34
-126
-240
-317
-80
1091
2541
2322
518
-570
-329
-78
-185
-178
-126
-164
-155
-119
-122
-112
-87
-79
-68
-48
-35
-18
1
16
32
53
72
91
117
146
175
204
237
265
281
291
292
270
211
124
31
-46
-101
-138
-161
-172
-174
-172
-170
-168
-163
-159
-158
-155
-149
-142
-137
-135
-131
-124
-120
-119
-115
-109
-107
-103
-100
-101
-98
-89
-86
-90
-90
-85
-83
-83
-80
-74
-72
-72
-68
-61
-61
-67
-68
-59
-55
-61
-64
-60
-57
-52
-39
-31
-37
-39
-25
-3
13
15
-1
-35
-61
-51
-43
-68
-57
-27
-91
-205
-295
-156
804
2265
2419
823
-487
-429
-101
-152
-186
-138
-155
-152
-119
-120
-115
-91
-80
-74
-61
-44
-26
-12
7
28
38
51
79
104
121
147
181
209
237
262
270
267
255
213
130
32
-48
-106
-146
-165
-167
-170
-174
-168
-161
-162
-162
-158
-153
-147
-143
-144
-144
-140
-138
-142
-144
-138
-130
-127
-127
-125
-119
-115
-113
-112
-110
-106
-101
-99
-97
-94
-93
-93
-88
-83
-83
-82
-78
-78
-74
-61
-50
-50
-48
-32
-5
13
14
0
-30
-57
-51
-45
-65
-47
-22
-96
-212
-309
-142
914
2383
2353
622
-593
-404
-68
-136
-150
-95
-127
-126
-86
-84
-81
-60
-48
-36
-17
-1
15
33
52
74
95
116
141
168
194
227
264
299
332
358
372
370
334
253
143
36
-52
-117
-157
-180
-192
-195
-194
-195
-193
-189
-185
-179
-171
-168
-166
-163
-158
-152
-148
-146
-146
-143
-139
-139
-143
-143
-138
-135
-137
-136
-133
-131
-131
-130
-126
-120
-114
-111
-112
-110
-105
-100
-98
-96
-95
-95
-93
-91
-89
-85
-75
-67
-64
-54
-29
-9
-12
-25
-46
-76
-79
-65
-89
-90
-44
-99
-233
-325
-281
496
2129
2791
1286
-412
-511
-70
-138
-229
-138
-152
-180
-131
-121
-130
-102
-81
-75
-59
-43
-31
-14
4
22
43
64
84
103
124
152
185
218
245
268
287
297
284
242
168
73
-12
-67
-104
-134
-150
-150
-148
-152
-151
-139
-127
-121
-118
-115
-111
-106
-96
-89
-87
-85
-78
-71
-68
-64
-57
-52
-49
-46
-40
-35
-32
-31
-28
-24
-21
-21
