# session 32
-10
-6
-23
83
232
194
58
11
-4
-51
-64
-47
-48
-56
-57
-60
-56
-47
-50
-60
-63
-59
-55
-53
-58
-67
-68
-60
-54
-54
-53
-52
-48
-45
-48
-48
-42
-45
-57
-51
-35
-38
-53
-57
-50
-45
-45
-45
-43
-41
-43
-45
-44
-39
-41
-48
-46
-38
-37
-43
-44
-36
-23
-12
-10
-7
13
35
29
-2
-30
-46
-42
-38
-63
-63
-24
-65
-169
-255
-253
387
1828
2512
1295
-250
-482
-122
-112
-180
-132
-144
-162
-131
-127
-123
-86
-69
-74
-64
-41
-23
-9
7
18
23
46
80
99
117
154
187
207
231
255
268
274
276
255
196
107
11
-66
-119
-154
-174
-177
-176
-178
-177
-171
-165
-159
-158
-165
-166
-158
-159
-159
-145
-140
-148
-142
-129
-130
-130
-124
-135
-143
-119
-96
-104
-110
-99
-97
-105
-102
-95
-96
-98
-93
-81
-76
-87
-90
-70
-59
-74
-81
-70
-66
-64
-55
-53
-50
-30
-19
-23
-9
25
29
1
-23
-42
-54
-52
-63
-58
-21
-52
-153
-240
-240
350
1722
2435
1303
-251
-545
-170
-105
-151
-99
-110
-129
-82
-59
-65
-52
-39
-35
-20
1
16
26
34
53
85
113
122
132
164
197
215
237
273
297
306
315
316
277
196
107
22
-60
-120
-150
-169
-182
-180
-174
-178
-182
-176
-169
-168
-167
-164
-168
-169
-156
-146
-152
-161
-155
-137
-129
-135
-137
-130
-126
-127
-123
-113
-109
-114
-116
-110
-106
-106
-102
-95
-91
-84
-79
-88
-93
-78
-73
-89
-88
-60
-39
-37
-33
-12
11
11
-11
-33
-56
-65
-58
-71
-70
-27
-55
-162
-257
-266
318
1729
2514
1400
-194
-511
-146
-109
-178
-123
-123
-142
-109
-97
-98
-79
-67
-56
-37
-23
-4
17
24
36
66
88
93
111
149
187
217
244
267
287
302
313
310
272
188
86
-1
-70
-128
-161
-168
-171
-175
-174
-170
-167
-158
-156
-167
-170
-156
-141
-135
-136
-141
-143
-141
-134
-124
-121
-127
-126
-114
-110
-114
-106
-94
-94
-95
-89
-88
-91
-88
-88
-93
-94
-86
-76
-72
-72
-73
-72
-67
-63
-62
-61
-54
-44
-38
-31
-13
8
16
11
-13
-53
-67
-43
-48
-67
-32
-37
-132
-220
-281
70
1349
2516
1872
167
-521
-210
-84
-176
-137
-121
-162
-134
-100
-108
-102
-80
-66
-54
-38
-23
-8
6
22
44
63
76
95
122
148
180
217
243
259
278
294
291
262
200
108
8
-70
-115
-140
-161
-176
-180
-178
-177
-173
-164
-163
-172
-171
-152
-135
-137
-148
-149
-139
-131
-131
-130
-129
-134
-132
-119
-114
-115
-103
-93
-99
-100
-91
-87
-94
-100
-99
-88
-81
-86
-87
-72
-62
-67
-71
-68
-71
-75
-65
-42
-28
-27
-20
2
16
2
-22
-44
-61
-54
-45
-59
-45
-35
-107
-200
-279
-104
925
2285
2187
582
-475
-309
-63
-142
-150
-106
-134
-137
-109
-100
-88
-73
-61
-43
-28
-16
1
16
25
42
68
90
104
123
156
194
219
241
271
294
304
303
279
221
135
41
-42
-103
-139
-157
-164
-164
-162
-163
-164
-161
-157
-150
-145
-152
-157
-140
-120
-122
-135
-137
-125
-117
-122
-128
-120
-117
-125
-121
-101
-93
-102
-103
-92
-88
-93
-89
-82
-91
-100
-86
-69
-68
-70
-70
-75
-77
-74
-72
-72
-78
-79
-53
-27
-26
-27
-12
7
15
7
-22
-62
-76
-57
-63
-76
-39
-43
-134
-224
-277
113
1395
2457
1700
8
-598
-240
-90
-161
-124
-109
-135
-110
-90
-93
-76
-60
-53
-39
-21
-4
9
25
47
64
77
98
118
135
171
210
231
253
282
301
309
306
271
202
114
20
-64
-124
-158
-173
-184
-198
-196
-178
-169
-172
-168
-164
-169
-168
-155
-148
-151
-149
-142
-140
-138
-132
-129
-127
-124
-126
-132
-126
-105
-92
-100
-111
-107
-92
-83
-90
-97
-95
-95
-97
-82
-68
-82
-93
-75
-59
-65
-59
-37
-26
-19
0
7
-20
-60
-75
-56
-54
-73
-48
-39
-130
-240
-322
-78
1074
2428
2148
423
-577
-328
-62
-137
-152
-126
-140
-117
-117
-145
-100
-35
-34
-40
-17
1
10
28
51
79
101
107
120
165
210
229
243
281
323
339
339
335
302
218
108
8
-68
-118
-150
-174
-188
-193
-193
-190
-191
-196
-190
-176
-169
-162
-147
-138
-140
-142
-144
-140
-132
-130
-138
-138
-121
-103
-98
-103
-108
-108
-105
-108
-111
-104
-104
-112
-100
-78
-75
-83
-81
-80
-86
-83
-69
-63
-72
-77
-73
-69
-69
-60
-45
-36
-35
-35
-19
12
21
-7
-39
-52
-43
-32
-63
-86
-39
-45
-156
-256
-283
203
1575
2562
1653
-22
-507
-156
-100
-197
-139
-132
-174
-138
-100
-102
-91
-74
-72
-60
-29
-12
-8
9
35
57
83
106
123
154
183
188
218
287
328
321
323
330
294
215
118
16
-63
-115
-159
-179
-162
-153
-172
-177
-163
-167
-179
-170
-153
-144
-138
-132
-129
-125
-123
-121
-120
-123
-113
-93
-91
-103
-104
-99
-93
-90
-98
-101
-89
-86
-94
-91
-84
-86
-83
-75
-78
-84
-80
-78
-79
-81
-83
-80
-67
-49
-40
-51
-71
-69
-47
-40
-40
-18
-6
-15
-5
14
6
-20
-51
-65
-46
-42
-52
-26
-49
-160
-265
-288
214
1569
2504
1584
-61
-543
-197
-103
-169
-129
-135
-160
-118
-90
-91
-81
-79
-78
-47
-10
9
14
18
26
42
69
102
134
163
190
213
244
292
323
323
334
354
314
208
102
15
-66
-123
-151
-166
-172
-178
-194
-200
-185
-173
-174
-171
-172
-189
-188
-154
-131
-138
-142
-131
-126
-134
-138
-133
-128
-128
-128
-131
-136
-124
-103
-104
-117
-114
-103
-103
-111
-113
-102
-91
-91
-94
-92
-87
-82
-77
-73
-75
-78
-72
-57
-45
-38
-23
-3
-5
-27
-41
-53
-65
-52
-52
-75
-55
-40
-118
-229
-328
-72
1118
2445
2080
333
-608
-328
-74
-144
-133
-97
-128
-117
-90
-90
-74
-47
-27
-8
6
14
30
50
67
84
103
123
146
176
210
236
262
309
361
391
399
395
358
267
142
28
-58
-121
-164
-195
-221
-224
-206
-197
-207
-211
-199
-183
-174
-169
-167
-168
-163
-147
-135
-134
-130
-122
-118
-115
-112
-114
-112
-108
-114
-120
-110
-97
-96
-97
-91
-86
-89
-92
-87
-82
-83
-83
-80
-81
-80
-70
-67
-79
-78
-58
-49
-56
-58
-52
-53
-57
-53
-43
-37
-34
-26
-7
14
16
-4
-19
-32
-51
-49
-40
-58
-48
-26
-101
-231
-344
-208
810
2341
2480
826
-486
-399
-74
-139
-170
-118
-142
-144
-109
-106
-100
-79
-71
-59
-37
-22
-11
9
33
54
70
85
107
135
163
186
219
266
309
333
353
371
363
306
204
84
-20
-94
-142
-178
-198
-201
-201
-204
-203
-201
-199
-185
-169
-167
-172
-165
-151
-143
-142
-139
-130
-125
-124
-121
-118
-121
-119
-106
-93
-91
-97
-98
-97
-95
-92
-89
-89
-89
-83
-76
-78
-80
-70
-62
-65
-66
-61
-60
-61
-59
-58
-61
-59
-53
-57
-64
-56
-42
-42
-47
-44
-37
-31
-21
-6
13
23
9
-17
-38
-44
-35
-45
-69
-41
-23
-108
-224
-324
-152
920
2358
2298
650
-466
-319
-75
-157
-162
-119
-148
-138
-104
-107
-103
-82
-66
-49
-32
-22
-6
12
28
46
65
84
105
125
146
183
234
277
308
335
358
368
353
298
200
84
-17
-93
-143
-169
-177
-182
-188
-189
-183
-178
-174
-171
-172
-174
-167
-153
-147
-147
-140
-127
-122
-122
-119
-118
-118
-111
-103
-103
-108
-106
-94
-88
-95
-99
-88
-79
-80
-84
-84
-81
-74
-69
-69
-67
-68
-74
-79
-80
-74
-60
-51
-53
-61
-63
-55
-47
-49
-53
-56
-60
-57
-41
-32
-35
-26
-1
23
30
17
-6
-30
-48
-45
-39
-61
-57
-21
-68
-183
-285
-251
482
1939
2486
1159
-336
-487
-122
-120
-169
-110
-121
-138
-107
-97
-82
-52
-49
-51
-31
-15
-8
9
31
49
69
89
105
126
156
189
226
271
314
341
358
373
377
341
250
130
23
-60
-129
-180
-202
-200
-197
-203
-204
-195
-186
-182
-185
-187
-185
-182
-181
-172
-155
-150
-153
-150
-145
-146
-141
-131
-127
-127
-127
-131
-129
-120
-124
-131
-117
-98
-102
-110
-102
-95
-94
-92
-90
-89
-89
-88
-82
-80
-84
-78
-64
-61
-65
-59
-48
-44
-40
-28
-8
13
17
-1
-28
-57
-66
-48
-55
-68
-27
-31
-142
-266
-342
74
1464
2655
1910
107
-579
-227
-86
-176
-131
-109
-139
-110
-87
-95
-78
-57
-48
-31
-13
-4
7
24
47
71
87
105
138
177
209
240
276
314
348
380
405
408
368
281
160
43
-43
-105
-155
-188
-198
-202
-208
-210
-208
-208
-206
-197
-187
-183
-176
-162
-151
-146
-143
-138
-135
-135
-135
-131
-126
-126
-124
-117
-109
-104
-102
-99
-97
-96
-94
-92
-93
-94
-88
-82
-85
-87
-80
-70
-68
-72
-74
-71
-64
-62
-63
-63
-63
-67
-65
-54
-49
-54
-52
-41
-33
-27
-20
-12
-1
15
18
-4
-33
-46
-34
-27
-55
-59
-25
-73
-190
-294
-294
393
1933
2692
1446
-185
-460
-110
-120
-193
-127
-133
-157
-121
-109
-112
-94
-80
-65
-45
-37
-30
-9
9
21
40
64
87
112
140
165
192
233
284
325
350
368
370
332
248
139
26
-66
-124
-157
-177
-188
-193
-194
-193
-191
-188
-185
-182
-178
-171
-164
-160
-160
-164
-162
-144
-131
-135
-137
-126
-119
-120
-117
-112
-115
-117
-105
-95
-99
-106
-97
-83
-81
-85
-82
-80
-86
-89
-89
-85
-74
-63
-67
-73
-71
-65
-63
-61
-64
-67
-58
-47
-48
-45
-28
-16
-8
9
21
11
-10
-33
-47
-39
-50
-74
-36
-10
-99
-212
-312
-145
941
2389
2299
633
-456
-295
-71
-158
-152
-109
-141
-131
-103
-108
-96
-73
-66
-52
-31
-20
-9
10
26
41
64
90
112
134
166
206
243
280
316
344
362
374
365
304
191
71
-17
-82
-140
-176
-184
-188
-196
-195
-193
-190
-180
-172
-176
-173
-161
-163
-173
-167
-151
-139
-134
-132
-134
-136
-134
-134
-130
-119
-115
-119
-114
-107
-112
-114
-103
-96
-97
-99
-100
-99
-94
-87
-81
-82
-96
-97
-77
-67
-75
-73
-64
-70
-78
-68
-51
-47
-49
-38
-17
-3
9
14
-7
-33
-44
-47
-47
-57
-65
-34
-37
-131
-226
-301
-59
1094
2416
2084
357
-604
-348
-95
-156
-141
-104
-127
-108
-81
-85
-71
-49
-46
-39
-20
-1
18
34
48
71
98
123
145
169
203
245
285
319
354
394
417
412
383
317
199
68
-29
-97
-154
-189
-202
-209
-212
-209
-204
-199
-193
-191
-194
-193
-181
-165
-154
-153
-156
-155
-151
-146
-140
-136
-135
-135
-134
-131
-126
-123
-123
-117
-107
-106
-112
-110
-100
-96
-100
-99
-91
-88
-88
-82
-76
-75
-77
-78
-77
-71
-65
-67
-70
-68
-66
-63
-52
-41
-37
-30
-11
10
15
0
-22
-43
-47
-29
-39
-68
-36
-29
-141
-263
-347
-97
1133
2609
2348
539
-508
-271
-56
-169
-160
-116
-154
-145
-112
-112
-99
-75
-68
-56
-34
-20
-9
10
30
46
63
83
105
133
170
209
244
280
320
357
383
397
382
314
199
75
-27
-102
-152
-181
-193
-203
-216
-218
-206
-196
-192
-186
-182
-179
-174
-169
-163
-153
-147
-145
-140
-137
-137
-133
-126
-123
-120
-115
-112
-111
-110
-108
-103
-98
-97
-102
-102
-95
-87
-81
-82
-88
-89
-81
-73
-72
-75
-79
-75
-64
-61
-67
-66
-60
-60
-62
-62
-63
-58
-44
-38
-43
-35
-9
11
19
16
5
-22
-53
-50
-31
-55
-63
-19
-55
-175
-284
-311
300
1813
2686
1559
-102
-462
-120
-109
-191
-131
-129
-148
-114
-104
-109
-88
-70
-59
-44
-37
-29
-7
18
37
52
70
95
123
151
185
221
259
298
335
361
381
388
353
266
154
47
-41
-105
-142
-165
-181
-189
-187
-185
-182
-178
-180
-179
-166
-152
-156
-163
-153
-138
-134
-134
-126
-121
-126
-129
-121
-112
-110
-113
-113
-104
-96
-97
-99
-92
-91
-98
-98
-90
-89
-97
-95
-81
-75
-79
-76
-71
-73
-73
-68
-70
-73
-66
-63
-73
-79
-73
-64
-52
-39
-36
-37
-28
-14
0
13
10
-22
-60
-69
-41
-29
-68
-73
-30
-72
-186
-296
-273
483
1965
2480
1114
-361
-486
-132
-138
-177
-109
-122
-141
-108
-102
-110
-88
-69
-69
-57
-24
-1
-1
8
41
68
77
93
119
146
182
226
256
281
326
378
402
387
336
245
128
13
-80
-143
-177
-196
-211
-220
-221
-215
-206
-199
-194
-184
-170
-164
-165
-165
-163
-161
-154
-142
-141
-152
-150
-131
-120
-124
-120
-107
-101
-103
-103
-98
-96
-95
-93
-92
-91
-86
-81
-82
-77
-66
-65
-72
-71
-59
-48
-48
-56
-59
-53
-45
-41
-33
-19
-7
8
28
32
13
-10
-31
-36
-23
-43
-61
-17
-30
-155
-278
-326
185
1663
2759
1825
15
-547
-168
-68
-153
-102
-97
-133
-102
-78
-75
-54
-45
-39
-11
10
11
24
48
67
84
104
122
145
177
208
241
287
339
379
405
420
411
369
289
168
38
-62
-126
-170
-200
-217
-225
-225
-222
-227
-232
-222
-207
-202
-205
-205
-198
-185
-177
-182
-185
-178
-172
-170
-167
-163
-159
-155
-155
-159
-161
-160
-154
-145
-142
-148
-147
-138
-136
-141
-141
-137
-134
-134
-133
-128
-121
-118
-117
-114
-112
-111
-110
-107
-103
-98
-97
-102
-105
-93
-68
-50
-45
-40
-24
-6
-4
-18
-40
-56
-47
-30
-52
-59
-15
-45
-166
-276
-283
359
1899
2793
1657
-45
-424
-65
-46
-132
-70
-67
-94
-56
-30
-22
1
15
24
46
66
80
99
