# session 35
66
50
59
196
300
197
88
119
142
112
120
147
149
151
162
171
180
188
196
210
222
232
257
292
318
340
377
418
444
450
446
424
363
259
142
39
-44
-95
-121
-141
-156
-159
-161
-164
-155
-143
-143
-148
-149
-151
-149
-142
-141
-148
-149
-145
-147
-149
-143
-138
-139
-140
-137
-132
-127
-125
-126
-126
-124
-121
-120
-122
-123
-116
-109
-110
-114
-111
-107
-100
-94
-98
-105
-106
-104
-99
-91
-87
-85
-71
-56
-49
-40
-32
-39
-60
-90
-100
-80
-86
-105
-73
-82
-193
-316
-388
56
1494
2678
1861
26
-625
-249
-116
-206
-153
-130
-166
-143
-120
-118
-96
-78
-75
-61
-41
-25
-4
14
26
43
68
92
113
136
164
197
239
285
322
350
377
392
372
309
209
91
-15
-90
-140
-176
-197
-203
-202
-204
-206
-198
-184
-174
-174
-173
-166
-158
-153
-147
-137
-130
-133
-135
-128
-118
-114
-111
-106
-104
-104
-102
-100
-96
-89
-85
-87
-86
-83
-82
-79
-72
-69
-69
-64
-59
-60
-63
-58
-53
-58
-59
-52
-50
-54
-52
-49
-49
-42
-31
-26
-22
-9
11
23
19
6
-14
-40
-43
-30
-54
-65
-16
-42
-171
-286
-312
265
1773
2744
1676
-72
-508
-133
-91
-187
-132
-129
-158
-126
-113
-115
-88
-73
-74
-60
-41
-30
-16
1
16
29
47
67
90
116
145
177
213
251
289
320
342
354
342
288
192
80
-22
-98
-143
-166
-185
-199
-200
-196
-193
-189
-183
-183
-181
-175
-170
-167
-160
-153
-150
-144
-136
-132
-132
-128
-121
-117
-115
-111
-106
-105
-104
-98
-90
-88
-87
-86
-88
-87
-75
-66
-72
-76
-70
-69
-74
-71
-59
-55
-60
-62
-57
-58
-65
-62
-53
-49
-45
-41
-40
-33
-12
10
20
10
-9
-25
-48
-61
-49
-56
-66
-30
-48
-159
-258
-321
66
1425
2618
1901
134
-543
-219
-103
-187
-136
-118
-151
-125
-114
-126
-104
-85
-82
-63
-40
-28
-15
1
13
27
47
69
90
114
148
181
210
246
287
318
338
355
350
298
201
92
-5
-80
-131
-165
-188
-193
-194
-202
-204
-188
-173
-167
-167
-167
-164
-158
-156
-153
-151
-153
-149
-140
-142
-145
-132
-115
-113
-118
-118
-114
-109
-104
-99
-94
-90
-90
-91
-86
-80
-81
-83
-77
-74
-78
-71
-60
-60
-62
-58
-58
-58
-45
-30
-38
-49
-32
-4
15
22
13
-11
-33
-47
-45
-39
-56
-57
-28
-66
-175
-306
-289
509
2051
2585
1174
-362
-496
-111
-111
-168
-111
-122
-139
-102
-90
-88
-68
-54
-44
-31
-21
-6
17
32
44
61
78
100
132
161
183
214
258
300
334
362
382
384
350
270
153
34
-62
-130
-174
-203
-220
-223
-216
-212
-210
-205
-197
-193
-192
-190
-184
-173
-162
-160
-160
-159
-154
-147
-142
-141
-138
-130
-123
-120
-121
-121
-118
-113
-109
-107
-104
-100
-95
-92
-93
-96
-96
-88
-78
-78
-85
-84
-74
-67
-64
-65
-65
-61
-56
-58
-58
-54
-54
-55
-45
-35
-34
-29
-11
15
31
26
10
-10
-37
-40
-17
-31
-45
-2
-28
-158
-278
-302
284
1807
2788
1711
-56
-494
-107
-64
-166
-110
-105
-135
-101
-87
-95
-75
-59
-53
-39
-28
-21
-4
13
23
36
53
69
90
115
142
174
212
250
284
314
338
348
335
282
185
70
-29
-104
-158
-186
-197
-205
-210
-208
-204
-201
-197
-191
-186
-180
-176
-169
-161
-157
-155
-149
-139
-134
-133
-129
-124
-122
-119
-113
-108
-106
-103
-100
-100
-99
-93
-90
-91
-89
-83
-79
-80
-80
-79
-74
-65
-62
-61
-61
-61
-59
-52
-49
-51
-51
-50
-50
-48
-45
-46
-48
-40
-29
-23
-16
-5
10
27
28
7
-15
-30
-35
-31
-47
-62
-28
-37
-139
-243
-317
45
1364
2584
1969
249
-475
-194
-82
-177
-138
-121
-156
-127
-101
-108
-94
-75
-70
-56
-38
-28
-14
5
18
27
42
65
89
113
137
167
202
240
274
303
333
351
340
294
218
115
10
-70
-124
-163
-183
-189
-194
-191
-183
-181
-182
-173
-162
-160
-167
-169
-161
-146
-134
-133
-139
-140
-130
-125
-132
-132
-118
-108
-109
-109
-106
-106
-105
-101
-97
-97
-93
-89
-87
-88
-89
-88
-81
-77
-78
-76
-70
-69
-73
-71
-61
-58
-64
-63
-50
-46
-54
-52
-42
-37
-31
-20
-6
15
26
8
-16
-28
-42
-49
-49
-61
-48
-26
-87
-189
-279
-214
614
2093
2479
1014
-421
-475
-104
-113
-158
-99
-113
-131
-99
-86
-80
-57
-46
-43
-32
-18
-4
15
34
46
54
74
102
127
154
186
219
260
304
337
363
390
400
365
284
172
50
-50
-119
-164
-193
-205
-208
-210
-211
-210
-205
-197
-188
-181
-178
-175
-167
-158
-156
-158
-154
-147
-143
-139
-133
-131
-132
-129
-125
-122
-117
-111
-104
-101
-101
-102
-98
-91
-87
-87
-87
-86
-85
-83
-82
-81
-80
-77
-76
-76
-73
-69
-65
-65
-69
-65
-51
-43
-44
-36
-18
-3
4
4
-7
-32
-62
-60
-40
-59
-63
-19
-63
-201
-320
-328
327
1890
2765
1559
-176
-514
-114
-97
-192
-129
-128
-158
-123
-105
-104
-80
-67
-64
-47
-31
-22
-8
12
30
47
65
89
115
136
162
200
240
276
314
350
377
386
363
297
196
82
-20
-95
-146
-178
-192
-195
-198
-200
-198
-196
-193
-187
-178
-171
-166
-163
-157
-149
-141
-137
-133
-127
-125
-125
-122
-118
-115
-113
-112
-110
-107
-102
-100
-100
-96
-90
-88
-87
-82
-77
-78
-81
-82
-79
-77
-75
-72
-69
-66
-65
-65
-65
-62
-60
-59
-56
-57
-57
-50
-40
-35
-29
-17
0
18
21
4
-17
-36
-46
-35
-41
-64
-38
-34
-135
-242
-316
-71
1110
2515
2256
525
-478
-265
-64
-167
-159
-121
-151
-139
-113
-114
-97
-75
-73
-63
-45
-33
-19
-2
12
30
51
68
85
107
132
165
207
249
286
316
341
358
359
324
246
139
30
-59
-122
-163
-187
-194
-190
-185
-185
-185
-182
-176
-170
-166
-160
-153
-150
-150
-147
-141
-136
-133
-134
-131
-127
-125
-122
-116
-111
-109
-105
-101
-100
-100
-99
-95
-88
-87
-89
-89
-86
-81
-78
-81
-80
-76
-74
-73
-72
-74
-73
-63
-57
-59
-58
-54
-55
-55
-47
-35
-25
-21
-16
5
24
17
-6
-33
-51
-45
-46
-64
-39
-24
-108
-214
-311
-130
958
2366
2236
584
-468
-295
-69
-158
-156
-112
-140
-131
-102
-103
-95
-75
-66
-57
-45
-34
-17
1
15
31
50
72
93
115
141
174
207
237
272
308
335
350
352
322
245
135
26
-57
-115
-158
-184
-190
-188
-190
-191
-185
-182
-178
-166
-157
-157
-156
-151
-151
-152
-143
-131
-134
-140
-133
-123
-124
-128
-128
-125
-116
-111
-114
-111
-102
-104
-105
-98
-100
-109
-101
-88
-89
-91
-81
-74
-77
-84
-89
-84
-66
-53
-52
-44
-23
-3
3
-10
-36
-64
-68
-49
-61
-86
-50
-43
-140
-238
-304
-10
1212
2491
2021
275
-580
-297
-105
-180
-140
-106
-146
-128
-96
-105
-96
-71
-58
-44
-25
-12
0
12
27
51
78
99
117
141
172
207
243
282
321
353
374
388
375
309
196
75
-25
-97
-147
-187
-215
-219
-212
-214
-216
-203
-192
-195
-195
-184
-179
-181
-178
-170
-164
-163
-161
-154
-145
-142
-145
-143
-134
-127
-123
-122
-125
-124
-115
-107
-104
-101
-99
-99
-96
-89
-85
-86
-87
-84
-74
-59
-50
-48
-42
-22
-1
-2
-18
-34
-54
-59
-49
-68
-77
-35
-65
-192
-309
-323
300
1831
2736
1582
-164
-541
-138
-98
-187
-123
-122
-155
-120
-101
-106
-88
-70
-57
-38
-26
-19
-2
22
41
55
70
96
124
145
167
204
249
288
322
349
367
366
333
260
152
35
-62
-124
-162
-190
-205
-207
-203
-203
-204
-201
-197
-194
-186
-179
-176
-168
-155
-151
-152
-146
-136
-133
-132
-127
-121
-116
-114
-113
-108
-98
-94
-100
-103
-98
-93
-90
-85
-83
-85
-85
-78
-75
-78
-76
-71
-67
-65
-64
-63
-63
-61
-57
-50
-44
-38
-30
-21
-17
-5
14
21
9
-9
-35
-53
-38
-36
-59
-37
-30
-131
-247
-332
-82
1124
2543
2260
497
-506
-274
-67
-165
-150
-115
-154
-136
-100
-106
-100
-78
-68
-57
-44
-34
-21
-3
16
35
52
67
87
110
137
171
210
245
275
304
328
343
338
296
213
106
3
-74
-127
-162
-182
-189
-187
-183
-182
-180
-178
-175
-170
-165
-163
-163
-163
-159
-152
-146
-144
-141
-136
-132
-128
-122
-117
-114
-112
-108
-106
-106
-103
-99
-95
-92
-91
-88
-86
-86
-86
-82
-76
-74
-75
-73
-68
-64
-62
-59
-57
-55
-52
-51
-52
-50
-46
-46
-43
-32
-22
-16
-7
10
25
25
14
1
-22
-40
-29
-32
-59
-32
-15
-106
-217
-298
-75
1059
2452
2247
553
-475
-278
-59
-152
-150
-113
-142
-127
-100
-109
-96
-74
-71
-60
-37
-24
-14
2
15
31
49
62
80
105
127
149
181
220
258
289
309
321
320
285
206
104
10
-65
-122
-163
-184
-187
-188
-195
-200
-197
-190
-179
-169
-167
-172
-172
-166
-161
-155
-148
-144
-141
-137
-135
-133
-125
-115
-114
-117
-114
-111
-108
-100
-95
-101
-102
-90
-86
-93
-91
-80
-73
-72
-74
-74
-69
-64
-64
-65
-63
-65
-69
-61
-41
-35
-45
-38
-9
14
22
16
-1
-21
-45
-58
-48
-49
-63
-39
-42
-128
-221
-292
29
1289
2540
1994
206
-631
-304
-78
-152
-127
-91
-121
-107
-84
-87
-71
-46
-39
-35
-25
-10
5
16
28
48
66
81
105
135
164
197
236
277
315
348
371
386
378
318
207
86
-21
-109
-170
-197
-209
-221
-229
-225
-214
-206
-202
-197
-191
-187
-187
-181
-167
-158
-159
-157
-148
-144
-143
-138
-134
-130
-125
-120
-121
-121
-117
-114
-111
-106
-102
-100
-97
-95
-92
-89
-87
-86
-83
-77
-71
-68
-67
-69
-67
-63
-62
-66
-68
-60
-48
-41
-36
-22
-5
7
13
9
-9
-39
-56
-40
-35
-67
-51
-16
-93
-224
-333
-197
852
2445
2581
836
-519
-393
-54
-141
-166
-96
-125
-131
-93
-95
-94
-65
-51
-47
-32
-15
3
19
31
46
65
83
101
125
153
184
218
253
289
323
352
371
370
334
250
133
19
-70
-133
-171
-195
-213
-221
-219
-215
-211
-204
-199
-196
-189
-178
-169
-163
-157
-150
-145
-144
-141
-132
-125
-124
-123
-119
-114
-113
-112
-108
-100
-96
-96
-97
-95
-92
-90
-89
-90
-88
-83
-78
-78
-79
-78
-74
-72
-71
-69
-65
-60
-59
-61
-58
-51
-48
-48
-47
-48
-49
-43
-32
-24
-18
-11
3
24
33
18
-5
-29
-43
-31
-31
-57
-36
-18
-113
-236
-325
-121
1002
2482
2389
658
-490
-314
-59
-156
-164
-116
-148
-138
-104
-110
-104
-81
-73
-63
-46
-34
-19
0
14
24
39
58
79
102
128
161
197
232
265
297
322
339
342
316
245
144
41
-43
-106
-148
-171
-182
-187
-185
-178
-177
-178
-172
-160
-154
-153
-155
-154
-146
-137
-134
-134
-125
-116
-113
-112
-108
-107
-109
-106
-97
-92
-94
-92
-91
-90
-87
-84
-86
-87
-81
-76
-80
-81
-74
-73
-80
-83
-74
-65
-64
-69
-70
-65
-61
-58
-55
-51
-50
-54
-63
-62
-48
-36
-31
-19
2
16
14
4
-6
-24
-54
-56
-42
-60
-57
-24
-74
-185
-283
-220
590
2055
2458
1016
-415
-476
-109
-121
-167
-112
-126
-136
-100
-93
-92
-73
-68
-64
-41
-19
-9
6
26
35
41
64
100
126
143
169
199
232
272
313
341
356
357
332
273
183
77
-23
-98
-148
-185
-205
-205
-200
-199
-196
-190
-189
-184
-171
-165
-169
-162
-151
-154
-157
-145
-138
-145
-145
-132
-125
-125
-122
-114
-110
-112
-113
-103
-94
-98
-104
-92
-78
-81
-86
-83
-80
-80
-76
-73
-77
-76
-65
-58
-61
-64
-63
-63
-58
-47
-39
-32
-21
-8
6
16
11
-6
-29
-50
-49
-45
-60
-43
-22
-101
-227
-334
-186
849
2371
2465
777
-521
-403
-68
-134
-163
-108
-135
-138
-103
-99
-89
-65
-61
-56
-37
-20
-5
11
24
40
61
82
99
121
152
185
219
254
288
320
347
367
369
337
257
139
22
-67
-133
-178
-199
-210
-219
-224
-223
-221
-211
-200
-199
-198
-188
-178
-175
-168
-157
-152
-151
-149
-146
-141
-135
-133
-135
-135
-128
-120
-119
-120
-118
-113
-108
-103
-99
-96
-96
-98
-98
-93
-91
-90
-87
-83
-83
-83
-78
-74
-73
-73
-72
-66
-61
-60
-61
-63
-57
-41
-28
-28
-24
-8
12
23
18
2
-23
-44
-35
-28
-54
-43
-9
-78
-204
-308
-215
703
2253
2581
1026
-386
-388
-55
-116
-159
-98
-121
-131
-97
-93
-85
-55
-44
-38
-21
-7
4
20
35
51
69
85
105
130
157
187
220
258
294
326
353
376
386
365
299
195
82
-11
-75
-118
-147
-164
-169
-167
-167
-168
-162
-153
-152
-150
-145
-139
-135
-131
-126
-125
-124
-121
-116
-111
-109
-109
-106
-97
-93
-94
-93
-88
-85
-86
-86
-86
-86
-84
-83
-84
-83
-81
-82
-84
-82
-79
-76
-75
-75
-73
-72
-72
-73
-75
-78
-78
-73
-70
-73
-74
-69
-60
-51
-41
-33
-22
-10
-13
-35
-66
-89
-82
-80
-108
-98
-73
-144
-257
-355
-269
638
2147
2423
879
-471
-454
-144
-208
-236
-178
-211
-221
-179
-176
-174
-149
-139
-133
-113
-97
-88
-74
-53
-32
-16
-1
19
48
79
110
146
188
230
269
301
319
325
307
242
145
49
-37
-114
-160
-177
-186
-192
-184
-168
-157
-147
-136
-134
-134
-115
-93
-87
-79
-61
-49
-40
-27
-22
