# session 34
-28
-45
-23
110
173
34
-80
-49
-29
-55
-50
-41
-50
-50
-43
-43
-43
-46
-49
-47
-45
-47
-48
-48
-48
-43
-39
-38
-41
-45
-43
-37
-37
-41
-41
-37
-38
-40
-40
-39
-37
-30
-22
-19
-15
-3
17
28
19
3
-13
-39
-52
-36
-49
-71
-32
-43
-168
-292
-364
37
1454
2735
2025
163
-573
-221
-95
-208
-164
-142
-187
-163
-132
-134
-117
-100
-97
-85
-66
-52
-37
-21
-4
14
30
46
69
94
121
156
198
238
273
305
330
344
332
277
180
67
-31
-103
-152
-182
-201
-211
-210
-203
-200
-199
-193
-187
-185
-181
-175
-172
-170
-162
-152
-145
-140
-135
-130
-129
-127
-122
-112
-106
-107
-108
-103
-97
-95
-94
-93
-89
-85
-84
-85
-83
-81
-80
-77
-73
-69
-66
-66
-63
-59
-58
-60
-60
-55
-52
-51
-49
-46
-42
-40
-42
-42
-33
-17
-5
2
13
30
40
31
13
-4
-25
-32
-16
-30
-56
-20
-19
-118
-224
-284
141
1509
2635
1866
136
-490
-170
-75
-168
-123
-107
-140
-118
-100
-98
-73
-57
-60
-50
-36
-25
-8
7
16
31
49
65
87
116
141
166
201
243
279
303
319
330
324
275
181
75
-14
-82
-135
-170
-188
-195
-195
-196
-192
-186
-189
-189
-171
-156
-163
-168
-162
-155
-147
-138
-135
-135
-133
-130
-126
-123
-121
-116
-106
-104
-111
-110
-100
-96
-100
-102
-101
-96
-87
-79
-79
-82
-79
-72
-69
-73
-75
-70
-64
-62
-57
-53
-61
-68
-63
-57
-59
-53
-39
-35
-36
-30
-17
-2
17
28
15
-6
-25
-48
-49
-34
-54
-63
-28
-59
-164
-260
-214
519
1959
2498
1159
-373
-537
-134
-100
-154
-100
-112
-132
-97
-80
-73
-55
-53
-50
-26
-8
-1
19
44
56
69
88
108
129
162
195
227
270
315
342
363
387
393
361
287
172
49
-46
-112
-163
-195
-209
-219
-221
-214
-207
-201
-192
-185
-181
-179
-182
-181
-169
-159
-161
-167
-161
-149
-143
-142
-136
-129
-128
-131
-132
-126
-119
-114
-111
-108
-108
-109
-107
-101
-96
-93
-91
-88
-87
-85
-80
-76
-80
-80
-70
-65
-70
-70
-64
-62
-64
-62
-52
-42
-34
-25
-13
4
15
8
-12
-37
-56
-45
-35
-56
-44
-18
-99
-232
-338
-205
808
2379
2570
894
-479
-401
-61
-136
-171
-110
-136
-142
-104
-99
-93
-76
-73
-60
-33
-17
-6
11
29
44
59
75
97
124
153
184
215
250
292
330
357
377
381
348
269
156
39
-53
-116
-158
-185
-198
-201
-197
-194
-194
-191
-183
-178
-174
-169
-168
-166
-155
-140
-134
-137
-137
-131
-125
-122
-120
-117
-112
-109
-107
-102
-97
-95
-97
-98
-95
-91
-90
-88
-85
-82
-82
-83
-80
-75
-70
-70
-75
-74
-68
-64
-64
-63
-63
-62
-60
-58
-54
-49
-51
-55
-50
-38
-31
-25
-16
2
21
24
10
-10
-35
-48
-35
-43
-67
-34
-27
-131
-245
-320
-23
1224
2564
2151
401
-492
-237
-71
-176
-151
-118
-159
-142
-105
-107
-100
-80
-69
-56
-41
-28
-13
5
22
36
47
61
87
115
140
169
207
247
284
309
326
344
355
323
234
122
20
-58
-111
-147
-171
-184
-188
-189
-185
-175
-169
-170
-172
-170
-166
-163
-155
-146
-145
-147
-139
-129
-130
-136
-136
-128
-118
-112
-113
-119
-115
-105
-101
-103
-99
-96
-100
-99
-90
-86
-84
-75
-69
-77
-86
-82
-71
-65
-66
-69
-66
-60
-66
-75
-68
-54
-55
-61
-54
-41
-39
-37
-21
2
17
19
5
-20
-44
-48
-32
-44
-67
-39
-37
-121
-213
-285
12
1228
2475
1996
273
-578
-305
-96
-157
-136
-109
-132
-115
-100
-106
-83
-57
-58
-50
-28
-11
2
19
36
54
75
97
117
138
169
206
242
281
324
358
376
390
390
342
241
122
12
-76
-133
-166
-193
-210
-211
-204
-197
-193
-192
-184
-174
-171
-169
-164
-161
-160
-159
-157
-153
-147
-143
-143
-143
-136
-128
-125
-123
-122
-122
-121
-116
-111
-108
-104
-101
-103
-102
-96
-92
-90
-87
-86
-85
-80
-74
-72
-75
-78
-74
-68
-67
-67
-61
-51
-43
-36
-28
-12
7
11
-6
-31
-54
-59
-44
-55
-70
-30
-34
-150
-275
-360
18
1413
2718
2066
210
-568
-229
-78
-181
-140
-112
-151
-127
-99
-103
-88
-73
-69
-50
-27
-17
-6
10
28
49
71
88
107
133
166
205
243
275
305
342
380
401
387
323
219
103
-3
-84
-138
-172
-194
-205
-209
-208
-199
-189
-189
-192
-185
-175
-173
-171
-159
-146
-142
-140
-137
-135
-132
-126
-121
-118
-117
-115
-109
-105
-109
-111
-107
-101
-97
-93
-90
-89
-89
-86
-81
-77
-77
-78
-76
-75
-71
-65
-64
-71
-71
-61
-56
-57
-57
-56
-56
-56
-57
-56
-50
-40
-32
-25
-15
3
20
22
7
-14
-38
-50
-35
-35
-62
-39
-18
-111
-240
-338
-131
1004
2472
2361
647
-471
-298
-61
-162
-167
-119
-149
-143
-113
-117
-107
-81
-69
-58
-42
-31
-17
0
13
27
47
69
88
109
134
167
211
260
297
322
347
368
370
337
259
146
35
-46
-103
-147
-173
-179
-180
-182
-179
-173
-171
-174
-169
-155
-149
-152
-150
-145
-143
-140
-130
-122
-120
-121
-121
-117
-112
-111
-110
-106
-104
-102
-98
-94
-90
-86
-90
-94
-87
-78
-78
-79
-75
-75
-81
-78
-68
-64
-61
-58
-62
-67
-62
-58
-64
-68
-61
-56
-56
-53
-51
-56
-58
-54
-50
-44
-30
-18
-9
10
23
12
-11
-35
-56
-51
-45
-62
-45
-22
-97
-210
-300
-168
789
2228
2350
776
-479
-411
-100
-139
-156
-111
-137
-135
-98
-92
-85
-70
-64
-52
-33
-17
-1
14
32
50
59
75
106
136
160
187
222
263
306
337
362
391
404
368
281
168
54
-40
-106
-151
-186
-203
-205
-203
-200
-193
-188
-183
-176
-169
-168
-168
-162
-156
-155
-155
-155
-152
-147
-143
-144
-144
-135
-126
-126
-129
-125
-119
-118
-115
-110
-108
-106
-102
-101
-103
-104
-97
-86
-83
-91
-93
-83
-74
-73
-73
-70
-66
-69
-76
-74
-58
-46
-45
-43
-27
-2
16
8
-16
-38
-58
-58
-40
-55
-68
-34
-65
-189
-311
-355
226
1781
2803
1716
-101
-557
-148
-90
-192
-132
-123
-153
-118
-102
-107
-81
-61
-61
-46
-24
-10
4
23
41
59
76
93
118
148
178
210
253
301
343
377
402
410
386
318
207
79
-30
-104
-152
-187
-205
-212
-215
-212
-203
-202
-205
-198
-182
-176
-175
-168
-157
-149
-141
-131
-128
-131
-129
-124
-119
-117
-114
-109
-105
-104
-102
-99
-96
-94
-90
-88
-89
-87
-84
-86
-85
-77
-71
-73
-73
-68
-66
-69
-69
-63
-58
-59
-61
-60
-58
-57
-54
-50
-50
-51
-49
-45
-42
-38
-34
-30
-23
-13
3
23
31
18
0
-17
-38
-40
-29
-51
-55
-18
-64
-194
-310
-294
433
1989
2709
1418
-207
-453
-92
-108
-190
-129
-134
-154
-116
-106
-112
-92
-75
-67
-50
-34
-24
-15
-2
20
42
56
73
100
131
161
191
226
266
304
333
351
364
357
302
201
85
-13
-86
-136
-165
-182
-190
-191
-189
-188
-183
-178
-177
-172
-164
-162
-163
-161
-150
-140
-142
-143
-131
-124
-129
-128
-123
-121
-116
-117
-125
-117
-99
-97
-105
-102
-95
-91
-84
-85
-92
-92
-85
-82
-82
-83
-85
-78
-69
-71
-80
-82
-74
-64
-62
-67
-68
-61
-57
-59
-56
-52
-54
-48
-31
-23
-22
-1
21
15
-8
-31
-48
-42
-36
-62
-54
-15
-74
-200
-299
-207
650
2123
2485
1014
-412
-469
-105
-113
-159
-117
-133
-125
-79
-85
-100
-74
-51
-41
-28
-18
-6
16
36
42
54
77
103
131
162
193
228
273
317
354
388
417
423
388
305
187
66
-31
-105
-160
-191
-202
-210
-215
-211
-200
-190
-184
-186
-188
-182
-173
-170
-168
-163
-160
-161
-161
-154
-146
-144
-145
-141
-134
-126
-121
-121
-126
-122
-110
-107
-111
-107
-97
-98
-102
-95
-87
-90
-93
-89
-85
-81
-77
-75
-69
-63
-64
-69
-71
-68
-60
-51
-51
-51
-39
-15
8
14
3
-17
-43
-61
-47
-42
-72
-58
-27
-109
-249
-369
-220
863
2465
2580
843
-489
-374
-60
-149
-174
-114
-145
-147
-108
-108
-102
-74
-66
-64
-46
-23
-4
10
25
42
58
75
98
122
147
180
220
259
299
338
372
397
402
363
272
151
34
-58
-125
-171
-202
-216
-215
-212
-211
-207
-196
-192
-193
-188
-177
-174
-172
-164
-153
-148
-148
-143
-134
-130
-129
-126
-121
-116
-112
-111
-110
-107
-102
-100
-101
-100
-95
-88
-84
-84
-84
-80
-78
-82
-80
-71
-65
-66
-65
-61
-59
-57
-55
-56
-58
-58
-55
-52
-53
-49
-36
-27
-24
-19
-7
11
24
19
1
-22
-46
-43
-27
-50
-58
-17
-59
-187
-301
-284
431
1966
2683
1410
-203
-451
-92
-106
-189
-130
-133
-151
-116
-107
-107
-81
-71
-70
-53
-36
-25
-8
9
23
40
60
81
107
133
158
190
229
269
304
333
353
360
348
299
204
88
-13
-87
-138
-170
-185
-191
-194
-190
-184
-182
-175
-165
-162
-163
-158
-149
-146
-150
-150
-140
-134
-140
-142
-132
-126
-128
-126
-121
-118
-114
-109
-106
-101
-97
-101
-101
-92
-87
-92
-91
-83
-83
-83
-77
-77
-81
-77
-67
-66
-75
-78
-71
-64
-63
-62
-59
-57
-58
-60
-55
-44
-40
-40
-31
-16
-7
6
22
18
-2
-25
-43
-42
-43
-64
-43
-17
-91
-204
-294
-131
888
2312
2313
680
-504
-381
-88
-144
-151
-98
-121
-123
-90
-82
-76
-64
-60
-51
-33
-14
5
18
28
47
71
91
106
126
153
186
223
260
291
320
352
380
391
364
281
159
44
-42
-113
-166
-194
-205
-210
-208
-200
-195
-195
-191
-182
-174
-171
-168
-164
-166
-170
-167
-158
-151
-148
-153
-155
-142
-130
-137
-141
-127
-115
-119
-117
-107
-104
-109
-109
-105
-102
-99
-94
-93
-95
-94
-88
-81
-76
-76
-75
-73
-73
-71
-65
-60
-56
-50
-42
-33
-21
-4
12
8
-14
-37
-52
-49
-36
-57
-66
-22
-52
-185
-311
-342
243
1776
2778
1704
-90
-549
-148
-84
-182
-127
-119
-151
-119
-98
-101
-80
-61
-55
-44
-33
-18
2
17
33
54
74
95
119
144
171
202
239
282
325
358
382
395
375
305
196
76
-29
-103
-150
-185
-207
-215
-217
-218
-214
-205
-194
-188
-187
-184
-175
-167
-163
-156
-151
-149
-147
-141
-132
-128
-127
-122
-114
-109
-107
-107
-108
-108
-104
-100
-97
-94
-91
-87
-85
-83
-80
-79
-81
-78
-72
-72
-73
-67
-59
-58
-60
-58
-55
-54
-54
-51
-48
-49
-49
-38
-30
-32
-26
-7
14
26
23
7
-12
-32
-41
-29
-41
-62
-25
-24
-140
-263
-336
5
1318
2645
2136
344
-508
-225
-69
-176
-150
-121
-155
-132
-105
-112
-97
-74
-67
-56
-41
-30
-17
-1
16
34
50
68
90
114
140
169
204
245
284
317
343
358
355
319
238
125
17
-65
-124
-162
-184
-195
-196
-189
-186
-188
-186
-178
-171
-165
-161
-155
-145
-139
-141
-143
-141
-139
-132
-120
-115
-119
-121
-118
-109
-101
-104
-111
-108
-100
-94
-92
-93
-98
-102
-98
-90
-85
-88
-91
-85
-79
-81
-80
-73
-70
-76
-81
-76
-70
-71
-73
-68
-64
-65
-57
-41
-30
-24
-14
5
18
5
-23
-45
-58
-53
-47
-67
-63
-27
-69
-176
-276
-252
473
1953
2543
1213
-339
-520
-122
-98
-170
-126
-126
-134
-103
-91
-81
-55
-47
-47
-36
-20
-4
13
31
50
63
75
98
125
147
176
219
261
296
332
372
396
396
374
312
199
75
-19
-86
-137
-172
-195
-206
-206
-199
-188
-180
-179
-174
-164
-162
-166
-156
-143
-144
-150
-143
-136
-140
-143
-133
-121
-122
-126
-123
-114
-110
-112
-109
-102
-99
-98
-95
-93
-90
-87
-90
-94
-91
-82
-76
-73
-75
-79
-77
-67
-61
-64
-67
-61
-48
-37
-35
-29
-10
9
7
-10
-26
-49
-61
-44
-49
-72
-39
-39
-152
-283
-372
-17
1358
2712
2136
267
-583
-260
-84
-184
-152
-122
-157
-137
-116
-122
-104
-82
-76
-58
-39
-34
-22
0
18
32
50
69
88
109
138
173
213
257
298
329
354
374
365
305
201
80
-31
-117
-172
-206
-224
-234
-240
-240
-234
-229
-229
-225
-218
-211
-208
-204
-195
-182
-173
-170
-168
-163
-156
-151
-144
-139
-139
-134
-127
-126
-126
-119
-112
-108
-106
-106
-107
-103
-98
-96
-93
-87
-82
-80
-77
-74
-71
-71
-69
-65
-63
-61
-57
-50
-46
-43
-38
-38
-41
-33
-18
-9
-4
7
24
39
47
44
29
2
-17
-2
8
-22
-11
27
-44
-178
-280
-172
764
2318
2629
1061
-347
-342
-15
-86
-128
-63
-86
-97
-57
-49
-48
-27
-15
-4
14
27
40
58
74
89
107
127
146
166
190
220
254
291
328
365
394
409
412
392
329
226
117
25
-47
-99
-130
-145
-149
-148
-143
-141
-145
-146
-143
-140
-139
-136
-132
-130
-129
-129
-129
-130
-132
-132
-131
-127
-123
-129
-138
-135
-125
-128
-138
-138
-135
-143
-149
-143
-138
-143
-146
-146
-149
-146
-141
-148
-160
-164
-166
-163
-152
-149
-158
-166
-168
-168
-166
-164
-169
-176
-175
-167
-163
-157
-146
-133
-118
-104
-110
-131
-147
-166
-180
-168
-171
-188
-157
-158
-253
-356
-423
-69
1223
2436
1828
75
-686
-366
-181
-246
-207
-182
-215
-191
-157
-146
-122
-105
-98
-70
-38
-21
-2
26
52
71
94
124
159
192
228
274
325
373
417
459
499
536
544
499
413
320
232
152
98
74
65
62
66
78
94
