# session 14
665
644
556
663
914
941
798
720
652
607
690
751
658
532
471
456
450
384
270
214
211
170
127
105
30
-1
100
95
-152
-506
-666
290
2531
3617
1804
-524
-925
-503
-566
-627
-502
-528
-560
-508
-526
-540
-490
-486
-492
-432
-364
-311
-232
-151
-92
-18
64
107
110
76
-48
-263
-462
-588
-695
-764
-720
-630
-623
-654
-607
-525
-517
-563
-565
-524
-510
-513
-476
-416
-379
-372
-367
-334
-316
-347
-335
-273
-304
-352
-288
-284
-474
-731
-573
747
2543
2486
368
-1112
-863
-381
-379
-377
-297
-255
-198
-165
-153
-99
-54
-40
13
113
211
289
371
455
500
507
524
515
396
237
179
162
39
-90
-77
-75
-215
-282
-175
-131
-204
-198
-124
-123
-146
-106
-67
-92
-124
-107
-68
-55
-57
-49
-38
-50
-70
-53
-30
-101
-185
-152
-141
-214
-268
-321
211
1930
3156
1865
-344
-883
-351
-233
-293
-207
-224
-231
-115
-54
-21
64
96
67
74
101
148
241
295
290
338
403
391
377
383
312
208
148
62
-27
-1
60
8
-102
-141
-114
-107
-146
-161
-110
-79
-110
-126
-125
-164
-188
-158
-152
-172
-158
-149
-158
-154
-227
-375
-372
-253
-279
-428
-593
-438
817
2519
2351
259
-1041
-691
-281
-353
-332
-228
-227
-210
-180
-177
-143
-102
-75
-4
94
164
238
330
401
452
479
461
418
341
201
79
32
-24
-121
-173
-169
-180
-213
-216
-179
-162
-192
-194
-165
-249
-418
-409
-203
-73
-82
-76
-51
-70
-86
-89
-116
-114
-69
-95
-159
-112
-82
-231
-449
-631
-243
1466
3234
2630
338
-788
-476
-286
-378
-299
-250
-338
-389
-331
-203
-172
-278
-271
-124
-86
-129
-79
2
37
77
119
131
157
191
156
63
-12
-81
-173
-227
-233
-261
-291
-265
-232
-233
-212
-160
-141
-174
-181
-112
-53
-76
-98
-51
-11
-14
15
78
99
105
133
123
111
148
96
-102
-321
-283
649
2308
2768
1109
-610
-733
-275
-263
-331
-252
-233
-253
-241
-225
-191
-144
-108
-54
16
62
100
170
249
279
234
181
198
211
96
-65
-129
-156
-218
-240
-227
-261
-301
-296
-305
-328
-301
-272
-296
-298
-243
-213
-217
-202
-187
-180
-139
-106
-127
-140
-124
-154
-191
-168
-162
-166
-109
-123
-228
-321
-374
308
2155
3154
1472
-795
-1075
-340
-172
-212
-66
-41
-95
-41
33
68
90
106
133
186
252
300
325
385
496
561
555
563
571
483
326
185
63
-51
-125
-144
-137
-141
-144
-124
-115
-136
-139
-124
-132
-152
-144
-127
-135
-143
-107
-53
-47
-95
-144
-154
-116
-81
-130
-208
-238
-300
-413
-546
-521
421
2228
2744
911
-915
-950
-412
-349
-338
-265
-326
-339
-254
-224
-239
-231
-200
-167
-149
-125
-65
0
27
34
52
65
50
11
-56
-159
-239
-241
-217
-217
-208
-192
-211
-225
-187
-154
-180
-201
-164
-128
-138
-143
-116
-112
-141
-138
-129
-182
-216
-158
-125
-195
-253
-220
-170
-144
-80
-14
-82
-268
-520
-506
701
2815
3357
1395
-494
-590
-156
-185
-247
-171
-124
-111
-167
-232
-162
-59
-45
-36
22
79
122
191
300
422
510
547
561
559
453
206
-13
-83
-107
-160
-185
-190
-221
-217
-152
-119
-157
-174
-134
-130
-150
-102
-45
-63
-71
-12
28
24
25
15
-12
-20
-47
-108
-114
-128
-262
-436
-581
-245
1290
2935
2386
193
-861
-431
-153
-286
-251
-148
-163
-190
-170
-114
-89
-126
-114
-24
29
48
128
232
278
275
263
266
285
246
87
-98
-185
-221
-288
-342
-344
-347
-367
-368
-353
-329
-292
-270
-260
-219
-186
-207
-213
-183
-193
-228
-213
-180
-180
-190
-190
-196
-201
-184
-177
-207
-199
-148
-210
-361
-524
-694
-94
1881
3311
2075
-169
-797
-345
-242
-287
-170
-154
-185
-139
-126
-127
-75
-58
-89
-60
27
94
143
205
271
337
398
432
427
381
297
182
55
-27
-52
-70
-83
-72
-92
-127
-94
-71
-157
-230
-192
-152
-182
-201
-167
-154
-201
-249
-270
-279
-266
-252
-251
-219
-206
-265
-272
-224
-286
-415
-502
-256
943
2426
2131
117
-1079
-707
-270
-279
-211
-115
-152
-136
-51
-11
8
25
13
24
103
202
265
301
343
428
539
558
478
431
416
331
205
89
-31
-114
-136
-147
-153
-147
-166
-180
-142
-107
-116
-120
-106
-105
-114
-124
-139
-143
-110
-72
-78
-103
-103
-103
-91
-44
-36
-61
-37
-64
-222
-434
-600
-109
1553
2899
2007
-49
-937
-680
-450
-410
-379
-379
-335
-287
-307
-298
-261
-266
-247
-173
-94
-9
91
188
277
325
318
309
312
275
172
47
-51
-105
-119
-130
-166
-186
-169
-170
-202
-217
-195
-159
-129
-104
-60
-18
-5
7
36
59
73
81
65
4
-72
-84
-56
-95
-121
-59
-95
-288
-501
-526
355
2179
2868
1191
-662
-809
-356
-344
-322
-199
-241
-253
-160
-131
-113
-69
-102
-157
-135
-72
-4
57
68
48
65
117
123
53
-18
-37
-68
-149
-219
-252
-272
-280
-263
-222
-175
-150
-140
-118
-98
-109
-124
-121
-130
-144
-126
-106
-117
-128
-122
-115
-124
-161
-174
-130
-126
-143
-84
-72
-183
-369
-541
173
2327
3736
2207
-256
-836
-303
-216
-268
-144
-145
-187
-143
-143
-150
-91
-47
-39
-3
57
110
169
253
342
393
402
415
441
408
289
158
52
-38
-84
-95
-139
-198
-207
-204
-234
-239
-193
-154
-145
-151
-171
-199
-220
-234
-237
-212
-187
-210
-252
-267
-256
-229
-212
-219
-178
-123
-197
-331
-389
-175
841
2249
2164
292
-1034
-748
-247
-255
-258
-182
-205
-211
-182
-190
-180
-130
-99
-90
-49
26
92
150
220
283
316
317
277
211
156
116
62
-2
-42
-59
-46
3
19
-39
-75
-51
-44
-64
-61
-49
-44
-29
-9
5
-2
-36
-49
-31
-42
-73
-64
-56
-109
-168
-198
-222
-209
-181
-250
-416
-609
-455
763
2432
2414
506
-870
-737
-410
-453
-397
-266
-248
-228
-176
-132
-93
-96
-109
-62
-1
32
86
165
240
305
336
322
301
266
174
54
-40
-134
-235
-245
-167
-152
-213
-204
-121
-68
-38
5
18
7
12
14
1
-9
-25
-52
-59
-30
-2
-24
-80
-93
-73
-115
-185
-170
-163
-260
-393
-530
-197
1302
2831
2197
62
-909
-466
-148
-194
-177
-192
-205
-103
-96
-214
-214
-96
-45
-62
-60
-36
-5
39
88
132
148
114
69
46
0
-90
-164
-191
-204
-216
-213
-200
-194
-188
-168
-160
-182
-205
-203
-191
-181
-163
-137
-118
-116
-110
-82
-59
-70
-85
-89
-105
-94
-48
-38
-4
82
25
-166
-349
-423
407
2449
3495
1838
-319
-658
-199
-190
-204
-77
-111
-148
-93
-101
-128
-103
-90
-94
-70
-24
23
80
179
301
352
317
289
305
285
177
40
-47
-111
-195
-238
-218
-217
-246
-271
-315
-341
-286
-213
-203
-223
-222
-216
-229
-254
-259
-239
-231
-247
-231
-171
-148
-183
-186
-150
-153
-145
-101
-173
-320
-409
-364
432
2096
2721
1099
-679
-764
-258
-256
-307
-207
-215
-241
-195
-159
-128
-82
-41
-1
34
70
117
156
191
242
279
274
274
310
320
261
181
111
25
-58
-65
-5
-3
-111
-207
-189
-117
-73
-52
-48
-66
-93
-139
-197
-205
-175
-191
-234
-216
-161
-153
-190
-216
-205
-202
-245
-247
-198
-244
-375
-503
-425
534
2182
2476
645
-996
-906
-347
-297
-298
-196
-224
-262
-205
-153
-118
-69
-24
29
98
162
234
326
392
424
457
473
467
467
417
264
96
-1
-51
-84
-103
-125
-153
-163
-143
-123
-135
-146
-112
-82
-96
-96
-62
-49
-67
-86
-85
-53
-26
-40
-50
-46
-62
-70
-66
-82
-59
-29
-115
-280
-457
-205
1231
2889
2447
274
-865
-494
-216
-321
-272
-242
-376
-439
-396
-350
-314
-279
-227
-171
-143
-102
-12
79
149
225
295
334
338
287
182
57
-65
-162
-211
-244
-289
-307
-283
-270
-277
-253
-204
-186
-205
-193
-152
-158
-184
-145
-88
-93
-113
-84
-33
-12
-31
-34
-2
-7
-22
22
-9
-166
-327
-431
90
1718
2866
1688
-351
-847
-325
-201
-282
-205
-194
-218
-155
-112
-105
-63
-3
42
58
57
73
132
219
253
210
191
205
146
57
34
17
-53
-131
-187
-215
-214
-216
-228
-216
-189
-176
-163
-131
-105
-107
-115
-102
-91
-104
-117
-118
-128
-140
-147
-160
-167
-160
-153
-166
-186
-141
-92
-188
-335
-446
-409
577
2452
2877
852
-972
-838
-243
-248
-263
-139
-140
-135
-75
-70
-70
-29
9
35
78
156
236
281
322
387
436
453
443
394
313
211
84
-23
-72
-109
-143
-142
-141
-162
-153
-117
-117
-145
-146
-108
-66
-72
-138
-196
-180
-124
-112
-149
-162
-153
-187
-223
-210
-220
-245
-214
-239
-366
-502
-608
-72
1633
2838
1582
-585
-1082
-467
-290
-353
-239
-208
-242
-193
-173
-187
-148
-94
-46
32
111
159
217
293
335
337
338
324
268
186
91
-13
-94
-134
-159
-179
-180
-168
-165
-168
-162
-145
-121
-96
-82
-81
-80
-80
-86
-92
-105
-130
-132
-106
-103
-118
-109
-112
-128
-108
-100
-122
-77
-47
-156
-313
-485
-267
1188
2978
2686
556
-676
-441
-232
-346
-310
-270
-327
-313
-267
-259
-233
-199
-184
-160
-126
-86
-21
65
142
201
241
243
214
179
135
61
-41
-130
-170
-164
-163
-191
-218
-211
-178
-153
-144
-129
-112
-111
-101
-73
-68
-85
-74
-51
-47
-42
-26
-14
-30
-60
-39
-1
-35
-53
-6
-54
-212
-399
-364
712
2571
2848
802
-886
-722
-232
-286
-288
-184
-215
-207
-141
-144
-136
-85
-58
-22
49
109
161
232
303
357
401
417
388
338
288
211
76
-69
-140
-144
-166
-214
-233
-225
-211
-191
-180
-191
-192
-177
-191
-228
-245
-240
-226
-202
-195
-216
-216
-181
-181
-227
-246
-245
-276
-275
-239
-295
-410
-527
-502
423
2180
2611
759
-967
-893
-341
-309
-299
-197
-221
-207
-124
-105
-96
-52
-21
15
66
111
163
225
279
315
331
328
315
282
225
156
82
7
-45
-65
-77
-92
-103
-103
-102
-102
-96
-86
-81
-82
-84
-88
-99
-107
-103
-87
-63
-38
-15
2
-3
-31
-36
-21
-44
-53
-19
-67
-198
-369
-455
334
2153
2941
1363
-477
-657
-223
-246
-290
-191
-206
-221
-172
-175
-182
-160
-165
-163
-108
-42
4
48
101
150
186
208
219
212
174
106
25
-45
-101
-145
-175
-182
-178
-176
-172
-166
-166
-171
-172
-171
-179
-190
-201
-215
-229
-233
-218
-191
-174
-166
-157
-164
-176
-159
-160
-182
-150
-142
-240
-369
-507
-176
1305
2722
1931
-190
-993
-490
-256
-337
-247
-192
-228
-188
-142
-135
-104
-63
-23
38
98
141
192
254
306
343
366
356
317
279
232
150
62
1
-44
-76
-90
-102
-93
-54
-35
-46
-49
-59
-96
-114
-106
-116
-135
-135
-130
-139
-153
-156
-137
-124
-148
-169
-152
-135
-113
-81
-123
-226
-390
-597
-40
1817
3073
1783
-341
-815
-287
-166
-226
-150
-157
-185
-145
-135
-123
-71
-40
-8
60
120
154
200
266
321
344
340
321
282
207
89
-40
-145
-222
-275
-298
-295
-280
-269
-264
-254
-235
-215
-198
-180
-160
-142
-133
-143
-155
-145
-118
-110
-125
-131
-136
-165
-178
-164
-183
-199
-160
-189
-310
-454
-561
68
1828
2825
1341
-708
-958
-323
-229
-291
-165
-145
-168
-108
-85
-88
-54
-25
-5
32
69
107
158
212
259
293
306
303
290
253
184
100
27
-30
-74
-104
-124
-137
-140
-137
-136
-136
-131
-129
-133
-135
-138
-147
-157
-164
-167
-155
-136
-126
-120
-126
-149
-143
-122
-146
-143
-93
-145
-292
-508
-646
257
2317
3109
1302
-589
-633
-181
-269
-303
-172
-190
-207
-151
-146
-148
-112
-81
-48
-6
31
75
130
175
207
222
210
177
131
66
-2
-59
-108
-149
-166
-161
-150
-132
-105
-79
-59
-39
-30
-40
-37
-5
20
13
-6
-19
-19
-8
-10
-36
-50
-53
-77
-99
-106
-127
-112
-73
-138
-262
-391
-403
426
2037
2425
747
-767
-675
-234
-282
-306
-216
-240
-248
-197
-190
-185
-149
-117
-80
-31
16
65
117
158
188
204
197
174
141
94
45
-6
-65
-117
-146
-159
-161
-155
-154
-146
-120
-107
-117
-116
-103
-104
-109
-106
-109
-114
-99
-77
-79
-84
-65
-57
-77
-78
-81
-112
-95
-55
-114
-253
-497
-486
758
2633
2583
423
-948
-585
-176
-262
-229
-144
-176
-146
-84
-93
-91
-46
-6
20
40
72
128
191
242
278
295
275
229
197
166
90
-3
-65
-108
-141
-150
-146
-145
-139
-134
-141
-142
-130
-131
-153
-169
-160
-152
-176
-213
-203
-159
-159
-199
-214
-222
-236
-218
-193
-174
-118
-104
-182
-262
-367
-139
1111
2454
1845
-145
-987
-483
-169
-220
-137
-82
-130
-91
-22
-22
-35
-10
47
94
107
142
224
296
321
335
361
363
307
219
132
44
-55
-145
-184
-172
-174
-206
-192
-133
-120
-150
-132
-83
-85
-113
-113
-102
-94
-87
-100
-93
-45
-45
-96
-88
-51
-70
-101
-103
-91
-65
-77
-180
-368
-493
9
1357
2189
1195
-419
-828
-414
-280
-330
-267
-253
-282
-241
-200
-198
-186
-158
-110
-40
18
52
97
167
225
234
224
229
208
133
53
2
-45
-94
-126
-139
-151
-165
-168
-151
-135
-133
-127
-114
-108
-99
-86
-87
-85
-70
-73
-87
-73
-56
-51
-32
-18
-24
-22
-40
-62
-21
-23
-132
-287
-520
-190
1560
3203
2285
3
-724
-176
-47
-181
-79
-43
-96
-50
-15
-36
-31
-16
-2
43
84
91
114
158
126
42
44
115
137
108
66
0
-60
-94
-123
-141
-144
-165
-175
-128
-84
-96
-117
-130
-158
-160
-118
-105
-153
-216
-248
-224
-160
-106
-82
-80
-91
-98
-100
-109
-115
-104
-80
