# session 29
-12
-31
-5
122
165
15
-94
-60
-46
-71
-61
-52
-59
-55
-50
-50
-46
-43
-42
-40
-41
-42
-36
-37
-46
-45
-36
-38
-43
-41
-40
-46
-50
-51
-50
-48
-47
-50
-51
-45
-42
-47
-51
-49
-46
-40
-35
-45
-57
-45
-28
-36
-52
-51
-43
-43
-43
-41
-42
-44
-46
-50
-53
-51
-42
-30
-24
-28
-21
8
20
-5
-32
-47
-55
-45
-53
-76
-46
-40
-142
-267
-342
18
1330
2595
2016
224
-578
-261
-92
-185
-144
-110
-155
-143
-109
-105
-95
-78
-61
-45
-35
-20
1
16
32
61
86
102
125
155
183
217
261
308
348
382
406
419
407
343
226
94
-22
-106
-160
-195
-220
-235
-241
-240
-232
-224
-222
-220
-212
-204
-201
-193
-182
-176
-165
-153
-152
-159
-155
-143
-137
-137
-138
-137
-137
-134
-130
-123
-118
-114
-114
-115
-110
-103
-101
-101
-94
-88
-87
-82
-78
-83
-86
-81
-75
-71
-67
-68
-73
-74
-70
-65
-61
-59
-56
-55
-56
-54
-49
-44
-38
-29
-24
-24
-15
8
26
26
14
-13
-38
-27
-20
-46
-26
-2
-98
-241
-347
-139
1030
2585
2505
695
-509
-313
-39
-148
-157
-106
-140
-130
-93
-97
-87
-61
-55
-46
-25
-9
5
22
38
55
76
98
120
146
175
205
240
284
328
360
387
409
403
351
251
127
13
-75
-135
-172
-198
-215
-217
-212
-214
-214
-205
-200
-200
-194
-185
-178
-170
-159
-151
-145
-140
-138
-136
-132
-127
-123
-120
-119
-118
-113
-108
-108
-111
-107
-99
-98
-101
-97
-91
-89
-89
-88
-87
-85
-85
-83
-79
-75
-75
-75
-72
-69
-69
-67
-63
-61
-62
-63
-61
-57
-52
-50
-50
-46
-43
-43
-41
-32
-25
-24
-20
-1
26
35
23
1
-26
-32
-18
-35
-49
-11
-37
-167
-291
-330
220
1738
2802
1795
-14
-519
-135
-81
-190
-136
-127
-159
-123
-105
-113
-93
-71
-64
-53
-40
-26
-9
6
23
47
69
87
110
137
163
191
228
269
305
337
363
376
362
306
203
84
-15
-92
-148
-179
-193
-204
-206
-198
-190
-187
-186
-182
-176
-168
-159
-155
-156
-153
-144
-135
-129
-125
-126
-125
-119
-118
-122
-117
-110
-107
-105
-100
-98
-99
-94
-87
-88
-93
-94
-92
-88
-82
-78
-76
-75
-76
-79
-78
-76
-76
-73
-70
-72
-72
-67
-65
-67
-65
-58
-54
-57
-60
-58
-55
-52
-50
-45
-38
-27
-15
-3
11
16
1
-32
-57
-43
-31
-65
-62
-14
-68
-205
-312
-236
594
2108
2572
1117
-385
-472
-92
-104
-152
-95
-116
-127
-86
-83
-86
-60
-45
-39
-23
-10
4
27
46
62
84
108
129
156
190
225
260
299
343
384
421
449
451
410
322
194
58
-51
-128
-183
-214
-225
-229
-227
-224
-220
-214
-208
-205
-199
-192
-188
-184
-181
-180
-174
-166
-160
-157
-155
-153
-151
-149
-147
-147
-148
-145
-138
-137
-141
-138
-130
-126
-124
-118
-117
-117
-112
-103
-95
-95
-107
-123
-125
-124
-131
-120
-76
-42
-46
-58
-53
-44
-42
-41
-40
-26
8
25
2
-34
-60
-67
-50
-46
-47
-5
-9
-122
-253
-338
55
1422
2645
1960
162
-560
-216
-66
-161
-120
-92
-123
-96
-68
-65
-44
-31
-35
-24
-9
1
12
19
33
64
85
97
133
176
197
224
274
322
361
394
412
415
388
301
179
74
-20
-113
-172
-191
-211
-237
-237
-218
-219
-241
-232
-198
-193
-209
-189
-160
-172
-188
-161
-129
-130
-136
-135
-141
-136
-117
-114
-124
-119
-108
-107
-109
-103
-96
-91
-90
-89
-89
-90
-91
-87
-81
-79
-78
-72
-64
-64
-69
-71
-76
-81
-74
-62
-63
-73
-68
-42
-26
-40
-49
-18
21
27
8
-12
-41
-59
-44
-49
-76
-51
-41
-134
-253
-353
-66
1238
2671
2232
322
-651
-310
-69
-186
-167
-108
-142
-138
-108
-110
-102
-83
-69
-55
-41
-18
13
31
38
49
66
93
127
148
168
210
255
285
320
359
379
384
382
342
238
104
-9
-87
-139
-176
-201
-209
-212
-218
-215
-200
-190
-189
-185
-184
-193
-190
-166
-156
-168
-163
-138
-131
-143
-140
-126
-124
-138
-147
-131
-100
-89
-99
-102
-101
-111
-122
-118
-107
-98
-88
-74
-71
-89
-109
-102
-73
-53
-54
-68
-78
-72
-63
-66
-62
-40
-27
-36
-34
-20
-20
-14
21
39
0
-50
-50
-24
-44
-82
-44
-18
-115
-237
-313
-28
1194
2568
2219
437
-540
-285
-75
-175
-155
-114
-153
-139
-104
-112
-114
-96
-81
-62
-37
-16
-1
8
20
37
51
69
102
136
162
195
240
279
312
341
357
365
366
320
208
80
-19
-94
-150
-175
-180
-191
-204
-205
-201
-202
-198
-186
-180
-179
-170
-159
-155
-150
-151
-155
-146
-139
-151
-155
-132
-112
-109
-111
-117
-126
-119
-103
-100
-104
-99
-95
-96
-90
-84
-88
-88
-78
-79
-89
-80
-61
-60
-66
-63
-59
-61
-64
-62
-56
-49
-41
-31
-22
-8
9
11
0
-16
-52
-75
-52
-46
-62
-38
-49
-142
-246
-296
179
1544
2533
1634
-75
-617
-243
-99
-162
-124
-112
-136
-114
-97
-93
-70
-52
-46
-37
-25
-8
17
34
48
72
97
115
138
172
212
252
289
329
374
406
423
430
396
302
177
55
-54
-135
-178
-208
-234
-238
-225
-220
-219
-210
-201
-193
-186
-190
-196
-182
-165
-168
-173
-165
-159
-158
-152
-144
-142
-143
-141
-137
-132
-131
-133
-131
-120
-114
-120
-122
-113
-106
-109
-110
-106
-100
-95
-92
-92
-95
-93
-79
-60
-56
-63
-58
-33
-6
4
-9
-28
-47
-64
-60
-59
-82
-62
-24
-97
-239
-360
-215
836
2394
2500
768
-568
-432
-73
-145
-176
-107
-126
-137
-109
-101
-82
-60
-59
-42
-8
7
13
28
46
67
93
118
141
165
201
250
298
338
379
421
456
475
454
371
239
95
-24
-102
-151
-190
-214
-220
-224
-229
-229
-220
-211
-214
-219
-200
-171
-167
-173
-149
-119
-132
-166
-168
-154
-156
-145
-119
-129
-151
-135
-110
-99
-83
-88
-111
-108
-109
-148
-158
-123
-105
-111
-96
-70
-74
-97
-85
-48
-65
-123
-103
-21
-23
-92
-93
-49
-62
-78
-39
-10
-17
-13
-2
-13
-34
-53
-60
-45
-51
-71
-42
-45
-156
-277
-358
-24
1326
2742
2259
371
-561
-254
-68
-194
-178
-131
-158
-153
-140
-139
-116
-99
-90
-63
-44
-39
-22
0
15
39
68
82
85
106
148
191
230
273
317
352
380
392
375
316
218
98
-11
-86
-131
-158
-177
-187
-185
-175
-167
-169
-174
-171
-161
-155
-150
-143
-143
-146
-143
-139
-137
-132
-127
-121
-114
-114
-121
-119
-110
-106
-105
-100
-97
-96
-97
-97
-97
-94
-89
-85
-84
-82
-78
-77
-74
-69
-74
-80
-75
-67
-71
-79
-75
-60
-47
-45
-47
-36
-12
5
5
-10
-43
-76
-65
-40
-64
-69
-29
-77
-203
-309
-262
514
2021
2575
1215
-301
-455
-106
-131
-195
-135
-144
-159
-125
-118
-120
-101
-86
-71
-50
-37
-27
-12
5
24
46
69
92
114
133
166
214
257
291
323
351
368
366
324
234
119
14
-62
-118
-159
-181
-188
-190
-186
-181
-181
-178
-170
-168
-169
-162
-152
-153
-155
-148
-137
-135
-137
-136
-127
-120
-123
-127
-118
-106
-105
-108
-104
-100
-100
-99
-98
-93
-87
-86
-87
-85
-80
-74
-70
-74
-79
-76
-68
-63
-64
-70
-69
-56
-46
-41
-33
-21
-4
14
14
-8
-38
-57
-52
-41
-58
-57
-22
-61
-168
-270
-266
407
1867
2533
1291
-267
-499
-128
-108
-172
-116
-121
-137
-99
-94
-104
-82
-59
-49
-37
-25
-11
10
23
33
55
83
107
130
151
172
207
254
292
317
344
370
371
328
241
131
20
-70
-126
-159
-184
-201
-202
-196
-193
-189
-183
-178
-171
-164
-163
-161
-157
-155
-152
-145
-142
-143
-140
-134
-135
-136
-128
-120
-121
-126
-127
-120
-111
-108
-106
-103
-101
-100
-96
-93
-94
-96
-94
-90
-84
-79
-76
-75
-78
-77
-67
-57
-54
-49
-30
-7
2
-5
-20
-46
-66
-56
-50
-74
-62
-34
-103
-221
-325
-201
773
2263
2426
831
-470
-409
-90
-144
-170
-116
-141
-147
-112
-106
-100
-78
-68
-56
-34
-20
-7
10
27
44
63
86
113
139
163
193
232
274
311
341
364
380
370
312
210
96
-4
-78
-128
-161
-182
-189
-188
-186
-184
-180
-175
-170
-164
-159
-155
-151
-147
-143
-137
-134
-135
-135
-127
-119
-116
-115
-110
-105
-103
-104
-103
-100
-98
-95
-92
-92
-94
-92
-89
-87
-85
-82
-79
-78
-77
-78
-75
-70
-70
-73
-71
-65
-61
-60
-61
-58
-48
-38
-34
-29
-13
10
20
13
-6
-35
-54
-38
-37
-64
-43
-26
-113
-227
-318
-107
1026
2457
2293
581
-495
-302
-66
-165
-168
-123
-154
-147
-116
-118
-107
-84
-75
-62
-42
-29
-13
6
20
35
55
75
97
123
151
184
220
257
292
319
339
354
347
298
204
94
-3
-74
-124
-153
-165
-171
-175
-177
-174
-166
-159
-157
-154
-149
-145
-142
-139
-138
-136
-135
-135
-132
-127
-125
-122
-113
-109
-118
-124
-114
-103
-106
-110
-105
-99
-103
-106
-101
-96
-95
-97
-96
-93
-89
-87
-88
-87
-82
-77
-72
-70
-72
-76
-79
-79
-81
-79
-69
-56
-43
-30
-23
-21
-17
-14
-14
-30
-68
-95
-94
-99
-85
-26
-42
-157
-251
-310
30
1312
2564
2005
219
-621
-309
-92
-174
-158
-111
-118
-102
-88
-90
-69
-44
-39
-34
-20
-6
5
20
42
71
99
119
141
177
216
248
288
332
360
393
444
469
441
369
253
114
-4
-92
-156
-183
-190
-204
-217
-213
-211
-211
-189
-160
-161
-178
-172
-153
-148
-156
-158
-154
-157
-161
-153
-139
-133
-134
-140
-144
-143
-141
-144
-144
-138
-138
-135
-124
-125
-137
-127
-102
-100
-113
-111
-96
-89
-94
-95
-87
-80
-80
-78
-69
-62
-56
-46
-22
3
5
-14
-33
-56
-72
-63
-64
-65
-17
-30
-173
-308
-356
67
1467
2752
2091
248
-507
-176
-69
-197
-152
-125
-169
-142
-116
-127
-108
-80
-77
-71
-52
-31
-12
5
20
37
58
88
119
145
172
202
237
281
320
340
357
372
350
271
155
30
-70
-121
-134
-163
-211
-218
-200
-213
-219
-188
-204
-244
-184
-95
-131
-220
-218
-158
-139
-172
-195
-154
-100
-116
-159
-147
-116
-122
-136
-134
-131
-121
-100
-90
-92
-93
-103
-117
-98
-53
-45
-77
-109
-128
-127
-91
-42
-30
-52
-59
-54
-72
-78
-49
-35
-48
-41
-20
-6
19
47
32
-20
-62
-62
-28
-2
0
7
-8
-76
-179
-331
-141
1089
2570
2280
428
-583
-220
42
-153
-186
-97
-105
-80
-16
-10
-24
-41
-67
-49
-1
11
11
46
79
78
85
121
149
152
167
202
233
268
319
363
386
405
397
328
215
99
-10
-102
-152
-173
-194
-204
-202
-217
-233
-216
-199
-207
-204
-187
-187
-195
-191
-195
-208
-201
-175
-164
-176
-186
-177
-165
-162
-161
-153
-143
-134
-132
-135
-129
-128
-142
-139
-109
-99
-110
-100
-86
-100
-115
-107
-98
-98
-92
-86
-89
-91
-84
-83
-85
-74
-55
-44
-36
-22
-5
1
-5
-18
-43
-66
-61
-66
-96
-73
-31
-82
-185
-273
-75
942
2215
2031
389
-666
-440
-97
-119
-118
-71
-92
-88
-60
-60
-52
-25
-13
-10
1
19
38
58
87
118
137
149
172
207
247
287
330
376
418
454
487
505
484
408
280
135
10
-86
-155
-197
-217
-223
-221
-218
-219
-220
-216
-209
-205
-201
-192
-184
-179
-174
-168
-168
-166
-157
-149
-149
-149
-147
-147
-145
-141
-139
-140
-139
-132
-125
-124
-123
-118
-114
-112
-109
-106
-106
-107
-104
-100
-96
-93
-90
-85
-77
-72
-66
-50
-28
-15
-17
-24
-44
-70
-64
-52
-80
-68
-26
-101
-247
-368
-275
735
2414
2639
797
-657
-445
-22
-138
-175
-84
-120
-131
-79
-77
-76
-47
-38
-33
-13
3
17
38
58
75
95
120
144
170
202
236
275
323
377
424
455
468
451
382
257
107
-27
-123
-188
-230
-248
-253
-255
-255
-250
-243
-238
-233
-227
-220
-212
-206
-200
-191
-186
-183
-177
-169
-164
-163
-157
-150
-150
-153
-151
-145
-141
-141
-139
-137
-136
-131
-127
-126
-126
-122
-119
-118
-116
-112
-107
-103
-101
-96
-89
-87
-90
-83
-68
-59
-55
-40
-16
-3
-6
-19
-47
-67
-48
-45
-75
-48
-27
-134
-267
-373
-143
1143
2730
2433
464
-587
-229
-7
-179
-164
-103
-150
-134
-97
-108
-98
-71
-68
-62
-44
-27
-11
4
19
41
66
87
109
134
165
200
239
281
322
359
389
405
391
332
230
110
2
-76
-126
-156
-174
-179
-175
-171
-167
-160
-153
-148
-143
-137
-131
-124
-117
-110
-108
-106
-101
-97
-96
-92
-85
-80
-79
-77
-72
-68
-66
-64
-62
-62
-61
-57
-52
-49
-50
-50
-47
-43
-44
-43
-42
-43
-43
-39
-36
-36
-37
-37
-36
-30
-20
-14
-12
-6
13
31
30
12
-16
-43
-43
-35
-60
-59
-23
-71
-190
-299
-257
524
2001
2455
1016
-446
-489
-98
-136
-199
-132
-148
-171
-138
-132
-133
-114
-104
-100
-86
-70
-55
-39
-26
-12
4
19
35
56
81
109
138
168
199
228
250
267
270
235
149
36
-72
-160
-224
-264
-284
-291
-288
-286
-284
-278
-271
-268
-261
-252
-249
-247
-242
-236
-229
-222
-219
-213
-201
-191
-186
-178
-166
-156
-150
-143
-133
-123
-114
-103
-92
-86
-80
-67
-53
-44
-32
-16
-2
8
22
36
46
58
76
92
100
119
151
174
184
207
246
279
296
297
279
265
290
313
302
329
371
336
271
168
195
1036
2470
2878
1741
92
