# session 23
-23
-51
17
54
-98
-297
-346
-335
-339
-307
-291
-305
-269
-237
-269
-279
-231
-197
-207
-231
-252
-259
-232
-179
-164
-195
-184
-139
-145
-163
-146
-157
-180
-135
-90
-120
-135
-94
-82
-109
-109
-83
-85
-125
-136
-84
-31
-40
-71
-69
-53
-55
-55
-46
-60
-80
-59
-27
-44
-65
-36
-7
-10
-14
-29
-49
-24
0
-28
-39
-30
-58
-32
8
-143
-387
-469
0
1604
3397
2980
588
-770
-375
-38
-207
-206
-135
-179
-162
-132
-147
-108
-67
-81
-65
-24
-17
8
56
54
39
78
137
178
211
260
336
405
455
533
603
605
601
610
533
369
207
59
-82
-178
-222
-256
-301
-330
-316
-271
-236
-244
-275
-278
-256
-250
-241
-214
-216
-229
-201
-170
-173
-177
-178
-181
-162
-153
-181
-177
-126
-115
-151
-159
-141
-156
-188
-168
-111
-100
-136
-145
-102
-83
-128
-156
-114
-88
-119
-123
-84
-81
-109
-98
-66
-87
-130
-109
-64
-80
-107
-84
-66
-82
-74
-57
-84
-102
-64
-44
-67
-57
-19
-30
-55
-28
-10
-57
-87
-53
-27
-30
-33
-55
-56
-24
-80
-223
-351
-269
692
2520
3182
1411
-624
-783
-118
-70
-245
-161
-83
-118
-126
-87
-49
-48
-73
-60
-2
36
32
33
64
97
118
160
224
266
279
327
416
481
528
615
687
679
659
639
505
263
48
-81
-159
-223
-278
-308
-311
-299
-284
-290
-302
-272
-234
-246
-260
-227
-202
-221
-235
-210
-176
-190
-236
-212
-139
-149
-217
-202
-143
-150
-185
-170
-143
-158
-178
-165
-146
-144
-139
-135
-145
-138
-115
-116
-122
-98
-84
-121
-147
-107
-69
-98
-125
-76
-36
-76
-109
-74
-56
-87
-95
-72
-81
-96
-56
-16
-50
-97
-74
-34
-54
-77
-29
17
-30
-69
12
84
14
-64
-33
4
-17
-51
-75
-38
12
-98
-306
-437
-261
914
2846
3222
1131
-766
-658
-60
-150
-254
-115
-123
-188
-117
-60
-90
-93
-49
-32
-33
3
46
37
14
47
119
174
207
233
264
327
410
472
528
598
634
631
634
600
460
275
114
-39
-165
-232
-274
-309
-320
-319
-316
-307
-302
-297
-275
-260
-266
-263
-237
-222
-233
-232
-219
-231
-234
-178
-132
-161
-185
-158
-156
-186
-178
-160
-181
-189
-154
-134
-149
-150
-117
-95
-122
-144
-107
-94
-158
-176
-105
-74
-104
-95
-65
-76
-99
-98
-77
-72
-113
-132
-74
-44
-86
-76
-22
-44
-90
-66
-47
-84
-82
-26
-12
-36
-17
13
-3
-8
31
30
-23
-25
-17
-91
-97
17
-35
-286
-464
-322
767
2750
3453
1574
-523
-697
-136
-138
-229
-149
-176
-206
-152
-143
-132
-78
-65
-74
-54
-43
-31
18
52
62
94
120
110
139
232
300
322
364
444
524
583
605
585
545
464
288
75
-53
-114
-194
-261
-256
-240
-264
-280
-254
-234
-260
-282
-247
-205
-213
-226
-213
-199
-191
-190
-186
-166
-176
-211
-179
-128
-159
-188
-141
-113
-146
-170
-162
-152
-146
-140
-138
-131
-119
-123
-135
-119
-96
-103
-119
-127
-124
-105
-99
-115
-100
-70
-80
-94
-81
-83
-94
-76
-69
-93
-98
-81
-78
-67
-45
-55
-59
-21
-5
-30
-21
21
23
-29
-76
-62
-37
-69
-74
-36
-104
-275
-406
-149
1148
2903
2884
755
-821
-600
-110
-169
-206
-128
-139
-130
-99
-109
-81
-39
-52
-61
-28
-2
17
52
73
76
121
200
216
189
239
354
426
462
525
598
647
664
637
561
425
228
28
-115
-193
-237
-284
-324
-306
-266
-278
-300
-278
-252
-247
-254
-263
-247
-216
-215
-227
-213
-196
-208
-230
-219
-180
-180
-215
-195
-147
-170
-211
-189
-164
-175
-176
-168
-167
-154
-138
-135
-133
-132
-144
-146
-119
-99
-125
-152
-118
-82
-115
-144
-103
-76
-98
-98
-77
-69
-49
-33
-43
-31
-2
-10
-50
-89
-86
-42
-53
-94
-57
-67
-228
-400
-341
569
2410
3228
1543
-597
-853
-177
-82
-222
-146
-107
-141
-137
-115
-73
-54
-78
-55
2
4
13
63
73
76
132
183
202
235
285
346
420
491
557
612
646
686
706
621
435
249
102
-45
-199
-284
-273
-270
-321
-327
-275
-268
-300
-292
-264
-267
-273
-248
-218
-220
-226
-193
-163
-180
-190
-173
-186
-208
-183
-151
-155
-163
-164
-160
-141
-140
-183
-202
-142
-94
-134
-166
-128
-109
-116
-84
-78
-138
-151
-92
-75
-114
-127
-98
-71
-71
-89
-91
-73
-65
-73
-76
-70
-68
-73
-70
-52
-44
-52
-36
5
23
14
9
-1
-44
-64
-42
-60
-89
-39
-49
-217
-419
-383
634
2674
3522
1678
-520
-728
-123
-141
-262
-145
-145
-202
-155
-113
-105
-95
-91
-77
-61
-58
-32
17
35
37
77
130
151
162
192
242
318
392
436
482
544
587
596
548
405
227
93
-20
-126
-189
-232
-272
-282
-274
-270
-252
-239
-253
-260
-227
-185
-191
-244
-254
-197
-165
-191
-206
-185
-162
-161
-172
-170
-154
-154
-163
-154
-144
-149
-148
-142
-151
-149
-121
-102
-114
-135
-143
-122
-90
-88
-109
-114
-106
-116
-139
-137
-95
-52
-51
-67
-75
-95
-106
-66
-30
-63
-101
-82
-58
-65
-67
-44
-19
-13
-10
17
41
18
-33
-59
-39
-13
-47
-85
-30
-25
-177
-343
-388
211
1976
3397
2324
-29
-830
-279
-116
-292
-203
-115
-163
-139
-100
-123
-110
-79
-102
-107
-44
-9
-14
30
89
81
81
145
172
157
232
369
430
444
513
607
647
626
579
485
312
125
-5
-104
-196
-252
-276
-298
-317
-318
-297
-282
-285
-269
-241
-251
-265
-243
-232
-251
-244
-227
-241
-237
-186
-160
-188
-200
-167
-150
-165
-166
-166
-177
-156
-137
-161
-153
-119
-138
-156
-124
-126
-148
-109
-76
-114
-136
-101
-83
-96
-97
-101
-119
-116
-95
-77
-51
-37
-55
-37
21
10
-45
-29
-4
-58
-91
-65
-81
-91
-24
-45
-202
-335
-326
343
1983
3006
1731
-358
-883
-306
-92
-161
-110
-105
-147
-110
-69
-88
-122
-89
3
20
-29
0
76
92
103
146
152
152
224
314
360
420
526
606
652
722
778
728
595
452
290
81
-105
-195
-247
-314
-353
-347
-340
-347
-377
-406
-365
-287
-272
-274
-244
-251
-272
-228
-195
-215
-204
-187
-231
-238
-156
-122
-184
-206
-153
-133
-166
-167
-143
-171
-212
-169
-91
-91
-133
-119
-80
-92
-124
-118
-106
-114
-95
-58
-73
-100
-72
-42
-55
-66
-63
-58
-30
-24
-62
-55
14
41
19
17
-4
-61
-47
2
-51
-110
-86
-132
-294
-453
-112
1493
3370
2941
451
-933
-482
-106
-247
-200
-108
-163
-141
-95
-120
-95
-42
-74
-117
-74
5
40
36
50
96
128
133
148
184
238
325
412
470
529
601
648
633
560
469
331
112
-62
-127
-232
-348
-306
-251
-358
-444
-419
-420
-407
-302
-251
-326
-361
-294
-269
-328
-352
-315
-263
-197
-171
-209
-206
-147
-127
-150
-176
-194
-183
-156
-135
-125
-136
-119
-63
-64
-106
-98
-108
-165
-168
-123
-109
-92
-44
-23
-48
-62
-43
-44
-69
-61
-52
-83
-73
-9
0
-45
-45
-22
-40
-39
11
16
-18
6
25
-2
41
81
-14
-44
31
-41
-116
-12
-42
-292
-460
-139
1335
3297
3211
831
-723
-333
79
-117
-125
-22
-67
-71
-71
-114
-100
-102
-137
-52
81
72
5
64
147
77
-12
78
234
258
218
297
467
560
580
613
633
633
638
582
424
193
-64
-207
-182
-176
-278
-354
-359
-359
-350
-319
-283
-268
-315
-396
-423
-419
-443
-434
-396
-407
-410
-375
-395
-435
-423
-457
-520
-455
-345
-353
-368
-280
-216
-249
-279
-235
-150
-108
-134
-131
-98
-145
-213
-168
-61
8
19
3
13
16
-29
-22
26
-41
-105
7
93
10
-20
90
152
91
18
7
17
-8
-34
-21
-17
-57
-136
-302
-226
915
2724
2985
1044
-676
-647
-141
-150
-180
-14
35
-33
-47
-8
20
-4
-78
-89
40
153
123
97
146
132
94
177
271
247
241
352
470
508
526
598
666
628
556
548
442
136
-108
-142
-189
-332
-366
-277
-264
-328
-342
-324
-320
-314
-334
-358
-309
-258
-282
-286
-231
-226
-277
-296
-275
-247
-216
-226
-273
-229
-124
-157
-273
-261
-177
-169
-187
-182
-196
-221
-224
-196
-145
-118
-131
-126
-111
-132
-129
-89
-100
-127
-83
-11
14
-39
-118
-115
-60
-67
-66
22
84
68
54
40
-6
-50
-85
-110
-63
57
71
-94
-230
-324
-247
942
3000
3303
1078
-709
-485
27
-134
-247
-136
-105
-128
-145
-174
-149
-60
-18
-66
-76
4
36
-10
-15
32
83
138
171
179
229
305
335
360
415
442
476
588
639
485
267
141
36
-101
-188
-245
-324
-331
-236
-201
-283
-318
-252
-230
-281
-279
-205
-155
-173
-219
-231
-209
-190
-179
-185
-195
-171
-159
-188
-182
-134
-126
-134
-120
-133
-164
-153
-126
-128
-134
-138
-143
-113
-67
-67
-89
-85
-87
-104
-94
-59
-65
-124
-141
-69
-20
-44
-43
-22
-57
-79
-29
1
-18
-4
21
-22
-72
-52
-48
-84
-40
-10
-158
-341
-438
-64
1512
3299
2833
484
-759
-359
-89
-246
-186
-125
-224
-191
-111
-158
-167
-98
-96
-106
-58
-50
-74
-36
13
15
-1
4
60
117
111
129
213
245
244
301
344
340
329
255
121
32
-44
-173
-255
-242
-216
-198
-188
-222
-253
-227
-182
-151
-133
-149
-168
-144
-119
-123
-105
-79
-103
-130
-98
-53
-59
-98
-116
-95
-74
-80
-88
-75
-67
-74
-72
-65
-72
-76
-66
-62
-64
-60
-58
-64
-60
-45
-45
-59
-59
-46
-45
-47
-35
-14
7
17
14
-4
-42
-69
-61
-64
-77
-47
-52
-143
-234
-257
188
1499
2560
1753
-63
-763
-361
-123
-173
-136
-109
-137
-113
-82
-83
-74
-59
-52
-37
-18
-7
1
15
47
81
98
113
145
180
205
239
287
329
361
385
400
397
356
260
132
14
-78
-148
-194
-219
-224
-215
-215
-231
-231
-210
-195
-190
-184
-177
-173
-170
-168
-165
-155
-140
-139
-150
-154
-147
-141
-138
-137
-138
-133
-122
-117
-121
-124
-122
-121
-122
-117
-107
-101
-103
-100
-89
-87
-99
-105
-95
-81
-73
-68
-62
-45
-21
-8
-11
-21
-44
-65
-62
-70
-91
-57
-46
-154
-289
-374
-39
1321
2767
2270
289
-690
-323
-81
-197
-165
-114
-163
-148
-102
-108
-107
-83
-65
-49
-38
-29
-10
13
28
42
66
93
113
135
166
206
250
289
317
339
358
366
347
277
159
39
-48
-108
-151
-176
-191
-199
-195
-186
-183
-180
-173
-163
-156
-152
-151
-151
-149
-142
-133
-131
-137
-137
-131
-129
-127
-123
-120
-118
-115
-112
-108
-104
-98
-93
-95
-97
-93
-86
-82
-82
-80
-76
-71
-65
-65
-68
-65
-56
-54
-57
-50
-40
-39
-35
-19
-1
10
14
13
-9
-45
-48
-33
-56
-61
-23
-78
-216
-322
-252
592
2219
2802
1288
-372
-506
-103
-137
-209
-142
-161
-176
-129
-125
-134
-108
-94
-91
-73
-55
-43
-27
-9
12
35
50
64
90
117
139
168
205
237
264
285
294
290
261
191
93
3
-64
-114
-142
-151
-160
-171
-169
-158
-152
-152
-149
-144
-141
-141
-138
-135
-134
-130
-124
-122
-129
-131
-119
-109
-111
-115
-113
-109
-107
-103
-102
-105
-104
-99
-96
-90
-87
-87
-82
-79
-86
-84
-66
-62
-73
-74
-63
-60
-67
-70
-68
-63
-56
-51
-42
-31
-25
-17
3
15
5
-21
-43
-44
-42
-65
-62
-26
-75
-193
-281
-200
597
2074
2559
1135
-415
-547
-133
-117
-184
-130
-134
-145
-110
-104
-106
-80
-62
-57
-45
-31
-15
7
26
39
57
80
99
116
138
171
209
244
271
288
298
309
315
278
191
88
-7
-86
-137
-161
-174
-191
-207
-210
-198
-183
-173
-164
-158
-154
-153
-153
-156
-155
-152
-158
-155
-126
-115
-144
-157
-135
-123
-128
-125
-117
-113
-112
-113
-108
-95
-91
-96
-96
-87
-83
-83
-80
-77
-77
-72
-61
-55
-57
-57
-51
-36
-11
4
-3
-23
-51
-62
-45
-56
-82
-47
-46
-163
-300
-359
135
1629
2811
1879
-84
-728
-266
-103
-201
-146
-127
-164
-123
-93
-109
-99
-74
-61
-46
-29
-16
-1
20
43
61
84
115
138
159
198
246
282
319
357
378
386
384
345
245
110
-6
-87
-149
-196
-217
-220
-221
-222
-221
-218
-209
-199
-192
-183
-177
-178
-175
-166
-161
-158
-154
-149
-145
-143
-140
-137
-135
-134
-126
-115
-119
-127
-118
-103
-102
-106
-100
-91
-89
-85
-74
-70
-73
-72
-75
-84
-70
-38
-39
-59
-51
-32
-30
-28
-23
-26
-30
-32
-34
-32
-28
-28
-36
-18
31
-8
-157
-304
-381
131
1732
3001
2024
-10
-643
-181
-99
-242
-143
-99
-194
-212
-158
-114
-99
-106
-82
-29
-6
-8
-4
-2
0
29
75
95
80
84
135
195
250
307
330
335
362
356
299
249
177
37
-97
-158
-172
-163
-154
-170
-190
-192
-183
-156
-141
-181
-201
-143
-122
-187
-201
-135
-130
-190
-179
-106
-91
-124
-140
-154
-164
-122
-81
-103
-122
-98
-116
-166
-143
-75
-74
-130
-153
-105
-51
-67
-108
-98
-92
-125
-103
-35
-44
-101
-95
-57
-63
-87
-79
-38
-16
-27
-17
11
2
-28
-50
-70
-56
-38
-79
-92
-52
-95
-244
-376
-16
1374
2762
2232
342
-567
-254
-75
-198
-172
-129
-194
-219
-172
-105
-63
-78
-101
-80
-41
-33
-56
-56
-11
21
32
86
137
131
146
190
189
193
241
260
254
265
258
218
159
56
-47
-79
-89
-135
-149
-98
-75
-120
-151
-123
-88
-82
-78
-88
-143
-170
-101
-31
-47
-85
-91
-92
-85
-58
-48
-86
-130
-113
-56
-41
-69
-72
-38
-20
-24
-18
-10
-34
-68
-64
-41
-41
-48
-36
-18
