# session 17
31
-4
88
114
-185
-532
-547
-513
-688
-859
-802
78
1971
2911
1318
-768
-1057
-504
-464
-543
-437
-424
-437
-372
-343
-333
-287
-253
-231
-190
-147
-103
-46
14
78
161
253
336
404
459
488
464
371
225
65
-73
-170
-231
-269
-287
-290
-288
-282
-271
-259
-252
-243
-231
-223
-215
-202
-191
-184
-175
-163
-154
-145
-131
-120
-117
-112
-103
-97
-94
-90
-87
-83
-76
-70
-68
-64
-58
-52
-46
-39
-39
-44
-40
-31
-30
-35
-38
-31
-14
0
0
-8
-10
-6
-3
-9
-19
-9
33
75
87
82
83
59
0
-24
1
25
57
51
-64
-206
-301
13
1354
2882
2543
575
-575
-327
-61
-144
-127
-83
-122
-105
-65
-64
-52
-47
-66
-40
43
99
103
112
162
229
285
343
412
467
491
492
456
351
202
67
-37
-129
-195
-222
-236
-259
-281
-303
-332
-340
-302
-262
-262
-272
-254
-229
-226
-231
-219
-198
-189
-191
-190
-192
-191
-168
-147
-158
-176
-170
-155
-149
-146
-145
-162
-182
-173
-152
-145
-132
-109
-105
-109
-103
-103
-101
-84
-91
-112
-88
-54
-61
-63
-38
-21
-3
9
-37
-85
-74
-73
-82
-39
-60
-200
-341
-337
342
1915
2814
1576
-314
-768
-290
-132
-183
-127
-115
-134
-91
-63
-71
-58
-21
21
56
82
111
153
205
264
332
412
492
551
586
607
593
506
351
177
23
-94
-172
-220
-253
-265
-258
-255
-257
-250
-242
-234
-217
-209
-219
-217
-200
-191
-191
-189
-185
-175
-158
-154
-162
-162
-163
-178
-185
-179
-181
-188
-183
-172
-166
-161
-153
-145
-137
-132
-130
-120
-101
-94
-101
-90
-72
-72
-74
-71
-67
-39
-3
-4
-8
-8
-42
-61
-44
-52
-49
-45
-153
-331
-460
-97
1413
3085
2663
486
-714
-368
-73
-226
-247
-174
-170
-140
-99
-88
-75
-65
-47
-15
-1
25
105
170
177
208
296
370
417
478
523
509
450
353
211
56
-58
-125
-171
-212
-241
-245
-236
-232
-229
-215
-203
-204
-204
-198
-194
-189
-181
-178
-178
-177
-177
-177
-173
-168
-167
-162
-156
-155
-155
-150
-147
-146
-142
-132
-127
-129
-129
-124
-116
-107
-109
-124
-122
-104
-107
-118
-106
-96
-105
-106
-96
-88
-72
-46
-23
-18
-46
-77
-71
-73
-97
-66
-47
-154
-303
-403
-95
1247
2767
2386
396
-698
-383
-108
-202
-172
-113
-144
-123
-86
-90
-68
-29
-11
8
38
72
119
172
226
289
356
423
495
557
589
592
553
444
285
127
-4
-103
-160
-185
-204
-221
-218
-203
-198
-200
-197
-186
-167
-156
-165
-166
-149
-140
-140
-132
-126
-119
-106
-106
-120
-121
-119
-148
-182
-189
-180
-169
-163
-180
-205
-205
-207
-228
-241
-252
-269
-253
-205
-169
-150
-137
-120
-99
-91
-91
-86
-104
-127
-114
-113
-133
-104
-106
-220
-355
-352
268
1693
2532
1428
-306
-725
-269
-121
-167
-92
-68
-94
-60
-32
-39
-33
-9
27
75
116
148
189
245
310
382
469
559
628
670
694
678
580
412
225
56
-75
-155
-203
-241
-264
-265
-261
-262
-260
-254
-249
-250
-250
-241
-227
-221
-224
-218
-199
-183
-178
-177
-177
-180
-182
-181
-182
-187
-189
-190
-190
-182
-171
-165
-156
-142
-138
-138
-129
-136
-160
-163
-141
-128
-121
-104
-88
-79
-48
2
18
0
-18
-42
-62
-55
-66
-72
-20
-45
-208
-388
-401
394
2174
3076
1615
-330
-620
-132
-120
-201
-103
-113
-149
-93
-71
-74
-44
-27
-19
15
48
72
114
169
224
290
368
439
503
563
600
587
509
374
207
44
-81
-159
-206
-231
-238
-243
-253
-251
-241
-236
-230
-223
-223
-221
-213
-204
-196
-188
-185
-181
-171
-162
-160
-161
-159
-154
-153
-153
-152
-148
-143
-141
-139
-130
-125
-128
-124
-113
-111
-113
-103
-99
-104
-101
-90
-88
-91
-89
-89
-92
-92
-88
-82
-72
-64
-65
-63
-44
-20
-10
-18
-48
-68
-56
-68
-85
-35
-47
-205
-367
-427
120
1784
3140
2185
59
-683
-247
-125
-255
-189
-154
-192
-155
-120
-122
-96
-65
-52
-33
-4
26
61
99
143
195
248
304
361
408
437
440
404
328
222
105
-2
-79
-127
-158
-178
-181
-177
-181
-182
-168
-154
-153
-154
-150
-148
-144
-138
-138
-143
-143
-143
-141
-133
-130
-132
-126
-119
-120
-120
-116
-117
-116
-105
-95
-92
-97
-99
-93
-86
-83
-83
-80
-77
-75
-70
-64
-65
-71
-66
-56
-57
-56
-47
-48
-51
-39
-34
-41
-29
-10
-14
-16
-7
-29
-85
-117
-104
-104
-121
-88
-72
-168
-310
-413
-47
1362
2791
2242
242
-755
-412
-134
-191
-150
-105
-134
-111
-77
-72
-49
-25
-13
15
46
76
120
164
200
253
324
396
464
522
557
565
530
437
296
137
-14
-125
-188
-228
-261
-274
-274
-274
-271
-262
-255
-250
-244
-245
-246
-238
-224
-219
-222
-221
-209
-197
-197
-202
-201
-194
-185
-181
-182
-180
-174
-168
-163
-155
-146
-142
-141
-138
-131
-125
-121
-114
-105
-103
-106
-100
-89
-87
-86
-77
-69
-64
-53
-30
-9
5
4
-27
-61
-54
-51
-73
-39
-14
-126
-299
-432
-122
1295
2904
2519
443
-713
-398
-106
-198
-170
-108
-136
-112
-69
-72
-59
-29
-13
11
44
71
103
149
197
246
302
365
430
484
516
522
496
419
289
141
17
-72
-135
-176
-196
-203
-206
-206
-204
-200
-195
-189
-184
-179
-174
-169
-165
-161
-157
-154
-153
-150
-146
-142
-139
-138
-136
-136
-136
-134
-132
-130
-126
-119
-116
-117
-118
-116
-113
-111
-107
-107
-110
-110
-107
-104
-102
-99
-97
-95
-92
-91
-90
-85
-77
-73
-72
-58
-31
-10
-5
-25
-62
-73
-64
-87
-81
-35
-99
-261
-399
-316
653
2408
2935
1258
-456
-550
-142
-190
-245
-162
-177
-187
-135
-124
-123
-92
-71
-56
-25
4
29
63
105
151
203
258
316
371
412
434
431
391
304
188
69
-30
-100
-146
-175
-191
-197
-196
-191
-184
-178
-172
-167
-162
-158
-155
-155
-153
-149
-144
-141
-138
-135
-133
-129
-125
-121
-118
-114
-113
-114
-114
-114
-111
-106
-102
-102
-102
-99
-97
-95
-88
-84
-87
-88
-82
-76
-75
-74
-72
-73
-70
-60
-55
-57
-50
-30
-10
3
-12
-50
-64
-56
-78
-71
-32
-104
-261
-396
-295
708
2417
2813
1102
-502
-526
-139
-196
-238
-159
-179
-188
-140
-130
-123
-92
-76
-60
-28
-1
24
60
101
146
198
253
308
359
396
415
412
373
286
171
58
-35
-103
-146
-171
-185
-189
-187
-184
-181
-173
-165
-162
-162
-159
-153
-149
-149
-149
-146
-145
-146
-143
-138
-137
-136
-132
-129
-127
-125
-123
-123
-121
-117
-115
-112
-108
-103
-101
-99
-95
-91
-88
-87
-87
-86
-80
-71
-68
-69
-58
-33
-10
2
-8
-46
-65
-53
-67
-70
-29
-68
-206
-339
-357
315
1900
2778
1566
-191
-574
-200
-161
-227
-158
-158
-182
-140
-120
-119
-92
-71
-61
-38
-9
19
54
95
140
192
245
297
346
387
414
416
378
300
198
89
-9
-79
-119
-144
-163
-172
-172
-170
-166
-161
-158
-155
-151
-150
-146
-136
-133
-140
-140
-130
-125
-129
-128
-120
-115
-115
-117
-124
-127
-120
-110
-110
-110
-103
-96
-94
-93
-87
-80
-83
-89
-83
-72
-80
-96
-96
-81
-68
-67
-74
-75
-67
-61
-64
-65
-61
-53
-39
-21
-24
-64
-90
-64
-60
-93
-72
-59
-155
-288
-378
-27
1288
2571
2012
187
-692
-395
-165
-210
-167
-126
-149
-132
-101
-88
-62
-36
-22
-4
21
62
109
140
172
224
283
339
394
437
463
476
460
397
293
164
34
-71
-130
-157
-185
-214
-224
-216
-205
-194
-188
-187
-175
-157
-160
-175
-169
-151
-148
-154
-155
-149
-142
-141
-145
-143
-136
-138
-142
-138
-131
-125
-118
-114
-116
-118
-111
-101
-99
-101
-99
-93
-90
-87
-84
-81
-80
-83
-82
-70
-52
-41
-43
-44
-28
-2
13
7
-26
-57
-59
-67
-75
-33
-38
-165
-318
-415
29
1540
2865
2076
65
-750
-358
-147
-216
-161
-124
-154
-127
-96
-91
-69
-46
-34
-10
21
51
88
131
179
233
292
354
419
474
507
518
494
414
284
136
4
-97
-165
-205
-229
-245
-255
-260
-256
-247
-242
-237
-226
-213
-208
-204
-195
-188
-184
-176
-168
-166
-162
-156
-153
-154
-153
-152
-150
-147
-141
-135
-134
-134
-132
-128
-128
-128
-123
-117
-117
-115
-108
-101
-99
-96
-91
-86
-83
-80
-75
-71
-67
-62
-59
-60
-59
-48
-36
-34
-32
-16
9
23
20
-8
-37
-27
-23
-49
-22
-3
-119
-282
-390
-78
1323
2948
2598
519
-658
-356
-86
-199
-172
-111
-148
-126
-83
-88
-72
-40
-26
-4
27
49
76
117
160
206
260
320
378
431
471
493
489
446
356
230
100
-10
-88
-140
-172
-188
-193
-195
-196
-191
-185
-180
-176
-173
-170
-164
-161
-162
-161
-156
-154
-154
-152
-149
-147
-144
-143
-143
-142
-141
-140
-139
-136
-133
-131
-131
-129
-125
-124
-123
-122
-121
-118
-116
-115
-113
-110
-109
-107
-103
-101
-101
-99
-96
-95
-94
-92
-91
-91
-88
-85
-82
-80
-77
-76
-73
-70
-68
-64
-58
-49
-43
-43
-38
-17
6
15
0
-35
-48
-35
-52
-59
-14
-53
-204
-340
-323
420
2071
2945
1647
-186
-568
-172
-141
-218
-145
-142
-166
-123
-105
-107
-78
-54
-39
-14
9
28
64
109
148
186
235
293
348
391
419
432
428
395
319
211
102
12
-57
-101
-125
-141
-153
-156
-153
-147
-145
-143
-133
-119
-120
-127
-122
-114
-114
-112
-107
-107
-104
-96
-96
-99
-97
-99
-104
-98
-89
-86
-83
-79
-83
-84
-77
-74
-79
-74
-61
-60
-67
-66
-58
-52
-51
-56
-61
-60
-55
-51
-45
-42
-44
-41
-32
-29
-35
-42
-39
-28
-27
-32
-26
-19
-21
-32
-48
-61
-58
-47
-44
-47
-37
-15
-7
-21
-34
-40
-54
-67
-60
-43
-41
-50
-59
-65
-62
-54
-52
-46
-21
-9
-29
-38
-52
-111
-145
-120
-108
-95
-59
-109
-242
-359
-256
649
2179
2541
976
-561
-627
-195
-153
-179
-115
-119
-117
-68
-54
-54
-41
-37
-28
3
39
77
117
158
202
252
305
357
411
464
500
509
482
411
297
164
38
-66
-140
-182
-203
-218
-225
-221
-210
-201
-192
-181
-168
-159
-159
-163
-159
-144
-135
-138
-140
-135
-131
-129
-130
-132
-131
-128
-125
-124
-127
-127
-122
-118
-114
-108
-105
-107
-107
-105
-103
-94
-85
-87
-94
-95
-89
-85
-82
-80
-79
-80
-81
-79
-76
-72
-68
-66
-67
-70
-69
-66
-65
-63
-57
-49
-45
-46
-39
-16
9
15
14
14
-13
-50
-45
-41
-63
-36
-19
-134
-293
-395
-62
1327
2879
2495
486
-642
-374
-127
-219
-187
-136
-172
-147
-105
-108
-92
-62
-52
-35
-6
20
49
83
122
169
222
277
337
395
439
468
478
457
391
283
152
29
-66
-131
-175
-201
-212
-214
-213
-211
-208
-203
-200
-199
-196
-189
-182
-178
-176
-173
-169
-163
-155
-150
-147
-143
-140
-137
-132
-128
-125
-123
-120
-119
-118
-115
-110
-106
-104
-103
-99
-94
-94
-94
-92
-89
-87
-83
-80
-79
-76
-71
-70
-72
-72
-70
-67
-65
-62
-59
-59
-60
-58
-54
-51
-51
-54
-55
-46
-35
-31
-31
-26
-14
3
19
27
10
-20
-26
-34
-55
-22
-1
-120
-279
-371
-125
1087
2684
2625
764
-545
-410
-121
-203
-204
-145
-173
-162
-123
-123
-103
-68
-65
-62
-31
0
25
62
107
147
190
247
309
365
411
445
466
466
423
325
196
68
-38
-114
-160
-188
-212
-222
-210
-198
-204
-210
-200
-184
-173
-173
-175
-165
-149
-148
-151
-143
-135
-128
-120
-121
-123
-112
-99
-96
-96
-95
-91
-80
-76
-80
-77
-74
-83
-86
-74
-66
-68
-69
-68
-67
-65
-65
-64
-59
-58
-66
-69
-66
-73
-88
-94
-95
-110
-132
-136
-119
-100
-93
-95
-90
-83
-84
-86
-73
-54
-42
-27
-22
-50
-73
-61
-75
-99
-58
-60
-184
-322
-364
179
1712
2883
1944
-10
-691
-279
-108
-182
-123
-93
-123
-92
-60
-57
-36
-14
-2
20
45
71
106
145
184
231
286
347
418
487
538
567
575
545
457
319
166
33
-71
-149
-198
-223
-235
-238
-239
-242
-241
-236
-233
-233
-232
-226
-217
-211
-211
-213
-211
-202
-195
-194
-192
-187
-185
-184
-180
-175
-175
-178
-178
-176
-174
-174
-170
-164
-160
-158
-156
-153
-151
-150
-148
-145
-143
-143
-141
-136
-135
-136
-134
-128
-126
-125
-122
-119
-115
-111
-109
-108
-102
-99
-98
-93
-80
-69
-66
-64
-50
-27
-8
-5
-32
-61
-52
-53
-73
-37
-24
-149
-310
-400
-24
1420
2947
2474
454
-606
-317
-100
-204
-167
-115
-147
-122
-84
-83
-60
-30
-16
6
37
63
96
137
178
223
277
336
400
465
522
567
591
583
533
432
302
177
77
8
-38
-66
-80
-82
-78
-74
-69
-61
-52
-42
-35
-33
-30
-25
-24
-26
-23
-17
-14
-14
-12
-9
-4
-2
-1
2
7
4
-3
-4
-1
-3
-7
-6
-5
-11
-12
-7
-11
-24
-29
-26
-28
-34
-37
-40
-49
-54
-53
-56
-63
-72
-82
-86
-82
-84
-100
-110
-105
-108
-125
-133
-130
-134
-146
-155
-158
-162
-170
-181
-188
-194
-201
-210
-214
-217
-220
-225
-231
-234
-240
-255
-261
-248
-245
-263
-269
-262
-264
-257
-227
-216
-231
-228
-206
-182
-157
-167
-219
-221
-165
-158
-187
-188
-247
-402
-518
-199
1051
2537
2393
560
-735
-597
-238
-248
-237
-189
-221
-201
-141
-139
-137
-99
-66
-48
-26
1
31
69
121
184
241
296
370
460
544
612
669
700
672
576
438
285
139
31
-27
-56
-70
-69
-54
-35
-13
21
56
75
85
105
