# session 40
-41
-58
-33
91
136
-12
-126
-100
-87
-106
-93
-82
-94
-98
-95
-87
-82
-94
-105
-100
-98
-104
-102
-97
-102
-105
-94
-82
-82
-85
-82
-78
-74
-73
-77
-78
-72
-69
-67
-55
-46
-45
-35
-11
1
-12
-28
-39
-62
-71
-68
-86
-70
-25
-112
-293
-425
-329
724
2692
3319
1406
-594
-683
-142
-158
-219
-123
-149
-173
-114
-113
-125
-88
-64
-56
-38
-28
-14
20
47
59
89
139
176
201
247
323
402
469
527
578
614
628
588
465
281
94
-66
-190
-266
-301
-318
-326
-331
-330
-319
-308
-311
-313
-298
-276
-269
-280
-285
-266
-244
-247
-249
-239
-245
-253
-233
-219
-231
-228
-204
-200
-207
-201
-194
-188
-171
-157
-163
-180
-179
-153
-151
-195
-204
-144
-104
-125
-140
-118
-99
-97
-77
-44
-45
-65
-62
-76
-118
-113
-88
-96
-77
-85
-209
-347
-414
33
1660
3319
2689
386
-733
-340
-96
-231
-197
-143
-168
-122
-80
-86
-83
-95
-84
-6
22
-17
-4
45
68
99
145
167
195
261
340
390
425
497
571
563
542
591
588
457
304
162
-25
-175
-213
-225
-271
-294
-279
-262
-254
-257
-257
-258
-285
-290
-232
-195
-238
-276
-261
-235
-210
-200
-228
-233
-174
-143
-179
-197
-174
-164
-176
-187
-178
-143
-115
-122
-125
-102
-99
-131
-146
-130
-114
-104
-93
-89
-83
-56
-20
-5
-14
-30
-50
-88
-100
-76
-104
-139
-77
-71
-221
-368
-367
300
2007
3178
1987
-168
-822
-336
-153
-218
-159
-151
-187
-152
-127
-127
-112
-101
-78
-42
-28
-21
8
40
65
96
129
157
192
242
290
340
408
468
506
552
596
584
505
371
194
29
-91
-184
-245
-264
-279
-294
-277
-256
-260
-255
-235
-228
-228
-224
-223
-220
-211
-215
-224
-209
-191
-197
-199
-185
-179
-181
-176
-173
-175
-169
-160
-154
-145
-145
-154
-143
-119
-120
-131
-122
-122
-132
-120
-104
-118
-119
-81
-64
-82
-77
-44
-31
-34
-22
-21
-50
-83
-90
-76
-84
-107
-74
-70
-191
-327
-421
-102
1361
3071
2696
461
-846
-515
-135
-197
-188
-142
-166
-135
-106
-120
-88
-46
-53
-51
-17
1
5
36
83
105
122
169
213
240
293
362
418
482
564
625
653
656
607
481
303
123
-35
-156
-234
-279
-299
-299
-298
-305
-305
-297
-299
-295
-269
-254
-265
-268
-252
-244
-249
-252
-245
-232
-227
-230
-226
-214
-215
-223
-216
-199
-194
-188
-174
-173
-182
-171
-158
-159
-153
-133
-122
-112
-94
-75
-63
-70
-98
-128
-137
-116
-109
-144
-131
-81
-157
-314
-434
-329
740
2658
3159
1193
-740
-763
-187
-172
-227
-132
-141
-165
-118
-93
-84
-65
-53
-30
6
25
37
63
95
121
149
188
226
269
334
409
468
519
577
637
674
671
618
492
293
94
-44
-143
-232
-286
-297
-298
-302
-305
-303
-295
-286
-278
-265
-252
-248
-248
-244
-242
-240
-233
-225
-220
-217
-213
-211
-206
-195
-185
-180
-178
-183
-187
-174
-152
-148
-153
-147
-140
-140
-135
-128
-134
-143
-131
-110
-102
-102
-95
-72
-35
-18
-39
-58
-51
-64
-92
-83
-84
-114
-80
-67
-202
-359
-440
-62
1492
3234
2765
442
-818
-432
-100
-215
-191
-134
-184
-161
-104
-105
-101
-81
-68
-50
-36
-20
13
34
43
83
133
158
184
233
280
325
385
440
481
526
563
562
520
429
277
106
-30
-125
-195
-236
-254
-262
-260
-252
-259
-271
-254
-220
-218
-232
-221
-208
-214
-217
-215
-218
-212
-203
-207
-204
-184
-175
-178
-171
-164
-160
-153
-158
-166
-150
-131
-135
-137
-131
-132
-131
-119
-109
-111
-122
-131
-118
-91
-92
-105
-79
-31
-11
-22
-40
-56
-80
-107
-103
-86
-112
-106
-45
-108
-289
-420
-347
597
2492
3252
1499
-549
-744
-177
-153
-240
-138
-139
-186
-150
-118
-106
-87
-80
-66
-38
-24
-12
22
58
76
92
127
173
215
253
302
369
440
496
540
584
613
597
515
359
173
16
-104
-196
-243
-269
-303
-310
-277
-261
-277
-274
-254
-249
-258
-253
-234
-230
-240
-232
-212
-211
-220
-215
-203
-195
-185
-182
-192
-193
-179
-171
-167
-151
-143
-159
-168
-150
-138
-140
-135
-124
-130
-141
-126
-97
-86
-82
-63
-39
-29
-41
-62
-81
-104
-115
-111
-121
-105
-58
-116
-265
-386
-325
558
2329
3047
1414
-551
-805
-254
-143
-188
-115
-117
-140
-105
-91
-86
-63
-49
-28
8
26
38
65
88
111
151
188
213
261
331
386
431
500
581
636
666
685
659
540
346
149
-7
-125
-220
-287
-314
-317
-323
-326
-315
-305
-304
-299
-283
-266
-259
-263
-263
-251
-240
-239
-239
-237
-237
-232
-220
-213
-208
-199
-193
-195
-188
-174
-170
-173
-170
-164
-161
-149
-134
-136
-149
-144
-126
-121
-121
-104
-91
-93
-83
-51
-26
-25
-36
-43
-55
-79
-81
-68
-97
-102
-44
-99
-279
-428
-399
498
2466
3433
1770
-420
-761
-196
-134
-220
-133
-136
-166
-119
-107
-116
-87
-66
-57
-30
-6
6
27
60
92
119
143
171
215
275
335
386
437
493
544
582
595
571
495
356
174
7
-104
-175
-235
-271
-278
-286
-293
-276
-258
-263
-271
-258
-241
-237
-236
-232
-231
-229
-221
-209
-203
-208
-209
-198
-191
-197
-197
-184
-177
-172
-165
-164
-161
-142
-132
-141
-139
-125
-124
-127
-118
-112
-118
-114
-99
-97
-106
-102
-93
-98
-104
-87
-67
-64
-64
-45
-18
-2
-8
-21
-39
-76
-93
-57
-54
-90
-53
-48
-204
-368
-424
56
1727
3365
2607
217
-838
-341
-65
-200
-160
-116
-167
-133
-93
-109
-92
-60
-55
-39
-11
4
18
43
71
99
124
154
193
235
280
337
396
446
492
533
561
570
534
425
264
103
-35
-142
-213
-258
-280
-278
-271
-275
-274
-264
-257
-252
-247
-251
-252
-238
-228
-227
-220
-210
-210
-213
-211
-206
-203
-195
-187
-187
-191
-186
-178
-176
-167
-150
-143
-145
-142
-139
-139
-135
-130
-130
-130
-124
-112
-107
-107
-104
-101
-101
-96
-89
-87
-84
-72
-70
-72
-54
-20
2
3
-8
-18
-27
-53
-70
-54
-66
-88
-45
-59
-209
-362
-398
229
1994
3340
2239
-13
-750
-241
-78
-206
-147
-112
-151
-119
-94
-102
-77
-48
-44
-30
-4
13
24
45
79
114
142
167
196
234
287
340
386
442
499
525
532
548
534
427
251
85
-39
-139
-215
-250
-256
-265
-277
-275
-262
-253
-253
-258
-257
-242
-230
-237
-251
-250
-236
-227
-229
-234
-227
-214
-218
-226
-211
-194
-204
-210
-197
-187
-182
-179
-180
-172
-153
-150
-156
-143
-124
-126
-133
-123
-105
-96
-100
-108
-101
-79
-70
-75
-65
-37
-9
1
-14
-40
-62
-81
-80
-73
-99
-94
-43
-104
-265
-390
-296
685
2515
3122
1343
-583
-717
-171
-134
-190
-100
-110
-142
-96
-75
-79
-61
-43
-26
0
20
33
55
81
95
112
153
200
232
272
328
383
431
479
525
560
573
551
476
331
151
2
-103
-185
-239
-262
-271
-274
-273
-272
-266
-257
-252
-244
-234
-234
-235
-227
-222
-221
-215
-208
-204
-200
-198
-196
-190
-184
-184
-182
-172
-167
-166
-155
-140
-142
-145
-132
-121
-126
-130
-118
-108
-109
-108
-101
-97
-93
-85
-82
-85
-84
-79
-76
-64
-44
-30
-13
10
11
-13
-37
-61
-63
-44
-68
-87
-36
-69
-234
-370
-352
374
2128
3209
1892
-226
-758
-256
-132
-220
-151
-138
-166
-125
-109
-122
-107
-94
-79
-38
-11
-9
9
44
68
86
117
158
196
233
281
353
426
471
517
581
619
606
547
418
226
52
-66
-167
-257
-303
-302
-288
-290
-306
-309
-292
-272
-262
-261
-259
-251
-243
-244
-248
-249
-241
-228
-218
-218
-219
-208
-200
-206
-202
-181
-182
-198
-187
-163
-159
-161
-155
-153
-148
-138
-134
-133
-126
-127
-135
-121
-94
-85
-81
-57
-29
-18
-22
-39
-71
-104
-95
-66
-88
-108
-58
-82
-228
-359
-379
287
2041
3210
1917
-298
-885
-310
-114
-195
-130
-112
-144
-104
-79
-86
-63
-39
-29
-4
21
27
41
81
125
145
161
203
256
301
350
409
472
540
602
645
668
658
574
407
208
32
-102
-197
-256
-289
-305
-306
-301
-301
-300
-287
-269
-259
-260
-262
-256
-245
-238
-235
-232
-230
-229
-221
-213
-211
-206
-201
-203
-203
-192
-184
-185
-177
-160
-154
-160
-160
-153
-146
-140
-135
-125
-95
-64
-67
-90
-97
-98
-101
-93
-88
-98
-88
-52
-29
-28
-33
-41
-60
-92
-104
-87
-100
-107
-53
-95
-280
-448
-450
350
2289
3456
1975
-306
-785
-209
-128
-242
-152
-149
-192
-143
-125
-132
-99
-81
-74
-37
-11
-9
18
60
87
115
159
201
239
290
357
424
483
533
572
604
622
606
533
395
213
41
-83
-169
-233
-269
-278
-280
-283
-284
-278
-268
-266
-263
-253
-248
-246
-235
-227
-233
-231
-216
-208
-209
-206
-201
-197
-190
-182
-179
-179
-171
-161
-166
-171
-159
-141
-139
-141
-132
-125
-130
-128
-114
-111
-121
-118
-99
-97
-108
-107
-104
-108
-96
-67
-59
-66
-54
-26
-9
-5
-10
-27
-56
-84
-76
-52
-72
-82
-38
-90
-260
-413
-391
476
2373
3318
1747
-355
-701
-169
-126
-229
-142
-134
-168
-125
-105
-109
-86
-68
-61
-42
-19
5
30
50
72
103
130
154
191
240
290
337
385
436
490
540
568
559
498
375
207
47
-70
-149
-205
-238
-248
-247
-251
-258
-256
-245
-233
-225
-226
-229
-228
-224
-216
-209
-207
-204
-201
-200
-192
-185
-189
-188
-171
-159
-167
-175
-167
-158
-155
-146
-137
-142
-145
-135
-130
-130
-124
-121
-122
-119
-116
-113
-103
-95
-99
-107
-108
-97
-81
-74
-68
-44
-16
-12
-24
-34
-47
-71
-80
-62
-70
-98
-63
-54
-184
-339
-414
-22
1482
3109
2613
400
-771
-389
-76
-191
-174
-115
-152
-134
-98
-107
-87
-52
-51
-48
-22
-1
7
27
62
95
117
145
182
219
263
319
377
430
482
529
560
569
537
439
279
110
-24
-120
-194
-241
-257
-263
-272
-268
-255
-254
-254
-240
-231
-232
-234
-233
-227
-216
-209
-210
-204
-188
-178
-180
-182
-173
-164
-167
-171
-166
-157
-152
-145
-138
-135
-134
-134
-136
-136
-128
-115
-111
-114
-111
-102
-100
-105
-102
-94
-96
-98
-85
-72
-71
-71
-53
-28
-17
-13
-7
-16
-50
-82
-80
-60
-78
-102
-65
-65
-164
-282
-377
12
1469
2850
2181
152
-810
-456
-149
-166
-132
-106
-134
-109
-72
-72
-71
-52
-21
7
14
26
60
88
101
121
149
182
230
283
330
389
458
513
566
625
660
658
612
487
290
103
-28
-129
-220
-276
-293
-297
-308
-312
-299
-288
-283
-273
-263
-260
-253
-244
-244
-238
-231
-238
-242
-231
-222
-220
-214
-211
-213
-207
-197
-198
-201
-195
-191
-191
-182
-170
-168
-170
-161
-153
-155
-151
-135
-126
-124
-111
-84
-58
-43
-50
-73
-93
-110
-121
-107
-102
-112
-82
-82
-183
-307
-397
-38
1383
2855
2332
289
-794
-472
-137
-164
-146
-108
-127
-111
-87
-90
-80
-53
-26
-8
4
33
72
92
104
127
156
193
237
276
322
379
421
464
529
574
579
569
527
407
226
56
-57
-131
-204
-260
-271
-258
-266
-289
-289
-265
-249
-243
-237
-238
-240
-226
-206
-195
-192
-192
-192
-183
-177
-188
-192
-170
-152
-158
-161
-150
-144
-139
-131
-145
-165
-155
-129
-120
-114
-98
-89
-94
-105
-102
-83
-74
-87
-91
-78
-70
-72
-57
-27
-11
-20
-41
-59
-73
-87
-79
-59
-77
-84
-51
-103
-247
-381
-352
480
2208
2991
1528
-342
-656
-192
-117
-186
-125
-115
-130
-105
-106
-99
-54
-39
-48
-24
14
28
42
65
82
97
116
142
191
238
256
288
366
440
476
495
510
505
452
319
148
16
-77
-172
-240
-247
-248
-281
-298
-277
-252
-242
-238
-227
-210
-198
-195
-183
-162
-165
-186
-176
-142
-146
-177
-174
-145
-143
-161
-167
-159
-150
-144
-142
-142
-141
-142
-144
-137
-124
-120
-117
-105
-107
-123
-125
-108
-97
-94
-82
-63
-51
-47
-51
-73
-112
-124
-91
-88
-122
-95
-72
-172
-308
-409
-172
1067
2654
2536
653
-646
-501
-167
-192
-185
-136
-160
-152
-119
-118
-102
-79
-78
-68
-38
-16
-1
14
30
58
96
126
150
189
243
293
339
387
433
477
517
534
499
399
257
109
-25
-144
-225
-253
-255
-264
-279
-282
-270
-251
-241
-240
-233
-222
-220
-219
-206
-191
-179
-175
-178
-181
-172
-161
-162
-167
-167
-167
-152
-124
-109
-117
-121
-109
-102
-110
-119
-112
-99
-96
-105
-116
-109
-77
-52
-45
-33
-16
-11
-16
-21
-42
-82
-98
-83
-97
-96
-38
-66
-212
-347
-371
289
1975
3064
1863
-169
-742
-287
-137
-200
-135
-115
-135
-105
-96
-98
-63
-46
-54
-33
-1
10
30
73
96
101
128
181
234
285
333
378
439
505
554
601
643
630
538
390
214
41
-94
-182
-237
-277
-301
-302
-287
-287
-302
-300
-287
-283
-272
-249
-236
-231
-227
-233
-239
-237
-238
-246
-249
-239
-225
-223
-229
-215
-181
-175
-207
-220
-195
-191
-231
-235
-163
-104
-109
-109
-78
-74
-118
-169
-182
-171
-191
-203
-144
-144
-274
-341
-368
-257
806
2551
2772
856
-783
-755
-278
-230
-245
-176
-172
-197
-212
-208
-166
-132
-107
-57
-34
-39
11
57
12
-11
59
144
238
330
349
337
362
399
478
594
629
566
494
396
221
34
-85
-157
-253
-340
-337
-293
-288
-287
-262
-264
-298
-285
-214
-172
-178
-171
-138
-109
-106
-143
-161
-103
-59
-88
-86
-35
-38
-84
-92
-48
34
74
3
-34
57
81
-4
30
163
187
151
202
292
288
193
161
249
311
260
216
286
384
316
39
