# session 3
-24
-24
-35
139
339
223
-48
-169
-211
-275
-305
-269
-203
-209
-307
-332
-244
-191
-174
-135
-153
-213
-207
-181
-210
-221
-159
-90
-65
-71
-65
-19
40
55
38
26
27
39
56
93
191
262
191
1
-243
-79
1230
2871
2732
913
-268
-156
75
64
97
56
-62
-61
-16
-36
-64
-81
-89
-60
-29
-22
14
90
151
179
201
213
194
166
155
125
52
-17
-84
-214
-388
-516
-595
-666
-728
-765
-761
-729
-711
-689
-627
-557
-502
-428
-347
-288
-254
-253
-250
-205
-182
-210
-196
-124
-84
-94
-92
-59
-21
-12
-56
-107
-113
-147
-214
-194
-178
-306
-462
-544
-131
1366
2805
2155
213
-548
-142
9
-93
-11
39
-6
22
102
146
102
25
41
130
180
203
229
227
230
284
328
320
308
334
378
410
423
437
447
407
308
185
59
-51
-123
-179
-230
-231
-208
-222
-239
-241
-255
-233
-174
-186
-226
-200
-186
-207
-187
-193
-268
-263
-163
-127
-153
-114
-32
-27
-78
-60
-5
-31
-53
11
-19
-188
-352
-431
94
1580
2541
1457
-272
-660
-264
-211
-270
-186
-175
-195
-159
-143
-128
-92
-86
-86
-48
-9
12
42
83
101
86
74
120
222
325
414
500
521
459
414
387
270
112
0
-120
-248
-299
-286
-263
-260
-299
-337
-338
-366
-410
-363
-259
-220
-231
-232
-243
-261
-251
-229
-220
-218
-233
-266
-264
-242
-283
-344
-364
-404
-405
-303
-325
-495
-611
-780
-437
1354
3060
2166
-119
-904
-464
-396
-542
-453
-408
-428
-370
-335
-348
-343
-353
-393
-415
-393
-340
-282
-183
49
427
900
1418
1779
1731
1382
1064
882
754
604
378
183
159
201
157
60
-44
-147
-187
-169
-175
-208
-217
-204
-195
-192
-193
-206
-226
-244
-261
-270
-260
-247
-262
-282
-265
-249
-277
-310
-321
-342
-361
-330
-291
-329
-361
-297
-305
-441
-549
-656
-247
1434
2940
2013
-130
-794
-309
-184
-259
-172
-169
-188
-110
-71
-77
-71
-63
-37
-22
-40
-27
28
74
141
242
296
303
348
432
501
563
629
659
614
484
314
188
117
46
-4
12
31
7
-4
15
17
32
133
274
362
420
465
428
352
337
325
290
300
327
317
305
285
259
269
265
217
204
209
185
205
202
47
-201
-472
-348
790
1872
902
-1310
-2191
-1726
-1490
-1579
-1506
-1405
-1326
-1232
-1221
-1202
-1136
-1149
-1127
-916
-660
-488
-386
-415
-573
-691
-707
-670
-535
-288
-46
133
277
385
435
415
317
207
160
139
89
46
48
74
90
99
108
104
89
98
124
124
113
140
203
249
228
174
157
177
205
235
239
214
210
236
275
334
355
268
178
194
174
72
16
8
445
1775
2789
1910
194
-319
193
540
536
430
316
252
182
73
4
-24
-35
-21
-25
-56
-54
-27
-11
9
33
63
121
187
256
349
407
376
332
310
239
96
-80
-240
-332
-356
-361
-359
-353
-356
-352
-333
-324
-304
-241
-188
-211
-256
-222
-133
-82
-61
-19
17
23
38
76
101
102
90
61
24
8
-10
-51
-34
-4
-133
-333
-475
-509
262
2061
2890
1303
-694
-1055
-691
-733
-810
-725
-771
-840
-717
-524
-495
-680
-896
-968
-907
-755
-515
-281
-147
-54
85
233
322
369
416
475
538
570
519
412
319
227
106
6
-54
-96
-93
-75
-148
-275
-322
-296
-271
-247
-211
-177
-141
-100
-84
-109
-141
-141
-116
-75
-4
74
131
207
296
298
216
184
199
154
116
149
96
-107
-392
-564
177
1960
2744
1219
-587
-900
-721
-855
-778
-502
-377
-268
-142
-108
-62
3
9
42
110
76
-21
-32
28
60
77
131
190
207
220
275
353
416
454
439
332
177
72
13
-62
-126
-149
-151
-123
-100
-139
-158
-85
-31
-61
-107
-160
-217
-224
-197
-168
-134
-119
-126
-115
-92
-75
-57
-43
-37
-29
-28
-29
-37
-63
-53
-22
-93
-226
-349
-304
555
2080
2416
896
-448
-414
-111
-189
-216
-148
-138
-98
-86
-153
-169
-122
-94
-67
-33
-21
-33
-49
-16
103
213
225
216
255
285
267
259
298
336
321
260
168
38
-77
-110
-127
-197
-253
-238
-207
-209
-216
-206
-204
-218
-225
-223
-228
-219
-182
-164
-187
-198
-174
-138
-113
-101
-83
-65
-88
-150
-163
-125
-132
-125
-40
-73
-262
-440
-535
121
2005
3202
1759
-466
-927
-399
-342
-471
-463
-508
-484
-341
-284
-289
-251
-212
-193
-151
-82
-16
22
57
145
231
246
291
415
460
394
380
429
424
373
322
230
111
36
-13
-78
-128
-150
-173
-183
-161
-143
-140
-134
-150
-184
-192
-178
-164
-146
-138
-149
-156
-141
-110
-105
-166
-225
-212
-197
-235
-270
-269
-273
-313
-329
-278
-287
-403
-518
-577
-95
1337
2328
1250
-612
-1107
-639
-472
-494
-395
-368
-417
-413
-388
-367
-365
-396
-403
-357
-312
-293
-271
-237
-212
-195
-126
13
147
217
242
262
291
317
329
337
360
433
606
830
946
881
783
824
963
1041
1038
1014
920
742
649
674
607
393
201
89
-1
-74
-113
-141
-182
-221
-219
-228
-312
-359
-305
-309
-404
-457
-483
-470
-371
-385
-524
-515
-346
365
2088
3285
2120
75
-523
-249
-341
-486
-430
-462
-501
-435
-401
-406
-388
-362
-330
-306
-311
-307
-284
-257
-198
-129
-110
-102
-61
-46
-61
-18
62
70
-17
-145
-275
-371
-422
-461
-475
-415
-343
-350
-391
-381
-353
-371
-405
-396
-350
-309
-287
-282
-291
-295
-286
-261
-208
-146
-115
-98
-75
-85
-89
6
125
191
284
352
265
54
-132
352
1992
3232
2159
98
-495
-24
66
-50
43
55
-36
-14
38
6
-52
-78
-68
-44
-45
-51
-15
32
42
54
123
205
224
214
263
344
372
355
338
302
206
65
-51
-90
-82
-88
-109
-123
-131
-149
-166
-168
-184
-226
-244
-238
-261
-287
-280
-271
-260
-236
-243
-274
-285
-286
-282
-268
-280
-296
-280
-299
-313
-244
-239
-344
-428
-451
131
1738
2777
1596
-269
-661
-215
-170
-263
-195
-205
-253
-213
-188
-204
-199
-183
-177
-174
-169
-162
-157
-168
-182
-149
-59
19
62
115
160
163
163
164
123
46
-49
-140
-178
-187
-214
-220
-185
-164
-156
-118
-71
-51
-55
-63
-50
-20
-19
-52
-73
-72
-86
-120
-141
-129
-99
-94
-114
-98
-66
-86
-105
-66
-39
0
71
10
-158
-291
-312
453
2191
2919
1349
-388
-458
-14
-63
-77
73
69
43
107
144
159
193
206
214
272
355
401
418
460
523
556
580
641
719
777
810
807
776
743
690
573
413
290
240
206
162
160
177
134
102
150
163
94
62
75
55
30
18
-42
-124
-192
-345
-611
-837
-941
-989
-996
-943
-905
-917
-911
-929
-1027
-1086
-1082
-1127
-1163
-1159
-884
323
1805
1481
-509
-1640
-1334
-1022
-1014
-932
-971
-1075
-932
-707
-593
-490
-398
-421
-510
-553
-576
-649
-714
-686
-599
-518
-448
-357
-213
-11
216
419
555
618
648
677
686
648
588
560
580
619
636
627
627
616
547
477
462
435
377
381
435
465
509
564
542
497
527
558
540
554
599
587
535
494
420
309
273
293
199
25
-129
-147
581
2082
2595
1150
-373
-457
-87
-139
-215
-188
-269
-327
-277
-236
-213
-177
-160
-156
-145
-164
-212
-212
-162
-145
-150
-122
-89
-60
-4
26
-53
-178
-243
-258
-290
-366
-453
-483
-436
-372
-306
-213
-149
-153
-140
-75
-42
-74
-96
-78
-71
-70
-30
9
-9
-33
-21
-24
-44
-45
-41
-32
-15
-44
-87
-69
-47
-56
-48
-103
-249
-405
-421
346
2019
2741
1239
-556
-750
-268
-220
-279
-230
-240
-232
-189
-203
-215
-208
-243
-289
-279
-218
-160
-128
-98
-65
-33
33
104
139
198
288
299
242
206
138
10
-67
-88
-163
-250
-264
-280
-315
-273
-197
-187
-208
-235
-292
-332
-334
-347
-353
-314
-266
-231
-192
-155
-111
-53
-32
-68
-120
-174
-211
-200
-187
-158
-45
4
-115
-260
-398
-134
1265
2787
2278
313
-598
-271
-97
-154
-50
-7
-64
-58
-54
-52
0
26
4
-8
9
53
85
50
-3
-6
18
57
137
203
196
175
197
210
159
52
-85
-221
-312
-342
-330
-301
-270
-232
-195
-193
-232
-260
-250
-238
-249
-271
-281
-260
-214
-177
-156
-144
-131
-81
29
136
176
166
158
203
262
233
184
224
216
107
14
-14
507
1905
2740
1650
87
-170
192
212
195
266
226
250
373
394
357
368
389
398
432
472
396
174
-8
-64
-151
-308
-381
-333
-254
-185
-129
-89
-67
-80
-165
-295
-371
-339
-278
-261
-257
-256
-315
-411
-481
-547
-593
-513
-343
-233
-187
-145
-144
-173
-150
-109
-149
-270
-399
-476
-485
-493
-554
-595
-570
-554
-551
-540
-619
-764
-923
-1034
-317
1598
2726
1346
-682
-1093
-610
-430
-301
-74
-8
11
121
252
383
463
409
329
378
504
570
584
606
624
647
682
667
624
628
605
490
389
335
235
113
30
-69
-192
-248
-239
-266
-353
-430
-440
-408
-373
-329
-277
-276
-339
-399
-421
-439
-458
-457
-457
-470
-453
-386
-307
-233
-152
-83
-48
-7
68
109
96
156
233
127
-30
-132
-193
517
2161
2683
969
-736
-784
-387
-437
-473
-447
-539
-543
-469
-476
-479
-447
-432
-349
-180
-29
106
257
346
358
382
440
508
599
691
752
805
862
875
804
661
483
309
171
81
32
1
-30
-56
-67
-97
-179
-246
-255
-314
-387
-261
-22
76
101
131
52
-25
11
-30
-146
-135
-88
-135
-151
-69
9
13
1
36
35
-47
-146
-242
137
1505
2627
1766
-44
-610
-175
-58
-247
-349
-412
-417
-387
-457
-559
-601
-641
-692
-724
-757
-770
-715
-609
-524
-481
-431
-360
-312
-285
-241
-184
-128
-81
-62
-69
-73
-63
-52
-44
-43
-41
-20
23
59
63
50
66
107
119
107
123
152
151
154
167
162
175
198
174
164
212
222
179
160
155
131
100
77
41
-88
-292
-464
-540
-59
1273
2115
1081
-576
-1002
-634
-492
-427
-271
-233
-228
-131
-41
5
52
109
157
176
195
253
312
340
362
383
423
509
592
640
672
638
578
655
787
731
512
296
114
-12
-28
9
17
5
7
26
39
29
8
9
51
110
134
92
-5
-152
-335
-492
-581
-626
-637
-617
-628
-701
-770
-795
-777
-730
-712
-702
-632
-605
-692
-796
-843
-374
1027
2122
1345
-285
-844
-585
-536
-597
-561
-587
-562
-410
-342
-356
-283
-206
-221
-181
-17
148
282
417
495
523
594
683
733
777
809
791
759
715
613
481
373
301
277
292
295
252
184
137
105
66
56
75
36
-83
-186
-216
-231
-292
-362
-373
-345
-344
-362
-331
-244
-161
-92
-17
-12
-129
-252
-324
-374
-328
-268
-384
-548
-694
-682
400
2330
2649
694
-869
-783
-510
-638
-576
-411
-413
-401
-313
-234
-168
-130
-112
-56
17
36
25
48
86
96
112
170
233
269
307
374
436
448
410
342
246
125
-5
-103
-130
-116
-110
-90
-45
-33
-54
-50
-27
-24
-36
-37
-18
-1
-10
-34
-27
25
68
50
26
65
121
143
161
166
139
157
218
247
297
353
283
153
37
144
1180
2755
2798
999
-271
-97
154
-21
-160
-322
-572
-696
-723
-716
-648
-599
-582
-544
-521
-520
-498
-491
-505
-481
-416
-376
-383
-391
-383
-398
-405
-304
-149
-89
-107
-99
-80
-52
63
205
259
297
403
485
479
426
336
241
204
159
36
-25
25
7
-77
-30
77
49
-26
-11
-2
-91
-220
-310
-320
-303
-337
-340
-293
-367
-536
-669
-635
133
1578
1988
617
-667
-633
-301
-338
-318
-207
-226
-242
-188
-176
-185
-146
-103
-100
-97
-59
-8
29
45
39
48
108
186
231
245
257
305
380
391
311
239
216
153
36
-44
-68
-86
-98
-83
-68
-78
-91
-71
-40
-38
-50
-49
-46
-57
-75
-84
-83
-100
-145
-171
-154
-127
-98
-66
-72
-116
-133
-135
-165
-119
-4
-55
-253
-438
-550
132
1977
3034
1692
-164
-484
-132
-155
-182
-85
-108
-128
-80
-76
-87
-73
-63
-61
-59
-54
-30
8
45
83
134
186
202
204
253
325
381
427
395
239
100
31
-74
-155
-145
-172
-236
-224
-208
-242
-238
-220
-233
-210
-168
-196
-237
-206
-158
-150
-148
-142
-148
-139
-106
-99
-116
-114
-119
-149
-148
-131
-175
-235
-248
-260
-241
-173
-215
-345
-445
-577
-87
1719
3101
1927
-223
-757
-302
-282
-351
-208
-221
-292
-213
-152
-163
-135
-88
-81
-81
-56
-20
14
46
88
131
149
156
179
213
258
322
373
393
385
313
196
101
31
-35
-63
-56
-49
-9
56
48
-40
-70
5
41
-42
-113
-85
-92
-176
-196
-155
-170
-198
-182
-188
-217
-207
-181
-196
-238
-249
-232
-260
-289
-244
-238
-332
-450
-467
195
1745
2542
1238
-491
-716
-233
-195
-257
-148
-148
-219
-220
-217
-217
-187
-155
-114
-74
-77
-82
-35
5
-7
-28
-43
-69
-86
-79
-40
39
130
190
215
218
232
282
314
254
132
58
66
74
36
15
37
31
-8
-10
26
48
27
-24
-66
-82
-100
-123
-136
-168
-220
-215
-147
-106
-108
-88
-71
-124
-169
-122
-87
-108
-99
-149
-309
-415
-470
-194
982
2132
1538
-83
-667
-290
-150
-239
-200
-178
-198
-137
-31
44
43
16
53
111
143
189
215
170
143
198
281
331
340
334
306
226
187
295
428
426
332
223
105
2
-77
-142
-168
-171
-206
-272
-331
-364
-381
-435
-536
-617
-647
-633
-577
-516
-493
-488
-461
-393
-314
-278
-263
-228
-183
-94
36
75
4
-28
68
248
310
157
49
79
190
863
2013
2199
1028
75
71
207
131
125
175
159
