# session 19
-97
-154
24
-47
-697
-1311
-1352
-1187
-1176
-1164
-1084
-1043
-1014
-961
-919
-886
-844
-800
-753
-709
-670
-622
-566
-525
-499
-492
-501
-471
-419
-422
-396
-310
-363
-537
-674
-618
413
2458
3155
1229
-717
-694
-173
-284
-353
-228
-256
-277
-227
-261
-292
-223
-137
-66
8
70
118
164
206
248
294
337
381
438
506
574
641
703
740
733
692
626
512
354
202
91
12
-31
-39
-58
-104
-131
-121
-111
-110
-94
-71
-61
-57
-50
-45
-53
-66
-64
-48
-37
-32
-29
-28
-28
-28
-29
-30
-30
-32
-35
-37
-37
-33
-30
-35
-43
-41
-35
-36
-40
-41
-42
-39
-37
-42
-49
-44
-30
-21
-15
-6
2
7
14
19
19
15
9
1
-8
-16
-16
-13
-13
-19
-23
-24
-27
-32
-35
-39
-43
-47
-49
-50
-52
-54
-56
-55
-53
-53
-55
-58
-60
-61
-60
-61
-63
-60
-53
-53
-52
-36
-12
-6
-7
-2
-20
-57
-53
-45
-77
-55
-24
-144
-315
-436
-231
1067
2847
2728
598
-741
-416
-91
-247
-239
-159
-209
-192
-137
-161
-180
-162
-155
-140
-100
-62
-32
-3
24
52
85
121
160
202
239
276
320
362
383
386
374
335
255
141
20
-78
-148
-198
-232
-249
-250
-244
-238
-228
-214
-202
-194
-184
-175
-170
-163
-156
-151
-145
-138
-134
-130
-124
-119
-119
-119
-118
-116
-113
-110
-108
-104
-99
-94
-88
-82
-77
-75
-72
-63
-52
-42
-34
-30
-38
-48
-48
-45
-47
-46
-40
-35
-32
-27
-20
-17
-18
-20
-22
-24
-28
-30
-28
-22
-19
-21
-23
-21
-23
-29
-29
-25
-33
-39
-29
-25
-44
-56
-47
-46
-54
-41
-40
-102
-162
-158
-163
-173
-105
-90
-223
-372
-445
33
1575
2844
1924
-80
-725
-261
-149
-293
-229
-185
-217
-179
-143
-142
-117
-92
-75
-34
17
62
110
155
189
222
255
287
324
369
413
450
481
508
526
528
504
443
342
219
106
22
-40
-87
-115
-128
-135
-136
-132
-133
-139
-140
-132
-124
-120
-124
-135
-145
-150
-154
-157
-156
-155
-155
-152
-146
-144
-145
-145
-146
-152
-155
-152
-149
-147
-145
-144
-146
-152
-154
-150
-149
-149
-143
-139
-150
-159
-149
-138
-133
-125
-118
-118
-120
-122
-129
-137
-137
-134
-131
-125
-114
-104
-92
-78
-66
-59
-56
-53
-43
-32
-29
-25
-8
17
33
27
-8
-33
-20
-25
-49
-19
-17
-125
-261
-348
50
1439
2677
1949
77
-660
-274
-100
-191
-147
-123
-155
-120
-88
-89
-66
-42
-33
-3
38
65
89
118
144
165
188
220
256
291
328
367
404
433
451
448
417
354
256
142
40
-40
-104
-149
-171
-179
-184
-188
-189
-186
-182
-177
-172
-169
-167
-163
-160
-158
-153
-146
-140
-134
-126
-118
-114
-115
-117
-119
-121
-126
-130
-131
-128
-127
-130
-133
-137
-132
-121
-130
-155
-147
-114
-102
-112
-112
-110
-113
-111
-102
-97
-102
-108
-108
-105
-102
-95
-91
-92
-83
-57
-35
-37
-72
-103
-93
-93
-117
-88
-76
-180
-315
-418
-126
1178
2590
2121
221
-704
-354
-140
-255
-221
-177
-218
-195
-157
-162
-150
-120
-96
-56
-14
14
43
80
115
147
179
214
253
296
342
387
428
460
477
476
444
368
258
143
49
-22
-77
-115
-138
-150
-152
-150
-149
-148
-146
-142
-137
-133
-131
-129
-124
-117
-113
-111
-108
-106
-104
-100
-97
-95
-93
-89
-88
-89
-88
-86
-84
-83
-82
-79
-75
-72
-71
-71
-70
-68
-66
-63
-59
-58
-64
-75
-85
-91
-92
-94
-91
-79
-62
-49
-43
-33
-13
12
25
5
-38
-50
-36
-54
-59
-23
-57
-171
-291
-296
387
1866
2532
1256
-340
-585
-202
-162
-212
-155
-166
-187
-152
-141
-142
-122
-109
-99
-78
-59
-42
-20
2
22
49
78
108
144
186
226
262
296
319
321
303
263
193
91
-6
-68
-110
-157
-189
-197
-212
-228
-203
-177
-206
-217
-163
-126
-142
-147
-124
-108
-105
-111
-118
-109
-96
-101
-118
-129
-133
-125
-104
-91
-94
-96
-89
-85
-88
-95
-104
-107
-104
-100
-90
-76
-65
-64
-69
-69
-64
-66
-77
-78
-61
-47
-46
-38
-17
3
19
28
3
-44
-52
-40
-63
-59
-33
-96
-218
-354
-242
832
2429
2457
585
-777
-577
-168
-191
-170
-98
-139
-138
-83
-77
-88
-85
-80
-63
-39
-18
6
36
70
111
149
189
243
310
378
449
519
571
595
597
569
482
331
164
29
-73
-148
-190
-210
-224
-224
-215
-218
-222
-215
-207
-206
-199
-186
-183
-184
-176
-163
-151
-143
-139
-139
-141
-148
-159
-162
-158
-160
-172
-178
-170
-157
-149
-145
-139
-129
-121
-115
-114
-110
-96
-84
-85
-92
-88
-80
-76
-72
-72
-82
-88
-79
-70
-67
-52
-27
-12
-8
-24
-66
-83
-69
-92
-103
-53
-87
-237
-399
-431
322
2019
2814
1370
-446
-696
-249
-220
-274
-191
-193
-203
-148
-132
-132
-102
-77
-60
-28
1
23
47
74
105
140
176
215
262
315
370
425
471
503
520
506
440
322
184
58
-41
-110
-153
-177
-190
-199
-200
-196
-193
-190
-181
-173
-169
-167
-164
-163
-163
-160
-155
-151
-145
-139
-132
-127
-122
-116
-111
-110
-111
-110
-108
-106
-102
-97
-91
-88
-87
-84
-86
-91
-94
-94
-96
-95
-95
-98
-100
-97
-92
-88
-83
-81
-78
-74
-71
-67
-60
-56
-57
-54
-45
-39
-39
-34
-14
9
19
12
-17
-47
-38
-34
-61
-37
-11
-120
-284
-418
-217
1045
2758
2714
761
-580
-404
-108
-206
-204
-143
-179
-168
-124
-125
-115
-91
-86
-73
-50
-36
-22
0
24
52
85
120
158
202
250
302
356
405
436
446
433
380
280
156
40
-50
-117
-165
-194
-207
-212
-214
-209
-203
-203
-205
-201
-191
-183
-180
-178
-175
-168
-160
-151
-147
-146
-142
-137
-132
-123
-111
-108
-112
-110
-104
-99
-93
-86
-84
-82
-79
-79
-72
-54
-36
-30
-33
-40
-44
-38
-30
-30
-28
-21
-19
-18
-8
6
12
11
5
-9
-27
-39
-48
-61
-73
-76
-70
-65
-78
-106
-113
-81
-36
-19
-34
-30
2
-8
-25
26
12
-150
-338
-424
131
1723
2873
1844
-97
-694
-291
-182
-263
-205
-198
-225
-175
-149
-156
-129
-96
-78
-56
-34
-13
14
35
51
78
110
136
166
215
276
329
369
405
438
444
406
322
199
66
-42
-113
-161
-188
-196
-199
-200
-194
-188
-185
-178
-164
-149
-140
-139
-146
-155
-156
-139
-119
-116
-107
-85
-118
-220
-285
-258
-216
-206
-202
-196
-194
-190
-180
-160
-135
-113
-93
-75
-64
-57
-41
-29
-33
-36
-31
-30
-24
-8
-2
-10
-9
2
8
11
15
20
20
19
22
26
19
11
15
19
10
-2
-2
5
10
4
-3
3
15
18
25
43
50
44
39
10
-27
-16
-9
-41
-13
-2
-165
-372
-506
-231
1205
2993
2721
509
-786
-449
-137
-261
-229
-155
-198
-180
-133
-140
-127
-99
-92
-74
-42
-21
-1
26
56
85
115
153
201
250
301
363
430
485
523
549
548
491
373
224
79
-44
-135
-195
-226
-238
-244
-249
-251
-252
-250
-248
-248
-249
-246
-240
-240
-244
-240
-220
-204
-203
-202
-191
-182
-182
-175
-167
-166
-165
-158
-155
-157
-162
-165
-157
-145
-139
-136
-130
-127
-127
-127
-128
-127
-120
-111
-110
-117
-117
-102
-94
-111
-126
-116
-99
-94
-92
-89
-84
-76
-72
-79
-79
-65
-58
-60
-55
-45
-44
-48
-45
-38
-27
-7
15
27
16
-26
-48
-27
-47
-77
-24
-40
-210
-378
-451
129
1926
3342
2254
24
-657
-179
-96
-228
-138
-111
-155
-113
-90
-102
-76
-52
-49
-27
4
23
41
67
95
127
162
201
245
293
349
416
482
535
575
597
588
528
410
265
134
32
-43
-89
-113
-127
-133
-127
-124
-126
-120
-113
-121
-134
-131
-126
-139
-160
-173
-192
-218
-224
-206
-188
-165
-133
-114
-111
-104
-94
-90
-81
-68
-65
-65
-61
-64
-75
-89
-113
-147
-167
-170
-179
-195
-209
-223
-235
-241
-241
-232
-217
-202
-182
-156
-139
-135
-134
-138
-150
-155
-142
-116
-87
-68
-66
-63
-53
-54
-56
-45
-37
-36
-27
-23
-28
-25
-27
-49
-57
-42
-37
-41
-28
-10
-8
-11
-12
-9
-6
-7
-11
0
14
15
17
43
62
48
33
31
1
-30
-13
-16
-47
-4
9
-135
-312
-440
-84
1443
3045
2506
417
-596
-272
-88
-205
-163
-123
-157
-121
-91
-102
-75
-48
-60
-55
-18
10
24
38
54
78
115
153
186
231
294
355
406
462
513
543
549
528
452
313
151
17
-79
-148
-197
-227
-238
-237
-233
-230
-225
-221
-216
-204
-196
-199
-196
-185
-181
-182
-173
-165
-168
-172
-165
-157
-161
-168
-163
-158
-164
-169
-164
-159
-158
-154
-151
-154
-150
-139
-132
-131
-130
-131
-133
-133
-131
-134
-141
-144
-139
-133
-129
-127
-132
-136
-126
-115
-117
-116
-100
-90
-92
-87
-66
-48
-38
-29
-44
-87
-99
-91
-114
-94
-54
-166
-367
-513
-336
914
2823
3027
970
-662
-528
-127
-223
-234
-136
-164
-169
-124
-122
-110
-82
-79
-75
-58
-42
-17
15
42
74
116
158
208
274
343
414
495
573
627
662
668
607
471
297
128
-12
-115
-185
-229
-249
-254
-253
-250
-244
-238
-235
-235
-229
-219
-211
-205
-194
-179
-165
-157
-149
-142
-137
-130
-122
-119
-125
-131
-129
-125
-126
-129
-128
-122
-119
-119
-117
-112
-108
-106
-106
-105
-102
-99
-97
-95
-88
-81
-78
-76
-78
-81
-78
-72
-69
-66
-61
-59
-54
-44
-39
-41
-33
-11
6
15
11
-23
-44
-28
-46
-67
-9
-39
-229
-405
-479
152
2068
3521
2289
-70
-727
-208
-153
-300
-200
-181
-232
-181
-152
-164
-137
-114
-108
-83
-59
-48
-29
-3
24
57
96
136
181
233
291
360
431
488
528
550
536
464
333
175
31
-79
-155
-207
-233
-238
-235
-235
-236
-230
-218
-210
-207
-202
-195
-193
-193
-187
-178
-173
-170
-162
-156
-153
-152
-148
-146
-144
-141
-140
-143
-144
-145
-145
-143
-140
-140
-139
-133
-131
-134
-134
-128
-124
-123
-122
-122
-123
-122
-121
-121
-121
-118
-113
-111
-110
-105
-99
-95
-94
-95
-88
-75
-67
-63
-51
-41
-40
-33
-36
-69
-77
-51
-67
-74
-15
-64
-244
-380
-354
446
2299
3311
1818
-271
-632
-136
-138
-253
-154
-136
-165
-124
-105
-104
-87
-81
-69
-49
-48
-44
-17
11
34
62
95
133
179
232
288
350
413
467
504
523
517
465
358
224
109
36
-16
-66
-100
-112
-116
-117
-112
-107
-106
-104
-107
-113
-112
-109
-114
-116
-113
-111
-110
-102
-93
-89
-87
-83
-81
-81
-84
-86
-86
-84
-90
-104
-115
-119
-122
-122
-121
-127
-145
-164
-168
-161
-155
-157
-159
-154
-146
-150
-164
-164
-140
-129
-167
-226
-258
-260
-258
-263
-259
-237
-204
-182
-198
-229
-211
-178
-186
-159
-111
-186
-327
-433
-240
951
2671
2740
800
-648
-484
-113
-193
-200
-123
-153
-142
-86
-79
-67
-36
-27
-17
9
28
45
68
89
111
138
166
199
245
300
358
420
478
523
551
554
508
400
252
116
17
-58
-117
-152
-166
-170
-174
-181
-174
-149
-137
-147
-155
-153
-150
-139
-123
-118
-119
-117
-121
-118
-104
-105
-125
-132
-121
-111
-110
-110
-111
-117
-128
-138
-149
-163
-174
-174
-169
-166
-164
-162
-157
-150
-148
-152
-160
-169
-175
-170
-158
-138
-109
-88
-80
-71
-52
-38
-35
-45
-56
-44
-40
-67
-45
1
-72
-219
-338
-204
838
2487
2737
992
-524
-503
-114
-133
-152
-97
-130
-128
-79
-77
-75
-45
-27
-16
5
21
39
67
90
111
143
181
221
267
325
393
462
518
554
577
571
503
365
194
40
-80
-167
-225
-259
-284
-305
-310
-298
-288
-289
-285
-271
-259
-253
-248
-241
-231
-223
-218
-215
-214
-214
-211
-208
-212
-215
-212
-212
-216
-217
-215
-216
-213
-203
-194
-190
-185
-177
-170
-165
-159
-151
-146
-142
-134
-124
-116
-110
-100
-89
-83
-77
-56
-28
-18
-23
-44
-81
-86
-69
-91
-81
-32
-114
-296
-437
-327
764
2663
3118
1204
-578
-556
-98
-174
-223
-122
-140
-147
-90
-82
-80
-48
-31
-18
7
28
50
75
98
125
161
199
243
301
365
432
497
556
603
633
631
571
448
292
148
36
-45
-99
-129
-143
-150
-151
-151
-154
-154
-149
-146
-146
-142
-133
-124
-116
-110
-104
-97
-94
-93
-90
-90
-97
-105
-104
-101
-103
-109
-108
-103
-102
-105
-105
-100
-95
-94
-94
-94
-91
-90
-91
-92
-91
-91
-89
-88
-88
-87
-89
-92
-93
-90
-89
-90
-89
-89
-92
-93
-92
-93
-96
-99
-99
-92
-83
-82
-85
-74
-54
-46
-54
-77
-115
-124
-112
-139
-144
-93
-157
-336
-479
-423
483
2319
3095
1493
-420
-671
-267
-332
-432
-353
-369
-395
-347
-340
-348
-311
-277
-257
-228
-194
-162
-128
-97
-69
-41
-13
17
53
95
141
192
241
285
318
336
329
279
172
33
-74
-132
-181
-226
-226
-200
-195
-203
-198
-196
-197
-189
-189
-206
-217
-203
-175
-148
-127
-112
-102
-95
-80
-64
-66
-70
-41
-3
5
6
27
47
49
56
87
100
70
65
125
168
153
139
140
135
130
126
110
97
101
122
151
166
166
160
157
170
191
187
172
188
211
205
197
206
211
207
209
216
210
190
193
233
255
230
200
184
167
162
182
213
233
213
163
139
146
130
104
82
56
63
44
-89
-211
-270
-114
921
2481
2553
724
-723
-684
-376
-439
-455
-399
-422
-415
-385
-392
-388
-371
-373
-390
-399
-379
-361
-391
-421
-410
-409
-434
-450
-450
-408
-328
-284
-283
-258
-227
-253
-326
