# session 38
-95
-217
158
-88
-1512
-2645
-2579
-2285
-2327
-2248
-2079
-2094
-2075
-1907
-1784
-1742
-1703
-1638
-1528
-1443
-1432
-1378
-1251
-1193
-1182
-1096
-1014
-1018
-997
-899
-813
-773
-761
-741
-658
-573
-588
-614
-556
-505
-500
-441
-347
-334
-337
-219
-88
-134
-205
-22
416
1185
2177
2224
677
-736
-463
367
440
230
269
321
299
300
315
365
436
446
414
425
496
549
532
526
572
573
565
659
718
657
662
736
690
616
696
791
733
621
572
522
407
276
162
66
24
24
-8
-45
-30
-27
-51
-17
29
-32
-134
-133
-46
-25
-93
-120
-78
-67
-100
-128
-146
-139
-116
-112
-104
-84
-103
-150
-157
-129
-112
-108
-119
-147
-145
-113
-122
-151
-118
-88
-140
-180
-155
-137
-134
-121
-127
-145
-160
-179
-158
-111
-148
-214
-176
-119
-170
-237
-241
-247
-256
-214
-177
-179
-182
-183
-158
-106
-125
-134
126
779
1743
2272
1310
-421
-876
-80
275
27
-5
68
-3
10
68
21
13
82
93
88
134
154
148
175
188
164
182
259
292
258
265
333
366
364
383
388
365
342
281
172
86
-11
-172
-285
-286
-295
-356
-392
-390
-370
-353
-376
-374
-320
-337
-406
-356
-258
-284
-367
-373
-338
-330
-307
-250
-253
-327
-327
-247
-229
-271
-268
-235
-237
-245
-206
-170
-189
-207
-179
-159
-177
-186
-161
-136
-138
-147
-125
-97
-107
-128
-126
-114
-108
-104
-92
-72
-69
-95
-119
-128
-133
-137
-147
-143
-106
-74
-71
-73
-55
-6
0
-54
53
502
1298
2184
2155
650
-723
-435
382
358
71
136
205
154
162
186
191
222
224
184
198
274
302
270
291
362
360
321
375
452
429
392
445
504
501
502
529
517
460
369
223
80
0
-95
-224
-276
-263
-296
-356
-354
-325
-327
-323
-299
-312
-333
-307
-300
-315
-293
-303
-355
-338
-291
-297
-296
-280
-289
-282
-273
-295
-285
-244
-236
-235
-228
-247
-249
-220
-226
-248
-220
-177
-172
-188
-198
-198
-191
-175
-150
-147
-176
-192
-170
-146
-158
-188
-202
-199
-178
-140
-119
-127
-138
-134
-108
-101
-117
-98
-100
-120
73
655
1598
2300
1624
-128
-888
-166
365
143
9
99
101
88
100
83
92
130
158
188
205
205
225
260
268
263
296
352
380
377
381
409
447
470
479
492
489
456
408
335
192
11
-114
-197
-305
-372
-340
-321
-360
-367
-338
-332
-332
-318
-318
-344
-354
-317
-294
-334
-361
-324
-296
-321
-329
-287
-270
-305
-314
-278
-257
-251
-244
-252
-253
-225
-209
-219
-226
-235
-232
-193
-181
-229
-241
-163
-69
-42
-98
-175
-191
-154
-133
-133
-99
-86
-177
-186
111
696
1596
2292
1524
-316
-970
-134
336
85
43
147
78
60
111
106
136
173
145
164
240
244
221
270
320
316
331
385
416
416
418
457
527
555
519
508
531
493
395
276
107
-81
-196
-240
-271
-329
-405
-411
-335
-308
-343
-327
-308
-342
-320
-261
-288
-321
-296
-325
-362
-294
-243
-290
-316
-293
-275
-257
-254
-271
-262
-244
-237
-211
-195
-221
-233
-224
-241
-240
-170
-120
-154
-182
-159
-172
-209
-186
-136
-124
-130
-149
-174
-155
-111
-89
-64
-29
-47
-116
-141
-90
-68
-108
-101
-81
-123
-34
350
1089
2069
2228
737
-819
-658
187
260
58
130
132
35
61
131
163
175
156
149
184
200
201
253
316
319
307
334
356
353
374
426
452
448
459
484
492
477
427
364
294
150
-45
-156
-199
-261
-289
-282
-314
-322
-274
-283
-317
-280
-251
-275
-291
-314
-340
-314
-281
-275
-260
-266
-295
-266
-219
-248
-279
-254
-247
-249
-203
-200
-254
-231
-162
-172
-195
-182
-184
-172
-159
-213
-199
-77
-90
-224
-202
-99
-131
-183
-128
-76
-92
-112
-113
-123
-153
-170
-145
-112
-127
-172
-167
-82
-26
-97
-164
-108
-85
-124
-39
25
-83
-54
295
996
2041
2343
883
-723
-572
242
226
1
121
149
57
66
132
237
245
75
36
184
199
154
257
305
229
254
344
342
317
312
300
319
363
391
384
306
242
301
310
132
-1
20
-19
-157
-251
-293
-325
-337
-318
-257
-209
-221
-206
-183
-276
-363
-327
-315
-337
-260
-179
-188
-195
-211
-276
-296
-265
-242
-206
-192
-217
-179
-117
-152
-186
-168
-212
-234
-116
-56
-200
-304
-150
22
-78
-227
-140
-63
-203
-271
-132
-34
-55
-106
-162
-143
-51
-35
-104
-192
-259
-192
-43
-26
-110
-170
-206
-171
-52
14
-39
-144
-130
151
655
1412
2180
1839
170
-901
-351
365
344
204
127
-29
14
200
190
91
158
293
271
138
105
188
259
276
263
261
305
336
304
276
320
386
365
293
312
366
307
209
169
102
1
-42
-109
-268
-341
-281
-272
-272
-167
-180
-370
-407
-269
-221
-214
-198
-299
-343
-197
-168
-311
-324
-255
-273
-255
-187
-215
-263
-238
-228
-236
-195
-172
-208
-244
-252
-212
-149
-139
-167
-189
-221
-209
-107
-57
-145
-215
-162
-96
-129
-195
-159
-43
-27
-167
-241
-100
3
-120
-222
-165
-133
-146
-132
-140
-85
34
-22
-159
-112
-67
-116
91
657
1479
2235
1880
236
-821
-289
357
185
-3
141
168
72
76
125
130
120
167
260
233
99
112
254
290
243
233
243
273
316
311
302
348
382
351
295
240
209
226
226
144
53
-16
-154
-268
-206
-136
-253
-376
-298
-161
-172
-272
-297
-225
-153
-214
-360
-310
-101
-119
-305
-306
-242
-298
-298
-205
-187
-240
-267
-243
-215
-220
-195
-138
-177
-262
-233
-164
-164
-154
-130
-157
-173
-139
-112
-133
-186
-176
-85
-68
-159
-194
-146
-103
-92
-139
-193
-124
-3
-26
-116
-103
-75
-128
-143
-84
-85
-96
62
464
1293
2278
2068
312
-929
-434
303
221
25
84
104
94
115
106
107
109
79
101
171
198
210
235
225
217
250
276
287
296
281
313
398
383
292
310
386
367
275
167
69
22
-21
-125
-222
-261
-292
-307
-286
-310
-355
-293
-206
-239
-308
-309
-289
-276
-276
-307
-319
-307
-332
-339
-274
-222
-233
-273
-307
-289
-221
-179
-215
-280
-283
-224
-193
-195
-182
-167
-171
-211
-267
-224
-110
-107
-179
-180
-157
-142
-95
-94
-113
-39
-9
-137
-204
-111
-59
-130
-163
-109
-128
-190
26
653
1527
2109
1436
-310
-1208
-522
251
318
253
201
81
113
188
155
184
212
124
168
345
347
264
303
315
285
391
498
428
378
487
577
545
533
585
566
484
494
543
447
225
25
-104
-197
-279
-340
-383
-424
-423
-362
-334
-348
-312
-279
-336
-380
-347
-336
-367
-360
-337
-358
-374
-337
-320
-359
-356
-307
-336
-382
-318
-268
-319
-308
-218
-213
-270
-269
-245
-254
-250
-205
-155
-122
-106
-127
-187
-227
-212
-180
-184
-206
-170
-140
-206
-89
543
1443
1966
1471
-40
-1237
-944
-31
213
61
91
128
84
108
141
141
165
189
194
216
248
268
288
312
336
361
389
426
471
507
536
567
598
622
635
641
626
542
366
154
-26
-168
-292
-383
-419
-428
-438
-436
-414
-386
-366
-353
-347
-339
-330
-330
-335
-336
-332
-324
-327
-341
-343
-332
-325
-317
-305
-303
-299
-278
-256
-233
-194
-174
-199
-224
-234
-240
-220
-213
-230
-182
-162
-232
10
755
1418
1381
494
-757
-1238
-576
127
172
77
141
151
127
161
177
172
190
210
226
256
281
296
319
350
380
411
444
478
517
566
614
658
701
736
745
710
606
421
195
-9
-170
-295
-377
-415
-425
-420
-410
-402
-394
-388
-382
-369
-354
-347
-340
-335
-345
-355
-344
-333
-336
-328
-313
-313
-316
-316
-319
-320
-315
-285
-225
-190
-202
-214
-242
-293
-294
-264
-235
-172
-192
-282
-73
581
1450
2043
1504
-47
-879
-334
183
28
-84
-7
-42
-73
-28
-18
-11
24
41
62
101
124
143
171
201
236
276
313
356
415
471
517
564
611
647
664
633
520
338
129
-69
-229
-341
-418
-463
-472
-462
-454
-443
-424
-401
-382
-373
-365
-351
-343
-343
-342
-338
-339
-340
-330
-315
-309
-309
-297
-277
-264
-243
-210
-199
-220
-248
-264
-250
-234
-251
-222
-173
-250
-254
181
1060
2051
2318
1099
-530
-751
2
204
-28
-17
40
-13
6
51
46
65
101
115
139
175
202
230
267
304
342
385
431
481
536
595
652
706
752
785
782
702
523
292
72
-112
-256
-351
-403
-428
-436
-428
-413
-399
-383
-367
-357
-349
-341
-336
-334
-333
-332
-331
-330
-327
-325
-321
-316
-310
-304
-299
-293
-285
-278
-273
-267
-259
-251
-245
-239
-233
-225
-218
-211
-205
-200
-194
-187
-182
-176
-170
-173
-181
-182
-193
-220
-236
-230
-211
-183
-163
-150
-118
-108
-122
-70
-51
-153
-53
488
1326
2135
2071
668
-615
-394
296
263
52
119
130
76
120
148
135
156
179
187
208
231
247
272
299
322
352
384
415
449
488
530
576
623
671
720
759
767
713
581
395
201
27
-119
-231
-306
-352
-381
-392
-392
-390
-384
-376
-373
-376
-377
-377
-378
-377
-375
-375
-374
-368
-364
-366
-360
-346
-337
-334
-330
-322
-310
-300
-302
-299
-281
-268
-266
-257
-248
-246
-241
-232
-228
-222
-214
-212
-207
-198
-192
-189
-185
-186
-187
-184
-196
-230
-250
-236
-218
-199
-164
-141
-127
-102
-105
-104
-44
-68
-149
55
630
1472
2265
1947
322
-710
-181
401
217
68
162
131
96
160
171
145
162
206
249
271
271
284
308
327
347
368
386
415
448
473
491
516
548
564
566
571
556
480
355
206
45
-106
-219
-290
-333
-358
-371
-375
-370
-360
-352
-348
-344
-340
-338
-338
-335
-334
-333
-330
-324
-322
-320
-314
-308
-302
-296
-290
-283
-275
-269
-262
-252
-246
-245
-241
-230
-217
-209
-206
-203
-197
-188
-182
-176
-170
-166
-166
-166
-162
-155
-149
-156
-164
-148
-132
-157
-200
-222
-222
-201
-170
-149
-121
-97
-110
-95
-43
-83
-107
154
750
1687
2433
1736
-85
-826
-82
389
150
68
154
105
95
150
143
140
172
183
193
221
239
252
278
306
329
351
372
395
423
454
484
514
546
573
592
606
594
524
392
226
60
-80
-189
-276
-337
-366
-372
-369
-361
-353
-354
-359
-354
-343
-342
-348
-350
-347
-350
-349
-336
-322
-320
-324
-327
-329
-326
-313
-299
-288
-279
-275
-270
-258
-248
-245
-241
-231
-224
-222
-217
-207
-199
-195
-191
-186
-182
-176
-170
-167
-161
-155
-160
-167
-166
-172
-188
-206
-227
-228
-194
-168
-151
-112
-105
-120
-64
-55
-147
29
687
1603
2277
1839
261
-741
-264
337
209
57
145
131
91
137
152
146
174
190
197
222
242
258
281
307
334
364
395
428
467
510
555
601
642
679
713
734
714
620
452
245
41
-135
-269
-360
-415
-440
-449
-450
-441
-424
-412
-405
-396
-388
-385
-383
-382
-382
-380
-377
-375
-370
-364
-359
-351
-342
-337
-334
-325
-314
-305
-297
-287
-277
-268
-261
-253
-246
-239
-229
-218
-212
-207
-195
-184
-181
-176
-167
-163
-159
-150
-148
-155
-149
-136
-146
-174
-196
-196
-171
-142
-126
-94
-64
-81
-61
6
-48
-87
214
873
1830
2565
1874
85
-645
41
428
162
94
182
125
112
166
160
160
190
197
205
229
244
257
279
296
313
338
366
388
409
434
462
485
505
525
541
546
529
463
342
193
46
-85
-190
-265
-311
-336
-347
-352
-348
-337
-331
-331
-331
-330
-331
-334
-334
-334
-334
-332
-329
-325
-321
-317
-314
-311
-306
-301
-296
-290
-283
-280
-277
-271
-266
-261
-257
-253
-248
-243
-239
-234
-228
-224
-222
-218
-212
-208
-206
-203
-199
-196
-191
-186
-188
-194
-195
-196
-208
-233
-255
-245
-210
-195
-182
-147
-143
-145
-92
-101
-160
33
589
1429
2188
1813
159
-881
-332
318
183
32
125
106
68
120
129
119
152
173
177
196
215
232
259
282
298
320
345
369
396
426
454
479
504
525
544
564
569
530
435
296
141
1
-113
-200
-259
-294
-313
-319
-313
-304
-299
-297
-293
-289
-287
-285
-283
-278
-273
-270
-266
-261
-256
-250
-239
-226
-221
-219
-213
-203
-193
-183
-172
-165
-158
-151
-142
-137
-134
-129
-121
-112
-101
-95
-94
-87
-73
-66
-66
-63
-59
-61
-61
-59
-65
-82
-106
-126
-112
-76
-56
-34
-8
-11
12
56
3
16
400
1142
1994
2235
1092
-465
-618
233
484
209
180
247
210
232
280
254
224
235
253
256
253
257
270
290
306
309
316
337
338
325
350
388
374
337
334
331
289
237
178
81
-32
-119
-195
-278
-340
-375
-406
-426
-414
-399
-409
-414
-403
-407
-420
-422
-430
-451
-462
-456
-452
-458
-457
-461
-488
-487
-435
-413
-455
-479
-462
-454
-464
-465
-459
-456
-456
-455
-451
-447
-444
-434
-427
-429
-431
-422
-413
-413
-414
-408
-400
-404
-422
-439
-434
-417
-402
-371
-338
-334
-317
-278
-298
-279
3
706
1774
2324
1229
-616
-1063
-220
172
-49
-78
10
-27
-19
38
44
60
101
124
145
175
204
236
267
294
325
358
387
418
452
475
493
520
545
554
560
570
567
530
463
379
292
218
159
117
103
107
103
97
107
122
138
157
171
175
183
191
191
193
202
215
231
249
254
246
247
262
277
284
288
291
291
293
298
300
297
296
295
288
279
273
268
258
245
234
222
201
176
164
172
191
205
192
146
81
23
6
-4
-54
-75
-60
-142
-166
220
1004
1831
1956
711
-929
-1186
-390
-111
-362
-411
-387
-480
-513
-507
-556
-592
-602
-624
-648
-667
-682
-691
-704
-724
-737
-748
-756
-754
-749
-751
-751
-746
-744
-749
