# session 31
-94
-103
-73
-122
-267
-349
-326
-305
-309
-296
-282
-278
-269
-258
-255
-252
-246
-240
-234
-228
-225
-221
-214
-211
-217
-222
-226
-242
-268
-285
-279
-248
-218
-206
-175
-141
-155
-140
-80
-128
-160
158
859
1780
2262
1297
-427
-856
-26
325
61
31
121
70
76
131
125
135
169
177
190
219
238
257
285
307
324
343
362
381
400
423
445
462
479
496
510
519
518
491
424
323
210
101
1
-86
-155
-206
-244
-273
-295
-316
-331
-340
-347
-355
-360
-362
-364
-367
-366
-362
-360
-355
-346
-339
-334
-327
-318
-311
-306
-299
-292
-283
-275
-268
-262
-254
-245
-238
-232
-226
-220
-213
-203
-196
-193
-189
-183
-179
-176
-169
-160
-157
-156
-150
-147
-155
-161
-167
-187
-211
-219
-209
-183
-154
-132
-99
-75
-90
-64
-12
-74
-84
260
973
1891
2274
1168
-504
-745
112
367
96
101
176
112
127
182
168
176
210
220
233
257
274
294
320
340
357
376
392
407
425
444
460
473
486
500
506
505
493
456
379
274
166
65
-29
-112
-175
-219
-251
-277
-296
-312
-325
-334
-340
-346
-351
-355
-356
-353
-348
-345
-343
-338
-331
-326
-320
-313
-308
-303
-295
-285
-278
-272
-265
-257
-250
-245
-238
-229
-224
-218
-211
-203
-199
-195
-190
-184
-179
-174
-170
-165
-158
-155
-155
-150
-142
-138
-136
-137
-145
-153
-162
-178
-197
-210
-209
-188
-164
-143
-103
-81
-101
-69
-21
-87
-69
316
1071
1993
2231
946
-653
-690
176
338
79
113
169
108
137
179
165
183
213
217
233
260
278
298
322
339
356
375
393
410
425
437
450
462
468
471
475
475
460
420
346
252
155
62
-25
-99
-156
-199
-230
-253
-274
-292
-305
-315
-322
-329
-336
-341
-342
-341
-338
-336
-336
-332
-324
-316
-312
-308
-303
-297
-293
-286
-276
-268
-263
-257
-250
-245
-239
-230
-222
-217
-210
-201
-195
-191
-187
-182
-177
-171
-165
-161
-158
-152
-145
-140
-138
-135
-129
-125
-122
-117
-114
-122
-130
-137
-150
-167
-182
-190
-177
-152
-134
-101
-63
-76
-75
-11
-44
-102
164
819
1704
2263
1465
-279
-899
-84
401
156
82
187
139
124
184
183
184
217
227
236
264
281
295
319
340
354
372
388
399
410
422
431
439
446
450
449
447
438
409
348
262
168
76
-9
-82
-142
-189
-221
-242
-261
-276
-284
-292
-303
-314
-319
-322
-327
-333
-332
-328
-328
-327
-321
-314
-312
-309
-301
-294
-290
-285
-276
-268
-262
-256
-248
-240
-236
-231
-222
-215
-209
-205
-199
-190
-185
-184
-179
-171
-167
-163
-158
-155
-152
-147
-144
-142
-139
-133
-129
-127
-124
-121
-126
-136
-145
-156
-172
-192
-204
-191
-164
-148
-117
-75
-83
-85
-20
-44
-110
129
757
1637
2290
1646
-115
-918
-165
406
184
77
187
148
124
187
189
183
216
229
236
263
283
297
319
338
355
374
390
402
415
428
436
446
455
459
456
448
433
400
338
249
151
61
-21
-94
-154
-196
-224
-244
-262
-278
-291
-300
-308
-318
-326
-330
-333
-338
-339
-335
-330
-328
-325
-320
-316
-313
-308
-299
-291
-285
-279
-271
-263
-257
-250
-242
-234
-226
-219
-212
-207
-201
-195
-189
-182
-176
-171
-166
-161
-158
-153
-148
-144
-142
-139
-137
-136
-132
-129
-127
-123
-123
-131
-140
-148
-158
-173
-195
-204
-181
-155
-138
-98
-76
-89
-51
-21
-86
-8
457
1285
2165
2096
534
-884
-587
275
304
76
153
179
118
162
197
183
205
231
236
255
277
294
316
337
352
369
388
404
417
426
435
447
457
457
454
451
440
412
360
277
180
87
2
-76
-137
-178
-209
-233
-248
-263
-278
-287
-289
-294
-304
-314
-317
-316
-319
-324
-325
-322
-320
-319
-316
-310
-304
-300
-294
-287
-277
-269
-263
-258
-251
-245
-239
-233
-228
-222
-214
-207
-202
-197
-191
-187
-180
-173
-171
-167
-157
-153
-152
-147
-143
-143
-141
-133
-127
-127
-124
-118
-119
-127
-135
-145
-160
-177
-194
-192
-169
-153
-129
-83
-78
-88
-32
-33
-104
73
644
1518
2289
1867
112
-972
-350
372
229
64
171
153
108
166
181
170
201
221
227
249
271
288
311
330
346
366
385
399
413
426
435
443
448
450
449
444
429
394
329
233
128
33
-50
-121
-175
-214
-240
-256
-266
-275
-282
-289
-298
-304
-305
-309
-314
-317
-319
-321
-320
-315
-314
-312
-305
-297
-293
-289
-283
-275
-265
-257
-252
-245
-235
-227
-223
-219
-212
-201
-193
-187
-182
-178
-176
-173
-165
-158
-156
-153
-145
-138
-133
-127
-121
-119
-123
-123
-119
-112
-107
-106
-112
-125
-138
-144
-154
-178
-188
-165
-140
-114
-76
-74
-76
-25
-46
-99
168
862
1773
2366
1640
-223
-1155
-387
379
270
110
178
146
105
158
173
164
190
209
213
234
261
278
298
322
340
355
378
397
402
420
456
473
464
462
470
468
451
414
332
207
82
-25
-120
-197
-244
-273
-300
-319
-318
-307
-307
-320
-326
-326
-330
-338
-340
-340
-341
-342
-341
-337
-330
-325
-323
-318
-309
-304
-299
-292
-285
-280
-271
-258
-252
-252
-247
-231
-217
-212
-209
-203
-197
-192
-187
-179
-173
-170
-165
-156
-149
-144
-141
-138
-133
-131
-137
-148
-159
-173
-199
-223
-210
-176
-157
-125
-83
-96
-86
-26
-77
-98
309
1126
1954
2115
996
-516
-723
77
353
116
109
182
127
136
187
180
187
216
222
232
260
279
296
321
347
370
394
422
451
476
503
537
567
586
600
610
602
554
451
300
136
-11
-130
-219
-277
-308
-323
-330
-332
-332
-331
-333
-335
-338
-343
-346
-349
-352
-356
-358
-357
-354
-354
-355
-351
-343
-338
-334
-328
-320
-315
-308
-299
-291
-284
-276
-267
-261
-255
-245
-236
-232
-225
-217
-212
-206
-196
-191
-189
-183
-175
-172
-174
-184
-206
-227
-239
-241
-218
-177
-161
-154
-122
-118
-125
-69
-75
-163
22
670
1588
2261
1756
137
-780
-216
354
179
41
141
121
85
139
152
147
180
200
209
237
263
279
302
330
360
392
423
454
484
512
539
566
591
611
622
618
584
498
356
187
32
-90
-180
-244
-282
-301
-311
-316
-314
-311
-311
-312
-313
-319
-330
-335
-333
-334
-336
-321
-295
-294
-325
-346
-341
-325
-305
-282
-272
-282
-294
-291
-264
-233
-225
-233
-232
-229
-232
-222
-197
-189
-208
-215
-186
-167
-187
-204
-198
-195
-188
-161
-150
-170
-173
-161
-168
-182
-197
-242
-277
-240
-180
-154
-117
-72
-85
-94
-45
-68
-107
139
802
1805
2508
1754
-88
-875
-141
398
186
82
192
154
100
146
163
144
155
192
222
226
221
235
252
277
342
394
385
382
418
423
403
427
463
444
402
380
343
269
172
61
-32
-79
-129
-206
-242
-240
-260
-269
-249
-261
-289
-270
-253
-276
-287
-276
-285
-297
-279
-277
-307
-301
-266
-268
-276
-255
-251
-262
-251
-245
-245
-230
-227
-230
-210
-203
-226
-228
-197
-171
-179
-207
-211
-182
-158
-156
-159
-164
-167
-152
-135
-142
-153
-148
-149
-159
-162
-172
-191
-181
-149
-143
-153
-140
-99
-42
-21
-71
-54
271
1091
2194
2420
874
-982
-1072
-43
311
97
107
161
78
84
139
127
155
223
223
196
221
255
253
260
300
319
300
308
359
376
346
331
329
302
270
246
208
168
130
67
-7
-54
-82
-113
-164
-213
-218
-203
-214
-216
-193
-192
-209
-214
-220
-226
-220
-227
-242
-235
-236
-250
-235
-221
-248
-257
-234
-252
-275
-229
-185
-206
-220
-204
-205
-213
-205
-194
-179
-169
-172
-160
-139
-143
-154
-151
-146
-136
-122
-126
-137
-131
-137
-171
-182
-161
-153
-143
-101
-82
-103
-81
-40
-70
-81
164
928
2114
2574
1182
-850
-1257
-275
251
92
64
152
106
93
153
162
155
183
199
204
229
251
251
258
282
289
293
327
353
339
338
350
304
251
278
295
224
169
167
119
22
-64
-154
-229
-228
-193
-204
-236
-231
-212
-212
-217
-214
-219
-228
-232
-242
-267
-279
-268
-262
-278
-287
-283
-286
-287
-272
-260
-273
-284
-268
-241
-223
-216
-221
-231
-233
-226
-218
-209
-198
-189
-186
-178
-173
-184
-188
-170
-170
-187
-186
-193
-223
-207
-154
-132
-115
-89
-90
-70
-43
-83
67
735
1683
2137
1341
-396
-1391
-785
124
240
97
160
187
158
195
222
219
236
257
271
271
277
332
388
378
358
393
443
469
485
503
523
543
554
556
557
550
512
424
284
122
-27
-152
-252
-320
-351
-358
-355
-349
-340
-329
-318
-310
-309
-312
-312
-311
-314
-318
-320
-323
-324
-316
-309
-310
-310
-304
-299
-297
-289
-279
-276
-278
-271
-261
-259
-260
-252
-244
-244
-242
-244
-257
-268
-265
-242
-188
-131
-117
-145
-184
-200
-179
-175
-195
-151
-130
-216
-109
428
1295
2148
2021
446
-929
-629
163
161
-40
37
45
-6
45
70
58
92
120
125
154
188
208
236
271
299
329
369
413
458
504
551
598
642
678
705
716
679
554
354
139
-50
-206
-327
-399
-431
-444
-446
-437
-424
-415
-409
-404
-398
-392
-391
-393
-393
-390
-389
-390
-387
-384
-380
-372
-364
-359
-353
-351
-357
-356
-339
-309
-253
-201
-205
-238
-257
-265
-250
-227
-241
-218
-167
-235
-256
92
866
1946
2485
1331
-541
-892
-21
247
-35
-27
48
-20
5
69
61
79
123
140
163
201
230
259
296
329
359
395
441
489
531
570
612
650
675
694
694
638
502
310
109
-66
-201
-295
-355
-387
-396
-392
-382
-368
-355
-350
-346
-340
-337
-338
-337
-335
-335
-334
-329
-320
-314
-311
-306
-299
-292
-286
-279
-273
-265
-258
-251
-245
-238
-230
-219
-211
-208
-205
-196
-186
-182
-177
-170
-172
-175
-174
-178
-182
-165
-134
-93
-51
-48
-81
-109
-127
-126
-109
-125
-118
-63
-111
-156
116
717
1592
2302
1653
-148
-915
-151
346
92
6
111
61
43
105
105
109
151
167
178
211
237
256
282
308
333
359
385
411
442
474
502
526
550
573
590
591
561
478
346
199
65
-54
-150
-215
-258
-286
-299
-303
-309
-313
-313
-317
-321
-321
-325
-331
-330
-329
-334
-332
-322
-317
-315
-311
-311
-311
-301
-289
-284
-279
-274
-266
-256
-252
-253
-244
-228
-223
-221
-211
-200
-195
-193
-193
-189
-178
-171
-173
-168
-158
-153
-149
-146
-153
-162
-160
-168
-196
-219
-217
-195
-164
-142
-128
-93
-76
-100
-65
-22
-103
-56
401
1134
1893
2004
764
-715
-694
173
339
90
126
177
111
137
182
169
182
211
218
231
255
274
296
321
342
368
401
428
450
478
513
546
579
609
624
624
612
559
436
269
110
-29
-151
-244
-303
-338
-352
-349
-350
-355
-350
-342
-341
-343
-346
-355
-360
-356
-355
-358
-356
-350
-348
-346
-337
-326
-320
-317
-308
-296
-289
-286
-282
-274
-262
-254
-253
-249
-237
-228
-224
-221
-215
-208
-203
-200
-191
-182
-180
-176
-170
-171
-171
-168
-177
-198
-219
-242
-244
-199
-156
-145
-115
-91
-108
-73
-29
-114
-58
457
1270
1987
1907
576
-762
-613
207
313
85
133
175
117
147
184
175
195
222
227
246
273
292
316
344
368
396
429
459
490
526
563
598
631
659
680
692
672
588
436
249
70
-82
-200
-281
-329
-353
-359
-356
-349
-342
-334
-329
-327
-328
-328
-330
-334
-335
-335
-335
-335
-333
-329
-324
-321
-320
-314
-304
-297
-293
-287
-281
-277
-273
-265
-259
-253
-245
-238
-233
-226
-217
-210
-206
-201
-196
-191
-185
-179
-173
-168
-164
-159
-156
-165
-172
-174
-195
-230
-240
-222
-196
-166
-145
-128
-97
-99
-105
-45
-53
-139
35
587
1413
2233
2005
387
-768
-279
383
222
43
148
135
90
147
160
147
180
200
206
231
256
273
301
329
351
377
409
439
470
505
539
572
600
623
640
643
611
522
371
191
24
-117
-228
-303
-344
-364
-369
-364
-357
-350
-342
-339
-339
-337
-335
-336
-338
-339
-339
-336
-331
-326
-323
-319
-313
-307
-303
-297
-290
-284
-276
-268
-261
-256
-251
-245
-238
-229
-221
-216
-211
-204
-196
-190
-187
-184
-177
-171
-170
-166
-159
-153
-149
-144
-138
-133
-128
-125
-123
-120
-123
-135
-147
-160
-182
-195
-187
-171
-148
-119
-99
-76
-58
-76
-55
3
-58
-83
256
947
1837
2326
1397
-298
-714
101
418
139
117
206
137
137
196
186
185
217
229
242
271
291
310
336
363
389
414
438
465
497
528
556
587
621
637
634
627
594
491
329
165
24
-102
-210
-285
-323
-334
-331
-327
-331
-332
-326
-323
-326
-326
-322
-326
-334
-330
-321
-329
-341
-336
-328
-325
-318
-311
-310
-304
-289
-279
-284
-286
-271
-253
-250
-250
-243
-236
-232
-226
-219
-215
-213
-209
-202
-194
-191
-190
-185
-179
-177
-175
-168
-164
-163
-158
-151
-152
-153
-147
-145
-149
-150
-153
-168
-185
-200
-221
-230
-200
-159
-145
-124
-97
-109
-89
-34
-96
-81
397
1188
1798
1685
512
-786
-776
62
316
104
115
185
140
153
192
182
191
217
223
236
260
279
299
323
346
371
398
427
457
487
518
550
580
606
629
642
633
578
457
286
115
-33
-155
-246
-299
-325
-337
-334
-321
-307
-297
-290
-284
-277
-272
-270
-268
-267
-266
-263
-262
-260
-255
-250
-245
-238
-229
-219
-210
-202
-196
-189
-180
-171
-158
-148
-142
-135
-125
-117
-110
-101
-93
-86
-79
-69
-61
-54
-47
-42
-37
-30
-25
-22
-16
-8
-4
3
11
7
-4
-8
-22
-52
-70
-61
-38
-8
12
29
66
70
54
117
131
16
166
774
1582
2344
2206
560
-728
56
