# session 25
-34
-63
2
30
-162
-427
-494
-435
-443
-480
-488
-500
-484
-427
-401
-386
-340
-331
-336
-268
-274
-357
-121
589
1493
1988
1179
-610
-1381
-562
124
-27
-134
-14
-25
-42
26
44
43
69
93
136
186
205
221
258
298
334
372
414
461
511
556
599
641
670
681
682
653
560
402
222
57
-83
-201
-284
-329
-345
-347
-342
-336
-333
-327
-313
-300
-293
-291
-290
-293
-295
-289
-281
-282
-284
-279
-276
-273
-262
-254
-251
-244
-235
-233
-228
-221
-221
-220
-211
-207
-210
-202
-180
-170
-172
-168
-157
-155
-158
-154
-158
-172
-185
-203
-213
-181
-138
-122
-108
-106
-119
-71
-28
-86
-16
465
1358
2224
1959
188
-1250
-843
119
212
12
91
120
65
102
132
126
157
183
182
201
234
254
276
307
331
347
373
406
431
456
490
515
526
533
531
507
462
378
249
111
-10
-113
-190
-235
-258
-270
-273
-277
-281
-277
-268
-267
-274
-281
-281
-283
-289
-287
-283
-289
-294
-290
-288
-288
-284
-286
-291
-278
-259
-257
-262
-255
-242
-233
-228
-225
-220
-212
-205
-207
-206
-193
-185
-192
-191
-181
-190
-204
-205
-220
-234
-211
-187
-177
-144
-127
-142
-105
-75
-128
-40
446
1351
2225
1907
84
-1323
-875
73
154
-30
56
87
37
71
102
103
129
150
163
191
214
233
264
289
308
337
372
401
430
464
502
528
536
546
569
576
530
427
293
155
23
-101
-195
-248
-272
-283
-285
-279
-265
-252
-257
-269
-265
-249
-250
-263
-263
-260
-270
-279
-273
-263
-262
-266
-268
-267
-273
-272
-250
-238
-252
-255
-238
-227
-215
-201
-222
-255
-233
-193
-198
-214
-215
-229
-242
-241
-273
-299
-259
-211
-194
-167
-154
-143
-87
-96
-145
129
890
1866
2335
1389
-482
-1256
-473
185
67
-25
72
52
32
84
92
91
119
130
139
170
205
230
254
283
318
354
391
437
488
536
581
622
655
677
685
652
550
384
198
27
-122
-245
-323
-356
-371
-376
-365
-350
-338
-322
-307
-302
-298
-288
-285
-292
-296
-294
-293
-293
-295
-297
-295
-288
-288
-291
-287
-283
-284
-279
-267
-259
-255
-249
-246
-248
-246
-238
-229
-225
-227
-235
-250
-264
-280
-310
-318
-270
-224
-214
-181
-151
-164
-123
-80
-164
-83
455
1243
1898
1736
346
-954
-713
137
226
5
70
116
64
98
134
129
152
176
185
214
246
261
287
327
361
393
435
478
520
568
619
666
708
739
751
737
675
537
343
153
-13
-160
-270
-326
-352
-366
-367
-357
-347
-341
-338
-329
-320
-323
-329
-322
-316
-323
-325
-316
-316
-322
-318
-308
-300
-295
-290
-287
-283
-277
-271
-264
-259
-257
-251
-236
-230
-232
-227
-214
-209
-223
-242
-253
-257
-241
-187
-125
-103
-120
-153
-162
-140
-148
-153
-97
-123
-201
17
602
1419
2148
1720
-58
-1164
-525
217
84
-66
50
35
-1
60
76
77
115
132
147
184
208
227
267
306
335
366
402
446
496
537
568
602
634
654
664
645
571
445
289
125
-22
-136
-219
-272
-299
-310
-313
-310
-302
-296
-294
-294
-294
-295
-297
-299
-304
-306
-301
-295
-297
-302
-297
-286
-280
-283
-281
-270
-257
-247
-242
-243
-245
-236
-225
-221
-213
-201
-198
-200
-197
-184
-168
-162
-168
-168
-158
-155
-161
-168
-181
-200
-221
-229
-205
-164
-145
-128
-104
-109
-97
-40
-71
-114
125
684
1513
2239
1696
-126
-1092
-374
295
126
6
123
98
64
119
124
116
148
161
166
194
218
232
250
269
288
312
339
363
386
411
434
447
454
456
442
417
378
302
193
84
-9
-94
-159
-197
-220
-235
-241
-241
-239
-236
-237
-239
-246
-260
-269
-266
-265
-273
-287
-292
-285
-281
-286
-287
-280
-277
-275
-273
-267
-251
-245
-250
-237
-215
-216
-217
-200
-195
-197
-178
-161
-169
-174
-162
-159
-164
-158
-155
-170
-191
-206
-199
-167
-147
-138
-113
-105
-109
-68
-58
-113
2
510
1465
2380
1955
-1
-1313
-723
154
129
-37
59
64
29
78
88
81
118
134
133
161
192
210
231
256
277
301
328
350
369
390
410
421
423
422
414
384
333
270
192
93
-3
-73
-119
-149
-167
-175
-176
-172
-170
-169
-166
-168
-178
-189
-194
-197
-210
-225
-227
-222
-226
-239
-243
-241
-242
-240
-239
-239
-236
-234
-233
-226
-217
-216
-216
-213
-211
-206
-197
-197
-198
-188
-186
-200
-206
-201
-207
-218
-236
-256
-240
-202
-196
-188
-158
-168
-164
-99
-124
-120
331
1185
1899
1795
471
-1094
-1244
-277
185
15
-1
86
43
40
90
91
98
126
136
155
188
211
231
258
283
315
356
391
425
464
498
528
571
604
601
605
616
529
326
136
18
-101
-234
-301
-305
-337
-384
-366
-308
-285
-286
-277
-271
-277
-277
-271
-269
-267
-264
-263
-261
-255
-252
-249
-244
-240
-238
-231
-224
-221
-219
-215
-210
-205
-199
-192
-186
-184
-180
-171
-163
-161
-159
-161
-178
-206
-224
-210
-181
-169
-153
-120
-123
-117
-60
-84
-128
113
738
1711
2482
1768
-213
-1140
-363
251
46
-43
79
39
12
76
76
64
99
120
129
151
171
192
223
259
295
324
358
402
441
470
507
548
578
595
597
568
495
366
202
41
-96
-209
-291
-342
-368
-374
-366
-361
-361
-355
-343
-338
-343
-345
-343
-348
-355
-351
-345
-341
-335
-333
-335
-327
-313
-307
-304
-296
-290
-287
-284
-278
-270
-264
-260
-251
-243
-244
-244
-240
-251
-250
-208
-156
-131
-139
-174
-184
-159
-167
-159
-105
-157
-143
379
1261
1831
1489
135
-1143
-1048
-154
166
6
21
85
48
65
109
109
126
156
174
205
241
259
278
314
355
394
436
483
533
583
629
668
710
755
779
758
681
537
341
143
-28
-169
-272
-331
-362
-373
-368
-360
-353
-342
-331
-323
-319
-316
-316
-318
-319
-318
-320
-321
-317
-313
-313
-310
-301
-298
-304
-304
-301
-307
-303
-276
-242
-200
-151
-141
-179
-218
-228
-207
-200
-214
-173
-141
-215
-170
214
988
2072
2437
996
-844
-923
-6
149
-125
-75
-18
-89
-58
0
-2
13
43
62
92
122
146
181
224
260
289
320
365
414
459
501
545
585
613
627
607
524
376
199
21
-140
-266
-346
-394
-418
-423
-420
-420
-416
-404
-391
-380
-379
-383
-373
-358
-357
-354
-339
-332
-337
-332
-319
-311
-305
-299
-293
-286
-277
-274
-283
-282
-252
-196
-143
-131
-159
-192
-213
-211
-184
-189
-196
-139
-156
-224
63
824
1681
2021
1145
-530
-1216
-480
133
18
-64
32
12
-3
55
68
73
112
136
152
184
214
243
282
320
357
399
447
499
554
608
662
714
752
778
780
713
558
351
145
-35
-180
-284
-347
-377
-388
-391
-379
-358
-345
-341
-334
-325
-323
-323
-322
-323
-324
-323
-323
-325
-322
-317
-316
-320
-332
-348
-345
-336
-334
-295
-215
-185
-225
-259
-269
-266
-249
-258
-258
-201
-231
-312
-70
640
1599
2169
1406
-286
-989
-326
136
-62
-138
-44
-76
-88
-30
-17
-7
34
58
76
114
154
181
210
257
304
343
397
465
522
572
629
682
717
731
708
618
450
239
34
-137
-267
-353
-402
-423
-427
-421
-408
-395
-387
-382
-374
-366
-361
-361
-360
-352
-345
-343
-339
-333
-326
-317
-313
-314
-315
-318
-323
-318
-303
-264
-196
-157
-178
-214
-234
-229
-205
-214
-218
-159
-186
-291
-107
551
1591
2447
1895
16
-1012
-384
191
-11
-126
-17
-46
-64
3
12
17
58
77
98
140
167
193
236
276
311
356
404
454
508
558
601
646
688
709
695
625
483
292
102
-60
-192
-286
-334
-352
-362
-365
-361
-353
-344
-336
-337
-339
-338
-338
-337
-330
-328
-332
-330
-322
-319
-316
-312
-310
-303
-287
-275
-274
-273
-267
-261
-253
-243
-240
-245
-250
-255
-260
-257
-238
-185
-114
-90
-122
-151
-160
-157
-139
-149
-155
-99
-119
-212
-34
561
1499
2353
1934
105
-1030
-439
230
67
-78
35
19
-13
44
57
65
112
133
142
177
211
237
269
302
330
365
405
444
481
514
547
579
603
615
620
598
520
388
237
95
-27
-124
-191
-235
-262
-271
-270
-273
-277
-278
-284
-291
-296
-302
-313
-313
-305
-306
-315
-314
-303
-299
-299
-293
-287
-285
-283
-275
-268
-262
-256
-251
-245
-240
-233
-221
-209
-202
-198
-191
-187
-188
-181
-171
-167
-168
-163
-152
-147
-157
-167
-171
-186
-210
-224
-218
-191
-156
-136
-112
-80
-89
-92
-32
-51
-126
67
626
1482
2244
1762
-40
-1067
-387
301
131
-9
108
87
50
110
119
108
140
164
175
199
222
242
268
295
318
343
373
402
425
447
469
486
500
511
510
489
448
373
258
135
28
-67
-145
-194
-223
-246
-256
-260
-265
-271
-276
-284
-292
-298
-302
-304
-306
-309
-309
-306
-300
-293
-292
-293
-286
-275
-272
-273
-269
-261
-252
-248
-245
-234
-225
-222
-216
-205
-200
-200
-193
-180
-175
-176
-168
-157
-165
-173
-164
-168
-196
-222
-240
-235
-195
-165
-152
-122
-115
-122
-66
-57
-139
4
535
1348
2126
1842
148
-1084
-556
258
182
-8
98
100
49
105
127
115
146
170
177
201
225
243
269
295
318
345
375
400
424
448
469
484
493
492
482
458
410
325
205
77
-33
-118
-181
-223
-248
-263
-272
-273
-268
-270
-275
-276
-277
-283
-287
-289
-291
-290
-286
-284
-281
-275
-271
-273
-273
-270
-266
-260
-250
-245
-243
-236
-231
-227
-218
-207
-206
-207
-202
-196
-194
-189
-187
-191
-189
-183
-197
-219
-238
-265
-266
-221
-185
-161
-124
-128
-136
-75
-87
-149
122
838
1706
2121
1215
-574
-1240
-375
266
100
14
123
93
76
136
142
147
184
196
206
240
264
282
312
343
370
400
434
469
505
537
565
588
604
611
606
574
490
353
194
47
-75
-171
-237
-275
-293
-299
-300
-299
-294
-291
-293
-297
-299
-304
-309
-309
-310
-315
-317
-310
-306
-309
-306
-299
-296
-292
-286
-281
-275
-264
-255
-249
-242
-234
-224
-216
-213
-207
-197
-188
-183
-180
-177
-170
-165
-162
-155
-150
-158
-166
-171
-188
-219
-245
-241
-203
-166
-144
-110
-98
-112
-67
-37
-121
-57
411
1209
2037
2007
553
-858
-643
193
246
16
86
121
62
101
134
121
149
181
187
207
235
255
283
313
337
366
398
429
462
496
524
550
575
592
592
574
529
439
299
146
11
-102
-190
-245
-274
-291
-298
-303
-306
-304
-301
-307
-317
-323
-320
-316
-320
-327
-324
-316
-314
-316
-312
-305
-300
-293
-286
-278
-268
-261
-258
-253
-248
-242
-231
-223
-223
-219
-205
-198
-200
-198
-187
-178
-172
-165
-162
-163
-162
-150
-139
-146
-159
-163
-172
-197
-222
-231
-213
-176
-149
-126
-92
-97
-100
-29
-33
-122
64
644
1453
2141
1740
83
-965
-372
329
186
21
133
121
76
131
147
139
170
188
191
217
245
262
280
301
330
363
387
410
445
475
489
500
511
507
487
464
426
343
221
95
-15
-103
-159
-190
-218
-241
-249
-251
-260
-267
-268
-275
-290
-304
-312
-309
-300
-298
-299
-296
-297
-300
-298
-293
-287
-279
-271
-265
-255
-251
-253
-250
-238
-224
-215
-214
-209
-194
-184
-185
-181
-168
-165
-167
-163
-158
-148
-137
-134
-138
-139
-135
-134
-151
-174
-182
-192
-210
-194
-158
-144
-115
-80
-90
-73
-26
-85
-73
324
1089
1956
2105
755
-900
-937
40
311
68
96
163
97
114
158
144
158
184
190
214
240
251
274
302
311
327
359
381
392
404
414
418
417
402
380
363
332
266
183
92
-8
-87
-128
-160
-198
-218
-219
-226
-234
-234
-240
-256
-258
-249
-255
-265
-266
-266
-268
-270
-278
-280
-263
-252
-258
-254
-246
-255
-257
-237
-225
-227
-220
-206
-203
-206
-206
-201
-192
-183
-182
-182
-174
-163
-162
-163
-153
-147
-153
-152
-151
-170
-190
-203
-213
-199
-170
-149
-117
-93
-106
-83
-42
-93
-60
346
1170
2123
2187
621
-1071
-968
54
274
22
63
124
59
80
120
110
128
159
170
190
216
231
248
270
287
305
325
341
357
371
372
360
350
340
316
283
247
193
109
19
-40
-80
-126
-167
-188
-203
-215
-214
-206
-208
-219
-222
-219
-222
-231
-239
-240
-236
-233
-235
-236
-233
-234
-237
-227
-212
-213
-217
-206
-197
-199
-198
-189
-180
-174
-171
-170
-163
-156
-153
-150
-142
-132
-126
-130
-139
-131
-124
-137
-147
-156
-184
-190
-153
-126
-114
-89
-83
-69
-31
-63
-73
217
938
1957
2403
1182
-762
-1166
-165
311
74
40
135
80
77
133
127
129
160
166
173
201
225
238
249
261
279
300
317
328
336
339
331
315
293
266
236
206
160
91
13
-54
-111
-159
-191
-209
-223
-231
-229
-228
-233
-236
-240
-246
-249
-248
-253
-257
-256
-260
-265
-265
-264
-265
-269
-273
-265
-251
-253
-261
-253
-238
-240
-248
-241
-230
-230
-231
-225
-221
-221
-216
-206
-203
-205
-209
-222
-234
-237
-264
-305
-289
-235
-208
-182
-156
-161
-131
-97
-152
-46
545
1479
2116
1547
-211
-1396
-866
64
163
2
83
109
67
112
142
140
175
206
212
236
267
291
319
353
384
414
445
484
529
568
595
620
638
645
640
617
547
419
260
109
-21
-128
-204
-243
-258
-264
-267
-260
-247
-240
-241
-236
-226
-224
-227
-227
-227
-230
-229
-223
-217
-215
-215
-211
-202
-196
-192
-186
-181
-175
-164
-160
-164
-157
-143
-140
-139
-127
-122
-124
-114
-106
-121
-146
-160
-171
-184
-169
-113
-70
-82
-87
-69
-82
-72
-23
-81
-122
208
970
1911
2254
1145
-543
-937
-139
324
50
