# session 19
32
32
30
24
-10
-47
6
242
804
1642
1921
849
-649
-963
-302
44
-60
-77
-21
-34
-34
-19
-21
-4
17
24
45
68
77
93
116
139
170
196
209
230
263
289
307
325
331
323
303
261
198
130
62
-12
-78
-123
-149
-165
-170
-168
-164
-153
-141
-138
-136
-125
-122
-129
-132
-133
-139
-140
-137
-143
-151
-157
-164
-169
-183
-201
-183
-142
-148
-182
-164
-127
-133
-141
-117
-117
-148
-149
-125
-131
-144
-129
-114
-115
-106
-97
-105
-110
-104
-107
-116
-115
-121
-135
-150
-176
-193
-168
-130
-102
-78
-82
-73
-30
-64
-80
220
835
1581
1991
1182
-510
-1195
-468
75
-81
-146
-27
-38
-59
-13
-6
-11
15
37
58
100
149
169
172
210
278
327
358
403
452
495
535
562
565
553
516
428
301
179
73
-32
-129
-200
-246
-268
-271
-274
-271
-259
-253
-247
-229
-221
-227
-225
-223
-231
-232
-230
-230
-217
-204
-214
-224
-216
-207
-214
-228
-223
-195
-170
-166
-169
-166
-164
-168
-166
-150
-138
-144
-148
-135
-121
-113
-114
-123
-125
-119
-124
-141
-166
-196
-196
-168
-138
-92
-63
-86
-58
-16
-92
13
591
1304
1706
1398
134
-1094
-980
-148
91
-63
-21
30
-14
17
65
54
61
102
130
145
169
209
247
282
328
374
411
461
536
607
659
692
709
710
682
602
469
313
171
49
-67
-167
-227
-255
-270
-275
-269
-259
-246
-229
-220
-228
-233
-222
-215
-221
-225
-231
-238
-235
-227
-231
-241
-243
-241
-238
-238
-239
-234
-222
-217
-217
-211
-202
-196
-193
-195
-192
-181
-174
-178
-178
-172
-169
-169
-164
-159
-157
-152
-145
-140
-131
-125
-129
-128
-119
-122
-132
-141
-161
-196
-210
-181
-149
-149
-122
-61
-59
-59
4
-41
-86
252
867
1501
1953
1416
-133
-936
-341
155
-33
-112
0
-34
-54
9
16
12
45
69
90
121
141
165
209
255
294
335
380
436
500
557
598
629
648
646
616
545
430
302
181
64
-44
-125
-179
-215
-231
-232
-231
-230
-222
-211
-207
-214
-218
-214
-211
-218
-227
-224
-217
-217
-219
-221
-226
-227
-222
-218
-218
-213
-206
-203
-199
-191
-184
-183
-181
-176
-171
-167
-161
-157
-152
-144
-137
-133
-132
-129
-125
-121
-119
-117
-110
-103
-99
-97
-96
-97
-96
-93
-91
-89
-87
-90
-100
-109
-120
-137
-160
-177
-162
-130
-123
-103
-54
-52
-54
4
-21
-58
240
824
1430
1781
1168
-306
-1000
-368
161
9
-76
25
-1
-23
33
44
45
77
93
104
131
154
178
213
247
280
320
363
405
449
493
527
550
564
565
539
479
384
272
163
60
-33
-107
-157
-188
-204
-209
-209
-207
-201
-196
-193
-192
-194
-196
-198
-200
-204
-209
-212
-212
-211
-212
-214
-213
-212
-211
-209
-205
-200
-194
-189
-184
-178
-172
-168
-162
-156
-152
-148
-142
-135
-130
-129
-130
-125
-117
-114
-115
-113
-109
-106
-104
-103
-101
-97
-93
-89
-87
-86
-83
-78
-73
-71
-73
-80
-90
-102
-116
-134
-158
-162
-138
-121
-104
-58
-45
-53
-4
-7
-66
150
708
1365
1829
1396
-76
-1050
-572
101
50
-83
9
7
-31
19
40
33
60
82
92
118
148
173
200
227
258
295
334
378
427
467
493
517
540
545
524
474
392
290
187
88
-6
-86
-142
-175
-191
-202
-208
-202
-191
-188
-192
-193
-194
-199
-200
-198
-202
-209
-208
-206
-214
-222
-220
-215
-215
-214
-214
-214
-210
-204
-200
-194
-187
-184
-183
-176
-169
-165
-160
-153
-148
-144
-140
-136
-132
-126
-121
-118
-115
-110
-108
-109
-106
-98
-94
-93
-90
-85
-85
-82
-76
-77
-81
-84
-95
-109
-124
-153
-169
-144
-117
-94
-53
-45
-49
4
-9
-57
223
860
1534
1856
1166
-375
-1128
-486
126
19
-81
18
6
-20
29
43
45
77
95
107
137
164
188
221
256
290
329
371
412
454
496
532
555
564
560
536
475
376
260
148
46
-46
-120
-170
-195
-206
-211
-211
-207
-200
-196
-194
-193
-192
-193
-194
-197
-202
-207
-209
-213
-217
-220
-219
-218
-217
-216
-215
-215
-214
-209
-203
-197
-191
-185
-181
-176
-167
-160
-156
-152
-147
-146
-143
-137
-131
-126
-120
-115
-114
-113
-109
-105
-101
-96
-93
-91
-90
-88
-86
-84
-84
-83
-86
-95
-106
-118
-133
-156
-169
-152
-131
-117
-77
-48
-56
-20
7
-57
38
508
1207
1823
1664
313
-969
-799
-14
106
-73
-15
25
-22
11
48
43
65
94
105
124
150
172
202
235
266
303
345
383
422
462
499
529
548
549
531
491
416
310
200
101
10
-69
-131
-171
-192
-198
-199
-200
-195
-190
-187
-182
-178
-182
-187
-188
-190
-196
-203
-206
-208
-210
-212
-210
-207
-206
-206
-205
-203
-200
-195
-192
-191
-184
-174
-169
-165
-159
-153
-147
-142
-137
-134
-133
-134
-129
-119
-114
-116
-113
-108
-106
-104
-100
-96
-94
-92
-88
-84
-82
-81
-79
-75
-79
-88
-98
-108
-125
-151
-166
-145
-122
-111
-76
-44
-53
-27
7
-44
31
473
1181
1824
1688
346
-977
-861
-57
114
-65
-22
25
-17
10
45
37
55
83
92
109
134
155
182
215
246
279
314
351
393
432
462
486
501
501
486
448
379
286
187
93
5
-70
-128
-165
-184
-193
-195
-192
-185
-181
-178
-175
-173
-176
-180
-182
-185
-188
-191
-193
-196
-197
-198
-199
-199
-197
-196
-197
-196
-191
-186
-182
-176
-167
-161
-159
-155
-149
-145
-140
-135
-132
-130
-126
-121
-119
-116
-112
-107
-104
-100
-94
-93
-94
-90
-84
-80
-81
-81
-77
-76
-82
-89
-95
-106
-125
-152
-165
-147
-124
-103
-64
-44
-50
-14
-4
-52
101
616
1356
1924
1493
-59
-1139
-699
48
64
-80
0
12
-27
15
39
35
62
85
93
117
143
163
189
219
250
285
323
361
399
435
463
484
497
495
477
435
361
263
162
69
-15
-89
-145
-178
-192
-197
-199
-196
-190
-184
-181
-182
-184
-183
-184
-190
-196
-198
-198
-200
-204
-206
-208
-209
-206
-201
-199
-200
-200
-197
-192
-186
-180
-173
-168
-166
-163
-157
-149
-143
-141
-141
-138
-132
-126
-122
-116
-111
-110
-110
-106
-101
-99
-97
-94
-88
-82
-80
-82
-84
-86
-91
-101
-117
-145
-170
-160
-131
-110
-76
-47
-53
-28
9
-32
43
500
1253
1895
1684
271
-1081
-964
-122
103
-59
-23
28
-10
10
40
36
57
84
93
115
147
169
193
221
248
284
330
371
407
451
493
520
540
549
532
487
418
314
193
87
-3
-88
-157
-197
-215
-221
-219
-215
-211
-203
-194
-193
-197
-197
-199
-202
-202
-202
-205
-209
-213
-218
-218
-218
-217
-216
-216
-213
-208
-204
-201
-194
-186
-181
-179
-175
-170
-165
-159
-153
-148
-144
-138
-131
-127
-126
-122
-120
-119
-114
-109
-112
-115
-117
-130
-152
-178
-205
-200
-163
-134
-107
-77
-78
-61
-14
-55
-51
308
1022
1805
1980
838
-768
-1065
-250
117
-69
-82
-7
-50
-43
6
5
13
44
56
72
102
127
150
182
221
257
288
328
385
438
476
508
530
537
526
488
407
294
177
61
-48
-130
-184
-225
-247
-248
-256
-263
-235
-198
-191
-193
-194
-219
-237
-202
-164
-167
-173
-165
-171
-182
-180
-179
-182
-178
-172
-172
-173
-170
-165
-158
-152
-148
-145
-143
-143
-138
-126
-120
-125
-126
-114
-104
-104
-106
-104
-103
-101
-96
-92
-82
-70
-69
-76
-76
-73
-73
-70
-64
-67
-80
-90
-93
-101
-125
-148
-144
-133
-133
-92
-18
-13
-25
37
19
-51
195
803
1537
2049
1514
-97
-1033
-461
170
46
-73
39
15
-29
39
56
34
76
120
124
130
144
162
199
230
244
295
381
413
392
427
505
533
539
558
508
387
312
275
162
-13
-118
-140
-195
-277
-288
-274
-301
-305
-280
-311
-361
-342
-275
-236
-247
-248
-218
-234
-298
-293
-211
-158
-170
-210
-229
-203
-172
-164
-151
-125
-116
-136
-161
-152
-110
-97
-119
-105
-79
-112
-142
-104
-76
-95
-80
-30
-32
-86
-89
-32
-51
-140
-123
-36
-46
-96
-118
-160
-166
-105
-101
-143
-116
-84
-117
-118
-105
-199
-305
-281
-241
-284
-298
-250
-226
-216
-206
-212
-150
-79
-171
-164
304
1044
1737
1862
667
-1036
-1287
-319
55
-194
-138
20
-47
-60
22
29
30
55
56
99
195
245
266
325
386
430
504
596
666
739
842
939
1002
1055
1095
1079
977
804
601
395
204
48
-80
-180
-228
-243
-273
-299
-284
-254
-243
-231
-215
-213
-217
-224
-246
-250
-220
-208
-233
-249
-256
-273
-279
-274
-286
-294
-277
-274
-291
-283
-253
-242
-245
-249
-275
-307
-291
-241
-225
-239
-225
-200
-223
-265
-252
-201
-187
-193
-173
-193
-261
-237
-109
-62
-127
-161
-148
-159
-191
-216
-231
-241
-264
-286
-266
-232
-207
-162
-137
-144
-94
-82
-175
-24
605
1542
2348
2000
167
-1265
-853
10
14
-161
-49
-24
-65
-9
20
16
51
80
98
138
173
202
248
304
359
417
475
536
616
711
795
857
901
929
925
853
701
503
299
102
-77
-214
-308
-371
-402
-408
-401
-386
-369
-354
-340
-326
-317
-311
-304
-301
-302
-298
-291
-289
-288
-286
-288
-288
-280
-276
-277
-272
-265
-266
-261
-246
-234
-229
-227
-227
-224
-215
-205
-200
-193
-184
-177
-171
-167
-165
-161
-156
-153
-151
-159
-180
-197
-216
-254
-263
-219
-187
-163
-120
-118
-111
-37
-79
-161
198
1018
1834
2074
1052
-727
-1345
-477
143
-20
-91
24
-2
-13
51
62
70
117
143
163
202
238
273
323
377
432
494
568
651
736
820
899
966
1012
1024
977
850
657
440
230
40
-121
-241
-319
-361
-375
-373
-364
-350
-338
-325
-309
-297
-291
-286
-283
-282
-281
-278
-276
-276
-276
-278
-279
-278
-277
-280
-282
-278
-275
-275
-270
-261
-256
-250
-243
-237
-232
-224
-217
-213
-207
-203
-200
-193
-187
-184
-181
-174
-169
-166
-163
-162
-162
-161
-157
-152
-154
-157
-158
-165
-178
-195
-212
-199
-160
-137
-102
-60
-71
-59
-2
-63
-86
297
1079
2003
2348
1136
-776
-1205
-269
151
-92
-104
0
-49
-40
25
25
38
84
106
122
154
183
213
253
300
354
416
479
540
602
671
746
805
837
847
827
742
592
417
243
74
-78
-189
-259
-303
-329
-340
-338
-326
-317
-315
-311
-304
-307
-314
-313
-313
-319
-322
-323
-325
-325
-324
-324
-322
-320
-319
-315
-308
-303
-297
-288
-279
-271
-263
-255
-247
-239
-230
-221
-214
-209
-199
-187
-179
-170
-161
-161
-164
-166
-177
-189
-209
-242
-239
-188
-151
-123
-89
-96
-75
-14
-77
-79
409
1287
2025
1919
509
-1094
-1173
-215
139
-60
-41
45
-1
15
69
69
82
116
131
155
192
225
263
308
355
408
473
547
624
697
770
838
888
914
909
848
712
524
325
137
-31
-168
-268
-328
-352
-354
-351
-343
-328
-316
-310
-302
-294
-292
-292
-292
-296
-299
-299
-296
-293
-289
-288
-285
-282
-290
-298
-288
-270
-263
-262
-260
-256
-249
-240
-231
-223
-218
-215
-211
-203
-193
-189
-186
-178
-174
-183
-188
-190
-202
-209
-217
-259
-284
-245
-203
-175
-135
-137
-138
-62
-87
-128
314
1163
1749
1586
435
-1064
-1407
-510
96
-10
-61
40
24
22
83
95
100
137
161
184
222
256
292
342
393
445
506
574
648
728
805
871
926
968
978
927
802
622
419
221
42
-106
-216
-283
-313
-321
-319
-315
-306
-298
-293
-289
-286
-287
-291
-293
-297
-303
-307
-308
-309
-312
-313
-310
-309
-308
-302
-293
-288
-283
-274
-267
-262
-256
-250
-246
-243
-237
-229
-223
-220
-216
-209
-206
-202
-194
-191
-194
-201
-218
-238
-263
-290
-278
-226
-199
-178
-135
-137
-132
-60
-104
-174
179
942
1723
2019
1096
-596
-1173
-363
150
-51
-110
2
-27
-30
33
40
50
93
114
132
169
205
241
284
332
387
451
516
586
661
735
803
857
894
905
870
765
599
405
215
42
-109
-224
-295
-330
-343
-346
-342
-336
-330
-324
-317
-312
-311
-311
-308
-305
-304
-304
-304
-302
-299
-295
-292
-290
-288
-283
-275
-267
-260
-254
-246
-237
-229
-225
-220
-210
-201
-197
-192
-181
-172
-168
-163
-157
-153
-150
-143
-140
-142
-147
-158
-178
-198
-224
-235
-198
-156
-145
-112
-85
-101
-61
-20
-111
-32
499
1280
1973
1861
383
-1119
-962
-30
129
-93
-26
29
-26
13
60
52
74
108
125
151
185
217
257
301
346
393
446
513
583
639
695
763
815
835
828
782
671
510
335
164
5
-130
-228
-283
-313
-331
-335
-330
-327
-325
-317
-313
-322
-329
-329
-326
-326
-328
-330
-330
-326
-323
-324
-326
-327
-321
-312
-305
-303
-299
-294
-290
-284
-274
-265
-260
-255
-252
-250
-240
-226
-219
-218
-212
-203
-203
-203
-196
-205
-222
-231
-260
-289
-257
-205
-181
-142
-125
-138
-81
-63
-148
82
811
1557
1776
1008
-547
-1393
-751
55
70
-56
41
57
29
84
111
110
145
176
193
226
264
298
339
384
432
489
551
616
685
754
817
869
904
921
900
816
665
482
301
133
-15
-128
-199
-237
-254
-255
-247
-239
-233
-227
-219
-213
-209
-208
-208
-208
-211
-214
-217
-218
-218
-215
-214
-215
-215
-212
-208
-203
-197
-190
-186
-181
-175
-171
-169
-163
-157
-154
-154
-151
-146
-141
-141
-141
-138
-135
-135
-133
-135
-144
-154
-167
-191
-222
-258
-272
-236
-201
-193
-163
-144
-169
-134
-103
-203
-132
394
1190
1925
1838
350
-1171
-1045
-174
-70
-310
-251
-211
-281
-254
-222
-242
-229
-208
-210
-197
-176
-162
-141
-112
-85
-54
-17
26
73
120
164
