# session 12
-27
6
-76
-34
199
157
-221
-277
-2
-63
-293
-149
-14
-232
-206
184
183
-63
228
475
-39
-248
438
761
422
495
1167
1950
2167
1040
-437
-465
272
237
-90
19
147
112
150
207
172
114
192
436
581
547
593
668
549
377
278
280
491
656
510
343
147
-299
-451
-115
-64
-295
-180
-53
-326
-510
-356
-264
-355
-401
-379
-399
-401
-358
-443
-598
-517
-286
-192
-150
-110
-226
-388
-413
-360
-315
-332
-344
-182
-28
-163
-396
-482
-356
135
874
1344
884
-693
-1883
-1079
252
55
-479
32
413
50
-78
143
163
135
248
333
391
453
419
370
405
462
532
547
384
222
251
242
50
-112
-148
-118
-56
3
90
145
-12
-151
45
173
-95
-315
-318
-431
-527
-364
-224
-289
-338
-290
-279
-325
-339
-279
-207
-209
-249
-267
-334
-396
-277
-188
-353
-332
191
816
1114
637
-796
-1901
-1424
-429
-310
-493
-228
84
164
152
55
52
229
215
129
482
829
628
526
885
1034
857
797
741
524
357
263
108
-63
-131
-78
-33
-96
-166
-151
-134
-171
-205
-215
-230
-214
-139
-100
-127
-129
-109
-115
-98
-76
-78
50
306
342
102
-15
43
18
2
63
-16
-88
169
825
1773
2078
727
-1022
-1152
-257
45
-89
-40
-19
-114
-114
-59
-70
-95
-48
24
68
193
381
423
371
452
577
518
235
-116
-235
-96
-110
-378
-543
-581
-686
-683
-486
-407
-535
-551
-326
-185
-345
-465
-281
-163
-353
-496
-404
-301
-266
-214
-185
-233
-319
-378
-370
-341
-354
-347
-307
-343
-348
-148
281
1292
2700
2693
619
-1018
-655
49
-30
-131
-42
-104
-97
83
157
115
150
254
335
395
446
497
615
775
801
687
645
685
584
318
73
-91
-214
-289
-324
-354
-379
-396
-411
-424
-428
-394
-345
-358
-400
-377
-354
-430
-488
-444
-472
-556
-460
-357
-511
-621
-473
-362
-315
-180
-219
-465
-450
-14
933
2412
2976
1225
-1030
-1284
-384
-138
-269
-202
-206
-241
-106
8
32
100
180
200
254
424
590
629
672
822
895
816
753
703
525
275
97
11
-51
-161
-278
-268
-142
-95
-219
-348
-307
-211
-284
-427
-387
-228
-178
-241
-307
-358
-384
-337
-270
-307
-386
-335
-214
-160
-163
-256
-313
12
638
1123
1071
78
-1366
-1815
-1120
-462
-221
-265
-511
-382
130
255
93
113
70
-6
257
581
636
651
760
834
857
849
786
672
483
251
79
-53
-199
-276
-275
-292
-305
-247
-146
-45
-2
-54
-106
-76
-47
-70
-68
-29
-37
-67
-34
-4
-41
-40
-1
-80
-219
-216
-174
-323
-456
-222
290
1106
2209
2241
302
-1475
-1105
-86
-88
-355
-216
-145
-248
-281
-267
-208
-74
20
76
202
345
404
409
420
440
406
253
49
-70
-128
-228
-359
-422
-396
-399
-461
-414
-294
-325
-396
-322
-281
-369
-408
-384
-385
-383
-371
-386
-406
-404
-373
-325
-289
-254
-223
-228
-195
-107
-97
-107
21
423
1640
3403
3491
1107
-889
-649
78
0
-165
-96
3
133
40
-258
-175
215
253
27
88
380
569
669
761
784
715
565
403
318
187
-136
-416
-432
-389
-449
-490
-473
-480
-507
-514
-488
-491
-582
-641
-620
-696
-773
-643
-588
-771
-769
-477
-313
-375
-445
-470
-463
-388
-305
-275
-195
61
719
1950
2708
1461
-737
-1322
-489
-146
-312
-191
-45
-89
-34
83
87
96
220
364
475
594
672
691
800
963
980
942
940
775
527
467
405
184
94
132
-12
-185
-101
-2
-135
-264
-215
-174
-189
-121
-33
-46
-113
-200
-281
-231
-106
-160
-379
-503
-545
-643
-621
-390
-261
-240
89
700
1126
912
-175
-1419
-1602
-887
-437
-484
-547
-469
-331
-238
-209
-133
-47
-14
113
325
401
363
415
564
679
697
644
576
505
388
212
37
-98
-203
-272
-274
-240
-238
-261
-264
-258
-259
-232
-173
-115
-63
-48
-122
-218
-207
-66
124
220
105
-96
-128
-15
18
-116
-292
-280
-36
402
1316
2282
1748
-176
-1144
-520
-13
-202
-310
-216
-206
-228
-207
-202
-250
-245
-92
79
186
367
576
594
473
415
392
225
-80
-274
-269
-270
-321
-284
-294
-485
-570
-410
-347
-436
-330
-99
-105
-260
-280
-235
-254
-274
-276
-294
-254
-126
-1
25
-140
-426
-490
-240
-83
-156
-118
150
884
2520
3791
2573
-8
-895
-199
95
-57
-15
-21
-85
-13
-6
-72
39
256
285
120
46
154
226
202
221
299
350
331
246
151
50
-85
-185
-260
-389
-435
-315
-286
-425
-471
-393
-400
-493
-529
-493
-501
-588
-623
-540
-513
-606
-615
-521
-545
-624
-506
-299
-255
-353
-483
-525
-252
600
2017
2829
1545
-693
-1238
-331
14
-186
-102
-37
-166
-160
-46
42
118
146
183
316
426
456
541
679
742
745
747
701
584
454
316
164
61
39
38
14
-25
-78
-138
-147
-84
-36
-79
-157
-170
-147
-206
-312
-296
-161
-76
-86
-101
-127
-210
-210
-65
-108
-422
-432
169
1022
1613
1208
-365
-1588
-1229
-386
-266
-370
-225
-214
-402
-430
-260
-122
-77
-28
10
3
113
373
472
322
285
468
546
429
340
322
249
97
-54
-129
-151
-190
-215
-203
-237
-315
-326
-287
-312
-367
-355
-354
-427
-428
-318
-244
-189
-99
-98
-197
-215
-105
-21
-105
-181
39
506
1264
2206
2055
238
-1198
-840
-160
-208
-254
-97
-107
-101
16
50
71
144
156
171
271
353
418
548
618
528
421
387
326
188
16
-150
-272
-333
-354
-365
-356
-335
-381
-513
-569
-459
-371
-456
-561
-483
-306
-283
-409
-414
-271
-229
-299
-315
-276
-172
-47
-125
-276
-88
495
1480
2476
2021
-68
-1387
-788
-57
-183
-275
-85
-64
-89
47
148
156
210
298
364
476
631
700
682
703
714
606
492
459
390
259
155
72
1
-51
-141
-246
-273
-236
-199
-166
-140
-156
-208
-244
-278
-356
-374
-278
-273
-400
-403
-312
-391
-494
-379
-305
-446
-333
299
1016
1299
719
-684
-1639
-1158
-284
-206
-439
-388
-333
-337
-176
1
6
-61
-84
31
311
542
567
556
638
690
632
546
497
436
287
79
-76
-134
-155
-192
-240
-257
-243
-236
-218
-168
-165
-216
-195
-131
-154
-190
-131
-73
-69
-29
24
-36
-171
-192
-110
-152
-207
86
644
1310
1946
1588
-97
-1261
-756
-43
-121
-233
-100
-161
-287
-164
12
-12
-78
31
193
227
235
329
434
487
490
424
309
188
63
-57
-164
-291
-427
-506
-524
-483
-374
-353
-467
-422
-188
-165
-322
-305
-249
-358
-388
-240
-147
-153
-176
-238
-289
-229
-177
-285
-368
-164
276
1027
2081
2259
691
-939
-872
-116
3
-90
-14
-19
9
164
215
197
251
292
295
335
369
366
374
387
373
334
250
131
64
88
124
91
-3
-96
-118
-66
-30
-85
-156
-166
-174
-224
-267
-308
-350
-323
-267
-289
-328
-312
-306
-329
-359
-412
-428
-396
-382
-226
193
735
1282
1295
90
-1396
-1497
-626
-242
-306
-201
-107
-206
-266
-170
-13
85
106
167
311
425
484
567
643
656
658
658
561
380
233
114
-68
-245
-262
-151
-69
-74
-123
-170
-170
-134
-121
-146
-163
-145
-128
-136
-138
-132
-167
-208
-208
-216
-199
-148
-197
-207
91
672
1546
2232
1454
-441
-1184
-457
-72
-316
-268
-110
-268
-382
-239
-97
-72
-68
-30
43
144
250
331
379
382
328
299
344
328
143
-75
-199
-290
-375
-395
-392
-437
-451
-360
-253
-228
-267
-302
-314
-327
-349
-370
-362
-318
-315
-377
-385
-319
-276
-223
-168
-208
-233
25
953
2538
3209
1534
-705
-995
-185
-90
-321
-219
-172
-234
-148
-78
-97
-20
97
106
130
273
393
432
466
474
449
466
449
321
198
125
32
-12
27
-16
-175
-259
-225
-232
-314
-359
-358
-378
-398
-381
-370
-371
-336
-299
-305
-292
-264
-299
-298
-231
-270
-316
-227
71
1278
3176
3233
685
-1247
-859
-224
-418
-486
-326
-363
-375
-286
-268
-230
-128
-83
-82
-38
47
130
177
190
218
261
247
177
156
186
141
-17
-181
-235
-180
-152
-239
-336
-355
-360
-400
-442
-453
-418
-387
-417
-440
-400
-377
-395
-386
-377
-377
-297
-243
-312
-230
169
910
2133
2876
1629
-490
-978
-223
-50
-275
-186
-126
-214
-166
-89
-89
-38
47
98
179
298
388
448
506
539
534
504
445
359
268
164
34
-125
-310
-438
-403
-289
-249
-259
-271
-327
-373
-330
-265
-243
-235
-207
-143
-76
-42
-41
-101
-152
-50
28
-81
-80
223
1028
2560
3389
1774
-594
-988
-223
-156
-382
-262
-187
-238
-198
-140
-125
-103
-61
-14
27
102
224
289
244
143
27
-60
-44
2
-96
-313
-445
-441
-418
-425
-430
-417
-379
-351
-385
-407
-365
-366
-401
-321
-212
-242
-307
-311
-354
-385
-305
-253
-267
-236
-246
-283
-145
292
1280
2374
1902
-205
-1411
-783
-158
-321
-422
-298
-272
-235
-131
-65
-7
64
116
173
266
397
526
603
640
665
653
612
552
445
334
273
193
56
-26
-22
-40
-106
-135
-128
-148
-171
-154
-152
-195
-213
-184
-171
-182
-187
-218
-295
-282
-158
-200
-369
-129
566
1132
1090
201
-1046
-1370
-620
-104
-243
-324
-191
-132
-129
-127
-99
14
92
68
136
326
406
318
248
310
407
391
273
163
90
25
-34
-84
-125
-128
-112
-138
-177
-156
-130
-166
-202
-207
-245
-307
-310
-237
-151
-119
-114
-67
-50
-123
-144
-83
-80
-80
80
809
2462
3644
2343
-149
-874
-163
-24
-322
-285
-230
-314
-295
-245
-226
-156
-83
-34
39
99
125
158
189
193
165
89
-28
-123
-154
-155
-195
-290
-391
-437
-399
-311
-289
-370
-423
-390
-396
-474
-495
-445
-405
-374
-344
-351
-367
-373
-429
-474
-401
-347
-350
-166
262
1058
2241
2461
691
-1111
-966
-151
-138
-299
-180
-153
-167
-86
-54
-51
-2
42
93
155
209
331
477
500
491
570
577
426
317
314
250
112
65
112
79
-35
-40
41
13
-72
-53
-11
-59
-137
-183
-179
-137
-141
-179
-158
-149
-188
-147
-108
-199
-200
93
755
1652
1725
260
-1154
-939
-161
-130
-360
-320
-253
-264
-283
-290
-226
-136
-90
-33
50
116
179
207
168
115
21
-130
-187
-129
-146
-232
-249
-239
-241
-165
-46
-22
-85
-145
-173
-171
-168
-197
-229
-237
-228
-185
-154
-192
-217
-196
-238
-296
-271
-309
-384
-200
329
1274
2338
2119
260
-1062
-637
2
-57
-110
-2
-28
-26
57
58
34
70
136
214
281
320
355
390
392
380
403
426
383
324
300
234
118
66
68
35
-22
-77
-158
-225
-233
-267
-363
-376
-257
-179
-210
-242
-258
-286
-292
-314
-348
-310
-309
-364
-149
372
939
1355
971
-474
-1499
-1049
-322
-288
-386
-340
-384
-378
-261
-166
-29
69
-59
-131
152
456
457
377
415
438
388
345
303
227
149
94
49
7
-50
-133
-165
-79
1
-52
-131
-124
-112
-132
-103
-65
-86
-89
-39
-7
-6
-41
-79
-58
-90
-205
-199
14
781
2288
2903
1155
-940
-993
-168
-128
-323
-242
-235
-284
-277
-295
-237
-136
-142
-90
103
207
192
222
253
213
179
144
40
-85
-180
-273
-349
-378
-399
-440
-465
-443
-390
-350
-357
-374
-356
-359
-387
-356
-323
-334
-259
-140
-149
-222
-238
-199
-147
-195
-284
-131
414
1453
2478
1978
-73
-1278
-727
-139
-242
-262
-139
-181
-188
-64
45
111
147
178
260
355
420
492
573
617
594
499
398
353
305
235
231
224
96
-20
4
36
-15
-50
-26
-28
-81
-105
-93
-142
-218
-186
-107
-149
-255
-281
-246
-192
-165
-249
-267
93
781
1377
1177
-137
-1385
-1231
-397
-181
-349
-364
-383
-379
-248
-216
-248
-145
-65
-87
-28
80
112
146
212
223
196
194
211
211
170
107
67
36
-30
-111
-167
-205
-239
-269
-297
-309
-291
-288
-328
-345
-286
-203
-145
-101
-75
-100
-137
-85
-3
-61
-113
136
745
1735
2515
1739
-239
-1119
-459
19
-137
-173
-78
-80
-83
-95
-93
18
119
126
170
252
236
197
298
417
389
323
294
202
97
74
17
-102
-134
-92
-109
-165
-195
-235
-290
-312
-321
-393
-505
-505
-342
-200
-226
-299
-304
-356
-464
-411
-241
-221
-270
-199
175
1388
2887
2488
115
-1269
-680
-129
-334
-386
-252
-291
-311
-227
-186
-174
-112
7
103
123
153
233
256
225
242
257
187
104
90
114
115
74
19
-14
-40
-65
-71
-86
-118
-128
-136
-167
-195
-215
-203
-147
-131
-176
-196
-233
-323
-323
-273
-333
-280
164
867
1475
1316
-33
-1402
-1318
-436
-152
-290
-228
-154
-199
-171
-123
-128
-69
19
27
47
144
218
255
324
372
337
295
313
314
227
131
105
78
15
-10
-13
-62
-110
-127
-176
-238
-246
-235
-246
-254
-244
-227
-202
-158
-122
-128
-104
-27
-43
-128
-40
518
1905
3394
2970
653
-763
-338
64
-207
-293
-193
-252
-268
-185
-149
-109
-59
-48
11
126
151
78
32
51
59
-7
-93
-105
-128
-237
-280
-213
-225
-296
-273
-249
-322
-377
-369
-375
-405
-432
-440
-413
-377
-380
-441
-506
-484
-451
-520
-517
-338
-243
-294
-275
75
1281
2844
2562
157
-1372
-782
-122
-294
-357
-209
-233
-236
-147
-130
-130
-64
17
47
29
72
215
319
319
311
324
313
278
232
173
126
91
54
51
72
51
14
18
21
-23
-84
-112
-104
-97
-89
-45
-15
-39
-64
-101
-159
-126
-70
-119
-48
348
1000
1700
1637
296
-934
-720
-69
-98
-268
-183
-162
-154
-38
2
-25
15
64
99
167
191
154
191
292
288
153
3
-81
-96
-105
-158
-195
-142
-52
-22
-53
-98
-115
-85
-51
-67
-104
-114
-108
-100
-84
-57
-14
14
-27
-101
-101
-47
-50
-99
-120
