# session 32
-78
-101
-49
0
-115
-319
-378
-323
-313
-324
-303
-291
-293
-284
-273
-266
-257
-250
-247
-241
-235
-228
-221
-216
-212
-204
-197
-194
-189
-182
-182
-189
-195
-202
-218
-236
-246
-237
-209
-188
-170
-132
-116
-133
-90
-54
-125
-54
409
1213
2069
2055
571
-874
-643
238
306
63
127
165
105
141
170
152
174
203
209
229
255
269
291
316
336
359
387
412
437
463
489
513
534
548
555
555
539
483
374
229
82
-48
-155
-232
-281
-308
-319
-320
-318
-313
-307
-305
-304
-303
-305
-309
-311
-311
-313
-314
-313
-311
-308
-303
-299
-295
-289
-281
-274
-268
-262
-255
-247
-240
-234
-227
-221
-216
-210
-203
-196
-190
-183
-177
-173
-167
-161
-156
-152
-147
-142
-137
-135
-133
-128
-123
-122
-119
-114
-109
-105
-104
-110
-117
-126
-141
-161
-179
-178
-153
-133
-120
-81
-64
-83
-45
-11
-85
-16
459
1286
2136
2075
561
-860
-601
270
325
86
152
184
120
153
184
169
188
212
216
235
257
272
296
320
337
360
386
410
433
456
479
502
521
531
533
527
507
452
346
205
62
-61
-160
-233
-280
-303
-311
-313
-310
-305
-300
-300
-300
-300
-304
-310
-311
-313
-316
-315
-314
-312
-310
-305
-301
-295
-289
-285
-279
-272
-266
-262
-255
-247
-241
-234
-227
-221
-216
-209
-204
-200
-194
-189
-182
-175
-169
-163
-159
-155
-152
-149
-145
-141
-138
-135
-130
-124
-121
-120
-122
-128
-135
-147
-165
-185
-193
-173
-147
-134
-102
-70
-86
-69
-17
-68
-77
279
1025
1931
2230
1058
-607
-810
92
388
122
114
192
131
137
182
169
178
209
216
227
250
266
285
310
331
351
374
398
422
447
471
491
507
520
526
523
508
466
374
240
98
-30
-136
-216
-266
-293
-306
-310
-308
-303
-300
-297
-296
-297
-299
-300
-301
-304
-306
-306
-306
-304
-300
-297
-293
-287
-281
-276
-270
-264
-259
-252
-247
-242
-235
-228
-223
-216
-208
-204
-199
-191
-185
-183
-178
-171
-167
-162
-156
-150
-145
-142
-139
-137
-134
-130
-127
-125
-122
-118
-113
-115
-125
-133
-142
-158
-179
-192
-177
-150
-139
-114
-72
-77
-81
-20
-39
-100
139
777
1662
2283
1600
-162
-943
-172
414
197
83
191
153
121
175
176
170
203
214
219
243
262
277
299
320
340
364
385
407
432
455
475
492
505
512
511
504
476
404
281
138
7
-104
-194
-254
-287
-303
-310
-309
-304
-300
-296
-292
-293
-296
-298
-299
-302
-303
-304
-306
-305
-299
-295
-295
-291
-283
-276
-271
-264
-259
-254
-248
-241
-235
-230
-223
-216
-209
-202
-196
-192
-187
-184
-179
-171
-165
-161
-156
-151
-147
-142
-137
-136
-136
-133
-129
-126
-124
-121
-117
-113
-112
-118
-122
-129
-146
-167
-184
-188
-168
-144
-127
-92
-68
-88
-64
-15
-73
-55
344
1118
2020
2223
933
-684
-745
158
373
110
129
192
127
141
181
167
180
206
211
228
253
267
287
312
331
351
377
400
422
447
472
492
506
516
523
522
506
459
365
229
86
-39
-145
-227
-278
-303
-313
-313
-307
-303
-299
-294
-292
-291
-291
-292
-292
-294
-297
-299
-300
-300
-296
-292
-289
-284
-277
-272
-269
-265
-260
-254
-248
-241
-233
-225
-219
-214
-208
-203
-199
-194
-187
-180
-175
-170
-165
-161
-157
-154
-149
-144
-138
-135
-133
-132
-127
-122
-121
-119
-114
-110
-109
-105
-105
-113
-120
-127
-145
-168
-183
-180
-155
-129
-113
-82
-61
-78
-49
-1
-65
-48
361
1144
2021
2187
898
-674
-710
178
375
111
134
197
130
142
181
168
180
207
213
230
256
271
289
314
336
358
383
407
432
460
488
508
523
537
547
546
531
486
390
246
95
-37
-145
-228
-281
-309
-320
-321
-318
-312
-305
-298
-294
-293
-292
-292
-293
-297
-299
-299
-299
-299
-296
-293
-289
-285
-282
-278
-268
-259
-255
-251
-243
-234
-231
-227
-219
-209
-204
-201
-197
-192
-187
-183
-176
-171
-168
-164
-158
-151
-149
-149
-147
-141
-136
-134
-132
-128
-124
-121
-117
-113
-111
-108
-104
-102
-99
-98
-104
-110
-118
-137
-161
-173
-171
-151
-124
-108
-86
-56
-65
-61
-2
-34
-95
163
802
1666
2272
1593
-142
-887
-121
424
189
83
190
146
119
175
169
160
194
207
210
234
256
272
296
317
336
359
386
413
441
467
490
511
532
548
554
549
523
449
320
167
23
-100
-198
-266
-305
-322
-327
-323
-315
-306
-301
-295
-290
-288
-288
-287
-287
-287
-287
-287
-288
-284
-282
-284
-282
-275
-269
-266
-259
-251
-247
-241
-234
-230
-225
-217
-210
-205
-200
-194
-188
-182
-176
-171
-167
-164
-159
-154
-150
-146
-140
-135
-133
-134
-131
-125
-120
-118
-116
-112
-110
-107
-104
-103
-101
-95
-89
-86
-90
-101
-109
-117
-132
-154
-172
-176
-157
-128
-112
-91
-57
-63
-71
-7
-13
-94
127
776
1604
2160
1589
-55
-946
-285
383
235
89
192
174
131
175
181
173
199
214
226
256
274
288
312
330
349
384
417
440
471
510
540
566
596
621
636
641
617
535
391
215
44
-106
-227
-311
-360
-380
-385
-381
-374
-364
-352
-339
-330
-326
-325
-323
-323
-324
-325
-325
-324
-324
-325
-324
-320
-316
-312
-307
-301
-295
-288
-280
-274
-267
-258
-251
-245
-238
-231
-225
-219
-211
-205
-199
-193
-187
-182
-177
-172
-167
-162
-156
-151
-145
-140
-138
-134
-128
-121
-118
-115
-112
-107
-103
-105
-112
-117
-128
-150
-174
-188
-179
-149
-126
-106
-70
-61
-77
-28
-4
-88
20
562
1412
2195
2013
489
-782
-441
333
307
93
171
185
126
164
188
174
199
222
225
246
272
289
312
336
359
387
416
446
481
521
559
597
631
658
678
688
667
588
442
257
75
-84
-211
-301
-356
-383
-390
-387
-378
-366
-353
-342
-333
-326
-323
-321
-318
-318
-319
-320
-318
-318
-318
-316
-312
-308
-304
-300
-294
-287
-280
-271
-264
-259
-254
-247
-240
-234
-228
-222
-216
-208
-199
-194
-191
-187
-182
-176
-170
-166
-163
-158
-152
-146
-143
-141
-137
-133
-129
-128
-127
-122
-116
-112
-111
-108
-105
-110
-119
-127
-142
-168
-185
-183
-165
-139
-122
-100
-67
-68
-78
-23
-20
-99
57
618
1470
2256
1974
348
-816
-335
379
265
77
173
167
115
162
176
163
192
210
214
239
263
278
302
329
353
379
409
441
476
512
547
581
613
640
661
669
650
577
439
261
86
-67
-191
-280
-334
-360
-369
-366
-359
-349
-339
-329
-321
-314
-312
-312
-311
-311
-313
-315
-315
-313
-310
-307
-306
-303
-296
-289
-285
-280
-272
-264
-260
-256
-248
-240
-236
-230
-223
-216
-209
-203
-196
-191
-187
-184
-178
-172
-169
-166
-160
-154
-150
-146
-142
-139
-137
-134
-130
-125
-123
-122
-119
-115
-113
-109
-106
-103
-96
-97
-109
-119
-126
-147
-171
-177
-164
-140
-118
-101
-71
-54
-72
-43
5
-62
-54
344
1107
1981
2209
1002
-582
-689
177
391
124
137
201
134
146
188
174
183
212
219
236
261
277
297
324
346
368
394
425
458
492
526
559
589
616
638
652
649
607
501
341
165
3
-133
-237
-306
-344
-358
-360
-357
-349
-337
-330
-324
-315
-310
-314
-314
-310
-311
-319
-326
-324
-315
-312
-314
-308
-301
-302
-303
-295
-285
-277
-268
-262
-259
-252
-240
-232
-228
-226
-220
-207
-201
-203
-196
-181
-174
-169
-158
-153
-157
-155
-148
-144
-139
-134
-132
-131
-128
-124
-119
-117
-117
-116
-111
-108
-107
-109
-110
-112
-121
-140
-157
-175
-198
-195
-156
-125
-111
-79
-69
-85
-34
-10
-97
57
701
1533
2065
1637
148
-927
-485
299
300
108
181
194
145
187
211
198
219
239
243
265
291
307
328
353
377
404
434
464
499
539
580
623
665
706
740
748
717
641
497
287
72
-98
-222
-310
-362
-391
-408
-411
-400
-386
-375
-365
-349
-334
-328
-327
-326
-325
-315
-303
-310
-323
-319
-313
-314
-308
-303
-308
-297
-278
-284
-293
-274
-259
-267
-270
-258
-252
-243
-220
-204
-214
-227
-219
-202
-194
-191
-184
-175
-172
-165
-150
-149
-161
-157
-139
-140
-157
-157
-143
-134
-131
-125
-120
-123
-136
-159
-185
-199
-199
-185
-158
-139
-134
-105
-79
-90
-54
-7
-91
-76
383
1202
2009
2066
820
-564
-523
251
354
104
135
175
114
144
178
155
174
213
222
233
252
274
302
324
344
384
420
435
470
539
595
628
671
714
742
769
774
700
545
351
146
-46
-198
-302
-372
-410
-421
-418
-407
-391
-380
-378
-370
-357
-350
-349
-347
-343
-337
-334
-336
-337
-331
-326
-325
-321
-314
-306
-301
-299
-290
-275
-273
-278
-269
-257
-252
-243
-233
-230
-227
-217
-209
-205
-198
-190
-182
-175
-169
-165
-158
-152
-149
-142
-135
-135
-134
-127
-122
-122
-117
-110
-106
-104
-108
-114
-121
-137
-162
-175
-170
-151
-128
-113
-87
-52
-62
-67
-4
-22
-97
128
755
1602
2216
1642
-20
-847
-153
437
228
93
200
168
128
176
177
169
201
214
220
247
268
281
304
328
348
374
401
425
455
494
531
561
587
608
620
623
599
518
378
211
47
-99
-215
-293
-339
-361
-367
-365
-357
-346
-337
-329
-322
-317
-315
-313
-311
-311
-309
-305
-306
-306
-300
-292
-288
-283
-276
-273
-271
-268
-263
-257
-251
-246
-240
-235
-230
-225
-216
-210
-207
-202
-193
-187
-184
-178
-170
-164
-161
-157
-154
-150
-147
-144
-142
-139
-134
-131
-130
-125
-121
-121
-117
-112
-116
-125
-132
-143
-161
-178
-185
-169
-141
-127
-105
-68
-73
-80
-20
-28
-100
107
737
1618
2243
1618
-138
-1027
-291
397
232
86
191
167
126
175
179
168
197
211
217
241
262
277
299
322
342
365
390
416
446
474
501
529
553
571
580
578
552
487
370
216
57
-73
-162
-236
-310
-348
-346
-343
-337
-314
-298
-293
-282
-277
-273
-264
-277
-305
-302
-285
-295
-304
-282
-266
-272
-272
-263
-257
-245
-240
-252
-259
-239
-210
-200
-215
-231
-222
-191
-165
-166
-180
-182
-169
-164
-170
-170
-153
-135
-139
-152
-146
-129
-131
-142
-130
-109
-114
-135
-144
-138
-122
-108
-112
-131
-150
-177
-212
-210
-165
-143
-148
-121
-100
-115
-61
-1
-85
-30
512
1377
2036
1694
147
-1094
-722
174
276
81
151
189
140
179
194
161
187
225
225
237
259
265
280
308
332
370
411
422
442
510
571
571
550
574
632
659
633
573
464
277
76
-65
-170
-267
-328
-365
-397
-382
-354
-376
-369
-291
-281
-345
-340
-302
-313
-301
-261
-269
-278
-265
-298
-344
-344
-336
-322
-286
-280
-291
-260
-248
-293
-296
-228
-187
-218
-257
-255
-237
-238
-221
-170
-153
-198
-231
-207
-173
-164
-158
-152
-161
-174
-167
-143
-136
-182
-251
-267
-220
-173
-159
-146
-123
-130
-116
-26
-36
-165
24
749
1696
2234
1513
-202
-1016
-274
386
191
18
131
149
130
166
165
177
226
223
198
221
262
279
280
302
366
412
405
420
482
525
565
640
683
671
672
687
662
571
388
151
-37
-164
-282
-372
-409
-424
-430
-418
-401
-402
-410
-388
-344
-338
-364
-360
-330
-330
-353
-349
-315
-306
-341
-362
-336
-309
-310
-314
-307
-295
-284
-274
-274
-282
-279
-267
-261
-247
-220
-217
-246
-247
-201
-173
-211
-265
-255
-189
-136
-119
-118
-129
-147
-138
-120
-157
-185
-121
-107
-186
-45
495
1349
2153
1874
195
-1068
-617
200
187
2
83
87
37
90
129
129
148
145
138
196
264
255
233
299
379
364
334
394
479
520
560
616
655
672
692
706
668
544
359
154
-32
-166
-283
-403
-447
-418
-423
-438
-399
-384
-413
-403
-370
-364
-348
-329
-346
-360
-351
-355
-342
-296
-296
-355
-368
-320
-307
-327
-308
-268
-272
-301
-304
-289
-283
-285
-281
-245
-180
-141
-157
-192
-212
-219
-203
-177
-192
-196
-135
-158
-233
2
661
1582
2267
1656
-144
-1072
-365
287
116
-21
75
56
38
94
102
107
136
137
155
203
228
250
292
317
333
366
397
427
484
552
597
631
680
731
751
726
630
447
240
65
-103
-266
-366
-396
-401
-397
-393
-399
-378
-337
-346
-383
-372
-342
-331
-321
-317
-322
-311
-293
-300
-322
-323
-301
-282
-279
-287
-285
-263
-245
-261
-272
-243
-220
-234
-239
-208
-166
-160
-199
-222
-188
-161
-176
-170
-137
-133
-138
-122
-130
-157
-143
-107
-107
-118
-119
-151
-208
-217
-178
-146
-115
-83
-77
-86
-95
-76
-10
-21
-108
49
592
1417
2231
2058
499
-743
-379
332
274
79
141
146
117
157
154
140
184
211
198
207
237
253
272
314
350
366
382
412
460
500
508
537
617
663
652
669
679
588
431
267
91
-72
-186
-269
-325
-339
-344
-368
-365
-311
-293
-345
-362
-326
-329
-360
-339
-299
-307
-334
-342
-340
-335
-328
-331
-327
-300
-295
-319
-305
-277
-296
-297
-258
-264
-277
-219
-193
-260
-291
-240
-210
-225
-226
-204
-194
-206
-205
-180
-172
-188
-189
-175
-171
-176
-176
-171
-168
-172
-183
-200
-232
-258
-247
-221
-209
-194
-175
-161
-140
-143
-151
-97
-96
-180
-26
552
1443
2230
1873
194
-917
-383
309
177
2
101
95
52
102
115
106
134
152
161
189
216
235
258
282
312
349
383
416
457
501
545
590
635
677
709
721
691
601
447
251
58
-98
-220
-310
-356
-369
-373
-368
-347
-336
-336
-313
-278
-272
-281
-273
-263
-267
-262
-248
-250
-258
-241
-214
-207
-209
-202
-193
-183
-169
-161
-155
-140
-127
-124
-116
-104
-97
-85
-70
-63
-53
-35
-29
-31
-25
-21
-19
-6
