# session 30
-78
-103
-19
-109
-482
-767
-768
-710
-718
-705
-668
-651
-630
-600
-582
-569
-552
-544
-538
-520
-499
-486
-479
-468
-453
-439
-429
-421
-412
-395
-355
-298
-271
-285
-310
-328
-313
-283
-291
-269
-203
-258
-300
47
810
1767
2283
1396
-307
-850
-136
216
-14
-47
39
-2
6
63
65
81
121
138
162
202
233
263
303
342
382
432
487
545
607
676
749
817
877
922
917
820
624
374
132
-64
-206
-306
-365
-387
-394
-395
-386
-381
-383
-372
-346
-330
-335
-347
-352
-346
-340
-336
-331
-331
-338
-338
-332
-334
-336
-334
-345
-360
-351
-323
-285
-235
-207
-220
-248
-272
-271
-244
-254
-253
-189
-229
-324
-83
619
1645
2447
1856
24
-911
-288
208
-25
-123
-13
-48
-63
2
9
13
56
79
97
135
168
198
235
274
316
362
412
467
528
590
653
720
789
845
863
809
660
435
195
-15
-182
-302
-371
-405
-419
-423
-420
-414
-407
-400
-391
-383
-379
-376
-375
-376
-374
-367
-359
-355
-355
-352
-342
-338
-341
-340
-336
-336
-332
-325
-319
-312
-302
-298
-295
-280
-262
-255
-254
-250
-247
-253
-265
-269
-248
-195
-134
-107
-119
-143
-168
-168
-148
-164
-154
-92
-144
-206
103
817
1723
2266
1494
-158
-747
-47
324
72
16
110
63
58
117
122
128
160
175
195
228
253
279
311
339
369
407
447
487
533
583
634
687
740
788
819
812
731
563
349
144
-32
-175
-274
-338
-376
-389
-390
-394
-393
-379
-372
-373
-373
-374
-379
-378
-373
-373
-373
-369
-367
-368
-366
-361
-357
-350
-343
-340
-334
-323
-314
-307
-300
-292
-283
-275
-270
-263
-254
-243
-234
-230
-231
-233
-234
-243
-251
-245
-225
-176
-110
-87
-118
-149
-165
-159
-131
-139
-148
-90
-112
-201
-5
583
1461
2278
1933
249
-804
-252
334
130
-17
93
69
35
98
111
108
147
169
181
212
238
260
292
324
354
388
424
460
501
545
586
630
676
719
751
757
705
573
384
186
9
-133
-235
-299
-336
-357
-365
-366
-362
-357
-354
-352
-352
-354
-354
-354
-354
-354
-353
-353
-352
-348
-343
-339
-337
-333
-324
-316
-309
-303
-297
-292
-286
-280
-275
-269
-260
-248
-241
-242
-235
-218
-213
-215
-206
-192
-186
-185
-179
-169
-174
-194
-197
-192
-215
-249
-253
-226
-191
-174
-165
-127
-102
-122
-91
-45
-115
-85
318
1067
1977
2245
1025
-533
-591
213
335
73
113
163
98
129
170
150
172
217
224
231
255
274
294
321
346
371
399
428
459
495
532
569
605
641
674
697
689
619
478
297
118
-34
-151
-236
-292
-323
-335
-340
-340
-338
-336
-335
-340
-343
-333
-327
-336
-344
-340
-336
-342
-345
-337
-329
-330
-328
-318
-312
-307
-299
-293
-291
-287
-282
-277
-267
-256
-250
-241
-229
-224
-225
-218
-205
-201
-203
-196
-184
-180
-180
-175
-172
-171
-161
-149
-155
-173
-175
-174
-195
-220
-223
-211
-191
-165
-143
-114
-95
-106
-70
-17
-87
-92
278
999
1859
2159
1050
-527
-695
148
372
102
112
186
124
138
185
175
189
220
225
240
263
277
305
341
361
377
405
436
466
499
531
566
600
627
653
677
678
624
500
329
152
0
-119
-210
-274
-312
-325
-327
-329
-330
-326
-322
-326
-331
-333
-333
-337
-341
-338
-338
-340
-333
-325
-329
-331
-319
-309
-311
-308
-300
-294
-290
-289
-287
-273
-259
-255
-253
-247
-241
-235
-227
-224
-215
-199
-190
-190
-187
-180
-177
-170
-161
-157
-155
-148
-140
-136
-134
-128
-123
-131
-143
-150
-167
-193
-204
-191
-168
-150
-138
-104
-70
-88
-77
-10
-52
-102
196
865
1712
2185
1337
-319
-806
8
415
154
96
192
144
137
189
183
188
222
231
242
267
283
301
329
353
373
399
429
457
484
515
545
570
596
624
642
639
602
506
357
196
47
-86
-189
-250
-285
-308
-319
-320
-320
-319
-315
-314
-321
-327
-328
-326
-326
-328
-331
-332
-328
-323
-321
-319
-319
-320
-311
-300
-296
-292
-288
-288
-282
-267
-260
-262
-253
-241
-239
-236
-224
-214
-211
-205
-199
-195
-189
-184
-182
-176
-166
-160
-157
-153
-148
-143
-139
-136
-135
-131
-129
-135
-143
-150
-162
-182
-201
-201
-179
-155
-131
-88
-70
-88
-48
-12
-91
-42
399
1169
1997
2029
645
-768
-585
266
342
99
157
197
136
169
204
188
206
235
241
255
278
299
321
342
361
386
410
433
459
488
513
537
564
587
600
607
596
541
428
277
120
-16
-125
-206
-257
-285
-299
-303
-300
-297
-297
-297
-297
-302
-306
-308
-311
-317
-319
-316
-316
-318
-318
-315
-312
-311
-309
-302
-294
-289
-285
-279
-274
-270
-266
-259
-249
-240
-235
-231
-225
-219
-213
-205
-197
-192
-189
-184
-177
-170
-162
-156
-153
-149
-143
-140
-138
-132
-126
-126
-124
-118
-121
-131
-139
-147
-162
-182
-199
-189
-163
-146
-112
-70
-84
-84
-13
-40
-105
155
819
1686
2196
1391
-305
-891
-73
420
179
100
201
151
136
202
201
195
228
240
249
274
292
308
332
351
368
397
427
447
469
495
518
535
553
569
578
576
544
460
327
174
32
-86
-173
-233
-272
-293
-301
-302
-301
-299
-296
-296
-297
-299
-304
-309
-310
-316
-324
-322
-313
-319
-334
-334
-320
-315
-315
-306
-297
-295
-291
-287
-287
-283
-278
-278
-270
-252
-251
-261
-250
-224
-212
-212
-207
-196
-197
-205
-199
-174
-152
-145
-142
-136
-131
-129
-125
-116
-103
-101
-119
-135
-131
-128
-141
-155
-170
-175
-161
-127
-84
-65
-66
-31
-16
-82
-27
402
1292
2333
2350
696
-896
-685
223
311
70
122
159
113
153
173
139
153
186
197
212
232
250
275
295
304
321
353
383
407
427
440
451
472
485
478
470
462
418
317
186
58
-50
-135
-195
-233
-256
-270
-277
-276
-273
-278
-280
-269
-261
-271
-280
-281
-285
-283
-276
-279
-285
-282
-280
-285
-290
-284
-269
-262
-265
-262
-251
-245
-247
-244
-238
-240
-239
-230
-224
-219
-206
-200
-203
-195
-184
-182
-176
-165
-163
-160
-156
-164
-166
-152
-150
-171
-184
-189
-198
-196
-178
-150
-123
-108
-85
-57
-86
-108
85
694
1779
2568
1692
-383
-1258
-410
287
157
62
151
107
71
127
146
137
148
173
202
206
206
250
295
297
302
333
356
363
375
396
409
406
405
408
397
376
344
277
169
46
-64
-142
-198
-248
-273
-269
-265
-275
-274
-260
-255
-253
-240
-243
-261
-257
-237
-239
-251
-252
-255
-261
-260
-259
-254
-238
-231
-240
-239
-221
-216
-229
-233
-220
-211
-207
-200
-200
-204
-198
-187
-181
-173
-165
-166
-173
-180
-187
-197
-216
-223
-212
-205
-181
-128
-109
-114
-88
-93
-123
11
529
1600
2633
2102
13
-1215
-545
244
157
6
89
75
45
87
96
95
117
128
146
181
206
219
236
258
273
283
305
333
344
356
390
408
394
383
384
371
336
268
153
17
-99
-186
-250
-293
-311
-313
-311
-307
-301
-297
-289
-275
-270
-275
-282
-285
-282
-277
-282
-288
-287
-287
-287
-275
-263
-266
-272
-274
-272
-265
-255
-253
-255
-250
-254
-264
-248
-219
-203
-172
-122
-114
-153
-187
-196
-186
-184
-183
-152
-155
-190
-81
343
1308
2507
2396
412
-1166
-722
156
116
-82
16
19
-32
24
47
41
80
96
90
122
163
184
206
228
240
263
300
326
345
375
403
414
420
428
432
431
400
302
154
11
-112
-214
-280
-319
-349
-360
-349
-334
-320
-307
-309
-308
-284
-272
-291
-297
-281
-282
-297
-299
-288
-278
-281
-292
-286
-265
-254
-252
-258
-272
-262
-227
-212
-198
-153
-133
-165
-199
-207
-198
-199
-209
-177
-144
-185
-167
129
934
2199
2672
1144
-869
-1028
-35
223
-39
-18
44
-11
21
64
49
73
112
122
152
192
207
221
250
274
299
327
349
379
422
452
470
490
505
510
509
472
374
226
63
-75
-170
-240
-297
-330
-339
-332
-318
-314
-318
-303
-272
-259
-262
-266
-273
-276
-266
-259
-258
-257
-274
-294
-278
-253
-259
-261
-241
-237
-243
-231
-221
-225
-220
-213
-223
-224
-198
-175
-174
-179
-183
-185
-169
-147
-148
-152
-140
-147
-169
-163
-155
-177
-194
-188
-183
-172
-153
-138
-117
-95
-95
-71
-47
-99
-84
195
844
1939
2642
1586
-386
-893
-29
329
71
41
106
54
79
126
103
116
157
162
173
205
222
228
252
282
292
292
315
357
391
410
432
462
483
489
501
514
476
372
256
141
3
-126
-207
-257
-290
-297
-302
-313
-305
-293
-292
-283
-278
-294
-302
-296
-296
-291
-283
-289
-293
-294
-307
-305
-285
-290
-301
-277
-255
-262
-266
-261
-254
-240
-237
-251
-243
-210
-202
-212
-196
-174
-185
-198
-180
-172
-191
-185
-144
-126
-151
-175
-174
-167
-165
-158
-153
-182
-230
-230
-168
-122
-136
-152
-136
-130
-100
-20
-25
-72
145
782
1795
2547
1791
-165
-1073
-330
302
157
64
159
135
122
167
159
152
180
198
215
237
250
267
291
316
348
382
405
428
457
487
521
563
600
626
650
667
635
515
330
144
-16
-162
-285
-359
-395
-414
-416
-406
-395
-379
-362
-356
-356
-352
-345
-344
-349
-352
-350
-351
-358
-360
-354
-346
-341
-334
-324
-312
-300
-290
-284
-279
-274
-268
-262
-254
-251
-247
-235
-231
-241
-234
-219
-225
-225
-210
-215
-199
-127
-87
-120
-157
-180
-184
-154
-159
-185
-121
-114
-207
33
741
1441
1667
987
-416
-1136
-518
178
147
23
103
103
70
118
150
155
171
180
194
226
255
283
313
335
370
429
477
510
564
638
706
777
856
919
954
954
869
665
393
131
-88
-254
-361
-424
-464
-478
-464
-450
-448
-435
-407
-387
-374
-356
-347
-348
-341
-336
-341
-339
-332
-335
-337
-325
-317
-319
-314
-305
-305
-305
-297
-293
-294
-290
-282
-279
-289
-302
-307
-311
-302
-249
-181
-161
-182
-208
-220
-202
-193
-207
-166
-144
-237
-180
286
1115
2073
2248
905
-598
-578
139
180
-45
13
46
-10
27
64
55
75
106
128
161
189
209
242
279
315
359
408
460
521
589
664
749
835
908
963
984
920
737
482
217
-33
-240
-360
-411
-446
-468
-464
-452
-447
-437
-420
-407
-395
-386
-385
-383
-375
-373
-375
-374
-372
-373
-373
-369
-360
-348
-339
-336
-332
-323
-313
-307
-300
-293
-284
-270
-256
-250
-244
-233
-224
-217
-208
-200
-195
-187
-179
-179
-182
-174
-169
-173
-176
-192
-233
-258
-233
-191
-173
-171
-148
-116
-126
-117
-51
-95
-171
91
713
1512
2137
1644
70
-726
-105
388
179
87
188
144
128
222
266
256
236
214
233
273
285
294
338
396
429
433
457
510
527
535
611
686
711
777
873
890
836
728
532
297
91
-89
-237
-329
-381
-410
-418
-424
-435
-435
-423
-417
-420
-417
-418
-423
-403
-359
-341
-356
-366
-357
-348
-346
-339
-326
-314
-312
-315
-314
-301
-291
-295
-296
-283
-276
-277
-271
-268
-263
-245
-237
-249
-243
-220
-216
-223
-221
-218
-211
-201
-199
-196
-181
-172
-177
-190
-212
-226
-213
-183
-168
-164
-129
-95
-121
-114
-38
-63
-114
120
694
1581
2314
1677
-142
-946
-175
367
125
35
160
114
78
149
168
157
171
180
197
234
259
268
273
293
331
356
371
411
454
467
490
544
592
620
646
660
640
575
449
283
131
4
-130
-252
-315
-331
-337
-345
-344
-329
-313
-308
-307
-303
-309
-316
-308
-296
-299
-309
-314
-306
-289
-277
-276
-273
-261
-252
-250
-246
-236
-221
-216
-222
-221
-217
-229
-229
-199
-187
-206
-201
-174
-171
-187
-190
-184
-176
-162
-154
-163
-171
-160
-145
-145
-160
-172
-170
-160
-173
-215
-230
-191
-165
-184
-172
-128
-118
-98
-79
-141
-109
249
990
1985
2305
992
-722
-835
62
295
59
82
130
61
91
154
155
167
186
183
205
247
267
273
293
324
342
344
358
393
420
438
463
484
500
523
537
532
518
461
356
250
135
-8
-116
-161
-209
-269
-286
-274
-280
-296
-301
-306
-316
-321
-319
-322
-324
-320
-325
-335
-329
-321
-327
-323
-304
-298
-306
-303
-286
-278
-285
-289
-276
-258
-249
-247
-244
-230
-208
-201
-211
-205
-181
-178
-198
-196
-171
-161
-167
-162
-156
-162
-167
-161
-159
-166
-175
-191
-219
-222
-183
-159
-162
-131
-104
-129
-111
-69
-121
-74
319
1047
1941
2164
862
-747
-764
142
327
62
94
158
95
113
156
147
164
190
186
196
238
276
295
309
328
353
381
409
438
467
501
539
577
606
628
649
659
634
557
424
255
87
-52
-166
-256
-310
-340
-360
-367
-361
-361
-363
-358
-355
-359
-359
-351
-349
-356
-357
-350
-347
-350
-346
-340
-341
-341
-334
-325
-323
-327
-325
-312
-298
-289
-281
-279
-279
-268
-256
-265
-265
-235
-217
-219
-203
-182
-188
-196
-191
-200
-223
-237
-256
-275
-255
-214
-192
-162
-137
-154
-129
-77
-133
-100
339
1140
1974
2031
673
-857
-823
75
276
45
84
143
85
112
161
155
171
198
207
227
259
283
306
333
361
394
425
452
486
526
564
599
638
676
707
729
738
705
605
448
270
96
-58
-178
-259
-309
-340
-357
-366
-366
-362
-361
-360
-357
-357
-355
-351
-349
-352
-349
-342
-339
-336
-327
-316
-309
-306
-297
-287
-287
-288
-273
-254
-250
-252
-245
-237
-231
-225
-217
-209
-201
-195
-191
-189
-195
-210
-221
-211
-168
-104
-61
-65
-98
-134
-139
-117
-133
-143
-87
-121
-201
46
703
1552
2107
1434
-240
-980
-269
257
45
-56
42
2
-20
35
31
25
58
67
69
91
104
115
135
146
