# session 37
-9
26
-48
20
367
668
690
618
573
461
295
159
39
-70
-136
-173
-198
-196
-187
-190
-187
-176
-170
-162
-152
-147
-150
-156
-160
-160
-160
-165
-167
-164
-158
-157
-162
-162
-147
-125
-123
-141
-146
-129
-121
-126
-121
-114
-120
-124
-106
-90
-98
-112
-106
-97
-100
-99
-92
-93
-94
-91
-94
-95
-84
-80
-83
-76
-75
-91
-97
-85
-93
-116
-130
-136
-134
-116
-87
-56
-49
-72
-53
-5
-45
-58
208
860
1880
2516
1534
-389
-971
-90
393
158
96
188
135
109
148
148
154
176
178
186
207
220
232
246
258
268
277
287
305
330
353
358
344
339
356
364
347
321
280
198
80
-34
-124
-206
-280
-318
-322
-326
-334
-327
-312
-306
-302
-294
-291
-294
-295
-292
-293
-299
-298
-291
-292
-298
-295
-281
-265
-256
-260
-262
-252
-245
-243
-234
-222
-218
-213
-204
-200
-198
-191
-185
-183
-180
-176
-171
-167
-165
-163
-162
-160
-159
-155
-151
-151
-146
-137
-139
-148
-149
-150
-160
-173
-192
-201
-176
-146
-135
-111
-88
-96
-74
-44
-93
-40
376
1210
2186
2290
802
-820
-757
157
334
98
136
188
128
145
178
171
191
214
215
229
254
274
295
311
327
355
387
416
444
471
499
531
562
590
613
623
624
601
505
329
141
-16
-159
-283
-356
-390
-413
-425
-421
-405
-385
-372
-368
-361
-353
-351
-347
-341
-347
-353
-345
-341
-345
-342
-336
-337
-330
-313
-303
-303
-300
-289
-278
-273
-267
-255
-246
-242
-234
-225
-220
-214
-208
-208
-202
-185
-176
-178
-176
-168
-167
-170
-163
-159
-177
-201
-217
-221
-206
-191
-186
-138
-80
-124
-165
-97
-109
-156
130
806
1723
2380
1674
-113
-846
-84
395
135
45
146
107
96
143
141
164
196
184
205
250
241
239
300
346
336
336
385
449
501
536
562
595
643
696
747
762
695
571
436
259
24
-180
-301
-382
-440
-452
-438
-435
-435
-422
-411
-408
-401
-392
-388
-376
-359
-360
-371
-369
-357
-352
-352
-347
-340
-337
-330
-317
-305
-301
-298
-293
-286
-275
-260
-252
-251
-246
-236
-232
-229
-218
-207
-199
-194
-198
-210
-216
-214
-204
-162
-102
-81
-99
-122
-150
-158
-146
-152
-131
-93
-155
-168
138
811
1838
2517
1556
-363
-897
-27
347
60
20
105
43
49
102
85
93
141
155
163
192
215
231
253
276
297
326
359
390
420
453
486
515
542
568
590
594
560
466
317
146
-15
-153
-261
-334
-376
-391
-388
-384
-390
-392
-373
-342
-328
-332
-334
-329
-324
-326
-331
-325
-309
-301
-300
-293
-285
-282
-278
-274
-272
-265
-247
-233
-234
-240
-233
-219
-213
-211
-206
-210
-216
-199
-168
-134
-92
-76
-106
-135
-143
-147
-146
-149
-138
-101
-135
-173
9
500
1457
2528
2201
216
-1037
-402
312
131
-34
68
41
5
59
66
64
96
106
119
154
171
180
201
217
225
244
266
284
301
319
335
344
347
353
360
354
326
272
185
72
-44
-146
-222
-274
-310
-332
-335
-327
-322
-317
-305
-297
-299
-298
-293
-294
-292
-277
-269
-276
-278
-276
-277
-276
-270
-261
-251
-244
-241
-236
-227
-224
-222
-211
-201
-202
-202
-195
-198
-209
-201
-171
-141
-106
-72
-83
-129
-156
-160
-148
-138
-150
-128
-93
-159
-115
384
1240
2003
1907
478
-1030
-953
14
287
65
76
127
74
100
142
129
151
197
206
213
245
279
306
324
337
362
402
438
468
503
540
572
605
637
662
681
674
600
447
250
55
-110
-232
-318
-373
-402
-415
-423
-419
-398
-375
-364
-360
-363
-370
-372
-371
-378
-382
-379
-374
-365
-361
-368
-369
-355
-345
-342
-334
-323
-310
-298
-303
-316
-302
-279
-290
-309
-292
-257
-218
-170
-152
-170
-180
-198
-224
-218
-222
-222
-162
-190
-266
-7
649
1491
2108
1529
-173
-1012
-293
311
109
-13
96
67
35
88
99
102
138
154
164
194
225
247
264
290
331
367
402
454
486
480
498
565
619
642
672
689
645
537
364
148
-49
-191
-298
-372
-404
-415
-418
-407
-390
-380
-381
-379
-369
-356
-353
-356
-354
-350
-350
-347
-342
-339
-332
-325
-328
-327
-314
-301
-287
-275
-280
-287
-276
-256
-246
-258
-286
-301
-281
-226
-152
-111
-135
-169
-182
-186
-170
-166
-180
-144
-141
-226
-142
278
1106
2309
2699
1158
-658
-630
220
238
-38
36
61
-17
29
73
59
79
106
120
155
185
199
221
251
279
306
337
373
409
439
472
510
545
578
608
622
602
527
384
203
35
-107
-226
-304
-343
-368
-377
-369
-363
-359
-347
-338
-338
-336
-331
-330
-328
-328
-333
-330
-318
-311
-305
-297
-294
-295
-289
-276
-267
-260
-253
-248
-243
-236
-227
-220
-216
-210
-200
-196
-194
-183
-172
-168
-163
-154
-151
-152
-149
-143
-139
-136
-133
-133
-138
-143
-151
-177
-206
-214
-199
-167
-138
-126
-100
-80
-100
-72
-13
-82
-103
207
826
1785
2567
1833
-24
-695
66
415
113
72
164
83
76
141
125
124
166
171
172
205
226
233
260
288
293
306
343
367
376
406
441
451
463
496
512
500
476
417
308
182
57
-69
-178
-249
-297
-332
-345
-344
-346
-349
-341
-330
-331
-339
-334
-330
-341
-348
-332
-320
-328
-335
-323
-307
-300
-293
-291
-294
-287
-270
-265
-267
-255
-240
-240
-238
-228
-223
-219
-209
-205
-203
-189
-176
-172
-173
-176
-176
-169
-153
-139
-143
-154
-142
-125
-138
-157
-151
-155
-186
-195
-176
-160
-146
-129
-105
-80
-93
-100
-21
0
-92
9
468
1296
2339
2429
803
-725
-444
365
308
62
145
167
105
133
147
132
151
174
186
199
203
212
236
259
274
288
306
328
350
366
378
398
416
424
428
429
419
393
325
204
73
-29
-117
-207
-275
-302
-309
-319
-323
-315
-307
-310
-314
-311
-308
-310
-312
-305
-302
-310
-312
-300
-291
-289
-287
-286
-279
-264
-258
-262
-249
-230
-228
-230
-222
-212
-201
-192
-189
-186
-180
-171
-163
-163
-163
-151
-147
-158
-147
-114
-109
-133
-138
-117
-103
-101
-101
-111
-123
-117
-110
-132
-161
-165
-153
-147
-142
-123
-88
-78
-84
-46
-25
-79
-21
349
1166
2272
2473
887
-827
-721
210
334
83
131
167
103
134
162
137
159
191
189
200
224
236
246
260
275
292
303
310
325
345
356
354
346
349
352
334
310
300
264
174
66
-29
-116
-188
-233
-265
-291
-299
-292
-285
-278
-274
-274
-275
-279
-287
-289
-278
-277
-298
-303
-275
-261
-270
-265
-253
-253
-242
-227
-232
-238
-224
-214
-218
-210
-189
-182
-186
-183
-175
-168
-157
-148
-154
-157
-149
-143
-136
-125
-132
-145
-127
-107
-113
-113
-103
-108
-116
-119
-129
-129
-126
-143
-151
-131
-107
-76
-55
-72
-51
2
-39
-51
241
960
2013
2506
1315
-573
-947
-23
361
97
52
143
102
92
137
143
144
155
159
168
182
187
195
209
218
226
240
250
250
258
271
265
247
242
237
219
202
186
145
76
6
-53
-112
-172
-220
-252
-258
-239
-238
-267
-267
-233
-232
-259
-253
-232
-238
-250
-243
-243
-260
-262
-241
-224
-224
-223
-215
-210
-210
-207
-206
-212
-202
-169
-157
-178
-174
-144
-142
-152
-141
-142
-157
-141
-115
-117
-122
-115
-109
-109
-121
-124
-110
-133
-179
-152
-97
-106
-94
-7
29
-21
-59
-55
9
296
1099
2272
2572
1069
-753
-886
17
293
75
75
122
60
67
104
93
101
126
126
126
142
158
165
172
183
194
204
207
196
203
222
201
168
171
157
112
102
112
76
5
-61
-117
-160
-191
-219
-236
-240
-243
-241
-228
-219
-221
-223
-222
-226
-230
-232
-236
-241
-240
-236
-235
-239
-238
-234
-229
-221
-215
-217
-218
-212
-207
-205
-196
-186
-189
-192
-176
-156
-155
-164
-164
-159
-160
-152
-117
-81
-67
-54
-39
-55
-96
-130
-141
-132
-128
-139
-129
-119
-101
160
906
1871
2096
868
-846
-1259
-399
198
126
60
122
104
96
134
138
144
178
198
210
234
256
273
294
317
335
351
378
413
435
449
476
505
518
524
533
531
496
408
262
85
-69
-180
-278
-361
-392
-389
-394
-391
-368
-360
-366
-359
-350
-349
-344
-338
-343
-353
-357
-353
-349
-349
-346
-342
-336
-323
-319
-328
-316
-272
-230
-199
-188
-214
-248
-266
-272
-255
-246
-266
-228
-192
-271
-151
470
1281
1750
1338
-48
-1152
-821
28
173
-3
45
90
52
77
105
106
131
157
173
204
234
252
275
304
334
370
407
444
490
538
580
627
675
709
727
725
661
498
271
53
-124
-267
-374
-436
-465
-480
-479
-458
-438
-426
-414
-398
-387
-380
-378
-381
-383
-377
-363
-360
-382
-403
-379
-336
-331
-350
-329
-296
-313
-316
-236
-174
-219
-293
-308
-275
-256
-272
-243
-196
-272
-268
147
925
1821
2127
990
-644
-865
-36
216
-30
-30
27
-29
-4
47
38
55
90
105
132
164
178
201
246
283
309
340
389
445
485
515
567
627
659
674
687
654
521
316
104
-87
-243
-344
-403
-439
-460
-464
-447
-420
-418
-434
-424
-394
-377
-367
-352
-350
-360
-366
-362
-360
-368
-363
-333
-324
-342
-327
-287
-262
-228
-197
-224
-260
-259
-250
-239
-241
-253
-207
-188
-275
-213
224
1127
2345
2623
997
-767
-675
157
164
-84
-2
18
-45
10
45
28
65
108
116
138
179
210
234
260
289
320
355
392
431
474
520
563
599
629
645
642
592
460
265
70
-88
-211
-300
-352
-377
-383
-384
-384
-376
-361
-349
-342
-334
-329
-331
-330
-324
-319
-318
-320
-318
-307
-293
-288
-285
-279
-270
-262
-255
-249
-245
-243
-234
-217
-209
-208
-204
-196
-191
-186
-182
-179
-172
-164
-163
-159
-153
-152
-151
-143
-141
-151
-155
-159
-181
-208
-209
-191
-166
-139
-126
-116
-87
-85
-95
-39
-38
-122
24
507
1239
2102
2156
726
-611
-352
347
270
55
134
132
75
124
146
131
158
180
185
209
232
241
258
285
311
329
348
377
407
430
462
502
536
567
605
634
636
597
500
356
194
42
-84
-181
-256
-308
-339
-357
-363
-363
-365
-363
-354
-353
-361
-365
-365
-364
-361
-360
-362
-361
-354
-345
-342
-341
-333
-320
-310
-305
-301
-297
-288
-275
-269
-267
-259
-248
-243
-239
-232
-225
-220
-215
-209
-205
-202
-195
-187
-184
-179
-171
-171
-177
-178
-180
-199
-225
-233
-221
-194
-161
-147
-134
-103
-105
-111
-54
-65
-145
38
580
1388
2214
2017
419
-743
-278
375
223
51
158
140
80
121
129
117
158
199
219
239
258
277
295
305
322
353
383
405
431
462
489
509
529
555
579
591
579
516
390
228
73
-58
-166
-254
-307
-327
-338
-346
-341
-332
-327
-319
-316
-321
-321
-312
-310
-314
-313
-309
-307
-303
-299
-294
-287
-284
-286
-281
-266
-254
-257
-259
-246
-239
-240
-229
-214
-214
-215
-205
-198
-197
-192
-188
-186
-179
-171
-165
-160
-156
-159
-159
-148
-141
-142
-138
-140
-155
-160
-158
-180
-207
-199
-177
-161
-143
-129
-109
-85
-93
-80
-27
-72
-109
164
760
1627
2350
1789
100
-672
-15
420
164
68
158
111
86
132
134
139
169
173
181
206
219
233
262
285
298
318
346
372
395
416
445
481
508
526
545
553
531
462
345
196
44
-93
-203
-270
-305
-331
-349
-349
-340
-332
-326
-318
-312
-313
-314
-310
-310
-313
-312
-309
-308
-305
-299
-289
-281
-283
-290
-289
-278
-266
-256
-246
-238
-235
-233
-225
-215
-210
-204
-194
-188
-187
-185
-178
-169
-163
-162
-164
-162
-154
-145
-141
-137
-133
-133
-132
-123
-119
-121
-113
-106
-119
-130
-122
-126
-162
-189
-184
-173
-157
-122
-98
-85
-64
-68
-61
-9
-42
-88
158
715
1504
2213
1795
207
-647
-50
441
206
85
188
148
109
163
169
156
180
195
203
224
240
255
277
298
319
340
359
382
413
440
468
493
511
531
560
573
553
494
384
231
70
-71
-182
-263
-314
-342
-353
-354
-353
-345
-332
-327
-329
-323
-317
-324
-329
-322
-318
-321
-320
-314
-310
-305
-300
-302
-302
-288
-273
-265
-263
-263
-260
-247
-236
-235
-232
-222
-211
-207
-204
-200
-199
-196
-184
-174
-173
-167
-157
-157
-160
-152
-145
-142
-134
-128
-128
-125
-121
-120
-118
-111
-104
-104
-108
-105
-98
-101
-110
-116
-133
-159
-171
-162
-145
-120
-95
-76
-53
-50
-53
-3
2
-75
49
513
1214
1997
2033
715
-552
-318
388
341
111
183
203
142
176
203
185
196
213
221
242
260
275
296
314
329
352
375
396
421
445
464
490
520
541
553
564
566
533
450
323
174
29
-96
-190
-253
-292
-314
-322
-321
-317
-310
-303
-300
-301
-300
-298
-299
-302
-305
-303
-300
-300
-301
-298
-289
-284
-283
-279
-272
-265
-257
-247
-242
-242
-237
-228
-223
-221
-219
-220
-218
-203
-184
-180
-185
-182
-175
-173
-172
-171
-170
-166
-159
-156
-154
-152
-152
-152
-147
-145
-147
-142
-134
-130
-128
-127
-131
-129
-124
-134
-146
-143
-152
-183
-205
-208
-200
-175
-147
-127
-101
-101
-115
-64
-46
-127
-10
483
1212
1937
1862
496
-725
-422
324
295
74
146
158
97
136
159
138
160
186
186
196
218
238
259
284
304
319
339
365
401
457
481
448
460
520
504
458
486
483
367
220
85
-53
-167
-247
-306
-336
-343
-347
-341
-318
-296
-291
-289
-279
-269
-263
-256
-252
-250
-246
-246
-242
-225
-210
-210
-208
-203
-199
-182
-164
-157
-143
-120
-114
-115
-116
-122
-105
-52
-26
-45
-40
-12
-18
-34
-10
12
-1
-11
-3
6
11
