# session 13
-51
-71
-13
-86
-369
-586
-582
-518
-499
-507
-551
-577
-528
-522
-605
-608
-527
-484
-358
-78
425
1478
2334
1343
-744
-1328
-463
-109
-336
-294
-196
-258
-229
-145
-122
-83
-33
-11
38
111
162
208
253
252
227
250
289
256
186
172
181
144
122
169
195
149
114
105
69
40
43
31
-15
-71
-103
-70
-23
-50
-110
-126
-91
-61
-104
-130
3
390
1241
2082
1504
-309
-1123
-474
-88
-295
-229
-72
-174
-206
-127
-135
-120
-28
35
75
104
100
104
123
99
9
-106
-192
-257
-323
-324
-228
-142
-150
-196
-185
-135
-160
-256
-265
-190
-193
-264
-286
-278
-274
-226
-179
-194
-217
-251
-308
-274
-196
-247
-311
-135
587
1901
2509
1123
-743
-914
-166
-58
-213
-93
-56
-119
-39
68
112
141
122
99
164
256
297
328
356
340
298
251
205
198
218
210
187
164
116
72
51
-16
-116
-149
-131
-153
-191
-195
-185
-174
-151
-154
-193
-212
-235
-302
-302
-253
-329
-322
87
696
1168
1143
206
-961
-1065
-418
-199
-332
-275
-193
-238
-238
-182
-145
-91
-15
33
62
103
134
130
116
98
52
13
30
56
46
51
73
42
-38
-101
-112
-86
-80
-116
-136
-123
-126
-137
-123
-95
-50
-9
-28
-60
-53
-49
-41
-32
-96
-126
-50
149
1068
2623
2740
624
-1069
-720
-56
-176
-283
-165
-187
-238
-219
-183
-112
-94
-109
26
205
221
175
183
183
167
150
93
12
-61
-149
-223
-241
-232
-233
-247
-260
-268
-315
-401
-428
-366
-303
-284
-307
-352
-343
-260
-187
-164
-200
-268
-261
-214
-259
-284
-87
516
1641
2322
1219
-628
-997
-255
-62
-262
-175
-107
-198
-137
2
26
36
120
205
260
309
344
355
347
323
302
296
270
211
168
160
153
132
129
141
112
36
-10
-5
-30
-88
-103
-106
-164
-204
-140
-54
-65
-143
-191
-150
-51
-70
-255
-271
167
931
1538
1173
-277
-1312
-904
-186
-193
-357
-258
-220
-259
-214
-187
-189
-119
-49
-45
-12
61
54
-44
-103
-70
-42
-82
-121
-88
-28
-2
6
20
15
-15
-41
-63
-111
-169
-171
-138
-166
-234
-243
-226
-258
-270
-202
-142
-151
-174
-144
-86
-105
-152
2
594
1740
2683
1938
-110
-1054
-406
45
-180
-241
-118
-122
-140
-136
-136
-73
17
87
153
195
230
253
204
184
258
232
107
137
252
200
60
-6
-36
-66
-84
-141
-234
-284
-299
-331
-358
-361
-374
-391
-388
-381
-355
-279
-260
-358
-383
-271
-262
-339
-239
143
1129
2524
2544
547
-1028
-721
-159
-307
-386
-265
-296
-304
-234
-239
-226
-130
-54
-16
28
71
79
66
100
174
210
217
226
210
176
142
94
88
141
130
44
30
64
8
-84
-105
-105
-141
-166
-150
-124
-121
-126
-129
-166
-197
-133
-100
-209
-203
143
788
1531
1544
221
-1102
-907
-108
-47
-270
-196
-139
-183
-144
-114
-127
-77
-8
26
84
146
139
132
202
241
144
32
32
48
-9
-42
-1
-17
-123
-161
-92
-78
-163
-216
-207
-221
-252
-245
-244
-261
-234
-195
-203
-192
-162
-185
-183
-145
-195
-238
-150
210
1299
2510
1937
-150
-1031
-272
138
-122
-113
15
-71
-85
19
56
49
51
49
64
118
196
231
184
124
119
148
181
219
252
253
213
154
72
-45
-136
-139
-140
-243
-354
-330
-249
-270
-332
-323
-305
-320
-304
-284
-310
-341
-376
-383
-331
-363
-399
-88
502
1020
1161
411
-932
-1355
-563
-1
-141
-215
-105
-117
-128
-45
10
41
98
131
143
188
241
251
254
286
303
306
340
361
318
257
190
80
-1
28
69
15
-39
5
56
19
-45
-62
-68
-96
-84
-19
-17
-77
-87
-79
-111
-114
-142
-224
-158
208
1006
2005
1923
208
-1198
-858
-121
-149
-290
-185
-180
-236
-201
-131
-41
25
14
32
133
215
236
232
218
208
213
200
144
64
-19
-91
-152
-205
-257
-317
-343
-285
-210
-224
-308
-385
-397
-340
-302
-356
-400
-336
-268
-277
-302
-331
-345
-289
-271
-338
-299
9
823
1997
2101
389
-1146
-898
-181
-173
-225
-53
-56
-115
-31
50
104
194
260
284
314
335
342
367
372
314
270
288
289
267
291
319
278
213
165
109
49
7
-33
-66
-84
-131
-186
-172
-162
-249
-292
-192
-116
-138
-145
-152
-188
-175
-201
-295
-116
518
1230
1315
310
-1024
-1279
-573
-184
-280
-270
-209
-258
-242
-160
-123
-76
12
88
122
123
128
150
143
112
102
85
44
33
33
-19
-56
-29
-18
-27
-16
-48
-127
-164
-180
-223
-242
-211
-185
-201
-233
-213
-126
-57
-44
-34
-24
-26
-4
-1
-42
-32
192
991
2215
2321
538
-1087
-875
-128
-119
-247
-135
-137
-187
-113
-50
-34
7
49
62
78
138
223
253
211
176
186
205
207
188
139
53
-36
-77
-87
-122
-175
-233
-292
-298
-260
-280
-354
-384
-365
-358
-356
-331
-290
-262
-262
-271
-284
-348
-466
-439
-136
219
680
1627
2235
1133
-659
-983
-275
-131
-340
-256
-172
-212
-161
-87
-62
-12
42
67
97
142
195
240
244
224
218
219
197
165
140
118
95
81
57
-2
-68
-101
-115
-130
-135
-139
-160
-185
-202
-233
-251
-202
-123
-85
-90
-133
-181
-150
-100
-142
-206
-158
388
1807
2908
1855
-331
-994
-277
-10
-237
-237
-159
-160
-114
-85
-94
-47
13
33
53
83
104
119
130
145
165
176
182
182
140
68
25
-2
-67
-141
-195
-246
-286
-302
-323
-350
-360
-362
-361
-347
-340
-336
-312
-287
-269
-246
-270
-330
-296
-228
-276
-248
81
616
1080
887
-219
-1106
-783
-134
-103
-232
-146
-116
-134
-65
-11
14
82
136
154
191
240
267
282
288
281
270
261
250
235
216
186
140
79
27
-6
-44
-91
-119
-125
-121
-111
-104
-116
-136
-152
-158
-133
-80
-33
-5
-11
-48
-46
-20
-61
-102
-51
306
1442
2702
2176
67
-982
-381
39
-177
-217
-140
-209
-202
-106
-79
-63
-10
45
104
155
176
202
251
288
296
300
308
300
279
252
187
62
-58
-128
-190
-266
-316
-334
-342
-334
-344
-400
-439
-390
-305
-273
-281
-283
-308
-358
-376
-380
-389
-342
-304
-324
-175
230
623
657
-1
-1059
-1382
-693
-103
-116
-189
-138
-139
-131
-76
-52
-26
29
73
113
168
217
253
296
341
371
395
409
397
363
318
243
148
75
31
-11
-52
-81
-105
-125
-134
-134
-147
-169
-171
-164
-179
-180
-136
-104
-117
-149
-181
-159
-99
-138
-195
-47
375
1164
1870
1308
-256
-864
-230
120
-81
-97
0
-25
-3
56
50
66
125
161
176
195
228
282
327
338
345
358
356
355
351
292
188
109
59
0
-56
-90
-114
-140
-163
-175
-191
-228
-260
-273
-298
-312
-254
-179
-158
-155
-163
-198
-203
-208
-279
-359
-288
446
2064
2961
1543
-532
-864
-237
-230
-435
-336
-301
-351
-285
-223
-202
-135
-65
-20
36
82
100
113
117
95
62
24
-29
-72
-75
-77
-114
-155
-178
-203
-232
-253
-269
-275
-278
-287
-294
-302
-321
-316
-264
-212
-201
-230
-271
-290
-307
-357
-355
-290
-319
-344
-70
434
798
592
-340
-1210
-1051
-355
-142
-257
-203
-128
-143
-100
-22
23
81
155
215
274
330
376
414
433
438
450
452
434
422
402
330
238
179
140
87
19
-43
-74
-75
-79
-102
-129
-140
-131
-126
-139
-131
-86
-57
-54
-60
-100
-119
-54
-47
-124
-78
156
791
1880
2139
686
-709
-504
81
-20
-147
-31
-49
-89
-7
36
41
90
137
166
207
246
274
301
324
337
341
337
320
291
254
199
122
43
-29
-89
-127
-152
-186
-221
-238
-249
-271
-289
-292
-308
-336
-320
-261
-224
-226
-246
-284
-295
-248
-258
-344
-335
8
949
1984
1622
-152
-1166
-641
-144
-300
-363
-262
-294
-301
-230
-211
-190
-127
-78
-34
22
66
97
125
140
141
125
84
34
-5
-40
-85
-130
-168
-198
-211
-214
-227
-248
-257
-255
-251
-243
-240
-246
-245
-223
-184
-149
-144
-158
-182
-223
-219
-158
-185
-240
-57
386
968
1323
694
-637
-1089
-414
25
-110
-141
-55
-83
-68
8
29
57
133
201
254
309
358
401
436
446
447
463
478
460
407
333
249
160
73
-1
-59
-104
-137
-159
-170
-172
-179
-196
-199
-176
-167
-187
-174
-118
-93
-104
-116
-149
-147
-80
-109
-209
-156
188
1045
2001
1600
-133
-990
-384
24
-198
-233
-116
-152
-155
-85
-59
-35
17
74
129
172
218
266
282
289
306
289
257
257
225
131
56
10
-61
-129
-164
-206
-247
-255
-263
-297
-318
-320
-326
-321
-313
-332
-327
-263
-219
-233
-257
-283
-293
-232
-215
-307
-268
30
544
1203
1277
144
-992
-799
-137
-103
-239
-142
-118
-161
-103
-43
-25
18
78
130
183
232
268
299
322
321
309
306
297
262
211
147
72
15
-19
-53
-87
-105
-114
-124
-134
-140
-148
-163
-177
-182
-193
-213
-197
-145
-118
-121
-143
-182
-163
-112
-181
-261
-133
344
1339
2149
1412
-268
-785
-170
43
-153
-109
-35
-80
-38
24
16
28
63
77
96
114
108
103
120
141
150
156
165
169
144
88
29
-16
-51
-92
-181
-307
-347
-277
-236
-263
-282
-330
-413
-406
-350
-379
-372
-228
-142
-197
-256
-284
-274
-227
-279
-371
-226
264
1086
1703
1088
-334
-795
-215
14
-224
-253
-150
-110
-39
-3
-34
-13
54
102
144
185
195
205
271
347
338
283
282
300
256
174
88
-1
-67
-111
-171
-222
-221
-195
-195
-221
-252
-255
-229
-214
-218
-223
-216
-178
-127
-113
-137
-178
-186
-123
-103
-210
-270
-61
673
1769
1921
474
-791
-511
62
-58
-196
-105
-129
-138
-43
-24
-14
80
139
146
209
316
387
424
465
494
490
482
460
385
292
236
170
61
-48
-129
-189
-223
-241
-263
-280
-284
-310
-352
-354
-333
-345
-356
-304
-237
-224
-247
-279
-319
-305
-215
-198
-308
-327
-57
573
1217
909
-408
-1127
-562
-13
-129
-231
-126
-119
-151
-112
-58
5
62
93
140
216
287
354
422
476
503
498
490
492
450
333
195
71
-42
-130
-199
-277
-325
-289
-238
-264
-312
-310
-302
-314
-305
-291
-316
-324
-268
-208
-190
-198
-239
-269
-198
-125
-200
-300
-170
434
1382
1563
272
-980
-718
21
24
-164
-79
-52
-100
-49
8
32
85
137
176
231
292
348
411
450
452
466
495
483
421
330
209
74
-30
-82
-105
-148
-210
-238
-223
-230
-274
-288
-245
-213
-230
-253
-273
-303
-271
-175
-135
-146
-119
-111
-153
-137
-94
-118
-128
69
722
1548
1337
-133
-1044
-503
105
10
-94
0
-10
-46
-8
32
86
140
149
177
245
279
292
350
417
421
390
378
363
304
223
150
65
-32
-95
-128
-177
-236
-276
-295
-293
-283
-285
-298
-311
-324
-330
-327
-333
-340
-306
-246
-210
-201
-230
-291
-280
-210
-255
-337
-200
267
1006
1330
408
-908
-1004
-265
-40
-219
-182
-80
-100
-120
-106
-57
28
86
124
183
231
268
340
398
397
418
480
493
449
375
250
109
-1
-102
-164
-155
-158
-220
-258
-258
-290
-328
-290
-235
-253
-282
-273
-295
-321
-262
-204
-228
-223
-159
-152
-163
-135
-196
-284
-160
304
1192
1913
1249
-339
-843
-163
133
-95
-99
-3
-29
8
82
88
113
181
235
268
312
374
397
368
402
503
517
436
370
296
179
85
14
-74
-131
-138
-166
-223
-243
-230
-228
-235
-236
-246
-267
-278
-285
-308
-324
-282
-197
-155
-175
-195
-210
-230
-201
-183
-258
-287
-37
674
1569
1524
145
-925
-583
-16
-98
-210
-113
-111
-120
-69
-78
-50
74
150
156
194
252
276
284
303
317
300
254
198
131
53
-12
-59
-114
-178
-226
-261
-283
-284
-278
-281
-270
-244
-244
-271
-277
-268
-285
-319
-316
-261
-206
-203
-217
-219
-245
-248
-192
-211
-289
-179
288
1187
1921
1242
-457
-1071
-347
63
-131
-143
-36
-72
-59
26
63
83
134
211
283
325
368
419
442
458
491
506
485
435
346
229
108
-6
-98
-160
-208
-246
-274
-294
-301
-297
-308
-327
-321
-310
-320
-323
-307
-297
-285
-244
-209
-223
-248
-254
-277
-273
-218
-239
-315
-217
210
1016
1647
1016
-455
-926
-280
30
-153
-137
-43
-86
-71
9
43
82
140
186
240
299
346
399
452
487
512
512
473
413
328
209
94
12
-51
-106
-144
-168
-181
-187
-197
-205
-202
-200
-208
-218
-229
-241
-247
-259
-264
-213
-135
-120
-151
-166
-179
-172
-125
-142
-230
-163
342
1319
1938
1075
-556
-1012
-316
17
-157
-153
-66
-100
-88
-29
-10
29
93
143
198
258
304
345
373
380
385
381
332
248
166
86
-4
-82
-128
-150
-180
-225
-262
-273
-275
-283
-288
-285
-280
-282
-291
-307
-308
-292
-282
-266
-215
-180
-204
-236
-263
-285
-245
-211
-293
-310
5
658
1272
1012
-319
-1293
-872
-117
-51
-186
-119
-98
-120
-63
-17
10
83
156
209
275
346
402
447
486
522
537
519
483
432
340
218
113
29
-44
-97
-131
-152
-166
-179
-197
-210
-207
-193
-197
-223
-240
-247
-252
-250
-260
-259
-184
-108
-124
-171
-201
-209
-159
-146
-210
-167
78
719
1745
1909
414
-959
-689
-19
-61
-173
-51
-49
-81
-16
9
14
87
170
216
253
302
345
369
397
431
438
411
371
312
220
103
-1
-64
-105
-137
-158
-190
-238
-256
-247
-261
-296
-305
-291
-299
-319
-309
-299
-338
-361
-291
-217
-226
-242
-243
-275
-261
-226
-292
-322
-167
307
1358
2182
1294
-502
-958
-293
-126
-345
-287
-220
-274
-232
-171
-165
-120
-68
-55
-29
20
56
71
77
