# session 34
-23
-42
3
32
-85
-260
-301
-254
-255
-271
-252
-245
-257
-257
-254
-261
-257
-245
-249
-256
-245
-226
-223
-230
-225
-212
-203
-199
-193
-189
-186
-179
-170
-169
-169
-155
-138
-136
-140
-135
-125
-122
-123
-123
-115
-104
-103
-104
-97
-91
-92
-93
-93
-93
-87
-78
-76
-77
-76
-76
-79
-82
-83
-87
-103
-130
-145
-146
-147
-138
-114
-92
-63
-39
-62
-53
10
-43
-96
223
892
1671
2076
1247
-353
-817
9
433
175
112
207
152
136
184
176
178
210
216
223
245
262
281
306
322
336
356
385
417
449
481
513
543
572
603
623
628
608
542
414
244
72
-75
-193
-281
-338
-366
-374
-375
-373
-364
-355
-357
-358
-348
-341
-347
-352
-349
-347
-347
-346
-342
-337
-334
-326
-312
-302
-300
-297
-292
-287
-278
-267
-263
-260
-248
-232
-224
-224
-219
-210
-205
-200
-192
-189
-189
-177
-165
-162
-160
-154
-150
-148
-144
-141
-137
-133
-131
-125
-118
-117
-116
-109
-109
-119
-125
-131
-147
-156
-166
-180
-167
-130
-111
-88
-60
-76
-62
-4
-56
-67
326
1091
1879
2013
838
-693
-802
113
412
153
145
224
168
170
213
203
206
227
235
255
275
284
308
334
344
363
398
420
432
463
510
548
573
593
611
628
634
600
514
384
219
47
-95
-200
-279
-331
-358
-368
-360
-350
-352
-351
-340
-336
-342
-340
-333
-334
-334
-332
-338
-340
-330
-324
-328
-323
-306
-298
-298
-288
-275
-271
-268
-259
-246
-237
-236
-236
-225
-210
-206
-206
-199
-189
-186
-184
-177
-166
-159
-162
-164
-155
-145
-142
-137
-130
-131
-128
-120
-122
-128
-125
-133
-152
-160
-171
-197
-192
-151
-130
-109
-75
-85
-74
-9
-59
-116
217
950
1780
2134
1200
-449
-894
-33
420
174
108
198
148
141
197
190
186
213
218
225
253
273
289
310
327
344
369
395
421
447
473
501
536
564
577
585
587
561
487
360
197
36
-95
-201
-283
-327
-343
-351
-351
-343
-341
-341
-333
-323
-323
-330
-335
-332
-325
-322
-321
-325
-330
-325
-310
-303
-305
-301
-290
-280
-274
-271
-268
-260
-249
-241
-235
-231
-229
-220
-206
-197
-194
-191
-187
-180
-174
-170
-164
-160
-156
-146
-135
-132
-132
-132
-132
-123
-117
-126
-139
-143
-149
-166
-190
-199
-171
-136
-121
-95
-75
-88
-56
-13
-84
-46
411
1228
2052
2029
604
-850
-679
231
363
112
155
199
134
158
193
175
189
213
216
236
265
279
295
313
327
347
375
400
418
441
470
496
514
528
544
555
545
504
424
296
140
-3
-115
-208
-279
-311
-317
-325
-332
-327
-318
-316
-314
-310
-311
-314
-315
-314
-313
-318
-324
-315
-301
-301
-305
-296
-285
-279
-275
-267
-260
-254
-250
-248
-244
-235
-222
-214
-211
-205
-199
-194
-189
-183
-178
-172
-166
-163
-158
-149
-143
-142
-140
-137
-134
-129
-124
-124
-128
-129
-125
-126
-139
-157
-176
-194
-188
-154
-130
-116
-85
-77
-91
-50
-37
-96
46
590
1444
2182
1797
118
-1000
-433
359
282
89
176
171
122
174
190
168
194
221
227
242
259
272
288
309
329
349
371
392
406
424
458
490
502
507
517
519
504
459
366
235
95
-37
-148
-223
-274
-310
-320
-314
-314
-317
-310
-306
-310
-305
-300
-304
-308
-308
-311
-314
-306
-296
-296
-300
-296
-286
-276
-273
-272
-264
-254
-249
-247
-239
-228
-226
-225
-214
-198
-193
-197
-194
-181
-171
-169
-167
-161
-158
-153
-144
-139
-140
-136
-127
-120
-121
-122
-119
-118
-124
-128
-132
-145
-163
-182
-191
-171
-140
-128
-101
-69
-80
-66
-15
-71
-86
297
1090
1968
2170
944
-717
-901
45
390
133
119
200
137
142
194
179
184
218
218
222
253
269
275
300
328
343
360
383
406
425
445
470
495
511
517
516
510
487
419
297
147
5
-112
-201
-262
-303
-326
-333
-331
-327
-322
-320
-319
-314
-312
-318
-323
-322
-322
-325
-326
-322
-320
-321
-319
-314
-311
-303
-282
-267
-268
-269
-261
-253
-249
-244
-236
-231
-228
-225
-218
-210
-201
-191
-187
-187
-184
-179
-170
-161
-161
-162
-155
-149
-148
-148
-159
-175
-190
-222
-244
-210
-158
-136
-109
-95
-111
-67
-30
-100
32
673
1567
2085
1490
-119
-1133
-587
249
288
116
180
199
160
186
202
209
242
256
263
287
304
315
337
358
373
398
428
451
474
504
533
559
582
603
618
622
604
535
404
234
65
-75
-187
-274
-327
-341
-342
-345
-345
-338
-330
-327
-324
-315
-308
-311
-315
-314
-312
-310
-312
-316
-314
-308
-307
-305
-296
-287
-284
-282
-279
-272
-265
-262
-260
-253
-241
-230
-224
-220
-214
-210
-207
-200
-190
-187
-187
-179
-172
-170
-165
-155
-148
-149
-159
-172
-176
-186
-215
-238
-228
-187
-158
-153
-125
-89
-103
-92
-37
-93
-114
267
1038
1890
2143
1033
-582
-827
56
387
124
97
185
134
128
170
171
183
207
210
222
250
272
288
309
334
359
384
413
442
470
500
535
572
607
632
641
640
608
504
339
165
5
-139
-251
-314
-343
-361
-368
-365
-360
-353
-337
-324
-324
-328
-326
-322
-321
-324
-327
-326
-322
-321
-321
-321
-321
-316
-302
-290
-286
-283
-277
-267
-259
-256
-254
-244
-232
-225
-220
-214
-207
-200
-192
-189
-188
-180
-170
-167
-163
-150
-142
-143
-142
-136
-130
-130
-139
-147
-157
-178
-204
-212
-197
-168
-137
-123
-106
-76
-83
-90
-34
-50
-124
81
679
1537
2257
1800
88
-910
-264
408
230
70
181
161
113
160
171
168
196
203
211
245
264
272
296
322
337
361
393
419
443
474
509
540
568
588
599
604
591
528
400
233
69
-73
-188
-273
-321
-349
-364
-358
-338
-329
-330
-324
-317
-316
-314
-314
-319
-319
-317
-323
-327
-319
-310
-308
-307
-304
-301
-293
-282
-275
-274
-269
-259
-249
-241
-237
-233
-226
-218
-214
-209
-198
-188
-187
-189
-182
-170
-161
-159
-157
-151
-147
-147
-143
-136
-134
-134
-131
-124
-117
-120
-130
-136
-142
-160
-185
-192
-184
-173
-143
-106
-93
-81
-66
-76
-51
-11
-74
-49
350
1118
2037
2270
981
-640
-685
209
386
106
133
198
125
138
185
172
180
206
210
222
249
267
283
307
327
343
369
398
418
440
478
512
528
542
564
582
578
541
455
316
156
9
-119
-220
-283
-321
-345
-346
-333
-328
-325
-317
-306
-297
-298
-310
-316
-311
-307
-304
-302
-306
-312
-308
-300
-296
-294
-288
-279
-272
-266
-257
-245
-238
-236
-230
-224
-224
-218
-204
-198
-195
-187
-185
-187
-177
-164
-161
-160
-156
-153
-149
-144
-141
-138
-128
-120
-123
-128
-122
-114
-111
-109
-109
-114
-122
-131
-133
-142
-175
-211
-201
-152
-117
-111
-90
-60
-70
-54
-6
-63
-52
397
1201
1912
1884
653
-792
-844
57
370
152
146
213
161
170
214
202
202
226
236
251
272
289
312
336
355
376
396
420
454
486
511
539
574
605
627
640
639
606
512
350
165
3
-130
-236
-310
-349
-363
-364
-359
-354
-347
-330
-314
-313
-313
-304
-296
-299
-301
-300
-301
-302
-302
-300
-296
-292
-289
-283
-274
-269
-270
-261
-245
-240
-241
-233
-222
-216
-215
-218
-215
-198
-189
-190
-184
-176
-173
-166
-164
-169
-159
-146
-154
-164
-152
-142
-144
-145
-145
-144
-133
-128
-136
-142
-143
-152
-173
-195
-216
-223
-200
-160
-138
-113
-79
-88
-83
-14
-53
-117
229
993
1761
2009
1117
-407
-849
-56
395
179
117
203
153
153
217
201
187
218
227
233
258
273
287
313
338
365
399
435
478
527
563
585
616
666
722
768
788
750
631
441
232
43
-119
-254
-354
-406
-418
-416
-416
-410
-391
-371
-365
-366
-362
-352
-339
-328
-328
-335
-334
-329
-333
-336
-327
-314
-306
-309
-316
-307
-294
-297
-297
-284
-279
-278
-258
-236
-230
-234
-240
-241
-224
-207
-213
-219
-192
-168
-184
-205
-197
-181
-170
-151
-149
-173
-177
-147
-128
-133
-141
-147
-153
-162
-189
-223
-228
-208
-186
-159
-135
-111
-79
-81
-87
-27
-35
-132
50
670
1523
2212
1865
346
-652
-176
411
250
86
178
161
118
166
178
167
188
200
213
246
267
276
296
320
346
379
412
445
489
535
574
620
680
734
768
786
773
688
517
303
96
-84
-231
-335
-393
-419
-432
-439
-430
-409
-391
-381
-371
-365
-363
-356
-351
-352
-351
-341
-337
-340
-338
-331
-323
-318
-316
-313
-304
-298
-297
-285
-268
-263
-261
-254
-248
-242
-231
-222
-221
-218
-205
-196
-198
-194
-182
-175
-175
-172
-165
-161
-159
-153
-145
-144
-145
-135
-123
-123
-123
-117
-122
-137
-144
-160
-196
-217
-204
-182
-156
-129
-104
-75
-71
-85
-33
-10
-105
-6
532
1345
2071
1908
495
-686
-354
368
318
99
170
186
132
167
183
168
193
215
216
237
262
279
299
324
346
370
400
432
468
506
544
583
623
661
693
714
707
650
528
346
145
-32
-176
-283
-346
-376
-389
-390
-387
-382
-370
-357
-350
-346
-342
-341
-338
-335
-334
-332
-330
-329
-323
-313
-311
-311
-307
-303
-296
-286
-278
-276
-270
-260
-254
-249
-243
-235
-225
-216
-212
-206
-197
-190
-188
-183
-178
-175
-168
-162
-164
-160
-145
-138
-143
-139
-130
-129
-131
-124
-117
-117
-118
-119
-122
-124
-130
-152
-181
-196
-190
-167
-137
-117
-90
-58
-71
-76
-13
-35
-106
145
806
1672
2249
1582
-104
-836
-85
452
210
102
213
164
127
183
181
167
197
215
221
242
261
277
297
315
331
353
378
406
437
464
491
521
546
562
576
587
573
509
383
220
61
-76
-192
-276
-324
-346
-354
-356
-351
-341
-334
-332
-324
-315
-318
-323
-321
-319
-322
-321
-313
-308
-315
-317
-304
-293
-291
-284
-279
-280
-271
-255
-252
-249
-237
-230
-226
-216
-209
-204
-196
-192
-193
-186
-173
-166
-165
-162
-154
-144
-141
-144
-144
-135
-127
-125
-124
-121
-113
-106
-108
-108
-103
-106
-118
-122
-133
-160
-182
-182
-161
-131
-105
-76
-55
-70
-52
5
-41
-75
234
940
1878
2378
1403
-402
-893
7
449
172
112
214
154
137
188
176
171
202
209
216
239
254
268
286
302
324
345
355
373
405
427
436
449
467
474
470
462
447
394
283
141
9
-105
-199
-266
-303
-318
-324
-329
-330
-321
-306
-297
-293
-294
-297
-298
-297
-297
-294
-290
-291
-294
-290
-281
-280
-283
-274
-257
-252
-252
-244
-239
-235
-226
-217
-214
-205
-197
-194
-189
-182
-179
-174
-168
-165
-161
-152
-145
-144
-141
-137
-134
-130
-127
-126
-122
-117
-112
-109
-109
-107
-102
-105
-115
-122
-131
-146
-163
-182
-192
-169
-140
-122
-88
-67
-85
-52
-14
-87
-26
488
1367
2150
1932
354
-1006
-673
249
334
99
162
198
134
161
190
180
203
220
218
238
262
268
283
313
338
357
378
401
428
457
483
509
532
543
554
569
569
530
432
281
113
-40
-168
-262
-317
-347
-362
-365
-363
-356
-345
-337
-335
-329
-317
-313
-318
-319
-316
-316
-318
-320
-321
-318
-303
-288
-287
-292
-285
-272
-267
-266
-258
-250
-244
-233
-216
-209
-207
-201
-195
-195
-189
-176
-168
-171
-172
-159
-145
-139
-138
-138
-139
-135
-127
-129
-142
-154
-156
-172
-212
-220
-173
-132
-109
-79
-84
-85
-27
-48
-92
257
1082
1918
2037
880
-732
-1045
-123
381
187
124
210
171
165
214
204
201
234
244
250
273
288
303
326
347
372
395
412
440
483
516
541
569
597
620
634
631
593
485
306
119
-36
-179
-302
-371
-403
-424
-431
-422
-413
-402
-384
-372
-372
-368
-355
-349
-358
-367
-360
-349
-353
-360
-352
-344
-349
-351
-339
-333
-336
-326
-307
-300
-300
-292
-283
-278
-270
-261
-259
-262
-254
-233
-219
-220
-220
-212
-205
-202
-202
-204
-210
-220
-226
-240
-272
-278
-237
-205
-192
-148
-120
-127
-85
-78
-161
7
664
1551
2107
1545
-77
-1058
-472
293
241
76
170
182
138
176
197
197
220
234
242
259
277
309
353
379
390
409
441
478
513
548
587
631
674
712
738
750
732
644
479
283
97
-60
-179
-260
-306
-317
-321
-328
-317
-300
-299
-289
-263
-254
-255
-244
-241
-247
-237
-227
-223
-210
-208
-230
-225
-187
-183
-208
-195
-157
-155
-167
-149
-130
-140
-136
-107
-102
-121
-125
-115
-107
-98
-97
-94
-73
-72
-110
-135
-134
-152
-167
-122
-46
-14
-29
-54
-84
-97
-75
-82
-116
-90
-84
-148
-4
544
1374
2079
1769
271
-797
-401
232
154
-15
49
30
-31
2
27
18
26
43
67
89
96
109
132
142
149
182
228
264
300
344
378
413
476
535
554
555
535
420
211
-14
-227
-421
-554
-625
-675
-707
-707
-694
-687
-687
-680
-661
-647
-647
-644
-635
-631
-628
-628
-636
-635
-617
-601
-590
-583
-581
-574
-562
-563
-557
-528
-514
-521
-513
-504
-512
-507
-477
-423
-347
-310
-339
-360
-348
-334
-312
-306
-301
-239
-233
-313
-155
451
1416
2264
1910
234
-842
-310
334
185
39
164
169
140
200
219
233
301
342
357
400
445
479
522
563
600
658
722
771
823
885
945
1004
1066
1116
1150
1159
1103
955
754
560
401
277
187
134
117
123
134
147
161
179
198
205
210
234
257
254
240
238
244
247
242
234
230
226
217
208
200
191
182
168
151
141
132
113
86
62
46
30
3
-31
-64
-93
-124
-160
-204
-248
-279
-305
-345
-400
-455
-501
-547
-601
-653
-704
-769
-846
-917
-984
-1062
-1151
-1234
-1299
-1348
-1390
-1437
-1484
-1535
-1612
-1674
-1693
-1799
-1926
-1680
-1002
-231
