# session 21
-15
10
-75
58
462
681
581
480
477
449
410
401
381
349
328
305
278
255
234
210
187
167
150
132
114
97
84
70
57
45
33
22
13
5
-3
-12
-18
-22
-25
-31
-37
-42
-46
-50
-54
-59
-64
-68
-72
-77
-81
-85
-91
-95
-98
-103
-108
-110
-116
-131
-151
-174
-199
-230
-252
-239
-209
-193
-164
-129
-144
-136
-78
-130
-164
201
989
1888
2179
1004
-813
-1227
-320
112
-119
-144
-45
-93
-89
-30
-34
-25
15
31
47
82
113
143
178
213
253
299
347
393
438
484
529
568
597
612
605
565
472
334
185
51
-70
-175
-250
-291
-309
-318
-319
-313
-308
-308
-308
-306
-308
-312
-313
-312
-312
-312
-309
-307
-305
-301
-297
-293
-287
-279
-273
-267
-259
-252
-246
-237
-227
-219
-211
-203
-196
-189
-182
-176
-167
-159
-154
-149
-143
-136
-130
-123
-117
-112
-109
-108
-105
-100
-97
-95
-91
-90
-95
-105
-121
-139
-159
-182
-182
-151
-125
-103
-59
-49
-58
-2
2
-78
103
735
1639
2315
1768
-48
-1188
-597
180
103
-54
54
54
14
69
91
87
120
143
154
185
216
243
277
312
349
391
433
475
522
568
611
651
683
700
700
676
608
485
330
179
46
-70
-160
-215
-245
-262
-270
-272
-270
-268
-267
-267
-271
-276
-277
-278
-281
-285
-290
-293
-294
-293
-293
-292
-290
-287
-284
-282
-278
-272
-265
-261
-255
-246
-238
-232
-227
-222
-217
-210
-203
-198
-194
-186
-180
-175
-170
-164
-160
-157
-154
-149
-144
-141
-138
-135
-130
-124
-124
-130
-140
-158
-178
-198
-215
-208
-178
-159
-131
-85
-84
-86
-22
-40
-110
149
857
1776
2320
1505
-370
-1224
-453
199
35
-67
47
18
-7
56
68
68
107
127
141
175
204
230
268
305
339
379
423
466
514
563
605
639
668
686
685
655
577
448
293
147
18
-95
-179
-230
-254
-265
-269
-269
-266
-263
-261
-259
-258
-262
-266
-267
-269
-273
-279
-282
-282
-281
-281
-279
-275
-272
-269
-264
-258
-253
-246
-239
-234
-229
-221
-214
-210
-206
-198
-191
-186
-181
-175
-171
-167
-161
-156
-151
-146
-142
-140
-136
-130
-125
-122
-118
-115
-114
-111
-109
-112
-122
-138
-154
-170
-191
-198
-173
-150
-134
-90
-67
-80
-37
-10
-86
25
587
1487
2269
1937
190
-1186
-783
99
131
-64
25
50
-1
47
80
73
103
131
141
170
201
225
258
293
327
368
411
451
493
539
580
616
646
665
667
648
592
482
333
182
51
-65
-159
-219
-250
-266
-273
-272
-269
-266
-263
-261
-263
-265
-268
-270
-271
-274
-277
-279
-281
-282
-281
-279
-276
-273
-267
-262
-257
-251
-246
-242
-237
-230
-223
-216
-208
-204
-200
-192
-185
-180
-176
-170
-165
-160
-155
-151
-147
-142
-136
-132
-128
-126
-124
-121
-118
-118
-116
-111
-112
-120
-132
-144
-158
-177
-196
-187
-159
-144
-112
-66
-72
-66
-5
-44
-84
254
1022
1929
2250
1100
-748
-1207
-271
226
5
-34
71
26
21
79
80
87
124
139
155
188
213
239
273
306
340
382
424
465
506
549
588
618
639
649
645
610
528
400
253
115
-9
-113
-188
-230
-252
-263
-266
-262
-258
-255
-254
-253
-254
-258
-264
-267
-267
-268
-270
-272
-272
-273
-273
-271
-269
-266
-261
-256
-252
-247
-242
-238
-233
-225
-217
-212
-205
-197
-190
-184
-179
-174
-169
-164
-160
-155
-149
-143
-140
-135
-130
-125
-123
-122
-121
-116
-112
-112
-108
-102
-105
-119
-132
-142
-154
-175
-194
-181
-154
-140
-105
-65
-75
-59
-5
-57
-57
355
1177
2055
2156
756
-980
-1106
-123
213
-21
-8
77
24
38
89
84
99
134
149
169
200
224
252
287
320
356
399
439
479
522
565
602
633
654
662
650
607
516
384
237
100
-22
-124
-196
-238
-260
-267
-265
-262
-260
-260
-259
-259
-262
-264
-266
-269
-273
-278
-281
-281
-279
-280
-281
-277
-272
-271
-266
-260
-257
-254
-247
-240
-236
-230
-223
-216
-211
-206
-202
-196
-189
-184
-181
-180
-176
-171
-164
-159
-157
-155
-151
-145
-140
-135
-132
-131
-131
-128
-125
-123
-123
-128
-133
-139
-148
-159
-178
-191
-177
-157
-143
-101
-73
-97
-73
-14
-61
-19
433
1253
2097
2141
712
-945
-987
-47
212
-26
4
86
42
60
98
91
117
157
169
188
216
238
269
309
346
385
428
471
513
558
605
644
669
692
714
710
656
551
404
239
87
-45
-155
-232
-266
-275
-282
-287
-289
-298
-308
-298
-284
-294
-305
-291
-280
-285
-286
-282
-287
-293
-293
-292
-289
-286
-286
-284
-276
-271
-267
-255
-244
-240
-240
-237
-235
-231
-221
-209
-203
-199
-191
-184
-179
-173
-171
-171
-163
-152
-150
-149
-139
-135
-137
-134
-127
-124
-125
-129
-126
-116
-124
-147
-160
-180
-211
-208
-169
-150
-127
-78
-74
-80
-20
-37
-105
180
934
1785
2085
1116
-600
-1217
-408
200
62
-15
87
59
39
96
107
110
143
160
178
213
241
268
309
350
386
428
476
525
576
630
679
723
758
778
777
741
647
495
321
157
10
-119
-213
-267
-291
-298
-297
-293
-287
-279
-274
-272
-271
-270
-272
-275
-276
-278
-282
-285
-286
-287
-289
-290
-288
-286
-283
-280
-277
-272
-266
-261
-256
-246
-238
-235
-228
-219
-215
-211
-203
-195
-191
-185
-179
-174
-170
-165
-160
-155
-149
-147
-145
-140
-134
-131
-127
-122
-118
-115
-115
-119
-127
-137
-151
-171
-195
-202
-177
-151
-133
-92
-66
-80
-41
-6
-82
-6
519
1402
2207
1992
339
-1128
-853
59
159
-56
17
57
4
45
81
71
98
130
141
167
200
224
254
293
329
368
415
464
514
563
610
655
696
723
733
723
671
556
394
230
83
-52
-165
-240
-281
-298
-300
-296
-292
-283
-273
-268
-267
-267
-268
-272
-274
-275
-277
-279
-280
-282
-282
-279
-278
-280
-277
-267
-260
-259
-255
-247
-243
-239
-232
-225
-220
-215
-209
-204
-196
-187
-182
-180
-175
-171
-168
-162
-152
-146
-142
-137
-134
-133
-132
-130
-128
-126
-123
-118
-115
-118
-127
-141
-158
-175
-196
-207
-189
-163
-149
-110
-71
-85
-66
-13
-70
-54
387
1218
2084
2176
790
-910
-1030
-92
202
-33
-11
67
10
29
80
75
92
122
129
155
196
222
250
283
314
354
400
445
497
556
609
656
702
733
744
738
698
593
434
264
106
-38
-161
-248
-295
-314
-319
-317
-306
-293
-288
-286
-281
-277
-275
-275
-275
-277
-279
-279
-280
-282
-283
-282
-277
-271
-270
-270
-264
-257
-255
-255
-248
-238
-231
-225
-219
-212
-204
-200
-200
-196
-187
-181
-178
-172
-168
-165
-158
-150
-148
-144
-137
-131
-128
-127
-126
-125
-120
-114
-112
-112
-114
-121
-135
-152
-172
-196
-207
-183
-155
-140
-100
-67
-82
-56
-8
-76
-45
419
1251
2091
2118
688
-936
-947
-27
197
-37
0
66
13
39
81
71
94
129
139
163
198
222
254
294
330
368
411
458
511
567
623
675
720
751
769
765
715
603
442
266
103
-38
-158
-246
-295
-316
-320
-315
-306
-298
-289
-279
-275
-276
-274
-271
-272
-275
-279
-281
-280
-280
-280
-280
-277
-274
-270
-265
-261
-257
-252
-246
-240
-234
-229
-224
-217
-210
-204
-197
-191
-188
-183
-176
-170
-167
-163
-158
-153
-148
-143
-140
-137
-133
-129
-127
-124
-121
-120
-119
-114
-111
-113
-111
-104
-101
-101
-98
-99
-108
-121
-135
-153
-175
-184
-164
-136
-123
-89
-48
-63
-57
10
-33
-77
276
1032
1882
2228
1212
-576
-1111
-245
247
23
-28
79
36
29
87
85
92
133
148
162
194
221
249
284
321
359
400
443
493
547
600
651
697
732
753
757
728
647
511
344
179
28
-102
-203
-269
-303
-315
-315
-308
-298
-289
-282
-277
-275
-273
-271
-273
-276
-277
-280
-283
-283
-282
-282
-281
-275
-270
-269
-266
-258
-250
-245
-240
-235
-227
-220
-213
-207
-201
-197
-191
-184
-178
-174
-169
-163
-158
-153
-148
-143
-138
-134
-130
-126
-122
-119
-117
-114
-111
-108
-105
-102
-99
-97
-95
-95
-92
-90
-88
-85
-82
-82
-80
-74
-75
-84
-93
-99
-111
-128
-153
-172
-155
-122
-108
-76
-35
-50
-46
18
-28
-66
292
1037
1858
2155
1099
-662
-1126
-225
256
26
-20
87
43
38
93
89
95
137
153
164
194
220
247
285
319
347
382
427
476
525
574
619
659
694
718
718
690
624
507
352
195
55
-70
-172
-243
-286
-304
-307
-305
-297
-285
-279
-279
-276
-270
-267
-268
-270
-272
-271
-271
-272
-280
-290
-288
-278
-275
-268
-255
-250
-252
-250
-248
-245
-231
-218
-215
-215
-209
-200
-189
-181
-176
-176
-176
-169
-157
-150
-147
-143
-139
-135
-131
-127
-124
-121
-120
-122
-119
-111
-110
-113
-107
-101
-102
-100
-100
-106
-110
-119
-133
-135
-151
-195
-200
-154
-125
-99
-63
-72
-54
-1
-55
12
594
1408
1798
1317
-49
-1247
-1063
-129
190
28
45
108
76
102
144
139
156
187
197
215
241
260
286
324
361
393
428
475
527
577
632
694
736
755
768
759
703
595
443
261
88
-54
-172
-268
-328
-349
-350
-343
-330
-312
-299
-289
-278
-268
-258
-252
-258
-272
-276
-268
-264
-271
-279
-278
-272
-268
-265
-261
-258
-254
-248
-243
-238
-232
-222
-211
-206
-205
-196
-184
-178
-174
-165
-159
-159
-157
-155
-157
-147
-143
-160
-167
-172
-214
-235
-189
-145
-119
-90
-104
-94
-28
-71
-13
604
1397
1472
628
-622
-1405
-1085
-234
127
51
67
134
120
127
160
166
180
206
223
237
256
280
311
341
369
405
443
483
537
596
644
691
744
771
754
717
653
513
311
122
-20
-136
-233
-304
-340
-339
-329
-333
-331
-311
-300
-297
-279
-259
-263
-268
-251
-241
-256
-267
-262
-259
-261
-262
-265
-259
-240
-234
-237
-229
-218
-213
-204
-197
-197
-190
-178
-175
-173
-167
-167
-166
-169
-187
-190
-176
-190
-203
-171
-138
-121
-106
-119
-102
-53
-111
-52
542
1328
1473
664
-648
-1447
-1070
-227
76
-6
21
73
55
79
115
114
126
153
168
188
218
245
275
311
349
393
445
502
568
640
712
781
844
886
899
869
769
590
371
162
-18
-172
-287
-357
-393
-410
-412
-400
-383
-368
-356
-342
-333
-325
-315
-312
-317
-319
-316
-311
-299
-298
-313
-316
-306
-307
-310
-305
-302
-295
-283
-286
-293
-285
-279
-265
-211
-153
-146
-178
-214
-218
-188
-195
-204
-140
-161
-254
8
732
1563
1981
1249
-388
-1170
-519
69
-65
-163
-64
-81
-101
-43
-29
-23
18
45
66
105
143
179
224
272
325
386
454
528
609
692
774
850
908
938
928
852
692
462
218
12
-155
-297
-385
-400
-398
-421
-435
-422
-408
-403
-395
-380
-367
-363
-366
-365
-360
-356
-354
-349
-347
-360
-371
-351
-335
-343
-332
-303
-306
-322
-304
-273
-239
-188
-158
-176
-214
-238
-221
-198
-223
-210
-147
-210
-251
119
910
1866
2249
1068
-841
-1282
-341
102
-129
-152
-64
-108
-78
-7
-11
8
53
66
93
136
154
182
244
298
338
392
453
506
563
628
688
732
761
772
755
686
541
350
171
19
-125
-240
-297
-313
-326
-332
-324
-318
-315
-304
-296
-296
-291
-286
-286
-282
-272
-271
-273
-269
-265
-262
-252
-241
-234
-231
-229
-227
-223
-212
-200
-197
-201
-192
-173
-169
-179
-177
-168
-168
-163
-148
-149
-164
-165
-159
-177
-206
-219
-208
-177
-147
-140
-129
-100
-102
-106
-50
-60
-120
68
608
1451
2221
1753
-101
-1246
-613
151
50
-91
22
10
-32
24
46
50
85
96
101
140
176
197
231
260
271
307
379
431
448
478
532
569
588
603
599
572
530
443
297
151
52
-32
-118
-185
-231
-259
-265
-282
-319
-304
-228
-191
-219
-239
-233
-249
-270
-251
-225
-242
-277
-286
-269
-240
-217
-218
-230
-228
-220
-212
-206
-209
-215
-206
-188
-183
-192
-194
-166
-125
-126
-164
-166
-134
-142
-173
-156
-124
-130
-136
-121
-121
-125
-118
-134
-153
-129
-110
-147
-186
-183
-149
-103
-84
-88
-76
-70
-55
-17
-63
-67
316
1047
1781
1937
815
-885
-1276
-348
182
18
-15
75
37
43
98
87
84
116
130
146
183
211
227
249
281
312
339
374
421
464
497
539
583
607
619
628
604
526
408
269
125
-9
-126
-218
-275
-310
-328
-315
-296
-293
-293
-287
-287
-287
-286
-298
-309
-299
-285
-292
-307
-304
-297
-313
-335
-329
-305
-295
-292
-282
-275
-275
-271
-265
-264
-257
-244
-238
-236
-224
-214
-223
-229
-222
-219
-216
-207
-206
-205
-188
-182
-213
-257
-276
-262
-220
-178
-171
-162
-126
-127
-133
-61
-72
-158
68
673
1456
2168
1843
139
-1068
-554
180
66
-92
31
28
-12
52
74
71
116
148
161
195
232
262
298
337
379
429
480
533
593
655
717
781
837
876
896
885
809
663
479
292
115
-37
-151
-228
-274
-295
-299
-293
-283
-273
-263
-254
-247
-244
-242
-241
-240
-238
-237
-238
-237
-236
-235
-235
-232
-228
-226
-224
-221
-218
-216
-212
-209
-208
-208
-209
-208
-205
-202
-201
-199
-197
-196
-195
-189
-183
-181
-183
-183
-181
-180
-177
-172
-177
-191
-199
-207
-237
-275
-285
-264
-229
-212
-217
-197
-171
-194
-174
-117
-193
-198
206
856
1533
1842
932
-682
-1088
-268
95
-156
-180
-85
-139
-137
-80
-86
-79
-42
-28
-12
20
44
70
108
147
186
229
276
327
386
444
502
558
606
642
660
644
570
439
277
113
-40
-172
-268
-325
-353
-360
-353
-340
-323
-304
-285
-267
-249
-232
-216
-200
-182
-163
-144
-127
-108
-84
