# session 26
4
11
-5
89
271
349
330
342
376
380
376
376
368
350
322
277
216
146
68
-15
-82
-121
-146
-166
-171
-166
-160
-155
-150
-154
-159
-155
-154
-162
-165
-162
-162
-162
-169
-176
-165
-154
-161
-163
-147
-139
-145
-144
-137
-131
-129
-132
-131
-118
-108
-111
-110
-101
-100
-103
-95
-87
-82
-76
-77
-85
-84
-73
-66
-68
-71
-66
-57
-62
-74
-74
-76
-93
-105
-114
-133
-131
-101
-84
-74
-51
-49
-48
-5
-15
-64
91
606
1536
2428
1963
19
-1184
-534
268
172
14
114
86
36
102
119
94
120
147
151
168
186
194
210
235
257
270
276
286
311
332
324
302
291
283
268
241
191
131
75
-1
-90
-139
-154
-183
-215
-226
-225
-215
-203
-206
-215
-210
-204
-215
-234
-240
-230
-227
-234
-236
-241
-249
-242
-236
-233
-210
-194
-214
-216
-185
-179
-204
-206
-193
-190
-187
-177
-174
-170
-157
-149
-150
-150
-151
-145
-134
-133
-134
-128
-129
-132
-121
-115
-122
-117
-103
-104
-111
-110
-109
-120
-132
-139
-146
-146
-130
-110
-89
-68
-76
-76
-31
-26
-57
74
537
1461
2413
2029
108
-1163
-582
233
174
10
105
100
55
101
113
103
134
153
157
178
198
213
235
253
268
290
309
322
341
362
374
375
369
360
349
329
291
232
150
56
-31
-101
-158
-202
-226
-234
-234
-230
-218
-208
-209
-210
-207
-207
-214
-221
-224
-223
-226
-234
-236
-231
-231
-232
-228
-224
-222
-218
-217
-220
-219
-214
-212
-208
-200
-196
-195
-194
-188
-182
-184
-186
-180
-172
-170
-169
-161
-154
-150
-147
-147
-146
-134
-122
-124
-125
-122
-126
-131
-139
-162
-187
-198
-182
-149
-136
-127
-87
-76
-90
-38
-26
-97
65
627
1463
2206
1846
114
-1106
-566
255
198
19
124
123
71
121
137
124
163
193
199
220
241
261
294
322
337
366
410
452
487
517
547
579
608
624
624
606
553
448
299
134
-17
-141
-235
-305
-344
-356
-356
-351
-339
-326
-321
-319
-310
-303
-306
-311
-311
-314
-321
-319
-312
-312
-317
-317
-312
-308
-305
-301
-296
-289
-282
-273
-263
-256
-249
-243
-237
-229
-219
-216
-214
-202
-190
-189
-190
-181
-166
-157
-158
-158
-149
-142
-141
-139
-137
-142
-152
-163
-183
-210
-221
-198
-161
-148
-132
-89
-85
-98
-40
-32
-116
32
554
1357
2215
2101
471
-887
-495
294
225
22
123
121
56
107
135
126
155
173
172
199
235
257
280
306
331
363
398
430
469
520
561
582
605
634
648
631
579
479
330
160
0
-130
-226
-295
-336
-350
-351
-345
-331
-322
-323
-317
-305
-305
-309
-305
-303
-308
-312
-315
-312
-298
-289
-293
-293
-285
-281
-278
-267
-254
-251
-249
-242
-237
-235
-229
-217
-203
-197
-200
-194
-180
-182
-193
-182
-157
-145
-146
-142
-136
-139
-140
-132
-127
-127
-120
-115
-123
-134
-144
-158
-176
-191
-187
-158
-141
-134
-96
-76
-97
-61
-36
-114
-22
456
1239
2095
2092
551
-959
-710
207
268
20
96
133
71
113
144
124
150
183
185
202
224
234
257
293
317
339
366
389
412
447
480
498
505
511
515
511
479
400
285
159
38
-73
-158
-215
-252
-272
-271
-261
-262
-265
-259
-248
-245
-249
-257
-260
-256
-257
-266
-265
-253
-255
-272
-281
-261
-236
-236
-251
-250
-236
-224
-222
-229
-227
-212
-206
-210
-202
-189
-187
-184
-175
-177
-178
-158
-147
-156
-156
-147
-147
-145
-133
-133
-139
-132
-124
-126
-135
-145
-154
-162
-170
-183
-190
-177
-156
-132
-88
-72
-104
-80
-28
-79
-44
354
1146
2118
2307
844
-903
-912
77
297
22
52
122
65
91
132
112
129
158
156
170
199
205
218
260
288
294
312
340
358
373
394
412
419
415
406
395
364
294
207
122
30
-61
-140
-203
-234
-233
-234
-243
-239
-232
-231
-222
-216
-229
-237
-234
-244
-256
-245
-232
-240
-250
-249
-245
-239
-240
-243
-235
-221
-219
-222
-214
-206
-209
-209
-194
-179
-180
-188
-185
-171
-163
-162
-155
-155
-168
-162
-141
-138
-142
-131
-122
-120
-119
-130
-141
-126
-109
-122
-148
-159
-152
-143
-137
-106
-67
-70
-73
-38
-48
-64
144
763
1818
2548
1630
-424
-1223
-349
276
88
14
127
83
54
102
101
108
137
133
148
188
195
197
232
256
259
277
301
316
335
358
371
367
353
341
335
320
275
199
112
32
-45
-115
-157
-182
-213
-229
-216
-201
-200
-202
-194
-190
-197
-206
-207
-210
-217
-218
-217
-222
-229
-233
-231
-223
-217
-216
-214
-213
-220
-224
-216
-212
-216
-209
-201
-208
-214
-206
-198
-198
-199
-193
-184
-174
-159
-151
-159
-163
-148
-142
-152
-155
-160
-170
-172
-187
-208
-189
-154
-138
-115
-98
-103
-76
-60
-92
10
457
1349
2338
2175
356
-1185
-821
133
204
-13
71
112
62
93
108
86
114
145
155
178
197
202
217
239
258
279
302
325
344
358
375
384
376
377
381
350
299
246
158
48
-34
-99
-166
-211
-230
-242
-241
-229
-221
-212
-200
-201
-208
-209
-207
-209
-211
-210
-207
-211
-219
-224
-224
-223
-224
-227
-228
-225
-220
-212
-207
-212
-214
-201
-190
-191
-187
-175
-169
-170
-167
-160
-155
-160
-161
-144
-132
-143
-149
-142
-152
-167
-170
-183
-201
-187
-151
-123
-109
-112
-97
-56
-67
-91
79
639
1672
2512
1769
-288
-1279
-478
257
117
-11
86
60
39
101
97
77
109
125
127
156
186
195
208
233
258
275
282
291
315
342
351
351
352
338
313
296
257
175
93
31
-39
-119
-172
-197
-218
-229
-217
-205
-206
-205
-196
-192
-197
-206
-211
-212
-214
-214
-209
-213
-225
-222
-208
-211
-219
-210
-199
-201
-204
-200
-192
-184
-179
-172
-167
-170
-172
-161
-150
-146
-142
-136
-135
-132
-124
-120
-123
-125
-115
-112
-119
-119
-120
-133
-147
-156
-162
-157
-142
-121
-98
-100
-101
-65
-65
-96
52
588
1564
2383
1749
-237
-1330
-599
216
135
-14
83
73
38
90
101
93
121
131
133
164
193
212
231
245
263
297
326
347
382
414
425
434
446
442
432
423
386
300
183
66
-33
-115
-196
-261
-286
-280
-281
-291
-288
-267
-251
-251
-255
-254
-252
-254
-260
-264
-266
-275
-284
-273
-255
-257
-264
-258
-252
-249
-238
-228
-227
-227
-220
-206
-194
-194
-196
-190
-175
-159
-154
-161
-156
-137
-133
-143
-138
-126
-130
-134
-138
-157
-170
-166
-175
-183
-158
-127
-109
-101
-102
-75
-46
-94
-64
285
1041
2071
2431
1081
-795
-1010
-26
300
30
20
99
47
56
99
96
110
133
142
159
171
182
211
232
242
272
306
323
339
361
374
386
405
407
389
374
353
293
203
106
9
-86
-160
-207
-242
-262
-255
-238
-237
-239
-230
-223
-226
-225
-224
-230
-232
-228
-232
-239
-236
-234
-238
-236
-227
-223
-226
-224
-215
-202
-196
-198
-199
-194
-187
-178
-166
-159
-162
-160
-147
-139
-140
-130
-117
-121
-122
-106
-99
-102
-100
-96
-97
-96
-98
-110
-118
-121
-129
-146
-160
-154
-134
-122
-104
-77
-85
-93
-42
-43
-93
88
662
1585
2347
1750
-181
-1270
-556
234
120
-39
67
58
16
63
74
68
100
115
119
147
172
188
215
246
273
306
347
385
418
456
502
539
557
575
593
584
531
435
302
149
6
-116
-213
-273
-301
-316
-324
-319
-305
-295
-292
-289
-283
-277
-277
-277
-280
-288
-295
-294
-295
-299
-302
-299
-291
-282
-280
-285
-285
-273
-259
-257
-257
-250
-242
-238
-233
-226
-216
-208
-208
-206
-196
-186
-183
-183
-181
-173
-164
-159
-152
-143
-148
-160
-158
-160
-186
-217
-226
-204
-170
-152
-126
-87
-98
-106
-35
-53
-138
76
660
1518
2368
2041
226
-976
-381
337
160
-13
111
96
50
107
120
113
144
154
162
201
230
244
268
295
324
359
392
429
475
518
553
590
628
651
657
648
602
489
320
143
-11
-137
-233
-298
-331
-338
-337
-337
-332
-323
-318
-318
-311
-298
-298
-307
-307
-306
-317
-321
-310
-304
-308
-304
-296
-292
-288
-287
-286
-274
-261
-259
-258
-253
-251
-246
-233
-226
-228
-224
-212
-206
-206
-201
-194
-187
-178
-174
-176
-174
-164
-159
-167
-172
-167
-169
-193
-222
-235
-224
-194
-169
-146
-109
-105
-116
-60
-40
-120
-12
463
1268
2224
2285
683
-901
-665
228
252
-2
78
111
52
94
119
103
132
156
157
185
215
228
254
285
302
328
371
410
443
476
510
545
578
600
613
610
565
474
348
198
43
-87
-186
-259
-300
-316
-322
-322
-316
-301
-286
-283
-287
-287
-286
-292
-297
-295
-295
-296
-290
-288
-293
-289
-280
-283
-283
-265
-254
-260
-257
-246
-243
-238
-226
-221
-223
-217
-207
-206
-205
-195
-188
-183
-176
-169
-161
-154
-154
-152
-152
-159
-155
-138
-134
-142
-144
-146
-165
-191
-212
-210
-177
-142
-129
-110
-87
-93
-69
-25
-79
-80
231
894
1919
2634
1684
-334
-972
-82
345
57
26
139
71
64
128
111
101
138
149
148
171
204
229
241
252
269
287
312
343
369
389
408
412
404
410
416
390
337
266
159
36
-61
-129
-191
-240
-258
-251
-241
-246
-252
-239
-231
-249
-254
-230
-220
-236
-245
-242
-245
-249
-247
-249
-259
-257
-239
-229
-235
-240
-232
-225
-229
-233
-222
-206
-202
-203
-196
-187
-184
-184
-181
-174
-170
-169
-163
-158
-153
-143
-139
-148
-142
-124
-130
-144
-135
-130
-148
-162
-169
-175
-168
-158
-141
-98
-77
-88
-58
-39
-88
-12
405
1273
2341
2377
642
-1057
-849
120
235
-6
56
97
42
77
107
92
105
124
141
170
180
181
205
233
246
258
281
307
327
339
345
353
365
362
337
320
309
258
162
68
-8
-81
-149
-198
-222
-225
-224
-225
-225
-219
-203
-194
-201
-205
-200
-204
-214
-216
-223
-236
-234
-221
-220
-226
-228
-228
-224
-215
-214
-219
-215
-208
-209
-205
-193
-191
-192
-186
-184
-182
-166
-152
-151
-153
-154
-153
-144
-138
-139
-135
-133
-139
-134
-127
-142
-160
-167
-175
-170
-147
-129
-108
-90
-97
-82
-44
-72
-63
237
998
2086
2470
1082
-873
-1150
-132
278
43
30
113
62
72
119
106
113
144
151
166
194
211
227
255
280
301
326
355
380
406
435
458
472
483
488
481
458
404
300
165
36
-80
-179
-246
-282
-304
-313
-309
-300
-290
-280
-273
-269
-266
-265
-264
-263
-265
-272
-277
-278
-276
-272
-272
-276
-276
-269
-266
-267
-262
-254
-246
-241
-237
-235
-231
-224
-218
-215
-213
-210
-201
-189
-182
-178
-172
-164
-160
-156
-152
-153
-159
-168
-181
-198
-224
-237
-206
-168
-155
-127
-105
-125
-93
-46
-117
-69
427
1287
2133
2088
556
-1035
-914
50
249
28
82
134
72
98
136
130
146
161
171
211
247
268
295
311
324
371
428
462
498
549
598
639
677
712
737
739
690
576
408
217
33
-124
-245
-324
-365
-381
-385
-383
-374
-358
-344
-339
-336
-330
-324
-321
-322
-328
-331
-330
-333
-334
-326
-324
-331
-323
-307
-308
-313
-304
-295
-292
-289
-284
-280
-275
-272
-265
-251
-238
-233
-232
-225
-216
-216
-217
-217
-230
-253
-278
-296
-274
-224
-200
-180
-144
-147
-136
-74
-114
-163
134
859
1866
2486
1546
-417
-1093
-213
304
56
-7
102
54
42
100
100
108
145
155
168
195
216
246
286
315
342
382
424
468
519
572
623
670
709
739
754
725
621
448
245
52
-112
-241
-330
-381
-405
-414
-410
-398
-385
-374
-360
-350
-344
-340
-337
-335
-334
-335
-337
-336
-335
-334
-330
-328
-325
-317
-311
-310
-304
-293
-289
-290
-282
-273
-267
-259
-249
-249
-253
-252
-256
-267
-266
-243
-198
-136
-101
-120
-160
-185
-185
-172
-184
-170
-103
-142
-225
-20
552
1509
2513
2162
173
-1107
-476
252
70
-80
47
16
-28
40
56
54
102
130
139
171
203
228
258
287
316
356
399
441
487
538
588
637
682
715
734
722
640
483
294
113
-53
-192
-288
-341
-367
-374
-367
-356
-348
-336
-318
-305
-298
-288
-280
-280
-280
-276
-273
-273
-271
-268
-265
-265
-263
-255
-247
-240
-230
-221
-219
-216
-214
-213
-208
-201
-197
-191
-181
-178
-180
-176
-172
-177
-181
-176
-170
-169
-167
-161
-151
-146
-152
-149
-131
-130
-156
-175
-178
-168
-143
-121
-105
-87
-86
-78
-41
-68
-97
149
814
1804
2369
1352
-610
-1217
-256
333
119
32
108
61
66
135
136
136
166
182
200
228
254
282
310
334
361
394
432
464
483
507
544
574
592
614
628
595
516
413
285
142
8
-122
-236
-285
-279
-290
-321
-330
-318
-306
-304
-298
-279
-270
-273
-264
-266
-291
-294
-280
-290
-302
-292
-288
-292
-293
-300
-302
-285
-275
-285
-288
-282
-283
-277
-261
-263
-261
-229
-215
-238
-239
-223
-235
-232
-192
-177
-198
-200
-185
-181
-185
-184
-174
-179
-197
-205
-214
-234
-230
-199
-190
-194
-171
-145
-134
-103
-88
-132
-80
273
1086
2174
2350
726
-1091
-1058
-41
216
-7
24
71
28
75
101
60
93
162
167
160
190
220
239
271
303
318
351
410
441
435
455
518
574
588
569
549
538
495
380
224
87
-19
-114
-188
-219
-220
-225
-233
-230
-219
-201
-182
-187
-198
-173
-141
-139
-142
-128
-115
-124
-140
-142
-127
-114
-109
-114
-130
-136
-122
-104
-102
-111
-115
-106
-90
-86
-98
-97
-70
-47
-55
-73
-74
-60
-52
-61
-68
-53
-37
-34
-35
-42
-51
-53
-59
-63
-51
-46
-60
-87
-129
-146
-107
-64
-58
-54
-40
-29
-18
-17
-16
6
