# session 14
-63
-92
-4
-99
-485
-766
-743
-673
-681
-660
-624
-633
-634
-610
-599
-574
-492
-410
-389
-397
-399
-402
-368
-311
-342
-364
-160
348
1133
1570
717
-755
-1061
-326
-4
-156
-127
-53
-94
-59
22
49
91
163
223
283
348
405
454
492
523
549
551
520
463
374
254
134
35
-36
-84
-128
-158
-158
-153
-174
-194
-193
-194
-203
-207
-206
-207
-208
-208
-214
-232
-232
-187
-148
-148
-124
-91
-141
-179
-104
-101
-186
-48
468
1272
1789
1083
-406
-921
-288
98
-38
-67
-4
-28
-10
45
62
102
168
215
264
324
369
398
420
432
426
404
367
293
179
70
-23
-125
-187
-173
-158
-198
-235
-238
-246
-259
-257
-257
-273
-275
-270
-300
-332
-318
-316
-343
-295
-187
-159
-203
-216
-235
-263
-217
-198
-278
-233
151
986
1918
1723
130
-979
-566
-14
-145
-251
-142
-156
-174
-89
-40
-15
47
108
173
254
317
359
399
419
410
393
374
323
232
127
22
-77
-151
-197
-235
-269
-292
-309
-322
-325
-321
-319
-318
-322
-331
-329
-322
-332
-352
-363
-344
-277
-202
-192
-212
-214
-225
-214
-169
-217
-288
-113
403
1190
1662
867
-634
-1027
-308
28
-156
-150
-56
-82
-52
18
43
98
178
228
285
360
414
453
489
497
482
470
445
372
261
153
64
-10
-62
-95
-118
-132
-143
-160
-172
-172
-172
-178
-179
-178
-182
-185
-185
-188
-191
-192
-177
-132
-93
-98
-119
-140
-164
-147
-106
-134
-180
-69
511
1672
2334
1221
-558
-899
-193
-2
-205
-169
-113
-154
-108
-50
-50
-4
79
138
197
259
291
307
338
380
402
388
339
264
177
83
-16
-101
-156
-198
-238
-258
-256
-261
-275
-285
-290
-290
-291
-301
-310
-309
-305
-304
-302
-303
-302
-291
-257
-199
-158
-175
-210
-225
-237
-211
-162
-213
-232
67
653
1273
1401
432
-933
-1154
-404
-53
-196
-190
-105
-132
-137
-89
-31
47
102
141
215
281
303
345
420
462
462
449
410
331
227
109
-6
-92
-152
-191
-209
-222
-232
-221
-210
-221
-235
-230
-223
-226
-224
-212
-208
-215
-213
-208
-217
-218
-176
-111
-79
-92
-108
-124
-129
-69
-31
-87
3
412
1031
1632
1511
223
-966
-750
-14
79
-62
20
57
18
61
102
119
176
236
278
333
375
389
410
436
436
417
391
342
250
121
-8
-91
-125
-144
-178
-205
-201
-177
-164
-167
-175
-178
-170
-156
-152
-163
-177
-193
-208
-212
-225
-255
-239
-153
-92
-104
-122
-123
-123
-81
-55
-119
-152
1
637
1957
2755
1477
-630
-1104
-362
-166
-384
-335
-274
-322
-280
-221
-210
-159
-81
-21
40
120
200
244
254
265
268
226
151
68
-25
-122
-221
-310
-354
-354
-362
-379
-370
-345
-326
-319
-336
-357
-362
-376
-385
-350
-326
-353
-367
-348
-338
-328
-291
-233
-189
-195
-232
-261
-272
-229
-179
-221
-170
201
755
1246
1220
204
-984
-966
-159
143
25
71
142
113
139
199
229
282
359
433
502
568
641
705
722
708
682
625
542
451
329
180
62
-7
-57
-98
-121
-128
-132
-143
-155
-157
-158
-167
-178
-186
-193
-194
-187
-190
-210
-227
-230
-230
-232
-208
-143
-82
-74
-105
-139
-133
-67
-54
-114
-62
194
888
2193
2846
1449
-516
-787
-89
-11
-208
-126
-89
-140
-88
-36
-25
23
78
112
153
192
221
239
236
211
171
113
46
-23
-106
-198
-277
-324
-336
-330
-321
-315
-314
-317
-304
-296
-339
-408
-431
-407
-394
-404
-410
-414
-437
-459
-443
-405
-374
-333
-284
-270
-294
-316
-331
-339
-293
-247
-266
-191
137
666
1136
912
-261
-1202
-869
-127
-12
-141
-78
-34
-40
22
78
115
188
264
334
435
545
633
697
727
724
696
635
540
434
322
199
83
6
-29
-49
-67
-76
-81
-84
-80
-83
-109
-139
-153
-161
-175
-190
-203
-214
-219
-222
-227
-231
-236
-234
-190
-114
-86
-115
-135
-154
-156
-94
-92
-165
-50
310
995
2078
2399
891
-798
-753
-11
11
-164
-69
-55
-102
-29
34
60
125
179
198
252
343
412
440
451
449
420
373
312
217
97
-20
-119
-193
-232
-250
-265
-280
-289
-294
-299
-312
-333
-346
-355
-366
-375
-375
-371
-366
-362
-365
-380
-395
-389
-346
-275
-223
-230
-263
-283
-296
-275
-236
-283
-305
-46
554
1358
1706
754
-767
-1112
-399
-62
-209
-196
-107
-131
-126
-71
-13
67
136
187
258
334
398
460
497
497
483
454
390
306
224
136
41
-39
-90
-116
-130
-139
-150
-165
-176
-177
-175
-181
-186
-183
-188
-196
-190
-175
-174
-185
-199
-209
-205
-178
-129
-107
-135
-159
-168
-189
-165
-126
-175
-148
142
690
1522
2001
1044
-605
-981
-254
24
-167
-147
-68
-97
-61
10
44
106
176
220
289
382
455
504
538
549
532
496
442
365
255
120
-8
-96
-144
-173
-200
-219
-224
-221
-228
-246
-260
-265
-273
-294
-323
-345
-351
-351
-359
-368
-378
-397
-416
-425
-406
-347
-280
-258
-262
-269
-290
-263
-188
-216
-279
-169
226
1266
2635
2491
401
-1073
-635
-30
-201
-320
-183
-139
-119
-76
-70
-23
58
102
146
211
275
344
395
399
384
373
336
249
136
27
-75
-161
-216
-256
-286
-283
-271
-294
-317
-296
-274
-300
-336
-335
-307
-292
-302
-305
-289
-290
-323
-351
-353
-333
-261
-168
-144
-159
-147
-153
-145
-75
-86
-145
-48
274
1248
2807
3040
1028
-748
-555
-4
-190
-288
-133
-168
-201
-99
-56
-37
40
104
150
214
267
293
307
313
307
283
237
193
160
99
1
-67
-74
-82
-120
-135
-118
-112
-128
-142
-143
-136
-132
-140
-149
-159
-169
-165
-166
-194
-212
-214
-255
-298
-252
-156
-114
-127
-153
-194
-229
-190
-144
-209
-278
-125
565
1922
2781
1631
-442
-1022
-345
-124
-347
-321
-248
-287
-238
-148
-118
-89
-30
43
126
198
254
299
326
329
320
306
268
184
70
-30
-107
-174
-227
-252
-259
-283
-334
-347
-285
-248
-304
-358
-329
-293
-316
-350
-348
-339
-340
-331
-315
-330
-368
-390
-386
-362
-304
-226
-197
-220
-225
-229
-234
-167
-125
-197
-141
253
994
1848
1829
413
-856
-645
-17
-35
-154
-29
19
10
69
108
141
210
254
286
354
408
418
435
468
459
416
386
355
289
211
148
95
55
32
0
-40
-55
-51
-70
-103
-113
-118
-131
-128
-120
-139
-169
-173
-160
-147
-138
-140
-148
-158
-187
-225
-206
-120
-50
-53
-82
-95
-86
-61
-68
-101
-82
80
825
2347
3127
1638
-528
-949
-269
-155
-372
-318
-278
-350
-322
-241
-187
-127
-72
-26
48
125
165
187
220
248
240
210
189
170
112
2
-114
-190
-237
-279
-301
-309
-333
-346
-334
-349
-387
-387
-386
-420
-407
-329
-303
-353
-383
-365
-350
-359
-379
-379
-344
-306
-273
-216
-174
-194
-211
-189
-186
-175
-144
-177
-171
89
634
1400
1821
975
-565
-995
-274
112
-54
-74
2
-33
-1
89
112
139
210
272
327
388
436
475
495
483
464
446
405
342
273
194
105
27
-30
-68
-91
-107
-114
-109
-106
-115
-124
-125
-123
-122
-122
-122
-125
-133
-145
-153
-158
-168
-184
-197
-203
-209
-207
-163
-94
-69
-85
-90
-93
-82
-36
-43
-86
12
368
1192
2223
2073
315
-1018
-661
-14
-84
-211
-116
-114
-134
-76
-48
-27
34
79
126
211
285
318
348
373
357
321
297
263
188
90
-5
-98
-186
-239
-260
-284
-313
-322
-336
-363
-367
-366
-402
-434
-416
-390
-396
-410
-413
-414
-417
-427
-436
-426
-413
-411
-384
-307
-239
-234
-251
-266
-297
-280
-218
-259
-254
102
684
1240
1460
694
-734
-1223
-502
15
-82
-105
2
-11
-13
51
85
128
211
284
357
455
560
643
692
710
700
648
562
469
364
241
131
59
14
-16
-28
-18
2
8
4
1
-10
-25
-31
-42
-77
-116
-138
-153
-173
-194
-206
-217
-246
-271
-239
-166
-139
-167
-179
-186
-201
-152
-110
-167
-142
112
789
2108
2945
1701
-427
-915
-170
17
-200
-139
-81
-139
-97
-39
-34
0
51
95
157
223
282
335
365
366
343
279
170
49
-81
-218
-330
-402
-450
-469
-459
-444
-436
-425
-409
-395
-383
-373
-368
-371
-374
-367
-362
-374
-383
-381
-395
-430
-430
-372
-309
-296
-311
-302
-307
-351
-327
-246
-259
-247
35
598
1257
1375
323
-978
-1035
-295
-53
-179
-123
-64
-93
-44
18
38
93
167
234
329
429
519
619
690
700
704
718
683
585
457
303
139
16
-57
-103
-125
-120
-113
-115
-112
-99
-91
-93
-100
-99
-97
-104
-109
-104
-106
-121
-137
-158
-177
-188
-207
-231
-206
-137
-109
-140
-163
-181
-189
-124
-104
-178
-88
232
818
1871
2429
1154
-684
-887
-127
-12
-205
-112
-64
-108
-37
28
37
93
166
222
297
375
428
472
513
534
520
466
375
257
128
6
-105
-201
-271
-313
-329
-328
-325
-327
-325
-324
-332
-342
-352
-368
-385
-394
-399
-405
-403
-392
-382
-385
-382
-367
-364
-379
-360
-272
-192
-192
-219
-231
-268
-269
-198
-199
-242
-96
352
1232
2122
1680
-119
-1155
-613
-44
-154
-231
-117
-101
-110
-64
-6
58
109
148
224
320
408
500
578
612
612
586
509
382
225
57
-92
-203
-281
-316
-300
-259
-230
-222
-208
-171
-157
-203
-243
-230
-222
-241
-239
-226
-236
-236
-206
-183
-174
-170
-177
-179
-162
-149
-153
-150
-109
-50
-34
-79
-116
-119
-95
-39
-35
-117
-40
313
840
1513
1696
544
-904
-891
-46
104
-129
-27
90
35
55
118
146
237
328
340
397
531
621
673
754
821
830
784
693
597
487
300
92
-15
-46
-95
-164
-188
-160
-152
-178
-174
-169
-219
-249
-225
-260
-343
-346
-311
-337
-359
-352
-366
-355
-296
-288
-335
-346
-330
-332
-314
-268
-257
-295
-320
-299
-261
-238
-251
-280
-278
-269
-300
-311
-246
-170
-145
-160
-176
-163
-163
-181
-123
-76
-164
-91
376
992
1427
1146
-133
-1236
-960
-162
-6
-131
-64
-31
-72
-48
-16
11
76
133
185
282
385
441
483
552
619
638
620
577
486
352
208
75
-34
-115
-184
-242
-255
-221
-184
-161
-143
-136
-142
-139
-117
-97
-93
-91
-81
-78
-78
-50
-17
-31
-67
-63
-40
-45
-57
-49
-48
-63
-68
-80
-124
-165
-162
-115
-44
-10
-41
-62
-49
-56
-42
-23
-88
-72
196
721
1601
2198
1274
-486
-968
-272
-23
-246
-217
-124
-167
-150
-93
-61
15
103
156
222
306
386
473
556
605
614
591
537
443
305
150
7
-113
-209
-278
-315
-318
-308
-312
-311
-286
-275
-290
-289
-277
-300
-337
-334
-297
-277
-289
-296
-298
-328
-352
-317
-288
-312
-303
-241
-237
-290
-282
-229
-214
-231
-271
-322
-312
-252
-224
-192
-133
-145
-185
-153
-140
-179
-179
-206
-202
55
509
1210
2052
1792
19
-1179
-612
105
-16
-166
-61
-63
-111
-91
-53
39
155
216
266
344
428
530
657
761
813
823
816
796
688
459
268
215
135
-68
-256
-304
-214
-100
-105
-179
-166
-120
-167
-237
-235
-203
-188
-214
-306
-318
-167
-144
-366
-455
-327
-317
-398
-346
-258
-245
-276
-374
-447
-336
-165
-167
-251
-216
-161
-217
-224
-155
-217
-246
66
696
1559
2058
1138
-575
-1094
-397
-49
-217
-196
-82
-110
-110
-45
-1
54
128
182
231
316
441
568
641
658
682
707
653
513
356
191
6
-137
-212
-289
-376
-401
-366
-329
-300
-272
-251
-233
-229
-258
-294
-304
-306
-321
-326
-314
-311
-318
-307
-280
-270
-277
-261
-233
-242
-255
-203
-119
-95
-131
-144
-136
-150
-115
-26
-71
-167
22
542
1425
2403
2135
265
-1056
-618
20
-80
-170
-62
-89
-105
-26
12
49
117
162
223
321
417
514
607
677
732
751
700
606
484
316
131
-21
-141
-246
-323
-359
-361
-339
-306
-274
-251
-242
-246
-249
-244
-253
-284
-304
-301
-301
-304
-297
-300
-308
-289
-273
-292
-306
-285
-262
-258
-262
-272
-288
-294
-274
-230
-175
-126
-128
-168
-167
-146
-157
-133
-117
-180
-87
312
940
1735
1927
639
-905
-896
-92
2
-213
-89
13
-39
2
75
89
143
231
281
334
436
529
581
646
732
777
756
693
586
440
274
98
-69
-191
-265
-305
-311
-304
-300
-284
-270
-280
-283
-271
-291
-321
-309
-292
-310
-325
-320
-317
-300
-276
-300
-344
-338
-305
-294
-300
-298
-278
-250
-245
-270
-288
-281
-273
-279
-272
-230
-189
-163
-141
-144
-172
-192
-211
-185
-99
-106
-148
96
653
1361
1822
1155
-445
-1176
-522
32
-71
-107
10
-13
-15
65
65
67
206
367
430
467
559
653
686
741
885
994
958
851
733
543
307
130
-12
-166
-246
-231
-241
-286
-277
-246
-242
-221
-193
-201
-206
-197
-200
-198
-197
-228
-256
-238
-201
-208
-263
-279
-220
-188
-214
-193
-111
-85
-144
-173
-127
-110
-152
-129
-61
-98
-210
-247
-196
-134
-92
-59
-24
-22
-43
-39
-54
-78
-22
-16
-103
18
449
1218
2277
2414
751
-864
-680
31
-25
-166
-17
0
-36
48
87
76
138
228
279
328
423
524
580
621
679
739
774
742
621
462
296
117
-60
-215
-331
-386
-406
-412
-380
-342
-357
-380
-362
-355
-378
-387
-394
-422
-444
-454
-462
-446
-406
-385
-405
-445
-455
-427
-406
-402
-408
-435
-443
-392
-361
-396
-432
-450
-459
-410
-352
-384
-425
-378
-346
-399
-425
-363
-301
-312
-342
-299
-246
-290
-308
-229
-256
-317
-95
392
1145
1901
1468
-259
-1232
-638
-59
-191
-258
-102
-51
-43
-5
28
100
199
267
334
434
550
661
774
916
1049
1094
1077
1060
1006
877
704
527
374
266
185
119
103
143
188
205
212
227
