# session 23
-65
-78
-30
-101
-329
-472
-449
-417
-424
-413
-397
-395
-386
-374
-365
-353
-343
-336
-325
-313
-305
-298
-288
-279
-274
-267
-254
-241
-231
-221
-219
-223
-221
-220
-231
-251
-279
-294
-256
-203
-183
-157
-124
-134
-112
-55
-114
-102
364
1229
2047
1999
520
-1120
-1103
-85
220
-12
15
92
38
60
109
100
119
158
169
187
219
243
270
303
337
375
416
460
510
563
615
666
712
747
765
762
721
616
451
267
97
-52
-174
-256
-303
-324
-328
-325
-317
-307
-297
-290
-286
-282
-280
-281
-283
-284
-285
-287
-290
-288
-284
-281
-279
-281
-281
-264
-250
-262
-273
-255
-237
-237
-238
-234
-229
-221
-213
-209
-207
-207
-198
-186
-185
-186
-175
-178
-194
-197
-201
-233
-271
-280
-245
-196
-171
-143
-105
-114
-107
-45
-87
-141
152
823
1714
2318
1534
-348
-1135
-317
262
38
-47
75
34
5
60
61
64
105
118
121
147
176
199
224
255
292
322
349
390
440
483
517
542
563
580
584
561
495
379
238
101
-24
-128
-204
-254
-280
-285
-281
-273
-264
-260
-258
-251
-247
-250
-252
-256
-263
-268
-270
-275
-275
-265
-260
-268
-271
-262
-256
-259
-257
-253
-250
-242
-230
-223
-220
-215
-206
-199
-196
-193
-186
-179
-170
-165
-164
-155
-140
-138
-144
-147
-156
-174
-189
-209
-221
-194
-150
-132
-109
-81
-93
-78
-22
-65
-87
222
924
1905
2442
1357
-659
-1245
-275
264
25
-28
80
36
34
84
70
78
121
131
139
168
188
210
242
268
291
321
351
376
411
450
475
491
508
515
502
475
423
328
206
85
-24
-116
-185
-231
-258
-269
-266
-257
-250
-245
-240
-238
-238
-240
-243
-246
-252
-257
-256
-254
-255
-256
-253
-249
-248
-245
-240
-235
-233
-229
-219
-211
-211
-209
-204
-201
-194
-179
-174
-178
-174
-163
-162
-162
-153
-145
-145
-145
-141
-133
-122
-120
-130
-137
-139
-155
-177
-188
-185
-165
-135
-119
-105
-80
-86
-87
-35
-48
-93
128
730
1629
2299
1576
-373
-1323
-513
231
85
-36
82
59
27
86
92
83
117
139
153
182
203
223
255
287
314
341
369
407
452
491
524
556
581
596
602
584
530
438
311
167
33
-82
-178
-239
-271
-297
-310
-298
-281
-279
-277
-266
-260
-268
-280
-282
-275
-271
-279
-288
-286
-280
-282
-286
-279
-274
-276
-271
-254
-245
-245
-244
-241
-237
-228
-220
-217
-211
-199
-196
-197
-190
-181
-175
-169
-166
-165
-157
-149
-146
-140
-136
-145
-155
-161
-179
-207
-222
-216
-188
-154
-138
-117
-82
-91
-94
-28
-48
-116
127
754
1615
2286
1668
-214
-1200
-439
269
88
-41
88
64
26
85
92
83
119
140
150
178
203
223
248
275
306
341
373
408
447
484
522
560
584
593
599
589
536
433
295
153
22
-94
-188
-253
-288
-299
-299
-292
-280
-270
-267
-264
-260
-258
-257
-259
-264
-264
-260
-262
-269
-267
-255
-248
-252
-257
-252
-243
-237
-233
-230
-227
-220
-210
-203
-200
-196
-191
-184
-174
-168
-171
-167
-156
-153
-153
-147
-144
-143
-136
-133
-133
-128
-121
-118
-118
-128
-140
-144
-159
-186
-195
-178
-147
-120
-110
-96
-71
-77
-63
-5
-42
-80
200
845
1739
2316
1432
-495
-1194
-291
289
55
-22
94
48
33
95
91
87
121
132
144
174
192
209
242
270
292
320
351
383
417
444
465
491
513
518
509
491
447
364
251
131
19
-78
-158
-214
-245
-256
-258
-255
-248
-239
-233
-231
-231
-232
-231
-231
-235
-241
-244
-245
-246
-248
-247
-248
-249
-246
-240
-235
-234
-234
-229
-220
-211
-209
-211
-207
-197
-189
-185
-181
-175
-172
-167
-158
-149
-144
-139
-136
-138
-137
-133
-129
-126
-120
-111
-107
-106
-105
-108
-116
-125
-139
-162
-181
-188
-182
-154
-121
-110
-93
-61
-70
-68
-5
-42
-105
199
897
1713
2133
1247
-576
-1258
-366
266
66
-18
106
66
40
105
109
101
136
157
167
193
217
239
271
305
335
369
409
452
495
539
584
629
666
687
692
679
628
516
356
184
29
-102
-210
-288
-329
-344
-346
-339
-328
-320
-313
-303
-295
-295
-297
-295
-295
-299
-302
-299
-299
-300
-299
-294
-291
-287
-283
-280
-278
-272
-264
-258
-253
-247
-238
-229
-224
-220
-213
-205
-199
-195
-189
-181
-174
-170
-164
-158
-155
-152
-144
-137
-136
-133
-129
-134
-145
-153
-168
-195
-219
-220
-185
-143
-129
-107
-70
-81
-77
-10
-49
-114
192
905
1759
2213
1332
-481
-1146
-287
286
69
-11
103
63
44
105
108
107
141
158
173
204
227
248
281
313
345
385
427
470
517
571
624
668
707
735
745
726
659
529
357
182
19
-122
-229
-299
-341
-357
-354
-344
-333
-320
-310
-306
-302
-296
-292
-295
-301
-306
-303
-297
-300
-304
-301
-297
-299
-299
-294
-290
-282
-270
-263
-261
-259
-258
-255
-245
-236
-230
-225
-222
-220
-219
-215
-204
-193
-190
-187
-179
-171
-166
-165
-163
-157
-146
-140
-147
-155
-156
-166
-190
-207
-204
-179
-146
-132
-113
-71
-73
-87
-26
-28
-105
89
675
1514
2233
1785
7
-1109
-499
237
118
-17
105
82
32
93
106
93
129
153
156
185
219
239
265
300
333
364
398
436
479
521
562
600
635
661
676
673
633
538
398
242
93
-38
-145
-222
-267
-287
-291
-287
-281
-278
-276
-273
-271
-275
-280
-279
-281
-284
-286
-287
-287
-286
-288
-289
-283
-278
-280
-277
-266
-262
-261
-258
-253
-247
-240
-236
-228
-216
-209
-209
-208
-199
-187
-178
-176
-174
-167
-160
-160
-158
-151
-142
-137
-136
-134
-131
-136
-146
-155
-166
-186
-212
-227
-205
-160
-138
-121
-88
-93
-99
-35
-47
-121
114
772
1621
2144
1408
-377
-1206
-420
265
105
-15
98
77
49
108
113
107
144
164
172
200
226
248
276
305
334
365
397
434
476
514
549
584
612
627
632
617
570
476
338
183
46
-69
-166
-233
-269
-284
-285
-279
-273
-267
-257
-253
-256
-259
-259
-259
-262
-268
-274
-275
-275
-274
-273
-270
-268
-268
-265
-259
-255
-252
-248
-239
-233
-233
-231
-221
-211
-207
-202
-195
-189
-187
-181
-170
-164
-164
-162
-157
-157
-154
-148
-144
-142
-138
-132
-132
-137
-143
-155
-171
-189
-210
-216
-181
-140
-135
-116
-74
-81
-82
-24
-60
-97
240
981
1841
2173
1085
-755
-1241
-272
271
44
-10
106
63
51
107
104
108
146
159
167
193
218
245
279
306
333
369
407
450
501
543
573
618
669
688
684
673
618
498
342
183
31
-100
-193
-250
-283
-299
-305
-303
-293
-283
-279
-279
-278
-279
-280
-277
-277
-287
-295
-293
-290
-293
-295
-293
-290
-284
-279
-281
-279
-261
-249
-252
-251
-240
-232
-229
-224
-217
-213
-208
-203
-199
-195
-186
-174
-166
-167
-167
-159
-151
-151
-146
-138
-143
-160
-172
-179
-195
-222
-237
-213
-172
-153
-133
-98
-98
-93
-30
-54
-120
126
763
1629
2271
1618
-244
-1189
-422
275
92
-40
83
56
16
76
87
80
112
131
145
176
201
219
244
269
298
335
372
407
446
487
528
562
582
598
610
598
549
458
324
173
38
-81
-180
-242
-277
-301
-295
-268
-264
-274
-271
-274
-282
-266
-250
-264
-275
-264
-265
-280
-277
-268
-276
-280
-262
-250
-256
-256
-245
-241
-243
-237
-228
-225
-221
-205
-192
-196
-200
-187
-175
-173
-169
-162
-157
-153
-147
-144
-145
-148
-145
-147
-166
-185
-197
-222
-243
-221
-180
-148
-103
-78
-97
-74
-34
-100
-86
287
1046
2009
2293
930
-913
-1091
-72
280
20
7
82
38
61
102
76
80
123
152
170
184
200
229
259
281
299
320
342
359
372
389
410
415
402
391
384
359
303
219
119
24
-51
-114
-175
-218
-230
-221
-223
-231
-217
-196
-199
-211
-212
-213
-220
-226
-225
-220
-218
-217
-218
-234
-245
-222
-198
-205
-215
-210
-209
-208
-201
-193
-179
-175
-194
-196
-166
-158
-167
-150
-137
-150
-154
-145
-145
-150
-155
-163
-171
-185
-200
-192
-170
-150
-122
-104
-114
-96
-63
-93
-63
300
1154
2193
2250
593
-1181
-1135
-105
189
-32
-11
58
2
3
53
71
69
63
83
129
148
153
193
239
238
222
257
307
300
282
315
331
296
283
287
245
181
134
84
20
-45
-106
-155
-185
-193
-194
-201
-196
-167
-160
-194
-197
-138
-111
-159
-194
-180
-174
-186
-186
-185
-189
-180
-169
-176
-185
-185
-177
-164
-166
-180
-174
-155
-153
-156
-147
-142
-148
-151
-145
-139
-141
-138
-122
-113
-120
-133
-147
-155
-150
-131
-105
-94
-96
-81
-72
-90
-33
326
1234
2335
2260
423
-1299
-1128
-129
112
-76
-40
8
-35
-8
30
24
39
62
75
102
130
146
166
191
213
237
269
299
326
354
379
395
405
407
393
370
340
288
199
94
0
-75
-133
-178
-212
-229
-229
-220
-213
-211
-213
-213
-210
-214
-223
-224
-220
-224
-234
-236
-236
-240
-242
-241
-244
-242
-234
-234
-236
-231
-225
-222
-219
-214
-210
-209
-207
-200
-197
-198
-196
-202
-218
-226
-242
-273
-263
-211
-180
-155
-131
-141
-114
-71
-121
-36
511
1380
2013
1578
-94
-1416
-1018
-7
184
-11
43
95
56
88
121
112
133
161
167
187
217
238
258
285
317
352
391
430
475
519
555
586
615
632
636
620
563
445
290
137
-4
-131
-227
-291
-333
-349
-332
-311
-307
-308
-303
-295
-291
-293
-303
-308
-298
-292
-305
-315
-315
-322
-314
-272
-247
-262
-260
-233
-238
-272
-287
-280
-265
-243
-244
-260
-234
-190
-202
-214
-144
-67
-68
-107
-144
-167
-151
-141
-158
-122
-110
-182
-81
357
1145
2169
2298
635
-1073
-881
42
87
-161
-72
-33
-89
-37
5
-7
17
45
52
81
124
149
158
176
215
255
270
276
307
335
330
341
392
412
378
331
285
220
124
9
-80
-130
-183
-233
-247
-254
-276
-270
-232
-222
-239
-238
-223
-222
-227
-224
-220
-222
-228
-225
-212
-204
-209
-210
-205
-202
-200
-200
-209
-212
-189
-162
-155
-133
-85
-73
-114
-153
-163
-152
-146
-155
-133
-101
-142
-125
156
827
1933
2585
1405
-721
-1292
-332
148
-88
-124
-38
-97
-93
-34
-47
-42
0
15
30
71
101
114
139
174
205
232
267
302
329
353
378
398
412
410
390
355
288
180
62
-33
-112
-182
-229
-255
-264
-256
-248
-255
-261
-252
-243
-243
-244
-245
-246
-244
-239
-239
-243
-249
-253
-253
-253
-253
-247
-239
-238
-234
-221
-215
-219
-217
-205
-202
-204
-196
-192
-207
-222
-221
-227
-242
-219
-162
-142
-151
-121
-103
-125
-88
-59
-136
-33
505
1356
2159
1981
321
-1184
-901
41
142
-73
11
51
-12
32
75
55
69
106
126
155
189
208
225
259
301
334
360
401
453
493
529
578
623
644
653
647
591
469
304
133
-19
-136
-221
-281
-313
-324
-329
-328
-320
-314
-306
-298
-299
-306
-305
-301
-303
-309
-314
-312
-311
-318
-322
-311
-304
-309
-307
-294
-288
-288
-283
-277
-271
-262
-257
-261
-266
-269
-279
-289
-282
-237
-159
-108
-125
-161
-178
-177
-152
-157
-183
-128
-108
-208
-89
446
1277
2189
2210
640
-883
-669
127
101
-132
-36
-7
-67
-16
21
6
42
93
106
119
157
195
225
253
284
322
368
410
451
502
553
589
623
652
657
633
567
439
268
102
-37
-150
-237
-291
-316
-326
-327
-324
-320
-316
-307
-297
-294
-293
-294
-295
-294
-292
-294
-294
-284
-269
-269
-276
-269
-253
-249
-251
-242
-231
-229
-227
-219
-210
-204
-201
-200
-196
-187
-179
-177
-178
-173
-165
-162
-155
-143
-146
-158
-161
-178
-221
-241
-224
-198
-168
-139
-126
-102
-88
-103
-58
-18
-119
-71
416
1177
1985
2160
900
-689
-750
89
228
-36
14
75
6
37
84
58
67
114
131
149
191
206
197
226
283
317
350
402
435
453
487
513
510
506
518
517
462
367
262
153
47
-50
-150
-226
-248
-254
-277
-280
-261
-264
-268
-241
-221
-240
-258
-246
-234
-257
-285
-269
-230
-229
-256
-249
-222
-234
-269
-265
-236
-234
-240
-224
-208
-211
-215
-208
-203
-201
-196
-191
-186
-173
-158
-156
-162
-161
-152
-145
-143
-139
-134
-134
-137
-134
-130
-143
-163
-171
-172
-170
-149
-118
-97
-76
-71
-76
-41
-21
-61
19
413
1261
2322
2314
527
-1141
-874
93
191
-28
51
86
27
66
96
81
109
140
139
151
177
195
212
235
258
279
296
314
332
344
345
339
337
337
325
300
268
225
161
82
7
-55
-104
-148
-181
-193
-191
-191
-194
-196
-194
-191
-190
-193
-200
-212
-220
-218
-217
-229
-237
-236
-239
-236
-225
-225
-230
-222
-217
-220
-213
-198
-192
-194
-199
-198
-188
-180
-176
-175
-172
-163
-151
-148
-144
-133
-134
-149
-150
-136
-139
-151
-149
-154
-172
-183
-201
-230
-223
-175
-147
-135
-105
-100
-106
-55
-44
-93
133
838
1765
2239
1372
-512
-1446
-692
133
111
-7
93
92
60
109
126
123
154
175
186
215
246
266
290
323
360
391
416
448
486
517
548
583
605
612
608
588
531
419
264
107
-21
-124
-207
-263
-286
-288
-289
-289
-279
-262
-253
-256
-260
-256
-250
-258
-272
-272
-265
-265
-268
-266
-260
-256
-256
-252
-239
-225
-218
-213
-204
-197
-193
-187
-183
-180
-170
-170
-179
-173
-153
-145
-148
-160
-186
-186
-152
-143
-173
-193
-202
-221
-211
-176
-179
-195
-162
-143
-138
-78
-101
-200
11
638
1454
2062
1514
-254
-1292
-631
118
10
-134
-33
-53
-92
-40
-35
-54
-32
-12
3
17
8
14
61
97
97
106
152
