# session 7
3
84
-156
65
1164
2131
2221
2021
2029
1978
1807
1730
1655
1439
1221
1127
1061
908
709
601
601
583
531
538
565
519
453
421
350
227
148
145
156
113
31
5
25
-23
-109
-161
-250
-322
-261
-248
-317
-104
417
949
1219
617
-858
-1703
-1178
-533
-496
-454
-279
-334
-450
-348
-160
-86
-75
20
156
242
329
414
424
423
488
550
543
481
377
234
61
-115
-228
-276
-334
-395
-376
-289
-227
-234
-265
-263
-231
-211
-201
-204
-233
-232
-192
-216
-253
-120
45
-36
-202
-200
-176
-227
-225
-210
-227
-65
643
1942
2625
1358
-622
-1039
-319
-111
-287
-273
-315
-379
-251
-178
-235
-209
-140
-125
-60
48
80
108
218
301
291
268
209
26
-178
-304
-436
-511
-361
-200
-348
-625
-669
-516
-405
-364
-295
-258
-360
-488
-495
-466
-483
-469
-419
-407
-396
-328
-254
-246
-287
-297
-214
-108
-129
-203
-117
223
1197
2836
3363
1478
-628
-644
178
201
0
94
116
91
199
286
271
235
276
414
511
493
503
588
626
631
701
770
740
638
470
237
31
-110
-249
-364
-374
-307
-269
-319
-401
-451
-495
-518
-482
-509
-628
-627
-490
-428
-489
-602
-655
-593
-599
-742
-763
-598
-432
-388
-489
-518
-212
499
1609
2264
1152
-770
-1180
-365
-116
-335
-249
-155
-248
-208
-53
18
37
73
159
310
445
508
573
661
706
707
717
733
711
614
474
348
218
80
12
7
-15
-29
-11
-22
-28
19
9
-103
-180
-153
-110
-113
-138
-172
-194
-157
-110
-142
-189
-203
-261
-305
-267
-217
-30
510
1194
1443
690
-810
-1629
-1046
-215
-99
-260
-261
-215
-215
-274
-278
-130
-64
-172
-151
33
152
255
350
271
212
380
448
255
137
151
44
-124
-185
-230
-316
-338
-297
-267
-232
-196
-210
-234
-218
-200
-198
-175
-139
-117
-111
-122
-123
-84
-33
-4
1
-25
-29
13
1
-46
-14
215
1120
2559
2687
712
-1024
-826
-108
-81
-171
-67
-35
-34
1
19
42
30
21
155
317
319
271
321
406
452
449
376
232
72
-52
-150
-275
-407
-471
-478
-511
-573
-577
-503
-442
-473
-570
-633
-588
-509
-507
-527
-497
-485
-497
-444
-362
-337
-368
-416
-393
-296
-313
-373
-114
543
1465
2160
1545
-225
-1139
-538
27
-68
-70
103
103
67
114
157
211
284
328
382
468
554
629
672
668
667
672
629
561
499
397
255
133
45
-19
-51
-67
-93
-119
-133
-160
-208
-238
-219
-196
-252
-374
-436
-393
-338
-327
-356
-407
-418
-394
-393
-366
-318
-336
-289
-36
551
1731
2672
1690
-507
-1279
-515
-162
-408
-371
-233
-299
-289
-160
-108
-85
3
94
152
219
290
335
377
438
508
551
512
373
183
17
-65
-106
-192
-288
-326
-328
-323
-308
-305
-328
-355
-365
-361
-365
-366
-351
-356
-348
-264
-231
-328
-346
-211
-136
-179
-226
-293
-362
-279
57
789
1806
2040
693
-892
-1014
-297
-84
-210
-159
-101
-125
-88
-7
79
158
180
185
240
315
363
373
355
339
323
285
240
202
170
130
64
14
1
-68
-190
-202
-127
-142
-228
-244
-196
-191
-287
-402
-394
-269
-184
-210
-255
-245
-243
-290
-317
-296
-254
-215
-217
-190
68
714
1644
2028
930
-770
-1160
-388
-7
-142
-105
-4
-43
-34
32
69
139
229
262
281
341
410
449
476
516
540
518
479
428
325
181
42
-78
-171
-242
-311
-348
-330
-303
-282
-260
-288
-364
-409
-412
-396
-353
-315
-292
-248
-229
-275
-318
-338
-332
-247
-193
-264
-177
279
930
1484
1360
214
-886
-790
-167
-41
-148
-58
39
18
-19
-15
49
130
164
186
225
228
237
341
476
573
674
688
497
263
130
-27
-233
-327
-331
-366
-383
-342
-339
-397
-422
-382
-336
-339
-401
-466
-442
-347
-311
-344
-325
-271
-295
-318
-245
-197
-229
-246
-233
-202
-44
633
1996
2769
1500
-513
-917
-161
33
-207
-155
-41
-75
-67
-24
-14
51
164
219
255
355
451
441
377
386
465
486
417
363
350
309
220
101
-9
-45
-28
-57
-126
-150
-133
-151
-216
-271
-280
-275
-327
-418
-410
-317
-337
-415
-344
-272
-371
-406
-327
-411
-452
-2
727
1154
790
-466
-1596
-1422
-548
-244
-360
-288
-168
-134
-69
-78
-191
-173
30
206
238
238
319
417
474
552
611
543
440
411
355
215
79
-20
-108
-164
-180
-183
-187
-199
-213
-215
-210
-219
-224
-207
-204
-230
-228
-178
-141
-143
-147
-156
-156
-101
-72
-116
-30
308
947
1879
2157
842
-713
-717
9
76
-105
-15
35
4
53
87
80
124
194
198
163
230
351
365
403
587
650
484
359
319
149
-114
-273
-318
-345
-353
-324
-333
-402
-413
-356
-367
-433
-426
-407
-441
-414
-328
-321
-344
-316
-313
-335
-300
-243
-232
-287
-337
-272
-79
566
1931
2676
1278
-752
-1006
-165
58
-126
-139
-173
-206
-113
-61
-53
25
98
129
200
288
318
328
361
379
360
309
229
180
178
113
-12
-57
-38
-65
-112
-130
-135
-134
-142
-179
-211
-228
-257
-284
-321
-393
-397
-280
-228
-319
-373
-343
-306
-251
-263
-324
-58
619
1156
912
-258
-1437
-1420
-588
-218
-310
-245
-174
-256
-261
-228
-233
-120
33
49
61
154
218
292
436
532
548
552
503
398
319
247
133
18
-60
-111
-131
-124
-120
-115
-107
-117
-137
-154
-176
-167
-123
-139
-191
-137
-17
14
-36
-68
-36
9
-32
-36
159
588
1561
2770
2479
402
-929
-408
165
-16
-110
-23
-79
-75
38
77
71
93
124
165
206
227
208
183
257
410
439
307
191
117
-10
-156
-252
-314
-349
-356
-350
-341
-358
-400
-434
-492
-545
-492
-432
-492
-513
-437
-439
-469
-444
-495
-523
-355
-274
-434
-448
-250
-115
489
1990
2764
1256
-799
-1072
-334
-147
-238
-130
-99
-152
-113
-73
-58
-4
39
70
158
274
343
370
397
430
405
298
202
187
178
103
26
12
14
-20
-51
-49
-50
-72
-74
-64
-85
-114
-113
-125
-167
-184
-155
-139
-205
-326
-375
-317
-280
-341
-356
-149
288
865
1203
569
-886
-1637
-1029
-304
-262
-335
-232
-217
-246
-185
-137
-149
-154
-114
-25
72
162
310
477
519
457
416
400
377
355
300
189
89
19
-59
-117
-129
-137
-147
-140
-147
-176
-191
-192
-201
-212
-203
-168
-127
-104
-73
-53
-109
-153
-93
-62
-74
60
553
1663
2755
2171
119
-919
-340
113
-59
-154
-182
-222
-87
6
-22
92
251
233
197
258
313
357
406
390
340
314
257
179
152
94
-58
-138
-74
-63
-202
-341
-385
-399
-411
-422
-499
-612
-589
-429
-332
-346
-386
-467
-552
-525
-461
-464
-442
-403
-409
-321
-183
57
1143
2670
2385
134
-1178
-625
-159
-385
-399
-237
-273
-284
-188
-129
-78
-10
32
82
152
210
271
351
412
408
343
287
302
330
287
185
52
-82
-130
-82
-59
-83
-76
-93
-162
-157
-101
-144
-212
-193
-193
-232
-198
-150
-167
-188
-209
-226
-202
-223
-262
-80
457
1291
1765
876
-756
-1226
-506
-144
-315
-299
-214
-274
-250
-153
-132
-111
-76
-72
13
171
220
220
300
309
191
176
270
231
43
-88
-65
-11
-96
-243
-239
-136
-116
-143
-150
-199
-265
-245
-201
-254
-334
-292
-169
-118
-146
-175
-214
-243
-189
-144
-164
-126
7
637
2306
3606
2351
-159
-868
-121
63
-175
-117
-66
-96
-15
19
-20
12
66
89
132
186
213
218
217
203
176
146
118
94
81
61
2
-95
-185
-202
-163
-178
-244
-243
-223
-328
-477
-500
-456
-449
-438
-423
-455
-502
-536
-543
-503
-506
-581
-617
-620
-595
-421
-38
808
1967
1919
62
-1379
-957
-218
-220
-250
-121
-167
-202
-117
-68
-28
46
96
140
231
342
417
464
512
553
562
532
487
463
433
344
231
166
151
162
164
130
105
120
109
54
19
-12
-70
-98
-107
-140
-118
-43
-71
-167
-171
-122
-150
-204
-139
60
461
1370
2293
1753
-77
-993
-484
-147
-359
-346
-193
-232
-272
-242
-237
-198
-116
-53
6
66
104
129
113
35
-10
19
-50
-267
-393
-378
-455
-555
-418
-237
-314
-443
-352
-191
-167
-238
-314
-346
-317
-298
-335
-357
-326
-284
-256
-232
-234
-270
-266
-228
-259
-271
-139
227
1270
2684
2560
472
-988
-548
56
-68
-132
-37
-109
-143
-71
-64
-58
27
109
157
217
284
316
313
331
373
375
346
354
386
369
275
145
49
-7
-79
-175
-252
-291
-295
-281
-300
-360
-395
-391
-412
-439
-386
-311
-329
-371
-370
-383
-340
-242
-354
-503
-206
314
803
1401
1264
-220
-1322
-786
-47
-145
-347
-271
-127
50
98
-48
-101
35
189
251
240
251
333
397
395
400
433
426
373
331
286
186
85
69
92
57
-3
10
71
67
-1
-36
-23
-30
-58
-53
-59
-125
-146
-43
41
-42
-148
-84
-13
-114
-130
64
352
1247
2625
2446
230
-1181
-560
31
-200
-187
-11
-199
-320
-177
-136
-206
-198
-151
-92
-8
33
39
85
119
87
58
23
-83
-206
-304
-413
-451
-365
-341
-433
-442
-375
-416
-507
-498
-444
-417
-383
-342
-334
-349
-350
-330
-322
-322
-320
-365
-412
-368
-328
-327
-178
271
1203
2264
2013
151
-1163
-758
-121
-140
-152
-33
-82
-103
-11
24
47
141
222
251
278
338
412
455
453
422
410
444
460
403
346
330
270
156
100
97
55
-4
-27
-82
-175
-199
-191
-249
-261
-165
-125
-159
-131
-117
-227
-358
-396
-353
-342
-419
-319
167
724
977
699
-256
-1196
-1126
-475
-245
-297
-205
-127
-153
-208
-252
-112
175
257
141
183
365
397
317
330
380
357
322
305
266
229
213
170
89
25
1
-22
-44
-7
44
8
-57
-49
-33
-86
-149
-184
-210
-187
-72
44
23
-92
-129
-83
-88
-86
-13
67
623
2017
2721
1192
-813
-923
-107
-56
-266
-135
-98
-187
-137
-85
-81
-24
-24
-101
-51
107
179
194
240
208
78
3
-13
-99
-246
-373
-456
-461
-383
-362
-489
-610
-544
-391
-387
-519
-557
-471
-446
-500
-508
-444
-341
-253
-238
-255
-264
-276
-243
-209
-269
-280
-2
838
2147
2557
1000
-842
-945
-200
-99
-251
-127
-73
-153
-96
42
94
98
158
250
314
369
417
437
464
498
483
425
399
433
454
371
241
190
172
91
23
51
90
54
-38
-119
-139
-130
-161
-205
-189
-157
-191
-230
-209
-244
-347
-316
-213
-254
-196
280
938
1231
639
-688
-1464
-958
-230
-152
-237
-159
-176
-253
-248
-229
-143
47
79
-131
-186
112
368
318
195
164
148
142
152
131
98
37
-66
-76
-2
-64
-205
-192
-112
-142
-202
-202
-194
-207
-213
-182
-108
-58
-72
-55
41
57
-56
-85
-13
-55
-109
-6
222
1034
2489
2741
787
-981
-711
42
-43
-187
-21
-10
-94
-60
-34
-38
12
78
120
146
163
180
182
169
151
87
3
0
10
-99
-258
-364
-385
-298
-219
-294
-396
-390
-402
-479
-480
-425
-460
-559
-597
-514
-366
-313
-411
-494
-432
-340
-357
-427
-411
-283
-16
745
2027
2445
914
-872
-911
-155
-90
-244
-107
-80
-165
-98
8
65
131
195
246
312
377
410
405
412
469
517
484
404
347
299
223
151
127
117
79
68
128
158
66
-60
-98
-79
-89
-116
-109
-87
-83
-94
-104
-127
-193
-221
-146
-116
-198
-184
94
788
1650
1469
-142
-1347
-934
-214
-277
-486
-326
-140
-164
-223
-161
-56
-18
-12
-2
-18
-61
-101
-89
-8
50
-14
-150
-220
-186
-149
-160
-116
-12
-5
-105
-152
-144
-183
-234
-240
-250
-280
-289
-283
-287
-268
-221
-210
-230
-208
-190
-212
-189
-153
-185
-182
53
951
2537
3162
1488
-592
-786
-75
-33
-202
-114
-140
-197
-48
67
36
41
104
128
175
311
425
433
405
385
354
336
333
297
222
137
47
-39
-97
-104
-67
-66
-183
-339
-406
-413
-449
-475
-449
-440
-460
-428
-389
-450
-515
-488
-445
-394
-371
-493
-539
-255
249
1098
2009
1549
-323
-1334
-727
-147
-233
-281
-200
-203
-175
-114
-100
-50
41
81
105
179
240
243
265
325
354
351
349
333
284
199
115
95
108
81
36
15
-14
-45
-34
-33
-106
-174
-150
-118
-155
-170
-112
-60
-42
-50
-93
-95
-51
-75
-104
-50
244
1341
2763
2438
241
-1076
-556
-27
-186
-283
-249
-296
-304
-291
-290
-223
-119
-30
5
-39
-49
43
120
98
28
-34
-92
-156
-208
-259
-350
-452
-514
-542
-502
-357
-261
-370
-519
-472
-346
-354
-398
-347
-320
-347
-308
-235
-215
-247
-317
-324
-219
-193
-264
-188
211
1144
2204
1881
27
-1065
-453
144
-50
-154
5
12
-23
59
138
175
218
263
292
326
389
454
465
451
460
469
464
471
487
484
459
442
404
281
174
189
175
29
-78
-53
-18
-62
-128
-114
-55
-77
-150
-161
-149
-191
-259
-287
-290
-360
-400
-114
557
1206
1135
12
-1241
-1317
-550
-200
-329
-340
-272
-294
-282
-201
-108
-35
-27
-44
8
118
209
235
222
227
240
224
198
185
193
218
200
134
113
127
75
-14
-75
-142
-204
-204
-199
-242
-278
-280
-282
-271
-230
-186
-156
-164
-231
-256
-200
-222
-280
-136
302
1224
2264
1893
-51
-1200
-604
-1
-123
-170
-93
-161
-151
-87
-123
-116
-44
-7
69
178
179
139
216
323
296
170
62
-3
-52
-104
-168
-230
-274
-291
-292
-310
-358
-406
-428
-438
-452
-462
-461
-465
-482
-483
-469
-479
-487
-481
-516
-524
-444
-441
-498
-346
178
1221
2228
1685
-233
-1145
-472
15
-152
-162
-42
-27
68
173
159
165
227
274
318
362
407
475
528
528
493
447
412
395
371
328
283
