# session 15
-80
-99
-35
-88
-334
-513
-510
-487
-487
-439
-424
-494
-520
-461
-425
-437
-473
-535
-529
-401
-316
-349
-352
-320
-366
-388
-304
-296
-393
-386
-307
-335
-379
-296
-196
-180
-174
-154
-179
-220
-207
-150
-144
-241
-226
103
580
1230
2063
1922
168
-1241
-791
44
-2
-168
-33
-2
-47
-10
45
163
295
292
276
394
514
552
661
873
1006
1008
970
913
833
737
563
324
142
25
-96
-209
-276
-288
-251
-205
-218
-277
-283
-228
-241
-313
-296
-234
-284
-390
-421
-385
-331
-286
-287
-320
-338
-332
-317
-313
-327
-308
-266
-287
-354
-372
-350
-328
-307
-296
-253
-150
-112
-187
-225
-201
-195
-159
-144
-219
-168
145
905
2354
3212
1725
-620
-1014
-126
14
-254
-162
-123
-205
-121
-50
-62
17
122
182
298
419
446
493
620
682
681
777
875
773
559
393
236
53
-92
-188
-271
-324
-326
-312
-320
-332
-295
-215
-183
-240
-298
-302
-309
-313
-266
-241
-274
-278
-256
-292
-342
-309
-238
-227
-257
-249
-230
-266
-325
-330
-274
-200
-165
-192
-227
-251
-296
-314
-259
-202
-163
-122
-140
-185
-155
-146
-211
-176
-114
-228
-252
94
804
1873
2412
1145
-811
-1153
-320
-80
-277
-179
-65
-107
-87
-30
-9
41
136
227
288
365
489
614
736
866
945
969
961
867
694
542
421
254
17
-169
-203
-234
-374
-422
-301
-245
-305
-326
-302
-299
-299
-291
-288
-308
-339
-332
-322
-374
-391
-327
-312
-347
-303
-235
-260
-319
-325
-296
-284
-300
-300
-238
-169
-192
-253
-210
-128
-183
-276
-244
-223
-294
-259
-88
3
-44
-92
-83
-107
-163
-101
7
-44
-59
201
847
2131
3142
2058
-289
-1052
-242
74
-200
-187
-86
-123
-67
23
15
27
119
205
260
357
487
552
586
688
775
764
775
804
678
462
329
213
31
-145
-298
-445
-481
-361
-260
-319
-388
-299
-206
-253
-320
-352
-387
-342
-277
-354
-412
-318
-301
-394
-373
-319
-396
-427
-296
-215
-305
-401
-368
-289
-275
-299
-301
-299
-308
-317
-320
-283
-214
-191
-208
-196
-144
-101
-162
-264
-173
-34
-122
-126
289
1077
2098
2342
823
-928
-934
-159
-93
-207
-29
-16
-121
-75
-35
0
172
319
325
331
410
525
678
838
930
953
954
959
938
803
549
305
157
58
-96
-309
-408
-330
-289
-367
-372
-254
-191
-258
-333
-285
-189
-201
-264
-293
-357
-380
-252
-184
-294
-348
-293
-328
-384
-282
-177
-237
-315
-286
-252
-275
-295
-274
-231
-200
-189
-195
-210
-224
-229
-236
-253
-266
-264
-257
-235
-175
-105
-80
-88
-116
-195
-221
-89
-31
-167
-134
246
1016
2304
2988
1591
-520
-905
-162
-30
-239
-166
-134
-190
-107
-5
46
103
112
109
189
295
393
534
673
755
812
865
892
847
698
518
378
226
48
-106
-244
-354
-384
-364
-354
-339
-311
-303
-312
-303
-279
-283
-305
-307
-303
-323
-345
-351
-352
-354
-370
-384
-365
-344
-352
-344
-320
-320
-307
-282
-322
-366
-310
-243
-251
-260
-239
-239
-246
-224
-202
-206
-222
-235
-247
-264
-240
-141
-56
-51
-69
-82
-100
-110
-110
-71
-37
-98
-62
277
908
1967
2820
1939
-131
-890
-182
114
-164
-151
-18
-45
-29
34
65
121
184
236
318
398
460
573
712
807
879
941
911
784
666
579
439
245
71
-77
-197
-243
-245
-284
-332
-312
-256
-230
-233
-239
-238
-235
-242
-253
-249
-245
-261
-282
-274
-251
-258
-282
-268
-226
-211
-215
-205
-194
-188
-171
-157
-158
-157
-140
-119
-101
-91
-87
-83
-80
-84
-78
-56
-48
-74
-98
-88
-64
-58
-70
-75
-69
-68
-73
-75
-79
-86
-92
-89
-76
-63
-65
-68
-60
-60
-71
-66
-49
-53
-74
-76
-60
-53
-53
-50
-52
-60
-63
-61
-58
-52
-51
-62
-70
-64
-54
-54
-56
-50
-44
-52
-62
-60
-62
-72
-67
-44
-16
16
33
-2
-51
-49
-46
-60
-17
-8
-83
70
566
1167
1752
1754
528
-847
-842
-116
41
-102
-36
13
-13
25
62
75
126
180
223
287
357
415
485
569
642
694
728
736
706
630
518
381
237
110
8
-74
-137
-184
-217
-236
-242
-241
-234
-225
-222
-225
-228
-235
-247
-257
-265
-276
-287
-293
-302
-311
-316
-315
-310
-306
-308
-306
-293
-288
-296
-297
-285
-272
-261
-253
-248
-242
-236
-233
-230
-225
-220
-217
-215
-209
-204
-205
-202
-190
-186
-187
-186
-194
-209
-215
-210
-181
-114
-62
-89
-128
-114
-123
-136
-76
-92
-177
-11
441
1191
2231
2384
791
-776
-645
-7
-74
-226
-108
-88
-113
-40
1
17
80
145
200
275
359
451
553
651
741
817
859
861
819
716
555
368
193
43
-79
-172
-238
-281
-302
-298
-279
-258
-239
-222
-209
-201
-194
-193
-199
-203
-200
-202
-204
-201
-197
-196
-191
-184
-179
-173
-163
-155
-149
-142
-134
-128
-121
-113
-105
-102
-98
-87
-78
-73
-69
-63
-59
-59
-56
-48
-42
-42
-42
-36
-31
-30
-29
-26
-22
-20
-18
-17
-13
-8
-7
-7
-4
-1
-1
-2
-1
-1
-1
0
1
0
-1
-2
-2
2
2
-4
-7
-4
-3
-4
-5
-8
-16
-19
-17
-16
-20
-22
-23
-28
-34
-36
-34
-35
-42
-44
-35
-36
-48
-51
-52
-64
-70
-66
-68
-70
-70
-77
-82
-85
-95
-88
-45
-26
-62
-80
-69
-104
-108
-49
-101
-140
137
567
1132
1891
1767
210
-955
-550
23
-114
-221
-93
-97
-123
-57
-23
-3
52
103
151
221
305
388
465
546
632
700
740
767
766
710
610
476
313
153
23
-86
-180
-250
-297
-320
-321
-314
-310
-305
-293
-280
-275
-284
-297
-297
-294
-303
-318
-324
-322
-323
-329
-334
-338
-338
-327
-315
-311
-308
-301
-297
-300
-301
-292
-277
-265
-262
-255
-239
-231
-234
-233
-224
-219
-226
-236
-243
-239
-205
-135
-90
-119
-146
-130
-147
-145
-72
-110
-175
95
635
1327
2040
1738
101
-986
-510
58
-85
-175
-51
-63
-72
9
34
43
104
162
218
294
380
480
598
715
823
918
974
978
914
768
555
324
114
-64
-202
-295
-356
-396
-413
-411
-400
-390
-375
-354
-333
-318
-306
-296
-291
-290
-291
-296
-300
-300
-301
-303
-299
-292
-291
-292
-286
-279
-278
-281
-291
-308
-321
-304
-250
-181
-135
-151
-188
-175
-163
-179
-132
-108
-199
-127
270
959
1996
2518
1297
-537
-842
-139
-23
-239
-162
-97
-136
-79
-18
-5
50
119
170
246
343
442
558
680
790
885
956
983
949
834
646
429
225
46
-101
-205
-272
-313
-332
-335
-326
-310
-293
-278
-258
-233
-219
-220
-224
-215
-202
-205
-215
-208
-201
-208
-207
-196
-196
-195
-185
-182
-182
-173
-162
-158
-157
-155
-152
-146
-141
-138
-132
-122
-119
-122
-118
-106
-103
-107
-106
-97
-91
-95
-98
-90
-80
-75
-68
-65
-70
-78
-80
-73
-62
-60
-63
-62
-63
-63
-54
-48
-55
-57
-46
-42
-50
-51
-37
-28
-37
-48
-50
-47
-47
-46
-46
-47
-45
-43
-47
-49
-48
-52
-56
-51
-48
-53
-55
-51
-55
-63
-63
-67
-78
-71
-41
1
38
25
-24
-30
-23
-51
-20
12
-77
-16
370
916
1739
2371
1504
-315
-886
-208
47
-181
-155
-71
-119
-85
-17
-12
19
80
123
174
243
310
383
469
553
627
690
732
745
722
661
559
421
274
141
26
-75
-159
-218
-252
-268
-274
-272
-261
-246
-234
-224
-215
-208
-206
-211
-217
-220
-224
-230
-235
-239
-242
-243
-243
-244
-242
-238
-233
-227
-223
-217
-209
-200
-193
-188
-180
-172
-164
-158
-152
-146
-142
-138
-133
-127
-120
-114
-108
-103
-98
-91
-85
-83
-80
-73
-70
-69
-66
-60
-56
-53
-48
-45
-44
-42
-37
-33
-31
-27
-24
-24
-23
-22
-23
-19
-10
-8
-14
-15
-10
-9
-6
0
1
-2
-4
2
7
4
-4
-4
3
6
6
9
8
4
-1
-9
-15
-8
0
-9
-16
-6
-12
-35
-39
-35
-49
-51
-20
15
44
49
4
-25
-8
-36
-55
15
-12
-84
162
611
1142
1911
1993
539
-850
-634
12
-49
-187
-75
-73
-108
-41
-7
7
58
99
144
219
282
344
445
557
650
742
826
879
890
850
745
584
394
208
44
-96
-216
-308
-370
-407
-427
-435
-429
-412
-391
-374
-360
-346
-338
-335
-330
-327
-331
-337
-338
-341
-351
-359
-357
-352
-349
-350
-348
-342
-334
-327
-321
-314
-304
-293
-285
-278
-269
-261
-253
-245
-241
-237
-224
-213
-208
-202
-195
-190
-184
-176
-170
-165
-159
-152
-143
-134
-127
-127
-128
-125
-127
-139
-142
-116
-67
-11
19
-9
-54
-40
-22
-51
-15
30
-65
-28
355
943
1877
2679
1880
-93
-852
-191
111
-129
-117
-17
-61
-33
41
51
82
143
187
244
323
402
495
607
725
842
949
1026
1063
1043
944
770
555
339
145
-20
-146
-233
-287
-320
-338
-347
-347
-336
-317
-299
-282
-265
-248
-235
-225
-218
-215
-213
-210
-208
-209
-210
-209
-204
-201
-200
-198
-195
-191
-185
-179
-176
-172
-168
-166
-163
-156
-149
-145
-141
-133
-128
-126
-121
-115
-111
-108
-103
-98
-93
-89
-88
-86
-82
-77
-73
-71
-69
-67
-64
-62
-60
-57
-54
-52
-53
-52
-49
-46
-43
-40
-40
-43
-45
-43
-41
-43
-44
-42
-42
-43
-44
-43
-41
-40
-41
-42
-43
-43
-43
-43
-44
-43
-41
-39
-40
-41
-39
-39
-42
-43
-41
-42
-45
-46
-45
-41
-40
-43
-43
-43
-49
-55
-57
-70
-80
-68
-49
-34
2
30
-6
-47
-29
-37
-69
-16
-16
-111
47
463
957
1764
2253
1183
-475
-724
-81
-14
-225
-149
-94
-136
-84
-32
-27
16
71
110
169
240
304
379
469
559
646
728
789
821
819
772
677
542
386
225
79
-43
-141
-222
-286
-326
-336
-329
-322
-312
-300
-289
-277
-262
-246
-238
-241
-247
-249
-250
-254
-259
-260
-261
-259
-257
-255
-252
-244
-238
-237
-234
-227
-223
-220
-215
-211
-206
-202
-198
-192
-184
-178
-174
-171
-167
-163
-156
-150
-149
-147
-142
-137
-132
-127
-124
-122
-119
-115
-111
-108
-106
-104
-102
-98
-93
-89
-86
-84
-82
-80
-76
-72
-71
-71
-71
-76
-77
-78
-91
-100
-82
-56
-27
18
28
-22
-42
-24
-52
-49
10
-52
-71
250
735
1375
2102
1770
118
-884
-382
100
-81
-156
-49
-70
-66
10
26
39
97
145
187
248
316
393
483
579
679
778
864
921
937
904
809
648
459
284
121
-36
-159
-240
-297
-332
-344
-351
-355
-345
-327
-310
-298
-291
-287
-279
-271
-268
-272
-279
-284
-288
-287
-279
-273
-277
-280
-275
-272
-269
-262
-255
-252
-246
-237
-233
-232
-226
-221
-220
-216
-210
-202
-190
-185
-189
-184
-175
-176
-174
-165
-166
-172
-170
-178
-188
-169
-120
-67
-50
-93
-129
-107
-112
-124
-59
-78
-149
114
675
1283
1856
1622
122
-1057
-685
-4
-45
-169
-59
-50
-77
-11
24
34
85
133
173
235
309
391
491
604
720
836
938
1004
1025
986
868
677
457
247
57
-103
-223
-305
-354
-380
-391
-392
-380
-363
-349
-333
-317
-306
-297
-288
-283
-283
-284
-285
-289
-293
-294
-294
-295
-296
-294
-292
-288
-284
-280
-275
-272
-268
-261
-253
-245
-239
-235
-230
-224
-215
-205
-196
-193
-197
-208
-224
-240
-231
-180
-110
-81
-115
-141
-118
-126
-134
-69
-92
-176
41
559
1265
2098
2054
483
-890
-626
17
-67
-209
-89
-78
-103
-30
7
17
71
121
166
236
315
397
497
606
716
826
919
983
1008
979
876
711
514
317
140
-11
-127
-208
-259
-290
-303
-299
-286
-274
-260
-244
-229
-220
-212
-207
-207
-206
-202
-202
-204
-203
-200
-199
-198
-194
-190
-187
-183
-178
-172
-166
-160
-156
-153
-147
-141
-134
-127
-123
-119
-114
-109
-106
-102
-99
-95
-90
-85
-82
-79
-74
-71
-69
-67
-63
-61
-61
-60
-56
-54
-53
-52
-51
-49
-46
-44
-44
-42
-41
-41
-42
-42
-43
-43
-42
-44
-45
-44
-44
-47
-48
-48
-48
-48
-47
-45
-46
-47
-48
-47
-48
-50
-51
-49
-48
-49
-50
-50
-50
-52
-52
-50
-48
-49
-49
-51
-57
-64
-68
-77
-80
-65
-46
-33
-3
25
-5
-57
-58
-55
-66
-18
-16
-111
25
436
888
1577
2070
1162
-476
-833
-141
52
-162
-124
-57
-103
-69
-9
1
31
80
120
167
223
288
367
449
530
619
707
784
840
867
864
818
709
557
403
251
100
-22
-112
-191
-250
-272
-276
-281
-282
-272
-259
-250
-250
-257
-263
-264
-263
-270
-281
-285
-289
-295
-292
-290
-303
-308
-297
-293
-295
-286
-280
-283
-274
-257
-253
-248
-235
-232
-238
-232
-216
-212
-211
-201
-191
-189
-186
-181
-181
-182
-175
-165
-163
-165
-163
-159
-155
-147
-142
-144
-145
-138
-131
-126
-123
-123
-124
-120
-115
-110
-108
-111
-117
-117
-116
-126
-136
-122
-87
-41
-3
-18
-74
-82
-63
-89
-66
-13
-97
-92
279
849
1628
2307
1645
-158
-946
-319
53
-161
-178
-74
-114
-99
-27
-16
8
66
107
153
218
286
364
454
549
647
745
828
886
910
887
805
664
488
309
145
1
-118
-206
-264
-297
-310
-307
-294
-280
-268
-255
-243
-232
-223
-216
-213
-211
-209
-209
-210
-209
-208
-208
-206
-201
-196
-191
-185
-176
-166
-157
-149
-141
-133
-123
-115
-109
-101
-91
-82
-75
-67
-61
-55
-48
-41
-34
-26
-19
-14
-10
-6
-3
1
4
6
8
11
13
16
18
21
24
26
25
24
26
26
25
25
26
28
29
28
26
26
26
23
20
22
22
20
20
22
20
16
13
11
11
9
5
5
7
6
3
2
2
0
1
3
2
1
-1
-3
-4
-3
-3
-1
7
