# session 9
-17
21
-74
-43
329
725
809
772
842
919
942
989
1037
1048
1047
1033
983
903
800
675
538
403
285
203
149
106
73
55
37
16
1
-15
-42
-67
-84
-104
-123
-133
-142
-150
-156
-172
-196
-213
-224
-223
-185
-132
-131
-167
-187
-209
-213
-170
-195
-256
-72
452
1208
1760
1192
-341
-1086
-496
10
-127
-198
-98
-107
-103
-35
-7
21
85
139
194
259
308
349
380
377
352
331
292
217
123
22
-86
-184
-248
-280
-301
-316
-323
-326
-330
-339
-347
-355
-361
-365
-367
-369
-371
-370
-370
-376
-385
-390
-395
-387
-332
-250
-221
-243
-255
-262
-255
-207
-203
-233
-131
222
1058
2155
2122
467
-843
-542
27
-80
-196
-87
-89
-107
-36
0
26
92
150
202
272
329
373
412
425
414
396
365
315
251
177
93
11
-50
-80
-96
-107
-110
-111
-118
-121
-117
-118
-128
-134
-135
-141
-155
-167
-168
-171
-187
-206
-217
-224
-228
-204
-153
-128
-145
-162
-171
-179
-163
-154
-171
-122
154
876
1789
1727
245
-1026
-785
-63
14
-132
-69
-30
-58
-28
5
19
54
79
114
203
290
321
344
393
432
440
425
394
339
252
136
10
-98
-173
-226
-276
-319
-343
-348
-349
-357
-365
-371
-386
-402
-402
-393
-391
-387
-377
-375
-374
-372
-380
-385
-372
-345
-296
-240
-237
-267
-255
-235
-213
-149
-159
-205
39
577
1135
1460
982
-295
-988
-456
106
30
-66
30
52
54
110
143
183
251
307
370
452
519
568
613
645
652
630
585
515
410
285
167
62
-25
-79
-121
-160
-167
-150
-159
-188
-192
-183
-192
-204
-206
-213
-222
-224
-224
-229
-234
-240
-251
-266
-273
-244
-175
-131
-150
-175
-178
-184
-155
-127
-180
-164
127
804
1792
2142
932
-620
-735
-53
42
-156
-94
-48
-93
-49
9
22
61
115
164
221
270
308
345
365
359
340
309
255
181
93
-8
-110
-189
-235
-262
-281
-289
-290
-292
-296
-299
-303
-309
-309
-309
-313
-313
-313
-317
-317
-320
-338
-351
-356
-362
-327
-241
-192
-224
-253
-254
-259
-239
-214
-244
-215
89
801
1637
1597
235
-1022
-853
-133
-26
-178
-117
-65
-80
-25
34
60
118
191
246
310
395
479
537
573
598
612
604
568
497
389
257
116
-14
-111
-167
-198
-220
-237
-248
-253
-251
-258
-278
-289
-279
-274
-285
-295
-296
-294
-287
-281
-292
-317
-332
-312
-253
-190
-176
-200
-214
-231
-228
-156
-148
-228
-68
435
1054
1551
1288
-4
-986
-625
31
40
-75
10
31
19
68
81
92
166
250
312
372
444
523
571
571
557
542
506
442
350
229
102
-13
-110
-169
-191
-210
-233
-231
-219
-239
-271
-257
-214
-216
-266
-303
-315
-335
-342
-317
-296
-305
-338
-373
-357
-268
-198
-222
-256
-237
-233
-228
-178
-188
-226
-112
292
1262
2424
2182
288
-956
-494
46
-113
-179
-56
-106
-132
-38
-7
5
82
144
188
277
367
388
376
404
451
430
353
298
237
123
11
-81
-203
-294
-281
-239
-248
-276
-293
-301
-293
-295
-333
-346
-298
-282
-337
-355
-311
-316
-379
-386
-324
-304
-337
-301
-206
-208
-273
-265
-242
-240
-188
-181
-237
-106
338
1118
1884
1511
-112
-1084
-539
60
-43
-117
-9
-41
-46
64
88
74
163
265
307
367
454
517
580
646
644
598
574
545
473
351
171
-7
-112
-170
-223
-252
-260
-276
-299
-314
-326
-329
-314
-300
-307
-326
-334
-337
-342
-341
-341
-355
-370
-375
-380
-363
-298
-239
-242
-252
-252
-279
-248
-174
-237
-265
59
676
1457
1906
1065
-522
-956
-228
105
-94
-105
-22
-40
-10
38
48
93
159
224
322
407
446
504
580
594
561
544
523
458
344
195
58
-32
-96
-157
-207
-248
-271
-255
-229
-229
-248
-266
-272
-265
-278
-302
-282
-258
-296
-328
-311
-315
-356
-350
-269
-189
-183
-217
-225
-227
-214
-162
-177
-250
-119
419
1384
2160
1547
-199
-1037
-429
62
-89
-135
-24
-43
-39
28
47
87
171
222
268
345
413
453
489
513
508
480
440
374
265
135
9
-104
-193
-247
-274
-293
-305
-310
-313
-321
-329
-332
-334
-340
-340
-334
-336
-340
-334
-337
-359
-369
-351
-323
-283
-234
-225
-259
-283
-297
-294
-244
-231
-274
-167
238
918
1508
1129
-271
-1117
-607
18
-36
-138
-15
11
-30
12
66
105
163
227
298
375
431
481
537
570
574
572
556
519
460
366
240
122
24
-63
-124
-153
-174
-197
-203
-200
-205
-215
-227
-245
-254
-247
-239
-240
-249
-258
-252
-239
-242
-251
-240
-217
-189
-153
-144
-171
-189
-192
-190
-154
-140
-187
-110
324
1161
1903
1489
-107
-1124
-657
6
-6
-109
-28
-22
-29
32
58
71
125
177
227
301
371
431
490
522
512
491
468
413
319
212
105
-3
-98
-168
-207
-224
-249
-278
-276
-254
-249
-266
-293
-307
-283
-265
-301
-338
-333
-331
-346
-347
-356
-392
-392
-300
-196
-188
-247
-300
-335
-293
-188
-225
-329
-113
475
1170
1528
855
-538
-1073
-416
111
93
92
76
-82
-60
128
162
124
239
269
85
166
508
446
174
327
531
421
429
536
310
-33
-142
-90
-30
-125
-345
-275
17
-43
-197
84
204
-224
-351
41
111
-222
-366
-282
-215
-204
-269
-372
-363
-278
-302
-383
-305
-158
-181
-282
-277
-200
-103
-50
-94
19
628
1732
2656
2131
153
-1073
-430
284
-86
-397
-69
70
-198
-218
118
218
-8
-8
241
234
96
277
512
442
370
475
456
244
51
-65
-166
-304
-434
-461
-500
-636
-648
-536
-617
-747
-519
-192
-326
-715
-780
-623
-588
-465
-118
109
2
-334
-573
-328
143
160
-183
-322
-274
-271
-224
-123
-129
-171
-5
403
1020
1859
2219
1101
-661
-1130
-436
-83
-118
58
173
120
270
458
379
329
472
497
460
673
866
702
507
554
611
540
420
233
3
-114
-74
-28
-120
-278
-317
-227
-155
-160
-203
-216
-154
-157
-349
-463
-276
-121
-278
-503
-571
-544
-449
-319
-292
-341
-338
-331
-375
-414
-468
-502
-378
-251
-342
-421
-171
570
1796
2447
1229
-744
-1233
-510
-154
-156
-38
-47
-132
-47
-2
-44
56
176
156
228
454
542
506
599
731
717
629
524
366
227
166
101
-60
-271
-350
-241
-172
-242
-222
-74
-11
-78
-218
-306
-149
48
-20
-141
-198
-379
-439
-198
-112
-290
-307
-174
-155
-169
-149
-164
-189
-286
-395
-162
451
1186
1716
1183
-569
-1723
-1166
-328
-284
-360
-203
-162
-239
-272
-227
-87
5
-55
-47
146
274
294
519
831
745
415
376
458
278
116
196
165
-120
-349
-385
-352
-324
-303
-295
-284
-264
-283
-330
-302
-222
-209
-224
-175
-125
-137
-179
-197
-119
16
41
-19
28
124
113
132
264
279
98
32
671
2241
3352
2147
-333
-1297
-671
-292
-373
-315
-268
-222
8
136
70
62
106
121
197
306
345
374
441
445
365
314
264
116
-23
-90
-269
-510
-510
-420
-560
-651
-498
-571
-885
-769
-264
-90
-311
-447
-435
-477
-470
-270
-122
-264
-441
-365
-241
-314
-410
-391
-382
-376
-311
-303
-290
-67
461
1492
2533
2005
-67
-1235
-609
46
-58
-121
19
39
72
216
306
292
299
441
631
637
526
653
947
964
772
744
715
480
351
391
249
-54
-236
-293
-300
-270
-274
-306
-288
-275
-322
-350
-374
-471
-559
-593
-637
-633
-536
-449
-377
-261
-210
-307
-407
-418
-530
-770
-764
-510
-459
-498
-284
169
1246
2625
2228
-153
-1518
-814
-193
-439
-457
-133
-42
-126
-140
-104
-61
7
106
201
276
371
478
546
621
749
816
755
663
533
310
169
170
80
-114
-196
-212
-243
-155
6
16
-93
-109
-51
-89
-178
-150
-105
-197
-287
-255
-230
-275
-320
-328
-272
-176
-152
-177
-154
-173
-246
-106
449
1340
1930
1153
-690
-1584
-881
-158
-216
-332
-212
-174
-228
-209
-103
-22
-78
-146
-11
219
331
391
469
464
414
454
556
571
378
83
-10
57
-72
-327
-378
-306
-328
-366
-313
-269
-346
-416
-316
-206
-264
-279
-115
-39
-138
-181
-143
-133
-80
-2
-18
-44
-9
32
112
190
146
55
138
906
2410
2905
1098
-932
-986
-254
-223
-315
-129
-91
-151
-86
2
72
128
136
177
283
352
377
415
441
426
384
333
286
195
13
-182
-310
-399
-481
-547
-581
-562
-533
-579
-632
-594
-529
-502
-510
-585
-626
-533
-495
-583
-534
-321
-194
-213
-267
-291
-308
-344
-328
-267
-291
-275
2
645
1738
2420
1295
-720
-1205
-333
33
-151
-102
-3
-31
3
65
150
313
398
388
432
500
596
786
859
713
626
661
644
611
568
376
147
25
-128
-306
-299
-187
-164
-158
-109
-107
-164
-211
-241
-286
-355
-379
-311
-272
-348
-402
-330
-253
-290
-378
-409
-405
-406
-388
-425
-529
-499
-222
563
2000
2632
984
-1102
-1127
-193
-166
-441
-308
-207
-180
-92
-124
-123
55
135
83
114
216
333
474
538
500
491
527
480
332
210
153
29
-160
-232
-220
-276
-283
-153
-94
-129
-100
-119
-227
-172
-17
-40
-138
-151
-180
-226
-212
-187
-157
-138
-217
-338
-351
-263
-206
-240
-184
157
766
1610
2159
1324
-488
-1241
-610
-200
-408
-479
-383
-335
-213
-127
-175
-150
-13
77
137
226
281
278
318
447
553
552
450
219
-45
-71
63
-63
-387
-448
-344
-500
-659
-365
7
-65
-279
-235
-143
-217
-296
-283
-269
-321
-398
-380
-255
-206
-251
-222
-194
-277
-250
-107
-111
-171
-91
467
2167
3958
3179
321
-1047
-347
36
-255
-170
-22
-213
-232
-19
-24
-162
-126
-46
-65
8
209
332
370
422
442
425
416
353
222
100
-47
-254
-373
-399
-552
-716
-556
-300
-380
-550
-435
-284
-350
-436
-443
-477
-494
-459
-485
-527
-439
-324
-350
-419
-407
-332
-219
-196
-330
-325
35
821
2142
2942
1640
-620
-1193
-357
-34
-213
-147
-77
-167
-154
-30
41
41
72
177
244
263
405
628
697
628
618
686
720
649
509
374
216
-16
-167
-93
25
-49
-206
-196
-70
-92
-268
-332
-257
-246
-269
-223
-248
-349
-312
-174
-127
-136
-147
-216
-274
-237
-263
-410
-366
139
1006
1643
1088
-589
-1629
-1090
-272
-199
-324
-255
-235
-259
-226
-242
-276
-216
-139
-63
153
366
296
191
346
439
299
304
483
484
311
148
-7
-130
-171
-210
-259
-242
-225
-286
-316
-254
-220
-267
-302
-276
-255
-286
-283
-195
-155
-185
-111
10
-46
-154
-86
-5
-71
-51
140
377
1103
2413
2638
777
-1016
-868
-95
-53
-167
-106
-203
-261
-50
185
270
268
276
331
377
394
433
490
544
564
494
397
323
169
-29
-106
-137
-249
-338
-344
-359
-379
-381
-464
-592
-597
-540
-566
-578
-527
-523
-505
-425
-474
-571
-400
-134
-209
-455
-376
-115
-148
-298
-151
273
1151
2356
2295
307
-1277
-846
15
14
-125
6
51
39
83
72
53
125
234
333
433
515
534
499
513
605
566
318
153
210
221
94
-3
-135
-355
-380
-218
-259
-410
-293
-118
-186
-255
-189
-217
-311
-274
-213
-305
-440
-453
-409
-412
-429
-428
-416
-376
-377
-376
-95
523
1199
1438
602
-955
-1624
-971
-364
-387
-433
-401
-445
-321
-80
-79
-249
-200
131
352
334
497
868
907
665
644
752
719
685
643
412
136
-39
-183
-239
-150
-94
-134
-150
-142
-152
-136
-121
-139
-127
-93
-118
-143
-83
-12
-6
-4
-6
-95
-179
-132
-94
-127
-44
290
1183
2463
2433
379
-1244
-772
45
-73
-237
-99
-105
-146
-85
-72
-56
-2
-8
34
207
316
286
318
427
382
193
94
89
25
-99
-199
-279
-385
-533
-662
-686
-569
-393
-360
-512
-534
-304
-221
-416
-462
-306
-305
-364
-225
-126
-238
-319
-301
-312
-307
-277
-290
-210
150
928
1915
1942
352
-1155
-951
-114
-1
-160
-98
-67
-45
87
149
150
236
319
329
378
492
590
674
743
739
694
704
740
724
623
379
63
-64
6
-32
-200
-224
-110
-94
-183
-230
-223
-232
-236
-208
-260
-424
-505
-455
-433
-433
-400
-401
-380
-334
-397
-325
171
785
1118
853
-265
-1429
-1403
-639
-394
-594
-599
-456
-383
-343
-279
-220
-235
-270
-159
93
327
465
510
496
487
509
523
476
360
253
208
153
47
-53
-120
-165
-170
-130
-93
-89
-90
-91
-134
-207
-229
-207
-213
-213
-145
-84
-93
-133
-184
-196
-147
-140
-142
-74
178
1242
2919
2978
660
-1155
-758
-19
-124
-223
-100
-139
-161
-82
-81
-71
6
6
-53
-27
90
244
401
476
433
365
332
278
181
79
-25
-134
-217
-254
-261
-274
-311
-335
-326
-327
-338
-309
-265
-272
-309
-322
-296
-232
-171
-173
-224
-268
-266
-190
-140
-194
-183
92
830
1979
2315
785
-1002
-1049
-333
-336
-461
-218
-149
-247
-202
-154
-153
-86
-13
44
130
210
276
346
381
373
372
366
321
260
208
150
68
-17
-58
-71
-113
-172
-194
-207
-246
-265
-257
-274
-297
-284
-268
-249
-196
-148
-151
-214
-299
-301
-219
-197
-169
-5
345
1326
2744
2674
517
-1106
-728
-126
-323
-437
-282
-286
-277
-177
-259
-395
-278
-47
76
208
358
311
179
234
374
394
322
227
130
20
-104
-178
-225
-339
-448
-441
-343
-202
-131
-231
-337
-288
-228
-273
-326
-335
-308
-266
-260
-275
-285
-313
-303
-264
-314
-325
-110
475
1663
2603
1578
-685
-1460
-631
-224
-458
-438
-300
-325
-296
-202
-159
-119
-54
27
115
172
240
368
449
429
393
359
315
318
303
143
-48
-102
-93
-98
-74
-69
-114
-67
59
52
-66
-105
-95
-103
-47
59
100
88
80
55
7
6
32
-23
-1
345
866
1314
1374
505
-711
-799
-110
13
