# session 40
-6
-11
-4
58
100
37
-46
-61
-48
-42
-40
-46
-48
-38
-39
-57
-67
-68
-76
-86
-97
-105
-102
-96
-102
-108
-108
-110
-115
-120
-120
-109
-98
-101
-111
-112
-105
-98
-100
-111
-115
-106
-97
-100
-108
-111
-101
-95
-107
-111
-96
-91
-103
-108
-104
-101
-98
-99
-102
-98
-93
-98
-104
-109
-115
-113
-102
-100
-107
-115
-125
-131
-135
-157
-179
-178
-167
-148
-120
-109
-100
-79
-78
-57
-29
-85
-53
303
960
1824
2225
1196
-408
-657
135
356
93
101
167
90
94
143
123
129
173
176
164
192
227
238
252
279
296
304
324
347
364
388
417
432
445
466
477
475
462
413
313
190
66
-56
-163
-249
-305
-327
-335
-345
-342
-328
-319
-311
-302
-304
-305
-297
-295
-301
-300
-296
-299
-291
-274
-272
-276
-266
-259
-267
-264
-244
-232
-234
-229
-214
-207
-209
-205
-196
-187
-181
-179
-174
-166
-162
-160
-150
-142
-143
-143
-140
-137
-129
-119
-122
-123
-112
-109
-116
-109
-98
-102
-102
-89
-87
-89
-83
-85
-91
-80
-71
-81
-88
-85
-99
-124
-137
-137
-131
-114
-95
-78
-56
-55
-64
-19
-3
-68
34
478
1207
1991
1947
537
-765
-505
281
314
101
157
175
120
151
173
161
180
198
201
218
236
250
269
288
305
326
348
367
387
412
438
457
474
494
514
521
513
487
427
321
186
53
-67
-174
-255
-303
-329
-341
-344
-339
-332
-322
-313
-309
-311
-312
-308
-306
-308
-311
-309
-303
-298
-295
-295
-298
-296
-283
-273
-272
-267
-258
-252
-248
-239
-232
-229
-220
-210
-209
-210
-199
-188
-187
-184
-173
-168
-169
-165
-157
-153
-151
-147
-143
-139
-135
-131
-126
-123
-119
-112
-105
-107
-114
-115
-113
-121
-139
-151
-167
-189
-178
-142
-123
-99
-69
-80
-66
-12
-68
-97
219
875
1786
2466
1774
-2
-753
-53
392
147
68
163
111
92
149
146
144
176
184
186
208
225
242
270
294
310
328
346
365
392
435
481
515
541
569
591
603
594
540
430
277
107
-53
-183
-282
-349
-387
-404
-410
-406
-396
-389
-384
-374
-365
-361
-362
-362
-362
-361
-361
-362
-358
-354
-353
-350
-340
-331
-324
-314
-303
-297
-292
-285
-277
-266
-255
-250
-245
-239
-233
-229
-224
-216
-209
-203
-196
-188
-180
-173
-168
-166
-163
-159
-150
-138
-133
-138
-136
-126
-127
-140
-153
-172
-202
-202
-160
-134
-124
-89
-80
-86
-29
-29
-106
78
653
1470
2233
2008
459
-713
-306
368
265
82
175
173
119
158
174
165
194
216
221
237
256
273
299
324
344
365
388
414
445
476
506
540
577
606
626
641
641
600
495
340
174
14
-136
-248
-315
-358
-388
-394
-387
-380
-371
-358
-351
-352
-351
-345
-341
-343
-347
-348
-343
-336
-334
-335
-330
-324
-315
-303
-293
-288
-283
-275
-268
-257
-248
-246
-242
-234
-226
-220
-214
-213
-211
-200
-186
-178
-177
-182
-183
-174
-166
-164
-162
-156
-148
-145
-153
-160
-160
-169
-187
-206
-222
-214
-180
-160
-142
-105
-110
-118
-55
-63
-137
71
681
1545
2243
1770
92
-882
-279
361
206
57
153
131
92
146
159
148
172
188
195
215
234
253
281
303
320
343
371
400
429
458
486
515
548
579
598
606
597
546
442
295
127
-31
-160
-262
-336
-372
-379
-383
-388
-382
-368
-358
-353
-348
-343
-343
-350
-354
-347
-336
-331
-334
-337
-334
-329
-319
-307
-306
-308
-297
-281
-277
-274
-262
-256
-255
-246
-231
-219
-213
-219
-225
-211
-196
-195
-191
-181
-176
-171
-159
-159
-171
-182
-196
-213
-229
-229
-202
-172
-150
-118
-107
-121
-81
-51
-125
-71
341
1161
2275
2651
1250
-554
-676
173
318
57
90
131
68
103
140
117
133
164
171
194
223
230
243
271
298
320
343
373
405
432
460
498
534
556
576
595
596
555
459
317
149
-13
-149
-252
-329
-377
-391
-391
-390
-386
-376
-364
-355
-350
-345
-343
-344
-346
-342
-339
-344
-346
-339
-331
-325
-317
-310
-308
-301
-286
-277
-276
-271
-261
-255
-252
-247
-240
-232
-224
-217
-209
-201
-196
-194
-188
-180
-177
-175
-168
-161
-158
-150
-141
-141
-145
-145
-140
-142
-159
-189
-210
-202
-167
-134
-124
-110
-84
-89
-79
-24
-59
-112
112
688
1633
2545
2115
261
-814
-203
394
192
56
157
126
93
140
139
134
163
177
194
225
236
244
270
293
310
340
375
402
428
455
479
506
549
592
599
570
543
504
409
274
140
6
-133
-245
-304
-328
-345
-356
-351
-344
-340
-326
-317
-322
-325
-321
-320
-325
-338
-345
-331
-321
-330
-321
-298
-306
-324
-315
-302
-300
-289
-273
-273
-270
-253
-246
-254
-249
-230
-227
-232
-221
-203
-199
-205
-204
-192
-177
-169
-171
-172
-162
-154
-161
-155
-133
-147
-182
-170
-141
-171
-217
-226
-223
-209
-169
-143
-125
-90
-97
-104
-39
-64
-146
104
746
1564
2193
1706
85
-804
-186
388
196
68
176
145
102
154
169
165
191
199
203
232
258
277
305
325
334
356
391
418
447
500
552
574
588
629
679
695
662
583
459
300
131
-29
-174
-282
-348
-391
-406
-399
-399
-402
-378
-348
-339
-339
-338
-338
-329
-322
-329
-337
-341
-343
-329
-309
-312
-321
-309
-298
-303
-302
-281
-259
-251
-249
-247
-250
-249
-235
-225
-227
-221
-204
-195
-189
-185
-188
-187
-177
-170
-167
-158
-154
-157
-149
-136
-131
-132
-136
-146
-149
-149
-167
-193
-194
-181
-176
-161
-130
-105
-85
-83
-88
-37
-19
-99
-28
352
1078
2181
2670
1351
-458
-600
226
338
63
99
143
81
109
137
116
138
164
164
186
217
229
243
264
282
305
336
363
384
412
450
481
503
528
557
571
576
565
499
363
201
49
-93
-214
-294
-337
-362
-378
-382
-371
-356
-345
-343
-344
-342
-335
-333
-343
-351
-348
-342
-341
-334
-329
-336
-338
-320
-303
-303
-302
-285
-272
-277
-277
-263
-252
-249
-240
-231
-231
-229
-219
-209
-205
-203
-198
-190
-181
-174
-174
-174
-164
-152
-149
-149
-145
-137
-130
-129
-130
-134
-138
-135
-137
-158
-176
-178
-182
-182
-154
-123
-115
-91
-51
-58
-59
-20
-65
-81
224
900
1924
2701
1955
81
-669
31
412
142
82
169
101
80
135
140
149
175
172
179
212
233
247
272
294
313
341
375
406
439
478
513
549
591
628
655
675
666
595
464
290
101
-70
-200
-296
-370
-410
-411
-402
-401
-395
-386
-387
-379
-357
-350
-360
-357
-351
-360
-367
-358
-347
-343
-338
-331
-329
-328
-313
-297
-300
-307
-296
-281
-275
-265
-252
-250
-251
-240
-225
-223
-224
-212
-194
-188
-191
-188
-183
-181
-178
-174
-168
-161
-164
-161
-141
-125
-133
-142
-134
-123
-117
-113
-114
-126
-134
-134
-147
-173
-185
-177
-158
-121
-86
-82
-73
-53
-65
-41
11
-50
-60
247
846
1790
2574
1868
45
-632
93
435
143
93
183
122
114
164
155
153
178
191
210
228
237
266
294
293
293
319
357
385
397
410
432
454
467
478
488
494
488
445
353
231
101
-23
-128
-208
-263
-293
-308
-314
-309
-303
-305
-303
-288
-278
-284
-290
-290
-290
-291
-287
-282
-283
-291
-287
-269
-256
-259
-261
-252
-241
-238
-242
-245
-236
-217
-204
-208
-213
-205
-193
-185
-179
-173
-172
-179
-182
-173
-160
-154
-154
-152
-145
-136
-133
-135
-131
-125
-123
-123
-120
-113
-105
-104
-106
-105
-103
-101
-99
-96
-91
-86
-91
-98
-95
-96
-114
-137
-147
-146
-138
-112
-88
-77
-60
-57
-66
-24
-10
-78
20
439
1164
2083
2251
861
-636
-514
280
318
78
135
162
101
131
155
138
158
181
182
198
218
228
245
264
279
298
319
337
355
376
396
416
433
446
456
463
460
442
396
307
188
69
-38
-133
-208
-256
-286
-305
-312
-307
-295
-287
-284
-282
-284
-291
-294
-292
-290
-295
-298
-292
-285
-286
-285
-278
-277
-276
-266
-256
-251
-246
-240
-236
-231
-225
-217
-207
-203
-208
-206
-193
-184
-187
-188
-176
-162
-162
-170
-164
-148
-142
-146
-147
-143
-135
-129
-131
-128
-119
-116
-121
-118
-113
-110
-104
-103
-111
-111
-106
-120
-137
-147
-167
-179
-149
-115
-110
-89
-63
-73
-49
-7
-63
-35
333
1047
2003
2451
1351
-394
-724
96
372
114
102
167
102
106
152
142
146
171
177
188
209
226
243
263
281
301
323
346
369
393
419
444
464
482
498
508
509
492
439
342
210
66
-69
-175
-252
-305
-336
-348
-351
-350
-341
-328
-320
-317
-313
-311
-313
-315
-316
-319
-318
-314
-314
-313
-308
-302
-297
-289
-281
-275
-268
-258
-251
-247
-241
-232
-221
-215
-212
-208
-199
-190
-185
-182
-177
-171
-165
-161
-153
-145
-141
-137
-134
-135
-131
-125
-128
-126
-108
-95
-95
-96
-99
-103
-93
-87
-95
-95
-96
-119
-133
-126
-131
-128
-93
-64
-57
-67
-82
-22
54
-42
-109
190
749
1566
2512
2313
547
-690
-204
422
233
52
151
145
104
132
125
120
152
159
151
173
206
229
235
224
230
267
286
275
276
290
301
317
329
311
288
278
253
204
145
74
-1
-72
-158
-237
-258
-254
-286
-302
-251
-224
-273
-297
-254
-228
-245
-254
-251
-260
-269
-262
-259
-270
-266
-237
-226
-243
-241
-224
-225
-227
-212
-209
-217
-213
-204
-202
-204
-209
-208
-197
-187
-183
-179
-175
-174
-171
-167
-160
-154
-149
-147
-142
-135
-129
-127
-122
-115
-112
-110
-101
-91
-93
-99
-95
-86
-83
-94
-112
-125
-123
-111
-98
-73
-49
-56
-54
-27
-44
-31
233
914
1924
2425
1368
-456
-976
-150
324
137
79
152
99
88
145
142
134
163
178
189
216
230
226
228
252
287
305
308
326
357
371
374
388
405
408
405
398
378
342
285
202
97
-11
-107
-183
-231
-254
-269
-288
-300
-298
-292
-292
-289
-274
-263
-273
-291
-297
-295
-297
-297
-289
-280
-281
-284
-277
-267
-262
-255
-250
-247
-238
-225
-219
-216
-213
-211
-202
-194
-202
-202
-179
-168
-181
-181
-163
-153
-157
-166
-161
-143
-140
-159
-165
-150
-137
-135
-139
-141
-145
-182
-226
-200
-138
-133
-136
-100
-100
-99
-40
-74
-132
134
764
1620
2268
1657
-68
-889
-191
370
180
76
166
119
83
129
135
143
176
180
185
210
226
240
261
270
281
310
337
353
375
402
429
459
480
491
502
508
488
432
342
221
84
-47
-160
-249
-307
-337
-353
-359
-351
-336
-325
-310
-297
-304
-317
-313
-307
-311
-309
-300
-297
-295
-294
-297
-291
-279
-271
-265
-263
-265
-250
-228
-228
-236
-227
-215
-210
-202
-194
-193
-190
-183
-178
-172
-158
-152
-160
-157
-142
-142
-141
-116
-101
-113
-123
-119
-115
-115
-118
-118
-115
-126
-148
-159
-158
-148
-132
-111
-76
-59
-78
-62
-32
-71
-3
363
1027
1988
2525
1480
-301
-683
114
372
105
93
141
64
86
140
116
118
149
153
163
187
204
219
230
240
261
283
301
326
347
362
382
400
407
417
428
422
399
353
268
155
44
-66
-165
-232
-269
-299
-323
-329
-325
-318
-310
-307
-304
-302
-304
-306
-306
-302
-300
-301
-303
-299
-292
-287
-282
-274
-268
-263
-254
-248
-247
-242
-229
-219
-213
-206
-204
-206
-203
-195
-185
-177
-174
-171
-165
-159
-156
-150
-144
-141
-138
-134
-130
-127
-122
-115
-115
-116
-109
-106
-115
-117
-112
-121
-136
-148
-165
-165
-135
-109
-82
-52
-65
-73
-20
-42
-97
119
671
1500
2279
1899
202
-847
-274
375
227
77
173
151
105
143
147
143
173
181
184
209
222
229
256
282
288
291
304
327
350
369
391
410
417
421
429
436
430
400
332
231
117
4
-95
-174
-237
-285
-309
-314
-309
-308
-309
-299
-285
-289
-299
-291
-281
-290
-301
-299
-293
-287
-279
-276
-277
-274
-264
-254
-248
-246
-242
-235
-227
-221
-216
-210
-204
-198
-193
-188
-182
-178
-176
-171
-163
-158
-153
-148
-144
-140
-135
-130
-126
-125
-123
-120
-118
-112
-103
-106
-119
-120
-115
-124
-144
-167
-174
-152
-129
-117
-87
-65
-82
-58
-25
-82
-29
368
1092
2001
2289
1062
-560
-672
171
361
99
114
170
102
118
157
128
127
168
188
191
201
217
229
238
258
290
313
324
343
366
382
396
407
408
411
417
410
383
328
238
130
15
-98
-185
-244
-294
-328
-338
-341
-340
-331
-320
-311
-305
-308
-314
-313
-305
-303
-310
-313
-311
-305
-297
-292
-292
-293
-288
-280
-272
-265
-262
-258
-251
-243
-235
-231
-227
-223
-219
-213
-208
-204
-198
-193
-189
-183
-175
-170
-168
-163
-159
-156
-151
-147
-143
-137
-135
-140
-138
-139
-154
-176
-190
-192
-169
-141
-125
-98
-76
-92
-65
-15
-70
-57
306
1022
1947
2350
1261
-433
-731
108
399
141
124
195
138
142
183
171
181
212
220
233
256
271
290
315
335
356
381
406
431
459
484
506
528
556
579
590
592
575
515
406
268
123
-13
-129
-215
-268
-293
-304
-308
-307
-300
-287
-276
-273
-273
-271
-272
-278
-278
-273
-270
-275
-278
-275
-271
-268
-262
-256
-251
-247
-245
-244
-236
-228
-227
-225
-218
-214
-214
-211
-206
-202
-199
-197
-196
-193
-191
-189
-185
-184
-184
-182
-180
-181
-181
-178
-176
-178
-178
-173
-175
-188
-195
-198
-210
-232
-260
-277
-258
-225
-213
-189
-155
-170
-168
-110
-148
-190
110
794
1704
2325
1610
-144
-900
-204
277
55
-34
57
10
-14
35
33
30
59
69
76
100
118
135
159
178
194
218
246
276
307
338
370
399
425
450
472
481
469
421
317
174
22
