# session 16
5
-27
78
-22
-463
-796
-776
-688
-691
-674
-629
-613
-593
-561
-540
-521
-496
-474
-454
-430
-409
-389
-368
-349
-332
-312
-293
-277
-263
-248
-234
-221
-206
-188
-173
-163
-153
-140
-129
-120
-110
-99
-91
-84
-72
-57
-47
-47
-46
-38
-29
-22
-18
-14
-10
-7
-4
4
9
5
5
14
16
11
13
22
22
16
17
23
24
22
21
20
20
22
21
19
13
8
11
16
5
-11
-10
-13
-33
-34
-2
34
65
66
16
-11
9
-19
-34
29
-13
-53
272
803
1355
1903
1580
33
-1012
-549
40
-73
-178
-72
-81
-98
-33
-14
-11
36
79
111
159
216
279
352
432
518
607
691
761
806
814
781
698
564
399
235
84
-51
-166
-256
-317
-353
-372
-379
-376
-371
-363
-349
-336
-328
-323
-320
-321
-322
-325
-330
-335
-339
-343
-346
-349
-350
-350
-351
-353
-351
-345
-338
-331
-323
-318
-312
-307
-308
-314
-321
-337
-342
-299
-222
-164
-170
-215
-218
-194
-214
-198
-137
-201
-216
128
751
1607
2290
1578
-300
-1140
-469
-15
-213
-240
-122
-152
-140
-62
-43
-19
41
85
135
208
283
368
474
591
713
834
941
1022
1061
1029
915
732
517
307
117
-43
-161
-234
-274
-294
-304
-309
-308
-299
-285
-268
-254
-240
-223
-206
-195
-187
-180
-175
-171
-166
-160
-156
-152
-147
-143
-139
-133
-128
-122
-115
-107
-101
-96
-90
-84
-78
-71
-65
-60
-57
-52
-47
-42
-38
-35
-32
-28
-24
-22
-21
-20
-17
-15
-14
-13
-12
-11
-10
-10
-10
-7
-5
-5
-5
-3
-1
-2
-5
-6
-7
-10
-13
-12
-13
-15
-17
-15
-13
-15
-17
-18
-19
-23
-27
-26
-24
-25
-30
-33
-34
-35
-40
-44
-48
-54
-57
-54
-57
-64
-62
-63
-76
-81
-71
-73
-81
-79
-76
-82
-85
-82
-83
-91
-95
-92
-93
-101
-102
-105
-117
-119
-100
-75
-45
-19
-35
-80
-79
-63
-101
-92
-33
-105
-112
234
683
1236
1965
1749
168
-880
-434
36
-153
-238
-123
-141
-148
-81
-67
-51
5
45
85
141
185
235
306
382
455
532
604
661
701
721
709
659
575
468
344
217
103
8
-80
-161
-215
-233
-237
-244
-246
-238
-227
-214
-205
-201
-197
-193
-194
-196
-197
-203
-209
-212
-216
-221
-217
-211
-216
-225
-219
-204
-194
-191
-187
-179
-175
-172
-163
-150
-142
-142
-142
-135
-124
-120
-122
-115
-105
-102
-98
-89
-82
-80
-81
-81
-75
-68
-63
-58
-53
-49
-48
-47
-45
-44
-43
-38
-34
-37
-39
-34
-29
-30
-32
-34
-35
-33
-30
-30
-27
-23
-24
-29
-29
-25
-20
-20
-25
-24
-18
-19
-27
-28
-20
-13
-15
-27
-37
-32
-24
-26
-30
-29
-29
-33
-34
-38
-53
-64
-52
-24
-2
10
27
35
5
-22
-19
-38
-49
8
-8
-73
131
560
1055
1702
1783
494
-876
-760
-58
-18
-179
-95
-73
-107
-40
5
1
34
77
109
150
194
247
321
397
470
555
643
722
784
816
814
773
676
527
365
214
69
-61
-163
-239
-298
-335
-351
-354
-352
-343
-333
-321
-308
-296
-288
-283
-278
-274
-273
-274
-276
-280
-283
-283
-283
-284
-283
-280
-276
-272
-271
-268
-262
-255
-249
-244
-241
-236
-230
-222
-215
-209
-203
-197
-191
-188
-183
-177
-171
-166
-161
-155
-151
-149
-144
-138
-136
-135
-130
-130
-134
-136
-144
-164
-172
-155
-119
-71
-28
-25
-71
-95
-72
-86
-103
-35
-50
-148
60
584
1254
2118
2284
815
-785
-728
-33
-48
-229
-121
-94
-134
-70
-26
-21
25
72
104
158
219
281
359
449
545
652
757
848
918
958
949
878
743
566
381
205
47
-80
-173
-237
-277
-297
-307
-310
-303
-288
-274
-260
-246
-233
-224
-216
-207
-200
-197
-196
-194
-193
-192
-190
-187
-185
-181
-176
-172
-169
-165
-161
-156
-148
-143
-139
-135
-128
-122
-118
-112
-106
-101
-96
-90
-84
-78
-75
-74
-69
-63
-58
-55
-53
-50
-49
-47
-44
-43
-43
-42
-40
-41
-40
-35
-30
-30
-31
-27
-24
-23
-21
-21
-24
-18
-9
-16
-26
-21
-13
-17
-20
-14
-13
-18
-17
-11
-8
-12
-21
-24
-18
-15
-24
-30
-22
-13
-21
-30
-27
-27
-37
-41
-36
-35
-37
-37
-39
-44
-45
-44
-44
-46
-56
-70
-75
-73
-77
-67
-37
-9
13
14
-34
-68
-39
-43
-68
-16
-37
-107
143
645
1158
1759
1737
355
-978
-763
-56
-59
-216
-119
-101
-135
-76
-43
-41
4
47
75
119
171
227
298
372
451
544
637
717
783
829
842
806
716
584
430
268
113
-20
-131
-222
-282
-311
-326
-335
-335
-326
-317
-310
-301
-293
-288
-281
-274
-276
-281
-282
-283
-289
-295
-299
-303
-306
-308
-306
-302
-301
-300
-293
-283
-278
-274
-266
-255
-247
-239
-229
-223
-221
-215
-206
-202
-198
-192
-185
-180
-175
-168
-162
-159
-155
-149
-143
-139
-136
-131
-129
-129
-129
-136
-150
-150
-121
-72
-23
-9
-52
-86
-64
-66
-91
-38
-31
-127
30
533
1188
1988
2189
849
-774
-831
-93
-13
-207
-120
-73
-114
-61
-14
-10
35
84
116
166
226
286
364
454
544
645
754
854
936
990
999
946
826
654
465
282
115
-30
-140
-213
-258
-284
-297
-297
-288
-277
-266
-251
-235
-224
-214
-205
-199
-196
-195
-193
-191
-192
-193
-192
-189
-188
-188
-187
-185
-180
-176
-172
-166
-160
-155
-148
-140
-134
-131
-125
-111
-101
-100
-97
-94
-100
-100
-85
-76
-74
-69
-69
-72
-65
-56
-53
-48
-45
-49
-49
-48
-50
-50
-46
-42
-40
-39
-38
-39
-39
-40
-40
-38
-38
-42
-43
-44
-46
-47
-50
-54
-51
-45
-46
-48
-46
-46
-46
-45
-44
-46
-47
-47
-46
-45
-47
-51
-55
-58
-61
-64
-67
-68
-68
-69
-68
-66
-64
-66
-74
-80
-80
-90
-107
-102
-74
-42
-3
11
-35
-67
-45
-62
-80
-15
-48
-125
145
648
1169
1840
1883
515
-806
-612
-1
-79
-235
-129
-123
-159
-97
-66
-62
-18
22
52
101
153
204
268
341
417
499
579
651
712
752
765
744
680
575
443
304
172
50
-57
-142
-204
-245
-265
-269
-267
-262
-252
-242
-231
-220
-214
-212
-211
-212
-212
-212
-212
-215
-217
-217
-217
-217
-217
-215
-210
-206
-201
-194
-186
-180
-175
-167
-159
-153
-146
-139
-132
-126
-120
-115
-108
-99
-93
-89
-87
-84
-81
-79
-73
-67
-65
-64
-60
-57
-54
-50
-46
-42
-39
-37
-36
-33
-30
-28
-29
-29
-27
-24
-23
-23
-21
-20
-20
-19
-17
-17
-17
-17
-17
-17
-17
-16
-15
-15
-17
-17
-14
-13
-17
-18
-17
-17
-17
-13
-13
-18
-24
-21
-16
-16
-20
-20
-16
-16
-20
-25
-25
-28
-35
-37
-41
-55
-53
-31
-14
9
38
15
-40
-38
-26
-57
-30
0
-83
2
401
870
1466
1879
1055
-526
-953
-251
34
-170
-164
-87
-121
-89
-38
-45
-16
37
59
92
150
198
244
309
383
455
533
615
686
742
774
768
722
639
514
355
200
67
-56
-163
-233
-279
-318
-337
-330
-322
-323
-316
-298
-290
-293
-286
-273
-269
-267
-264
-266
-271
-275
-279
-281
-280
-282
-286
-285
-275
-267
-272
-276
-259
-244
-251
-254
-238
-225
-217
-206
-201
-205
-201
-189
-185
-185
-175
-162
-156
-151
-146
-146
-146
-137
-130
-129
-123
-114
-114
-121
-124
-127
-127
-104
-61
-25
-7
-16
-57
-79
-54
-61
-77
-18
-30
-96
166
763
1406
1919
1584
58
-1105
-726
-18
-27
-149
-47
-34
-60
1
33
37
78
118
151
202
256
310
379
462
556
659
766
868
950
996
1000
949
824
643
448
264
93
-58
-173
-246
-285
-305
-315
-315
-306
-297
-289
-278
-268
-262
-254
-245
-240
-235
-231
-229
-231
-235
-237
-234
-233
-237
-240
-238
-238
-241
-241
-236
-230
-226
-222
-215
-211
-209
-205
-197
-193
-191
-185
-178
-175
-171
-166
-163
-161
-159
-156
-151
-148
-146
-144
-142
-140
-137
-135
-135
-131
-126
-124
-119
-112
-114
-123
-125
-131
-146
-150
-132
-98
-55
-23
-29
-68
-94
-75
-70
-96
-52
-28
-126
-26
432
1014
1748
2140
1107
-582
-925
-199
10
-206
-164
-91
-135
-98
-41
-36
-2
46
75
119
179
234
299
379
464
556
654
748
831
897
932
925
859
733
571
403
241
86
-47
-145
-210
-251
-274
-282
-280
-272
-261
-249
-234
-222
-213
-207
-202
-198
-195
-193
-192
-191
-190
-191
-191
-190
-187
-186
-185
-184
-182
-176
-169
-162
-158
-151
-144
-138
-131
-123
-117
-113
-109
-104
-97
-90
-85
-81
-76
-70
-65
-61
-58
-56
-56
-53
-48
-45
-42
-39
-37
-35
-32
-31
-30
-28
-25
-22
-21
-21
-21
-20
-21
-23
-23
-21
-19
-20
-22
-23
-24
-23
-22
-24
-26
-26
-25
-27
-27
-28
-29
-28
-26
-26
-27
-29
-29
-30
-31
-33
-33
-35
-37
-38
-39
-43
-46
-48
-50
-53
-53
-54
-56
-58
-60
-63
-64
-65
-68
-70
-72
-78
-81
-84
-95
-98
-81
-62
-43
-13
-2
-45
-82
-63
-70
-99
-46
-43
-138
25
472
963
1650
2000
932
-628
-810
-136
-41
-248
-182
-132
-178
-131
-81
-80
-44
2
28
70
122
169
227
297
368
441
518
594
667
725
755
759
734
663
545
408
275
146
26
-73
-151
-212
-250
-264
-267
-266
-259
-243
-228
-221
-215
-208
-201
-198
-194
-187
-181
-182
-192
-199
-196
-193
-195
-196
-193
-190
-185
-177
-171
-170
-168
-159
-152
-147
-136
-123
-123
-123
-113
-110
-114
-106
-90
-81
-77
-76
-80
-79
-74
-72
-63
-52
-54
-56
-49
-53
-62
-54
-44
-47
-44
-32
-29
-35
-39
-38
-35
-31
-29
-30
-31
-32
-33
-33
-29
-26
-28
-32
-34
-33
-34
-37
-37
-33
-32
-34
-36
-37
-38
-36
-33
-38
-42
-39
-42
-48
-40
-34
-48
-60
-54
-50
-56
-56
-49
-54
-65
-68
-64
-64
-72
-79
-77
-79
-94
-92
-51
-7
9
-9
-60
-86
-60
-68
-86
-33
-65
-128
181
755
1260
1716
1522
138
-1034
-721
-46
-77
-218
-113
-95
-126
-70
-40
-34
10
46
69
115
168
218
281
355
431
513
602
688
763
820
847
838
781
669
518
359
209
68
-58
-155
-221
-261
-281
-287
-286
-279
-268
-255
-242
-230
-217
-205
-198
-193
-188
-184
-185
-187
-186
-184
-184
-183
-183
-183
-181
-175
-170
-167
-160
-152
-144
-135
-128
-121
-114
-107
-100
-91
-83
-77
-71
-64
-57
-50
-46
-43
-38
-34
-33
-34
-32
-29
-29
-29
-27
-27
-28
-28
-30
-32
-32
-29
-29
-32
-32
-32
-37
-45
-47
-43
-44
-49
-50
-50
-56
-60
-58
-58
-60
-63
-67
-71
-73
-73
-73
-77
-84
-87
-87
-90
-93
-96
-97
-99
-102
-103
-104
-105
-107
-107
-107
-111
-118
-117
-112
-119
-129
-128
-128
-139
-136
-101
-61
-38
-36
-69
-104
-91
-85
-116
-74
-47
-139
-6
481
991
1566
1899
971
-616
-952
-229
4
-206
-173
-98
-144
-112
-52
-47
-19
27
55
95
147
195
253
323
395
474
564
655
737
806
855
872
849
774
650
499
346
202
69
-42
-127
-188
-227
-247
-253
-248
-238
-228
-219
-209
-198
-188
-180
-172
-165
-161
-161
-163
-166
-166
-165
-169
-174
-174
-174
-175
-174
-170
-167
-163
-158
-157
-156
-151
-145
-140
-135
-130
-124
-119
-116
-114
-110
-106
-101
-96
-93
-88
-82
-80
-80
-78
-77
-77
-75
-73
-72
-72
-71
-68
-66
-66
-67
-66
-62
-58
-58
-59
-57
-54
-53
-51
-49
-48
-46
-45
-43
-41
-40
-41
-42
-41
-42
-44
-48
-49
-49
-49
-50
-51
-52
-51
-51
-54
-58
-59
-57
-56
-55
-56
-58
-59
-58
-58
-59
-60
-64
-67
-68
-78
-89
-76
-50
-32
-5
29
16
-30
-29
-14
-43
-22
18
-60
-18
342
804
1468
2186
1727
59
-805
-293
71
-137
-184
-91
-127
-127
-67
-58
-40
9
37
62
106
150
198
257
322
391
468
553
635
699
745
778
785
745
650
518
375
237
101
-30
-135
-208
-261
-300
-318
-317
-309
-302
-296
-288
-284
-283
-279
-267
-259
-262
-263
-260
-262
-266
-269
-271
-268
-263
-263
-266
-268
-268
-265
-259
-255
-255
-251
-240
-234
-236
-234
-224
-217
-215
-213
-208
-202
-196
-193
-194
-194
-193
-192
-189
-184
-179
-174
-170
-167
-161
-158
-155
-149
-144
-144
-139
-127
-118
-119
-120
-116
-108
-102
-102
-100
-91
-82
-81
-81
-82
-85
-92
-105
-114
-103
-69
-21
25
33
-14
-47
-24
-27
-58
-9
-8
-113
43
547
1184
2020
2371
1139
-583
-805
-115
-29
-245
-175
-125
-175
-126
-73
-70
-33
12
37
80
134
185
248
322
399
488
588
683
772
852
908
926
896
809
667
500
337
184
44
-72
-155
-207
-237
-254
-260
-256
-244
-230
-217
-205
-193
-182
-171
-159
-148
-140
-133
-127
-120
-114
-106
-99
-90
-77
-65
-59
-53
-41
-32
-26
-18
-8
-2
3
11
18
20
21
26
31
32
32
36
41
42
39
38
37
36
35
36
34
29
23
20
19
17
12
5
-4
-13
-19
-28
-37
-44
-50
-55
-61
-66
-71
-78
-86
-95
-102
-109
-118
-130
-142
-148
-152
-162
-173
-182
-194
-201
-196
-195
-209
-220
-223
-229
-233
-233
-241
-255
-260
-260
-262
-268
-270
-273
-285
-295
-282
-259
-256
-274
-282
-264
-261
-289
-278
-203
-178
-252
-299
-258
-254
-303
-258
-222
-317
-197
306
849
1309
1358
320
-1006
-1040
-258
-85
-316
-257
-121
-122
-114
-85
-65
-42
-23
33
130
188
220
297
388
448
520
629
725
793
878
974
1028
1043
1025
932
806
705
581
440
364
318
242
184
176
181
187
