# session 24
-27
4
-61
48
414
670
625
474
329
148
-31
-169
-283
-370
-411
-423
-422
-407
-386
-365
-347
-333
-323
-315
-310
-306
-303
-300
-297
-291
-282
-275
-269
-263
-259
-258
-253
-245
-238
-231
-225
-221
-213
-200
-191
-184
-174
-165
-155
-142
-135
-137
-137
-139
-159
-189
-214
-211
-163
-120
-114
-88
-58
-74
-40
4
-87
-42
468
1267
1983
1923
546
-919
-820
78
252
25
76
135
81
110
154
147
166
196
205
224
252
274
302
335
368
406
447
493
544
597
647
695
739
774
793
787
732
607
425
230
52
-104
-225
-305
-348
-367
-369
-362
-353
-344
-336
-328
-324
-322
-321
-321
-321
-321
-323
-325
-323
-321
-318
-315
-312
-309
-304
-299
-295
-290
-282
-277
-273
-268
-262
-257
-250
-243
-237
-233
-229
-220
-217
-223
-229
-233
-250
-277
-300
-295
-249
-206
-197
-170
-140
-153
-125
-70
-139
-131
295
1071
1869
1960
649
-965
-1034
-88
198
-35
-12
63
9
31
86
82
99
133
145
165
195
217
242
276
308
345
388
428
468
516
564
605
645
683
705
702
668
580
433
260
94
-52
-166
-243
-293
-317
-318
-316
-320
-313
-306
-315
-316
-298
-297
-303
-299
-312
-330
-313
-295
-301
-293
-281
-285
-277
-263
-266
-261
-238
-231
-232
-218
-209
-210
-205
-196
-189
-176
-172
-182
-171
-141
-135
-147
-147
-154
-173
-183
-194
-203
-178
-147
-133
-109
-103
-115
-72
-62
-127
-26
347
1046
2112
2450
927
-907
-906
-3
110
-104
2
31
-55
3
61
32
34
61
69
70
79
117
159
169
190
241
261
237
225
235
240
243
262
267
231
196
185
155
94
27
-38
-89
-116
-138
-164
-183
-194
-174
-119
-100
-150
-199
-201
-192
-193
-190
-197
-205
-192
-194
-228
-229
-205
-219
-226
-186
-177
-212
-214
-189
-183
-179
-152
-123
-125
-158
-174
-152
-126
-123
-114
-97
-109
-130
-118
-122
-154
-143
-126
-143
-104
-40
-39
-26
2
-12
70
492
1447
2505
2287
465
-941
-606
123
97
-53
71
92
5
21
67
83
104
107
98
109
119
127
153
178
182
186
201
218
231
231
216
195
176
159
134
99
71
46
-4
-61
-82
-86
-105
-121
-134
-156
-162
-149
-149
-159
-159
-162
-173
-169
-159
-169
-192
-204
-209
-224
-244
-253
-252
-251
-257
-261
-265
-275
-278
-274
-277
-283
-272
-252
-244
-247
-240
-223
-220
-231
-225
-217
-221
-220
-226
-253
-253
-215
-187
-163
-140
-141
-122
-103
-138
29
711
1649
2003
1046
-712
-1548
-833
42
130
16
87
106
92
134
148
165
208
202
210
286
311
270
290
353
376
388
414
424
435
462
475
468
459
443
419
387
339
263
163
61
-25
-92
-141
-173
-191
-202
-211
-218
-216
-216
-212
-208
-236
-267
-242
-208
-239
-280
-269
-243
-242
-260
-267
-241
-198
-177
-181
-196
-205
-192
-168
-159
-160
-154
-150
-149
-143
-141
-148
-148
-145
-161
-187
-199
-185
-165
-158
-138
-112
-124
-117
-70
-102
-119
141
749
1683
2330
1452
-493
-1211
-353
204
-11
-74
48
8
-20
34
45
50
78
84
92
124
148
163
186
209
232
264
300
330
361
400
436
461
482
499
503
481
413
290
141
5
-116
-217
-278
-303
-324
-340
-329
-306
-300
-299
-288
-284
-294
-303
-302
-299
-297
-297
-299
-300
-300
-299
-293
-284
-280
-279
-273
-265
-256
-251
-248
-240
-228
-224
-224
-224
-229
-232
-218
-184
-138
-101
-99
-122
-149
-165
-150
-147
-161
-113
-100
-186
1
661
1364
1592
903
-550
-1370
-749
77
119
-21
61
79
47
96
120
114
144
170
183
213
245
269
297
329
363
398
436
482
530
571
606
642
672
687
689
662
577
433
261
99
-40
-152
-233
-282
-306
-314
-313
-309
-304
-299
-299
-300
-301
-303
-307
-311
-315
-319
-319
-320
-322
-321
-316
-315
-317
-308
-298
-307
-318
-308
-280
-233
-179
-162
-192
-228
-248
-234
-210
-231
-218
-156
-222
-257
124
873
1707
2033
988
-723
-1107
-235
147
-97
-116
-17
-65
-59
-2
-3
12
52
69
92
130
159
189
228
267
308
355
403
453
507
560
606
645
675
690
672
593
444
257
72
-89
-217
-305
-358
-383
-388
-384
-378
-371
-363
-359
-355
-353
-352
-352
-350
-349
-346
-341
-339
-338
-330
-322
-318
-308
-297
-294
-291
-287
-295
-303
-293
-263
-206
-141
-126
-162
-195
-209
-198
-176
-193
-185
-126
-181
-233
88
816
1739
2203
1198
-624
-1127
-248
189
-53
-84
20
-31
-29
36
39
52
95
117
140
177
207
237
274
310
347
388
430
473
518
562
602
636
663
676
665
611
500
345
178
30
-90
-178
-236
-269
-284
-288
-288
-289
-289
-287
-289
-293
-295
-296
-298
-299
-298
-299
-299
-296
-292
-288
-282
-277
-272
-266
-259
-252
-246
-239
-233
-227
-222
-216
-209
-201
-194
-188
-184
-180
-176
-172
-166
-160
-160
-166
-173
-186
-210
-236
-246
-225
-182
-155
-145
-112
-97
-113
-69
-38
-124
-46
439
1195
1931
1854
425
-949
-718
133
204
-17
56
93
37
79
116
103
126
153
159
182
211
231
259
291
316
344
375
405
436
469
500
527
550
569
580
574
541
468
355
225
101
-8
-97
-160
-202
-231
-248
-257
-266
-273
-278
-284
-292
-299
-301
-304
-307
-309
-307
-308
-309
-306
-300
-296
-291
-286
-281
-279
-275
-267
-259
-255
-249
-242
-234
-227
-221
-214
-208
-201
-195
-191
-184
-178
-173
-168
-164
-161
-156
-151
-157
-168
-175
-192
-221
-237
-228
-202
-169
-147
-130
-99
-94
-102
-48
-41
-127
8
535
1320
2047
1790
194
-1020
-560
230
176
-15
87
97
46
99
126
115
143
167
175
200
226
245
273
302
330
360
388
415
445
475
502
525
544
555
556
544
503
419
302
176
58
-42
-119
-174
-210
-231
-244
-253
-256
-260
-269
-274
-276
-281
-286
-286
-287
-289
-288
-285
-283
-280
-277
-273
-268
-263
-259
-255
-249
-243
-237
-231
-226
-219
-211
-205
-201
-197
-193
-188
-181
-176
-173
-166
-157
-151
-149
-146
-141
-138
-134
-133
-132
-126
-123
-133
-144
-153
-171
-196
-206
-194
-166
-136
-121
-100
-74
-85
-74
-15
-56
-99
200
877
1710
2091
1118
-597
-1051
-165
301
67
19
122
76
69
126
124
127
160
173
187
215
235
256
285
310
333
361
389
415
441
464
484
500
511
512
504
485
436
347
230
109
6
-77
-142
-186
-212
-230
-245
-252
-253
-255
-259
-267
-276
-280
-281
-282
-284
-286
-288
-286
-282
-280
-276
-269
-265
-260
-250
-242
-238
-229
-220
-217
-214
-210
-203
-195
-191
-190
-183
-176
-175
-172
-165
-162
-164
-161
-156
-152
-149
-145
-141
-136
-133
-132
-126
-120
-125
-135
-143
-162
-191
-212
-215
-191
-156
-139
-116
-78
-83
-83
-19
-43
-114
135
790
1650
2203
1479
-270
-1035
-276
304
105
6
117
83
58
117
121
119
155
168
176
205
230
248
276
308
337
369
403
438
472
504
534
560
578
586
582
559
501
399
266
126
1
-100
-174
-223
-254
-272
-281
-281
-279
-282
-286
-289
-292
-294
-297
-300
-303
-306
-308
-307
-306
-306
-303
-295
-289
-286
-280
-275
-271
-265
-259
-255
-249
-240
-233
-228
-222
-216
-211
-207
-204
-199
-192
-183
-179
-177
-173
-167
-162
-157
-153
-153
-154
-149
-140
-134
-140
-152
-157
-162
-183
-207
-215
-198
-170
-155
-134
-89
-79
-87
-31
-23
-102
60
650
1525
2238
1794
63
-1063
-497
258
164
-1
111
111
61
113
134
125
157
182
192
215
240
260
289
320
350
383
415
447
482
519
554
583
608
624
622
601
555
460
319
169
38
-72
-157
-214
-247
-263
-271
-273
-269
-266
-267
-269
-270
-274
-278
-280
-282
-284
-287
-289
-288
-285
-284
-282
-279
-277
-273
-267
-261
-259
-256
-252
-250
-246
-237
-232
-230
-228
-223
-216
-211
-205
-198
-192
-188
-184
-178
-174
-171
-166
-160
-157
-153
-149
-150
-153
-154
-167
-191
-214
-238
-245
-211
-175
-160
-124
-98
-108
-68
-43
-121
-13
543
1404
2122
1799
191
-1042
-625
189
187
-4
85
100
46
94
122
110
143
176
180
194
218
240
268
297
322
345
368
395
425
445
458
473
487
485
470
446
409
341
235
117
16
-64
-128
-176
-205
-219
-225
-230
-233
-233
-233
-236
-238
-242
-248
-252
-253
-258
-263
-262
-260
-260
-259
-257
-255
-251
-247
-244
-238
-234
-234
-229
-219
-213
-211
-206
-197
-191
-188
-185
-180
-175
-171
-166
-160
-161
-161
-159
-167
-182
-194
-212
-224
-200
-166
-142
-115
-109
-108
-64
-70
-122
48
627
1595
2380
1727
-271
-1355
-596
216
113
-31
82
66
24
88
106
89
119
154
174
195
205
211
233
265
294
316
331
343
354
363
364
355
337
316
289
252
204
138
59
-16
-72
-114
-147
-168
-176
-177
-179
-182
-178
-175
-180
-184
-181
-186
-201
-209
-211
-219
-229
-224
-216
-220
-224
-221
-218
-216
-214
-214
-213
-210
-207
-202
-199
-201
-201
-194
-192
-192
-185
-178
-174
-170
-172
-181
-185
-192
-211
-228
-241
-242
-217
-191
-169
-140
-139
-136
-83
-101
-144
143
877
1766
2112
1053
-798
-1382
-427
243
85
-3
101
77
63
115
120
128
166
183
201
235
253
264
290
318
343
375
414
449
472
493
521
547
553
544
530
497
420
305
175
51
-59
-144
-206
-248
-267
-270
-271
-271
-266
-264
-270
-283
-296
-297
-280
-263
-265
-278
-283
-280
-280
-292
-314
-323
-303
-277
-269
-275
-286
-293
-286
-264
-242
-232
-229
-218
-206
-198
-183
-177
-196
-211
-208
-215
-235
-253
-269
-259
-223
-209
-192
-149
-149
-145
-78
-97
-143
148
880
1840
2314
1247
-700
-1266
-288
274
41
-10
113
60
39
100
103
110
151
170
189
220
232
242
273
308
338
376
417
450
475
501
531
553
561
565
560
522
437
315
168
16
-109
-191
-242
-278
-299
-308
-313
-316
-313
-303
-293
-293
-295
-297
-306
-317
-321
-313
-309
-319
-323
-308
-298
-306
-305
-296
-300
-293
-261
-249
-269
-270
-244
-234
-232
-214
-197
-195
-197
-199
-207
-215
-218
-213
-194
-158
-116
-104
-121
-121
-111
-117
-86
-59
-115
-80
251
1004
2171
2674
1248
-792
-1052
-77
218
-29
-8
47
-21
7
58
46
60
89
99
126
151
158
183
219
235
250
275
294
312
331
341
342
338
320
295
269
231
170
92
10
-65
-129
-176
-200
-209
-218
-223
-221
-218
-220
-219
-216
-221
-228
-227
-229
-240
-244
-235
-231
-234
-234
-235
-240
-239
-231
-226
-224
-220
-217
-213
-205
-201
-201
-197
-197
-194
-170
-142
-119
-83
-55
-77
-123
-148
-146
-137
-145
-136
-99
-119
-144
40
601
1639
2508
1756
-373
-1406
-592
152
16
-96
13
-10
-35
22
30
33
72
89
101
136
164
180
206
234
257
283
311
336
359
379
392
400
400
389
369
336
278
187
80
-18
-102
-175
-224
-246
-253
-253
-248
-243
-242
-245
-245
-246
-249
-253
-256
-258
-261
-262
-261
-259
-257
-254
-250
-245
-241
-240
-239
-234
-227
-222
-219
-214
-209
-205
-199
-192
-186
-183
-191
-206
-216
-219
-204
-157
-103
-81
-97
-137
-150
-124
-127
-135
-84
-99
-166
30
602
1492
2292
1799
-103
-1238
-554
213
83
-61
57
38
-1
62
75
68
107
133
145
175
204
227
258
290
321
355
389
420
450
485
521
547
559
564
558
530
458
338
195
59
-62
-165
-233
-268
-287
-296
-296
-288
-280
-278
-279
-278
-276
-275
-275
-276
-277
-277
-275
-273
-272
-271
-271
-267
-260
-256
-256
-255
-251
-248
-246
-240
-233
-228
-226
-222
-216
-211
-207
-202
-197
-193
-187
-181
-178
-172
-165
-169
-179
-186
-204
-235
-255
-246
-213
-180
-167
-142
-108
-120
-111
-46
-90
-138
161
827
1722
2332
1548
-285
-999
-201
297
52
-18
92
45
32
96
100
106
143
153
165
199
223
246
284
315
340
374
407
440
484
526
557
595
632
643
633
607
531
394
233
82
-53
-167
-247
-290
-310
-319
-320
-316
-313
-309
-306
-307
-307
-309
-313
-315
-314
-317
-320
-318
-315
-315
-315
-312
-309
-306
-303
-298
-291
-283
-277
-273
-265
-255
-246
-239
-232
-225
-219
-211
-201
-194
-188
-179
-172
-167
-161
-155
-152
-146
-137
-138
-150
-157
-171
-200
-221
-214
-187
-155
-135
-116
-81
-72
-85
-39
-20
-104
-11
473
1282
2141
2066
486
-946
-643
215
235
17
107
132
71
118
152
138
162
190
198
225
254
273
300
334
364
397
433
467
503
543
581
612
638
658
665
651
603
503
359
197
47
-78
-173
-234
-269
-287
-292
-287
-279
-274
-275
-277
-276
-275
-280
-284
-287
-290
-294
-295
-298
-298
-293
-288
-287
-285
-281
-274
-269
-266
-261
-256
-250
-245
-240
-234
-227
-222
-218
-215
-210
-205
-201
-198
-194
-191
-188
-185
-181
-178
-177
-175
-173
-172
-173
-171
-167
-166
-174
-186
-196
-209
-235
-253
-249
-232
-206
-178
-165
-145
-126
-140
-116
-60
-120
-138
218
926
1793
2170
1107
-624
-973
-84
271
12
-1
89
30
35
92
85
93
130
145
161
192
218
243
272
301
332
367
401
437
474
509
541
566
588
606
609
586
521
406
259
115
-13
-120
-195
-237
-258
-266
-262
-253
-247
-242
-240
-239
-235
-231
-230
-231
-230
-229
-227
-224
-220
-218
-212
-200
-190
-184
-179
-172
-164
-157
-149
-142
-133
-122
-112
-103
-94
-85
-77
-73
-68
-58
-49
-44
-36
-26
-20
-16
-9
-2
1
5
12
17
21
26
33
34
24
