# session 10
19
51
-51
-16
344
671
665
553
514
491
512
506
419
469
743
1436
2798
3542
2067
-110
-457
310
407
165
231
246
142
179
232
186
204
323
384
358
371
419
424
441
505
514
463
444
443
406
330
202
72
-15
-120
-202
-149
-108
-208
-268
-254
-325
-397
-354
-332
-372
-377
-387
-425
-449
-515
-573
-508
-462
-483
-343
4
708
1718
1677
-88
-1498
-1099
-412
-522
-645
-494
-435
-384
-295
-309
-303
-201
-137
-112
-41
43
93
124
149
177
202
216
228
218
137
31
-10
-19
-59
-86
-75
-88
-117
-92
-81
-162
-236
-222
-188
-165
-145
-175
-213
-168
-152
-222
-208
-161
-257
-271
37
725
1781
2216
917
-803
-913
-130
-27
-261
-186
-139
-246
-230
-110
-34
18
77
118
145
199
269
307
327
340
282
168
87
7
-108
-184
-245
-353
-381
-285
-246
-279
-229
-188
-286
-337
-231
-173
-257
-318
-273
-208
-181
-174
-200
-251
-221
-137
-161
-205
-34
500
1488
2196
1333
-474
-1063
-341
65
-65
-66
-21
-43
61
178
167
146
165
188
227
258
254
247
254
271
292
283
258
283
321
274
184
165
212
227
163
65
-18
-86
-136
-166
-206
-238
-249
-301
-353
-294
-215
-233
-285
-326
-338
-313
-368
-377
30
712
1061
632
-546
-1541
-1313
-434
-159
-415
-530
-453
-293
-105
-113
-299
-311
-93
47
74
198
328
321
337
413
389
326
334
333
294
249
165
61
16
25
22
-32
-108
-135
-118
-134
-174
-164
-130
-114
-76
-29
-25
-18
-14
-52
-29
37
-24
-51
219
837
1793
2306
1221
-546
-914
-196
33
-108
-24
4
-75
-36
5
7
67
115
138
199
253
271
262
199
154
208
249
180
87
41
2
-52
-91
-108
-157
-243
-293
-309
-341
-357
-359
-412
-468
-468
-496
-535
-453
-335
-353
-434
-446
-415
-400
-410
-398
-346
-78
994
2503
2397
239
-1284
-840
-189
-281
-362
-278
-290
-238
-127
-112
-127
-115
-84
0
97
135
136
156
204
233
215
203
253
309
297
227
161
134
115
51
-18
-27
-55
-146
-168
-106
-117
-194
-201
-131
-77
-105
-169
-177
-162
-172
-167
-231
-393
-319
327
1352
1832
906
-622
-1043
-433
-124
-236
-210
-161
-218
-199
-147
-140
-97
-57
-63
5
133
176
174
227
240
129
-4
-27
72
165
99
-68
-133
-74
-27
-30
-56
-102
-145
-165
-167
-155
-171
-233
-260
-220
-180
-164
-182
-274
-340
-281
-266
-341
-247
182
1140
2435
2586
852
-760
-649
-65
-119
-229
-132
-136
-154
-89
-37
13
55
53
73
127
172
223
244
205
207
265
266
244
280
273
209
203
158
5
-17
112
45
-188
-212
-82
-109
-208
-175
-135
-199
-246
-243
-265
-293
-335
-395
-370
-339
-428
-391
-85
435
1364
2017
940
-1033
-1467
-574
-258
-459
-347
-267
-423
-394
-208
-141
-120
-44
19
52
87
113
123
133
158
198
222
213
196
192
184
162
123
64
21
31
41
-14
-54
-7
6
-94
-181
-189
-179
-148
-99
-100
-136
-162
-177
-165
-181
-256
-248
-50
607
1908
2589
1193
-826
-1081
-232
-37
-250
-192
-142
-210
-181
-124
-126
-107
-56
-30
-9
65
183
271
271
183
82
29
-18
-111
-208
-262
-277
-278
-284
-263
-197
-185
-288
-400
-430
-400
-351
-336
-387
-435
-395
-327
-309
-324
-356
-348
-213
-111
-193
-218
91
940
2160
2351
645
-1016
-846
-104
-102
-209
-83
-94
-111
-33
-39
-1
169
256
252
295
346
389
466
493
428
366
331
279
253
277
261
178
155
225
216
89
21
23
-27
-55
7
18
-60
-101
-67
-4
25
-7
-49
-72
-89
-101
-160
-238
-132
347
1132
1468
467
-1067
-1348
-546
-163
-303
-288
-207
-251
-244
-178
-150
-112
-68
-59
-28
-7
-79
-85
73
86
-190
-352
-191
-54
-132
-183
-110
-76
-109
-128
-114
-59
-17
-76
-169
-193
-199
-230
-237
-202
-155
-138
-161
-155
-137
-202
-263
-219
-215
-291
-198
500
1996
3065
1974
-272
-1008
-311
-50
-282
-249
-160
-187
-149
-125
-132
-52
29
62
135
184
167
230
367
359
222
203
283
242
122
108
140
104
89
103
-5
-187
-249
-230
-273
-347
-356
-318
-313
-346
-344
-305
-271
-267
-348
-433
-333
-243
-417
-451
-41
523
1234
1714
798
-883
-1195
-402
-231
-435
-247
-150
-273
-168
-11
-55
-73
17
90
146
168
143
186
288
314
302
346
358
278
194
161
142
100
38
27
92
116
55
30
64
43
-26
-37
-28
-99
-168
-122
-41
-55
-137
-151
-82
-95
-183
-155
32
686
2029
2655
1148
-795
-913
-147
-109
-321
-199
-152
-261
-276
-251
-229
-140
-50
-10
60
144
144
101
79
21
-40
-16
-7
-105
-193
-240
-322
-356
-293
-284
-331
-305
-275
-329
-372
-380
-407
-390
-312
-283
-313
-305
-244
-195
-224
-282
-251
-216
-290
-303
-28
770
1943
2145
532
-1076
-910
-131
-113
-266
-116
-94
-179
-78
64
99
133
193
241
293
338
374
429
443
367
292
282
289
308
357
354
254
139
81
68
66
47
0
-51
-85
-120
-145
-147
-154
-148
-124
-156
-207
-178
-173
-245
-266
-242
-143
249
846
1169
724
-471
-1380
-1089
-313
-98
-211
-184
-155
-185
-184
-214
-237
-126
27
69
74
156
198
106
45
113
177
163
134
106
81
99
108
32
-50
-47
-30
-81
-150
-167
-154
-173
-226
-244
-215
-201
-179
-97
-38
-89
-165
-125
13
26
-121
-158
-2
645
2351
3814
2653
-43
-987
-289
-111
-401
-326
-225
-287
-261
-210
-185
-105
-37
-13
26
68
93
92
50
31
52
3
-88
-92
-62
-101
-172
-230
-257
-242
-251
-325
-382
-393
-432
-499
-515
-469
-421
-401
-396
-424
-485
-513
-499
-472
-423
-425
-507
-481
-215
511
1900
2734
1408
-751
-1178
-374
-163
-338
-240
-200
-286
-225
-133
-117
-51
60
122
154
209
269
295
284
252
213
193
200
220
243
252
226
204
213
206
158
111
76
43
11
-29
-49
-24
-23
-48
-8
51
57
66
30
-63
-74
-115
-241
-118
362
1096
1809
1486
-74
-1041
-533
-5
-152
-206
-57
-49
-41
5
-49
-56
59
116
73
80
178
257
238
157
66
-36
-164
-300
-343
-224
-98
-134
-219
-232
-254
-288
-279
-281
-263
-202
-241
-327
-280
-203
-200
-182
-188
-249
-259
-241
-246
-234
-259
-285
-183
144
1126
2511
2442
453
-930
-482
65
-119
-218
-146
-194
-159
-55
-40
-15
34
41
75
128
123
101
90
54
27
54
71
29
12
81
137
110
78
76
45
-10
-66
-130
-166
-175
-247
-341
-324
-239
-205
-220
-247
-286
-339
-397
-396
-358
-398
-377
-53
495
1018
1004
-9
-1167
-1169
-531
-380
-400
-168
-116
-278
-253
-95
-34
-12
83
199
250
277
333
367
363
367
361
333
320
287
208
162
151
96
39
31
7
-30
-9
2
-56
-77
-29
-48
-130
-116
-29
2
18
23
-69
-121
-49
-68
-104
171
740
1452
1806
934
-574
-917
-167
142
-63
-25
88
-12
-66
34
112
117
109
104
112
148
183
207
257
298
261
186
127
44
-48
-79
-79
-102
-111
-115
-165
-232
-276
-297
-277
-259
-325
-410
-391
-308
-259
-246
-255
-320
-392
-329
-194
-216
-315
-279
-89
629
1963
2314
606
-1115
-941
-156
-162
-346
-244
-206
-209
-121
-89
-88
-22
26
39
86
139
179
204
143
15
-43
-26
-35
-70
-74
-59
-36
27
80
34
-38
-35
-36
-94
-123
-122
-142
-147
-139
-146
-129
-112
-164
-253
-292
-258
-230
-284
-283
55
804
1422
923
-642
-1585
-1033
-256
-202
-297
-177
-118
-122
-79
-59
-77
-76
0
159
274
286
305
348
341
296
267
281
314
301
236
172
112
55
39
56
37
-28
-84
-110
-135
-157
-163
-176
-181
-153
-131
-138
-143
-162
-185
-158
-137
-161
-98
256
1206
2429
2396
635
-753
-464
83
-59
-157
-20
-64
-129
-33
6
-32
36
164
197
175
205
224
169
115
105
89
60
63
100
119
87
39
6
-55
-145
-178
-148
-142
-169
-191
-245
-333
-374
-359
-346
-350
-354
-351
-380
-466
-493
-430
-428
-440
-287
138
1081
2033
1478
-390
-1287
-697
-241
-347
-360
-315
-343
-264
-182
-193
-144
-50
-10
27
85
112
123
164
211
220
200
196
195
155
97
59
29
18
36
20
-48
-86
-84
-107
-136
-130
-129
-143
-129
-109
-116
-108
-96
-141
-164
-113
-133
-176
4
489
1289
1935
1312
-372
-1150
-509
0
-168
-250
-119
-65
-31
0
-24
-17
22
34
88
201
264
259
239
211
174
144
118
89
54
1
-50
-75
-93
-113
-127
-153
-184
-205
-238
-282
-295
-296
-311
-298
-259
-263
-286
-292
-323
-319
-238
-246
-322
-203
250
1178
2127
1685
-127
-1103
-529
-32
-183
-228
-130
-154
-123
-16
21
46
107
140
140
169
230
267
257
221
187
181
172
117
73
88
90
57
53
66
47
12
-17
-38
-57
-92
-119
-116
-136
-165
-126
-72
-89
-118
-113
-100
-111
-163
-180
-52
343
1158
1773
998
-614
-1082
-364
-18
-214
-243
-184
-230
-207
-133
-123
-131
-105
-50
3
32
57
73
50
23
44
88
109
106
98
91
65
13
-47
-107
-167
-210
-236
-268
-295
-297
-293
-303
-293
-238
-184
-173
-178
-193
-244
-259
-201
-212
-277
-99
484
1304
1673
772
-737
-1119
-386
-6
-161
-149
-45
-70
-46
20
24
60
143
190
224
280
319
342
365
346
308
349
410
382
341
353
306
169
64
28
-3
-53
-123
-196
-231
-229
-226
-226
-224
-216
-189
-158
-152
-180
-238
-253
-200
-228
-301
-170
230
923
1603
1214
-263
-1043
-513
-75
-228
-269
-178
-226
-216
-112
-81
-73
-12
42
68
96
139
181
208
226
227
187
152
158
125
22
-50
-55
-77
-145
-206
-239
-266
-302
-338
-359
-360
-361
-370
-360
-323
-292
-282
-290
-323
-309
-249
-280
-321
-170
215
1018
1915
1536
-146
-1027
-477
-76
-281
-300
-163
-190
-193
-114
-76
-33
40
89
127
171
201
213
220
226
233
246
268
296
308
291
249
197
147
105
61
12
-24
-51
-91
-134
-160
-188
-215
-182
-89
-11
11
-9
-25
-5
5
-31
-96
-116
485
2143
3318
2071
-207
-785
-111
3
-245
-190
-145
-218
-191
-150
-157
-121
-70
-45
-19
0
5
14
16
2
-9
-7
0
9
18
13
-18
-84
-169
-232
-264
-311
-380
-405
-375
-377
-433
-455
-421
-382
-347
-307
-290
-314
-378
-422
-370
-322
-355
-268
107
683
1049
528
-658
-1117
-534
-135
-301
-325
-135
-100
-148
-119
-70
-39
-2
48
97
138
181
218
233
259
293
283
253
261
275
239
177
119
42
-50
-117
-153
-169
-175
-200
-245
-257
-251
-274
-275
-216
-168
-156
-161
-205
-211
-130
-137
-226
-156
110
773
1820
1929
430
-792
-464
60
-90
-192
-66
-77
-100
-21
19
39
98
149
189
240
279
305
340
377
404
432
465
492
488
435
341
234
135
52
-15
-70
-114
-146
-173
-195
-207
-214
-234
-247
-223
-174
-129
-110
-135
-166
-148
-136
-195
-267
-183
507
1851
2384
979
-675
-692
-48
-70
-249
-147
-124
-176
-127
-88
-81
-35
8
33
65
94
116
148
178
195
195
185
176
157
109
32
-51
-123
-181
-230
-274
-310
-336
-355
-378
-411
-435
-440
-433
-402
-351
-320
-321
-336
-372
-399
-366
-357
-416
-342
46
634
899
236
-892
-1154
-493
-106
-235
-264
-169
-169
-151
-79
-44
-5
62
118
175
235
267
287
326
361
366
372
398
415
399
356
271
145
40
-23
-91
-164
-205
-219
-234
-250
-270
-294
-305
-291
-255
-216
-189
-173
-179
-197
-167
-130
-179
-184
11
463
1219
1617
736
-573
-691
-55
59
-121
-63
-15
-56
-9
43
43
75
125
170
237
294
320
356
403
433
457
481
489
476
436
354
243
141
59
-16
-79
-128
-169
-190
-198
-214
-229
-236
-252
-256
-216
-169
-158
-191
-244
-238
-178
-203
-268
-206
59
764
1659
1462
12
-836
-399
-37
-203
-221
-119
-169
-180
-125
-143
-141
-68
-14
8
29
59
112
164
187
211
244
257
249
225
157
51
-53
-133
-173
-171
-180
-234
-292
-305
-304
-340
-384
-375
-334
-306
-273
-231
-226
-263
-309
-302
-248
-272
-334
-207
210
914
1471
973
-326
-846
-336
-40
-192
-182
-95
-153
-148
-57
-39
-30
46
100
106
140
208
258
296
340
360
350
350
355
315
222
128
77
41
-21
-72
-83
-108
-151
-165
-171
-205
-225
-214
-212
-204
-162
-121
-121
-162
-203
-178
-139
-190
-201
11
457
1022
1145
296
-684
-625
-55
26
-118
-60
-21
-60
-30
10
19
51
91
118
146
169
192
233
265
271
277
288
285
256
196
103
3
-74
-131
-176
-208
-231
-252
-265
-272
-281
-285
-280
-290
-311
-286
-219
-187
-204
-242
-261
-225
-213
-280
-257
32
655
1355
1228
2
-883
-512
19
-68
-188
-93
-81
-104
-59
-30
-8
44
89
126
172
213
246
272
284
298
316
321
315
304
265
188
102
28
-38
-98
-146
-180
-199
-208
-224
-249
-268
-295
-329
-312
-230
-154
-128
-151
-188
-172
-141
-171
-221
-241
125
1445
2797
2165
88
-791
-258
-52
-300
-279
-196
-247
-223
-166
-164
-129
-78
-53
-9
44
58
58
86
132
160
166
174
189
189
138
29
-77
-123
-134
-172
-241
-283
-271
-265
-303
-330
-318
-323
-342
-307
-239
-210
-216
-250
-315
-326
-249
-197
-220
-138
438
1512
1923
712
-798
-888
-239
-151
-326
-266
-226
-273
-237
-186
-175
-146
-109
-77
-33
8
37
73
106
110
101
111
126
125
