# session 18
81
165
-40
-33
815
1836
2177
2293
2149
1014
-50
265
906
779
558
655
664
578
585
592
567
564
558
562
593
600
578
587
637
679
699
718
751
787
816
846
876
887
873
840
779
685
569
444
320
208
106
6
-77
-129
-168
-195
-196
-188
-207
-230
-226
-222
-246
-274
-286
-296
-314
-326
-337
-365
-386
-371
-361
-387
-403
-395
-398
-403
-397
-405
-419
-404
-384
-395
-407
-390
-370
-365
-366
-366
-358
-342
-342
-356
-345
-319
-319
-326
-310
-298
-304
-297
-281
-281
-287
-281
-277
-274
-264
-256
-258
-254
-240
-228
-221
-210
-202
-203
-205
-207
-206
-196
-193
-199
-173
-113
-75
-85
-122
-141
-125
-137
-140
-61
-88
-190
89
685
1213
1702
1609
307
-894
-641
11
-41
-197
-87
-70
-120
-68
-11
20
62
90
116
158
200
248
307
364
418
482
563
662
765
850
911
958
980
960
889
761
595
425
262
108
-19
-114
-181
-213
-218
-220
-224
-219
-207
-197
-187
-176
-171
-175
-181
-179
-164
-140
-127
-140
-159
-152
-140
-153
-158
-133
-127
-148
-141
-116
-121
-127
-106
-93
-94
-96
-110
-113
-88
-76
-85
-81
-75
-85
-84
-77
-81
-75
-64
-71
-74
-59
-50
-58
-61
-60
-66
-68
-56
-44
-53
-62
-49
-42
-60
-70
-45
-26
-40
-51
-44
-46
-64
-72
-64
-62
-64
-55
-47
-48
-43
-36
-46
-60
-49
-28
-23
-32
-38
-39
-39
-36
-37
-43
-45
-36
-30
-31
-30
-33
-45
-54
-51
-42
-27
-22
-43
-71
-83
-82
-68
-57
-60
-38
13
20
-32
-55
-25
-28
-68
-40
-31
-129
-13
438
868
1322
1667
954
-489
-885
-214
51
-164
-163
-90
-142
-135
-87
-87
-65
-10
10
4
32
104
156
160
184
251
305
341
394
455
507
545
555
549
552
531
452
336
214
111
40
-36
-124
-178
-196
-217
-236
-228
-205
-199
-209
-203
-190
-196
-201
-204
-223
-227
-196
-183
-206
-217
-210
-216
-221
-213
-209
-213
-215
-214
-205
-194
-191
-191
-182
-168
-162
-161
-147
-126
-125
-135
-128
-106
-87
-79
-82
-87
-81
-68
-61
-53
-44
-49
-58
-48
-28
-23
-30
-29
-16
-5
-11
-24
-24
-16
-16
-16
-5
2
-4
-7
-1
-1
-5
-4
1
-6
-19
-20
-3
11
10
7
10
11
0
-7
2
0
-31
-64
-65
-60
-77
-69
-23
-24
-34
15
-9
-40
253
819
1388
1697
1090
-362
-1087
-481
95
-11
-103
-12
-37
-66
5
48
48
55
54
47
76
146
198
208
226
275
319
352
393
439
478
501
511
517
502
451
379
291
178
61
-37
-119
-191
-240
-268
-283
-294
-299
-287
-258
-239
-237
-232
-217
-209
-210
-214
-222
-229
-224
-212
-193
-170
-169
-186
-189
-180
-180
-178
-164
-161
-177
-188
-167
-132
-115
-114
-120
-143
-156
-124
-86
-92
-109
-110
-108
-104
-99
-105
-111
-108
-104
-102
-97
-93
-97
-103
-106
-104
-106
-108
-106
-105
-104
-99
-96
-98
-104
-118
-129
-135
-158
-183
-182
-173
-140
-73
-53
-54
3
-18
-43
333
1051
1659
1794
946
-605
-1256
-540
78
-19
-90
19
7
-10
48
63
64
100
125
143
175
205
235
277
322
366
421
484
548
613
674
716
742
760
744
670
549
407
254
108
-16
-112
-180
-228
-258
-265
-256
-255
-254
-235
-222
-228
-219
-190
-184
-203
-213
-214
-222
-229
-233
-240
-251
-257
-259
-264
-271
-276
-277
-270
-259
-265
-271
-250
-233
-249
-268
-270
-253
-216
-205
-246
-275
-249
-216
-206
-203
-207
-221
-229
-216
-177
-118
-64
-56
-97
-124
-106
-108
-127
-84
-86
-165
7
573
1339
1983
1660
27
-1280
-929
-122
-84
-247
-156
-130
-165
-112
-79
-76
-35
1
19
57
100
138
185
239
294
359
433
512
589
659
716
758
778
760
690
568
417
265
119
-16
-126
-200
-244
-267
-273
-271
-265
-254
-243
-235
-227
-219
-215
-213
-211
-209
-208
-211
-216
-218
-218
-219
-218
-214
-213
-214
-215
-226
-238
-229
-196
-158
-131
-123
-138
-174
-193
-171
-166
-186
-145
-117
-177
-33
521
1271
1856
1563
39
-1316
-1088
-223
-58
-212
-146
-106
-140
-95
-60
-69
-44
-5
17
48
87
126
172
222
271
330
402
480
557
629
689
724
729
690
588
438
277
124
-22
-152
-245
-302
-332
-343
-341
-331
-321
-311
-300
-289
-280
-272
-265
-260
-255
-249
-244
-245
-246
-245
-243
-241
-240
-242
-243
-238
-234
-236
-239
-247
-258
-256
-231
-187
-138
-111
-118
-149
-181
-171
-144
-162
-149
-90
-152
-153
286
1018
1697
1879
861
-795
-1262
-462
-10
-181
-203
-108
-141
-134
-77
-71
-54
-6
23
49
91
137
184
238
297
363
434
510
591
669
735
782
807
794
719
585
424
264
112
-25
-136
-212
-258
-281
-287
-279
-271
-267
-260
-249
-244
-244
-244
-247
-254
-258
-261
-265
-266
-267
-273
-278
-279
-282
-280
-273
-270
-272
-267
-267
-282
-294
-291
-261
-197
-142
-142
-172
-196
-201
-175
-170
-183
-130
-127
-218
-45
523
1252
1902
1684
128
-1204
-885
-91
-86
-266
-151
-103
-136
-81
-45
-44
2
45
68
112
159
195
244
306
363
426
503
572
629
689
742
769
766
732
648
516
365
217
79
-35
-121
-183
-216
-220
-215
-214
-212
-208
-203
-196
-188
-189
-197
-206
-209
-205
-208
-218
-226
-223
-214
-210
-215
-218
-211
-203
-199
-195
-189
-180
-178
-180
-174
-159
-148
-146
-153
-153
-134
-118
-126
-132
-119
-112
-120
-118
-107
-113
-123
-112
-96
-92
-90
-86
-91
-97
-97
-100
-99
-89
-83
-86
-88
-89
-89
-87
-88
-95
-108
-124
-142
-166
-190
-176
-139
-134
-118
-53
-39
-52
15
2
-77
186
760
1325
1790
1504
89
-954
-524
114
10
-133
-24
-29
-69
-9
19
20
54
77
89
115
149
186
224
257
297
344
388
435
489
534
566
595
618
615
579
516
428
326
226
132
47
-24
-90
-141
-160
-163
-170
-175
-174
-175
-177
-176
-182
-195
-198
-192
-192
-200
-207
-210
-212
-208
-204
-210
-209
-194
-197
-212
-203
-189
-190
-191
-199
-202
-157
-121
-168
-212
-165
-99
-79
-91
-122
-123
-60
-28
-83
-136
-135
-119
-115
-138
-163
-126
-72
-96
-153
-172
-185
-175
-98
-87
-203
-229
-110
-89
-165
-133
-70
-81
-63
-56
-146
-184
-92
-18
-48
-131
-149
-83
-99
-206
-215
-163
-143
-49
37
-37
-78
-26
-50
101
649
1274
1706
1533
329
-896
-782
-17
141
-41
-47
-43
-36
72
89
7
43
150
153
117
163
216
218
279
386
366
293
377
518
561
569
551
502
527
557
469
362
285
176
106
101
23
-114
-150
-84
-58
-107
-157
-186
-209
-195
-131
-102
-148
-187
-218
-269
-229
-120
-150
-247
-215
-189
-274
-273
-173
-159
-186
-173
-213
-271
-224
-151
-145
-154
-190
-250
-202
-84
-83
-160
-177
-155
-136
-127
-142
-140
-101
-80
-76
-92
-161
-190
-94
-5
-39
-96
-91
-88
-104
-83
-64
-80
-63
-50
-86
-69
-13
-45
-96
-63
-36
-72
-102
-115
-139
-139
-119
-125
-132
-141
-181
-152
-51
-21
-30
-18
-62
19
519
1339
1945
1522
-20
-1190
-878
-97
68
-17
16
-5
-31
18
48
82
129
97
56
121
202
217
235
268
259
267
334
383
416
481
489
426
445
521
477
358
289
203
73
34
60
7
-75
-94
-117
-158
-135
-90
-114
-153
-125
-94
-122
-144
-128
-123
-141
-166
-193
-184
-150
-155
-176
-168
-172
-195
-187
-161
-158
-172
-180
-164
-136
-159
-213
-191
-109
-91
-139
-166
-158
-143
-129
-110
-99
-110
-130
-131
-117
-103
-92
-85
-88
-105
-119
-103
-94
-103
-72
-40
-99
-154
-92
-15
-39
-91
-87
-77
-79
-40
-27
-117
-163
-72
-38
-119
-147
-142
-177
-118
-4
-31
-78
11
39
-14
201
821
1614
1954
1045
-633
-1289
-549
84
4
-92
-13
-19
-37
-16
-31
-4
89
123
90
84
115
166
214
214
220
314
402
376
342
420
523
535
479
435
416
347
202
125
158
103
-57
-91
-54
-134
-183
-119
-154
-221
-106
-6
-95
-164
-136
-128
-111
-99
-179
-232
-140
-53
-128
-254
-239
-119
-99
-193
-227
-173
-164
-220
-225
-153
-130
-196
-220
-167
-143
-162
-151
-121
-130
-162
-162
-129
-105
-94
-87
-95
-119
-147
-158
-122
-72
-68
-97
-101
-83
-69
-67
-75
-78
-55
-31
-30
-45
-55
-38
-3
2
-21
-31
-37
-55
-62
-73
-113
-127
-90
-62
-46
-22
-7
21
30
-23
90
567
1278
1913
1724
256
-1129
-918
-42
83
-117
-29
27
-41
-23
6
-10
9
33
31
52
91
112
145
213
263
259
260
313
367
391
424
463
470
459
440
383
293
208
124
36
-39
-97
-146
-170
-170
-174
-184
-171
-143
-131
-136
-140
-139
-150
-170
-171
-158
-168
-185
-173
-159
-172
-179
-164
-160
-171
-171
-168
-189
-214
-200
-165
-151
-160
-168
-167
-161
-171
-201
-192
-125
-83
-102
-125
-121
-111
-105
-103
-105
-108
-109
-103
-96
-98
-103
-105
-99
-86
-82
-92
-97
-95
-99
-101
-83
-61
-64
-78
-71
-53
-57
-79
-96
-102
-103
-124
-154
-148
-124
-99
-57
-43
-47
-2
-8
-49
218
870
1606
1968
1224
-457
-1321
-648
77
29
-70
30
11
-22
39
56
48
90
127
139
160
180
203
250
300
340
377
407
439
505
589
631
618
598
615
639
590
439
272
169
92
-23
-118
-141
-150
-174
-172
-164
-176
-177
-175
-190
-185
-163
-165
-190
-202
-179
-144
-126
-117
-152
-252
-293
-212
-161
-191
-219
-266
-314
-245
-144
-154
-202
-218
-241
-239
-215
-225
-223
-177
-168
-201
-216
-212
-206
-199
-211
-218
-192
-168
-171
-168
-153
-153
-168
-172
-158
-157
-179
-180
-136
-108
-122
-142
-146
-143
-137
-128
-119
-117
-130
-153
-165
-176
-197
-197
-167
-151
-126
-76
-68
-57
-2
-33
-10
392
1048
1648
1798
849
-678
-1062
-224
259
81
31
143
145
145
178
178
193
235
244
222
227
289
361
388
395
423
466
513
560
599
633
660
665
644
603
540
452
343
206
69
-26
-92
-164
-225
-249
-253
-255
-251
-247
-247
-246
-243
-241
-240
-242
-247
-248
-253
-264
-266
-253
-246
-248
-248
-246
-245
-237
-224
-217
-210
-201
-205
-213
-189
-148
-134
-143
-145
-141
-146
-147
-134
-121
-120
-121
-115
-109
-109
-108
-102
-100
-104
-108
-109
-107
-104
-104
-110
-115
-117
-114
-108
-98
-89
-85
-89
-96
-99
-96
-99
-105
-110
-122
-138
-147
-166
-185
-173
-152
-134
-97
-81
-80
-32
-39
-85
167
794
1526
1960
1324
-342
-1291
-674
60
15
-98
0
-7
-28
41
58
48
83
114
137
172
197
216
254
297
333
378
430
482
537
588
627
658
681
682
651
582
473
337
203
88
-16
-107
-171
-208
-226
-224
-214
-213
-214
-204
-197
-202
-204
-199
-197
-202
-208
-211
-212
-218
-226
-227
-223
-225
-230
-228
-223
-225
-230
-225
-214
-208
-206
-200
-194
-189
-183
-177
-175
-169
-162
-162
-163
-148
-131
-130
-133
-132
-132
-133
-122
-109
-107
-113
-112
-101
-94
-100
-101
-87
-77
-79
-80
-79
-86
-95
-102
-113
-135
-168
-180
-157
-137
-114
-71
-65
-65
-9
-32
-77
224
899
1679
2109
1336
-408
-1220
-519
93
-41
-127
-24
-52
-78
-20
-6
-5
31
47
51
88
128
150
189
240
265
292
371
463
519
556
598
636
656
651
615
524
381
245
147
46
-68
-148
-197
-233
-246
-237
-231
-230
-223
-208
-191
-180
-173
-173
-181
-181
-176
-184
-189
-177
-177
-197
-202
-188
-187
-198
-197
-185
-184
-189
-188
-186
-184
-175
-172
-179
-169
-150
-151
-158
-142
-126
-132
-133
-123
-132
-152
-143
-113
-101
-107
-107
-103
-105
-107
-101
-96
-105
-119
-121
-111
-108
-117
-137
-164
-177
-161
-137
-115
-89
-76
-50
-9
-34
-40
204
774
1591
2080
1246
-492
-1202
-506
50
-53
-110
-26
-51
-56
-3
-6
-17
20
52
64
76
95
131
169
186
201
235
268
291
315
343
366
375
366
338
294
239
177
105
31
-25
-61
-94
-124
-140
-145
-150
-149
-127
-99
-94
-103
-103
-98
-96
-93
-92
-100
-104
-100
-103
-108
-103
-98
-105
-109
-100
-91
-97
-108
-106
-94
-81
-72
-69
-68
-67
-69
-67
-55
-53
-57
-48
-36
-33
-39
-45
-42
-49
-74
-81
-89
-133
-150
-110
-69
-37
-19
-29
-4
8
-20
253
1006
1750
1824
879
-655
-1414
-813
-33
46
-69
-7
23
28
83
87
65
96
131
141
161
184
211
255
287
304
358
443
504
542
591
634
641
616
589
551
453
276
73
-85
-196
-328
-466
-510
-481
-483
-497
-469
-450
-465
-461
-434
-412
-403
-413
-432
-436
-419
-392
-382
-403
-416
-408
-411
-404
-370
-360
-375
-377
-374
-370
-365
-366
-349
-331
-362
-372
-311
-286
-321
-315
-288
-301
-298
-257
-253
-303
-341
-333
-288
-240
-209
-186
-181
-203
-187
-143
-172
-180
-104
-171
-238
132
809
1570
2172
1545
-324
-1260
-517
90
-116
-196
-49
-77
-109
-27
18
18
45
110
176
211
247
313
362
375
412
510
633
739
826
887
923
998
1098
1094
979
881
798
643
443
286
195
139
87
51
52
60
42
44
84
100
82
91
109
100
95
102
94
69
41
30
46
44
5
-15
-1
-11
-52
-85
-94
-87
-81
-81
-61
-19
-9
-65
-136
-146
-101
-110
-180
-168
-146
-258
-223
207
943
1889
2198
766
-1188
-1421
-516
-304
-588
-598
-570
-629
-605
-601
-648
-638
-624
-645
-640
-621
-614
-594
-574
-574
-549
-486
-444
-426
-383
-322
-293
-308
-345
