# session 33
-51
-61
-28
-51
-179
-292
-303
-286
-295
-301
-294
-292
-297
-292
-278
-271
-271
-262
-249
-244
-242
-238
-234
-227
-215
-205
-206
-206
-193
-176
-170
-172
-171
-165
-159
-153
-145
-136
-133
-135
-133
-131
-130
-131
-133
-134
-141
-160
-182
-200
-207
-186
-156
-145
-115
-80
-98
-87
-27
-85
-114
267
1049
1910
2162
1043
-584
-836
44
379
125
104
185
129
127
172
164
170
199
210
224
248
267
290
314
333
360
398
430
459
496
545
598
638
669
702
734
734
671
537
351
150
-35
-191
-305
-371
-408
-427
-424
-409
-398
-392
-385
-372
-357
-348
-347
-349
-351
-349
-342
-340
-344
-345
-339
-333
-334
-334
-322
-306
-301
-297
-286
-278
-276
-271
-262
-253
-246
-238
-230
-223
-218
-212
-205
-200
-195
-189
-184
-180
-172
-164
-162
-160
-152
-148
-148
-146
-142
-141
-143
-150
-169
-193
-210
-212
-188
-152
-137
-118
-84
-92
-97
-31
-47
-129
93
721
1577
2233
1695
-11
-914
-222
416
226
87
196
162
122
181
187
174
208
227
231
255
274
290
318
340
355
386
427
459
488
525
568
609
645
677
703
714
687
599
444
251
65
-90
-216
-306
-358
-377
-380
-379
-375
-368
-360
-351
-342
-340
-341
-342
-345
-346
-339
-333
-337
-337
-329
-324
-324
-317
-308
-301
-299
-296
-286
-271
-261
-258
-254
-248
-239
-230
-229
-230
-216
-199
-193
-194
-189
-184
-180
-174
-168
-163
-158
-155
-152
-145
-140
-139
-136
-126
-123
-132
-140
-145
-160
-181
-196
-202
-191
-159
-136
-119
-85
-82
-91
-35
-36
-123
42
623
1466
2174
1779
129
-920
-327
392
254
77
184
177
125
171
186
177
201
212
219
249
270
281
304
327
345
373
406
437
468
499
534
574
612
638
657
670
656
583
444
267
90
-66
-193
-281
-332
-356
-366
-365
-357
-350
-347
-338
-326
-323
-331
-333
-324
-322
-329
-332
-329
-325
-319
-311
-310
-314
-307
-292
-283
-278
-270
-263
-257
-249
-242
-237
-231
-222
-216
-216
-209
-195
-187
-187
-184
-176
-171
-169
-166
-160
-153
-150
-147
-140
-135
-135
-130
-123
-122
-119
-115
-120
-131
-135
-145
-165
-178
-181
-182
-164
-135
-114
-86
-73
-86
-44
4
-76
-48
401
1183
1964
1983
651
-797
-690
212
376
126
161
211
145
163
194
178
200
230
229
245
273
284
300
330
356
376
398
426
460
494
528
569
603
622
643
670
673
623
504
332
150
-15
-158
-270
-337
-363
-373
-382
-383
-374
-367
-360
-349
-348
-351
-345
-341
-346
-347
-341
-342
-342
-336
-328
-324
-320
-313
-307
-306
-303
-293
-280
-274
-265
-252
-251
-253
-241
-233
-234
-224
-209
-207
-204
-195
-190
-188
-183
-182
-176
-164
-159
-160
-152
-141
-138
-142
-145
-142
-144
-161
-175
-188
-218
-218
-170
-141
-131
-91
-84
-103
-41
-29
-118
90
779
1604
2041
1394
-182
-999
-330
358
245
101
197
182
143
197
210
197
224
244
249
269
291
307
326
349
379
412
439
466
498
534
571
607
645
679
696
696
676
597
436
237
55
-99
-225
-307
-345
-366
-383
-382
-366
-354
-347
-341
-335
-329
-327
-333
-335
-327
-329
-337
-330
-320
-324
-325
-317
-317
-319
-306
-292
-294
-295
-284
-269
-262
-259
-254
-249
-242
-233
-225
-221
-214
-205
-205
-205
-193
-178
-176
-176
-169
-164
-159
-152
-151
-151
-147
-147
-157
-165
-174
-193
-216
-222
-202
-168
-149
-135
-103
-94
-100
-52
-48
-128
5
541
1382
2185
1962
354
-883
-434
350
281
71
165
172
113
157
180
167
193
210
212
240
265
275
297
325
347
373
404
434
471
510
544
577
614
647
672
686
670
597
458
280
99
-64
-196
-286
-343
-376
-383
-372
-366
-365
-354
-343
-339
-334
-327
-328
-331
-327
-324
-327
-326
-321
-318
-318
-316
-311
-303
-297
-293
-288
-283
-274
-261
-255
-253
-247
-239
-237
-230
-218
-211
-207
-201
-198
-193
-182
-174
-172
-169
-164
-163
-161
-153
-146
-143
-139
-133
-128
-126
-134
-147
-148
-149
-176
-208
-208
-189
-169
-140
-117
-95
-74
-86
-77
-18
-57
-113
164
838
1731
2277
1474
-257
-869
-60
421
172
91
192
144
124
179
177
171
198
212
223
246
265
287
312
331
352
383
415
444
474
503
540
582
615
633
649
660
636
541
383
206
37
-110
-224
-304
-350
-364
-360
-360
-359
-350
-342
-337
-330
-320
-316
-315
-313
-312
-314
-317
-315
-310
-307
-302
-298
-294
-291
-285
-277
-270
-263
-257
-252
-241
-229
-226
-226
-214
-201
-204
-206
-192
-177
-173
-170
-166
-167
-163
-151
-149
-157
-152
-135
-124
-127
-129
-122
-116
-120
-118
-107
-109
-124
-126
-120
-133
-161
-177
-182
-188
-177
-135
-102
-86
-63
-69
-76
-21
-33
-94
181
885
1684
2054
1272
-332
-979
-216
378
214
109
207
178
144
191
205
204
219
223
236
266
282
290
312
340
364
386
407
434
473
516
550
572
598
635
669
680
651
561
403
211
32
-114
-233
-324
-376
-388
-385
-385
-382
-368
-355
-348
-339
-328
-328
-332
-323
-311
-313
-322
-324
-321
-319
-317
-314
-309
-304
-304
-301
-289
-275
-265
-260
-254
-249
-244
-238
-229
-222
-219
-213
-200
-193
-194
-194
-186
-176
-174
-172
-164
-158
-155
-150
-145
-141
-138
-139
-137
-134
-139
-143
-136
-141
-171
-198
-204
-202
-186
-151
-125
-103
-73
-82
-83
-17
-45
-127
138
826
1673
2195
1523
-121
-848
-126
417
201
93
199
162
131
183
184
177
208
223
231
254
275
294
319
343
368
396
427
466
508
547
588
632
676
715
745
756
723
611
429
229
43
-124
-256
-344
-396
-418
-417
-411
-404
-392
-379
-368
-355
-343
-337
-338
-338
-333
-327
-325
-327
-327
-326
-326
-324
-317
-308
-301
-300
-301
-289
-272
-264
-263
-259
-251
-246
-240
-232
-221
-215
-213
-207
-196
-190
-188
-185
-180
-173
-165
-159
-156
-156
-153
-146
-140
-135
-131
-131
-130
-123
-117
-118
-119
-121
-127
-132
-145
-175
-194
-183
-170
-154
-119
-98
-85
-65
-73
-61
0
-48
-104
193
869
1743
2312
1568
-141
-779
-14
434
179
103
198
144
126
179
170
167
200
210
218
246
267
284
309
333
356
385
417
452
490
532
575
618
660
697
722
734
712
617
448
250
64
-98
-227
-315
-367
-393
-404
-398
-381
-366
-358
-349
-339
-335
-331
-322
-316
-317
-316
-312
-310
-310
-307
-308
-309
-303
-293
-285
-283
-285
-280
-264
-250
-244
-243
-238
-229
-222
-219
-213
-202
-193
-188
-188
-187
-178
-166
-164
-162
-154
-149
-149
-147
-142
-138
-129
-121
-122
-123
-117
-113
-113
-109
-104
-102
-104
-104
-99
-92
-88
-86
-84
-89
-97
-99
-106
-133
-164
-170
-160
-142
-109
-82
-79
-59
-41
-51
-15
7
-79
-6
461
1200
1998
2099
809
-619
-515
295
360
103
158
198
124
153
195
175
179
205
219
236
257
277
300
317
338
370
402
422
445
489
542
580
604
634
665
685
689
656
549
370
175
0
-150
-267
-345
-390
-410
-413
-408
-398
-386
-379
-373
-361
-352
-350
-348
-345
-344
-344
-343
-344
-343
-335
-328
-325
-321
-315
-310
-305
-295
-284
-277
-270
-266
-263
-254
-244
-238
-228
-221
-221
-214
-201
-195
-192
-188
-187
-182
-167
-155
-154
-153
-150
-147
-143
-141
-136
-124
-119
-122
-121
-117
-119
-114
-102
-102
-117
-123
-123
-140
-169
-188
-190
-170
-135
-108
-86
-63
-73
-67
2
-26
-107
149
821
1656
2203
1578
-68
-850
-147
429
229
109
211
173
138
192
193
182
213
228
234
259
277
287
312
347
373
393
420
454
489
527
567
607
644
674
701
719
700
616
464
274
82
-83
-212
-302
-360
-392
-400
-395
-392
-385
-366
-348
-341
-338
-332
-328
-327
-327
-325
-324
-323
-323
-322
-321
-318
-313
-307
-303
-297
-292
-289
-281
-269
-262
-258
-252
-246
-241
-234
-225
-216
-210
-207
-200
-195
-192
-185
-173
-166
-164
-161
-156
-153
-147
-142
-141
-137
-130
-125
-124
-123
-123
-119
-111
-108
-115
-121
-124
-133
-151
-169
-180
-171
-146
-127
-108
-74
-67
-83
-38
-9
-87
-2
494
1326
2164
2084
561
-847
-580
282
332
98
161
188
125
155
180
165
187
208
212
230
251
267
290
313
331
355
382
408
438
473
506
539
571
599
619
631
629
588
485
328
154
-6
-141
-243
-306
-343
-366
-371
-358
-344
-337
-332
-323
-312
-307
-312
-316
-312
-309
-312
-311
-309
-310
-309
-302
-293
-286
-285
-286
-279
-265
-255
-252
-248
-242
-233
-222
-218
-220
-214
-202
-197
-198
-199
-198
-189
-174
-167
-169
-167
-158
-152
-153
-153
-147
-144
-142
-134
-123
-120
-118
-117
-121
-121
-123
-141
-159
-166
-186
-193
-159
-126
-105
-75
-81
-88
-23
-25
-111
112
802
1647
2127
1463
-206
-1084
-389
346
242
93
195
187
141
186
198
187
215
232
230
248
276
294
308
331
351
364
396
442
466
486
536
576
588
622
671
683
651
575
432
245
62
-97
-227
-319
-375
-402
-409
-412
-409
-389
-368
-360
-354
-342
-333
-331
-331
-328
-325
-324
-324
-325
-325
-320
-313
-308
-305
-300
-296
-290
-282
-274
-267
-260
-256
-249
-238
-235
-234
-223
-210
-206
-203
-197
-193
-185
-176
-171
-169
-163
-158
-161
-160
-149
-141
-145
-152
-159
-179
-211
-232
-213
-169
-152
-143
-110
-101
-100
-40
-50
-137
47
656
1535
2258
1815
111
-927
-313
383
229
66
176
154
104
164
180
161
188
209
214
237
257
268
289
317
342
366
390
419
456
496
533
575
617
645
663
678
664
582
430
248
68
-95
-229
-317
-363
-387
-400
-399
-388
-378
-368
-355
-346
-344
-337
-326
-327
-336
-332
-321
-320
-324
-323
-318
-313
-309
-306
-299
-288
-280
-276
-270
-262
-256
-249
-241
-235
-229
-220
-211
-206
-201
-193
-188
-185
-177
-173
-176
-170
-154
-147
-148
-145
-141
-138
-134
-138
-145
-147
-155
-178
-197
-198
-179
-152
-137
-116
-81
-84
-92
-40
-50
-113
87
674
1548
2280
1792
41
-959
-295
391
225
72
180
155
107
161
170
154
180
198
206
229
249
262
281
302
320
345
372
398
428
462
492
521
553
575
586
595
587
525
400
242
79
-65
-180
-263
-316
-344
-354
-354
-346
-337
-331
-322
-309
-303
-309
-312
-308
-309
-315
-317
-312
-307
-306
-307
-302
-293
-289
-286
-277
-269
-270
-267
-252
-240
-239
-238
-231
-221
-215
-214
-207
-194
-190
-194
-192
-179
-169
-166
-164
-159
-155
-151
-147
-142
-142
-152
-156
-149
-152
-172
-194
-215
-217
-182
-151
-136
-104
-90
-107
-62
-22
-104
-14
548
1382
2015
1722
246
-990
-653
222
316
104
161
195
139
165
192
182
199
217
226
256
280
287
304
331
352
376
410
442
470
506
551
594
629
661
694
719
713
647
497
293
95
-71
-212
-313
-365
-395
-413
-410
-398
-392
-385
-373
-365
-355
-341
-338
-347
-351
-343
-335
-337
-341
-337
-331
-328
-325
-320
-313
-305
-297
-290
-282
-275
-269
-265
-259
-250
-245
-240
-232
-224
-221
-223
-217
-202
-194
-195
-194
-188
-183
-181
-181
-183
-190
-205
-225
-249
-264
-238
-193
-179
-159
-119
-136
-147
-81
-104
-162
147
893
1781
2216
1329
-384
-965
-164
344
171
126
207
158
163
207
170
170
221
218
212
266
318
331
343
366
391
421
454
484
523
575
622
660
702
743
766
766
718
592
409
200
-25
-198
-276
-325
-389
-422
-414
-410
-408
-390
-370
-360
-348
-331
-323
-325
-324
-320
-334
-358
-350
-310
-290
-305
-311
-302
-299
-297
-305
-339
-338
-271
-222
-229
-241
-245
-245
-230
-235
-268
-252
-185
-158
-183
-199
-185
-179
-208
-220
-167
-127
-148
-159
-143
-151
-165
-161
-177
-215
-227
-212
-194
-178
-165
-145
-111
-107
-107
-40
-36
-139
7
590
1422
2155
1909
361
-823
-402
327
250
56
142
140
86
133
152
138
167
185
175
184
209
228
258
308
359
390
408
425
458
503
514
512
582
687
725
739
738
608
392
241
98
-118
-282
-329
-372
-426
-422
-408
-426
-416
-390
-390
-375
-347
-356
-361
-333
-324
-334
-325
-320
-335
-339
-325
-315
-319
-324
-302
-274
-293
-323
-289
-231
-236
-269
-254
-214
-225
-254
-223
-175
-174
-182
-189
-219
-199
-121
-111
-167
-172
-129
-112
-129
-155
-154
-120
-118
-181
-235
-199
-123
-109
-135
-100
-46
-54
-32
26
-55
-100
291
1082
1906
2151
1150
-370
-693
73
413
182
115
184
187
194
156
82
78
108
165
228
188
160
301
405
336
306
387
443
480
521
490
464
551
630
615
623
652
584
449
294
94
-76
-157
-238
-336
-382
-398
-410
-387
-369
-392
-388
-338
-319
-336
-333
-310
-303
-322
-340
-329
-314
-315
-307
-292
-294
-299
-298
-294
-281
-272
-273
-249
-217
-230
-264
-265
-244
-226
-209
-194
-201
-229
-236
-199
-165
-170
-179
-169
-166
-183
-193
-190
-191
-185
-174
-175
-183
-203
-238
-251
-225
-195
-187
-202
-195
-127
-83
-99
-80
-83
-158
-21
521
1367
2132
1803
118
-1071
-530
287
220
15
101
112
71
116
136
131
145
150
171
207
214
228
270
291
293
326
380
412
434
481
528
558
594
626
635
662
690
622
450
266
92
-84
-209
-275
-356
-420
-386
-336
-355
-352
-297
-281
-295
-283
-281
-287
-253
-228
-250
-253
-214
-202
-215
-198
-183
-209
-212
-172
-164
-174
-141
-107
-112
-107
-88
-90
-94
-89
-86
-63
-19
-4
-11
-15
-32
-44
-2
50
34
-8
3
45
63
61
48
16
