# session 5
-39
-44
-13
-50
-171
-272
-368
-476
-449
-302
-301
-482
-570
-476
-436
-533
-461
33
737
982
140
-1264
-1725
-978
-326
-286
-263
-189
-307
-352
-201
-144
-195
-155
-92
-96
-29
125
194
173
167
156
150
210
259
255
284
327
286
182
83
11
-34
-74
-118
-130
-120
-140
-164
-144
-122
-125
-109
-69
-26
21
7
-87
-93
15
19
-28
182
782
1640
1981
931
-616
-892
-180
115
-10
2
32
1
40
76
69
98
143
146
133
151
174
168
185
260
311
264
149
36
-43
-95
-135
-175
-236
-303
-336
-346
-338
-274
-243
-362
-495
-495
-490
-535
-502
-432
-427
-409
-372
-406
-424
-369
-353
-342
-186
282
1337
2400
1870
-97
-1099
-482
18
-138
-131
33
28
40
106
110
155
246
257
254
349
434
400
336
338
363
349
320
338
383
371
306
250
189
125
118
122
56
-34
-69
-58
-70
-120
-142
-135
-155
-173
-167
-188
-232
-264
-286
-282
-294
-375
-401
-123
630
1495
1327
-255
-1573
-1267
-433
-325
-476
-380
-332
-370
-309
-238
-218
-169
-104
-59
-27
-35
-68
-35
64
107
49
9
90
198
179
84
64
82
19
-83
-154
-220
-264
-271
-291
-331
-355
-362
-352
-323
-285
-234
-184
-179
-206
-196
-156
-164
-184
-123
118
946
2353
2776
1145
-647
-633
112
155
-20
51
56
25
97
137
166
255
298
266
250
294
370
398
353
331
373
375
312
280
300
320
282
126
-71
-119
-59
-110
-270
-371
-381
-352
-319
-323
-366
-389
-371
-372
-447
-528
-502
-429
-437
-485
-516
-529
-438
-138
556
1521
1588
75
-1329
-1065
-267
-208
-338
-227
-214
-246
-154
-113
-124
-48
22
15
33
102
152
172
198
240
281
304
309
310
304
280
240
190
134
85
59
52
55
46
9
-48
-101
-131
-149
-166
-141
-69
-45
-85
-120
-151
-167
-159
-198
-191
101
755
1596
1851
736
-787
-1004
-292
-80
-325
-381
-283
-140
14
31
-26
-11
37
79
110
98
94
139
158
129
103
61
2
-38
-103
-204
-216
-170
-269
-438
-369
-157
-195
-385
-372
-295
-367
-330
-142
-152
-264
-195
-180
-338
-356
-240
-210
-215
-241
-293
-149
430
1507
2339
1576
-311
-1051
-312
172
13
-8
76
42
74
127
104
143
238
274
307
376
391
362
386
427
391
324
302
318
373
423
359
223
170
175
126
65
41
-26
-127
-148
-150
-253
-336
-296
-265
-262
-179
-116
-219
-382
-432
-383
-375
-425
-306
205
997
1389
557
-1006
-1589
-848
-236
-324
-398
-308
-345
-372
-300
-284
-265
-148
-50
-15
13
27
20
37
85
134
160
162
157
170
203
208
143
51
-20
-108
-215
-265
-264
-265
-246
-213
-209
-205
-196
-212
-190
-118
-90
-83
-71
-124
-148
-70
-52
-47
180
715
1633
2321
1492
-336
-963
-228
155
-53
-61
46
21
35
80
74
110
196
247
255
253
269
309
328
285
194
103
101
199
248
163
46
-21
-44
-50
-93
-178
-248
-295
-350
-401
-421
-408
-383
-383
-397
-392
-379
-386
-430
-505
-529
-484
-485
-503
-409
-116
797
2225
2392
476
-1165
-845
-131
-206
-299
-162
-176
-163
-48
-62
-105
-18
85
131
179
225
246
269
287
242
159
131
151
156
146
137
112
67
26
8
1
-16
-26
-31
-64
-113
-131
-144
-190
-232
-213
-156
-130
-165
-226
-232
-185
-205
-289
-256
-26
575
1642
2122
845
-946
-1170
-328
-31
-192
-171
-139
-193
-146
-73
-62
-18
56
81
92
149
224
264
267
261
261
254
219
159
100
43
-29
-116
-193
-249
-282
-298
-325
-369
-392
-391
-401
-388
-324
-300
-340
-328
-260
-258
-313
-320
-265
-219
-236
-249
-128
372
1464
2304
1469
-347
-917
-225
87
-104
-91
-7
-48
-53
-18
22
99
149
167
231
307
337
358
382
368
337
330
322
301
296
304
300
274
200
93
30
2
-69
-145
-167
-200
-262
-294
-321
-341
-273
-192
-214
-247
-239
-284
-320
-255
-246
-340
-275
214
1200
2009
1370
-396
-1209
-592
-117
-274
-327
-236
-274
-287
-229
-213
-193
-138
-96
-67
-39
-16
12
29
17
-4
-21
-40
-64
-89
-100
-87
-84
-116
-143
-157
-188
-205
-177
-165
-185
-181
-183
-239
-270
-226
-182
-182
-189
-191
-226
-286
-275
-206
-236
-263
2
564
1247
1574
796
-598
-974
-273
102
-50
-46
48
20
54
141
161
211
300
312
295
340
397
420
429
423
413
425
433
421
436
453
394
284
201
134
49
-18
-47
-70
-97
-123
-165
-197
-191
-189
-198
-170
-143
-164
-201
-243
-260
-216
-233
-295
-98
404
937
1101
403
-775
-1100
-446
-48
-186
-223
-146
-190
-201
-120
-92
-99
-41
50
100
116
142
177
194
191
189
190
171
138
118
97
45
-20
-68
-102
-140
-187
-234
-265
-280
-293
-306
-308
-308
-321
-326
-300
-274
-267
-270
-306
-326
-265
-256
-317
-200
162
782
1537
1436
44
-986
-561
32
-74
-178
-56
-60
-80
-1
30
31
83
129
145
165
183
186
191
206
216
214
200
180
171
181
184
145
72
7
-35
-72
-107
-133
-152
-170
-198
-232
-257
-282
-301
-272
-202
-149
-142
-176
-204
-183
-170
-200
-250
-213
511
2204
3137
1631
-526
-823
-113
-75
-286
-190
-162
-223
-166
-125
-123
-44
30
34
53
116
161
160
146
145
151
151
157
186
227
257
244
166
54
-43
-127
-208
-270
-317
-364
-398
-422
-445
-453
-435
-397
-352
-326
-331
-346
-370
-374
-322
-307
-359
-296
75
879
1697
1342
-254
-1176
-593
4
-138
-248
-112
-73
-77
-43
-28
10
70
112
176
234
247
273
330
370
410
448
441
427
462
476
391
253
134
12
-133
-236
-282
-331
-378
-381
-378
-398
-399
-384
-381
-347
-290
-286
-305
-290
-296
-294
-237
-264
-333
-159
331
1025
1444
778
-535
-896
-256
57
-105
-117
-53
-78
-50
-1
6
43
103
146
191
234
261
300
346
379
404
425
439
457
468
433
333
200
81
-4
-70
-132
-184
-214
-226
-241
-268
-285
-282
-296
-318
-288
-220
-181
-184
-219
-256
-232
-198
-247
-293
-149
448
1466
1837
706
-622
-606
-13
4
-161
-84
-55
-103
-73
-45
-42
-4
31
45
69
94
106
127
157
176
180
184
200
220
218
169
76
-35
-139
-223
-284
-324
-351
-372
-385
-394
-404
-413
-424
-434
-409
-347
-294
-269
-265
-288
-295
-255
-248
-280
-253
-5
816
1905
1808
262
-749
-340
93
-69
-131
-28
-54
-56
13
23
41
106
145
159
182
199
209
221
227
225
209
189
200
233
235
193
127
39
-58
-132
-177
-210
-240
-261
-266
-267
-280
-292
-306
-324
-298
-214
-158
-161
-179
-205
-207
-160
-155
-219
-197
171
1100
1978
1459
-215
-1004
-415
38
-127
-186
-78
-95
-121
-80
-45
8
66
81
129
236
267
208
211
292
340
358
409
464
467
412
308
168
28
-79
-154
-218
-276
-316
-339
-354
-365
-381
-400
-402
-375
-327
-290
-288
-297
-309
-333
-317
-279
-320
-330
-99
409
1038
1163
256
-768
-689
-79
14
-126
-59
-22
-66
-26
25
37
78
134
168
196
233
274
306
325
342
351
345
344
347
326
270
188
94
4
-68
-121
-158
-186
-216
-242
-256
-268
-281
-290
-299
-294
-253
-207
-197
-220
-265
-279
-226
-226
-311
-264
92
811
1492
1140
-196
-869
-348
63
-91
-141
-45
-77
-90
-24
5
33
93
131
153
180
204
226
253
277
295
305
316
336
348
317
235
123
19
-62
-128
-183
-225
-256
-274
-284
-297
-313
-317
-328
-347
-329
-275
-241
-240
-261
-297
-289
-244
-283
-353
-221
288
1126
1547
710
-555
-698
-94
18
-179
-121
-46
-95
-78
-38
-55
-36
47
113
137
154
174
178
182
220
263
265
247
245
239
195
121
37
-46
-116
-172
-213
-241
-254
-252
-251
-265
-283
-295
-314
-318
-271
-204
-169
-180
-215
-221
-182
-172
-209
-251
-72
906
2375
2462
645
-733
-395
119
-57
-162
-54
-87
-111
-40
-19
-7
50
90
119
160
192
216
247
273
283
283
279
284
294
277
209
103
-2
-80
-140
-200
-257
-295
-316
-332
-346
-362
-383
-398
-387
-353
-317
-286
-260
-261
-300
-328
-324
-343
-374
-315
14
734
1263
593
-815
-1212
-444
34
-106
-154
-68
-88
-96
-44
-6
46
109
150
201
263
302
317
339
379
418
439
446
442
417
365
282
165
28
-89
-160
-198
-227
-254
-273
-277
-279
-292
-291
-278
-296
-301
-233
-177
-209
-256
-250
-204
-172
-224
-274
-94
411
1053
1192
299
-800
-817
-156
40
-93
-23
38
-53
-53
74
177
205
185
194
276
342
327
310
328
347
391
450
453
437
441
345
165
83
39
-104
-196
-149
-150
-236
-270
-294
-360
-354
-289
-311
-379
-361
-276
-204
-217
-329
-376
-261
-207
-320
-331
24
816
1614
1382
73
-748
-415
-50
-173
-194
-46
-88
-208
-187
-92
-32
-16
-9
31
87
110
131
175
185
179
244
346
380
303
201
213
222
-46
-352
-238
38
-49
-325
-355
-224
-206
-257
-233
-210
-264
-288
-218
-152
-145
-163
-198
-208
-171
-181
-253
-212
243
1284
2135
1457
-273
-999
-424
-11
-106
-102
-25
-70
-90
-57
-38
12
92
149
183
206
229
260
275
279
304
308
266
263
303
269
151
48
-23
-97
-166
-211
-241
-275
-298
-284
-275
-321
-365
-356
-331
-306
-264
-230
-229
-258
-292
-277
-219
-207
-259
-218
260
1245
1747
728
-782
-985
-261
-19
-186
-159
-94
-129
-103
-44
-18
30
90
128
163
203
239
273
294
294
279
254
218
180
145
102
36
-39
-107
-161
-203
-235
-264
-288
-304
-315
-321
-334
-355
-354
-324
-297
-281
-261
-251
-264
-294
-301
-255
-237
-297
-244
107
776
1500
1413
134
-949
-658
14
20
-131
-41
-14
-48
17
73
88
145
205
229
270
334
375
394
422
450
453
443
445
443
403
302
174
73
-5
-86
-152
-181
-198
-225
-252
-267
-277
-283
-282
-287
-300
-287
-237
-201
-204
-221
-253
-269
-227
-208
-274
-283
0
827
1866
1792
255
-878
-505
54
-56
-160
-46
-53
-83
-18
20
46
111
159
191
239
276
289
305
332
358
373
375
370
347
283
178
61
-36
-110
-176
-234
-274
-292
-300
-308
-321
-333
-339
-342
-349
-360
-356
-315
-259
-233
-238
-262
-288
-279
-255
-289
-331
-148
534
1515
1683
421
-878
-809
-188
-134
-277
-203
-179
-213
-136
-55
-36
1
60
113
161
198
232
275
301
294
278
258
213
154
105
55
-11
-83
-152
-215
-260
-295
-334
-357
-354
-352
-365
-364
-345
-338
-337
-309
-264
-227
-204
-201
-210
-221
-243
-225
-175
-218
-238
37
550
1085
1276
568
-570
-786
-148
128
-29
-12
84
64
80
145
181
227
286
329
377
419
434
446
478
504
509
514
512
479
434
380
277
139
33
-44
-126
-191
-218
-232
-247
-259
-269
-273
-278
-293
-306
-314
-319
-293
-243
-228
-246
-270
-309
-303
-240
-265
-344
-215
271
1083
1602
860
-581
-956
-279
17
-168
-156
-67
-102
-83
-20
5
54
122
165
206
245
268
297
338
371
391
402
409
410
379
296
175
51
-52
-128
-188
-232
-261
-283
-304
-315
-315
-314
-320
-339
-359
-374
-395
-398
-347
-278
-252
-263
-286
-301
-276
-251
-289
-336
-170
581
1754
2003
591
-834
-739
-105
-90
-233
-143
-110
-136
-80
-33
-6
56
112
144
183
223
256
284
292
284
280
267
234
209
207
195
146
81
27
-18
-57
-82
-100
-124
-143
-145
-152
-174
-189
-191
-200
-209
-204
-190
-169
-140
-121
-134
-167
-184
-166
-154
-169
-164
20
643
1466
1405
106
-952
-691
-80
-38
-148
-86
-70
-83
-34
-9
8
70
126
166
211
247
278
315
337
344
356
353
323
291
257
189
80
-35
-134
-216
-278
-321
-357
-379
-377
-372
-379
-376
-360
-360
-370
-369
-364
-356
-328
-280
-241
-230
-233
-241
-256
-236
-188
-211
-228
-33
456
1186
1571
762
-614
-909
-235
46
-119
-100
-21
-55
-25
47
63
97
171
222
254
292
334
377
420
451
461
461
463
454
413
323
189
50
-56
-127
-181
-225
-251
-265
-277
-286
-291
-294
-292
-280
-275
-284
-290
-296
-305
-277
-213
-174
-178
-204
-236
-220
-174
-205
-249
-116
376
1325
1989
1190
-391
-816
-177
51
-149
-122
-51
-106
-86
-19
-3
34
93
133
173
217
249
281
315
343
361
369
371
363
329
256
148
33
-58
-120
-167
-202
-225
-243
-259
-269
-274
-280
-285
-290
-303
-321
-329
-342
-370
-358
-277
-213
-217
-248
-281
-285
-243
-258
-334
-241
281
1265
1970
1254
-363
-946
-316
40
-124
-122
-28
-61
-47
19
43
91
162
209
257
305
328
347
376
395
399
394
374
329
266
190
96
-3
-79
-138
-193
-227
-248
-285
-316
-314
-304
-307
-305
-304
-321
-343
-344
-335
-338
-330
-279
-220
-203
-218
-239
-252
-230
-203
-223
-211
42
685
1386
1195
-109
-1084
-731
-58
-2
-113
-42
-31
-58
8
70
100
158
224
274
329
384
436
490
533
559
578
583
571
532
445
320
188
61
-55
-142
-196
-228
-239
-254
-297
-333
-327
-308
-302
-295
-284
-284
-298
-308
-312
-327
-330
-270
-192
-183
-209
-222
-237
-215
-171
-217
-206
140
728
1151
887
-192
-1080
-802
-66
89
-71
-62
-11
19
85
94
71
117
183
220
267
325
363
380
396
436
491
518
512
491
436
322
173
27
-99
-202
-283
-342
-363
-350
-336
-336
-333
-325
-324
-319
-292
-269
-280
-297
-289
-285
-280
-224
-139
-86
