# session 20
135
193
-2
159
1248
2543
2503
846
-597
-395
431
554
348
379
410
352
369
395
380
389
406
406
418
439
455
479
511
541
575
622
675
731
787
842
893
933
954
945
888
762
578
378
188
14
-139
-251
-322
-359
-376
-378
-374
-367
-364
-363
-362
-363
-365
-367
-370
-373
-378
-382
-385
-389
-390
-389
-390
-391
-388
-383
-379
-376
-372
-366
-359
-352
-346
-339
-331
-325
-321
-314
-306
-298
-289
-279
-271
-265
-259
-255
-250
-243
-238
-234
-228
-222
-218
-212
-205
-202
-197
-187
-187
-195
-204
-217
-235
-257
-267
-238
-196
-177
-144
-102
-115
-101
-31
-85
-120
263
1014
1827
2139
1095
-672
-1137
-252
194
-44
-71
40
-6
-4
63
66
76
119
140
161
197
230
262
303
346
391
443
502
566
631
694
755
808
845
863
849
781
648
476
303
141
-9
-130
-209
-254
-277
-283
-278
-268
-261
-256
-252
-249
-248
-248
-250
-253
-254
-255
-256
-256
-254
-254
-254
-253
-251
-248
-243
-238
-233
-229
-224
-218
-213
-208
-203
-197
-192
-186
-180
-174
-169
-163
-158
-154
-148
-143
-140
-137
-132
-129
-125
-120
-116
-114
-112
-109
-108
-107
-104
-103
-101
-97
-99
-112
-126
-140
-159
-180
-195
-184
-154
-140
-113
-64
-68
-75
-8
-31
-107
166
838
1652
2182
1498
-296
-1192
-459
193
17
-95
28
5
-20
44
50
47
91
114
126
162
193
216
255
301
341
386
442
505
568
629
686
737
780
805
798
744
633
479
310
138
-21
-144
-231
-290
-322
-332
-331
-322
-308
-300
-298
-297
-299
-298
-294
-293
-301
-305
-301
-300
-300
-294
-291
-295
-294
-286
-285
-287
-279
-269
-264
-256
-244
-239
-236
-230
-223
-214
-205
-200
-196
-190
-182
-173
-166
-165
-168
-166
-160
-152
-147
-145
-143
-140
-137
-131
-124
-123
-124
-117
-111
-115
-119
-126
-138
-148
-173
-210
-197
-146
-118
-86
-52
-65
-40
13
-60
-1
558
1359
1866
1553
175
-1153
-1012
-85
176
-13
26
94
47
72
120
117
134
168
185
210
243
272
307
349
393
438
489
546
612
679
743
802
851
879
884
851
754
593
406
226
60
-90
-204
-276
-313
-326
-324
-316
-305
-294
-285
-278
-273
-269
-269
-270
-272
-275
-279
-282
-283
-285
-289
-290
-288
-286
-283
-276
-271
-269
-264
-258
-255
-253
-247
-241
-236
-230
-223
-217
-212
-207
-203
-199
-194
-187
-181
-178
-175
-171
-166
-160
-156
-153
-149
-145
-141
-139
-137
-132
-129
-128
-122
-122
-134
-145
-156
-179
-203
-209
-199
-175
-154
-134
-91
-67
-88
-51
2
-84
-50
429
1209
1998
2119
814
-839
-951
-55
180
-66
-31
44
-13
13
65
58
79
118
132
155
192
221
254
295
337
384
438
498
564
636
706
770
824
864
882
863
783
637
454
272
105
-50
-177
-262
-308
-326
-327
-319
-309
-298
-290
-282
-275
-271
-271
-268
-265
-265
-265
-263
-261
-260
-257
-251
-246
-249
-253
-247
-232
-226
-230
-229
-221
-217
-213
-200
-194
-199
-194
-178
-173
-175
-167
-159
-157
-152
-147
-148
-146
-136
-126
-123
-121
-121
-123
-120
-115
-111
-107
-102
-100
-97
-91
-85
-82
-82
-84
-83
-77
-73
-73
-74
-73
-73
-73
-74
-77
-75
-72
-79
-89
-97
-110
-126
-153
-192
-198
-151
-117
-103
-64
-55
-72
-6
13
-88
105
769
1469
1805
1308
-119
-1122
-664
111
124
-38
52
74
32
80
108
102
132
159
172
205
242
269
307
352
394
440
493
549
612
682
753
819
872
908
924
898
804
644
450
257
80
-78
-207
-293
-336
-352
-356
-350
-341
-332
-324
-318
-310
-299
-288
-288
-295
-302
-306
-309
-307
-303
-300
-300
-295
-281
-271
-275
-283
-283
-278
-270
-262
-255
-246
-240
-237
-236
-232
-223
-215
-211
-205
-196
-188
-181
-175
-173
-174
-172
-168
-163
-158
-152
-148
-145
-140
-135
-133
-130
-124
-122
-122
-116
-109
-109
-108
-101
-97
-97
-90
-82
-88
-102
-115
-136
-162
-183
-191
-172
-140
-117
-77
-46
-66
-42
20
-54
-52
406
1154
1812
1897
819
-671
-894
-85
209
-24
-22
67
19
30
84
81
94
129
143
165
206
240
274
316
356
402
460
524
592
672
753
824
887
941
972
963
888
736
538
337
144
-36
-181
-281
-344
-373
-376
-370
-367
-361
-349
-336
-327
-322
-314
-306
-308
-312
-308
-304
-307
-304
-297
-297
-299
-293
-287
-287
-285
-276
-270
-265
-257
-247
-241
-236
-227
-220
-219
-213
-201
-192
-187
-182
-176
-172
-167
-162
-157
-153
-147
-141
-139
-136
-129
-125
-125
-119
-112
-112
-112
-108
-106
-104
-101
-99
-95
-88
-89
-93
-84
-74
-85
-102
-103
-111
-145
-163
-140
-112
-118
-135
-102
-39
-46
-55
21
-10
-101
204
921
1662
2037
1341
-271
-1034
-347
227
44
-61
55
32
9
70
77
72
109
132
145
176
205
232
268
309
354
404
459
520
588
656
720
780
832
865
868
826
721
559
374
191
22
-122
-230
-298
-335
-352
-352
-343
-336
-331
-325
-318
-314
-312
-312
-312
-313
-314
-313
-308
-305
-305
-305
-302
-298
-295
-290
-286
-284
-279
-271
-262
-255
-248
-243
-237
-230
-223
-215
-206
-199
-193
-184
-178
-177
-174
-166
-159
-156
-152
-147
-143
-137
-130
-126
-125
-124
-121
-117
-112
-110
-108
-104
-99
-97
-101
-112
-127
-142
-154
-171
-187
-176
-150
-134
-94
-52
-67
-50
8
-56
-53
396
1197
1976
2061
772
-902
-1073
-124
214
-29
-20
73
21
32
85
77
88
124
138
160
194
219
247
287
325
364
410
461
517
580
643
696
741
776
792
779
720
600
434
264
111
-33
-156
-241
-287
-307
-312
-309
-302
-295
-290
-283
-277
-272
-268
-267
-268
-266
-263
-272
-281
-275
-262
-260
-264
-263
-260
-258
-254
-251
-247
-243
-239
-232
-225
-220
-215
-207
-203
-197
-183
-174
-178
-173
-158
-155
-159
-153
-148
-149
-145
-139
-138
-134
-127
-125
-124
-120
-117
-115
-109
-109
-117
-129
-138
-139
-148
-173
-178
-159
-133
-94
-74
-81
-45
-18
-76
6
481
1361
2317
2233
469
-1244
-1059
-51
126
-98
-32
25
-31
3
49
44
61
87
97
125
159
181
207
244
278
310
343
379
423
472
514
550
585
606
608
594
548
449
315
182
58
-58
-156
-228
-270
-281
-275
-269
-265
-258
-251
-247
-245
-244
-244
-243
-248
-255
-255
-254
-261
-269
-272
-274
-271
-265
-261
-260
-260
-259
-251
-242
-236
-228
-217
-210
-209
-208
-200
-192
-190
-187
-176
-169
-171
-170
-162
-158
-163
-181
-195
-204
-230
-253
-233
-197
-164
-123
-116
-113
-53
-69
-138
107
797
1729
2333
1542
-447
-1442
-652
118
4
-105
17
-3
-30
31
39
42
88
103
110
152
191
215
248
289
327
364
412
475
544
601
649
697
734
749
739
683
566
403
235
74
-73
-184
-250
-296
-327
-329
-318
-311
-301
-285
-275
-273
-273
-272
-268
-265
-269
-275
-276
-272
-266
-269
-279
-279
-267
-267
-276
-268
-252
-251
-252
-236
-224
-228
-224
-211
-207
-205
-196
-188
-182
-179
-193
-214
-220
-213
-187
-133
-79
-67
-105
-136
-133
-143
-140
-74
-86
-167
6
559
1439
2306
1931
-31
-1423
-851
43
1
-170
-57
-57
-105
-46
-20
-28
3
33
58
96
124
146
182
224
258
290
331
375
420
465
502
531
558
569
553
511
435
321
192
72
-38
-133
-208
-260
-279
-273
-271
-277
-269
-253
-248
-247
-242
-242
-242
-242
-249
-256
-253
-253
-258
-256
-252
-255
-258
-256
-248
-239
-241
-249
-244
-226
-211
-179
-122
-93
-123
-180
-212
-194
-166
-180
-171
-133
-179
-166
176
913
1935
2367
1045
-1008
-1408
-377
79
-157
-168
-74
-126
-108
-41
-43
-30
12
33
58
93
119
149
187
220
253
295
341
386
433
471
496
516
525
514
479
406
296
176
60
-48
-126
-175
-227
-262
-248
-219
-222
-233
-220
-207
-215
-220
-207
-196
-195
-198
-201
-204
-202
-202
-204
-205
-202
-201
-201
-194
-185
-182
-181
-184
-187
-171
-145
-142
-148
-140
-143
-157
-149
-137
-151
-165
-158
-132
-96
-71
-58
-55
-75
-90
-86
-92
-72
-39
-84
-71
240
954
1999
2454
1137
-888
-1277
-296
117
-114
-116
-34
-95
-74
-7
-22
-29
1
24
61
97
109
127
155
165
181
229
270
275
284
318
334
327
329
323
291
248
196
126
57
-1
-60
-108
-132
-147
-162
-165
-167
-179
-177
-162
-166
-186
-187
-180
-181
-188
-204
-218
-212
-205
-217
-222
-210
-208
-217
-215
-215
-219
-211
-198
-197
-202
-202
-203
-206
-206
-197
-180
-164
-150
-115
-73
-71
-112
-151
-156
-149
-160
-154
-118
-135
-162
-3
481
1433
2413
1979
-63
-1419
-851
-15
-55
-210
-111
-104
-135
-77
-49
-45
-11
14
34
71
104
132
169
208
246
292
342
384
420
459
502
535
554
562
552
511
437
334
209
81
-28
-114
-180
-229
-252
-253
-244
-237
-235
-232
-227
-224
-224
-224
-224
-229
-234
-231
-227
-229
-233
-235
-235
-235
-237
-236
-228
-221
-220
-215
-208
-202
-188
-177
-182
-182
-160
-145
-159
-164
-143
-133
-154
-169
-168
-170
-148
-89
-46
-31
-23
-58
-102
-82
-77
-109
-69
-55
-121
23
519
1384
2407
2300
396
-1229
-860
30
14
-191
-93
-76
-122
-69
-41
-44
-15
8
28
62
88
113
146
172
198
235
272
306
342
377
406
430
451
462
458
432
376
282
169
60
-36
-121
-188
-227
-244
-254
-259
-254
-241
-232
-232
-230
-226
-224
-225
-229
-236
-241
-240
-242
-243
-236
-230
-236
-244
-245
-242
-235
-229
-226
-221
-213
-203
-199
-200
-195
-191
-200
-208
-196
-170
-124
-75
-69
-101
-134
-159
-150
-137
-168
-155
-107
-180
-153
317
1088
1839
1930
597
-1155
-1322
-298
87
-144
-125
-27
-81
-61
10
13
25
69
96
120
156
193
233
275
318
366
425
499
574
639
701
766
818
845
847
801
684
512
325
142
-26
-166
-267
-334
-366
-372
-364
-352
-339
-326
-312
-301
-295
-294
-293
-293
-293
-294
-296
-297
-298
-298
-297
-294
-290
-285
-278
-269
-262
-257
-250
-244
-237
-227
-218
-212
-203
-193
-186
-181
-173
-165
-161
-156
-150
-146
-147
-150
-158
-171
-183
-188
-159
-84
-23
-29
-64
-94
-109
-89
-85
-114
-71
-51
-165
-77
456
1276
2164
2258
750
-924
-878
-25
56
-186
-109
-63
-121
-73
-23
-26
7
50
71
103
141
173
212
257
306
360
416
476
541
609
675
738
793
834
851
828
741
591
407
223
50
-104
-222
-297
-338
-355
-356
-351
-344
-333
-323
-317
-315
-312
-310
-311
-311
-312
-313
-310
-306
-306
-306
-299
-291
-287
-285
-279
-273
-266
-258
-251
-246
-242
-237
-229
-224
-220
-213
-205
-199
-194
-186
-178
-172
-168
-161
-153
-147
-143
-138
-134
-133
-129
-123
-129
-141
-148
-171
-212
-231
-214
-187
-155
-126
-111
-82
-67
-86
-45
-5
-98
-40
445
1193
2003
2190
896
-771
-872
-5
168
-92
-43
25
-37
-4
47
38
59
96
108
134
175
207
240
281
325
372
422
476
539
603
663
722
775
813
830
817
749
614
440
262
93
-63
-188
-272
-319
-340
-345
-342
-333
-322
-312
-306
-303
-301
-299
-298
-298
-296
-295
-295
-294
-293
-292
-288
-284
-281
-278
-273
-268
-263
-256
-250
-245
-237
-229
-226
-222
-216
-210
-204
-197
-192
-187
-182
-178
-174
-169
-164
-159
-154
-150
-146
-144
-141
-135
-127
-122
-120
-118
-120
-121
-115
-109
-118
-132
-140
-162
-195
-206
-195
-174
-146
-126
-100
-55
-53
-69
-8
-15
-110
115
750
1493
2041
1629
20
-1080
-551
182
82
-77
43
34
-20
45
84
81
104
121
132
153
174
213
275
320
352
402
458
501
550
627
711
769
809
846
864
829
731
594
437
261
88
-49
-153
-238
-289
-303
-307
-313
-310
-293
-276
-268
-263
-267
-280
-282
-271
-271
-280
-281
-281
-285
-284
-278
-273
-268
-263
-258
-251
-247
-240
-230
-225
-223
-210
-201
-215
-219
-190
-161
-162
-174
-169
-155
-159
-178
-176
-152
-143
-148
-143
-136
-142
-148
-144
-146
-158
-163
-145
-129
-138
-152
-150
-148
-162
-184
-196
-192
-194
-189
-138
-86
-101
-103
-60
-89
-89
163
719
1699
2594
1900
-220
-1243
-466
153
-65
-171
-58
-77
-92
-48
-38
-15
14
13
31
65
81
98
123
142
165
194
217
235
254
273
289
296
298
300
294
268
223
163
91
18
-48
-103
-141
-162
-178
-189
-193
-192
-192
-191
-192
-196
-199
-198
-194
-193
-197
-201
-193
-185
-189
-189
-174
-158
-155
-156
-155
-148
-133
-124
-123
-115
-102
-95
-94
-94
-95
-95
-87
-82
-84
-84
-78
-66
-52
-51
-64
-65
-60
-67
-65
-61
-89
-107
-77
-42
-16
8
7
27
65
30
129
740
1714
2266
1565
-211
-1432
-1000
-29
197
51
106
160
127
151
181
182
210
238
244
267
302
324
349
387
429
469
511
559
610
664
716
760
789
801
789
741
642
489
307
133
-13
-136
-233
-294
-321
-333
-340
-339
-336
-336
-335
-334
-342
-351
-354
-362
-377
-387
-392
-402
-413
-418
-422
-426
-428
-430
-431
-427
-428
-431
-428
-423
-422
-423
-422
-421
-418
-411
-409
-411
-410
-407
-405
-401
-398
-401
-405
-409
-424
-442
-462
-496
-505
-461
-425
-400
-349
-340
-345
-274
-287
-360
-41
712
1444
1689
854
-751
-1400
-606
39
-102
-189
-63
-72
-85
-12
15
31
84
122
151
200
247
292
347
406
466
533
604
679
760
846
929
1004
1066
1113
1133
1101
1000
846
678
521
382
270
200
173
172
185
207
