# session 17
-23
-130
208
-44
-1414
-2550
-2538
-2197
-2149
-2099
-1981
-1946
-1894
-1792
-1727
-1669
-1589
-1521
-1457
-1383
-1316
-1254
-1187
-1120
-1062
-1006
-953
-904
-851
-798
-749
-695
-639
-600
-569
-529
-503
-481
-412
-323
-284
-278
-257
-230
-208
-177
-144
-120
-97
-70
-49
-28
-8
5
24
46
51
56
97
142
144
126
131
146
145
156
198
226
215
214
227
209
187
219
256
243
224
235
255
276
294
296
303
310
278
248
254
235
228
272
225
194
486
964
1462
1919
1533
68
-836
-323
241
111
6
103
81
62
125
127
120
165
192
215
274
313
314
331
385
457
520
562
598
652
709
741
743
718
662
586
504
408
292
184
100
24
-42
-85
-114
-141
-165
-177
-171
-154
-142
-150
-167
-178
-185
-199
-213
-222
-234
-249
-252
-252
-270
-283
-274
-276
-291
-285
-276
-280
-270
-251
-257
-267
-261
-259
-259
-255
-258
-254
-231
-218
-226
-236
-242
-243
-232
-224
-228
-229
-228
-234
-226
-202
-194
-205
-206
-196
-190
-192
-192
-181
-171
-170
-167
-165
-175
-172
-145
-133
-145
-146
-137
-136
-137
-133
-133
-137
-133
-124
-117
-117
-118
-119
-117
-119
-126
-123
-104
-77
-41
-14
-25
-59
-71
-43
-43
-76
-41
-16
-104
4
466
976
1479
1683
770
-646
-872
-154
65
-140
-109
-41
-87
-49
24
32
53
96
120
152
201
249
297
351
408
473
545
621
692
746
782
799
785
728
633
512
380
252
131
21
-64
-120
-161
-187
-198
-199
-189
-175
-170
-166
-150
-138
-141
-147
-147
-146
-147
-153
-162
-161
-150
-149
-159
-160
-156
-158
-162
-159
-154
-152
-146
-140
-136
-131
-125
-123
-118
-110
-104
-105
-105
-103
-99
-95
-90
-86
-82
-78
-75
-71
-71
-72
-69
-63
-60
-60
-62
-61
-54
-50
-58
-63
-50
-39
-44
-48
-45
-46
-49
-46
-46
-48
-45
-43
-45
-47
-45
-43
-46
-48
-44
-40
-41
-45
-48
-50
-49
-44
-45
-51
-54
-53
-53
-53
-51
-54
-57
-55
-51
-51
-54
-57
-59
-58
-57
-61
-65
-65
-65
-73
-75
-56
-36
-29
-10
17
2
-48
-55
-41
-70
-57
-6
-77
-60
321
796
1224
1559
1032
-339
-939
-342
58
-120
-158
-59
-95
-97
-34
-30
-20
30
62
86
128
167
203
250
305
367
430
486
546
610
655
674
677
654
591
495
379
262
157
62
-29
-107
-163
-196
-213
-222
-222
-212
-202
-196
-190
-185
-184
-185
-185
-183
-183
-188
-197
-200
-196
-195
-202
-206
-204
-204
-204
-196
-189
-189
-189
-178
-167
-169
-173
-166
-156
-153
-146
-137
-136
-136
-126
-116
-115
-112
-106
-107
-113
-114
-109
-97
-87
-87
-92
-88
-77
-75
-78
-76
-68
-66
-70
-68
-61
-59
-58
-55
-59
-64
-61
-56
-55
-56
-53
-51
-50
-52
-52
-48
-50
-57
-52
-43
-45
-52
-50
-44
-45
-49
-49
-46
-47
-53
-53
-49
-53
-52
-24
15
38
41
15
-36
-44
-18
-42
-47
10
-43
-57
335
919
1383
1638
1057
-374
-1071
-458
61
-79
-146
-42
-64
-76
-16
0
9
50
80
105
145
188
235
287
340
401
468
538
609
673
721
748
749
719
646
531
395
261
134
17
-76
-146
-196
-225
-238
-243
-236
-219
-210
-209
-206
-198
-192
-190
-189
-192
-192
-189
-192
-198
-200
-202
-207
-207
-205
-205
-204
-201
-197
-190
-181
-176
-173
-171
-168
-163
-158
-151
-141
-132
-130
-127
-120
-118
-119
-112
-102
-100
-99
-91
-86
-94
-102
-89
-70
-67
-73
-73
-70
-70
-70
-67
-64
-64
-63
-61
-60
-60
-56
-50
-45
-45
-48
-49
-44
-38
-39
-39
-35
-35
-42
-46
-37
-27
-29
-35
-32
-29
-28
-25
-25
-30
-32
-32
-32
-33
-31
-28
-27
-29
-31
-30
-33
-33
-26
-18
-12
8
39
42
-6
-40
-21
-29
-57
-10
-12
-92
110
615
1080
1474
1395
276
-870
-717
-41
4
-170
-96
-61
-106
-66
-24
-22
4
38
64
101
138
175
220
267
318
381
448
512
575
634
676
696
691
648
563
448
325
204
87
-17
-101
-165
-208
-233
-246
-249
-244
-234
-224
-216
-209
-203
-198
-193
-189
-188
-191
-196
-198
-196
-197
-201
-198
-190
-186
-187
-190
-190
-184
-174
-167
-168
-168
-160
-151
-146
-141
-133
-126
-122
-118
-110
-104
-103
-101
-98
-99
-93
-82
-81
-81
-73
-70
-71
-67
-64
-64
-56
-52
-61
-61
-46
-39
-41
-37
-35
-40
-38
-30
-32
-34
-27
-20
-22
-24
-22
-26
-30
-23
-15
-20
-25
-21
-17
-19
-19
-18
-21
-22
-17
-16
-19
-19
-15
-16
-18
-18
-20
-23
-21
-19
-22
-26
-30
-36
-33
-8
31
54
56
36
-11
-41
-26
-32
-38
11
-25
-62
294
925
1399
1585
1053
-312
-1156
-656
-11
-48
-156
-67
-61
-78
-25
-6
0
37
61
80
123
166
200
243
299
360
426
495
567
635
689
728
740
719
659
554
413
269
141
18
-96
-184
-238
-271
-291
-298
-295
-287
-279
-272
-262
-250
-242
-240
-240
-240
-238
-234
-232
-236
-243
-246
-249
-257
-263
-261
-259
-261
-262
-259
-253
-247
-244
-241
-236
-231
-226
-220
-213
-205
-197
-193
-190
-185
-178
-171
-167
-165
-162
-159
-155
-152
-147
-141
-137
-134
-130
-127
-122
-117
-118
-120
-116
-120
-130
-120
-92
-66
-38
-11
-14
-49
-80
-68
-53
-78
-54
-8
-83
-37
403
994
1524
1696
795
-679
-1029
-277
71
-119
-120
-26
-62
-52
6
14
34
79
106
134
175
212
258
319
382
449
526
608
690
767
827
865
873
836
742
604
446
291
148
21
-80
-151
-197
-223
-232
-234
-234
-228
-216
-202
-191
-183
-173
-161
-156
-156
-156
-152
-149
-149
-152
-151
-148
-148
-149
-146
-144
-146
-146
-142
-138
-137
-132
-127
-125
-123
-117
-112
-109
-105
-98
-92
-87
-83
-82
-80
-76
-74
-74
-71
-69
-67
-65
-63
-62
-61
-62
-61
-57
-57
-59
-56
-51
-52
-53
-51
-49
-46
-43
-42
-44
-45
-41
-39
-43
-46
-45
-45
-46
-48
-50
-50
-51
-54
-56
-58
-61
-61
-60
-61
-64
-62
-55
-52
-60
-70
-67
-59
-57
-61
-62
-63
-67
-68
-64
-69
-82
-80
-62
-52
-53
-53
-52
-52
-54
-56
-53
-60
-103
-129
-76
-4
6
-2
16
12
-40
-62
-31
-44
-86
-35
-14
-100
55
538
1033
1510
1555
459
-839
-808
-85
16
-185
-126
-80
-129
-84
-24
-29
-12
35
56
66
110
177
225
262
317
373
424
506
605
667
697
747
795
780
700
599
495
379
251
123
14
-73
-145
-193
-208
-202
-190
-190
-205
-201
-158
-126
-137
-153
-153
-152
-154
-149
-148
-160
-172
-172
-171
-177
-184
-188
-186
-179
-188
-211
-205
-173
-163
-177
-182
-178
-175
-170
-172
-183
-175
-147
-137
-146
-141
-131
-141
-149
-133
-121
-137
-144
-116
-92
-103
-118
-114
-106
-104
-102
-103
-104
-97
-91
-95
-98
-98
-102
-96
-81
-76
-79
-82
-90
-94
-85
-80
-79
-66
-59
-71
-76
-64
-63
-70
-61
-47
-54
-71
-68
-48
-35
-41
-60
-67
-45
-30
-41
-44
-34
-40
-47
-36
-31
-43
-54
-57
-39
-8
5
10
41
59
12
-34
-8
1
-37
3
33
-67
56
561
1059
1477
1595
665
-695
-856
-126
81
-127
-100
-34
-79
-59
-5
13
37
59
72
104
141
175
226
277
321
374
426
474
553
647
705
726
737
729
673
562
425
307
203
77
-48
-133
-185
-227
-256
-265
-259
-255
-254
-243
-222
-211
-206
-197
-189
-187
-183
-182
-190
-190
-175
-171
-186
-190
-188
-189
-180
-174
-185
-176
-146
-140
-149
-146
-144
-140
-122
-110
-111
-111
-104
-100
-107
-115
-106
-86
-82
-91
-95
-96
-94
-87
-84
-86
-81
-76
-80
-82
-77
-76
-75
-62
-52
-54
-59
-59
-56
-57
-59
-58
-50
-41
-34
-36
-44
-42
-31
-31
-39
-31
-19
-24
-28
-19
-8
-10
-19
-25
-22
-24
-32
-26
-7
-2
-17
-33
-36
-33
-39
-46
-44
-44
-45
-39
-44
-62
-64
-59
-66
-61
-34
-21
-18
0
1
-44
-70
-48
-50
-63
-21
-45
-111
93
555
1067
1581
1467
205
-956
-740
-67
-35
-188
-110
-86
-126
-86
-53
-59
-36
3
32
64
99
133
171
217
267
319
382
458
522
567
615
668
692
665
605
525
419
298
176
58
-44
-120
-171
-203
-224
-239
-241
-234
-233
-236
-216
-179
-166
-188
-204
-189
-178
-192
-198
-182
-175
-187
-199
-207
-212
-213
-215
-222
-224
-211
-200
-209
-227
-226
-204
-185
-184
-192
-189
-175
-170
-183
-184
-162
-149
-168
-195
-188
-159
-157
-177
-171
-129
-86
-63
-61
-92
-129
-124
-115
-137
-112
-89
-157
-26
545
1272
1772
1539
192
-1201
-1169
-318
-53
-200
-144
-84
-141
-116
-44
-28
-24
3
38
71
100
141
206
266
318
391
482
573
670
761
822
860
877
835
713
545
361
184
30
-102
-213
-284
-317
-330
-331
-325
-325
-334
-336
-321
-296
-279
-275
-277
-275
-268
-254
-238
-232
-237
-244
-242
-231
-224
-224
-233
-248
-245
-217
-203
-219
-225
-211
-206
-209
-206
-214
-232
-239
-224
-190
-134
-84
-81
-124
-162
-146
-118
-143
-132
-70
-148
-178
250
923
1512
1822
1119
-483
-1191
-492
42
-126
-194
-86
-115
-132
-76
-55
-25
38
71
86
112
143
190
255
315
375
469
580
662
725
802
862
866
835
761
614
432
271
126
-10
-120
-199
-242
-259
-273
-264
-224
-214
-236
-223
-191
-190
-190
-170
-162
-169
-178
-185
-179
-155
-143
-148
-149
-146
-153
-167
-166
-145
-134
-143
-142
-129
-133
-132
-105
-96
-111
-108
-85
-71
-66
-67
-80
-86
-70
-54
-55
-53
-40
-38
-48
-55
-49
-29
-22
-46
-57
-28
-10
-32
-46
-28
-12
-15
-28
-39
-33
-23
-25
-26
-19
-22
-36
-44
-39
-28
-23
-35
-48
-38
-25
-31
-37
-32
-39
-60
-62
-45
-39
-47
-51
-48
-45
-48
-55
-57
-49
-49
-60
-57
-47
-59
-72
-56
-45
-68
-83
-74
-78
-88
-75
-54
-34
1
27
6
-38
-48
-47
-84
-73
-8
-64
-69
294
788
1240
1640
1218
-180
-926
-372
73
-137
-224
-107
-130
-145
-81
-78
-81
-30
-3
11
73
134
153
174
223
281
334
371
418
506
590
611
609
625
615
556
486
405
287
165
81
4
-84
-145
-172
-200
-226
-225
-210
-205
-208
-198
-180
-184
-202
-201
-191
-203
-219
-212
-201
-202
-209
-224
-231
-207
-179
-176
-183
-190
-204
-206
-182
-155
-141
-137
-138
-131
-120
-125
-136
-138
-128
-102
-71
-74
-101
-98
-75
-82
-98
-79
-57
-61
-64
-62
-65
-51
-32
-35
-32
-14
-11
-23
-32
-37
-27
-8
-9
-24
-38
-48
-31
10
35
27
0
-25
-27
-14
-22
-43
-33
-3
6
-5
-17
-35
-39
-13
2
-18
-37
-32
-20
-11
-5
-11
-32
-38
-10
7
-20
-37
-15
1
-10
-29
-40
-32
-18
-24
-35
-17
15
44
53
8
-42
-28
-20
-49
-15
-6
-84
68
527
1008
1499
1588
541
-769
-791
-75
35
-194
-141
-54
-89
-81
-50
-39
-4
13
4
42
108
127
129
173
230
263
300
357
402
432
484
546
561
525
473
413
334
237
136
54
-8
-77
-146
-181
-196
-226
-238
-202
-168
-168
-172
-171
-173
-166
-154
-159
-177
-189
-189
-176
-160
-165
-182
-186
-186
-198
-195
-175
-169
-169
-158
-156
-163
-157
-150
-154
-137
-117
-143
-174
-146
-103
-104
-111
-101
-102
-105
-89
-77
-89
-90
-69
-57
-66
-69
-59
-56
-59
-53
-37
-30
-38
-43
-39
-40
-45
-40
-31
-25
-17
-19
-28
-18
-13
-39
-62
-53
-32
-23
-26
-19
-3
-12
-40
-40
-25
-36
-55
-48
-23
-15
-37
-56
-44
-29
-40
-57
-63
-62
-42
-11
-11
-30
-11
22
-5
-61
-62
-45
-73
-67
-22
-68
-54
275
809
1413
1774
1073
-426
-1010
-350
111
-45
-115
-40
-56
-46
-9
-34
-28
28
53
67
97
112
125
162
191
215
266
314
337
369
412
418
406
412
411
366
288
206
129
57
-15
-86
-139
-165
-179
-195
-193
-172
-164
-172
-170
-161
-156
-144
-133
-144
-164
-172
-163
-143
-140
-162
-169
-147
-139
-151
-151
-145
-147
-140
-124
-118
-118
-109
-95
-90
-87
-69
-59
-67
-60
-44
-58
-68
-30
4
-1
-9
-8
-18
-21
-4
-6
-36
-38
-7
9
19
53
66
23
-17
-12
-7
-40
-54
-27
-38
-36
193
764
1563
1934
1010
-647
-1248
-553
-19
-107
-159
-78
-89
-85
-44
-58
-58
-9
10
4
23
59
88
114
146
186
226
262
308
353
378
393
409
406
363
283
189
93
1
-77
-134
-184
-239
-278
-293
-309
-328
-321
-296
-283
-278
-269
-272
-290
-303
-291
-269
-269
-292
-299
-283
-286
-315
-326
-311
-308
-317
-316
-306
-307
-320
-324
-305
-285
-283
-274
-254
-258
-285
-288
-269
-265
-263
-238
-210
-184
-149
-150
-205
-238
-216
-195
-188
-167
-157
-160
-79
241
945
1733
1606
208
-1069
-986
-293
-84
-165
-120
-83
-105
-65
-6
21
39
41
49
113
184
210
233
277
307
326
371
426
468
510
549
553
532
523
512
468
402
333
265
211
182
161
134
119
122
126
127
136
159
173
168
174
202
213
203
210
221
209
191
189
194
201
198
186
186
199
194
167
144
135
140
156
167
166
169
170
151
125
96
66
47
23
1
16
-1
-45
146
725
1490
1916
1218
-499
-1585
-1124
-345
-263
-379
-319
-327
-382
-355
-342
-370
-368
-356
-367
-375
-362
-347
-334
-317
-284
-235
-185
-148
-116
-88
-83
-99
-124
-186
-315
-487
