# session 27
29
-8
66
104
-133
-419
-422
-398
-457
-147
617
1452
1818
1008
-516
-1022
-323
72
-138
-183
-86
-120
-121
-60
-50
-36
5
23
41
76
104
131
170
211
250
298
357
419
486
564
647
719
776
828
859
826
697
489
252
26
-168
-315
-409
-459
-481
-483
-475
-463
-448
-434
-422
-411
-401
-391
-382
-374
-372
-370
-368
-367
-367
-361
-349
-339
-337
-335
-327
-319
-315
-307
-294
-285
-279
-271
-264
-260
-259
-264
-277
-285
-276
-228
-151
-107
-122
-151
-168
-167
-139
-139
-167
-129
-109
-196
-105
443
1388
2274
2052
424
-856
-512
194
134
-51
39
47
-2
46
75
70
103
133
145
172
204
231
265
302
342
387
436
489
550
616
683
750
811
860
888
868
764
571
338
111
-87
-241
-340
-395
-424
-429
-419
-413
-409
-397
-385
-377
-371
-366
-361
-359
-361
-360
-353
-349
-349
-347
-344
-339
-331
-327
-326
-318
-307
-300
-295
-285
-275
-268
-261
-254
-247
-237
-225
-215
-214
-221
-223
-224
-237
-248
-235
-193
-125
-73
-79
-112
-132
-142
-130
-118
-133
-105
-74
-155
-131
301
1151
2167
2415
1057
-619
-714
97
231
-30
2
57
2
30
71
64
88
123
137
160
190
215
244
277
308
342
382
423
468
517
568
615
660
700
732
743
705
595
423
232
55
-92
-208
-284
-322
-336
-344
-345
-340
-334
-330
-326
-323
-324
-327
-329
-331
-333
-335
-335
-333
-333
-335
-333
-328
-324
-320
-313
-306
-301
-296
-288
-281
-276
-269
-260
-253
-248
-242
-233
-226
-221
-215
-208
-202
-197
-190
-183
-175
-172
-168
-158
-153
-159
-166
-172
-187
-212
-232
-229
-196
-162
-147
-117
-89
-104
-80
-26
-87
-97
269
1050
2066
2499
1312
-523
-854
28
326
51
46
127
67
77
127
120
133
166
173
191
221
239
259
290
318
344
378
414
449
485
524
562
597
628
653
668
656
590
462
294
126
-18
-137
-226
-280
-306
-318
-324
-323
-318
-314
-314
-316
-317
-319
-323
-327
-328
-328
-329
-329
-328
-328
-326
-321
-316
-312
-306
-299
-292
-285
-278
-274
-267
-260
-255
-248
-240
-233
-227
-219
-214
-209
-203
-195
-191
-187
-180
-174
-169
-164
-157
-154
-150
-144
-146
-156
-163
-170
-189
-215
-232
-216
-177
-154
-133
-94
-92
-98
-40
-41
-121
34
601
1544
2461
2135
303
-960
-428
312
180
1
112
103
55
110
126
115
148
169
175
201
227
246
274
303
329
360
394
427
463
499
537
576
609
635
653
654
616
517
363
190
32
-100
-204
-272
-307
-324
-331
-328
-321
-315
-312
-311
-313
-316
-318
-319
-320
-323
-324
-323
-322
-321
-319
-317
-315
-311
-305
-300
-295
-287
-281
-275
-270
-263
-257
-251
-245
-237
-230
-225
-220
-213
-205
-199
-194
-187
-178
-174
-171
-165
-159
-155
-150
-143
-139
-138
-132
-130
-137
-149
-162
-179
-203
-219
-207
-172
-150
-130
-91
-85
-92
-37
-30
-111
24
576
1511
2446
2200
416
-921
-464
307
214
19
119
116
63
118
139
122
151
178
185
207
232
253
280
306
328
357
390
424
461
498
532
566
599
624
638
638
607
519
373
204
48
-86
-191
-260
-297
-314
-320
-319
-317
-316
-312
-307
-306
-310
-314
-316
-320
-324
-324
-323
-324
-325
-325
-322
-317
-312
-310
-306
-298
-291
-285
-276
-270
-266
-260
-251
-247
-241
-230
-222
-216
-209
-202
-195
-189
-183
-177
-170
-163
-156
-151
-149
-145
-140
-136
-133
-129
-129
-135
-144
-156
-172
-196
-218
-208
-173
-153
-133
-95
-94
-99
-42
-48
-121
58
656
1624
2481
2001
113
-1022
-386
324
166
9
119
98
58
117
127
117
151
170
175
202
229
247
272
300
325
353
386
420
454
488
522
554
582
601
613
610
572
478
333
172
23
-102
-198
-260
-293
-306
-308
-302
-293
-286
-283
-283
-282
-284
-288
-290
-292
-297
-303
-305
-305
-305
-302
-297
-293
-291
-290
-289
-284
-278
-273
-269
-262
-255
-248
-241
-235
-228
-219
-210
-204
-200
-192
-182
-174
-170
-168
-164
-161
-158
-154
-148
-145
-144
-141
-138
-140
-146
-153
-166
-185
-208
-230
-222
-183
-159
-143
-107
-98
-102
-50
-50
-120
64
705
1660
2339
1690
-140
-1114
-417
301
172
30
136
121
83
136
147
139
171
190
197
223
252
274
298
326
357
387
418
455
497
535
572
612
647
672
687
684
638
527
360
181
22
-113
-218
-286
-319
-331
-332
-330
-326
-318
-309
-303
-302
-302
-303
-306
-309
-309
-311
-314
-313
-315
-318
-314
-309
-307
-306
-303
-298
-291
-285
-281
-277
-271
-265
-259
-251
-243
-237
-229
-222
-217
-212
-206
-198
-190
-185
-179
-172
-165
-160
-153
-150
-149
-142
-136
-141
-153
-163
-179
-203
-225
-219
-185
-159
-145
-108
-89
-103
-63
-27
-103
-49
436
1331
2245
2166
574
-920
-691
192
271
39
103
140
80
116
152
140
160
189
198
219
245
267
294
321
346
376
411
445
483
525
565
602
637
665
684
690
662
569
410
225
54
-90
-206
-287
-329
-346
-350
-344
-337
-333
-325
-312
-306
-307
-305
-306
-310
-313
-314
-316
-319
-320
-318
-317
-317
-312
-305
-300
-296
-290
-285
-280
-275
-268
-259
-251
-248
-244
-236
-226
-218
-212
-204
-196
-191
-189
-185
-178
-172
-167
-163
-159
-154
-149
-147
-142
-139
-144
-154
-162
-175
-198
-219
-215
-182
-155
-140
-104
-84
-100
-67
-23
-91
-68
353
1215
2233
2390
896
-807
-793
132
300
40
82
139
76
104
144
127
146
180
188
204
232
255
281
309
333
360
393
426
461
501
538
572
604
630
647
652
628
551
414
244
76
-70
-188
-268
-310
-329
-339
-338
-331
-325
-318
-310
-307
-309
-309
-309
-308
-307
-310
-314
-316
-316
-315
-312
-308
-304
-299
-294
-290
-282
-274
-268
-261
-255
-254
-248
-237
-230
-226
-218
-211
-206
-198
-191
-186
-182
-177
-170
-163
-159
-156
-153
-149
-145
-143
-142
-135
-128
-132
-146
-160
-174
-190
-210
-216
-187
-156
-140
-108
-84
-94
-61
-24
-90
-50
378
1244
2283
2429
875
-844
-784
150
293
37
90
139
72
104
144
128
147
178
187
205
228
247
274
301
322
350
386
415
443
478
512
542
569
587
598
604
585
514
386
228
71
-67
-180
-260
-306
-324
-327
-325
-325
-320
-310
-306
-307
-305
-304
-308
-310
-310
-314
-317
-316
-314
-312
-310
-307
-302
-295
-290
-284
-274
-265
-260
-255
-246
-238
-233
-228
-225
-220
-209
-202
-200
-195
-189
-187
-184
-176
-173
-172
-167
-162
-157
-151
-147
-146
-140
-134
-137
-145
-153
-164
-179
-198
-217
-206
-165
-140
-122
-88
-89
-90
-33
-51
-113
105
745
1744
2537
1873
-93
-1070
-305
355
152
24
138
104
70
130
138
133
166
181
191
222
245
262
287
314
338
367
399
429
459
492
524
551
573
590
598
589
546
449
302
143
-2
-126
-224
-286
-317
-329
-332
-329
-321
-314
-308
-304
-302
-302
-302
-306
-308
-306
-305
-309
-310
-307
-304
-301
-298
-294
-288
-283
-280
-273
-263
-257
-255
-251
-244
-237
-230
-224
-219
-214
-208
-204
-199
-192
-184
-181
-179
-174
-167
-161
-156
-152
-149
-146
-142
-138
-141
-146
-154
-171
-195
-215
-217
-192
-162
-142
-110
-87
-99
-71
-32
-92
-66
324
1137
2180
2484
1077
-749
-879
78
320
49
73
141
71
89
136
121
132
163
173
191
218
233
258
292
315
338
375
410
439
471
505
539
573
598
611
618
603
537
409
248
88
-54
-172
-256
-304
-330
-338
-330
-318
-313
-309
-301
-295
-296
-299
-301
-301
-302
-306
-306
-306
-311
-314
-308
-302
-301
-297
-291
-288
-282
-276
-273
-267
-258
-254
-251
-244
-236
-230
-221
-214
-210
-206
-200
-194
-190
-186
-180
-172
-165
-160
-154
-152
-152
-146
-142
-148
-157
-166
-178
-202
-228
-222
-181
-156
-144
-109
-98
-103
-51
-44
-120
42
670
1639
2381
1811
-46
-1145
-493
292
199
38
140
133
93
148
163
153
186
208
215
240
268
292
320
346
369
400
440
482
521
562
606
648
682
710
730
726
677
564
392
200
23
-125
-236
-306
-346
-365
-369
-366
-354
-340
-331
-325
-319
-317
-317
-314
-315
-322
-328
-330
-331
-336
-340
-339
-335
-335
-340
-340
-331
-322
-321
-320
-316
-312
-301
-288
-282
-280
-270
-258
-253
-247
-234
-223
-217
-208
-197
-191
-186
-177
-169
-165
-160
-150
-145
-148
-154
-165
-192
-216
-218
-204
-179
-151
-134
-109
-86
-101
-79
-21
-78
-106
241
1018
2044
2523
1389
-470
-862
27
355
70
54
144
83
91
145
132
139
175
187
205
238
257
275
302
333
366
396
427
470
518
556
591
630
665
691
708
698
625
480
298
119
-40
-169
-264
-325
-352
-358
-356
-345
-331
-324
-320
-312
-306
-303
-305
-310
-310
-309
-315
-318
-312
-309
-315
-318
-311
-309
-312
-307
-294
-286
-286
-284
-278
-270
-262
-258
-254
-245
-236
-231
-223
-215
-213
-206
-191
-188
-193
-181
-161
-155
-157
-154
-147
-141
-136
-132
-134
-139
-146
-163
-188
-207
-208
-187
-153
-135
-120
-96
-98
-94
-37
-56
-126
64
646
1586
2458
1997
65
-1101
-416
344
178
14
136
112
64
129
141
128
167
188
188
212
240
256
273
301
335
365
385
414
454
491
523
550
573
595
612
606
565
479
343
181
23
-108
-201
-264
-310
-333
-333
-328
-321
-311
-303
-298
-294
-290
-286
-282
-283
-287
-287
-288
-291
-291
-286
-283
-285
-285
-277
-267
-261
-257
-251
-247
-244
-235
-225
-221
-220
-211
-201
-198
-195
-189
-183
-179
-178
-177
-166
-158
-159
-156
-148
-147
-144
-140
-138
-132
-126
-130
-137
-136
-137
-146
-160
-178
-193
-185
-153
-128
-114
-86
-75
-90
-56
-26
-81
-22
386
1219
2278
2438
825
-935
-833
150
298
38
92
139
70
99
137
123
141
165
166
187
218
237
257
280
301
325
352
380
408
436
466
495
519
538
553
555
534
480
376
225
69
-57
-154
-235
-293
-322
-327
-324
-320
-310
-296
-289
-286
-280
-279
-278
-274
-274
-283
-286
-282
-279
-278
-276
-274
-277
-276
-267
-259
-261
-262
-256
-246
-236
-224
-219
-225
-228
-217
-210
-211
-207
-200
-197
-193
-186
-188
-189
-181
-173
-172
-166
-159
-165
-162
-145
-143
-161
-173
-180
-196
-219
-241
-238
-199
-162
-145
-121
-113
-117
-66
-59
-138
-14
504
1399
2381
2277
500
-1022
-646
246
230
11
110
124
63
114
141
124
153
185
193
210
232
255
283
307
332
364
399
431
464
505
551
588
619
654
680
680
651
564
407
223
55
-92
-216
-298
-340
-360
-368
-366
-359
-348
-338
-329
-324
-317
-308
-302
-308
-313
-308
-304
-311
-313
-305
-302
-302
-294
-288
-290
-285
-273
-271
-271
-262
-253
-252
-252
-246
-234
-226
-226
-221
-208
-205
-209
-205
-198
-192
-179
-173
-176
-170
-161
-159
-155
-152
-157
-164
-175
-190
-198
-205
-211
-186
-151
-138
-111
-83
-99
-78
-30
-91
-84
270
1004
2052
2578
1367
-577
-909
49
351
49
56
146
71
78
132
119
135
175
176
183
210
230
249
274
296
321
352
386
421
455
486
519
555
582
600
615
609
552
431
271
110
-36
-166
-261
-307
-328
-349
-357
-345
-335
-331
-321
-308
-305
-305
-300
-298
-301
-297
-292
-293
-296
-292
-287
-290
-289
-281
-274
-269
-260
-257
-258
-247
-232
-230
-232
-225
-218
-214
-208
-200
-193
-186
-181
-178
-174
-167
-163
-162
-156
-147
-144
-146
-139
-130
-128
-132
-137
-138
-138
-149
-166
-175
-183
-182
-154
-120
-100
-83
-87
-90
-36
-23
-98
-3
439
1264
2303
2393
716
-946
-711
222
270
26
107
127
59
108
138
113
136
163
166
191
221
230
245
272
295
316
339
364
394
424
444
463
486
502
509
511
498
442
336
199
60
-66
-169
-243
-288
-311
-320
-318
-313
-302
-287
-277
-274
-271
-268
-265
-262
-261
-266
-270
-268
-268
-271
-272
-269
-267
-264
-264
-262
-254
-243
-240
-239
-233
-230
-232
-225
-210
-205
-206
-202
-197
-193
-186
-180
-179
-177
-170
-165
-163
-158
-148
-144
-145
-143
-139
-134
-132
-135
-141
-146
-158
-179
-199
-204
-185
-149
-128
-118
-91
-82
-92
-46
-26
-100
-7
463
1304
2292
2324
659
-964
-711
230
284
33
113
145
81
125
154
132
156
186
191
213
240
256
281
310
333
360
393
430
470
511
555
600
641
676
705
719
699
620
475
289
102
-62
-193
-287
-347
-378
-389
-386
-378
-368
-359
-352
-345
-334
-328
-327
-327
-328
-327
-324
-324
-330
-331
-324
-321
-324
-324
-317
-311
-308
-303
-297
-292
-283
-277
-276
-270
-259
-252
-248
-243
-239
-233
-226
-223
-218
-209
-202
-199
-198
-199
-191
-179
-174
-174
-171
-174
-179
-180
-190
-213
-235
-250
-241
-199
-166
-156
-129
-114
-132
-88
-41
-115
-77
350
1180
2222
2481
998
-814
-853
110
296
21
63
123
55
82
127
114
131
159
168
192
223
238
259
292
326
359
394
432
474
520
568
617
666
710
747
774
761
672
512
321
131
-45
-190
-292
-351
-380
-390
-388
-380
-366
-351
-337
-324
-314
-308
-301
-289
-282
-282
-280
-275
-272
-271
-267
-263
-260
-256
-246
-234
-231
-229
-217
-203
-199
-198
-188
-173
-164
-157
-149
-145
-143
-133
-119
-113
-112
-109
-102
-93
-88
-85
-78
-73
-74
-72
-64
-64
-76
-87
-98
-119
-149
-164
-143
-101
-83
-74
-43
-43
-66
-12
11
-80
21
539
1434
2402
2320
604
-907
-585
260
240
9
87
105
49
83
111
94
