# session 8
-49
-39
-47
-74
-58
4
21
16
80
161
180
195
260
323
332
291
254
272
328
348
309
266
237
180
92
18
-21
-32
-44
-93
-163
-212
-238
-246
-244
-263
-293
-298
-294
-283
-238
-190
-220
-308
-299
-184
-197
-300
-165
285
995
1605
1168
-205
-850
-335
31
-117
-130
-33
-84
-108
-30
42
97
120
118
158
212
219
236
296
309
256
246
291
302
276
257
210
126
76
65
13
-73
-115
-117
-133
-154
-178
-234
-270
-233
-219
-265
-252
-175
-153
-186
-219
-225
-181
-197
-315
-286
24
652
1548
1748
504
-761
-625
-76
-150
-276
-133
-86
-125
-108
-92
-42
48
92
126
198
237
218
217
260
290
269
219
208
256
280
218
130
67
-1
-83
-156
-217
-255
-276
-306
-323
-314
-331
-370
-376
-368
-346
-277
-229
-267
-333
-337
-285
-288
-362
-323
-27
634
1515
1599
295
-912
-700
-101
-140
-257
-135
-141
-205
-124
-54
-48
13
99
135
172
241
275
263
258
268
277
279
247
187
166
175
121
17
-31
-52
-142
-235
-235
-217
-249
-274
-264
-263
-282
-299
-296
-260
-197
-152
-166
-215
-223
-183
-189
-239
-241
-101
490
1518
1757
410
-944
-782
-112
-87
-207
-109
-113
-152
-55
3
-18
18
104
163
199
240
288
325
343
353
365
383
411
438
431
375
279
152
8
-91
-131
-175
-241
-289
-292
-260
-254
-314
-355
-335
-314
-262
-183
-194
-249
-239
-239
-254
-203
-217
-301
-162
313
989
1382
725
-586
-988
-332
58
-95
-133
-35
-72
-129
-75
13
59
95
160
219
250
286
341
394
440
479
514
557
576
519
414
325
223
65
-75
-135
-162
-212
-263
-287
-295
-294
-282
-296
-348
-374
-342
-300
-262
-225
-232
-291
-310
-258
-259
-324
-288
-26
625
1458
1346
-46
-1000
-542
3
-137
-230
-97
-110
-149
-87
-52
-19
44
65
68
108
157
199
239
267
282
293
300
299
297
281
207
83
-19
-90
-178
-241
-242
-262
-314
-307
-276
-328
-398
-377
-331
-336
-333
-289
-247
-219
-231
-285
-268
-194
-240
-346
-171
548
1573
1788
508
-858
-782
-108
-52
-193
-97
-83
-151
-85
7
26
44
89
136
188
251
304
341
380
407
406
402
410
408
373
304
211
98
-32
-128
-158
-185
-253
-302
-287
-258
-282
-320
-310
-309
-358
-339
-241
-209
-215
-183
-219
-293
-231
-166
-261
-294
106
1066
1866
1261
-355
-988
-336
66
-120
-157
-54
-71
-68
-19
-8
26
108
175
203
227
288
365
404
410
415
421
433
449
432
351
227
126
51
-67
-209
-266
-248
-257
-295
-304
-291
-303
-343
-365
-350
-331
-303
-250
-216
-227
-261
-292
-270
-227
-262
-324
-207
372
1353
1645
390
-1044
-970
-180
-46
-226
-148
-63
-98
-94
-50
-17
19
79
142
184
237
294
313
354
438
446
392
420
490
461
335
179
32
-56
-109
-205
-281
-282
-315
-389
-378
-326
-341
-358
-333
-340
-349
-305
-267
-240
-202
-232
-314
-290
-209
-256
-312
-79
559
1325
1330
90
-1094
-871
-105
-20
-190
-81
-25
-108
-69
36
52
49
109
202
271
309
357
435
508
546
574
626
676
660
575
448
266
64
-59
-117
-192
-258
-277
-291
-316
-331
-342
-343
-314
-298
-333
-365
-328
-247
-194
-189
-235
-314
-294
-176
-208
-325
-137
366
901
1076
370
-756
-945
-240
89
-90
-125
-44
-46
-29
16
43
77
118
173
233
252
271
350
441
489
510
520
528
535
496
360
172
33
-32
-101
-208
-278
-279
-281
-316
-339
-316
-303
-350
-395
-397
-406
-397
-301
-211
-235
-298
-303
-264
-241
-275
-322
-277
97
1112
2137
1649
-123
-951
-362
6
-223
-247
-129
-165
-154
-84
-65
0
84
82
93
208
297
266
244
320
366
317
290
311
306
267
172
34
-31
-60
-177
-282
-265
-244
-283
-301
-293
-289
-278
-281
-308
-325
-318
-269
-197
-177
-183
-180
-217
-236
-176
-175
-279
-193
534
1747
2078
672
-860
-815
-119
-68
-219
-127
-107
-147
-71
-17
-10
45
92
109
168
240
275
303
337
357
368
374
383
402
376
255
113
27
-38
-134
-225
-260
-263
-292
-337
-345
-321
-305
-316
-350
-351
-311
-321
-350
-286
-224
-251
-270
-266
-269
-228
-235
-330
-214
348
1171
1500
571
-840
-1068
-289
58
-96
-98
-48
-90
-49
15
30
85
143
160
221
315
379
452
521
532
561
661
704
642
559
459
319
167
2
-152
-238
-282
-310
-300
-297
-337
-358
-355
-380
-397
-365
-330
-336
-353
-319
-255
-237
-262
-278
-261
-225
-258
-341
-226
183
721
1106
771
-343
-1025
-555
48
14
-131
-53
-6
-28
10
59
75
125
213
270
300
358
438
501
537
549
559
585
581
513
425
326
182
37
-50
-118
-176
-171
-156
-231
-322
-309
-260
-267
-277
-261
-269
-314
-347
-318
-234
-182
-190
-204
-228
-241
-191
-182
-262
-187
284
1066
1478
669
-735
-1042
-296
43
-136
-99
8
-81
-118
-41
4
47
113
153
199
278
329
321
328
387
427
413
402
398
336
219
106
4
-113
-213
-261
-294
-339
-360
-352
-355
-370
-376
-379
-386
-386
-381
-373
-355
-310
-252
-224
-237
-270
-287
-260
-227
-251
-281
-159
392
1344
1662
511
-848
-822
-121
-10
-182
-130
-90
-119
-62
-8
1
51
130
183
229
279
318
348
375
398
415
430
432
408
356
276
175
64
-43
-121
-165
-202
-242
-261
-261
-267
-277
-283
-287
-284
-274
-274
-275
-254
-208
-170
-162
-174
-195
-200
-162
-138
-190
-208
15
710
1714
1875
499
-881
-732
-29
3
-155
-57
-25
-67
-16
19
27
97
169
211
268
321
356
416
483
510
522
550
556
509
417
296
161
34
-67
-133
-172
-202
-228
-245
-259
-275
-287
-294
-300
-308
-311
-308
-303
-290
-259
-233
-240
-257
-276
-312
-299
-242
-280
-325
-64
556
1136
970
-139
-1079
-841
-166
-49
-176
-116
-73
-98
-58
-6
25
82
145
193
245
296
336
373
400
408
406
398
372
317
235
135
30
-62
-135
-186
-217
-240
-262
-273
-272
-272
-278
-283
-283
-286
-296
-293
-268
-235
-203
-180
-184
-200
-222
-245
-221
-182
-227
-250
-52
481
1257
1490
451
-820
-828
-154
-29
-197
-141
-82
-103
-50
13
44
106
174
223
279
332
367
396
403
382
357
325
265
191
122
51
-19
-71
-104
-132
-154
-160
-164
-188
-216
-216
-210
-224
-240
-245
-255
-266
-266
-262
-238
-188
-164
-177
-202
-240
-239
-175
-188
-259
-155
277
1132
1927
1441
-188
-989
-432
1
-145
-155
-29
-67
-108
-54
5
65
134
196
256
307
345
384
424
447
446
445
449
418
352
273
166
44
-30
-64
-108
-155
-180
-203
-227
-235
-238
-251
-259
-255
-262
-285
-288
-285
-301
-292
-230
-187
-190
-203
-223
-218
-170
-177
-224
-98
391
1299
1978
1268
-394
-1026
-364
45
-127
-151
-55
-91
-91
-31
-16
12
77
125
169
223
264
292
318
337
349
354
346
314
250
155
42
-61
-135
-185
-222
-248
-266
-282
-303
-328
-336
-326
-331
-354
-364
-362
-377
-398
-395
-348
-276
-246
-276
-311
-328
-320
-270
-252
-282
-166
250
896
1316
773
-484
-1014
-454
-8
-119
-182
-95
-98
-98
-39
-5
35
108
176
238
301
345
366
371
359
339
307
255
191
123
50
-20
-70
-98
-125
-156
-179
-188
-193
-201
-203
-199
-193
-194
-197
-196
-203
-226
-240
-236
-223
-178
-108
-81
-111
-152
-168
-130
-96
-142
-150
27
578
1715
2559
1654
-200
-757
-124
90
-122
-92
-15
-57
-31
22
39
83
141
183
226
254
263
290
340
382
402
405
403
385
323
213
99
15
-47
-104
-154
-191
-220
-236
-241
-252
-268
-272
-264
-262
-276
-296
-309
-308
-306
-318
-304
-242
-202
-225
-250
-244
-223
-190
-207
-284
-239
189
1112
1918
1398
-241
-1062
-498
-7
-140
-198
-94
-113
-126
-65
-29
8
72
121
166
218
256
285
310
320
320
311
295
278
242
161
51
-49
-124
-179
-222
-253
-278
-302
-323
-334
-337
-340
-341
-347
-353
-349
-344
-347
-343
-317
-278
-230
-197
-198
-212
-227
-233
-204
-186
-206
-146
135
744
1459
1362
113
-892
-611
-25
-30
-152
-77
-57
-70
-9
31
46
103
172
223
269
308
331
350
369
380
379
370
348
303
236
150
62
-5
-57
-109
-152
-175
-199
-228
-239
-239
-248
-258
-253
-247
-258
-270
-274
-286
-310
-326
-301
-222
-151
-149
-173
-182
-193
-172
-130
-173
-187
86
706
1455
1601
520
-803
-869
-156
47
-101
-44
20
-19
12
67
84
131
196
241
284
324
349
376
409
430
442
451
438
389
322
247
141
18
-68
-108
-141
-178
-208
-229
-249
-267
-266
-254
-256
-268
-277
-288
-301
-303
-300
-311
-332
-318
-250
-183
-167
-180
-199
-198
-153
-142
-181
-137
108
850
2069
2401
900
-699
-643
7
-14
-178
-84
-68
-109
-59
-22
-8
41
78
104
153
199
227
253
279
297
304
298
281
247
187
107
26
-45
-103
-148
-184
-214
-238
-253
-264
-281
-297
-301
-305
-314
-322
-326
-334
-347
-357
-362
-362
-336
-271
-214
-212
-244
-272
-275
-237
-216
-250
-186
144
774
1411
1231
-9
-970
-665
-57
-50
-177
-100
-72
-86
-33
5
30
94
149
186
242
295
327
349
355
343
328
308
264
195
115
44
-17
-68
-102
-121
-139
-157
-167
-180
-200
-209
-204
-203
-212
-225
-238
-248
-252
-263
-284
-301
-307
-292
-235
-176
-172
-198
-212
-222
-198
-165
-198
-186
78
697
1531
1747
611
-786
-851
-126
62
-99
-50
11
-18
19
76
112
170
220
257
321
385
422
459
495
510
519
534
532
497
431
329
196
77
-5
-70
-131
-177
-209
-230
-239
-247
-254
-249
-249
-265
-273
-263
-254
-253
-255
-266
-279
-291
-308
-294
-224
-165
-164
-181
-201
-213
-166
-137
-192
-129
214
834
1580
1652
448
-815
-737
-84
-7
-143
-59
-24
-63
-14
32
44
99
160
193
240
294
331
368
400
410
416
427
414
356
258
136
12
-95
-176
-234
-278
-307
-320
-326
-338
-352
-354
-346
-346
-356
-357
-345
-337
-339
-340
-342
-357
-381
-370
-291
-199
-176
-201
-228
-243
-209
-162
-204
-237
-18
614
1550
1904
807
-719
-941
-259
-54
-223
-179
-106
-134
-95
-26
4
56
124
177
236
297
343
381
412
426
424
409
374
308
216
114
13
-73
-128
-166
-203
-229
-237
-246
-264
-275
-273
-272
-273
-267
-256
-254
-256
-258
-264
-274
-283
-289
-278
-228
-165
-147
-169
-184
-181
-141
-98
-131
-125
148
712
1378
1550
605
-674
-807
-82
183
5
4
67
39
66
119
125
150
207
258
311
365
406
440
467
477
477
469
442
387
314
231
140
49
-24
-83
-133
-169
-193
-215
-233
-244
-253
-262
-266
-263
-262
-273
-280
-274
-280
-298
-295
-286
-285
-244
-172
-160
-203
-229
-239
-226
-190
-212
-239
-68
462
1332
1829
975
-547
-942
-275
28
-142
-137
-51
-69
-40
22
43
89
158
207
261
321
355
376
400
410
401
385
354
292
211
134
59
-22
-101
-159
-194
-222
-245
-254
-264
-282
-288
-279
-275
-282
-282
-281
-285
-282
-278
-292
-308
-304
-297
-286
-244
-199
-202
-236
-263
-274
-256
-234
-253
-239
-11
594
1340
1304
83
-1014
-808
-124
-10
-131
-67
-21
-28
25
76
99
146
204
257
310
351
388
425
438
434
428
406
362
307
231
133
39
-38
-106
-160
-197
-225
-244
-250
-252
-253
-245
-225
-207
-202
-202
-193
-185
-186
-187
-184
-181
-186
-197
-207
-200
-164
-116
-105
-125
-151
-190
-194
-142
-154
-179
22
507
1254
1873
1342
-228
-1010
-432
73
-45
-101
-9
-27
-24
42
68
107
180
232
276
334
391
439
484
526
558
565
562
548
481
356
221
95
-20
-103
-158
-205
-240
-260
-276
-288
-295
-303
-311
-312
-314
-321
-323
-316
-313
-319
-324
-324
-330
-341
-327
-268
-209
-204
-225
-235
-247
-228
-183
-214
-217
61
639
1297
1453
521
-743
-907
-231
33
-112
-93
-27
-55
-26
35
56
98
161
206
257
317
357
381
406
419
413
392
358
298
208
98
-12
-106
-173
-219
-251
-270
-279
-280
-282
-288
-290
-288
-291
-295
-291
-288
-286
-280
-280
-294
-306
-311
-310
-276
-208
-174
-195
-221
-240
-240
-204
-213
-255
-148
238
1002
1805
1520
2
-973
-541
-14
-121
-212
-107
-101
-102
-32
6
41
112
170
214
264
307
348
397
434
439
407
357
309
254
171
74
-7
-68
-119
-157
-180
-190
-197
-206
-213
-220
-229
-227
-218
-221
-230
-233
-234
-237
-238
-242
-245
-237
-220
-187
-138
-111
-120
-135
-147
-136
-87
-85
-122
9
463
1310
2105
1680
34
-913
-391
154
32
-55
46
40
30
81
107
143
205
261
338
413
449
488
543
575
582
590
590
542
434
314
214
107
-9
-97
-155
-196
-222
-238
-253
-264
-282
-307
-315
-304
-298
-309
-322
-328
-334
-342
-349
-350
-343
-349
-382
-375
-283
-206
-227
-262
-272
-304
-286
-208
-217
-204
111
757
1488
1599
492
-843
-927
-237
-47
-212
-179
-124
-157
-113
-41
-23
11
76
133
184
241
292
332
361
368
355
331
284
205
113
11
-104
-207
-273
-312
-349
-376
-377
-365
-367
-382
-388
-389
-397
-403
-400
-398
-393
-384
-380
-386
-394
-395
-394
-392
-354
-276
-235
-254
-273
-283
-275
-222
-215
-252
-127
282
1055
1917
1741
215
-895
-523
60
-6
-88
32
37
23
102
155
200
291
369
420
475
527
562
582
581
562
535
503
454
384
306
239
