# session 36
-57
-76
-35
-3
-109
-278
-320
-274
-269
-271
-257
-271
-273
-230
-209
-226
-231
-216
-202
-191
-184
-177
-168
-166
-165
-153
-142
-135
-125
-125
-134
-119
-98
-115
-137
-114
-91
-109
-125
-123
-150
-192
-176
-122
-116
-137
-105
-66
-80
-69
-30
-57
-47
235
978
2127
2641
1331
-634
-954
5
351
86
74
146
75
81
142
127
104
119
152
180
166
140
168
223
246
249
261
271
276
287
301
312
312
297
283
282
272
234
182
122
37
-53
-121
-181
-249
-281
-262
-254
-276
-275
-247
-246
-260
-248
-230
-238
-260
-263
-253
-256
-263
-256
-247
-245
-240
-243
-252
-240
-217
-215
-218
-210
-205
-208
-201
-184
-174
-171
-173
-176
-173
-165
-163
-160
-152
-147
-146
-140
-133
-134
-144
-142
-118
-105
-115
-117
-104
-103
-112
-113
-112
-116
-134
-163
-164
-132
-122
-123
-87
-64
-81
-55
-14
-47
-16
313
1132
2259
2494
954
-781
-762
150
329
81
85
129
104
135
143
117
130
143
140
159
178
190
214
224
219
236
265
277
281
280
273
287
314
307
271
254
244
206
150
87
2
-85
-140
-183
-236
-270
-267
-256
-260
-253
-225
-205
-203
-200
-210
-241
-249
-222
-213
-229
-232
-220
-215
-214
-213
-212
-206
-204
-205
-202
-190
-178
-177
-177
-170
-165
-162
-153
-148
-152
-148
-137
-134
-131
-117
-109
-113
-113
-103
-104
-114
-109
-91
-91
-105
-113
-115
-107
-100
-120
-137
-126
-121
-123
-100
-79
-71
-53
-56
-68
35
447
1396
2425
2107
217
-1104
-599
241
233
40
114
131
62
74
121
143
151
154
164
168
162
175
194
186
186
231
268
236
187
220
292
285
232
221
210
166
147
148
99
12
-53
-107
-177
-220
-205
-193
-228
-271
-278
-250
-221
-213
-213
-207
-198
-202
-228
-245
-220
-195
-208
-225
-220
-213
-209
-211
-217
-205
-193
-215
-220
-170
-147
-183
-193
-166
-168
-199
-202
-162
-120
-120
-147
-158
-150
-152
-158
-159
-152
-129
-113
-135
-153
-137
-150
-197
-220
-233
-229
-169
-119
-111
-99
-113
-123
-64
-66
-110
141
894
1961
2436
1269
-613
-1020
-77
362
125
100
211
173
167
207
164
104
117
196
279
299
228
161
241
370
332
238
328
483
482
390
376
474
558
509
441
478
503
424
299
147
4
-85
-195
-321
-341
-289
-300
-342
-321
-285
-313
-340
-295
-254
-279
-310
-329
-353
-337
-284
-279
-327
-350
-320
-288
-311
-340
-306
-269
-282
-290
-288
-305
-302
-259
-220
-214
-226
-233
-237
-245
-232
-197
-180
-182
-201
-237
-211
-132
-149
-225
-179
-83
-84
-112
-138
-197
-187
-100
-63
-74
-148
-207
129
973
1850
2029
941
-714
-1188
-322
286
155
49
107
93
101
128
95
112
179
160
116
179
279
290
245
234
275
331
386
432
462
468
462
492
576
655
669
635
596
536
376
123
-74
-152
-203
-267
-315
-348
-385
-415
-410
-355
-287
-261
-275
-283
-274
-292
-340
-349
-279
-220
-287
-400
-368
-230
-204
-290
-314
-279
-321
-386
-322
-208
-232
-323
-315
-289
-309
-233
-115
-155
-254
-236
-196
-228
-251
-202
-157
-239
-299
-8
651
1524
2162
1548
-139
-916
-234
265
44
-43
72
57
55
83
4
-43
57
172
188
148
137
164
203
244
262
269
340
440
461
439
474
550
613
647
672
697
646
452
210
19
-150
-298
-388
-431
-432
-408
-417
-432
-406
-406
-458
-456
-375
-327
-350
-374
-359
-335
-334
-327
-306
-330
-392
-379
-297
-278
-316
-303
-287
-335
-356
-297
-240
-216
-189
-170
-208
-271
-257
-201
-221
-216
-130
-195
-295
12
717
1601
2195
1483
-223
-881
-120
332
35
-91
45
61
33
60
73
74
91
120
154
166
153
166
214
249
275
320
366
400
440
483
518
558
620
678
674
603
511
378
183
3
-117
-235
-371
-465
-469
-394
-330
-349
-384
-364
-375
-424
-373
-277
-306
-378
-351
-315
-340
-332
-269
-265
-340
-368
-314
-285
-311
-321
-310
-309
-291
-228
-158
-145
-195
-254
-270
-232
-199
-211
-189
-148
-228
-259
80
818
1795
2295
1284
-471
-885
-46
297
22
-27
36
-41
-38
39
41
29
50
81
112
104
98
169
242
248
258
293
306
318
352
395
442
473
464
467
511
514
417
268
106
-61
-186
-254
-301
-348
-385
-397
-368
-334
-337
-351
-347
-330
-313
-305
-303
-307
-336
-369
-338
-277
-281
-312
-289
-279
-312
-290
-226
-240
-284
-260
-219
-205
-165
-120
-134
-184
-203
-174
-155
-212
-244
-140
-80
-156
-91
300
1111
2181
2277
640
-917
-677
164
200
-14
57
93
40
42
43
51
97
128
159
202
198
172
186
215
236
263
294
333
370
366
343
359
396
406
386
365
361
324
199
60
-31
-128
-211
-224
-255
-324
-300
-216
-230
-298
-289
-231
-231
-283
-298
-256
-232
-246
-250
-246
-259
-272
-274
-256
-204
-172
-204
-236
-216
-199
-214
-207
-164
-137
-160
-199
-193
-150
-138
-160
-159
-139
-154
-179
-134
-68
-98
-154
-124
-104
-144
-124
-76
-111
-128
-81
-101
-175
-189
-165
-138
-119
-131
-115
-51
-24
-36
-62
-88
54
524
1339
2187
2019
398
-952
-595
248
290
127
215
170
48
92
121
85
157
247
195
148
239
276
175
178
315
326
236
277
370
340
273
300
376
409
377
333
357
401
335
200
129
91
-12
-138
-207
-221
-233
-269
-288
-276
-287
-309
-283
-259
-286
-310
-305
-310
-346
-371
-326
-257
-260
-280
-272
-305
-337
-289
-272
-314
-262
-170
-207
-277
-248
-208
-210
-214
-233
-227
-153
-148
-248
-262
-164
-127
-170
-194
-169
-125
-120
-161
-188
-202
-201
-151
-139
-220
-262
-205
-164
-172
-147
-108
-128
-124
-36
-48
-130
140
889
1724
1999
1091
-444
-938
-175
350
190
107
203
175
149
209
221
193
201
222
240
273
305
307
306
338
382
400
414
444
460
479
526
548
556
622
693
693
651
547
370
194
-12
-238
-308
-275
-337
-391
-326
-302
-358
-367
-338
-341
-356
-355
-336
-319
-327
-342
-340
-335
-343
-340
-322
-328
-349
-325
-309
-361
-357
-251
-209
-264
-285
-261
-258
-255
-235
-229
-253
-264
-228
-195
-207
-212
-181
-165
-175
-182
-178
-170
-166
-179
-199
-213
-227
-238
-226
-190
-162
-164
-149
-110
-122
-127
-59
-91
-179
48
679
1605
2377
1841
56
-853
-165
393
163
46
150
106
76
140
154
154
177
182
197
231
250
263
290
318
341
369
404
442
480
523
565
597
635
684
718
723
692
594
419
218
29
-141
-269
-341
-383
-412
-417
-407
-399
-390
-377
-368
-364
-358
-352
-352
-353
-350
-348
-347
-343
-339
-339
-335
-326
-318
-314
-307
-300
-294
-288
-280
-274
-267
-259
-253
-247
-238
-230
-222
-212
-206
-203
-196
-189
-184
-179
-173
-168
-162
-158
-151
-145
-148
-156
-159
-172
-199
-217
-215
-197
-166
-144
-123
-90
-89
-96
-35
-37
-129
35
596
1411
2162
1883
292
-808
-283
409
265
84
185
167
117
171
182
166
195
213
216
238
260
275
297
319
338
362
389
418
449
479
509
541
571
595
615
627
613
547
421
254
79
-71
-186
-272
-331
-358
-366
-370
-370
-363
-355
-351
-350
-346
-343
-342
-340
-339
-338
-335
-332
-329
-327
-325
-321
-316
-312
-308
-301
-292
-284
-278
-269
-261
-257
-250
-240
-233
-227
-217
-209
-205
-198
-189
-184
-179
-172
-167
-161
-158
-155
-150
-146
-143
-137
-138
-149
-158
-168
-190
-213
-218
-199
-170
-153
-129
-89
-91
-97
-36
-44
-124
62
645
1501
2224
1777
88
-889
-237
433
257
96
199
174
129
182
188
174
204
221
226
249
268
280
299
320
339
359
379
402
428
456
480
502
524
543
556
563
551
492
373
222
72
-64
-175
-253
-301
-329
-342
-343
-340
-336
-333
-332
-333
-332
-330
-329
-330
-331
-333
-332
-326
-321
-319
-316
-311
-303
-295
-290
-282
-270
-264
-261
-254
-247
-243
-238
-230
-223
-216
-206
-197
-194
-191
-184
-179
-174
-169
-163
-161
-158
-149
-141
-142
-142
-136
-134
-140
-145
-152
-165
-180
-204
-225
-204
-167
-144
-109
-85
-100
-69
-26
-91
-32
458
1284
2044
1915
465
-898
-660
233
353
122
170
209
147
174
207
193
212
237
240
255
278
291
309
332
350
369
390
411
434
460
485
508
530
545
553
558
550
501
399
257
104
-35
-148
-228
-279
-312
-334
-340
-335
-330
-326
-324
-322
-322
-323
-324
-324
-323
-325
-327
-325
-320
-317
-316
-317
-313
-302
-293
-289
-283
-277
-274
-268
-256
-250
-249
-244
-231
-220
-215
-213
-208
-200
-193
-184
-177
-174
-170
-163
-159
-156
-150
-147
-142
-136
-139
-145
-148
-160
-178
-200
-226
-225
-188
-159
-133
-90
-90
-98
-40
-56
-115
173
916
1800
2208
1332
-351
-944
-134
410
202
104
202
165
142
192
192
189
219
229
235
261
279
290
310
330
348
372
395
418
445
473
498
520
544
566
581
581
553
476
340
174
16
-117
-222
-294
-334
-353
-361
-361
-354
-347
-341
-336
-333
-331
-330
-329
-329
-330
-330
-329
-328
-328
-324
-318
-312
-308
-301
-295
-290
-282
-272
-266
-260
-252
-244
-237
-230
-224
-220
-212
-201
-195
-193
-189
-182
-175
-169
-164
-160
-156
-151
-146
-141
-137
-140
-147
-157
-172
-192
-213
-227
-214
-180
-160
-133
-91
-96
-97
-33
-60
-130
127
814
1716
2275
1538
-147
-814
-63
431
189
89
189
146
120
173
173
170
203
214
220
243
261
275
297
318
336
359
384
410
438
466
492
517
539
557
570
573
546
467
331
167
9
-125
-230
-300
-340
-358
-363
-361
-358
-354
-345
-338
-336
-336
-335
-334
-334
-335
-337
-336
-332
-328
-324
-318
-312
-306
-299
-292
-286
-277
-269
-262
-255
-248
-241
-235
-228
-221
-214
-207
-203
-198
-193
-188
-183
-176
-171
-165
-159
-154
-150
-146
-142
-142
-148
-160
-173
-187
-208
-222
-205
-174
-155
-121
-88
-100
-80
-29
-82
-90
281
1064
1992
2250
1026
-617
-765
137
404
133
128
197
135
143
184
169
180
211
216
227
251
267
284
306
324
342
363
385
408
432
456
478
498
515
527
533
525
487
397
258
103
-38
-154
-240
-296
-327
-342
-345
-342
-336
-331
-328
-326
-324
-324
-324
-324
-324
-323
-321
-322
-321
-316
-310
-306
-302
-296
-288
-281
-276
-270
-262
-255
-250
-243
-234
-226
-221
-215
-209
-202
-197
-193
-187
-180
-175
-170
-166
-160
-154
-149
-144
-141
-139
-140
-148
-163
-179
-196
-215
-217
-190
-166
-148
-107
-87
-103
-65
-31
-100
-31
447
1314
2209
2120
549
-855
-552
306
335
96
159
182
121
156
180
161
180
205
215
235
252
261
279
300
320
343
366
389
416
438
456
476
497
513
524
529
520
470
360
207
53
-78
-186
-268
-320
-347
-357
-361
-357
-345
-335
-337
-341
-340
-336
-331
-326
-328
-333
-327
-322
-327
-326
-314
-310
-309
-296
-282
-281
-280
-268
-259
-256
-249
-238
-228
-219
-215
-212
-204
-196
-195
-193
-185
-178
-170
-161
-156
-155
-158
-158
-152
-155
-166
-169
-192
-232
-227
-183
-155
-122
-94
-105
-78
-40
-98
18
645
1511
1952
1374
-88
-1062
-617
203
304
135
187
220
177
201
229
220
229
246
258
278
294
306
326
349
366
380
401
429
457
483
510
535
554
572
585
588
568
496
355
176
8
-127
-233
-310
-355
-373
-374
-366
-358
-350
-339
-327
-318
-310
-306
-307
-310
-310
-309
-308
-309
-311
-310
-304
-299
-296
-292
-286
-279
-271
-265
-260
-252
-244
-238
-231
-221
-214
-214
-212
-202
-194
-192
-189
-182
-177
-175
-176
-186
-201
-211
-207
-171
-106
-62
-73
-111
-140
-138
-113
-122
-127
-77
-105
-172
93
813
1704
2146
1326
-286
-865
-129
344
133
44
134
96
72
119
121
121
152
168
182
210
232
251
278
302
325
355
388
422
458
499
540
579
615
650
675
677
625
496
303
96
-85
-232
-340
-405
-436
-447
-448
-441
-428
-417
-410
-405
-399
-393
-390
-388
-387
-384
-383
-382
-377
-371
-367
-365
-361
-356
-350
-343
-338
-336
-338
-345
-349
-346
-328
-273
-202
-188
-228
-256
-259
-246
-230
-242
-228
-174
-222
-263
54
819
1802
2253
1255
-413
-806
-33
272
13
-19
59
5
6
55
48
59
98
114
130
159
183
208
235
261
291
326
362
403
451
499
544
589
631
663
674
635
511
311
96
-90
-239
-348
-408
-434
-444
-441
-427
-410
-396
-382
-368
-355
-343
-332
-327
-325
-320
-312
-308
-304
-299
-292
-285
-278
-273
-265
-254
-246
-240
-227
-218
-215
-205
-185
-177
-180
-171
-153
-146
-149
-151
-154
-158
-166
-167
-124
-37
16
-5
-44
-63
-64
-46
-49
-63
-17
-15
-104
44
659
1582
2291
1824
164
-859
-292
397
273
101
196
187
138
181
194
184
215
238
248
273
294
309
341
373
392
416
448
477
508
547
582
611
643
675
700
712
680
575
410
220
35
-111
-212
-287
-338
-356
-362
-371
-376
-369
-364
-365
-369
-374
-379
-382
-386
-392
-392
-393
-401
-401
-395
-397
-398
-390
-387
-386
-380
-373
-369
-364
-358
-351
-347
-345
-340
-336
-333
-328
-324
-324
-321
-319
-318
-310
-307
-315
-312
-293
-291
-310
-325
-331
-344
-368
-379
-355
-319
-304
-277
-242
-251
-238
-175
-213
-272
25
841
1927
2393
1261
-563
-978
-101
293
49
16
107
52
52
119
126
129
160
184
213
243
265
301
343
364
391
444
489
517
558
605
638
678
730
767
785
794
761
662
516
353
208
97
