# session 28
-12
-36
17
35
-123
-336
-389
-337
-330
-347
-340
-347
-367
-354
-314
-287
-259
-215
-206
-210
-160
-148
-207
-70
489
1478
2379
1915
-63
-1364
-743
147
111
-59
49
50
3
58
79
68
100
122
132
169
203
221
245
270
289
314
339
367
411
459
497
534
572
599
621
636
616
529
373
192
24
-129
-267
-363
-414
-440
-451
-450
-448
-440
-420
-407
-403
-393
-375
-370
-375
-372
-365
-364
-354
-337
-333
-332
-321
-320
-329
-307
-266
-261
-271
-258
-246
-240
-224
-225
-237
-207
-167
-174
-183
-160
-148
-158
-153
-137
-133
-138
-134
-125
-131
-142
-135
-126
-138
-158
-178
-194
-180
-145
-123
-102
-81
-82
-52
-6
-56
-62
261
1002
2062
2609
1449
-564
-1074
-112
366
127
94
195
143
140
194
189
197
227
230
240
271
287
298
321
349
373
394
427
463
475
485
518
545
553
573
591
573
513
407
257
96
-53
-185
-288
-349
-387
-418
-425
-402
-382
-378
-371
-358
-350
-348
-344
-340
-336
-335
-338
-341
-341
-338
-334
-333
-336
-337
-334
-328
-322
-315
-305
-296
-289
-281
-268
-256
-248
-240
-229
-221
-216
-211
-205
-195
-192
-196
-194
-192
-200
-213
-230
-242
-221
-193
-189
-170
-136
-145
-134
-84
-118
-92
349
1268
2235
2232
637
-1106
-1103
-66
274
67
85
154
112
139
180
161
175
213
219
224
248
274
305
332
349
373
412
453
491
536
581
625
671
714
745
758
739
655
488
272
67
-105
-249
-353
-408
-433
-445
-442
-429
-421
-421
-412
-392
-380
-378
-367
-350
-345
-350
-347
-339
-328
-318
-321
-325
-317
-307
-304
-299
-292
-284
-275
-269
-264
-256
-247
-240
-232
-225
-225
-220
-209
-211
-217
-219
-230
-232
-190
-136
-111
-114
-145
-165
-140
-136
-151
-102
-104
-176
69
821
1739
2145
1258
-511
-1287
-522
187
97
-14
84
77
56
108
119
117
148
168
183
215
246
274
306
339
376
417
459
508
564
620
675
732
786
833
863
854
777
614
391
163
-38
-203
-322
-393
-432
-447
-445
-439
-434
-424
-413
-406
-401
-394
-388
-387
-388
-387
-385
-382
-382
-381
-378
-373
-368
-362
-357
-349
-342
-339
-333
-330
-339
-338
-312
-278
-237
-192
-190
-228
-255
-264
-255
-236
-249
-237
-180
-233
-278
53
800
1757
2249
1246
-585
-1091
-212
224
-25
-64
35
-14
-15
43
39
52
96
114
132
168
197
225
260
291
325
368
413
461
517
575
634
691
739
776
793
760
646
455
235
30
-140
-270
-358
-406
-424
-425
-420
-412
-402
-393
-385
-377
-370
-365
-360
-355
-352
-350
-345
-339
-337
-333
-328
-325
-319
-312
-311
-308
-303
-308
-307
-281
-249
-214
-169
-158
-198
-230
-241
-243
-223
-223
-229
-176
-184
-263
-105
426
1314
2263
2025
186
-1150
-611
198
98
-84
27
24
-17
43
60
57
100
127
138
171
202
225
256
290
322
361
404
446
496
552
606
653
698
738
762
752
679
531
339
139
-42
-184
-278
-336
-366
-373
-370
-366
-359
-351
-346
-338
-333
-337
-344
-344
-339
-336
-336
-337
-333
-330
-330
-327
-314
-303
-301
-297
-281
-268
-267
-267
-258
-249
-244
-236
-227
-222
-217
-213
-209
-203
-196
-198
-203
-205
-212
-228
-253
-277
-264
-211
-182
-172
-135
-126
-134
-76
-74
-154
47
688
1544
2163
1648
-52
-1093
-486
265
177
22
127
122
77
130
153
145
170
190
207
237
257
271
300
330
357
390
425
458
498
551
603
648
694
741
774
781
744
634
455
255
74
-83
-209
-293
-340
-365
-378
-383
-380
-372
-368
-363
-356
-354
-358
-359
-355
-357
-361
-359
-356
-355
-352
-345
-341
-339
-335
-328
-321
-315
-309
-303
-295
-287
-280
-276
-272
-267
-262
-256
-251
-244
-235
-229
-225
-220
-219
-221
-223
-233
-258
-289
-305
-279
-223
-191
-184
-153
-134
-147
-101
-66
-151
-85
396
1208
2067
2090
637
-843
-671
187
262
24
90
130
69
107
147
138
163
191
198
220
251
271
296
327
356
388
427
468
511
556
605
655
706
755
794
809
782
688
523
318
111
-71
-204
-276
-317
-353
-367
-361
-369
-376
-359
-344
-345
-335
-324
-331
-331
-311
-306
-325
-334
-322
-313
-312
-303
-279
-261
-265
-272
-266
-259
-252
-238
-231
-230
-219
-209
-211
-206
-201
-203
-195
-187
-189
-175
-151
-153
-166
-171
-183
-181
-153
-143
-152
-147
-151
-189
-217
-215
-205
-188
-158
-144
-134
-97
-94
-125
-90
-81
-145
72
719
1426
1751
1154
-292
-1117
-503
256
217
46
125
135
91
130
154
152
184
216
229
236
244
273
314
332
351
393
437
477
521
557
601
664
715
759
811
820
756
657
502
276
74
-80
-230
-321
-328
-347
-406
-422
-375
-327
-328
-362
-369
-337
-316
-325
-333
-329
-330
-329
-316
-317
-337
-337
-322
-328
-328
-292
-283
-321
-318
-262
-251
-290
-296
-260
-223
-215
-234
-240
-216
-200
-210
-219
-203
-182
-188
-198
-172
-148
-171
-199
-192
-197
-228
-247
-239
-205
-163
-154
-159
-129
-121
-124
-53
-60
-164
60
741
1527
1973
1398
-90
-859
-257
300
154
66
158
100
75
159
151
111
160
216
220
221
262
309
312
311
368
426
439
489
586
626
623
686
780
827
848
847
776
637
446
205
-32
-195
-287
-347
-391
-410
-405
-407
-417
-401
-367
-350
-348
-352
-358
-357
-346
-340
-346
-343
-310
-288
-320
-352
-332
-310
-317
-316
-300
-292
-285
-272
-266
-266
-254
-235
-225
-221
-222
-227
-224
-208
-198
-198
-190
-175
-174
-179
-162
-152
-174
-176
-139
-131
-167
-181
-167
-177
-221
-253
-233
-169
-138
-164
-143
-64
-84
-134
-64
-67
-131
189
927
1673
1923
1069
-397
-807
-49
332
92
58
171
120
109
176
174
159
180
203
225
247
277
322
343
344
381
440
470
486
529
597
656
694
735
789
825
816
749
612
415
200
11
-147
-281
-364
-383
-384
-397
-393
-368
-363
-380
-377
-350
-342
-352
-342
-321
-333
-362
-357
-333
-337
-345
-328
-323
-334
-316
-296
-314
-317
-283
-276
-298
-281
-240
-236
-258
-266
-247
-212
-188
-194
-208
-206
-205
-196
-160
-138
-163
-186
-161
-129
-137
-160
-141
-105
-128
-176
-166
-146
-183
-222
-211
-176
-143
-118
-103
-97
-108
-71
6
-57
-138
161
842
1684
2232
1495
-266
-984
-180
367
128
31
154
127
100
144
151
166
196
191
189
225
277
311
303
302
353
394
402
439
495
526
562
612
635
655
696
706
663
566
391
199
62
-71
-213
-270
-278
-331
-379
-368
-342
-315
-299
-325
-345
-319
-312
-336
-329
-305
-311
-333
-340
-330
-311
-311
-332
-330
-300
-297
-312
-301
-286
-290
-280
-249
-239
-255
-255
-238
-231
-218
-200
-203
-203
-192
-201
-187
-142
-150
-197
-181
-133
-142
-174
-153
-114
-125
-149
-131
-114
-127
-139
-144
-161
-183
-205
-196
-139
-105
-115
-99
-75
-83
-42
-4
-86
-64
354
1163
2088
2197
763
-833
-787
117
308
82
109
155
114
148
173
151
174
209
203
211
260
282
258
280
358
381
358
392
456
480
496
534
578
612
624
619
616
576
466
322
165
-1
-131
-208
-265
-300
-315
-339
-352
-324
-294
-295
-311
-323
-319
-306
-306
-319
-325
-311
-296
-308
-320
-302
-294
-316
-311
-280
-278
-285
-273
-270
-279
-261
-234
-238
-248
-237
-232
-225
-204
-201
-211
-200
-188
-185
-167
-161
-184
-189
-161
-146
-155
-152
-142
-143
-141
-131
-135
-133
-119
-140
-175
-171
-167
-193
-192
-151
-122
-103
-90
-104
-80
-12
-45
-86
194
896
1847
2311
1266
-573
-1065
-144
353
121
74
184
120
96
172
182
168
201
224
224
231
244
272
307
322
339
385
417
414
428
475
515
539
569
592
581
555
534
482
356
186
32
-90
-181
-235
-266
-286
-300
-320
-332
-305
-272
-283
-308
-304
-283
-273
-287
-311
-317
-303
-293
-298
-305
-300
-286
-275
-275
-288
-300
-285
-250
-241
-252
-247
-242
-256
-240
-195
-193
-218
-202
-185
-211
-202
-148
-152
-196
-178
-143
-163
-172
-133
-122
-149
-143
-108
-104
-130
-144
-146
-156
-174
-193
-197
-168
-127
-100
-77
-81
-114
-81
-24
-73
-49
336
1138
2109
2266
803
-894
-893
74
327
86
77
115
74
114
164
157
158
171
183
201
220
235
244
259
289
323
352
371
378
387
409
442
479
494
477
473
477
423
318
210
97
-21
-116
-184
-242
-288
-298
-268
-255
-287
-301
-276
-263
-254
-236
-252
-289
-281
-255
-271
-291
-271
-250
-264
-279
-265
-247
-248
-259
-263
-248
-229
-235
-246
-225
-207
-220
-214
-198
-210
-207
-168
-161
-188
-185
-170
-170
-159
-146
-154
-148
-126
-138
-167
-165
-155
-161
-172
-192
-196
-165
-133
-113
-102
-103
-76
-47
-85
-54
278
1059
2109
2362
907
-892
-1002
-38
267
44
72
152
80
74
131
134
131
151
158
164
191
228
248
245
261
306
327
320
336
368
385
391
399
408
414
399
362
322
273
187
65
-50
-131
-189
-229
-249
-259
-259
-254
-256
-253
-245
-251
-255
-244
-241
-242
-241
-255
-258
-235
-237
-270
-269
-238
-235
-256
-250
-222
-221
-238
-220
-195
-210
-221
-193
-179
-186
-185
-193
-191
-146
-122
-158
-174
-146
-128
-128
-117
-107
-116
-137
-144
-129
-125
-140
-154
-163
-162
-144
-132
-128
-105
-87
-81
-58
-48
-59
35
454
1392
2378
2047
164
-1182
-684
202
228
36
99
109
72
120
140
125
151
171
172
191
201
199
224
258
269
281
309
331
343
345
347
359
362
349
347
346
319
272
207
113
13
-72
-133
-165
-203
-248
-243
-219
-241
-251
-216
-213
-236
-228
-222
-243
-242
-232
-249
-259
-243
-233
-237
-246
-247
-235
-230
-245
-245
-223
-220
-231
-225
-212
-200
-190
-196
-204
-186
-164
-175
-192
-181
-166
-166
-154
-136
-151
-175
-166
-157
-173
-181
-176
-184
-191
-169
-131
-120
-134
-104
-47
-68
-109
40
583
1633
2506
1824
-178
-1230
-549
192
130
7
79
41
-11
37
64
68
104
123
109
106
127
156
170
166
178
223
257
256
253
265
264
252
250
250
238
228
221
192
117
31
-16
-61
-148
-213
-204
-189
-208
-204
-178
-183
-198
-174
-149
-182
-237
-228
-163
-149
-206
-226
-183
-171
-204
-204
-161
-150
-184
-196
-164
-138
-143
-153
-145
-118
-99
-112
-119
-95
-92
-110
-74
-35
-80
-123
-90
-64
-78
-74
-72
-95
-101
-98
-95
-46
6
-9
-27
-4
-1
36
292
1028
2172
2588
1204
-720
-1046
-157
218
23
2
60
22
37
52
-1
-16
0
-6
17
56
50
32
55
89
110
132
156
178
203
215
207
206
223
234
233
218
178
111
27
-54
-111
-154
-228
-311
-327
-295
-289
-298
-282
-271
-277
-270
-243
-231
-254
-278
-264
-243
-258
-276
-270
-263
-262
-252
-252
-261
-250
-234
-238
-233
-209
-202
-213
-211
-188
-172
-178
-186
-178
-169
-158
-127
-96
-79
-61
-63
-102
-143
-138
-104
-122
-157
-102
-83
-157
82
875
1774
1994
944
-771
-1414
-591
161
129
29
112
112
106
153
140
124
174
216
221
241
287
322
329
337
364
401
449
500
530
556
615
671
686
701
742
745
647
473
288
109
-63
-192
-273
-348
-389
-372
-370
-402
-381
-331
-347
-381
-353
-312
-323
-355
-350
-321
-326
-354
-347
-327
-339
-348
-337
-347
-360
-349
-336
-329
-325
-329
-296
-220
-203
-257
-266
-237
-262
-292
-278
-266
-238
-234
-315
-224
244
1010
1900
2050
650
-927
-831
51
140
-111
-37
4
-72
-25
38
40
62
80
83
113
147
169
192
206
249
329
358
338
371
447
492
528
575
601
618
627
554
398
244
109
-57
-223
-325
-376
-405
-410
-399
-388
-380
-373
-364
-346
-328
-328
-340
-334
-313
-308
-323
-321
-301
-298
-308
-292
-261
-261
-280
-275
-258
-252
-243
-217
-174
-154
-190
-226
-228
-236
-246
-237
-217
-191
-220
-257
-91
383
1303
2406
2246
312
-1136
-607
226
109
-102
13
23
-31
12
37
51
98
112
105
134
175
204
236
266
292
329
368
392
425
477
520
555
591
615
624
616
556
421
240
66
-76
-187
-268
-316
-341
-355
-356
-350
-345
-340
-335
-335
-329
-317
-314
-316
-315
-317
-320
-313
-308
-314
-312
-295
-281
-282
-283
-274
-262
-255
-246
-239
-239
-236
-227
-227
-233
-222
-212
-221
-216
-182
-137
-100
-97
-127
-154
-170
-172
-151
-152
-160
-113
-125
-177
89
786
1651
2155
1405
-407
-1304
-540
215
110
-19
89
78
51
112
131
129
157
171
186
227
261
279
305
336
368
403
435
463
503
554
599
639
683
719
735
728
671
537
346
154
-9
-142
-243
-305
-333
-345
-355
-358
-348
-335
-331
-331
-329
-329
-332
-331
-334
-344
-350
-348
-347
-351
-355
-352
-344
-339
-337
-335
-327
-320
-315
-307
-300
-296
-289
-282
-278
-275
-269
-261
-255
-253
-253
-251
-257
-276
-287
-266
-212
-154
-137
-164
-194
-215
-213
-192
-207
-209
-146
-184
-270
-23
632
1558
2341
1837
33
-959
-321
248
26
-96
18
-16
-46
18
31
33
72
96
114
151
186
214
243
280
325
365
405
449
489
539
608
661
720
818
871
819
724
583
363
146
-9
-140
-251
-316
-350
-362
-351
-338
-332
-321
-303
-286
-274
-261
-247
-243
-253
-254
-240
-230
-226
-217
-206
-197
-192
-187
-182
-175
-164
-151
-138
-129
-119
-108
-99
-88
-77
-77
-73
-54
-36
-30
-26
-24
-24
-20
-9
0
3
5
4
-6
-21
-40
-71
-94
-78
-43
-22
2
28
33
