# session 35
5
-7
21
-5
-128
-239
-271
-276
-273
-260
-279
-319
-324
-305
-296
-279
-254
-229
-183
-165
-189
-146
-103
-203
-173
306
1125
1953
2011
702
-725
-641
181
294
49
85
116
47
79
117
92
110
143
135
143
180
191
200
252
302
305
306
346
379
379
404
466
503
520
538
518
495
504
438
255
77
-62
-200
-296
-339
-374
-391
-378
-367
-365
-370
-383
-373
-336
-323
-337
-338
-335
-335
-328
-335
-348
-326
-302
-314
-306
-273
-281
-300
-276
-254
-261
-254
-237
-244
-245
-213
-184
-191
-220
-223
-188
-147
-142
-171
-180
-144
-133
-172
-168
-107
-90
-118
-126
-119
-113
-110
-118
-108
-89
-104
-111
-76
-83
-138
-143
-129
-169
-184
-136
-114
-102
-48
-42
-80
-24
13
-67
44
564
1410
2258
2095
479
-843
-437
397
352
92
170
222
155
140
164
196
213
201
214
236
227
263
337
329
282
317
380
398
409
428
433
446
462
469
506
537
496
419
339
197
20
-95
-162
-233
-278
-300
-338
-357
-338
-336
-358
-342
-295
-282
-296
-311
-345
-367
-321
-263
-279
-322
-330
-317
-297
-292
-303
-279
-246
-282
-310
-256
-220
-248
-265
-259
-240
-189
-162
-198
-224
-205
-182
-174
-171
-175
-181
-176
-155
-133
-132
-148
-158
-144
-116
-100
-103
-125
-145
-136
-128
-156
-174
-160
-161
-180
-173
-143
-107
-94
-115
-76
16
-21
-114
80
706
1733
2567
1903
-57
-1002
-255
361
187
121
228
145
88
154
170
159
187
206
195
190
217
250
273
307
326
303
299
345
385
397
399
400
408
429
432
407
377
328
240
132
16
-105
-203
-262
-297
-310
-314
-332
-348
-325
-278
-263
-287
-292
-272
-289
-328
-317
-272
-261
-280
-288
-280
-278
-290
-285
-248
-229
-245
-261
-263
-250
-221
-204
-208
-209
-205
-201
-189
-181
-182
-184
-181
-166
-145
-143
-155
-156
-157
-161
-142
-113
-111
-123
-124
-120
-117
-121
-143
-163
-172
-188
-189
-167
-155
-127
-67
-61
-90
-47
-28
-93
7
502
1478
2515
2263
368
-1042
-555
305
273
64
145
165
110
126
136
127
158
202
216
207
215
240
247
257
289
305
311
346
375
375
381
394
391
399
414
398
363
326
235
91
-13
-64
-147
-247
-285
-297
-333
-342
-306
-275
-259
-270
-313
-316
-269
-250
-271
-281
-277
-274
-270
-279
-285
-262
-246
-264
-274
-259
-239
-215
-211
-238
-235
-200
-216
-247
-205
-156
-170
-184
-161
-152
-180
-206
-180
-128
-127
-161
-154
-120
-114
-127
-135
-133
-127
-123
-120
-137
-157
-143
-137
-183
-203
-161
-135
-124
-79
-72
-109
-82
-48
-66
76
601
1581
2520
2092
151
-1094
-471
354
265
68
138
133
118
177
155
116
170
212
188
191
240
258
243
254
274
277
305
360
377
362
369
392
399
396
392
387
374
330
238
120
6
-99
-193
-261
-300
-319
-328
-329
-321
-311
-306
-302
-297
-292
-289
-291
-297
-297
-286
-278
-284
-292
-290
-279
-270
-270
-270
-264
-256
-249
-243
-236
-229
-224
-222
-222
-216
-200
-187
-183
-179
-175
-179
-178
-158
-156
-192
-197
-137
-103
-123
-124
-133
-193
-219
-187
-186
-196
-166
-139
-127
-109
-93
-53
-35
-97
-24
471
1409
2333
2128
379
-1142
-830
154
300
79
124
157
107
140
156
130
161
197
190
200
246
287
298
298
312
328
336
371
424
442
444
477
516
527
526
527
516
455
327
166
12
-122
-229
-309
-366
-386
-382
-394
-408
-380
-344
-342
-343
-330
-325
-330
-331
-332
-330
-325
-325
-327
-325
-320
-318
-315
-306
-295
-288
-288
-286
-278
-266
-260
-260
-255
-248
-244
-242
-245
-248
-244
-226
-182
-123
-100
-129
-168
-189
-182
-163
-174
-167
-120
-160
-200
54
716
1746
2459
1579
-383
-1075
-198
326
78
4
107
58
44
101
94
92
127
143
160
193
215
232
259
287
308
326
346
379
425
474
508
530
555
579
589
578
529
412
239
57
-99
-221
-310
-367
-396
-405
-403
-394
-387
-382
-368
-345
-330
-330
-335
-334
-328
-324
-327
-327
-323
-323
-320
-308
-299
-299
-292
-279
-273
-271
-258
-243
-242
-249
-250
-249
-255
-255
-231
-183
-127
-105
-128
-156
-170
-174
-162
-162
-173
-135
-121
-189
-93
401
1302
2240
2072
346
-1086
-706
180
213
13
91
101
46
97
119
94
125
169
177
190
218
244
268
290
312
341
373
401
430
465
508
549
577
596
616
623
583
476
311
126
-39
-171
-280
-355
-383
-386
-388
-383
-370
-360
-355
-346
-335
-327
-323
-324
-322
-316
-319
-334
-328
-300
-288
-296
-295
-286
-284
-279
-273
-272
-262
-249
-253
-256
-233
-214
-216
-216
-206
-200
-197
-189
-180
-181
-191
-195
-193
-195
-190
-166
-119
-65
-53
-91
-120
-128
-129
-117
-125
-127
-74
-97
-174
8
569
1496
2412
2041
208
-911
-286
365
158
4
117
83
36
96
110
98
128
152
171
202
222
236
260
281
303
338
373
398
423
454
490
530
561
580
598
609
584
501
361
192
30
-108
-216
-292
-335
-353
-354
-344
-338
-338
-336
-330
-325
-321
-321
-324
-322
-317
-316
-313
-306
-304
-302
-298
-301
-301
-283
-266
-267
-267
-255
-244
-241
-237
-231
-225
-216
-206
-202
-202
-197
-187
-178
-172
-170
-173
-166
-148
-145
-154
-149
-132
-129
-133
-131
-127
-128
-130
-135
-139
-146
-168
-194
-198
-185
-169
-146
-124
-100
-73
-86
-93
-27
-27
-107
53
585
1442
2319
2070
371
-802
-272
412
247
68
171
150
100
152
160
146
177
194
197
217
233
249
278
301
319
340
360
380
412
447
473
495
517
539
564
578
562
499
389
240
80
-64
-177
-259
-312
-339
-348
-352
-351
-341
-328
-325
-328
-325
-318
-317
-322
-324
-324
-324
-322
-316
-313
-308
-299
-296
-301
-298
-280
-264
-258
-256
-254
-249
-243
-236
-228
-222
-215
-206
-198
-194
-192
-190
-181
-166
-164
-171
-167
-154
-150
-149
-145
-147
-148
-137
-126
-127
-125
-114
-114
-130
-148
-160
-173
-188
-197
-190
-168
-140
-122
-103
-77
-83
-89
-29
-29
-112
46
596
1440
2247
1975
306
-892
-381
380
283
86
171
167
125
172
177
160
194
220
222
235
251
268
297
326
338
349
377
410
435
463
500
532
554
573
592
607
597
535
416
261
99
-52
-182
-276
-321
-338
-353
-362
-355
-342
-333
-326
-321
-322
-323
-323
-325
-326
-322
-318
-322
-326
-321
-312
-308
-305
-298
-287
-279
-272
-264
-254
-248
-249
-252
-244
-227
-214
-207
-203
-203
-200
-189
-184
-186
-180
-167
-163
-167
-164
-154
-148
-146
-139
-132
-133
-133
-127
-127
-131
-129
-136
-157
-167
-178
-205
-204
-161
-139
-126
-80
-72
-91
-34
-27
-107
127
842
1649
1984
1234
-302
-994
-288
360
243
116
210
197
161
204
217
212
225
228
246
281
295
303
330
350
362
387
418
444
473
507
534
558
601
646
663
659
636
554
396
208
30
-127
-246
-319
-363
-390
-395
-388
-382
-374
-359
-349
-351
-345
-325
-314
-321
-327
-327
-326
-323
-321
-322
-317
-305
-303
-306
-295
-280
-278
-280
-271
-257
-250
-253
-250
-233
-220
-221
-219
-207
-199
-193
-185
-180
-176
-170
-164
-157
-148
-145
-145
-141
-137
-133
-129
-133
-147
-155
-168
-197
-220
-220
-205
-176
-147
-132
-106
-85
-103
-79
-29
-96
-98
272
1010
1952
2361
1267
-415
-676
155
383
95
100
181
111
114
164
150
153
182
190
205
235
251
262
289
321
341
359
390
428
467
507
542
572
608
645
666
660
612
503
339
154
-20
-168
-282
-356
-395
-409
-406
-394
-383
-377
-368
-357
-353
-349
-336
-328
-336
-339
-326
-319
-323
-319
-310
-310
-311
-302
-294
-294
-290
-272
-258
-260
-256
-242
-237
-236
-229
-218
-210
-202
-193
-188
-190
-187
-177
-171
-171
-163
-153
-149
-148
-143
-140
-138
-132
-127
-126
-126
-125
-125
-130
-136
-149
-177
-201
-200
-181
-155
-132
-111
-82
-68
-81
-44
-7
-85
-61
339
1081
1978
2253
1045
-547
-637
217
398
123
131
186
131
153
185
162
173
202
205
221
251
263
275
302
328
345
367
397
425
459
497
526
550
580
610
628
625
583
485
333
152
-19
-154
-250
-317
-361
-385
-387
-377
-366
-360
-353
-344
-333
-326
-325
-325
-325
-324
-323
-324
-320
-311
-307
-310
-304
-290
-282
-279
-273
-264
-258
-248
-232
-226
-232
-228
-209
-199
-204
-199
-182
-175
-176
-173
-167
-158
-149
-149
-148
-136
-133
-138
-132
-123
-126
-130
-121
-110
-108
-110
-108
-104
-114
-125
-121
-126
-162
-188
-185
-176
-155
-124
-102
-72
-61
-87
-48
1
-75
0
538
1341
1979
1764
357
-902
-619
246
340
118
175
209
149
181
211
189
204
232
238
252
269
278
300
330
347
365
396
427
450
478
510
546
582
606
623
649
661
614
496
328
137
-42
-180
-276
-348
-397
-409
-396
-385
-380
-367
-356
-352
-344
-328
-321
-327
-333
-328
-321
-324
-329
-324
-316
-314
-316
-319
-311
-290
-274
-273
-277
-276
-267
-252
-246
-247
-240
-224
-217
-215
-212
-206
-199
-190
-181
-182
-191
-186
-165
-151
-155
-157
-153
-150
-146
-138
-137
-143
-152
-165
-186
-205
-215
-219
-202
-170
-152
-128
-90
-94
-84
-23
-71
-124
216
960
1773
2094
1217
-283
-680
60
403
158
107
189
140
133
179
172
175
204
211
222
248
264
279
303
329
356
386
418
453
497
543
586
631
671
702
735
760
722
593
400
187
-12
-167
-278
-363
-416
-433
-429
-422
-412
-397
-383
-373
-365
-357
-353
-349
-340
-332
-333
-336
-335
-333
-330
-327
-324
-316
-305
-297
-291
-284
-278
-272
-267
-259
-251
-248
-245
-237
-222
-210
-207
-208
-203
-192
-187
-187
-179
-164
-159
-161
-152
-142
-145
-147
-135
-125
-126
-129
-134
-143
-159
-180
-199
-208
-203
-178
-149
-127
-97
-83
-97
-61
-24
-94
-51
383
1189
2108
2248
888
-635
-570
265
360
104
152
192
121
145
178
155
167
197
209
221
234
251
282
305
319
345
376
398
424
462
503
538
565
591
625
652
639
581
479
325
138
-32
-167
-272
-339
-371
-386
-391
-385
-375
-369
-361
-349
-340
-337
-336
-335
-334
-331
-329
-330
-332
-329
-318
-312
-315
-308
-289
-282
-284
-278
-266
-261
-254
-245
-241
-239
-229
-215
-203
-199
-200
-195
-185
-177
-175
-174
-168
-159
-152
-149
-147
-143
-139
-135
-133
-135
-132
-122
-112
-115
-123
-126
-137
-160
-180
-186
-178
-156
-134
-121
-91
-63
-75
-51
-4
-63
-64
301
1058
1988
2293
1096
-566
-735
155
409
135
134
203
136
140
182
172
176
194
205
232
253
259
278
302
320
342
361
376
408
446
469
492
524
550
564
574
576
548
460
319
161
11
-124
-230
-297
-333
-354
-364
-355
-341
-341
-339
-324
-315
-320
-321
-317
-319
-321
-319
-318
-316
-310
-308
-308
-304
-298
-288
-275
-269
-269
-262
-251
-245
-241
-235
-227
-221
-219
-210
-194
-186
-185
-180
-176
-172
-167
-163
-160
-152
-149
-155
-146
-127
-125
-137
-134
-120
-118
-124
-116
-105
-113
-126
-127
-132
-153
-178
-195
-188
-159
-138
-121
-81
-67
-83
-40
-17
-96
8
533
1366
2137
1931
357
-941
-545
319
326
99
176
196
134
172
196
175
193
216
222
237
256
274
300
321
335
358
383
408
437
467
493
521
548
573
594
606
598
553
445
284
113
-37
-162
-258
-323
-360
-371
-366
-358
-353
-347
-334
-325
-328
-329
-326
-328
-328
-318
-312
-315
-315
-309
-308
-309
-302
-289
-284
-282
-275
-269
-266
-255
-242
-237
-239
-232
-221
-214
-207
-198
-195
-195
-186
-177
-175
-172
-164
-158
-155
-152
-147
-138
-133
-140
-144
-131
-115
-110
-111
-116
-129
-143
-158
-177
-196
-202
-185
-159
-146
-121
-82
-83
-82
-25
-50
-116
119
768
1683
2334
1676
-61
-835
-97
439
199
84
189
148
118
171
166
159
191
199
204
233
250
262
285
305
322
346
370
392
421
454
483
514
544
563
572
577
560
490
358
194
30
-115
-230
-304
-348
-375
-388
-382
-370
-363
-356
-349
-345
-342
-336
-333
-332
-327
-324
-327
-328
-326
-322
-314
-308
-308
-305
-291
-282
-282
-275
-261
-252
-248
-241
-235
-232
-224
-212
-205
-201
-195
-188
-182
-176
-171
-168
-166
-158
-146
-141
-141
-139
-136
-135
-129
-122
-117
-114
-112
-116
-119
-127
-143
-157
-169
-180
-167
-139
-128
-104
-61
-66
-67
-7
-30
-85
163
809
1723
2364
1639
-164
-914
-106
458
215
113
230
179
142
206
211
197
225
237
241
264
283
297
319
338
358
380
397
419
451
482
504
523
543
563
576
574
554
495
377
221
62
-78
-184
-256
-302
-329
-339
-339
-334
-325
-315
-308
-307
-307
-304
-301
-303
-307
-309
-307
-303
-303
-301
-294
-290
-294
-287
-277
-282
-280
-263
-254
-258
-249
-237
-237
-237
-227
-219
-224
-225
-211
-199
-198
-196
-192
-193
-191
-186
-182
-177
-174
-180
-178
-164
-156
-161
-166
-167
-163
-162
-178
-202
-209
-215
-244
-259
-227
-193
-178
-147
-135
-144
-95
-78
-152
10
645
1519
2075
1498
-150
-1134
-527
259
219
57
146
146
99
138
155
150
181
198
195
213
240
263
282
297
318
348
377
405
435
466
499
527
552
583
612
620
603
547
422
251
83
-63
-186
-272
-321
-348
-354
-341
-327
-322
-312
-294
-276
-264
-254
-246
-246
-245
-237
-233
-236
-232
-217
-207
-204
-200
-191
-182
-173
-164
-153
-140
-131
-124
-113
-104
-102
-95
-77
-62
-53
-48
-47
-46
-36
-19
