# session 6
137
211
-31
109
1022
1758
1696
1606
2146
3052
3557
2766
1081
331
913
1349
1164
1068
1112
1032
978
997
973
956
981
995
997
1008
1022
1035
1044
1051
1055
1049
1020
966
877
738
554
364
206
84
-13
-85
-140
-194
-242
-273
-298
-332
-364
-386
-405
-424
-441
-460
-477
-491
-511
-520
-487
-437
-432
-465
-493
-523
-531
-488
-497
-553
-387
129
782
1041
317
-931
-1307
-663
-228
-332
-372
-289
-298
-290
-230
-212
-197
-134
-60
-2
39
69
97
116
129
143
147
135
108
57
-26
-126
-222
-304
-367
-407
-427
-439
-454
-466
-465
-461
-471
-483
-477
-468
-468
-468
-464
-459
-454
-448
-415
-340
-283
-285
-307
-320
-306
-250
-227
-247
-180
137
941
1953
1865
322
-814
-463
67
-42
-117
29
40
19
86
116
123
183
251
302
354
397
402
389
410
463
485
454
403
342
277
213
130
28
-46
-86
-116
-137
-151
-176
-195
-193
-194
-210
-216
-211
-206
-204
-217
-242
-249
-244
-238
-192
-114
-87
-114
-138
-145
-118
-79
-106
-136
43
688
1787
2333
1214
-536
-903
-166
126
-51
-43
28
3
27
82
105
149
216
273
323
373
419
465
504
531
550
557
547
511
433
302
141
-5
-114
-187
-235
-272
-305
-327
-338
-348
-358
-367
-374
-373
-371
-374
-378
-387
-395
-396
-397
-381
-314
-250
-263
-300
-299
-292
-279
-270
-318
-290
20
649
1400
1529
431
-853
-867
-168
0
-160
-112
-52
-82
-46
11
34
79
143
199
249
296
338
373
394
404
401
385
355
297
203
92
-13
-109
-186
-227
-242
-253
-266
-282
-299
-309
-308
-306
-307
-310
-308
-304
-309
-325
-337
-340
-333
-291
-226
-206
-225
-232
-241
-237
-200
-211
-241
-82
410
1205
1708
978
-495
-969
-316
56
-95
-102
-13
-50
-40
45
94
137
197
256
327
402
458
492
503
506
524
526
481
418
353
251
110
-2
-55
-107
-181
-224
-233
-260
-292
-288
-279
-298
-317
-317
-312
-310
-315
-332
-347
-337
-317
-305
-280
-232
-201
-200
-228
-278
-266
-193
-210
-248
-35
525
1348
1845
1045
-540
-1044
-325
91
-72
-92
-5
-38
-18
56
77
111
181
234
285
345
393
427
456
474
473
467
469
436
331
206
114
24
-80
-145
-165
-205
-270
-297
-287
-292
-303
-299
-307
-326
-330
-329
-319
-294
-301
-349
-373
-352
-310
-255
-219
-220
-220
-223
-228
-195
-176
-195
-140
151
1000
2209
2278
578
-863
-587
51
-33
-164
-47
-48
-86
-21
24
47
99
142
185
247
294
321
344
355
353
346
328
286
223
140
37
-66
-135
-183
-235
-266
-262
-261
-284
-304
-303
-300
-310
-321
-322
-322
-323
-322
-328
-344
-348
-347
-347
-310
-243
-214
-225
-241
-264
-252
-198
-206
-232
-96
323
1109
1742
1147
-344
-931
-329
66
-77
-114
-38
-54
-28
48
82
117
173
225
283
340
386
430
456
466
465
444
408
362
294
205
109
1
-100
-157
-186
-217
-242
-260
-278
-290
-291
-293
-300
-306
-307
-306
-308
-307
-298
-296
-310
-326
-332
-314
-248
-179
-179
-213
-222
-230
-213
-157
-179
-197
46
593
1333
1746
955
-536
-969
-264
109
-64
-72
27
1
14
80
107
149
222
283
345
413
472
523
552
556
553
547
515
457
375
259
120
1
-78
-138
-186
-216
-232
-242
-250
-266
-279
-271
-267
-291
-314
-315
-305
-302
-308
-311
-308
-308
-313
-293
-243
-207
-211
-221
-235
-258
-228
-177
-218
-224
49
704
1607
1898
751
-739
-856
-127
47
-139
-82
-6
-35
2
56
69
108
166
225
301
354
366
382
407
401
372
346
311
248
167
78
-9
-85
-142
-168
-166
-172
-199
-222
-238
-263
-286
-296
-305
-316
-321
-324
-332
-339
-342
-352
-367
-374
-379
-371
-317
-258
-261
-293
-304
-302
-280
-258
-279
-246
-30
457
1220
1562
611
-783
-949
-203
70
-97
-73
18
7
33
92
124
169
230
290
356
424
481
520
540
562
588
587
565
530
455
326
177
45
-55
-123
-171
-211
-242
-262
-279
-299
-312
-308
-305
-321
-337
-331
-316
-318
-330
-330
-321
-322
-328
-334
-336
-282
-179
-150
-200
-219
-223
-211
-121
-96
-189
-119
314
1215
2211
1973
266
-861
-418
99
-54
-119
14
0
-11
59
76
91
154
206
251
303
333
354
387
410
405
382
361
333
271
166
56
-30
-91
-145
-197
-233
-246
-253
-265
-274
-290
-309
-302
-282
-303
-343
-339
-305
-300
-319
-324
-327
-353
-376
-347
-277
-233
-237
-244
-235
-234
-222
-195
-219
-247
-144
227
1101
2049
1715
67
-891
-411
63
-86
-161
-51
-44
-36
25
39
61
147
217
212
210
303
427
463
450
469
482
466
459
437
345
212
97
5
-72
-136
-196
-242
-267
-285
-295
-291
-305
-346
-364
-340
-319
-327
-342
-352
-364
-372
-380
-380
-351
-336
-362
-336
-231
-175
-200
-205
-188
-190
-162
-138
-200
-200
96
757
1600
1795
608
-868
-976
-223
8
-130
-67
1
-24
10
32
35
111
184
199
226
277
337
416
473
479
471
460
431
397
336
211
77
-12
-92
-183
-233
-251
-286
-312
-287
-255
-265
-287
-293
-301
-317
-333
-345
-333
-299
-290
-311
-309
-282
-319
-415
-411
-261
-144
-161
-207
-221
-217
-154
-88
-134
-186
-138
239
1583
3272
2965
577
-846
-327
114
-158
-216
-88
-128
-121
-38
-24
10
93
141
181
244
296
330
355
362
360
360
348
311
249
164
60
-41
-118
-166
-203
-236
-247
-241
-249
-268
-271
-265
-262
-260
-264
-270
-271
-268
-249
-211
-208
-268
-324
-330
-321
-318
-283
-229
-231
-259
-240
-241
-290
-276
-222
-210
-113
399
1518
2422
1674
-244
-1059
-407
36
-153
-208
-111
-126
-113
-46
-22
8
62
111
178
256
313
357
402
442
469
482
479
462
419
327
176
11
-111
-192
-265
-322
-343
-353
-379
-410
-416
-394
-390
-426
-453
-441
-418
-400
-401
-429
-439
-417
-414
-432
-431
-426
-412
-337
-242
-234
-269
-261
-246
-215
-141
-158
-206
14
570
1395
2072
1549
-100
-972
-388
165
37
-56
38
38
44
106
122
150
226
278
318
387
448
491
541
576
589
610
624
580
478
359
241
115
-8
-89
-127
-149
-148
-136
-169
-224
-214
-165
-163
-187
-192
-201
-208
-195
-207
-251
-278
-282
-270
-252
-285
-360
-342
-211
-140
-197
-256
-262
-257
-214
-167
-207
-208
52
710
1637
1881
642
-829
-864
-140
0
-154
-68
-12
-67
-37
15
39
115
210
249
273
327
381
395
378
370
380
374
320
240
182
137
44
-95
-197
-229
-258
-314
-319
-261
-256
-318
-340
-313
-309
-322
-322
-321
-323
-324
-343
-379
-407
-408
-379
-354
-360
-340
-265
-221
-248
-272
-276
-274
-227
-203
-249
-199
57
664
1691
2102
845
-716
-725
10
63
-150
-70
-19
-66
-7
83
123
152
205
291
361
372
390
459
523
547
542
506
451
388
304
189
67
-41
-128
-189
-221
-235
-247
-264
-275
-274
-274
-287
-295
-291
-293
-300
-293
-274
-267
-278
-289
-290
-294
-301
-308
-329
-331
-260
-176
-171
-187
-145
-127
-151
-136
-157
-206
-54
414
1273
2175
1855
125
-979
-473
111
-38
-131
18
28
-1
60
96
117
177
241
307
382
443
495
546
574
579
590
583
521
422
310
170
13
-115
-193
-232
-253
-279
-305
-319
-337
-352
-337
-316
-326
-343
-347
-350
-359
-364
-361
-354
-357
-373
-386
-392
-397
-394
-354
-282
-248
-263
-274
-282
-280
-235
-228
-269
-177
178
918
1803
1676
157
-981
-594
36
-36
-160
-50
-30
-43
17
50
87
172
236
284
356
425
475
515
540
554
559
547
508
437
326
185
42
-80
-176
-245
-286
-312
-333
-338
-336
-349
-361
-351
-337
-342
-349
-350
-355
-350
-326
-315
-317
-304
-291
-302
-316
-319
-319
-298
-235
-171
-171
-196
-190
-190
-187
-138
-148
-184
10
499
1262
1975
1564
-44
-957
-386
175
36
-40
85
75
56
120
154
185
250
300
344
401
447
485
519
534
533
528
510
474
415
321
196
74
-24
-102
-157
-187
-209
-229
-239
-245
-258
-271
-280
-288
-300
-313
-319
-318
-316
-318
-317
-314
-319
-335
-347
-352
-365
-381
-354
-266
-198
-216
-250
-239
-229
-215
-185
-211
-218
9
663
1715
2224
1091
-652
-966
-190
71
-129
-98
-15
-44
-15
38
60
113
178
231
296
361
410
456
492
506
508
498
468
413
328
211
73
-60
-162
-224
-261
-289
-313
-330
-339
-340
-348
-368
-377
-368
-366
-370
-364
-352
-354
-361
-351
-336
-334
-338
-339
-344
-355
-353
-310
-228
-180
-201
-220
-215
-215
-172
-130
-181
-149
154
776
1722
2191
1116
-511
-756
-47
108
-106
-46
35
-4
41
116
133
166
229
292
360
420
459
491
522
537
533
510
465
398
316
219
105
-14
-103
-151
-183
-207
-220
-235
-254
-255
-242
-246
-261
-268
-274
-291
-305
-304
-293
-282
-285
-289
-282
-273
-273
-271
-269
-277
-286
-287
-285
-259
-200
-169
-192
-214
-222
-225
-195
-185
-208
-151
73
714
1781
2052
657
-802
-692
-14
0
-166
-83
-52
-73
-2
56
74
125
187
240
301
356
396
432
455
461
467
468
445
404
350
267
154
47
-37
-107
-163
-194
-213
-236
-253
-259
-270
-280
-278
-280
-293
-294
-279
-274
-277
-270
-262
-265
-265
-252
-244
-245
-239
-227
-229
-238
-238
-242
-267
-285
-244
-151
-96
-118
-144
-148
-157
-126
-87
-126
-103
162
757
1727
2251
1169
-570
-900
-126
135
-70
-51
19
-10
29
79
81
127
202
242
277
333
383
418
450
473
475
457
421
368
309
232
122
10
-79
-159
-220
-239
-242
-258
-268
-266
-273
-288
-285
-274
-293
-322
-321
-312
-315
-309
-307
-326
-326
-301
-298
-312
-306
-299
-315
-335
-343
-317
-240
-167
-174
-206
-186
-165
-154
-121
-169
-213
33
542
1224
1858
1474
-49
-936
-430
73
-19
-16
104
54
36
95
94
115
182
223
259
304
349
431
520
559
584
592
548
514
451
226
6
43
116
-100
-388
-409
-311
-355
-417
-338
-260
-275
-265
-232
-270
-337
-376
-381
-339
-296
-325
-382
-375
-303
-226
-183
-221
-343
-364
-203
-85
-97
-91
-83
-144
-185
-182
-170
-166
-191
-128
188
939
2166
2778
1474
-500
-880
-159
8
-178
-97
-53
-129
-64
80
151
159
182
278
377
410
464
518
433
309
341
426
417
387
333
146
-64
-155
-210
-277
-313
-392
-516
-544
-465
-373
-290
-270
-380
-521
-545
-474
-440
-512
-617
-627
-553
-530
-526
-361
-142
-147
-321
-448
-459
-296
-113
-267
-584
-551
-305
-298
-359
-61
501
1049
1627
1859
883
-760
-1254
-470
50
-67
-99
40
82
65
57
86
174
257
332
463
605
673
707
803
961
1028
911
778
817
918
811
455
177
250
381
143
-184
-110
108
42
-76
-3
-2
-177
-287
-272
-249
-245
-279
-336
-328
-284
-314
-388
-408
-403
-440
-431
-288
-192
-324
-474
-430
-357
-382
-431
-462
-303
247
1006
1486
1055
-403
-1565
-1232
-374
-239
-346
-226
-319
-471
-204
39
-127
-151
168
263
156
314
520
495
521
620
536
403
381
333
215
89
-55
-183
-232
-232
-248
-293
-320
-270
-190
-197
-241
-150
-10
-62
-182
-102
18
-50
-124
-64
-32
-93
-166
-199
-135
-4
67
84
82
-31
-229
-276
-143
-100
-207
-213
84
977
2291
2478
742
-872
-684
-4
-68
-219
-72
-34
-122
-140
-66
38
21
-49
72
257
294
316
364
372
438
481
335
152
41
-66
-67
-56
-326
-640
-656
-642
-707
-556
-337
-336
-373
-363
-412
-424
-389
-424
-444
-410
-438
-493
-469
-385
-320
-318
-338
-292
-180
-68
-23
-62
-115
-98
-36
-23
-52
7
135
314
1224
3028
3654
1704
-429
-479
170
99
37
255
243
182
229
122
7
79
120
113
250
415
468
535
645
687
671
636
524
346
162
-42
-250
-392
-467
-511
-507
-486
-518
-582
-609
-591
-554
-561
-665
-718
-568
-475
-610
-627
-497
-611
-719
-474
-347
-506
-433
-179
-165
-265
-270
-284
-327
-316
-277
-263
-281
-124
680
1964
2277
802
-825
-887
-178
11
-65
41
127
138
156
138
156
264
360
451
577
643
641
674
706
664
610
562
477
452
521
463
204
-9
-81
-149
-199
-160
-124
-149
-177
-206
-245
-276
-336
-389
-340
-324
-495
-637
-563
-461
-460
-443
-404
-414
-435
-474
-574
-608
-514
-511
-644
-623
-454
-417
-425
-198
450
1541
2086
848
-1010
-1247
-321
9
-145
-93
-63
-124
-47
42
57
134
250
315
378
484
584
653
721
801
867
879
795
634
486
374
220
51
-6
12
-19
-64
-71
-81
-47
76
148
79
-1
-9
-25
-56
-50
-82
-183
-193
-114
-153
-267
-236
-103
-50
-82
-139
-231
-277
-195
-164
-302
-293
53
573
1218
1474
405
-1262
-1591
-722
-298
-392
-270
-177
-301
-278
-158
-157
-125
-19
6
15
144
321
459
592
667
561
436
554
748
681
407
142
-74
-242
-328
-360
-382
-406
-414
-366
-291
-266
-264
-228
-197
-206
-227
-253
-260
-241
-256
-286
-240
-143
-71
-35
-59
-120
-119
-95
-129
-146
-146
-162
-48
273
935
1982
2249
687
-1051
-954
-29
129
-65
-41
-66
-106
-31
-65
-163
-36
205
271
206
207
307
433
505
496
468
452
356
140
-72
-209
-344
-456
-466
-502
-660
-717
-556
-415
-420
-432
-400
-446
-588
-577
-301
-106
-225
-394
-407
-382
-392
-401
-373
-298
-260
-301
-291
-208
-189
-182
-130
-163
-212
-70
500
1943
3482
2899
390
-919
-250
238
-27
-57
93
25
-39
29
110
143
140
183
245
217
