# session 27
64
57
83
25
-148
-395
-238
1020
2313
1537
-499
-1124
-428
-139
-219
-75
-2
-78
-46
12
6
23
44
48
80
112
114
125
159
195
236
283
333
399
475
545
611
668
688
657
570
418
228
55
-76
-174
-250
-305
-328
-323
-332
-358
-354
-317
-295
-296
-292
-282
-276
-265
-248
-245
-253
-250
-238
-237
-239
-236
-237
-238
-222
-204
-206
-220
-222
-214
-203
-195
-187
-171
-162
-167
-160
-151
-160
-152
-143
-164
-151
-130
-167
-211
-355
-346
710
2194
1818
-227
-1169
-549
-132
-195
-93
-5
-59
-30
17
5
28
62
67
89
114
122
140
171
197
231
284
358
438
501
560
632
689
712
708
649
505
320
154
16
-105
-195
-244
-268
-290
-305
-296
-274
-262
-262
-259
-247
-242
-244
-234
-213
-212
-224
-220
-206
-201
-197
-191
-198
-201
-187
-175
-172
-173
-178
-175
-161
-157
-151
-123
-112
-139
-147
-129
-133
-134
-119
-134
-131
-88
-119
-191
-270
-313
369
1837
2120
315
-1189
-848
-188
-186
-155
14
-6
-19
60
65
44
76
102
115
138
159
177
206
240
273
315
373
444
517
585
655
725
774
774
711
577
381
179
12
-123
-225
-277
-298
-316
-328
-326
-323
-318
-310
-309
-305
-281
-250
-230
-221
-227
-245
-252
-243
-237
-233
-223
-218
-222
-222
-211
-197
-189
-194
-205
-203
-183
-163
-151
-152
-156
-144
-133
-152
-159
-132
-135
-143
-109
-131
-195
-276
-434
-2
1534
2412
965
-905
-956
-237
-144
-181
-27
-18
-43
29
38
16
57
82
72
90
128
148
167
201
237
274
326
387
447
512
582
640
680
696
661
555
398
235
80
-64
-173
-236
-274
-297
-300
-299
-301
-290
-272
-266
-254
-229
-220
-232
-234
-221
-209
-209
-212
-209
-204
-203
-197
-185
-191
-203
-199
-191
-192
-192
-183
-172
-159
-145
-128
-113
-115
-134
-151
-157
-139
-120
-136
-128
-89
-127
-183
-252
-420
45
1596
2342
791
-960
-884
-211
-168
-179
-17
-13
-36
12
13
26
81
86
69
91
120
139
167
197
223
263
316
379
449
518
580
642
690
704
672
582
429
249
87
-45
-146
-223
-274
-293
-298
-298
-279
-255
-262
-277
-263
-243
-240
-235
-226
-223
-213
-208
-224
-226
-199
-190
-204
-203
-195
-196
-186
-173
-184
-191
-173
-162
-163
-142
-124
-144
-158
-144
-153
-166
-137
-131
-159
-130
-111
-174
-249
-353
-79
1181
2250
1240
-732
-1160
-419
-152
-210
-65
2
-42
4
42
32
58
85
90
114
140
147
166
204
242
282
334
392
456
538
616
673
725
764
742
636
464
267
89
-50
-164
-257
-303
-311
-313
-315
-303
-297
-308
-303
-274
-260
-263
-252
-235
-233
-232
-224
-221
-221
-215
-219
-226
-220
-211
-201
-186
-190
-205
-196
-180
-180
-166
-136
-139
-160
-154
-148
-156
-129
-111
-152
-152
-116
-154
-219
-351
-331
677
2170
1908
-118
-1176
-598
-134
-194
-108
1
-38
-6
43
21
41
85
78
79
116
144
162
192
221
248
291
355
421
489
562
629
688
736
730
635
480
310
140
-16
-138
-218
-262
-282
-297
-311
-312
-296
-278
-269
-262
-254
-251
-244
-227
-220
-227
-229
-220
-205
-193
-203
-220
-216
-200
-195
-190
-180
-182
-191
-183
-167
-159
-149
-136
-141
-152
-148
-145
-137
-125
-142
-140
-98
-124
-182
-254
-424
-3
1540
2417
958
-897
-929
-225
-148
-177
-16
-14
-49
21
33
6
35
62
63
80
111
143
168
181
203
256
318
364
419
498
569
611
648
681
656
547
387
215
55
-82
-181
-237
-271
-302
-319
-309
-294
-291
-285
-271
-260
-252
-240
-234
-236
-233
-223
-214
-207
-207
-211
-206
-196
-191
-182
-176
-185
-197
-199
-191
-175
-154
-136
-132
-137
-133
-130
-141
-140
-130
-137
-119
-101
-148
-184
-294
-386
431
2007
2085
137
-1157
-669
-119
-178
-112
25
-38
-47
33
36
24
57
76
80
107
145
157
161
196
246
282
325
391
462
528
585
630
672
684
621
490
327
157
6
-111
-196
-253
-280
-290
-299
-301
-292
-285
-278
-263
-246
-238
-236
-231
-221
-214
-213
-211
-206
-202
-202
-197
-188
-191
-202
-196
-181
-182
-182
-163
-153
-162
-162
-159
-167
-152
-128
-146
-140
-100
-142
-202
-279
-455
14
1571
2304
739
-996
-886
-195
-161
-187
-33
-40
-66
6
20
12
50
70
70
86
103
117
144
179
215
257
305
362
427
489
544
596
637
648
610
506
348
177
25
-96
-186
-241
-262
-274
-297
-308
-289
-272
-267
-252
-240
-248
-247
-230
-224
-221
-208
-202
-210
-207
-196
-195
-203
-210
-204
-185
-170
-168
-164
-157
-160
-160
-156
-158
-148
-143
-152
-125
-111
-165
-193
-311
-385
505
2013
1862
-120
-1208
-629
-132
-182
-95
14
-39
-22
35
29
40
68
70
87
120
138
153
176
209
252
296
346
415
489
553
612
661
690
700
644
483
282
119
-13
-132
-218
-269
-297
-298
-288
-288
-290
-287
-282
-268
-248
-239
-242
-240
-240
-239
-222
-207
-216
-222
-206
-197
-203
-201
-193
-189
-185
-186
-187
-170
-161
-182
-183
-158
-177
-186
-137
-146
-209
-276
-363
120
1507
2104
564
-1148
-1052
-307
-202
-207
-35
-24
-53
25
53
31
50
80
104
130
140
153
193
229
251
289
354
429
495
554
620
678
711
720
672
526
327
151
10
-113
-206
-261
-287
-299
-310
-315
-302
-283
-275
-266
-247
-233
-231
-232
-228
-227
-231
-231
-225
-220
-213
-205
-202
-199
-187
-181
-191
-192
-172
-157
-164
-167
-162
-164
-155
-140
-158
-156
-114
-136
-178
-243
-438
-65
1449
2351
935
-921
-969
-242
-133
-161
-7
-5
-51
3
18
5
36
62
77
105
120
128
158
199
232
261
301
363
434
497
553
605
646
662
629
520
351
177
29
-96
-192
-251
-279
-291
-291
-286
-282
-271
-253
-246
-251
-245
-229
-217
-213
-212
-213
-212
-209
-202
-193
-191
-197
-202
-202
-195
-178
-170
-173
-156
-135
-147
-162
-151
-153
-160
-139
-138
-142
-109
-125
-178
-241
-432
-148
1307
2384
1157
-800
-1030
-303
-151
-197
-34
-10
-66
-11
19
14
51
68
55
79
119
132
144
176
211
247
298
356
417
487
553
603
642
651
605
509
380
220
45
-96
-176
-226
-277
-305
-297
-289
-297
-298
-279
-259
-253
-252
-239
-220
-216
-224
-219
-204
-199
-203
-200
-191
-185
-187
-188
-177
-164
-169
-177
-172
-164
-154
-130
-123
-139
-135
-124
-140
-133
-103
-122
-132
-99
-136
-207
-311
-371
390
1926
2112
224
-1181
-758
-147
-177
-142
9
-11
-11
49
41
40
77
85
96
131
148
162
205
247
272
306
359
419
492
573
640
693
743
759
686
528
342
158
-10
-136
-220
-274
-297
-302
-315
-326
-321
-310
-307
-302
-284
-262
-253
-254
-244
-229
-229
-231
-219
-218
-234
-229
-207
-207
-216
-206
-198
-207
-200
-175
-165
-164
-147
-136
-150
-163
-164
-163
-146
-143
-171
-142
-90
-138
-214
-332
-372
487
2011
1990
6
-1248
-711
-141
-193
-126
17
-29
-29
41
43
51
82
84
90
123
155
182
203
229
272
318
360
424
510
586
642
693
738
739
660
503
311
128
-25
-143
-217
-262
-295
-313
-308
-296
-290
-283
-274
-274
-271
-253
-240
-243
-237
-214
-202
-205
-203
-199
-204
-203
-192
-193
-204
-204
-194
-184
-175
-174
-178
-162
-134
-132
-139
-121
-109
-127
-135
-131
-139
-128
-103
-110
-102
-88
-139
-191
-319
-400
477
2106
2168
181
-1121
-642
-110
-171
-114
8
-41
-30
44
48
52
74
70
77
102
119
141
180
217
250
293
346
399
454
520
589
643
682
692
631
493
323
160
18
-95
-190
-266
-298
-299
-303
-308
-302
-293
-279
-261
-244
-229
-223
-230
-234
-225
-216
-212
-209
-199
-179
-170
-189
-211
-214
-207
-199
-187
-177
-178
-184
-182
-155
-123
-114
-112
-99
-103
-128
-139
-140
-136
-116
-118
-129
-95
-93
-151
-218
-397
-225
1096
2378
1478
-567
-1081
-359
-110
-204
-75
-6
-51
-12
20
11
41
74
76
89
113
131
149
170
201
247
298
353
422
493
551
604
658
694
685
607
458
278
115
-23
-139
-219
-259
-282
-297
-303
-303
-296
-279
-268
-267
-255
-241
-240
-235
-220
-215
-222
-221
-210
-202
-201
-206
-205
-196
-191
-194
-189
-176
-173
-174
-167
-157
-150
-138
-120
-107
-110
-126
-138
-142
-135
-117
-124
-143
-111
-95
-151
-206
-323
-188
954
2251
1587
-460
-1197
-501
-129
-201
-76
27
-23
-4
45
46
66
91
94
110
140
166
186
206
237
278
321
385
470
547
612
680
742
784
771
660
476
287
115
-47
-170
-237
-280
-315
-327
-319
-321
-338
-337
-313
-294
-288
-274
-260
-250
-232
-219
-226
-228
-215
-216
-229
-223
-209
-207
-210
-205
-198
-199
-203
-191
-163
-159
-175
-156
-119
-127
-159
-160
-153
-158
-137
-118
-140
-138
-127
-168
-216
-351
-340
689
2211
1933
-135
-1198
-584
-109
-193
-109
21
-23
-12
40
25
36
81
91
94
118
142
167
199
229
262
309
368
428
489
560
627
677
717
725
649
491
312
147
-12
-145
-218
-248
-275
-298
-299
-294
-294
-291
-282
-270
-256
-240
-227
-216
-212
-210
-201
-199
-211
-215
-205
-201
-203
-199
-189
-186
-187
-181
-177
-182
-181
-163
-155
-155
-124
-85
-101
-139
-130
-112
-134
-139
-121
-133
-117
-81
-133
-193
-293
-416
301
1933
2262
390
-1101
-734
-133
-173
-143
5
-22
-26
31
18
14
52
68
80
102
117
136
163
190
235
290
321
355
432
518
568
607
659
687
645
533
377
201
32
-99
-184
-246
-289
-299
-291
-292
-293
-279
-266
-261
-252
-244
-240
-235
-228
-218
-202
-197
-208
-207
-191
-191
-202
-198
-187
-184
-182
-176
-172
-173
-170
-159
-153
-148
-126
-102
-111
-136
-137
-133
-144
-134
-118
-128
-115
-104
-163
-204
-300
-386
416
2008
2143
195
-1181
-738
-156
-187
-132
8
-25
-25
33
30
40
74
74
78
113
140
158
184
216
257
313
370
423
483
553
620
685
741
763
710
565
372
194
40
-105
-220
-285
-318
-331
-329
-328
-329
-312
-286
-278
-280
-276
-273
-265
-246
-232
-235
-239
-232
-226
-229
-228
-217
-204
-197
-195
-202
-210
-195
-172
-170
-165
-133
-118
-143
-154
-145
-158
-167
-153
-162
-158
-123
-148
-197
-272
-368
239
1747
2193
450
-1173
-916
-213
-182
-173
5
12
-14
36
49
53
77
85
106
138
154
173
203
237
279
323
362
414
482
553
625
694
747
762
703
558
374
199
38
-98
-191
-252
-293
-307
-306
-301
-291
-287
-289
-271
-247
-248
-246
-225
-217
-227
-229
-227
-225
-213
-201
-198
-196
-194
-197
-192
-185
-196
-207
-188
-169
-166
-140
-107
-118
-144
-137
-137
-157
-138
-115
-141
-134
-111
-162
-214
-335
-373
564
2108
1967
-37
-1157
-598
-124
-199
-121
-5
-54
-40
18
12
19
40
37
51
84
106
131
169
209
241
265
301
364
439
505
560
612
667
696
650
517
339
166
17
-107
-202
-258
-281
-290
-296
-294
-279
-257
-246
-247
-247
-240
-228
-221
-224
-227
-219
-208
-208
-194
-172
-189
-213
-186
-167
-207
-228
-195
-175
-182
-167
-142
-145
-160
-155
-151
-166
-159
-141
-163
-163
-121
-143
-194
-277
-401
179
1728
2274
569
-1119
-926
-224
-179
-173
-9
-19
-45
17
27
27
63
77
96
136
143
144
184
224
244
288
354
418
490
569
636
699
755
767
709
585
405
202
27
-99
-193
-259
-296
-321
-338
-333
-314
-305
-302
-287
-269
-260
-254
-235
-217
-220
-236
-240
-229
-222
-225
-222
-207
-191
-190
-194
-184
-170
-167
-163
-144
-132
-141
-151
-157
-166
-154
-138
-143
-121
-106
-164
-220
-340
-356
590
2119
1970
-61
-1222
-653
-133
-191
-108
28
-15
-10
44
36
41
73
89
106
128
144
168
201
232
267
308
356
419
494
562
617
667
709
711
641
494
304
120
-38
-161
-239
-283
-312
-324
-320
-319
-324
-315
-293
-277
-270
-262
-253
-252
-253
-245
-241
-245
-239
-225
-229
-240
-232
-220
-219
-222
-223
-224
-213
-183
-166
-184
-196
-185
-183
-181
-174
-194
-188
-142
-172
-232
-310
-480
7
1598
2362
784
-999
-921
-239
-204
-218
-55
-64
-94
-23
-6
-18
10
22
22
44
67
89
121
155
185
221
273
330
388
455
528
585
624
645
615
508
346
174
17
-119
-218
-269
-288
-308
-323
-314
-292
-276
-266
-258
-247
-235
-232
-231
-216
-200
-197
-189
-171
-171
-183
-175
-157
-153
-159
-158
-145
-126
-116
-109
-92
-81
-89
-92
-87
-85
-60
-45
-79
-72
-20
-53
-120
-243
-346
433
2061
2291
363
-1074
-647
-44
-93
-53
100
64
59
132
133
126
155
170
184
205
217
238
276
312
341
375
430
507
577
635
704
774
816
818
752
601
405
219
58
-78
-174
-227
-254
-273
-286
-290
-280
-258
-241
-247
-266
-269
-251
-242
-253
-259
-251
-238
-233
-242
-255
-252
-246
-260
-276
-273
-262
-257
-251
-250
-255
-253
-253
-274
-284
-270
-291
-315
-274
-264
-327
-415
-550
-215
1147
2133
946
-1002
-1296
-553
-344
-398
-252
-206
-243
-184
-161
-191
-161
-125
-130
-120
-89
-58
-18
18
39
72
133
203
273
343
417
492
548
566
532
412
225
39
-119
-257
-353
-394
-408
-412
-401
-384
-373
-362
-343
-319
-290
-257
-221
-189
-171
-157
-124
-90
-86
-85
-49
-4
13
26
56
97
133
152
161
186
233
282
319
344
367
394
419
459
514
522
520
601
641
590
579
458
609
2008
3431
2457
466
136
