# session 1
-36
-50
-10
-34
-186
-312
-304
-259
-265
-276
-257
-244
-250
-249
-232
-218
-216
-216
-211
-205
-204
-200
-169
-134
-134
-151
-158
-165
-157
-136
-135
-128
-110
-129
-150
-258
-417
122
1420
1697
223
-964
-646
-82
-54
-62
16
7
22
69
66
77
114
126
137
160
168
178
201
213
214
230
251
255
251
254
255
249
255
269
250
187
125
80
17
-69
-136
-164
-170
-164
-160
-166
-158
-131
-118
-128
-132
-133
-138
-134
-127
-128
-128
-124
-130
-130
-110
-103
-118
-109
-75
-66
-65
-38
-32
-66
-80
-82
-105
-102
-83
-97
-84
-52
-100
-139
-160
-173
382
1427
1345
-231
-1236
-763
-157
-67
-17
56
38
62
99
81
82
113
127
130
144
172
200
210
227
264
292
305
315
315
316
329
334
324
319
293
217
113
15
-67
-134
-186
-215
-216
-212
-221
-220
-201
-194
-204
-209
-201
-188
-186
-197
-196
-177
-166
-160
-138
-123
-135
-137
-117
-118
-130
-113
-97
-111
-122
-125
-145
-143
-120
-126
-134
-133
-161
-193
-300
-317
438
1592
1348
-338
-1221
-664
-130
-98
-33
52
33
56
92
84
98
122
133
163
183
175
186
214
233
259
283
287
301
340
367
373
380
383
362
306
218
112
7
-83
-148
-188
-209
-216
-216
-213
-205
-198
-198
-190
-170
-167
-186
-184
-149
-129
-149
-160
-144
-139
-152
-161
-154
-134
-128
-148
-143
-107
-97
-119
-137
-149
-146
-130
-138
-132
-106
-139
-177
-220
-433
-266
968
1990
1081
-567
-841
-240
-77
-145
-47
-11
-46
-6
36
34
28
32
51
79
95
112
145
181
219
260
282
290
315
353
375
384
395
398
374
305
197
83
-16
-95
-147
-177
-196
-199
-189
-186
-187
-180
-177
-181
-176
-165
-160
-160
-151
-141
-135
-132
-134
-139
-131
-115
-122
-144
-129
-92
-88
-93
-64
-51
-82
-98
-92
-102
-104
-98
-106
-83
-66
-116
-149
-210
-234
398
1460
1320
-195
-1087
-659
-165
-102
-43
20
-2
19
49
33
50
92
101
101
118
137
152
171
192
211
225
241
264
284
292
298
308
314
303
270
213
138
53
-32
-103
-151
-174
-183
-189
-188
-179
-171
-168
-166
-163
-157
-152
-151
-155
-159
-160
-156
-149
-144
-145
-145
-135
-120
-118
-119
-105
-94
-91
-67
-41
-58
-90
-97
-103
-105
-96
-109
-112
-87
-111
-146
-202
-363
-20
1273
1980
720
-855
-878
-242
-110
-107
23
32
6
54
65
55
77
92
96
115
133
146
169
195
215
238
273
309
339
370
400
413
414
408
370
278
153
37
-59
-141
-204
-238
-248
-247
-246
-244
-236
-224
-214
-207
-199
-186
-180
-181
-183
-181
-181
-181
-178
-176
-174
-168
-160
-161
-169
-160
-142
-143
-142
-115
-100
-118
-131
-135
-141
-128
-122
-137
-121
-106
-142
-190
-329
-300
639
1870
1464
-321
-1115
-543
-115
-124
-36
46
12
35
79
75
88
115
124
136
157
173
189
212
239
267
297
333
370
401
428
451
461
455
423
347
232
108
2
-84
-156
-212
-236
-233
-229
-226
-215
-208
-207
-197
-178
-169
-168
-164
-165
-164
-155
-150
-158
-163
-160
-158
-157
-153
-147
-141
-145
-146
-130
-118
-117
-96
-72
-91
-116
-109
-107
-112
-103
-114
-120
-88
-102
-148
-210
-360
-35
1252
2037
840
-796
-905
-270
-109
-111
3
8
-14
35
47
41
74
91
89
104
127
145
161
179
208
244
269
291
323
356
376
390
398
388
349
272
169
67
-18
-92
-154
-192
-213
-224
-222
-209
-199
-191
-178
-165
-158
-151
-148
-148
-144
-142
-145
-147
-147
-144
-142
-147
-148
-138
-131
-132
-131
-126
-124
-123
-118
-112
-110
-120
-126
-113
-99
-97
-74
-36
-42
-80
-87
-84
-93
-88
-89
-99
-74
-76
-119
-150
-283
-184
870
1994
1319
-460
-1025
-418
-94
-104
0
46
7
44
76
63
77
96
100
120
144
154
169
196
219
240
265
295
325
350
375
398
415
420
402
349
263
160
54
-34
-100
-154
-193
-202
-199
-201
-199
-187
-177
-169
-160
-156
-157
-153
-151
-152
-149
-147
-153
-155
-147
-148
-163
-164
-150
-147
-145
-135
-136
-145
-135
-125
-132
-130
-121
-126
-134
-121
-107
-114
-124
-113
-97
-97
-84
-44
-30
-57
-76
-81
-88
-79
-78
-102
-78
-53
-107
-157
-265
-296
545
1943
1853
55
-1022
-568
-98
-121
-61
36
3
10
52
46
55
83
88
98
126
148
160
171
192
228
265
294
328
371
408
429
447
464
457
403
306
185
65
-37
-120
-187
-229
-245
-251
-260
-260
-238
-209
-199
-201
-200
-202
-204
-189
-180
-192
-189
-161
-150
-159
-159
-152
-145
-139
-137
-136
-131
-122
-113
-119
-141
-148
-144
-150
-147
-126
-115
-99
-61
-51
-79
-89
-90
-115
-122
-110
-118
-106
-86
-124
-182
-311
-324
542
1938
1877
132
-951
-555
-119
-138
-64
37
-3
4
50
44
56
86
89
104
137
152
163
189
220
251
287
335
393
447
483
509
533
541
509
420
282
131
2
-99
-178
-233
-266
-290
-300
-292
-282
-274
-261
-248
-240
-228
-210
-200
-199
-190
-183
-183
-183
-179
-180
-181
-177
-170
-165
-164
-164
-157
-151
-152
-143
-130
-132
-138
-119
-96
-98
-95
-69
-62
-84
-102
-110
-110
-92
-93
-108
-80
-64
-104
-149
-290
-279
664
2000
1760
7
-926
-486
-102
-128
-50
35
-4
6
47
52
76
99
85
88
118
139
159
188
211
228
259
306
348
378
411
440
452
455
438
366
243
112
1
-87
-156
-197
-204
-200
-208
-212
-200
-192
-193
-194
-193
-184
-172
-170
-174
-170
-164
-161
-159
-166
-173
-165
-153
-149
-146
-143
-141
-133
-124
-121
-120
-118
-123
-121
-105
-97
-108
-106
-88
-85
-81
-48
-36
-77
-100
-83
-79
-78
-74
-90
-80
-54
-94
-128
-163
-172
419
1519
1531
47
-986
-651
-157
-99
-40
44
16
21
70
76
78
96
109
122
140
154
166
181
207
236
258
280
306
332
359
387
408
415
403
368
302
205
99
8
-69
-133
-174
-190
-195
-199
-193
-178
-170
-177
-181
-167
-149
-152
-165
-161
-146
-142
-148
-155
-161
-163
-161
-162
-163
-158
-153
-152
-150
-141
-136
-139
-133
-116
-109
-102
-85
-83
-105
-116
-115
-127
-128
-117
-124
-117
-100
-119
-125
-178
-261
279
1461
1605
76
-1112
-778
-177
-97
-54
55
41
33
75
84
91
113
124
137
151
157
175
205
230
252
274
300
343
392
424
445
469
482
466
407
293
146
21
-62
-127
-169
-173
-176
-213
-236
-214
-193
-199
-199
-188
-176
-162
-161
-174
-171
-154
-153
-169
-178
-178
-175
-172
-170
-167
-167
-173
-166
-151
-146
-141
-121
-110
-115
-105
-91
-104
-117
-108
-106
-109
-101
-119
-131
-104
-113
-144
-173
-254
84
1208
1794
571
-983
-1027
-317
-85
-71
47
72
49
82
101
110
129
128
132
161
181
195
216
231
251
286
314
333
365
402
423
432
442
442
406
319
201
84
-15
-95
-154
-194
-218
-225
-216
-202
-199
-203
-202
-193
-189
-191
-192
-189
-189
-192
-190
-182
-177
-174
-173
-174
-173
-164
-155
-153
-147
-132
-128
-132
-117
-97
-102
-103
-72
-56
-84
-105
-107
-115
-110
-94
-107
-101
-73
-106
-144
-198
-260
292
1503
1679
134
-1091
-765
-163
-92
-47
67
45
29
75
82
82
108
125
136
153
166
174
187
214
248
273
297
331
365
385
402
430
450
432
375
293
189
69
-35
-106
-159
-197
-205
-198
-200
-200
-189
-187
-193
-189
-177
-169
-169
-175
-182
-179
-171
-168
-167
-163
-161
-156
-149
-153
-163
-156
-132
-124
-133
-129
-114
-117
-121
-92
-67
-89
-114
-120
-130
-128
-112
-122
-122
-101
-128
-161
-219
-307
193
1426
1729
194
-1196
-936
-228
-97
-77
38
36
27
80
90
86
107
116
129
158
176
184
204
233
259
280
306
342
382
415
439
456
465
450
389
281
158
46
-51
-127
-179
-216
-233
-227
-217
-219
-212
-194
-184
-181
-170
-162
-158
-151
-144
-149
-158
-163
-164
-159
-151
-147
-147
-149
-147
-135
-129
-138
-132
-105
-99
-109
-91
-74
-96
-115
-112
-115
-111
-107
-132
-121
-75
-92
-117
-183
-320
113
1322
1708
329
-982
-766
-120
-18
-19
86
82
66
113
126
123
141
150
157
175
186
192
206
219
234
256
271
283
311
341
348
355
377
364
309
243
143
-2
-100
-124
-157
-206
-214
-192
-172
-164
-181
-210
-215
-208
-204
-183
-161
-175
-193
-175
-158
-168
-170
-158
-156
-155
-158
-173
-168
-133
-119
-136
-145
-139
-128
-114
-110
-111
-90
-68
-82
-98
-92
-99
-113
-101
-97
-100
-86
-97
-127
-197
-324
19
1107
1598
441
-872
-801
-171
-17
-43
24
37
39
76
81
89
117
127
139
166
181
192
207
219
242
273
294
320
354
369
373
379
378
375
363
301
187
73
-12
-75
-121
-152
-167
-161
-152
-151
-144
-136
-145
-152
-146
-140
-143
-144
-141
-134
-131
-139
-149
-142
-137
-152
-162
-150
-145
-151
-148
-149
-154
-141
-129
-129
-109
-83
-99
-126
-124
-124
-129
-122
-135
-142
-103
-101
-154
-214
-315
-52
967
1596
568
-873
-965
-323
-106
-98
12
37
8
45
74
75
90
105
119
139
160
178
187
191
214
252
271
273
288
314
332
339
338
316
286
258
199
106
40
-5
-83
-147
-144
-132
-145
-140
-118
-111
-105
-87
-81
-92
-101
-104
-98
-84
-80
-93
-105
-101
-85
-81
-91
-83
-64
-81
-115
-107
-77
-78
-84
-54
-26
-47
-83
-90
-84
-93
-94
-72
-65
-81
-100
-141
-243
-331
-37
803
1326
583
-667
-981
-458
-62
19
46
55
34
24
20
19
18
-1
3
65
122
128
132
154
166
172
180
188
217
266
273
233
230
260
230
182
177
119
-3
-58
-61
-116
-179
-174
-141
-142
-160
-157
-160
-190
-198
-163
-142
-155
-156
-135
-128
-136
-129
-116
-125
-143
-135
-104
-94
-107
-98
-80
-88
-81
-39
-35
-66
-63
-58
-87
-90
-70
-70
-71
-83
-113
-123
-206
-155
587
1458
995
-421
-924
-383
-35
-49
19
86
63
71
95
103
125
138
138
163
187
185
184
197
212
226
246
270
282
279
282
291
283
267
263
247
182
87
10
-41
-92
-140
-169
-185
-186
-168
-149
-151
-165
-173
-171
-173
-171
-160
-158
-158
-143
-143
-163
-160
-142
-137
-127
-115
-117
-114
-94
-79
-69
-58
-62
-72
-80
-102
-113
-92
-94
-122
-98
-78
-121
-154
-218
-139
589
1398
881
-518
-985
-471
-153
-126
-23
28
-5
18
49
47
56
70
89
119
132
136
156
176
190
212
232
243
262
286
296
300
314
323
302
248
182
113
30
-55
-112
-141
-159
-167
-166
-168
-162
-143
-139
-152
-150
-143
-149
-151
-138
-134
-138
-136
-133
-131
-126
-121
-113
-105
-106
-97
-66
-49
-69
-87
-93
-101
-96
-90
-110
-109
-89
-124
-165
-232
-309
209
1389
1618
169
-1042
-774
-207
-151
-128
-22
-36
-45
6
20
27
52
64
78
103
119
131
155
186
210
229
258
295
320
334
354
371
373
362
322
238
131
39
-26
-82
-135
-168
-174
-170
-169
-165
-157
-154
-153
-150
-146
-148
-150
-149
-151
-151
-150
-152
-147
-134
-137
-146
-131
-109
-115
-114
-91
-91
-116
-125
-132
-147
-141
-140
-159
-142
-122
-158
-197
-301
-302
477
1617
1342
-306
-1141
-623
-153
-131
-63
16
-6
17
61
63
77
102
115
134
153
165
187
209
224
248
281
308
333
359
376
383
388
386
361
301
211
111
22
-53
-114
-155
-172
-174
-175
-175
-167
-160
-161
-161
-159
-161
-163
-160
-161
-162
-156
-152
-158
-161
-155
-152
-159
-162
-144
-120
-121
-138
-143
-148
-152
-140
-140
-150
-123
-120
-161
-191
-292
-154
824
1746
958
-730
-1155
-486
-136
-130
-30
12
-17
30
73
69
83
103
111
128
152
172
192
211
231
258
288
320
350
376
393
402
404
390
342
252
146
43
-51
-124
-171
-203
-221
-221
-214
-211
-208
-200
-192
-189
-187
-179
-174
-173
-171
-169
-169
-165
-155
-152
-155
-146
-132
-129
-119
-94
-94
-120
-127
-122
-135
-137
-130
-145
-132
-98
-132
-175
-243
-339
205
1493
1765
201
-1122
-833
-203
-121
-90
22
7
5
59
62
60
90
105
115
137
153
168
192
218
244
273
302
333
368
397
415
429
429
397
321
216
106
8
-77
-142
-182
-202
-210
-209
-204
-197
-185
-176
-172
-165
-159
-159
-158
-153
-154
-160
-158
-144
-134
-144
-154
-142
-132
-136
-122
-97
-108
-132
-132
-135
-143
-130
-132
-146
-119
-120
-161
-193
-332
-222
859
1954
1171
-679
-1195
-494
-129
-141
-36
18
-16
21
54
48
71
93
97
118
144
158
181
209
233
267
310
350
389
430
463
484
492
468
393
273
141
22
-78
-158
-211
-237
-248
-255
-252
-242
-236
-228
-217
-212
-214
-210
-201
-199
-201
-201
-199
-198
-197
-195
-189
-181
-183
-190
-181
-162
-161
-161
-131
-114
-139
-156
-151
-154
-149
-140
-151
-137
-114
-147
-177
-274
-379
276
1649
1814
122
-1162
-793
-172
-119
-83
31
12
12
66
68
71
102
114
125
151
170
187
215
243
272
310
357
404
447
483
513
536
535
487
383
248
116
6
-81
-144
-184
-206
-214
-212
-204
-196
-187
-173
-159
-150
-140
-125
-116
-117
-114
-106
-104
-105
-104
-102
-101
-94
-88
-86
-84
-80
-74
-69
-65
-57
-53
-63
-71
-59
-48
-47
-22
19
22
-6
-17
-10
-11
-15
-17
-17
-9
1
2
