# session 13
-33
-18
-48
-133
-114
57
157
125
118
136
98
48
37
37
18
-14
-23
-10
-13
6
46
11
-31
-83
-217
223
1521
1893
243
-1280
-973
-189
-75
-58
92
82
53
117
134
134
200
266
302
370
473
554
580
566
535
485
391
267
165
82
-22
-122
-166
-173
-194
-221
-220
-204
-202
-205
-205
-204
-208
-235
-265
-250
-217
-228
-243
-217
-209
-219
-189
-188
-233
-257
-384
-328
618
1652
983
-752
-1297
-636
-224
-195
-90
-32
-68
-37
15
30
65
125
186
255
328
388
429
440
418
390
358
288
179
69
-22
-98
-148
-174
-188
-191
-195
-208
-215
-207
-201
-198
-196
-201
-209
-202
-189
-197
-214
-196
-166
-157
-135
-128
-164
-180
-297
-383
361
1600
1356
-468
-1429
-811
-209
-159
-74
36
17
36
86
103
148
206
248
318
412
486
536
559
549
513
457
374
266
154
56
-34
-116
-153
-153
-158
-165
-157
-153
-163
-166
-158
-151
-164
-190
-188
-163
-176
-212
-201
-168
-161
-142
-126
-152
-144
-206
-363
105
1298
1446
-202
-1496
-1064
-277
-124
-80
51
51
48
111
125
131
188
251
311
390
467
514
530
518
487
440
365
254
135
39
-44
-120
-162
-172
-184
-200
-197
-191
-198
-190
-170
-178
-214
-238
-243
-231
-216
-229
-252
-231
-202
-200
-185
-192
-226
-263
-435
-372
676
1766
983
-883
-1402
-667
-263
-252
-122
-50
-90
-69
-32
-10
48
105
148
222
313
389
445
468
444
400
358
289
175
59
-24
-92
-146
-164
-167
-179
-180
-167
-168
-172
-168
-166
-162
-151
-157
-168
-151
-137
-159
-162
-104
-60
-69
-48
-21
-55
-70
-143
-209
464
1670
1537
-193
-1209
-670
-70
-5
71
170
143
161
220
237
280
358
418
476
541
582
593
575
532
490
442
361
253
142
25
-82
-156
-201
-227
-236
-242
-255
-267
-277
-284
-283
-271
-262
-272
-298
-309
-296
-301
-328
-316
-271
-264
-263
-229
-235
-258
-303
-482
-239
967
1708
433
-1299
-1354
-523
-234
-223
-92
-50
-56
-4
16
30
94
151
204
291
383
449
485
492
483
461
400
300
187
81
-14
-89
-140
-170
-181
-178
-173
-175
-178
-180
-187
-185
-168
-157
-169
-179
-165
-152
-174
-192
-167
-145
-143
-107
-84
-111
-118
-234
-321
383
1503
1168
-601
-1452
-781
-164
-103
-14
96
70
83
139
158
189
240
281
346
430
502
561
588
564
518
466
381
267
161
72
-16
-91
-130
-144
-152
-156
-153
-155
-159
-156
-151
-146
-140
-140
-157
-170
-158
-142
-155
-167
-142
-127
-135
-111
-103
-127
-136
-301
-379
487
1712
1260
-610
-1399
-717
-198
-183
-90
-4
-42
-19
29
26
56
119
167
226
305
375
428
454
433
383
323
243
136
23
-75
-159
-223
-257
-266
-267
-267
-269
-261
-247
-243
-244
-240
-242
-251
-254
-251
-246
-240
-241
-254
-254
-223
-183
-140
-83
-80
-118
-125
-280
-354
535
1811
1406
-445
-1232
-572
-90
-92
1
78
24
40
96
106
133
174
202
267
375
471
532
559
539
482
429
384
304
189
96
26
-47
-91
-87
-95
-131
-142
-121
-105
-103
-106
-110
-113
-108
-100
-98
-111
-117
-103
-105
-134
-139
-107
-107
-124
-81
-50
-89
-113
-222
-269
459
1526
1161
-479
-1192
-585
-108
-105
-54
10
-23
-12
18
14
39
90
133
193
275
348
405
444
447
416
374
320
240
134
18
-94
-179
-223
-240
-247
-246
-240
-248
-274
-288
-277
-265
-252
-207
-152
-151
-188
-184
-136
-119
-150
-170
-147
-129
-140
-137
-144
-188
-215
-309
-323
390
1411
1000
-741
-1547
-887
-281
-200
-101
19
29
56
101
131
189
240
270
326
408
485
534
536
513
488
424
313
197
89
-23
-118
-188
-243
-273
-281
-290
-286
-235
-159
-117
-138
-188
-195
-149
-115
-116
-123
-126
-118
-111
-135
-152
-122
-97
-84
-46
-39
-58
-82
-222
-97
855
1614
655
-1010
-1305
-556
-185
-173
-44
41
-3
7
95
152
165
240
393
458
435
539
752
839
809
788
702
505
309
161
72
39
-67
-236
-248
-159
-180
-206
-134
-122
-176
-185
-222
-284
-260
-250
-336
-346
-247
-204
-211
-180
-153
-191
-279
-308
-213
-139
-146
-149
-226
36
1263
2180
941
-1091
-1407
-566
-167
7
295
272
31
-69
-85
-57
46
98
107
215
343
371
418
502
446
325
330
324
174
14
-101
-228
-293
-256
-219
-279
-423
-515
-459
-349
-249
-132
-82
-152
-229
-253
-235
-176
-201
-339
-328
-125
-88
-281
-360
-261
-169
-90
-61
82
894
1794
1154
-608
-1324
-807
-433
-351
-190
-194
-288
-156
-30
-109
-113
92
292
350
332
334
406
528
649
718
677
578
572
575
349
105
175
246
26
-53
143
135
-47
-49
-61
-227
-265
-199
-276
-365
-310
-284
-371
-457
-550
-667
-664
-543
-496
-490
-348
-239
-276
101
1034
1195
-202
-1577
-1393
-489
-185
-307
-230
-32
26
62
209
345
397
434
487
565
663
748
787
709
564
557
631
548
350
178
46
8
13
-117
-286
-237
-23
101
86
97
195
218
116
72
143
148
40
-20
27
92
132
101
-27
-97
-23
32
-30
-164
-100
680
1653
1151
-716
-1678
-1054
-371
-314
-324
-235
-244
-307
-268
-163
-171
-210
-32
173
151
189
410
415
237
304
490
484
385
250
28
-152
-278
-378
-364
-468
-791
-785
-398
-348
-542
-247
252
245
-17
-51
-25
-149
-354
-534
-539
-394
-324
-304
-253
-297
-342
-215
202
1101
1676
555
-1346
-1778
-952
-419
-224
-33
-54
-56
134
182
132
214
255
220
331
554
710
739
694
702
767
702
460
190
-17
-122
-116
-125
-209
-237
-219
-311
-427
-415
-387
-435
-429
-332
-247
-180
-106
-59
-37
2
85
222
293
196
97
81
2
-79
-116
-62
762
2120
1943
22
-983
-388
-68
-359
-332
-69
83
150
89
13
69
135
192
277
264
211
288
365
348
415
527
442
252
170
95
-81
-221
-226
-145
-82
-116
-158
-80
1
-52
-116
-68
7
15
-1
-11
-93
-234
-280
-240
-246
-254
-191
-175
-328
-465
10
1139
1479
72
-1505
-1595
-944
-667
-579
-404
-263
-145
-58
-60
-44
38
113
194
332
509
600
515
423
462
465
395
385
274
-29
-227
-238
-282
-352
-340
-279
-220
-199
-221
-248
-329
-444
-414
-319
-415
-527
-391
-235
-248
-233
-184
-242
-235
-136
-187
-243
-199
-213
410
1921
2194
154
-1534
-1086
-211
-97
-6
247
255
175
218
286
314
314
327
412
551
665
715
717
688
616
520
412
232
13
-71
-65
-188
-356
-336
-222
-197
-177
-70
29
63
47
0
31
128
33
-211
-220
-58
-93
-225
-211
-232
-405
-426
-251
-193
178
1354
1912
404
-1492
-1602
-759
-473
-477
-305
-214
-280
-303
-200
-29
110
218
325
388
429
521
616
643
616
588
551
436
255
79
-103
-218
-139
-114
-369
-488
-197
-20
-223
-320
-188
-221
-395
-450
-449
-460
-418
-360
-303
-250
-264
-269
-206
-201
-274
-387
-339
508
1746
1463
-409
-1393
-761
-164
-80
124
292
250
281
273
121
121
247
279
348
519
604
646
781
872
791
630
477
337
221
114
-40
-244
-391
-390
-339
-377
-424
-352
-233
-185
-209
-265
-309
-311
-286
-278
-305
-311
-253
-210
-215
-198
-203
-241
-272
-480
-380
1030
2505
1530
-822
-1474
-715
-414
-351
-77
-93
-230
-81
60
75
164
240
223
246
311
366
459
539
472
321
264
267
201
146
153
57
-65
24
115
-57
-204
-119
-66
-116
-116
-161
-267
-216
-70
-91
-214
-241
-207
-215
-209
-144
-143
-302
-496
-299
668
1626
990
-947
-1942
-1342
-614
-438
-309
-127
-79
-44
43
69
73
142
212
286
429
528
549
671
833
817
691
558
385
269
232
77
-166
-286
-283
-230
-152
-176
-323
-387
-309
-257
-292
-322
-297
-258
-298
-408
-404
-271
-264
-408
-490
-454
-412
-528
-531
457
2029
1970
-9
-1282
-793
-162
-138
-105
23
12
-16
34
112
199
309
431
521
603
749
871
824
685
627
644
594
426
236
114
4
-163
-281
-238
-142
-125
-158
-206
-274
-312
-288
-260
-280
-354
-421
-376
-241
-173
-228
-281
-267
-251
-160
19
-78
-158
855
2159
1404
-814
-1603
-834
-370
-371
-224
-135
-178
-161
-171
-189
-97
-26
-9
97
240
329
446
571
591
577
599
524
339
211
130
-1
-108
-145
-171
-158
-118
-137
-165
-156
-207
-267
-211
-146
-174
-183
-117
-72
-117
-214
-257
-252
-318
-463
-535
-140
935
1588
388
-1642
-2171
-1247
-547
-407
-265
-121
-88
-48
1
54
169
302
444
660
830
858
915
1034
1028
930
843
673
461
316
142
-57
-141
-178
-261
-290
-242
-213
-194
-161
-174
-232
-240
-209
-247
-330
-356
-366
-395
-336
-227
-262
-326
-277
-378
-289
873
2113
1283
-833
-1534
-816
-416
-412
-220
-138
-244
-145
70
81
18
126
309
404
463
557
621
601
509
400
356
368
304
104
-109
-219
-252
-256
-233
-223
-241
-224
-171
-155
-188
-232
-251
-221
-183
-172
-154
-147
-188
-190
-148
-200
-238
-193
-326
-132
1203
2280
1068
-1038
-1451
-700
-375
-303
-104
-59
-110
-98
-130
-140
-8
117
136
185
344
530
695
802
789
723
670
520
297
217
200
26
-136
-107
-106
-204
-186
-113
-168
-246
-253
-262
-271
-239
-187
-135
-99
-101
-135
-167
-182
-255
-372
-400
-355
-7
1076
1934
938
-1031
-1618
-824
-233
-163
-121
-53
-45
-63
-67
-19
53
91
113
157
243
371
477
502
482
496
533
470
260
33
-93
-178
-290
-349
-334
-354
-382
-324
-283
-343
-385
-372
-390
-415
-382
-335
-329
-326
-296
-287
-284
-224
-181
-203
-247
-321
64
1460
2522
1378
-715
-1212
-463
-104
-106
27
76
-44
-86
16
131
197
313
478
552
609
761
810
697
695
781
679
444
277
161
-2
-208
-331
-285
-218
-264
-315
-278
-228
-220
-244
-291
-321
-305
-302
-356
-415
-418
-347
-260
-267
-322
-307
-350
-274
655
1905
1442
-684
-1845
-1240
-558
-463
-355
-193
-162
-123
-66
-46
-11
21
39
119
251
349
390
408
438
470
441
337
236
173
114
46
-2
-26
-35
-38
-33
10
85
112
37
-57
-65
-67
-169
-229
-120
-52
-159
-193
-83
-76
-155
-213
-235
361
1644
1803
40
-1380
-1046
-399
-300
-138
55
-42
-102
22
79
65
132
244
292
308
378
450
431
392
422
453
426
357
230
71
-37
-115
-192
-189
-141
-175
-231
-224
-252
-339
-381
-386
-406
-405
-383
-368
-354
-373
-400
-362
-345
-396
-433
-535
-378
755
1954
1237
-740
-1471
-841
-401
-324
-146
-40
-49
18
81
109
200
263
233
290
474
581
587
657
731
672
582
542
442
259
107
18
-48
-105
-133
-115
-98
-128
-159
-157
-151
-135
-104
-101
-147
-218
-261
-244
-204
-157
-100
-109
-135
-124
-207
109
1425
2287
888
-1218
-1564
-822
-513
-379
-120
-86
-151
-111
-127
-157
-35
146
248
295
365
469
539
531
490
458
460
464
311
-23
-310
-460
-588
-674
-632
-524
-427
-363
-357
-382
-382
-353
-289
-197
-150
-150
-151
-186
-239
-242
-260
-326
-409
-565
-273
1120
2285
1295
-636
-1052
-368
-102
-112
22
59
43
137
195
192
239
293
330
432
562
622
628
573
436
348
377
372
260
143
61
-18
-81
-122
-158
-190
-203
-204
-229
-286
-330
-329
-301
-284
-278
-265
-260
-276
-254
-205
-227
-270
-324
-370
247
1681
2067
274
-1506
-1369
-556
-344
-261
-59
-33
-65
-9
15
14
73
173
264
327
387
482
579
620
618
594
529
405
251
116
10
-89
-170
-209
-222
-241
-266
-274
-263
-249
-239
-225
-223
-261
-300
-282
-256
-279
-267
-220
-237
-272
-362
-395
387
1769
1716
-173
-1430
-1036
-508
-443
-297
-150
-165
-138
-76
-39
36
101
124
177
276
412
555
647
711
773
736
527
248
85
64
14
-129
-213
-194
-201
-240
-235
-221
-229
-225
-225
-244
-244
-235
-255
-264
-271
-337
-384
-355
-370
-466
-609
-580
295
1721
1739
-67
-1341
-999
-494
-481
-350
-124
-83
-51
2
-21
17
147
234
301
435
582
694
791
824
759
699
693
625
448
268
148
75
34
-4
-44
-44
-31
-48
-43
-27
-94
-165
-132
-109
-144
-130
-152
-267
-276
-208
-268
-368
-430
-229
802
1885
1095
-1043
-1919
-1195
-560
-426
-268
-132
-125
-93
-28
13
48
85
150
253
357
465
602
712
741
728
679
525
293
119
8
-118
-227
-282
-339
-390
-397
-400
-408
-390
-372
-360
-327
-333
-427
-500
-474
-419
-375
-338
-356
-402
-479
-595
-174
1097
1702
352
-1280
-1273
-499
-244
-177
19
69
38
110
197
253
320
385
441
508
592
706
833
907
909
882
811
675
552
460
305
104
-21
-60
-101
-159
-169
-132
-149
-242
-323
-348
-343
-330
-333
-350
-325
-279
-289
-300
-287
-332
-362
-382
-411
274
1758
1972
-18
-1702
-1413
-647
-472
-368
-242
-269
-209
-58
3
33
71
84
118
177
229
319
437
478
441
430
428
329
157
21
-70
-160
-222
-237
-251
-261
-248
-253
-282
-289
-272
-245
-187
-136
-133
-138
-138
-137
-97
-81
-160
-212
-282
-325
479
2058
2230
260
-1265
-912
-274
-233
-115
110
91
17
32
57
121
216
260
251
241
293
432
590
664
628
540
439
295
114
-15
-80
-144
-190
-198
-218
-230
-191
-158
-166
-178
-208
-254
-259
-222
-211
-261
-317
-288
-210
-209
-295
-452
-368
625
1904
1436
-677
-1792
-1169
-522
-442
-306
-152
-160
-106
-12
-52
-91
-19
30
36
152
343
442
485
561
598
543
452
343
216
118
62
