# session 40
26
21
33
38
19
9
22
39
51
64
77
95
116
134
149
161
177
203
228
243
270
313
348
378
420
463
498
532
549
507
398
256
107
-28
-123
-177
-213
-233
-230
-223
-222
-220
-218
-214
-194
-182
-194
-193
-169
-161
-171
-170
-165
-167
-164
-159
-162
-162
-154
-147
-146
-144
-130
-103
-96
-114
-121
-117
-122
-119
-117
-120
-93
-90
-130
-173
-303
-191
800
1792
1110
-480
-880
-288
-51
-104
-14
25
-13
20
47
40
59
83
91
104
118
132
152
173
199
230
255
287
336
383
416
448
486
503
465
374
245
90
-57
-146
-188
-227
-261
-272
-268
-257
-243
-233
-226
-222
-220
-215
-209
-203
-196
-191
-194
-192
-179
-170
-173
-174
-166
-155
-153
-166
-165
-139
-131
-142
-117
-79
-93
-121
-117
-118
-124
-109
-107
-103
-82
-110
-137
-178
-304
41
1188
1707
514
-781
-679
-133
-69
-73
27
14
5
56
53
45
80
97
98
114
131
148
168
185
208
233
251
284
339
381
408
453
496
488
435
349
219
75
-33
-112
-179
-215
-222
-229
-235
-225
-211
-209
-210
-201
-188
-182
-181
-180
-176
-170
-166
-168
-168
-161
-155
-155
-146
-131
-132
-146
-142
-126
-115
-99
-86
-100
-117
-111
-111
-122
-106
-90
-105
-102
-96
-116
-131
-239
-219
590
1620
1199
-336
-927
-400
-83
-113
-19
48
-3
12
57
57
62
82
94
104
119
140
159
171
197
231
246
267
319
367
390
420
468
496
470
390
270
136
13
-82
-145
-188
-220
-237
-232
-224
-229
-233
-221
-205
-199
-196
-194
-193
-185
-169
-166
-178
-178
-167
-168
-176
-165
-149
-156
-165
-151
-138
-138
-124
-106
-111
-115
-113
-128
-132
-113
-121
-126
-94
-106
-142
-181
-310
-43
1093
1810
733
-758
-838
-225
-79
-97
13
23
-9
31
46
43
73
100
113
127
134
143
166
192
223
259
290
322
370
428
473
501
534
555
508
381
225
78
-50
-140
-201
-253
-280
-273
-262
-264
-260
-243
-230
-231
-231
-219
-207
-207
-208
-204
-202
-198
-192
-187
-186
-182
-174
-169
-167
-166
-167
-168
-155
-129
-117
-130
-135
-127
-134
-140
-132
-136
-122
-95
-125
-160
-239
-354
201
1550
1886
344
-973
-691
-115
-92
-73
36
11
7
60
58
65
99
110
127
152
155
171
209
228
245
291
342
376
424
485
527
559
595
592
504
352
179
15
-112
-193
-248
-279
-285
-288
-296
-290
-274
-267
-264
-254
-241
-232
-225
-220
-212
-198
-188
-193
-199
-191
-180
-180
-183
-180
-174
-172
-167
-151
-129
-129
-147
-146
-138
-144
-136
-129
-143
-123
-104
-142
-185
-309
-269
661
1846
1401
-325
-1006
-421
-74
-126
-34
36
-12
16
58
46
68
99
93
106
142
158
168
195
221
246
281
320
364
420
472
514
551
564
522
414
260
99
-30
-124
-193
-238
-254
-255
-264
-275
-267
-243
-232
-233
-225
-207
-201
-203
-196
-189
-188
-187
-181
-176
-173
-173
-171
-160
-157
-164
-161
-145
-141
-139
-125
-118
-124
-121
-120
-126
-119
-120
-123
-92
-91
-136
-184
-315
-151
921
1909
1132
-511
-889
-285
-61
-115
-13
34
-4
25
50
45
77
111
109
101
118
148
170
188
221
258
280
305
355
414
464
504
532
538
499
401
255
91
-49
-136
-190
-232
-253
-253
-256
-263
-257
-244
-237
-231
-221
-214
-211
-202
-191
-185
-181
-179
-178
-172
-170
-177
-176
-164
-156
-152
-148
-147
-144
-140
-141
-131
-103
-86
-96
-112
-111
-110
-119
-115
-107
-116
-98
-79
-119
-155
-253
-295
451
1723
1654
21
-935
-488
-70
-119
-57
43
1
4
54
51
56
83
93
105
128
143
158
182
209
231
255
289
332
379
430
479
519
541
522
444
315
164
19
-98
-176
-219
-244
-264
-269
-258
-247
-242
-240
-237
-225
-208
-207
-217
-206
-184
-179
-184
-176
-172
-178
-177
-169
-169
-168
-161
-160
-164
-163
-153
-145
-136
-116
-102
-110
-126
-132
-125
-106
-110
-126
-101
-94
-136
-165
-287
-265
649
1844
1443
-239
-926
-381
-62
-130
-49
34
3
21
49
44
73
104
98
98
121
146
166
186
218
258
289
318
368
431
481
521
563
589
557
453
300
135
-13
-125
-196
-238
-267
-278
-270
-266
-272
-269
-254
-242
-232
-224
-220
-210
-199
-200
-199
-193
-191
-187
-176
-174
-179
-176
-167
-160
-146
-133
-142
-163
-166
-149
-130
-114
-102
-105
-113
-114
-122
-131
-117
-110
-114
-85
-80
-131
-179
-281
-128
886
1908
1213
-492
-984
-361
-75
-122
-9
52
9
50
83
60
80
118
124
137
164
179
193
225
258
276
298
347
409
461
507
559
608
628
593
477
300
119
-30
-143
-214
-251
-276
-288
-285
-280
-280
-271
-257
-250
-244
-231
-218
-216
-216
-204
-187
-185
-188
-187
-185
-181
-174
-176
-177
-164
-156
-161
-154
-145
-160
-167
-143
-130
-138
-119
-75
-73
-112
-125
-114
-120
-119
-108
-121
-110
-78
-112
-156
-243
-350
241
1604
1906
377
-868
-586
-89
-101
-68
36
-6
-6
55
51
52
84
87
92
126
147
151
166
200
236
257
280
334
393
433
470
515
548
551
494
362
198
52
-63
-151
-213
-242
-247
-254
-268
-267
-253
-245
-237
-219
-200
-191
-194
-197
-196
-198
-194
-183
-179
-178
-167
-155
-152
-154
-157
-164
-164
-156
-144
-135
-139
-147
-128
-90
-81
-99
-105
-107
-113
-97
-83
-101
-89
-65
-109
-146
-216
-307
295
1609
1813
259
-914
-575
-69
-83
-54
47
5
-1
60
63
59
87
96
100
124
149
163
176
194
217
243
281
327
368
413
466
504
524
521
462
336
180
30
-93
-172
-215
-245
-260
-258
-258
-261
-252
-240
-240
-237
-222
-210
-206
-202
-192
-182
-184
-191
-184
-175
-176
-173
-159
-152
-156
-160
-159
-151
-140
-134
-138
-149
-151
-128
-111
-112
-93
-63
-71
-100
-105
-105
-111
-97
-98
-118
-86
-63
-118
-169
-279
-249
652
1880
1525
-201
-959
-405
-52
-117
-30
52
2
26
80
68
72
102
116
129
148
159
178
211
238
260
295
340
388
442
494
541
592
632
623
534
369
179
27
-85
-185
-257
-284
-287
-285
-282
-283
-283
-275
-267
-260
-244
-235
-238
-232
-220
-218
-215
-207
-208
-209
-202
-200
-201
-184
-164
-171
-186
-174
-158
-162
-156
-130
-123
-136
-137
-140
-143
-125
-123
-146
-131
-111
-147
-187
-271
-186
687
1790
1361
-358
-1109
-524
-95
-119
-41
43
10
36
83
78
89
116
130
153
175
186
207
236
262
294
338
385
439
508
575
625
666
684
630
489
311
142
-12
-148
-238
-269
-275
-295
-318
-313
-290
-282
-286
-279
-258
-243
-236
-233
-231
-226
-214
-207
-208
-205
-192
-183
-192
-200
-183
-168
-179
-186
-175
-170
-172
-167
-155
-136
-124
-130
-135
-134
-132
-123
-128
-138
-109
-102
-146
-195
-325
-169
941
2037
1294
-462
-918
-286
-56
-133
-18
31
-11
59
119
92
89
119
131
131
130
138
162
196
240
283
315
363
434
491
539
608
666
667
601
470
291
113
-43
-166
-238
-280
-317
-336
-330
-312
-299
-297
-294
-274
-257
-264
-272
-264
-252
-243
-238
-231
-214
-201
-204
-208
-203
-199
-196
-197
-202
-191
-166
-152
-150
-140
-130
-145
-167
-155
-138
-155
-146
-104
-125
-174
-263
-375
171
1566
2043
566
-868
-689
-96
-79
-107
10
17
14
59
47
42
93
126
123
127
143
163
193
224
248
282
340
402
461
529
584
612
634
635
539
341
140
-3
-119
-219
-274
-291
-310
-328
-318
-297
-294
-296
-281
-268
-263
-252
-236
-221
-206
-208
-222
-214
-193
-189
-191
-186
-191
-194
-173
-162
-182
-189
-170
-153
-140
-130
-130
-128
-128
-143
-145
-125
-118
-101
-89
-130
-164
-267
-391
256
1709
2032
458
-820
-528
-24
-74
-83
24
3
4
59
61
62
84
88
101
130
143
155
181
206
239
287
329
363
420
489
536
568
608
614
517
334
146
-8
-130
-209
-251
-282
-300
-291
-280
-288
-291
-271
-259
-266
-253
-220
-222
-247
-229
-196
-208
-227
-203
-179
-184
-191
-195
-195
-184
-187
-208
-196
-161
-152
-154
-147
-147
-143
-133
-139
-141
-140
-145
-121
-110
-151
-217
-366
-220
869
1949
1233
-464
-904
-302
-84
-142
-19
15
-56
-2
67
51
51
88
105
105
121
155
178
189
225
290
334
353
405
492
549
567
600
633
584
440
275
125
-27
-148
-207
-244
-282
-291
-279
-274
-254
-220
-215
-223
-202
-178
-185
-194
-177
-160
-162
-156
-143
-154
-167
-152
-135
-133
-128
-121
-124
-126
-124
-127
-123
-112
-117
-130
-124
-114
-122
-125
-129
-143
-126
-108
-135
-147
-205
-121
781
1949
1453
-523
-1460
-805
-218
-170
-63
55
20
25
76
77
77
94
100
121
153
158
158
189
229
252
281
330
367
386
427
499
554
564
533
453
320
161
10
-101
-164
-210
-253
-267
-270
-286
-289
-257
-233
-231
-226
-221
-223
-209
-180
-171
-186
-187
-175
-182
-198
-185
-163
-168
-172
-151
-137
-151
-164
-156
-134
-123
-136
-148
-142
-145
-153
-134
-129
-139
-108
-104
-156
-195
-271
-38
1054
1968
1039
-731
-1114
-427
-132
-144
-7
59
30
64
84
78
111
132
127
148
185
210
228
250
277
308
343
388
442
497
559
630
682
678
606
466
277
86
-68
-180
-251
-281
-294
-309
-316
-314
-314
-306
-289
-279
-274
-260
-245
-245
-255
-251
-233
-225
-230
-222
-203
-196
-203
-212
-208
-190
-175
-168
-151
-143
-157
-166
-161
-167
-163
-138
-142
-150
-122
-132
-172
-226
-374
-110
1127
2052
1047
-629
-878
-258
-86
-121
1
32
5
52
64
47
72
96
115
144
154
166
198
220
242
289
339
382
441
505
555
610
667
673
587
422
228
48
-101
-205
-251
-264
-286
-306
-305
-299
-294
-280
-270
-270
-261
-245
-236
-232
-235
-236
-220
-206
-221
-235
-213
-186
-185
-194
-197
-198
-201
-201
-183
-159
-154
-164
-164
-159
-152
-147
-155
-143
-116
-144
-181
-241
-370
59
1403
2060
734
-823
-802
-185
-99
-109
19
20
3
60
64
68
131
139
89
94
147
171
182
218
251
274
322
390
445
495
556
606
628
613
532
372
183
25
-92
-173
-221
-255
-285
-303
-301
-283
-260
-249
-247
-235
-226
-231
-222
-199
-198
-205
-193
-183
-191
-189
-172
-168
-173
-165
-157
-170
-173
-154
-140
-139
-137
-139
-140
-132
-122
-122
-143
-145
-100
-98
-152
-191
-325
-239
792
1950
1364
-368
-942
-345
-57
-128
-46
14
-24
8
52
50
57
73
88
109
117
123
149
177
199
229
267
308
356
404
447
483
513
533
511
406
243
93
-22
-125
-212
-251
-250
-258
-277
-272
-254
-249
-245
-229
-220
-219
-214
-205
-207
-207
-191
-180
-195
-200
-180
-170
-178
-173
-162
-169
-176
-165
-149
-144
-144
-133
-119
-127
-154
-149
-113
-116
-131
-96
-98
-154
-202
-342
-184
943
2019
1247
-478
-907
-293
-66
-128
-20
29
-15
18
56
54
72
97
109
120
134
158
183
198
220
260
309
365
418
466
524
583
628
647
598
451
259
93
-40
-162
-251
-285
-290
-289
-282
-285
-298
-287
-262
-262
-264
-240
-223
-235
-235
-218
-220
-227
-211
-197
-200
-195
-188
-197
-198
-179
-168
-157
-129
-119
-140
-158
-160
-154
-131
-122
-138
-120
-103
-146
-178
-281
-349
394
1739
1758
120
-917
-511
-85
-133
-74
39
7
5
52
53
54
74
89
108
123
130
152
183
207
236
278
317
356
405
458
501
540
566
536
427
268
103
-35
-134
-199
-234
-249
-261
-266
-261
-257
-250
-237
-232
-233
-219
-207
-204
-199
-198
-206
-202
-182
-168
-169
-170
-160
-150
-151
-161
-166
-153
-137
-136
-129
-102
-89
-104
-113
-114
-127
-126
-112
-120
-110
-80
-105
-142
-231
-404
44
1403
1985
671
-705
-603
-99
-94
-100
8
-15
-24
37
38
24
42
53
73
104
116
130
158
178
201
239
277
321
388
449
481
519
571
579
495
336
158
15
-87
-178
-244
-265
-276
-301
-315
-309
-297
-281
-263
-251
-250
-250
-250
-243
-228
-218
-218
-214
-204
-201
-193
-171
-166
-186
-189
-166
-160
-164
-142
-113
-114
-125
-125
-131
-133
-118
-118
-116
-83
-87
-124
-189
-441
-416
763
2156
1697
-51
-738
-272
-45
-115
-35
9
-36
-3
41
42
59
75
82
110
139
158
186
216
236
266
310
353
395
451
522
588
629
628
563
420
226
44
-86
-172
-233
-271
-289
-292
-289
-285
-286
-288
-278
-256
-247
-257
-251
-227
-221
-232
-224
-203
-195
-192
-182
-184
-191
-181
-176
-189
-184
-162
-161
-158
-128
-118
-142
-152
-140
-135
-131
-134
-131
-93
-89
-147
-199
-352
-347
623
1941
1576
-230
-1032
-453
-58
-111
-36
45
4
29
79
65
66
100
111
100
111
158
200
211
226
263
293
323
382
465
547
595
608
626
629
523
318
132
6
-109
-216
-271
-280
-292
-308
-293
-262
-261
-271
-257
-250
-272
-279
-244
-231
-263
-270
-236
-226
-237
-223
-206
-209
-208
-209
-222
-225
-212
-205
-212
-215
-200
-197
-221
-220
-193
-198
-203
-176
-180
-219
-268
-56
916
1925
1192
-858
-1700
-930
-275
-182
-55
55
32
62
109
108
137
179
192
212
243
268
301
335
370
421
476
526
596
673
727
786
857
861
752
573
368
161
-15
-144
-230
-281
-309
-314
-296
-283
-286
-272
-239
-219
-218
-215
-204
-188
-180
-181
-169
-154
-158
-144
-110
-113
-126
-101
-100
-134
-122
-92
-112
-124
-100
-96
