# session 2
-8
-19
26
22
-105
-222
-211
-154
-128
-101
-59
-25
11
59
107
156
213
272
324
363
393
408
381
294
169
38
-79
-169
-227
-267
-293
-298
-290
-283
-269
-253
-246
-240
-222
-204
-194
-183
-171
-162
-156
-153
-146
-134
-129
-130
-122
-113
-112
-111
-103
-93
-89
-83
-73
-66
-65
-62
-58
-57
-52
-43
-41
-40
-29
-24
-33
-32
-17
-12
-10
22
52
34
3
-5
-11
-14
-4
-12
-16
6
-13
-47
-94
-226
93
1283
1936
715
-840
-863
-173
4
-15
94
103
68
111
135
129
146
160
165
181
197
211
231
254
280
313
349
385
421
457
492
516
528
520
466
358
225
97
-16
-106
-168
-210
-235
-243
-242
-238
-234
-230
-222
-213
-207
-203
-198
-194
-191
-185
-181
-182
-182
-173
-170
-177
-182
-178
-173
-170
-168
-170
-169
-162
-157
-154
-153
-152
-152
-148
-143
-141
-136
-127
-122
-124
-128
-131
-126
-115
-109
-96
-62
-43
-65
-90
-92
-95
-93
-87
-104
-96
-60
-81
-117
-176
-286
155
1372
1782
388
-976
-788
-149
-55
-56
49
39
25
74
82
79
106
117
121
140
157
173
197
221
244
270
301
336
376
416
448
469
478
467
420
333
223
107
-2
-88
-144
-175
-192
-198
-195
-186
-177
-178
-180
-172
-158
-155
-158
-155
-149
-146
-141
-140
-141
-142
-143
-144
-139
-133
-132
-133
-127
-124
-125
-125
-121
-118
-120
-121
-115
-105
-100
-103
-108
-99
-84
-90
-104
-92
-78
-87
-79
-36
-25
-61
-79
-72
-75
-77
-80
-91
-71
-58
-94
-117
-187
-135
648
1653
1198
-480
-1192
-572
-85
-70
1
75
49
77
116
106
119
150
155
165
189
206
225
247
268
299
336
370
410
460
502
527
549
565
541
448
306
165
40
-74
-163
-210
-233
-248
-255
-254
-248
-238
-230
-228
-223
-214
-207
-200
-193
-189
-186
-181
-178
-177
-174
-170
-168
-169
-168
-167
-163
-158
-155
-150
-145
-143
-138
-131
-133
-135
-124
-120
-119
-96
-68
-69
-83
-101
-128
-130
-111
-118
-122
-95
-110
-136
-172
-302
-17
1101
1713
514
-1012
-1022
-295
-75
-71
48
69
46
94
110
99
125
149
159
180
197
208
231
263
293
326
359
397
447
493
525
552
572
555
481
357
214
79
-34
-122
-185
-223
-237
-242
-245
-240
-229
-220
-214
-209
-201
-192
-185
-183
-182
-180
-177
-175
-172
-168
-162
-162
-169
-169
-158
-155
-157
-152
-145
-141
-130
-124
-130
-121
-105
-114
-114
-77
-61
-89
-104
-99
-104
-102
-98
-103
-84
-77
-115
-139
-226
-206
590
1712
1375
-329
-1152
-570
-72
-74
-22
58
28
39
78
77
93
120
125
136
158
169
181
205
235
268
303
339
382
426
459
482
500
502
468
384
261
131
17
-77
-149
-194
-219
-232
-234
-227
-219
-215
-209
-200
-193
-188
-181
-176
-175
-175
-172
-169
-165
-162
-162
-163
-160
-158
-158
-154
-151
-149
-144
-142
-138
-125
-121
-134
-137
-121
-114
-105
-73
-59
-83
-96
-94
-105
-106
-96
-108
-98
-76
-111
-143
-203
-257
336
1531
1612
33
-1117
-722
-115
-62
-41
54
32
30
82
86
86
113
125
131
147
163
181
205
228
252
280
313
348
385
422
452
468
473
458
398
291
170
61
-33
-108
-158
-189
-205
-209
-204
-198
-193
-184
-174
-171
-170
-165
-158
-159
-165
-165
-161
-157
-156
-157
-157
-156
-154
-152
-149
-148
-142
-134
-136
-139
-128
-119
-128
-127
-107
-104
-103
-71
-52
-81
-105
-101
-106
-106
-96
-107
-101
-76
-100
-134
-202
-254
318
1469
1539
-23
-1176
-789
-154
-72
-51
41
31
38
85
84
85
115
131
142
163
182
201
225
248
267
291
329
377
419
449
479
505
518
501
431
309
175
60
-41
-126
-183
-219
-242
-244
-232
-223
-222
-217
-204
-195
-195
-196
-190
-185
-186
-185
-180
-178
-181
-178
-172
-169
-165
-158
-156
-156
-144
-135
-143
-144
-122
-114
-118
-98
-80
-100
-116
-114
-121
-121
-112
-123
-115
-88
-111
-136
-186
-249
241
1321
1449
-35
-1231
-892
-209
-77
-44
64
58
51
100
109
110
139
155
164
186
203
215
236
265
294
322
354
396
440
473
497
517
527
503
423
299
163
40
-63
-141
-192
-221
-233
-233
-228
-224
-218
-210
-204
-196
-190
-185
-181
-175
-171
-167
-163
-164
-167
-167
-164
-162
-160
-158
-154
-143
-139
-145
-132
-108
-107
-109
-87
-84
-114
-127
-121
-128
-125
-113
-119
-108
-95
-125
-137
-193
-245
354
1486
1449
-162
-1225
-746
-109
-49
-30
59
41
45
92
91
94
125
138
143
160
176
192
215
239
261
287
320
357
395
428
448
458
462
441
368
252
130
23
-65
-132
-178
-203
-210
-210
-207
-201
-195
-190
-183
-178
-176
-171
-168
-169
-167
-164
-162
-159
-156
-158
-160
-156
-152
-150
-149
-148
-148
-144
-129
-125
-134
-125
-102
-98
-95
-67
-59
-89
-107
-103
-107
-106
-101
-112
-97
-78
-115
-145
-206
-224
424
1532
1403
-219
-1195
-685
-100
-64
-32
52
26
31
77
77
84
111
121
133
155
166
178
203
231
256
281
313
347
379
408
434
451
451
428
372
277
164
57
-33
-102
-148
-172
-181
-184
-184
-177
-164
-158
-158
-156
-149
-146
-148
-150
-148
-147
-147
-144
-144
-148
-152
-149
-145
-142
-141
-140
-140
-136
-125
-122
-131
-122
-100
-99
-99
-67
-49
-81
-110
-111
-114
-109
-103
-118
-116
-99
-124
-149
-211
-239
357
1443
1403
-159
-1230
-814
-193
-95
-45
56
40
34
78
88
94
117
131
148
172
189
204
222
244
271
296
324
367
412
435
448
464
469
444
380
275
151
39
-49
-124
-182
-214
-222
-221
-218
-210
-204
-200
-192
-181
-177
-176
-174
-173
-172
-169
-166
-164
-164
-166
-163
-155
-149
-148
-146
-139
-137
-135
-120
-107
-114
-114
-91
-83
-103
-117
-124
-127
-117
-113
-118
-99
-101
-129
-145
-222
-103
729
1530
806
-803
-1258
-564
-115
-78
13
75
53
81
112
105
124
154
165
180
202
219
239
263
284
310
344
379
414
450
477
497
511
504
449
343
214
89
-20
-106
-166
-203
-221
-225
-222
-220
-215
-203
-192
-188
-183
-175
-167
-162
-161
-163
-161
-157
-157
-157
-152
-150
-154
-157
-153
-145
-143
-149
-144
-121
-107
-108
-97
-84
-105
-129
-128
-128
-131
-121
-128
-131
-102
-111
-141
-168
-283
-49
1020
1733
658
-932
-1055
-309
-44
-71
21
49
21
58
79
75
98
118
123
141
159
169
188
215
241
267
299
335
370
403
428
444
451
438
382
283
168
60
-35
-108
-158
-190
-206
-207
-202
-194
-190
-188
-180
-170
-168
-166
-160
-156
-158
-157
-153
-151
-150
-146
-143
-144
-142
-137
-134
-133
-131
-130
-125
-117
-121
-122
-102
-86
-84
-71
-60
-78
-95
-95
-102
-100
-87
-97
-95
-66
-91
-121
-151
-249
131
1286
1725
355
-1068
-899
-183
-42
-58
44
43
22
68
77
73
103
114
114
135
157
170
188
209
231
259
290
321
353
380
402
418
421
403
352
264
155
52
-37
-108
-156
-183
-195
-196
-192
-191
-188
-181
-175
-173
-168
-161
-157
-151
-146
-146
-146
-147
-149
-148
-144
-145
-145
-139
-135
-135
-133
-131
-135
-137
-125
-116
-127
-128
-103
-88
-88
-75
-67
-87
-101
-100
-108
-107
-101
-105
-90
-78
-110
-121
-183
-211
446
1557
1385
-284
-1257
-714
-103
-55
-13
75
42
44
98
102
105
132
144
158
184
199
208
229
258
287
318
353
387
420
457
489
504
499
465
382
261
138
28
-70
-144
-191
-220
-233
-232
-229
-227
-219
-209
-200
-192
-187
-188
-186
-178
-174
-175
-174
-173
-173
-170
-168
-171
-169
-159
-155
-157
-151
-140
-134
-136
-139
-131
-112
-96
-88
-82
-90
-107
-112
-111
-115
-109
-106
-112
-92
-81
-114
-128
-192
-188
486
1476
1140
-508
-1324
-712
-120
-61
4
97
72
81
125
125
133
162
173
183
206
226
242
263
290
320
350
382
422
462
493
515
527
520
476
380
250
121
13
-76
-142
-183
-209
-218
-216
-211
-207
-200
-191
-183
-177
-171
-164
-157
-152
-148
-148
-150
-151
-152
-155
-156
-151
-150
-154
-154
-149
-146
-146
-141
-133
-137
-141
-120
-102
-114
-111
-76
-71
-104
-117
-113
-118
-115
-115
-120
-102
-101
-132
-142
-235
-207
612
1672
1220
-483
-1190
-545
-56
-67
-14
55
14
26
72
67
72
100
113
127
153
172
186
206
222
243
275
300
324
360
383
392
420
436
384
287
187
82
-19
-102
-162
-188
-188
-191
-194
-186
-186
-192
-172
-142
-139
-148
-141
-131
-133
-138
-134
-120
-101
-95
-107
-122
-126
-121
-115
-115
-115
-113
-115
-123
-121
-105
-97
-103
-102
-92
-89
-99
-105
-96
-84
-79
-60
-33
-40
-62
-63
-67
-79
-59
-56
-100
-101
-86
-137
-192
-247
-61
835
1679
972
-604
-1026
-388
-51
-74
9
69
42
65
94
90
108
137
150
166
189
209
230
247
260
286
326
358
380
410
442
458
467
471
435
342
235
158
83
-11
-78
-106
-151
-208
-224
-219
-224
-215
-200
-202
-195
-166
-150
-143
-132
-146
-181
-190
-172
-164
-175
-178
-158
-136
-139
-155
-161
-152
-137
-126
-128
-143
-157
-147
-124
-121
-114
-77
-75
-140
-175
-148
-137
-149
-143
-134
-108
-60
-81
-182
-227
13
782
1551
1058
-492
-1219
-736
-382
-354
-55
138
-56
-155
-74
-67
-135
-260
-237
144
480
420
287
319
387
446
500
504
435
280
146
166
209
101
15
173
423
502
404
277
228
244
189
16
-145
-220
-174
42
184
14
-150
-61
-40
-175
-179
-82
-55
-64
-96
-122
-73
-58
-155
-212
-126
-19
-105
-352
-444
-319
-246
-294
-382
-561
-765
-795
-634
-437
-378
-418
-269
33
86
-11
294
957
1167
293
-1134
-1748
-1122
-273
23
17
39
98
199
341
417
383
319
257
141
-3
-39
34
23
-61
43
336
611
868
1065
1029
904
912
941
871
734
515
296
219
184
94
89
172
138
25
13
9
-118
-192
-127
-132
-266
-413
-591
-701
-496
-152
-52
-123
-130
-175
-331
-420
-414
-459
-492
-416
-366
-398
-348
-198
-96
-74
-86
-133
-182
-157
-88
-67
-21
134
333
727
1246
883
-622
-1568
-1025
-252
-41
131
342
287
132
67
35
-5
-68
-104
-39
46
76
107
168
250
347
405
442
527
616
695
818
867
748
626
549
366
127
-34
-160
-277
-364
-420
-383
-287
-322
-551
-801
-719
-237
26
-299
-620
-579
-562
-592
-389
-173
-223
-366
-416
-423
-416
-362
-311
-334
-360
-311
-270
-271
-214
-122
-36
131
256
146
56
184
351
800
1608
1552
119
-965
-636
-37
43
43
179
329
423
378
318
364
365
324
341
276
108
27
22
9
62
197
293
298
268
283
351
400
400
381
335
235
125
35
-62
-166
-242
-284
-272
-218
-243
-369
-439
-448
-482
-430
-263
-118
42
163
15
-224
-279
-353
-490
-399
-226
-252
-300
-276
-340
-416
-381
-338
-336
-285
-208
-165
-110
-31
16
62
92
205
889
1840
1519
-150
-1067
-517
3
-153
-273
-48
208
231
144
244
398
325
278
467
526
332
271
369
313
179
162
127
48
110
245
275
264
276
237
161
135
143
100
5
-69
-111
-156
-180
-187
-207
-191
-130
-134
-208
-215
-137
-99
-133
-145
-123
-161
-243
-269
-253
-248
-249
-261
-271
-267
-305
-390
-422
-356
-288
-323
-404
-408
-356
-332
-226
307
1223
1511
464
-784
-876
-320
-113
-95
52
111
54
77
122
112
111
59
-61
-27
191
326
313
279
240
240
339
420
402
383
395
378
325
256
161
12
-169
-282
-294
-292
-299
-233
-127
-91
-90
-45
-22
-66
-90
-86
-120
-140
-97
-87
-141
-162
-148
-188
-227
-149
-49
-91
-187
-194
-195
-257
-274
-228
-218
-243
-279
-353
-455
-517
-165
935
1751
804
-959
-1349
-595
-255
-310
-165
-58
-102
-39
66
89
144
242
283
310
372
422
459
545
650
650
527
442
426
351
335
525
660
590
578
617
423
117
-16
-45
-99
-128
-142
-213
-306
-386
-443
-401
-287
-288
-374
-287
-48
61
-31
-141
-107
49
137
69
-30
-80
-101
-77
-68
-133
-135
-54
-125
-306
-345
-288
128
1355
2262
1208
-706
-1189
-523
-192
-199
-83
3
11
61
89
43
-9
-10
42
105
126
105
91
112
154
213
301
397
474
534
588
636
673
669
598
513
447
308
88
-89
-248
-445
-525
-488
-509
-449
-180
-14
-115
-202
-155
-156
-256
-344
-374
-405
-473
-544
-585
-583
-523
-443
-431
-484
-490
-420
-390
-420
-307
226
1157
1586
523
-1198
-1737
-1069
-533
-446
-336
-168
-107
-113
-93
-25
38
54
17
-83
-178
-160
-67
-10
6
40
83
66
-2
-52
-48
30
110
21
-191
-276
-265
-369
-509
-505
-422
-351
-268
-228
-304
-427
-494
-429
-256
-224
-394
-405
-200
-149
-295
-331
-188
-171
-445
-518
-45
296
54
-131
77
198
67
-65
-163
-246
76
1187
2247
1672
-188
-1115
-494
236
415
491
564
533
534
592
625
617
560
527
618
750
780
747
769
808
755
677
726
879
968
918
811
762
795
806
686
486
359
300
164
7
8
80
51
2
21
24
15
51
83
87
98
116
166
242
251
204
199
182
89
48
126
143
29
-25
-39
-224
-396
-354
-340
3
1266
2155
1008
-862
-1245
-645
-486
-606
-552
-585
-744
-791
-780
-828
-834
-732
-636
-614
-613
-625
-641
-605
-565
-584
-556
-424
-367
-478
-558
-465
-360
-440
-680
