# session 21
-2
-18
79
-43
-455
-702
-625
-522
-482
-382
-250
-146
-40
59
123
159
153
85
-30
-163
-302
-420
-492
-538
-574
-592
-603
-614
-595
-549
-510
-484
-453
-419
-391
-366
-344
-323
-302
-285
-272
-260
-243
-228
-216
-207
-196
-182
-169
-158
-144
-132
-126
-114
-96
-85
-62
-26
-24
-42
-23
9
2
-11
2
21
28
24
32
59
48
34
49
-47
71
1027
1883
884
-1110
-1609
-656
-20
45
152
236
206
232
277
276
291
311
307
318
347
375
410
457
511
578
656
730
788
825
835
811
736
606
446
283
132
1
-98
-168
-213
-237
-248
-253
-253
-251
-251
-251
-247
-246
-248
-245
-240
-241
-245
-248
-254
-261
-264
-268
-276
-280
-277
-266
-256
-252
-240
-213
-199
-216
-218
-193
-182
-194
-200
-187
-149
-107
-105
-107
-96
-128
-134
-122
-230
85
1272
1805
252
-1567
-1446
-398
-43
-38
110
149
111
174
225
229
256
282
291
312
347
389
429
472
545
631
681
717
778
827
818
757
657
515
355
204
69
-37
-112
-163
-194
-204
-202
-198
-194
-202
-236
-268
-261
-226
-204
-201
-201
-203
-215
-238
-265
-291
-309
-309
-285
-248
-216
-203
-202
-197
-179
-158
-155
-177
-212
-240
-252
-252
-239
-216
-202
-207
-220
-242
-274
-279
-255
-250
-265
-271
-273
-276
-283
-296
-280
-262
-287
-274
-292
-355
198
1378
1377
-480
-1858
-1302
-339
-117
-64
91
114
112
159
163
172
221
251
274
310
340
372
420
473
537
620
704
774
827
855
852
816
732
599
446
302
166
45
-42
-98
-137
-153
-150
-147
-150
-148
-139
-133
-128
-123
-117
-114
-115
-117
-118
-119
-123
-129
-133
-135
-140
-144
-145
-141
-138
-141
-145
-145
-143
-144
-139
-123
-119
-139
-142
-114
-102
-118
-127
-122
-112
-110
-122
-110
-90
-119
-116
-112
-227
104
1222
1592
6
-1682
-1504
-499
-137
-101
37
74
50
97
124
124
153
175
185
214
248
278
319
373
438
514
592
665
728
769
775
734
637
488
317
154
11
-108
-194
-246
-273
-289
-297
-294
-286
-278
-271
-261
-255
-254
-250
-240
-234
-233
-233
-229
-227
-228
-229
-223
-215
-214
-215
-212
-209
-204
-189
-178
-174
-171
-183
-199
-180
-148
-147
-157
-156
-151
-139
-136
-146
-130
-123
-143
-127
-191
-184
593
1655
1098
-923
-1820
-963
-174
-95
-30
86
62
67
119
124
140
180
199
221
257
286
319
371
436
508
587
666
735
783
804
794
731
608
449
291
143
9
-96
-163
-201
-228
-246
-247
-235
-225
-220
-214
-208
-203
-197
-193
-191
-187
-181
-176
-174
-175
-175
-173
-170
-167
-161
-154
-156
-162
-159
-156
-162
-165
-162
-153
-130
-112
-124
-134
-107
-87
-100
-109
-104
-97
-89
-96
-102
-85
-91
-94
-79
-173
26
1053
1726
435
-1502
-1681
-622
-98
-75
47
113
78
114
147
141
176
211
211
230
268
290
321
379
437
489
562
651
717
750
759
736
661
533
371
207
64
-56
-156
-224
-256
-272
-285
-287
-275
-264
-259
-253
-243
-238
-235
-227
-219
-217
-212
-201
-198
-202
-205
-209
-212
-214
-221
-225
-222
-218
-211
-200
-194
-183
-161
-161
-171
-145
-119
-139
-153
-132
-120
-126
-130
-116
-92
-105
-109
-80
-140
7
844
1420
280
-1514
-1737
-717
-140
-93
31
128
102
123
163
166
188
221
236
257
290
326
365
412
474
552
634
718
793
838
846
816
732
590
418
251
98
-28
-116
-174
-211
-231
-235
-231
-228
-226
-220
-210
-202
-199
-197
-193
-191
-193
-193
-188
-185
-185
-185
-185
-183
-181
-182
-184
-184
-177
-165
-157
-156
-161
-169
-157
-129
-123
-142
-153
-151
-142
-137
-149
-135
-113
-144
-137
-133
-260
64
1195
1555
-64
-1742
-1513
-484
-130
-102
34
66
35
80
114
124
153
174
190
222
250
278
324
381
442
519
604
682
744
782
795
763
665
514
352
198
52
-69
-150
-202
-237
-257
-260
-257
-254
-250
-244
-234
-224
-216
-213
-211
-205
-199
-198
-200
-198
-195
-193
-193
-192
-192
-191
-190
-188
-184
-179
-172
-155
-144
-162
-177
-151
-124
-136
-150
-141
-132
-128
-136
-134
-107
-118
-139
-120
-202
-90
857
1715
693
-1327
-1796
-788
-147
-103
2
89
57
85
133
128
144
177
191
213
250
285
325
378
437
504
580
658
725
773
794
779
711
587
433
276
124
-11
-112
-176
-216
-241
-247
-243
-240
-236
-226
-214
-205
-196
-192
-194
-189
-173
-169
-176
-178
-173
-170
-170
-167
-164
-158
-155
-157
-153
-141
-137
-132
-124
-138
-165
-152
-118
-121
-142
-138
-123
-109
-105
-110
-88
-86
-128
-113
-138
-172
470
1554
1196
-809
-1923
-1160
-277
-142
-80
56
49
53
106
102
108
155
172
175
206
247
283
324
379
450
534
617
689
745
780
779
719
602
452
292
138
0
-109
-185
-231
-259
-272
-272
-268
-266
-262
-250
-238
-235
-235
-231
-225
-220
-213
-206
-201
-200
-200
-199
-195
-192
-192
-189
-178
-165
-160
-155
-144
-144
-155
-142
-114
-115
-135
-138
-128
-119
-120
-129
-107
-95
-129
-107
-114
-215
226
1305
1344
-395
-1774
-1316
-378
-120
-67
69
80
66
119
135
137
172
191
194
221
255
290
337
395
457
532
613
685
740
776
785
748
651
503
338
182
43
-70
-152
-205
-235
-246
-245
-241
-236
-230
-225
-219
-211
-205
-204
-203
-198
-192
-189
-188
-189
-191
-190
-186
-180
-176
-178
-167
-143
-136
-141
-129
-125
-148
-160
-158
-163
-156
-149
-153
-134
-136
-164
-144
-211
-187
644
1662
934
-1123
-1846
-884
-152
-111
-35
69
37
53
105
104
121
159
175
196
230
262
301
354
411
477
555
633
701
743
757
742
679
557
402
248
99
-33
-128
-191
-235
-261
-266
-261
-254
-248
-239
-229
-222
-215
-206
-199
-196
-193
-188
-184
-183
-185
-184
-181
-179
-180
-182
-184
-180
-173
-168
-167
-162
-156
-150
-140
-143
-162
-156
-123
-111
-122
-124
-125
-123
-119
-130
-115
-84
-113
-118
-122
-243
142
1386
1771
47
-1682
-1408
-399
-120
-105
40
59
34
93
114
107
138
168
188
219
246
280
327
372
422
499
586
661
722
764
777
754
681
555
406
258
112
-19
-116
-182
-228
-251
-253
-245
-239
-237
-235
-228
-221
-217
-210
-205
-208
-212
-209
-203
-203
-206
-208
-212
-211
-199
-189
-186
-182
-175
-171
-175
-184
-179
-156
-152
-171
-179
-176
-172
-163
-165
-162
-138
-148
-160
-140
-185
52
961
1410
82
-1650
-1685
-670
-192
-139
7
77
50
92
134
136
164
199
216
243
279
314
356
408
471
547
631
711
778
821
831
797
709
569
401
234
85
-41
-134
-188
-222
-247
-257
-251
-241
-235
-228
-217
-210
-209
-206
-195
-189
-186
-179
-175
-179
-182
-181
-185
-183
-172
-173
-177
-158
-142
-150
-146
-129
-140
-160
-163
-167
-165
-154
-159
-143
-120
-149
-150
-172
-251
266
1462
1513
-362
-1822
-1310
-353
-146
-103
50
55
35
95
113
112
150
176
182
205
242
282
334
394
462
545
632
704
764
810
814
760
657
514
352
194
49
-71
-150
-195
-227
-250
-260
-263
-261
-254
-247
-247
-244
-233
-225
-224
-222
-219
-223
-225
-219
-218
-223
-223
-217
-213
-208
-199
-190
-179
-165
-166
-177
-168
-155
-167
-180
-176
-174
-173
-173
-176
-160
-152
-178
-170
-185
-190
340
1243
1008
-675
-1771
-1240
-427
-225
-152
-18
-8
-7
56
80
89
131
161
178
214
253
286
330
390
459
540
628
709
777
824
834
793
684
520
343
184
45
-67
-140
-183
-209
-222
-223
-222
-221
-217
-214
-217
-214
-196
-179
-178
-184
-185
-184
-179
-179
-185
-180
-160
-155
-159
-151
-159
-194
-216
-197
-147
-104
-94
-69
-33
-54
-41
4
-129
2
977
1610
375
-1437
-1601
-600
-55
2
99
138
83
84
98
96
131
175
198
229
270
305
340
390
450
518
596
680
745
782
806
799
718
578
424
274
142
40
-42
-105
-139
-173
-225
-271
-294
-303
-298
-274
-247
-238
-250
-271
-288
-298
-306
-308
-305
-304
-300
-288
-276
-270
-261
-247
-233
-222
-222
-232
-237
-241
-258
-267
-257
-256
-280
-305
-311
-302
-312
-330
-303
-303
-348
-307
-339
-461
105
1225
984
-962
-2151
-1465
-526
-294
-209
-74
-66
-50
32
84
136
209
256
288
331
377
427
483
539
596
665
746
826
892
939
962
945
868
736
581
428
281
152
59
-1
-41
-59
-55
-43
-30
-19
-13
-9
-5
-5
-13
-25
-36
-42
-42
-46
-59
-74
-85
-97
-106
-110
-109
-107
-108
-111
-105
-108
-123
-117
-94
-98
-127
-146
-152
-152
-169
-203
-188
-155
-155
-128
-191
-256
418
1524
1106
-940
-1996
-1176
-308
-190
-122
8
-12
-9
54
62
76
125
149
162
201
244
273
305
360
427
485
535
589
642
679
679
626
524
386
233
82
-52
-159
-234
-286
-325
-346
-344
-331
-322
-316
-305
-290
-281
-276
-269
-262
-259
-255
-252
-251
-250
-249
-250
-250
-247
-243
-241
-238
-233
-228
-223
-217
-209
-205
-198
-181
-176
-186
-168
-133
-136
-161
-168
-167
-165
-173
-181
-153
-144
-178
-168
-220
-182
659
1723
1032
-1073
-1880
-952
-205
-133
-30
82
45
64
124
128
148
200
250
313
374
415
459
505
547
607
689
765
829
885
919
926
900
810
660
502
371
254
145
58
-3
-43
-68
-80
-81
-78
-78
-80
-82
-86
-90
-87
-86
-95
-110
-123
-131
-139
-148
-159
-168
-172
-178
-190
-195
-191
-192
-197
-195
-199
-204
-192
-181
-195
-213
-218
-214
-209
-220
-223
-199
-213
-248
-243
-306
-154
765
1514
458
-1461
-1856
-899
-309
-246
-124
-44
-79
-54
-13
-16
7
44
58
78
109
145
191
239
284
342
414
488
555
604
621
610
570
478
338
195
67
-51
-140
-193
-233
-257
-248
-236
-242
-242
-230
-221
-204
-187
-192
-192
-167
-152
-164
-170
-166
-164
-148
-124
-125
-136
-121
-96
-94
-91
-68
-51
-52
-42
-16
-5
-22
-40
-38
-29
-36
-60
-42
9
-10
-50
-55
-152
105
1244
1889
450
-1457
-1492
-485
-101
-90
56
101
53
82
110
108
123
135
145
173
197
211
238
285
330
364
423
502
544
550
564
559
487
380
289
215
128
19
-92
-184
-232
-216
-175
-176
-205
-210
-196
-184
-171
-170
-186
-194
-190
-189
-172
-141
-143
-161
-151
-138
-145
-144
-140
-147
-143
-134
-151
-165
-135
-99
-112
-139
-142
-142
-138
-120
-130
-134
-93
-110
-172
-195
-260
59
1185
1745
353
-1355
-1349
-523
-248
-207
-62
-39
-58
-2
25
35
75
95
105
140
177
201
232
277
332
389
438
490
553
607
632
625
583
503
387
250
117
6
-86
-155
-192
-205
-215
-221
-214
-196
-183
-180
-181
-173
-159
-160
-172
-167
-148
-150
-174
-181
-171
-176
-194
-196
-187
-196
-210
-184
-142
-147
-172
-170
-171
-182
-177
-181
-175
-138
-157
-211
-221
-138
451
1468
1417
-229
-1458
-1069
-371
-237
-155
-5
-9
-15
38
37
24
51
78
107
141
159
183
232
285
330
380
442
513
573
608
629
625
562
449
328
205
85
-11
-81
-141
-179
-191
-199
-208
-204
-186
-169
-168
-178
-176
-151
-124
-121
-139
-152
-153
-149
-135
-125
-139
-152
-142
-126
-120
-115
-119
-124
-117
-115
-122
-113
-114
-136
-118
-93
-139
-197
-253
-94
774
1708
1103
-618
-1301
-722
-290
-245
-122
-27
-41
-10
32
36
59
84
90
115
152
173
197
244
300
358
421
481
531
576
610
607
556
467
349
216
88
-25
-122
-190
-231
-260
-280
-287
-294
-305
-303
-281
-255
-239
-221
-213
-228
-239
-226
-210
-204
-195
-181
-172
-174
-188
-187
-160
-148
-161
-164
-164
-172
-159
-153
-165
-141
-130
-189
-243
-328
-171
878
2005
1287
-692
-1417
-740
-296
-277
-146
-61
-95
-57
-10
-16
6
47
70
94
121
154
201
246
287
346
419
486
549
605
640
640
596
505
381
245
110
-16
-113
-173
-207
-229
-241
-240
-232
-223
-215
-206
-195
-183
-173
-163
-153
-145
-140
-138
-137
-126
-116
-127
-140
-125
-110
-122
-133
-135
-149
-147
-132
-148
-139
-98
-140
-211
-271
-313
336
1799
2120
298
-1322
-1062
-343
-243
-184
-20
-22
-26
36
39
37
75
96
115
153
184
214
265
322
380
453
542
627
694
738
755
720
615
463
302
149
17
-87
-168
-230
-262
-272
-280
-285
-283
-278
-270
-263
-259
-249
-236
-233
-230
-214
-203
-202
-191
-182
-203
-221
-205
-189
-196
-199
-203
-218
-213
-204
-217
-200
-185
-232
-287
-383
-269
750
2021
1518
-530
-1519
-916
-385
-349
-230
-121
-154
-134
-86
-87
-69
-38
-29
-6
34
66
101
151
211
285
373
465
546
609
651
659
603
475
311
148
-2
-132
-230
-293
-333
-356
-366
-368
-364
-358
-351
-339
-327
-316
-303
-290
-277
-263
-256
-253
-237
-221
-234
-250
-229
-202
-205
-209
-209
-219
-210
-193
-200
-180
-152
-194
-244
-356
-381
533
2108
2070
-11
-1396
-924
-291
-247
-149
-8
-37
-23
46
50
65
111
132
156
201
241
282
336
401
480
572
668
757
827
873
890
855
748
590
421
263
127
25
-42
-84
-110
-123
-126
-122
-115
-109
-104
-95
-83
-75
-70
-64
-58
-55
-48
-43
-48
-50
-38
-41
-65
-65
-37
-30
-47
-59
-72
-80
-69
-81
-94
-68
-86
-150
-230
-386
-30
1445
2484
1175
-948
-1327
-579
-314
-319
-170
-138
-183
-136
-116
-135
-116
-102
-103
-83
-58
-36
-2
41
93
160
239
319
390
440
465
452
379
241
68
-101
-255
