# session 30
-26
-21
-13
-96
-199
-180
-123
-132
-143
-125
-121
-126
-122
-123
-123
-118
-119
-117
-105
-107
-120
-118
-103
-97
-95
-90
-96
-107
-101
-94
-93
-73
-49
-60
-78
-73
-75
-81
-68
-72
-84
-62
-66
-105
-134
-208
39
1051
1748
749
-800
-999
-358
-118
-105
13
32
3
51
71
58
82
98
95
118
146
154
164
185
207
230
261
301
348
394
430
465
499
517
497
429
316
183
60
-40
-118
-177
-212
-225
-227
-228
-232
-233
-225
-214
-208
-206
-201
-192
-188
-188
-184
-179
-178
-176
-168
-164
-169
-169
-158
-152
-156
-149
-129
-129
-138
-116
-88
-104
-132
-131
-127
-132
-121
-116
-128
-103
-87
-134
-164
-207
-113
662
1618
1147
-498
-1201
-622
-167
-142
-48
34
6
25
61
54
68
92
99
116
136
143
161
191
213
235
266
303
345
394
443
487
526
548
530
461
343
204
77
-29
-113
-171
-203
-219
-221
-220
-230
-234
-221
-211
-211
-205
-195
-184
-170
-164
-172
-176
-171
-169
-168
-162
-159
-155
-143
-136
-142
-137
-124
-126
-132
-113
-88
-87
-103
-116
-125
-125
-113
-111
-124
-108
-94
-130
-157
-241
-252
493
1701
1562
-120
-1123
-668
-172
-156
-74
46
15
7
39
29
34
72
89
95
112
124
130
152
181
200
226
275
328
373
418
455
485
514
516
458
349
214
81
-27
-108
-173
-211
-221
-229
-237
-231
-227
-233
-225
-201
-187
-182
-169
-157
-161
-167
-160
-149
-147
-147
-145
-148
-151
-147
-150
-157
-142
-124
-130
-131
-102
-85
-105
-122
-114
-117
-132
-118
-107
-122
-102
-84
-131
-166
-238
-219
585
1808
1588
-139
-1071
-565
-109
-134
-70
20
-17
-8
32
25
38
64
63
72
95
108
125
147
162
181
217
261
308
358
407
449
483
509
508
450
336
204
79
-32
-118
-171
-198
-213
-220
-221
-222
-226
-220
-210
-205
-201
-191
-185
-182
-172
-164
-166
-165
-157
-152
-155
-153
-144
-140
-146
-149
-141
-131
-132
-139
-135
-120
-114
-111
-89
-69
-85
-109
-112
-116
-119
-102
-101
-120
-99
-83
-122
-152
-240
-169
726
1844
1372
-379
-1119
-543
-132
-139
-46
34
0
21
57
48
59
84
91
106
122
129
147
171
191
217
252
292
336
385
438
484
516
540
541
480
358
217
88
-24
-114
-172
-209
-233
-243
-246
-244
-234
-223
-222
-217
-203
-192
-188
-183
-174
-162
-153
-153
-157
-155
-152
-153
-156
-152
-145
-142
-138
-129
-129
-138
-132
-118
-116
-111
-82
-62
-84
-111
-108
-104
-110
-97
-91
-108
-91
-71
-111
-151
-242
-217
604
1799
1533
-181
-1070
-559
-107
-114
-44
33
-9
9
53
40
48
75
75
85
110
118
123
146
177
206
235
264
302
354
406
449
491
524
520
466
364
227
84
-27
-103
-161
-201
-223
-233
-239
-239
-233
-223
-211
-200
-193
-193
-191
-183
-175
-170
-166
-158
-154
-157
-159
-155
-148
-144
-143
-144
-140
-135
-132
-123
-116
-122
-127
-114
-103
-106
-98
-69
-54
-73
-92
-90
-92
-102
-92
-89
-102
-82
-76
-115
-140
-223
-117
806
1825
1231
-441
-1012
-417
-74
-101
-24
27
-8
19
50
41
54
73
79
92
106
115
130
150
171
195
222
260
304
340
378
422
451
461
464
434
345
218
95
-3
-79
-139
-179
-194
-196
-196
-194
-195
-196
-186
-177
-180
-175
-162
-160
-163
-157
-150
-150
-148
-142
-142
-145
-140
-131
-129
-134
-134
-130
-127
-125
-115
-106
-114
-127
-119
-105
-98
-76
-46
-52
-83
-89
-79
-88
-87
-77
-93
-86
-53
-86
-127
-155
-216
218
1345
1672
310
-959
-753
-168
-96
-81
25
9
-4
44
44
38
63
73
78
98
115
126
138
156
180
207
235
273
317
357
395
431
459
468
446
385
285
166
55
-39
-115
-165
-187
-195
-202
-203
-194
-184
-179
-174
-165
-156
-156
-162
-164
-160
-157
-155
-149
-145
-146
-149
-150
-147
-143
-144
-144
-138
-131
-129
-121
-116
-124
-124
-106
-101
-111
-91
-57
-63
-90
-90
-90
-112
-109
-89
-98
-91
-72
-108
-141
-192
-190
468
1584
1473
-135
-1123
-667
-145
-123
-65
32
5
12
58
52
54
81
94
107
122
128
144
173
195
214
242
279
321
368
414
454
483
505
513
479
388
260
129
13
-81
-152
-199
-220
-225
-228
-227
-218
-213
-213
-205
-193
-187
-183
-178
-174
-172
-168
-163
-158
-158
-161
-161
-160
-157
-143
-135
-147
-153
-133
-123
-132
-119
-88
-91
-117
-121
-116
-127
-121
-104
-119
-117
-90
-117
-146
-190
-282
184
1391
1724
288
-1014
-781
-178
-111
-92
24
10
-7
41
47
47
73
84
86
101
114
129
151
174
200
230
260
299
349
393
428
460
487
493
459
372
247
116
0
-91
-157
-198
-215
-219
-222
-222
-214
-204
-201
-200
-191
-182
-180
-180
-172
-165
-166
-163
-156
-154
-156
-154
-150
-146
-139
-128
-127
-139
-140
-124
-119
-120
-97
-68
-78
-105
-104
-99
-111
-104
-89
-102
-92
-74
-112
-143
-214
-246
434
1639
1594
-18
-1034
-598
-98
-99
-57
32
-3
-1
44
42
47
68
69
79
102
112
122
147
170
185
210
247
286
324
365
403
435
457
460
425
343
230
110
2
-85
-151
-194
-213
-213
-209
-207
-198
-190
-189
-185
-179
-179
-178
-167
-158
-160
-160
-154
-149
-149
-150
-149
-147
-145
-142
-134
-129
-136
-138
-125
-115
-113
-96
-76
-85
-104
-100
-98
-115
-109
-92
-104
-95
-70
-105
-139
-197
-257
312
1496
1614
100
-1016
-661
-124
-99
-65
32
2
-2
44
41
42
66
69
74
98
113
123
142
163
186
211
239
274
317
357
385
409
434
447
424
353
243
125
18
-73
-138
-173
-193
-205
-207
-203
-196
-188
-182
-180
-176
-169
-162
-157
-162
-167
-161
-151
-149
-151
-150
-147
-146
-147
-146
-139
-135
-141
-135
-118
-115
-117
-96
-77
-92
-109
-105
-106
-109
-94
-100
-119
-87
-70
-120
-153
-229
-139
718
1681
1084
-568
-1106
-467
-95
-115
-21
49
13
34
66
59
74
95
101
117
138
148
159
178
201
229
258
291
331
373
412
446
468
481
481
439
341
212
86
-21
-102
-159
-198
-219
-225
-223
-218
-210
-201
-192
-190
-191
-188
-183
-180
-176
-169
-166
-169
-169
-164
-161
-159
-151
-149
-155
-150
-139
-144
-144
-115
-91
-109
-133
-131
-130
-134
-123
-128
-136
-105
-106
-147
-163
-253
-115
835
1691
868
-741
-1058
-380
-88
-103
3
34
-9
34
67
53
70
93
95
109
129
142
158
179
197
223
257
291
324
365
407
440
464
475
456
394
291
166
43
-56
-123
-165
-190
-201
-203
-205
-205
-199
-189
-183
-180
-175
-170
-164
-160
-162
-165
-163
-157
-151
-144
-141
-137
-133
-137
-144
-140
-137
-136
-115
-88
-95
-113
-110
-114
-124
-108
-107
-125
-101
-91
-129
-158
-265
-173
757
1740
1084
-553
-1014
-384
-75
-113
-22
30
-6
21
43
30
49
68
66
82
104
115
131
151
167
191
223
254
288
327
361
386
411
431
424
372
276
162
53
-41
-115
-161
-187
-203
-205
-201
-200
-195
-185
-179
-175
-165
-161
-167
-166
-159
-157
-155
-148
-144
-146
-149
-144
-135
-135
-148
-150
-140
-137
-130
-107
-98
-111
-112
-109
-117
-110
-103
-117
-98
-77
-117
-142
-212
-224
490
1610
1365
-289
-1133
-579
-95
-100
-38
45
9
22
64
55
59
80
87
103
125
137
153
178
199
217
239
271
314
359
398
434
466
486
479
429
328
197
74
-29
-116
-182
-214
-227
-237
-236
-221
-209
-209
-209
-201
-193
-187
-181
-178
-178
-180
-183
-179
-168
-163
-161
-156
-157
-162
-159
-154
-142
-118
-108
-123
-127
-124
-134
-129
-114
-125
-117
-94
-125
-150
-195
-228
363
1486
1469
-109
-1164
-733
-164
-119
-75
25
8
15
58
54
60
88
94
101
120
135
152
178
202
222
249
286
328
372
412
447
473
490
484
430
321
186
59
-47
-128
-180
-211
-228
-230
-222
-215
-210
-204
-200
-194
-186
-183
-182
-175
-169
-170
-166
-157
-155
-154
-146
-141
-145
-146
-144
-147
-156
-147
-119
-105
-115
-119
-112
-125
-129
-111
-114
-109
-82
-108
-138
-181
-301
97
1310
1776
423
-944
-772
-155
-76
-74
32
16
1
49
48
40
63
69
71
92
109
122
142
161
184
214
246
280
315
354
397
426
435
433
403
320
204
90
-13
-95
-150
-189
-215
-220
-214
-212
-208
-197
-187
-179
-173
-171
-168
-162
-160
-160
-154
-150
-151
-152
-150
-150
-149
-142
-136
-139
-143
-142
-140
-132
-109
-97
-103
-104
-102
-110
-102
-87
-100
-90
-63
-101
-133
-178
-275
213
1433
1705
224
-1014
-715
-135
-100
-78
33
9
-2
52
53
43
68
81
82
97
117
134
152
169
191
220
255
293
332
369
405
438
460
459
419
329
209
92
-10
-96
-161
-195
-208
-218
-224
-217
-204
-202
-202
-195
-190
-190
-183
-171
-167
-169
-167
-160
-157
-159
-159
-156
-152
-150
-147
-144
-141
-139
-139
-138
-128
-112
-109
-115
-107
-102
-114
-112
-99
-108
-96
-71
-105
-136
-189
-223
380
1523
1516
-75
-1148
-718
-143
-95
-48
44
9
13
63
60
67
101
111
113
125
133
150
181
203
222
256
295
331
371
414
450
479
499
493
446
347
213
82
-27
-110
-162
-192
-217
-230
-219
-206
-209
-215
-207
-195
-191
-189
-181
-170
-158
-151
-153
-157
-154
-150
-151
-151
-149
-147
-143
-139
-138
-142
-145
-143
-142
-134
-111
-97
-105
-111
-103
-103
-101
-91
-103
-103
-70
-89
-125
-161
-263
91
1261
1816
552
-900
-839
-202
-83
-88
22
20
-2
42
44
38
67
75
70
88
106
115
130
154
177
200
231
270
311
348
384
412
433
444
418
335
218
104
2
-86
-153
-193
-211
-221
-226
-222
-214
-208
-204
-196
-188
-181
-172
-167
-166
-158
-145
-139
-146
-150
-146
-142
-141
-135
-132
-132
-128
-120
-113
-113
-123
-123
-103
-89
-89
-66
-36
-50
-82
-81
-74
-81
-69
-59
-80
-65
-39
-83
-118
-176
-202
460
1636
1562
-58
-1046
-584
-87
-99
-55
38
5
9
54
46
48
75
81
87
108
126
146
171
195
218
241
269
306
346
383
420
451
466
457
413
327
212
91
-17
-100
-152
-182
-203
-214
-215
-212
-212
-209
-198
-188
-183
-179
-173
-169
-165
-159
-157
-158
-155
-149
-148
-151
-151
-148
-145
-142
-141
-141
-134
-127
-133
-144
-131
-112
-115
-116
-90
-73
-92
-106
-106
-121
-126
-101
-98
-105
-79
-91
-134
-161
-247
6
1063
1765
711
-849
-997
-329
-102
-101
12
33
5
46
64
58
82
99
109
130
144
153
171
190
213
248
282
314
358
408
445
474
503
518
493
416
298
163
36
-68
-141
-187
-215
-226
-227
-230
-233
-226
-214
-208
-203
-192
-181
-174
-168
-163
-158
-154
-153
-157
-161
-162
-159
-156
-152
-146
-140
-142
-148
-144
-130
-130
-129
-103
-79
-94
-115
-113
-116
-124
-106
-101
-119
-97
-80
-120
-149
-234
-195
624
1723
1350
-317
-1077
-528
-99
-104
-26
49
11
29
69
59
66
91
97
107
128
142
155
174
195
222
258
298
339
384
430
468
496
514
501
430
306
165
36
-66
-139
-189
-219
-231
-233
-232
-231
-229
-223
-211
-201
-197
-191
-180
-172
-167
-165
-161
-158
-157
-153
-146
-142
-146
-148
-144
-140
-135
-133
-137
-137
-125
-117
-118
-105
-82
-83
-105
-108
-100
-110
-113
-101
-108
-102
-76
-99
-134
-190
-283
168
1375
1800
448
-920
-788
-183
-85
-73
41
31
9
55
63
54
71
81
89
107
122
137
157
175
195
223
258
300
345
393
437
467
486
498
468
373
242
114
0
-94
-160
-204
-227
-232
-227
-222
-219
-216
-207
-198
-197
-197
-189
-179
-174
-171
-162
-154
-150
-148
-149
-151
-149
-147
-149
-148
-142
-132
-126
-128
-127
-121
-125
-133
-117
-94
-94
-86
-58
-56
-86
-94
-84
-91
-87
-74
-88
-86
-56
-88
-126
-158
-245
157
1314
1733
406
-926
-766
-166
-83
-76
32
19
5
55
59
53
78
91
97
111
121
136
159
176
195
225
255
287
328
373
409
433
455
472
456
387
276
153
41
-48
-109
-149
-175
-188
-195
-199
-196
-186
-176
-171
-165
-158
-153
-154
-156
-154
-149
-148
-146
-136
-131
-137
-140
-133
-128
-132
-134
-128
-123
-122
-121
-121
-117
-109
-111
-111
-87
-63
-77
-101
-101
-104
-111
-97
-93
-108
-91
-79
-116
-147
-228
-129
718
1638
1030
-587
-1114
-487
-104
-110
-25
33
1
32
68
57
67
89
96
111
131
142
161
187
206
229
262
292
322
369
416
443
462
481
479
424
319
193
75
-27
-110
-165
-193
-206
-211
-209
-206
-202
-198
-196
-191
-183
-180
-181
-175
-163
-158
-160
-161
-159
-156
-157
-160
-158
-150
-146
-148
-147
-140
-137
-144
-152
-143
-126
-120
-116
-90
-72
-92
-116
-113
-111
-113
-100
-102
-110
-83
-86
-127
-154
-252
-92
881
1742
941
-637
-971
-341
-70
-93
-1
29
-9
26
54
45
60
76
77
92
114
129
144
159
183
214
241
268
304
343
382
418
444
453
442
392
296
177
68
-15
-81
-132
-162
-175
-179
-175
-166
-159
-156
-148
-137
-131
-131
-128
-124
-123
-123
-119
-115
-111
-108
-107
-106
-103
-99
-97
-95
-88
-78
-78
-86
-81
-71
-74
-63
-30
-23
-49
-60
-53
-61
-60
-48
-64
-64
-35
-65
-106
-139
-227
152
1277
1698
390
-934
-771
-168
-74
-51
41
18
26
