# session 25
-36
-41
-27
-34
-81
-113
-105
-96
-90
-73
-67
-79
-81
-74
-76
-77
-71
-70
-72
-76
-80
-80
-83
-95
-96
-85
-84
-85
-78
-77
-91
-101
-97
-87
-79
-64
-46
-43
-59
-79
-86
-71
-68
-85
-65
-53
-104
-156
-267
-200
798
2107
1679
-245
-1122
-541
-130
-168
-68
12
-43
-13
45
41
53
66
52
65
99
113
133
171
205
239
288
342
400
469
527
568
612
646
620
515
378
242
105
-28
-135
-208
-250
-263
-262
-272
-285
-273
-249
-242
-243
-229
-216
-216
-216
-214
-221
-227
-223
-222
-216
-204
-204
-212
-213
-213
-208
-190
-187
-197
-181
-158
-163
-166
-148
-139
-144
-143
-148
-163
-153
-128
-137
-142
-108
-129
-186
-222
-262
174
1413
1997
614
-1056
-1059
-323
-166
-199
-61
-19
-35
22
53
53
80
95
97
115
137
161
198
231
252
288
342
398
465
540
592
626
663
670
593
453
306
168
36
-76
-154
-197
-221
-244
-263
-259
-244
-236
-231
-220
-205
-192
-187
-195
-205
-204
-195
-187
-184
-189
-194
-187
-179
-179
-185
-186
-176
-164
-164
-167
-159
-147
-139
-136
-133
-123
-115
-121
-131
-134
-124
-121
-134
-116
-81
-123
-183
-256
-359
204
1684
2208
590
-1016
-849
-217
-196
-180
-15
-30
-53
13
12
2
43
61
66
92
111
127
161
193
221
269
328
377
428
489
540
574
604
608
547
430
293
152
21
-82
-157
-208
-234
-247
-255
-245
-225
-224
-232
-217
-197
-200
-205
-197
-187
-177
-177
-193
-195
-173
-165
-178
-181
-171
-173
-178
-166
-156
-168
-176
-156
-133
-137
-146
-127
-104
-110
-122
-124
-133
-128
-106
-117
-118
-83
-117
-178
-239
-359
124
1584
2232
705
-977
-904
-249
-176
-166
-22
-35
-55
13
23
9
31
44
58
89
103
115
153
190
209
235
282
340
398
452
506
552
573
563
518
420
287
152
33
-67
-143
-199
-227
-230
-236
-249
-245
-227
-221
-222
-212
-202
-200
-196
-184
-172
-167
-175
-191
-195
-186
-185
-188
-182
-178
-173
-159
-151
-162
-170
-159
-148
-149
-146
-123
-98
-101
-119
-123
-125
-128
-110
-103
-118
-95
-90
-152
-213
-335
-191
963
2230
1544
-447
-1141
-488
-146
-193
-76
-7
-47
-6
26
9
37
74
79
94
118
134
151
177
214
255
296
359
441
510
563
609
643
654
623
524
377
229
90
-38
-137
-204
-249
-276
-289
-291
-288
-282
-271
-256
-243
-233
-222
-212
-211
-219
-227
-224
-215
-210
-205
-192
-186
-189
-184
-181
-198
-202
-178
-159
-152
-139
-134
-144
-144
-137
-151
-159
-144
-152
-160
-119
-120
-183
-242
-332
9
1289
2164
961
-910
-1151
-410
-181
-197
-39
-3
-50
3
40
29
45
68
87
117
140
158
183
207
238
282
334
399
468
535
603
654
669
656
604
484
323
164
21
-88
-155
-211
-264
-284
-275
-266
-262
-256
-243
-229
-225
-222
-208
-201
-209
-213
-200
-193
-198
-196
-188
-187
-190
-186
-184
-183
-174
-170
-169
-157
-148
-154
-150
-130
-122
-126
-124
-133
-143
-121
-106
-123
-109
-105
-160
-211
-339
-229
904
2225
1606
-405
-1155
-501
-142
-201
-84
-2
-52
-18
30
10
13
48
73
88
101
123
154
176
196
235
283
335
402
473
529
578
620
630
591
500
368
219
84
-32
-131
-194
-222
-244
-265
-267
-257
-255
-251
-232
-209
-205
-209
-198
-186
-194
-199
-191
-194
-201
-190
-176
-179
-182
-178
-177
-181
-182
-175
-165
-155
-151
-154
-151
-133
-121
-128
-129
-116
-120
-127
-108
-109
-138
-110
-80
-139
-193
-285
-256
673
2057
1784
-163
-1184
-623
-147
-180
-98
6
-29
-8
35
25
38
56
49
71
110
123
139
175
200
220
268
335
389
438
505
568
599
604
590
528
399
244
111
1
-101
-180
-224
-241
-243
-247
-257
-253
-234
-224
-220
-206
-193
-188
-188
-200
-215
-204
-181
-177
-187
-186
-182
-184
-184
-174
-171
-180
-176
-155
-142
-140
-142
-157
-165
-132
-99
-108
-117
-108
-118
-128
-113
-118
-117
-80
-106
-172
-222
-278
212
1556
2122
623
-1045
-981
-290
-187
-175
-4
0
-41
19
42
33
63
82
83
99
123
152
186
208
227
271
336
397
458
528
599
651
681
675
605
469
313
166
27
-93
-183
-244
-264
-260
-275
-295
-285
-270
-274
-268
-245
-229
-220
-208
-202
-208
-216
-215
-211
-211
-214
-214
-207
-196
-187
-184
-190
-196
-190
-176
-172
-178
-167
-137
-131
-148
-147
-144
-165
-161
-136
-151
-146
-100
-125
-194
-304
-377
347
1856
2100
297
-1128
-785
-167
-113
-47
51
2
15
43
-18
-6
78
98
97
121
129
134
169
205
228
271
336
390
435
499
560
582
592
601
545
392
234
136
39
-87
-160
-168
-202
-253
-250
-229
-235
-236
-224
-222
-216
-198
-184
-178
-174
-183
-201
-202
-188
-182
-178
-163
-157
-161
-155
-155
-173
-164
-120
-116
-159
-147
-76
-78
-150
-143
-78
-99
-125
-30
20
-98
-182
-138
-100
-80
-64
-112
-143
-181
-226
358
1548
1653
131
-1008
-724
-240
-185
-96
16
-15
-6
52
48
45
75
88
76
66
93
152
180
165
158
186
231
276
305
336
400
453
427
361
343
343
272
160
86
22
-66
-126
-139
-155
-172
-159
-143
-143
-137
-130
-139
-142
-131
-132
-138
-128
-123
-137
-137
-114
-112
-138
-150
-141
-133
-131
-138
-144
-137
-132
-139
-137
-129
-126
-114
-98
-92
-84
-75
-85
-98
-93
-97
-108
-100
-103
-109
-83
-93
-132
-147
-194
119
1207
1865
707
-950
-1148
-481
-224
-187
-41
7
-10
26
49
57
82
92
97
108
118
155
205
211
196
221
266
302
348
406
445
461
480
496
472
396
292
190
105
25
-62
-139
-190
-211
-208
-202
-204
-207
-206
-198
-181
-171
-177
-171
-152
-154
-168
-164
-158
-174
-181
-174
-186
-200
-178
-147
-138
-132
-135
-147
-128
-105
-119
-126
-106
-106
-115
-97
-83
-89
-100
-116
-115
-89
-89
-101
-79
-92
-140
-174
-231
126
1277
1911
668
-989
-1115
-449
-242
-192
-16
10
-26
33
68
60
73
86
98
121
133
142
164
189
218
257
293
331
381
431
467
488
502
506
477
401
293
181
81
-4
-71
-116
-156
-204
-229
-215
-196
-191
-182
-167
-152
-145
-151
-158
-153
-143
-139
-135
-131
-131
-137
-144
-142
-142
-148
-145
-134
-135
-141
-134
-127
-136
-143
-132
-116
-105
-97
-101
-115
-116
-118
-132
-124
-106
-128
-127
-91
-126
-174
-242
-305
344
1716
1901
209
-1078
-725
-174
-186
-156
-36
-66
-65
5
2
-14
26
50
33
32
74
121
144
150
162
197
255
324
388
436
481
536
573
561
507
426
308
156
8
-100
-170
-218
-251
-270
-277
-264
-250
-251
-247
-235
-235
-232
-221
-223
-227
-210
-196
-197
-186
-170
-174
-182
-176
-164
-148
-130
-128
-130
-121
-117
-121
-111
-97
-100
-104
-100
-109
-109
-79
-85
-115
-82
-72
-144
-197
-202
208
1381
2044
752
-1041
-1197
-433
-188
-184
-24
21
-14
36
81
95
113
112
118
141
148
154
182
215
248
293
344
397
464
543
612
657
679
673
610
483
323
168
27
-94
-189
-245
-267
-279
-295
-297
-286
-275
-268
-262
-258
-251
-237
-225
-224
-224
-212
-201
-207
-216
-216
-214
-212
-200
-191
-194
-186
-169
-169
-175
-162
-151
-159
-158
-151
-170
-171
-147
-166
-173
-122
-148
-232
-306
-383
179
1678
2249
587
-1133
-987
-277
-208
-198
-35
-41
-63
2
14
10
45
60
63
86
113
137
160
184
219
268
324
389
460
521
571
619
656
650
580
449
287
132
4
-99
-177
-227
-260
-280
-283
-277
-271
-260
-239
-227
-232
-239
-230
-214
-209
-211
-203
-195
-201
-209
-200
-189
-190
-189
-178
-171
-167
-153
-134
-136
-155
-156
-147
-157
-149
-124
-140
-135
-92
-135
-205
-269
-345
292
1818
2213
420
-1160
-871
-213
-203
-173
-6
-22
-44
10
14
20
58
68
74
103
125
145
176
206
241
289
337
385
448
520
580
621
648
639
562
427
277
125
-24
-136
-198
-243
-280
-295
-287
-271
-264
-265
-256
-234
-230
-240
-234
-220
-217
-213
-205
-207
-205
-194
-194
-204
-203
-192
-189
-190
-188
-177
-161
-154
-158
-169
-182
-173
-158
-168
-152
-121
-165
-217
-299
-388
305
1848
2140
291
-1213
-867
-233
-231
-185
-28
-59
-73
-4
3
-2
36
58
63
82
109
137
168
202
241
281
324
379
443
509
561
597
631
640
567
414
251
112
-17
-126
-201
-248
-273
-274
-264
-255
-252
-252
-245
-230
-224
-219
-205
-197
-203
-199
-177
-166
-181
-200
-197
-175
-167
-177
-174
-152
-140
-148
-145
-132
-147
-166
-150
-148
-158
-121
-117
-175
-229
-371
-180
1086
2265
1318
-698
-1184
-456
-173
-217
-77
-22
-65
-21
10
3
33
54
52
72
98
117
147
176
200
242
299
348
396
460
520
560
586
593
554
455
314
164
30
-82
-173
-233
-260
-275
-281
-270
-258
-255
-244
-226
-222
-227
-221
-211
-207
-207
-202
-194
-188
-193
-196
-181
-169
-181
-191
-177
-161
-164
-174
-175
-179
-176
-151
-154
-180
-146
-125
-184
-237
-373
-301
813
2172
1570
-479
-1239
-547
-162
-215
-90
-4
-50
-16
26
21
45
59
56
89
122
127
156
202
227
253
307
370
432
497
555
602
645
665
624
515
364
205
60
-60
-150
-219
-265
-283
-280
-270
-262
-260
-254
-232
-210
-213
-227
-231
-229
-227
-216
-208
-210
-206
-193
-193
-200
-186
-165
-168
-183
-184
-172
-163
-164
-176
-184
-165
-145
-167
-169
-138
-170
-225
-303
-339
371
1810
2003
180
-1265
-905
-248
-218
-176
-19
-27
-37
16
17
18
54
73
87
109
126
154
193
220
248
295
352
416
492
559
603
639
670
663
570
407
240
103
-26
-144
-217
-245
-263
-283
-289
-277
-259
-250
-242
-223
-214
-221
-221
-214
-217
-226
-221
-205
-190
-186
-195
-205
-205
-195
-186
-184
-174
-153
-149
-160
-153
-150
-172
-168
-140
-156
-156
-112
-147
-212
-284
-432
62
1609
2305
705
-1050
-950
-255
-189
-185
-34
-49
-64
13
12
-11
29
63
71
88
113
148
174
187
221
284
343
401
469
525
571
626
667
649
564
431
278
133
5
-101
-177
-229
-256
-259
-260
-270
-265
-241
-224
-220
-213
-209
-215
-217
-206
-197
-193
-188
-184
-186
-188
-186
-189
-192
-189
-183
-174
-162
-154
-149
-147
-157
-161
-148
-150
-159
-138
-131
-147
-115
-103
-169
-231
-376
-287
883
2277
1645
-451
-1219
-520
-153
-228
-105
-13
-68
-39
11
7
29
56
52
62
89
110
134
168
201
235
282
342
405
465
523
575
605
609
582
500
354
195
65
-53
-165
-236
-262
-277
-287
-285
-278
-272
-263
-248
-231
-223
-223
-216
-206
-206
-210
-207
-203
-198
-195
-196
-195
-190
-187
-182
-174
-170
-172
-169
-161
-160
-159
-135
-109
-112
-122
-118
-124
-124
-105
-114
-113
-74
-102
-156
-227
-376
139
1695
2333
668
-1059
-892
-185
-135
-128
33
10
-21
49
55
37
73
100
111
133
154
167
190
222
255
296
354
425
490
546
599
646
681
688
634
507
347
189
43
-80
-164
-213
-242
-263
-271
-265
-257
-252
-245
-240
-237
-231
-225
-218
-206
-201
-208
-212
-215
-222
-223
-215
-207
-200
-197
-198
-193
-179
-163
-164
-182
-192
-180
-162
-152
-148
-150
-150
-147
-146
-132
-128
-146
-125
-102
-157
-222
-317
-242
730
2064
1679
-324
-1307
-686
-193
-226
-118
6
-36
-16
52
53
56
73
68
75
107
138
161
188
223
266
314
362
412
476
543
592
627
650
624
526
383
221
56
-79
-172
-239
-287
-308
-312
-309
-308
-309
-304
-293
-283
-273
-258
-246
-244
-248
-246
-238
-236
-244
-249
-243
-237
-233
-226
-225
-233
-230
-208
-193
-198
-204
-199
-191
-184
-177
-170
-152
-134
-129
-129
-136
-150
-133
-105
-121
-117
-81
-116
-164
-262
-379
325
1924
2242
384
-1109
-747
-128
-144
-98
59
23
6
68
75
86
127
137
147
176
193
213
249
283
319
365
409
466
546
622
671
703
730
733
678
557
405
254
123
24
-53
-115
-147
-148
-149
-153
-140
-127
-125
-113
-91
-87
-99
-97
-81
-74
-79
-76
-61
-59
-73
-75
-69
-80
-93
-80
-63
-62
-66
-61
-58
-57
-54
-56
-61
-53
-33
-30
-47
-60
-66
-61
-45
-57
-75
-47
-56
-130
-175
-307
-191
995
2304
1566
-494
-1169
-481
-159
-228
-102
-31
-94
-68
-25
-36
-29
-14
-15
-4
10
14
26
57
91
115
145
195
253
307
360
403
426
428
400
317
175
10
-140
-261
-358
-429
-476
-512
-529
-522
-515
-520
-520
-516
-515
-500
-484
-492
-497
-483
-473
-478
-482
-479
-476
-479
-479
-465
-453
-461
-466
-457
-452
-449
-436
-425
-425
-419
-407
-398
-380
-355
-348
-353
-338
-317
-323
-318
-293
-293
-273
-230
-266
-310
-353
-463
80
1603
2168
510
-1133
-926
-240
-191
-157
25
27
22
106
127
132
180
211
238
290
328
346
386
446
503
555
619
702
790
872
948
1018
1073
1086
1040
934
786
625
479
369
299
254
224
218
229
239
253
273
280
288
317
341
341
343
363
381
380
370
365
365
367
371
370
366
367
356
335
328
335
328
308
294
284
280
282
270
238
218
202
157
124
124
93
52
57
14
-80
-176
-330
21
1383
2179
771
-1119
-1260
-565
-449
-509
-402
-428
-499
-482
-507
-554
-569
-605
-643
-651
-672
-703
-714
-721
-737
-739
-723
-700
-669
-632
-603
-589
-584
-600
-677
-821
