# session 36
15
16
21
-35
-141
-184
-134
-115
-167
-182
-235
-226
508
1662
1476
-164
-1068
-571
-105
-120
-64
18
-26
-15
33
24
30
61
69
75
94
112
133
152
167
191
229
272
318
367
420
475
526
566
572
512
387
238
93
-38
-143
-207
-239
-258
-268
-265
-259
-257
-254
-246
-238
-233
-224
-213
-202
-194
-190
-187
-179
-171
-172
-174
-168
-161
-160
-158
-152
-149
-152
-149
-140
-137
-139
-136
-130
-125
-120
-119
-119
-115
-113
-118
-112
-99
-96
-86
-53
-38
-64
-82
-75
-82
-87
-72
-77
-83
-53
-68
-112
-128
-208
39
1106
1856
852
-695
-862
-230
-47
-74
35
51
14
54
74
64
87
105
109
127
144
154
173
197
218
239
272
319
374
425
475
526
568
590
577
500
362
205
62
-56
-141
-198
-229
-237
-237
-241
-245
-240
-230
-220
-212
-205
-199
-194
-190
-187
-183
-177
-170
-166
-168
-169
-160
-150
-151
-154
-150
-144
-144
-145
-140
-132
-126
-124
-127
-127
-119
-114
-121
-124
-108
-100
-101
-79
-49
-59
-90
-93
-90
-100
-93
-86
-101
-86
-66
-105
-128
-164
-135
539
1586
1361
-239
-1107
-593
-99
-92
-33
57
25
37
84
79
84
113
122
129
151
170
187
208
234
266
299
338
386
440
495
555
612
649
645
578
449
284
114
-30
-134
-205
-251
-271
-274
-275
-276
-275
-270
-259
-249
-242
-231
-219
-213
-210
-206
-202
-197
-192
-188
-184
-180
-178
-177
-173
-169
-169
-166
-154
-145
-147
-146
-132
-129
-132
-112
-88
-99
-120
-122
-123
-128
-111
-103
-118
-100
-88
-128
-148
-211
-165
612
1657
1276
-363
-1095
-524
-84
-93
-22
53
17
36
76
67
81
110
114
123
145
160
177
202
228
256
294
340
394
454
514
567
612
641
626
540
389
214
55
-70
-162
-221
-252
-266
-269
-265
-261
-259
-254
-243
-231
-222
-216
-209
-202
-195
-189
-182
-178
-178
-177
-172
-168
-165
-162
-163
-161
-154
-151
-149
-139
-137
-146
-139
-122
-123
-116
-84
-77
-107
-117
-104
-111
-115
-99
-106
-109
-80
-97
-132
-161
-252
85
1232
1830
629
-842
-834
-197
-63
-76
33
32
5
50
61
52
75
91
103
123
130
140
170
199
218
244
283
332
383
432
483
533
571
586
557
456
303
146
10
-100
-180
-226
-248
-254
-254
-251
-245
-237
-231
-223
-213
-208
-206
-200
-195
-195
-191
-179
-174
-182
-180
-166
-164
-171
-163
-149
-151
-153
-138
-136
-151
-143
-123
-128
-122
-82
-73
-110
-125
-113
-119
-122
-108
-114
-112
-80
-98
-134
-154
-258
10
1137
1873
793
-764
-881
-235
-67
-102
3
21
-7
38
52
38
63
86
91
106
122
136
159
184
208
238
272
313
362
414
464
509
546
569
545
448
299
147
14
-93
-170
-216
-237
-246
-249
-244
-237
-234
-231
-221
-212
-208
-204
-195
-186
-181
-181
-180
-175
-169
-163
-158
-155
-155
-152
-151
-148
-138
-138
-147
-134
-114
-126
-133
-101
-79
-100
-116
-111
-116
-119
-108
-114
-111
-80
-99
-139
-161
-261
-2
1086
1782
698
-832
-926
-268
-82
-91
21
28
-4
43
59
47
77
102
108
123
136
150
176
199
220
254
298
345
394
448
511
568
604
619
592
482
311
145
7
-108
-188
-229
-254
-271
-277
-277
-269
-253
-239
-235
-236
-232
-216
-203
-202
-207
-205
-197
-191
-186
-183
-183
-183
-172
-159
-159
-166
-158
-146
-147
-138
-113
-108
-128
-132
-124
-130
-129
-123
-136
-123
-101
-130
-154
-195
-187
449
1516
1381
-209
-1171
-689
-142
-113
-55
51
26
27
74
71
74
105
117
125
148
170
189
212
243
276
306
345
403
469
525
575
623
652
633
544
394
219
54
-79
-170
-223
-251
-266
-273
-270
-263
-258
-254
-248
-241
-230
-218
-211
-209
-204
-198
-195
-191
-184
-177
-177
-181
-178
-168
-164
-160
-150
-151
-160
-150
-132
-129
-121
-97
-96
-118
-123
-120
-133
-130
-111
-120
-116
-89
-113
-139
-184
-295
132
1360
1814
455
-909
-749
-148
-75
-71
35
18
3
52
52
46
78
94
96
111
125
144
173
193
209
243
290
336
386
443
495
534
566
579
528
400
239
91
-32
-131
-198
-231
-244
-251
-253
-249
-242
-234
-229
-224
-216
-207
-199
-196
-191
-183
-177
-178
-175
-167
-166
-170
-167
-160
-155
-147
-142
-146
-144
-130
-128
-131
-109
-82
-92
-118
-122
-121
-127
-113
-106
-126
-109
-85
-122
-147
-219
-247
480
1714
1605
-69
-1046
-559
-79
-104
-51
38
-7
1
49
39
43
73
81
93
116
126
139
165
189
214
250
293
339
390
442
491
538
570
559
485
351
193
49
-63
-148
-209
-242
-252
-255
-255
-248
-240
-244
-244
-227
-209
-204
-202
-193
-184
-180
-174
-168
-167
-168
-165
-159
-154
-151
-151
-148
-147
-145
-133
-124
-135
-142
-124
-111
-111
-89
-61
-72
-98
-100
-99
-110
-100
-90
-107
-90
-64
-103
-129
-188
-224
443
1661
1635
15
-1010
-568
-71
-87
-46
51
20
25
65
54
59
88
92
99
119
132
154
180
196
219
257
299
345
401
454
502
549
587
589
527
396
233
85
-36
-135
-203
-236
-246
-248
-251
-253
-249
-240
-235
-229
-219
-210
-205
-198
-188
-184
-186
-181
-172
-176
-183
-176
-167
-166
-164
-158
-154
-150
-148
-151
-145
-127
-125
-139
-130
-109
-113
-111
-76
-68
-105
-120
-110
-117
-115
-101
-113
-102
-72
-107
-139
-166
-187
368
1492
1557
1
-1134
-737
-141
-99
-60
57
37
29
78
79
78
106
122
134
157
178
195
212
235
268
301
339
391
451
505
555
601
636
638
575
441
271
108
-26
-126
-193
-231
-252
-267
-272
-268
-264
-260
-251
-241
-234
-223
-210
-203
-201
-198
-194
-191
-186
-180
-175
-173
-174
-175
-173
-168
-164
-161
-157
-150
-142
-144
-148
-137
-124
-128
-118
-86
-77
-103
-114
-108
-115
-116
-101
-110
-110
-81
-102
-129
-152
-265
55
1239
1895
694
-826
-846
-205
-69
-82
37
41
7
50
62
55
83
100
101
118
138
153
171
192
217
252
292
332
382
443
501
544
582
601
561
446
286
128
-4
-107
-178
-224
-249
-258
-259
-262
-261
-252
-240
-234
-228
-218
-206
-194
-188
-185
-178
-170
-169
-169
-165
-161
-157
-152
-156
-159
-149
-139
-144
-147
-136
-133
-131
-118
-119
-136
-127
-103
-103
-98
-61
-52
-86
-98
-85
-93
-97
-81
-91
-92
-62
-86
-121
-144
-231
137
1314
1865
588
-873
-807
-167
-58
-73
37
31
8
61
69
55
81
98
102
122
139
148
167
191
211
237
277
325
374
424
476
523
562
582
547
438
288
141
11
-95
-165
-206
-233
-247
-249
-248
-247
-243
-235
-225
-216
-209
-202
-192
-184
-177
-168
-164
-162
-156
-151
-157
-163
-157
-150
-147
-146
-141
-138
-139
-141
-135
-122
-119
-125
-122
-112
-116
-123
-113
-103
-101
-78
-44
-50
-83
-91
-84
-89
-85
-82
-97
-78
-59
-104
-124
-167
-205
424
1604
1577
-32
-1057
-603
-91
-103
-53
61
32
29
69
58
64
100
107
113
140
156
165
190
218
243
277
318
363
420
482
537
587
624
626
567
444
278
114
-19
-121
-193
-233
-258
-278
-281
-272
-267
-260
-244
-236
-237
-232
-219
-209
-202
-196
-190
-182
-177
-181
-185
-181
-172
-168
-165
-161
-159
-157
-150
-140
-138
-147
-146
-130
-125
-127
-107
-83
-94
-119
-122
-118
-124
-119
-117
-121
-100
-95
-129
-149
-225
-118
752
1696
1072
-602
-1155
-497
-93
-105
-14
59
29
51
83
78
98
123
128
146
168
179
200
233
261
288
326
373
426
483
543
601
650
676
648
541
378
203
43
-87
-174
-222
-251
-267
-271
-269
-271
-269
-263
-254
-246
-237
-226
-215
-206
-198
-192
-189
-188
-184
-177
-170
-167
-166
-161
-155
-154
-152
-145
-142
-142
-136
-129
-126
-125
-127
-125
-115
-110
-103
-74
-53
-73
-98
-95
-97
-102
-86
-87
-93
-66
-74
-116
-135
-230
-46
997
1888
1026
-608
-931
-294
-52
-87
14
48
11
45
67
58
78
92
92
111
131
141
164
190
207
232
271
314
361
414
466
515
561
589
570
484
343
186
41
-78
-162
-212
-242
-263
-269
-261
-252
-247
-243
-238
-230
-220
-213
-208
-200
-190
-180
-171
-170
-176
-175
-165
-159
-162
-166
-162
-151
-147
-152
-152
-143
-135
-138
-141
-132
-121
-119
-103
-71
-69
-99
-111
-106
-112
-107
-95
-111
-105
-77
-106
-134
-173
-239
280
1497
1758
264
-998
-710
-123
-87
-71
41
17
3
54
59
61
88
95
99
119
138
157
181
200
221
255
296
342
395
454
508
551
584
598
557
437
275
118
-17
-125
-195
-229
-249
-260
-262
-263
-262
-247
-233
-233
-233
-224
-218
-212
-198
-190
-191
-187
-177
-171
-174
-177
-175
-168
-163
-161
-160
-157
-150
-138
-133
-138
-140
-131
-126
-118
-97
-86
-99
-107
-108
-118
-113
-100
-109
-101
-80
-110
-129
-162
-178
412
1535
1534
-50
-1137
-712
-136
-99
-53
54
27
27
79
81
84
108
116
133
157
167
181
211
239
263
298
345
395
446
504
565
616
650
653
583
437
262
99
-41
-149
-219
-256
-276
-289
-294
-291
-283
-274
-262
-250
-243
-240
-230
-215
-207
-203
-197
-191
-188
-185
-181
-179
-176
-167
-161
-166
-168
-156
-149
-158
-160
-149
-145
-136
-107
-97
-117
-126
-122
-129
-121
-107
-118
-107
-85
-119
-138
-188
-250
344
1571
1673
93
-1040
-646
-97
-90
-57
49
19
14
61
57
60
90
99
105
123
138
157
185
207
227
259
301
352
409
464
512
559
598
602
534
397
232
82
-46
-145
-208
-243
-260
-264
-260
-257
-255
-248
-237
-231
-225
-216
-205
-199
-195
-187
-179
-175
-171
-167
-165
-163
-159
-157
-158
-157
-151
-144
-135
-129
-134
-135
-121
-114
-111
-84
-64
-83
-106
-103
-107
-116
-102
-98
-106
-85
-86
-125
-147
-241
-120
846
1847
1172
-510
-1004
-375
-61
-104
-13
42
-1
21
53
49
66
86
88
103
125
139
158
181
200
228
271
313
351
403
466
519
560
587
572
488
345
182
37
-73
-152
-209
-246
-263
-263
-255
-246
-241
-239
-232
-220
-211
-207
-200
-190
-184
-183
-181
-177
-171
-167
-166
-169
-168
-164
-161
-161
-151
-136
-139
-149
-137
-119
-125
-125
-89
-65
-87
-112
-111
-114
-120
-111
-111
-112
-91
-109
-138
-148
-235
5
1066
1793
737
-852
-1000
-311
-92
-110
10
40
4
41
64
62
88
103
106
132
163
177
188
212
248
288
321
360
415
478
534
583
630
654
614
495
330
164
17
-101
-184
-235
-266
-279
-281
-279
-276
-270
-265
-263
-256
-242
-228
-219
-210
-203
-203
-205
-200
-193
-193
-194
-191
-185
-175
-168
-172
-172
-161
-157
-149
-122
-112
-133
-139
-131
-141
-141
-130
-139
-126
-98
-133
-158
-191
-242
292
1461
1615
88
-1102
-752
-149
-98
-72
40
27
21
62
61
66
97
107
115
139
158
174
198
225
256
294
337
388
443
496
552
613
649
633
548
401
223
58
-70
-162
-219
-245
-259
-270
-273
-264
-256
-254
-251
-239
-227
-221
-214
-203
-195
-192
-187
-182
-181
-177
-170
-168
-169
-167
-165
-159
-143
-142
-162
-159
-129
-124
-132
-110
-87
-106
-127
-123
-124
-128
-113
-117
-132
-102
-92
-137
-161
-254
-189
724
1828
1317
-389
-1018
-414
-62
-111
-27
41
-4
15
52
45
57
79
85
100
120
135
154
174
194
228
269
307
352
410
468
518
558
583
567
486
348
188
40
-77
-156
-205
-236
-249
-251
-252
-248
-238
-229
-223
-217
-210
-203
-193
-185
-181
-175
-168
-164
-160
-157
-160
-159
-151
-145
-142
-130
-123
-138
-146
-125
-112
-115
-95
-65
-77
-106
-101
-93
-107
-106
-95
-106
-92
-72
-114
-133
-180
-243
366
1603
1680
80
-1029
-615
-79
-88
-58
46
12
6
57
57
56
80
88
96
117
135
151
171
193
221
256
293
334
388
446
499
541
568
563
503
374
207
53
-66
-152
-211
-245
-262
-270
-271
-267
-262
-255
-245
-236
-231
-226
-219
-213
-207
-199
-195
-198
-197
-189
-179
-174
-177
-182
-183
-177
-173
-167
-158
-161
-175
-168
-148
-148
-144
-113
-102
-132
-147
-140
-149
-152
-130
-134
-140
-109
-123
-161
-183
-287
-17
1119
1835
701
-866
-939
-269
-104
-120
3
12
-25
26
48
36
62
90
101
111
122
143
177
202
222
258
307
355
407
465
520
571
620
644
607
492
327
164
23
-95
-177
-218
-242
-260
-263
-256
-251
-241
-226
-213
-207
-205
-198
-182
-171
-165
-159
-155
-150
-142
-138
-137
-132
-127
-122
-112
-105
-107
-106
-91
-79
-77
-65
-43
-45
-69
-75
-70
-76
-67
-55
-73
-67
-38
-66
-92
-126
-157
402
1536
1607
48
-1098
-707
-99
-42
-7
107
94
86
124
122
128
162
174
176
194
215
234
255
280
309
343
382
433
492
550
605
653
679
661
571
412
233
72
-68
-171
-223
-248
-273
-292
-297
-297
-294
-286
-282
-280
-275
-269
-266
-263
-258
-250
-243
-245
-252
-253
-253
-255
-254
-252
-257
-260
-255
-248
-244
-244
-258
-266
-252
-242
-246
-232
-207
-215
-241
-243
-242
-252
-241
-232
-251
-236
-209
-250
-277
-331
-385
239
1491
1590
6
-1119
-739
-216
-211
-168
-64
-101
-101
-44
-42
-38
-5
12
23
43
62
87
120
153
187
227
276
331
391
457
525
584
627
634
576
456
310
171
55
-30
-82
-103
-102
-96
-92
-80
-57
-37
-20
5
35
56
71
87
