# session 9
-48
-35
-66
-37
143
363
475
501
530
561
560
541
511
445
370
330
270
147
52
40
44
32
28
20
-12
-33
-28
-55
-138
-196
-196
-224
-265
-231
-198
-241
-287
-390
-348
451
1420
897
-778
-1492
-963
-516
-432
-325
-259
-241
-157
-100
-90
-27
71
162
265
376
471
554
624
675
722
765
758
683
576
440
289
181
114
57
38
41
5
-31
-18
-17
-54
-112
-219
-284
-209
-140
-161
-148
-164
-280
-374
-395
62
1286
1835
341
-1532
-1662
-795
-366
-265
-131
-53
-13
47
89
112
118
136
189
228
278
389
487
514
516
493
442
405
345
210
59
-45
-121
-175
-205
-241
-271
-264
-272
-336
-387
-387
-405
-446
-446
-423
-412
-376
-358
-400
-426
-506
-513
254
1471
1291
-425
-1393
-852
-275
-209
-103
54
77
67
43
27
103
211
256
254
256
310
376
364
319
342
388
382
356
319
220
73
-39
-95
-142
-199
-225
-224
-242
-246
-207
-184
-197
-198
-186
-186
-199
-197
-151
-130
-164
-143
-156
-116
703
1954
1639
-390
-1585
-1027
-331
-210
-113
-17
-71
-57
35
66
91
137
146
167
245
301
303
310
323
318
327
340
288
180
76
-11
-89
-146
-185
-207
-198
-167
-154
-184
-220
-211
-178
-180
-196
-185
-189
-216
-175
-110
-136
-166
-272
-494
55
1678
2295
649
-1026
-923
-291
-212
-173
-5
14
1
56
67
54
92
155
205
252
326
414
463
475
490
497
459
374
243
85
-42
-117
-168
-203
-215
-226
-239
-241
-253
-284
-290
-274
-291
-315
-295
-272
-257
-226
-229
-238
-248
-345
12
1299
1974
433
-1572
-1657
-714
-403
-386
-158
-61
-105
-65
-26
-29
4
50
90
140
181
218
274
300
251
190
174
155
76
-36
-135
-207
-250
-261
-238
-183
-125
-99
-96
-85
-49
-6
3
-8
16
33
18
33
34
-5
-51
-269
-281
841
2236
1699
-238
-980
-407
-121
-185
-52
7
-87
-37
58
25
15
101
148
165
246
300
231
141
118
131
168
204
188
130
60
-21
-83
-115
-152
-179
-168
-158
-187
-226
-233
-210
-198
-218
-231
-236
-261
-255
-225
-252
-266
-287
-336
164
1259
1365
-172
-1411
-1123
-485
-339
-256
-113
-104
-107
-52
-19
18
77
106
132
198
269
314
345
372
400
428
437
401
328
250
182
114
44
-11
-32
-20
-11
-38
-81
-101
-94
-94
-112
-118
-100
-94
-82
-40
-42
-64
-73
-174
80
1222
1997
852
-875
-1090
-403
-159
-138
0
26
-8
27
46
59
95
106
123
179
225
256
295
318
315
308
286
223
130
33
-51
-119
-173
-214
-231
-227
-225
-233
-247
-261
-260
-254
-273
-298
-294
-292
-287
-237
-219
-256
-285
-406
-321
615
1563
784
-1012
-1530
-806
-367
-325
-187
-105
-127
-83
-49
-59
-19
37
59
99
177
244
272
285
301
307
295
265
199
93
-5
-70
-117
-141
-139
-134
-126
-99
-95
-137
-158
-136
-143
-184
-188
-180
-197
-162
-94
-93
-97
-148
-187
476
1704
1643
-143
-1354
-909
-250
-129
-47
27
-30
8
97
68
39
87
123
144
193
229
232
234
246
282
357
396
341
265
213
143
79
69
73
65
59
51
36
15
-10
-7
7
-14
-27
-9
-33
-66
-63
-97
-113
-157
-346
27
1398
2024
581
-1014
-970
-354
-251
-251
-158
-166
-165
-113
-99
-76
-25
6
35
82
126
163
195
210
211
223
253
261
219
139
54
-8
-48
-90
-136
-169
-190
-213
-232
-251
-268
-266
-265
-288
-295
-286
-294
-280
-260
-287
-309
-417
-466
318
1570
1325
-478
-1434
-891
-386
-367
-270
-158
-178
-150
-85
-62
-24
31
76
134
206
274
341
396
421
430
438
433
384
294
204
127
55
13
6
-10
-25
-15
-32
-99
-131
-104
-111
-153
-153
-137
-138
-114
-111
-138
-124
-237
-304
501
1665
1175
-756
-1573
-828
-255
-265
-184
-55
-61
-42
5
16
53
103
138
195
255
298
353
394
386
383
412
406
344
267
183
93
25
-22
-52
-53
-41
-50
-83
-121
-142
-136
-142
-177
-198
-186
-166
-150
-168
-199
-213
-389
-510
275
1528
1301
-386
-1234
-710
-275
-284
-201
-118
-163
-146
-90
-83
-66
-38
-17
35
103
147
175
201
219
228
228
224
203
136
41
-29
-69
-109
-132
-120
-105
-113
-132
-151
-154
-135
-132
-154
-148
-123
-121
-80
-18
-51
-127
-269
-429
118
1368
1503
-81
-1244
-865
-282
-232
-184
-53
-56
-68
-26
-9
17
81
125
140
168
227
276
284
281
308
348
364
352
320
269
213
175
143
100
60
51
62
51
12
0
33
37
-14
-21
17
-23
-91
-47
-7
-79
-152
-234
-86
810
1627
779
-950
-1398
-696
-283
-235
-124
-82
-107
-63
-39
-51
-16
27
56
115
183
230
270
291
284
287
308
299
234
135
42
-21
-65
-108
-143
-154
-149
-154
-199
-250
-243
-207
-220
-241
-225
-233
-249
-221
-222
-243
-272
-488
-452
571
1505
610
-1076
-1347
-595
-279
-288
-154
-83
-111
-77
-40
-26
22
69
102
159
222
265
300
336
351
350
350
332
264
161
71
16
-19
-50
-81
-96
-82
-72
-108
-151
-138
-113
-137
-163
-146
-140
-135
-88
-78
-102
-126
-328
-370
561
1654
1004
-781
-1338
-619
-184
-190
-88
6
-24
-20
20
54
93
123
155
213
266
306
353
385
381
371
380
375
307
194
90
26
-2
-23
-62
-98
-102
-94
-105
-124
-122
-103
-110
-144
-138
-114
-129
-122
-90
-109
-137
-239
-307
394
1601
1408
-382
-1396
-831
-229
-169
-86
20
-17
-21
25
37
66
115
141
187
261
308
321
338
347
334
325
323
292
209
94
1
-38
-54
-89
-123
-123
-117
-143
-188
-216
-205
-179
-179
-195
-203
-211
-190
-157
-192
-227
-282
-467
-168
1024
1568
234
-1236
-1134
-455
-289
-261
-154
-165
-175
-112
-92
-82
-38
-3
35
104
176
224
244
247
251
277
311
301
229
137
59
-10
-66
-103
-131
-141
-120
-105
-134
-170
-165
-152
-176
-197
-183
-190
-195
-147
-135
-173
-220
-431
-413
601
1643
864
-863
-1241
-508
-160
-165
-43
16
-19
21
75
96
126
154
187
257
330
374
410
444
458
468
488
470
386
289
218
154
94
52
27
14
10
4
-22
-62
-76
-65
-70
-85
-78
-68
-55
-40
-65
-73
-76
-304
-420
377
1368
804
-784
-1253
-563
-152
-158
-64
20
0
21
60
67
87
115
134
169
214
244
261
273
279
263
235
200
120
-11
-125
-179
-206
-238
-273
-299
-307
-309
-324
-356
-371
-349
-324
-327
-321
-291
-272
-245
-210
-214
-205
-268
-498
-204
1000
1506
133
-1286
-1068
-314
-143
-115
20
32
28
88
98
95
144
202
251
307
365
419
451
442
429
446
465
432
337
220
128
63
7
-40
-66
-75
-74
-76
-105
-147
-158
-135
-130
-158
-166
-159
-170
-152
-124
-162
-201
-287
-421
63
1233
1390
-149
-1349
-992
-350
-243
-186
-57
-48
-42
-4
-5
20
82
118
159
235
301
331
346
346
326
315
321
290
198
101
40
-6
-47
-72
-87
-95
-93
-103
-132
-143
-125
-119
-138
-142
-131
-149
-155
-112
-116
-163
-169
-311
-347
539
1650
1064
-711
-1302
-613
-187
-181
-78
-9
-43
-14
29
43
91
150
190
248
321
378
418
444
454
460
467
450
379
263
153
81
25
-44
-102
-125
-132
-138
-144
-171
-208
-211
-199
-213
-228
-227
-229
-206
-183
-209
-209
-293
-570
-284
928
1360
-74
-1416
-1098
-354
-236
-216
-69
-58
-73
-13
11
23
72
125
176
232
287
343
378
370
352
353
338
280
187
88
10
-46
-96
-134
-150
-161
-156
-125
-122
-175
-203
-166
-150
-177
-170
-143
-147
-125
-105
-143
-126
-209
-496
-92
1273
1604
-57
-1412
-1004
-300
-238
-203
-61
-73
-84
-30
-21
2
72
121
155
208
268
321
353
361
366
370
353
301
200
79
3
-24
-62
-113
-135
-133
-127
-118
-127
-162
-170
-139
-138
-175
-169
-136
-145
-139
-103
-128
-167
-244
-366
125
1333
1531
-52
-1342
-995
-306
-188
-142
-19
-32
-47
8
35
63
123
176
229
301
371
409
416
412
419
438
445
403
309
201
115
62
22
-30
-78
-94
-94
-107
-135
-161
-156
-130
-140
-173
-165
-149
-163
-145
-123
-143
-151
-296
-476
208
1583
1570
-213
-1328
-815
-218
-176
-103
0
-42
-32
28
29
51
116
152
175
231
286
315
338
357
355
350
349
302
187
68
-8
-72
-137
-165
-171
-207
-243
-238
-243
-282
-280
-237
-246
-288
-275
-241
-243
-227
-199
-204
-198
-300
-532
-177
925
1191
-147
-1258
-918
-282
-180
-144
-26
-25
-24
29
43
67
124
154
181
238
294
334
358
358
358
377
371
299
184
75
-8
-66
-106
-142
-173
-189
-187
-179
-178
-195
-214
-211
-202
-209
-207
-179
-169
-170
-141
-137
-165
-177
-321
-353
494
1610
1133
-598
-1290
-667
-201
-154
-46
23
-8
34
92
107
144
186
217
280
358
403
423
436
431
422
430
410
314
191
102
31
-33
-69
-85
-92
-92
-101
-122
-141
-170
-197
-187
-174
-187
-179
-154
-167
-160
-124
-145
-159
-190
-290
158
1287
1446
-99
-1321
-955
-285
-167
-114
-2
-20
-33
7
23
58
115
149
187
246
303
355
389
390
392
417
415
349
247
148
70
13
-35
-80
-108
-119
-131
-141
-141
-154
-174
-161
-146
-180
-208
-183
-172
-187
-164
-162
-200
-237
-447
-510
429
1624
1103
-641
-1258
-638
-265
-275
-180
-116
-139
-96
-49
-38
-3
37
73
134
195
245
301
334
330
346
382
360
258
145
62
-8
-69
-108
-130
-148
-161
-161
-155
-169
-210
-229
-197
-169
-182
-184
-162
-155
-141
-128
-150
-150
-220
-357
103
1184
1236
-317
-1446
-1004
-312
-192
-126
9
2
-2
58
80
102
157
196
235
296
351
395
426
423
411
417
399
318
208
104
16
-40
-67
-93
-122
-134
-130
-119
-115
-141
-175
-178
-169
-180
-186
-178
-180
-166
-130
-147
-167
-173
-333
-240
772
1661
729
-1033
-1393
-627
-218
-181
-63
2
-10
32
73
96
143
187
235
311
369
388
405
429
443
459
480
456
345
193
83
27
-24
-84
-121
-131
-135
-137
-146
-175
-201
-200
-198
-222
-233
-207
-199
-198
-166
-180
-228
-249
-424
-427
569
1740
1130
-642
-1204
-556
-210
-241
-139
-72
-117
-103
-64
-41
2
45
90
159
216
251
290
309
292
287
300
277
201
116
42
-24
-80
-119
-143
-155
-166
-176
-173
-162
-168
-179
-166
-146
-149
-148
-122
-114
-134
-117
-100
-127
-169
-349
-473
258
1486
1358
-210
-1074
-633
-208
-195
-124
-49
-76
-49
13
35
69
127
175
227
291
346
384
405
412
423
441
430
347
217
103
30
-27
-86
-138
-173
-187
-187
-185
-197
-227
-251
-242
-232
-249
-249
-218
-216
-219
-186
-187
-210
-258
-421
-201
881
1554
448
-1067
-1131
-441
-215
-191
-44
5
-12
36
82
104
143
190
241
301
358
402
428
438
439
431
403
334
220
96
1
-59
-96
-126
-149
-153
-146
-143
-139
-139
-157
-176
-170
-160
-166
-168
-162
-161
-139
-120
-150
-163
-247
-435
-27
1167
1494
73
-1203
-955
-323
-209
-160
-20
-8
-12
40
56
69
124
181
229
281
334
391
430
427
404
399
384
307
185
69
-24
-86
-122
-153
-178
-182
-183
-197
-205
-214
-240
-251
-225
-218
-247
-252
-233
-221
-195
-191
-224
-252
-426
-552
231
1530
1365
-310
-1184
-676
-239
-249
-156
-50
-95
-102
-43
-2
37
80
115
153
205
281
350
359
329
330
362
358
278
161
78
30
-19
-58
-72
-94
-124
-129
-113
-110
-127
-144
-137
-119
-128
-148
-131
-118
-137
-112
-69
-105
-159
-265
-338
275
1386
1323
-168
-1083
-667
-175
-131
-80
2
-11
-2
38
61
99
140
174
225
280
332
391
427
423
423
447
440
353
221
107
25
-46
-108
-148
-173
-194
-209
-216
-225
-248
-270
-264
-248
-254
-262
-250
-238
-218
-194
-209
-209
-270
-540
-383
795
1590
493
-1044
-1082
-381
-188
-186
-48
-26
-52
15
52
55
112
174
201
250
338
413
437
432
437
448
426
353
252
149
55
-14
-50
-72
-94
-112
-130
-140
-129
-130
-170
-194
-163
-147
-175
-181
-169
-170
-151
-133
-141
-127
-237
-443
-36
958
962
-460
-1385
-869
-203
-122
-95
26
44
55
92
79
101
187
236
262
334
415
448
446
443
439
405
334
245
145
52
-3
-42
-81
-91
-98
-132
-132
-93
-98
-140
-151
-132
-116
-123
-142
-132
-103
-95
-102
-115
-114
-165
-384
-337
493
1135
261
-1143
-1262
-501
-159
-161
-59
1
-24
8
46
56
102
154
188
249
330
382
401
397
375
349
312
238
134
38
-33
-83
-118
-139
-153
-165
-170
-159
-144
-150
-179
-195
-179
-175
-196
-196
-177
-171
-146
-132
-164
-153
-237
-510
-174
1026
1308
-225
-1469
-1018
-251
-152
-136
-1
-9
-28
33
47
53
119
177
206
259
333
385
398
381
364
364
349
278
169
75
17
-27
-68
-101
-123
-136
-132
-118
-109
-113
-126
-135
-122
-108
-109
-98
-85
-89
-61
-33
-64
-81
-198
-432
14
1273
1520
0
-1162
-721
-58
-12
2
126
115
95
145
177
203
242
284
342
402
439
469
485
463
441
451
448
385
290
199
116
48
7
-20
-60
-102
-115
-106
-102
-111
-126
-137
-128
-122
-148
-173
-163
-166
-183
-166
-173
-216
-287
-542
-623
226
1197
568
-971
-1308
-608
-280
-327
-262
-226
-268
-254
-247
-260
-220
-170
-149
-129
-111
-94
-55
