# session 8
-12
-26
40
-47
-381
-641
-571
-366
-365
-512
-498
-370
-366
-344
-110
127
194
216
237
201
188
199
17
-336
-483
-334
-235
-319
-401
-413
-363
-251
-174
-149
-112
-146
-245
-218
-124
-133
-137
-61
-46
-97
-114
-156
-256
-294
-228
-165
-143
-94
-90
-193
132
1336
2154
998
-966
-1406
-573
-84
-59
57
187
216
230
233
240
305
389
425
434
480
553
595
604
605
572
450
283
193
153
26
-151
-279
-368
-390
-376
-451
-492
-338
-232
-365
-511
-492
-382
-272
-201
-110
19
-63
-408
-557
-341
-175
-216
-262
-250
-161
-26
-65
-349
-514
140
1621
2267
876
-851
-970
-312
-193
-287
-140
-12
-38
-88
-82
-4
119
240
323
378
483
636
705
695
737
776
698
586
476
279
102
89
90
-62
-219
-192
-92
-110
-220
-310
-374
-405
-360
-293
-304
-359
-346
-326
-401
-441
-398
-451
-552
-516
-416
-329
-276
-327
-400
-412
-121
917
1781
823
-903
-1063
-266
-105
-61
258
147
-57
263
526
401
381
510
519
525
624
712
777
807
765
710
616
405
161
-49
-232
-295
-240
-234
-272
-233
-176
-185
-216
-255
-315
-340
-311
-282
-259
-230
-231
-231
-183
-185
-275
-292
-187
-115
-183
-336
-435
-502
-518
88
1284
1381
-334
-1782
-1475
-610
-318
-284
-214
-196
-190
-152
-68
70
152
147
210
392
564
703
869
981
944
828
656
372
126
60
-5
-181
-296
-285
-227
-136
-84
-149
-188
-114
-88
-164
-209
-222
-291
-371
-398
-402
-391
-345
-282
-229
-193
-133
-28
20
-6
-54
-260
-200
1052
2455
1613
-746
-1619
-840
-275
-181
-31
48
84
221
221
35
-46
48
135
161
189
231
289
422
592
660
586
414
181
-55
-256
-397
-386
-266
-245
-305
-266
-181
-154
-72
97
197
233
293
202
-108
-234
1
94
-151
-189
50
20
-142
30
209
70
-127
-218
231
1534
2155
662
-1205
-1380
-733
-521
-415
-220
-204
-163
23
105
75
78
108
161
252
358
478
581
632
700
777
724
525
282
29
-166
-171
-90
-192
-337
-191
-59
-337
-562
-400
-368
-581
-564
-407
-453
-524
-448
-407
-473
-519
-497
-474
-474
-428
-336
-300
-271
-258
-316
196
1556
2015
451
-1069
-947
-453
-430
-356
-351
-512
-399
-195
-109
155
434
469
526
622
545
484
581
650
649
648
537
285
114
128
114
-30
-108
-45
-53
-221
-318
-196
-57
-74
-128
-145
-217
-333
-372
-261
-69
-40
-139
-1
254
255
248
272
-144
-628
-602
-393
208
1513
1784
-47
-1633
-1274
-557
-613
-628
-341
-201
-165
-113
-73
77
273
314
343
560
835
997
1022
948
912
1002
1004
754
457
269
107
-4
-21
-61
-122
-110
-95
-125
-138
-175
-230
-168
-107
-276
-518
-536
-386
-318
-418
-486
-328
-131
-91
-81
-98
-184
-220
-267
142
1625
2498
766
-1552
-1656
-651
-358
-347
-192
-189
-225
-160
-41
99
76
-72
-48
74
118
231
427
487
425
415
419
286
33
-198
-365
-514
-628
-639
-573
-525
-519
-495
-423
-338
-270
-221
-196
-187
-155
-88
-77
-210
-384
-401
-222
2
102
75
43
-39
-300
-379
450
1814
1912
252
-1096
-863
-260
-202
-274
-287
-277
-86
139
167
144
227
357
455
513
566
679
885
1072
1065
960
927
789
456
235
281
387
407
376
337
168
-252
-620
-527
-233
-240
-397
-374
-338
-431
-465
-434
-482
-549
-555
-516
-437
-425
-554
-613
-565
-668
-466
761
1885
1045
-863
-1472
-809
-330
-193
5
117
61
-19
-83
-98
-26
77
199
377
546
635
759
963
1057
966
738
363
49
10
36
-92
-267
-384
-390
-291
-250
-288
-241
-137
-123
-174
-194
-187
-206
-237
-225
-219
-251
-226
-183
-209
-181
-128
-227
-351
-382
-126
926
2005
1231
-848
-1664
-985
-456
-357
-232
-172
-134
-51
-108
-149
-17
-1
-139
-119
47
178
306
429
474
524
647
709
623
483
345
201
132
125
52
-24
2
30
12
-8
-78
-184
-185
-21
173
212
141
154
167
16
-134
-108
-45
-118
-260
-339
-352
-77
803
1429
434
-1361
-1837
-1006
-358
-199
-88
-4
20
41
50
113
254
352
387
438
529
660
806
902
928
924
862
670
398
165
-4
-141
-251
-341
-432
-514
-545
-519
-521
-598
-677
-703
-662
-573
-573
-701
-743
-628
-557
-588
-580
-469
-360
-334
-316
-385
-527
127
1761
2253
487
-1182
-1059
-454
-323
-250
-217
-285
-225
-145
-76
142
329
357
427
561
639
714
804
813
779
802
772
554
291
145
-4
-225
-302
-170
-64
-92
-152
-194
-219
-233
-266
-276
-226
-192
-194
-174
-135
-83
-53
-104
-113
-18
-44
-139
-66
-62
71
1162
2253
1264
-879
-1470
-666
-232
-211
-38
76
46
26
-18
-43
28
112
176
277
400
492
532
551
621
718
719
628
527
386
223
169
137
-4
-87
-46
-77
-109
-39
-128
-372
-398
-303
-349
-318
-186
-298
-460
-330
-253
-440
-507
-425
-479
-614
-700
-360
803
1598
432
-1469
-1810
-990
-534
-415
-223
-168
-223
-173
-101
-67
7
73
94
174
333
477
594
706
790
828
781
631
469
306
66
-151
-234
-298
-415
-485
-471
-436
-405
-373
-362
-407
-455
-427
-379
-403
-444
-434
-403
-403
-417
-380
-322
-313
-356
-485
-316
899
2324
1806
-264
-1184
-550
-65
-43
110
232
179
201
290
302
280
318
426
519
535
559
687
849
918
873
772
670
561
373
110
-90
-156
-170
-187
-189
-178
-154
-126
-139
-179
-183
-162
-172
-193
-194
-186
-164
-132
-139
-160
-156
-223
-292
-236
-370
-440
760
2462
1900
-597
-1727
-963
-367
-369
-277
-170
-160
-70
15
7
5
39
70
99
159
273
398
474
498
499
502
494
414
244
56
-82
-171
-235
-274
-282
-274
-256
-219
-189
-201
-210
-171
-148
-187
-229
-238
-235
-235
-234
-231
-246
-272
-339
-519
-374
742
1863
1138
-775
-1523
-1004
-681
-665
-462
-275
-257
-235
-167
-75
16
46
54
119
221
317
416
543
668
729
715
675
584
384
165
51
-33
-175
-257
-253
-300
-354
-303
-259
-308
-328
-285
-280
-362
-490
-510
-310
-111
-138
-200
-158
-171
-222
-337
-560
-52
1573
2340
843
-892
-950
-377
-291
-279
-153
-165
-183
-113
-85
-62
13
67
119
229
332
415
540
623
576
542
608
628
521
368
216
75
-26
-88
-133
-157
-161
-158
-146
-135
-160
-202
-191
-140
-124
-125
-92
-78
-108
-93
-44
-84
-96
40
-12
-31
1022
2419
1807
-364
-1258
-619
-222
-261
-143
-75
-137
-98
-40
-48
-29
1
12
55
126
189
272
389
481
513
520
496
375
185
30
-90
-239
-359
-377
-381
-437
-458
-434
-459
-498
-453
-359
-282
-231
-212
-193
-150
-152
-201
-212
-203
-231
-310
-312
291
1465
1666
114
-1335
-1172
-453
-262
-229
-98
-103
-176
-115
21
64
-2
-39
15
89
158
265
376
434
472
516
498
390
276
189
93
5
-38
-78
-127
-146
-143
-132
-102
-88
-106
-88
-47
-84
-192
-253
-245
-228
-184
-114
-149
-264
-362
-566
-431
850
2106
1170
-974
-1572
-758
-281
-267
-236
-275
-315
-233
-173
-150
-81
-10
41
110
213
339
458
563
660
713
712
688
606
440
278
174
76
-28
-89
-111
-125
-117
-88
-92
-127
-115
-77
-101
-146
-143
-154
-219
-255
-186
-84
-120
-252
-314
-309
53
1008
1425
243
-1194
-1256
-608
-317
-191
-15
28
23
94
149
160
184
226
263
303
370
458
544
628
688
685
643
589
493
352
201
48
-69
-107
-117
-153
-205
-252
-275
-272
-301
-358
-362
-322
-316
-336
-329
-327
-379
-424
-410
-380
-405
-568
-563
340
1582
1243
-578
-1525
-1010
-491
-408
-284
-174
-172
-97
19
45
35
99
226
321
390
502
616
695
778
816
755
668
570
400
212
88
5
-37
-28
-58
-127
-98
-48
-162
-316
-335
-339
-397
-408
-389
-424
-482
-501
-464
-440
-463
-428
-361
-183
631
1631
1094
-871
-1881
-1239
-491
-290
-163
-37
-7
30
83
127
176
216
278
382
482
577
693
799
847
831
796
761
664
480
258
34
-90
-12
106
27
-161
-261
-304
-339
-330
-325
-360
-363
-348
-386
-417
-401
-390
-364
-335
-354
-366
-477
-640
34
1602
1977
279
-1169
-918
-351
-330
-251
-84
-166
-232
-115
-45
-68
-57
3
151
369
412
266
319
596
686
586
564
520
323
123
-24
-167
-232
-217
-230
-257
-218
-163
-159
-164
-113
-35
1
-14
-41
-54
-55
-32
23
16
-55
-29
-102
-282
470
2093
2155
39
-1425
-959
-295
-253
-204
-97
-134
-159
-131
-93
-15
41
44
69
122
164
222
314
412
483
490
426
317
167
-10
-168
-285
-357
-385
-399
-403
-368
-328
-318
-279
-234
-267
-301
-243
-195
-215
-207
-179
-222
-276
-324
-480
-358
673
1775
1184
-659
-1492
-904
-325
-228
-153
-71
-130
-212
-216
-181
-131
-36
78
139
184
287
404
484
551
600
615
611
564
446
310
215
142
45
-40
-23
65
78
15
-7
-8
-25
-3
5
-54
-81
-89
-111
-39
2
-142
-234
-207
49
1067
2054
1148
-929
-1639
-970
-564
-547
-414
-322
-319
-273
-241
-216
-146
-83
-32
25
78
174
318
423
472
506
509
467
406
307
165
67
34
-46
-175
-222
-213
-251
-267
-210
-179
-198
-203
-216
-247
-218
-135
-121
-214
-312
-327
-307
-428
-538
77
1275
1344
-250
-1514
-1233
-533
-282
-159
4
85
115
128
157
218
242
255
339
431
483
547
605
643
708
731
665
610
553
396
228
123
4
-94
-104
-101
-119
-124
-171
-244
-245
-211
-220
-231
-215
-227
-289
-331
-315
-329
-370
-392
-528
-401
737
1910
1167
-760
-1449
-878
-509
-450
-290
-209
-216
-140
-66
-22
77
156
156
178
283
419
520
590
663
707
713
742
710
461
145
31
48
-42
-233
-356
-352
-310
-311
-347
-392
-436
-447
-423
-400
-399
-435
-467
-419
-374
-392
-331
-254
-99
736
1766
1179
-814
-1756
-1110
-481
-349
-188
-46
-51
-48
-25
27
134
185
204
310
404
421
493
615
653
647
676
650
533
404
258
78
-43
-93
-171
-280
-339
-333
-320
-343
-368
-333
-273
-279
-327
-323
-284
-286
-277
-200
-170
-211
-263
-489
-478
772
2349
1840
-239
-1070
-475
-184
-261
-105
-16
-105
-79
27
71
76
92
172
285
323
317
364
420
434
443
445
415
372
297
173
64
-4
-84
-125
-66
-12
-35
-65
-79
-107
-119
-110
-122
-139
-136
-151
-167
-134
-126
-172
-236
-441
-425
678
2089
1548
-661
-1739
-1072
-431
-373
-295
-196
-232
-238
-204
-191
-137
-75
-56
8
124
186
227
315
361
330
328
351
267
102
-14
-81
-160
-215
-218
-205
-161
-99
-95
-119
-98
-91
-134
-158
-154
-177
-212
-208
-201
-250
-289
-366
-469
128
1518
1799
86
-1357
-1020
-287
-139
-76
-5
-107
-145
-94
-107
-82
26
97
124
172
247
348
445
486
488
494
499
483
420
299
166
59
-16
-38
-22
-18
-21
-22
-69
-145
-167
-164
-198
-202
-163
-197
-262
-208
-148
-230
-353
-504
-442
526
1754
1253
-689
-1558
-953
-483
-471
-389
-331
-333
-218
-109
-81
-37
-4
12
82
171
245
353
467
527
566
611
622
593
544
432
275
188
162
102
46
38
-1
-81
-136
-153
-128
-107
-159
-197
-142
-101
-95
-80
-134
-186
-219
-376
-40
1283
1904
331
-1533
-1553
-727
-460
-402
-196
-109
-108
-32
53
94
135
195
249
303
388
482
568
650
673
639
628
579
433
303
207
75
-37
-129
-270
-360
-351
-370
-411
-389
-362
-370
-393
-430
-440
-398
-353
-324
-317
-348
-421
-615
-667
142
1346
1118
-555
-1467
-981
-464
-370
-249
-148
-134
-57
-6
14
138
221
173
213
361
431
478
588
654
644
630
606
549
467
341
171
40
34
81
28
-89
-110
-72
-108
-193
-266
-328
-349
-342
-343
-306
-248
-249
-265
-233
-177
-177
-217
241
1449
1928
392
-1476
-1581
-699
-301
-224
-88
-51
-47
21
31
13
58
99
111
174
308
436
488
485
485
490
489
478
399
236
85
-22
-148
-265
-316
-377
-457
-408
-274
-264
-343
-341
-303
-324
-332
-258
-208
-242
-233
-171
-172
-171
-261
-486
99
1749
2235
415
-1203
-932
-283
-218
-103
75
11
-47
-6
48
160
222
228
384
534
514
629
836
710
460
486
565
454
292
146
5
-68
-100
-153
-184
-152
-109
-107
-145
-192
-208
-192
-204
-260
-287
-294
-334
-339
-306
-318
-341
-493
-642
194
1840
1863
-336
-1853
-1307
-515
-428
-358
-197
-206
-242
-230
-211
-165
-137
-114
-13
111
175
211
257
318
387
421
396
337
247
121
4
-71
-117
-145
-156
-160
-154
-128
-102
-72
-12
55
66
28
-2
15
79
86
-61
-178
-174
-295
-129
1047
2029
1016
-791
-1107
-444
-249
-274
-104
-78
-184
-168
-131
-144
-101
-31
-4
50
161
248
297
348
368
337
307
296
272
211
123
49
0
-44
-71
-61
-34
-11
-47
-135
-121
-11
-42
-170
-165
-141
-207
-144
-13
-84
-255
-410
-343
563
1676
1058
-919
-1665
-872
-364
-460
-400
-243
-224
-203
-158
-142
-104
-42
12
81
171
257
339
415
471
524
572
574
521
425
314
241
181
86
23
22
7
-31
-64
-110
-158
-172
-149
-119
-126
-158
-148
-114
-124
-153
-155
-251
-411
14
1187
1558
65
-1585
-1609
-827
-481
-383
-235
-173
-126
-22
27
38
104
199
264
289
327
447
578
583
518
539
596
564
484
388
236
130
126
82
-5
-10
-5
-70
-105
-92
-129
-180
-149
-101
-142
-221
-236
-241
-334
-413
-351
-385
-532
73
1539
1962
378
-1171
-1006
-251
-174
