# session 12
-235
-185
-254
-240
42
327
314
161
93
55
-5
-38
-50
-66
-76
-88
-105
-107
-106
-121
-122
-106
-112
-94
-43
-53
-74
-106
-256
17
1149
1702
373
-1192
-1118
-318
-62
-11
148
170
128
173
210
224
264
297
324
381
439
474
494
501
498
501
491
434
333
225
142
85
31
-18
-35
-28
-38
-77
-122
-139
-134
-148
-166
-163
-172
-173
-135
-136
-148
-162
-380
-306
855
1858
791
-1097
-1365
-531
-200
-204
-58
1
-23
30
69
70
94
124
181
271
330
364
403
403
375
386
403
352
252
151
64
4
-35
-84
-129
-138
-139
-171
-202
-202
-200
-220
-225
-215
-235
-245
-208
-211
-231
-254
-508
-580
454
1697
1145
-540
-1066
-522
-287
-316
-194
-151
-199
-165
-133
-125
-76
-18
24
72
121
177
222
213
199
253
316
297
237
188
109
12
-22
-20
-55
-92
-93
-100
-129
-131
-104
-98
-112
-104
-97
-114
-100
-73
-92
-105
-213
-421
0
1166
1402
-31
-1212
-920
-317
-203
-146
-38
-52
-54
5
25
39
91
142
186
239
289
322
348
378
416
457
464
404
300
207
134
60
-7
-58
-99
-131
-145
-165
-203
-220
-210
-227
-258
-251
-239
-242
-219
-219
-257
-276
-408
-431
387
1439
900
-846
-1491
-802
-303
-248
-123
-31
-54
-15
38
38
69
123
149
184
261
342
384
395
413
437
420
349
253
161
93
44
-17
-90
-131
-132
-122
-129
-160
-180
-162
-152
-180
-191
-176
-171
-145
-123
-142
-147
-260
-413
170
1340
1225
-513
-1555
-962
-272
-190
-124
-5
-21
-11
46
62
100
164
199
242
315
384
434
456
448
450
468
442
347
241
159
89
33
2
-19
-37
-40
-44
-81
-125
-126
-115
-141
-159
-150
-162
-159
-118
-140
-179
-201
-411
-364
739
1784
876
-941
-1310
-574
-242
-242
-125
-82
-116
-79
-43
-30
6
46
92
145
195
257
310
307
282
293
306
258
161
65
-3
-52
-95
-128
-149
-156
-149
-157
-209
-235
-184
-145
-174
-188
-172
-191
-188
-159
-201
-237
-300
-521
-207
1056
1585
179
-1267
-1096
-421
-284
-252
-147
-167
-175
-111
-83
-54
10
56
99
167
233
275
302
330
360
392
410
372
285
211
151
80
26
7
-18
-55
-65
-62
-86
-110
-95
-84
-117
-128
-108
-124
-130
-83
-83
-120
-196
-337
55
1215
1563
117
-1261
-1031
-305
-126
-90
25
36
38
89
100
111
158
203
255
327
387
424
440
447
470
506
505
433
327
230
150
88
48
21
6
9
13
-25
-100
-143
-140
-160
-204
-211
-206
-212
-180
-155
-174
-185
-325
-451
198
1241
839
-945
-1751
-1014
-353
-297
-233
-124
-131
-118
-78
-73
-45
15
65
115
166
216
269
301
303
313
326
292
202
97
2
-72
-114
-143
-177
-193
-184
-186
-221
-248
-232
-206
-221
-247
-229
-200
-190
-171
-172
-185
-189
-365
-450
388
1541
1065
-725
-1435
-745
-216
-176
-96
-31
-53
-20
19
31
87
153
188
235
297
349
387
409
409
401
402
392
324
215
140
105
53
-1
-11
-2
-5
-13
-31
-64
-73
-55
-58
-85
-85
-69
-68
-58
-60
-91
-120
-280
-381
313
1343
959
-660
-1347
-725
-200
-127
-55
-11
-43
-19
17
27
69
117
150
199
254
292
318
329
335
359
385
367
307
233
151
70
9
-31
-65
-88
-80
-64
-83
-125
-131
-109
-116
-144
-145
-137
-152
-142
-120
-147
-163
-257
-478
-102
1095
1402
-93
-1382
-1030
-294
-154
-121
-5
-20
-39
24
55
70
127
189
231
271
318
357
379
397
432
462
438
350
242
143
50
-32
-96
-141
-160
-172
-185
-189
-206
-242
-251
-243
-262
-270
-246
-235
-218
-195
-226
-240
-265
-438
-258
681
1075
-209
-1598
-1383
-496
-198
-175
-52
-8
-17
21
42
53
95
135
178
242
295
322
349
389
426
441
419
360
273
172
82
20
-30
-82
-115
-109
-92
-95
-120
-147
-151
-140
-153
-172
-151
-134
-150
-136
-111
-109
-117
-278
-403
252
1264
892
-726
-1408
-727
-147
-70
15
90
67
102
156
168
212
271
299
340
405
454
486
499
490
489
490
438
339
237
148
68
5
-44
-76
-89
-91
-89
-101
-132
-153
-152
-163
-192
-198
-184
-188
-178
-145
-164
-204
-266
-494
-411
603
1401
427
-1154
-1318
-562
-226
-198
-92
-53
-75
-42
-9
12
59
110
151
194
244
292
316
316
320
334
326
274
188
100
30
-26
-74
-105
-122
-138
-146
-134
-130
-160
-184
-168
-159
-182
-182
-155
-158
-162
-129
-132
-161
-221
-439
-339
667
1446
508
-986
-1116
-416
-150
-142
-26
14
-8
33
68
89
143
198
241
298
360
397
409
415
429
443
429
360
251
148
77
18
-48
-103
-121
-123
-140
-147
-138
-163
-202
-190
-167
-187
-193
-174
-176
-164
-132
-140
-134
-193
-411
-136
964
1349
-9
-1306
-1014
-264
-111
-89
55
76
52
95
116
119
154
199
243
291
347
405
432
420
423
438
391
283
181
93
5
-51
-74
-110
-150
-160
-157
-167
-191
-228
-261
-266
-268
-280
-264
-241
-256
-252
-223
-242
-253
-318
-492
-104
1060
1334
-183
-1500
-1159
-399
-229
-172
-31
-14
-4
57
69
89
166
229
270
325
389
442
461
448
441
446
413
332
234
138
54
-4
-43
-73
-95
-111
-114
-98
-87
-123
-179
-181
-152
-162
-181
-185
-215
-213
-144
-141
-205
-288
-421
-57
1117
1568
135
-1387
-1251
-487
-276
-241
-88
-30
-34
-8
14
53
123
178
219
272
336
384
395
379
374
386
369
300
221
163
100
29
-12
-32
-59
-74
-71
-79
-99
-118
-143
-153
-154
-170
-173
-159
-191
-197
-110
-92
-169
-196
-332
-350
579
1719
1076
-790
-1389
-634
-160
-144
-44
21
1
54
91
78
132
223
261
275
308
360
402
405
395
420
438
370
243
128
37
-30
-70
-100
-136
-179
-213
-202
-165
-174
-226
-241
-216
-219
-235
-222
-215
-229
-202
-161
-178
-197
-251
-359
1
932
1066
-304
-1484
-1171
-412
-194
-142
-3
21
-8
30
76
112
150
169
202
284
357
380
396
434
452
414
338
243
147
86
40
-22
-52
-59
-132
-211
-197
-169
-183
-170
-148
-170
-185
-174
-180
-188
-177
-167
-144
-128
-142
-148
-269
-409
201
1398
1331
-364
-1431
-893
-213
-117
-54
51
25
36
107
111
111
166
225
285
372
448
472
460
443
423
381
315
243
163
74
3
-49
-99
-123
-110
-108
-126
-122
-109
-132
-168
-166
-155
-166
-157
-135
-168
-187
-132
-135
-189
-204
-381
-428
485
1583
981
-722
-1252
-602
-210
-194
-115
-94
-137
-88
-22
0
23
53
97
164
221
261
296
311
308
325
347
312
214
111
44
-5
-62
-103
-114
-136
-176
-187
-178
-192
-196
-164
-139
-151
-182
-200
-175
-145
-152
-138
-91
-85
-107
-194
-238
339
1325
1194
-257
-1123
-686
-171
-111
-61
14
-5
11
57
62
81
127
168
222
288
339
376
398
403
419
439
411
314
192
86
3
-50
-80
-111
-144
-163
-167
-164
-162
-182
-206
-198
-186
-204
-212
-197
-200
-186
-140
-143
-159
-209
-428
-288
763
1455
354
-1179
-1211
-439
-171
-165
-31
15
-10
38
77
87
138
192
227
286
360
403
421
431
432
422
382
286
166
73
-1
-66
-104
-128
-151
-157
-146
-139
-140
-157
-192
-213
-188
-154
-159
-192
-208
-187
-141
-118
-120
-134
-269
-355
217
1108
808
-697
-1459
-854
-210
-117
-72
43
73
98
131
115
115
159
197
232
291
357
401
407
381
350
320
259
161
60
-25
-92
-133
-156
-170
-152
-103
-64
-52
-64
-109
-146
-130
-115
-155
-185
-172
-166
-151
-117
-130
-133
-156
-382
-284
807
1658
629
-1041
-1229
-473
-161
-136
-7
25
-5
38
67
86
153
213
259
327
393
436
461
450
417
401
377
308
202
83
-15
-60
-76
-105
-137
-148
-144
-142
-154
-180
-197
-189
-178
-184
-194
-191
-187
-179
-150
-150
-189
-221
-388
-526
217
1540
1450
-274
-1272
-750
-210
-195
-137
-45
-74
-59
-11
-13
11
84
144
187
234
286
321
315
291
297
312
285
214
123
29
-37
-69
-101
-142
-159
-158
-161
-160
-152
-163
-185
-175
-148
-157
-173
-146
-126
-146
-135
-112
-133
-176
-356
-471
251
1404
1164
-447
-1231
-658
-148
-113
-45
32
3
18
64
68
92
153
208
262
321
359
378
403
436
460
463
424
329
213
112
26
-41
-84
-117
-137
-142
-144
-150
-155
-161
-170
-168
-158
-161
-175
-181
-179
-159
-134
-145
-155
-207
-428
-355
548
1225
294
-1144
-1222
-449
-132
-125
-2
63
40
63
93
114
154
186
225
290
348
388
416
433
452
459
418
321
193
78
6
-53
-127
-164
-150
-158
-196
-203
-185
-189
-200
-196
-190
-204
-221
-214
-196
-190
-163
-133
-153
-164
-236
-448
-192
841
1214
-71
-1329
-1052
-285
-108
-105
17
42
18
47
64
91
151
193
235
303
348
363
395
426
428
427
402
300
168
76
14
-51
-109
-136
-124
-110
-131
-149
-123
-110
-147
-160
-129
-144
-193
-168
-114
-124
-121
-76
-86
-118
-236
-488
-156
1086
1600
284
-1066
-889
-234
-108
-94
6
-7
-12
47
45
47
119
179
207
263
336
375
369
343
330
350
354
280
162
77
17
-57
-118
-135
-143
-166
-179
-164
-143
-148
-176
-191
-173
-157
-167
-171
-158
-174
-190
-149
-126
-152
-204
-428
-527
276
1345
918
-617
-1156
-550
-163
-166
-86
-22
-52
-27
18
27
57
109
155
207
265
313
337
343
363
408
430
377
275
181
104
30
-28
-61
-89
-113
-121
-123
-127
-122
-123
-145
-157
-140
-141
-166
-161
-136
-137
-129
-116
-142
-163
-303
-564
-177
1033
1349
-62
-1240
-872
-197
-108
-95
24
24
10
69
100
113
156
205
252
306
358
401
432
454
472
471
412
291
164
72
-3
-77
-133
-159
-170
-176
-185
-194
-187
-173
-185
-208
-203
-194
-207
-213
-194
-176
-148
-116
-130
-137
-167
-394
-377
492
1177
236
-1227
-1278
-441
-95
-93
30
89
54
91
145
155
173
209
248
302
375
440
465
456
451
465
447
352
219
112
30
-44
-86
-106
-141
-171
-172
-171
-177
-162
-150
-179
-200
-173
-159
-195
-215
-190
-163
-138
-131
-156
-151
-265
-556
-249
968
1424
90
-1170
-874
-189
-110
-124
7
31
13
36
46
79
142
194
257
317
339
361
393
395
385
386
351
255
139
40
-29
-67
-99
-128
-132
-140
-177
-188
-154
-143
-165
-165
-150
-147
-154
-170
-166
-132
-119
-118
-103
-125
-157
-268
-539
-288
910
1491
233
-1125
-927
-219
-86
-97
8
12
-4
45
65
74
121
178
231
279
318
352
375
386
407
429
400
312
213
132
58
-7
-52
-89
-116
-115
-112
-131
-143
-122
-108
-131
-156
-149
-146
-172
-183
-161
-158
-153
-112
-112
-153
-237
-501
-474
523
1391
490
-1069
-1193
-397
-93
-108
-2
32
14
62
77
89
164
215
232
295
368
399
420
449
472
486
464
370
236
123
46
-23
-97
-147
-158
-166
-190
-213
-217
-198
-175
-182
-204
-196
-179
-202
-233
-208
-168
-177
-178
-148
-148
-148
-236
-460
-176
812
969
-457
-1551
-1037
-216
-63
-55
61
84
97
145
143
157
222
265
298
369
437
468
482
496
508
500
443
330
199
101
36
-26
-93
-146
-166
-159
-156
-165
-163
-149
-152
-172
-185
-178
-165
-174
-194
-185
-164
-158
-132
-115
-139
-138
-260
-499
-67
1067
1139
-383
-1373
-814
-142
-84
-35
95
63
31
95
140
150
175
236
310
353
387
437
444
412
422
442
373
247
144
58
-27
-85
-112
-127
-145
-171
-179
-162
-159
-165
-147
-138
-165
-172
-154
-170
-190
-159
-131
-142
-127
-97
-126
-157
-266
-520
-232
937
1397
66
-1234
-948
-213
-75
-60
55
35
3
62
99
118
160
202
248
299
344
382
393
382
391
410
380
300
201
104
26
-25
-68
-102
-120
-132
-140
-139
-136
-129
-112
-112
-136
-146
-124
-110
-127
-138
-117
-110
-126
-103
-84
-116
-163
-351
-505
156
1260
999
-574
-1257
-610
-113
-113
-48
37
11
24
64
75
99
128
157
210
270
320
370
411
435
446
433
370
254
120
13
-56
-106
-156
-204
-232
-243
-249
-238
-217
-220
-229
-216
-213
-229
-222
-216
-237
-233
-199
-195
-196
-168
-164
-170
-216
-425
-339
541
1093
13
-1407
-1318
-433
-97
-77
53
97
70
118
156
160
203
253
282
334
408
470
507
517
515
514
474
368
249
151
52
-30
-62
-77
-108
-131
-134
-135
-139
-141
-128
-84
-61
-102
-136
-112
-100
-127
-121
-95
-104
-90
-48
-64
-71
-119
-353
-180
845
1294
11
-1302
-997
-169
10
3
132
158
149
194
191
187
250
316
356
408
471
514
517
498
499
514
474
364
256
173
66
-36
-68
-68
-98
-131
-125
-108
-127
-159
-144
-102
-99
-130
-143
-134
-132
-147
-157
-149
-145
-130
-103
-136
-179
-228
-463
-442
531
1380
466
-1110
-1243
-441
-140
-163
-49
-4
-32
13
34
22
68
130
162
206
268
314
322
306
293
289
261
180
62
-40
-100
-149
-204
-236
-239
-245
-258
-255
-243
-244
-244
-233
-233
-253
-264
-253
-244
-258
-274
-264
-261
-281
-258
-208
-215
-256
-405
-611
-158
958
1056
-382
-1330
-806
-175
-126
-87
26
9
9
70
99
132
190
238
290
349
398
448
490
503
518
544
520
419
295
199
135
87
49
24
16
12
-4
-27
-35
-26
-4
23
30
6
4
43
66
43
26
49
