# session 14
-80
-97
-37
-145
-437
-574
-500
-455
-476
-479
-484
-489
-478
-511
-566
-566
-529
-516
-636
-770
-203
1133
1482
-168
-1831
-1720
-926
-701
-651
-467
-424
-448
-360
-265
-223
-185
-156
-113
11
186
326
431
537
625
662
634
535
426
371
318
225
168
138
57
6
70
123
66
25
88
130
74
28
9
-61
-69
67
126
15
-26
-58
-198
300
1597
1812
58
-1454
-1224
-541
-350
-200
-34
-49
-49
9
24
71
142
150
156
228
339
436
462
417
395
446
497
451
326
211
111
9
-47
-81
-156
-187
-153
-195
-309
-361
-350
-336
-326
-332
-346
-354
-364
-340
-288
-289
-300
-344
-490
-63
1421
2306
1000
-833
-1049
-416
-251
-254
-80
-11
-60
-36
58
135
200
294
320
234
239
387
504
580
613
520
448
476
381
144
-14
-45
-7
36
-13
-115
-168
-220
-307
-342
-292
-234
-260
-350
-363
-278
-261
-320
-280
-215
-245
-269
-344
-198
923
2105
1192
-1092
-1908
-1128
-584
-522
-373
-261
-245
-163
-94
-107
-98
-4
107
147
178
291
398
419
452
528
535
438
299
139
-44
-203
-266
-247
-242
-274
-280
-262
-281
-332
-338
-267
-219
-252
-248
-162
-118
-102
-49
-66
-140
-192
-313
-6
1291
2200
1031
-823
-1095
-354
-77
-114
-17
37
35
120
217
244
236
228
229
260
325
381
416
464
508
503
457
374
241
101
7
-61
-124
-141
-118
-113
-128
-138
-178
-241
-241
-216
-290
-371
-308
-236
-285
-309
-290
-348
-378
-409
-408
401
1834
1754
-281
-1647
-1180
-499
-408
-324
-183
-183
-178
-126
-111
-118
-115
-55
83
222
311
377
417
440
479
488
420
336
273
202
134
92
54
21
20
29
15
-5
16
102
185
149
-1
-104
-86
-49
-59
-85
-118
-162
-255
-195
632
1831
1559
-357
-1554
-1103
-511
-458
-377
-236
-238
-224
-167
-161
-135
-52
26
99
196
296
378
444
478
479
463
395
270
170
84
-77
-218
-215
-214
-302
-276
-157
-210
-318
-211
-81
-169
-302
-321
-324
-344
-318
-288
-304
-305
-340
-504
-209
1062
1868
606
-1225
-1399
-627
-371
-355
-165
-90
-122
-85
-31
36
138
228
306
350
327
354
490
603
628
648
673
647
570
475
371
257
136
32
-2
45
93
59
-26
-90
-127
-157
-202
-269
-303
-282
-267
-256
-235
-250
-235
-206
-201
378
1630
1791
-42
-1688
-1491
-700
-431
-312
-208
-260
-243
-129
-94
-108
-97
-31
112
220
238
311
461
547
566
558
460
300
180
65
-80
-181
-224
-264
-282
-251
-223
-234
-261
-286
-291
-255
-223
-241
-249
-228
-236
-242
-199
-159
-201
-396
-339
728
2033
1554
-373
-1272
-745
-300
-242
-109
-24
-31
26
61
65
116
135
131
200
279
327
394
454
491
536
534
459
364
232
61
-63
-122
-157
-170
-171
-182
-177
-153
-152
-168
-159
-149
-186
-201
-154
-166
-233
-202
-163
-195
-189
-286
-207
902
2107
1225
-948
-1665
-920
-411
-294
-131
-75
-96
-39
-13
-30
-1
34
54
90
153
250
357
407
400
393
396
365
282
167
45
-62
-127
-154
-164
-157
-142
-144
-135
-76
-27
-41
-68
-65
-59
-52
-14
14
-45
-97
-106
-255
-76
1144
2140
1006
-1016
-1434
-669
-298
-221
-47
2
-2
43
-14
-66
9
54
39
73
144
240
338
338
260
210
169
104
66
43
-22
-114
-172
-184
-183
-175
-155
-154
-174
-175
-164
-189
-250
-288
-285
-308
-354
-350
-319
-295
-352
-477
53
1553
2161
469
-1418
-1374
-579
-406
-372
-200
-208
-246
-180
-176
-193
-123
-32
35
96
154
223
290
322
344
379
377
321
251
203
173
135
70
3
-26
2
69
109
94
101
164
187
132
90
80
53
54
76
31
-33
-135
-159
598
1903
1803
-53
-1270
-875
-375
-372
-270
-109
-121
-135
-120
-143
-108
-14
32
50
114
209
286
336
369
380
368
334
265
159
59
-22
-120
-208
-214
-190
-213
-222
-186
-189
-232
-248
-247
-236
-226
-274
-312
-270
-277
-340
-393
-555
-344
920
1939
833
-1150
-1550
-776
-406
-367
-209
-147
-188
-157
-113
-80
2
83
132
203
324
442
502
518
538
561
547
489
417
368
315
196
69
39
53
12
-54
-83
-83
-88
-106
-109
-99
-103
-125
-163
-203
-228
-290
-360
-373
-433
-232
827
1784
871
-1092
-1703
-959
-424
-313
-178
-111
-129
-78
-24
-18
10
56
82
104
161
256
324
310
277
295
326
333
333
308
243
170
103
30
-28
-63
-95
-127
-144
-152
-160
-164
-174
-213
-270
-308
-281
-178
-120
-187
-256
-371
-431
372
1834
1864
3
-1299
-932
-349
-244
-138
-56
-103
-57
28
30
72
175
259
324
367
397
476
576
609
603
598
520
363
263
234
159
82
78
-3
-229
-344
-263
-264
-384
-352
-214
-248
-376
-382
-344
-360
-352
-330
-319
-283
-321
-136
878
1791
807
-1234
-1849
-1085
-589
-465
-217
-155
-318
-265
-72
-55
-85
19
105
106
179
296
329
361
445
449
364
310
272
174
47
-49
-118
-191
-257
-257
-189
-148
-176
-199
-183
-186
-207
-178
-119
-123
-134
-56
-4
-53
-101
-258
-265
789
2284
1965
-32
-1059
-553
-114
-92
65
171
52
7
91
116
97
152
260
330
350
377
440
514
533
466
389
359
295
152
30
-17
-46
-86
-112
-123
-126
-136
-175
-214
-218
-225
-259
-263
-254
-297
-313
-289
-328
-362
-453
-620
25
1681
2082
33
-1856
-1605
-707
-467
-360
-168
-170
-221
-178
-135
-99
-57
-22
32
104
185
292
367
376
395
427
372
224
82
-6
-66
-120
-162
-170
-138
-105
-112
-125
-106
-80
-64
-63
-110
-176
-184
-133
-102
-120
-120
-208
-433
-24
1440
2181
717
-1091
-1170
-459
-259
-255
-143
-99
-75
-54
-109
-162
-145
-67
41
95
116
226
386
445
418
417
430
382
279
182
107
46
7
-7
-5
18
27
-29
-95
-76
-37
-68
-101
-109
-175
-208
-120
-93
-149
-193
-348
-74
1269
2111
670
-1303
-1418
-591
-350
-331
-172
-185
-272
-210
-115
-99
-123
-83
50
136
132
186
318
407
437
459
486
502
434
273
156
124
72
13
17
24
0
-5
-30
-116
-175
-164
-166
-231
-276
-220
-167
-216
-245
-304
-452
73
1460
1769
-21
-1639
-1396
-630
-458
-384
-229
-231
-232
-151
-122
-104
-30
33
72
143
239
314
359
388
408
417
397
332
246
165
59
-54
-92
-48
0
1
-32
-66
-95
-148
-221
-254
-239
-248
-267
-189
-82
-125
-231
-296
-416
-104
1096
1764
465
-1224
-1313
-629
-440
-386
-172
-122
-175
-126
-42
18
59
81
143
252
332
369
423
511
577
575
558
584
595
508
347
199
131
109
52
-11
-21
-22
-27
-1
12
-23
-58
-96
-190
-288
-298
-264
-249
-215
-259
-271
469
1674
1423
-533
-1757
-1238
-503
-330
-225
-120
-154
-150
-84
-70
-81
-53
12
89
165
255
353
435
500
527
504
467
401
259
99
-1
-70
-130
-150
-154
-191
-242
-264
-265
-287
-345
-402
-409
-379
-355
-340
-343
-336
-305
-418
-449
425
1720
1420
-458
-1470
-957
-449
-386
-213
-52
-98
-104
-17
25
52
126
212
271
336
439
505
447
419
559
638
479
295
213
110
2
-18
-18
-64
-110
-136
-175
-232
-277
-276
-246
-226
-216
-212
-226
-212
-163
-160
-156
-123
-164
178
1339
1977
639
-1215
-1460
-679
-288
-210
-73
-24
-59
-48
-4
57
103
104
122
190
239
267
336
401
412
453
510
452
332
283
231
104
4
-29
-61
-98
-114
-134
-165
-178
-161
-157
-197
-228
-234
-256
-230
-162
-189
-245
-315
-434
128
1564
1923
207
-1315
-1096
-482
-378
-268
-124
-170
-184
-119
-111
-100
-43
3
45
109
199
300
380
438
470
458
416
349
225
70
-45
-112
-152
-161
-161
-178
-204
-232
-240
-217
-208
-228
-224
-222
-248
-211
-161
-208
-225
-247
-278
417
1707
1579
-402
-1703
-1176
-438
-336
-265
-112
-114
-114
-16
43
33
43
106
166
189
229
313
381
382
353
340
328
270
164
61
-3
-45
-85
-87
-51
-46
-84
-104
-85
-66
-84
-110
-101
-96
-108
-85
-79
-97
-123
-360
-382
818
2300
1721
-326
-1113
-539
-254
-307
-161
-87
-153
-122
-74
-83
-48
10
31
64
128
178
223
287
335
344
339
327
270
169
71
-2
-58
-92
-93
-80
-85
-118
-154
-154
-139
-162
-190
-191
-212
-222
-199
-229
-250
-273
-441
-65
1394
2121
493
-1457
-1477
-647
-381
-300
-136
-124
-123
-51
-37
-27
31
77
131
210
274
334
400
436
445
437
391
301
197
96
-1
-71
-113
-158
-192
-181
-177
-228
-269
-254
-246
-260
-251
-241
-240
-204
-187
-214
-220
-336
-340
600
1903
1456
-561
-1527
-892
-329
-283
-172
-61
-83
-61
-15
-15
9
58
95
144
201
252
312
368
381
361
353
340
271
165
85
29
-47
-113
-122
-100
-109
-151
-176
-163
-147
-157
-159
-150
-171
-180
-164
-203
-243
-309
-490
-131
1217
1951
671
-932
-978
-352
-205
-187
-58
-60
-95
-42
-4
8
41
77
113
154
195
249
296
307
314
345
363
334
270
188
116
73
36
-14
-46
-46
-52
-91
-124
-114
-107
-136
-153
-155
-178
-169
-141
-178
-185
-180
-246
262
1518
1723
-37
-1555
-1250
-474
-306
-235
-75
-78
-97
-41
-36
-38
23
68
76
125
207
268
315
366
395
397
388
348
256
155
99
69
20
-22
-21
-20
-62
-112
-133
-143
-154
-163
-179
-205
-205
-183
-203
-217
-223
-410
-370
622
1564
700
-1049
-1436
-713
-358
-353
-229
-166
-193
-150
-107
-98
-51
4
32
71
134
192
239
274
291
303
316
285
194
94
38
5
-40
-67
-49
-41
-83
-132
-147
-131
-116
-121
-119
-111
-114
-97
-87
-123
-142
-267
-407
297
1688
1697
-131
-1362
-931
-347
-305
-240
-122
-133
-109
-51
-52
-37
18
65
114
174
229
282
329
353
358
367
380
356
273
186
141
108
66
46
47
38
13
-18
-38
-36
-44
-70
-73
-83
-122
-110
-85
-134
-178
-277
-305
482
1712
1441
-377
-1344
-806
-299
-285
-205
-106
-125
-93
-28
-19
-2
48
99
158
222
277
326
367
391
404
413
389
313
209
119
53
-12
-80
-119
-122
-139
-192
-234
-234
-223
-222
-227
-253
-273
-240
-231
-274
-278
-403
-566
88
1338
1189
-606
-1614
-995
-361
-328
-258
-127
-129
-108
-62
-68
-43
11
39
79
147
208
262
305
326
349
377
364
296
210
138
81
30
-14
-38
-39
-44
-85
-140
-159
-154
-161
-166
-162
-172
-164
-139
-162
-161
-169
-315
-23
1123
1630
223
-1376
-1285
-458
-193
-157
-16
16
-2
47
71
76
121
169
204
241
293
362
417
429
432
451
447
382
281
199
143
84
24
-1
-2
-29
-82
-112
-101
-91
-101
-103
-103
-116
-96
-73
-112
-132
-217
-403
52
1297
1530
-83
-1405
-1042
-347
-259
-222
-84
-99
-121
-53
-25
-30
-1
39
72
117
180
236
252
241
259
306
296
190
81
40
11
-54
-119
-172
-213
-209
-186
-215
-248
-218
-192
-204
-200
-204
-218
-185
-189
-265
-335
-553
-623
338
1615
1175
-551
-1188
-574
-202
-233
-150
-64
-71
-35
6
7
33
88
119
127
148
205
275
327
348
365
417
464
417
307
235
201
149
95
68
52
25
-8
-33
-49
-71
-93
-92
-111
-162
-151
-111
-147
-166
-210
-334
142
1334
1488
-151
-1463
-1114
-424
-296
-229
-86
-76
-74
-28
-16
20
103
150
160
202
298
394
440
454
480
512
503
410
259
142
76
-4
-91
-100
-54
-71
-150
-197
-205
-226
-246
-250
-268
-298
-278
-231
-257
-296
-333
-548
-421
817
1863
755
-1245
-1610
-791
-417
-376
-200
-125
-161
-121
-73
-53
-4
46
81
140
214
275
332
374
373
357
345
294
195
102
34
-22
-56
-64
-67
-67
-62
-89
-140
-147
-118
-110
-115
-121
-137
-121
-92
-102
-90
-148
-243
270
1278
1196
-263
-1172
-771
-276
-207
-134
-43
-59
-56
-22
0
41
80
95
133
197
240
260
277
299
335
381
379
295
193
126
77
30
-5
-19
-20
-38
-85
-114
-100
-100
-130
-135
-131
-152
-137
-107
-143
-174
-300
-543
-73
1309
1734
262
-1063
-862
-329
-271
-216
-99
-119
-107
-30
-24
-26
31
84
120
176
242
307
365
392
397
418
418
341
230
150
95
40
-7
-35
-46
-62
-103
-146
-156
-150
-160
-171
-176
-192
-191
-170
-185
-197
-262
-461
-159
1070
1655
206
-1533
-1531
-684
-359
-279
-127
-119
-140
-45
11
-1
39
132
205
237
280
359
400
391
431
497
466
362
264
146
20
-48
-67
-81
-87
-84
-96
-114
-106
-105
-159
-214
-223
-249
-274
-234
-204
-203
-271
-518
-313
949
1799
643
-976
-1042
-412
-343
-372
-172
-141
-224
-162
-95
-123
-84
63
152
130
114
182
292
336
296
302
372
331
172
63
-18
-130
-170
-152
-188
-219
-228
-264
-222
-159
-286
-405
-251
-87
-110
-116
-102
-169
-224
-299
-154
773
1677
920
-810
-1336
-662
-231
-209
-129
-76
-88
-24
28
16
66
145
161
205
328
463
594
669
640
623
623
494
341
291
191
30
-16
-8
-62
-96
-85
-84
-88
-97
-100
-78
-102
-172
-159
-105
-160
-220
-191
-291
-267
658
1791
1187
-770
-1559
-810
-239
-284
-308
-254
-209
-69
48
50
71
133
132
123
240
410
490
523
571
576
515
452
383
218
-40
-193
-131
-62
-121
-140
-73
-101
-230
-283
-221
-170
-178
-191
-207
-241
-281
-298
-288
-422
-523
321
1768
1584
-488
-1773
-1249
-511
-391
-482
-489
-322
-186
-325
-440
-282
-43
