# session 37
45
45
56
0
-85
-80
-27
-11
-5
16
27
37
59
75
88
109
131
147
169
198
232
273
314
358
416
478
527
564
590
569
477
331
172
32
-79
-160
-209
-233
-246
-253
-248
-237
-231
-229
-222
-212
-205
-198
-190
-182
-170
-162
-163
-164
-156
-152
-153
-149
-146
-146
-143
-140
-142
-143
-140
-130
-119
-126
-139
-127
-108
-106
-93
-61
-61
-92
-99
-92
-105
-108
-89
-96
-98
-66
-85
-126
-149
-258
14
1163
1896
776
-789
-876
-223
-63
-87
24
30
-4
41
58
52
75
87
90
113
130
141
170
200
221
248
289
333
386
447
503
551
592
612
581
475
313
146
7
-106
-191
-242
-267
-278
-276
-272
-273
-271
-255
-238
-233
-232
-223
-215
-209
-198
-189
-193
-194
-183
-179
-186
-184
-175
-174
-172
-161
-154
-154
-146
-134
-135
-139
-122
-98
-98
-116
-124
-124
-130
-127
-118
-129
-121
-93
-114
-143
-174
-225
232
1350
1626
196
-1109
-863
-206
-103
-81
47
44
21
65
78
81
105
118
130
153
171
193
224
247
267
302
347
399
458
520
576
624
661
660
588
448
275
105
-38
-137
-198
-240
-266
-273
-269
-269
-267
-257
-249
-243
-233
-225
-221
-211
-202
-198
-192
-185
-182
-179
-173
-174
-176
-173
-170
-167
-162
-154
-146
-147
-157
-152
-133
-131
-130
-99
-81
-107
-131
-124
-124
-126
-107
-109
-121
-98
-106
-142
-160
-264
-82
971
1864
991
-637
-941
-302
-67
-104
1
36
-1
34
56
45
64
84
86
101
124
140
162
191
218
247
285
326
368
420
482
534
570
592
573
476
320
161
27
-89
-176
-219
-238
-251
-252
-244
-242
-241
-226
-211
-210
-206
-193
-189
-191
-183
-172
-168
-165
-164
-166
-165
-159
-155
-153
-154
-156
-150
-141
-138
-138
-135
-130
-119
-93
-76
-91
-115
-116
-113
-120
-112
-103
-114
-97
-77
-117
-141
-200
-241
412
1631
1629
15
-1033
-595
-81
-93
-58
39
7
6
50
48
54
78
85
98
120
132
146
172
195
220
256
295
340
396
449
494
540
577
577
513
381
219
70
-50
-142
-202
-233
-253
-264
-258
-251
-252
-246
-232
-226
-225
-219
-212
-205
-198
-194
-187
-175
-171
-177
-174
-170
-174
-173
-163
-158
-156
-145
-137
-146
-152
-134
-117
-122
-115
-86
-80
-103
-113
-113
-124
-118
-100
-118
-123
-85
-102
-137
-152
-238
74
1195
1789
574
-920
-905
-240
-84
-79
41
36
6
59
73
67
99
114
112
132
160
183
207
226
244
273
311
361
421
478
527
580
627
639
592
483
323
149
2
-110
-189
-234
-258
-271
-274
-272
-270
-265
-253
-244
-239
-232
-222
-212
-205
-202
-197
-193
-192
-193
-190
-185
-183
-182
-172
-159
-163
-172
-159
-141
-144
-138
-109
-104
-132
-144
-133
-133
-135
-129
-137
-127
-99
-128
-155
-187
-275
159
1347
1719
306
-1031
-807
-174
-96
-85
35
24
5
57
66
62
88
102
113
136
154
170
194
220
247
279
317
366
424
483
537
585
620
617
553
420
250
86
-49
-146
-205
-237
-255
-261
-260
-258
-252
-239
-231
-229
-225
-218
-210
-201
-193
-189
-186
-180
-177
-175
-166
-160
-161
-161
-158
-156
-148
-138
-143
-154
-145
-127
-127
-121
-93
-80
-102
-116
-112
-120
-122
-105
-110
-118
-88
-94
-134
-157
-268
-106
940
1876
1055
-586
-932
-300
-55
-96
3
34
-6
34
62
50
67
87
92
107
122
134
157
186
207
231
269
317
367
415
464
515
560
579
548
452
304
141
4
-96
-175
-227
-247
-257
-267
-265
-254
-247
-241
-231
-221
-214
-206
-196
-190
-188
-185
-180
-174
-167
-167
-169
-165
-157
-152
-150
-146
-140
-142
-149
-142
-127
-126
-119
-86
-69
-94
-115
-108
-107
-116
-106
-106
-122
-96
-81
-123
-146
-226
-181
660
1758
1337
-333
-1024
-446
-63
-102
-29
41
0
21
59
46
59
87
93
105
126
139
155
181
206
231
264
307
355
405
458
508
548
572
561
488
352
187
39
-68
-144
-199
-227
-234
-237
-242
-241
-235
-226
-212
-206
-211
-208
-193
-186
-188
-183
-179
-180
-173
-164
-166
-170
-166
-158
-156
-156
-148
-139
-147
-152
-133
-121
-127
-114
-84
-86
-115
-124
-121
-132
-130
-117
-130
-126
-100
-129
-155
-188
-253
244
1424
1653
154
-1088
-770
-157
-105
-82
39
29
19
61
59
62
98
109
113
139
166
186
202
222
256
300
340
384
441
499
549
597
641
647
578
436
265
106
-31
-140
-212
-250
-268
-278
-283
-283
-277
-268
-256
-244
-237
-230
-220
-213
-207
-199
-197
-199
-193
-184
-184
-188
-183
-171
-169
-176
-170
-155
-156
-157
-129
-107
-124
-143
-140
-143
-141
-123
-129
-134
-113
-130
-152
-172
-262
74
1199
1739
479
-995
-939
-252
-94
-97
23
34
13
61
73
63
87
105
117
145
168
181
203
228
254
290
335
385
442
500
554
607
645
640
568
425
245
79
-52
-149
-214
-253
-273
-278
-275
-272
-264
-250
-243
-245
-240
-221
-210
-213
-210
-197
-188
-186
-183
-177
-175
-174
-169
-167
-166
-157
-145
-150
-159
-148
-130
-129
-127
-100
-85
-110
-131
-126
-127
-130
-113
-114
-122
-93
-96
-143
-174
-282
-118
936
1912
1118
-562
-955
-319
-59
-102
-5
32
-3
34
53
41
66
88
90
109
133
145
158
183
217
252
278
316
373
432
484
536
581
601
568
463
306
142
0
-110
-182
-222
-249
-269
-271
-258
-249
-250
-248
-234
-217
-212
-212
-206
-196
-190
-184
-179
-175
-173
-172
-166
-159
-161
-169
-165
-153
-154
-160
-148
-132
-133
-125
-95
-84
-108
-127
-124
-125
-126
-114
-117
-120
-90
-97
-146
-162
-263
-169
813
1893
1258
-473
-1016
-385
-65
-109
-13
41
-9
19
54
43
62
89
92
105
128
143
162
187
211
241
278
319
366
422
480
532
572
594
568
467
312
152
15
-95
-175
-223
-245
-256
-262
-259
-252
-248
-241
-230
-222
-212
-198
-190
-191
-187
-175
-168
-166
-166
-166
-164
-160
-156
-155
-154
-150
-149
-144
-132
-130
-142
-141
-127
-122
-114
-88
-77
-98
-114
-111
-113
-117
-108
-114
-116
-84
-96
-140
-156
-252
-64
989
1860
946
-700
-982
-317
-74
-106
1
33
0
43
65
50
76
103
100
110
136
157
177
203
229
258
296
341
391
449
511
564
607
632
603
493
330
164
18
-98
-180
-228
-252
-264
-274
-274
-263
-254
-250
-246
-239
-227
-213
-206
-204
-198
-193
-189
-188
-186
-178
-172
-176
-180
-171
-157
-152
-156
-154
-143
-139
-139
-117
-88
-94
-122
-125
-117
-128
-132
-124
-133
-120
-92
-126
-156
-188
-258
220
1407
1691
206
-1101
-825
-184
-104
-76
51
35
15
64
70
70
104
117
123
146
164
180
207
233
259
296
339
386
446
506
553
600
644
640
554
402
232
75
-56
-155
-220
-252
-265
-272
-276
-273
-264
-254
-246
-240
-228
-218
-216
-212
-201
-196
-195
-186
-178
-180
-180
-177
-172
-165
-162
-162
-160
-155
-149
-137
-131
-143
-146
-128
-117
-113
-88
-70
-90
-111
-108
-110
-115
-99
-99
-112
-83
-75
-117
-139
-234
-153
781
1860
1303
-391
-983
-382
-47
-93
-12
48
8
31
65
55
70
94
97
109
131
148
163
182
207
237
269
308
360
412
458
507
557
586
564
478
337
180
39
-76
-163
-216
-240
-253
-260
-258
-251
-243
-236
-232
-227
-219
-211
-206
-198
-191
-188
-183
-173
-168
-170
-167
-160
-161
-164
-156
-150
-151
-146
-134
-138
-149
-140
-121
-122
-117
-90
-77
-98
-112
-107
-114
-118
-99
-100
-108
-82
-88
-125
-152
-259
-38
1062
1911
945
-682
-918
-270
-66
-101
9
36
1
41
61
52
76
93
94
113
134
145
163
187
208
236
276
319
365
417
469
517
560
581
547
448
304
146
4
-104
-177
-222
-245
-258
-265
-263
-255
-248
-243
-239
-232
-222
-209
-201
-196
-191
-184
-178
-173
-169
-169
-171
-169
-165
-162
-161
-157
-151
-150
-145
-137
-141
-143
-129
-119
-118
-93
-64
-78
-106
-104
-99
-110
-104
-93
-107
-93
-67
-104
-129
-170
-229
333
1524
1634
70
-1078
-689
-108
-76
-44
63
35
27
76
77
75
96
107
123
145
158
177
206
228
251
288
332
378
428
482
534
579
615
622
560
423
258
104
-34
-138
-199
-240
-271
-278
-275
-274
-265
-252
-246
-239
-227
-220
-217
-211
-203
-196
-195
-201
-203
-197
-189
-184
-182
-183
-172
-158
-163
-171
-158
-145
-147
-133
-103
-102
-131
-140
-134
-141
-141
-128
-137
-137
-110
-128
-154
-175
-251
118
1239
1701
391
-1034
-915
-233
-94
-93
30
34
13
66
79
67
90
109
119
143
167
184
207
234
260
292
331
379
436
495
546
588
625
633
572
433
257
95
-38
-141
-206
-238
-257
-267
-268
-262
-256
-250
-244
-235
-225
-220
-215
-208
-203
-198
-188
-182
-182
-179
-172
-168
-168
-169
-166
-159
-149
-141
-143
-148
-138
-124
-128
-122
-90
-78
-103
-118
-112
-118
-118
-100
-108
-118
-89
-97
-131
-147
-264
-88
985
1885
995
-634
-921
-286
-62
-93
14
41
3
42
65
53
75
97
103
120
137
148
164
183
207
242
278
314
361
418
470
514
556
581
552
453
304
145
5
-103
-177
-224
-251
-261
-260
-260
-258
-249
-240
-235
-226
-215
-209
-203
-192
-187
-188
-187
-182
-178
-174
-173
-172
-166
-163
-163
-153
-143
-152
-157
-138
-127
-127
-106
-80
-92
-117
-115
-114
-126
-114
-101
-120
-111
-85
-116
-142
-210
-257
404
1639
1637
3
-1057
-610
-84
-92
-53
50
19
15
57
54
60
88
99
108
122
135
159
187
207
231
266
303
343
394
452
503
545
574
567
496
366
212
64
-62
-155
-212
-242
-258
-267
-265
-256
-249
-245
-238
-228
-220
-214
-210
-204
-196
-193
-191
-186
-180
-178
-177
-171
-162
-160
-161
-152
-147
-157
-155
-133
-126
-127
-102
-78
-98
-125
-116
-109
-122
-114
-105
-118
-101
-85
-128
-150
-225
-245
502
1686
1469
-206
-1068
-517
-54
-92
-42
44
8
22
68
60
66
93
100
111
135
152
166
191
219
242
271
316
368
426
483
529
566
601
598
513
361
199
55
-74
-174
-228
-253
-268
-274
-271
-267
-261
-251
-242
-238
-231
-217
-206
-207
-208
-202
-196
-195
-192
-184
-175
-167
-165
-163
-159
-158
-155
-152
-149
-133
-107
-104
-119
-122
-125
-136
-127
-118
-133
-117
-93
-123
-140
-179
-144
546
1569
1267
-384
-1227
-659
-129
-107
-40
55
30
42
84
74
80
115
130
141
159
175
196
224
252
282
320
364
410
465
524
577
618
640
612
507
346
177
28
-91
-178
-234
-265
-281
-284
-278
-270
-264
-257
-248
-238
-227
-216
-211
-209
-205
-198
-191
-190
-190
-185
-179
-175
-174
-174
-170
-160
-158
-159
-145
-130
-136
-134
-104
-87
-108
-126
-121
-125
-132
-115
-112
-124
-100
-96
-131
-148
-253
-151
821
1836
1158
-519
-986
-346
-43
-89
1
49
8
38
67
55
73
96
100
115
132
144
167
194
213
237
276
320
367
419
468
511
554
579
550
451
302
140
2
-103
-181
-228
-246
-256
-267
-268
-258
-247
-236
-227
-221
-215
-209
-204
-199
-192
-189
-189
-187
-183
-179
-176
-172
-168
-161
-152
-153
-162
-158
-143
-143
-141
-107
-81
-103
-132
-128
-124
-133
-122
-118
-130
-103
-86
-130
-154
-237
-236
561
1735
1445
-249
-1062
-498
-59
-95
-30
53
10
20
63
59
70
94
97
113
138
148
165
196
221
243
274
315
365
420
471
516
557
582
568
485
337
176
39
-74
-160
-211
-237
-249
-250
-246
-243
-238
-230
-221
-211
-203
-195
-189
-185
-180
-173
-167
-164
-159
-155
-155
-156
-154
-147
-145
-142
-130
-125
-136
-137
-119
-111
-109
-85
-61
-76
-101
-102
-102
-110
-101
-97
-106
-80
-72
-120
-136
-209
-202
588
1733
1412
-267
-1040
-473
-56
-96
-26
56
11
18
55
48
60
90
96
101
118
133
151
175
201
228
259
302
354
402
449
501
549
575
559
472
324
163
19
-103
-192
-242
-269
-286
-295
-296
-289
-281
-276
-274
-264
-243
-230
-234
-240
-232
-221
-217
-216
-217
-217
-213
-208
-207
-201
-189
-183
-188
-188
-174
-166
-166
-147
-118
-121
-143
-150
-153
-161
-148
-132
-150
-149
-120
-140
-161
-191
-240
252
1383
1584
94
-1155
-846
-200
-111
-81
42
35
21
65
72
78
109
125
140
165
181
199
230
253
278
321
369
411
467
531
583
624
663
662
583
435
265
111
-14
-108
-172
-208
-227
-237
-236
-228
-218
-209
-200
-189
-176
-165
-160
-155
-147
-139
-131
-125
-122
-121
-117
-113
-109
-105
-103
-101
-92
-85
-91
-90
-77
-70
-61
-32
-21
-48
-60
-46
-52
-60
-45
-51
-56
-24
-39
-79
-94
-204
4
1091
1905
906
-695
-878
-214
-13
-43
68
88
49
87
105
91
109
124
124
137
155
168
185
203
226
258
290
327
374
423
466
509
548
556
507
391
227
57
-79
-177
-252
-301
-323
-330
-334
-340
-341
-335
-326
-323
-322
-316
-310
-307
-306
-308
-307
-299
-294
-299
-304
-302
-302
-301
-293
-290
-297
-290
-272
-280
-301
-289
-268
-268
-260
-228
-219
-244
-257
-253
-257
-251
-229
-237
-239
-204
-213
-244
-265
-372
-96
1058
1803
700
-864
-956
-289
-110
-129
-18
-1
-19
37
62
63
99
124
137
170
201
223
254
294
333
374
420
479
546
611
671
731
786
819
795
692
544
404
288
199
145
123
116
120
132
