# session 10
-34
-37
17
-120
-408
-480
-349
-287
-280
-233
-236
-333
-440
-513
-565
-601
-621
-630
-628
-617
-600
-581
-558
-530
-510
-505
-498
-468
-435
-431
-430
-399
-366
-345
-301
-278
-289
-279
-430
-612
27
1203
1024
-594
-1368
-702
-135
-120
-49
54
29
51
112
118
137
200
257
306
367
429
474
489
486
490
493
453
364
261
161
73
22
2
-20
-50
-62
-55
-49
-46
-33
-22
-36
-53
-38
-14
-28
-56
-38
-7
-14
-10
13
-6
-40
-182
-398
52
1210
1354
-108
-1137
-679
-64
-6
32
131
103
95
141
148
167
213
247
288
346
393
423
435
436
452
473
447
360
249
151
72
8
-36
-62
-85
-104
-109
-108
-114
-115
-99
-88
-110
-131
-119
-112
-145
-162
-130
-116
-131
-119
-120
-145
-204
-429
-411
522
1398
590
-963
-1186
-438
-123
-146
-43
10
-18
18
53
59
95
134
168
233
302
340
373
409
430
446
445
375
237
101
3
-78
-154
-209
-238
-252
-264
-272
-270
-267
-253
-227
-231
-267
-271
-246
-255
-279
-267
-239
-215
-190
-199
-213
-189
-331
-513
48
1032
705
-889
-1555
-805
-177
-128
-54
57
45
55
103
119
148
197
237
285
346
402
450
478
483
484
476
423
312
177
63
-10
-59
-110
-149
-161
-168
-176
-166
-151
-152
-146
-131
-139
-155
-137
-125
-153
-161
-128
-114
-104
-73
-86
-101
-135
-375
-356
616
1448
528
-1024
-1142
-345
-47
-71
48
101
64
95
126
127
168
227
269
312
370
428
462
452
426
427
430
364
238
128
56
-11
-68
-98
-122
-151
-167
-170
-166
-155
-141
-131
-127
-142
-156
-140
-129
-154
-161
-135
-133
-128
-90
-104
-148
-198
-421
-403
545
1410
567
-973
-1139
-370
-71
-105
-2
47
17
50
82
89
130
183
233
298
357
396
423
435
438
449
443
381
272
160
66
-12
-70
-107
-135
-160
-179
-187
-176
-166
-178
-188
-184
-190
-201
-196
-197
-223
-232
-209
-194
-183
-160
-164
-172
-211
-433
-431
438
1245
425
-1109
-1306
-493
-102
-88
14
54
28
87
128
120
162
229
273
321
384
443
486
506
507
504
487
424
299
147
33
-26
-76
-136
-170
-173
-187
-205
-195
-171
-167
-167
-162
-173
-194
-187
-172
-193
-214
-189
-167
-167
-144
-133
-145
-159
-321
-401
284
1146
566
-991
-1408
-606
-89
-64
27
107
73
95
145
154
189
250
294
340
402
458
496
508
494
474
457
406
295
157
40
-42
-101
-139
-159
-169
-179
-190
-193
-187
-182
-172
-163
-176
-195
-186
-164
-177
-207
-200
-173
-164
-140
-120
-145
-145
-235
-470
-108
1056
1329
-126
-1327
-944
-237
-115
-73
57
58
49
102
128
152
207
260
317
386
452
506
535
527
503
483
442
348
218
91
-9
-77
-121
-157
-186
-196
-193
-193
-195
-194
-188
-172
-164
-186
-209
-194
-169
-187
-220
-212
-190
-176
-143
-140
-175
-191
-351
-497
179
1303
1014
-648
-1398
-725
-162
-126
-43
51
18
34
92
110
142
201
254
308
359
408
470
515
508
484
471
427
320
192
83
-6
-72
-112
-140
-156
-158
-161
-175
-180
-172
-168
-158
-138
-151
-193
-200
-171
-171
-202
-200
-168
-166
-165
-124
-122
-157
-197
-356
-271
615
1326
422
-1053
-1183
-443
-139
-125
5
61
43
89
127
140
189
251
305
366
422
469
507
517
505
500
487
420
304
178
66
-22
-84
-128
-155
-166
-166
-169
-183
-195
-192
-185
-189
-204
-223
-229
-210
-198
-221
-234
-207
-190
-193
-166
-152
-177
-192
-312
-346
394
1389
896
-810
-1471
-758
-213
-172
-63
51
34
57
114
127
154
207
252
309
382
447
492
508
493
470
440
377
268
136
12
-84
-143
-177
-200
-210
-206
-202
-202
-197
-190
-185
-173
-173
-198
-216
-202
-188
-198
-208
-187
-160
-151
-122
-96
-119
-133
-226
-348
236
1461
1501
-171
-1346
-904
-247
-153
-83
50
40
37
91
109
133
190
240
299
378
450
507
543
537
499
454
392
288
159
43
-51
-132
-184
-202
-210
-218
-210
-190
-178
-179
-181
-175
-176
-194
-214
-214
-206
-216
-231
-213
-186
-188
-169
-136
-166
-182
-241
-419
14
1345
1768
204
-1262
-1012
-303
-181
-144
-13
-18
-24
40
64
85
141
191
250
334
405
461
508
506
455
416
389
308
176
54
-42
-123
-175
-197
-208
-215
-214
-209
-205
-204
-206
-201
-196
-206
-223
-223
-208
-203
-216
-212
-179
-169
-172
-137
-132
-166
-192
-355
-306
712
1788
1049
-730
-1207
-511
-147
-145
-38
8
-21
31
77
85
127
180
233
312
397
465
521
543
522
494
469
410
297
162
44
-53
-129
-169
-183
-199
-218
-220
-212
-218
-232
-225
-200
-196
-220
-236
-227
-217
-223
-224
-200
-187
-193
-161
-131
-162
-175
-270
-386
252
1493
1391
-412
-1500
-905
-235
-179
-100
37
18
30
94
102
132
204
247
293
380
468
525
551
546
516
466
386
280
164
49
-57
-137
-179
-196
-208
-215
-215
-213
-207
-199
-194
-187
-181
-195
-217
-214
-198
-204
-214
-192
-166
-166
-150
-131
-153
-142
-209
-439
-70
1218
1664
169
-1267
-1010
-271
-131
-104
37
48
37
91
111
124
178
231
284
356
432
499
541
538
502
457
395
299
181
66
-32
-105
-153
-178
-191
-203
-206
-198
-195
-201
-199
-194
-199
-210
-219
-227
-222
-205
-208
-221
-201
-180
-191
-172
-145
-176
-207
-326
-452
201
1491
1492
-202
-1293
-811
-222
-177
-115
-7
-28
-18
36
51
81
136
184
251
332
399
453
484
474
444
416
370
284
173
66
-22
-85
-125
-146
-158
-166
-168
-164
-161
-159
-156
-146
-137
-139
-151
-156
-141
-126
-137
-156
-142
-117
-126
-116
-88
-115
-134
-200
-385
28
1333
1759
233
-1204
-956
-268
-161
-127
8
2
-5
55
69
83
138
183
239
330
408
459
499
512
490
454
409
333
213
77
-32
-99
-152
-199
-216
-217
-229
-244
-241
-232
-230
-224
-212
-213
-232
-234
-210
-206
-238
-250
-215
-189
-192
-164
-141
-172
-183
-273
-425
91
1240
1235
-429
-1538
-996
-261
-148
-90
37
37
46
104
119
140
191
240
304
384
452
509
546
537
500
460
401
305
189
79
-14
-86
-133
-158
-169
-171
-168
-167
-164
-160
-161
-163
-153
-149
-172
-189
-174
-158
-175
-197
-184
-160
-155
-129
-104
-132
-135
-212
-411
24
1301
1620
49
-1315
-983
-247
-119
-85
51
54
45
99
117
135
189
237
296
382
449
493
525
520
479
435
383
300
195
85
-18
-96
-134
-149
-169
-190
-190
-176
-175
-181
-175
-171
-176
-171
-164
-183
-203
-194
-184
-202
-210
-175
-153
-170
-154
-138
-174
-200
-322
-367
410
1534
1132
-608
-1340
-677
-178
-174
-92
-6
-36
-9
45
56
92
151
200
262
339
407
458
478
464
443
417
363
276
172
65
-29
-85
-108
-130
-157
-169
-169
-170
-172
-172
-169
-161
-153
-154
-160
-167
-173
-174
-179
-196
-197
-165
-153
-162
-137
-130
-162
-189
-337
-315
590
1596
882
-912
-1423
-641
-162
-145
-38
56
56
97
128
132
169
210
255
338
422
487
548
570
540
512
486
407
292
187
81
-29
-105
-142
-169
-187
-196
-203
-202
-194
-196
-203
-199
-188
-184
-191
-206
-208
-195
-200
-223
-218
-194
-191
-175
-141
-158
-166
-190
-373
-165
910
1451
139
-1395
-1263
-399
-130
-111
31
69
53
108
138
147
189
236
286
363
441
501
543
555
535
498
441
353
239
123
21
-61
-119
-152
-168
-174
-174
-172
-166
-160
-162
-165
-159
-148
-146
-161
-174
-166
-154
-169
-189
-173
-150
-157
-141
-111
-138
-149
-202
-436
-174
1088
1745
385
-1223
-1135
-342
-133
-122
12
31
10
63
85
96
150
203
251
319
393
459
501
500
477
450
395
296
181
77
-15
-97
-154
-179
-190
-203
-208
-200
-197
-202
-194
-176
-176
-184
-179
-175
-181
-180
-170
-169
-182
-188
-169
-157
-167
-149
-130
-164
-183
-304
-466
164
1488
1516
-219
-1335
-804
-175
-143
-91
24
1
6
57
64
95
158
200
257
344
420
474
513
518
491
457
409
324
209
94
-5
-83
-129
-147
-153
-158
-168
-182
-184
-178
-179
-180
-174
-170
-165
-160
-171
-188
-179
-156
-164
-191
-181
-153
-161
-150
-108
-126
-150
-207
-424
-170
1026
1597
206
-1341
-1155
-316
-115
-111
36
66
49
106
136
149
196
240
289
366
446
518
572
579
542
501
460
381
256
131
31
-52
-120
-166
-190
-191
-184
-198
-207
-189
-187
-219
-232
-212
-193
-184
-180
-184
-186
-184
-203
-227
-210
-175
-180
-183
-140
-118
-124
-160
-350
-278
652
1404
426
-1200
-1360
-491
-99
-105
12
88
64
102
160
186
220
263
311
379
451
517
578
610
599
560
491
390
281
174
59
-44
-117
-162
-174
-165
-183
-204
-177
-142
-140
-148
-161
-195
-209
-179
-155
-167
-176
-162
-156
-177
-212
-218
-174
-144
-150
-125
-104
-144
-191
-355
-462
299
1549
1325
-405
-1266
-664
-157
-161
-83
6
-41
-14
58
66
103
163
182
253
400
473
434
426
523
611
539
353
218
143
84
49
-50
-223
-277
-222
-247
-274
-209
-217
-283
-193
-52
-60
-114
-158
-250
-278
-243
-297
-331
-260
-207
-146
-96
-219
-410
-480
-388
-105
147
96
-108
-130
448
1559
1734
163
-1264
-1047
-399
-319
-239
-24
-25
-31
111
162
116
141
206
231
263
361
467
488
474
506
486
336
178
114
103
81
-8
-152
-262
-340
-398
-304
-48
111
17
-96
-9
40
-90
-1
308
220
-161
-176
38
35
-37
-25
-67
-142
-140
-80
-18
-1
-40
45
582
1345
1153
-498
-2045
-1994
-1045
-400
-88
89
52
-45
-50
-32
89
356
473
342
309
492
644
679
714
809
910
851
607
374
160
-127
-299
-307
-403
-556
-538
-433
-410
-442
-477
-501
-481
-436
-428
-463
-491
-489
-462
-390
-288
-247
-244
-179
-80
24
159
209
161
231
318
27
-401
-27
1218
1768
617
-819
-967
-414
-212
-204
-67
58
108
153
218
296
302
246
327
514
567
539
584
566
445
431
469
332
136
121
169
35
-254
-463
-436
-294
-283
-330
-193
-67
-238
-397
-216
-27
-83
-86
34
-2
-160
-261
-377
-470
-386
-282
-342
-398
-336
-269
-289
-360
23
1193
1752
324
-1419
-1346
-469
-298
-280
-9
-47
-274
-147
211
402
363
258
187
210
432
736
813
729
749
739
543
377
315
184
49
22
-28
-92
-29
-2
-130
-124
33
-65
-348
-399
-295
-284
-244
-138
-153
-213
-168
-161
-251
-283
-268
-319
-357
-282
-217
-310
-415
-402
-479
-242
1192
2624
1647
-830
-1785
-1055
-309
40
-11
-418
-495
-164
-30
-94
-109
-98
-40
10
87
388
628
447
231
308
359
232
157
165
118
86
214
343
231
110
243
282
28
-85
73
140
28
-93
-109
-7
11
-145
-195
-56
45
81
84
-30
-179
-253
-294
-334
-372
-53
993
1654
377
-1725
-2216
-1221
-471
-292
-131
19
58
114
169
173
239
367
446
536
681
777
835
905
916
859
752
527
199
-94
-203
-148
-228
-502
-573
-362
-258
-340
-395
-404
-420
-441
-481
-501
-479
-493
-499
-397
-306
-292
-196
-73
-111
-120
53
156
132
37
-214
66
1438
2203
778
-1025
-1104
-381
-102
90
355
370
301
351
381
304
212
237
323
240
38
45
195
139
29
194
371
234
28
-38
-131
-257
-257
-193
-202
-224
-202
-227
-296
-261
-158
-140
-130
-39
0
-49
-95
-203
-363
-341
-175
-213
-415
-417
-293
-341
-506
-613
-310
743
1514
535
-1207
-1631
-998
-661
-561
-265
-22
64
160
241
268
341
514
702
825
930
1033
1058
1035
979
754
486
431
336
-17
-191
9
125
-11
-144
-206
-271
-296
-197
-42
-92
-385
-552
-491
-504
-546
-378
-221
-303
-349
-211
-150
-219
-249
-282
-302
-287
-500
-391
1126
2690
1663
-898
-1792
-1043
-515
-348
-156
-130
-139
-62
-92
-119
-8
64
80
173
280
322
350
400
443
436
359
252
155
46
-95
-227
-309
-358
-354
-250
-110
-34
9
92
209
308
350
325
183
-97
-242
3
252
27
-293
-135
177
79
-150
-76
-95
-304
486
2318
2738
793
-1002
-1030
-498
-297
-115
73
118
107
68
44
89
133
164
234
301
348
478
736
926
873
734
653
479
204
20
-119
-271
-281
-211
-296
-462
-499
-424
-382
-414
-404
-303
-283
-429
-543
-510
-485
-547
-546
-453
-464
-556
-484
-337
-324
-306
-309
-263
724
2332
2184
-2
-1363
-863
-224
-147
-67
-12
-131
-131
-5
-83
-208
74
503
536
386
433
547
578
542
441
364
321
154
-110
-273
-313
-355
-415
-406
-319
-278
-367
-507
-568
-506
-423
-444
-498
-467
-431
-464
-513
-599
-697
-661
-543
-498
-489
-434
-387
-516
-639
61
1368
1268
-676
-1982
-1474
-735
-616
-543
-417
-416
-372
-231
-68
106
216
249
301
393
504
636
770
912
1061
1123
1028
854
712
632
510
248
-5
-69
0
100
81
-245
-597
-574
-396
-275
-12
234
178
68
90
72
-36
-152
-198
-165
-195
-242
-170
-104
299
1451
2003
540
-1345
-1478
-540
-18
101
157
183
311
438
419
487
684
713
593
620
866
1107
1107
944
889
929
843
641
472
352
228
118
75
67
13
-48
-20
51
74
53
10
-39
-63
-69
-44
32
62
32
91
180
82
-101
-132
-45
-63
-359
-501
451
1933
1707
-370
-1648
-1088
-307
-230
-363
-346
-218
-117
-120
-112
-86
-137
-159
-118
-119
-71
97
173
79
28
61
10
-126
-240
-347
-490
-644
-766
-802
-740
