# session 19
-51
-35
-76
-53
113
261
257
201
186
173
146
136
140
135
113
94
99
98
72
59
69
58
32
35
61
54
-6
-34
12
12
-59
-99
-230
-168
936
2279
1656
-448
-1299
-643
-211
-221
-96
-7
-36
6
37
4
23
69
85
115
170
224
288
381
487
581
656
713
731
686
578
436
291
143
-9
-128
-201
-257
-300
-314
-319
-321
-301
-270
-263
-269
-264
-250
-235
-230
-240
-248
-240
-229
-228
-233
-232
-223
-215
-217
-223
-222
-210
-202
-215
-224
-199
-171
-175
-179
-172
-170
-149
-133
-167
-158
-105
-144
-212
-310
-397
326
1836
1995
95
-1322
-934
-311
-264
-186
-53
-67
-34
25
-8
-1
76
103
97
130
193
267
357
454
550
645
709
723
712
673
556
383
234
121
9
-95
-161
-196
-222
-236
-223
-201
-199
-208
-200
-175
-154
-152
-164
-171
-166
-163
-165
-156
-142
-151
-174
-173
-152
-147
-154
-149
-138
-131
-129
-130
-129
-115
-100
-101
-110
-111
-105
-101
-105
-115
-125
-118
-92
-74
-76
-77
-73
-64
-56
-73
-73
-41
-76
-129
-151
-273
70
1446
2253
828
-1060
-1167
-424
-230
-200
-34
-13
-28
37
51
45
82
109
125
169
228
293
363
442
543
644
721
779
807
772
673
541
393
240
104
-13
-119
-202
-241
-255
-270
-277
-268
-250
-235
-230
-228
-219
-208
-208
-216
-224
-234
-234
-219
-221
-241
-238
-221
-229
-237
-219
-203
-200
-202
-213
-208
-190
-205
-225
-193
-156
-153
-143
-148
-165
-149
-174
-236
-271
-358
-29
1261
2096
794
-1098
-1286
-525
-274
-232
-55
-35
-68
18
66
55
77
106
133
191
249
288
350
452
562
658
750
819
817
736
620
488
333
169
25
-82
-155
-205
-225
-224
-229
-240
-231
-212
-213
-221
-203
-177
-181
-200
-191
-169
-170
-181
-179
-175
-178
-171
-163
-173
-178
-168
-177
-198
-193
-169
-155
-149
-128
-105
-132
-189
-187
-150
-140
-123
-126
-168
-208
-342
-159
1087
2255
1278
-812
-1363
-619
-256
-241
-85
-16
-57
-37
-4
33
73
75
99
154
173
221
338
434
517
638
720
735
761
769
671
491
321
186
59
-64
-151
-206
-251
-267
-258
-265
-268
-236
-206
-214
-223
-217
-216
-211
-187
-172
-181
-188
-179
-173
-178
-198
-223
-229
-211
-181
-143
-130
-163
-192
-183
-171
-168
-154
-148
-153
-126
-90
-97
-97
-86
-138
-168
-199
-299
234
1628
1985
240
-1350
-1104
-384
-259
-186
-18
-26
-43
25
39
29
63
91
105
146
208
267
345
445
528
601
694
758
745
686
604
474
304
140
11
-74
-130
-186
-232
-230
-206
-228
-268
-246
-195
-198
-219
-199
-170
-164
-172
-184
-175
-145
-154
-199
-213
-195
-181
-176
-176
-169
-150
-156
-179
-167
-137
-144
-165
-156
-140
-135
-121
-124
-154
-122
-72
-134
-204
-268
-296
445
1871
1903
-52
-1434
-987
-331
-271
-167
-2
-18
-11
56
56
56
95
123
151
195
248
320
414
520
635
735
800
836
834
756
612
458
308
139
-21
-134
-215
-276
-302
-301
-300
-298
-291
-280
-260
-242
-247
-250
-231
-223
-236
-241
-227
-222
-232
-238
-225
-209
-223
-252
-237
-187
-178
-208
-203
-172
-168
-182
-182
-177
-163
-149
-165
-168
-120
-130
-200
-243
-344
-99
1132
2156
1109
-860
-1290
-562
-253
-243
-76
-11
-44
13
51
41
70
115
146
179
211
264
347
435
531
634
722
787
807
750
646
523
358
184
59
-44
-152
-217
-231
-247
-267
-256
-240
-251
-243
-208
-207
-224
-202
-178
-192
-194
-166
-163
-186
-190
-183
-183
-187
-200
-203
-170
-156
-187
-181
-140
-143
-164
-155
-137
-110
-117
-171
-148
-82
-137
-200
-264
-331
390
1883
1998
55
-1347
-914
-285
-263
-194
-42
-45
-38
3
10
30
50
72
123
151
164
232
331
428
541
639
691
727
744
693
572
424
279
138
0
-114
-193
-239
-255
-269
-302
-304
-253
-224
-241
-239
-219
-220
-203
-158
-156
-192
-195
-177
-175
-168
-161
-181
-199
-178
-160
-180
-190
-163
-150
-166
-166
-152
-147
-131
-125
-158
-169
-115
-102
-146
-96
-26
-118
-213
-271
-296
459
1870
1814
-163
-1426
-883
-246
-222
-131
7
-45
-31
55
12
-37
47
134
131
140
213
290
357
442
535
634
724
746
707
673
610
465
305
188
78
-32
-104
-145
-182
-206
-210
-213
-220
-216
-195
-166
-142
-137
-146
-154
-159
-166
-170
-163
-156
-167
-187
-183
-168
-172
-183
-186
-191
-186
-170
-175
-189
-170
-147
-153
-153
-147
-158
-148
-131
-150
-139
-117
-170
-212
-289
-318
501
1910
1767
-222
-1428
-911
-336
-295
-167
-23
-54
-38
26
34
47
73
86
127
180
222
289
384
478
581
689
772
814
811
750
626
464
301
156
18
-102
-180
-226
-266
-297
-311
-307
-290
-269
-259
-251
-233
-220
-215
-205
-199
-210
-215
-204
-195
-195
-197
-196
-197
-197
-187
-177
-181
-182
-173
-173
-177
-160
-147
-160
-167
-155
-141
-118
-118
-146
-116
-74
-126
-193
-293
-218
754
2031
1556
-464
-1414
-791
-270
-240
-121
-9
-23
12
46
37
85
143
139
146
194
241
298
377
473
592
712
781
797
785
715
562
385
255
141
-1
-118
-174
-219
-259
-267
-256
-247
-240
-237
-231
-214
-207
-212
-202
-179
-171
-172
-161
-163
-185
-190
-180
-195
-211
-195
-177
-170
-159
-156
-173
-187
-175
-149
-135
-134
-127
-122
-126
-130
-121
-92
-96
-144
-177
-301
-254
786
2145
1642
-435
-1375
-744
-259
-244
-123
-25
-52
-24
22
31
45
62
95
132
146
200
298
358
422
555
675
727
763
768
683
543
408
270
112
-32
-114
-167
-239
-289
-284
-275
-277
-266
-269
-280
-255
-230
-237
-225
-191
-183
-200
-216
-218
-189
-163
-177
-192
-192
-200
-193
-172
-186
-205
-175
-149
-170
-179
-165
-169
-167
-141
-133
-136
-130
-128
-118
-107
-123
-103
-64
-105
-152
-252
-319
493
2003
1981
-43
-1374
-880
-259
-229
-133
11
-29
-36
31
49
62
100
126
145
177
230
296
357
417
513
635
734
799
826
771
642
516
399
244
87
-18
-102
-181
-224
-244
-260
-250
-216
-198
-202
-200
-182
-166
-163
-159
-148
-139
-143
-155
-164
-170
-181
-182
-164
-157
-177
-182
-171
-176
-181
-176
-186
-199
-197
-187
-172
-166
-181
-197
-189
-164
-148
-164
-167
-125
-147
-213
-237
-312
-1
1255
2095
820
-1084
-1310
-564
-313
-272
-78
-29
-58
1
28
14
35
80
141
196
214
236
303
391
481
580
692
777
800
808
792
640
407
267
157
-34
-181
-207
-226
-266
-267
-260
-278
-280
-251
-226
-220
-205
-171
-167
-208
-237
-216
-191
-196
-202
-195
-200
-206
-178
-155
-179
-188
-142
-118
-159
-190
-170
-147
-153
-167
-159
-131
-132
-157
-136
-98
-104
-106
-111
-140
-161
-263
-63
1126
2202
1201
-856
-1383
-632
-269
-253
-89
-10
-26
32
54
31
70
109
102
120
177
239
312
399
492
598
704
767
786
773
685
523
381
279
143
-15
-119
-175
-218
-250
-275
-292
-278
-246
-239
-249
-235
-203
-195
-217
-226
-207
-185
-172
-174
-192
-198
-192
-200
-199
-172
-164
-176
-172
-169
-180
-170
-149
-150
-151
-146
-150
-133
-108
-135
-139
-64
-76
-167
-192
-292
-72
1198
2263
1138
-907
-1301
-530
-224
-213
-50
-8
-45
19
42
5
35
98
122
131
166
235
316
383
440
525
629
698
721
719
672
560
416
262
105
-22
-105
-175
-228
-239
-243
-267
-271
-247
-236
-236
-218
-198
-197
-201
-193
-180
-182
-196
-197
-180
-171
-178
-181
-179
-180
-183
-183
-176
-163
-156
-162
-161
-147
-148
-169
-161
-123
-116
-148
-165
-157
-135
-113
-118
-113
-85
-119
-154
-154
-302
-54
1290
2227
901
-1067
-1249
-464
-240
-229
-53
-16
-48
4
29
43
78
70
75
134
154
175
293
416
448
469
567
700
782
799
768
644
441
291
218
76
-126
-221
-228
-263
-277
-257
-295
-333
-276
-214
-223
-233
-217
-219
-224
-202
-194
-207
-185
-162
-201
-233
-195
-154
-151
-160
-167
-157
-126
-111
-122
-129
-132
-137
-133
-116
-99
-112
-136
-113
-82
-97
-88
-62
-105
-144
-232
-261
588
2032
1869
-198
-1449
-896
-273
-223
-111
10
-32
-21
23
23
62
100
98
138
200
221
252
332
425
519
624
716
762
773
762
678
494
316
199
68
-83
-176
-206
-223
-246
-279
-304
-293
-249
-221
-245
-263
-219
-181
-200
-209
-189
-189
-188
-152
-119
-120
-172
-236
-218
-153
-151
-175
-183
-226
-238
-167
-141
-175
-148
-109
-140
-160
-154
-156
-123
-117
-167
-192
-282
-65
1127
2136
1068
-919
-1348
-619
-286
-222
-32
-7
-103
-67
8
16
17
37
63
102
147
173
206
285
387
481
583
677
711
673
587
474
354
228
92
-21
-82
-123
-191
-266
-296
-281
-260
-256
-256
-234
-201
-190
-191
-185
-180
-172
-158
-155
-162
-162
-162
-168
-170
-165
-158
-150
-145
-140
-128
-121
-120
-107
-96
-110
-120
-99
-83
-94
-93
-81
-79
-63
-54
-70
-45
-34
-105
-151
-237
-199
766
2113
1669
-405
-1382
-736
-224
-218
-92
20
-21
2
52
50
68
93
98
134
190
226
266
338
433
532
625
704
773
819
799
689
525
357
200
51
-76
-153
-181
-198
-220
-250
-280
-294
-286
-274
-253
-225
-222
-240
-242
-225
-217
-222
-223
-208
-198
-214
-233
-224
-207
-210
-212
-204
-205
-201
-167
-152
-185
-197
-171
-166
-170
-152
-145
-138
-111
-120
-149
-130
-119
-147
-227
-314
183
1439
1838
318
-1232
-1098
-377
-218
-180
-16
7
-7
60
83
67
90
119
137
177
222
240
271
364
490
595
670
728
757
737
663
535
366
195
60
-39
-125
-193
-227
-228
-209
-193
-209
-245
-243
-192
-157
-167
-185
-188
-193
-201
-193
-169
-157
-170
-176
-169
-173
-174
-155
-145
-154
-156
-162
-173
-159
-144
-167
-174
-140
-130
-144
-125
-106
-113
-117
-113
-106
-200
-390
-35
1185
1823
589
-1066
-1223
-486
-167
-145
-19
54
36
53
75
80
96
117
146
176
192
233
316
383
427
504
609
684
716
724
690
583
423
266
127
-8
-116
-175
-219
-250
-240
-227
-247
-246
-220
-225
-239
-215
-192
-200
-203
-192
-195
-207
-211
-208
-203
-201
-201
-204
-204
-198
-188
-188
-190
-180
-175
-177
-150
-121
-141
-164
-144
-123
-111
-94
-100
-99
-75
-103
-147
-222
-346
176
1598
2081
445
-1205
-1060
-330
-177
-145
-12
3
0
36
36
55
90
96
126
179
208
232
288
365
454
540
607
654
680
675
630
538
402
253
122
8
-90
-163
-206
-226
-231
-225
-219
-214
-206
-199
-200
-203
-199
-195
-197
-198
-195
-195
-197
-199
-202
-203
-199
-197
-194
-184
-186
-204
-202
-183
-183
-190
-180
-173
-160
-135
-143
-148
-104
-115
-174
-205
-290
-6
1128
1815
573
-1141
-1256
-496
-223
-184
-32
5
-12
43
62
53
88
125
147
180
216
258
321
389
459
541
621
678
709
709
661
560
418
270
136
21
-75
-147
-192
-211
-213
-210
-205
-199
-195
-193
-191
-193
-195
-194
-192
-195
-196
-194
-196
-201
-202
-197
-193
-192
-183
-172
-180
-193
-181
-169
-180
-180
-164
-156
-143
-130
-136
-116
-97
-136
-177
-276
-291
472
1670
1442
-346
-1368
-845
-268
-207
-122
-14
-34
-17
35
34
45
82
99
119
160
200
243
306
384
465
545
613
663
695
689
618
497
357
214
84
-22
-114
-182
-211
-218
-219
-205
-181
-174
-182
-182
-180
-181
-182
-181
-178
-170
-177
-199
-206
-196
-188
-181
-184
-206
-209
-180
-176
-200
-196
-172
-164
-143
-121
-126
-121
-132
-176
-218
-367
-301
749
1933
1242
-695
-1330
-605
-184
-206
-105
-36
-71
-31
26
38
54
65
73
110
154
194
258
339
414
493
576
638
672
694
679
582
425
282
165
39
-78
-146
-173
-200
-229
-238
-218
-201
-213
-223
-210
-203
-211
-214
-212
-210
-202
-200
-208
-208
-202
-202
-201
-189
-173
-167
-188
-202
-182
-172
-188
-183
-157
-135
-123
-136
-135
-90
-95
-142
-175
-321
-199
872
1877
1012
-828
-1311
-602
-197
-147
-20
24
-12
35
78
74
97
129
144
166
193
222
276
352
426
501
577
634
666
683
661
570
437
304
169
46
-38
-112
-184
-211
-202
-201
-203
-201
-208
-193
-162
-170
-187
-164
-145
-168
-191
-182
-160
-152
-162
-167
-169
-182
-183
-167
-165
-169
-164
-164
-148
-127
-149
-160
-142
-172
-216
-330
-403
366
1773
1727
-165
-1366
-855
-241
-199
-129
-23
-55
-39
23
17
6
35
69
91
111
161
236
281
309
389
489
539
560
586
577
501
382
256
131
11
-88
-160
-208
-233
-243
-248
-243
-238
-239
-231
-213
-212
-219
-209
-200
-210
-217
-210
-209
-212
-201
-194
-203
-200
-192
-216
-227
-183
-161
-189
-197
-187
-194
-193
-184
-171
-151
-177
-204
-258
-452
-155
1188
1992
641
-1151
-1206
-421
-201
-200
-63
-40
-59
4
37
39
63
85
110
140
170
231
311
364
420
510
590
636
668
682
655
572
428
274
164
59
-72
-155
-167
-180
-202
-190
-176
-175
-160
-149
-161
-155
-139
-146
-148
-135
-139
-138
-113
-114
-143
-131
-93
-104
-139
-121
-92
-117
-137
-102
-75
-83
-92
-78
-42
-43
-87
-120
-256
-238
676
1817
1247
-628
-1338
-632
-140
-113
2
71
33
80
114
81
104
153
159
171
218
264
300
347
413
489
569
644
676
653
607
538
409
245
113
15
-98
-204
-254
-263
-271
-274
-269
-260
-250
-261
-286
-278
-250
-258
-275
-248
-234
-272
-283
-235
-211
-239
-253
-236
-220
-207
-208
-243
