# session 24
97
83
124
12
-209
-228
-78
-10
-13
17
46
55
67
73
78
99
121
134
154
181
212
254
302
349
407
477
544
596
639
668
666
614
505
356
203
73
-33
-125
-194
-226
-239
-249
-252
-248
-242
-234
-228
-228
-224
-211
-199
-194
-191
-186
-180
-178
-184
-192
-195
-193
-190
-185
-178
-176
-177
-174
-166
-162
-159
-158
-160
-158
-154
-150
-144
-136
-132
-136
-142
-142
-128
-118
-130
-143
-125
-99
-98
-93
-60
-43
-68
-88
-84
-87
-85
-87
-110
-90
-56
-110
-190
-308
-299
629
2151
2094
139
-1094
-632
-132
-184
-118
8
-42
-42
40
57
41
36
36
56
81
99
127
160
190
233
290
346
409
481
542
588
630
658
639
556
424
273
128
2
-98
-172
-222
-251
-268
-274
-273
-270
-263
-251
-248
-245
-226
-207
-210
-218
-211
-197
-192
-197
-199
-195
-194
-195
-191
-188
-191
-187
-179
-183
-189
-180
-174
-181
-177
-153
-135
-130
-118
-87
-65
-95
-146
-162
-143
-121
-122
-129
-94
-85
-161
-222
-311
-215
832
2222
1807
-228
-1202
-606
-159
-200
-95
14
-31
-18
23
12
34
74
82
95
120
139
163
197
234
278
336
404
476
551
629
696
730
721
660
534
367
203
62
-57
-153
-220
-256
-272
-280
-291
-300
-295
-281
-271
-267
-260
-248
-233
-221
-218
-221
-217
-209
-207
-204
-195
-192
-199
-200
-184
-173
-185
-191
-165
-148
-156
-141
-109
-114
-135
-138
-148
-153
-136
-147
-151
-113
-129
-183
-249
-364
71
1490
2276
906
-897
-1020
-347
-208
-219
-59
-29
-63
-11
17
12
33
44
49
80
116
136
154
189
239
287
340
418
510
596
665
706
715
683
582
420
252
103
-34
-144
-209
-241
-260
-272
-285
-293
-284
-272
-274
-266
-243
-233
-222
-200
-196
-205
-194
-185
-192
-182
-162
-171
-191
-188
-171
-165
-171
-174
-162
-149
-146
-151
-149
-135
-126
-132
-120
-86
-82
-103
-103
-107
-124
-117
-111
-115
-95
-99
-143
-212
-355
-55
1273
2320
1282
-627
-1043
-391
-164
-197
-55
-10
-61
-16
24
13
28
51
62
86
109
122
143
176
215
266
326
390
461
541
613
660
689
687
623
494
334
175
29
-92
-175
-221
-246
-266
-274
-268
-265
-264
-257
-249
-242
-226
-214
-216
-217
-205
-195
-191
-189
-186
-183
-180
-183
-189
-188
-182
-181
-177
-171
-168
-157
-141
-149
-170
-160
-133
-133
-133
-98
-75
-94
-109
-115
-131
-125
-107
-130
-128
-86
-113
-174
-267
-361
283
1820
2286
595
-1018
-855
-233
-195
-174
-26
-43
-58
12
20
9
38
52
60
92
116
132
164
201
234
284
353
426
497
566
628
674
689
664
588
455
292
137
4
-102
-175
-220
-249
-266
-277
-279
-267
-259
-253
-236
-222
-226
-221
-202
-193
-192
-190
-192
-193
-190
-188
-185
-178
-179
-184
-179
-172
-171
-167
-158
-151
-149
-147
-142
-136
-138
-140
-130
-117
-112
-96
-75
-84
-107
-114
-123
-124
-111
-119
-116
-87
-120
-174
-241
-354
171
1671
2320
759
-970
-925
-269
-189
-177
-28
-36
-51
19
23
7
39
53
53
79
110
135
167
194
223
271
332
395
466
541
600
640
670
667
599
477
331
183
49
-59
-140
-195
-226
-239
-245
-245
-240
-230
-218
-210
-210
-207
-199
-192
-188
-185
-185
-181
-177
-180
-185
-184
-188
-191
-184
-184
-191
-177
-160
-169
-174
-151
-141
-152
-147
-139
-149
-144
-124
-123
-116
-72
-52
-82
-98
-97
-116
-116
-99
-118
-109
-67
-110
-174
-246
-324
326
1832
2195
446
-1077
-823
-216
-191
-143
2
-29
-39
21
15
13
48
56
65
99
121
137
162
184
210
258
315
378
450
518
564
599
631
625
551
429
299
172
46
-68
-147
-189
-216
-239
-248
-246
-238
-227
-220
-217
-211
-200
-190
-184
-189
-193
-183
-171
-174
-183
-184
-182
-180
-178
-181
-181
-170
-161
-159
-157
-153
-149
-145
-147
-148
-132
-120
-135
-142
-119
-104
-106
-85
-55
-67
-97
-102
-105
-107
-96
-103
-101
-70
-102
-158
-217
-333
127
1567
2260
782
-943
-930
-268
-175
-166
-11
-17
-56
1
20
13
42
68
84
102
116
139
170
189
211
261
327
388
452
529
601
645
667
666
608
485
340
196
57
-53
-126
-188
-242
-263
-259
-258
-264
-262
-248
-233
-227
-225
-218
-212
-207
-197
-192
-201
-205
-197
-194
-197
-196
-192
-189
-188
-187
-182
-171
-162
-160
-160
-145
-122
-121
-126
-101
-88
-116
-138
-142
-148
-134
-123
-137
-117
-95
-150
-207
-293
-212
742
2027
1636
-303
-1256
-679
-203
-208
-99
8
-31
-12
35
29
48
75
67
77
108
127
151
190
226
263
312
372
439
508
573
623
652
659
626
526
379
228
88
-35
-128
-189
-227
-242
-241
-239
-244
-245
-238
-231
-228
-221
-206
-195
-193
-195
-191
-184
-179
-176
-177
-183
-183
-180
-185
-188
-175
-163
-163
-162
-156
-149
-140
-141
-144
-127
-112
-126
-116
-62
-50
-94
-109
-100
-112
-104
-86
-105
-95
-72
-120
-176
-279
-253
675
2067
1817
-126
-1172
-630
-156
-190
-101
9
-38
-32
15
10
22
50
56
73
100
117
142
173
193
221
271
330
387
447
509
565
599
603
573
502
390
257
120
-4
-98
-162
-205
-234
-250
-254
-248
-236
-225
-218
-215
-210
-199
-187
-181
-179
-176
-177
-179
-176
-172
-176
-182
-182
-177
-173
-172
-168
-159
-154
-157
-162
-156
-137
-128
-126
-101
-70
-79
-106
-111
-115
-119
-102
-106
-127
-96
-90
-150
-198
-306
-130
1026
2181
1377
-561
-1136
-471
-159
-195
-69
-6
-50
-15
21
14
34
55
58
74
95
114
143
173
202
240
281
328
390
458
520
566
595
603
567
468
332
202
87
-25
-125
-187
-209
-221
-246
-265
-256
-236
-225
-215
-204
-201
-204
-201
-191
-181
-185
-196
-193
-180
-180
-188
-189
-186
-187
-183
-176
-171
-172
-166
-155
-156
-160
-141
-123
-132
-126
-88
-81
-110
-124
-129
-140
-130
-126
-137
-108
-96
-160
-211
-296
-180
841
2088
1571
-351
-1167
-570
-171
-197
-77
20
-28
-12
34
31
51
84
87
92
118
144
163
185
216
261
316
374
434
506
580
634
665
673
633
529
387
244
110
-16
-124
-199
-239
-256
-263
-263
-260
-253
-242
-230
-224
-220
-210
-199
-193
-187
-179
-179
-187
-191
-190
-192
-193
-185
-182
-184
-176
-168
-176
-173
-147
-141
-152
-133
-100
-106
-134
-146
-154
-156
-140
-142
-154
-123
-119
-176
-234
-341
-118
1060
2141
1257
-668
-1187
-502
-192
-215
-74
-14
-64
-19
23
14
42
74
74
84
110
135
161
186
209
250
314
387
453
514
566
606
634
639
592
481
326
169
35
-73
-161
-217
-240
-246
-251
-253
-253
-250
-242
-232
-220
-210
-202
-193
-188
-184
-181
-178
-182
-186
-186
-180
-173
-167
-166
-174
-178
-169
-156
-148
-150
-149
-132
-122
-127
-107
-73
-87
-122
-119
-115
-127
-115
-111
-125
-92
-78
-137
-192
-313
-189
935
2202
1552
-420
-1134
-495
-146
-190
-72
-4
-61
-28
21
10
19
43
57
84
110
123
143
170
203
247
290
338
409
480
527
567
609
624
584
486
351
213
90
-22
-121
-188
-218
-235
-254
-261
-246
-230
-227
-225
-216
-199
-182
-179
-190
-194
-186
-181
-181
-179
-182
-184
-180
-180
-182
-176
-171
-166
-157
-156
-165
-159
-138
-141
-162
-139
-78
-64
-106
-126
-118
-127
-129
-122
-143
-128
-80
-119
-183
-256
-315
352
1807
2083
320
-1144
-841
-214
-182
-152
-20
-35
-38
14
18
23
53
66
83
110
121
134
164
197
227
269
330
390
440
498
554
584
603
598
524
395
265
139
13
-95
-169
-207
-226
-247
-254
-233
-215
-216
-213
-200
-200
-214
-215
-200
-189
-187
-187
-187
-180
-174
-180
-186
-179
-177
-185
-185
-173
-161
-152
-145
-146
-155
-160
-144
-125
-126
-122
-95
-90
-116
-122
-110
-121
-119
-98
-110
-112
-88
-130
-178
-242
-327
306
1806
2200
481
-1052
-815
-209
-190
-153
-4
-31
-49
17
25
17
43
60
70
88
108
130
152
178
216
264
320
387
455
511
557
601
636
635
573
450
303
170
47
-72
-162
-213
-251
-281
-282
-268
-264
-262
-246
-229
-223
-215
-206
-208
-210
-202
-200
-204
-197
-189
-194
-199
-193
-184
-175
-169
-170
-170
-161
-152
-146
-141
-138
-122
-93
-90
-117
-133
-133
-134
-119
-111
-129
-112
-89
-140
-205
-278
-147
782
1939
1482
-392
-1278
-687
-208
-212
-98
23
-20
-15
37
38
46
76
92
112
136
154
179
205
226
264
323
385
444
508
572
625
659
664
621
520
376
221
82
-32
-124
-192
-234
-249
-250
-254
-256
-243
-226
-221
-221
-211
-196
-191
-198
-200
-188
-180
-185
-195
-197
-188
-187
-195
-189
-175
-181
-191
-178
-159
-158
-165
-163
-143
-127
-131
-122
-88
-85
-117
-122
-115
-135
-132
-111
-130
-121
-88
-139
-198
-277
-323
433
1928
2078
227
-1136
-756
-193
-208
-153
-16
-45
-41
21
19
19
49
59
70
95
113
132
161
189
224
274
332
388
449
514
569
603
618
608
548
431
287
142
8
-93
-159
-209
-247
-264
-260
-247
-239
-238
-230
-213
-203
-209
-208
-194
-188
-191
-176
-159
-175
-191
-178
-172
-184
-183
-171
-166
-166
-162
-154
-152
-160
-154
-126
-116
-123
-104
-79
-97
-121
-120
-122
-121
-107
-117
-115
-75
-105
-169
-220
-334
71
1488
2297
914
-903
-1004
-315
-171
-178
-38
-32
-54
15
31
15
44
60
56
72
100
125
152
181
215
260
310
360
415
479
536
568
592
605
559
439
296
166
41
-75
-158
-200
-225
-246
-255
-254
-250
-243
-233
-230
-232
-228
-216
-201
-192
-191
-190
-192
-195
-186
-176
-183
-191
-191
-194
-194
-187
-183
-176
-167
-174
-180
-161
-148
-151
-127
-91
-97
-124
-134
-146
-154
-128
-119
-138
-111
-90
-138
-196
-319
-171
968
2193
1489
-460
-1110
-458
-136
-187
-58
16
-37
-4
38
20
33
66
71
84
113
131
147
180
221
265
318
373
428
490
549
594
633
650
605
505
382
242
101
-14
-109
-183
-216
-228
-249
-257
-244
-244
-253
-237
-217
-224
-227
-207
-195
-201
-205
-202
-206
-210
-201
-193
-199
-208
-205
-197
-189
-183
-185
-187
-173
-157
-151
-132
-108
-118
-138
-131
-122
-120
-112
-125
-137
-111
-123
-175
-232
-285
201
1485
2012
567
-1052
-1012
-332
-193
-169
-16
-6
-24
48
70
50
67
93
111
130
143
164
200
230
256
296
348
405
463
523
578
618
635
616
545
424
278
136
12
-93
-175
-224
-241
-251
-272
-280
-260
-239
-233
-222
-210
-210
-208
-198
-199
-206
-199
-187
-185
-188
-188
-186
-186
-185
-182
-182
-181
-174
-167
-168
-168
-153
-137
-137
-134
-116
-113
-129
-136
-136
-134
-122
-127
-129
-92
-103
-164
-221
-352
-67
1247
2252
1148
-724
-1025
-349
-162
-190
-35
-4
-56
-9
19
10
37
55
57
82
112
129
149
175
207
245
288
344
413
474
525
574
608
607
557
455
317
182
61
-55
-145
-186
-201
-225
-249
-254
-245
-235
-225
-221
-215
-193
-173
-180
-190
-178
-165
-170
-175
-172
-174
-181
-178
-166
-159
-160
-155
-143
-135
-135
-135
-134
-137
-133
-119
-115
-124
-123
-120
-129
-120
-107
-136
-139
-98
-130
-188
-247
-338
204
1634
2124
516
-1067
-899
-256
-200
-174
-24
-41
-66
-8
-1
-4
29
39
42
70
96
113
138
169
208
257
305
358
425
494
546
587
617
610
543
428
297
160
25
-75
-137
-191
-236
-246
-233
-233
-243
-241
-224
-207
-198
-195
-191
-182
-172
-166
-170
-176
-172
-165
-165
-165
-160
-163
-163
-143
-130
-150
-165
-150
-136
-138
-130
-118
-121
-120
-115
-135
-160
-141
-120
-135
-119
-88
-139
-199
-254
-186
619
1853
1659
-178
-1285
-791
-238
-220
-132
-2
-38
-38
24
39
50
72
73
88
122
146
168
195
220
256
306
357
414
485
548
592
631
650
614
517
383
237
94
-37
-141
-202
-233
-261
-285
-281
-257
-250
-261
-259
-231
-209
-207
-205
-197
-194
-192
-187
-186
-187
-185
-184
-184
-184
-180
-171
-169
-172
-161
-147
-156
-161
-139
-130
-142
-134
-122
-143
-152
-122
-119
-133
-104
-114
-167
-229
-358
-3
1379
2280
1006
-851
-1028
-323
-167
-198
-47
-17
-42
19
37
29
71
93
82
93
127
157
181
209
253
299
338
389
461
534
590
624
647
647
585
449
291
152
25
-88
-163
-205
-236
-254
-255
-259
-268
-265
-249
-236
-229
-222
-216
-212
-204
-194
-188
-195
-201
-191
-176
-182
-196
-193
-183
-184
-185
-185
-188
-176
-154
-149
-155
-146
-135
-145
-157
-156
-159
-154
-131
-140
-158
-123
-126
-196
-248
-368
-169
1063
2220
1321
-644
-1150
-458
-181
-229
-96
-36
-86
-52
-18
-27
-7
17
24
45
72
92
116
147
183
222
262
306
359
423
490
538
562
570
539
442
309
182
58
-55
-131
-179
-216
-238
-237
-228
-221
-218
-221
-221
-210
-187
-166
-156
-155
-153
-153
-159
-157
-144
-146
-155
-142
-128
-142
-151
-134
-117
-113
-114
-117
-115
-111
-113
-102
-70
-57
-73
-75
-66
-71
-73
-77
-83
-48
-47
-111
-145
-243
-156
878
2105
1509
-397
-1093
-459
-112
-155
-32
49
2
28
60
45
68
98
97
108
137
161
188
208
215
237
291
353
411
471
529
570
601
620
588
483
344
208
80
-39
-133
-193
-229
-254
-269
-268
-261
-259
-261
-259
-248
-237
-241
-246
-233
-220
-223
-226
-217
-217
-230
-234
-224
-213
-207
-206
-202
-187
-174
-178
