# session 18
-19
-32
36
-83
-408
-564
-477
-400
-376
-309
-225
-145
-37
88
202
294
344
345
304
213
79
-61
-177
-268
-336
-379
-401
-402
-390
-375
-359
-339
-320
-307
-296
-285
-276
-269
-260
-251
-243
-241
-238
-225
-211
-212
-208
-183
-164
-162
-159
-152
-133
-106
-104
-96
-58
-77
-122
-178
-316
41
1321
1998
687
-941
-973
-306
-142
-116
36
54
28
83
112
118
159
200
240
303
375
460
567
672
746
782
779
731
628
482
328
194
79
-14
-76
-116
-138
-141
-136
-134
-128
-120
-117
-118
-116
-114
-115
-119
-131
-144
-144
-135
-130
-133
-141
-151
-154
-151
-156
-162
-162
-156
-131
-117
-130
-114
-97
-142
-180
-278
-338
384
1661
1584
-145
-1230
-794
-278
-243
-148
-25
-48
-38
16
19
33
79
113
148
202
276
374
479
570
633
654
636
579
460
295
145
22
-84
-157
-200
-240
-274
-280
-271
-266
-259
-246
-235
-235
-237
-233
-232
-241
-244
-237
-232
-216
-186
-178
-191
-189
-181
-188
-199
-197
-179
-160
-163
-157
-132
-154
-185
-227
-337
4
1139
1671
401
-1102
-1098
-433
-238
-188
-33
-5
-19
35
57
61
102
139
171
227
298
378
475
572
642
674
667
614
506
355
201
73
-28
-110
-169
-206
-222
-224
-216
-206
-196
-188
-180
-171
-166
-166
-166
-166
-168
-173
-178
-177
-172
-178
-189
-181
-165
-164
-172
-173
-155
-134
-140
-138
-109
-123
-159
-225
-386
-75
1175
1934
741
-915
-1053
-396
-196
-182
-49
-27
-50
0
23
26
65
103
136
195
268
348
448
553
632
670
669
630
535
393
240
104
-11
-103
-166
-206
-227
-231
-226
-220
-213
-204
-197
-191
-182
-176
-175
-174
-174
-175
-172
-172
-174
-168
-164
-177
-180
-163
-154
-154
-151
-146
-126
-112
-120
-102
-85
-128
-166
-268
-329
405
1691
1594
-152
-1209
-734
-210
-189
-108
1
-27
-12
40
40
57
104
136
176
241
316
405
506
595
654
676
660
601
489
337
189
65
-37
-119
-171
-199
-213
-217
-216
-211
-202
-192
-189
-189
-183
-181
-185
-185
-181
-183
-187
-189
-190
-189
-196
-207
-200
-182
-183
-196
-197
-180
-158
-167
-179
-144
-137
-183
-212
-333
-294
615
1678
1069
-702
-1325
-681
-266
-249
-129
-43
-67
-36
3
-5
16
79
144
202
256
322
404
494
574
627
649
634
556
419
263
118
-7
-110
-195
-255
-286
-300
-304
-286
-251
-220
-190
-157
-130
-107
-89
-83
-86
-82
-69
-60
-53
-40
-23
-21
-31
-32
-37
-66
-93
-95
-80
-60
-64
-87
-82
-82
-97
-105
-226
-171
751
1822
1269
-438
-1094
-538
-169
-166
-75
-20
-63
-46
-20
-31
-14
25
71
144
224
298
387
480
556
613
645
637
576
464
326
193
65
-61
-159
-219
-262
-287
-273
-232
-195
-164
-140
-142
-164
-188
-208
-224
-237
-253
-266
-272
-281
-288
-284
-292
-308
-303
-287
-288
-297
-298
-280
-262
-274
-270
-235
-255
-292
-340
-498
-202
1048
1796
579
-1030
-1065
-353
-142
-102
53
79
69
135
164
171
220
251
254
284
351
442
552
658
736
778
784
747
659
531
386
237
93
-26
-109
-164
-201
-216
-216
-217
-220
-214
-203
-198
-198
-196
-193
-194
-194
-194
-199
-203
-203
-201
-199
-196
-195
-191
-186
-186
-176
-146
-125
-119
-116
-118
-113
-104
-115
-103
-71
-103
-139
-206
-338
145
1451
1821
290
-1099
-864
-244
-166
-124
6
-9
-20
33
42
52
94
124
160
225
296
374
471
560
624
669
686
655
576
461
320
177
58
-36
-111
-165
-200
-212
-208
-205
-208
-204
-197
-197
-197
-195
-200
-207
-206
-201
-199
-201
-206
-209
-199
-191
-188
-172
-156
-164
-171
-151
-143
-156
-160
-153
-142
-141
-152
-135
-115
-152
-189
-275
-346
262
1421
1374
-286
-1383
-940
-359
-304
-223
-87
-101
-101
-57
-57
-44
2
32
67
128
200
283
376
468
547
605
625
592
494
344
184
44
-70
-158
-213
-238
-240
-231
-231
-238
-230
-201
-169
-148
-135
-119
-106
-98
-91
-84
-82
-82
-78
-68
-65
-71
-71
-69
-80
-86
-65
-46
-43
-44
-39
-20
-2
-14
-10
20
-4
-40
-105
-260
117
1394
1972
594
-965
-918
-251
-92
-55
79
79
61
115
128
129
168
198
226
283
351
425
521
620
698
743
751
717
638
517
374
240
124
29
-48
-109
-155
-184
-200
-212
-221
-229
-240
-251
-260
-266
-270
-275
-283
-291
-296
-300
-302
-302
-300
-297
-298
-297
-291
-299
-314
-301
-274
-269
-274
-271
-259
-238
-236
-236
-203
-205
-242
-274
-412
-247
853
1787
852
-883
-1216
-536
-251
-247
-119
-76
-100
-49
-17
-19
17
56
85
138
205
275
362
458
543
602
623
612
567
463
317
192
109
28
-60
-126
-165
-182
-164
-123
-101
-109
-120
-121
-117
-118
-127
-137
-140
-132
-118
-109
-113
-120
-124
-129
-121
-91
-72
-80
-97
-115
-125
-119
-119
-133
-144
-148
-142
-126
-127
-122
-90
-71
-56
-129
-268
210
1399
1604
62
-1226
-941
-305
-185
-116
20
23
21
62
55
56
101
138
168
223
307
405
512
616
694
725
714
678
592
449
293
161
48
-52
-133
-194
-222
-208
-172
-142
-139
-157
-156
-112
-61
-31
-8
14
6
-34
-78
-107
-126
-142
-158
-168
-171
-175
-180
-180
-185
-196
-191
-176
-176
-182
-183
-173
-155
-158
-162
-136
-144
-180
-218
-369
-226
849
1797
917
-809
-1195
-537
-233
-220
-91
-41
-68
-24
6
1
33
74
101
143
202
271
356
449
530
584
603
587
530
423
283
149
37
-60
-138
-191
-226
-244
-245
-235
-227
-221
-212
-200
-190
-182
-174
-168
-166
-166
-165
-165
-167
-168
-164
-161
-160
-151
-139
-146
-158
-145
-129
-131
-136
-132
-117
-101
-109
-108
-71
-82
-123
-168
-316
-89
1062
1871
784
-879
-1064
-385
-152
-142
-16
6
-21
30
52
48
85
117
139
186
249
315
398
493
574
623
637
620
564
462
327
192
74
-27
-109
-166
-202
-218
-218
-212
-206
-198
-188
-181
-175
-172
-169
-167
-167
-168
-164
-160
-160
-161
-161
-162
-162
-158
-155
-155
-151
-145
-148
-149
-142
-144
-144
-98
-13
46
59
44
13
-4
-4
-26
-38
-21
-53
-93
-154
-300
84
1324
1819
421
-1036
-896
-245
-134
-114
8
-3
-24
29
44
48
81
105
132
174
220
290
381
463
535
597
622
597
534
440
314
177
58
-39
-128
-205
-247
-258
-261
-263
-263
-258
-252
-253
-254
-237
-218
-222
-236
-244
-238
-214
-202
-220
-232
-225
-231
-232
-190
-156
-172
-171
-121
-88
-84
-64
-38
-36
-62
-90
-89
-87
-92
-73
-148
-156
539
1478
1026
-616
-1328
-733
-247
-203
-82
48
42
65
123
135
140
153
161
194
264
355
457
548
624
699
749
727
639
517
372
218
80
-34
-124
-182
-211
-219
-203
-163
-135
-151
-181
-179
-148
-127
-119
-110
-112
-137
-170
-200
-218
-212
-199
-208
-234
-247
-250
-263
-270
-266
-275
-288
-268
-217
-165
-127
-95
-52
-20
-29
-30
-20
-85
-157
-227
-374
-6
1231
1766
399
-1105
-1036
-399
-272
-253
-132
-137
-158
-110
-77
-25
61
126
186
260
331
413
518
616
691
751
781
772
730
647
523
395
291
203
127
69
23
-7
-11
-9
-15
-15
-9
-27
-71
-115
-145
-165
-182
-201
-219
-233
-248
-264
-274
-281
-287
-295
-301
-295
-297
-315
-315
-296
-295
-303
-299
-292
-276
-273
-292
-273
-248
-292
-320
-395
-484
127
1326
1289
-361
-1393
-883
-260
-158
-62
44
19
23
45
28
69
154
205
252
325
403
491
590
687
772
830
841
808
732
626
512
382
222
78
-7
-63
-120
-156
-163
-165
-173
-178
-182
-194
-206
-207
-208
-212
-211
-209
-205
-206
-239
-272
-256
-232
-246
-254
-229
-211
-213
-221
-230
-214
-148
-77
-58
-85
-94
-46
13
5
-37
-35
-52
-119
-199
-285
72
1175
1705
422
-1162
-1204
-491
-243
-176
-7
34
17
60
72
81
129
144
145
204
272
310
395
531
615
635
663
682
630
528
430
325
188
57
-35
-127
-223
-260
-250
-257
-262
-236
-220
-224
-217
-211
-224
-229
-201
-181
-226
-283
-249
-187
-209
-248
-222
-201
-225
-236
-228
-235
-243
-214
-183
-242
-323
-278
-180
-143
-123
-126
-159
-233
-372
-7
1227
1788
381
-1216
-1140
-406
-208
-156
-15
7
19
71
79
113
165
183
230
299
347
424
537
639
723
787
831
831
721
550
414
280
123
20
-42
-121
-176
-201
-239
-241
-186
-171
-201
-177
-143
-174
-179
-129
-133
-177
-171
-157
-177
-179
-144
-131
-157
-173
-170
-189
-197
-152
-129
-166
-198
-200
-177
-135
-143
-182
-148
-119
-169
-220
-343
-223
874
2054
1291
-715
-1374
-681
-283
-244
-68
-8
-73
-22
24
11
60
118
129
178
258
300
370
514
624
657
711
787
771
648
503
361
180
-10
-117
-156
-223
-289
-300
-307
-307
-272
-271
-295
-268
-233
-226
-207
-192
-202
-232
-273
-260
-181
-158
-230
-278
-237
-184
-181
-200
-215
-225
-210
-181
-190
-225
-219
-170
-143
-173
-185
-147
-168
-222
-264
-380
6
1388
2134
663
-1184
-1219
-453
-263
-222
-38
-12
-21
57
72
66
127
180
207
248
308
401
520
624
719
808
847
823
759
650
500
342
191
56
-40
-104
-169
-226
-245
-246
-252
-242
-209
-190
-193
-189
-176
-176
-177
-173
-183
-203
-205
-191
-190
-209
-222
-220
-216
-215
-208
-199
-201
-215
-221
-204
-183
-182
-185
-172
-168
-176
-176
-175
-152
-117
-152
-195
-219
-346
-16
1269
1940
491
-1266
-1215
-373
-131
-79
102
131
134
243
280
236
241
291
353
407
432
451
504
591
692
764
781
766
732
640
485
314
165
37
-89
-196
-250
-272
-295
-306
-299
-300
-302
-286
-264
-247
-241
-250
-253
-240
-236
-246
-241
-232
-245
-256
-247
-235
-240
-248
-239
-226
-231
-238
-240
-246
-214
-108
-13
-23
-57
-35
-62
-157
-148
-50
-43
-95
-89
-69
-50
-8
9
26
41
-36
-115
-169
-181
482
1752
1751
-55
-1317
-900
-309
-258
-152
-6
-44
-47
19
31
38
59
71
110
172
226
292
380
481
593
677
706
693
645
556
425
266
122
5
-110
-195
-221
-243
-286
-308
-298
-279
-265
-254
-232
-216
-230
-235
-200
-176
-177
-138
-71
-46
-46
-38
-50
-74
-71
-86
-136
-143
-114
-129
-155
-137
-120
-131
-134
-118
-106
-120
-134
-97
-82
-157
-187
-243
-309
435
1868
1850
-110
-1397
-887
-260
-243
-159
4
-13
-27
17
29
52
95
122
157
208
258
329
432
551
674
759
775
755
700
563
388
249
121
-32
-142
-166
-166
-188
-214
-236
-264
-272
-253
-253
-266
-235
-169
-145
-195
-245
-217
-163
-191
-261
-258
-181
-126
-169
-255
-246
-156
-132
-170
-169
-156
-177
-185
-179
-185
-173
-173
-222
-199
-90
-107
-196
-105
-27
-174
-297
-349
-168
925
2129
1398
-649
-1360
-630
-195
-232
-133
-40
-56
-17
19
26
78
81
47
135
277
313
309
383
545
718
784
750
735
717
583
387
246
138
11
-105
-175
-203
-224
-261
-275
-251
-250
-264
-235
-196
-180
-152
-131
-150
-164
-155
-170
-192
-177
-160
-168
-166
-147
-135
-130
-117
-100
-98
-125
-151
-147
-137
-116
-52
-23
-79
-113
-94
-125
-162
-96
-67
-150
-195
-289
-234
767
2051
1508
-493
-1325
-688
-263
-261
-103
-3
-66
-25
45
20
19
67
94
124
179
239
330
460
581
676
748
783
776
717
591
433
283
128
-16
-97
-142
-203
-258
-282
-299
-303
-281
-261
-261
-259
-245
-235
-238
-247
-247
-223
-191
-187
-201
-199
-196
-208
-204
-170
-151
-166
-154
-78
2
17
-17
-44
-63
-86
-86
-82
-105
-106
-83
-105
-117
-91
-135
-196
-242
-239
432
1684
1660
-178
-1482
-1061
-407
-323
-227
-50
-39
-61
-35
3
71
121
120
127
156
198
285
414
530
597
658
744
778
689
541
422
302
137
-15
-101
-164
-234
-268
-270
-279
-281
-265
-251
-241
-227
-216
-199
-183
-201
-229
-220
-195
-182
-188
-214
-223
-192
-174
-187
-191
-189
-194
-187
-180
-183
-172
-156
-155
-162
-167
-152
-126
-140
-153
-113
-118
-164
-197
-360
-179
1109
2229
1174
-845
-1286
-565
-245
-199
-33
11
10
123
199
232
320
387
412
477
570
642
712
794
870
922
945
949
915
813
655
479
306
154
28
-80
-161
-226
-284
-300
-282
-290
-303
-274
-249
-269
-280
-255
-237
-236
-230
-234
-262
-275
-255
-245
-268
-276
-259
-262
-262
-236
-242
-276
-274
-263
-277
-265
-228
-230
-255
-246
-237
-277
-277
-208
-213
-277
-330
-487
-240
1066
2054
892
-1055
-1407
-699
-376
-269
-77
-32
-20
46
11
-39
-24
-36
-16
87
153
160
204
322
473
572
620
663
638
542
488
441
302
151
58
-10
-40
-37
-69
-109
-116
-132
-153
-138
-121
-130
-150
-180
-215
-237
-235
-218
-216
-241
-256
-239
-229
-256
-293
-293
-268
-264
-264
-245
-241
-258
-256
-231
-215
-216
-218
-192
-165
-177
-164
-124
-162
-196
-249
-416
69
1551
2052
348
-1280
-1053
-337
-217
-156
-13
-25
-18
50
48
57
127
170
180
222
296
370
445
545
654
738
812
912
983
949
845
738
628
511
425
370
317
248
163
89
59
53
30
-8
-22
5
55
114
161
165
139
110
38
-83
-157
-149
-134
-148
-157
-146
-141
-149
-145
-152
-199
-224
-198
-194
-228
-276
-327
-328
-313
-348
-359
-435
-479
297
1578
1322
-587
-1629
-1086
-567
-551
-454
-351
-387
-382
-358
-379
-374
-355
-348
-324
-307
-307
-266
-189
-128
-71
6
40
-9
