# session 26
92
43
114
105
-161
201
1634
2107
368
-1237
-961
-272
-232
-202
-44
-59
-69
-8
-11
-11
31
44
52
88
114
119
136
177
222
257
306
380
450
507
569
623
645
629
561
430
267
106
-44
-171
-255
-298
-320
-336
-341
-332
-319
-308
-294
-279
-275
-276
-267
-255
-251
-252
-249
-241
-234
-228
-231
-243
-241
-227
-226
-232
-220
-201
-200
-207
-203
-193
-193
-191
-167
-147
-152
-153
-148
-159
-154
-136
-157
-150
-103
-139
-197
-266
-402
150
1706
2282
604
-1061
-873
-205
-177
-172
-14
-22
-35
37
44
21
35
47
63
100
131
150
174
203
230
264
318
383
446
508
573
633
674
671
603
483
339
185
42
-67
-144
-201
-237
-256
-265
-258
-240
-231
-238
-235
-213
-190
-182
-186
-191
-190
-187
-189
-187
-179
-173
-176
-179
-176
-174
-175
-170
-157
-151
-158
-159
-150
-151
-146
-122
-113
-128
-130
-129
-145
-144
-134
-137
-110
-102
-163
-215
-343
-305
752
2186
1756
-297
-1205
-550
-131
-213
-111
0
-42
-15
27
9
27
59
68
103
138
131
136
181
228
262
301
355
424
495
560
626
680
697
665
579
443
284
129
-10
-119
-188
-233
-269
-290
-288
-270
-258
-262
-264
-251
-230
-216
-213
-220
-222
-215
-210
-209
-207
-203
-200
-190
-173
-176
-200
-211
-191
-170
-167
-171
-164
-152
-150
-151
-145
-142
-144
-132
-117
-123
-133
-137
-147
-126
-101
-142
-190
-272
-282
518
1929
1902
-14
-1278
-782
-184
-200
-138
0
-38
-34
40
50
57
79
75
98
142
156
166
198
234
269
307
356
427
514
592
648
700
743
731
632
477
311
143
-17
-144
-222
-261
-278
-287
-298
-310
-308
-289
-273
-270
-256
-230
-221
-224
-219
-213
-219
-218
-207
-203
-207
-209
-211
-202
-179
-169
-180
-187
-183
-186
-194
-189
-179
-163
-137
-123
-130
-130
-121
-138
-150
-125
-123
-138
-102
-99
-164
-224
-367
-155
1154
2363
1409
-615
-1092
-375
-125
-185
-39
9
-49
5
49
25
37
70
85
99
116
138
168
197
226
264
314
383
462
523
569
621
666
678
646
545
390
238
104
-40
-174
-240
-250
-267
-301
-313
-298
-278
-263
-256
-246
-220
-206
-225
-240
-223
-206
-204
-201
-194
-186
-172
-173
-193
-202
-190
-185
-187
-175
-155
-152
-164
-170
-165
-159
-143
-115
-107
-124
-125
-122
-141
-135
-112
-126
-111
-70
-115
-178
-280
-383
355
1950
2211
324
-1142
-771
-166
-179
-135
5
-33
-45
17
26
34
63
62
67
100
123
137
164
204
243
280
324
384
450
513
573
625
658
657
600
481
325
165
28
-82
-173
-240
-267
-272
-284
-288
-272
-261
-262
-250
-228
-219
-221
-213
-206
-210
-206
-189
-184
-189
-181
-178
-191
-193
-183
-182
-179
-168
-161
-154
-149
-158
-168
-164
-160
-150
-126
-114
-125
-128
-129
-139
-127
-111
-132
-123
-93
-140
-193
-274
-324
453
1971
2075
141
-1214
-743
-156
-217
-169
-8
-36
-30
48
50
46
78
88
92
107
124
158
193
218
265
333
381
424
499
589
660
714
758
764
679
510
329
164
6
-126
-211
-265
-291
-294
-310
-328
-323
-314
-306
-279
-248
-242
-245
-239
-242
-252
-246
-231
-229
-233
-227
-222
-219
-203
-191
-201
-207
-196
-188
-182
-167
-158
-156
-150
-151
-156
-149
-149
-155
-123
-104
-148
-153
-112
-147
-209
-282
-235
618
1972
1800
-152
-1314
-758
-177
-187
-102
35
-10
-14
45
42
52
94
108
121
151
165
179
217
256
288
335
396
460
534
615
683
735
768
746
645
493
317
134
-24
-134
-215
-278
-308
-307
-301
-298
-292
-281
-277
-279
-270
-253
-247
-242
-228
-217
-214
-209
-199
-193
-201
-222
-237
-225
-199
-191
-196
-183
-164
-172
-189
-182
-165
-150
-128
-116
-128
-133
-127
-131
-130
-125
-135
-111
-86
-147
-196
-285
-376
400
2021
2235
293
-1153
-744
-153
-191
-143
3
-34
-38
30
33
36
72
80
76
88
116
151
175
193
235
289
339
392
456
526
593
644
671
667
610
487
315
142
3
-109
-200
-248
-266
-289
-308
-305
-293
-277
-258
-252
-254
-247
-238
-232
-221
-213
-215
-212
-205
-204
-199
-194
-205
-218
-212
-201
-197
-197
-198
-196
-184
-173
-164
-149
-143
-153
-153
-152
-166
-155
-129
-151
-153
-110
-144
-202
-278
-400
211
1807
2317
555
-1083
-836
-187
-187
-167
-9
-38
-60
13
28
30
60
71
88
119
126
135
176
223
259
300
357
427
501
571
637
698
744
746
681
549
376
197
33
-91
-169
-226
-276
-299
-295
-290
-289
-281
-276
-270
-251
-232
-225
-221
-216
-224
-238
-236
-218
-211
-214
-207
-195
-186
-176
-174
-192
-204
-191
-177
-173
-160
-136
-134
-147
-142
-137
-152
-153
-148
-158
-132
-112
-167
-235
-337
-206
860
2134
1567
-455
-1293
-630
-193
-227
-100
13
-28
-7
40
31
42
68
79
99
120
137
174
214
235
268
331
390
442
519
606
663
706
745
719
598
432
259
86
-65
-167
-234
-284
-308
-308
-312
-316
-302
-285
-280
-276
-267
-248
-226
-219
-224
-218
-212
-222
-228
-220
-213
-205
-195
-193
-197
-191
-184
-192
-202
-193
-172
-163
-157
-136
-126
-131
-124
-118
-127
-127
-139
-152
-114
-104
-163
-207
-341
-224
981
2344
1640
-444
-1148
-451
-116
-187
-60
13
-43
10
74
48
34
48
62
92
123
137
156
191
231
267
303
352
414
481
546
598
631
657
655
565
398
240
108
-26
-139
-204
-241
-269
-282
-279
-273
-272
-268
-254
-236
-230
-230
-219
-205
-209
-216
-213
-209
-210
-207
-197
-192
-195
-198
-195
-189
-186
-187
-182
-170
-161
-155
-143
-136
-140
-139
-143
-162
-153
-124
-136
-134
-94
-128
-196
-284
-418
152
1730
2328
652
-1029
-855
-203
-185
-167
-1
-31
-63
6
11
1
47
74
78
96
106
116
156
200
228
267
328
397
474
555
621
669
709
723
673
543
362
183
30
-103
-208
-266
-292
-307
-314
-312
-300
-289
-287
-283
-274
-271
-259
-238
-233
-241
-229
-213
-220
-226
-211
-196
-195
-193
-187
-188
-191
-182
-164
-158
-163
-152
-130
-136
-156
-153
-146
-157
-152
-141
-155
-142
-114
-152
-210
-304
-255
652
2003
1762
-188
-1280
-715
-174
-202
-125
11
-15
-12
35
43
64
87
81
97
129
147
180
224
249
278
328
385
448
523
591
647
700
739
728
641
485
297
113
-41
-153
-230
-280
-297
-293
-297
-304
-286
-259
-259
-270
-264
-246
-230
-222
-219
-216
-211
-207
-203
-201
-207
-212
-205
-197
-202
-202
-186
-174
-181
-186
-176
-157
-131
-114
-125
-142
-138
-139
-144
-131
-135
-144
-104
-100
-163
-224
-370
-185
1111
2396
1536
-527
-1106
-403
-127
-196
-59
5
-43
5
42
21
41
64
66
89
112
121
149
188
214
250
305
360
419
495
566
612
643
660
640
556
408
228
61
-73
-175
-238
-263
-276
-292
-300
-301
-302
-292
-279
-280
-277
-255
-235
-229
-221
-211
-215
-224
-220
-213
-217
-216
-206
-204
-205
-196
-190
-199
-199
-180
-168
-167
-144
-112
-118
-145
-147
-140
-140
-124
-124
-137
-103
-98
-158
-218
-370
-212
1065
2385
1567
-521
-1145
-430
-119
-192
-71
-3
-48
-4
43
38
58
84
93
105
115
129
159
192
229
275
326
379
441
518
596
655
695
718
701
613
460
278
105
-40
-153
-231
-276
-299
-305
-305
-309
-305
-287
-273
-272
-272
-264
-253
-244
-234
-221
-217
-224
-220
-207
-202
-209
-222
-230
-212
-182
-181
-194
-183
-172
-178
-163
-129
-124
-142
-144
-140
-146
-138
-138
-157
-133
-96
-143
-213
-297
-206
729
2039
1719
-259
-1316
-720
-177
-205
-123
11
-17
-8
48
52
67
99
104
113
137
160
182
210
245
293
346
400
462
535
608
673
725
752
730
639
486
301
119
-30
-148
-237
-285
-301
-309
-309
-302
-297
-291
-280
-266
-261
-261
-251
-230
-219
-217
-215
-214
-216
-216
-219
-217
-210
-210
-211
-197
-181
-183
-193
-195
-183
-172
-175
-171
-140
-118
-129
-135
-129
-138
-138
-125
-143
-141
-99
-122
-176
-262
-424
90
1682
2411
807
-978
-896
-210
-171
-184
-11
-11
-50
9
23
18
56
74
70
90
121
155
191
207
221
267
322
373
444
531
595
641
689
707
646
517
359
193
37
-84
-168
-232
-272
-285
-291
-289
-277
-274
-278
-262
-242
-238
-234
-226
-220
-205
-194
-206
-207
-188
-188
-203
-201
-193
-192
-186
-177
-172
-167
-164
-171
-174
-163
-144
-124
-113
-111
-113
-127
-148
-132
-101
-125
-134
-90
-116
-167
-219
-384
19
1545
2402
922
-936
-960
-249
-161
-177
-6
2
-40
17
34
16
36
53
68
104
129
129
147
196
237
260
297
358
425
493
559
613
648
657
619
513
355
194
51
-81
-178
-224
-256
-293
-305
-294
-295
-297
-275
-252
-250
-252
-244
-236
-230
-221
-212
-207
-204
-204
-206
-204
-202
-208
-212
-199
-185
-189
-191
-179
-172
-173
-165
-151
-141
-130
-126
-131
-129
-121
-124
-122
-110
-117
-112
-82
-119
-180
-218
-361
-61
1350
2394
1178
-782
-1037
-312
-142
-182
-27
-2
-43
25
50
28
56
79
78
106
145
160
173
206
250
290
336
400
467
531
607
684
734
751
725
624
458
266
82
-71
-174
-237
-280
-307
-313
-307
-303
-300
-290
-279
-278
-277
-265
-246
-226
-219
-230
-234
-223
-219
-223
-219
-213
-214
-213
-208
-202
-193
-187
-189
-186
-177
-173
-158
-127
-124
-152
-161
-152
-154
-139
-123
-149
-150
-122
-157
-218
-316
-290
593
1995
1841
-116
-1285
-744
-187
-211
-124
20
-19
-15
48
44
47
87
106
113
127
145
178
216
240
268
321
387
453
531
615
680
726
762
753
659
498
314
138
-15
-128
-206
-262
-298
-309
-306
-301
-295
-284
-267
-254
-250
-249
-240
-229
-225
-225
-223
-215
-202
-197
-202
-205
-203
-201
-205
-206
-199
-189
-187
-185
-171
-158
-164
-166
-137
-119
-141
-151
-139
-150
-150
-127
-137
-132
-92
-132
-196
-273
-400
195
1808
2380
638
-1057
-845
-168
-153
-153
-3
-22
-44
13
14
19
58
61
68
116
148
149
161
193
227
262
314
382
456
530
599
658
700
704
643
513
349
185
33
-91
-176
-231
-262
-278
-292
-302
-298
-291
-288
-275
-255
-244
-239
-235
-231
-215
-192
-190
-207
-214
-209
-207
-204
-196
-189
-183
-176
-169
-163
-163
-173
-178
-166
-154
-145
-120
-104
-123
-131
-115
-121
-130
-121
-127
-111
-85
-127
-177
-286
-358
465
2029
2096
133
-1181
-705
-152
-195
-128
-2
-51
-34
34
16
24
66
67
79
114
127
141
167
188
226
281
328
381
452
520
577
630
665
661
603
489
338
170
23
-77
-153
-221
-259
-267
-270
-269
-264
-263
-258
-239
-225
-227
-227
-214
-206
-207
-204
-196
-195
-193
-188
-193
-200
-196
-194
-202
-195
-174
-167
-170
-166
-166
-173
-168
-155
-142
-123
-116
-130
-133
-124
-132
-136
-129
-139
-116
-76
-124
-192
-273
-305
455
1941
2076
185
-1201
-777
-169
-191
-143
12
-17
-25
41
50
52
76
83
101
127
138
158
194
224
259
306
357
421
503
580
644
706
753
754
689
552
370
188
28
-104
-194
-250
-294
-321
-321
-317
-319
-307
-285
-273
-271
-269
-263
-247
-235
-240
-241
-225
-211
-210
-212
-212
-214
-221
-229
-222
-204
-196
-197
-199
-195
-180
-164
-156
-147
-145
-156
-157
-142
-143
-147
-131
-133
-134
-105
-129
-187
-253
-382
42
1507
2350
938
-926
-1006
-279
-158
-187
-20
8
-28
21
36
36
75
84
84
121
146
153
180
223
258
298
345
398
468
552
626
675
708
732
705
584
404
228
62
-87
-184
-237
-279
-305
-305
-294
-286
-285
-281
-270
-269
-269
-250
-229
-222
-217
-209
-214
-217
-213
-212
-209
-203
-207
-211
-198
-181
-179
-187
-192
-190
-179
-169
-170
-164
-133
-116
-133
-143
-128
-129
-135
-122
-133
-141
-91
-91
-171
-228
-365
-201
1079
2404
1582
-502
-1109
-397
-112
-196
-63
8
-44
0
39
21
46
87
88
87
107
131
150
173
213
260
307
365
435
500
553
612
678
713
687
596
449
276
112
-30
-143
-215
-260
-298
-316
-311
-301
-292
-281
-265
-252
-249
-251
-244
-232
-229
-225
-212
-209
-216
-209
-197
-205
-213
-206
-208
-217
-206
-186
-183
-191
-197
-195
-187
-180
-170
-147
-127
-129
-140
-152
-161
-140
-123
-145
-132
-100
-147
-196
-293
-379
418
2021
2174
227
-1146
-697
-130
-183
-129
10
-35
-32
38
33
33
67
75
89
118
128
144
186
219
241
283
342
405
473
541
597
642
686
704
653
524
358
195
48
-79
-174
-230
-256
-273
-286
-284
-269
-255
-245
-241
-238
-228
-214
-206
-202
-197
-190
-180
-174
-173
-171
-169
-170
-172
-174
-173
-167
-158
-148
-141
-146
-159
-159
-146
-138
-125
-97
-85
-107
-121
-109
-107
-111
-109
-132
-131
-73
-86
-166
-246
-362
84
1538
2319
869
-941
-956
-247
-165
-187
0
21
-32
12
39
47
78
84
91
125
147
154
175
208
249
292
330
382
467
564
640
693
739
769
730
595
415
245
86
-65
-179
-248
-286
-310
-326
-332
-325
-314
-302
-288
-276
-271
-267
-256
-246
-244
-240
-227
-225
-232
-228
-218
-222
-232
-228
-213
-203
-205
-213
-209
-197
-193
-191
-168
-150
-164
-184
-192
-197
-177
-153
-186
-202
-150
-165
-241
-321
-450
-10
1454
2228
744
-1092
-1104
-367
-265
-293
-130
-121
-164
-112
-110
-134
-109
-96
-101
-83
-65
-62
-57
-44
-25
-4
23
70
133
190
228
255
278
