# session 4
-60
-80
-7
-56
-328
-536
-501
-407
-378
-340
-285
-266
-269
-268
-248
-204
-186
-242
-325
-376
-410
-445
-463
-467
-473
-472
-463
-462
-462
-451
-430
-408
-395
-377
-342
-324
-313
-258
-225
-240
-213
-288
-348
369
1490
1161
-582
-1406
-733
-116
-39
64
168
136
153
212
211
219
255
271
284
314
344
360
371
385
401
409
409
405
411
430
437
404
341
277
219
164
110
60
23
10
11
0
-31
-60
-68
-66
-81
-97
-88
-92
-115
-95
-93
-140
-115
-214
-473
61
1454
1609
-156
-1402
-881
-155
-85
-49
73
52
42
91
90
89
119
133
145
167
176
182
199
211
211
216
227
237
256
289
303
264
192
115
32
-49
-111
-162
-208
-238
-243
-241
-250
-268
-270
-250
-241
-254
-250
-230
-242
-252
-217
-222
-247
-243
-442
-553
313
1470
984
-673
-1207
-537
-147
-160
-69
-10
-49
-25
7
2
19
38
45
78
110
114
123
147
159
163
180
205
231
263
293
305
289
238
150
60
6
-30
-78
-126
-144
-137
-127
-132
-152
-163
-154
-152
-165
-160
-136
-146
-175
-152
-122
-147
-158
-214
-271
210
1049
853
-501
-1241
-758
-211
-99
-34
29
13
30
64
59
72
109
132
149
168
180
192
208
223
245
268
285
310
340
354
367
386
357
268
175
98
24
-36
-81
-118
-129
-123
-145
-181
-188
-180
-188
-195
-181
-174
-193
-184
-137
-147
-186
-205
-361
-324
546
1358
579
-905
-1144
-475
-181
-171
-60
-20
-45
-6
20
16
46
77
89
104
122
139
162
183
202
228
262
295
321
351
378
368
305
215
127
47
-24
-84
-131
-167
-189
-190
-187
-205
-232
-237
-223
-217
-225
-221
-211
-213
-195
-171
-196
-200
-249
-422
-82
1072
1482
135
-1180
-967
-307
-176
-140
-11
-9
-21
31
39
38
75
104
122
148
167
187
213
232
247
269
291
310
334
357
357
313
236
159
89
20
-40
-82
-116
-148
-165
-163
-162
-180
-201
-202
-192
-193
-204
-199
-189
-190
-164
-142
-179
-188
-261
-416
96
1325
1460
-130
-1283
-855
-221
-149
-102
6
-11
-9
38
44
63
101
113
133
173
200
221
247
265
276
290
307
326
343
353
345
298
217
134
62
-9
-75
-122
-154
-173
-181
-186
-194
-212
-235
-237
-218
-218
-230
-216
-210
-232
-208
-172
-206
-231
-326
-482
59
1287
1378
-192
-1257
-798
-207
-154
-102
-12
-45
-37
12
11
30
73
84
101
137
159
173
199
222
232
237
241
249
265
285
289
256
188
112
51
0
-56
-109
-146
-165
-165
-155
-161
-177
-177
-167
-162
-165
-172
-167
-158
-170
-158
-124
-150
-174
-217
-380
-80
1006
1408
126
-1111
-876
-239
-126
-98
18
7
-13
39
59
62
91
117
141
173
197
215
235
256
274
292
317
344
370
394
398
351
267
179
93
9
-59
-105
-145
-179
-194
-188
-183
-197
-215
-211
-194
-200
-224
-217
-190
-200
-202
-166
-182
-211
-231
-402
-270
769
1530
504
-1030
-1112
-391
-150
-149
-29
5
-15
27
47
44
69
94
118
147
163
177
205
235
257
272
297
341
376
381
365
320
232
140
70
0
-74
-125
-161
-190
-198
-188
-187
-205
-229
-237
-220
-207
-218
-218
-201
-206
-198
-163
-176
-192
-218
-411
-274
773
1487
418
-1088
-1110
-364
-135
-139
-10
26
-1
39
58
54
89
115
121
142
168
188
214
242
260
277
295
318
350
369
337
266
190
112
33
-27
-76
-124
-154
-164
-181
-195
-183
-179
-208
-226
-203
-180
-189
-194
-176
-174
-172
-131
-127
-166
-180
-316
-321
539
1566
971
-696
-1194
-502
-98
-91
16
69
12
35
81
72
81
117
137
158
190
218
237
253
263
269
279
295
309
319
312
273
205
131
66
9
-46
-94
-128
-153
-168
-165
-153
-157
-181
-201
-196
-183
-189
-202
-187
-173
-193
-183
-155
-187
-213
-283
-424
22
1146
1306
-139
-1224
-846
-254
-176
-127
-30
-54
-50
3
7
14
54
79
103
138
164
183
200
214
228
241
252
268
291
302
285
236
168
99
38
-20
-71
-104
-123
-141
-152
-138
-124
-143
-165
-151
-137
-153
-173
-169
-157
-165
-159
-128
-145
-173
-216
-404
-246
815
1532
461
-1041
-1059
-325
-120
-144
-11
47
24
51
79
94
122
145
169
200
228
245
242
237
264
306
329
357
402
416
380
324
250
148
48
-25
-82
-132
-163
-178
-184
-180
-173
-188
-215
-217
-198
-196
-208
-200
-181
-184
-183
-162
-171
-186
-201
-352
-310
511
1281
531
-944
-1196
-477
-139
-147
-34
26
-9
29
69
65
91
129
150
182
208
220
244
273
293
313
329
343
368
373
320
232
150
75
2
-58
-99
-130
-154
-172
-182
-185
-189
-204
-224
-226
-204
-187
-198
-215
-203
-190
-195
-178
-162
-174
-185
-306
-367
307
1331
1037
-525
-1274
-705
-191
-143
-63
24
6
32
80
76
87
126
152
174
198
218
239
264
283
293
298
306
316
326
314
256
162
77
9
-64
-122
-146
-156
-177
-198
-205
-198
-193
-206
-222
-216
-200
-200
-210
-203
-196
-204
-186
-159
-189
-208
-262
-405
2
1181
1510
50
-1285
-1000
-278
-139
-112
19
25
12
72
102
113
152
179
195
235
291
319
331
383
457
477
443
424
439
444
401
307
211
156
95
-7
-87
-112
-134
-164
-167
-158
-168
-180
-180
-180
-177
-171
-178
-189
-186
-185
-173
-156
-176
-170
-215
-460
-273
878
1580
490
-901
-877
-264
-125
-122
-25
-37
-46
16
17
0
35
59
71
109
143
149
151
162
176
196
222
252
277
267
207
120
29
-56
-115
-145
-178
-213
-212
-197
-212
-239
-240
-238
-241
-219
-195
-219
-259
-246
-219
-230
-219
-177
-203
-254
-369
-617
-313
965
1645
460
-927
-851
-260
-180
-184
-66
-75
-81
4
24
20
79
117
121
155
198
235
281
304
311
339
353
339
352
379
350
276
200
120
40
-11
-47
-86
-111
-122
-124
-115
-112
-127
-138
-129
-118
-118
-126
-125
-109
-108
-111
-87
-97
-136
-163
-260
-95
798
1460
557
-901
-1104
-463
-172
-136
-22
14
-2
38
64
72
106
133
144
171
207
240
265
274
283
299
307
316
337
345
297
203
104
22
-50
-114
-165
-199
-213
-217
-217
-220
-236
-254
-249
-227
-219
-226
-224
-211
-203
-193
-166
-158
-177
-195
-306
-316
381
1338
971
-604
-1350
-774
-223
-139
-49
56
59
80
111
116
149
184
194
217
242
262
298
326
334
357
385
391
393
392
351
258
143
52
9
-24
-83
-126
-126
-126
-143
-136
-121
-147
-177
-158
-139
-163
-172
-148
-155
-188
-168
-132
-150
-181
-251
-302
132
958
914
-348
-1239
-883
-289
-151
-109
-3
24
19
40
54
71
109
137
143
169
228
254
242
265
315
324
303
304
315
279
181
58
-46
-106
-129
-159
-207
-211
-169
-167
-200
-195
-179
-203
-217
-199
-201
-222
-220
-207
-210
-211
-208
-201
-198
-300
-386
100
1022
1008
-327
-1308
-955
-311
-143
-74
45
52
54
113
135
147
193
226
245
278
312
342
377
399
404
403
399
398
400
371
279
152
45
-18
-57
-97
-124
-124
-123
-134
-126
-105
-122
-161
-161
-136
-142
-168
-163
-146
-163
-167
-135
-153
-178
-209
-386
-170
1000
1756
573
-1077
-1151
-401
-171
-171
-37
-8
-35
18
50
59
110
162
188
218
260
306
349
378
396
402
396
398
417
408
326
200
92
16
-48
-104
-147
-176
-194
-206
-216
-224
-241
-266
-268
-247
-241
-252
-249
-235
-240
-255
-234
-222
-256
-271
-391
-549
76
1414
1555
-23
-1142
-779
-254
-195
-126
-41
-80
-74
-19
-12
-7
26
65
102
135
172
214
241
252
251
249
265
296
312
293
231
138
49
-14
-61
-105
-138
-156
-172
-181
-177
-183
-206
-222
-215
-191
-171
-175
-186
-171
-164
-184
-161
-138
-180
-211
-316
-386
337
1546
1348
-352
-1243
-682
-171
-156
-82
11
-10
22
65
46
61
120
156
184
224
259
296
335
359
371
378
385
402
420
390
296
180
84
6
-58
-105
-139
-168
-187
-187
-176
-177
-200
-220
-220
-211
-215
-227
-215
-191
-201
-213
-185
-185
-208
-235
-370
-175
893
1662
589
-1089
-1275
-513
-203
-177
-33
13
-19
25
63
70
100
130
151
185
222
250
272
294
314
320
325
347
361
334
269
176
78
5
-42
-83
-110
-119
-127
-142
-141
-123
-125
-152
-163
-149
-140
-151
-161
-144
-126
-140
-145
-129
-142
-152
-218
-371
2
1145
1542
186
-1188
-1026
-329
-153
-124
-3
5
-12
48
84
83
98
117
141
179
218
243
270
303
320
314
311
326
339
308
212
86
-20
-95
-148
-175
-188
-204
-217
-221
-219
-210
-207
-225
-248
-243
-219
-220
-245
-242
-216
-220
-221
-182
-187
-214
-248
-420
-238
902
1755
735
-894
-1082
-408
-176
-164
-25
3
-36
8
46
61
101
131
151
190
225
251
293
332
347
349
348
355
374
360
283
173
71
-8
-59
-92
-121
-146
-166
-178
-171
-152
-153
-175
-186
-183
-180
-174
-169
-172
-171
-178
-185
-154
-147
-191
-218
-328
-296
555
1589
1077
-542
-1120
-535
-166
-160
-67
-12
-48
-18
23
30
65
109
132
164
204
234
261
289
308
318
318
320
334
343
303
208
105
30
-32
-87
-121
-139
-158
-176
-177
-170
-166
-174
-187
-187
-171
-166
-182
-186
-165
-167
-184
-153
-138
-187
-215
-324
-383
366
1553
1301
-392
-1232
-666
-180
-172
-93
0
-30
-16
28
33
55
97
122
152
193
231
269
308
334
348
358
373
399
407
353
239
118
27
-40
-95
-138
-173
-201
-214
-213
-215
-219
-216
-219
-230
-227
-212
-212
-220
-207
-200
-211
-189
-166
-195
-218
-322
-425
175
1323
1267
-328
-1319
-809
-197
-142
-95
23
23
24
64
78
100
134
160
196
233
255
284
323
350
358
358
366
382
379
322
218
107
14
-55
-102
-137
-168
-182
-181
-189
-202
-192
-179
-197
-216
-200
-181
-194
-210
-191
-166
-174
-166
-136
-162
-189
-238
-418
-157
999
1619
402
-1068
-1006
-302
-121
-115
6
24
9
68
92
83
112
154
184
213
249
290
328
355
368
365
362
379
398
368
274
158
56
-28
-93
-127
-141
-162
-187
-194
-187
-183
-181
-186
-202
-211
-203
-197
-204
-204
-190
-193
-201
-173
-167
-200
-221
-367
-398
445
1564
1124
-539
-1181
-566
-150
-154
-71
0
-25
3
39
37
62
100
123
161
209
240
263
282
297
304
302
306
325
321
262
172
80
-3
-67
-108
-140
-169
-187
-191
-191
-190
-182
-180
-196
-206
-191
-175
-183
-193
-174
-155
-175
-177
-141
-160
-192
-234
-410
-200
895
1551
440
-977
-948
-286
-117
-108
9
18
-3
49
65
60
101
146
177
212
246
277
307
325
340
361
381
407
427
399
311
205
111
23
-55
-111
-145
-168
-185
-194
-192
-179
-169
-179
-205
-212
-193
-184
-199
-202
-181
-177
-188
-160
-143
-184
-207
-312
-418
192
1308
1172
-413
-1283
-726
-174
-142
-74
33
11
19
75
91
103
132
158
192
228
265
304
328
337
357
382
405
422
401
319
207
106
22
-51
-112
-154
-176
-187
-201
-216
-219
-204
-190
-204
-225
-218
-203
-213
-229
-217
-194
-196
-189
-153
-154
-169
-201
-385
-294
658
1415
485
-1037
-1173
-413
-106
-109
5
55
33
72
103
111
143
168
184
218
259
297
333
354
370
386
391
394
400
370
277
159
58
-22
-78
-108
-132
-159
-174
-175
-176
-173
-160
-160
-177
-187
-179
-169
-176
-195
-190
-169
-172
-166
-140
-159
-181
-242
-445
-189
963
1566
352
-1086
-998
-289
-116
-123
-8
12
-7
38
57
58
92
128
153
188
232
272
305
334
346
338
337
353
353
311
223
110
16
-42
-98
-150
-169
-177
-192
-195
-187
-178
-157
-157
-193
-208
-182
-172
-185
-188
-172
-157
-162
-156
-136
-164
-189
-231
-417
-195
926
1573
424
-1006
-959
-283
-110
-101
5
2
-19
37
60
60
93
127
154
190
226
259
291
310
318
321
318
322
338
320
234
129
51
-15
-74
-112
-134
-152
-160
-160
-166
-171
-163
-153
-161
-173
-162
-145
-148
-159
-142
-120
-139
-148
-114
-124
-155
-202
-406
-285
781
1608
640
-900
-1025
-331
-106
-118
3
39
12
50
71
74
113
150
172
208
249
283
319
353
369
367
376
414
438
393
282
155
51
-25
-84
-133
-171
-203
-225
-226
-224
-233
-229
-203
-199
-225
-235
-216
-212
-236
-241
-210
-200
-210
-189
-182
-204
-225
-376
-382
434
1352
699
-911
-1317
-561
-133
-136
-43
31
10
45
82
80
109
146
159
195
255
294
318
352
382
388
385
401
412
373
279
157
42
-37
-90
-138
-174
-191
-200
-198
-192
-202
-211
-200
-191
-200
-201
-191
-191
-197
-194
-176
-162
-169
-153
-125
-144
-155
-221
-428
-127
1018
1472
163
-1147
-911
-205
-66
-57
61
69
57
104
115
121
166
200
227
272
314
343
376
412
430
424
417
422
415
364
259
138
43
-24
-81
-123
-141
-149
-160
-169
-171
-166
-155
-151
-166
-180
-167
-152
-161
-174
-170
-150
-145
-159
-141
-120
-161
-179
-246
-445
-77
1132
1512
96
-1177
-871
-201
-110
-93
23
16
3
40
36
46
92
119
147
193
225
256
292
311
314
314
314
319
316
269
172
67
-15
-76
-126
-162
-184
-195
-198
-200
-206
-207
-199
-193
-194
-199
-198
-178
-165
-181
-184
-154
-133
-135
-123
-101
-94
