# session 15
89
61
117
60
-192
-304
-267
-364
66
1398
1785
127
-1384
-1168
-565
-456
-276
-83
-177
-223
-91
-21
-43
-55
-5
104
198
273
384
460
457
482
517
420
254
173
132
26
-90
-117
-84
-92
-140
-141
-106
-163
-270
-213
-96
-249
-479
-383
-217
-300
-378
-405
-316
647
1987
1509
-697
-1827
-1170
-494
-343
-169
-75
-148
-145
-93
-65
-27
25
117
185
181
307
546
517
320
418
567
288
-26
31
16
-213
-226
-201
-381
-289
17
-114
-389
-243
-76
-185
-202
-141
-220
-221
-137
-226
-337
-404
-430
305
1606
1432
-551
-1807
-1232
-342
-80
-158
-291
-255
-44
18
-62
-1
187
329
375
381
449
555
539
419
395
470
462
340
229
169
127
139
183
128
39
95
116
-102
-273
-174
-58
-56
-90
-183
-210
-71
-48
-185
-271
-283
315
1685
1933
23
-1613
-1231
-409
-325
-265
-19
-4
-64
8
17
-95
-153
-86
64
239
343
366
421
457
331
174
214
303
132
-218
-336
-144
-20
-116
-155
-47
-7
-83
-136
-138
-173
-218
-174
-86
-87
-130
-88
-118
-461
-566
477
1758
1162
-843
-1679
-1008
-421
-238
-64
-72
-136
25
102
-17
41
227
245
241
382
481
485
530
470
201
108
326
340
40
-113
-140
-260
-223
-72
-212
-422
-305
-130
-183
-253
-211
-204
-233
-169
-86
-142
-221
-167
-244
-401
305
1696
1645
-275
-1582
-1137
-379
-159
-134
-139
-115
-17
35
68
151
194
211
281
361
432
482
429
350
384
405
310
280
293
81
-211
-233
-129
-171
-238
-217
-202
-164
-83
-89
-132
-92
-133
-299
-260
-60
-93
-226
-299
-435
112
1663
2113
219
-1553
-1267
-352
-130
-148
-111
-182
-227
-143
-45
-7
6
70
173
260
352
452
544
636
627
488
407
367
166
-70
-151
-185
-238
-242
-256
-301
-275
-227
-266
-312
-258
-190
-276
-412
-319
-133
-92
-15
-35
-220
520
2082
1934
-306
-1667
-1150
-523
-382
-231
-188
-238
-138
-63
-83
-49
-30
-20
105
193
160
271
524
569
449
483
572
399
62
-73
46
89
-74
-152
-20
43
-65
-118
-55
-44
-128
-200
-242
-279
-265
-252
-347
-472
-605
-610
183
1526
1478
-367
-1624
-1215
-649
-601
-357
96
231
79
33
189
256
156
171
308
356
406
569
692
678
632
612
530
350
202
147
62
-81
-115
-10
26
-96
-207
-205
-184
-224
-299
-332
-276
-190
-156
-194
-247
-219
-246
-380
169
1572
1851
30
-1541
-1265
-577
-446
-293
-122
-211
-209
-60
-104
-238
-169
17
112
157
276
408
432
388
382
422
432
348
201
104
91
57
-22
-43
-48
-170
-275
-165
-39
-120
-198
-139
-176
-309
-333
-308
-233
-127
-392
-564
618
2096
1264
-1025
-1657
-730
-289
-394
-341
-279
-230
-90
-43
-18
143
260
256
322
467
548
576
616
613
554
516
484
376
212
68
-13
-56
-110
-131
-67
-49
-184
-314
-290
-213
-205
-253
-334
-395
-347
-256
-246
-268
-307
-142
831
1954
1319
-732
-1657
-1014
-393
-223
-91
-38
-58
-46
-58
-60
-13
28
112
257
342
354
417
528
548
458
379
325
200
8
-129
-146
-130
-178
-236
-209
-147
-157
-206
-203
-185
-219
-262
-264
-221
-160
-158
-178
-192
-365
-223
988
2050
1018
-944
-1358
-624
-306
-279
-130
-96
-75
60
43
-74
-18
124
189
234
297
361
436
465
422
389
351
211
25
-82
-132
-194
-248
-261
-256
-259
-263
-271
-295
-313
-314
-298
-268
-262
-249
-166
-127
-179
-212
-336
-258
839
2104
1457
-467
-1127
-515
-214
-253
-127
-68
-105
-49
-10
-14
45
101
111
171
270
317
341
405
480
494
416
298
195
79
-35
-67
-63
-112
-140
-107
-136
-248
-311
-275
-203
-149
-135
-165
-185
-152
-136
-138
-91
-176
-187
759
2093
1658
-355
-1298
-689
-223
-247
-147
-34
-63
-53
-4
35
87
126
179
269
325
329
331
341
364
396
388
281
88
-75
-132
-156
-212
-255
-250
-244
-280
-311
-269
-207
-228
-297
-315
-278
-225
-209
-236
-214
-234
-336
161
1393
1621
-58
-1584
-1376
-611
-364
-250
-100
-95
-93
-35
-16
25
91
111
155
271
375
421
433
435
449
452
393
281
156
40
-26
-46
-96
-135
-72
-9
-68
-136
-112
-104
-159
-178
-173
-193
-176
-161
-212
-226
-294
-355
362
1630
1457
-447
-1609
-1055
-366
-266
-187
-70
-85
-77
-24
-6
23
84
146
210
282
375
454
461
423
395
364
301
202
89
-3
-72
-124
-129
-115
-148
-199
-212
-213
-206
-178
-168
-183
-195
-191
-162
-158
-185
-205
-344
-295
731
1942
1309
-641
-1367
-690
-236
-217
-105
-39
-74
-27
21
16
58
124
157
218
324
394
416
447
467
429
374
326
239
137
79
26
-44
-79
-84
-116
-162
-194
-214
-221
-227
-230
-208
-189
-201
-194
-189
-231
-248
-298
-282
417
1486
1231
-432
-1361
-868
-321
-245
-174
-97
-112
-79
-21
-5
35
100
157
225
307
375
423
447
439
420
413
382
279
149
62
8
-48
-84
-83
-85
-123
-174
-197
-195
-202
-200
-187
-213
-232
-181
-169
-216
-233
-334
-248
662
1548
695
-1138
-1642
-843
-295
-197
-87
-39
-53
16
64
45
78
157
209
252
316
377
406
413
429
444
403
299
183
89
11
-49
-88
-113
-135
-159
-190
-214
-213
-205
-208
-203
-199
-211
-191
-157
-176
-180
-241
-416
-57
1071
1393
-34
-1373
-1125
-383
-191
-150
-28
-22
-38
9
31
55
113
170
228
286
321
354
392
399
386
381
351
252
117
19
-25
-62
-105
-123
-118
-127
-153
-175
-173
-150
-146
-174
-197
-197
-176
-164
-182
-182
-288
-604
-380
933
1768
614
-976
-1079
-466
-285
-240
-112
-119
-129
-34
26
49
92
137
203
285
324
342
392
444
456
446
423
363
266
177
125
79
24
-14
-34
-52
-72
-102
-128
-123
-118
-142
-146
-129
-143
-148
-136
-171
-197
-261
-343
198
1324
1354
-214
-1324
-936
-342
-246
-166
-48
-65
-55
9
17
39
125
196
236
310
401
439
432
438
457
441
369
261
150
62
-1
-53
-102
-143
-173
-216
-275
-292
-255
-242
-269
-273
-264
-265
-236
-202
-201
-209
-322
-349
373
1379
952
-771
-1557
-906
-322
-263
-173
-60
-62
-26
18
0
28
107
154
198
277
350
390
403
408
416
392
308
197
108
41
-18
-65
-85
-85
-87
-104
-141
-178
-178
-158
-163
-177
-186
-196
-168
-127
-147
-175
-269
-423
-7
1020
1109
-286
-1293
-909
-337
-241
-157
-57
-83
-39
44
32
56
150
195
230
311
387
448
493
498
470
407
304
208
120
20
-40
-47
-75
-123
-136
-137
-141
-131
-139
-159
-135
-115
-155
-177
-144
-145
-165
-144
-234
-375
65
1048
1127
-248
-1373
-1084
-401
-213
-161
-13
46
45
88
126
125
142
223
338
464
587
612
534
531
633
645
492
298
168
106
51
-31
-87
-79
-59
-77
-109
-114
-101
-103
-114
-122
-163
-224
-217
-160
-175
-205
-201
-402
-457
551
1792
1167
-764
-1474
-818
-347
-283
-216
-220
-233
-184
-193
-155
6
105
113
152
211
269
353
398
363
320
287
187
22
-99
-137
-154
-192
-231
-240
-208
-195
-255
-311
-281
-240
-262
-268
-231
-238
-256
-219
-206
-229
-315
-494
-104
1207
1799
424
-1105
-1031
-358
-187
-160
-54
-41
-35
5
28
77
135
171
246
352
419
446
465
469
461
458
433
334
198
110
63
8
-37
-41
-34
-41
-67
-106
-122
-111
-129
-162
-139
-106
-136
-162
-154
-178
-219
-327
-370
345
1557
1441
-264
-1321
-851
-278
-240
-204
-95
-86
-80
-49
-27
33
114
178
249
343
429
482
506
509
485
434
346
212
84
10
-57
-133
-156
-138
-150
-180
-202
-241
-270
-251
-238
-256
-261
-252
-240
-223
-236
-240
-262
-442
-270
853
1654
545
-1156
-1330
-579
-303
-299
-165
-131
-175
-121
-28
48
110
138
175
258
352
425
472
487
479
455
394
288
162
48
-28
-66
-89
-115
-132
-134
-150
-194
-227
-210
-192
-218
-234
-215
-211
-204
-183
-204
-215
-277
-471
-84
1271
1884
474
-1080
-1008
-373
-264
-244
-113
-112
-114
-42
-17
1
66
133
207
311
408
472
505
511
497
464
387
262
130
26
-43
-90
-124
-149
-157
-149
-154
-189
-217
-199
-182
-208
-222
-204
-208
-202
-161
-175
-205
-291
-521
-159
1251
1942
517
-1096
-1020
-366
-274
-260
-113
-110
-122
-52
-24
4
79
143
205
295
379
439
477
486
478
452
380
262
133
30
-37
-84
-122
-143
-147
-155
-173
-193
-201
-190
-188
-211
-211
-194
-211
-209
-175
-199
-219
-296
-523
-132
1255
1815
343
-1130
-945
-327
-270
-246
-113
-131
-147
-82
-49
-9
65
123
188
272
344
400
435
436
430
419
353
225
101
20
-34
-84
-123
-150
-169
-173
-175
-196
-216
-199
-185
-209
-210
-177
-182
-186
-164
-187
-196
-275
-538
-190
1207
1814
349
-1146
-954
-307
-241
-215
-76
-94
-108
-35
-7
12
67
122
190
271
328
379
423
428
421
418
365
252
138
55
-10
-63
-110
-149
-167
-170
-179
-195
-205
-195
-182
-193
-200
-182
-179
-167
-126
-142
-187
-250
-499
-451
606
1542
708
-793
-983
-376
-193
-204
-88
-67
-80
-7
33
32
69
119
168
240
323
398
437
427
425
464
460
368
262
179
92
14
-32
-72
-106
-108
-102
-126
-164
-176
-162
-166
-192
-189
-169
-173
-163
-141
-165
-186
-310
-521
-18
1259
1438
-159
-1337
-918
-299
-237
-173
-42
-54
-50
16
45
70
114
168
255
349
410
451
480
486
474
444
371
255
146
69
3
-44
-63
-82
-111
-121
-141
-195
-220
-188
-170
-203
-227
-218
-222
-213
-175
-196
-241
-275
-448
-334
665
1427
435
-1134
-1283
-557
-270
-234
-75
-21
-51
0
51
61
98
163
241
319
379
431
467
464
447
433
371
243
116
29
-44
-110
-138
-130
-130
-147
-158
-173
-208
-228
-227
-248
-275
-272
-277
-274
-213
-198
-249
-254
-407
-534
294
1574
1195
-661
-1445
-748
-248
-262
-163
-56
-78
-45
4
7
56
139
200
271
353
411
442
447
443
451
428
342
242
169
102
38
-4
-35
-60
-70
-69
-81
-111
-130
-119
-104
-116
-128
-113
-110
-110
-86
-102
-133
-149
-309
-192
910
1850
805
-1061
-1344
-497
-138
-148
-21
30
-9
38
84
106
166
227
281
371
463
512
525
527
545
562
513
393
267
161
65
-22
-99
-155
-183
-196
-198
-195
-225
-274
-282
-265
-277
-287
-278
-282
-277
-249
-234
-230
-305
-423
-78
751
777
-569
-1658
-1289
-478
-211
-153
-17
30
22
65
105
122
154
205
262
319
376
422
443
454
466
440
353
237
136
61
-2
-56
-91
-111
-132
-139
-125
-132
-173
-204
-209
-211
-219
-218
-216
-207
-172
-155
-173
-158
-214
-339
56
928
816
-636
-1532
-971
-259
-130
-68
52
42
42
106
129
152
213
266
316
381
430
454
469
472
454
404
316
208
115
45
-7
-41
-68
-100
-118
-105
-97
-125
-156
-154
-143
-152
-152
-136
-145
-152
-115
-127
-168
-177
-361
-362
655
1707
844
-979
-1301
-463
-114
-158
-44
9
-33
9
52
60
106
160
204
268
329
362
380
399
431
459
431
335
220
124
47
-16
-65
-103
-128
-141
-143
-129
-121
-141
-152
-122
-114
-152
-160
-134
-132
-128
-115
-130
-147
-284
-472
45
1163
1091
-538
-1507
-887
-182
-102
-57
50
33
40
99
112
130
184
233
278
334
388
436
481
519
534
489
379
254
156
73
-15
-89
-129
-154
-185
-198
-172
-158
-194
-219
-197
-192
-228
-242
-228
-218
-199
-183
-188
-185
-227
-281
3
477
122
-1140
-1769
-1113
-331
-130
-68
54
80
81
128
160
188
234
275
326
401
467
508
548
587
583
510
397
287
192
113
52
5
-28
-53
-79
-93
-83
-80
-115
-154
-147
-137
-171
-190
-167
-164
-162
-131
-141
-151
-175
-358
-248
590
948
-256
-1482
-1154
-298
-71
-51
70
65
42
117
149
132
168
241
297
325
343
378
427
459
448
408
349
257
158
89
27
-31
-54
-79
-131
-139
-91
-86
-141
-182
-174
-136
-116
-136
-153
-139
-120
-129
-168
-179
-279
-620
-551
537
1295
292
-1064
-985
-264
-73
-104
-17
14
3
32
61
86
125
184
250
292
334
386
422
475
549
545
454
373
298
173
56
15
-1
-51
-105
-120
-112
-112
-131
-156
-162
-155
-173
-198
-179
-154
-170
-175
-165
-194
-224
-320
-412
90
988
741
-777
-1552
-923
-286
-198
-127
-14
-6
24
86
99
110
162
243
330
389
426
470
524
575
583
506
372
237
117
25
-26
-51
-66
-83
-120
-153
-149
-144
-179
-211
-200
-186
-202
-217
-217
-214
-195
-180
-190
-181
-222
-283
109
852
678
-661
-1478
-985
-324
-156
-69
57
79
87
126
150
190
249
296
347
404
455
505
541
549
536
486
377
235
114
32
-27
-70
-90
-106
-132
-148
-139
-137
-170
-207
-209
-202
-218
-219
-198
-214
-235
-200
-185
-205
-275
-466
-270
771
1410
354
-1052
-1082
-448
-252
-212
-72
-36
-10
83
99
72
105
183
305
424
457
469
518
509
438
391
334
218
105
42
-18
-114
-194
-201
-191
-227
-256
-225
-196
-225
-257
-223
-186
-220
-263
-257
-238
-233
-253
-267
-308
-547
-567
446
1614
1036
-642
-1162
-574
-282
-291
-155
-74
-85
-38
-5
12
93
168
214
319
464
543
537
519
528
508
410
282
163
37
-46
-40
-23
-57
-74
-34
-3
-21
-45
-28
14
38
61
97
104
96
122
136
136
193
156
-125
-122
857
2149
1970
-131
