# session 22
-11
1
0
-62
-88
20
153
226
307
410
487
543
579
570
500
376
226
81
-52
-168
-247
-289
-316
-330
-327
-318
-308
-294
-280
-267
-250
-233
-223
-217
-205
-191
-182
-181
-181
-180
-173
-164
-160
-160
-159
-154
-147
-140
-135
-130
-124
-114
-105
-107
-111
-98
-82
-84
-72
-31
-14
-37
-54
-58
-62
-53
-52
-58
-33
-39
-90
-153
-294
-46
1264
2415
1421
-644
-1200
-495
-162
-166
-20
42
4
48
81
70
89
107
113
142
176
202
239
283
330
390
463
537
606
664
709
729
701
612
480
334
187
49
-62
-139
-191
-227
-248
-254
-253
-248
-242
-233
-225
-219
-211
-205
-206
-205
-194
-185
-184
-185
-185
-190
-192
-187
-186
-188
-182
-176
-176
-176
-171
-168
-166
-161
-151
-148
-158
-167
-155
-138
-137
-125
-87
-71
-93
-112
-117
-120
-117
-124
-124
-89
-99
-160
-222
-357
-81
1244
2318
1245
-749
-1183
-470
-183
-200
-72
-35
-69
-11
25
8
27
51
60
84
111
134
170
214
259
317
391
467
535
590
631
656
639
559
434
294
154
25
-81
-159
-211
-243
-256
-255
-249
-244
-240
-234
-226
-216
-209
-203
-198
-192
-189
-186
-180
-176
-176
-177
-175
-173
-171
-169
-172
-173
-168
-161
-155
-148
-142
-137
-134
-138
-143
-132
-118
-118
-100
-56
-49
-84
-99
-97
-100
-91
-96
-108
-75
-75
-136
-181
-296
-106
1098
2233
1315
-685
-1214
-494
-159
-178
-51
0
-39
7
42
29
53
82
90
113
144
169
199
238
287
346
413
487
564
623
659
677
663
592
467
323
183
55
-55
-135
-185
-216
-232
-237
-236
-232
-223
-213
-208
-202
-192
-186
-186
-184
-182
-185
-185
-179
-177
-180
-183
-183
-181
-182
-182
-180
-178
-178
-174
-163
-158
-167
-171
-152
-140
-148
-131
-91
-89
-116
-123
-127
-133
-123
-127
-131
-99
-117
-173
-219
-323
35
1350
2137
795
-1055
-1196
-443
-218
-202
-42
-12
-39
20
45
35
63
89
100
126
156
184
220
266
322
386
459
541
616
672
709
722
687
590
445
286
137
6
-102
-177
-220
-246
-261
-264
-261
-255
-246
-237
-230
-221
-210
-202
-196
-189
-185
-185
-184
-183
-185
-188
-189
-189
-188
-186
-183
-177
-168
-167
-172
-159
-144
-153
-147
-104
-87
-117
-132
-127
-134
-128
-124
-139
-115
-99
-154
-207
-314
-233
792
2095
1577
-456
-1352
-703
-217
-218
-105
-7
-46
-15
38
31
43
74
86
108
140
167
201
245
291
352
427
507
585
649
692
714
700
623
487
330
179
40
-76
-159
-213
-247
-264
-270
-270
-265
-258
-250
-241
-231
-222
-214
-207
-201
-195
-194
-193
-191
-190
-191
-191
-189
-187
-185
-183
-177
-169
-170
-173
-160
-152
-158
-140
-99
-93
-118
-125
-127
-133
-117
-119
-133
-106
-109
-164
-219
-348
-108
1163
2235
1190
-812
-1258
-517
-200
-205
-64
-16
-55
-3
31
22
50
78
85
112
146
169
205
253
302
363
440
519
592
655
698
713
688
603
465
307
157
23
-89
-167
-213
-241
-258
-266
-267
-262
-254
-249
-240
-226
-217
-212
-205
-196
-191
-189
-187
-187
-188
-186
-185
-187
-190
-190
-186
-179
-176
-182
-182
-168
-158
-157
-135
-101
-101
-122
-128
-135
-135
-120
-128
-135
-101
-118
-176
-231
-359
-10
1367
2258
940
-990
-1195
-435
-201
-199
-49
-24
-55
3
26
16
47
71
81
109
137
162
202
248
296
360
437
515
586
646
688
701
670
580
440
284
138
8
-100
-177
-221
-243
-257
-264
-263
-259
-251
-240
-229
-220
-213
-207
-202
-196
-189
-185
-183
-182
-182
-183
-182
-182
-183
-182
-177
-168
-168
-174
-166
-149
-150
-153
-129
-106
-112
-115
-113
-126
-126
-118
-131
-112
-84
-132
-183
-275
-305
512
1954
1902
-55
-1330
-843
-235
-210
-131
-4
-41
-35
27
28
38
73
80
93
124
149
178
218
263
322
398
477
553
622
673
702
697
636
519
369
214
73
-50
-151
-219
-253
-270
-282
-279
-265
-254
-248
-243
-235
-223
-213
-206
-203
-201
-196
-189
-187
-191
-193
-191
-186
-185
-187
-184
-176
-176
-181
-168
-152
-159
-161
-141
-129
-130
-128
-136
-142
-125
-126
-133
-102
-110
-162
-212
-324
-30
1232
2139
956
-962
-1257
-496
-206
-197
-46
-4
-38
16
47
41
71
96
104
128
156
182
221
268
318
381
453
529
604
665
703
715
684
587
441
283
133
0
-105
-178
-222
-245
-258
-264
-262
-254
-248
-244
-235
-221
-208
-203
-199
-193
-185
-181
-182
-182
-179
-181
-185
-185
-184
-184
-180
-175
-168
-162
-165
-164
-152
-149
-157
-146
-122
-117
-120
-124
-136
-127
-113
-129
-118
-86
-126
-177
-266
-310
458
1910
1970
70
-1286
-868
-242
-202
-135
-6
-37
-34
27
26
29
62
74
89
122
148
176
216
260
313
383
463
541
608
661
695
695
643
530
381
229
89
-35
-128
-187
-224
-247
-260
-263
-260
-254
-249
-242
-230
-218
-212
-207
-200
-194
-190
-185
-180
-176
-174
-173
-171
-170
-171
-171
-168
-167
-167
-164
-159
-154
-149
-151
-157
-147
-134
-135
-119
-82
-77
-102
-112
-114
-109
-98
-110
-107
-76
-110
-158
-214
-335
154
1619
2240
633
-1137
-1068
-330
-192
-170
-15
-15
-38
25
40
32
63
82
91
119
148
174
211
257
308
369
437
513
588
645
677
692
667
579
441
294
156
26
-85
-161
-203
-229
-245
-253
-255
-251
-242
-231
-224
-216
-205
-199
-199
-198
-193
-188
-185
-181
-178
-177
-176
-177
-181
-182
-181
-183
-180
-171
-165
-158
-147
-151
-163
-153
-141
-146
-126
-85
-86
-115
-118
-117
-121
-118
-131
-125
-91
-119
-167
-228
-321
223
1640
2089
414
-1227
-1049
-329
-206
-164
-19
-30
-42
23
34
35
75
94
103
130
155
182
222
263
309
378
461
538
609
665
695
700
669
574
428
277
137
4
-100
-166
-212
-243
-255
-260
-267
-267
-258
-247
-237
-228
-220
-209
-196
-191
-189
-185
-179
-178
-178
-179
-182
-180
-177
-175
-171
-167
-163
-154
-150
-155
-149
-136
-142
-148
-128
-114
-118
-118
-119
-125
-116
-117
-126
-99
-98
-145
-193
-317
-118
1067
2158
1238
-750
-1300
-580
-209
-203
-65
-2
-43
0
40
33
56
88
97
116
145
171
207
253
301
358
431
512
592
657
705
728
707
621
482
324
168
27
-86
-165
-212
-237
-254
-268
-275
-272
-264
-256
-245
-232
-221
-213
-203
-193
-187
-183
-180
-174
-167
-166
-171
-170
-166
-167
-167
-162
-160
-161
-158
-152
-149
-146
-139
-132
-139
-145
-132
-120
-126
-114
-74
-63
-89
-101
-104
-113
-101
-97
-106
-82
-81
-135
-189
-323
-154
1053
2281
1468
-590
-1264
-569
-187
-200
-72
-1
-41
0
36
26
52
82
81
98
132
156
187
229
274
326
395
473
549
615
668
700
696
639
524
376
224
84
-35
-125
-186
-224
-244
-255
-265
-268
-261
-254
-251
-242
-228
-215
-204
-197
-195
-187
-175
-176
-184
-182
-178
-177
-176
-178
-181
-178
-173
-172
-170
-162
-153
-147
-147
-153
-147
-130
-127
-123
-89
-63
-85
-108
-105
-114
-116
-100
-110
-105
-73
-107
-154
-219
-322
269
1755
2163
394
-1238
-1000
-285
-190
-140
14
-8
-27
41
52
42
66
81
94
120
142
167
202
236
278
345
413
471
534
598
635
638
611
535
415
281
149
24
-78
-147
-194
-224
-236
-242
-249
-246
-236
-228
-220
-212
-201
-188
-179
-177
-173
-169
-170
-167
-161
-161
-166
-165
-164
-165
-163
-158
-157
-155
-151
-148
-143
-137
-134
-132
-124
-120
-126
-126
-114
-112
-106
-72
-51
-71
-93
-98
-105
-98
-94
-113
-91
-69
-130
-170
-237
-225
653
2036
1776
-246
-1353
-761
-199
-191
-93
20
-25
-6
55
46
53
86
93
106
136
159
183
223
268
318
383
459
534
599
652
688
699
663
570
435
288
148
21
-89
-168
-207
-225
-239
-249
-248
-245
-240
-230
-223
-221
-213
-199
-190
-186
-181
-179
-180
-182
-181
-174
-170
-173
-178
-178
-173
-173
-177
-180
-181
-176
-164
-153
-150
-153
-155
-143
-132
-140
-131
-91
-80
-108
-120
-119
-126
-118
-111
-115
-95
-102
-149
-199
-288
16
1224
2095
959
-928
-1266
-532
-226
-206
-54
-3
-30
24
50
37
65
95
106
132
159
182
215
251
291
351
424
498
576
651
701
723
709
636
502
343
191
53
-63
-147
-202
-239
-260
-266
-264
-260
-253
-246
-239
-230
-219
-211
-202
-188
-178
-178
-180
-175
-171
-172
-174
-174
-175
-176
-175
-173
-165
-158
-166
-172
-157
-143
-151
-140
-103
-96
-122
-133
-134
-136
-121
-117
-130
-107
-103
-152
-197
-317
-171
965
2189
1470
-557
-1299
-635
-219
-217
-87
-7
-47
-12
30
19
38
69
73
89
123
150
179
218
264
319
387
465
549
626
680
706
697
636
510
349
197
61
-61
-152
-205
-237
-259
-272
-278
-279
-275
-266
-255
-244
-233
-224
-216
-206
-199
-195
-189
-180
-177
-178
-179
-180
-178
-173
-170
-169
-163
-160
-166
-161
-142
-140
-145
-118
-83
-96
-124
-125
-128
-135
-120
-123
-134
-103
-109
-167
-211
-329
-79
1207
2295
1241
-789
-1253
-514
-197
-205
-61
-12
-55
-8
27
18
44
69
75
99
128
150
184
227
272
327
397
473
549
618
671
697
685
616
495
347
199
61
-58
-147
-202
-235
-255
-264
-262
-259
-257
-252
-243
-237
-231
-221
-210
-205
-201
-198
-194
-185
-176
-176
-179
-178
-175
-175
-177
-179
-174
-157
-143
-145
-149
-142
-131
-132
-117
-76
-66
-110
-138
-130
-132
-129
-115
-123
-109
-84
-128
-174
-234
-242
503
1870
1885
9
-1322
-904
-273
-220
-139
6
-18
-17
46
49
50
79
92
105
134
160
184
219
262
311
370
444
525
598
656
696
705
665
569
426
268
123
-2
-107
-183
-226
-250
-267
-275
-276
-271
-263
-256
-250
-240
-228
-214
-203
-200
-199
-193
-186
-184
-184
-184
-186
-187
-186
-179
-173
-175
-178
-164
-154
-163
-156
-129
-123
-138
-144
-151
-157
-142
-139
-146
-122
-126
-169
-221
-354
-103
1153
2199
1189
-764
-1230
-526
-210
-214
-76
-21
-60
-16
19
9
30
58
71
95
124
147
181
223
269
326
398
482
563
629
676
707
698
623
491
335
182
39
-80
-164
-215
-244
-259
-265
-268
-268
-263
-256
-247
-235
-223
-216
-210
-201
-192
-189
-189
-186
-182
-181
-181
-176
-171
-172
-172
-160
-153
-164
-166
-146
-140
-152
-141
-114
-115
-126
-124
-131
-132
-112
-118
-125
-89
-102
-160
-213
-344
-21
1351
2316
1082
-867
-1150
-422
-182
-183
-39
-16
-55
2
32
21
42
63
76
104
128
142
170
210
255
315
395
478
550
609
657
684
675
611
488
334
186
58
-54
-149
-211
-235
-245
-258
-268
-268
-263
-252
-241
-233
-223
-212
-207
-200
-197
-204
-208
-199
-187
-184
-184
-186
-185
-178
-171
-172
-171
-165
-165
-163
-146
-135
-141
-129
-103
-107
-129
-132
-133
-136
-121
-121
-130
-106
-112
-159
-210
-278
98
1332
2072
805
-1014
-1221
-484
-225
-204
-44
-2
-31
20
45
36
63
87
96
121
149
171
201
239
283
341
408
483
562
629
674
698
684
612
486
334
182
46
-67
-153
-205
-233
-247
-253
-255
-258
-254
-244
-237
-230
-215
-201
-196
-189
-184
-185
-180
-172
-174
-181
-180
-177
-179
-184
-185
-177
-165
-164
-161
-145
-141
-155
-151
-126
-114
-114
-117
-132
-131
-113
-122
-124
-98
-119
-160
-237
-352
172
1611
2188
648
-1037
-997
-328
-199
-169
-22
-25
-48
9
22
16
44
59
68
93
117
142
177
215
260
318
385
459
537
599
638
657
644
569
437
283
138
13
-91
-167
-213
-236
-253
-263
-262
-254
-247
-240
-230
-221
-214
-206
-197
-190
-185
-178
-172
-172
-173
-174
-176
-173
-170
-171
-171
-167
-168
-168
-163
-161
-161
-160
-161
-156
-149
-153
-153
-127
-104
-109
-111
-107
-114
-107
-96
-106
-93
-79
-116
-161
-271
-255
645
2021
1833
-69
-1192
-708
-184
-176
-97
11
-27
-15
38
30
35
67
78
90
114
135
161
194
228
277
341
408
477
548
605
639
652
631
554
428
288
152
29
-69
-138
-184
-211
-222
-223
-218
-212
-208
-201
-193
-185
-177
-169
-163
-158
-156
-157
-157
-155
-152
-146
-140
-139
-138
-137
-139
-140
-138
-135
-134
-132
-129
-128
-128
-126
-127
-132
-124
-98
-80
-83
-85
-89
-92
-79
-83
-98
-69
-60
-113
-161
-281
-155
942
2145
1458
-486
-1167
-517
-153
-181
-72
-13
-60
-22
19
5
22
48
50
61
81
98
125
160
201
251
303
359
424
487
531
559
571
544
461
334
197
67
-54
-147
-204
-243
-273
-283
-276
-270
-268
-266
-261
-252
-246
-246
-245
-237
-224
-219
-226
-229
-226
-228
-228
-217
-209
-218
-224
-218
-216
-219
-219
-213
-205
-195
-189
-186
-175
-172
-189
-192
-159
-134
-141
-139
-123
-124
-122
-113
-122
-107
-79
-116
-148
-170
-128
564
1742
1635
-159
-1354
-884
-235
-162
-87
46
29
36
94
95
103
144
163
178
204
224
248
289
332
374
433
508
581
646
705
748
767
749
674
548
401
259
130
24
-51
-97
-120
-128
-131
-132
-125
-114
-108
-104
-95
-83
-74
-69
-65
-62
-62
-64
-61
-52
-49
-62
-77
-77
-69
-71
-76
-78
-83
-92
-94
-98
-104
-96
-84
-89
-97
-97
-111
-119
-108
-124
-141
-121
-143
-199
-261
-394
-57
1241
2033
742
-1073
-1243
-530
-326
-331
-199
-195
-246
-208
-201
-225
-213
-208
-217
-210
-201
-192
-173
-153
-131
-97
-55
-1
55
90
104
110
82
-2
