# session 6
-4
0
17
-75
-170
-65
66
11
-88
-126
-196
-250
-181
-103
-106
-62
45
72
40
56
78
66
78
92
40
-40
-86
-109
-142
-177
-182
-148
-104
-85
-89
-92
-82
-78
-96
-98
-80
-101
-98
-16
3
-80
-176
-208
307
1483
1764
122
-1558
-1487
-690
-397
-276
-108
-148
-256
-274
-310
-330
-236
-128
-100
-91
-22
100
218
300
376
478
572
611
611
604
545
407
292
261
228
153
80
27
10
-43
-226
-380
-295
-120
-107
-205
-213
-109
-14
23
-4
-98
-221
-351
-185
727
1567
763
-1059
-1677
-968
-448
-392
-253
-59
19
40
76
190
312
315
300
382
443
446
499
556
571
629
682
653
654
689
590
401
283
194
79
11
-41
-150
-241
-251
-260
-310
-346
-342
-320
-328
-383
-444
-484
-489
-482
-514
-524
-574
-795
-506
854
1672
383
-1312
-1375
-707
-509
-378
-147
-137
-135
-6
23
-11
32
92
133
180
214
252
319
396
445
462
509
580
552
435
329
161
-62
-131
-90
-193
-388
-471
-474
-480
-453
-419
-447
-493
-490
-453
-408
-346
-245
-138
-118
-125
-73
-161
-24
1195
2431
1443
-877
-1606
-743
-164
-36
148
172
118
214
224
185
331
417
344
429
577
495
407
517
595
553
545
551
468
315
128
-42
-122
-176
-267
-314
-301
-332
-392
-395
-357
-330
-310
-277
-254
-258
-241
-183
-144
-129
-98
-75
-89
-252
-457
149
1668
2100
415
-1153
-950
-278
-196
-219
-199
-271
-185
2
15
-15
66
127
110
92
102
105
88
117
185
178
129
149
163
111
88
96
58
11
11
20
1
-23
-30
-37
-58
-53
-27
-74
-180
-186
-120
-157
-213
-175
-203
-312
-392
-356
380
1759
1856
-71
-1614
-1252
-419
-202
-186
-164
-232
-278
-265
-239
-239
-302
-317
-180
-34
-20
-29
22
35
-2
45
158
197
163
123
76
55
72
48
16
82
186
232
251
249
217
220
241
191
120
66
-25
-67
-7
-3
-70
-163
-216
391
1689
1898
207
-1271
-1056
-363
-215
-229
-168
-147
-140
-141
-137
-112
-146
-171
-65
53
102
196
307
323
337
416
452
429
403
337
238
172
108
26
-38
-87
-86
-38
-75
-163
-139
-88
-146
-209
-212
-229
-282
-335
-332
-292
-308
-421
-631
-528
522
1620
931
-886
-1493
-862
-477
-456
-340
-283
-315
-266
-212
-195
-114
-9
43
108
227
323
371
449
556
598
574
576
629
626
479
268
139
82
1
-78
-80
-32
-5
-5
4
12
-42
-141
-185
-166
-170
-225
-272
-260
-238
-237
-249
-323
-101
952
1871
939
-1022
-1609
-818
-270
-173
-10
84
30
36
72
60
84
136
131
121
192
297
364
405
444
461
465
500
533
457
291
128
-42
-211
-271
-267
-322
-358
-305
-288
-336
-346
-351
-402
-421
-397
-408
-414
-345
-298
-373
-441
-455
-553
-252
976
1820
714
-1000
-1205
-476
-202
-220
-109
-38
-26
26
67
78
82
93
145
212
262
322
390
443
501
548
550
544
533
444
306
180
7
-191
-261
-214
-179
-169
-186
-233
-221
-143
-92
-70
-47
-30
-27
-79
-144
-117
-99
-125
-96
-246
-251
958
2364
1456
-877
-1556
-727
-335
-325
-109
-23
-83
-34
9
15
77
108
83
107
183
254
302
324
322
331
371
386
310
183
67
-37
-135
-201
-249
-301
-325
-320
-352
-423
-434
-359
-301
-298
-263
-177
-156
-222
-257
-229
-175
-149
-313
-348
599
1957
1651
-302
-1401
-881
-286
-203
-91
36
-8
-7
98
128
79
80
138
152
109
99
128
124
109
146
183
160
124
117
120
113
78
23
8
48
80
52
-2
-3
43
26
-57
-102
-121
-170
-198
-185
-178
-176
-157
-167
-314
-272
700
2021
1720
-175
-1222
-711
-230
-337
-343
-176
-125
-121
-111
-162
-214
-192
-141
-89
-12
58
89
123
180
211
218
250
279
239
151
79
48
21
-52
-142
-142
-68
-55
-99
-68
16
1
-112
-156
-100
-101
-154
-102
-63
-159
-135
-68
-133
478
1781
1686
-261
-1453
-904
-359
-420
-325
-142
-188
-229
-171
-117
-40
43
84
145
259
369
427
442
475
538
578
603
622
535
368
282
213
25
-107
-64
-63
-149
-133
-112
-236
-264
-111
-132
-335
-352
-249
-302
-401
-409
-390
-393
-532
-551
337
1569
1130
-806
-1699
-1026
-466
-437
-324
-211
-239
-195
-135
-156
-123
-35
1
30
125
255
373
451
481
509
557
591
597
562
449
283
139
44
-18
-60
-92
-114
-127
-120
-102
-115
-131
-87
-58
-133
-208
-191
-174
-241
-328
-322
-298
-374
-25
1163
1797
433
-1434
-1636
-757
-266
-140
-4
46
38
63
103
177
219
177
189
282
320
331
406
442
380
392
550
655
598
487
354
166
19
-52
-145
-232
-218
-205
-286
-342
-322
-329
-363
-379
-422
-455
-397
-330
-325
-340
-377
-400
-449
-620
-281
1129
2080
905
-885
-1116
-461
-260
-257
-113
-64
-63
4
29
52
159
221
195
239
373
445
450
500
571
591
603
636
623
538
408
237
78
21
5
-91
-192
-194
-191
-264
-312
-268
-226
-259
-296
-272
-266
-306
-267
-199
-222
-216
-269
-367
394
1881
1786
-367
-1737
-1145
-438
-411
-316
-140
-172
-168
-42
32
69
113
102
70
119
216
267
302
349
338
274
254
272
232
119
-17
-132
-214
-264
-286
-290
-295
-305
-307
-302
-296
-281
-282
-316
-320
-284
-279
-267
-204
-175
-185
-295
-500
-40
1382
1964
499
-1032
-894
-235
-154
-151
17
59
25
28
45
103
169
185
206
270
325
358
401
439
429
392
388
385
311
203
120
31
-75
-131
-134
-135
-129
-108
-117
-158
-172
-148
-152
-199
-208
-176
-181
-161
-104
-135
-168
-250
-518
-33
1700
2363
408
-1526
-1271
-413
-288
-228
-35
-54
-75
30
62
14
-28
-52
-31
25
56
73
113
138
134
160
228
263
228
139
19
-85
-129
-144
-163
-153
-117
-107
-118
-106
-70
-36
-18
-7
12
5
-22
20
73
33
-21
-150
-159
815
2255
1890
-224
-1290
-681
-168
-163
-55
17
-37
19
74
41
63
102
73
53
74
104
159
217
232
231
232
211
173
126
67
14
-34
-100
-147
-143
-123
-115
-133
-190
-226
-191
-164
-208
-240
-230
-245
-265
-259
-282
-306
-398
-585
-112
1349
1900
173
-1674
-1572
-744
-543
-474
-283
-287
-316
-226
-216
-257
-218
-165
-134
-86
-34
24
115
195
228
253
303
364
395
357
283
221
154
83
62
80
77
57
53
65
91
108
66
-15
-40
-25
-61
-118
-146
-168
-219
-416
-477
460
1888
1648
-311
-1379
-796
-204
-147
-49
37
-36
-54
-11
14
70
134
169
218
284
338
380
410
428
427
394
359
342
300
208
110
36
-14
-44
-60
-48
-9
-12
-67
-90
-62
-53
-82
-88
-65
-90
-137
-119
-141
-225
-238
-410
-463
713
2266
1615
-655
-1494
-799
-455
-519
-374
-288
-322
-264
-223
-235
-191
-139
-119
-68
30
146
252
321
351
373
398
411
383
301
187
80
6
-45
-83
-103
-107
-105
-104
-122
-157
-167
-163
-186
-203
-198
-230
-251
-206
-220
-286
-357
-597
-464
862
2072
1161
-688
-1098
-517
-346
-381
-260
-244
-284
-228
-185
-170
-116
-56
-1
74
162
248
319
371
407
422
425
436
421
333
199
75
-9
-52
-77
-102
-115
-121
-148
-171
-147
-116
-142
-191
-199
-211
-257
-252
-223
-256
-253
-275
-302
420
1751
1648
-331
-1631
-1105
-374
-250
-141
5
-3
11
67
65
75
111
124
143
187
234
289
345
377
394
412
424
418
376
285
183
110
54
1
-35
-52
-52
-40
-55
-102
-113
-89
-97
-112
-94
-105
-134
-104
-83
-108
-131
-265
-235
644
1645
1006
-748
-1365
-711
-263
-227
-112
-40
-78
-50
-6
-5
25
68
90
124
172
218
271
317
335
339
342
341
322
245
113
4
-54
-121
-195
-214
-195
-192
-200
-214
-251
-273
-245
-229
-265
-287
-257
-201
-176
-226
-259
-290
-511
-384
825
1845
836
-983
-1309
-623
-364
-355
-215
-197
-244
-187
-145
-143
-101
-49
-11
31
69
119
192
248
276
309
338
344
340
311
224
115
49
31
22
6
11
34
15
-50
-64
-25
-36
-89
-81
-39
-60
-95
-76
-73
-103
-145
-186
209
1222
1566
281
-1113
-1071
-403
-177
-166
-87
-28
11
12
-15
26
89
101
119
162
198
236
259
257
265
281
283
287
292
265
205
141
99
85
62
8
-21
5
14
-39
-81
-65
-57
-80
-78
-79
-120
-123
-118
-174
-189
-284
-435
235
1613
1597
-221
-1357
-881
-374
-390
-321
-219
-245
-210
-160
-170
-134
-81
-69
-17
76
133
171
228
269
284
308
340
341
288
181
54
-34
-61
-78
-116
-141
-127
-123
-164
-196
-173
-150
-167
-179
-183
-206
-190
-155
-195
-223
-257
-449
-205
984
1649
378
-1228
-1245
-515
-292
-264
-122
-88
-99
-42
-3
26
74
107
138
194
260
309
336
370
411
408
364
337
307
232
144
79
20
-33
-61
-76
-76
-61
-88
-144
-142
-115
-150
-181
-148
-149
-194
-167
-124
-146
-160
-259
-302
410
1452
1020
-788
-1640
-965
-318
-210
-92
25
8
30
82
83
112
177
206
217
275
366
423
435
446
456
454
456
434
341
224
140
73
12
-23
-40
-53
-57
-66
-106
-148
-146
-135
-158
-179
-184
-198
-189
-168
-193
-197
-248
-470
-215
962
1562
299
-1217
-1202
-496
-266
-247
-157
-139
-125
-65
-51
-54
-22
23
77
135
187
236
282
322
358
381
383
362
312
215
97
36
51
59
15
-26
-31
-39
-83
-130
-116
-73
-100
-162
-162
-156
-193
-196
-200
-253
-257
-363
-546
81
1444
1489
-280
-1466
-1006
-388
-308
-237
-154
-200
-188
-120
-101
-61
8
55
104
170
229
282
328
353
363
370
385
396
359
265
170
99
36
-16
-50
-77
-81
-65
-85
-130
-127
-99
-122
-150
-133
-154
-207
-190
-175
-199
-195
-314
-315
530
1529
949
-669
-1196
-617
-282
-276
-169
-115
-149
-114
-76
-79
-42
18
48
78
138
210
274
306
303
314
372
417
398
340
270
188
113
58
11
-22
-35
-49
-79
-116
-132
-112
-102
-134
-143
-124
-152
-171
-129
-126
-154
-270
-523
-154
1181
1693
236
-1181
-968
-344
-255
-192
-60
-92
-98
-30
-20
1
70
118
149
191
243
307
354
365
377
404
430
427
365
263
184
120
43
-8
-26
-55
-79
-78
-105
-166
-183
-151
-155
-186
-181
-170
-173
-155
-150
-143
-147
-379
-480
380
1408
775
-873
-1286
-545
-161
-175
-59
8
-48
-52
-44
-44
8
52
66
104
141
146
155
192
234
243
220
203
174
82
-39
-116
-160
-210
-252
-276
-301
-309
-285
-263
-258
-237
-197
-183
-183
-160
-139
-128
-115
-142
-153
-167
-394
-334
793
1800
851
-896
-1152
-394
-103
-122
-22
-24
-72
15
92
80
86
146
204
234
274
339
379
382
387
392
401
429
418
338
265
217
133
35
4
15
-7
-47
-56
-62
-97
-105
-60
-44
-80
-94
-97
-117
-108
-106
-152
-253
-438
-263
717
1406
483
-917
-1035
-412
-204
-206
-89
-59
-99
-67
-41
-37
14
73
88
105
161
205
212
219
235
256
306
356
345
279
199
119
51
0
-52
-94
-107
-104
-107
-134
-178
-188
-168
-184
-209
-189
-188
-217
-195
-194
-238
-271
-453
-477
439
1460
737
-996
-1420
-672
-280
-274
-156
-96
-125
-77
-35
-34
-1
43
79
138
201
244
283
322
346
357
380
411
395
308
205
127
50
-35
-80
-80
-80
-87
-95
-132
-175
-171
-149
-158
-159
-138
-136
-137
-122
-134
-142
-148
-305
-283
540
1368
647
-921
-1293
-564
-148
-138
-33
55
42
65
102
120
151
172
207
281
321
325
376
425
402
388
438
453
373
259
171
111
55
-5
-50
-63
-66
-76
-82
-97
-126
-124
-91
-97
-133
-122
-98
-114
-120
-128
-144
-130
-294
-492
212
1537
1437
-268
-1212
-701
-230
-239
-167
-85
-140
-142
-101
-94
-53
5
39
88
153
193
219
250
262
255
263
265
201
100
18
-72
-173
-222
-230
-255
-280
-284
-284
-280
-271
-267
-253
-229
-216
-216
-217
-213
-187
-169
-183
-192
-330
-528
-3
1221
1389
-54
-1113
-755
-206
-137
-80
27
3
-14
29
45
69
131
175
196
227
271
321
371
391
385
408
456
457
388
288
181
90
37
-7
-66
-102
-98
-90
-109
-144
-164
-151
-147
-179
-190
-165
-172
-177
-145
-163
-196
-252
-472
-265
957
1719
446
-1247
-1251
-446
-226
-231
-95
-94
-142
-76
-40
-49
1
65
95
144
217
272
306
339
361
375
395
395
325
209
115
54
-5
-66
-98
-107
-121
-130
-128
-149
-180
-176
-169
-185
-185
-171
-184
-177
-142
-152
-157
-186
-364
-157
885
1432
214
-1269
-1206
-408
-129
-89
43
61
40
109
141
127
163
212
246
312
385
417
438
469
478
469
481
497
442
302
167
101
63
32
16
-8
-16
24
35
-15
-40
-32
-44
-65
-81
-92
-88
-70
-54
-66
-60
-77
-373
-538
427
1754
1316
-453
-1125
-541
-192
-213
-131
-92
-147
-150
-157
-170
-128
-92
-75
-17
53
90
124
163
166
138
133
147
106
-9
-126
-207
-278
-334
-355
-361
-363
-361
-375
-396
-383
-342
-312
-301
-305
-304
-297
-296
-261
-206
-228
-276
-339
-534
-348
716
1404
406
-975
-1050
-461
-259
-231
-136
-124
-124
-61
-20
3
55
106
150
206
265
315
360
396
418
449
502
533
494
404
312
235
175
137
116
102
101
112
113
96
87
104
129
137
131
144
181
202
197
213
249
209
53
