# session 28
-48
-48
-34
-97
-203
-217
-171
-171
-191
-186
-185
-197
-191
-172
-168
-166
-150
-140
-152
-167
-170
-156
-133
-123
-121
-92
-59
-77
-119
-123
-113
-125
-118
-102
-122
-115
-83
-117
-175
-316
-416
416
2029
2173
267
-1056
-621
-96
-159
-97
42
-24
-51
13
26
32
56
59
75
116
154
172
169
175
218
271
306
352
426
509
590
654
670
647
602
506
347
178
36
-83
-169
-217
-256
-293
-305
-297
-290
-281
-266
-249
-236
-236
-239
-221
-199
-208
-224
-214
-200
-207
-214
-205
-192
-189
-193
-186
-171
-172
-188
-186
-163
-157
-178
-189
-167
-137
-122
-104
-84
-88
-119
-140
-137
-135
-129
-114
-119
-118
-89
-114
-163
-225
-404
-71
1399
2394
1106
-795
-959
-248
-124
-179
-34
-19
-59
7
36
19
47
71
72
92
119
130
143
173
211
258
313
365
413
475
552
622
670
702
695
608
453
281
111
-43
-149
-212
-256
-279
-285
-292
-293
-282
-269
-261
-256
-252
-245
-230
-218
-215
-209
-202
-200
-194
-196
-218
-219
-188
-178
-197
-194
-164
-151
-167
-187
-193
-185
-169
-150
-137
-124
-101
-88
-109
-133
-132
-131
-143
-134
-121
-130
-121
-118
-150
-212
-345
-100
1141
2222
1269
-677
-1137
-407
-109
-160
-38
13
-27
27
66
45
56
80
98
136
164
173
196
215
217
250
332
413
468
522
599
679
733
764
757
662
482
284
109
-40
-155
-234
-277
-294
-314
-338
-330
-297
-288
-299
-295
-275
-252
-235
-232
-232
-217
-208
-224
-229
-208
-204
-216
-203
-186
-199
-208
-192
-175
-173
-189
-199
-174
-145
-148
-137
-104
-112
-153
-161
-145
-144
-140
-140
-151
-126
-104
-154
-214
-341
-349
593
2087
1937
-45
-1186
-632
-108
-167
-112
10
-23
-17
31
29
46
79
81
93
124
145
162
184
212
247
289
349
426
498
567
640
699
734
737
671
521
344
170
0
-137
-218
-264
-293
-304
-305
-305
-301
-292
-283
-275
-263
-247
-238
-241
-238
-225
-216
-211
-202
-199
-212
-221
-213
-201
-196
-192
-183
-172
-169
-183
-195
-181
-161
-147
-122
-101
-110
-128
-120
-116
-136
-139
-122
-141
-149
-108
-121
-172
-246
-424
-43
1477
2437
1064
-850
-964
-234
-125
-178
-19
1
-42
26
57
37
53
71
76
97
119
136
164
197
234
275
316
364
434
514
579
633
693
734
707
604
449
270
94
-54
-161
-228
-273
-305
-319
-314
-299
-288
-283
-274
-255
-243
-245
-248
-241
-234
-232
-225
-216
-214
-213
-199
-183
-188
-208
-216
-204
-189
-184
-187
-190
-184
-164
-142
-127
-117
-108
-107
-118
-135
-140
-140
-138
-130
-130
-124
-86
-100
-175
-235
-397
-276
976
2363
1645
-433
-1099
-395
-101
-202
-71
9
-54
-9
53
38
39
61
68
85
111
133
155
180
216
259
295
338
400
466
528
594
651
686
695
642
497
305
138
4
-119
-214
-267
-295
-307
-296
-285
-291
-290
-267
-248
-249
-251
-239
-226
-218
-213
-216
-225
-223
-213
-213
-215
-202
-192
-202
-207
-190
-176
-178
-183
-179
-165
-149
-133
-116
-109
-123
-138
-131
-126
-129
-120
-125
-143
-115
-104
-164
-217
-357
-294
833
2276
1778
-276
-1124
-477
-103
-184
-70
28
-32
-15
41
40
48
67
76
94
118
141
167
194
230
267
297
345
410
472
543
621
681
731
756
686
521
338
157
-12
-129
-205
-273
-315
-313
-303
-308
-311
-301
-289
-279
-265
-257
-256
-246
-226
-231
-251
-243
-220
-221
-230
-216
-207
-217
-210
-180
-176
-195
-192
-183
-188
-169
-128
-131
-161
-156
-146
-170
-175
-146
-152
-165
-135
-142
-190
-276
-395
94
1522
2160
629
-1110
-1035
-285
-175
-184
-1
32
-2
39
46
39
71
90
101
132
155
174
221
265
276
286
339
420
494
554
613
678
733
758
728
628
457
248
57
-85
-183
-246
-276
-297
-313
-308
-287
-274
-273
-276
-269
-251
-236
-236
-240
-231
-212
-210
-223
-224
-212
-213
-217
-202
-188
-200
-202
-175
-165
-186
-187
-164
-159
-156
-127
-110
-128
-139
-132
-140
-145
-134
-144
-137
-104
-140
-189
-249
-426
-12
1540
2415
947
-893
-899
-194
-130
-173
-24
-17
-41
20
27
22
62
77
79
98
105
120
164
195
211
252
307
354
409
475
542
610
668
692
659
568
424
255
88
-61
-170
-232
-268
-293
-296
-287
-286
-290
-279
-260
-251
-249
-240
-227
-224
-226
-223
-215
-211
-211
-215
-216
-204
-189
-190
-199
-192
-185
-198
-196
-169
-165
-166
-127
-96
-120
-142
-137
-151
-160
-130
-130
-147
-117
-119
-168
-234
-419
-163
1255
2404
1274
-731
-1052
-309
-119
-186
-36
2
-48
10
38
8
28
59
66
88
120
140
156
181
217
255
285
328
400
469
517
570
640
690
682
592
435
260
103
-34
-147
-220
-259
-280
-286
-279
-273
-268
-262
-258
-257
-251
-238
-225
-215
-210
-209
-208
-202
-200
-200
-193
-194
-208
-207
-188
-179
-176
-171
-172
-172
-157
-136
-121
-122
-140
-149
-140
-142
-142
-117
-120
-146
-114
-100
-170
-248
-391
-232
998
2297
1525
-523
-1144
-427
-126
-214
-79
4
-48
-10
41
42
61
69
66
91
112
124
168
216
228
239
288
356
419
491
573
644
698
736
733
649
486
296
122
-28
-152
-233
-273
-299
-323
-333
-327
-313
-299
-288
-276
-256
-246
-257
-259
-238
-228
-234
-228
-221
-228
-228
-207
-190
-193
-206
-208
-192
-178
-179
-174
-149
-138
-157
-165
-150
-155
-167
-152
-146
-153
-129
-134
-182
-245
-393
-104
1251
2288
1131
-829
-1114
-345
-126
-181
-32
14
-35
12
46
34
54
79
95
127
149
152
174
222
255
277
322
383
434
499
584
653
694
722
703
596
425
247
84
-68
-190
-252
-274
-292
-310
-314
-308
-294
-278
-271
-262
-242
-236
-244
-234
-216
-222
-236
-227
-209
-205
-210
-209
-199
-189
-186
-194
-204
-198
-178
-174
-173
-141
-114
-137
-163
-149
-140
-149
-142
-149
-150
-104
-111
-178
-248
-429
-207
1184
2410
1396
-610
-1012
-304
-107
-179
-47
-14
-50
15
37
14
42
62
56
81
113
128
155
195
216
234
284
346
393
452
536
600
637
671
668
584
440
277
108
-47
-157
-221
-257
-282
-303
-306
-290
-277
-275
-272
-264
-253
-234
-220
-226
-229
-216
-215
-222
-217
-212
-210
-195
-188
-204
-208
-193
-193
-197
-182
-171
-159
-133
-132
-148
-131
-123
-160
-160
-133
-156
-148
-95
-137
-206
-300
-436
201
1817
2289
508
-1078
-787
-149
-169
-156
-6
-34
-40
35
28
14
53
75
86
105
117
142
186
209
218
256
319
382
444
516
590
651
698
715
674
559
389
199
22
-117
-208
-259
-284
-300
-308
-305
-296
-292
-290
-282
-268
-254
-246
-240
-228
-220
-228
-232
-219
-212
-225
-225
-211
-203
-187
-167
-184
-214
-198
-164
-162
-155
-131
-139
-155
-142
-141
-154
-143
-142
-153
-121
-114
-165
-235
-365
-95
1175
2202
1150
-784
-1158
-411
-138
-173
-26
24
-25
26
65
51
69
92
103
137
166
170
185
227
271
294
321
380
461
536
604
666
721
755
739
642
465
251
68
-65
-173
-261
-301
-297
-294
-312
-319
-298
-276
-270
-265
-263
-260
-248
-238
-233
-222
-218
-224
-214
-196
-206
-226
-220
-206
-207
-207
-193
-180
-176
-177
-181
-185
-173
-144
-129
-144
-151
-138
-144
-147
-117
-116
-138
-113
-119
-169
-234
-423
-181
1251
2455
1365
-660
-1016
-285
-103
-181
-34
6
-45
6
32
17
53
79
69
77
102
124
153
191
226
255
288
334
396
470
542
604
654
683
667
588
443
259
85
-49
-150
-222
-265
-284
-294
-301
-302
-294
-285
-276
-257
-234
-225
-230
-230
-225
-224
-221
-208
-201
-204
-199
-186
-186
-197
-194
-183
-179
-176
-168
-166
-172
-168
-149
-126
-109
-105
-113
-118
-128
-150
-145
-118
-124
-114
-81
-126
-186
-293
-436
230
1856
2285
490
-1050
-742
-127
-151
-132
8
-32
-45
27
32
26
54
70
94
125
126
131
169
204
229
264
303
354
432
508
561
604
641
665
662
570
375
171
32
-77
-186
-250
-268
-291
-318
-310
-290
-293
-284
-251
-234
-239
-225
-196
-198
-230
-238
-216
-195
-186
-193
-206
-200
-190
-199
-197
-173
-162
-169
-174
-181
-177
-156
-152
-153
-107
-64
-101
-146
-127
-115
-137
-131
-123
-137
-115
-110
-156
-204
-381
-338
821
2263
1735
-285
-1071
-419
-71
-164
-60
24
-39
-10
47
38
65
113
122
135
152
133
119
146
191
229
271
346
436
496
547
601
633
681
729
652
466
305
154
-35
-180
-242
-279
-308
-325
-335
-315
-292
-313
-329
-297
-270
-258
-232
-228
-253
-253
-235
-233
-236
-229
-211
-181
-175
-204
-210
-189
-194
-198
-165
-149
-164
-143
-102
-115
-161
-173
-154
-139
-136
-153
-159
-119
-114
-176
-243
-330
-63
1101
2079
1118
-757
-1172
-443
-146
-185
-49
11
-34
12
55
48
62
79
96
134
154
168
208
232
241
301
374
401
448
549
637
700
767
788
728
618
463
256
53
-92
-188
-257
-292
-298
-307
-318
-301
-280
-300
-316
-282
-245
-239
-230
-213
-210
-207
-201
-206
-205
-193
-201
-219
-215
-200
-191
-175
-170
-188
-176
-143
-158
-185
-148
-105
-124
-150
-148
-153
-152
-137
-145
-138
-101
-133
-190
-242
-409
-101
1332
2367
1159
-758
-992
-275
-118
-184
-38
2
-45
-4
24
13
36
64
80
113
140
138
142
179
217
249
304
370
433
512
593
650
696
727
689
564
395
228
71
-71
-174
-232
-273
-303
-310
-308
-313
-309
-301
-298
-280
-251
-245
-249
-237
-220
-211
-206
-214
-228
-223
-205
-204
-214
-209
-191
-184
-192
-191
-172
-165
-173
-156
-127
-138
-167
-167
-158
-147
-121
-129
-151
-118
-110
-160
-228
-425
-271
1059
2382
1528
-517
-1074
-379
-116
-183
-47
1
-64
-12
40
20
29
59
77
96
113
137
179
203
203
224
282
348
410
475
537
594
654
687
656
558
422
265
94
-63
-173
-238
-283
-302
-292
-292
-306
-298
-279
-284
-291
-269
-243
-236
-237
-230
-211
-193
-189
-195
-199
-201
-207
-209
-201
-186
-168
-155
-155
-159
-157
-157
-161
-147
-112
-100
-122
-127
-108
-105
-99
-89
-113
-116
-81
-112
-151
-211
-374
104
1639
2329
766
-931
-824
-168
-132
-140
16
14
-12
39
34
20
53
76
89
110
125
146
177
193
205
238
290
355
430
502
568
632
677
684
648
550
392
227
76
-61
-159
-215
-266
-309
-314
-303
-300
-289
-272
-269
-264
-239
-226
-234
-229
-214
-224
-240
-230
-216
-221
-222
-204
-186
-191
-204
-201
-199
-205
-198
-185
-188
-182
-157
-148
-156
-149
-139
-145
-145
-137
-143
-146
-127
-123
-134
-115
-122
-171
-235
-366
-104
1170
2257
1286
-649
-1092
-386
-126
-183
-43
19
-38
2
52
39
47
85
101
92
113
178
217
205
223
292
341
364
420
511
593
662
729
773
760
663
490
291
111
-43
-162
-232
-267
-293
-323
-338
-316
-283
-287
-305
-293
-273
-269
-256
-238
-238
-240
-221
-203
-198
-198
-209
-229
-229
-205
-186
-189
-202
-203
-179
-153
-147
-148
-143
-149
-155
-140
-141
-170
-159
-130
-153
-149
-108
-146
-203
-301
-374
393
1933
2085
175
-1202
-748
-129
-160
-123
22
-9
-25
26
33
51
86
91
108
139
146
151
181
224
265
301
347
420
499
570
644
711
749
749
683
530
335
159
9
-126
-234
-294
-313
-314
-306
-301
-306
-297
-270
-265
-282
-270
-243
-241
-237
-216
-211
-220
-213
-201
-206
-214
-209
-199
-194
-194
-191
-174
-166
-184
-197
-179
-162
-160
-148
-131
-131
-130
-118
-126
-145
-137
-139
-146
-111
-112
-178
-246
-400
-196
1128
2408
1524
-530
-1079
-364
-92
-176
-53
9
-38
2
31
18
52
81
76
89
110
123
152
192
222
255
304
361
421
491
568
637
689
722
711
617
456
284
118
-43
-173
-247
-275
-289
-308
-327
-322
-296
-279
-283
-286
-271
-248
-241
-250
-242
-214
-202
-215
-222
-211
-196
-196
-204
-204
-194
-184
-189
-197
-186
-174
-188
-195
-171
-155
-152
-128
-115
-138
-147
-127
-128
-136
-132
-146
-141
-91
-101
-161
-252
-429
-10
1541
2473
1069
-822
-917
-209
-115
-166
-17
-4
-45
7
29
22
47
64
73
92
100
116
158
197
220
250
297
356
424
489
547
613
681
713
685
595
439
242
68
-55
-155
-237
-282
-297
-296
-289
-283
-279
-275
-273
-267
-254
-242
-231
-212
-201
-206
-195
-173
-185
-209
-199
-179
-181
-186
-180
-168
-161
-171
-176
-153
-136
-146
-150
-147
-156
-152
-128
-117
-113
-96
-86
-96
-104
-113
-117
-96
-80
-92
-76
-67
-115
-171
-326
-318
735
2253
1965
-56
-1074
-493
-60
-146
-70
42
-4
3
53
48
52
80
94
108
130
148
160
175
210
252
286
339
418
487
544
612
678
732
759
706
560
373
183
9
-126
-219
-283
-304
-299
-309
-323
-314
-306
-310
-303
-288
-280
-267
-251
-245
-248
-253
-243
-216
-207
-224
-230
-228
-241
-242
-220
-210
-209
-200
-197
-206
-214
-214
-208
-195
-178
-162
-156
-160
-166
-172
-184
-186
-170
-172
-188
-154
-122
-169
-239
-346
-236
777
2041
1545
-435
-1294
-615
-145
-205
-103
27
-19
-18
33
28
30
63
94
124
139
141
167
209
239
272
319
369
437
526
613
680
733
772
772
703
550
348
163
17
-110
-201
-236
-246
-262
-277
-281
-275
-249
-217
-212
-216
-192
-159
-151
-156
-152
-144
-142
-136
-119
-107
-109
-105
-94
-101
-108
-91
-77
-76
-57
-38
-41
-38
-26
-39
