# session 5
-14
10
-46
-15
225
473
536
528
573
615
632
655
667
663
673
679
634
527
391
258
152
85
40
-7
-42
-51
-55
-69
-77
-79
-87
-93
-95
-96
-89
-91
-119
-131
-108
-111
-147
-153
-126
-118
-134
-120
-95
-117
-121
-143
-318
-124
900
1437
216
-1239
-1129
-339
-115
-103
37
68
50
105
129
125
154
185
217
267
308
343
384
418
439
442
431
426
414
349
231
101
-9
-91
-147
-188
-216
-225
-224
-225
-234
-236
-227
-222
-226
-228
-224
-217
-213
-224
-238
-231
-218
-225
-243
-235
-203
-198
-199
-166
-167
-192
-214
-387
-338
626
1535
696
-945
-1215
-451
-113
-122
-5
53
28
73
107
103
137
183
208
247
301
345
385
427
452
454
453
451
432
392
316
192
66
-16
-66
-108
-136
-144
-149
-160
-164
-154
-147
-153
-161
-160
-160
-169
-170
-158
-159
-178
-185
-172
-176
-209
-207
-154
-150
-180
-142
-123
-169
-208
-348
-268
662
1504
678
-852
-1080
-400
-125
-133
-28
22
6
35
62
83
104
109
138
195
244
290
317
309
310
324
312
306
320
297
225
138
39
-52
-97
-117
-145
-166
-166
-159
-154
-148
-150
-165
-173
-164
-159
-158
-149
-151
-166
-156
-128
-127
-141
-135
-114
-87
-78
-85
-66
-52
-68
-85
-203
-178
604
1494
922
-595
-1056
-449
-84
-69
12
56
45
90
120
126
163
186
189
218
263
312
366
401
422
448
467
471
460
414
325
212
84
-41
-126
-171
-207
-226
-210
-181
-173
-194
-230
-247
-235
-221
-220
-215
-216
-234
-250
-247
-233
-225
-232
-239
-224
-203
-206
-191
-157
-177
-201
-252
-389
-29
1102
1483
99
-1243
-1000
-291
-158
-129
24
42
26
85
117
125
157
187
216
253
294
354
419
458
477
489
484
460
425
352
227
89
-22
-103
-162
-199
-216
-218
-210
-197
-183
-181
-191
-191
-183
-188
-187
-168
-169
-198
-207
-192
-190
-203
-203
-183
-170
-177
-155
-121
-149
-176
-250
-385
97
1334
1614
90
-1220
-926
-269
-164
-114
22
24
26
88
104
113
150
179
215
265
310
367
429
463
479
492
488
470
431
342
213
85
-30
-117
-162
-182
-203
-210
-197
-188
-189
-182
-170
-166
-169
-170
-169
-171
-185
-203
-207
-202
-199
-200
-206
-205
-200
-207
-183
-148
-177
-210
-292
-436
65
1370
1722
230
-1100
-864
-254
-154
-98
28
9
-9
49
75
86
123
162
207
252
290
339
392
422
444
460
451
419
377
308
201
79
-31
-117
-171
-195
-204
-206
-205
-201
-197
-198
-198
-192
-191
-196
-195
-189
-194
-205
-202
-193
-194
-200
-201
-188
-171
-185
-188
-147
-156
-188
-208
-354
-179
906
1708
705
-850
-1012
-385
-183
-164
-28
0
-22
32
61
62
101
144
179
229
288
346
404
454
491
512
521
521
502
433
308
160
27
-77
-152
-193
-209
-216
-217
-212
-213
-218
-213
-207
-214
-216
-201
-195
-211
-222
-213
-203
-209
-219
-209
-177
-168
-178
-148
-135
-172
-185
-302
-353
454
1657
1300
-502
-1319
-669
-159
-151
-41
74
37
59
126
131
147
194
220
252
306
363
422
475
505
525
542
534
494
414
281
125
-4
-103
-179
-222
-243
-258
-267
-264
-252
-242
-241
-239
-226
-214
-206
-198
-205
-225
-230
-215
-214
-233
-231
-190
-166
-172
-151
-141
-175
-180
-280
-406
227
1481
1460
-230
-1310
-814
-204
-150
-85
38
28
31
77
87
113
156
178
214
272
322
371
429
481
507
502
481
460
410
296
142
8
-89
-165
-219
-238
-240
-244
-246
-240
-230
-220
-218
-225
-227
-219
-209
-208
-220
-227
-218
-202
-196
-204
-206
-185
-168
-165
-150
-159
-184
-204
-371
-364
603
1779
1237
-542
-1203
-575
-165
-158
-47
35
2
30
78
80
101
146
187
241
306
366
425
478
513
527
527
511
483
435
337
191
55
-43
-119
-163
-169
-174
-181
-176
-174
-180
-185
-185
-175
-164
-166
-158
-137
-157
-191
-174
-155
-172
-161
-144
-175
-182
-157
-158
-156
-151
-138
-123
-286
-226
838
1875
997
-824
-1218
-480
-144
-136
46
124
-13
-3
200
225
72
156
419
465
376
374
384
413
538
643
657
605
485
373
321
223
46
-121
-240
-302
-294
-256
-254
-335
-464
-530
-526
-534
-500
-358
-332
-601
-800
-607
-431
-607
-697
-550
-675
-923
-644
-168
-152
-258
-81
21
-112
-19
598
1242
913
-397
-1233
-830
-102
199
199
-8
-272
-239
72
377
560
642
648
549
459
662
983
915
617
557
632
696
852
918
787
699
610
340
117
93
68
-1
-20
-34
-57
-54
-107
-201
-187
-100
-125
-222
-244
-246
-301
-334
-372
-526
-684
-704
-704
-766
-774
-698
-672
-742
-784
-483
404
1235
831
-538
-1241
-842
-369
-249
-89
212
410
360
120
-85
-52
122
191
207
363
500
455
456
590
612
501
425
360
247
120
-31
-159
-148
-43
11
6
33
100
89
-52
-194
-213
-164
-188
-271
-228
-116
-241
-432
-250
31
-36
-137
0
43
-89
-119
-64
-109
-213
-289
-222
351
1336
1486
129
-1262
-1286
-625
-299
-244
-202
-163
-118
-101
-76
51
161
148
172
309
398
418
533
721
812
808
843
889
779
526
319
165
-15
-141
-207
-263
-172
28
71
-27
-104
-161
-195
-214
-297
-368
-333
-317
-381
-423
-453
-502
-474
-380
-321
-268
-206
-195
-227
-245
-222
-274
-349
263
1528
1611
-140
-1498
-1150
-428
-199
-41
94
96
169
254
222
186
158
115
169
241
196
179
291
394
449
500
500
430
316
161
13
-53
-91
-194
-298
-301
-247
-205
-159
-106
-66
-19
43
100
151
158
92
22
-29
-131
-210
-175
-164
-208
-212
-374
-721
-764
-385
-112
-244
-360
381
1770
1907
152
-1276
-1012
-364
-276
-333
-341
-311
-114
107
197
227
214
180
214
286
343
412
491
565
619
639
652
632
543
433
270
26
-133
-180
-258
-283
-179
-67
44
-22
-502
-882
-596
-178
-226
-407
-393
-365
-401
-416
-433
-464
-487
-479
-430
-425
-485
-477
-423
-408
-413
-421
30
1295
1992
787
-746
-754
-106
46
-3
-17
6
159
174
10
34
189
281
383
401
335
443
632
658
607
557
483
463
461
341
138
-46
-145
-105
-38
-83
-116
-52
-53
-96
-6
81
19
3
76
17
-77
27
142
22
-153
-129
55
170
84
-37
-20
2
-79
-237
-332
288
1605
1720
-145
-1604
-1155
-313
-149
-132
-77
-117
-125
-133
-194
-211
-226
-240
-135
8
84
222
434
552
606
709
775
730
645
550
367
40
-332
-554
-644
-783
-928
-911
-792
-689
-589
-487
-406
-356
-371
-386
-316
-269
-300
-319
-409
-576
-512
-255
-248
-451
-435
-210
-123
-94
466
1531
1724
265
-1276
-1318
-558
-121
82
282
346
351
440
514
471
428
517
633
701
808
858
722
574
518
455
445
529
524
396
286
155
-84
-308
-396
-453
-572
-631
-583
-578
-626
-598
-542
-532
-458
-299
-214
-208
-162
-118
-110
1
149
81
-41
47
24
-262
-347
-307
-406
212
1637
1834
170
-1085
-744
-71
104
52
-47
-81
-1
-43
-199
-159
46
127
96
137
216
270
399
588
668
662
689
694
599
445
293
194
149
61
-62
-90
-81
-156
-191
-121
-107
-129
-62
-68
-256
-423
-468
-477
-447
-381
-337
-300
-282
-323
-365
-377
-377
-408
-529
-294
783
1555
517
-1151
-1333
-532
-228
-239
-37
115
124
161
183
194
267
294
267
393
609
581
364
363
563
617
556
639
747
601
308
122
24
-62
-111
-205
-366
-406
-310
-260
-315
-427
-503
-413
-219
-132
-177
-238
-265
-227
-128
-72
-106
-168
-207
-224
-253
-263
-286
-446
-178
1238
2402
1265
-865
-1341
-624
-357
-343
-168
-163
-194
-50
-38
-153
-78
65
44
8
95
149
67
6
115
273
291
190
88
25
-3
-30
-102
-172
-179
-140
-72
27
81
36
-30
-56
-68
-42
34
22
-127
-215
-160
-126
-108
4
66
4
-12
-21
-152
-322
-444
-100
1060
1725
428
-1405
-1631
-834
-389
-208
-20
27
42
131
185
198
230
268
294
342
454
575
649
730
818
849
905
979
833
536
442
466
323
127
-76
-451
-732
-593
-351
-347
-415
-385
-332
-349
-449
-514
-444
-370
-386
-383
-337
-318
-294
-257
-246
-241
-228
-243
-412
-521
329
1956
2169
306
-1113
-729
-146
-245
-175
170
114
-272
-439
-287
-71
44
77
125
239
367
446
484
508
497
437
365
288
176
71
-6
-136
-258
-221
-138
-174
-228
-229
-247
-220
-112
-71
-123
-136
-108
-101
-103
-95
-145
-335
-490
-266
175
317
193
180
188
-44
-26
939
1856
931
-1014
-1568
-800
-337
-323
-247
-216
-269
-262
-216
-156
-122
-144
-133
-61
38
175
304
394
511
641
727
810
871
811
641
451
309
182
0
-85
2
-120
-519
-623
-396
-355
-409
-245
-88
-106
-125
-117
-183
-310
-426
-493
-534
-555
-518
-471
-520
-541
-57
1018
1497
281
-1427
-1658
-737
-203
-194
-79
100
134
163
206
156
170
352
494
509
526
584
697
841
869
794
765
730
625
521
384
151
-66
-170
-220
-278
-344
-412
-456
-447
-403
-397
-470
-550
-543
-486
-450
-404
-323
-260
-259
-278
-208
-72
-38
-32
90
-54
-454
119
1763
2170
455
-1059
-960
-427
-280
-171
6
85
37
-25
51
154
103
48
74
23
-49
31
194
300
334
371
487
600
569
469
409
297
108
7
14
-11
-76
-97
-78
-53
-21
-16
-70
-127
-136
-90
-39
-70
-149
-140
-107
-160
-160
-90
-153
-321
-504
-469
443
1706
1308
-665
-1646
-1047
-552
-538
-352
-180
-240
-238
-171
-205
-224
-164
-117
-43
110
247
361
543
716
766
767
786
746
618
447
258
109
-17
-245
-462
-389
-163
-149
-276
-275
-178
-136
-162
-201
-193
-157
-185
-277
-367
-442
-486
-456
-383
-357
-372
-375
-406
-225
689
1694
1124
-725
-1572
-918
-282
-173
-85
-5
-5
52
94
109
204
248
194
258
435
527
558
641
714
700
666
682
677
559
371
180
2
-126
-182
-228
-286
-308
-284
-245
-245
-322
-412
-427
-384
-333
-296
-296
-302
-275
-245
-218
-168
-111
-65
-41
-57
-169
-335
85
1484
2321
1028
-849
-1128
-455
-203
-250
-236
-135
59
101
-20
61
253
234
146
203
299
290
209
196
300
389
369
332
322
256
128
15
-59
-107
-130
-149
-179
-205
-211
-193
-185
-199
-190
-169
-192
-195
-140
-140
-199
-204
-203
-239
-204
-127
-132
-268
-419
52
1417
2055
554
-1342
-1465
-644
-331
-300
-184
-164
-173
-111
-65
-28
-3
-28
-17
72
168
268
378
450
507
603
686
705
678
590
434
288
178
42
-120
-239
-281
-270
-258
-279
-296
-301
-334
-342
-263
-192
-208
-237
-227
-231
-275
-306
-290
-288
-351
-447
-541
-352
544
1467
919
-746
-1495
-948
-401
-245
-91
8
-11
15
67
113
172
133
82
236
393
295
232
456
680
678
627
653
632
511
406
338
218
90
17
-98
-255
-300
-265
-289
-339
-332
-277
-253
-327
-425
-394
-287
-271
-316
-306
-291
-322
-323
-299
-302
-311
-403
-283
757
1968
1408
-468
-1209
-594
-183
-157
12
140
119
153
208
217
238
264
281
323
379
436
510
600
682
740
781
817
801
639
355
90
-97
-223
-273
-260
-266
-299
-304
-283
-283
-312
-334
-333
-334
-325
-283
-267
-285
-254
-230
-266
-221
-126
-155
-274
-438
-271
975
2384
1709
-487
-1343
-625
-178
-229
-143
-93
-153
-102
-68
-132
-135
-108
-154
-154
-31
94
161
231
310
364
417
452
413
321
219
88
-62
-176
-243
-283
-302
-310
-307
-278
-236
-216
-222
-224
-206
-195
-225
-266
-266
-270
-332
-347
-283
-295
-348
-425
-631
-266
1210
2067
712
-1107
-1363
-875
-747
-673
-500
-435
-391
-315
-266
-213
-162
-110
-10
93
182
305
444
567
691
801
873
931
945
842
657
486
335
197
106
61
34
18
12
20
36
22
-16
-26
-17
-30
-57
-68
-75
-92
-93
-86
-124
-153
-188
-350
-102
1158
2082
886
-1124
-1515
-738
-389
-339
-108
-2
-69
-42
25
36
65
116
138
166
232
303
368
445
498
506
528
564
518
385
257
158
37
-112
-225
-264
-267
-252
-205
-163
-151
-115
-73
-82
-73
-24
-58
-139
-119
-97
-175
-200
-185
-304
-480
-639
-569
317
1429
897
-1062
-1983
-1316
-673
-575
-459
-294
-240
-203
-152
-91
-5
54
89
157
247
333
441
559
648
716
770
795
800
743
571
381
272
174
50
-20
-48
-116
-195
-213
-196
-214
-259
-277
-280
-300
-303
-307
-381
-453
-390
-235
-156
-205
-266
-384
-625
-288
1079
1841
527
-1156
-1211
-520
-337
-319
-191
-200
-240
-175
-114
-65
5
65
139
217
248
284
371
442
470
501
536
562
575
511
336
173
107
39
-87
-179
-206
-237
-298
-343
-329
-290
-266
-221
-152
-131
-135
-100
-53
-51
-81
-49
45
38
-20
0
-29
317
1571
2273
806
-1153
-1342
-558
-213
-115
-13
-23
15
96
103
140
209
233
263
277
231
208
266
340
364
350
339
314
274
249
180
2
-196
-318
-385
-430
-464
-505
-523
-489
-456
-450
-422
-381
-384
-399
-374
-335
-310
-309
-323
-268
-186
-218
-256
-306
-412
231
1792
2160
332
-1243
-967
-281
-177
-158
-81
-19
127
163
59
118
287
311
268
298
325
306
326
400
455
466
456
440
398
287
120
-10
-55
-65
-76
-88
-99
-96
-61
-36
-82
-166
-176
-106
-64
-110
-198
-246
-196
-89
-67
-169
-314
-464
-301
693
1807
1335
-475
-1434
-982
-436
-301
-216
-172
-209
-199
-166
-128
-27
