# session 39
-31
-35
-30
11
39
8
-20
-10
-2
-10
-11
-12
-17
-20
-21
-24
-27
-33
-38
-37
-36
-39
-42
-41
-41
-47
-51
-50
-47
-43
-39
-47
-60
-57
-48
-50
-41
-13
-13
-43
-53
-51
-66
-65
-51
-70
-73
-44
-73
-104
-119
-166
289
1417
1683
227
-1072
-806
-156
-67
-56
52
35
21
74
80
72
96
108
113
133
150
167
191
211
234
270
314
362
414
471
528
584
629
636
571
436
266
99
-48
-158
-228
-270
-293
-304
-308
-307
-300
-294
-290
-282
-272
-263
-253
-242
-232
-228
-225
-220
-214
-209
-205
-202
-201
-197
-192
-189
-189
-185
-177
-167
-157
-156
-162
-153
-137
-140
-140
-110
-94
-116
-130
-122
-130
-133
-116
-121
-127
-97
-107
-138
-156
-243
33
1115
1776
652
-903
-987
-282
-59
-67
45
67
37
77
96
89
112
130
135
154
176
191
213
239
266
302
344
391
449
514
574
628
672
677
611
475
302
132
-14
-124
-193
-229
-249
-261
-263
-259
-253
-248
-241
-234
-228
-220
-210
-203
-197
-189
-180
-176
-172
-167
-163
-162
-161
-157
-151
-150
-149
-146
-143
-140
-135
-135
-134
-124
-119
-127
-125
-109
-107
-106
-76
-54
-78
-103
-97
-95
-102
-91
-92
-103
-78
-77
-115
-132
-217
-65
920
1856
1092
-580
-1002
-344
-34
-74
14
59
17
46
78
68
83
106
109
122
143
156
172
195
220
248
284
325
374
431
489
540
583
608
584
485
331
167
23
-93
-175
-223
-246
-258
-264
-264
-258
-252
-243
-235
-230
-222
-214
-209
-204
-197
-193
-190
-185
-181
-178
-173
-169
-168
-166
-162
-158
-154
-151
-148
-146
-144
-136
-127
-132
-142
-130
-112
-111
-101
-72
-66
-92
-103
-98
-107
-106
-90
-100
-99
-69
-94
-125
-144
-228
147
1321
1838
529
-924
-829
-168
-49
-63
46
43
19
65
72
67
97
108
108
128
147
162
184
207
230
260
297
341
396
453
502
547
588
603
558
441
283
125
-10
-114
-184
-224
-244
-252
-255
-255
-248
-240
-233
-224
-214
-208
-203
-196
-192
-192
-190
-187
-181
-171
-165
-167
-171
-168
-161
-158
-154
-148
-145
-145
-141
-134
-127
-125
-131
-128
-115
-114
-112
-84
-67
-89
-105
-99
-108
-115
-99
-103
-114
-87
-94
-124
-133
-211
34
1070
1753
681
-887
-1010
-299
-56
-71
35
62
31
67
87
82
105
123
126
146
172
190
207
227
254
288
326
373
427
486
544
597
639
654
612
495
328
157
8
-108
-188
-235
-262
-272
-271
-268
-267
-267
-260
-247
-235
-231
-226
-217
-208
-205
-202
-195
-188
-185
-183
-180
-177
-177
-178
-171
-165
-162
-152
-143
-148
-148
-130
-123
-131
-114
-85
-93
-118
-120
-120
-130
-118
-109
-124
-110
-98
-129
-145
-217
-167
639
1676
1224
-456
-1153
-532
-71
-77
-10
65
33
52
90
83
93
116
121
135
158
173
191
218
244
271
310
357
409
466
526
578
621
648
621
514
349
175
24
-93
-174
-224
-251
-263
-266
-265
-261
-254
-249
-242
-232
-223
-216
-208
-203
-200
-196
-187
-182
-183
-181
-175
-170
-168
-167
-164
-160
-156
-156
-151
-139
-137
-143
-135
-121
-122
-118
-93
-86
-110
-120
-113
-120
-120
-105
-115
-113
-86
-108
-136
-169
-269
119
1321
1842
519
-940
-839
-167
-45
-66
36
35
13
62
74
67
92
108
112
129
147
160
180
203
228
260
300
344
397
457
514
564
601
605
545
420
259
99
-35
-135
-199
-232
-248
-257
-261
-259
-253
-246
-239
-231
-222
-214
-209
-203
-195
-188
-183
-180
-176
-172
-167
-163
-160
-157
-156
-156
-151
-138
-137
-145
-135
-112
-111
-116
-94
-77
-95
-111
-108
-115
-120
-108
-116
-121
-84
-90
-137
-152
-249
-110
897
1845
1054
-610
-986
-323
-40
-84
5
44
4
33
57
48
68
86
87
102
123
135
154
177
199
226
263
304
351
401
454
502
537
550
515
413
269
124
-4
-104
-170
-210
-237
-246
-244
-243
-244
-239
-231
-224
-216
-207
-199
-192
-184
-177
-172
-168
-166
-163
-159
-156
-155
-153
-149
-147
-146
-136
-129
-134
-134
-116
-108
-112
-92
-65
-78
-104
-102
-99
-109
-99
-92
-110
-92
-72
-111
-134
-200
-213
485
1599
1403
-195
-1048
-528
-52
-68
-28
51
21
29
65
56
63
90
97
106
126
138
151
172
196
222
254
296
344
397
446
492
536
563
541
451
311
162
27
-81
-159
-207
-232
-242
-244
-243
-241
-236
-231
-224
-215
-205
-199
-195
-191
-185
-177
-173
-171
-165
-160
-157
-154
-151
-147
-139
-139
-146
-136
-118
-119
-117
-89
-76
-100
-117
-112
-119
-122
-108
-114
-116
-87
-104
-138
-150
-252
-13
1062
1752
662
-859
-924
-239
-52
-81
20
35
7
45
56
49
76
93
94
113
133
145
163
185
210
247
290
337
390
447
501
550
585
584
521
394
235
84
-41
-139
-210
-249
-264
-269
-271
-272
-267
-258
-250
-246
-242
-232
-220
-214
-212
-206
-199
-194
-189
-181
-176
-172
-169
-167
-168
-172
-169
-148
-130
-134
-138
-135
-142
-143
-128
-133
-133
-108
-125
-149
-167
-236
134
1212
1607
282
-1106
-957
-251
-86
-80
36
48
28
71
84
79
100
114
124
147
167
183
208
239
269
303
346
398
459
515
563
610
642
616
516
362
194
44
-74
-156
-207
-234
-250
-257
-256
-253
-250
-243
-233
-226
-220
-210
-200
-192
-185
-177
-172
-169
-167
-166
-163
-160
-160
-155
-148
-150
-155
-145
-136
-139
-130
-106
-106
-124
-126
-128
-132
-119
-117
-127
-102
-96
-136
-152
-249
-210
663
1761
1278
-410
-1047
-432
-50
-91
-23
37
0
24
56
41
55
83
84
93
115
127
140
169
189
194
217
262
308
367
449
516
548
557
522
420
277
131
3
-98
-165
-207
-229
-236
-236
-235
-230
-223
-218
-212
-205
-199
-192
-184
-177
-172
-169
-166
-162
-158
-156
-153
-149
-147
-146
-144
-139
-134
-139
-141
-132
-123
-122
-112
-101
-104
-107
-107
-117
-113
-95
-104
-105
-77
-99
-133
-160
-273
51
1231
1854
614
-898
-874
-207
-64
-74
38
34
5
55
67
56
81
98
101
120
141
153
174
202
226
255
298
347
400
456
513
563
598
594
528
399
239
81
-51
-145
-205
-242
-261
-269
-271
-269
-261
-254
-249
-240
-229
-223
-219
-210
-200
-193
-190
-188
-183
-176
-174
-172
-167
-167
-166
-158
-152
-149
-146
-146
-144
-130
-118
-116
-112
-106
-106
-106
-116
-134
-133
-129
-132
-104
-87
-125
-133
-181
-187
510
1628
1395
-310
-1228
-652
-105
-107
-42
81
66
69
99
92
111
135
129
150
183
187
206
252
274
282
313
360
412
472
526
567
611
645
621
517
356
180
31
-77
-167
-236
-258
-256
-266
-276
-267
-260
-266
-265
-253
-244
-230
-207
-198
-207
-211
-202
-193
-185
-182
-182
-174
-172
-181
-165
-141
-161
-179
-142
-117
-148
-162
-130
-103
-102
-108
-112
-121
-133
-124
-108
-120
-126
-114
-140
-162
-168
-158
324
1335
1479
50
-1197
-940
-260
-111
-93
12
32
53
119
127
106
114
129
152
186
204
213
240
278
314
356
399
436
501
596
653
663
698
726
626
407
203
58
-68
-171
-225
-255
-279
-286
-284
-285
-288
-285
-268
-247
-238
-236
-225
-214
-205
-195
-190
-188
-180
-178
-184
-186
-187
-193
-190
-180
-175
-175
-183
-185
-168
-153
-157
-148
-122
-125
-154
-157
-146
-156
-155
-131
-126
-125
-128
-167
-185
-249
-287
424
1753
1790
62
-1113
-677
-130
-148
-99
28
-12
-14
67
77
54
72
101
119
134
158
188
215
255
313
349
362
400
480
571
645
705
751
742
631
448
253
73
-78
-187
-257
-290
-294
-301
-321
-329
-317
-305
-299
-283
-264
-260
-261
-249
-230
-215
-208
-210
-208
-199
-200
-208
-205
-199
-192
-174
-163
-170
-163
-148
-155
-164
-144
-116
-117
-136
-142
-138
-149
-153
-137
-137
-136
-115
-131
-171
-232
-209
467
1666
1708
70
-1144
-772
-163
-119
-83
48
33
19
69
79
82
117
149
169
181
191
212
241
277
319
351
394
470
553
619
677
737
778
757
637
440
243
74
-81
-203
-265
-295
-319
-332
-331
-332
-328
-314
-302
-294
-278
-259
-254
-259
-255
-243
-231
-222
-212
-207
-217
-225
-220
-218
-215
-197
-189
-198
-191
-171
-169
-163
-137
-132
-164
-179
-166
-169
-170
-146
-150
-164
-135
-134
-173
-245
-360
56
1393
2133
841
-848
-927
-257
-119
-134
17
35
-12
35
63
55
85
116
117
122
151
186
206
225
271
323
355
395
471
564
644
710
760
769
693
517
300
112
-39
-167
-250
-287
-312
-330
-327
-319
-312
-295
-286
-297
-296
-272
-258
-263
-255
-232
-229
-236
-221
-207
-221
-229
-215
-203
-195
-185
-181
-175
-166
-169
-167
-135
-116
-141
-165
-156
-146
-150
-148
-152
-145
-120
-136
-172
-223
-323
77
1370
2081
803
-871
-950
-271
-120
-135
9
28
-8
48
77
68
87
106
117
140
164
181
204
237
277
320
362
413
483
568
649
711
755
768
699
528
306
99
-69
-191
-266
-302
-317
-323
-329
-329
-323
-309
-296
-292
-290
-279
-264
-253
-247
-242
-236
-229
-222
-217
-214
-216
-218
-211
-197
-189
-195
-194
-175
-162
-158
-139
-121
-139
-159
-151
-148
-158
-146
-138
-152
-130
-113
-157
-204
-331
-282
742
2126
1764
-154
-1056
-482
-81
-147
-58
35
-17
9
65
42
38
78
98
108
126
148
173
195
217
251
295
346
412
484
548
612
676
716
694
577
383
179
7
-127
-217
-263
-285
-300
-313
-318
-307
-293
-287
-274
-257
-258
-267
-255
-234
-225
-221
-217
-216
-213
-210
-213
-208
-194
-188
-186
-187
-195
-187
-161
-150
-149
-125
-111
-133
-147
-143
-152
-151
-135
-139
-130
-111
-135
-171
-309
-417
350
1852
2029
325
-908
-556
-74
-120
-90
22
-15
-24
25
32
45
69
79
108
138
134
139
171
203
244
294
334
385
462
532
586
653
715
712
608
429
233
51
-102
-206
-256
-276
-292
-310
-317
-306
-295
-292
-280
-267
-266
-256
-233
-235
-255
-253
-237
-234
-234
-224
-215
-212
-211
-207
-202
-204
-206
-189
-169
-165
-153
-126
-120
-136
-141
-146
-163
-159
-142
-147
-129
-96
-128
-176
-262
-332
315
1693
1957
349
-966
-678
-132
-126
-83
47
12
5
67
64
67
108
116
117
144
164
179
206
234
261
304
360
418
484
563
633
683
726
736
645
453
243
67
-82
-201
-278
-315
-329
-330
-324
-313
-304
-300
-288
-271
-270
-275
-263
-244
-239
-243
-239
-234
-233
-230
-220
-210
-207
-205
-203
-208
-206
-192
-182
-174
-156
-141
-148
-161
-171
-172
-152
-139
-161
-149
-107
-134
-183
-271
-364
259
1688
2048
457
-919
-664
-112
-121
-100
29
-5
-13
58
55
39
77
98
104
134
151
148
172
223
256
281
330
392
460
541
614
665
707
714
617
424
218
44
-98
-204
-268
-303
-322
-320
-307
-304
-303
-289
-276
-274
-271
-260
-250
-243
-237
-228
-221
-221
-223
-223
-219
-206
-195
-198
-200
-193
-189
-188
-186
-177
-155
-138
-146
-146
-134
-154
-166
-131
-116
-128
-113
-119
-155
-245
-425
-85
1276
2205
1122
-553
-765
-186
-84
-140
-8
27
-3
43
56
42
73
89
80
105
138
144
161
201
238
268
309
364
426
482
531
587
653
681
627
498
318
116
-53
-159
-229
-284
-302
-295
-298
-297
-269
-259
-282
-281
-246
-237
-253
-252
-238
-226
-211
-210
-222
-214
-196
-198
-208
-206
-202
-205
-203
-193
-181
-167
-146
-133
-143
-161
-163
-159
-153
-141
-144
-138
-105
-124
-175
-244
-400
-82
1239
2131
1014
-641
-794
-194
-91
-125
9
11
-45
1
32
27
52
84
99
103
109
132
159
179
209
247
285
340
408
464
515
575
626
644
603
481
299
116
-36
-145
-207
-241
-271
-295
-297
-275
-261
-274
-274
-240
-220
-229
-226
-213
-218
-218
-205
-208
-218
-205
-187
-191
-191
-170
-165
-184
-191
-176
-162
-147
-129
-129
-140
-137
-130
-137
-135
-132
-141
-115
-86
-132
-188
-283
-277
525
1805
1676
-30
-1002
-519
-77
-127
-65
41
4
19
76
65
57
82
100
121
144
160
177
190
212
259
306
341
381
430
474
524
582
618
608
532
384
194
20
-102
-185
-243
-278
-289
-283
-271
-263
-258
-248
-242
-245
-237
-223
-223
-225
-212
-196
-198
-206
-202
-191
-184
-181
-181
-183
-185
-182
-180
-179
-168
-144
-121
-115
-123
-119
-119
-150
-164
-138
-124
-117
-101
-133
-163
-218
-386
-16
1341
2089
844
-689
-700
-142
-88
-101
11
-5
-22
35
38
30
61
71
69
91
117
136
156
180
209
234
255
294
357
416
457
503
553
571
529
411
233
60
-61
-153
-234
-280
-286
-285
-288
-284
-276
-265
-255
-251
-246
-236
-230
-226
-215
-202
-203
-219
-226
-210
-195
-198
-194
-181
-186
-197
-185
-169
-173
-171
-147
-127
-124
-129
-146
-153
-135
-129
-135
-102
-91
-140
-178
-299
-280
625
1852
1509
-170
-899
-374
-54
-118
-26
51
-2
14
55
49
72
106
108
115
137
157
172
190
218
251
278
311
361
415
461
494
521
552
557
482
338
192
65
-52
-144
-199
-228
-232
-218
-212
-214
-199
-174
-174
-188
-181
-159
-152
-153
-148
-147
-153
-144
-126
-126
-145
-148
-127
-112
-124
-136
-128
-114
-98
-76
-76
-97
-95
-83
-98
-102
-90
-106
-104
-75
-98
-134
-212
-292
269
1468
1636
187
-909
-596
-116
-122
-95
5
-28
-42
-1
-1
1
19
22
28
