# session 41
39
60
-7
-37
140
403
479
388
352
309
238
760
1950
2174
591
-862
-678
12
173
226
362
353
317
351
356
342
350
353
358
376
386
393
411
433
462
500
544
597
663
726
780
827
828
727
527
292
75
-100
-225
-302
-345
-369
-384
-390
-387
-381
-375
-368
-364
-361
-352
-345
-341
-335
-330
-333
-329
-315
-309
-311
-298
-282
-286
-293
-285
-288
-303
-306
-308
-314
-302
-294
-298
-275
-268
-288
-288
-391
-385
477
1679
1310
-521
-1432
-843
-284
-223
-120
-21
-55
-36
19
19
27
59
76
92
116
139
166
194
222
261
314
372
437
508
576
636
687
696
608
425
214
28
-118
-220
-280
-312
-326
-326
-318
-305
-296
-292
-283
-266
-254
-250
-240
-223
-216
-219
-210
-193
-186
-178
-156
-143
-151
-152
-142
-147
-155
-153
-158
-158
-141
-142
-146
-123
-130
-145
-158
-285
-85
1050
1977
986
-841
-1219
-469
-97
-78
45
98
69
109
139
130
151
176
184
204
228
248
279
312
342
384
442
504
573
647
713
767
800
762
614
395
175
-8
-144
-233
-284
-311
-320
-321
-318
-312
-307
-303
-293
-276
-268
-264
-254
-248
-248
-245
-241
-230
-216
-215
-217
-200
-183
-189
-191
-177
-179
-193
-197
-201
-200
-185
-190
-194
-158
-157
-197
-228
-332
-116
1022
2001
1044
-856
-1317
-568
-171
-145
-16
40
6
48
83
74
97
126
137
159
184
203
233
265
298
345
405
471
548
623
688
751
793
751
599
382
164
-20
-159
-250
-301
-328
-340
-340
-338
-336
-328
-312
-298
-286
-275
-267
-258
-245
-234
-230
-227
-221
-218
-210
-198
-198
-202
-186
-168
-171
-172
-157
-159
-176
-177
-179
-182
-172
-172
-173
-151
-158
-173
-185
-315
-152
932
1883
977
-837
-1280
-547
-140
-103
23
77
41
82
118
105
124
155
166
180
202
221
244
274
313
360
408
462
535
611
678
740
782
752
615
404
187
10
-122
-213
-268
-298
-311
-316
-314
-304
-289
-279
-272
-263
-254
-245
-237
-230
-224
-217
-211
-207
-208
-211
-210
-203
-195
-187
-178
-175
-170
-150
-135
-137
-133
-125
-136
-150
-148
-155
-163
-148
-143
-145
-129
-140
-156
-173
-297
-90
1033
1936
944
-869
-1243
-491
-113
-88
33
79
46
91
124
112
131
157
165
187
212
227
251
285
318
355
406
468
537
614
686
745
787
773
651
440
218
33
-109
-208
-270
-305
-317
-315
-314
-314
-302
-286
-276
-269
-258
-251
-245
-236
-231
-230
-230
-227
-222
-219
-219
-218
-210
-205
-206
-207
-198
-185
-181
-181
-170
-159
-159
-153
-131
-121
-123
-106
-92
-112
-134
-135
-137
-133
-123
-129
-116
-96
-123
-138
-202
-268
371
1674
1780
47
-1269
-878
-187
-81
-23
97
74
72
130
134
137
166
177
190
218
234
251
284
319
350
390
442
504
572
639
704
763
794
752
615
416
209
27
-114
-208
-262
-288
-299
-305
-304
-295
-287
-281
-271
-259
-249
-240
-234
-228
-222
-217
-213
-208
-202
-196
-194
-194
-192
-188
-186
-183
-181
-178
-168
-158
-160
-166
-167
-162
-154
-145
-140
-135
-128
-128
-129
-121
-116
-113
-89
-65
-82
-110
-114
-116
-117
-108
-114
-109
-89
-118
-143
-154
-154
391
1552
1716
87
-1317
-1033
-299
-131
-61
79
69
55
117
135
135
159
176
193
221
241
260
284
309
342
387
437
490
550
617
687
749
787
774
673
485
266
74
-73
-183
-255
-292
-305
-314
-321
-316
-302
-292
-285
-271
-253
-240
-228
-217
-211
-210
-209
-205
-202
-204
-209
-207
-200
-197
-201
-203
-201
-196
-189
-186
-181
-165
-158
-165
-154
-129
-128
-126
-101
-99
-130
-144
-142
-142
-133
-132
-136
-115
-115
-135
-147
-252
-113
900
1899
1133
-697
-1273
-567
-110
-74
38
100
58
90
133
127
144
171
175
191
220
239
256
287
325
363
405
460
530
602
669
734
786
796
719
541
317
112
-54
-176
-245
-283
-311
-323
-316
-313
-314
-303
-286
-276
-270
-259
-248
-242
-236
-229
-222
-218
-215
-212
-211
-209
-202
-194
-196
-196
-189
-182
-181
-179
-173
-168
-163
-159
-156
-154
-150
-138
-128
-130
-124
-101
-92
-96
-77
-61
-84
-107
-110
-113
-109
-101
-108
-100
-91
-115
-123
-188
-190
541
1728
1546
-239
-1317
-784
-146
-70
10
123
90
94
146
142
146
178
188
199
227
250
269
294
323
358
400
449
506
574
648
716
771
808
786
663
461
244
54
-93
-195
-261
-298
-313
-315
-312
-307
-303
-294
-282
-271
-262
-256
-251
-242
-229
-223
-225
-223
-215
-212
-211
-204
-201
-205
-201
-190
-188
-192
-189
-179
-176
-175
-169
-165
-165
-159
-144
-132
-132
-131
-115
-102
-103
-90
-69
-80
-107
-110
-112
-123
-115
-114
-118
-95
-100
-130
-144
-221
14
1080
1898
863
-937
-1263
-466
-71
-55
56
99
69
110
139
134
159
180
188
211
231
247
276
308
332
366
420
482
540
598
666
731
780
797
740
582
368
163
-8
-141
-231
-283
-311
-322
-321
-313
-305
-298
-293
-290
-284
-268
-249
-236
-232
-232
-229
-224
-220
-216
-212
-204
-198
-200
-200
-191
-186
-188
-182
-175
-174
-166
-155
-157
-160
-150
-144
-141
-126
-121
-132
-119
-97
-91
-76
-56
-78
-112
-112
-114
-122
-106
-106
-119
-91
-94
-138
-159
-226
50
1183
1969
803
-1020
-1247
-434
-104
-92
49
94
52
89
120
120
148
173
186
212
236
254
283
313
339
374
426
486
549
612
672
731
782
794
727
575
371
160
-16
-139
-225
-285
-311
-312
-313
-319
-316
-303
-290
-281
-272
-261
-249
-242
-237
-226
-219
-224
-224
-211
-204
-210
-212
-207
-204
-199
-193
-191
-194
-194
-186
-174
-172
-172
-161
-148
-142
-126
-116
-123
-106
-71
-89
-135
-138
-123
-125
-121
-129
-143
-107
-97
-146
-162
-234
-99
938
2015
1194
-789
-1355
-539
-81
-86
30
89
40
83
124
105
128
165
169
183
206
221
248
284
309
339
385
441
506
571
623
679
741
764
708
572
382
176
-1
-129
-215
-266
-293
-309
-309
-294
-287
-290
-280
-260
-250
-251
-250
-243
-232
-223
-223
-228
-225
-217
-213
-215
-212
-205
-203
-198
-191
-190
-187
-175
-170
-176
-165
-145
-148
-150
-123
-106
-109
-92
-74
-99
-128
-125
-128
-132
-121
-136
-140
-95
-113
-164
-171
-264
26
1289
2100
770
-1100
-1196
-351
-88
-87
55
74
42
98
113
99
131
155
163
185
208
229
256
283
315
356
402
456
519
586
650
707
750
765
705
549
340
139
-29
-152
-230
-281
-310
-321
-322
-316
-302
-292
-289
-280
-267
-263
-260
-251
-239
-232
-236
-243
-236
-220
-213
-212
-212
-211
-202
-191
-193
-192
-177
-169
-171
-157
-137
-138
-132
-105
-107
-139
-152
-152
-166
-158
-143
-155
-144
-124
-159
-191
-249
-180
636
1747
1316
-579
-1498
-821
-193
-131
-30
85
58
73
122
126
145
175
182
198
231
256
282
319
357
392
435
494
564
636
707
775
831
851
791
628
401
177
-10
-150
-243
-298
-326
-336
-339
-337
-330
-321
-310
-296
-285
-277
-267
-254
-246
-241
-235
-228
-222
-220
-222
-222
-214
-208
-211
-211
-194
-179
-182
-176
-147
-135
-144
-129
-109
-131
-163
-161
-160
-166
-154
-152
-153
-128
-140
-172
-187
-283
-34
1112
1932
785
-1040
-1271
-439
-84
-76
42
71
35
85
115
105
130
153
156
179
209
224
245
282
317
353
400
460
525
594
662
719
762
765
686
518
305
101
-61
-175
-247
-291
-312
-317
-314
-308
-299
-288
-277
-268
-258
-247
-244
-242
-234
-228
-225
-221
-216
-213
-211
-208
-205
-201
-199
-188
-168
-163
-165
-144
-122
-128
-125
-105
-119
-152
-153
-148
-154
-143
-142
-159
-140
-131
-163
-178
-272
-167
845
1959
1219
-766
-1415
-610
-96
-96
2
80
41
63
102
98
116
140
147
175
206
210
219
252
294
337
381
428
489
567
638
689
731
757
707
549
339
148
-12
-146
-234
-278
-303
-315
-315
-310
-303
-294
-287
-275
-260
-251
-247
-241
-236
-236
-233
-224
-218
-220
-223
-220
-211
-204
-204
-198
-183
-176
-170
-151
-139
-142
-130
-112
-124
-149
-155
-155
-152
-144
-154
-156
-129
-139
-166
-192
-282
26
1170
1864
650
-1098
-1276
-481
-133
-85
52
85
53
99
126
120
150
179
184
200
227
249
275
312
354
395
442
507
586
664
734
800
845
828
714
506
265
60
-89
-196
-272
-324
-353
-348
-324
-320
-329
-312
-285
-286
-293
-267
-244
-253
-259
-248
-241
-228
-202
-196
-215
-230
-230
-218
-211
-212
-203
-187
-181
-176
-164
-145
-119
-115
-150
-180
-182
-184
-181
-167
-170
-162
-127
-144
-183
-207
-331
-126
1006
1921
924
-886
-1246
-504
-133
-83
51
73
26
74
104
93
112
127
137
171
194
207
248
292
318
361
426
485
554
644
722
771
800
782
685
509
284
85
-43
-142
-241
-307
-322
-308
-283
-276
-301
-307
-266
-238
-252
-253
-233
-232
-241
-240
-226
-201
-183
-188
-197
-199
-195
-181
-177
-195
-193
-165
-154
-155
-146
-143
-133
-106
-100
-112
-88
-59
-89
-124
-109
-111
-145
-140
-129
-149
-123
-83
-116
-152
-230
-157
769
1971
1469
-493
-1353
-666
-139
-141
-38
76
43
54
97
100
118
136
133
155
184
193
221
261
283
315
367
411
459
532
609
675
731
745
673
526
350
167
-1
-130
-222
-275
-293
-319
-350
-331
-300
-321
-337
-308
-287
-281
-252
-227
-234
-230
-207
-211
-225
-209
-204
-226
-213
-174
-178
-201
-191
-172
-170
-163
-157
-172
-169
-107
-67
-120
-171
-138
-112
-144
-152
-136
-152
-147
-120
-141
-183
-250
-144
681
1734
1348
-373
-1252
-717
-177
-106
-23
47
14
50
111
102
98
124
146
164
177
198
228
238
261
327
381
411
477
559
605
650
703
698
622
500
327
135
0
-90
-186
-250
-250
-250
-282
-288
-258
-261
-285
-260
-211
-209
-224
-209
-189
-190
-188
-179
-180
-184
-173
-162
-174
-185
-172
-161
-169
-170
-155
-143
-144
-154
-153
-131
-122
-131
-108
-72
-88
-127
-122
-107
-118
-117
-109
-127
-118
-84
-104
-144
-211
-170
568
1696
1516
-138
-1126
-674
-144
-95
-36
46
25
45
84
72
78
107
121
143
168
172
181
210
239
267
308
355
411
479
540
588
636
664
623
505
339
165
14
-99
-176
-227
-253
-262
-268
-277
-279
-271
-268
-265
-247
-224
-216
-213
-200
-189
-185
-179
-176
-182
-181
-168
-163
-172
-175
-165
-162
-162
-155
-148
-149
-149
-143
-136
-134
-139
-137
-123
-114
-107
-81
-63
-84
-113
-115
-109
-106
-102
-110
-110
-87
-100
-136
-164
-235
70
1170
1889
849
-726
-942
-336
-118
-107
1
17
0
54
72
61
89
120
134
148
159
175
199
220
247
286
332
387
447
499
553
617
666
665
598
462
281
106
-29
-128
-205
-258
-280
-280
-279
-285
-287
-277
-271
-268
-254
-237
-226
-216
-207
-200
-190
-184
-188
-186
-176
-172
-173
-170
-168
-169
-167
-161
-156
-153
-153
-155
-146
-128
-126
-126
-95
-70
-98
-130
-121
-116
-129
-129
-131
-127
-95
-96
-130
-180
-315
-90
1065
2028
1146
-560
-954
-357
-116
-132
-10
36
6
49
79
73
91
101
100
124
152
169
189
216
245
284
336
397
451
503
568
638
694
711
635
462
268
97
-56
-169
-231
-267
-286
-288
-295
-303
-293
-280
-277
-264
-251
-252
-247
-228
-216
-207
-190
-185
-195
-197
-189
-192
-196
-187
-175
-171
-173
-178
-178
-168
-157
-151
-143
-133
-139
-150
-137
-121
-122
-108
-73
-71
-106
-127
-121
-110
-99
-100
-107
-85
-73
-109
-140
-231
-226
565
1800
1656
-27
-1022
-569
-82
-85
-39
52
30
45
89
80
82
117
133
134
146
175
206
226
245
275
314
365
422
481
552
625
670
689
676
578
397
212
63
-63
-158
-216
-255
-263
-255
-292
-335
-288
-196
-158
-184
-240
-258
-182
-119
-177
-248
-226
-191
-193
-191
-186
-198
-198
-177
-169
-182
-184
-171
-170
-181
-172
-150
-154
-164
-153
-147
-159
-153
-133
-132
-119
-66
-51
-104
-130
-107
-108
-114
-92
-94
-107
-115
-140
-121
-148
-223
334
1525
1641
133
-962
-616
-117
-110
-67
41
15
18
71
60
55
94
97
84
117
160
173
179
198
227
257
288
322
371
422
458
487
527
543
487
374
237
88
-30
-86
-126
-182
-216
-218
-215
-208
-196
-191
-182
-161
-164
-185
-178
-150
-135
-135
-143
-151
-139
-123
-128
-139
-137
-133
-131
-125
-115
-110
-112
-117
-120
-119
-106
-90
-92
-103
-93
-78
-71
-58
-45
-46
-46
-49
-77
-101
-87
-73
-76
-53
-51
-106
-118
-147
-138
477
1462
1296
-141
-962
-560
-143
-115
-31
50
3
6
50
45
52
81
87
94
112
121
136
160
180
206
240
260
282
320
352
377
415
449
453
419
330
201
81
-15
-101
-167
-193
-200
-206
-202
-188
-191
-206
-197
-176
-182
-190
-169
-153
-163
-163
-153
-154
-151
-139
-135
-135
-141
-148
-146
-135
-124
-122
-130
-126
-113
-105
-80
-67
-112
-135
-93
-81
-107
-91
-46
-35
-60
-88
-100
-98
-94
-95
-97
-69
-41
-80
-121
-133
-169
153
1058
1451
434
-772
-818
-302
-99
-59
8
12
9
46
59
52
57
66
78
99
129
148
147
148
170
200
233
274
313
340
370
411
442
454
446
384
270
161
76
-13
-91
-135
-163
-177
-169
-166
-179
-176
-159
-155
-153
-135
-116
-120
-135
-136
-115
-98
-96
-95
-90
-92
-95
-93
-86
-79
-74
-74
-74
-68
-54
-46
-59
