# session 17
-30
-40
24
-79
-383
-536
-410
-236
-133
-51
8
10
-17
-59
-158
-311
-429
-481
-520
-554
-553
-545
-544
-520
-480
-464
-461
-445
-407
-369
-365
-375
-354
-328
-326
-311
-277
-264
-269
-258
-229
-201
-181
-164
-150
-144
-146
-133
-97
-86
-100
-78
-54
-64
-122
-366
-395
615
1830
1313
-363
-925
-361
-73
-102
13
105
109
144
157
153
210
287
343
417
529
633
694
735
765
742
652
535
404
260
138
73
29
-40
-99
-98
-70
-80
-108
-94
-63
-76
-95
-76
-69
-98
-113
-100
-88
-84
-85
-101
-117
-122
-121
-120
-109
-76
-42
-60
-100
-75
-43
-83
-89
-46
-72
-107
-229
-529
-165
1264
1893
506
-907
-754
-210
-170
-132
-17
-46
-30
49
42
47
116
161
201
284
372
446
510
550
561
529
442
323
192
68
-28
-116
-204
-247
-238
-223
-225
-231
-237
-234
-219
-204
-200
-213
-224
-217
-214
-224
-220
-218
-235
-220
-179
-193
-223
-189
-150
-169
-187
-166
-150
-148
-123
-117
-163
-167
-265
-570
-267
1098
1793
542
-852
-776
-263
-218
-177
-41
-45
-29
36
18
25
107
157
188
262
355
447
534
579
561
505
430
326
189
44
-76
-134
-119
-119
-200
-260
-227
-200
-218
-215
-203
-210
-191
-156
-173
-214
-209
-171
-144
-128
-113
-105
-115
-144
-163
-139
-102
-109
-129
-106
-85
-115
-111
-66
-80
-130
-258
-412
120
1384
1603
58
-1156
-805
-221
-192
-131
40
40
33
119
153
143
173
222
284
413
564
640
712
847
849
633
434
348
226
76
-10
-75
-153
-212
-237
-226
-209
-220
-228
-186
-134
-146
-202
-220
-190
-167
-179
-215
-230
-198
-172
-183
-178
-152
-151
-154
-133
-124
-134
-151
-180
-169
-114
-116
-171
-302
-452
41
1256
1519
50
-1198
-909
-288
-208
-167
-4
28
12
55
96
116
153
228
304
350
441
601
697
694
690
664
523
335
204
84
-78
-180
-169
-170
-241
-259
-209
-203
-231
-206
-168
-176
-195
-195
-197
-192
-173
-164
-167
-182
-211
-197
-134
-132
-189
-202
-184
-175
-151
-138
-144
-134
-138
-135
-188
-444
-283
953
1876
822
-836
-1027
-398
-195
-155
-20
-22
-47
17
37
44
118
201
247
287
366
485
588
656
695
659
528
354
199
86
-24
-143
-199
-194
-224
-281
-282
-237
-212
-213
-201
-166
-149
-164
-173
-172
-189
-207
-188
-141
-120
-154
-200
-192
-131
-94
-122
-161
-163
-152
-148
-121
-94
-124
-135
-194
-468
-311
981
2003
986
-728
-949
-306
-170
-219
-46
24
-29
-14
23
60
119
167
219
294
375
489
622
681
660
625
558
416
257
124
2
-94
-153
-204
-245
-259
-262
-255
-233
-208
-185
-174
-195
-212
-182
-157
-183
-201
-180
-169
-173
-167
-178
-194
-163
-134
-157
-166
-139
-144
-158
-133
-115
-118
-124
-129
-136
-332
-557
172
1715
1892
169
-1027
-656
-196
-216
-132
-14
-52
-38
24
45
89
130
151
222
326
425
549
665
714
696
621
506
362
198
62
-25
-115
-202
-232
-236
-257
-263
-253
-259
-251
-211
-185
-176
-162
-168
-197
-198
-174
-172
-184
-175
-161
-154
-150
-159
-183
-187
-183
-200
-184
-120
-104
-143
-145
-115
-113
-126
-110
-76
-102
-154
-159
-344
-543
295
1892
1964
150
-1022
-641
-213
-239
-141
-5
-36
-52
-16
12
63
116
163
244
350
464
575
652
690
710
688
590
429
266
136
12
-99
-164
-209
-264
-286
-261
-246
-248
-228
-196
-179
-160
-136
-137
-164
-173
-153
-153
-179
-178
-148
-141
-153
-159
-177
-195
-167
-140
-165
-178
-125
-79
-95
-129
-117
-69
-57
-77
-77
-102
-145
-231
-460
-218
1131
2097
936
-835
-1000
-332
-197
-214
-39
-17
-76
6
84
64
62
132
216
272
349
480
602
670
710
715
656
542
390
213
50
-55
-112
-168
-243
-286
-257
-202
-196
-225
-224
-211
-225
-209
-157
-167
-214
-206
-177
-174
-178
-193
-191
-151
-138
-172
-179
-167
-179
-175
-145
-159
-179
-138
-117
-163
-177
-130
-102
-111
-133
-143
-128
-104
-73
-57
-86
-147
-335
-437
379
1766
1671
-126
-1203
-742
-241
-197
-70
42
-1
38
116
99
110
193
252
294
377
496
615
715
794
832
792
677
527
361
188
51
-40
-128
-200
-227
-250
-292
-292
-238
-195
-182
-170
-163
-164
-155
-143
-159
-191
-203
-193
-180
-175
-176
-180
-193
-199
-172
-141
-158
-187
-175
-144
-135
-141
-140
-127
-113
-116
-118
-111
-128
-136
-191
-420
-267
933
1939
973
-833
-1201
-518
-241
-239
-64
35
5
16
46
74
123
184
259
336
402
500
643
766
818
800
718
567
368
183
46
-67
-165
-223
-251
-288
-319
-313
-291
-266
-226
-209
-235
-244
-220
-208
-204
-195
-198
-187
-172
-200
-229
-212
-198
-199
-175
-158
-167
-150
-121
-141
-174
-155
-131
-132
-91
-75
-154
-165
-222
-441
107
1677
2102
356
-1129
-848
-260
-209
-125
-19
-75
-38
38
0
18
124
178
212
301
418
540
650
721
749
721
627
495
335
161
25
-71
-179
-276
-309
-304
-301
-298
-281
-248
-227
-240
-241
-211
-206
-225
-212
-183
-178
-188
-190
-190
-196
-210
-213
-185
-144
-126
-134
-141
-121
-99
-112
-141
-132
-91
-82
-101
-91
-92
-125
-116
-230
-322
500
1860
1651
-182
-1151
-647
-224
-232
-118
-11
-3
68
66
-24
4
110
184
262
361
473
586
663
726
787
779
675
518
343
198
107
9
-111
-175
-162
-159
-196
-195
-125
-53
-15
14
21
-19
-74
-96
-81
-75
-109
-151
-163
-161
-172
-175
-170
-186
-214
-220
-212
-223
-250
-248
-214
-213
-229
-208
-213
-257
-329
-505
-279
935
1853
797
-958
-1232
-579
-370
-359
-181
-129
-160
-76
3
-4
-8
36
99
161
255
400
537
632
706
724
639
487
312
130
-39
-181
-287
-340
-358
-377
-389
-389
-396
-388
-350
-323
-312
-287
-275
-292
-282
-243
-252
-299
-304
-281
-282
-277
-257
-264
-268
-211
-147
-156
-183
-128
-51
-69
-94
-33
-9
-24
-46
-205
71
1465
2514
1390
-435
-668
-16
139
157
364
388
307
350
377
339
350
406
460
521
589
661
740
811
861
887
839
671
455
285
136
-30
-161
-236
-284
-303
-300
-287
-249
-235
-288
-315
-258
-209
-215
-240
-270
-274
-235
-229
-268
-273
-251
-256
-269
-265
-245
-204
-157
-141
-183
-250
-261
-233
-227
-211
-233
-309
-345
-483
-491
481
1749
1254
-588
-1318
-756
-418
-432
-305
-233
-286
-264
-218
-202
-144
-73
-41
1
81
181
295
408
469
473
479
481
416
316
216
57
-128
-210
-224
-254
-255
-219
-221
-256
-281
-304
-327
-343
-346
-306
-234
-203
-213
-195
-142
-124
-156
-177
-154
-127
-133
-154
-147
-100
-49
-37
-52
-27
20
24
47
100
76
30
-60
-227
301
1798
2325
713
-868
-722
-108
-25
46
210
204
202
268
270
258
299
355
394
413
469
613
771
847
866
878
828
648
415
232
75
-69
-156
-207
-250
-275
-307
-340
-316
-277
-291
-310
-277
-245
-250
-252
-238
-234
-240
-234
-222
-226
-247
-249
-220
-208
-234
-256
-268
-271
-245
-220
-231
-209
-168
-202
-238
-316
-488
16
1483
2013
439
-1109
-957
-381
-332
-238
-59
-102
-131
-73
-94
-101
-44
-34
-8
127
264
333
430
562
616
603
583
470
252
81
-23
-153
-267
-303
-314
-319
-302
-294
-300
-274
-228
-204
-191
-177
-176
-174
-162
-152
-142
-131
-126
-126
-131
-135
-117
-96
-112
-127
-93
-61
-79
-91
-67
-64
-64
-32
-49
-97
-149
-336
-146
1129
2204
1200
-680
-1077
-427
-184
-197
-61
-4
-23
18
52
71
109
140
189
276
366
460
579
691
749
752
721
631
474
306
159
9
-118
-182
-221
-260
-277
-277
-271
-253
-238
-237
-228
-217
-215
-211
-207
-212
-210
-197
-196
-204
-203
-199
-200
-194
-182
-175
-172
-163
-149
-145
-157
-155
-140
-145
-128
-96
-137
-175
-230
-415
-39
1343
2000
574
-1028
-970
-338
-234
-192
-31
-22
-25
51
73
70
112
170
232
310
397
501
634
763
830
823
781
697
536
331
165
54
-49
-151
-202
-206
-213
-225
-215
-204
-218
-243
-256
-260
-270
-287
-304
-320
-330
-330
-336
-350
-352
-334
-300
-264
-247
-240
-226
-222
-225
-212
-197
-179
-147
-129
-119
-110
-142
-185
-306
-464
130
1603
1998
345
-1131
-895
-288
-251
-206
-28
-2
6
72
92
95
121
164
248
337
414
535
689
795
840
840
776
647
473
279
102
-26
-116
-196
-264
-289
-274
-271
-290
-279
-231
-211
-229
-231
-203
-185
-190
-194
-191
-199
-212
-212
-209
-210
-204
-184
-160
-156
-171
-186
-193
-167
-124
-131
-124
-39
-46
-182
-336
-541
-232
1188
2193
1008
-807
-1012
-386
-253
-237
-67
-65
-100
-16
33
53
109
143
172
248
337
439
570
678
733
755
739
642
467
282
138
5
-122
-191
-216
-243
-258
-253
-259
-265
-249
-216
-187
-185
-200
-200
-193
-193
-184
-182
-191
-184
-176
-189
-195
-184
-169
-151
-146
-160
-157
-141
-141
-152
-157
-130
-102
-137
-160
-220
-443
-134
1228
1994
692
-930
-956
-351
-252
-222
-57
-56
-89
-18
31
55
96
118
157
248
340
418
524
639
719
748
712
608
463
296
120
-26
-114
-171
-229
-271
-278
-272
-268
-261
-257
-248
-219
-198
-205
-210
-197
-193
-199
-198
-184
-163
-161
-187
-195
-159
-139
-167
-179
-143
-119
-130
-135
-122
-105
-103
-124
-115
-88
-120
-165
-299
-478
160
1707
2071
351
-1087
-816
-261
-239
-171
-35
-41
0
63
34
39
109
155
201
290
403
520
636
742
811
822
775
659
477
289
133
-4
-119
-198
-252
-282
-290
-298
-308
-299
-264
-234
-239
-257
-245
-212
-198
-203
-212
-216
-213
-215
-223
-215
-195
-192
-194
-185
-186
-198
-191
-167
-155
-169
-172
-138
-138
-174
-222
-418
-357
760
1993
1343
-509
-1139
-560
-268
-276
-112
-21
-59
-14
42
33
52
118
191
258
318
405
544
681
769
811
791
691
538
361
170
1
-118
-195
-233
-258
-292
-305
-287
-286
-294
-262
-223
-226
-239
-230
-210
-198
-202
-206
-196
-200
-218
-210
-182
-179
-189
-181
-161
-150
-157
-164
-151
-131
-132
-112
-74
-122
-185
-200
-384
-294
926
2162
1364
-523
-1046
-453
-224
-242
-81
-17
-48
7
41
35
83
135
168
233
324
422
540
654
728
766
771
712
554
344
178
71
-45
-168
-231
-240
-256
-285
-294
-274
-240
-220
-227
-221
-201
-207
-213
-180
-160
-183
-198
-184
-176
-189
-200
-185
-168
-184
-191
-159
-136
-130
-125
-139
-149
-147
-150
-122
-101
-150
-194
-328
-445
320
1759
1781
14
-1129
-733
-267
-261
-164
-57
-101
-68
19
17
20
75
115
155
234
338
457
573
656
713
739
699
592
445
284
133
3
-101
-174
-230
-263
-256
-242
-254
-247
-207
-192
-218
-224
-197
-188
-208
-207
-179
-168
-185
-196
-190
-183
-179
-169
-165
-166
-150
-127
-127
-127
-120
-139
-158
-142
-124
-100
-83
-113
-164
-338
-485
284
1801
1917
107
-1148
-757
-252
-258
-155
-6
-33
-12
53
46
63
117
147
205
299
389
505
651
748
785
799
764
644
467
280
115
-13
-111
-189
-243
-283
-316
-322
-302
-281
-265
-254
-243
-225
-217
-225
-218
-205
-206
-203
-201
-216
-219
-194
-183
-195
-189
-167
-160
-175
-203
-213
-168
-125
-144
-155
-143
-178
-208
-312
-495
66
1550
1982
347
-1127
-880
-268
-240
-205
-44
-47
-51
19
36
52
110
151
192
278
387
498
608
705
768
779
732
621
461
291
131
-13
-122
-189
-233
-279
-308
-295
-272
-276
-272
-231
-204
-216
-221
-199
-183
-189
-196
-187
-178
-184
-187
-179
-177
-180
-172
-162
-156
-149
-144
-140
-136
-146
-138
-101
-104
-128
-92
-73
-109
-180
-407
-292
970
2187
1332
-559
-1043
-447
-232
-233
-54
-4
-61
-13
45
58
84
110
157
239
311
390
511
628
718
791
797
708
582
434
246
80
-24
-119
-206
-233
-229
-249
-269
-259
-246
-244
-235
-220
-205
-184
-175
-192
-207
-190
-164
-172
-201
-212
-211
-218
-201
-166
-168
-190
-172
-141
-143
-155
-160
-157
-140
-143
-154
-132
-134
-166
-265
-476
-117
1276
2037
706
-935
-965
-370
-272
-225
-65
-87
-114
-25
13
12
57
106
142
199
281
387
503
613
714
771
744
650
524
370
199
46
-73
-165
-229
-258
-268
-286
-297
-281
-258
-247
-241
-230
-216
-214
-222
-216
-201
-204
-213
-205
-199
-208
-212
-199
-181
-165
-159
-172
-194
-184
-148
-153
-183
-165
-144
-167
-141
-99
-148
-202
-328
-462
275
1791
1926
95
-1195
-791
-249
-250
-159
2
-12
-7
49
52
76
146
189
215
287
407
536
655
768
840
850
821
725
532
319
163
41
-65
-138
-188
-221
-231
-235
-248
-252
-232
-207
-188
-167
-149
-141
-130
-114
-116
-145
-173
-174
-152
-145
-159
-153
-127
-131
-151
-134
-101
-117
-154
-122
-56
-81
-141
-103
-70
-122
-190
-347
-228
911
2104
1356
-571
-1171
-512
-202
-253
-113
-15
-50
-3
68
76
95
132
163
230
335
434
541
677
766
773
770
749
617
408
223
63
-76
-152
-187
-244
-311
-345
-337
-314
-305
-306
-295
-277
-259
-248
-262
-277
-265
-267
-302
-304
-276
-286
-311
-298
-279
-287
-290
-272
-264
-274
-284
-283
-264
-243
-254
-253
-216
-246
-301
-331
-507
-303
1002
1995
840
-980
-1170
-481
-305
-283
-119
-141
-195
-98
-58
-69
35
155
174
187
269
382
505
613
680
730
764
723
610
469
299
127
-3
-117
-216
-239
-217
-225
-241
-227
-197
-163
-127
-100
-85
-78
-60
-14
25
25
16
24
34
