# session 33
-32
-43
-12
1
-85
-213
-274
-279
-286
-291
-286
-283
-274
-254
-239
-233
-223
-211
-203
-196
-189
-185
-177
-165
-161
-160
-156
-153
-151
-143
-136
-134
-133
-127
-117
-109
-100
-74
-53
-69
-86
-79
-82
-88
-75
-80
-90
-54
-50
-100
-126
-236
-153
818
1899
1314
-340
-872
-299
-18
-71
10
55
18
50
75
63
84
106
105
120
143
156
174
195
217
242
272
310
357
399
436
476
512
528
507
432
309
168
39
-59
-124
-169
-198
-209
-211
-209
-204
-199
-195
-191
-185
-180
-179
-183
-183
-173
-166
-166
-165
-163
-162
-163
-160
-158
-160
-157
-148
-144
-143
-145
-155
-159
-143
-129
-131
-118
-88
-88
-113
-119
-116
-123
-115
-110
-127
-109
-89
-134
-166
-244
-284
418
1636
1552
-80
-1048
-577
-96
-113
-62
33
0
3
50
55
64
82
83
100
128
141
158
186
209
231
268
310
351
395
446
496
536
562
557
494
365
207
63
-56
-147
-204
-235
-255
-261
-254
-249
-248
-242
-231
-225
-219
-207
-197
-195
-195
-188
-182
-180
-181
-182
-178
-173
-174
-172
-161
-156
-164
-158
-136
-135
-141
-116
-89
-106
-130
-129
-130
-132
-115
-117
-127
-101
-103
-138
-164
-289
-147
880
1809
992
-652
-998
-342
-70
-102
-1
41
5
41
68
59
77
99
103
115
134
154
177
195
216
252
291
330
379
432
481
524
556
566
528
424
275
127
2
-99
-169
-207
-225
-236
-242
-240
-230
-218
-212
-211
-205
-196
-191
-186
-176
-168
-167
-165
-160
-156
-154
-150
-148
-148
-144
-141
-141
-135
-129
-134
-140
-129
-116
-118
-109
-76
-62
-84
-97
-91
-98
-101
-92
-102
-99
-68
-89
-128
-164
-278
39
1194
1823
650
-809
-809
-195
-77
-95
13
14
-12
36
52
46
65
76
82
101
115
128
147
164
184
215
249
287
332
373
407
445
484
500
468
380
255
125
7
-89
-155
-195
-218
-228
-227
-223
-219
-215
-208
-200
-195
-193
-185
-174
-169
-169
-162
-153
-154
-157
-154
-149
-148
-146
-144
-145
-148
-141
-131
-137
-146
-132
-117
-120
-106
-72
-68
-96
-105
-101
-111
-105
-90
-105
-101
-76
-110
-135
-168
-265
177
1372
1723
323
-950
-714
-133
-83
-71
36
17
9
62
63
56
82
94
99
118
133
148
168
190
221
254
280
317
370
416
454
494
529
534
489
385
243
104
-13
-104
-167
-201
-218
-225
-226
-228
-229
-221
-210
-203
-197
-189
-183
-180
-176
-173
-172
-174
-173
-167
-160
-165
-169
-165
-162
-158
-143
-139
-153
-150
-132
-133
-134
-106
-90
-109
-121
-120
-133
-134
-118
-125
-128
-99
-114
-149
-174
-241
101
1169
1655
425
-993
-933
-268
-107
-98
23
32
10
60
75
66
91
110
117
133
153
171
195
221
248
278
309
353
411
465
503
537
572
585
537
420
268
120
-8
-107
-173
-214
-239
-251
-252
-245
-236
-231
-230
-226
-218
-207
-196
-188
-183
-178
-177
-173
-166
-165
-167
-165
-164
-159
-145
-143
-154
-149
-135
-140
-141
-112
-93
-112
-127
-122
-129
-134
-119
-124
-129
-102
-112
-144
-164
-268
-42
1008
1740
730
-802
-946
-288
-81
-95
21
41
3
44
67
57
77
97
103
119
135
151
176
199
218
249
288
328
375
428
475
516
550
559
511
400
255
109
-22
-123
-187
-219
-237
-247
-248
-238
-230
-224
-215
-210
-211
-206
-195
-190
-189
-183
-172
-164
-167
-172
-166
-161
-162
-156
-149
-154
-154
-138
-133
-142
-127
-97
-97
-121
-126
-123
-131
-126
-118
-127
-112
-92
-124
-148
-223
-266
394
1579
1545
-27
-1018
-584
-89
-95
-53
41
7
8
53
47
49
78
85
93
115
130
142
166
195
222
252
293
341
388
437
483
513
526
513
443
309
157
26
-80
-160
-209
-237
-250
-251
-248
-242
-233
-225
-221
-213
-204
-197
-189
-179
-176
-177
-176
-172
-168
-162
-154
-150
-151
-151
-146
-142
-149
-142
-112
-104
-125
-131
-127
-136
-133
-118
-128
-121
-96
-122
-147
-202
-297
187
1372
1652
241
-969
-698
-125
-77
-65
36
15
3
51
53
49
75
90
98
115
127
141
162
186
211
239
275
322
375
419
452
484
509
505
445
324
177
43
-69
-152
-201
-228
-247
-253
-248
-243
-236
-223
-213
-210
-202
-189
-185
-187
-183
-176
-172
-168
-163
-156
-148
-145
-152
-155
-152
-147
-128
-105
-108
-121
-122
-126
-125
-114
-123
-120
-89
-114
-147
-166
-263
48
1154
1709
515
-894
-839
-202
-74
-87
20
19
-8
37
51
44
64
76
79
97
117
133
152
173
196
222
255
297
342
384
425
462
482
475
425
322
186
55
-54
-137
-190
-218
-236
-242
-238
-232
-225
-215
-207
-204
-198
-191
-184
-177
-174
-177
-173
-163
-158
-155
-151
-154
-157
-155
-151
-133
-104
-102
-121
-126
-125
-124
-110
-114
-122
-89
-88
-129
-147
-235
-78
869
1674
840
-693
-955
-310
-61
-95
-3
30
-4
31
54
42
59
79
81
93
109
120
139
163
185
208
240
278
316
358
402
436
457
458
421
330
203
78
-27
-111
-168
-198
-215
-226
-225
-213
-203
-199
-195
-186
-178
-173
-168
-164
-161
-157
-154
-151
-147
-143
-137
-136
-143
-143
-127
-117
-120
-109
-92
-96
-104
-106
-118
-124
-107
-109
-119
-87
-87
-127
-143
-242
-135
794
1691
945
-641
-989
-338
-58
-95
-5
30
-8
28
57
46
62
81
82
98
121
131
145
171
194
217
255
305
346
378
414
456
490
499
457
358
231
101
-18
-111
-173
-213
-238
-247
-244
-233
-224
-221
-216
-206
-199
-193
-186
-186
-189
-186
-183
-185
-183
-172
-158
-153
-155
-154
-155
-154
-138
-126
-136
-139
-129
-132
-134
-124
-127
-117
-99
-132
-152
-161
-191
267
1310
1467
26
-1173
-860
-212
-112
-82
39
33
18
63
71
71
97
108
118
145
164
175
195
223
253
284
316
356
407
454
488
523
551
526
432
299
157
25
-82
-159
-211
-241
-252
-255
-256
-255
-246
-231
-216
-208
-200
-192
-186
-179
-168
-162
-162
-160
-155
-151
-147
-146
-151
-152
-147
-145
-136
-120
-121
-130
-127
-128
-131
-119
-120
-121
-95
-101
-131
-157
-273
-110
864
1656
803
-708
-944
-296
-49
-79
22
58
19
48
74
66
85
104
105
118
137
147
165
193
221
247
276
317
370
423
466
504
537
537
476
353
202
57
-64
-156
-210
-232
-244
-254
-255
-248
-239
-229
-222
-218
-208
-195
-188
-185
-174
-166
-170
-168
-157
-160
-172
-164
-150
-156
-161
-142
-135
-150
-142
-109
-107
-127
-126
-124
-140
-136
-118
-124
-115
-94
-117
-135
-198
-284
244
1409
1575
119
-1002
-665
-110
-79
-58
44
20
8
55
60
60
89
103
106
120
132
147
173
196
214
241
281
326
370
413
450
482
503
491
422
299
155
26
-76
-154
-203
-223
-231
-240
-243
-234
-222
-212
-200
-189
-184
-178
-167
-160
-160
-160
-152
-144
-145
-145
-142
-145
-145
-142
-139
-128
-120
-133
-136
-113
-102
-103
-82
-68
-89
-102
-99
-106
-103
-92
-105
-97
-70
-102
-131
-168
-280
109
1265
1691
387
-911
-737
-146
-75
-68
48
36
12
58
64
59
84
95
96
115
132
140
157
184
211
238
272
317
361
398
431
465
492
489
434
333
205
65
-59
-141
-182
-211
-230
-234
-231
-230
-218
-204
-202
-197
-182
-170
-165
-163
-165
-164
-154
-151
-160
-156
-145
-149
-161
-157
-143
-136
-140
-139
-126
-126
-134
-120
-102
-107
-101
-67
-59
-87
-102
-104
-111
-103
-97
-110
-88
-65
-106
-127
-183
-237
364
1496
1469
-53
-1010
-572
-71
-67
-34
48
19
22
59
52
60
86
93
105
123
133
148
174
196
212
240
281
316
344
382
420
447
466
462
402
296
178
57
-51
-122
-167
-201
-213
-208
-207
-205
-195
-186
-179
-173
-175
-174
-165
-161
-164
-161
-155
-153
-151
-145
-144
-145
-141
-133
-125
-122
-125
-128
-120
-106
-110
-123
-114
-96
-93
-82
-60
-68
-93
-91
-84
-94
-86
-75
-90
-77
-55
-90
-120
-186
-202
442
1492
1317
-198
-1008
-504
-51
-75
-32
49
18
25
63
62
71
85
82
97
123
133
143
160
179
203
228
253
288
327
363
397
424
442
440
389
286
165
54
-42
-118
-169
-196
-206
-213
-214
-202
-194
-197
-194
-181
-178
-179
-175
-170
-161
-145
-141
-150
-149
-141
-137
-132
-127
-127
-129
-129
-127
-123
-115
-112
-119
-122
-104
-91
-94
-75
-40
-45
-73
-73
-69
-77
-71
-70
-82
-63
-58
-97
-114
-186
-139
610
1521
1050
-437
-963
-393
-43
-69
3
59
22
43
75
63
72
93
98
107
123
134
149
169
192
224
257
284
316
355
392
425
457
479
468
405
298
175
57
-47
-127
-176
-203
-214
-215
-215
-212
-205
-198
-195
-191
-187
-184
-180
-175
-170
-168
-168
-169
-169
-172
-172
-164
-157
-163
-165
-150
-140
-155
-155
-129
-119
-124
-102
-80
-97
-118
-116
-117
-118
-106
-115
-123
-95
-101
-138
-170
-208
154
1138
1500
265
-1067
-957
-276
-96
-84
29
42
22
69
91
89
104
116
131
158
174
187
214
242
261
286
326
370
408
448
489
525
555
556
496
376
233
97
-22
-123
-194
-231
-244
-250
-251
-250
-246
-233
-219
-215
-211
-198
-186
-181
-172
-164
-164
-167
-164
-163
-163
-159
-151
-143
-136
-138
-144
-139
-130
-126
-105
-83
-95
-116
-117
-122
-125
-111
-111
-115
-93
-102
-136
-162
-255
-33
961
1659
702
-782
-948
-309
-81
-84
26
52
16
48
72
71
88
96
102
124
142
152
173
200
224
252
289
328
367
415
461
494
518
524
474
361
222
82
-46
-137
-190
-223
-246
-251
-247
-242
-234
-226
-222
-214
-199
-194
-196
-194
-185
-176
-170
-172
-175
-167
-161
-165
-166
-154
-148
-153
-145
-132
-140
-138
-102
-83
-106
-119
-112
-122
-121
-99
-108
-115
-89
-109
-135
-163
-280
43
1185
1738
513
-890
-812
-187
-81
-84
39
37
1
45
64
57
71
80
87
109
128
142
165
188
211
240
275
314
357
403
446
476
492
490
444
337
197
66
-45
-130
-180
-211
-234
-239
-231
-229
-227
-218
-207
-200
-193
-187
-183
-175
-165
-161
-165
-165
-156
-150
-154
-158
-150
-143
-150
-152
-138
-132
-133
-112
-83
-87
-108
-112
-112
-115
-104
-106
-122
-97
-85
-125
-148
-241
-211
615
1681
1243
-386
-1022
-437
-63
-98
-22
42
-4
14
54
45
54
79
86
101
120
129
144
167
189
214
253
299
339
376
418
459
485
495
469
384
256
124
5
-95
-164
-204
-227
-235
-232
-230
-228
-219
-209
-207
-205
-194
-185
-181
-176
-166
-160
-159
-156
-153
-154
-156
-152
-141
-134
-138
-142
-131
-119
-119
-110
-80
-72
-96
-111
-112
-118
-109
-98
-117
-111
-78
-107
-141
-183
-297
104
1291
1723
388
-929
-744
-148
-84
-79
35
18
-5
47
57
50
71
82
91
114
131
147
172
193
207
236
283
332
372
411
450
488
520
519
458
344
202
57
-60
-138
-188
-218
-236
-247
-244
-229
-222
-226
-225
-218
-213
-206
-196
-186
-181
-183
-182
-173
-165
-169
-176
-172
-157
-145
-147
-150
-141
-137
-144
-131
-101
-98
-121
-129
-130
-136
-130
-128
-135
-107
-85
-129
-160
-216
-179
538
1580
1288
-336
-1166
-630
-133
-110
-42
43
13
26
69
63
73
105
114
124
149
169
185
209
235
262
295
341
392
439
482
525
565
577
537
440
302
146
5
-99
-169
-213
-233
-240
-246
-251
-249
-239
-228
-222
-214
-200
-188
-182
-175
-167
-163
-159
-154
-155
-156
-152
-149
-150
-148
-139
-132
-140
-149
-132
-113
-124
-125
-86
-70
-101
-117
-106
-111
-111
-97
-108
-106
-76
-96
-123
-171
-283
134
1343
1800
466
-887
-739
-149
-76
-69
43
26
9
67
73
59
81
96
109
133
144
149
169
192
214
245
284
325
374
426
470
502
524
520
455
329
183
48
-66
-150
-202
-231
-244
-249
-249
-248
-244
-234
-224
-222
-220
-207
-194
-189
-182
-175
-176
-181
-179
-172
-161
-156
-167
-176
-166
-154
-154
-153
-152
-158
-153
-134
-130
-132
-104
-82
-108
-134
-127
-123
-128
-120
-127
-132
-100
-109
-149
-158
-253
-102
901
1806
996
-628
-982
-355
-98
-125
-22
16
-26
0
28
29
48
62
66
85
104
115
130
150
175
205
241
282
327
371
412
448
480
492
459
374
250
114
-6
-92
-152
-191
-209
-214
-219
-220
-213
-204
-195
-186
-178
-169
-154
-141
-135
-132
-126
-118
-112
-109
-109
-111
-110
-108
-107
-104
-100
-96
-90
-86
-85
-79
-73
-78
-78
-62
-53
-53
-30
-2
-12
-37
-37
-34
-43
-35
-30
-44
-24
-7
-45
-70
-152
-141
644
1778
1476
-177
-964
-427
-9
-28
49
122
67
75
119
109
110
135
146
158
175
187
200
216
238
272
307
337
377
430
477
516
555
578
554
468
334
182
48
-57
-142
-202
-231
-244
-253
-254
-249
-246
-249
-249
-243
-235
-231
-229
-227
-221
-214
-213
-218
-218
-216
-217
-221
-221
-219
-219
-218
-217
-222
-228
-225
-220
-220
-221
-223
-227
-224
-218
-217
-200
-175
-182
-208
-215
-216
-225
-218
-216
-230
-211
-196
-237
-261
-334
-306
466
1533
1169
-475
-1212
-640
-202
-207
-124
-43
-77
-53
-10
-19
-1
36
46
59
82
98
121
155
188
217
256
308
363
413
467
524
568
591
582
509
376
237
123
29
-43
-78
-88
-92
-90
-74
-54
-37
-19
-1
14
35
60
83
