# session 4
5
19
-37
121
346
236
-14
-130
78
1172
2538
2203
333
-662
-308
-51
-148
-99
-45
-70
-12
24
-30
-43
-11
-5
-16
-15
10
53
69
61
81
118
123
120
147
176
186
198
201
180
159
132
68
-20
-95
-139
-159
-177
-179
-153
-158
-209
-197
-87
6
10
-24
-37
-34
-45
-53
-36
-20
-22
-25
-30
-57
-98
-111
-87
-102
-177
-198
-161
-205
-319
-466
-469
408
2044
2434
789
-709
-661
-253
-292
-304
-205
-215
-219
-177
-182
-190
-178
-211
-250
-211
-131
-92
-70
-20
26
50
88
135
163
190
226
254
279
315
341
305
209
103
-8
-124
-179
-170
-183
-210
-189
-152
-155
-184
-209
-208
-185
-171
-182
-188
-178
-177
-177
-161
-151
-150
-121
-85
-106
-151
-140
-76
4
30
-75
-246
-442
-431
601
2442
2898
1201
-316
-302
-24
-172
-199
-89
-113
-143
-114
-111
-107
-67
-41
-54
-54
-9
30
31
33
58
94
130
150
156
169
185
179
151
118
69
-25
-148
-242
-292
-332
-369
-355
-295
-271
-293
-274
-222
-221
-233
-203
-206
-245
-213
-129
-101
-102
-69
-53
-96
-143
-157
-145
-130
-131
-90
-15
-83
-277
-413
-499
-98
1329
2459
1537
-244
-730
-346
-292
-364
-315
-352
-347
-242
-221
-206
-120
-72
-10
78
35
-51
14
129
185
231
233
184
192
232
224
233
276
288
302
340
293
157
80
81
55
19
48
112
135
104
67
70
82
44
-8
-22
-25
-19
26
43
-35
-125
-158
-183
-211
-213
-231
-238
-189
-190
-238
-219
-252
-392
-513
-581
-30
1647
2815
1648
-320
-775
-312
-228
-299
-241
-245
-234
-173
-197
-207
-126
-107
-159
-150
-115
-118
-99
-43
-8
17
79
152
195
224
260
296
329
345
328
280
190
61
-50
-114
-162
-183
-152
-125
-150
-171
-140
-109
-111
-101
-81
-96
-130
-132
-103
-98
-125
-121
-71
-53
-91
-106
-79
-86
-121
-101
-93
-203
-387
-557
-279
1002
2298
1728
-131
-951
-555
-326
-384
-295
-266
-352
-339
-283
-259
-226
-213
-208
-149
-89
-82
-79
-41
2
34
77
131
164
177
201
237
250
247
275
306
244
101
-14
-68
-103
-126
-123
-109
-101
-95
-92
-93
-97
-95
-78
-57
-53
-65
-78
-82
-71
-47
-15
24
56
62
32
-16
-20
17
31
34
40
-6
-104
-250
-226
573
1897
2149
885
-224
-256
-41
-76
-100
-83
-95
-66
-38
-49
-46
-50
-90
-103
-75
-76
-107
-87
-38
-46
-70
-17
59
63
26
15
28
43
53
46
-1
-86
-175
-231
-247
-253
-258
-248
-226
-209
-203
-203
-191
-164
-149
-166
-186
-169
-139
-154
-193
-195
-175
-164
-152
-150
-177
-196
-178
-169
-177
-127
-66
-113
-286
-549
-368
1088
2861
2608
614
-484
-226
-90
-253
-182
-96
-157
-156
-99
-82
-73
-60
-52
-9
59
68
10
5
96
169
172
179
221
254
257
255
273
295
285
257
230
168
64
-19
-64
-112
-145
-135
-135
-185
-226
-213
-184
-177
-203
-252
-276
-262
-263
-287
-284
-251
-232
-250
-266
-243
-226
-251
-277
-285
-247
-170
-185
-315
-495
-576
106
1678
2403
1148
-339
-495
-187
-232
-268
-210
-216
-157
-72
-85
-101
-86
-95
-89
-61
-44
-9
37
56
79
132
173
189
203
215
222
235
252
270
270
204
88
13
-16
-58
-86
-67
-46
-40
-18
-1
-16
-29
-20
-12
-9
-4
-7
-22
-36
-36
-21
-1
10
31
62
36
-33
-36
-14
-51
-52
-32
-133
-305
-475
-323
807
2212
1911
103
-872
-538
-269
-351
-300
-231
-267
-235
-173
-190
-206
-168
-144
-138
-110
-74
-51
-24
10
29
31
50
112
164
146
99
106
158
177
126
34
-45
-98
-154
-209
-226
-231
-249
-239
-195
-184
-197
-192
-197
-225
-225
-202
-198
-200
-183
-174
-183
-178
-157
-148
-146
-117
-86
-98
-85
-10
-14
-131
-299
-442
124
1814
2921
1779
-44
-432
-45
-45
-113
-17
-36
-83
-33
-14
-24
3
20
31
59
61
50
83
123
130
147
199
250
272
270
265
265
247
206
157
83
-21
-118
-174
-196
-216
-244
-253
-243
-249
-251
-206
-165
-192
-234
-218
-167
-141
-161
-197
-190
-139
-102
-90
-88
-105
-121
-129
-167
-173
-120
-146
-268
-403
-439
185
1550
2088
870
-451
-503
-161
-201
-251
-191
-208
-220
-192
-205
-219
-197
-179
-173
-151
-114
-86
-64
-30
7
46
100
144
157
170
198
215
228
246
231
174
114
46
-35
-75
-64
-73
-114
-123
-87
-72
-82
-50
0
-22
-75
-85
-94
-128
-124
-76
-32
-14
-19
-40
-66
-81
-75
-60
-31
-29
-121
-252
-388
-308
641
2092
2144
455
-779
-582
-207
-230
-197
-123
-166
-170
-122
-111
-100
-72
-53
-21
21
31
17
31
90
155
193
203
202
210
237
261
268
270
249
170
60
-44
-143
-219
-241
-228
-227
-229
-198
-158
-154
-164
-157
-152
-157
-152
-150
-164
-172
-166
-156
-145
-132
-128
-146
-171
-162
-145
-167
-152
-100
-157
-303
-489
-569
268
2043
2668
1116
-443
-476
-135
-218
-238
-144
-167
-171
-122
-124
-124
-97
-95
-92
-54
-21
-9
8
38
65
85
107
128
143
154
163
173
189
197
167
105
35
-32
-72
-78
-79
-89
-78
-51
-39
-42
-39
-35
-44
-62
-73
-81
-95
-102
-93
-87
-90
-86
-82
-110
-141
-118
-101
-141
-139
-101
-182
-345
-542
-562
419
2179
2524
789
-655
-558
-226
-310
-300
-214
-248
-244
-196
-192
-176
-142
-125
-93
-56
-40
-11
37
67
88
124
148
154
178
208
208
198
204
196
144
60
-31
-111
-166
-198
-208
-206
-207
-211
-202
-185
-178
-182
-188
-178
-150
-129
-126
-119
-102
-92
-94
-105
-121
-116
-95
-107
-108
-51
-80
-249
-454
-500
277
1949
2640
1167
-488
-556
-97
-146
-228
-136
-133
-145
-115
-124
-116
-75
-64
-48
0
21
24
61
108
132
164
207
229
251
291
306
292
303
320
271
142
-4
-96
-144
-196
-213
-175
-189
-307
-420
-399
-228
-72
-114
-237
-228
-152
-140
-143
-120
-108
-105
-94
-102
-112
-98
-113
-146
-105
-65
-152
-354
-641
-419
1163
2863
2213
-36
-942
-380
-129
-283
-219
-160
-224
-205
-168
-191
-180
-134
-105
-80
-48
-19
11
51
98
137
172
209
232
243
254
259
259
267
253
191
108
22
-80
-166
-194
-192
-203
-207
-188
-176
-189
-206
-191
-149
-144
-186
-199
-188
-203
-200
-159
-135
-146
-164
-157
-132
-144
-155
-104
-112
-223
-328
-424
-99
1151
2173
1384
-168
-528
-97
-26
-117
-52
-51
-89
-54
-41
-57
-49
-45
-49
-38
-23
-10
11
36
59
83
104
116
119
109
102
116
137
146
132
90
30
-29
-86
-120
-116
-108
-118
-114
-93
-80
-67
-53
-63
-90
-98
-98
-113
-115
-80
-43
-32
-28
-34
-49
-56
-74
-91
-57
-59
-170
-299
-447
-282
866
2192
1806
132
-635
-309
-157
-250
-176
-132
-178
-146
-97
-86
-62
-41
-35
-3
35
50
70
102
117
123
132
129
128
153
168
157
170
199
173
91
10
-62
-129
-167
-177
-189
-197
-190
-191
-203
-205
-203
-209
-211
-211
-215
-208
-185
-168
-169
-177
-191
-202
-189
-182
-204
-183
-135
-186
-277
-397
-557
1
1635
2484
1142
-501
-605
-154
-168
-200
-98
-128
-154
-89
-78
-102
-81
-43
-22
-6
32
80
103
119
161
197
202
221
260
275
273
291
315
302
239
137
28
-54
-103
-135
-150
-152
-148
-144
-147
-150
-134
-118
-128
-143
-135
-128
-143
-147
-121
-110
-133
-155
-164
-156
-142
-161
-164
-113
-145
-282
-452
-580
28
1694
2583
1219
-514
-634
-144
-184
-258
-137
-153
-204
-147
-114
-127
-114
-85
-66
-55
-40
-13
20
53
80
95
128
176
194
190
214
251
261
249
209
122
19
-53
-93
-121
-138
-141
-143
-148
-152
-155
-161
-163
-160
-151
-143
-144
-145
-132
-118
-111
-98
-100
-128
-123
-100
-126
-126
-75
-125
-277
-512
-671
168
2084
2784
1105
-552
-495
-74
-197
-244
-134
-167
-189
-137
-140
-155
-140
-136
-129
-97
-44
15
47
52
66
91
114
136
150
156
177
212
228
207
148
56
-34
-88
-115
-133
-142
-149
-155
-150
-144
-148
-147
-135
-128
-129
-132
-144
-157
-151
-136
-131
-126
-132
-164
-162
-105
-108
-167
-151
-125
-209
-398
-647
-305
1307
2780
2083
270
-357
-82
-129
-272
-187
-166
-207
-176
-162
-173
-153
-140
-135
-119
-105
-80
-45
-34
-33
-6
29
45
54
60
64
75
99
114
90
31
-25
-59
-83
-104
-116
-117
-117
-122
-129
-131
-120
-108
-110
-113
-97
-82
-98
-123
-118
-97
-81
-54
-34
-57
-72
-53
-66
-80
-40
-62
-198
-425
-649
-114
1544
2527
1333
-298
-463
-44
-86
-155
-60
-80
-113
-65
-52
-54
-27
-9
6
33
48
61
82
100
115
129
137
144
154
161
164
172
186
187
155
97
31
-31
-77
-98
-112
-137
-158
-157
-150
-154
-153
-138
-130
-133
-140
-149
-151
-135
-125
-134
-135
-137
-164
-173
-151
-157
-165
-135
-157
-266
-462
-639
-164
1126
1746
740
-411
-427
-102
-132
-159
-83
-93
-101
-65
-62
-62
-42
-28
-10
12
20
32
58
81
92
98
109
131
147
150
161
189
213
222
203
146
71
10
-37
-78
-103
-112
-120
-126
-125
-128
-135
-136
-135
-135
-133
-132
-129
-113
-93
-83
-84
-107
-132
-115
-98
-115
-98
-70
-130
-266
-509
-562
381
1825
1779
200
-686
-325
-46
-133
-95
-54
-114
-91
-42
-62
-54
-4
14
19
49
80
93
105
126
152
182
205
216
229
253
275
287
286
254
187
103
18
-54
-100
-126
-140
-143
-143
-149
-152
-150
-153
-159
-161
-158
-152
-147
-146
-139
-124
-122
-150
-175
-156
-134
-153
-136
-84
-132
-270
-485
-649
63
1742
2345
817
-672
-566
-101
-166
-209
-107
-131
-158
-115
-107
-105
-77
-57
-38
-10
8
23
51
86
118
143
162
177
187
195
209
228
240
215
136
32
-48
-96
-132
-157
-165
-163
-159
-155
-153
-152
-150
-146
-145
-149
-155
-164
-173
-167
-150
-139
-129
-129
-152
-155
-131
-141
-144
-95
-128
-269
-469
-656
-107
1536
2495
1296
-323
-493
-96
-148
-217
-131
-162
-191
-132
-120
-128
-95
-75
-69
-39
-6
12
31
58
90
118
133
134
136
147
158
164
169
167
139
88
33
-7
-33
-62
-83
-80
-70
-71
-66
-59
-62
-64
-64
-81
-107
-121
-125
-124
-115
-97
-82
-94
-115
-98
-77
-99
-88
-53
-117
-249
-436
-490
328
1823
2115
693
-437
-324
-87
-191
-189
-125
-160
-159
-126
-126
-107
-76
-71
-57
-30
-13
5
34
64
90
108
119
131
140
141
144
154
166
166
127
62
10
-21
-49
-62
-63
-83
-108
-107
-105
-131
-158
-171
-186
-201
-207
-209
-203
-185
-175
-168
-166
-185
-192
-162
-153
-152
-110
-118
-211
-354
-522
-137
1254
2204
1162
-467
-682
-141
-56
-132
-45
-30
-54
-18
-14
-16
27
47
34
48
82
96
106
137
164
168
174
188
186
177
186
202
199
170
117
40
-43
-102
-136
-162
-168
-161
-168
-180
-178
-175
-174
-170
-169
-160
-147
-148
-149
-137
-129
-127
-129
-148
-155
-129
-125
-141
-115
-121
-226
-410
-634
-351
1000
2191
1479
-159
-628
-205
-114
-214
-147
-128
-161
-120
-92
-103
-92
-59
-22
-2
8
43
86
105
125
165
197
211
224
227
211
210
217
170
84
14
-56
-137
-180
-185
-178
-165
-173
-198
-180
-136
-132
-149
-141
-122
-121
-128
-125
-110
-88
-79
-98
-113
-88
-76
-103
-86
-43
-87
-251
-487
-379
650
1881
1678
260
-526
-287
-42
-59
-33
-7
-24
1
21
13
22
35
41
64
88
99
119
154
181
194
211
227
227
220
226
236
227
187
113
14
-77
-131
-155
-170
-182
-181
-168
-156
-145
-135
-135
-143
-144
-143
-146
-151
-156
-160
-157
-157
-162
-155
-148
-165
-172
-161
-175
-165
-126
-173
-302
-534
-758
-69
1748
2590
1151
-466
-509
-98
-175
-227
-132
-153
-167
-116
-115
-119
-91
-78
-69
-48
-31
-11
15
35
56
78
91
104
115
119
125
141
149
127
68
-6
-61
-94
-123
-144
-150
-157
-170
-172
-164
-157
-152
-144
-142
-145
-146
-144
-138
-125
-116
-108
-91
-94
-119
-116
-111
-130
-101
-74
-163
-340
-602
-523
755
2405
2155
284
-638
-249
-49
-186
-124
-66
-120
-99
-66
-79
-60
-28
-21
1
31
45
64
96
119
131
143
152
152
145
141
145
148
133
89
24
-41
-85
-112
-133
-148
-147
-140
-144
-153
-154
-149
-141
-129
-124
-129
-134
-133
-121
-98
-82
-71
-52
-59
-87
-85
-83
-95
-59
-52
-156
-330
-593
-445
930
2468
2017
230
-478
-110
-31
-172
-103
-77
-132
-100
-70
-84
-66
-40
-28
-8
10
23
42
57
72
89
95
90
96
100
93
101
125
124
84
29
-20
-59
-81
-93
-110
-123
-120
-117
-122
-120
-111
-108
-104
-96
-89
-93
-108
-117
-107
-87
-64
-49
-68
-88
-67
-66
-98
-77
-58
-140
-340
-663
-557
712
2065
1624
112
-417
-102
-64
-166
-97
-89
-131
-93
-73
-87
-69
-51
-44
-23
-4
4
20
43
57
63
66
71
83
103
114
113
114
104
54
-16
-77
-131
-177
-198
-205
-216
-217
-213
-221
-227
-213
-203
-208
-208
-203
-202
-200
-193
-190
-184
-165
-148
-160
-177
-157
-141
-150
-124
-104
-171
-325
-591
-594
400
1750
1659
308
-382
-139
-34
-139
-84
-41
-80
-55
-20
-25
-7
28
49
76
113
137
151
180
223
249
254
268
293
312
330
359
378
362
312
244
177
127
94
73
59
