# session 11
-115
-103
-121
136
476
442
247
216
231
250
333
388
424
475
436
362
391
420
390
421
449
368
239
86
434
1996
3479
2651
442
-390
124
336
226
338
443
424
456
517
557
604
658
733
830
921
1002
1069
1140
1234
1308
1376
1498
1596
1577
1491
1388
1310
1238
962
530
382
511
553
603
677
349
-213
-490
-765
-1307
-1444
-804
-81
144
236
629
864
469
137
453
668
413
471
848
769
358
34
-431
-981
-1115
-971
-1237
-1868
-1966
-1494
-1381
-1090
409
1327
-209
-2225
-2589
-2334
-2466
-2443
-2244
-2248
-2247
-2132
-2091
-2086
-2057
-2045
-1970
-1826
-1803
-1859
-1736
-1491
-1373
-1265
-817
6
776
968
515
-95
-483
-738
-954
-1041
-1022
-1016
-1026
-995
-931
-908
-894
-686
-256
146
421
551
258
-258
-105
702
1018
666
616
1112
1607
1854
1846
1728
1820
2097
2246
2250
2295
2405
2410
2235
2033
1883
2191
3687
5272
4596
2429
1607
1758
852
-312
-161
612
970
1148
1382
1491
1584
1753
1719
1356
805
180
-233
-194
-87
-373
-851
-1191
-1437
-1663
-1830
-1966
-2114
-2254
-2347
-2329
-2175
-2035
-2105
-2323
-2438
-2383
-2276
-2156
-2057
-2064
-2066
-1964
-2004
-2183
-1965
-1244
-575
-206
-4
36
-15
-53
-168
-252
-36
287
326
170
171
464
851
950
737
565
535
1118
2989
4556
3344
626
-514
-239
-207
-299
-122
-39
-17
120
184
201
362
583
784
1020
1225
1339
1463
1601
1676
1751
1875
1954
1964
1960
1910
1779
1610
1453
1374
1343
1244
1203
1292
1079
502
157
-132
-959
-1650
-1337
-607
-206
20
237
464
716
479
-522
-1440
-1681
-1744
-1952
-2082
-2129
-2221
-2321
-2408
-2460
-2452
-2461
-2486
-2454
-2468
-2544
-2587
-2587
-2035
-512
631
-2
-1158
-1301
-1173
-1514
-1731
-1682
-1767
-1888
-1901
-1916
-1922
-1947
-2000
-1741
-1006
-232
241
556
843
1069
1250
1404
1521
1627
1717
1733
1669
1555
1433
1365
1358
1373
1394
1407
1399
1396
1410
1410
1402
1419
1459
1470
1450
1465
1491
1428
1329
1299
1306
1327
1363
1323
1220
1216
1300
1318
1271
1262
1265
1209
1159
1148
1069
933
793
811
1629
3099
3332
1588
3
-11
290
-87
-645
-1068
-1506
-1871
-2048
-2160
-2312
-2428
-2422
-2391
-2435
-2504
-2560
-2590
-2558
-2558
-2597
-2401
-1980
-1624
-1228
-653
-223
-86
-1
109
182
247
307
354
423
499
555
597
621
631
653
670
652
617
614
672
752
786
783
785
777
786
822
683
225
-359
-872
-1317
-1692
-1993
-2203
-2315
-2509
-2814
-2859
-2239
-569
1754
2698
1226
-472
-520
17
77
127
338
429
476
499
389
293
342
440
502
517
517
561
636
689
735
775
777
796
847
803
629
474
414
371
300
263
266
216
136
148
176
76
-20
32
98
40
-100
-308
-560
-692
-586
-358
-182
-88
-27
14
33
48
62
53
36
47
45
15
-7
-74
-195
-321
-365
349
2120
3105
1722
-205
-512
-48
-68
-187
-106
-111
-152
-123
-127
-125
-69
-51
-46
9
14
-49
-18
129
224
198
153
175
221
207
131
35
-71
-162
-200
-224
-290
-352
-363
-362
-383
-390
-350
-285
-238
-242
-298
-369
-420
-456
-487
-493
-470
-431
-399
-408
-436
-414
-374
-387
-379
-288
-235
-269
-261
-186
-203
-328
-400
-485
-555
180
1861
2606
1267
-332
-556
-222
-200
-202
-113
-99
-75
-11
15
34
62
68
97
179
249
265
271
317
392
453
483
492
495
505
477
328
112
-24
-70
-118
-167
-170
-159
-175
-196
-181
-144
-126
-141
-151
-134
-118
-121
-123
-118
-116
-114
-105
-113
-142
-162
-163
-165
-172
-203
-259
-286
-287
-303
-267
-221
-307
-418
-481
-378
638
2333
2501
564
-917
-680
-211
-235
-191
-95
-140
-115
-37
-58
-85
-52
-22
4
46
85
130
196
245
271
328
416
467
470
456
388
231
55
-58
-106
-127
-129
-113
-94
-85
-74
-54
-50
-62
-48
-10
-6
-38
-50
-31
3
31
5
-56
-35
44
39
-15
-15
1
13
27
-9
-27
21
-14
-146
-307
-343
507
2242
2750
985
-768
-804
-321
-317
-351
-288
-337
-364
-321
-314
-309
-278
-264
-246
-192
-128
-77
-25
36
98
161
217
230
196
152
103
32
-60
-139
-185
-232
-290
-311
-308
-330
-332
-298
-314
-366
-360
-308
-284
-288
-287
-271
-253
-237
-214
-201
-209
-203
-177
-174
-186
-164
-140
-162
-187
-192
-206
-175
-122
-181
-293
-423
-483
356
2213
2932
1303
-432
-501
-73
-96
-89
17
-24
-18
71
79
84
145
179
221
302
311
267
321
437
475
464
482
500
501
485
375
178
34
-49
-154
-240
-260
-276
-314
-316
-275
-240
-230
-229
-236
-241
-214
-174
-168
-165
-127
-101
-113
-114
-100
-115
-129
-100
-87
-126
-130
-97
-92
-84
-121
-252
-352
-446
-241
1102
2794
2433
224
-1008
-633
-261
-297
-246
-201
-226
-171
-131
-149
-121
-84
-83
-46
23
63
97
159
216
240
253
272
287
274
216
119
-1
-128
-219
-250
-248
-236
-229
-244
-257
-249
-265
-292
-254
-199
-211
-226
-177
-135
-140
-140
-131
-123
-86
-54
-87
-138
-145
-127
-116
-113
-115
-129
-125
-82
-108
-242
-366
-461
-136
1269
2687
2020
-44
-902
-415
-130
-196
-143
-108
-114
-48
-32
-47
21
77
63
77
136
177
197
225
266
312
352
372
374
360
319
252
179
109
27
-54
-75
-43
-56
-124
-145
-115
-114
-126
-114
-138
-201
-226
-237
-301
-354
-330
-290
-270
-226
-190
-220
-243
-178
-124
-186
-274
-269
-249
-273
-224
-139
-198
-329
-440
-360
617
2253
2496
752
-681
-573
-198
-241
-219
-135
-178
-184
-156
-188
-181
-127
-127
-145
-102
-23
44
101
175
261
329
366
383
388
340
221
99
19
-67
-152
-170
-152
-169
-204
-218
-219
-214
-200
-184
-179
-175
-148
-113
-116
-149
-149
-128
-147
-172
-146
-114
-113
-111
-106
-100
-69
-67
-75
16
84
-26
-209
-328
158
1775
3094
2131
70
-580
-122
-25
-149
-89
-112
-175
-95
-54
-105
-98
-51
-26
7
23
4
50
164
217
210
250
306
310
290
265
190
72
-48
-157
-242
-290
-326
-364
-376
-369
-376
-381
-353
-316
-301
-295
-290
-301
-312
-323
-331
-280
-194
-197
-260
-245
-188
-209
-243
-207
-197
-213
-134
-86
-203
-371
-547
-281
1201
2839
2356
288
-733
-416
-198
-252
-172
-130
-164
-117
-58
-36
-6
-2
-17
11
49
47
62
136
227
297
342
382
429
423
342
289
268
148
-10
-36
1
3
39
66
-37
-142
-90
-18
-56
-93
-61
-50
-92
-134
-158
-174
-170
-160
-186
-241
-280
-301
-319
-313
-283
-263
-283
-299
-253
-249
-367
-475
-565
-398
778
2353
2126
87
-1151
-804
-398
-430
-364
-243
-227
-195
-150
-109
-16
77
119
149
178
204
251
316
362
377
396
431
447
436
423
391
295
139
-7
-78
-84
-80
-89
-93
-80
-74
-86
-95
-85
-70
-56
-40
-31
-43
-66
-73
-66
-53
-17
15
-19
-80
-82
-57
-64
-95
-105
-49
-6
-107
-275
-440
-370
705
2466
2680
740
-803
-590
-185
-509
-745
-551
-378
-356
-342
-305
-265
-230
-198
-153
-104
-47
33
113
173
241
318
378
423
418
314
174
72
-91
-408
-706
-770
-653
-521
-410
-354
-419
-512
-460
-318
-264
-294
-270
-181
-181
-314
-405
-359
-292
-252
-189
-136
-114
-79
-47
-25
7
-1
-20
15
-27
-189
-389
-445
454
2443
3302
1627
-290
-453
-49
-106
-86
49
-41
-99
10
49
14
41
103
127
137
187
251
284
314
352
369
406
469
490
473
432
315
157
48
-39
-150
-223
-213
-184
-205
-252
-262
-234
-201
-189
-202
-210
-185
-156
-145
-138
-152
-181
-169
-135
-139
-152
-131
-94
-83
-115
-112
0
82
0
-212
-464
-186
1282
2766
2184
200
-705
-328
-90
-172
-132
-86
-105
-87
-98
-128
-87
-30
-24
-17
29
90
129
149
183
242
306
354
377
364
314
240
141
22
-64
-76
-64
-77
-106
-168
-280
-363
-341
-267
-236
-245
-229
-201
-210
-221
-205
-221
-279
-317
-334
-383
-463
-530
-567
-564
-498
-431
-437
-454
-496
-643
-772
-877
-781
384
2191
2182
51
-1317
-885
-399
-459
-389
-272
-338
-352
-279
-236
-198
-171
-179
-148
-62
-8
-6
27
125
210
220
206
241
284
264
193
101
10
-32
-33
-49
-51
-14
11
55
123
122
187
307
-81
-975
-1418
-1198
-1012
-881
-543
-474
-793
-817
-428
-127
18
142
194
230
305
365
451
496
370
191
171
762
2216
3116
1946
102
-347
-37
-99
-68
279
398
256
92
-102
-256
-265
-188
-47
190
446
607
697
827
993
1066
1034
1037
1100
1117
1078
1047
1000
915
826
762
779
881
851
617
522
713
860
824
821
924
1022
1078
1082
1050
1022
960
806
658
630
678
731
797
858
877
879
897
906
879
810
553
-266
-1444
-1423
612
2280
1060
-1512
-2700
-2777
-3046
-3340
-3355
-3373
-3410
-3348
-3286
-3295
-3344
-3398
-3448
-3466
-3280
-2778
-2147
-1604
-1226
-1073
-1120
-1285
-1551
-1874
-2179
-2360
-2291
-2191
-2334
-2266
-1494
-544
-67
143
394
551
562
603
715
814
875
924
991
1061
1071
1043
1100
1202
1172
1134
1354
1635
1641
1520
1501
1499
1468
1456
1389
1223
985
1090
2260
3766
3518
1590
384
565
806
730
748
753
663
643
644
604
604
632
621
595
607
632
609
572
595
633
621
625
670
636
486
344
256
145
23
-10
4
-77
-226
-284
-247
-239
-259
-243
-231
-264
-280
-265
-284
-328
-328
-313
-351
-387
-366
-365
-416
-446
-450
-467
-491
-502
-462
-436
-518
-593
-650
-576
441
2157
2268
220
-1299
-997
-426
-405
-429
-411
-422
-356
-333
-371
-312
-226
-217
-211
-179
-158
-139
-105
-56
9
77
128
129
82
42
6
-88
-213
-301
-371
-437
-458
-452
-451
-432
-421
-443
-436
-386
-371
-395
-393
-349
-316
-305
-258
-186
-201
-298
-354
-341
-304
-261
-254
-284
-241
-157
-211
-360
-479
-483
188
1714
2522
1387
-180
-506
-219
-193
-198
-141
-171
-151
-79
-78
-51
42
84
91
125
120
68
66
117
169
260
365
334
167
40
16
18
11
-4
-44
-85
-88
-67
-44
-9
36
65
64
55
58
63
63
78
100
98
69
34
15
25
37
27
21
25
7
-18
-19
14
71
61
-39
-196
-380
57
1751
3189
2291
224
-501
-118
-27
-120
-9
29
-56
-44
28
31
-4
-3
32
49
37
57
150
238
243
233
270
304
311
321
307
232
107
-42
-164
-234
-297
-348
-367
-468
-669
-757
-661
-516
-386
-323
-399
-592
-831
-938
-746
-448
-320
-263
-152
-133
-211
-176
-46
-27
-69
-32
-45
-204
-442
-529
333
2253
3110
1512
-403
-609
-146
-161
-234
-158
-170
-160
-82
-80
-116
-106
-69
-31
-14
0
52
87
63
84
198
297
315
311
326
316
242
153
78
-22
-115
-122
-105
-146
-192
-194
-185
-173
-149
-132
-123
-97
-49
7
32
9
-16
-19
-45
-116
-185
-247
-321
-347
-286
-250
-281
-263
-247
-346
-449
-533
-332
894
2422
2068
71
-966
-572
-277
-326
-215
-135
-180
-161
-150
-158
-75
-33
-94
-61
62
84
54
92
137
156
196
211
182
179
190
135
35
-54
-141
-219
-241
-211
-181
-164
-152
-135
-104
-79
-69
-50
-19
10
43
62
41
15
38
102
150
143
105
66
27
-3
-4
28
44
-25
-149
-297
-367
314
1987
2889
1537
-367
-727
-239
-135
-187
-114
-111
-144
-132
-135
-152
-166
-188
-186
-163
-137
-93
-37
22
112
204
222
184
163
140
71
6
-25
-78
-141
-166
-208
-264
-249
-209
-214
-199
-164
-155
-109
-140
-491
-893
-862
-544
-347
-274
-191
-120
-96
-125
-176
-178
-122
-70
-70
-67
-2
15
-90
-264
-508
-196
1513
3232
2556
391
-505
-141
-20
-128
-57
-45
-93
-40
4
9
52
105
156
208
203
181
232
294
296
305
347
358
357
385
385
323
227
94
-76
-229
-346
-454
-541
-572
-563
-551
-548
-561
-569
-555
-548
-541
-478
-397
-374
-379
-353
-310
-283
-252
-195
-143
-134
-161
-193
-164
-101
-158
-319
-510
-534
423
2330
2952
1183
-592
-611
-151
-207
-235
-98
-96
-126
-86
-70
-71
-47
-18
10
42
74
107
164
243
312
356
397
434
437
418
392
299
135
37
32
-24
-118
-121
-102
-159
-192
-142
-99
-91
-89
-94
-87
-68
-75
-88
-80
-77
-82
-91
-119
-151
-184
-229
-246
-227
-210
-162
-152
-275
-361
-395
-302
776
2565
2605
400
-1127
-734
-203
-292
-290
-184
-236
-250
-167
-126
-134
-129
-95
-50
7
70
83
67
119
202
232
255
306
324
291
238
164
74
-3
-60
-117
-164
-170
-149
-148
-173
-195
-205
-200
-169
-146
-160
-173
-160
-163
-173
-134
-95
-114
-116
-73
-72
-113
-128
-101
-46
-43
-153
-282
-416
-303
793
2362
2333
555
-633
-435
-160
-231
-203
-168
-236
-233
-222
-280
-264
-175
-143
-141
-105
-84
-74
-8
78
122
154
178
159
132
118
67
-11
-72
-141
-217
-230
-176
-127
-103
-71
-50
-81
-107
-56
6
3
-9
13
21
3
-17
-30
-31
-37
-71
-91
-80
-70
-42
-14
-34
-7
63
-8
-176
-367
-399
631
2666
3288
1446
-318
-346
10
-109
-168
-127
-163
-114
-69
-153
-198
-177
-195
-198
-158
-137
-110
-42
10
32
67
126
190
231
225
178
96
-35
-192
-313
-387
-432
-444
-437
-430
-405
-367
-342
-313
-278
-263
-249
-234
-257
-279
-250
-224
-226
-202
-170
-188
-209
-202
-232
-282
-294
-338
-428
-570
-767
-274
1547
2964
1866
-294
-894
-376
-233
-283
-159
-126
-142
-82
-79
-89
-29
0
4
60
98
95
146
240
303
355
409
431
422
399
346
265
179
93
5
-56
-54
-24
-32
-63
-56
-21
0
18
49
85
