# session 30
-14
-7
-25
33
140
138
38
-20
-29
-43
-53
-50
-51
-57
-58
-52
-43
-41
-40
-36
-38
-37
-26
-26
-36
-33
-26
-30
-32
-28
-28
-31
-29
-26
-20
-18
-27
-35
-33
-31
-31
-26
-24
-30
-30
-22
-22
-26
-24
-23
-30
-33
-29
-30
-32
-28
-27
-31
-23
-13
-12
-1
14
9
-1
-9
-38
-54
-36
-48
-63
-28
-69
-213
-351
-421
134
1709
2768
1695
-98
-532
-156
-148
-253
-178
-170
-202
-166
-153
-156
-121
-98
-99
-85
-62
-46
-30
-16
-3
12
33
64
97
124
162
220
265
290
323
364
378
352
290
181
51
-55
-128
-177
-200
-213
-231
-238
-234
-235
-241
-237
-225
-212
-199
-192
-188
-180
-162
-143
-136
-138
-133
-120
-111
-110
-107
-100
-99
-99
-96
-93
-90
-79
-75
-83
-84
-73
-69
-75
-73
-64
-62
-62
-53
-45
-50
-57
-49
-33
-34
-46
-48
-42
-39
-38
-36
-36
-32
-19
-15
-28
-34
-23
-19
-20
-2
26
36
32
24
-2
-22
-2
10
-29
-25
25
-40
-195
-334
-354
387
2043
2820
1473
-194
-419
-73
-129
-204
-130
-147
-168
-117
-109
-124
-104
-81
-72
-63
-53
-35
-15
-5
17
54
76
80
102
137
166
198
237
273
309
346
367
356
301
202
85
-19
-100
-151
-172
-180
-192
-204
-205
-192
-179
-186
-202
-195
-176
-171
-171
-165
-159
-148
-130
-128
-140
-134
-118
-119
-119
-106
-107
-120
-112
-95
-97
-103
-95
-86
-94
-105
-96
-78
-77
-87
-81
-71
-70
-66
-63
-72
-77
-69
-64
-66
-63
-56
-52
-55
-55
-40
-24
-31
-49
-49
-39
-39
-44
-42
-36
-24
-14
-13
-2
29
44
27
5
-16
-36
-27
-16
-39
-30
-7
-80
-204
-322
-221
734
2212
2379
823
-429
-364
-71
-130
-149
-93
-111
-113
-89
-88
-74
-51
-47
-39
-20
-9
2
16
36
66
86
93
114
150
184
218
258
301
338
369
399
421
400
314
191
71
-32
-106
-148
-184
-218
-231
-224
-218
-215
-214
-212
-206
-200
-193
-187
-178
-164
-158
-168
-172
-159
-152
-152
-147
-138
-135
-136
-131
-123
-125
-132
-129
-117
-110
-107
-108
-110
-103
-91
-89
-92
-88
-81
-80
-82
-84
-81
-71
-62
-66
-69
-62
-60
-65
-58
-45
-46
-53
-53
-49
-42
-32
-28
-26
-18
-3
13
22
17
0
-26
-35
-20
-33
-49
-1
-16
-163
-312
-402
31
1537
2850
2064
165
-515
-147
-68
-197
-140
-119
-163
-130
-102
-114
-100
-75
-65
-54
-38
-22
-3
13
26
43
65
86
104
132
175
220
258
298
342
383
408
402
351
254
128
10
-72
-127
-171
-199
-205
-207
-214
-218
-215
-208
-199
-194
-191
-189
-182
-169
-158
-154
-147
-135
-127
-126
-121
-116
-114
-109
-102
-103
-109
-106
-96
-89
-90
-91
-87
-82
-85
-85
-75
-73
-84
-85
-74
-71
-70
-62
-60
-65
-64
-58
-54
-50
-48
-50
-48
-44
-41
-40
-40
-39
-34
-32
-33
-31
-30
-35
-34
-21
-8
-4
-2
8
25
30
21
14
-4
-27
-19
-19
-45
-16
1
-107
-251
-368
-141
1087
2583
2347
566
-452
-225
-52
-183
-166
-121
-160
-146
-113
-116
-105
-93
-89
-63
-41
-41
-33
-7
14
26
42
64
89
115
141
179
223
260
295
335
363
367
346
282
173
56
-37
-106
-158
-185
-191
-191
-194
-193
-187
-182
-179
-178
-178
-176
-168
-162
-161
-156
-149
-144
-135
-123
-119
-122
-118
-110
-107
-106
-101
-98
-99
-98
-93
-90
-92
-94
-87
-76
-70
-73
-81
-83
-77
-70
-70
-66
-57
-57
-65
-62
-48
-40
-45
-48
-39
-34
-44
-50
-40
-29
-30
-35
-38
-36
-31
-29
-32
-32
-27
-24
-30
-32
-21
-9
-12
-16
-6
17
38
36
13
-5
-19
-26
-19
-28
-29
11
-14
-131
-253
-339
91
1480
2568
1758
84
-474
-160
-78
-156
-113
-106
-129
-97
-80
-89
-77
-60
-48
-33
-22
-9
11
29
39
50
71
99
118
134
165
207
246
284
322
357
389
400
365
285
176
53
-57
-125
-164
-196
-217
-223
-225
-225
-215
-205
-203
-202
-198
-193
-183
-174
-175
-175
-163
-154
-158
-159
-152
-152
-154
-147
-140
-139
-136
-128
-125
-123
-120
-115
-112
-110
-103
-98
-104
-103
-91
-85
-92
-89
-76
-74
-81
-81
-76
-73
-71
-65
-64
-69
-66
-59
-57
-57
-50
-44
-38
-30
-26
-14
11
18
4
-5
-19
-38
-28
-27
-51
-20
-2
-115
-254
-360
-155
1036
2563
2402
615
-474
-261
-54
-169
-148
-102
-155
-143
-98
-103
-99
-73
-61
-53
-40
-28
-12
8
30
48
61
79
107
137
164
196
239
289
335
368
391
403
381
306
189
65
-33
-98
-145
-179
-191
-192
-196
-195
-180
-173
-184
-193
-188
-182
-176
-165
-157
-153
-148
-137
-125
-118
-119
-116
-109
-107
-110
-113
-112
-107
-97
-93
-95
-94
-90
-90
-91
-88
-83
-82
-78
-70
-66
-67
-66
-64
-61
-57
-53
-54
-54
-50
-49
-49
-42
-39
-46
-49
-43
-42
-48
-44
-37
-40
-43
-36
-25
-21
-24
-22
-4
21
33
25
3
-30
-40
-21
-32
-44
0
-22
-159
-284
-349
73
1481
2691
1959
195
-465
-164
-95
-202
-151
-135
-170
-142
-123
-124
-96
-78
-86
-81
-58
-38
-25
-16
-5
16
44
65
79
100
133
171
210
251
289
322
349
360
331
256
150
41
-49
-113
-155
-180
-193
-195
-184
-176
-183
-190
-185
-176
-172
-173
-165
-145
-140
-157
-159
-138
-126
-128
-123
-115
-113
-110
-105
-105
-103
-97
-98
-100
-96
-93
-94
-85
-74
-79
-83
-67
-52
-60
-72
-71
-60
-53
-59
-71
-65
-51
-48
-41
-31
-36
-47
-43
-43
-53
-49
-38
-36
-34
-29
-30
-29
-21
-13
1
23
27
12
-8
-33
-36
-20
-38
-46
-8
-49
-180
-300
-314
329
1813
2570
1372
-221
-487
-121
-107
-176
-120
-124
-136
-98
-94
-98
-74
-60
-58
-45
-26
-4
14
21
35
63
86
104
131
166
200
237
280
327
371
408
429
420
363
264
145
25
-78
-146
-179
-202
-221
-225
-219
-216
-210
-195
-189
-194
-196
-188
-179
-177
-179
-177
-164
-154
-157
-158
-146
-131
-132
-144
-145
-130
-123
-128
-126
-119
-122
-122
-106
-99
-109
-111
-97
-89
-91
-91
-89
-85
-78
-75
-76
-73
-71
-75
-68
-54
-55
-68
-73
-67
-53
-42
-43
-44
-30
-12
1
9
15
3
-33
-48
-24
-32
-64
-28
-21
-144
-285
-391
-76
1301
2750
2253
368
-514
-202
-59
-193
-162
-127
-164
-139
-110
-114
-94
-77
-75
-54
-30
-25
-17
2
23
45
65
80
106
140
170
204
250
296
335
370
401
417
390
297
173
63
-28
-104
-157
-183
-191
-192
-196
-196
-186
-180
-186
-188
-179
-171
-170
-169
-160
-148
-143
-141
-135
-128
-123
-120
-118
-118
-116
-111
-102
-99
-97
-94
-94
-95
-84
-74
-83
-91
-85
-75
-70
-69
-73
-76
-72
-64
-59
-60
-61
-59
-55
-54
-54
-50
-43
-44
-50
-51
-47
-42
-37
-34
-36
-35
-31
-28
-27
-25
-20
-9
12
29
24
8
-11
-29
-26
-24
-50
-36
-3
-85
-226
-341
-275
631
2233
2626
1085
-337
-356
-66
-160
-198
-131
-161
-171
-134
-133
-120
-88
-82
-79
-61
-51
-41
-23
-5
14
36
55
74
98
123
158
208
253
280
303
333
359
357
312
225
117
10
-74
-120
-148
-179
-195
-179
-163
-173
-186
-184
-175
-167
-158
-154
-154
-153
-149
-147
-142
-136
-130
-127
-124
-118
-108
-105
-109
-105
-96
-100
-109
-103
-97
-99
-90
-78
-83
-90
-83
-75
-74
-71
-71
-75
-77
-72
-64
-56
-58
-64
-60
-57
-59
-52
-46
-51
-55
-54
-57
-56
-48
-46
-47
-35
-19
-13
-11
1
17
18
7
-13
-32
-29
-30
-54
-39
-14
-83
-198
-317
-237
701
2188
2378
830
-438
-388
-86
-128
-154
-120
-139
-119
-82
-92
-90
-67
-60
-51
-31
-19
-6
18
39
49
67
94
114
132
164
211
262
302
330
360
398
422
411
352
242
112
6
-70
-134
-178
-196
-202
-201
-194
-195
-199
-189
-180
-184
-181
-169
-168
-168
-157
-152
-158
-156
-143
-139
-146
-150
-145
-138
-131
-129
-129
-128
-123
-118
-118
-120
-116
-106
-101
-100
-94
-89
-91
-89
-83
-82
-84
-82
-78
-76
-72
-66
-65
-67
-67
-65
-60
-54
-54
-57
-53
-39
-19
-2
5
8
1
-31
-55
-40
-38
-60
-28
-22
-134
-265
-385
-163
1100
2634
2372
533
-500
-250
-64
-193
-169
-121
-161
-145
-116
-124
-102
-71
-69
-64
-44
-32
-21
-3
20
38
53
73
99
128
163
201
235
274
320
358
380
387
364
296
188
67
-29
-92
-141
-180
-198
-200
-201
-199
-193
-189
-182
-173
-172
-177
-171
-150
-137
-143
-146
-133
-126
-128
-122
-111
-106
-103
-105
-111
-104
-91
-93
-100
-96
-87
-83
-80
-77
-74
-70
-69
-73
-77
-74
-69
-63
-58
-54
-54
-56
-55
-52
-49
-49
-50
-49
-46
-43
-43
-45
-45
-45
-42
-31
-21
-24
-28
-18
1
20
28
17
-9
-35
-32
-14
-37
-53
-6
-32
-172
-308
-368
155
1659
2733
1776
35
-453
-120
-106
-213
-149
-141
-175
-140
-121
-128
-106
-84
-82
-76
-59
-40
-29
-19
0
23
46
71
94
116
146
181
218
264
304
329
346
353
327
263
167
50
-49
-111
-149
-174
-180
-180
-187
-191
-182
-167
-159
-160
-161
-154
-147
-150
-152
-141
-125
-122
-126
-124
-120
-121
-121
-115
-111
-110
-104
-92
-88
-94
-98
-93
-94
-97
-94
-89
-85
-83
-83
-79
-70
-68
-71
-73
-73
-75
-75
-74
-72
-68
-61
-57
-58
-61
-56
-48
-47
-53
-58
-51
-37
-28
-25
-17
-8
-5
7
23
18
-17
-47
-39
-27
-50
-46
-6
-56
-181
-295
-292
396
1869
2517
1261
-265
-468
-111
-109
-167
-103
-106
-123
-91
-79
-75
-61
-57
-43
-15
-9
-6
16
37
49
76
106
117
128
165
209
238
266
306
353
394
416
413
373
273
131
10
-66
-125
-176
-204
-214
-212
-200
-195
-204
-209
-200
-192
-187
-178
-172
-176
-176
-164
-150
-142
-138
-143
-149
-146
-140
-137
-135
-129
-122
-118
-118
-116
-111
-108
-109
-110
-107
-101
-95
-91
-87
-83
-80
-80
-76
-75
-84
-82
-67
-62
-71
-71
-61
-53
-54
-61
-59
-43
-32
-38
-39
-19
7
16
5
-15
-40
-44
-27
-44
-63
-16
-31
-169
-312
-409
23
1539
2841
2032
143
-514
-156
-91
-205
-135
-123
-176
-143
-110
-115
-101
-82
-68
-49
-41
-42
-30
-8
19
43
57
72
103
137
164
197
242
285
322
361
390
391
354
272
158
49
-42
-114
-156
-178
-195
-199
-188
-189
-197
-187
-172
-175
-183
-178
-164
-154
-151
-149
-142
-134
-125
-115
-111
-115
-113
-105
-102
-101
-96
-88
-81
-82
-88
-87
-82
-83
-80
-70
-70
-75
-71
-67
-67
-61
-53
-55
-58
-54
-53
-57
-57
-50
-51
-56
-52
-44
-42
-44
-56
-71
-56
-21
-9
-28
-60
-76
-68
-63
-58
-8
53
62
38
20
2
-25
-34
-27
-47
-55
-7
-27
-163
-314
-383
159
1674
2731
1762
36
-434
-104
-109
-219
-133
-105
-143
-122
-106
-110
-92
-78
-80
-71
-51
-36
-28
-12
19
42
54
73
97
118
146
184
221
256
292
323
345
353
325
251
151
54
-38
-113
-156
-172
-174
-173
-175
-180
-182
-178
-170
-169
-175
-171
-157
-154
-156
-150
-147
-151
-144
-132
-125
-113
-107
-119
-130
-118
-104
-105
-109
-106
-103
-98
-91
-88
-90
-87
-83
-86
-89
-81
-74
-76
-83
-85
-81
-73
-67
-70
-76
-62
-39
-44
-68
-74
-58
-50
-53
-45
-29
-29
-44
-44
-25
-11
-9
-5
9
31
44
28
-5
-27
-18
-8
-39
-61
-9
-2
-109
-231
-328
-16
1256
2516
1986
266
-518
-237
-83
-164
-130
-105
-134
-104
-72
-81
-86
-70
-45
-25
-18
-14
-19
-16
20
58
65
81
119
145
175
224
263
288
325
367
398
411
383
306
196
80
-21
-95
-152
-195
-218
-221
-220
-218
-209
-200
-191
-182
-185
-194
-178
-150
-157
-184
-182
-163
-157
-154
-146
-147
-149
-141
-133
-130
-124
-122
-128
-126
-118
-119
-121
-110
-98
-102
-110
-102
-80
-69
-84
-96
-86
-76
-80
-76
-65
-68
-77
-73
-65
-59
-50
-47
-56
-60
-57
-56
-50
-36
-28
-24
-11
11
25
24
6
-31
-46
-22
-27
-55
-16
-10
-133
-276
-385
-52
1351
2778
2227
343
-496
-188
-75
-201
-145
-113
-158
-123
-95
-120
-100
-59
-57
-59
-42
-27
-12
10
30
46
64
83
108
138
164
194
238
283
321
359
393
400
371
303
195
79
-7
-74
-139
-181
-186
-180
-185
-189
-183
-179
-183
-186
-180
-168
-161
-160
-153
-138
-132
-140
-136
-120
-112
-113
-112
-108
-99
-92
-97
-99
-86
-81
-91
-96
-88
-81
-80
-76
-67
-65
-74
-80
-72
-64
-68
-71
-64
-59
-65
-70
-68
-68
-69
-65
-59
-59
-62
-60
-56
-55
-53
-53
-58
-57
-49
-50
-57
-52
-41
-37
-36
-27
-11
3
5
-10
-43
-61
-41
-44
-69
-39
-38
-155
-280
-378
-116
1147
2556
2167
391
-500
-233
-93
-215
-179
-146
-194
-177
-141
-137
-119
-110
-117
-97
-69
-60
-50
-32
-13
10
32
44
63
98
130
157
193
232
269
309
346
361
349
302
211
101
8
-58
-108
-145
-163
-172
-177
-167
-153
-151
-148
-138
-135
-135
-125
-113
-110
-110
-107
-104
-97
-88
-82
-75
-66
-62
-66
-66
-55
-46
-39
-32
-32
-37
-31
-18
-19
-26
-19
-12
-17
-17
-9
-10
-15
-8
5
