# session 19
123
196
-71
365
1416
1545
860
715
1020
1008
860
873
876
826
807
781
747
743
729
692
675
677
672
657
645
661
712
751
748
747
776
805
807
773
686
540
368
222
112
19
-55
-95
-125
-157
-168
-172
-204
-227
-217
-221
-251
-258
-250
-266
-286
-272
-247
-246
-265
-285
-297
-293
-286
-294
-305
-304
-305
-311
-298
-272
-268
-282
-291
-290
-281
-270
-267
-271
-269
-263
-262
-258
-244
-233
-237
-238
-221
-203
-195
-178
-149
-145
-186
-219
-193
-175
-205
-182
-143
-220
-338
-462
-385
656
2268
2332
506
-822
-636
-262
-295
-273
-200
-226
-214
-163
-159
-152
-119
-93
-68
-37
-10
18
65
121
156
183
242
323
391
446
494
520
519
479
384
244
110
9
-71
-136
-169
-171
-172
-186
-192
-188
-187
-179
-149
-129
-147
-160
-142
-126
-126
-122
-111
-102
-97
-100
-100
-88
-78
-86
-95
-94
-91
-91
-89
-82
-79
-77
-69
-58
-59
-71
-69
-51
-41
-43
-34
-22
-28
-38
-34
-31
-35
-32
-22
-15
-12
-8
6
33
51
47
24
-14
-25
-6
-25
-40
1
-43
-195
-348
-406
269
1976
2936
1605
-282
-633
-200
-165
-235
-168
-183
-199
-138
-118
-120
-93
-74
-63
-38
-16
6
39
72
104
144
188
244
311
374
429
474
489
460
395
294
168
47
-49
-113
-152
-181
-200
-205
-205
-199
-185
-181
-191
-196
-192
-181
-173
-178
-181
-167
-159
-159
-139
-115
-113
-115
-117
-128
-132
-124
-124
-129
-122
-117
-126
-128
-116
-110
-110
-103
-97
-97
-97
-96
-98
-94
-85
-87
-90
-78
-71
-76
-78
-73
-75
-77
-69
-55
-38
-20
-13
-16
-7
6
-22
-67
-59
-50
-81
-62
-43
-142
-289
-435
-224
1084
2707
2463
511
-644
-395
-140
-236
-218
-172
-205
-179
-139
-142
-123
-90
-80
-65
-35
-10
13
40
70
113
167
221
279
341
399
444
473
484
458
375
252
129
20
-72
-131
-161
-179
-190
-194
-195
-196
-195
-191
-186
-186
-189
-182
-171
-169
-165
-154
-151
-147
-132
-124
-133
-134
-127
-128
-128
-118
-113
-119
-119
-113
-111
-110
-109
-116
-118
-107
-103
-114
-116
-99
-87
-91
-96
-92
-85
-85
-89
-91
-85
-72
-60
-55
-54
-46
-40
-39
-27
-7
-2
-1
-4
-35
-62
-49
-58
-71
-25
-45
-189
-349
-432
140
1781
2908
1773
-197
-718
-271
-169
-240
-155
-138
-166
-124
-110
-124
-100
-74
-60
-32
-6
14
48
88
129
176
227
288
363
437
507
574
606
581
516
410
256
98
-16
-92
-148
-183
-204
-211
-201
-186
-190
-203
-204
-199
-198
-191
-181
-175
-168
-158
-152
-144
-127
-121
-131
-139
-143
-145
-130
-108
-107
-119
-119
-115
-115
-112
-122
-153
-162
-122
-82
-77
-85
-85
-84
-80
-77
-80
-84
-85
-86
-87
-86
-83
-81
-83
-81
-68
-54
-49
-49
-42
-28
-17
-10
-12
-41
-67
-46
-45
-78
-41
-33
-182
-361
-515
-223
1338
3106
2595
324
-779
-371
-147
-292
-234
-158
-194
-181
-160
-168
-144
-112
-100
-86
-71
-55
-29
0
34
76
117
169
249
334
403
463
520
549
518
417
270
118
-8
-104
-171
-208
-221
-226
-227
-221
-217
-221
-225
-223
-225
-227
-214
-199
-196
-188
-170
-152
-135
-124
-123
-114
-97
-100
-109
-100
-89
-90
-89
-80
-78
-79
-73
-62
-59
-66
-72
-70
-66
-66
-65
-63
-57
-50
-45
-41
-38
-40
-43
-40
-36
-39
-41
-37
-32
-29
-28
-27
-24
-23
-24
-16
-4
-6
-8
8
23
15
7
-1
-31
-45
-24
-40
-58
-8
-37
-197
-353
-443
111
1839
3151
2084
1
-630
-220
-158
-266
-186
-174
-214
-170
-147
-154
-128
-106
-98
-75
-52
-31
1
30
54
98
154
204
254
317
381
440
487
504
476
398
272
127
4
-80
-141
-185
-204
-204
-201
-203
-209
-205
-190
-183
-188
-191
-187
-187
-190
-186
-173
-160
-155
-151
-141
-134
-137
-141
-141
-136
-126
-115
-114
-121
-126
-121
-108
-100
-99
-101
-105
-108
-103
-95
-84
-72
-75
-89
-90
-72
-61
-71
-79
-66
-52
-59
-67
-58
-42
-37
-44
-54
-52
-39
-40
-52
-54
-45
-36
-27
-26
-31
-22
-1
6
-5
-7
5
11
10
9
-11
-32
-21
-26
-43
-8
-22
-159
-329
-445
69
1747
3069
2040
-69
-734
-285
-176
-281
-200
-172
-205
-165
-140
-144
-118
-92
-78
-56
-38
-15
21
54
88
137
189
242
311
391
463
515
553
577
567
491
348
182
42
-58
-132
-185
-213
-226
-239
-242
-231
-224
-228
-225
-214
-207
-202
-197
-192
-189
-185
-174
-159
-153
-156
-151
-137
-129
-128
-126
-123
-120
-116
-115
-111
-105
-105
-111
-108
-99
-97
-93
-84
-87
-98
-91
-76
-78
-86
-83
-78
-78
-73
-69
-76
-85
-80
-70
-72
-75
-70
-72
-83
-83
-73
-71
-75
-72
-56
-37
-31
-33
-50
-91
-101
-81
-108
-116
-65
-136
-318
-474
-448
520
2496
3249
1474
-463
-593
-144
-213
-273
-172
-199
-217
-154
-143
-143
-107
-88
-76
-43
-18
5
46
86
115
158
219
280
340
413
489
551
589
598
571
486
342
184
62
-21
-80
-115
-128
-134
-134
-124
-119
-131
-154
-171
-176
-174
-173
-173
-170
-165
-166
-169
-163
-150
-145
-149
-149
-142
-140
-142
-141
-141
-148
-160
-164
-159
-156
-159
-159
-154
-153
-152
-145
-138
-138
-147
-148
-134
-125
-131
-131
-122
-114
-106
-101
-106
-105
-92
-85
-87
-76
-62
-64
-69
-65
-56
-46
-42
-45
-37
-18
-11
-7
14
38
47
48
31
-1
-2
-1
-36
-19
18
-89
-268
-408
-256
933
2723
2868
937
-543
-434
-125
-234
-240
-168
-204
-194
-151
-159
-149
-115
-105
-93
-68
-46
-22
6
36
75
117
153
199
263
331
396
449
481
496
479
393
248
108
5
-72
-125
-157
-180
-190
-184
-180
-187
-187
-175
-169
-174
-171
-160
-157
-154
-142
-138
-147
-144
-131
-131
-135
-122
-111
-122
-130
-117
-109
-116
-115
-106
-108
-113
-106
-98
-100
-103
-98
-93
-91
-85
-76
-76
-86
-87
-76
-71
-72
-67
-62
-67
-70
-64
-60
-65
-69
-63
-52
-47
-52
-50
-34
-18
-11
1
-1
-37
-55
-42
-62
-64
-9
-58
-220
-359
-394
306
2066
3087
1749
-204
-594
-171
-168
-266
-186
-187
-214
-169
-157
-164
-133
-116
-107
-67
-32
-23
-6
28
58
86
128
184
247
310
372
435
487
506
483
405
276
138
21
-79
-156
-198
-218
-231
-232
-228
-226
-225
-221
-216
-217
-222
-217
-207
-205
-199
-189
-195
-203
-188
-175
-185
-190
-174
-162
-167
-172
-163
-156
-163
-165
-151
-144
-150
-150
-143
-137
-127
-117
-117
-113
-101
-94
-99
-100
-93
-82
-70
-62
-61
-45
-11
-6
-17
37
149
215
208
188
169
99
-8
-119
-317
-180
1142
2812
2554
529
-677
-423
-146
-234
-212
-156
-192
-190
-166
-161
-133
-106
-98
-72
-37
-19
-3
23
56
98
145
193
253
328
403
467
521
556
540
454
316
156
4
-112
-183
-228
-255
-253
-236
-242
-258
-248
-228
-230
-235
-227
-214
-206
-202
-202
-196
-185
-176
-172
-169
-164
-156
-147
-144
-148
-145
-136
-137
-145
-134
-115
-113
-121
-116
-105
-102
-103
-100
-93
-90
-86
-78
-75
-77
-70
-63
-70
-75
-68
-59
-52
-47
-50
-47
-35
-32
-31
-10
14
20
3
-26
-31
-20
-47
-58
-8
-48
-203
-358
-437
216
2020
3178
1901
-137
-603
-174
-165
-266
-172
-172
-214
-157
-127
-149
-137
-107
-88
-70
-52
-26
3
29
62
106
145
189
252
321
384
448
501
519
495
424
303
154
19
-78
-138
-172
-191
-204
-207
-201
-193
-187
-187
-192
-193
-189
-185
-184
-179
-173
-174
-170
-153
-147
-155
-148
-131
-131
-137
-135
-126
-116
-112
-121
-128
-121
-107
-98
-97
-97
-92
-88
-90
-86
-79
-81
-82
-75
-70
-72
-66
-58
-60
-63
-59
-57
-58
-53
-47
-49
-50
-38
-25
-22
-22
-21
-25
-19
5
23
26
8
-32
-43
-16
-35
-54
-3
-36
-192
-344
-415
227
1993
3132
1878
-134
-606
-184
-162
-262
-181
-179
-205
-156
-142
-157
-131
-107
-104
-89
-51
-13
-1
7
49
101
131
167
233
307
378
441
485
509
500
430
305
167
37
-72
-141
-178
-206
-218
-216
-223
-230
-213
-195
-196
-201
-194
-189
-192
-198
-197
-186
-175
-179
-186
-176
-159
-150
-141
-135
-136
-126
-113
-129
-156
-150
-129
-127
-126
-108
-98
-106
-106
-92
-87
-93
-88
-78
-80
-80
-73
-71
-69
-63
-66
-62
-40
-37
-60
-68
-57
-47
-37
-33
-37
-31
-15
-4
7
12
-22
-69
-59
-32
-59
-60
-23
-96
-251
-401
-322
731
2495
2791
929
-662
-581
-156
-205
-223
-134
-151
-147
-94
-83
-82
-69
-62
-37
-3
13
32
77
127
152
178
242
322
386
454
541
617
661
667
616
496
317
125
-22
-113
-185
-243
-267
-270
-267
-258
-257
-261
-250
-239
-246
-245
-224
-213
-219
-210
-190
-193
-200
-185
-167
-169
-172
-164
-150
-143
-151
-158
-152
-147
-150
-149
-139
-131
-130
-133
-135
-132
-123
-121
-119
-107
-99
-104
-104
-94
-88
-96
-100
-91
-81
-84
-86
-74
-64
-64
-54
-42
-39
-29
-10
-1
-17
-51
-53
-27
-52
-65
-5
-54
-236
-400
-481
232
2212
3458
1997
-239
-679
-167
-158
-274
-183
-181
-197
-140
-140
-147
-97
-77
-86
-66
-33
-13
6
43
90
124
153
214
298
369
441
522
585
615
604
523
367
193
49
-67
-158
-206
-220
-229
-236
-230
-222
-221
-220
-219
-222
-219
-212
-211
-208
-195
-182
-176
-171
-168
-162
-146
-137
-138
-126
-114
-126
-143
-138
-126
-125
-125
-119
-107
-103
-107
-105
-96
-95
-101
-98
-92
-90
-88
-87
-89
-84
-76
-78
-85
-80
-71
-71
-72
-68
-65
-67
-68
-65
-56
-50
-52
-50
-43
-48
-56
-46
-29
-22
-15
-4
11
22
-5
-51
-45
-36
-70
-45
-17
-143
-315
-455
-252
1146
3050
2942
748
-653
-399
-115
-254
-238
-174
-214
-197
-163
-169
-143
-113
-112
-95
-67
-48
-18
22
50
70
111
173
226
277
356
437
488
531
567
548
463
333
178
32
-58
-111
-162
-194
-192
-187
-190
-187
-179
-170
-162
-161
-159
-153
-153
-146
-129
-130
-140
-128
-114
-124
-127
-111
-100
-94
-88
-91
-92
-82
-81
-93
-92
-81
-76
-77
-72
-69
-73
-79
-79
-72
-70
-74
-69
-56
-59
-74
-75
-62
-57
-66
-74
-76
-76
-66
-55
-58
-67
-64
-55
-54
-59
-65
-65
-59
-59
-67
-66
-50
-39
-46
-61
-66
-57
-52
-63
-71
-57
-43
-53
-68
-72
-71
-64
-52
-41
-27
-8
0
-3
0
1
-24
-47
-39
-56
-80
-31
-28
-166
-316
-413
-5
1537
2991
2232
114
-742
-316
-132
-243
-183
-144
-181
-146
-118
-127
-107
-85
-80
-57
-30
-20
-1
35
71
100
143
207
271
325
395
482
555
605
638
630
544
389
215
64
-58
-151
-208
-229
-231
-242
-259
-252
-229
-228
-244
-239
-218
-208
-207
-202
-193
-188
-183
-174
-170
-173
-165
-150
-149
-157
-150
-138
-135
-133
-125
-122
-130
-133
-123
-115
-116
-113
-101
-92
-93
-95
-93
-94
-95
-92
-86
-87
-94
-97
-91
-81
-69
-67
-75
-80
-73
-60
-52
-51
-46
-28
-16
-11
8
3
-50
-64
-40
-71
-78
-23
-101
-291
-450
-395
664
2654
3222
1284
-577
-576
-128
-229
-280
-173
-201
-225
-180
-169
-157
-135
-133
-111
-70
-56
-44
-12
12
28
69
134
203
275
352
428
500
566
612
602
521
387
216
38
-95
-165
-210
-248
-265
-265
-263
-255
-244
-247
-252
-244
-235
-236
-234
-228
-220
-203
-187
-186
-189
-177
-160
-150
-147
-143
-137
-135
-136
-132
-125
-124
-128
-130
-122
-111
-107
-107
-102
-98
-100
-95
-83
-81
-83
-77
-72
-76
-73
-61
-58
-60
-55
-49
-50
-49
-41
-33
-33
-41
-46
-38
-26
-21
-19
-13
-3
6
17
37
55
46
11
-4
13
-3
-30
22
29
-117
-275
-388
-59
1461
3143
2656
491
-594
-252
-55
-195
-153
-104
-150
-121
-73
-71
-58
-42
-32
-8
17
34
54
79
110
152
196
238
283
341
410
474
518
555
587
582
510
379
227
95
-8
-83
-132
-156
-169
-180
-183
-178
-175
-170
-159
-154
-158
-161
-166
-176
-172
-162
-167
-170
-158
-151
-154
-150
-143
-149
-159
-164
-167
-170
-169
-173
-188
-190
-167
-148
-162
-187
-195
-190
-195
-206
-202
-193
-198
-194
-177
-181
-200
-208
-209
-217
-222
-226
-241
-254
-252
-242
-234
-232
-233
-229
-220
-216
-215
-200
-192
-228
-266
-260
-267
-287
-242
-239
-373
-533
-656
-283
1263
2793
2103
-50
-982
-560
-333
-428
-373
-327
-354
-323
-294
-290
-262
-241
-225
-188
-156
-130
-91
-54
-16
42
108
178
261
349
442
552
655
719
752
734
623
468
338
209
68
-11
-13
-10
-23
-13
15
33
66
136
205
239
256
271
279
287
311
347
371
383
398
418
441
483
530
549
558
586
606
610
626
636
612
597
619
650
678
699
681
623
550
495
474
371
67
-292
-499
-598
-703
-769
-751
-720
-751
-800
-807
-816
-869
-905
-897
-883
-879
-896
-880
-789
-791
-955
-1112
-1193
-686
1057
2594
1670
-588
-1371
-848
-652
-732
-618
-566
-598
-528
-445
-390
-313
-261
-241
-203
-162
-137
-105
-57
7
89
170
245
340
451
557
661
759
825
848
785
604
400
277
163
2
-95
-69
-24
-27
-47
-68
-97
-118
-98
-42
0
38
139
263
307
281
238
171
87
25
-14
-50
-78
-85
-90
-116
-147
-145
-121
-101
-68
-15
29
50
63
65
54
46
52
