# session 8
-92
-103
-91
51
167
89
3
-7
-99
-183
-114
-63
-106
-51
115
195
160
143
176
218
272
344
368
321
293
324
330
269
178
42
-115
-191
-214
-284
-327
-303
-372
-504
-459
-236
-20
117
178
198
216
216
242
309
285
192
196
203
106
73
162
198
138
103
158
223
201
181
253
265
167
115
65
242
1202
2191
1584
-126
-903
-530
-220
-221
-168
-120
-162
-166
-101
-55
-34
21
65
40
32
86
120
158
240
280
276
312
345
321
289
273
224
62
-210
-401
-393
-349
-388
-419
-419
-439
-435
-392
-367
-346
-304
-293
-324
-334
-316
-303
-296
-304
-312
-258
-172
-157
-200
-209
-193
-190
-175
-151
-143
-112
-81
-127
-252
-499
-591
312
1969
2363
821
-601
-606
-193
-149
-163
-83
-61
-85
-70
-26
-9
-10
27
64
70
99
147
175
217
266
270
262
258
193
79
-38
-199
-354
-365
-275
-231
-239
-249
-253
-248
-224
-192
-181
-161
-55
98
163
121
61
30
25
24
22
28
31
5
-46
-73
-54
-59
-121
-162
-171
-183
-156
-154
-264
-362
-447
-341
685
2166
2071
294
-804
-478
-135
-224
-187
-67
-77
-50
58
92
49
10
-19
-11
90
197
209
220
298
335
322
369
444
456
400
307
194
56
-91
-177
-202
-247
-303
-319
-334
-351
-332
-319
-328
-295
-236
-218
-230
-238
-217
-133
-18
72
101
44
-15
56
130
26
-59
101
257
172
79
92
-8
-224
-459
-386
834
2669
2709
649
-792
-575
-239
-343
-312
-218
-257
-251
-202
-187
-145
-95
-80
-57
-20
17
83
156
215
309
430
478
447
404
332
224
161
108
-61
-265
-309
-267
-336
-466
-480
-390
-321
-305
-307
-301
-287
-283
-289
-269
-223
-214
-255
-286
-303
-351
-389
-376
-362
-359
-324
-288
-305
-324
-270
-200
-205
-215
-189
-223
-316
-446
-334
798
2526
2680
878
-483
-376
-98
-153
-66
42
-10
-19
2
-43
-63
-53
-88
-117
-92
-47
-2
51
121
191
231
266
313
321
298
290
223
68
-44
-74
-104
-121
-104
-128
-179
-183
-181
-199
-144
-26
9
-48
-65
-34
-33
-37
6
47
28
-46
-119
-109
-29
3
-44
-97
-141
-224
-298
-235
-116
-142
-244
-273
-38
995
2400
2266
338
-979
-630
-77
-71
-56
56
13
-60
-23
29
18
-9
14
92
178
209
187
202
291
383
415
399
383
367
301
185
51
-99
-242
-322
-341
-346
-342
-320
-323
-360
-367
-309
-251
-243
-243
-203
-160
-151
-141
-115
-106
-91
-44
-37
-80
-89
-84
-103
-98
-91
-129
-169
-213
-232
-158
-148
-310
-475
-564
-171
1303
2724
2087
143
-717
-426
-290
-365
-298
-271
-316
-312
-309
-319
-308
-289
-245
-198
-183
-127
9
132
196
269
374
414
327
236
256
257
127
30
47
-16
-158
-135
-3
-5
-84
-102
-113
-142
-150
-164
-156
-77
-32
-99
-191
-239
-265
-280
-291
-294
-261
-201
-161
-143
-115
-106
-160
-176
-74
16
39
84
78
-52
-285
-507
61
1869
3082
1885
-106
-572
-83
48
-25
-29
-146
-275
-251
-159
-83
-30
15
57
72
78
110
161
232
318
358
351
341
294
179
37
-128
-311
-434
-463
-457
-443
-418
-394
-354
-294
-262
-251
-192
-107
-70
-47
36
111
96
67
83
62
3
-13
-10
-20
-4
-9
-87
-150
-145
-128
-87
-54
-168
-373
-538
-444
590
2313
2599
719
-898
-758
-219
-198
-172
-59
-117
-140
-26
46
57
73
80
103
179
235
203
150
173
251
309
344
355
293
208
173
87
-104
-225
-214
-206
-236
-254
-265
-262
-246
-249
-255
-241
-226
-221
-222
-232
-242
-264
-325
-379
-363
-319
-315
-330
-305
-245
-211
-221
-197
-102
-45
-69
-55
22
89
148
154
40
-171
-365
63
1633
2990
2231
312
-466
-162
-28
-97
-63
-100
-215
-249
-220
-190
-188
-194
-167
-143
-154
-126
-32
47
88
144
210
242
242
246
268
252
136
-36
-173
-232
-245
-299
-345
-245
-160
-328
-508
-418
-294
-364
-448
-398
-297
-225
-202
-229
-275
-304
-291
-223
-151
-160
-215
-215
-186
-221
-273
-284
-317
-365
-376
-421
-505
-604
-611
181
1831
2356
681
-928
-685
105
256
258
368
386
426
517
538
559
623
660
668
662
630
609
641
711
747
695
604
536
483
473
498
416
206
69
73
59
-25
-82
-103
-136
-159
-176
-233
-292
-283
-250
-267
-293
-277
-272
-303
-327
-335
-312
-270
-297
-367
-357
-301
-306
-339
-361
-428
-514
-484
-373
-388
-515
-637
-615
202
1875
2537
1044
-657
-811
-395
-456
-557
-405
-291
-295
-333
-373
-362
-309
-284
-281
-256
-211
-138
-23
101
207
301
376
395
317
204
203
295
290
169
79
43
16
16
43
49
24
-10
-39
-62
-90
-124
-145
-154
-179
-224
-267
-303
-322
-299
-263
-254
-221
-132
-76
-84
-55
15
25
-22
-43
1
38
-52
-238
-434
-418
568
2435
3011
1235
-554
-587
-97
-123
-208
-177
-202
-167
-81
-66
-68
-49
-10
56
76
51
105
239
334
372
396
392
357
311
199
-32
-262
-336
-326
-353
-366
-321
-263
-197
-143
-153
-153
-72
-14
-50
-103
-81
28
142
175
150
92
-7
-39
38
54
-37
-94
-93
-85
-87
-137
-150
-73
-119
-342
-570
-673
34
1873
2862
1332
-685
-897
-310
-285
-397
-304
-252
-240
-230
-242
-173
-16
116
170
169
194
254
226
174
277
393
357
371
450
323
124
144
165
-46
-247
-249
-202
-216
-242
-254
-250
-229
-239
-290
-294
-235
-217
-265
-282
-268
-302
-351
-341
-314
-325
-345
-338
-293
-225
-175
-172
-173
-149
-159
-182
-107
-42
-151
-305
-482
-467
702
2666
2888
838
-718
-570
-243
-358
-338
-234
-259
-250
-199
-201
-212
-187
-140
-98
-90
-82
-18
88
197
289
344
377
420
438
392
322
225
80
-2
16
-31
-134
-135
-99
-104
-57
-11
-66
-92
-45
-41
-40
22
74
81
64
22
-14
-19
-24
-40
-41
-2
39
-4
-89
-87
-46
-46
-38
-85
-230
-359
-427
38
1560
2728
1602
-532
-1100
-471
-230
-266
-115
-44
-93
-59
-36
-111
-148
-97
-66
-45
71
215
253
231
245
270
269
270
285
276
218
120
-24
-190
-283
-277
-285
-329
-321
-279
-288
-310
-273
-232
-244
-248
-203
-174
-186
-163
-92
-42
-29
-66
-148
-117
31
17
-124
-85
35
22
-31
-85
-108
-1
39
-115
-301
-387
281
1995
2830
1285
-626
-850
-392
-402
-461
-361
-363
-390
-360
-347
-329
-295
-282
-258
-183
-75
31
99
135
185
260
315
332
338
336
281
176
84
14
-52
-90
-116
-169
-206
-206
-235
-279
-252
-179
-170
-224
-257
-260
-276
-287
-262
-227
-203
-182
-163
-142
-103
-69
-59
-44
-32
-44
-54
-54
-27
53
62
-73
-276
-452
54
1811
3201
2156
24
-653
-250
-134
-151
-74
-142
-172
-58
-30
-62
-21
25
38
54
84
147
229
276
306
359
397
391
343
237
87
-51
-186
-324
-383
-338
-296
-299
-281
-243
-235
-246
-247
-226
-162
-103
-121
-127
-42
15
-28
-56
-20
16
34
28
-6
-42
-73
-87
-97
-150
-160
-75
-110
-295
-439
-495
111
1821
2890
1549
-448
-770
-230
-187
-267
-151
-140
-180
-147
-135
-112
-32
24
47
85
123
148
189
236
246
249
292
313
253
190
165
87
-49
-143
-176
-204
-249
-285
-284
-278
-308
-333
-309
-291
-319
-336
-308
-283
-282
-276
-268
-295
-344
-371
-357
-332
-330
-344
-338
-309
-284
-249
-185
-157
-178
-137
-72
-141
-285
-459
-456
591
2474
2872
1034
-542
-477
-130
-214
-201
-113
-160
-156
-107
-143
-169
-122
-60
-5
34
53
102
197
280
333
400
470
489
474
457
402
284
158
64
11
-2
-32
-104
-137
-107
-80
-81
-91
-88
-71
-97
-164
-169
-107
-88
-136
-171
-161
-139
-122
-106
-97
-91
-88
-115
-151
-158
-157
-159
-188
-273
-365
-465
-305
820
2328
2107
114
-1083
-661
-178
-180
-115
-45
-120
-103
-1
13
-8
22
81
131
170
207
235
248
278
329
356
354
353
338
292
225
129
-9
-137
-193
-204
-220
-237
-243
-245
-239
-228
-224
-216
-196
-173
-151
-136
-132
-114
-78
-57
-40
-14
-35
-88
-87
-57
-67
-63
-3
28
-34
-109
-125
-147
-206
-304
-481
-236
1110
2481
1942
140
-689
-445
-342
-414
-323
-290
-349
-318
-270
-292
-304
-277
-261
-247
-205
-147
-70
44
149
199
238
283
291
257
199
129
64
0
-73
-126
-142
-143
-132
-125
-154
-179
-156
-135
-142
-146
-151
-165
-168
-169
-171
-147
-142
-192
-221
-200
-196
-203
-173
-134
-115
-94
-82
-106
-102
-33
-37
-151
-298
-513
-232
1391
3091
2484
324
-657
-327
-176
-257
-146
-95
-152
-115
-63
-83
-83
-38
5
44
89
143
209
271
327
393
451
467
446
389
281
123
-43
-138
-147
-168
-257
-324
-309
-283
-283
-259
-219
-210
-205
-174
-159
-166
-157
-138
-124
-113
-114
-104
-55
-28
-54
-78
-83
-91
-105
-130
-117
-69
-128
-276
-423
-482
223
1908
2702
1257
-502
-653
-153
-125
-184
-97
-102
-119
-59
-46
-72
-40
19
50
107
207
258
241
244
283
316
355
402
401
331
216
98
15
-59
-149
-200
-221
-284
-340
-320
-295
-301
-290
-287
-326
-348
-327
-317
-345
-363
-329
-285
-295
-342
-364
-352
-338
-324
-296
-271
-270
-250
-203
-201
-210
-168
-198
-308
-392
-500
-110
1462
2846
2012
50
-621
-241
-156
-242
-126
-65
-99
-68
-38
-81
-126
-107
-47
-5
28
91
155
188
234
310
363
383
404
402
330
219
118
32
-34
-73
-85
-58
-39
-76
-77
-13
-34
-124
-85
7
-46
-119
-72
-58
-124
-138
-130
-179
-198
-150
-126
-153
-181
-175
-143
-154
-203
-184
-156
-248
-408
-530
-175
1187
2469
1758
-225
-1037
-562
-270
-310
-215
-128
-120
-62
-23
-14
38
71
66
112
181
204
243
325
368
371
394
396
349
312
269
159
43
-20
-72
-138
-182
-206
-225
-226
-210
-188
-170
-176
-190
-176
-153
-160
-168
-139
-111
-120
-130
-120
-118
-111
-60
-13
-20
-37
-66
-128
-140
-96
-90
-80
-42
-108
-284
-467
-286
912
2499
2471
711
-542
-465
-218
-248
-212
-183
-245
-240
-192
-182
-169
-145
-127
-96
-56
-22
21
72
112
147
182
200
198
182
138
57
-40
-138
-222
-267
-282
-287
-279
-256
-245
-247
-232
-206
-196
-196
-183
-170
-179
-187
-165
-148
-169
-199
-207
-220
-244
-244
-218
-190
-177
-178
-154
-127
-147
-132
-81
-165
-322
-471
-483
493
2424
2922
969
-773
-612
-74
-145
-197
-109
-117
-69
15
3
7
66
110
155
187
175
190
259
323
364
399
418
424
418
391
321
186
31
-68
-109
-143
-181
-202
-196
-184
-183
-178
-156
-144
-149
-164
-188
-177
-121
-117
-183
-219
-216
-224
-208
-176
-178
-168
-134
-153
-171
-111
-98
-135
-79
-72
-204
-301
-384
-15
1555
2978
2001
-237
-952
-384
-175
-251
-140
-98
-151
-114
-72
-81
-67
-48
-50
-12
73
129
184
309
360
251
201
310
366
298
234
158
-12
-191
-251
-230
-246
-288
-267
-218
-226
-251
-228
-174
-133
-131
-159
-170
-177
-196
-174
-126
-134
-163
-133
-97
-114
-133
-110
-91
-115
-134
-124
-147
-181
-138
-136
-267
-437
-592
-191
1428
2879
1974
-221
-977
-434
-217
-313
-211
-104
-103
-118
-166
-190
-138
-69
-16
27
49
71
127
188
201
193
224
257
248
239
224
144
25
-68
-139
-187
-191
-188
-208
-231
-248
-275
-303
-320
-320
-297
-288
-320
-325
-253
-163
-106
-54
-3
3
-35
-35
41
92
58
43
78
56
-24
-64
-30
21
-15
-142
-301
-418
91
1643
2776
1805
-41
-604
-219
-113
-195
-137
-108
-127
-123
-121
-90
-48
-68
-78
-19
24
23
59
135
200
263
335
379
381
339
244
122
1
-127
-234
-268
-259
-252
-244
-254
-301
-322
-271
-220
-236
-262
-238
-196
-169
-137
-106
-102
-113
-120
-130
-151
-174
-191
-208
-217
-206
-203
-198
-129
-88
-185
-338
-508
-340
956
2656
2500
543
-617
-292
20
-83
-70
-9
-33
-18
-4
7
90
152
141
146
175
220
327
445
493
502
499
477
456
439
378
252
92
-55
-169
-258
-325
-364
-392
-417
-429
-420
-390
-355
-351
-371
-361
-329
-311
-295
-264
-251
-265
-274
-269
-272
-265
-218
-192
-227
-218
-139
-140
-185
-145
-160
-317
-524
-641
1
1659
2542
1210
-562
-813
-369
-326
-343
-228
-231
-273
-256
-256
-272
-281
-268
-206
-137
-108
-82
-12
86
169
224
286
365
411
396
335
244
149
97
90
69
-4
-68
-59
-27
-33
-53
-64
-88
-118
-128
-102
-55
-41
-70
-69
-27
-6
6
41
47
20
30
40
-25
-85
-91
-121
-118
-41
-70
-200
-303
-365
277
2012
2938
1433
-512
-726
-239
-276
-329
-161
-117
-96
12
18
-98
-136
-10
126
137
126
179
213
214
261
328
365
412
461
434
328
207
79
-64
-175
-204
-186
-182
-188
-177
-154
-125
-103
-104
-95
-69
-77
-85
-46
-48
-105
-89
-14
-7
-47
-43
-25
-60
-110
-134
-161
-155
-93
-126
-265
-401
-495
63
1683
2626
1199
-836
-1157
-556
-435
-490
-369
-337
-364
-324
-283
-248
-209
-191
-160
-104
-51
3
65
135
216
279
297
299
296
262
181
52
-101
-214
-268
-306
-341
-363
-384
-398
-388
-373
-357
-332
-322
-333
-331
-305
-271
-251
-259
-278
-288
-276
-218
-141
-112
-110
-82
-73
-89
-71
-52
-57
-24
-8
-86
-223
-402
-103
1369
2871
2327
415
-471
-199
-33
-51
40
54
15
47
46
-4
-22
-14
-2
4
1
17
43
48
54
84
120
147
