# session 29
-20
-39
18
14
-178
-389
-414
-351
-340
-335
-305
-286
-267
-241
-230
-237
-255
-258
-231
-227
-230
-183
-195
-315
-432
-488
-19
1412
2520
1679
-30
-569
-242
-191
-283
-214
-191
-217
-180
-152
-148
-126
-107
-95
-75
-57
-40
-22
-9
2
26
56
81
105
138
178
222
265
305
333
352
368
372
333
238
114
11
-53
-95
-127
-146
-154
-155
-145
-137
-141
-145
-136
-127
-125
-127
-126
-117
-104
-101
-107
-107
-99
-91
-88
-91
-93
-81
-59
-57
-81
-84
-47
-31
-66
-72
-23
-17
-74
-92
-63
-53
-54
-42
-41
-52
-51
-45
-49
-57
-57
-49
-34
-14
4
8
4
-9
-39
-54
-33
-38
-54
-2
7
-129
-302
-410
11
1431
2636
1877
94
-543
-184
-63
-153
-116
-119
-161
-131
-106
-100
-78
-78
-84
-57
-35
-35
-28
-17
-3
28
59
74
98
135
165
197
240
283
319
342
349
331
265
150
40
-35
-99
-150
-171
-187
-218
-230
-214
-212
-226
-219
-194
-181
-185
-189
-184
-176
-170
-160
-150
-147
-145
-133
-123
-126
-131
-119
-99
-93
-96
-93
-89
-94
-98
-88
-71
-66
-77
-90
-92
-81
-67
-62
-63
-64
-61
-58
-56
-54
-44
-43
-66
-69
-30
-8
-20
-11
28
42
25
7
-20
-39
-28
-35
-54
-13
-27
-167
-296
-387
-72
1300
2724
2200
342
-489
-183
-74
-212
-172
-135
-171
-152
-132
-136
-113
-94
-93
-77
-58
-54
-37
-6
11
15
32
62
91
117
144
176
214
254
284
308
327
325
284
197
89
-4
-76
-135
-170
-181
-190
-197
-191
-182
-183
-189
-187
-170
-152
-158
-174
-168
-149
-136
-134
-134
-124
-112
-115
-119
-109
-97
-96
-98
-97
-94
-91
-89
-87
-82
-81
-80
-71
-65
-73
-79
-68
-55
-61
-72
-69
-59
-55
-56
-56
-58
-60
-56
-48
-42
-36
-30
-24
-15
2
15
13
-2
-24
-30
-19
-38
-60
-17
-15
-135
-259
-356
-74
1192
2531
2075
335
-493
-215
-68
-177
-144
-106
-144
-134
-105
-100
-88
-71
-60
-49
-39
-23
-5
7
23
48
70
93
121
157
198
237
270
303
337
365
385
387
337
232
117
22
-62
-130
-165
-179
-188
-192
-197
-206
-202
-191
-195
-204
-198
-191
-198
-196
-187
-184
-184
-178
-174
-168
-165
-170
-163
-139
-132
-147
-147
-134
-129
-125
-114
-115
-124
-122
-118
-118
-113
-106
-102
-100
-93
-82
-72
-68
-65
-60
-53
-44
-34
-31
-27
-4
18
12
-4
-23
-44
-38
-26
-45
-29
0
-85
-235
-378
-262
807
2419
2542
821
-474
-349
-59
-155
-165
-103
-136
-131
-89
-92
-92
-74
-66
-57
-40
-29
-17
3
23
42
64
90
115
139
164
196
237
282
320
348
370
372
330
239
127
17
-79
-144
-173
-190
-209
-220
-214
-207
-205
-201
-196
-193
-187
-179
-173
-158
-140
-137
-139
-132
-125
-119
-112
-112
-111
-103
-101
-104
-101
-95
-91
-87
-82
-77
-75
-78
-76
-68
-69
-76
-77
-76
-72
-60
-57
-63
-59
-54
-62
-66
-57
-54
-60
-60
-46
-31
-25
-28
-25
-4
21
27
12
-17
-42
-38
-33
-55
-34
3
-81
-234
-373
-310
652
2322
2704
1088
-371
-366
-55
-160
-205
-126
-151
-171
-135
-127
-122
-95
-84
-86
-77
-59
-44
-27
1
24
30
40
65
93
123
159
196
236
280
316
343
355
326
243
132
26
-60
-120
-156
-170
-179
-192
-196
-191
-192
-196
-190
-180
-176
-174
-170
-165
-159
-147
-134
-126
-122
-120
-116
-109
-104
-104
-100
-91
-88
-93
-90
-78
-79
-92
-92
-83
-80
-74
-67
-68
-64
-54
-55
-57
-46
-42
-48
-44
-36
-39
-45
-45
-40
-34
-35
-39
-36
-31
-32
-29
-11
6
11
13
8
-21
-46
-34
-42
-67
-31
-28
-143
-271
-376
-110
1171
2592
2204
429
-465
-211
-79
-205
-174
-137
-170
-140
-109
-123
-116
-95
-86
-63
-39
-43
-44
-15
17
35
48
59
77
111
144
168
205
250
280
305
334
335
289
205
102
1
-71
-118
-156
-179
-183
-185
-189
-185
-177
-175
-180
-183
-177
-166
-158
-156
-154
-144
-133
-127
-125
-120
-116
-113
-107
-109
-117
-110
-91
-88
-96
-97
-93
-90
-87
-84
-76
-67
-71
-79
-74
-66
-67
-63
-52
-51
-62
-69
-62
-47
-40
-43
-51
-57
-44
-18
-11
-24
-17
11
26
20
10
-8
-31
-26
-18
-47
-48
-16
-72
-197
-329
-296
552
2092
2501
1020
-404
-444
-101
-133
-169
-112
-132
-139
-106
-104
-97
-72
-69
-63
-40
-19
-2
13
22
33
53
77
105
135
166
202
245
288
321
347
376
392
362
283
173
47
-67
-136
-168
-191
-206
-211
-211
-201
-191
-199
-208
-193
-177
-176
-172
-160
-157
-156
-141
-128
-134
-142
-135
-126
-123
-118
-113
-116
-113
-98
-90
-98
-100
-95
-95
-93
-84
-78
-75
-72
-73
-75
-68
-64
-68
-72
-70
-63
-57
-56
-59
-59
-53
-45
-42
-43
-40
-26
-2
16
12
-4
-31
-55
-41
-34
-64
-39
-7
-114
-269
-394
-258
857
2501
2569
789
-474
-318
-70
-195
-193
-134
-184
-179
-130
-134
-131
-103
-91
-88
-77
-60
-40
-26
-16
-1
22
43
65
88
114
150
198
244
281
312
334
331
293
218
116
16
-53
-98
-137
-161
-165
-164
-171
-177
-175
-165
-157
-157
-153
-142
-137
-134
-121
-107
-100
-95
-94
-97
-94
-82
-74
-71
-72
-75
-72
-68
-70
-73
-74
-72
-69
-69
-71
-68
-64
-66
-68
-62
-48
-44
-57
-64
-57
-54
-55
-47
-47
-53
-45
-41
-52
-52
-42
-47
-49
-34
-25
-29
-25
-9
11
27
26
-3
-43
-46
-24
-41
-51
-9
-39
-166
-289
-380
93
1608
2761
1844
56
-477
-134
-100
-205
-147
-146
-177
-137
-126
-136
-110
-94
-90
-67
-49
-45
-32
-14
4
25
43
60
86
112
139
179
219
250
285
318
332
322
276
184
77
-12
-78
-125
-163
-194
-202
-188
-178
-187
-195
-188
-179
-175
-171
-167
-163
-155
-145
-142
-142
-136
-127
-118
-113
-117
-117
-104
-98
-101
-94
-90
-102
-105
-91
-83
-86
-87
-85
-81
-72
-64
-68
-75
-75
-74
-70
-60
-57
-65
-65
-55
-53
-58
-59
-58
-59
-58
-50
-39
-34
-31
-22
-8
4
9
7
-11
-40
-41
-25
-43
-44
-11
-62
-178
-293
-304
398
1915
2566
1260
-294
-488
-121
-117
-174
-115
-119
-130
-99
-95
-85
-51
-39
-43
-33
-13
10
30
41
51
69
91
116
150
189
220
249
291
343
380
397
402
383
318
206
82
-23
-102
-160
-195
-211
-219
-222
-215
-208
-207
-207
-201
-192
-183
-173
-169
-171
-172
-168
-164
-161
-157
-146
-138
-139
-138
-126
-118
-122
-128
-124
-117
-116
-117
-114
-107
-102
-102
-105
-103
-95
-91
-95
-97
-89
-77
-73
-83
-90
-83
-76
-75
-70
-58
-54
-59
-56
-34
-4
6
-6
-27
-53
-56
-36
-55
-63
-5
-46
-213
-346
-398
196
1917
3091
1859
-164
-572
-76
-81
-223
-132
-127
-171
-123
-106
-121
-98
-80
-74
-49
-32
-25
-6
15
28
47
78
106
127
148
182
227
275
326
373
407
422
413
355
235
88
-34
-113
-167
-205
-222
-222
-223
-226
-226
-223
-221
-221
-222
-212
-199
-193
-183
-164
-152
-145
-141
-138
-118
-90
-90
-106
-114
-135
-163
-153
-120
-108
-126
-142
-126
-100
-90
-81
-75
-83
-78
-67
-84
-96
-75
-74
-102
-97
-48
-12
-20
-40
-31
-4
-3
-28
-35
-8
0
-34
-42
-7
-5
-24
-4
0
-28
-24
-45
-93
-28
21
-119
-247
-327
-190
1008
2741
2652
663
-538
-238
-8
-191
-172
-75
-99
-102
-110
-150
-121
-52
-27
-29
-28
-22
9
36
-7
-69
-38
36
47
57
122
149
134
179
260
309
330
309
248
202
147
37
-67
-119
-160
-202
-232
-252
-262
-265
-248
-209
-197
-224
-231
-210
-199
-200
-196
-175
-142
-128
-143
-146
-113
-96
-147
-190
-124
-24
-23
-92
-140
-158
-150
-122
-116
-121
-78
-26
-34
-27
55
88
6
-65
-67
-51
-12
30
20
6
34
38
1
-3
34
48
12
-30
-23
16
34
41
63
69
28
-6
14
28
-17
-25
27
-13
-164
-302
-194
593
1749
1913
785
-179
-214
-34
-83
-138
-124
-119
-115
-101
-84
-87
-107
-77
-15
-21
-57
-36
-11
-19
-1
35
56
94
139
151
164
198
218
224
247
277
287
266
205
104
-15
-116
-170
-184
-194
-217
-217
-184
-167
-185
-201
-205
-205
-185
-166
-170
-162
-131
-117
-135
-157
-146
-118
-125
-148
-131
-105
-104
-95
-84
-84
-74
-77
-105
-95
-49
-52
-101
-103
-66
-63
-69
-46
-37
-54
-55
-46
-40
-27
-25
-38
-24
9
18
5
-13
-27
-24
-14
-33
-65
-43
-10
-69
-178
-283
-202
541
1633
1703
566
-279
-235
-99
-166
-160
-115
-125
-123
-108
-98
-79
-70
-68
-54
-25
-2
6
24
74
116
106
89
116
168
204
230
274
324
337
337
368
381
340
286
203
71
-41
-95
-127
-127
-95
-101
-149
-142
-74
-74
-161
-190
-134
-110
-124
-117
-130
-158
-129
-91
-113
-131
-126
-156
-170
-119
-101
-143
-135
-84
-93
-142
-156
-135
-114
-106
-108
-100
-86
-89
-100
-94
-76
-63
-60
-46
-12
-2
-50
-98
-98
-87
-105
-127
-110
-82
-88
-115
-207
-220
445
1657
1919
680
-499
-574
-275
-198
-150
-94
-114
-122
-105
-105
-80
-39
-24
-12
5
0
4
37
58
58
75
112
151
182
206
234
271
309
341
370
393
405
385
312
191
57
-54
-125
-164
-185
-188
-179
-182
-181
-162
-160
-182
-182
-168
-173
-164
-137
-135
-141
-111
-101
-153
-182
-146
-117
-121
-120
-111
-111
-106
-87
-75
-93
-118
-112
-85
-74
-85
-106
-129
-127
-86
-34
-17
-31
-37
-24
-7
4
-12
-60
-70
-25
-34
-90
-80
-79
-180
-313
-376
128
1564
2617
1735
34
-507
-194
-135
-212
-146
-126
-150
-120
-114
-134
-108
-63
-49
-59
-57
-34
-19
-10
22
63
78
80
104
149
190
207
220
263
318
338
329
307
254
158
52
-34
-92
-137
-182
-210
-211
-206
-201
-192
-195
-188
-164
-180
-203
-159
-132
-194
-215
-146
-122
-156
-145
-114
-130
-146
-131
-132
-136
-107
-84
-107
-131
-111
-81
-89
-98
-76
-71
-102
-106
-80
-76
-74
-42
-8
2
0
-2
-16
-48
-59
-37
-41
-51
-25
-68
-194
-300
-321
238
1665
2539
1500
-113
-489
-144
-97
-174
-142
-138
-136
-121
-141
-130
-88
-95
-108
-79
-52
-39
-9
16
16
24
49
69
96
153
204
212
214
248
282
297
314
305
245
167
81
-25
-112
-144
-154
-169
-177
-177
-178
-173
-158
-151
-156
-149
-133
-137
-150
-146
-137
-134
-127
-121
-119
-115
-105
-102
-101
-95
-93
-96
-98
-93
-86
-85
-88
-84
-73
-68
-72
-77
-76
-78
-76
-54
-32
-33
-29
-3
8
-11
-39
-65
-68
-57
-69
-60
-28
-88
-212
-321
-281
483
1917
2368
1034
-341
-441
-131
-152
-184
-130
-149
-154
-114
-109
-107
-77
-65
-73
-67
-48
-32
-18
0
28
57
74
78
101
158
206
218
231
268
304
322
325
302
235
131
23
-53
-99
-141
-180
-199
-199
-192
-188
-186
-179
-167
-159
-158
-161
-156
-139
-127
-133
-144
-146
-141
-134
-131
-132
-129
-119
-112
-108
-94
-84
-97
-114
-111
-102
-101
-101
-96
-88
-80
-72
-61
-49
-35
-22
-16
-23
-51
-73
-63
-67
-95
-65
-34
-123
-262
-387
-218
883
2334
2234
555
-536
-362
-111
-174
-162
-117
-139
-129
-110
-111
-88
-70
-72
-53
-27
-20
-5
24
44
56
71
90
116
150
183
215
251
291
326
344
344
328
279
189
85
-12
-94
-150
-175
-184
-191
-192
-187
-181
-178
-175
-171
-169
-168
-165
-161
-151
-140
-139
-141
-132
-121
-125
-128
-118
-109
-112
-108
-96
-93
-98
-97
-91
-90
-94
-95
-91
-86
-80
-68
-63
-73
-80
-73
-68
-69
-62
-51
-53
-53
-29
4
11
0
-17
-45
-55
-38
-54
-72
-26
-41
-177
-312
-385
79
1555
2731
1877
90
-485
-149
-111
-222
-156
-141
-176
-141
-122
-133
-113
-89
-82
-70
-53
-37
-21
-6
13
29
43
65
94
119
146
182
222
257
285
303
309
293
245
164
68
-23
-93
-138
-162
-173
-172
-159
-151
-161
-170
-159
-142
-141
-146
-140
-132
-132
-132
-127
-121
-113
-105
-102
-99
-89
-80
-82
-89
-86
-74
-71
-81
-83
-78
-75
-71
-65
-64
-65
-64
-58
-48
-46
-57
-66
-62
-55
-49
-49
-53
-50
-38
-27
-23
-20
-9
5
12
11
-1
-33
-50
-33
-42
-61
-24
-40
-165
-283
-345
76
1455
2600
1840
138
-456
-160
-113
-213
-154
-140
-171
-138
-124
-133
-109
-95
-101
-87
-62
-47
-34
-23
-14
7
30
41
55
88
126
151
171
198
226
247
258
254
217
138
36
-58
-129
-174
-193
-196
-197
-202
-200
-191
-191
-197
-193
-178
-169
-169
-169
-164
-159
-155
-150
-144
-139
-133
-120
-113
-118
-120
-112
-108
-109
-103
-93
-89
-93
-93
-78
-60
-58
-66
-69
-67
-64
-55
-50
-51
-51
-48
-44
-33
-20
-24
-34
-23
-5
-6
-9
9
32
48
61
59
41
20
1
2
8
-9
2
30
-34
-163
-289
-218
668
2130
2391
906
-388
-372
-64
-106
-129
-77
-99
-97
-60
-65
-69
-49
-35
-25
-12
2
23
41
46
56
78
99
120
145
171
201
235
274
310
332
345
348
319
241
138
32
-66
-138
-180
-203
-212
-215
-216
-214
-208
-201
-197
-201
-211
-210
-196
-185
-183
-183
-183
-184
-178
-169
-164
-160
-156
-159
-159
-148
-133
-128
-133
