# session 18
-31
-33
-29
14
49
21
-17
-14
-3
-9
-14
-1
22
31
31
25
-7
-27
-13
-35
-53
5
-26
-199
-362
-436
238
2143
3383
1970
-261
-708
-167
-145
-262
-151
-143
-183
-129
-107
-115
-80
-54
-44
-12
25
58
99
150
208
278
356
432
499
543
554
515
407
245
83
-41
-128
-186
-218
-231
-237
-240
-238
-232
-226
-223
-218
-214
-212
-211
-206
-201
-197
-191
-184
-176
-167
-161
-157
-154
-152
-150
-147
-146
-146
-143
-137
-137
-131
-114
-107
-121
-133
-125
-115
-121
-130
-107
-67
-70
-100
-94
-67
-73
-85
-69
-43
-27
-15
-8
-25
-63
-73
-65
-91
-81
-36
-108
-265
-408
-362
622
2468
3000
1219
-530
-573
-154
-216
-256
-163
-186
-195
-141
-137
-137
-99
-73
-59
-33
-6
27
75
129
186
253
324
384
433
475
496
466
370
232
94
-15
-93
-146
-177
-191
-197
-198
-189
-177
-176
-185
-185
-175
-169
-171
-169
-161
-153
-147
-143
-138
-137
-138
-131
-122
-121
-120
-119
-120
-115
-105
-101
-103
-100
-96
-92
-86
-77
-74
-80
-89
-91
-92
-92
-85
-78
-80
-86
-87
-83
-73
-70
-73
-62
-35
-18
-17
-33
-74
-96
-77
-85
-102
-62
-79
-205
-351
-445
131
1841
3016
1779
-334
-850
-314
-184
-263
-170
-146
-171
-120
-94
-103
-78
-46
-25
7
40
71
114
172
241
316
395
477
552
606
628
604
510
348
161
2
-105
-172
-213
-236
-248
-250
-242
-235
-237
-237
-228
-219
-214
-202
-188
-181
-174
-164
-159
-152
-138
-133
-137
-133
-120
-115
-118
-119
-115
-112
-109
-107
-109
-112
-114
-117
-118
-117
-115
-116
-120
-123
-117
-109
-111
-111
-98
-89
-93
-91
-69
-46
-38
-37
-42
-71
-86
-67
-88
-112
-57
-77
-236
-398
-518
33
1898
3348
2147
-180
-819
-280
-182
-293
-185
-164
-206
-153
-125
-134
-100
-68
-54
-22
17
49
87
137
199
271
351
433
513
575
608
596
517
365
187
35
-76
-152
-195
-215
-228
-233
-228
-224
-222
-217
-211
-207
-206
-205
-202
-196
-188
-180
-175
-171
-163
-154
-149
-147
-143
-138
-132
-128
-129
-127
-122
-121
-121
-115
-108
-107
-105
-99
-95
-91
-91
-96
-97
-92
-91
-89
-82
-80
-82
-80
-79
-84
-82
-72
-67
-66
-61
-48
-28
-13
-11
-13
-34
-63
-56
-56
-86
-53
-31
-154
-310
-449
-217
1222
3043
2765
541
-729
-368
-53
-183
-167
-107
-152
-136
-88
-87
-80
-65
-65
-54
-28
2
37
77
126
188
250
310
381
448
489
500
469
379
241
93
-30
-114
-165
-196
-214
-230
-239
-232
-226
-224
-216
-204
-199
-200
-200
-194
-182
-175
-179
-177
-164
-160
-166
-156
-136
-130
-141
-151
-149
-140
-137
-139
-143
-144
-121
-63
8
66
99
90
42
-1
-21
-34
-39
-36
-38
-47
-54
-59
-68
-78
-77
-69
-65
-63
-62
-67
-67
-45
-21
-18
-22
-25
-46
-73
-75
-83
-104
-67
-45
-158
-306
-436
-272
998
2796
2726
579
-865
-586
-179
-252
-231
-149
-186
-177
-125
-119
-108
-78
-60
-42
-19
11
61
117
163
220
298
385
471
546
595
615
587
480
302
115
-36
-145
-218
-264
-287
-290
-283
-282
-284
-283
-278
-269
-259
-253
-247
-232
-203
-177
-167
-159
-143
-132
-125
-114
-110
-111
-107
-103
-106
-106
-103
-104
-102
-96
-95
-90
-83
-87
-89
-81
-77
-83
-85
-83
-81
-78
-77
-79
-77
-78
-81
-81
-82
-86
-73
-42
-21
-6
17
27
15
11
6
-32
-50
-38
-67
-77
-19
-79
-273
-457
-487
425
2503
3490
1741
-418
-663
-157
-214
-307
-188
-199
-230
-166
-147
-150
-113
-89
-82
-55
-20
13
50
94
147
213
290
370
443
501
539
544
487
359
196
44
-72
-148
-192
-217
-230
-233
-228
-224
-221
-214
-205
-201
-201
-197
-190
-186
-184
-173
-160
-160
-156
-131
-114
-124
-129
-114
-106
-113
-114
-107
-107
-114
-113
-101
-94
-98
-100
-92
-86
-90
-92
-91
-88
-83
-75
-70
-75
-82
-80
-71
-62
-61
-64
-65
-61
-60
-61
-59
-57
-52
-38
-24
-22
-27
-22
-5
9
13
7
-22
-41
-27
-40
-60
-14
-33
-178
-317
-400
94
1752
3098
2059
-119
-807
-302
-141
-236
-163
-140
-167
-115
-96
-114
-83
-46
-37
-17
18
54
89
127
184
259
329
410
509
585
629
662
645
526
331
135
-23
-134
-199
-230
-250
-267
-278
-279
-272
-263
-261
-263
-262
-254
-241
-227
-217
-214
-215
-212
-201
-198
-199
-191
-183
-190
-194
-184
-178
-183
-185
-184
-181
-172
-169
-175
-176
-166
-162
-167
-168
-163
-157
-154
-154
-152
-144
-139
-142
-144
-138
-132
-132
-131
-119
-109
-110
-99
-71
-56
-51
-39
-38
-36
-4
4
-6
38
26
-100
-208
-313
41
1657
3294
2537
216
-752
-291
-92
-214
-135
-89
-140
-104
-65
-74
-56
-35
-32
-10
17
34
68
120
179
251
336
414
482
554
620
649
625
548
425
294
196
121
41
-42
-108
-151
-176
-194
-213
-221
-221
-228
-236
-234
-230
-230
-229
-226
-217
-201
-194
-200
-199
-189
-185
-183
-178
-174
-169
-163
-165
-171
-168
-158
-153
-152
-147
-140
-136
-135
-134
-132
-130
-122
-114
-114
-117
-114
-111
-111
-107
-101
-103
-105
-100
-96
-96
-92
-85
-82
-83
-84
-83
-78
-65
-53
-51
-53
-38
-11
2
4
-3
-38
-54
-36
-60
-74
-15
-58
-227
-377
-415
349
2255
3297
1750
-363
-690
-182
-179
-263
-162
-176
-206
-140
-120
-128
-94
-70
-65
-45
-17
19
69
115
156
211
286
369
450
526
585
610
584
495
337
150
0
-94
-168
-227
-246
-247
-258
-255
-236
-235
-244
-234
-219
-214
-209
-200
-196
-192
-177
-160
-151
-147
-141
-137
-136
-133
-129
-128
-133
-138
-131
-125
-131
-126
-110
-112
-123
-116
-111
-118
-109
-96
-109
-114
-91
-77
-83
-75
-59
-66
-71
-58
-52
-53
-40
-34
-44
-37
-15
-13
-23
-14
3
4
-5
-11
-27
-57
-57
-45
-79
-68
6
-53
-241
-395
-270
820
2626
2946
992
-734
-665
-165
-184
-209
-83
-31
-17
-23
-64
-68
-45
-36
-14
16
37
65
103
161
240
296
362
539
763
866
846
816
788
672
431
156
-43
-164
-242
-279
-290
-309
-349
-388
-411
-418
-414
-403
-393
-387
-377
-367
-365
-362
-347
-335
-330
-318
-295
-274
-260
-257
-262
-259
-257
-267
-262
-237
-231
-218
-163
-128
-148
-151
-117
-108
-130
-130
-104
-109
-145
-140
-82
-39
-38
-30
27
113
148
99
62
96
113
50
-1
48
132
138
75
35
27
-10
-54
-28
7
-51
-101
-76
-147
-326
-514
-552
399
2455
3259
1370
-711
-827
-293
-352
-437
-301
-202
-38
141
115
-3
-53
-74
-90
-84
-75
-64
-36
2
44
100
180
271
353
421
476
500
465
354
180
-9
-164
-274
-344
-368
-345
-298
-234
-133
-9
96
173
237
286
323
357
384
405
424
436
426
394
369
366
346
275
192
130
72
7
-42
-73
-105
-138
-165
-188
-201
-210
-227
-243
-244
-245
-255
-267
-272
-266
-256
-258
-266
-261
-256
-268
-281
-274
-262
-268
-278
-273
-263
-260
-262
-267
-268
-263
-258
-258
-252
-239
-232
-230
-222
-204
-184
-163
-153
-179
-222
-218
-195
-215
-196
-151
-240
-412
-568
-435
819
2754
2886
717
-901
-683
-269
-380
-375
-274
-298
-238
-118
-94
-78
-26
-13
-24
-17
-9
1
34
81
130
193
278
370
462
542
595
610
572
448
254
83
-15
-69
-85
-38
45
114
167
221
266
296
319
342
356
354
347
351
350
334
326
320
276
192
105
33
-26
-70
-100
-125
-148
-168
-187
-201
-206
-211
-217
-220
-225
-236
-239
-231
-227
-229
-233
-233
-227
-222
-224
-224
-214
-208
-212
-211
-204
-202
-201
-193
-188
-186
-179
-174
-174
-170
-165
-165
-163
-158
-156
-151
-133
-121
-124
-120
-97
-76
-64
-49
-60
-101
-105
-87
-118
-109
-55
-142
-329
-496
-413
787
2871
3276
1120
-726
-602
-130
-245
-277
-169
-206
-209
-146
-145
-137
-95
-82
-69
-33
-3
28
75
120
164
228
312
399
485
569
639
677
664
577
412
215
50
-65
-147
-201
-228
-237
-236
-231
-227
-224
-221
-215
-208
-203
-207
-210
-203
-192
-187
-185
-182
-179
-174
-166
-160
-157
-151
-146
-147
-146
-141
-137
-133
-124
-115
-112
-105
-90
-73
-62
-62
-66
-66
-67
-72
-65
-49
-46
-58
-62
-57
-51
-48
-44
-36
-21
-10
-18
-33
-35
-25
-22
-23
-19
-12
-14
-22
-25
-23
-26
-33
-24
-3
4
7
8
-22
-49
-34
-48
-70
-21
-43
-210
-388
-456
241
2148
3390
1988
-261
-723
-170
-154
-290
-176
-159
-204
-150
-124
-131
-104
-85
-74
-42
-13
12
48
90
138
195
257
331
418
501
570
620
639
598
468
277
97
-40
-142
-211
-246
-262
-267
-263
-261
-260
-253
-243
-234
-226
-220
-213
-204
-202
-205
-201
-194
-189
-187
-183
-179
-177
-181
-179
-163
-155
-161
-163
-154
-150
-148
-141
-135
-135
-130
-122
-122
-124
-116
-107
-108
-110
-104
-100
-100
-94
-86
-84
-83
-80
-75
-68
-62
-65
-65
-56
-50
-50
-51
-49
-40
-28
-20
-20
-17
0
24
39
30
-6
-31
-14
-19
-49
-11
2
-135
-299
-418
-106
1401
3121
2653
422
-705
-315
-86
-240
-196
-138
-190
-166
-125
-132
-112
-82
-77
-60
-33
-16
13
55
92
132
190
255
320
395
466
511
533
523
446
307
156
27
-72
-145
-194
-220
-228
-225
-217
-210
-210
-211
-199
-185
-182
-185
-184
-183
-178
-168
-161
-159
-157
-154
-151
-145
-136
-123
-114
-118
-124
-121
-119
-120
-119
-115
-108
-103
-102
-99
-93
-89
-90
-92
-88
-80
-83
-92
-88
-81
-85
-89
-80
-67
-63
-71
-78
-69
-56
-58
-61
-53
-43
-40
-35
-26
-18
-3
16
1
-52
-70
-47
-56
-55
-22
-81
-210
-324
-269
601
2203
2600
911
-703
-683
-192
-175
-187
-90
-109
-125
-73
-59
-60
-30
-5
9
35
68
99
128
164
219
281
348
428
513
585
641
676
663
579
427
237
58
-73
-158
-220
-257
-263
-260
-268
-269
-256
-247
-246
-237
-221
-208
-203
-202
-198
-193
-190
-183
-176
-173
-168
-160
-159
-161
-159
-154
-153
-150
-146
-145
-145
-139
-133
-129
-126
-122
-119
-120
-120
-116
-109
-104
-103
-103
-102
-96
-91
-91
-93
-91
-83
-72
-65
-63
-60
-44
-27
-18
-11
-20
-56
-68
-52
-76
-78
-27
-92
-262
-407
-382
545
2430
3102
1315
-583
-658
-158
-207
-269
-161
-176
-196
-141
-133
-136
-102
-85
-76
-48
-19
7
42
82
125
179
246
323
405
481
543
583
586
525
394
224
64
-56
-136
-190
-221
-231
-232
-234
-234
-227
-219
-214
-209
-208
-208
-202
-196
-192
-187
-178
-173
-168
-161
-152
-146
-140
-135
-131
-126
-123
-123
-122
-119
-114
-109
-105
-102
-97
-90
-84
-84
-83
-76
-71
-70
-65
-55
-49
-46
-41
-40
-42
-38
-30
-30
-34
-38
-36
-26
-21
-20
-11
0
-3
1
21
33
36
44
22
-14
-8
-7
-31
2
3
-134
-283
-396
-47
1511
3154
2523
282
-728
-301
-93
-226
-160
-106
-153
-117
-74
-85
-65
-33
-31
-23
6
38
73
110
150
195
246
309
395
485
556
605
630
608
515
356
175
17
-104
-192
-245
-272
-288
-293
-286
-284
-289
-287
-281
-281
-287
-290
-286
-281
-280
-277
-267
-260
-257
-251
-242
-234
-227
-219
-211
-208
-207
-201
-195
-191
-187
-183
-189
-198
-193
-183
-188
-197
-199
-203
-210
-208
-201
-201
-203
-202
-208
-220
-226
-225
-227
-229
-228
-235
-246
-233
-197
-166
-138
-112
-118
-119
-75
-63
-75
-26
-35
-166
-291
-350
233
2023
3377
2205
-13
-598
-66
11
-117
-11
15
-33
13
40
34
69
90
83
103
137
161
189
230
271
311
364
434
509
577
642
696
713
670
561
404
232
78
-27
-89
-140
-180
-185
-170
-159
-153
-155
-168
-172
-148
-101
-93
-167
-230
-197
-147
-154
-158
-137
-134
-148
-147
-140
-137
-126
-116
-135
-166
-169
-157
-156
-155
-147
-146
-147
-140
-132
-129
-137
-149
-139
-120
-130
-146
-138
-144
-177
-182
-163
-170
-182
-175
-175
-176
-165
-163
-164
-148
-140
-150
-141
-117
-105
-99
-92
-86
-71
-43
-29
-58
-100
-96
-81
-101
-84
-51
-136
-281
-400
-213
987
2662
2615
640
-689
-439
-114
-234
-212
-123
-177
-176
-108
-102
-109
-81
-53
-36
-18
3
33
68
102
131
169
226
296
361
415
464
501
507
472
389
261
127
28
-45
-106
-141
-155
-166
-163
-147
-136
-125
-115
-117
-116
-101
-101
-109
-95
-84
-99
-103
-76
-67
-90
-98
-78
-68
-78
-82
-76
-65
-56
-61
-79
-99
-111
-101
-65
-34
-36
-49
-44
-39
-58
-50
-1
-19
-85
-54
-7
-84
-139
-82
-57
-91
-110
-120
-88
-31
-75
-159
-132
-64
-59
-63
-38
-26
-39
-53
-49
-26
-7
-19
-55
-83
-101
-114
-81
-46
-121
-256
-404
-372
577
2276
2667
943
-662
-659
-211
-195
-202
-119
-126
-132
-108
-105
-75
-37
-45
-49
-4
56
82
85
116
178
228
266
331
424
505
556
589
602
569
465
295
110
-26
-121
-206
-247
-237
-245
-274
-262
-240
-265
-285
-254
-222
-230
-255
-267
-242
-190
-186
-230
-232
-195
-193
-204
-182
-179
-222
-237
-204
-193
-203
-174
-137
-156
-192
-182
-148
-127
-113
-105
-121
-135
-112
-81
-91
-114
-86
-33
-40
-99
-100
-38
-28
-61
-40
1
-10
-31
-18
1
19
51
106
154
122
47
54
94
81
107
115
-20
-149
-223
31
1419
3156
2831
660
-515
-138
137
2
58
170
97
