# session 26
-97
-84
-112
-62
92
186
163
134
142
142
134
132
128
122
119
116
116
114
109
112
130
141
136
130
109
69
61
71
40
34
72
6
-143
-268
-242
549
2136
2730
1324
-221
-374
-65
-130
-185
-120
-147
-165
-120
-114
-122
-107
-99
-90
-73
-64
-55
-39
-26
-15
2
21
41
69
100
129
158
189
216
234
245
243
212
139
45
-41
-105
-147
-171
-185
-192
-190
-183
-182
-183
-182
-176
-171
-166
-162
-158
-160
-164
-161
-157
-154
-146
-137
-139
-144
-143
-140
-137
-128
-119
-118
-119
-112
-104
-103
-101
-96
-95
-96
-88
-74
-67
-61
-46
-27
-13
-13
-42
-80
-77
-55
-80
-89
-44
-87
-223
-345
-357
305
1827
2603
1401
-194
-469
-139
-154
-212
-141
-154
-175
-138
-129
-117
-85
-96
-104
-55
-15
-23
-37
-31
-8
26
53
66
91
132
168
196
226
260
287
296
284
256
198
110
19
-54
-106
-135
-141
-138
-144
-157
-157
-143
-134
-129
-121
-130
-144
-135
-121
-125
-131
-119
-104
-100
-98
-97
-107
-116
-103
-97
-117
-119
-87
-72
-85
-95
-107
-107
-70
-40
-59
-77
-59
-40
-31
-13
2
-24
-82
-105
-70
-56
-77
-48
-29
-123
-265
-401
-192
979
2382
2142
458
-520
-315
-112
-189
-176
-154
-195
-184
-151
-128
-90
-73
-85
-75
-50
-40
-29
3
32
38
39
54
81
130
200
246
250
249
277
327
356
322
236
127
15
-62
-87
-104
-128
-145
-162
-181
-184
-173
-170
-183
-193
-171
-138
-136
-147
-136
-114
-104
-116
-143
-139
-91
-71
-105
-126
-109
-97
-100
-101
-98
-97
-94
-94
-92
-82
-77
-86
-88
-76
-68
-73
-77
-75
-70
-59
-41
-23
-12
-2
-8
-42
-56
-39
-62
-86
-34
-42
-173
-308
-380
79
1535
2704
1887
137
-455
-154
-125
-242
-177
-147
-186
-166
-130
-117
-97
-79
-80
-86
-75
-52
-33
-16
9
27
35
59
105
137
144
164
214
257
272
281
291
272
202
100
9
-51
-93
-124
-140
-146
-156
-163
-158
-162
-178
-166
-128
-122
-147
-145
-123
-124
-128
-108
-97
-109
-112
-108
-112
-111
-101
-102
-106
-104
-103
-97
-85
-84
-92
-90
-86
-87
-89
-90
-86
-78
-77
-80
-74
-65
-58
-51
-39
-26
-22
-21
-23
-49
-69
-62
-80
-95
-39
-45
-178
-319
-382
107
1533
2566
1662
-13
-497
-160
-111
-208
-157
-143
-164
-130
-112
-116
-99
-91
-97
-76
-42
-26
-12
8
16
24
57
100
123
139
174
223
259
284
309
322
315
292
235
126
16
-43
-84
-132
-161
-162
-161
-166
-172
-177
-171
-156
-148
-151
-151
-143
-138
-139
-135
-127
-125
-120
-106
-101
-109
-111
-107
-106
-108
-110
-111
-113
-113
-107
-98
-97
-94
-82
-79
-92
-99
-86
-74
-78
-81
-66
-44
-23
-6
2
-11
-46
-66
-62
-74
-72
-33
-69
-196
-336
-371
286
1801
2570
1375
-220
-499
-148
-132
-191
-130
-133
-145
-102
-92
-100
-87
-80
-70
-36
-7
-6
-6
19
49
68
89
116
139
166
207
254
291
315
332
348
346
301
214
109
7
-73
-116
-141
-168
-189
-191
-191
-197
-194
-185
-185
-184
-172
-158
-152
-146
-143
-143
-138
-130
-130
-131
-118
-108
-118
-132
-130
-120
-113
-113
-118
-115
-101
-92
-93
-97
-102
-104
-97
-87
-87
-94
-92
-80
-74
-79
-75
-62
-63
-70
-55
-27
-16
-19
-26
-47
-55
-41
-58
-71
-30
-63
-204
-335
-385
195
1806
2900
1817
-24
-483
-106
-100
-211
-139
-131
-164
-134
-124
-130
-113
-103
-91
-67
-60
-54
-27
-5
2
17
46
71
94
129
171
210
246
285
316
329
328
304
235
135
36
-46
-111
-147
-160
-169
-178
-179
-181
-192
-195
-180
-167
-166
-160
-144
-138
-141
-134
-123
-125
-131
-125
-113
-109
-113
-112
-102
-92
-89
-94
-96
-93
-90
-88
-86
-83
-78
-77
-79
-74
-63
-61
-67
-68
-66
-71
-75
-71
-62
-57
-53
-37
-11
-2
-7
-12
-35
-54
-47
-64
-81
-32
-46
-188
-311
-351
104
1518
2689
1919
177
-444
-152
-111
-224
-172
-153
-176
-143
-129
-136
-113
-97
-93
-75
-60
-52
-35
-18
-2
20
41
63
91
117
146
189
230
252
266
283
292
274
214
122
31
-38
-91
-127
-146
-158
-165
-159
-152
-155
-161
-158
-153
-153
-154
-150
-140
-128
-115
-109
-113
-112
-98
-93
-103
-107
-101
-93
-90
-94
-96
-89
-84
-88
-87
-78
-74
-76
-76
-71
-63
-61
-63
-61
-55
-54
-57
-57
-52
-41
-29
-26
-23
-12
-6
-13
-29
-60
-78
-67
-78
-95
-66
-77
-180
-302
-362
117
1455
2368
1458
-129
-562
-216
-135
-189
-135
-136
-150
-100
-93
-112
-88
-69
-70
-46
-15
-1
16
36
47
69
101
122
158
228
282
305
354
420
430
408
418
407
310
184
70
-52
-143
-164
-176
-219
-238
-217
-212
-215
-181
-143
-146
-153
-146
-156
-162
-146
-148
-163
-150
-138
-148
-142
-128
-142
-159
-157
-151
-139
-121
-123
-145
-149
-136
-135
-138
-127
-120
-129
-131
-116
-111
-117
-96
-59
-50
-65
-86
-117
-119
-94
-109
-126
-89
-114
-246
-362
-271
458
1762
2213
959
-473
-631
-223
-148
-177
-116
-106
-104
-73
-78
-80
-44
-20
-17
-1
32
59
75
93
125
167
214
260
303
356
429
513
586
632
657
671
648
542
348
142
-14
-134
-231
-280
-298
-325
-334
-301
-274
-281
-280
-254
-228
-217
-206
-184
-170
-173
-175
-164
-160
-166
-168
-166
-177
-195
-198
-188
-185
-190
-188
-179
-174
-177
-177
-167
-157
-149
-139
-138
-136
-110
-83
-76
-75
-83
-112
-116
-102
-124
-120
-79
-142
-308
-449
-271
794
2292
2371
719
-551
-452
-132
-173
-170
-110
-135
-130
-93
-89
-79
-63
-55
-36
-10
10
25
31
56
117
168
189
222
276
336
403
467
517
562
602
604
534
399
239
77
-69
-171
-224
-259
-289
-302
-305
-316
-309
-270
-241
-247
-249
-227
-214
-216
-212
-201
-184
-161
-149
-159
-169
-158
-142
-142
-156
-161
-147
-133
-129
-128
-127
-128
-130
-124
-114
-109
-110
-109
-102
-93
-87
-86
-81
-63
-42
-30
-23
-43
-80
-71
-53
-89
-81
-41
-139
-323
-476
-298
983
2828
2876
828
-614
-401
-74
-208
-213
-135
-170
-162
-126
-139
-123
-85
-79
-72
-49
-37
-23
2
26
47
76
108
142
183
230
281
338
402
458
495
507
480
389
238
74
-56
-139
-192
-227
-243
-244
-245
-248
-247
-242
-240
-235
-225
-218
-215
-207
-194
-185
-181
-174
-165
-160
-157
-153
-151
-148
-141
-137
-138
-136
-129
-126
-124
-118
-112
-108
-103
-99
-99
-94
-88
-86
-86
-83
-78
-72
-68
-68
-64
-45
-24
-16
-9
-4
-32
-61
-42
-45
-78
-35
-27
-178
-348
-461
-98
1460
3097
2518
376
-590
-217
-78
-237
-184
-146
-202
-177
-139
-145
-125
-103
-100
-85
-66
-53
-33
-11
5
26
53
76
103
139
179
222
266
310
345
372
384
363
291
176
52
-55
-127
-165
-184
-195
-201
-201
-200
-199
-197
-193
-190
-189
-184
-174
-165
-160
-155
-148
-143
-137
-131
-127
-125
-122
-120
-116
-108
-104
-106
-104
-97
-90
-86
-85
-84
-82
-81
-80
-80
-81
-81
-78
-74
-70
-65
-61
-58
-55
-49
-34
-12
4
9
-2
-32
-42
-32
-56
-65
-19
-67
-223
-359
-389
260
1892
2864
1674
-109
-488
-131
-150
-247
-172
-172
-201
-163
-152
-155
-124
-103
-99
-80
-58
-43
-27
-9
9
29
50
73
101
132
167
205
245
281
309
329
333
302
225
119
14
-69
-125
-160
-178
-185
-185
-184
-182
-179
-175
-172
-168
-161
-153
-146
-144
-142
-137
-129
-122
-116
-109
-108
-114
-110
-99
-99
-104
-97
-86
-82
-82
-84
-83
-80
-81
-82
-79
-75
-72
-70
-69
-68
-67
-62
-57
-52
-51
-46
-30
-10
1
4
-7
-38
-49
-36
-53
-56
-14
-57
-194
-322
-347
291
1817
2656
1507
-112
-432
-111
-128
-206
-143
-149
-171
-136
-128
-134
-111
-96
-91
-76
-62
-50
-32
-12
8
31
51
72
100
134
169
204
238
269
298
319
321
288
210
106
5
-72
-122
-152
-171
-184
-187
-184
-179
-175
-171
-168
-165
-162
-159
-157
-150
-143
-143
-141
-135
-128
-125
-119
-114
-112
-114
-117
-119
-112
-103
-97
-93
-91
-88
-83
-78
-79
-79
-75
-73
-73
-70
-65
-60
-54
-47
-37
-18
1
8
-3
-32
-50
-42
-52
-58
-15
-37
-164
-283
-369
-11
1330
2561
1930
224
-460
-181
-106
-207
-151
-133
-178
-154
-127
-130
-114
-97
-93
-80
-63
-50
-31
-11
6
24
45
71
102
132
159
188
220
252
281
302
301
268
202
110
12
-69
-122
-153
-170
-176
-178
-175
-170
-167
-163
-156
-154
-152
-145
-140
-140
-137
-127
-121
-122
-120
-112
-106
-105
-105
-103
-101
-99
-97
-94
-89
-88
-85
-80
-76
-76
-71
-68
-72
-72
-64
-55
-51
-49
-35
-12
0
-2
-19
-48
-55
-41
-60
-66
-27
-68
-198
-316
-330
288
1714
2458
1360
-122
-397
-111
-135
-196
-134
-144
-165
-131
-123
-125
-99
-86
-85
-68
-50
-38
-21
-2
13
33
60
87
114
145
178
206
233
263
288
298
288
250
177
80
-12
-77
-110
-130
-152
-170
-173
-165
-157
-156
-155
-147
-139
-139
-139
-130
-122
-124
-128
-129
-123
-112
-106
-106
-104
-102
-103
-104
-104
-103
-98
-93
-90
-89
-89
-90
-86
-85
-87
-81
-74
-78
-82
-75
-67
-63
-59
-55
-43
-21
-4
-3
-12
-34
-59
-57
-52
-68
-53
-36
-104
-209
-323
-205
755
2118
2139
639
-442
-344
-107
-159
-148
-101
-132
-129
-94
-93
-88
-67
-56
-49
-37
-23
-5
11
22
38
58
78
101
131
163
196
232
260
277
296
315
308
261
178
77
-12
-73
-115
-147
-162
-161
-157
-150
-145
-143
-140
-132
-122
-112
-105
-99
-84
-71
-89
-123
-135
-132
-133
-131
-126
-125
-124
-120
-119
-117
-113
-111
-112
-111
-110
-108
-100
-92
-91
-93
-93
-93
-89
-83
-79
-72
-56
-36
-22
-15
-19
-50
-80
-69
-63
-86
-62
-45
-139
-267
-376
-195
910
2360
2271
628
-442
-295
-96
-194
-184
-133
-163
-157
-131
-132
-117
-94
-90
-77
-54
-39
-26
-9
8
28
54
78
97
120
155
194
228
256
279
297
306
293
238
145
44
-38
-96
-137
-160
-166
-169
-172
-169
-162
-159
-158
-154
-149
-146
-142
-137
-131
-126
-123
-121
-118
-114
-111
-109
-108
-103
-99
-99
-99
-93
-87
-83
-81
-80
-75
-69
-65
-67
-70
-67
-63
-60
-59
-59
-58
-53
-45
-40
-36
-30
-16
1
12
14
-1
-35
-46
-31
-50
-60
-19
-55
-184
-301
-336
221
1661
2561
1551
-46
-438
-136
-131
-207
-146
-147
-171
-138
-125
-128
-105
-89
-84
-68
-51
-35
-17
-1
16
37
59
80
107
136
167
202
236
263
284
300
302
275
207
109
15
-54
-104
-141
-156
-156
-159
-161
-156
-148
-150
-155
-151
-143
-139
-136
-135
-138
-140
-131
-121
-118
-121
-119
-111
-105
-104
-104
-103
-102
-102
-101
-94
-89
-93
-97
-92
-85
-85
-85
-75
-63
-65
-78
-82
-75
-73
-70
-56
-47
-51
-50
-31
-7
5
4
-6
-33
-59
-47
-40
-67
-50
-26
-105
-225
-330
-189
807
2193
2185
633
-457
-338
-101
-170
-168
-119
-145
-136
-99
-101
-99
-82
-76
-70
-51
-32
-22
-9
13
35
56
81
103
124
154
192
226
261
292
311
318
311
266
178
73
-24
-101
-141
-156
-173
-189
-185
-173
-169
-165
-158
-153
-150
-147
-149
-150
-146
-141
-133
-124
-120
-124
-125
-117
-106
-102
-104
-103
-96
-89
-84
-80
-76
-73
-74
-71
-62
-58
-62
-62
-59
-60
-56
-47
-40
-37
-30
-13
8
17
11
-11
-38
-39
-32
-56
-48
-9
-71
-209
-342
-334
438
1967
2507
1137
-330
-453
-131
-164
-201
-133
-152
-168
-133
-126
-127
-106
-93
-88
-74
-54
-32
-9
8
26
47
71
98
130
160
191
227
263
292
315
330
320
270
183
78
-17
-86
-132
-160
-172
-178
-182
-179
-172
-174
-178
-176
-169
-164
-162
-161
-156
-147
-137
-132
-128
-124
-120
-117
-116
-117
-115
-107
-103
-108
-110
-104
-99
-97
-94
-92
-92
-88
-84
-86
-86
-83
-81
-78
-74
-74
-75
-67
-62
-61
-55
-47
-39
-23
-5
0
-14
-45
-61
-45
-52
-72
-39
-51
-167
-289
-379
-28
1295
2520
1914
229
-463
-193
-106
-200
-154
-138
-170
-139
-115
-122
-108
-89
-82
-67
-52
-42
-23
2
21
37
57
82
108
137
169
203
236
269
297
314
317
299
244
154
58
-22
-77
-110
-127
-135
-139
-140
-137
-133
-128
-122
-117
-116
-116
-114
-108
-99
-94
-91
-84
-74
-69
-72
-76
-74
-67
-62
-57
-52
-52
-56
-56
-52
-48
-49
-46
-40
-39
-44
-44
-40
-41
-41
-40
-41
-41
-38
-38
-45
-46
-34
-21
-15
-7
5
9
5
-12
-46
-53
-36
-55
-62
-28
-77
-204
-320
-333
308
1748
2441
1275
-209
-445
-132
-141
-204
-159
-175
-182
-134
-127
-143
-125
-101
-95
-93
-80
-59
-40
-25
-12
-4
10
36
65
99
140
173
199
230
260
270
262
232
167
71
-31
-114
-167
-197
-217
-227
-226
-224
-224
-215
-201
-195
-196
-190
-184
-183
-176
-165
-163
-169
-165
-152
-147
-148
-140
-129
-131
-134
-124
-113
-110
-107
-102
-97
-90
-83
-79
-75
-69
-68
-71
-75
-76
-68
-59
-56
-51
-35
-12
8
21
25
10
-15
-9
7
-8
4
40
-20
-142
-258
-215
600
2081
2504
1126
-231
-296
10
-22
-46
18
1
-4
36
41
47
76
83
