# session 23
-39
-96
64
38
-513
-1098
-1191
-1054
-1038
-1034
-959
-910
-893
-859
-827
-805
-766
-723
-715
-695
-621
-577
-597
-573
-515
-518
-518
-457
-417
-402
-366
-345
-324
-273
-263
-300
-268
-181
-147
-144
-94
-53
-102
-159
-144
-105
-58
-41
-153
-291
-350
-307
405
1982
2763
1497
-151
-410
-35
-56
-183
-149
-120
-88
-25
-6
-22
-41
-50
-20
19
44
86
116
105
127
189
205
205
247
274
278
326
380
385
397
442
453
422
388
313
173
51
4
-8
-10
-1
-12
-47
-54
-23
-2
-26
-48
-24
-7
-29
-40
-29
-24
-19
-27
-36
-5
13
-34
-62
-38
-37
-50
-35
-35
-62
-60
-27
-13
-40
-79
-91
-66
-50
-79
-90
-36
-4
-45
-77
-62
-51
-48
-41
-34
-16
-5
-43
-91
-82
-66
-116
-154
-91
-65
-181
-306
-387
-138
1050
2430
2110
357
-609
-374
-190
-281
-223
-156
-213
-237
-211
-199
-196
-194
-170
-125
-109
-117
-109
-86
-40
3
-13
-28
28
72
69
106
174
200
197
207
240
275
245
146
44
-45
-110
-126
-142
-202
-243
-222
-187
-174
-176
-189
-190
-166
-158
-161
-131
-126
-183
-192
-128
-120
-165
-143
-86
-95
-129
-120
-101
-100
-97
-94
-101
-97
-89
-90
-72
-39
-51
-92
-99
-90
-78
-13
53
23
-27
-16
-31
-62
-17
0
-64
-51
-23
-138
-301
-407
-56
1316
2663
2080
236
-578
-264
-103
-187
-163
-158
-160
-97
-103
-145
-101
-51
-61
-58
-33
-25
-10
32
57
49
57
106
150
166
199
259
297
308
334
363
349
290
213
131
49
-32
-103
-135
-130
-134
-156
-172
-184
-192
-181
-168
-170
-163
-146
-140
-134
-119
-122
-139
-136
-127
-131
-124
-95
-93
-125
-127
-93
-93
-125
-124
-101
-99
-101
-87
-77
-85
-85
-71
-75
-89
-78
-61
-61
-54
-43
-45
-27
2
-7
-30
-36
-42
-57
-88
-105
-55
-43
-159
-292
-379
-47
1279
2628
2125
334
-514
-256
-145
-269
-227
-179
-204
-178
-151
-151
-132
-117
-112
-83
-60
-69
-72
-53
-26
8
40
56
76
121
167
189
193
204
237
267
270
255
217
147
78
14
-75
-141
-136
-124
-146
-148
-122
-118
-132
-138
-138
-130
-111
-108
-119
-109
-84
-89
-107
-95
-81
-101
-115
-92
-73
-76
-80
-82
-89
-88
-77
-75
-77
-71
-64
-67
-65
-55
-64
-91
-100
-84
-71
-62
-48
-49
-59
-45
-18
-6
-5
-14
-41
-54
-41
-55
-68
-28
-43
-155
-256
-361
-101
1163
2514
2071
331
-527
-282
-136
-230
-195
-154
-181
-165
-139
-140
-136
-129
-118
-95
-73
-54
-39
-31
-14
15
34
49
85
117
133
167
220
262
281
286
291
298
259
149
26
-43
-76
-117
-165
-194
-200
-197
-188
-177
-174
-167
-145
-129
-132
-136
-137
-137
-131
-124
-124
-117
-106
-114
-128
-122
-114
-118
-116
-106
-103
-105
-99
-94
-94
-89
-79
-72
-72
-74
-69
-60
-54
-49
-43
-36
-19
9
21
10
-11
-38
-47
-34
-54
-64
-18
-52
-193
-331
-391
194
1790
2825
1720
-75
-509
-146
-131
-221
-152
-149
-172
-131
-120
-127
-105
-91
-88
-71
-54
-42
-20
4
19
35
58
85
115
150
186
220
259
294
313
324
328
296
214
104
5
-66
-117
-153
-171
-176
-180
-179
-171
-165
-167
-168
-163
-157
-155
-154
-143
-130
-128
-129
-123
-115
-112
-108
-103
-100
-108
-126
-137
-121
-104
-125
-173
-201
-190
-164
-141
-121
-100
-89
-93
-92
-78
-71
-70
-62
-53
-54
-50
-39
-38
-43
-40
-29
-12
9
19
19
8
-22
-35
-20
-36
-46
-4
-44
-185
-309
-342
245
1786
2777
1717
-12
-452
-129
-134
-232
-178
-200
-245
-198
-166
-168
-142
-113
-100
-85
-67
-47
-23
-3
13
32
54
79
105
127
151
191
234
257
265
277
285
267
213
130
41
-30
-83
-120
-136
-139
-143
-143
-138
-132
-122
-109
-111
-124
-127
-117
-113
-118
-114
-101
-96
-98
-95
-91
-91
-87
-85
-91
-97
-92
-86
-85
-87
-87
-79
-69
-68
-71
-70
-66
-58
-38
-20
-26
-44
-52
-50
-51
-56
-63
-66
-60
-48
-48
-53
-49
-37
-24
-9
-1
-8
-35
-65
-58
-41
-63
-57
-26
-96
-235
-362
-276
648
2166
2453
941
-400
-416
-128
-178
-196
-137
-163
-174
-143
-134
-124
-105
-101
-93
-70
-55
-46
-31
-10
13
35
57
83
111
144
181
212
239
271
297
303
292
263
200
101
3
-68
-113
-141
-158
-173
-181
-177
-172
-170
-162
-157
-161
-163
-154
-145
-144
-146
-146
-139
-130
-127
-127
-118
-107
-108
-112
-107
-104
-106
-107
-102
-96
-91
-90
-90
-89
-85
-81
-82
-83
-77
-70
-68
-65
-59
-55
-50
-44
-45
-38
-12
12
16
0
-30
-49
-36
-42
-74
-45
-21
-122
-267
-399
-207
996
2551
2419
629
-502
-318
-99
-203
-190
-141
-176
-163
-126
-127
-113
-91
-88
-76
-56
-41
-22
-1
16
32
53
76
104
137
174
213
250
285
317
342
354
342
285
186
79
-11
-75
-117
-141
-155
-162
-166
-171
-175
-176
-174
-171
-171
-169
-160
-149
-140
-133
-126
-122
-118
-115
-113
-112
-113
-114
-110
-106
-107
-105
-92
-80
-80
-85
-87
-87
-86
-83
-84
-87
-83
-78
-76
-73
-71
-71
-71
-69
-65
-62
-60
-58
-56
-56
-53
-46
-41
-43
-35
-9
14
18
15
-2
-34
-38
-28
-53
-50
-19
-94
-238
-362
-311
579
2217
2705
1193
-311
-399
-102
-183
-226
-154
-179
-191
-149
-142
-141
-116
-106
-101
-82
-64
-51
-33
-14
6
26
47
70
96
126
159
193
227
260
287
302
301
271
208
117
25
-45
-90
-118
-138
-150
-149
-141
-141
-147
-146
-140
-138
-136
-131
-122
-111
-108
-109
-104
-95
-89
-82
-77
-80
-80
-73
-67
-68
-74
-79
-78
-69
-67
-73
-73
-66
-66
-71
-74
-74
-71
-62
-56
-61
-67
-66
-64
-67
-65
-59
-57
-57
-57
-62
-70
-67
-52
-40
-38
-33
-19
-8
-4
5
1
-35
-57
-37
-43
-67
-38
-52
-170
-296
-373
50
1446
2604
1835
93
-529
-203
-115
-217
-170
-148
-174
-141
-115
-122
-115
-101
-88
-71
-60
-52
-32
-7
14
28
40
63
96
126
159
200
238
270
300
326
340
330
275
174
63
-29
-95
-139
-168
-185
-186
-181
-183
-183
-176
-176
-177
-168
-155
-156
-158
-150
-141
-134
-125
-119
-125
-129
-122
-112
-110
-110
-108
-105
-101
-96
-95
-96
-95
-92
-89
-84
-80
-77
-74
-68
-63
-62
-66
-69
-62
-54
-54
-52
-44
-35
-32
-32
-24
-2
17
16
6
-17
-45
-40
-32
-55
-33
-8
-108
-266
-408
-244
923
2541
2542
766
-467
-326
-85
-194
-191
-134
-170
-162
-124
-132
-127
-99
-87
-79
-64
-49
-32
-15
0
21
45
67
91
120
155
196
239
278
311
338
348
334
284
191
76
-23
-92
-138
-170
-187
-195
-197
-196
-194
-192
-193
-193
-188
-178
-167
-156
-147
-137
-128
-127
-128
-121
-109
-100
-93
-85
-83
-86
-90
-89
-84
-79
-77
-77
-76
-72
-68
-68
-69
-68
-65
-62
-60
-59
-57
-58
-60
-58
-54
-52
-51
-50
-48
-47
-50
-54
-53
-49
-40
-30
-24
-24
-15
3
13
14
3
-29
-39
-20
-38
-56
-13
-41
-183
-318
-363
192
1716
2777
1794
38
-466
-145
-127
-224
-161
-160
-195
-157
-137
-145
-126
-102
-93
-84
-74
-61
-39
-19
-4
15
36
56
81
111
143
177
213
248
278
300
307
293
243
156
57
-24
-84
-127
-149
-154
-155
-159
-164
-164
-158
-152
-153
-155
-147
-138
-133
-128
-122
-118
-115
-108
-101
-101
-99
-90
-85
-87
-87
-81
-80
-82
-81
-78
-76
-77
-80
-80
-73
-62
-58
-68
-81
-74
-58
-57
-61
-52
-49
-61
-72
-73
-57
-37
-44
-63
-51
-31
-43
-57
-43
-19
1
20
21
0
-33
-44
-23
-34
-79
-60
-33
-118
-252
-375
-137
1078
2482
2181
453
-512
-302
-125
-211
-174
-131
-169
-150
-114
-122
-119
-100
-91
-75
-47
-26
-18
-12
10
43
55
59
98
150
172
190
237
294
330
350
360
352
306
216
104
4
-71
-122
-155
-180
-194
-193
-190
-192
-186
-179
-178
-170
-159
-160
-161
-148
-136
-132
-129
-123
-120
-119
-121
-119
-111
-105
-108
-111
-111
-106
-98
-95
-98
-98
-92
-89
-90
-91
-89
-85
-81
-79
-77
-73
-72
-74
-70
-62
-59
-60
-58
-56
-51
-42
-27
-11
1
4
-8
-41
-54
-33
-48
-75
-29
-34
-175
-327
-420
17
1531
2861
2096
179
-548
-204
-111
-227
-170
-149
-191
-155
-125
-137
-124
-101
-94
-80
-61
-43
-24
-6
13
37
58
75
102
140
177
211
252
296
334
355
362
344
281
176
64
-29
-98
-140
-162
-177
-188
-191
-191
-189
-187
-187
-184
-177
-170
-161
-151
-140
-127
-119
-121
-119
-107
-97
-94
-92
-90
-88
-85
-82
-80
-78
-79
-80
-80
-78
-76
-76
-78
-78
-75
-73
-70
-65
-63
-63
-62
-63
-65
-61
-57
-58
-57
-52
-50
-51
-48
-46
-46
-42
-34
-29
-31
-26
-2
19
17
8
-7
-36
-42
-26
-45
-46
-9
-70
-213
-332
-313
449
2045
2727
1376
-222
-428
-104
-156
-225
-157
-170
-186
-145
-139
-141
-117
-106
-100
-78
-63
-54
-37
-18
-1
20
43
64
87
117
153
189
224
258
293
319
321
293
234
148
54
-21
-75
-118
-145
-152
-155
-157
-151
-148
-152
-147
-137
-138
-139
-133
-127
-125
-121
-110
-99
-92
-94
-97
-90
-75
-70
-78
-83
-80
-76
-76
-74
-67
-67
-76
-84
-76
-63
-65
-72
-69
-65
-72
-78
-71
-63
-60
-65
-69
-65
-56
-57
-65
-67
-60
-60
-64
-59
-48
-50
-60
-58
-48
-42
-39
-31
-13
7
14
15
9
-19
-44
-36
-44
-64
-27
-19
-127
-254
-353
-76
1169
2520
2121
378
-527
-283
-107
-190
-156
-121
-158
-144
-119
-126
-110
-81
-75
-74
-58
-31
-11
-4
5
28
56
81
101
124
161
206
244
279
317
343
351
351
324
240
122
21
-52
-111
-155
-177
-180
-180
-188
-194
-187
-178
-178
-173
-159
-153
-160
-160
-147
-141
-145
-143
-134
-130
-128
-124
-123
-126
-123
-117
-114
-116
-118
-115
-107
-96
-91
-94
-96
-93
-88
-85
-80
-74
-71
-74
-75
-70
-66
-68
-69
-63
-59
-61
-58
-47
-40
-39
-27
-3
9
9
1
-27
-49
-34
-41
-66
-30
-28
-155
-302
-415
-73
1367
2828
2270
340
-544
-239
-96
-205
-164
-141
-177
-148
-132
-148
-125
-102
-98
-81
-61
-51
-34
-11
7
24
47
69
90
122
168
217
260
299
328
347
360
355
302
209
105
5
-85
-144
-171
-186
-195
-195
-193
-193
-194
-194
-192
-185
-177
-166
-157
-154
-152
-142
-128
-119
-114
-110
-107
-103
-98
-93
-90
-88
-87
-88
-85
-80
-80
-84
-80
-72
-69
-68
-70
-71
-69
-65
-64
-62
-57
-53
-52
-56
-60
-58
-53
-52
-51
-48
-46
-43
-39
-34
-28
-23
-16
0
16
22
17
-8
-37
-31
-30
-50
-19
-7
-122
-259
-359
-154
1018
2529
2395
651
-443
-273
-88
-206
-189
-138
-181
-174
-140
-145
-137
-112
-101
-91
-74
-59
-44
-27
-10
5
24
48
76
101
129
161
195
230
264
289
302
297
265
199
108
15
-57
-104
-137
-161
-172
-170
-162
-159
-162
-159
-152
-151
-158
-162
-150
-135
-128
-126
-119
-114
-116
-116
-106
-97
-98
-102
-98
-92
-91
-90
-88
-88
-87
-85
-84
-81
-77
-79
-80
-75
-69
-65
-64
-63
-59
-55
-59
-67
-63
-54
-53
-58
-58
-51
-42
-34
-32
-28
-11
11
22
12
-22
-56
-49
-27
-44
-47
-18
-68
-194
-332
-301
522
2047
2522
1118
-337
-455
-125
-138
-182
-137
-151
-151
-115
-112
-108
-87
-76
-63
-47
-42
-31
-5
17
33
48
69
97
127
159
197
237
274
314
346
362
362
334
255
139
29
-55
-113
-154
-181
-192
-195
-196
-193
-185
-178
-174
-171
-169
-167
-161
-154
-149
-145
-142
-138
-131
-123
-117
-113
-113
-116
-115
-110
-104
-104
-109
-110
-104
-101
-99
-93
-88
-90
-89
-87
-88
-86
-78
-73
-71
-68
-68
-67
-62
-56
-52
-50
-47
-33
-8
7
5
-8
-35
-53
-33
-37
-72
-42
-28
-146
-294
-409
-139
1186
2711
2372
496
-523
-277
-105
-224
-195
-156
-198
-177
-143
-148
-137
-114
-105
-88
-71
-59
-42
-27
-17
1
32
58
77
105
144
183
223
273
319
340
344
329
272
171
64
-21
-86
-142
-179
-190
-188
-191
-192
-187
-186
-185
-179
-171
-166
-160
-151
-146
-138
-124
-116
-116
-113
-103
-93
-89
-86
-82
-78
-76
-69
-62
-66
-75
-73
-63
-62
-64
-54
-45
-52
-58
-46
-33
-36
-42
-33
-24
-31
-40
-38
-31
-29
-27
-24
-21
-18
-21
-23
-16
-5
-4
-3
14
36
40
33
20
-9
-22
-10
-31
-38
15
-18
-160
-286
-330
237
1770
2776
1727
-6
-455
-132
-128
-220
-157
-156
-181
-143
-129
-136
-118
-110
-107
-90
-74
-48
-13
-7
-11
18
49
49
59
101
139
167
203
242
268
286
305
302
245
146
43
-41
-97
-126
-143
-162
-173
-173
-170
-164
-158
-161
-170
-170
-161
-154
-148
-138
-137
-148
-153
-140
-126
-128
-136
-132
-125
-128
-133
-126
-118
-119
-126
-131
-131
-127
-124
-123
-121
-120
-115
-98
-88
-100
-109
-100
-92
-97
-96
-86
-83
-86
-79
-66
-58
-58
-63
-66
-58
-46
-43
-40
-19
16
31
22
14
-3
-39
-40
-14
-27
-26
7
-47
-175
-306
-230
694
2232
2541
1026
-324
-334
-40
-94
-113
-50
-66
-62
-24
-23
-15
13
25
36
67
