# session 24
-6
-14
4
22
-53
-154
-143
-139
-249
-377
-455
-30
1355
2483
1706
-5
-608
-288
-181
-243
-187
-178
-203
-164
-139
-140
-115
-94
-86
-65
-40
-25
-8
13
36
60
83
108
142
178
212
246
284
326
370
399
407
393
341
239
116
6
-70
-103
-121
-149
-166
-158
-152
-154
-146
-140
-147
-143
-129
-130
-133
-125
-121
-128
-128
-117
-112
-115
-116
-112
-108
-111
-114
-110
-104
-99
-97
-95
-90
-88
-93
-94
-89
-84
-81
-74
-66
-65
-68
-73
-78
-84
-80
-71
-72
-67
-47
-44
-68
-80
-65
-50
-45
-44
-41
-27
-3
9
8
-2
-34
-52
-30
-34
-59
-25
-39
-177
-311
-390
13
1489
2859
2167
259
-506
-186
-107
-236
-185
-166
-209
-177
-150
-155
-135
-117
-109
-89
-78
-75
-54
-30
-16
4
24
38
60
94
130
165
201
240
276
295
294
280
247
176
79
-12
-74
-111
-135
-151
-157
-153
-151
-152
-148
-145
-151
-156
-148
-140
-137
-132
-122
-114
-112
-110
-105
-98
-89
-81
-84
-92
-85
-73
-77
-85
-81
-74
-76
-78
-77
-75
-72
-71
-69
-58
-53
-61
-64
-56
-55
-62
-62
-53
-48
-52
-55
-52
-42
-31
-30
-35
-34
-30
-26
-8
12
15
8
-9
-40
-40
-20
-42
-45
-11
-71
-194
-297
-274
498
2045
2602
1215
-276
-401
-88
-150
-210
-141
-154
-176
-144
-131
-130
-118
-109
-92
-74
-67
-53
-29
-15
-6
11
31
50
77
109
135
160
197
237
260
272
282
264
198
115
40
-35
-97
-128
-145
-164
-172
-167
-164
-164
-155
-145
-138
-134
-134
-136
-136
-138
-139
-129
-119
-124
-126
-114
-102
-105
-114
-116
-110
-101
-92
-87
-90
-92
-85
-80
-83
-83
-78
-76
-75
-70
-66
-65
-66
-60
-48
-50
-64
-66
-53
-42
-41
-40
-23
5
21
16
-11
-47
-51
-31
-48
-61
-18
-37
-146
-247
-302
140
1473
2461
1606
-30
-545
-215
-112
-174
-132
-127
-150
-119
-102
-101
-80
-68
-65
-46
-28
-19
-5
18
36
49
67
92
122
155
187
218
257
299
323
334
342
326
266
170
67
-21
-84
-128
-161
-176
-176
-173
-175
-173
-163
-154
-153
-153
-150
-147
-145
-143
-141
-136
-131
-128
-128
-124
-115
-110
-113
-115
-114
-112
-105
-102
-107
-109
-101
-95
-91
-87
-87
-86
-81
-75
-68
-66
-75
-82
-74
-66
-68
-68
-61
-56
-52
-46
-43
-39
-20
2
8
6
-7
-44
-57
-33
-43
-60
-25
-60
-194
-319
-367
202
1759
2797
1742
-35
-499
-152
-134
-229
-163
-160
-191
-155
-136
-138
-116
-100
-94
-81
-69
-57
-34
-12
1
18
45
70
85
105
141
178
213
251
281
293
301
290
234
140
41
-35
-81
-119
-155
-171
-166
-162
-160
-154
-148
-147
-149
-148
-142
-136
-129
-123
-122
-122
-116
-109
-104
-96
-89
-87
-79
-73
-85
-97
-91
-82
-84
-85
-79
-74
-72
-71
-70
-70
-61
-52
-58
-71
-70
-58
-51
-55
-60
-58
-52
-48
-49
-51
-46
-36
-30
-33
-28
-6
14
19
18
9
-27
-49
-31
-40
-52
-3
-19
-156
-277
-348
40
1420
2651
1958
201
-478
-187
-115
-216
-162
-146
-183
-154
-132
-135
-112
-97
-98
-81
-56
-44
-37
-31
-18
5
24
35
58
93
126
157
191
223
247
266
275
264
220
145
55
-21
-71
-109
-140
-156
-159
-164
-160
-145
-139
-147
-149
-145
-145
-139
-128
-123
-124
-122
-116
-110
-109
-111
-104
-95
-99
-103
-94
-88
-91
-91
-90
-94
-89
-78
-77
-79
-77
-79
-82
-80
-82
-82
-70
-63
-72
-74
-61
-51
-57
-57
-40
-32
-39
-31
-8
3
2
8
3
-30
-52
-35
-40
-61
-27
-17
-114
-237
-352
-108
1097
2437
2084
395
-515
-300
-114
-175
-145
-123
-162
-145
-111
-110
-102
-86
-69
-52
-48
-42
-15
9
16
30
60
83
96
123
164
201
232
267
292
305
319
320
274
184
84
-8
-82
-129
-154
-166
-174
-180
-179
-169
-159
-156
-155
-152
-145
-138
-137
-136
-129
-124
-126
-127
-124
-118
-113
-112
-114
-110
-104
-102
-100
-90
-84
-87
-89
-86
-83
-80
-76
-73
-70
-68
-68
-64
-58
-58
-59
-56
-52
-56
-64
-63
-54
-45
-40
-36
-30
-20
-5
8
9
4
-14
-42
-44
-32
-56
-53
-16
-85
-226
-347
-323
492
2127
2740
1298
-287
-438
-108
-169
-224
-150
-171
-189
-146
-140
-145
-122
-108
-100
-81
-63
-47
-31
-17
-2
16
33
52
77
105
142
187
221
240
259
280
285
260
203
114
18
-57
-105
-135
-152
-163
-167
-160
-155
-162
-168
-162
-155
-153
-147
-140
-133
-126
-120
-114
-107
-101
-95
-88
-82
-79
-77
-75
-74
-72
-69
-68
-68
-66
-63
-60
-53
-49
-54
-62
-61
-58
-56
-51
-47
-47
-45
-42
-40
-39
-33
-26
-25
-28
-27
-27
-29
-26
-19
-14
-8
6
24
32
28
18
-7
-26
-22
-39
-58
-13
-22
-149
-270
-343
17
1355
2617
2012
270
-467
-198
-114
-224
-185
-168
-199
-166
-145
-156
-139
-122
-118
-104
-87
-79
-65
-49
-36
-18
4
24
45
70
96
124
156
193
223
239
249
250
215
141
58
-16
-77
-116
-142
-165
-174
-168
-163
-160
-158
-157
-153
-143
-136
-135
-131
-126
-124
-121
-115
-110
-101
-91
-92
-95
-84
-75
-82
-86
-79
-77
-80
-74
-69
-72
-71
-66
-65
-63
-53
-47
-54
-59
-51
-42
-47
-51
-43
-37
-40
-41
-41
-40
-32
-21
-17
-1
27
30
7
-18
-40
-36
-24
-45
-46
-14
-66
-188
-301
-250
544
2005
2438
1040
-388
-482
-136
-139
-175
-120
-130
-132
-97
-98
-101
-76
-61
-59
-50
-34
-17
-2
11
33
57
74
94
123
152
181
221
262
287
304
324
332
304
231
126
19
-65
-119
-157
-183
-195
-199
-201
-196
-188
-186
-186
-181
-172
-166
-160
-156
-154
-148
-140
-138
-138
-133
-127
-127
-127
-121
-115
-113
-113
-111
-107
-103
-100
-96
-94
-91
-89
-91
-91
-86
-81
-81
-80
-74
-71
-71
-70
-69
-65
-57
-49
-47
-49
-43
-20
5
13
8
-10
-41
-46
-29
-49
-58
-13
-56
-199
-327
-346
325
1940
2843
1609
-150
-495
-122
-128
-215
-144
-149
-179
-138
-122
-127
-109
-97
-90
-71
-56
-44
-25
-7
7
28
50
69
92
122
155
190
225
257
287
309
314
291
234
145
47
-32
-87
-124
-149
-162
-167
-167
-164
-161
-159
-158
-155
-151
-149
-145
-137
-126
-117
-114
-111
-106
-101
-97
-92
-89
-90
-89
-86
-84
-82
-78
-75
-75
-76
-74
-71
-70
-68
-63
-58
-57
-59
-57
-55
-57
-58
-56
-56
-56
-55
-54
-55
-55
-55
-52
-48
-41
-34
-28
-17
2
14
12
-3
-32
-47
-30
-42
-66
-28
-36
-161
-282
-364
-11
1353
2662
2057
264
-497
-210
-113
-226
-181
-157
-193
-167
-143
-148
-129
-112
-110
-96
-80
-70
-54
-35
-19
3
27
44
61
85
116
149
183
216
245
264
274
273
242
169
83
8
-52
-96
-120
-134
-144
-143
-137
-141
-147
-139
-124
-121
-133
-137
-123
-110
-114
-119
-112
-102
-99
-98
-93
-86
-89
-97
-94
-82
-84
-94
-89
-80
-83
-86
-81
-77
-77
-76
-69
-63
-69
-76
-68
-60
-62
-62
-57
-61
-66
-57
-46
-46
-46
-44
-41
-31
-19
-10
2
15
14
-10
-42
-48
-35
-50
-62
-25
-45
-157
-276
-338
155
1568
2564
1636
-48
-543
-201
-126
-199
-143
-135
-163
-127
-107
-117
-98
-72
-66
-61
-48
-36
-22
0
26
43
56
74
103
136
172
208
243
274
300
318
330
325
278
185
78
-14
-81
-121
-146
-169
-185
-183
-175
-173
-170
-163
-158
-157
-158
-155
-148
-137
-134
-138
-137
-129
-126
-127
-127
-127
-123
-115
-110
-113
-116
-110
-101
-96
-94
-92
-87
-81
-77
-75
-76
-75
-69
-63
-68
-73
-66
-58
-60
-62
-55
-46
-42
-35
-15
5
7
-4
-23
-51
-52
-37
-60
-63
-22
-75
-213
-338
-331
426
2037
2732
1349
-300
-500
-125
-150
-218
-147
-159
-178
-134
-126
-131
-106
-95
-96
-77
-54
-43
-31
-11
9
28
50
75
100
128
162
197
228
258
285
304
310
292
234
137
36
-43
-100
-136
-154
-163
-168
-170
-171
-170
-165
-161
-159
-157
-151
-142
-136
-131
-126
-120
-117
-114
-108
-100
-98
-100
-98
-91
-89
-91
-91
-89
-88
-82
-74
-74
-76
-71
-66
-65
-63
-62
-63
-61
-55
-52
-50
-48
-48
-46
-41
-43
-43
-33
-31
-33
-13
3
-16
-25
2
20
13
-7
-35
-35
-21
-46
-43
1
-61
-205
-320
-278
524
2101
2676
1262
-280
-422
-97
-153
-210
-142
-160
-177
-139
-133
-136
-116
-104
-95
-79
-67
-52
-31
-17
-4
16
36
53
77
106
132
163
199
227
245
261
267
249
204
131
38
-43
-92
-125
-150
-159
-160
-160
-156
-149
-148
-151
-152
-147
-137
-133
-139
-140
-130
-122
-118
-115
-114
-116
-113
-102
-97
-100
-99
-94
-95
-96
-91
-89
-89
-85
-79
-77
-73
-71
-78
-82
-73
-65
-64
-63
-58
-55
-57
-59
-57
-48
-44
-50
-53
-43
-29
-23
-16
-2
12
21
27
12
-27
-48
-31
-37
-61
-25
-13
-117
-244
-335
-35
1210
2509
2057
327
-532
-276
-105
-185
-151
-126
-166
-146
-115
-116
-101
-80
-73
-66
-51
-37
-22
-6
10
31
57
75
84
109
156
195
217
246
285
306
315
315
281
203
104
9
-62
-106
-140
-168
-177
-173
-170
-171
-165
-153
-147
-154
-161
-157
-148
-145
-147
-147
-145
-142
-136
-135
-135
-130
-126
-126
-124
-122
-122
-117
-108
-104
-106
-106
-102
-95
-92
-92
-87
-78
-77
-81
-76
-71
-75
-76
-64
-54
-52
-48
-31
-8
3
0
-15
-46
-59
-41
-51
-67
-28
-44
-173
-305
-390
55
1538
2766
1937
84
-558
-200
-109
-213
-157
-139
-174
-144
-123
-127
-106
-89
-86
-71
-55
-42
-21
0
15
33
55
74
96
129
164
195
227
262
292
314
325
311
259
169
63
-28
-90
-129
-155
-172
-179
-177
-175
-177
-179
-173
-163
-158
-155
-149
-140
-133
-125
-117
-113
-110
-106
-103
-100
-98
-99
-98
-94
-92
-91
-88
-88
-89
-84
-75
-70
-71
-71
-66
-60
-58
-60
-60
-56
-50
-50
-51
-47
-45
-46
-45
-40
-38
-36
-29
-23
-23
-14
9
23
20
3
-27
-37
-21
-38
-51
-9
-40
-178
-300
-347
172
1665
2742
1787
27
-485
-150
-123
-225
-163
-157
-192
-155
-132
-140
-126
-112
-107
-90
-72
-59
-44
-28
-13
3
18
37
63
95
127
157
185
209
231
258
279
270
218
133
45
-24
-77
-122
-152
-164
-167
-168
-166
-161
-157
-154
-154
-153
-145
-137
-137
-141
-136
-128
-124
-118
-111
-113
-115
-104
-96
-97
-99
-97
-95
-93
-90
-89
-88
-86
-83
-79
-78
-80
-75
-67
-72
-78
-70
-59
-57
-61
-65
-61
-54
-54
-63
-60
-46
-34
-27
-26
-29
-18
7
19
14
-5
-32
-36
-22
-41
-50
-13
-50
-170
-286
-294
356
1837
2589
1401
-199
-496
-141
-113
-172
-113
-122
-144
-101
-80
-92
-83
-65
-51
-35
-22
-8
12
30
44
60
80
106
135
165
199
241
277
297
318
347
360
337
276
188
88
-5
-77
-123
-145
-156
-163
-166
-165
-163
-159
-151
-142
-138
-140
-143
-141
-138
-135
-127
-124
-130
-131
-121
-117
-122
-121
-115
-117
-120
-114
-105
-102
-105
-104
-101
-101
-101
-100
-96
-87
-81
-87
-90
-84
-82
-83
-79
-77
-82
-82
-74
-69
-66
-56
-36
-21
-20
-27
-48
-80
-83
-70
-93
-92
-51
-115
-266
-398
-364
479
2132
2725
1240
-367
-503
-153
-208
-262
-184
-204
-225
-187
-183
-184
-157
-143
-142
-130
-113
-95
-73
-53
-35
-16
2
22
48
80
116
152
188
221
248
269
274
247
180
84
-16
-93
-142
-174
-194
-200
-199
-200
-202
-198
-194
-190
-186
-179
-173
-163
-150
-138
-127
-119
-113
-107
-100
-93
-86
-81
-79
-77
-72
-66
-61
-59
-53
-42
-36
-34
-29
-21
-15
-8
-1
2
4
7
10
16
24
28
29
32
37
41
47
52
54
61
72
80
84
95
113
130
138
141
130
97
85
102
87
78
126
99
-35
-154
-198
323
1806
2868
1918
179
-327
-1
22
-81
-22
-15
-47
-14
2
-6
13
29
30
41
55
66
76
86
100
119
137
153
173
194
213
240
274
302
321
336
341
322
268
185
91
9
-54
-102
-135
-154
-165
-174
-179
-181
-187
-198
-207
-215
-221
-219
-215
-220
-229
-230
-224
-229
-245
-254
-251
-250
-260
-270
-278
-289
-294
-290
-290
-305
-314
-315
-322
-332
-337
-340
-337
-333
-341
-357
-363
-359
-352
-355
-368
-372
-366
-365
-368
-367
-371
-376
-369
-361
-359
-353
-343
-331
-316
-312
-325
-353
-373
-362
-351
-360
-336
-327
-412
-527
-636
-426
721
2118
1914
254
-741
-555
-346
-411
-377
-323
-337
-312
-278
-274
-247
-209
-188
-162
-131
-105
-77
-45
-13
20
55
96
145
193
236
281
335
394
448
489
516
532
520
462
372
288
232
196
173
164
173
192
211
224
243
270
294
307
321
339
353
368
391
411
420
429
442
456
472
486
496
506
520
526
526
533
543
544
544
549
553
550
545
541
535
530
527
523
513
502
489
471
455
446
440
427
408
393
387
378
353
316
262
206
184
155
91
79
74
-58
-249
-422
-293
844
2426
2347
464
-822
-681
-451
-595
-637
-632
-723
-760
-764
-813
-852
-876
-913
-946
-975
-1010
-1035
-1052
-1075
-1097
-1110
-1121
-1129
-1128
-1119
-1106
-1090
-1070
-1048
-1027
