# session 2
-9
6
-55
200
687
845
720
714
779
737
631
495
329
187
90
18
-30
-57
-81
-100
-101
-94
-99
-107
-105
-99
-91
-82
-80
-82
-74
-71
-76
-71
-61
-62
-72
-78
-77
-74
-74
-70
-62
-60
-67
-78
-89
-87
-77
-81
-95
-93
-77
-81
-98
-81
-35
-16
-30
-50
-75
-86
-74
-91
-101
-55
-82
-211
-359
-498
5
1659
2789
1596
-320
-661
-149
-124
-235
-145
-140
-170
-123
-122
-139
-105
-81
-83
-72
-57
-38
-8
14
27
50
84
122
163
207
255
306
350
381
399
402
375
300
177
39
-72
-143
-189
-220
-232
-231
-235
-244
-247
-237
-214
-197
-202
-206
-188
-166
-158
-153
-147
-143
-139
-137
-132
-119
-117
-126
-121
-105
-108
-118
-102
-79
-83
-101
-98
-81
-76
-80
-82
-77
-72
-73
-75
-60
-31
-7
-1
-4
-14
-44
-59
-35
-48
-74
-17
1
-110
-263
-386
83
1585
2612
1533
-199
-512
-72
-61
-145
-60
-70
-92
-32
-32
-59
-27
-6
-11
11
39
39
45
76
98
103
123
159
183
203
235
269
297
324
343
350
335
268
150
27
-69
-147
-208
-238
-254
-269
-271
-254
-242
-234
-225
-227
-235
-235
-238
-231
-177
-114
-94
-101
-116
-133
-131
-131
-158
-169
-162
-182
-196
-174
-146
-109
-82
-125
-138
-19
66
-12
-97
-93
-104
-147
-164
-181
-192
-135
-49
-21
-45
-85
-136
-181
-198
-206
-231
-237
-212
-251
-356
-462
-575
-191
1204
2310
1429
-300
-726
-298
-333
-380
165
647
546
227
67
59
94
80
-8
-93
-89
6
132
252
342
356
285
202
159
142
133
138
152
159
168
184
161
94
20
-106
-270
-295
-165
61
516
1043
1159
858
508
296
344
573
588
323
106
17
-73
-148
-175
-203
-237
-263
-283
-293
-297
-311
-318
-315
-327
-348
-346
-334
-337
-339
-334
-333
-328
-318
-319
-324
-315
-305
-310
-321
-311
-263
-199
-172
-185
-207
-222
-212
-200
-234
-234
-171
-220
-366
-502
-594
89
1900
2823
1277
-623
-724
-165
-196
-282
-171
-186
-209
-136
-120
-134
-106
-80
-58
-25
-9
9
57
104
126
154
206
252
303
399
506
552
546
545
560
564
529
430
279
114
-30
-134
-201
-239
-258
-267
-268
-258
-248
-249
-252
-251
-242
-220
-200
-197
-194
-184
-179
-181
-175
-149
-127
-140
-151
-100
-55
-87
-72
65
145
77
1
-17
-32
-48
-48
-55
-74
-93
-96
-61
-19
-20
-40
-48
-74
-90
-77
-97
-105
-45
-74
-227
-406
-515
152
1915
2852
1410
-445
-611
-99
-123
-215
-121
-128
-152
-102
-90
-97
-80
-70
-56
-30
-10
8
30
50
73
99
129
163
201
243
287
330
375
419
448
452
417
323
178
29
-84
-162
-211
-239
-254
-261
-259
-252
-246
-241
-236
-229
-220
-213
-208
-201
-190
-181
-174
-170
-167
-164
-157
-147
-142
-141
-137
-131
-133
-137
-134
-125
-120
-121
-121
-117
-111
-110
-120
-133
-135
-123
-95
-65
-49
-58
-87
-87
-49
-57
-85
-45
-58
-177
-304
-488
-189
1402
2943
2192
175
-506
-77
-9
-158
-92
-80
-137
-103
-74
-86
-71
-55
-55
-47
-33
-24
-14
-2
20
46
65
86
117
148
174
203
236
266
285
296
290
247
156
38
-67
-135
-176
-209
-229
-232
-230
-229
-226
-218
-205
-198
-198
-193
-183
-175
-168
-160
-152
-134
-113
-109
-120
-124
-110
-88
-83
-96
-97
-82
-77
-82
-77
-70
-70
-67
-64
-75
-88
-81
-63
-46
-27
-2
4
-33
-63
-35
-27
-65
-30
20
-66
-196
-329
-275
720
2281
2358
691
-430
-221
-1
-141
-127
-71
-125
-113
-69
-78
-68
-47
-52
-48
-28
-16
3
24
31
41
62
88
111
131
153
174
193
216
243
250
237
217
165
63
-41
-109
-154
-188
-205
-216
-222
-194
-151
-131
-124
-113
-123
-151
-167
-171
-172
-164
-160
-169
-173
-160
-149
-157
-164
-140
-107
-106
-114
-103
-102
-118
-123
-119
-116
-109
-110
-124
-120
-95
-74
-55
-30
-26
-61
-87
-67
-56
-81
-58
-25
-106
-234
-373
-347
538
2005
2191
719
-368
-224
-14
-146
-150
-86
-120
-118
-90
-98
-87
-65
-61
-41
-17
-21
-16
8
15
25
66
99
105
121
154
177
198
227
248
267
309
328
269
167
77
2
-63
-104
-118
-118
-117
-119
-116
-110
-112
-112
-103
-102
-109
-110
-104
-105
-111
-108
-93
-84
-91
-97
-84
-68
-69
-78
-77
-73
-79
-88
-87
-75
-68
-74
-76
-63
-54
-54
-44
-30
-44
-77
-77
-58
-77
-89
-61
-93
-180
-285
-383
80
1375
2052
948
-445
-549
-129
-110
-166
-104
-124
-152
-113
-96
-99
-87
-75
-55
-28
-14
-3
18
35
41
58
94
127
145
167
201
229
254
287
312
312
284
224
129
24
-61
-129
-174
-181
-172
-182
-197
-191
-179
-177
-176
-170
-165
-164
-164
-162
-157
-146
-136
-136
-138
-127
-118
-122
-126
-119
-116
-119
-119
-113
-105
-96
-93
-100
-108
-94
-53
-19
-26
-60
-83
-71
-60
-80
-66
-29
-80
-171
-289
-345
387
1899
2267
678
-705
-529
-63
-103
-119
-32
-66
-75
-22
-19
-19
6
14
26
56
77
91
111
132
153
177
199
224
255
281
309
346
370
374
377
376
337
253
142
22
-77
-131
-157
-185
-208
-202
-185
-188
-202
-206
-199
-188
-181
-185
-189
-186
-184
-183
-175
-172
-177
-177
-171
-167
-163
-155
-142
-134
-146
-156
-140
-124
-131
-141
-139
-122
-87
-56
-59
-90
-117
-112
-105
-129
-114
-56
-105
-235
-378
-459
205
1775
2416
995
-540
-565
-132
-158
-198
-116
-134
-136
-93
-106
-117
-81
-56
-47
-34
-16
9
33
44
56
78
98
115
142
172
194
214
238
261
278
280
246
165
60
-39
-122
-185
-210
-208
-214
-224
-214
-199
-197
-178
-135
-111
-114
-99
-67
-61
-68
-51
-28
-28
-32
-37
-62
-81
-70
-64
-69
-58
-49
-55
-56
-65
-93
-90
-43
-1
35
93
168
227
227
166
95
21
-38
-28
-35
-150
-299
-474
-281
990
2420
2011
290
-474
-202
-109
-122
42
25
-125
-130
-105
-134
-132
-120
-127
-114
-95
-90
-80
-60
-50
-40
-7
38
69
92
120
152
181
210
239
254
219
129
41
-18
-87
-174
-221
-219
-215
-220
-221
-220
-218
-209
-204
-203
-192
-184
-194
-201
-191
-181
-169
-152
-135
-121
-116
-126
-139
-142
-145
-159
-178
-182
-175
-172
-177
-181
-183
-179
-168
-166
-154
-88
-9
13
1
-2
-6
0
12
-3
4
37
-10
-123
-273
-287
493
1904
2177
753
-427
-314
-13
-96
-112
-48
-83
-84
-34
-31
-35
-10
4
5
25
103
224
312
319
282
260
269
283
284
293
321
349
365
377
384
373
328
240
128
29
-46
-102
-136
-157
-176
-188
-189
-189
-189
-189
-190
-190
-190
-191
-187
-183
-187
-197
-202
-203
-207
-220
-238
-244
-237
-230
-236
-248
-249
-240
-237
-239
-235
-221
-205
-198
-199
-199
-185
-153
-111
-82
-82
-102
-113
-93
-85
-109
-86
-37
-89
-206
-372
-412
478
2134
2440
741
-606
-394
-5
-110
-128
-48
-95
-104
-53
-50
-43
-15
-12
-8
16
38
59
80
89
103
138
179
212
240
266
299
339
368
377
380
367
309
202
78
-30
-110
-168
-202
-212
-212
-212
-215
-216
-212
-204
-197
-193
-188
-177
-166
-160
-153
-144
-137
-133
-127
-121
-116
-112
-109
-108
-107
-104
-100
-98
-99
-94
-86
-87
-91
-88
-84
-88
-94
-87
-62
-34
-19
-22
-47
-66
-49
-48
-80
-52
-19
-104
-242
-427
-370
757
2393
2307
442
-653
-300
-23
-169
-147
-76
-125
-111
-63
-69
-58
-28
-24
-14
14
34
53
80
101
119
146
178
204
231
261
289
315
336
348
350
328
267
170
59
-37
-102
-148
-195
-230
-233
-220
-211
-202
-195
-194
-190
-178
-165
-154
-143
-137
-137
-135
-131
-132
-131
-124
-119
-121
-121
-120
-127
-138
-137
-127
-129
-136
-129
-122
-133
-144
-138
-116
-84
-59
-64
-90
-112
-121
-115
-98
-80
-57
-49
-84
-144
-189
-164
-104
-124
-179
-267
-449
43
1740
2760
1345
-603
-794
-179
-116
-192
-102
-124
-150
-70
-48
-78
-68
-41
-10
20
30
53
95
105
99
145
215
238
239
277
330
393
483
525
470
421
409
317
141
-6
-111
-182
-184
-181
-254
-309
-276
-255
-281
-273
-230
-200
-166
-131
-136
-151
-126
-92
-91
-104
-108
-105
-106
-117
-123
-115
-99
-93
-95
-85
-67
-51
-37
-43
-66
-47
3
-5
-69
-112
-120
-117
-133
-167
-146
-57
2
-14
-61
-108
-117
-85
-85
-95
-81
-133
-262
-456
-454
596
2402
2697
904
-492
-336
-54
-219
-210
-85
-123
-158
-122
-111
-117
-107
-71
-37
-54
-54
26
88
87
130
199
188
162
215
252
223
263
381
413
354
336
335
225
39
-76
-108
-150
-181
-159
-176
-242
-239
-196
-216
-232
-179
-147
-174
-191
-185
-172
-134
-126
-214
-311
-320
-300
-303
-289
-282
-314
-323
-303
-291
-248
-169
-129
-117
-83
-65
-65
-36
-14
-51
-68
-9
14
-23
20
76
-43
-204
-210
-148
-105
-47
-47
-124
-110
18
96
119
143
92
-22
-158
-184
537
1998
2457
1065
-290
-257
117
75
42
69
-20
-43
11
0
-7
29
29
22
55
63
34
48
95
104
104
163
221
215
226
270
222
116
121
179
171
174
199
115
-39
-120
-144
-190
-239
-239
-208
-213
-238
-221
-189
-199
-216
-209
-210
-228
-228
-208
-193
-179
-146
-115
-138
-195
-216
-205
-200
-184
-142
-127
-155
-163
-128
-103
-119
-144
-139
-112
-99
-108
-128
-144
-128
-82
-60
-73
-72
-53
-51
-55
-32
-4
1
8
35
31
-23
-50
-26
-33
-43
-2
-28
-128
-212
-272
197
1528
2291
1192
-289
-443
-19
7
-24
62
24
-31
0
11
16
58
92
104
124
160
196
205
192
204
231
235
233
254
284
304
316
325
336
341
325
289
223
114
-20
-135
-210
-253
-274
-281
-305
-351
-360
-308
-284
-316
-320
-275
-250
-270
-295
-295
-275
-269
-290
-288
-236
-189
-191
-204
-190
-174
-187
-201
-176
-139
-134
-136
-117
-102
-95
-76
-70
-95
-105
-74
-48
-49
-61
-64
-42
-5
15
10
-19
-60
-59
-26
-26
-19
9
-49
-192
-385
-432
371
1872
2194
685
-589
-429
-7
-45
-92
-47
-57
-40
-6
-9
2
9
3
41
92
103
104
114
136
176
199
188
213
296
351
340
331
366
409
423
407
351
253
133
22
-59
-116
-156
-174
-177
-177
-174
-164
-161
-168
-168
-151
-136
-135
-134
-123
-120
-127
-124
-118
-124
-126
-111
-95
-90
-93
-97
-95
-103
-137
-172
-191
-210
-210
-171
-138
-136
-128
-111
-112
-108
-92
-90
-95
-81
-55
-27
-9
-28
-77
-90
-55
-61
-105
-60
11
-52
-174
-294
-243
603
1911
1906
387
-583
-304
-28
-140
-138
-76
-112
-106
-68
-75
-71
-43
-27
-13
14
40
54
60
74
97
104
102
120
148
172
200
225
229
229
245
254
227
159
60
-44
-127
-174
-186
-186
-198
-214
-207
-185
-173
-175
-179
-179
-173
-169
-169
-166
-160
-154
-145
-133
-126
-122
-117
-110
-102
-95
-91
-85
-81
-80
-77
-73
-70
-67
-63
-60
-57
-55
-60
-64
-60
-57
-58
-52
-44
-34
-8
21
16
-22
-45
-27
-15
-36
-22
2
-53
-145
-282
-285
556
1970
2079
521
-570
-309
24
-77
-90
-21
-48
-52
-21
-12
2
11
6
10
11
28
84
123
109
102
141
182
191
198
226
241
253
310
386
412
394
362
304
198
51
-72
-109
-109
-127
-125
-106
-119
-122
-116
-191
-272
-208
-88
-84
-116
-21
103
41
-114
-112
-38
-91
-141
-65
-25
-80
-101
-96
-146
-197
-162
-83
-57
-78
-76
-72
-100
-93
-38
-26
-68
-94
-90
-73
-39
-16
-46
-83
-57
-30
-128
-238
-188
-136
-248
-412
-529
-196
987
1848
875
-829
-1241
-713
-479
-437
-283
-238
-245
-167
-206
-360
-336
-158
-126
-252
-270
-140
-90
-165
-176
-91
-57
-57
44
214
325
347
333
348
381
345
266
233
164
-49
-317
-507
-555
-511
-554
-733
-834
-741
-569
-456
-470
-488
-301
-48
-104
-461
-541
180
1262
1646
1213
783
660
568
497
574
708
769
770
796
847
866
860
839
782
761
837
939
1018
1064
961
665
363
201
108
-9
-161
-292
-303
-236
-220
13
810
1505
949
-543
-1448
-1254
-752
-499
-409
-406
-496
-585
-617
-638
-675
-704
-699
-666
-636
-615
-578
-529
-499
-500
-495
-438
-340
-231
-81
95
206
231
204
132
98
145
129
-15
-106
-70
-43
-78
-144
-241
-262
-125
-4
-20
-51
-50
-100
-167
-177
-155
-150
-128
-59
14
86
196
255
147
2
27
196
344
372
259
83
2
49
79
41
70
178
181
61
-11
-5
-53
-150
-139
-56
-103
-206
-285
-433
26
1617
2570
1223
-662
-987
-554
-504
-532
-467
-509
-508
-428
-428
-434
-375
-347
-319
-200
-62
24
86
113
90
87
142
212
276
333
370
413
510
640
678
573
482
469
380
232
143
-20
-274
-353
-274
-289
-348
-323
-293
-234
-2
266
278
104
21
-44
-175
-48
355
505
289
105
56
1
-34
-46
-103
-141
-86
-19
16
91
163
143
119
146
114
17
-18
30
77
79
88
97
-4
-190
-417
-536
292
2140
2742
847
-1091
-1110
-513
-484
-538
-472
-529
-591
-573
-566
-559
-557
-621
-707
-738
-714
-655
-565
-450
-331
-234
-161
-79
40
202
385
503
488
441
514
609
514
285
121
-11
-179
-276
-297
-348
-306
-43
186
163
103
198
305
288
208
139
81
24
7
71
143
141
