# session 13
-557
-792
48
-161
-3158
-6342
-6855
-6013
-5815
-5816
-5499
-5350
-5357
-5247
-5148
-4552
-2810
-1401
-2260
-4117
-4613
-4097
-3837
-3800
-3902
-4299
-4637
-4700
-4717
-4779
-4820
-4781
-4605
-4414
-4286
-3933
-3159
-2275
-1616
-1156
-784
-495
-271
-72
108
262
381
465
533
612
698
776
852
934
1006
1063
1112
1161
1204
1246
1291
1335
1375
1409
1428
1436
1450
1463
1461
1463
1476
1475
1468
1487
1515
1523
1507
1483
1489
1510
1489
1474
1489
1431
1316
1144
981
1592
3130
3689
2201
712
761
1195
1123
1039
1113
1092
968
832
740
632
436
344
483
633
655
647
653
664
704
752
770
762
742
723
708
674
592
487
422
408
391
350
333
338
313
268
240
216
182
150
114
66
18
-18
-44
-84
-133
-146
-128
-141
-187
-221
-255
-301
-333
-373
-437
-471
-477
-515
-542
-534
-586
-698
-873
-980
-322
1073
1413
-51
-1327
-1173
-750
-779
-782
-713
-751
-743
-707
-710
-689
-843
-1340
-1870
-2152
-2264
-2206
-1891
-1470
-1166
-987
-869
-795
-743
-691
-664
-678
-706
-732
-752
-753
-736
-714
-687
-651
-615
-582
-550
-516
-471
-420
-387
-373
-351
-313
-274
-238
-205
-177
-148
-116
-83
-47
-8
34
85
129
140
157
199
212
228
304
336
296
234
86
355
1683
2826
2021
391
56
580
707
649
767
838
843
901
1000
1040
800
300
-55
-94
-54
-16
195
579
925
1137
1274
1373
1442
1509
1566
1604
1650
1667
1622
1648
1799
1877
1843
1891
1964
1971
2054
1968
1240
198
-464
-756
-1012
-1210
-1253
-1213
-1127
-983
-850
-772
-710
-681
-716
-724
-667
-623
-568
-438
-358
-416
-421
-303
-312
-482
-632
-799
-550
745
1872
1029
-735
-1260
-879
-777
-740
-516
-452
-507
-483
-486
-538
-544
-534
-548
-555
-541
-495
-419
-328
-250
-246
-324
-382
-372
-366
-386
-392
-414
-487
-571
-628
-655
-642
-597
-573
-589
-609
-614
-624
-620
-566
-515
-523
-522
-463
-443
-493
-507
-453
-432
-510
-635
-705
-701
-700
-725
-757
-848
-988
-1043
-1024
-1071
-1131
-1132
-1182
-1285
-1435
-1524
-832
637
1088
-118
-939
-359
274
340
415
555
650
917
1258
1411
1438
1479
1552
1639
1712
1758
1796
1818
1792
1739
1695
1643
1572
1513
1474
1426
1349
1253
1160
1092
1047
1006
968
940
905
856
818
789
743
688
643
600
554
519
488
445
400
365
320
261
214
180
137
97
71
55
44
5
-71
-112
-118
-164
-189
-155
-186
-301
-508
-712
-111
1455
2029
532
-929
-805
-336
-380
-391
-334
-387
-338
-511
-1258
-1950
-2100
-2159
-2410
-2562
-2549
-2593
-2675
-2569
-2195
-1700
-1278
-996
-814
-684
-590
-537
-525
-530
-519
-485
-446
-401
-349
-306
-276
-240
-193
-144
-107
-82
-58
-27
3
34
71
106
130
144
164
204
242
259
283
324
357
391
426
432
441
477
490
514
573
573
526
430
288
793
2274
3022
1753
255
263
795
834
822
941
947
961
1027
1033
1094
1146
873
432
318
546
773
915
1058
1106
929
651
533
630
768
821
819
794
721
630
604
659
726
705
589
524
613
735
742
632
459
295
165
8
-151
-221
-282
-471
-745
-1004
-1218
-1352
-1418
-1427
-1330
-1248
-1407
-1695
-1865
-1983
-2128
-2191
-2202
-2227
-2154
-1943
-1749
-1846
-2255
-2068
-571
709
-79
-1790
-2318
-1955
-1858
-1942
-1812
-1570
-1405
-1338
-1250
-1116
-1083
-1167
-1239
-1269
-1243
-1103
-914
-818
-806
-789
-774
-763
-737
-803
-900
-678
-208
138
553
1256
1835
2110
2299
2222
1839
1718
1978
2140
2234
2602
2919
2701
2322
2389
2698
2819
2908
3126
3205
3100
3082
3133
3084
3015
2920
2698
2495
2248
1593
728
197
1
-143
-256
35
1032
1799
1041
-431
-867
-534
-637
-1088
-1337
-1441
-1592
-1758
-1796
-1671
-1554
-1499
-1388
-1281
-1230
-1130
-973
-767
-497
-348
-396
-430
-407
-429
-455
-523
-728
-942
-1061
-1172
-1283
-1336
-1400
-1500
-1533
-1507
-1525
-1529
-1428
-1356
-1395
-1321
-1079
-964
-979
-873
-812
-959
-984
-848
-829
-599
139
817
1091
1355
1682
1842
1989
1997
1375
592
588
1075
1641
2914
4335
4094
2556
1588
1214
645
216
179
173
142
74
-203
-476
-523
-559
-542
-98
640
1231
1562
1536
1000
240
-301
-572
-710
-774
-873
-1076
-1234
-1228
-1249
-1489
-1767
-1793
-1634
-1559
-1595
-1585
-1519
-1482
-1448
-1383
-1368
-1443
-1534
-1621
-1687
-1636
-1539
-1527
-1395
-961
-552
-493
-621
-675
-650
-656
-641
-407
2
312
506
691
734
655
614
539
918
2406
3645
2727
749
7
387
721
879
1006
1086
1277
1492
1459
1296
1254
1265
1219
1196
1213
1208
1233
1294
1270
1172
1109
1069
995
877
693
489
362
251
39
-201
-338
-388
-422
-443
-434
-434
-463
-429
-310
-274
-313
-202
-27
-32
-123
-169
-250
-328
-313
-287
-280
-224
-184
-210
-231
-237
-272
-303
-330
-430
-566
-700
-931
-861
270
1669
1398
-231
-980
-493
-105
-114
-100
-119
-255
-370
-406
-391
-399
-449
-460
-450
-464
-402
-237
-76
51
85
-27
-98
-19
42
27
8
-90
-244
-269
-212
-273
-417
-486
-490
-506
-495
-450
-482
-550
-511
-469
-542
-565
-470
-420
-405
-308
-214
-231
-257
-211
-205
-264
-235
-152
-207
-346
-380
-283
-202
-259
-375
-518
-589
200
1962
2658
1128
-521
-604
-173
-120
-66
48
76
134
156
91
104
173
197
246
351
438
494
537
590
664
694
656
649
683
622
488
435
428
342
238
212
257
364
464
440
376
400
433
427
470
534
529
487
458
443
435
423
415
436
470
479
471
504
578
574
469
401
339
201
157
217
170
92
-22
-37
1092
3039
2957
382
-1268
-743
-212
-373
-329
-298
-666
-970
-1024
-1120
-1331
-1453
-1257
-781
-353
-152
-68
16
127
260
372
399
360
372
409
324
245
241
-111
-804
-1083
-828
-678
-761
-775
-692
-584
-474
-380
-273
-265
-423
-527
-715
-1414
-2248
-2498
-2264
-1887
-1403
-1016
-872
-753
-637
-599
-508
-632
-1200
-1402
-807
-420
-595
-646
-711
-601
742
2048
1006
-1024
-1419
-803
-677
-732
-573
-492
-498
-425
-338
-333
-377
-369
-339
-400
-479
-428
-295
-203
-173
-144
-54
100
264
339
353
479
584
339
-35
-73
111
189
218
370
578
698
767
892
970
882
782
816
866
848
857
924
994
1073
1155
1181
1168
1184
1223
1239
1219
1226
1322
1417
1430
1452
1454
1320
1157
922
768
1783
3860
4398
2496
835
920
1381
1423
1441
1462
1442
1483
1477
1461
1564
1630
1573
1565
1642
1668
1645
1683
1722
1628
1489
1436
1358
1210
1193
1305
1256
1000
775
656
638
832
940
238
-1217
-2420
-2897
-3054
-3177
-3278
-3399
-3464
-3435
-3507
-3674
-3680
-3557
-3486
-3354
-3129
-3091
-3242
-3225
-3015
-2948
-3095
-3174
-3083
-3007
-2945
-2765
-2602
-2584
-2671
-2688
-1924
-264
394
-1094
-2681
-2668
-2166
-2146
-2163
-2090
-2058
-1891
-1694
-1597
-1342
-970
-774
-559
-49
498
840
1116
1423
1677
1806
1845
1961
2213
2379
2334
2210
2099
2000
1938
1880
1752
1614
1586
1647
1672
1639
1640
1700
1707
1563
1301
1062
951
922
897
916
999
1044
989
868
738
695
776
815
682
498
396
372
396
341
142
33
-17
-144
523
2332
3174
1701
-18
-224
236
473
314
-366
-901
-638
-155
-30
-73
-103
-64
38
33
-37
20
148
247
335
413
473
432
289
279
363
248
91
66
-32
-100
-122
-655
-1448
-1473
-942
-803
-850
-538
-366
-870
-1519
-1598
-1172
-646
-279
-214
-278
-195
-194
-520
-776
-645
-337
27
388
530
570
771
911
825
769
727
535
338
236
752
2552
4155
3330
1239
504
857
940
943
1143
1217
1228
1336
1412
1451
1546
1632
1683
1822
1971
1940
1950
2074
1597
311
-809
-1255
-1473
-1620
-1570
-1476
-1456
-1542
-1761
-1937
-2015
-2265
-2663
-2848
-2817
-2850
-2847
-2552
-2205
-2174
-2319
-2384
-2419
-2438
-2340
-2163
-1986
-1818
-1677
-1551
-1434
-1353
-1275
-1190
-1166
-1170
-1118
-1030
-966
-979
-1075
-1232
-1334
-718
968
2095
976
-1025
-1602
-805
306
1404
2215
2567
2878
3284
3241
2514
1594
943
586
379
211
93
123
260
350
304
132
-52
-146
-191
-228
-263
-328
-362
-305
-236
-144
16
74
-46
-133
-90
41
335
723
985
1174
1383
1391
1143
909
764
611
492
413
300
198
166
189
295
518
719
738
663
654
670
601
428
217
34
-194
-56
1317
3003
2594
414
-781
-532
-357
-451
-348
-243
-153
123
388
472
479
434
296
176
183
236
222
216
318
426
416
349
328
364
366
259
141
134
171
161
127
108
213
526
814
775
490
239
160
202
192
41
-137
-293
-524
-804
-1025
-1244
-1483
-1591
-1598
-1725
-1862
-1663
-1221
-938
-859
-818
-788
-693
-560
-609
-731
-778
-750
105
1949
2566
759
-1006
-943
-438
-506
-534
-370
-325
-325
-285
-249
-209
-209
-262
-291
-295
-303
-290
-260
-240
-207
-134
-42
7
-18
-63
-92
-144
-216
-253
-255
-261
-245
-189
-156
-169
-121
3
60
49
85
117
88
84
112
116
127
144
123
116
163
207
242
307
336
263
215
271
298
317
456
569
648
744
411
66
1237
3160
2975
885
-219
108
330
250
324
379
355
390
404
361
307
209
134
170
224
223
250
309
339
379
441
451
404
335
254
197
152
34
-152
-306
-398
-472
-553
-624
-677
-750
-861
-943
-933
-894
-902
-900
-832
-772
-717
-551
-316
-177
-138
-120
-147
-222
-278
-321
-387
-427
-421
-472
-577
-592
-596
-786
-1071
-1295
-1163
20
1757
1852
-137
-1682
-1385
-605
-438
-557
-601
-549
-437
-335
-205
-24
88
136
194
194
157
252
421
455
390
348
254
75
-73
-258
-569
-767
-736
-762
-903
-891
-792
-890
-1089
-1178
-1240
-1338
-1355
-1264
-1095
-776
-305
196
642
1010
1318
1627
1904
2005
1966
2008
2123
2105
1995
1977
1981
1934
1939
1911
1669
1279
1045
1699
3442
4395
2905
768
354
941
1061
922
937
935
912
930
923
911
888
823
825
830
490
-229
-896
-1300
-1582
-1808
-2003
-2204
-2311
-2355
-2502
-2544
-2142
-1499
-1067
-854
-600
-345
-364
-751
-1378
-1892
-1821
-1210
-671
-469
-354
-237
-201
-206
-207
-208
-197
-182
-146
-128
-294
-562
-585
-392
-298
-278
-206
-178
-161
-78
-85
-216
-416
-533
263
2101
2863
1314
-376
-451
-53
-113
-115
28
14
-16
19
9
11
56
53
6
4
58
110
140
199
291
374
451
535
574
535
449
357
299
272
211
122
61
-30
-239
-544
-814
-789
-443
-261
-412
-377
-192
-501
-1014
-915
-411
-136
-82
-55
-37
-1
54
100
130
155
181
45
-365
-713
-745
-715
-839
-1119
-1239
-388
1087
1140
-571
-1708
-1279
-679
-604
-537
-369
-302
-265
-207
-178
-111
22
79
58
121
172
39
-51
132
331
266
75
28
138
172
38
-47
29
94
80
98
162
215
262
319
391
459
485
493
537
599
657
724
769
770
800
873
904
913
964
972
922
969
1088
1120
1101
1123
1170
1207
1183
1084
938
901
1619
3206
3958
2661
978
675
1042
1052
945
955
862
644
458
347
257
215
276
322
203
-61
-329
-340
8
333
414
548
649
251
-443
-879
-1063
-1231
-1384
-1511
-1625
-1655
-1629
-1675
-1798
-1866
-1861
-1907
-1996
-1996
-1964
-2037
-2132
-2133
-2107
-2135
-2222
-2312
-2274
-2109
-2001
-1932
-1731
-1569
-1629
-1662
-1463
-1085
-611
-304
-391
-681
-763
39
1777
2552
993
-999
-1458
-1220
-1233
-1125
-854
-628
-329
-170
-314
-351
-226
-289
-254
283
917
1197
1336
1543
1692
1749
1818
1891
1895
1814
1660
1455
1260
1117
1016
937
877
835
800
764
740
725
696
679
698
691
638
625
648
616
568
582
586
522
457
419
384
385
378
267
184
245
235
58
-126
-274
103
1551
2683
1620
-452
-1147
-747
-638
-729
-621
-580
-675
-690
-643
-651
-664
-587
-460
-356
-220
-45
-43
-338
-627
-552
-236
-6
135
268
260
123
72
89
60
70
117
66
5
75
179
206
207
240
286
316
340
371
384
350
291
243
227
228
197
150
148
149
81
19
14
-15
-38
-20
-96
-211
-246
-268
308
1983
3043
1721
-336
-908
-681
-790
-839
-621
-553
-726
-1033
-1347
-1479
-1466
-1482
-1540
-1571
-1538
-1461
-1388
-1311
-1236
-1240
-1277
-1190
-1014
-952
-1040
-1126
-1118
-1086
-1088
-966
-514
51
204
-37
-39
419
890
1137
1331
1533
1650
1692
1764
1899
1981
1953
1963
2076
2151
2139
2059
1854
1672
1804
2048
1811
1031
304
-114
-360
142
1718
2534
1002
-1088
-1526
-1044
-945
-1000
-926
-930
-949
-901
-883
-859
-787
-746
-714
-641
-581
-528
-407
-252
-128
-64
-82
-128
-127
-157
-310
-485
-561
-600
-700
-803
-810
-778
-790
-809
-786
-760
-748
-723
-688
-678
-693
-703
-695
-682
-661
-644
-660
-695
-692
-645
-602
-575
-538
-517
-514
-453
-414
-534
-723
-934
-867
413
2434
2652
632
-836
-653
-379
-496
-398
-312
-452
-458
-255
104
755
1485
1769
1577
1491
1850
2316
2570
2759
2940
2972
2978
3004
2689
1998
1401
1026
625
240
43
-50
-152
-243
-322
-403
-452
-467
-479
-471
-454
-471
-502
-512
-525
-545
-535
-513
-520
-545
-565
-583
-565
-485
-464
-566
-625
-608
-679
-835
-995
-852
268
1814
1780
10
-1213
-1041
-752
-849
-833
-709
-714
-766
-794
-851
-924
-969
-977
-931
-827
-711
-611
-516
-438
-391
-357
-334
-336
-358
-391
-448
-527
-595
-630
-627
-615
-636
-647
-573
-524
-549
-293
487
1322
1495
989
570
845
1507
1933
2106
2347
2562
2362
1706
1022
628
382
94
-108
-132
-183
-354
-498
-663
-627
465
2168
2237
383
-852
-490
-29
-85
-118
-119
-235
-277
-241
-254
-299
-341
-367
-328
-245
-215
-274
-332
-279
-141
-42
17
54
-14
-57
128
275
20
-431
-679
-586
-155
411
799
963
1044
1162
1306
1137
487
-116
-353
-608
-889
-711
-130
280
200
-105
-125
96
95
-133
-331
-349
-4
272
-334
-1437
-1930
-1267
715
2777
2510
288
-918
-568
-425
-662
-452
