# session 9
-19
-40
22
145
103
-87
-117
-31
-60
-103
-59
-27
-2
51
60
46
81
123
148
191
237
266
312
376
411
405
366
272
129
-6
-114
-213
-288
-323
-336
-342
-349
-376
-405
-375
-281
-206
-195
-199
-174
-138
-135
-165
-167
-121
-90
-84
-57
-38
-66
-69
-32
-26
-14
8
-67
-225
-432
-401
688
2422
2555
671
-712
-490
-92
-161
-161
-76
-86
-72
-39
-44
-29
-6
10
59
111
127
159
243
338
402
420
387
339
310
257
148
50
0
-50
-116
-150
-156
-196
-256
-267
-229
-202
-210
-236
-257
-261
-255
-253
-257
-254
-250
-268
-300
-303
-291
-306
-333
-350
-350
-317
-298
-339
-325
-250
-275
-366
-487
-500
468
2345
2789
901
-745
-630
-187
-231
-197
-78
-108
-112
-70
-74
-57
-17
-29
-49
-15
49
106
162
221
277
330
364
383
409
409
330
190
44
-51
-84
-107
-130
-121
-103
-86
-30
11
-17
-35
7
38
9
-58
-116
-137
-136
-115
-57
-25
-68
-116
-107
-82
-101
-124
-72
-42
-154
-309
-468
-360
773
2360
2201
193
-1074
-740
-325
-376
-353
-276
-295
-267
-208
-187
-150
-112
-101
-68
-5
57
106
144
199
282
323
294
294
344
326
228
151
81
-40
-145
-175
-185
-209
-210
-180
-160
-166
-160
-126
-96
-85
-81
-92
-116
-117
-100
-103
-107
-74
-24
1
13
17
-9
-25
2
31
56
38
-95
-238
-367
-367
570
2350
2787
1042
-543
-538
-185
-250
-267
-194
-213
-198
-146
-141
-142
-139
-139
-108
-75
-67
-38
15
55
90
133
162
159
117
45
-33
-116
-209
-280
-301
-297
-297
-292
-278
-259
-223
-177
-154
-145
-117
-92
-96
-97
-73
-59
-62
-55
-50
-68
-75
-89
-150
-193
-179
-175
-166
-153
-258
-437
-626
-708
102
1887
2552
973
-641
-640
-230
-320
-372
-233
-174
-160
-159
-168
-114
-46
-33
-29
-24
-23
25
133
228
242
210
231
302
320
279
242
207
151
97
44
-37
-137
-194
-179
-142
-129
-123
-100
-92
-113
-119
-107
-130
-175
-184
-170
-150
-107
-95
-127
-94
-14
-21
-56
-33
-24
2
76
22
-144
-324
-424
405
2379
3190
1363
-680
-810
-264
-244
-258
-129
-134
-145
-81
-66
-53
15
63
86
142
190
172
149
207
331
432
455
462
504
483
355
235
156
43
-77
-148
-191
-198
-168
-178
-228
-234
-210
-210
-208
-184
-177
-182
-174
-182
-225
-243
-224
-266
-375
-414
-362
-315
-267
-230
-246
-238
-225
-310
-416
-524
-312
965
2465
1954
-166
-1164
-656
-288
-337
-276
-226
-252
-212
-178
-175
-137
-111
-117
-115
-98
-47
35
104
150
186
206
222
252
275
250
176
94
15
-67
-136
-172
-177
-165
-151
-140
-128
-121
-118
-97
-72
-75
-87
-68
-35
-24
-24
-9
-5
-28
-48
-55
-66
-72
-74
-83
-54
-16
-112
-284
-415
-514
-26
1522
2623
1579
-250
-720
-316
-240
-295
-192
-158
-174
-145
-136
-129
-88
-72
-95
-102
-75
-29
22
86
163
234
277
286
280
273
234
148
53
-20
-72
-95
-92
-89
-93
-92
-88
-82
-71
-62
-59
-60
-64
-73
-87
-104
-123
-124
-83
-32
-39
-95
-124
-115
-98
-83
-100
-113
-49
-23
-135
-306
-511
-237
1272
2835
2260
297
-531
-206
-121
-236
-165
-189
-285
-229
-160
-175
-168
-145
-146
-126
-84
-49
-9
46
109
168
202
211
228
246
218
132
18
-95
-187
-247
-281
-307
-333
-348
-341
-322
-310
-293
-247
-209
-211
-200
-152
-135
-148
-128
-84
-68
-70
-59
-36
-9
9
-13
-28
21
31
-67
-191
-366
-213
1022
2465
2040
200
-660
-307
-105
-178
-120
-103
-149
-105
-78
-100
-76
-44
-34
5
54
69
80
127
193
254
306
332
315
280
232
144
38
-45
-108
-160
-194
-220
-250
-263
-246
-225
-223
-219
-199
-187
-184
-176
-171
-168
-157
-151
-167
-182
-188
-209
-258
-304
-316
-318
-326
-284
-234
-280
-355
-451
-404
585
2256
2415
517
-922
-675
-195
-216
-198
-106
-123
-110
-66
-64
-42
-2
23
58
88
97
123
178
234
285
338
383
407
404
378
315
192
46
-39
-67
-110
-156
-157
-146
-154
-153
-129
-95
-69
-77
-93
-69
-31
-33
-48
-27
12
18
-2
-16
-44
-106
-172
-189
-139
-112
-194
-328
-491
-399
707
2331
2333
468
-823
-597
-247
-328
-324
-253
-293
-290
-236
-231
-239
-217
-176
-124
-76
-23
48
99
130
188
252
270
264
255
214
139
58
-23
-101
-154
-175
-180
-174
-167
-171
-173
-157
-142
-143
-143
-125
-101
-89
-92
-105
-118
-105
-57
-9
6
-25
-68
-55
-8
-22
-30
22
-23
-209
-444
-491
417
2238
2885
1303
-363
-493
-155
-200
-233
-186
-216
-205
-186
-224
-208
-150
-137
-119
-64
-16
10
27
49
96
163
214
233
221
186
123
20
-115
-232
-298
-337
-363
-369
-365
-346
-301
-260
-243
-212
-168
-157
-166
-143
-107
-97
-109
-111
-85
-41
-17
-16
-3
0
-20
9
31
-69
-211
-366
-318
674
2206
2234
514
-637
-391
-84
-151
-99
-47
-140
-143
-67
-56
-43
3
17
18
45
80
124
191
237
248
273
304
280
220
189
158
79
-14
-83
-147
-205
-229
-229
-232
-238
-228
-205
-198
-211
-207
-182
-177
-200
-217
-211
-202
-216
-248
-260
-251
-264
-270
-248
-248
-234
-181
-207
-304
-438
-535
213
2021
2753
1047
-802
-814
-252
-260
-284
-158
-185
-194
-98
-65
-71
-53
-45
-28
19
69
124
181
226
271
331
390
430
447
433
372
256
113
-2
-59
-81
-103
-122
-131
-147
-160
-139
-103
-86
-76
-51
-19
-3
-7
-31
-55
-44
-9
-20
-85
-109
-78
-98
-140
-94
-74
-177
-304
-485
-321
1065
2724
2242
57
-988
-526
-235
-328
-245
-186
-255
-232
-178
-185
-171
-142
-131
-98
-42
2
44
102
150
186
226
248
223
186
153
87
-6
-83
-141
-191
-217
-223
-232
-237
-232
-233
-228
-206
-196
-195
-177
-162
-158
-140
-128
-145
-150
-132
-132
-133
-118
-109
-92
-77
-82
-44
-7
-91
-250
-459
-347
962
2771
2686
688
-557
-321
-86
-219
-215
-173
-205
-163
-120
-146
-151
-125
-105
-78
-48
-21
26
84
124
156
196
226
231
218
188
121
14
-101
-188
-244
-284
-308
-312
-326
-358
-353
-291
-236
-228
-235
-240
-241
-221
-190
-171
-159
-155
-147
-105
-73
-105
-133
-119
-115
-91
-65
-158
-325
-506
-407
763
2455
2381
374
-906
-566
-159
-221
-196
-112
-113
-81
-55
-65
-30
17
35
69
114
150
195
255
323
386
417
425
444
446
402
339
246
102
-24
-79
-108
-150
-186
-208
-208
-186
-175
-187
-184
-164
-163
-174
-175
-164
-145
-122
-115
-123
-127
-138
-175
-189
-169
-188
-205
-152
-168
-295
-448
-576
-1
1756
2864
1472
-627
-972
-348
-219
-284
-186
-159
-159
-119
-127
-118
-64
-49
-39
7
49
88
134
165
204
263
291
283
286
287
240
148
45
-47
-112
-151
-176
-190
-197
-190
-167
-149
-146
-141
-120
-96
-82
-75
-64
-52
-48
-51
-58
-61
-55
-72
-105
-94
-68
-78
-74
-90
-188
-301
-490
-404
897
2671
2492
492
-623
-334
-168
-300
-197
-121
-202
-194
-142
-142
-119
-94
-107
-104
-69
-37
-4
38
76
110
139
158
165
152
105
28
-64
-157
-232
-280
-303
-312
-316
-318
-316
-309
-300
-288
-272
-252
-234
-221
-211
-189
-161
-144
-141
-143
-144
-143
-144
-137
-140
-188
-194
-83
-46
-183
-316
-419
-139
1211
2595
1916
-100
-875
-361
-122
-235
-183
-146
-195
-166
-124
-128
-115
-80
-40
9
61
102
132
160
206
256
285
301
322
320
275
216
160
80
-8
-50
-65
-99
-126
-124
-128
-145
-150
-152
-153
-144
-136
-136
-136
-143
-141
-114
-91
-81
-68
-88
-135
-119
-76
-103
-92
-14
-69
-252
-465
-532
397
2368
3079
1312
-500
-508
-26
-75
-81
62
41
16
75
69
36
53
66
65
81
98
111
146
192
221
236
247
251
240
199
121
26
-65
-140
-189
-218
-242
-257
-250
-231
-222
-221
-212
-193
-180
-177
-173
-166
-164
-162
-156
-151
-148
-141
-131
-138
-169
-175
-149
-163
-182
-142
-168
-297
-447
-590
-94
1543
2651
1441
-484
-838
-336
-299
-385
-282
-283
-323
-270
-245
-245
-212
-190
-181
-158
-132
-102
-54
-4
39
77
103
117
125
120
99
63
14
-44
-91
-121
-149
-174
-178
-171
-174
-170
-150
-154
-193
-217
-208
-207
-226
-244
-254
-258
-250
-233
-210
-195
-216
-240
-225
-220
-229
-179
-152
-209
-301
-512
-312
1290
3161
2763
707
-190
204
307
129
180
189
104
113
101
32
34
63
38
23
60
102
127
153
184
226
277
301
287
283
279
200
54
-58
-118
-179
-223
-210
-196
-221
-228
-200
-197
-204
-151
-107
-197
-312
-241
-94
-124
-232
-190
-67
-2
-13
-133
-252
-145
49
28
-92
-107
-97
-183
-400
-222
1179
2709
2029
-185
-1079
-513
-243
-372
-295
-236
-289
-252
-216
-242
-218
-169
-155
-126
-72
-34
3
62
114
149
193
225
211
179
152
86
-29
-136
-205
-257
-294
-307
-307
-307
-306
-305
-302
-298
-299
-307
-301
-277
-265
-280
-293
-284
-270
-264
-258
-242
-236
-252
-246
-223
-239
-228
-164
-190
-327
-564
-727
139
2152
2984
1342
-384
-364
98
29
30
204
225
240
330
372
395
453
523
576
582
560
560
573
582
594
593
568
539
505
454
386
295
172
48
-38
-92
-134
-164
-188
-206
-206
-202
-217
-240
-253
-263
-275
-285
-295
-305
-316
-319
-309
-302
-301
-304
-321
-335
-321
-325
-340
-303
-301
-396
-521
-700
-480
831
2130
1456
-361
-989
-549
-405
-501
-422
-369
-369
-306
-271
-273
-246
-219
-196
-147
-96
-65
-38
-2
37
71
101
125
133
131
124
96
36
-25
-63
-87
-110
-116
-105
-94
-92
-90
-95
-111
-113
-88
-71
-88
-110
-111
-100
-85
-72
-63
-44
-22
-40
-68
-44
-30
-55
-30
-6
-94
-272
-540
-370
1085
2717
2199
166
-689
-234
-33
-142
-46
36
7
26
46
37
59
92
117
149
176
201
238
288
343
376
386
405
425
404
354
289
190
80
4
-54
-106
-117
-103
-112
-131
-125
-115
-120
-129
-133
-135
-130
-127
-135
-146
-142
-135
-142
-144
-139
-158
-180
-161
-157
-174
-146
-156
-260
-401
-567
-201
1294
2510
1526
-428
-938
-395
-243
-328
-236
-207
-245
-203
-174
-177
-150
-115
-87
-51
-13
27
76
129
184
218
221
212
199
161
98
30
-40
-106
-150
-172
-188
-195
-192
-187
-179
-167
-157
-149
-140
-133
-130
-130
-137
-154
-172
-176
-168
-164
-161
-153
-166
-184
-166
-163
-187
-151
-131
-226
-373
-617
-537
813
2568
2304
323
-684
-339
-168
-308
-239
-174
-215
-177
-122
-112
-76
-28
4
49
107
163
217
259
288
321
354
361
335
289
232
155
57
-39
-105
-141
-164
-180
-185
-178
-166
-151
-134
-121
-112
-106
-105
-104
-103
-106
-117
-126
-125
-118
-110
-98
-83
-90
-104
-93
-98
-111
-75
-71
-155
-269
-436
-221
1031
2275
1674
-6
-609
-246
-144
-231
-158
-141
-179
-139
-119
-136
-110
-79
-71
-51
-15
26
72
115
152
188
218
238
240
219
185
139
73
2
-46
-77
-100
-106
-96
-94
-104
-102
-86
-78
-82
-75
-59
-55
-56
-50
-43
-44
-49
-50
-46
-32
-21
-38
-63
-63
-67
-93
-75
-64
-152
-268
-421
-425
460
1894
1970
437
-592
-376
-133
-231
-203
-133
-164
-147
-100
-106
-107
-84
-69
-51
-23
6
36
70
107
141
165
178
177
167
152
128
83
22
-39
-86
-117
-133
-135
-132
-131
-139
-151
-156
-150
-151
-167
-183
-186
-186
-192
-195
-188
-168
-147
-135
-118
-92
-91
-103
-89
-93
-117
-88
-82
-174
-300
-476
-310
888
2204
1743
64
-652
-323
-172
-234
-167
-148
-179
-126
-93
-107
-80
-35
-17
-2
25
58
92
127
166
199
212
216
212
188
155
123
65
-12
-65
-90
-118
-147
-144
-118
-105
-103
-92
-86
-89
-76
-46
-40
-61
-75
-68
-58
-51
-43
-31
-13
-6
-32
-49
-36
-60
-93
-55
-55
-159
-310
-503
-149
1377
2588
1538
-414
-837
-255
-124
-218
-129
-107
-138
-97
-76
-78
-50
-28
-12
23
53
77
119
175
219
243
262
277
270
237
184
103
6
-79
-150
-211
-245
-246
-233
-226
-224
-213
-199
-197
-197
-183
-165
-159
-158
-154
-157
-164
-154
-141
-141
-135
-121
-135
-147
-131
-142
-144
-97
-128
-253
-438
-607
46
1843
2738
1231
-567
-631
-112
-169
-254
-142
-155
-183
-121
-105
-114
-90
-71
-53
-14
21
54
97
141
183
225
254
263
256
231
175
94
9
-63
-119
-153
-161
-159
-156
-150
-142
-138
-133
-128
-123
-119
-117
-121
-121
-119
-126
-124
-103
-84
-73
-58
-64
-83
-74
-77
-95
-55
-52
-163
-315
-541
-352
1111
2704
2101
53
-743
-278
-117
-239
-157
-118
-165
-125
-92
-105
-79
-47
-35
-7
30
61
98
137
170
201
223
225
212
192
155
92
14
-62
-125
-168
-185
-188
-184
-174
-165
-165
-165
-154
-145
-147
-147
-140
-131
-129
-139
-149
-136
-111
-105
-99
-86
-100
-115
-105
-119
-123
-74
-99
-215
-362
-517
-13
1579
2537
1298
-419
-615
-159
-174
-234
-123
-137
-172
-116
-98
-103
-70
-44
-30
0
30
57
94
130
157
178
187
182
172
157
124
72
9
-56
-110
-138
-143
-141
-137
-133
-135
-135
-127
-118
-115
-114
-114
-117
-115
-113
-124
-135
-122
-96
-87
-81
-72
-95
-120
-107
-107
-109
-68
-93
-197
-311
-489
-161
1324
2511
1519
-310
-693
-198
-142
-234
-136
-131
-170
-111
-78
-93
-82
-63
-47
-14
21
45
