# session 20
-12
-23
15
36
-46
-141
-113
-6
86
177
275
353
411
435
383
255
95
-64
-200
-289
-331
-356
-382
-388
-368
-347
-333
-317
-302
-299
-295
-275
-249
-230
-215
-202
-193
-185
-172
-157
-145
-139
-136
-121
-98
-88
-97
-99
-88
-82
-78
-69
-61
-54
-38
-30
-44
-52
-42
-32
-27
-22
-21
-19
-13
-8
-5
-3
-6
-8
-3
-1
-2
3
8
8
14
25
26
31
53
70
70
60
26
-3
18
14
-25
23
45
-114
-305
-434
-80
1553
3334
2735
368
-736
-302
-94
-254
-196
-144
-194
-152
-111
-138
-128
-98
-98
-84
-47
-22
-6
17
46
80
124
177
243
314
378
450
545
617
629
603
539
407
224
55
-71
-160
-211
-232
-247
-259
-258
-249
-243
-236
-234
-247
-250
-235
-230
-224
-207
-205
-213
-200
-189
-197
-190
-171
-171
-179
-174
-157
-146
-154
-164
-155
-147
-154
-153
-142
-138
-138
-124
-111
-115
-122
-113
-100
-98
-108
-108
-95
-90
-96
-96
-93
-98
-98
-84
-74
-79
-87
-86
-81
-76
-70
-66
-66
-60
-52
-49
-41
-24
-12
0
10
-16
-54
-44
-46
-79
-39
-19
-159
-330
-460
-164
1342
3110
2723
524
-660
-339
-118
-253
-211
-162
-214
-186
-147
-157
-140
-111
-98
-72
-51
-42
-19
10
39
84
123
144
187
259
326
386
451
507
540
554
531
435
275
118
4
-84
-151
-179
-182
-191
-200
-190
-178
-183
-187
-180
-179
-180
-164
-151
-164
-175
-157
-140
-144
-141
-129
-130
-130
-120
-117
-122
-123
-123
-115
-102
-107
-126
-123
-104
-94
-91
-92
-100
-104
-96
-91
-94
-93
-88
-90
-96
-91
-83
-87
-91
-83
-78
-79
-78
-81
-83
-72
-63
-65
-64
-58
-52
-40
-22
-14
-13
-26
-60
-64
-41
-71
-85
-25
-75
-257
-415
-403
448
2275
3060
1439
-478
-680
-201
-192
-249
-167
-187
-200
-141
-132
-140
-108
-82
-71
-54
-39
-18
18
52
73
100
150
209
271
341
415
497
584
639
645
615
527
357
164
13
-96
-177
-221
-234
-236
-236
-236
-236
-235
-235
-234
-228
-218
-207
-202
-209
-213
-198
-178
-177
-187
-184
-170
-162
-166
-164
-152
-146
-155
-161
-158
-153
-147
-141
-137
-137
-132
-123
-118
-107
-91
-88
-98
-102
-101
-94
-80
-72
-81
-85
-74
-63
-63
-62
-59
-60
-56
-50
-47
-33
-7
5
6
3
-27
-49
-35
-53
-72
-18
-49
-226
-403
-498
137
2060
3451
2170
-119
-688
-174
-149
-297
-197
-178
-216
-162
-142
-154
-124
-103
-100
-75
-48
-30
-8
23
60
92
120
164
228
294
368
449
517
567
600
591
511
365
195
46
-67
-147
-194
-214
-224
-226
-226
-231
-228
-213
-210
-218
-213
-205
-206
-201
-190
-188
-184
-174
-175
-178
-165
-151
-148
-147
-143
-142
-138
-134
-135
-133
-127
-128
-129
-121
-117
-119
-112
-93
-91
-112
-116
-95
-87
-96
-94
-85
-86
-86
-74
-66
-71
-78
-75
-68
-70
-72
-64
-57
-58
-58
-52
-50
-41
-26
-25
-23
-1
16
9
-16
-41
-34
-25
-56
-42
0
-98
-276
-425
-344
763
2687
3095
1173
-512
-465
-92
-207
-241
-159
-200
-201
-138
-129
-124
-98
-93
-78
-35
-17
-24
-5
41
76
101
135
183
243
308
369
435
499
539
556
545
468
328
179
52
-54
-124
-154
-174
-197
-209
-203
-190
-185
-191
-192
-177
-170
-184
-192
-174
-159
-165
-172
-168
-167
-176
-181
-167
-141
-131
-151
-165
-143
-123
-150
-186
-161
-107
-97
-115
-107
-93
-103
-109
-102
-111
-131
-127
-105
-97
-101
-105
-107
-105
-108
-130
-148
-131
-109
-109
-98
-69
-65
-83
-87
-82
-80
-75
-64
-51
-32
-8
4
-14
-47
-45
-29
-52
-45
0
-68
-238
-423
-391
655
2545
3009
1142
-578
-550
-115
-173
-188
-101
-156
-173
-117
-112
-88
-30
-29
-48
-23
16
41
55
70
98
141
189
236
279
343
434
506
551
608
645
597
478
330
157
-12
-129
-197
-246
-285
-290
-260
-254
-290
-290
-248
-254
-295
-276
-230
-236
-258
-232
-196
-193
-195
-188
-201
-221
-202
-168
-172
-184
-154
-120
-131
-151
-148
-136
-119
-99
-93
-91
-73
-69
-95
-107
-79
-58
-73
-81
-59
-46
-55
-60
-52
-45
-42
-37
-29
-28
-23
-1
0
-34
-53
-29
-1
-1
-4
19
43
37
10
-25
-38
-17
-37
-61
6
-10
-201
-387
-450
192
2047
3387
2134
-117
-690
-186
-154
-284
-168
-158
-228
-186
-158
-169
-138
-115
-112
-81
-54
-52
-29
9
32
55
93
133
185
248
305
363
431
492
537
544
478
353
207
61
-61
-140
-186
-213
-229
-241
-232
-214
-220
-229
-215
-209
-218
-213
-206
-208
-196
-180
-185
-188
-170
-160
-163
-160
-148
-145
-146
-139
-133
-136
-133
-122
-124
-137
-133
-113
-104
-111
-115
-107
-91
-85
-98
-102
-84
-74
-86
-88
-73
-66
-69
-63
-49
-40
-48
-59
-52
-40
-44
-48
-36
-26
-34
-41
-30
-15
-14
-17
-15
-10
10
38
39
14
-10
-21
-15
-27
-42
-5
-13
-144
-298
-422
-56
1479
3034
2426
335
-619
-268
-108
-247
-197
-145
-189
-174
-141
-142
-131
-108
-93
-79
-65
-42
-12
7
24
60
105
139
165
201
260
335
402
449
480
500
484
410
289
151
15
-90
-148
-179
-198
-205
-207
-209
-206
-196
-186
-184
-188
-188
-177
-163
-160
-165
-163
-151
-151
-162
-163
-153
-149
-144
-131
-131
-144
-136
-119
-126
-131
-114
-109
-117
-112
-105
-106
-100
-93
-98
-96
-84
-80
-85
-87
-80
-69
-70
-82
-82
-70
-68
-68
-60
-53
-49
-42
-45
-56
-58
-51
-49
-54
-53
-38
-25
-25
-22
-8
5
19
28
7
-32
-41
-43
-67
-42
-13
-102
-237
-366
-258
850
2553
2665
774
-653
-503
-144
-215
-210
-128
-161
-167
-129
-128
-116
-82
-69
-58
-34
-15
4
35
66
86
111
159
213
260
315
388
462
523
566
584
563
491
360
199
56
-58
-145
-190
-205
-227
-244
-235
-222
-222
-219
-213
-209
-196
-186
-192
-194
-184
-177
-175
-169
-166
-165
-160
-158
-157
-150
-146
-153
-154
-143
-140
-145
-140
-133
-133
-128
-114
-108
-113
-113
-105
-99
-98
-99
-98
-94
-88
-86
-93
-93
-79
-71
-79
-82
-72
-65
-68
-70
-60
-47
-49
-55
-45
-31
-30
-25
-10
5
5
-25
-47
-31
-42
-73
-34
-42
-187
-346
-442
56
1744
3180
2253
104
-655
-241
-141
-264
-192
-170
-211
-168
-136
-142
-123
-106
-101
-81
-58
-41
-20
6
35
68
101
133
177
235
298
368
437
481
506
533
521
420
266
124
7
-91
-155
-184
-197
-205
-209
-212
-209
-200
-194
-194
-191
-184
-178
-172
-167
-166
-166
-160
-155
-157
-155
-147
-144
-142
-134
-130
-133
-131
-123
-117
-118
-118
-115
-110
-106
-104
-102
-101
-98
-92
-85
-82
-87
-90
-82
-77
-81
-80
-74
-75
-74
-64
-55
-57
-65
-64
-53
-48
-53
-49
-38
-37
-39
-28
-15
-10
0
15
19
-2
-35
-33
-19
-52
-52
-4
-77
-245
-388
-341
612
2429
3011
1315
-417
-497
-100
-180
-248
-163
-176
-188
-144
-140
-133
-100
-99
-99
-62
-30
-26
-13
23
57
81
111
145
187
239
297
360
426
473
494
493
452
352
219
90
-20
-101
-147
-170
-188
-196
-187
-177
-182
-186
-182
-177
-171
-165
-163
-161
-156
-152
-152
-151
-145
-140
-143
-145
-138
-137
-145
-143
-134
-133
-132
-126
-123
-120
-119
-119
-114
-110
-114
-111
-99
-99
-107
-110
-110
-104
-97
-107
-117
-94
-75
-105
-136
-128
-116
-117
-107
-89
-83
-82
-70
-52
-45
-49
-70
-115
-133
-103
-112
-143
-109
-119
-239
-375
-452
103
1730
2862
1718
-270
-776
-288
-175
-279
-233
-215
-211
-156
-146
-148
-104
-82
-87
-59
-22
-8
4
16
39
113
171
174
320
655
856
802
744
769
771
751
712
584
387
201
45
-70
-135
-174
-201
-214
-218
-220
-215
-209
-216
-228
-226
-221
-229
-236
-221
-204
-211
-226
-224
-217
-217
-219
-214
-203
-193
-190
-188
-176
-156
-146
-153
-154
-143
-141
-148
-151
-149
-141
-126
-118
-120
-117
-110
-107
-103
-98
-94
-93
-98
-104
-95
-78
-72
-74
-69
-60
-46
-27
-10
-16
-50
-58
-18
5
27
61
-34
-232
-393
-433
369
2325
3333
1684
-451
-699
-145
-170
-272
-159
-168
-210
-161
-153
-169
-146
-128
-111
-78
-64
-61
-34
1
31
65
104
141
184
247
337
437
516
578
631
631
535
373
198
32
-116
-232
-301
-323
-315
-302
-292
-281
-270
-266
-264
-253
-234
-224
-223
-217
-204
-190
-177
-161
-149
-143
-136
-124
-118
-112
-100
-95
-103
-110
-104
-98
-99
-99
-93
-90
-90
-87
-84
-83
-81
-75
-72
-74
-71
-65
-60
-58
-58
-60
-57
-52
-52
-49
-38
-34
-44
-49
-40
-31
-30
-32
-20
0
8
11
9
-23
-46
-26
-39
-56
0
-35
-220
-395
-468
196
2099
3407
2087
-142
-660
-161
-146
-278
-181
-169
-206
-159
-144
-153
-125
-110
-107
-85
-66
-51
-25
2
28
60
94
130
178
241
309
375
443
502
539
550
517
410
248
91
-28
-115
-173
-204
-221
-228
-226
-224
-221
-214
-207
-202
-199
-199
-198
-192
-186
-183
-176
-168
-164
-161
-155
-148
-142
-139
-134
-124
-120
-121
-111
-101
-106
-114
-112
-110
-110
-108
-107
-105
-100
-93
-82
-82
-94
-95
-84
-84
-85
-76
-72
-77
-74
-67
-70
-73
-69
-65
-66
-65
-58
-57
-60
-50
-32
-31
-41
-29
-5
5
-6
-36
-56
-41
-35
-46
-12
-14
-135
-294
-444
-157
1279
2906
2540
526
-602
-355
-141
-261
-230
-157
-203
-228
-201
-177
-149
-133
-130
-98
-57
-59
-58
-8
34
45
85
148
176
192
247
313
366
428
483
497
477
421
310
179
69
-17
-81
-126
-161
-169
-154
-152
-167
-172
-163
-144
-127
-148
-192
-192
-163
-167
-182
-161
-142
-150
-133
-96
-105
-145
-144
-109
-97
-119
-138
-131
-112
-104
-113
-132
-142
-127
-111
-113
-110
-90
-88
-113
-124
-104
-84
-87
-92
-87
-91
-91
-58
-36
-68
-94
-69
-28
3
14
-7
-21
-1
-16
-64
-54
-21
-39
-64
-104
-183
-267
-362
-25
1330
2622
2003
192
-592
-283
-139
-237
-196
-159
-198
-185
-127
-87
-82
-94
-86
-58
-39
-27
-6
22
37
46
92
164
203
219
265
328
375
411
442
458
439
373
265
139
24
-57
-109
-145
-164
-173
-189
-195
-172
-155
-167
-181
-175
-169
-172
-170
-158
-153
-147
-129
-113
-114
-118
-119
-122
-121
-114
-111
-110
-108
-112
-116
-106
-97
-106
-120
-116
-104
-96
-95
-97
-95
-93
-99
-101
-86
-68
-66
-69
-60
-46
-39
-35
-39
-65
-94
-90
-85
-111
-97
-59
-128
-261
-379
-322
545
2058
2372
795
-636
-604
-196
-204
-225
-150
-165
-174
-133
-120
-113
-87
-71
-58
-39
-21
2
32
59
86
118
159
209
259
308
366
431
484
519
542
531
454
318
171
46
-53
-123
-164
-185
-199
-207
-204
-195
-186
-182
-178
-174
-168
-161
-158
-158
-157
-150
-141
-134
-133
-133
-127
-124
-126
-124
-120
-122
-124
-120
-117
-117
-110
-101
-102
-104
-99
-94
-95
-94
-88
-84
-82
-79
-76
-76
-74
-69
-67
-64
-55
-46
-40
-27
-9
-1
0
-4
-33
-53
-40
-53
-72
-27
-39
-178
-330
-422
69
1650
2902
1943
-34
-650
-222
-128
-237
-167
-148
-185
-147
-127
-135
-108
-86
-84
-68
-46
-29
-7
18
42
69
98
130
171
218
270
324
376
417
448
461
432
344
218
87
-22
-100
-151
-183
-198
-202
-204
-204
-200
-195
-189
-183
-179
-178
-176
-172
-169
-166
-159
-152
-148
-146
-140
-134
-131
-130
-127
-123
-121
-121
-118
-111
-108
-108
-107
-101
-95
-94
-94
-91
-84
-81
-82
-80
-74
-68
-66
-65
-63
-64
-64
-58
-54
-55
-53
-50
-49
-48
-46
-46
-42
-30
-22
-19
-10
4
11
15
9
-22
-40
-27
-40
-50
-10
-43
-180
-318
-370
216
1786
2806
1703
-116
-575
-186
-140
-229
-157
-150
-182
-142
-119
-125
-105
-86
-76
-55
-33
-15
9
34
54
79
107
137
176
222
265
307
354
401
433
443
422
361
259
140
34
-48
-106
-139
-156
-167
-174
-173
-169
-167
-165
-161
-158
-157
-157
-158
-158
-156
-150
-145
-146
-152
-153
-145
-138
-138
-144
-147
-141
-137
-144
-147
-136
-128
-134
-137
-131
-123
-120
-124
-129
-129
-122
-117
-118
-119
-110
-99
-97
-103
-108
-105
-96
-89
-88
-87
-80
-72
-73
-76
-68
-50
-38
-35
-24
-2
9
4
-13
-43
-55
-36
-42
-51
-14
-43
-160
-274
-332
202
1714
2730
1654
-165
-626
-196
-102
-182
-116
-106
-137
-97
-70
-72
-54
-31
-15
7
28
45
62
81
108
142
172
208
251
295
343
400
455
501
535
550
526
447
323
186
61
-36
-101
-140
-167
-181
-181
-181
-185
-185
-178
-169
-163
-163
-167
-168
-164
-158
-157
-159
-157
-153
-157
-168
-168
-159
-157
-160
-160
-158
-161
-164
-163
-159
-156
-156
-157
-156
-153
-150
-149
-149
-148
-141
-136
-137
-142
-139
-130
-123
-120
-119
-121
-125
-121
-109
-99
-95
-86
-68
-53
-48
-48
-66
-103
-108
-86
-106
-113
-63
-109
-259
-394
-414
317
2039
2912
1478
-394
-656
-195
-191
-266
-174
-176
-200
-152
-142
-147
-116
-95
-86
-64
-45
-29
-3
24
49
80
114
150
193
242
296
355
410
456
489
500
471
388
261
126
15
-68
-123
-149
-158
-165
-166
-161
-156
-151
-142
-138
-138
-133
-124
-119
-116
-112
-107
-99
-86
-80
-80
-76
-66
-61
-60
-55
-49
-49
-51
-49
-44
-37
-34
-34
-32
-26
-18
