# session 5
26
103
-139
220
1406
2181
2076
1901
1963
1943
1856
1828
1774
1688
1630
1577
1505
1410
1277
1130
1010
921
845
786
754
738
712
668
619
578
548
516
469
408
360
333
304
259
218
197
187
171
124
73
61
46
26
69
86
-34
-233
-532
-549
589
2151
1926
101
-853
-506
-299
-438
-413
-376
-434
-424
-395
-405
-390
-363
-357
-341
-314
-289
-263
-235
-209
-182
-160
-148
-142
-143
-148
-150
-157
-190
-254
-334
-406
-452
-471
-478
-478
-470
-457
-445
-433
-422
-415
-405
-391
-382
-376
-368
-363
-360
-344
-318
-302
-292
-281
-285
-287
-257
-249
-259
-215
-197
-281
-420
-631
-451
843
2212
1688
-26
-658
-255
-117
-206
-127
-93
-128
-85
-42
-36
-7
25
46
79
112
142
179
214
241
266
288
303
307
298
290
289
279
241
175
100
35
-5
-25
-36
-44
-45
-42
-38
-33
-29
-29
-31
-32
-30
-29
-31
-37
-39
-33
-27
-28
-22
-17
-35
-48
-25
-24
-53
-29
-16
-94
-208
-390
-302
793
2140
1806
149
-610
-245
-58
-158
-99
-43
-82
-66
-34
-29
2
38
50
68
99
118
134
172
219
240
248
272
291
280
262
249
219
167
95
4
-85
-143
-174
-190
-197
-201
-203
-204
-203
-199
-191
-183
-185
-191
-190
-182
-180
-184
-179
-167
-158
-149
-144
-163
-187
-166
-139
-159
-149
-110
-164
-277
-457
-544
310
1976
2288
555
-813
-557
-101
-169
-175
-80
-110
-116
-74
-77
-67
-30
-12
7
40
64
91
132
173
205
234
254
262
263
261
253
229
173
76
-36
-128
-190
-225
-240
-245
-244
-237
-227
-216
-206
-198
-191
-183
-175
-169
-168
-172
-176
-179
-176
-162
-150
-141
-123
-119
-144
-150
-135
-153
-143
-93
-135
-256
-429
-546
169
1812
2413
928
-559
-514
-92
-146
-175
-80
-106
-120
-69
-61
-57
-22
1
18
46
75
107
141
173
206
237
256
264
263
255
242
221
175
102
17
-62
-118
-147
-158
-163
-167
-171
-169
-162
-156
-156
-149
-138
-137
-139
-134
-130
-128
-121
-128
-145
-134
-106
-100
-95
-81
-94
-105
-87
-97
-103
-59
-80
-181
-314
-474
-54
1386
2329
1286
-283
-516
-109
-108
-174
-85
-92
-120
-71
-55
-62
-35
-13
0
26
54
81
112
143
169
196
217
228
227
219
209
200
176
123
49
-23
-85
-135
-159
-159
-163
-175
-177
-167
-164
-169
-171
-169
-165
-163
-158
-150
-151
-154
-145
-144
-165
-169
-144
-130
-128
-112
-118
-147
-132
-113
-142
-128
-88
-146
-263
-459
-489
503
2109
2139
360
-760
-413
-75
-179
-152
-73
-117
-109
-57
-50
-36
-8
4
27
68
105
139
176
217
255
281
297
308
311
304
290
259
192
96
-6
-89
-142
-176
-200
-206
-198
-197
-205
-204
-194
-186
-181
-175
-170
-169
-168
-164
-158
-153
-147
-146
-150
-144
-128
-118
-104
-96
-117
-125
-102
-117
-130
-75
-77
-186
-342
-555
-218
1302
2519
1530
-332
-733
-203
-110
-200
-102
-84
-118
-72
-46
-45
-9
15
24
53
83
108
146
187
220
253
286
306
310
303
291
270
226
145
35
-71
-145
-184
-199
-203
-205
-206
-201
-188
-176
-172
-166
-155
-149
-149
-149
-148
-145
-143
-146
-148
-146
-150
-158
-149
-131
-119
-109
-112
-134
-129
-114
-133
-119
-79
-137
-263
-454
-543
315
2011
2409
772
-595
-433
-63
-160
-170
-80
-109
-107
-58
-60
-55
-27
-15
5
40
66
91
126
161
193
221
244
261
266
260
248
225
179
106
17
-61
-113
-140
-154
-162
-168
-170
-167
-164
-159
-152
-145
-142
-138
-133
-132
-134
-131
-126
-124
-127
-128
-127
-135
-148
-144
-125
-114
-106
-95
-105
-120
-105
-108
-131
-100
-86
-163
-280
-486
-384
821
2249
1838
75
-674
-265
-83
-188
-120
-76
-120
-84
-46
-58
-41
-10
-2
20
62
92
115
144
176
207
236
254
262
270
269
249
217
168
86
-12
-97
-154
-185
-195
-197
-202
-203
-193
-193
-209
-207
-176
-152
-134
-114
-123
-145
-128
-106
-129
-148
-123
-105
-126
-144
-139
-134
-136
-132
-106
-65
-64
-109
-111
-74
-87
-87
-30
-70
-258
-487
-363
760
2213
1977
99
-966
-534
-121
-189
-151
-43
-64
-72
-51
-72
-75
-12
72
114
121
165
236
269
301
381
462
529
595
579
455
355
346
325
224
76
-79
-202
-222
-151
-135
-210
-224
-148
-117
-141
-147
-150
-153
-124
-108
-126
-117
-78
-75
-104
-124
-138
-147
-131
-105
-106
-118
-102
-98
-169
-245
-235
-209
-239
-242
-189
-187
-317
-465
-100
1018
1702
779
-659
-944
-439
-205
-191
-98
-68
-135
-177
-181
-173
-169
-163
-104
-20
15
34
77
120
156
181
197
257
344
380
374
352
289
202
131
59
-15
-63
-100
-134
-173
-241
-248
-109
10
-21
-20
92
108
6
-32
1
6
-37
-95
-107
-63
-46
-77
-89
-85
-100
-106
-90
-93
-102
-72
-59
-98
-80
-13
-56
-190
-349
-399
241
1505
1799
427
-869
-828
-352
-242
-223
-138
-124
-155
-160
-109
-12
40
33
50
92
122
158
191
194
233
337
416
438
465
481
446
405
362
255
106
-18
-117
-181
-189
-182
-184
-155
-114
-127
-162
-136
-84
-88
-121
-113
-91
-102
-128
-140
-118
-75
-66
-76
-47
-24
-57
-102
-117
-99
-79
-125
-194
-176
-144
-212
-358
-518
-258
940
2159
1758
218
-554
-349
-191
-237
-200
-170
-192
-192
-227
-291
-278
-203
-161
-147
-98
-24
34
71
94
129
208
291
311
278
237
204
186
171
137
105
108
83
-9
-54
-31
-111
-275
-318
-261
-237
-212
-151
-109
-99
-124
-178
-213
-240
-301
-339
-306
-280
-297
-282
-219
-167
-129
-98
-94
-79
-35
-30
-35
-17
-88
-239
-401
-380
525
2140
2478
858
-542
-480
-148
-224
-233
-129
-123
-123
-88
-85
-86
-57
-3
68
120
112
86
127
213
244
227
255
330
353
278
183
153
135
37
-85
-163
-255
-354
-385
-396
-393
-275
-145
-147
-136
-34
-22
-102
-88
-24
-30
-30
12
-1
-36
-6
27
-2
-36
-49
-88
-131
-122
-107
-111
-81
-90
-185
-303
-454
-160
1284
2733
2111
175
-618
-248
-102
-165
-7
78
-63
-186
-122
64
126
16
4
130
128
-31
-140
-144
-67
81
198
211
199
208
200
177
139
43
-94
-195
-243
-274
-289
-271
-242
-226
-234
-266
-281
-243
-214
-264
-342
-376
-378
-377
-386
-410
-408
-344
-256
-201
-186
-192
-186
-154
-137
-123
-68
-54
-88
-51
-54
-228
-457
-582
-31
1607
2755
1618
-334
-777
-288
-200
-257
-166
-165
-149
-51
-58
-99
-53
7
68
147
183
202
274
336
350
398
500
581
626
663
664
609
527
361
83
-104
-82
-89
-249
-337
-270
-205
-173
-143
-163
-188
-151
-113
-117
-116
-108
-132
-173
-196
-201
-217
-250
-264
-252
-257
-280
-277
-263
-253
-239
-252
-240
-172
-214
-342
-427
-633
-351
1435
3219
2438
225
-586
-223
-159
-230
-111
-99
-144
-97
-82
-112
-124
-133
-114
-70
-61
-59
-11
34
56
122
208
244
274
315
289
198
55
-153
-262
-156
-82
-204
-292
-222
-191
-258
-245
-145
-122
-120
-3
94
20
-115
-169
-121
-37
-24
-77
-87
-54
-51
-71
-83
-101
-119
-100
-88
-141
-160
-108
-164
-313
-426
-541
-111
1395
2441
1270
-649
-1049
-500
-341
-387
-292
-224
-203
-187
-166
-81
-23
-59
-49
58
181
282
316
275
269
340
399
406
387
359
347
344
282
145
-7
-134
-231
-298
-359
-407
-387
-326
-321
-353
-333
-281
-249
-201
-125
-89
-102
-90
-26
14
-3
3
66
115
121
131
118
39
-11
21
6
-51
-6
23
-105
-320
-508
-43
1628
2967
2001
-3
-624
-217
-136
-226
-134
-105
-131
-98
-83
-68
-17
17
53
121
157
145
133
125
119
166
281
376
382
346
301
212
85
-60
-203
-276
-280
-303
-333
-317
-291
-267
-230
-241
-293
-280
-217
-198
-200
-181
-173
-178
-188
-236
-279
-254
-244
-286
-282
-242
-260
-311
-353
-384
-391
-403
-409
-349
-333
-467
-693
-849
-206
1685
3061
1978
-61
-601
-161
-135
-272
-212
-228
-245
-123
-68
-109
-107
-97
-112
-81
-18
14
29
75
155
262
388
494
546
561
561
531
439
286
145
60
-28
-128
-181
-215
-255
-226
-149
-150
-187
-165
-157
-202
-191
-123
-115
-142
-119
-92
-98
-87
-67
-80
-93
-76
-84
-120
-120
-133
-212
-222
-151
-217
-381
-529
-590
205
2029
2734
1053
-685
-649
-150
-197
-213
-108
-148
-117
26
89
117
161
179
198
210
197
244
348
383
363
408
484
490
457
441
431
399
315
160
-13
-114
-141
-168
-213
-229
-240
-292
-320
-276
-247
-281
-309
-318
-348
-375
-376
-380
-391
-405
-408
-359
-293
-296
-308
-243
-193
-230
-241
-194
-213
-241
-141
-83
-190
-327
-528
-341
1171
2925
2457
353
-631
-302
-150
-238
-176
-190
-245
-173
-129
-158
-165
-185
-222
-226
-196
-126
-29
40
110
229
342
408
433
410
386
380
314
206
131
8
-164
-176
-57
-73
-196
-204
-138
-134
-131
-70
-24
-7
21
30
-2
-28
-22
-1
13
-1
-21
-38
-94
-181
-228
-229
-247
-327
-417
-417
-346
-276
-195
-167
-231
-278
-375
-234
1008
2618
2302
297
-747
-366
-90
-171
-137
-154
-239
-186
-127
-157
-173
-172
-177
-157
-137
-120
-74
-27
-5
35
107
181
236
259
264
242
137
-35
-184
-281
-351
-390
-397
-398
-397
-391
-389
-400
-401
-348
-274
-264
-294
-297
-296
-307
-310
-334
-377
-367
-339
-349
-280
-34
215
252
158
103
6
-150
-12
472
812
803
807
1435
2899
3839
2594
307
-591
-231
-87
-219
-201
-179
-231
-251
-166
40
157
38
-84
-66
-50
-68
-43
1
49
114
155
175
218
244
209
153
91
-33
-195
-278
-310
-399
-464
-473
-555
-495
-46
325
175
-114
-179
-194
-266
-291
-252
-234
-253
-146
122
230
41
-138
-158
-158
-180
-174
-186
-252
-277
-176
-79
-144
-296
-397
-466
-606
-551
419
1957
2199
696
-563
-563
-321
-357
-321
-259
-297
-287
-250
-279
-301
-280
-256
-233
-218
-201
-148
-96
-56
50
191
234
197
191
220
237
237
192
79
-45
-117
-156
-187
-196
-200
-210
-202
-181
-167
-150
-141
-164
-186
-186
-201
-227
-206
-135
-71
-45
-39
-21
14
43
55
57
43
23
29
16
-59
-74
12
-15
-212
-469
-519
487
2514
3258
1529
-312
-474
-135
-147
0
214
152
72
76
9
-53
-66
-89
-55
24
34
22
62
109
171
280
370
409
451
489
478
400
228
-16
-223
-326
-388
-452
-469
-438
-430
-430
-388
-350
-328
-283
-262
-289
-265
-176
-115
-102
-103
-109
-114
-103
-74
-63
-96
-136
-130
-92
-103
-151
-128
-106
-237
-441
-590
-302
1071
2651
2258
186
-929
-554
-229
-297
-239
-153
-166
-141
-108
-97
-58
-38
-22
48
102
102
139
218
286
375
474
503
492
494
457
373
316
247
87
-86
-171
-215
-277
-307
-287
-278
-294
-279
-225
-190
-200
-207
-182
-160
-172
-204
-231
-252
-274
-308
-344
-352
-322
-291
-292
-309
-317
-329
-332
-295
-265
-256
-192
-156
-260
-422
-623
-418
1072
2888
2592
532
-562
-278
-105
-203
-111
-62
-143
-145
-99
-65
-10
12
-10
1
47
74
88
123
172
215
257
296
326
359
385
361
284
190
95
-5
-88
-128
-145
-174
-194
-178
-165
-172
-156
-142
-169
-166
-119
-122
-166
-170
-164
-189
-198
-158
-122
-138
-166
-137
-87
-99
-124
-95
-88
-126
-92
-59
-174
-358
-522
-291
956
2329
1838
-89
-1016
-577
-200
-196
-136
-96
-108
-43
-17
-73
-59
22
58
63
87
124
182
255
283
276
321
402
438
438
436
413
352
262
158
50
-61
-146
-182
-186
-181
-183
-192
-175
-149
-181
-196
-104
-52
-134
-170
-81
-1
23
-2
-71
-59
35
-21
-185
-167
-70
-152
-260
-200
-96
-70
-123
-244
-348
-406
-427
42
1296
2157
1357
-102
-557
-289
-246
-302
-193
-131
-150
-143
-165
-214
-213
-188
-176
-164
-141
-106
-79
-69
-31
47
96
99
111
150
179
174
142
99
48
-8
-58
-118
-198
-235
-193
-153
-169
-184
-167
-164
-193
-212
-205
-190
-189
-201
-205
-207
-227
-237
-192
-118
-77
-75
-62
-41
-41
-52
-75
-102
-75
-67
-190
-383
-576
-379
904
2494
2324
537
-540
-337
-111
-144
-27
95
83
56
-8
-64
1
65
24
-17
9
70
153
217
247
292
323
259
200
267
359
326
192
44
-78
-165
-239
-307
-343
-344
-318
-264
-221
-203
-174
-159
-200
-206
-115
-41
-70
-114
-102
-81
-97
-120
-134
-150
-127
-61
-49
-117
-168
-132
-58
-85
-218
-357
-498
-211
1082
2276
1573
-207
-866
-457
-249
-292
-223
-175
-191
-183
-165
-124
-48
9
45
92
147
196
252
336
406
417
434
498
531
512
510
498
416
311
224
132
56
25
6
-19
-29
-22
-13
-3
8
23
35
12
-43
-72
-81
-122
-175
-186
-174
-185
-216
-218
-178
-154
-159
-153
-151
-166
-175
-184
-149
-76
-117
-280
-477
-478
493
2282
2728
1008
-521
-460
-136
-273
-286
-195
-281
-336
-288
-297
-328
-307
-305
-358
-391
-361
-308
-276
-265
-245
-193
-132
-87
-37
12
17
-27
-111
-223
-294
-298
-307
-322
-272
-217
-224
-197
-122
-140
-241
-269
-216
-174
-147
-118
-121
-149
-149
-120
-109
-123
-114
-87
-105
-136
-88
-39
-81
-90
-35
-83
-223
-373
-286
690
2152
2165
428
-816
-607
-221
-242
-217
-133
-132
-100
-59
-50
-3
47
56
89
144
171
205
278
359
429
489
540
587
627
653
664
635
536
395
278
206
151
92
58
87
127
112
