# session 21
-9
-30
33
-2
-245
-452
-449
-414
-450
-436
-372
-358
-364
-344
-342
-342
-296
-259
-274
-280
-271
-294
-295
-238
-208
-221
-201
-175
-208
-242
-218
-179
-150
-134
-141
-137
-106
-100
-113
-113
-120
-123
-87
-72
-105
-108
-66
-38
-26
-23
-34
-39
-35
-17
21
9
-51
-43
-14
-56
-58
-40
-140
-284
-418
-137
1293
2875
2373
310
-670
-305
-119
-256
-210
-164
-207
-176
-149
-180
-176
-137
-98
-57
-25
3
27
21
13
44
82
109
155
209
248
302
360
393
437
490
473
401
309
160
11
-41
-76
-163
-199
-151
-135
-172
-186
-164
-129
-89
-78
-98
-88
-56
-60
-61
-19
-3
-55
-93
-61
-29
-47
-50
-12
-12
-58
-65
-39
-52
-93
-95
-60
-61
-107
-120
-85
-76
-111
-133
-105
-57
-56
-101
-118
-105
-111
-119
-111
-100
-78
-55
-69
-78
-48
-34
-45
-30
-33
-77
-75
-49
-111
-153
-52
-23
-183
-321
-342
67
1357
2479
1740
-56
-749
-373
-188
-245
-174
-142
-181
-144
-106
-124
-122
-101
-95
-58
11
42
19
4
57
149
174
135
158
255
328
373
442
518
557
548
525
479
342
146
10
-69
-154
-214
-223
-233
-261
-258
-234
-254
-286
-246
-195
-203
-192
-148
-181
-247
-204
-120
-146
-226
-232
-190
-175
-170
-135
-98
-123
-185
-195
-162
-168
-171
-125
-129
-184
-160
-105
-138
-147
-44
-14
-128
-167
-67
-19
-46
-29
-33
-106
-115
-70
-100
-129
-86
-123
-251
-398
-456
294
2076
2966
1508
-395
-691
-262
-274
-335
-190
-141
-180
-187
-188
-177
-160
-135
-86
-65
-81
-66
-26
8
38
62
104
181
242
297
404
497
519
560
628
624
555
458
310
145
16
-82
-145
-169
-175
-180
-189
-183
-163
-180
-218
-199
-158
-171
-190
-167
-143
-132
-135
-163
-174
-164
-178
-160
-94
-91
-131
-112
-106
-163
-177
-140
-126
-125
-112
-95
-94
-131
-150
-89
-17
-12
-36
-59
-74
-63
-57
-85
-82
-36
-17
-22
-12
-37
-94
-72
-29
-100
-133
-8
-10
-203
-334
-426
-27
1614
3113
2243
111
-634
-220
-141
-275
-188
-165
-240
-212
-160
-169
-174
-160
-146
-112
-67
-48
-41
-15
16
42
71
99
128
175
231
274
331
414
454
431
409
372
236
54
-52
-84
-116
-163
-189
-191
-192
-200
-214
-226
-210
-172
-148
-136
-131
-142
-158
-162
-153
-149
-174
-196
-153
-92
-102
-147
-141
-102
-90
-105
-122
-150
-181
-165
-120
-115
-121
-86
-59
-96
-148
-153
-115
-78
-68
-71
-70
-79
-101
-92
-35
-1
-15
-18
-23
-62
-83
-89
-120
-105
-76
-152
-276
-390
-185
1026
2583
2398
490
-695
-416
-94
-224
-257
-149
-124
-139
-128
-98
-75
-65
-48
-43
-51
-12
55
70
61
96
146
175
201
243
303
369
422
467
507
526
525
486
344
130
-9
-46
-94
-177
-216
-215
-235
-259
-243
-200
-173
-179
-210
-225
-202
-189
-215
-227
-196
-177
-169
-120
-104
-183
-215
-138
-118
-184
-197
-173
-184
-182
-155
-157
-163
-136
-104
-105
-140
-155
-114
-100
-145
-141
-94
-109
-126
-77
-55
-66
-52
-76
-133
-124
-84
-53
-27
-133
-355
-498
-366
596
2338
2933
1273
-525
-634
-143
-140
-213
-171
-200
-194
-147
-158
-126
-43
-54
-125
-97
15
58
29
52
125
150
141
168
239
331
411
448
491
601
686
636
512
403
264
84
-39
-89
-147
-226
-267
-234
-190
-227
-284
-234
-124
-77
-98
-150
-203
-195
-155
-178
-215
-163
-106
-133
-156
-132
-134
-145
-120
-109
-152
-203
-188
-112
-82
-123
-136
-117
-123
-103
-64
-117
-185
-104
-5
-78
-177
-140
-109
-158
-143
-57
-34
-73
-101
-88
-32
-6
-56
-73
-48
-97
-126
-46
-35
-99
-73
-94
-263
-441
-461
382
2364
3410
1785
-410
-736
-191
-217
-362
-253
-218
-250
-215
-187
-182
-177
-172
-150
-116
-95
-82
-44
6
24
41
107
164
179
219
277
331
435
530
513
475
485
421
282
181
67
-112
-232
-230
-201
-202
-202
-195
-201
-203
-185
-186
-203
-194
-183
-200
-207
-172
-121
-103
-132
-154
-146
-141
-135
-120
-114
-114
-127
-157
-148
-97
-82
-92
-82
-94
-127
-113
-85
-92
-82
-56
-73
-98
-78
-66
-95
-108
-76
-48
-59
-68
-37
-19
-51
-66
-26
10
10
0
-30
-69
-55
-22
-60
-90
-42
-57
-205
-404
-374
634
2503
3106
1366
-457
-558
-111
-167
-237
-177
-236
-227
-114
-118
-163
-105
-64
-112
-122
-52
0
22
61
75
51
69
139
194
228
273
332
406
468
477
459
446
375
212
58
-22
-65
-83
-96
-164
-226
-185
-139
-178
-179
-115
-143
-216
-170
-112
-179
-220
-133
-85
-149
-196
-178
-162
-148
-115
-116
-167
-181
-139
-132
-157
-141
-125
-144
-147
-153
-187
-158
-73
-74
-166
-188
-94
-56
-157
-212
-123
-84
-157
-166
-104
-91
-84
-80
-146
-162
-59
-24
-76
-41
-23
-155
-210
-104
-54
-69
-95
-205
-338
-427
-131
1218
2779
2411
380
-787
-502
-161
-220
-246
-172
-135
-163
-194
-159
-107
-103
-106
-81
-36
16
26
0
24
96
144
192
260
295
339
463
553
538
562
666
680
559
421
278
102
-10
-54
-163
-261
-212
-158
-199
-194
-160
-201
-212
-153
-154
-182
-140
-121
-167
-150
-73
-91
-171
-166
-126
-144
-154
-131
-141
-164
-159
-150
-127
-88
-105
-149
-133
-114
-142
-139
-122
-151
-154
-119
-131
-140
-92
-78
-121
-124
-74
-39
-52
-96
-113
-90
-100
-148
-127
-67
-136
-307
-478
-454
507
2389
3067
1321
-612
-760
-229
-218
-315
-225
-175
-192
-210
-201
-153
-131
-127
-88
-59
-40
0
15
18
66
129
182
233
270
327
413
460
484
543
596
605
573
451
259
98
-30
-148
-199
-205
-237
-237
-190
-216
-281
-244
-181
-206
-223
-190
-199
-216
-180
-174
-214
-207
-166
-161
-171
-169
-175
-171
-135
-116
-153
-185
-154
-123
-156
-177
-125
-95
-129
-126
-93
-116
-131
-83
-84
-148
-148
-99
-101
-108
-59
-26
-50
-58
-30
-25
-29
-5
-6
-55
-66
-51
-91
-89
-27
-105
-293
-427
-310
783
2684
3126
1195
-582
-566
-138
-230
-278
-166
-160
-184
-187
-198
-174
-138
-122
-99
-76
-64
-39
2
33
41
42
71
141
213
262
313
378
420
449
489
508
468
376
243
104
2
-79
-152
-206
-223
-188
-165
-213
-229
-165
-148
-181
-159
-142
-182
-176
-131
-137
-153
-142
-153
-168
-136
-102
-129
-157
-109
-77
-144
-174
-105
-87
-121
-97
-72
-95
-101
-98
-116
-111
-90
-83
-66
-51
-79
-110
-105
-99
-95
-57
-39
-97
-139
-97
-44
-13
27
9
-72
-83
-57
-111
-120
-37
-78
-255
-442
-403
618
2439
2906
1187
-469
-591
-236
-205
-218
-182
-174
-184
-217
-214
-171
-152
-117
-64
-64
-82
-63
-28
1
25
70
142
177
186
263
365
402
437
518
596
629
581
434
245
69
-56
-120
-190
-272
-262
-210
-252
-304
-260
-218
-209
-184
-209
-276
-253
-170
-152
-169
-178
-208
-219
-183
-171
-171
-114
-78
-144
-200
-170
-131
-134
-151
-168
-172
-132
-59
-52
-158
-215
-116
-37
-82
-86
-39
-93
-151
-65
32
26
-24
-97
-132
-76
-82
-146
-62
-17
-221
-416
-455
49
1702
3141
2164
-74
-830
-348
-166
-201
-152
-226
-225
-82
-85
-149
-102
-70
-82
-68
-60
-37
27
48
49
117
172
175
237
326
351
435
598
652
635
670
633
479
344
182
-57
-181
-160
-203
-296
-283
-242
-284
-318
-283
-255
-261
-258
-247
-258
-256
-188
-128
-176
-243
-214
-169
-184
-184
-148
-151
-177
-166
-155
-181
-192
-177
-173
-165
-136
-130
-151
-149
-131
-127
-109
-98
-148
-180
-120
-68
-91
-109
-77
-49
-57
-67
-40
-11
-29
-56
-51
-27
1
-19
-80
-36
40
-98
-311
-404
-327
633
2536
3169
1354
-513
-600
-149
-173
-202
-134
-165
-156
-113
-122
-98
-82
-125
-109
-44
-46
-42
41
90
57
57
110
152
206
281
320
361
462
538
529
524
536
450
274
105
-49
-143
-129
-148
-252
-267
-204
-227
-266
-222
-190
-208
-213
-199
-183
-179
-193
-190
-170
-173
-179
-159
-144
-146
-138
-135
-156
-161
-147
-157
-178
-170
-146
-127
-129
-145
-125
-82
-91
-126
-114
-103
-128
-122
-81
-80
-111
-117
-91
-55
-40
-71
-114
-108
-71
-53
-47
-36
-29
-24
-11
-2
-9
-32
-48
-50
-75
-78
-23
-61
-212
-353
-439
175
2005
3290
2054
-107
-666
-192
-144
-273
-174
-130
-175
-156
-128
-118
-97
-101
-119
-99
-54
-27
-12
12
32
54
100
148
170
200
266
339
399
444
470
477
458
401
302
169
31
-63
-96
-118
-171
-211
-207
-207
-221
-202
-182
-203
-205
-169
-166
-198
-204
-180
-149
-132
-145
-150
-135
-143
-150
-128
-132
-153
-125
-102
-135
-148
-118
-117
-139
-125
-102
-110
-114
-109
-127
-130
-88
-76
-123
-131
-78
-67
-114
-130
-107
-95
-87
-69
-67
-71
-56
-53
-77
-82
-54
-19
-1
-12
-33
-20
-5
-58
-129
-86
15
-53
-247
-368
-369
245
1866
2945
1766
-226
-737
-257
-127
-204
-163
-162
-147
-98
-133
-149
-82
-58
-72
-37
9
18
25
56
75
75
123
208
236
251
337
421
457
516
583
588
560
500
360
188
51
-59
-139
-187
-226
-235
-225
-254
-271
-230
-223
-243
-194
-160
-226
-245
-166
-146
-208
-224
-172
-134
-143
-172
-182
-169
-166
-173
-159
-131
-126
-152
-175
-171
-143
-105
-105
-146
-149
-107
-112
-143
-122
-96
-114
-117
-99
-107
-118
-101
-92
-104
-82
-30
-29
-78
-83
-37
-28
-37
9
20
-67
-110
-75
-72
-61
-57
-174
-337
-462
-177
1287
3062
2723
480
-777
-402
-80
-218
-218
-154
-189
-183
-141
-127
-120
-114
-103
-69
-29
-11
-10
12
59
78
79
133
214
238
241
305
407
480
505
520
549
518
368
191
68
-35
-113
-132
-155
-216
-252
-241
-222
-201
-177
-166
-167
-168
-167
-168
-165
-154
-152
-168
-168
-149
-146
-154
-146
-138
-136
-123
-119
-147
-166
-145
-115
-124
-155
-153
-130
-119
-90
-69
-105
-135
-120
-122
-127
-95
-90
-110
-74
-44
-96
-131
-91
-67
-85
-93
-78
-67
-76
-72
-19
3
-56
-72
-3
25
-4
-18
-39
-60
-40
-41
-55
-42
-106
-255
-411
-363
664
2580
3144
1305
-491
-501
-75
-191
-249
-151
-202
-224
-152
-143
-141
-99
-91
-80
-34
-27
-49
-24
28
56
79
115
155
193
225
265
323
382
421
451
482
481
417
304
165
22
-76
-112
-144
-190
-207
-197
-192
-187
-182
-190
-200
-189
-160
-139
-158
-197
-199
-162
-143
-149
-149
-143
-133
-126
-133
-126
-98
-116
-168
-151
-100
-114
-149
-135
-111
-110
-115
-114
-108
-109
-115
-110
-98
-99
-102
-97
-96
-98
-90
-85
-98
-91
-64
-74
-103
-87
-64
-78
-80
-66
-76
-72
-24
3
-14
-31
-48
-66
-65
-81
-95
-50
-70
-219
-380
-454
116
1789
3001
1875
-186
-747
-275
-154
-190
-111
-189
-261
-163
-124
-159
-121
-66
-51
-38
-18
17
70
87
65
73
126
176
217
268
316
362
433
516
555
561
574
541
411
249
119
-3
-106
-160
-195
-220
-213
-207
-225
-227
-207
-198
-206
-213
-198
-165
-146
-158
-173
-165
-149
-150
-158
-149
-135
-139
-149
-144
-128
-118
-132
-154
-147
-128
-133
-141
-119
-103
-120
-128
-105
-96
-113
-111
-88
-92
-115
-114
-100
-94
-89
-77
-66
-54
-42
-30
-7
19
11
-37
-56
-36
-60
-77
-26
-77
-251
-397
-419
318
2146
3160
1659
-430
-749
-191
-155
-259
-166
-166
-202
-155
-140
-149
-120
-95
-77
-55
-55
-54
-18
20
40
67
102
134
177
243
314
373
421
473
540
584
557
455
308
130
-34
-133
-193
-263
-315
-319
-308
-310
-314
-309
-304
-300
-292
-281
-269
-252
-240
-248
-258
-246
-228
-221
-213
-195
-181
-191
-210
-207
-186
-178
-185
-181
-172
-168
-163
-152
-144
-140
-137
-130
-119
-120
-130
-117
-90
-82
-85
-75
-61
-58
-55
-53
-56
-54
-46
-40
-35
-22
-3
5
4
19
46
55
50
32
0
-3
13
-3
19
63
-31
-204
-350
-231
946
2842
3088
1069
-538
-386
9
-111
-138
-51
-88
-84
-26
-26
-26
2
15
30
54
67
86
119
150
174
200
227
262
314
370
413
462
533
599
631
644
635
570
436
274
133
39
-18
-63
-96
-105
-100
-101
-107
-110
-111
-109
-103
-102
-102
-99
-97
-100
-97
-89
-93
-106
-105
-96
-98
-107
-109
-109
-114
-123
-131
-132
-128
-132
-141
-139
-134
-143
-153
-151
-158
-170
-161
-153
-168
-175
-171
-189
-214
-215
-215
-223
-214
-208
-239
-264
-252
-243
-251
-249
-251
-261
-256
-249
-253
-245
-249
-284
-288
-253
-245
-264
-288
-320
-328
-319
-327
-317
-339
-454
-582
-717
-474
947
2674
2359
245
-936
-611
-365
-530
-515
-433
-481
-488
-436
-424
-422
-389
-348
-333
-341
-314
-245
-205
-209
-181
-105
-65
-81
-63
25
108
158
230
317
351
350
362
326
197
70
1
-81
-167
-170
-134
-160
-197
-148
-86
-109
-119
-44
-4
-42
-28
39
47
36
87
144
149
136
136
162
201
217
219
245
282
293
291
309
345
365
359
362
402
428
402
388
432
470
472
480
492
488
497
511
502
500
515
500
485
533
573
526
481
506
529
514
497
473
458
496
518
448
387
421
445
395
379
427
424
349
285
252
214
164
145
174
120
-55
-197
-338
-205
1024
2660
2432
398
-866
-672
-436
-533
-535
-564
-665
-671
-687
-748
-750
-771
-850
-881
-878
-907
-932
-941
-977
-1014
-1014
-1014
-1062
-1079
-971
-865
-938
-1047
-970
-843
-864
