# session 7
-21
-51
16
190
156
-164
-342
-273
-264
-343
-379
-412
-454
-458
-446
-440
-424
-406
-394
-377
-364
-357
-345
-330
-324
-321
-308
-292
-285
-281
-272
-255
-235
-222
-206
-193
-208
-218
-191
-184
-194
-155
-152
-230
-327
-465
-199
1036
2095
1313
-309
-721
-258
-131
-190
-99
-69
-87
-35
-10
-20
10
45
55
67
94
130
167
193
209
224
236
239
240
248
249
227
183
125
62
7
-31
-47
-40
-26
-29
-36
-31
-28
-42
-55
-55
-48
-43
-44
-55
-63
-61
-58
-54
-46
-43
-35
-20
-32
-50
-41
-45
-55
-10
-2
-87
-224
-439
-202
1170
2444
1701
-80
-626
-183
-62
-155
-88
-62
-87
-50
-33
-41
-21
-1
11
39
67
94
131
164
187
208
218
205
180
153
125
86
27
-41
-103
-156
-194
-201
-192
-193
-197
-184
-168
-166
-167
-167
-171
-171
-168
-173
-168
-146
-142
-169
-179
-152
-131
-134
-138
-149
-158
-130
-107
-112
-102
-135
-232
-350
-521
-205
1243
2462
1532
-338
-786
-256
-149
-249
-159
-123
-135
-89
-82
-93
-66
-31
28
87
67
22
44
103
156
189
183
162
182
219
203
134
76
26
-61
-150
-184
-191
-194
-154
-110
-135
-155
-96
-66
-129
-160
-102
-59
-71
-81
-83
-102
-116
-107
-92
-86
-85
-97
-115
-94
-62
-93
-109
-60
-89
-248
-495
-580
309
2052
2537
908
-554
-422
-21
-176
-264
-146
-134
-158
-125
-108
-118
-110
-63
-13
-20
-17
61
97
55
64
112
117
125
138
114
103
89
6
-80
-97
-77
-77
-121
-159
-140
-120
-139
-143
-114
-102
-115
-119
-113
-129
-143
-119
-102
-130
-145
-121
-105
-103
-82
-68
-82
-95
-117
-127
-71
-62
-174
-363
-649
-358
1335
2871
1945
-142
-696
-167
-93
-226
-142
-106
-118
-95
-104
-67
5
-3
-7
58
99
94
97
149
244
286
242
232
277
261
184
118
65
0
-75
-130
-151
-178
-210
-183
-130
-138
-188
-226
-226
-178
-146
-194
-245
-222
-186
-182
-166
-149
-165
-165
-127
-119
-149
-149
-118
-122
-143
-120
-119
-197
-347
-515
-124
1246
2199
1210
-407
-687
-197
-87
-115
-38
-64
-83
-18
-11
-10
29
11
0
86
147
118
123
213
278
254
212
219
236
218
182
132
59
-12
-63
-119
-166
-163
-134
-121
-112
-114
-154
-173
-149
-145
-149
-132
-124
-98
-43
-73
-181
-184
-75
-29
-59
-69
-83
-109
-80
-70
-119
-79
-20
-129
-330
-569
-456
812
2369
2015
145
-706
-247
1
-160
-158
-85
-106
-119
-95
-52
-12
-10
-7
2
12
76
131
92
87
164
173
138
159
149
69
36
59
15
-107
-170
-144
-128
-127
-114
-127
-121
-79
-115
-184
-150
-96
-117
-147
-153
-140
-103
-105
-151
-139
-82
-54
-34
-41
-95
-95
-72
-137
-164
-97
-120
-276
-572
-699
294
2050
2271
553
-638
-376
-76
-217
-252
-200
-203
-168
-155
-185
-151
-84
-67
-75
-36
47
80
65
114
190
185
171
191
166
128
156
177
103
-21
-80
-53
-41
-88
-117
-97
-87
-112
-132
-123
-116
-127
-109
-74
-97
-135
-138
-184
-252
-219
-149
-133
-112
-99
-127
-102
-69
-141
-178
-115
-138
-276
-508
-569
416
2136
2330
515
-779
-452
-9
-74
-48
35
-25
-12
63
58
59
106
122
123
157
195
210
233
273
298
306
303
259
207
205
205
143
44
-45
-87
-94
-131
-186
-182
-156
-164
-153
-119
-130
-164
-166
-163
-166
-156
-149
-149
-148
-151
-141
-119
-132
-163
-163
-154
-149
-149
-180
-186
-143
-169
-274
-437
-516
229
1776
2180
609
-762
-573
-124
-198
-204
-82
-110
-121
-72
-89
-67
16
14
-20
27
82
98
136
187
209
218
217
208
211
194
131
70
28
-50
-138
-150
-123
-156
-203
-184
-148
-143
-145
-144
-142
-134
-135
-144
-135
-129
-142
-154
-158
-152
-129
-112
-110
-98
-93
-106
-101
-99
-115
-84
-63
-146
-276
-485
-435
746
2353
2106
179
-780
-312
-38
-181
-123
-55
-114
-65
0
-36
-25
38
42
39
84
119
122
140
177
193
192
205
204
159
128
125
91
27
-34
-98
-134
-117
-108
-132
-125
-101
-131
-179
-163
-120
-129
-158
-150
-129
-123
-134
-159
-158
-121
-121
-141
-109
-97
-163
-174
-114
-132
-170
-116
-105
-228
-497
-750
-90
1676
2421
865
-765
-669
-106
-127
-179
-74
-83
-106
-58
-29
-17
-4
12
59
113
143
162
183
218
268
291
282
292
292
219
142
130
95
-14
-106
-133
-144
-165
-171
-144
-119
-133
-137
-113
-148
-215
-193
-131
-136
-158
-140
-127
-129
-112
-104
-118
-107
-83
-93
-106
-91
-85
-81
-65
-105
-197
-337
-496
-42
1386
2239
1087
-542
-717
-172
-81
-128
-32
-41
-57
25
24
-25
23
76
64
77
123
154
194
236
257
303
359
336
278
268
238
149
74
10
-80
-136
-135
-139
-145
-148
-191
-222
-183
-174
-220
-192
-121
-150
-205
-167
-135
-176
-181
-144
-156
-175
-154
-144
-146
-130
-126
-146
-171
-163
-126
-161
-265
-389
-544
-148
1277
2259
1203
-456
-670
-125
-95
-249
-157
-70
-87
-110
-117
-92
-57
-45
-4
69
79
28
52
152
175
123
131
188
183
132
117
107
16
-97
-107
-72
-128
-196
-161
-116
-136
-151
-135
-102
-63
-80
-126
-92
-14
-1
-37
-67
-78
-91
-118
-85
9
4
-84
-75
-20
-46
-67
-22
-7
-60
-129
-317
-615
-169
1528
2689
1569
-228
-550
-99
-72
-151
-78
-78
-90
-67
-83
-57
8
4
-10
45
79
55
69
136
171
168
150
122
125
137
84
23
0
-54
-116
-107
-86
-121
-150
-137
-127
-136
-129
-114
-122
-146
-151
-137
-143
-177
-174
-124
-136
-203
-192
-117
-87
-92
-98
-116
-122
-113
-136
-133
-49
-37
-166
-365
-690
-563
974
2656
2017
-77
-794
-223
-39
-193
-148
-122
-174
-160
-111
-41
-14
-85
-98
-9
20
4
67
136
123
120
181
194
142
141
160
87
-22
-85
-138
-182
-179
-184
-213
-199
-174
-207
-228
-199
-196
-223
-218
-197
-189
-185
-176
-160
-161
-181
-164
-128
-146
-166
-122
-106
-156
-162
-116
-112
-116
-95
-129
-278
-538
-480
621
2049
1845
168
-717
-324
1
-64
-63
-50
-69
7
52
-9
-27
28
77
127
181
195
186
216
262
270
282
313
286
236
251
245
160
105
74
-4
-43
-16
-26
-61
-68
-43
11
7
-78
-69
30
23
-55
-47
24
78
69
-23
-92
-28
79
96
49
-4
-30
30
105
40
-39
36
61
-87
-277
-443
-11
1468
2423
1256
-417
-541
12
32
-30
64
-4
-33
104
103
-25
-12
86
84
70
162
229
182
150
169
154
150
204
224
186
155
96
-25
-117
-139
-152
-166
-180
-224
-258
-246
-237
-281
-338
-322
-246
-236
-308
-343
-330
-340
-337
-312
-345
-400
-389
-350
-327
-333
-402
-461
-437
-423
-408
-339
-384
-545
-632
-790
-799
235
1701
1487
-252
-1118
-670
-403
-588
-577
-465
-519
-564
-492
-446
-479
-489
-452
-436
-440
-450
-457
-388
-292
-291
-336
-388
-383
8
767
1242
1185
1041
1010
909
767
718
705
665
602
473
313
205
139
96
64
-16
-92
-59
-5
-36
-68
-24
49
130
228
302
296
207
122
92
32
-106
-219
-251
-258
-369
-699
-837
14
1399
1546
198
-794
-590
-218
-265
-340
-270
-214
-220
-218
-149
-62
-48
-68
-29
55
119
155
192
233
283
336
375
415
462
457
386
340
339
306
259
262
284
303
360
436
476
486
506
549
606
669
701
689
719
825
889
872
888
948
971
970
1006
1054
1068
1086
1144
1187
1164
1140
1174
1195
1081
933
1282
2365
3023
1939
-31
-1046
-1055
-1084
-1287
-1389
-1436
-1409
-1230
-1098
-1184
-1363
-1453
-1415
-1307
-1194
-1111
-1077
-1070
-1006
-849
-704
-655
-660
-697
-775
-845
-919
-1087
-1309
-1492
-1634
-1703
-1692
-1701
-1696
-1612
-1573
-1592
-1543
-1500
-1531
-1502
-1428
-1433
-1447
-1441
-1516
-1604
-1603
-1630
-1718
-1778
-1858
-1923
-1800
-1601
-1562
-1543
-1277
-769
-248
45
314
1227
2548
2831
1800
1020
1222
1545
1560
1590
1655
1637
1654
1702
1665
1608
1623
1652
1647
1635
1627
1624
1631
1623
1600
1591
1560
1483
1419
1379
1310
1194
1057
934
855
792
732
714
711
650
580
575
568
511
472
461
417
353
309
274
235
195
152
114
92
69
47
33
-5
-59
-86
-116
-151
-153
-184
-290
-501
-825
-592
863
2172
1444
-256
-750
-365
-326
-455
-414
-429
-479
-449
-441
-466
-458
-443
-438
-428
-419
-406
-392
-376
-352
-336
-337
-338
-341
-363
-392
-427
-479
-528
-561
-586
-597
-584
-572
-574
-574
-564
-554
-542
-527
-515
-508
-494
-472
-459
-453
-443
-438
-432
-404
-366
-335
-307
-303
-319
-310
-298
-297
-256
-228
-285
-442
-727
-597
743
2266
1907
231
-477
-152
-68
-189
-107
-69
-121
-89
-52
-56
-36
-15
-4
33
68
84
114
153
177
188
200
205
202
197
179
144
102
61
19
-18
-33
-24
-13
-18
-22
-16
-18
-21
-12
-7
-12
-3
13
8
2
9
0
-6
22
48
60
76
69
49
59
49
28
71
75
-38
-254
-531
-175
1363
2511
1541
-108
-362
93
81
-30
57
61
23
60
74
74
107
126
136
164
190
208
242
275
289
305
329
323
282
245
219
166
75
-14
-72
-110
-134
-130
-123
-137
-146
-138
-141
-146
-133
-136
-158
-151
-130
-140
-155
-144
-121
-115
-132
-134
-113
-124
-144
-121
-126
-163
-129
-107
-204
-402
-652
-397
900
2001
1264
-283
-671
-226
-97
-163
-106
-95
-124
-96
-72
-68
-41
-5
14
18
46
106
145
157
192
229
220
197
198
173
96
18
-51
-131
-192
-222
-254
-280
-271
-253
-253
-252
-237
-216
-204
-209
-217
-217
-206
-187
-185
-204
-196
-169
-176
-180
-150
-154
-190
-182
-168
-171
-133
-119
-200
-393
-690
-455
947
2130
1247
-521
-920
-373
-225
-281
-158
-112
-144
-98
-55
-29
25
55
62
101
156
206
269
323
351
392
446
449
389
316
269
241
194
104
17
-25
-47
-64
-55
-36
-31
-31
-26
-19
-11
-10
-10
7
39
58
41
2
-17
-15
-16
-14
-17
-46
-72
-82
-111
-111
-73
-116
-267
-531
-678
146
1837
2302
730
-648
-489
-71
-147
-170
-77
-105
-112
-63
-64
-67
-39
-17
6
31
45
70
108
137
154
166
163
144
122
92
44
-22
-95
-161
-209
-236
-247
-250
-247
-241
-235
-229
-220
-207
-194
-187
-186
-182
-169
-161
-169
-172
-158
-146
-136
-122
-133
-147
-129
-132
-149
-107
-102
-207
-394
-677
-425
1123
2562
1756
-166
-691
-168
-69
-193
-99
-69
-115
-73
-37
-39
-12
18
42
82
120
150
190
233
266
293
311
312
296
265
214
137
43
-44
-109
-150
-173
-179
-174
-169
-168
-165
-158
-155
-150
-140
-137
-142
-140
-142
-153
-149
-129
-110
-92
-83
-106
-115
-95
-107
-116
-75
-96
-221
-445
-706
-231
1412
2443
1285
-365
-547
-102
-115
-177
-70
-76
-111
-78
-77
-76
-30
2
21
59
95
123
162
203
235
256
267
262
243
206
153
82
-3
-78
-126
-155
-177
-185
-177
-169
-167
-165
-163
-158
-148
-145
-147
-141
-136
-148
-152
-133
-121
-116
-101
-106
-125
-116
-115
-130
-90
-70
-157
-316
-584
-503
760
2266
1903
172
-570
-204
-68
-179
-114
-84
-132
-104
-84
-102
-82
-62
-67
-50
-12
29
76
124
162
196
215
211
198
177
136
76
6
-66
-125
-162
-177
-179
-174
-168
-165
-163
-159
-150
-139
-132
-130
-129
-122
-113
-110
-100
-79
-70
-65
-52
-63
-97
-108
-123
-143
-113
-116
-214
-375
-631
-477
838
2216
1684
7
-579
-191
-91
-185
-102
-71
-105
-72
-58
-66
-27
12
32
64
100
130
163
194
221
244
250
239
225
209
177
125
59
-9
-64
-98
-118
-127
-122
-115
-114
-112
-107
-108
-110
-109
-110
-116
-117
-108
-108
-126
-131
-109
-89
-73
-58
-72
-96
-87
-89
-92
-49
-67
-188
-373
-614
-258
1279
2443
1437
-299
-585
-83
-54
-162
-88
-98
-128
-70
-47
-45
-4
21
27
49
72
99
142
179
208
238
248
233
210
179
128
60
-18
-94
-159
-204
-222
-225
-226
-220
-214
-219
-218
-207
-210
-225
-227
-220
-215
-203
-189
-195
-206
-197
-185
-176
-150
-137
-160
-159
-144
-174
-171
-107
-132
-261
-478
-679
-65
1580
2310
887
-667
-622
-96
-102
-159
-76
-91
-99
-47
-38
-28
15
38
54
92
133
171
212
250
281
304
316
311
279
227
164
85
-2
-79
-137
-179
-196
-194
-186
-178
-174
-173
-167
-155
-143
-134
-129
-128
-127
-123
-118
-118
-124
-120
-103
-88
-73
-61
-79
-96
-80
-84
-89
-48
-62
-165
-361
-638
-207
1494
2645
1430
-399
-584
-16
-12
-125
-22
-10
-34
23
49
54
76
83
98
140
172
204
250
285
310
336
351
339
314
284
236
164
87
21
-40
-82
-93
-95
-105
-107
-96
-94
-104
-104
-93
-90
-98
-104
-106
-110
-112
-112
-122
-138
-138
-125
-118
-107
-98
-116
-129
-128
-149
-143
-104
-152
-282
-521
-737
8
1840
2522
900
-676
-553
-92
-200
-249
-140
-173
-188
-125
-125
-137
-104
-80
-68
-42
-12
19
47
65
81
101
103
83
53
20
-25
-86
-156
-220
-268
-294
-294
-286
-288
-292
-287
-280
-277
-271
-258
-250
-252
-254
-249
-245
-244
-241
-239
-236
-220
-201
-200
-193
-175
-186
-192
-151
-148
-177
-138
-126
-210
-351
-562
-218
1327
2545
1511
-347
-672
-107
-47
-149
-41
-24
-52
18
53
57
98
122
129
174
230
272
316
359
387
411
434
441
431
414
394
358
299
234
192
174
161
152
149
