# session 27
-4
-18
11
101
105
-24
-88
-39
-15
-16
15
40
47
69
98
122
152
187
219
255
297
337
370
394
401
380
316
211
94
-3
-68
-111
-140
-157
-164
-163
-160
-157
-154
-150
-144
-136
-129
-122
-117
-114
-110
-103
-93
-81
-78
-81
-78
-73
-73
-71
-67
-68
-71
-67
-62
-63
-63
-61
-59
-58
-57
-54
-51
-49
-50
-48
-46
-45
-44
-40
-37
-37
-35
-29
-27
-29
-24
-4
14
19
14
-7
-36
-30
-21
-50
-40
-6
-88
-234
-356
-271
678
2265
2581
1026
-339
-346
-84
-175
-198
-134
-164
-173
-137
-137
-131
-104
-93
-83
-62
-51
-38
-17
-1
7
24
47
70
97
131
168
206
241
267
290
307
301
257
175
71
-27
-93
-136
-172
-191
-194
-195
-199
-197
-192
-188
-186
-186
-183
-173
-166
-164
-157
-146
-140
-136
-130
-128
-131
-129
-120
-119
-125
-123
-111
-106
-113
-112
-95
-84
-89
-96
-97
-92
-85
-82
-78
-70
-65
-66
-62
-58
-61
-60
-53
-54
-57
-45
-29
-25
-18
4
22
17
1
-24
-45
-39
-40
-55
-31
-34
-133
-254
-357
-70
1175
2471
2031
341
-493
-254
-110
-194
-153
-123
-154
-125
-97
-110
-93
-57
-48
-49
-38
-16
8
23
35
51
71
97
133
170
197
228
276
322
349
369
388
374
305
197
79
-23
-94
-139
-168
-186
-195
-201
-200
-188
-182
-184
-181
-171
-163
-158
-156
-153
-143
-135
-135
-135
-126
-114
-113
-119
-120
-113
-104
-103
-105
-103
-100
-98
-96
-92
-93
-94
-93
-91
-94
-93
-87
-86
-89
-86
-80
-80
-78
-68
-60
-57
-45
-25
-14
-12
-24
-55
-73
-54
-59
-85
-48
-38
-154
-297
-416
-120
1226
2664
2216
387
-511
-243
-98
-212
-179
-142
-171
-143
-117
-126
-110
-86
-78
-64
-45
-32
-17
1
22
45
68
89
116
148
186
226
264
300
333
357
362
334
260
148
30
-64
-128
-170
-194
-205
-211
-217
-216
-212
-211
-209
-200
-188
-177
-167
-161
-154
-142
-129
-123
-121
-114
-107
-102
-100
-96
-92
-87
-84
-84
-84
-83
-83
-83
-79
-74
-69
-66
-63
-61
-61
-60
-58
-59
-59
-53
-46
-44
-44
-43
-40
-36
-36
-38
-35
-28
-22
-19
-12
6
23
28
27
10
-24
-29
-11
-36
-43
3
-50
-204
-332
-339
346
1923
2744
1522
-118
-409
-90
-132
-211
-140
-149
-173
-133
-121
-122
-101
-91
-87
-67
-49
-37
-22
-6
9
30
56
76
96
125
162
199
239
278
306
327
335
305
228
123
17
-68
-122
-154
-173
-182
-186
-189
-192
-192
-189
-184
-182
-180
-174
-166
-159
-154
-148
-140
-136
-132
-127
-124
-125
-119
-111
-112
-117
-106
-91
-96
-108
-104
-92
-94
-101
-98
-87
-84
-84
-76
-69
-74
-77
-67
-62
-64
-57
-51
-57
-57
-46
-42
-48
-52
-45
-35
-34
-35
-24
-12
-4
12
21
11
-9
-29
-36
-31
-45
-39
-4
-51
-173
-292
-296
384
1855
2514
1265
-275
-500
-143
-123
-167
-106
-120
-139
-96
-85
-96
-80
-65
-55
-34
-12
6
24
37
53
80
108
130
155
190
230
275
327
368
393
414
421
388
306
182
51
-45
-106
-161
-200
-212
-217
-221
-214
-207
-210
-212
-205
-193
-185
-184
-183
-174
-162
-154
-152
-149
-145
-144
-140
-135
-133
-133
-129
-121
-115
-115
-117
-114
-108
-103
-100
-99
-100
-98
-93
-91
-86
-78
-81
-89
-86
-75
-69
-68
-63
-58
-54
-50
-45
-40
-30
-14
-1
0
-7
-27
-57
-56
-46
-71
-62
-24
-101
-252
-384
-328
587
2253
2730
1174
-347
-407
-82
-158
-201
-130
-158
-169
-125
-121
-121
-96
-86
-81
-62
-44
-30
-10
11
27
47
72
98
125
157
197
242
287
327
357
379
381
340
245
122
12
-70
-131
-170
-186
-193
-200
-201
-197
-198
-198
-196
-194
-188
-178
-167
-157
-147
-141
-134
-125
-118
-112
-105
-99
-97
-94
-90
-87
-86
-87
-86
-82
-80
-82
-81
-74
-70
-71
-70
-67
-64
-60
-55
-54
-56
-51
-46
-46
-45
-43
-42
-40
-35
-34
-38
-38
-31
-24
-19
-15
-7
12
29
29
17
-4
-27
-24
-17
-45
-36
0
-79
-227
-351
-294
589
2190
2644
1158
-290
-360
-74
-154
-195
-132
-160
-170
-133
-131
-128
-103
-93
-83
-64
-59
-57
-37
-13
3
20
46
70
90
120
161
200
235
271
302
323
325
297
228
124
14
-75
-135
-173
-195
-208
-212
-210
-205
-194
-188
-198
-206
-193
-178
-173
-167
-159
-154
-147
-134
-125
-128
-133
-127
-117
-115
-119
-116
-105
-101
-100
-93
-86
-89
-88
-80
-77
-75
-67
-62
-61
-56
-59
-66
-62
-55
-56
-61
-60
-52
-48
-53
-56
-49
-47
-50
-38
-6
18
10
-12
-20
-28
-39
-44
-56
-46
-7
-51
-178
-293
-341
173
1592
2555
1601
-62
-531
-192
-118
-183
-124
-113
-131
-92
-75
-80
-59
-42
-42
-30
-7
17
38
54
68
87
114
144
172
210
261
311
351
388
418
436
446
423
337
208
82
-26
-109
-158
-185
-207
-219
-222
-225
-221
-208
-203
-206
-205
-198
-189
-176
-167
-164
-164
-163
-159
-152
-146
-145
-144
-142
-141
-142
-140
-136
-132
-128
-122
-117
-120
-126
-126
-119
-107
-101
-100
-98
-91
-85
-82
-81
-81
-75
-69
-73
-80
-76
-67
-63
-62
-60
-46
-20
-6
-12
-28
-54
-69
-55
-64
-80
-37
-50
-193
-342
-433
-12
1475
2814
2097
211
-528
-203
-116
-238
-186
-163
-200
-167
-140
-146
-123
-94
-78
-58
-40
-22
0
18
34
60
86
109
135
167
205
248
293
337
375
405
420
401
332
224
104
-5
-82
-131
-163
-180
-188
-193
-189
-189
-204
-217
-211
-201
-193
-181
-168
-159
-150
-140
-128
-118
-113
-111
-111
-107
-102
-98
-98
-96
-88
-81
-79
-76
-74
-78
-79
-69
-61
-65
-62
-47
-44
-52
-60
-66
-68
-60
-52
-54
-56
-53
-53
-57
-61
-58
-45
-34
-32
-30
-23
-20
-16
4
24
25
13
-8
-33
-24
-14
-49
-45
-3
-83
-239
-357
-282
613
2210
2650
1158
-281
-347
-71
-162
-206
-141
-166
-176
-144
-149
-151
-127
-116
-108
-91
-77
-61
-41
-29
-14
11
39
66
98
129
159
199
245
283
316
345
354
328
257
144
28
-55
-114
-165
-192
-189
-183
-186
-189
-187
-184
-178
-173
-173
-162
-145
-142
-147
-142
-129
-120
-118
-125
-131
-125
-111
-101
-96
-97
-103
-106
-103
-100
-95
-86
-83
-87
-87
-85
-89
-92
-84
-73
-71
-72
-70
-67
-61
-55
-58
-64
-59
-53
-56
-55
-45
-40
-41
-31
-13
-8
-10
-1
-4
-41
-67
-45
-42
-70
-46
-27
-120
-253
-372
-161
993
2400
2191
502
-517
-328
-109
-181
-167
-134
-163
-140
-102
-104
-97
-75
-56
-38
-20
2
24
34
42
59
82
119
167
200
219
257
312
362
403
438
460
453
396
285
150
26
-65
-123
-161
-191
-205
-204
-202
-199
-197
-198
-196
-186
-174
-168
-169
-171
-166
-162
-159
-150
-142
-146
-151
-147
-148
-151
-142
-134
-134
-134
-132
-132
-123
-112
-111
-113
-109
-102
-96
-92
-90
-90
-90
-87
-82
-77
-76
-77
-77
-75
-71
-64
-57
-49
-31
-11
-6
-14
-29
-60
-71
-49
-58
-77
-40
-66
-208
-347
-412
95
1636
2826
1912
63
-524
-176
-128
-234
-164
-145
-183
-153
-131
-132
-109
-92
-87
-68
-46
-32
-17
3
24
45
64
86
120
161
198
236
285
333
365
389
404
384
309
189
64
-37
-109
-158
-188
-201
-204
-204
-203
-201
-197
-192
-185
-179
-176
-169
-157
-145
-136
-128
-122
-118
-115
-109
-100
-93
-91
-88
-87
-89
-87
-83
-83
-84
-78
-72
-69
-67
-65
-60
-57
-58
-59
-55
-51
-54
-59
-57
-50
-47
-49
-47
-45
-50
-54
-50
-48
-50
-45
-34
-27
-23
-10
10
21
18
11
-12
-39
-28
-21
-49
-30
-7
-107
-248
-358
-220
837
2407
2527
874
-377
-299
-72
-182
-192
-135
-169
-166
-129
-130
-124
-104
-99
-93
-80
-66
-49
-32
-20
-3
20
47
76
101
126
165
213
255
291
326
349
345
307
229
121
17
-62
-121
-163
-184
-191
-198
-205
-201
-185
-177
-183
-186
-176
-165
-160
-155
-151
-150
-147
-134
-127
-129
-122
-107
-114
-131
-126
-111
-114
-115
-104
-95
-92
-90
-92
-91
-83
-85
-89
-77
-66
-72
-75
-66
-65
-67
-63
-58
-60
-64
-59
-49
-50
-57
-53
-41
-40
-40
-26
-5
4
3
5
5
-22
-49
-36
-29
-50
-26
-14
-115
-248
-348
-127
1006
2399
2217
547
-489
-315
-100
-172
-146
-98
-134
-126
-94
-97
-91
-68
-48
-36
-32
-24
-2
19
38
61
81
99
129
165
204
250
307
355
390
422
445
439
392
299
172
41
-66
-141
-185
-208
-226
-233
-225
-218
-217
-212
-207
-206
-199
-187
-181
-177
-173
-175
-174
-166
-165
-166
-151
-140
-149
-160
-157
-150
-145
-136
-131
-130
-130
-130
-128
-118
-109
-107
-102
-98
-100
-98
-93
-92
-90
-80
-73
-74
-73
-68
-65
-62
-52
-31
-7
5
1
-14
-45
-66
-48
-49
-75
-39
-32
-164
-313
-413
-128
1219
2763
2401
478
-540
-263
-85
-212
-179
-139
-183
-158
-120
-124
-106
-82
-79
-67
-46
-35
-18
7
26
43
65
90
119
152
193
241
287
328
371
408
423
411
359
253
123
13
-68
-128
-168
-188
-197
-202
-204
-201
-194
-194
-196
-191
-182
-180
-173
-161
-160
-162
-151
-133
-126
-128
-127
-124
-120
-113
-107
-102
-98
-97
-95
-89
-87
-93
-93
-83
-76
-79
-83
-83
-80
-76
-73
-71
-71
-66
-64
-67
-67
-62
-58
-54
-51
-51
-49
-43
-41
-37
-29
-25
-20
-1
12
8
5
-2
-31
-40
-24
-48
-55
-9
-61
-211
-332
-345
315
1899
2783
1591
-97
-431
-104
-133
-217
-148
-157
-183
-141
-127
-130
-107
-94
-91
-72
-53
-42
-28
-10
7
23
41
64
92
124
159
197
240
285
325
355
368
352
291
191
79
-15
-85
-137
-167
-181
-187
-186
-176
-171
-176
-175
-168
-167
-172
-169
-158
-153
-156
-154
-143
-135
-134
-132
-123
-117
-115
-117
-116
-109
-103
-108
-114
-107
-95
-93
-95
-90
-79
-75
-85
-93
-81
-64
-64
-71
-73
-71
-68
-61
-54
-49
-50
-55
-52
-41
-35
-34
-26
-5
16
18
6
-13
-37
-44
-38
-49
-36
-5
-64
-187
-314
-295
509
2043
2534
1133
-318
-429
-105
-121
-154
-102
-118
-123
-92
-88
-85
-74
-74
-67
-58
-53
-35
-10
-2
3
28
57
80
111
150
190
239
299
352
389
416
422
388
299
166
28
-77
-148
-197
-225
-240
-248
-245
-235
-233
-230
-218
-205
-197
-190
-187
-185
-172
-156
-152
-153
-145
-132
-127
-130
-138
-139
-126
-112
-109
-113
-110
-99
-90
-89
-88
-85
-82
-82
-82
-74
-63
-61
-67
-67
-58
-52
-53
-56
-54
-44
-31
-26
-23
-9
5
6
5
-6
-38
-47
-34
-56
-57
-10
-67
-226
-363
-370
372
2047
2868
1518
-214
-477
-110
-145
-223
-145
-153
-178
-137
-127
-134
-113
-97
-91
-75
-57
-40
-20
-5
7
27
56
83
111
149
192
236
289
341
378
403
411
373
281
159
37
-65
-134
-172
-196
-211
-218
-218
-216
-212
-211
-210
-204
-196
-193
-189
-179
-167
-154
-144
-143
-146
-140
-131
-127
-122
-116
-112
-109
-103
-99
-99
-97
-91
-88
-89
-85
-80
-76
-74
-74
-74
-73
-72
-74
-73
-69
-66
-64
-61
-58
-57
-57
-56
-52
-48
-43
-35
-29
-25
-14
9
24
21
13
0
-30
-36
-27
-50
-44
-4
-78
-231
-354
-286
616
2254
2730
1207
-289
-361
-61
-146
-191
-124
-148
-153
-111
-113
-112
-87
-77
-65
-46
-35
-21
-1
14
29
50
71
95
120
151
192
239
284
328
367
390
394
367
292
177
63
-29
-94
-135
-159
-172
-174
-168
-167
-173
-173
-168
-166
-166
-161
-156
-156
-157
-152
-139
-130
-135
-148
-150
-142
-140
-143
-143
-139
-134
-125
-120
-125
-129
-131
-137
-134
-124
-123
-123
-115
-109
-110
-108
-104
-105
-105
-99
-94
-97
-96
-86
-81
-83
-85
-74
-43
-13
-20
-38
-18
17
9
-43
-89
-83
-47
-56
-90
-49
-25
-129
-261
-373
-168
986
2396
2172
469
-544
-342
-122
-197
-190
-163
-172
-104
-64
-124
-153
-113
-83
-75
-65
-43
-5
20
7
4
49
94
96
103
161
234
299
386
478
505
482
472
430
316
189
80
-35
-117
-131
-137
-174
-199
-190
-173
-149
-136
-174
-221
-204
-170
-185
-185
-135
-129
-179
-184
-134
-100
-102
-130
-131
-83
-85
-158
-164
-99
-98
-125
-79
-43
-85
-115
-92
-89
-107
-83
-46
-75
-129
-110
-61
-81
-112
-74
-37
-49
-56
-57
-76
-80
-59
-31
5
19
11
24
20
-28
-37
-32
-93
-89
-3
-80
-269
-399
-418
429
2390
3284
1629
-305
-477
-71
-171
-235
-139
-182
-204
-134
-109
-99
-85
-107
-109
-59
-17
-13
-21
-12
22
64
90
101
126
164
200
246
310
368
428
490
500
432
330
227
115
3
-63
-78
-117
-192
-215
-187
-193
-218
-200
-173
-177
-192
-189
-156
-117
-128
-169
-168
-140
-137
-141
-133
-134
-138
-133
-129
-128
-126
-131
-124
-95
-94
-130
-147
-138
-141
-148
-137
-125
-126
-125
-117
-111
-117
-122
-113
-103
-114
-124
-107
-92
-109
-133
-130
-119
-117
-119
-120
-115
-103
-96
-96
-85
-63
-54
-67
-81
-97
-112
-102
-103
-143
-132
-94
-174
-316
-434
-330
667
2284
2565
948
-450
-457
-177
-248
-257
-177
-200
-212
-161
-146
-163
-161
-145
-120
-68
-25
-44
-81
-62
-13
15
28
45
71
108
156
