# session 28
10
2
28
36
-37
-122
-125
-88
-79
-75
-50
-28
-11
12
30
48
79
107
130
169
217
250
279
325
370
402
424
424
378
290
178
66
-22
-81
-120
-145
-155
-154
-151
-149
-145
-137
-129
-124
-121
-120
-119
-113
-109
-113
-114
-108
-102
-99
-99
-102
-105
-103
-99
-100
-102
-99
-95
-95
-96
-93
-88
-83
-83
-87
-88
-86
-84
-73
-58
-54
-60
-59
-38
-12
2
-3
-21
-48
-54
-39
-57
-70
-28
-50
-178
-304
-363
130
1583
2656
1748
11
-523
-192
-131
-210
-145
-138
-171
-138
-118
-120
-103
-91
-83
-63
-49
-39
-18
2
16
36
60
84
107
135
173
217
258
295
328
354
366
346
282
187
72
-37
-111
-156
-199
-229
-226
-212
-211
-210
-202
-200
-200
-193
-187
-188
-181
-169
-165
-162
-154
-148
-146
-141
-134
-131
-127
-123
-118
-111
-108
-108
-103
-97
-94
-93
-92
-85
-76
-76
-82
-81
-70
-59
-56
-57
-58
-60
-62
-62
-61
-60
-54
-38
-12
6
6
-4
-26
-49
-41
-35
-63
-45
-7
-88
-228
-339
-226
748
2284
2501
932
-354
-315
-63
-162
-185
-123
-148
-153
-124
-122
-110
-84
-74
-62
-46
-36
-24
-4
19
40
57
73
98
129
157
188
225
264
297
321
338
343
317
246
146
42
-44
-103
-138
-161
-175
-174
-168
-169
-165
-155
-152
-154
-153
-151
-151
-143
-132
-130
-135
-135
-127
-123
-126
-122
-115
-119
-125
-118
-110
-114
-117
-108
-95
-90
-91
-94
-96
-97
-95
-91
-83
-78
-79
-81
-78
-76
-80
-80
-73
-70
-73
-71
-59
-52
-50
-28
0
-1
-26
-53
-68
-56
-50
-72
-58
-41
-117
-236
-350
-187
871
2282
2223
620
-470
-341
-106
-173
-165
-117
-140
-133
-107
-111
-101
-80
-73
-59
-35
-17
-7
2
20
47
66
81
109
145
181
221
262
294
322
351
377
389
358
268
146
38
-39
-95
-136
-170
-193
-193
-183
-179
-177
-170
-166
-166
-158
-151
-153
-156
-154
-149
-142
-137
-138
-141
-137
-125
-121
-128
-125
-113
-112
-118
-113
-97
-91
-97
-104
-99
-89
-85
-87
-84
-78
-76
-78
-78
-73
-65
-54
-51
-49
-32
-8
-1
-7
-19
-48
-62
-44
-58
-82
-43
-47
-170
-308
-390
45
1465
2640
1861
94
-541
-211
-114
-204
-155
-140
-171
-138
-115
-120
-103
-87
-83
-68
-48
-30
-12
3
17
38
61
80
104
138
177
214
253
293
327
353
366
348
283
177
61
-40
-112
-158
-185
-198
-202
-202
-203
-199
-194
-189
-184
-178
-170
-159
-148
-144
-139
-127
-119
-120
-120
-115
-110
-106
-105
-100
-93
-90
-93
-94
-91
-90
-89
-84
-80
-78
-72
-64
-59
-57
-55
-54
-54
-52
-50
-49
-47
-44
-40
-35
-30
-32
-35
-28
-19
-17
-18
-13
1
21
31
26
6
-23
-32
-19
-36
-43
0
-36
-174
-301
-343
229
1744
2724
1682
-24
-456
-128
-123
-214
-150
-148
-176
-140
-127
-134
-114
-101
-98
-78
-56
-43
-30
-16
-3
18
41
61
86
120
154
187
222
259
294
323
335
323
272
179
67
-24
-84
-127
-162
-185
-194
-193
-189
-186
-186
-185
-178
-171
-169
-168
-161
-151
-146
-143
-139
-134
-135
-133
-124
-120
-123
-117
-102
-99
-111
-118
-111
-102
-100
-94
-82
-78
-86
-92
-94
-94
-88
-83
-79
-74
-71
-71
-71
-71
-72
-66
-58
-56
-55
-51
-46
-33
-19
-10
3
17
19
1
-30
-46
-28
-29
-54
-27
-14
-113
-247
-351
-67
1165
2490
2091
371
-512
-261
-90
-178
-139
-100
-136
-122
-100
-105
-84
-61
-63
-56
-33
-16
-5
6
27
56
77
89
116
159
192
221
265
314
354
386
406
402
357
264
144
25
-74
-141
-174
-189
-203
-215
-215
-208
-203
-198
-188
-181
-183
-183
-172
-162
-162
-163
-155
-142
-135
-137
-143
-141
-131
-122
-125
-130
-127
-117
-111
-109
-107
-105
-106
-103
-96
-91
-89
-86
-82
-82
-82
-78
-76
-77
-71
-61
-60
-58
-48
-37
-22
-4
-3
-16
-32
-53
-54
-39
-61
-70
-29
-74
-219
-355
-365
342
1937
2735
1458
-221
-502
-141
-148
-215
-145
-155
-178
-140
-127
-128
-102
-88
-84
-67
-50
-36
-18
1
21
43
65
91
121
151
187
232
279
322
356
380
390
365
285
168
57
-36
-113
-160
-179
-190
-200
-204
-202
-197
-192
-191
-191
-184
-176
-168
-158
-148
-139
-131
-128
-131
-128
-118
-113
-115
-116
-113
-107
-101
-101
-106
-106
-96
-84
-80
-81
-81
-76
-69
-62
-61
-64
-65
-62
-59
-58
-58
-55
-50
-48
-46
-41
-32
-28
-28
-15
8
15
7
-11
-41
-46
-28
-46
-50
-5
-53
-202
-341
-346
383
1988
2749
1433
-224
-462
-105
-141
-218
-143
-150
-171
-130
-121
-128
-105
-89
-82
-64
-47
-36
-19
1
18
38
62
87
111
142
182
224
263
302
338
364
376
356
283
171
57
-42
-119
-167
-190
-204
-211
-211
-210
-209
-206
-203
-200
-193
-185
-182
-180
-173
-164
-160
-156
-148
-140
-138
-133
-123
-119
-120
-117
-109
-105
-105
-104
-100
-93
-88
-89
-90
-87
-81
-75
-73
-75
-77
-73
-65
-61
-62
-64
-61
-55
-48
-43
-35
-17
1
7
0
-25
-50
-40
-34
-59
-36
-9
-109
-253
-368
-230
848
2444
2535
816
-448
-325
-70
-181
-188
-127
-160
-155
-122
-130
-123
-99
-93
-84
-66
-54
-42
-22
-5
11
33
62
91
120
153
192
231
271
311
345
365
362
322
235
118
9
-73
-126
-160
-183
-199
-204
-198
-190
-188
-190
-188
-182
-181
-179
-173
-165
-157
-150
-144
-137
-127
-121
-119
-115
-112
-113
-112
-109
-106
-105
-105
-102
-97
-93
-90
-87
-83
-79
-76
-75
-73
-68
-66
-68
-67
-58
-47
-39
-31
-12
10
15
5
-11
-39
-49
-32
-43
-53
-15
-49
-176
-293
-330
226
1672
2572
1546
-60
-439
-126
-125
-206
-142
-139
-163
-131
-121
-123
-100
-84
-80
-66
-47
-33
-20
-8
10
35
61
84
107
135
167
204
246
283
311
335
346
321
246
138
29
-49
-100
-144
-177
-188
-184
-181
-185
-191
-187
-173
-167
-169
-161
-148
-143
-143
-139
-138
-139
-133
-125
-121
-114
-106
-106
-106
-101
-99
-97
-96
-99
-99
-89
-85
-86
-78
-70
-77
-83
-74
-66
-67
-66
-65
-66
-65
-60
-60
-62
-57
-50
-46
-36
-19
-3
7
9
2
-18
-38
-35
-24
-46
-50
-14
-47
-156
-258
-288
256
1629
2445
1420
-145
-515
-176
-113
-164
-109
-107
-125
-95
-86
-93
-80
-64
-49
-27
-14
-7
7
26
44
63
81
105
137
168
202
243
284
317
351
382
394
375
313
201
72
-32
-104
-157
-190
-206
-210
-205
-197
-194
-188
-181
-178
-175
-168
-171
-176
-160
-144
-152
-158
-146
-139
-141
-137
-129
-126
-126
-124
-117
-108
-108
-118
-117
-104
-98
-103
-99
-86
-82
-89
-94
-90
-85
-82
-79
-77
-78
-76
-69
-65
-59
-46
-31
-15
-4
-8
-20
-38
-56
-52
-48
-73
-57
-25
-107
-248
-366
-272
681
2251
2538
957
-420
-408
-104
-170
-196
-135
-159
-158
-120
-119
-113
-89
-80
-70
-49
-32
-18
-1
17
38
62
84
103
122
153
196
241
277
312
344
362
365
335
253
140
31
-59
-124
-167
-198
-214
-211
-201
-193
-185
-181
-179
-173
-166
-161
-154
-142
-137
-137
-132
-122
-115
-116
-113
-106
-105
-107
-101
-96
-100
-102
-98
-96
-92
-83
-79
-80
-79
-77
-75
-70
-66
-68
-71
-67
-57
-52
-54
-56
-54
-49
-48
-51
-46
-36
-31
-28
-19
-4
12
20
19
9
-18
-39
-26
-29
-53
-21
-15
-124
-246
-334
-45
1219
2580
2162
409
-474
-228
-82
-185
-152
-120
-157
-139
-118
-127
-109
-86
-80
-65
-47
-36
-17
7
21
34
56
79
101
128
160
192
228
263
293
320
338
331
285
201
94
-8
-87
-143
-177
-193
-200
-200
-194
-190
-194
-196
-187
-176
-171
-170
-167
-166
-164
-152
-140
-139
-140
-136
-132
-129
-126
-122
-117
-111
-106
-103
-107
-111
-106
-97
-97
-97
-88
-82
-86
-89
-81
-72
-72
-78
-77
-72
-74
-76
-64
-56
-62
-65
-62
-64
-59
-45
-40
-39
-21
2
15
18
12
-1
-22
-39
-29
-26
-56
-42
-2
-62
-191
-313
-164
849
2250
2248
671
-454
-337
-83
-145
-140
-90
-117
-109
-78
-86
-84
-61
-46
-33
-22
-13
7
26
34
47
73
96
117
143
174
214
259
296
328
356
374
376
349
273
155
38
-53
-120
-168
-190
-196
-204
-208
-201
-192
-188
-185
-182
-177
-169
-163
-160
-163
-169
-164
-149
-145
-150
-145
-133
-131
-132
-128
-126
-126
-122
-114
-107
-104
-102
-103
-104
-103
-97
-88
-82
-82
-85
-85
-81
-78
-82
-81
-67
-56
-56
-49
-27
-5
-1
-12
-25
-48
-65
-54
-57
-76
-42
-28
-135
-269
-377
-157
1028
2475
2249
501
-535
-320
-95
-177
-160
-122
-157
-145
-116
-116
-96
-73
-70
-58
-42
-30
-9
12
23
41
66
89
113
141
173
213
261
305
339
368
390
384
328
227
109
-1
-87
-143
-177
-200
-210
-206
-204
-207
-204
-194
-186
-181
-176
-171
-165
-155
-146
-145
-145
-137
-125
-121
-120
-117
-119
-122
-116
-105
-100
-99
-96
-94
-90
-83
-79
-81
-80
-76
-74
-72
-69
-65
-64
-65
-62
-56
-53
-54
-54
-49
-47
-47
-42
-34
-31
-29
-16
4
16
18
18
-1
-36
-36
-21
-45
-40
-6
-81
-222
-335
-274
591
2168
2625
1153
-299
-375
-78
-151
-194
-128
-146
-152
-114
-113
-111
-84
-72
-73
-62
-41
-21
-11
-4
10
30
55
80
103
135
176
212
241
275
308
331
339
316
242
132
26
-57
-120
-163
-184
-191
-199
-205
-199
-185
-179
-177
-173
-174
-178
-172
-163
-153
-144
-144
-148
-136
-121
-113
-95
-80
-97
-119
-111
-101
-110
-113
-101
-94
-97
-101
-102
-95
-82
-82
-97
-96
-76
-70
-76
-70
-63
-66
-62
-53
-58
-62
-50
-34
-23
-29
-42
-19
26
30
21
34
-1
-63
-52
-37
-72
-49
-24
-123
-254
-346
-52
1193
2502
2064
366
-459
-217
-88
-182
-137
-103
-147
-142
-115
-110
-101
-91
-78
-76
-107
-118
-66
-1
32
48
66
83
90
119
201
265
261
261
315
363
380
381
339
232
104
4
-67
-118
-162
-212
-249
-242
-211
-208
-227
-222
-188
-174
-200
-206
-167
-146
-168
-177
-161
-155
-158
-147
-129
-123
-128
-126
-118
-114
-115
-113
-107
-106
-104
-102
-100
-95
-84
-81
-87
-88
-81
-76
-79
-78
-65
-57
-58
-52
-33
-20
-17
-11
2
-3
-30
-41
-44
-71
-57
-6
-68
-220
-351
-365
343
1947
2736
1436
-253
-528
-148
-133
-194
-136
-151
-157
-103
-99
-111
-82
-66
-69
-48
-14
4
11
25
49
72
91
118
159
205
244
277
321
377
425
451
454
421
337
201
52
-60
-127
-176
-209
-218
-217
-219
-218
-217
-221
-224
-219
-214
-207
-195
-190
-186
-172
-159
-158
-161
-153
-141
-139
-141
-136
-129
-124
-120
-119
-120
-118
-116
-117
-112
-98
-94
-107
-113
-101
-95
-101
-95
-83
-87
-95
-88
-74
-71
-83
-85
-68
-61
-65
-52
-28
-10
4
-2
-39
-65
-61
-60
-85
-69
-9
-48
-188
-313
-352
239
1812
2849
1774
-32
-506
-139
-105
-203
-137
-129
-162
-125
-105
-116
-100
-79
-69
-56
-42
-27
-10
4
19
37
57
84
118
148
180
225
267
300
337
373
385
364
307
213
102
4
-74
-131
-158
-161
-164
-170
-171
-167
-165
-167
-163
-154
-150
-154
-151
-143
-139
-139
-138
-137
-136
-131
-124
-117
-112
-112
-112
-108
-104
-102
-102
-105
-105
-100
-95
-94
-91
-87
-89
-94
-93
-85
-78
-74
-73
-74
-69
-66
-78
-85
-66
-45
-41
-40
-29
-19
-13
-10
-22
-56
-76
-62
-67
-84
-50
-52
-157
-270
-355
-38
1238
2519
2008
267
-555
-280
-108
-184
-153
-125
-149
-127
-105
-106
-90
-76
-72
-56
-36
-22
-11
5
28
51
69
92
113
133
172
224
266
302
336
367
394
393
340
242
125
7
-81
-133
-172
-202
-211
-206
-196
-188
-189
-195
-189
-171
-164
-171
-174
-167
-164
-167
-163
-152
-145
-140
-135
-131
-133
-138
-131
-116
-110
-114
-114
-110
-108
-106
-102
-96
-89
-87
-92
-93
-82
-76
-82
-83
-73
-64
-60
-54
-48
-36
-15
-5
-8
-16
-43
-63
-50
-59
-77
-37
-44
-170
-307
-383
61
1511
2738
1963
132
-545
-202
-97
-199
-148
-130
-164
-125
-95
-107
-96
-73
-63
-50
-30
-14
-1
14
29
47
69
95
118
143
178
224
269
304
331
357
372
358
306
212
89
-27
-102
-142
-168
-191
-202
-199
-191
-192
-192
-183
-174
-172
-171
-171
-170
-160
-149
-149
-147
-136
-129
-129
-127
-123
-123
-122
-117
-111
-106
-105
-103
-95
-88
-89
-89
-83
-77
-74
-74
-78
-79
-72
-69
-73
-73
-67
-66
-69
-67
-63
-62
-60
-54
-47
-43
-39
-23
-1
3
-6
-21
-46
-49
-31
-48
-50
-7
-61
-208
-330
-322
399
1993
2766
1474
-182
-443
-99
-130
-208
-148
-162
-175
-130
-122
-126
-104
-92
-82
-63
-54
-46
-28
-15
-3
17
37
56
81
113
142
173
213
253
278
296
311
303
249
156
51
-40
-101
-140
-174
-199
-199
-190
-190
-186
-177
-185
-185
-169
-178
-192
-169
-158
-181
-175
-156
-183
-189
-138
-121
-149
-141
-92
-62
-59
-53
-49
-56
-50
-24
-5
5
34
57
45
41
71
79
52
49
70
73
68
67
60
49
42
49
70
81
78
80
73
54
59
87
97
78
46
19
9
7
3
7
18
22
