# session 5
-6
22
46
67
87
103
113
110
88
46
-4
-53
-95
-129
-153
-169
-176
-178
-176
-172
-167
-160
-152
-145
-142
-138
-132
-123
-117
-114
-113
-109
-105
-104
-104
-104
-102
-99
-96
-93
-89
-86
-86
-85
-81
-77
-74
-72
-68
-65
-63
-61
-57
-52
-47
-39
-27
-15
-7
-4
-5
-9
-17
-27
-31
-30
-29
-30
-31
-32
-34
-27
-13
-21
-71
-144
-134
142
727
1283
1308
715
-4
-319
-209
-33
-10
-59
-69
-54
-47
-41
-33
-28
-22
-13
-4
5
16
28
40
53
69
88
111
134
158
180
201
219
231
233
219
186
137
81
28
-15
-50
-75
-91
-99
-103
-104
-102
-98
-92
-87
-83
-81
-78
-75
-72
-72
-73
-74
-73
-72
-73
-77
-80
-81
-82
-82
-83
-84
-85
-84
-82
-82
-83
-82
-80
-77
-76
-76
-74
-72
-70
-69
-67
-67
-67
-67
-64
-61
-56
-47
-34
-25
-24
-24
-25
-28
-37
-47
-53
-53
-52
-53
-54
-55
-57
-51
-39
-50
-99
-162
-146
116
674
1215
1253
689
-9
-321
-219
-54
-39
-91
-100
-84
-79
-75
-65
-57
-49
-41
-32
-21
-10
1
13
27
43
61
82
104
128
152
175
194
207
212
205
182
142
91
39
-6
-43
-71
-88
-96
-98
-96
-93
-91
-90
-85
-77
-71
-72
-75
-75
-71
-68
-67
-67
-66
-67
-71
-75
-76
-75
-75
-77
-79
-79
-78
-77
-76
-74
-72
-71
-72
-72
-69
-64
-62
-64
-64
-61
-56
-53
-51
-52
-51
-49
-49
-49
-44
-32
-19
-11
-10
-9
-10
-15
-23
-31
-35
-36
-36
-38
-41
-43
-47
-45
-33
-29
-60
-124
-159
-3
475
1090
1347
947
193
-313
-329
-125
-30
-61
-89
-79
-67
-62
-54
-46
-41
-34
-26
-16
-2
11
21
31
46
66
86
105
124
146
169
188
200
206
203
185
147
95
41
-4
-42
-71
-94
-107
-113
-114
-115
-115
-110
-103
-98
-95
-92
-88
-86
-86
-84
-82
-81
-81
-81
-80
-79
-81
-83
-84
-83
-83
-82
-81
-79
-79
-80
-78
-76
-73
-72
-71
-70
-69
-68
-67
-66
-65
-61
-51
-37
-27
-23
-23
-23
-24
-29
-38
-47
-50
-51
-52
-53
-54
-57
-55
-41
-36
-70
-139
-176
-28
444
1070
1360
996
258
-255
-287
-100
-21
-67
-99
-86
-75
-72
-64
-56
-49
-41
-32
-22
-11
0
12
26
42
59
79
101
124
147
169
189
204
212
207
185
145
95
42
-6
-46
-74
-92
-103
-107
-108
-106
-103
-98
-93
-89
-85
-81
-76
-74
-72
-70
-68
-67
-67
-68
-69
-70
-71
-71
-71
-72
-74
-73
-73
-73
-72
-70
-69
-68
-68
-69
-67
-65
-63
-62
-61
-60
-59
-58
-56
-56
-56
-57
-55
-50
-40
-27
-15
-11
-12
-13
-13
-19
-29
-39
-43
-42
-43
-45
-46
-48
-51
-43
-32
-49
-105
-164
-105
241
841
1290
1150
489
-142
-322
-165
-30
-45
-88
-86
-71
-67
-61
-53
-47
-37
-27
-18
-9
2
13
25
41
57
73
91
112
134
159
181
195
204
209
202
174
128
75
26
-15
-50
-76
-91
-97
-99
-100
-100
-97
-93
-89
-87
-82
-77
-73
-74
-76
-79
-80
-79
-78
-77
-76
-77
-78
-80
-81
-83
-84
-86
-87
-83
-76
-72
-74
-76
-73
-70
-70
-71
-71
-69
-66
-61
-58
-58
-59
-57
-53
-47
-40
-31
-20
-13
-11
-10
-14
-23
-34
-44
-49
-49
-48
-48
-48
-50
-50
-38
-26
-48
-111
-168
-73
338
961
1334
1068
338
-264
-378
-185
-45
-53
-89
-86
-74
-69
-60
-47
-36
-29
-24
-17
-6
8
21
33
48
63
81
102
125
148
170
188
202
211
209
190
153
105
54
6
-34
-65
-85
-96
-102
-106
-107
-104
-98
-92
-88
-84
-80
-77
-74
-72
-71
-72
-73
-73
-72
-73
-75
-76
-76
-76
-77
-77
-76
-76
-77
-76
-74
-72
-70
-68
-67
-66
-67
-66
-65
-63
-61
-60
-61
-62
-61
-60
-55
-45
-30
-19
-15
-16
-18
-19
-25
-35
-42
-44
-45
-47
-48
-48
-52
-48
-36
-39
-82
-147
-157
49
566
1153
1317
848
127
-282
-244
-70
-29
-81
-100
-85
-77
-73
-64
-56
-49
-40
-31
-22
-12
0
12
26
41
58
77
99
123
149
171
188
202
210
206
184
145
94
41
-6
-43
-72
-91
-101
-105
-106
-105
-101
-95
-90
-87
-84
-81
-80
-79
-78
-76
-74
-74
-73
-73
-73
-74
-76
-77
-77
-76
-75
-74
-75
-75
-74
-72
-71
-70
-69
-68
-67
-66
-65
-63
-60
-59
-57
-56
-54
-54
-54
-54
-51
-45
-33
-19
-12
-14
-17
-14
-13
-21
-34
-43
-44
-42
-43
-46
-47
-50
-47
-35
-37
-74
-138
-159
19
512
1108
1316
882
146
-306
-285
-87
-19
-69
-97
-81
-68
-66
-63
-55
-43
-31
-22
-13
-2
7
15
29
48
67
82
99
124
151
174
188
198
207
209
193
154
101
47
3
-33
-63
-89
-103
-106
-104
-103
-103
-100
-96
-92
-92
-91
-88
-84
-81
-79
-79
-82
-84
-85
-84
-84
-86
-88
-89
-88
-85
-83
-81
-81
-82
-81
-78
-76
-75
-75
-74
-73
-71
-67
-65
-66
-64
-57
-46
-35
-27
-22
-20
-23
-28
-35
-43
-48
-50
-49
-50
-51
-52
-55
-50
-35
-35
-75
-145
-152
86
640
1206
1280
723
-13
-373
-280
-82
-31
-73
-88
-75
-67
-62
-53
-45
-37
-28
-19
-10
0
12
26
41
57
74
94
116
140
164
185
201
213
217
205
175
129
75
23
-23
-58
-82
-97
-106
-110
-109
-107
-103
-99
-93
-88
-85
-81
-77
-74
-73
-73
-73
-74
-75
-74
-75
-75
-74
-74
-75
-76
-77
-78
-80
-80
-80
-79
-79
-77
-75
-73
-72
-71
-68
-66
-64
-64
-63
-61
-57
-49
-36
-25
-20
-19
-20
-21
-26
-35
-44
-48
-48
-48
-49
-49
-52
-50
-37
-38
-75
-141
-168
-1
477
1077
1315
917
197
-268
-270
-88
-24
-71
-98
-84
-74
-70
-63
-54
-47
-38
-30
-21
-11
0
13
27
43
60
78
99
122
146
169
188
203
212
211
190
151
99
46
-1
-37
-64
-84
-95
-99
-98
-97
-96
-95
-92
-88
-85
-82
-81
-80
-78
-75
-71
-70
-73
-79
-80
-77
-75
-79
-85
-85
-80
-78
-79
-80
-76
-74
-75
-78
-76
-73
-71
-69
-67
-65
-63
-62
-61
-59
-54
-47
-40
-32
-24
-20
-19
-21
-23
-28
-35
-42
-46
-48
-51
-51
-53
-56
-49
-31
-33
-81
-155
-146
126
696
1229
1242
653
-58
-371
-258
-71
-36
-83
-98
-83
-71
-60
-49
-41
-34
-28
-21
-11
0
11
25
40
55
71
91
113
135
156
175
192
203
206
193
162
116
66
19
-21
-55
-80
-97
-105
-108
-109
-107
-104
-101
-98
-94
-89
-85
-81
-79
-78
-78
-78
-77
-77
-78
-79
-80
-80
-80
-81
-81
-81
-81
-80
-80
-80
-80
-78
-76
-73
-72
-72
-72
-70
-68
-63
-53
-40
-32
-29
-27
-27
-31
-41
-51
-55
-54
-54
-54
-54
-57
-56
-43
-38
-70
-138
-180
-46
406
1031
1350
1024
298
-236
-291
-107
-21
-65
-100
-89
-77
-72
-64
-55
-49
-41
-33
-24
-13
-4
7
20
36
54
73
95
118
141
164
183
197
203
198
177
139
88
35
-11
-48
-75
-92
-103
-107
-108
-105
-102
-98
-93
-89
-86
-83
-80
-78
-77
-76
-75
-75
-74
-73
-72
-73
-74
-76
-77
-77
-76
-76
-76
-77
-76
-75
-73
-72
-70
-68
-67
-65
-63
-61
-62
-61
-60
-55
-46
-34
-22
-17
-16
-16
-17
-23
-32
-41
-44
-45
-47
-49
-48
-51
-53
-42
-30
-49
-109
-168
-101
259
860
1288
1118
445
-170
-324
-155
-26
-48
-92
-87
-72
-68
-64
-55
-46
-37
-31
-25
-16
-5
10
27
42
54
68
87
109
134
158
179
195
203
201
185
154
110
60
10
-31
-60
-79
-92
-101
-106
-106
-102
-98
-93
-87
-83
-83
-85
-83
-78
-76
-79
-82
-79
-74
-73
-77
-82
-82
-80
-80
-84
-86
-81
-75
-74
-76
-76
-75
-74
-70
-66
-66
-69
-68
-65
-63
-62
-58
-45
-27
-17
-17
-19
-19
-21
-29
-39
-46
-47
-46
-47
-49
-48
-49
-50
-41
-29
-43
-102
-166
-89
298
915
1316
1089
371
-254
-394
-201
-45
-44
-85
-88
-74
-65
-55
-48
-41
-33
-23
-14
-2
10
21
33
49
67
86
105
127
149
170
188
201
209
205
183
144
95
44
-2
-38
-66
-86
-98
-104
-104
-103
-100
-97
-92
-87
-84
-82
-79
-76
-75
-75
-75
-75
-76
-76
-76
-76
-77
-78
-79
-80
-80
-81
-80
-79
-78
-77
-76
-74
-72
-72
-72
-71
-69
-66
-65
-65
-64
-62
-59
-50
-36
-26
-23
-23
-24
-26
-32
-40
-47
-48
-46
-48
-49
-50
-53
-51
-38
-39
-79
-146
-166
22
527
1127
1329
891
164
-277
-258
-77
-25
-75
-98
-84
-75
-72
-63
-56
-48
-38
-29
-21
-12
-2
10
24
40
57
77
99
122
146
169
188
201
206
199
176
137
86
36
-9
-45
-72
-88
-98
-103
-104
-102
-99
-96
-92
-88
-86
-82
-79
-76
-74
-73
-72
-71
-71
-72
-73
-73
-72
-73
-75
-75
-75
-75
-75
-74
-73
-72
-72
-71
-69
-68
-66
-64
-61
-60
-58
-58
-57
-58
-56
-54
-50
-44
-33
-20
-12
-11
-11
-13
-19
-27
-34
-39
-41
-43
-44
-44
-44
-49
-49
-39
-35
-66
-131
-167
-21
442
1050
1323
956
229
-273
-300
-109
-23
-63
-94
-83
-73
-68
-58
-51
-49
-43
-31
-16
-4
4
11
25
43
59
75
96
122
147
167
181
192
200
198
183
149
98
43
-4
-39
-68
-92
-107
-110
-106
-102
-101
-99
-97
-93
-89
-85
-84
-86
-86
-82
-78
-79
-82
-82
-80
-79
-81
-82
-82
-83
-84
-83
-81
-79
-79
-79
-78
-77
-76
-74
-70
-67
-67
-69
-70
-67
-62
-58
-50
-38
-26
-19
-18
-19
-21
-27
-37
-46
-49
-47
-46
-48
-50
-51
-53
-48
-33
-32
-72
-142
-149
91
649
1216
1286
722
-17
-375
-279
-78
-27
-70
-86
-71
-62
-57
-49
-41
-33
-24
-16
-6
7
18
30
43
60
80
101
123
146
168
188
204
215
218
205
172
122
67
16
-26
-59
-82
-96
-104
-106
-105
-102
-99
-95
-90
-86
-81
-76
-74
-72
-72
-73
-73
-72
-71
-71
-73
-75
-76
-77
-77
-77
-77
-78
-78
-78
-78
-77
-76
-75
-74
-74
-73
-72
-71
-71
-69
-65
-63
-64
-64
-63
-59
-52
-40
-29
-22
-20
-21
-22
-24
-32
-42
-48
-47
-46
-47
-48
-50
-53
-50
-38
-44
-89
-154
-153
78
616
1187
1298
786
71
-298
-232
-60
-30
-82
-96
-81
-74
-69
-60
-53
-46
-38
-29
-20
-10
2
15
29
44
62
83
106
129
151
172
190
203
210
204
181
139
87
36
-8
-44
-71
-89
-99
-103
-103
-100
-96
-92
-88
-85
-82
-79
-77
-76
-75
-72
-71
-70
-71
-71
-72
-72
-72
-72
-73
-75
-75
-72
-71
-72
-75
-76
-73
-69
-67
-68
-68
-65
-63
-61
-58
-57
-57
-58
-57
-55
-50
-42
-33
-25
-19
-16
-13
-12
-17
-29
-41
-47
-45
-43
-44
-47
-49
-52
-47
-34
-39
-84
-152
-153
85
630
1193
1278
737
11
-349
-261
-72
-33
-83
-99
-81
-71
-65
-56
-49
-43
-33
-24
-17
-7
6
20
34
48
65
86
108
128
148
170
189
203
209
201
172
126
76
27
-18
-56
-82
-95
-103
-110
-113
-110
-104
-100
-99
-99
-94
-88
-85
-85
-84
-81
-80
-81
-84
-84
-83
-82
-83
-87
-89
-87
-85
-83
-83
-82
-81
-79
-77
-76
-76
-77
-76
-73
-69
-62
-53
-42
-34
-28
-25
-27
-34
-43
-50
-53
-54
-55
-57
-56
-57
-59
-52
-40
-50
-101
-168
-129
196
802
1292
1195
528
-161
-393
-232
-54
-39
-85
-90
-75
-66
-59
-52
-45
-37
-27
-17
-6
6
18
31
45
63
82
104
127
152
175
194
207
215
213
195
156
102
47
0
-39
-69
-89
-101
-107
-109
-108
-105
-100
-96
-92
-89
-85
-82
-80
-78
-75
-73
-71
-71
-70
-70
-70
-72
-73
-73
-73
-73
-72
-72
-72
-71
-70
-68
-67
-65
-64
-63
-62
-61
-59
-57
-55
-55
-55
-54
-52
-48
-40
-27
-16
-10
-10
-10
-11
-17
-28
-36
-37
-35
-36
-37
-38
-40
-34
-22
-32
-82
-150
-145
97
643
1211
1311
788
73
-290
-219
-51
-26
-80
-94
-78
-71
-67
-58
-49
-43
-36
-28
-20
-9
3
15
28
44
61
79
101
126
149
170
188
201
207
199
172
128
75
24
-20
-56
-83
-100
-109
-113
-114
-113
-110
-107
-104
-101
-98
-96
-94
-92
-92
-93
-93
-91
-90
-91
-92
-92
-92
-94
-95
-97
-99
-99
-97
-95
-93
-93
-92
-90
-89
-88
-87
-86
-85
-83
-81
-77
-75
-75
-75
-73
-71
-65
-55
-45
-38
-34
-28
-25
-29
-41
-52
-57
-55
-54
-56
-59
-59
-60
-60
-47
-38
-64
-126
-172
-56
367
978
1323
1037
317
-249
-330
-134
-17
-47
-88
-82
-67
-61
-52
-44
-36
-25
-12
-1
9
18
31
47
62
79
100
122
144
168
191
209
224
233
233
217
182
133
82
38
0
-31
-52
-61
-63
-64
-64
-61
-57
-53
-51
-48
-41
-36
-36
-38
-37
-36
-36
-33
-30
-31
-36
-42
-43
-40
-40
-44
-46
-44
-41
-42
-43
-42
-42
-42
-42
-43
-44
-47
-48
-47
-45
-43
-36
-27
-19
-16
-18
-24
-33
-45
-57
-65
-71
-76
-78
-81
-88
-93
-93
-88
-84
-128
-221
-209
-1
