# session 8
-29
-29
-32
-35
-34
-32
-31
-32
-33
-33
-32
-30
-28
-29
-32
-35
-34
-30
-23
-14
-3
4
5
3
0
-8
-19
-30
-35
-33
-32
-36
-39
-42
-46
-42
-28
-26
-63
-135
-158
48
579
1173
1317
810
56
-362
-303
-96
-28
-70
-91
-77
-67
-62
-54
-48
-41
-32
-24
-15
-4
8
20
34
49
67
87
108
131
155
177
193
204
207
198
172
126
71
18
-27
-63
-90
-107
-116
-120
-122
-121
-116
-110
-105
-101
-98
-95
-92
-89
-88
-87
-86
-86
-86
-86
-87
-88
-89
-89
-89
-90
-90
-90
-88
-86
-85
-84
-84
-82
-80
-79
-77
-73
-70
-68
-67
-65
-62
-60
-60
-60
-59
-58
-58
-54
-43
-28
-17
-14
-15
-14
-15
-21
-32
-40
-43
-41
-42
-43
-42
-44
-44
-34
-27
-55
-118
-165
-58
353
969
1339
1083
379
-193
-291
-113
-9
-44
-84
-76
-63
-59
-52
-44
-37
-28
-20
-13
-3
9
21
33
47
63
81
101
122
145
169
189
203
213
214
199
166
119
66
16
-26
-59
-81
-94
-102
-105
-104
-101
-97
-93
-88
-85
-83
-82
-79
-74
-72
-73
-75
-73
-70
-70
-75
-78
-77
-75
-75
-76
-76
-77
-76
-75
-74
-72
-70
-69
-69
-67
-63
-64
-67
-67
-62
-59
-60
-58
-54
-53
-55
-56
-53
-50
-49
-46
-39
-28
-19
-15
-16
-18
-21
-26
-34
-42
-44
-43
-46
-52
-54
-54
-50
-39
-36
-65
-127
-167
-23
445
1066
1346
970
225
-291
-318
-118
-20
-53
-86
-80
-68
-58
-46
-39
-36
-30
-21
-12
-3
9
24
37
50
65
84
106
126
143
163
186
205
213
208
189
153
104
51
3
-36
-68
-91
-104
-110
-113
-114
-112
-108
-103
-100
-97
-93
-89
-87
-86
-85
-84
-82
-81
-81
-81
-79
-79
-82
-83
-81
-78
-77
-78
-78
-76
-75
-75
-75
-76
-76
-76
-74
-72
-70
-70
-71
-70
-67
-61
-50
-36
-26
-23
-24
-25
-28
-35
-45
-52
-53
-51
-52
-53
-53
-55
-54
-42
-35
-65
-134
-181
-50
407
1040
1361
1024
282
-259
-308
-114
-18
-58
-93
-81
-68
-65
-57
-48
-41
-33
-24
-14
-4
7
19
33
48
65
83
105
128
152
175
196
211
219
215
194
154
101
47
-2
-41
-70
-89
-99
-104
-106
-105
-104
-100
-95
-90
-87
-83
-80
-77
-75
-74
-74
-72
-70
-70
-71
-73
-74
-76
-77
-77
-77
-77
-78
-77
-75
-74
-73
-73
-72
-71
-70
-70
-69
-67
-65
-63
-61
-60
-58
-56
-55
-55
-55
-52
-45
-33
-20
-13
-12
-14
-14
-16
-23
-33
-41
-44
-43
-44
-46
-47
-50
-50
-37
-30
-56
-119
-168
-65
343
955
1322
1063
357
-213
-307
-124
-16
-50
-88
-80
-68
-64
-56
-48
-42
-34
-24
-15
-6
5
16
28
41
56
75
98
120
143
165
187
203
213
212
198
167
120
65
13
-27
-56
-78
-94
-103
-104
-99
-96
-94
-91
-88
-85
-85
-84
-80
-75
-72
-72
-73
-73
-73
-73
-75
-76
-78
-79
-79
-80
-81
-81
-78
-75
-73
-73
-72
-71
-73
-75
-72
-68
-65
-63
-63
-63
-61
-58
-56
-56
-57
-58
-55
-49
-40
-28
-18
-12
-12
-15
-19
-22
-26
-32
-39
-43
-42
-41
-41
-43
-49
-49
-36
-27
-52
-119
-171
-57
376
1000
1345
1045
310
-266
-353
-159
-32
-46
-78
-76
-68
-65
-56
-46
-38
-29
-22
-15
-4
10
24
37
51
65
81
101
124
148
169
187
200
209
207
190
155
105
51
1
-38
-68
-89
-103
-111
-113
-112
-109
-105
-102
-100
-96
-91
-87
-85
-85
-84
-82
-81
-81
-81
-82
-82
-83
-83
-85
-85
-84
-84
-84
-83
-81
-79
-78
-78
-77
-75
-72
-70
-69
-67
-66
-66
-64
-63
-60
-51
-38
-27
-23
-22
-22
-22
-26
-35
-44
-48
-48
-48
-49
-49
-51
-54
-46
-34
-47
-102
-168
-137
167
762
1285
1254
635
-56
-321
-191
-34
-33
-85
-88
-71
-66
-62
-53
-45
-37
-29
-21
-12
-1
10
23
37
54
72
92
114
139
163
185
202
213
215
203
172
125
70
18
-26
-59
-82
-97
-105
-108
-108
-105
-102
-100
-96
-92
-87
-84
-81
-79
-77
-77
-75
-73
-72
-72
-73
-75
-76
-76
-75
-76
-77
-77
-76
-76
-75
-75
-76
-75
-74
-72
-70
-69
-66
-64
-63
-62
-61
-59
-58
-57
-55
-53
-49
-40
-27
-16
-12
-14
-16
-16
-19
-28
-37
-42
-42
-43
-45
-45
-48
-50
-40
-31
-51
-107
-164
-105
240
838
1288
1148
485
-148
-325
-161
-23
-40
-87
-85
-70
-66
-60
-51
-45
-39
-31
-20
-8
2
13
25
40
55
72
91
111
131
154
176
195
207
208
195
166
122
69
17
-28
-60
-78
-91
-102
-110
-112
-108
-101
-97
-94
-89
-83
-78
-78
-81
-84
-81
-75
-72
-77
-83
-83
-81
-81
-80
-77
-75
-77
-78
-73
-66
-65
-68
-68
-62
-58
-58
-60
-59
-55
-54
-56
-59
-60
-56
-49
-41
-33
-23
-16
-15
-20
-25
-33
-43
-52
-55
-51
-47
-47
-50
-57
-57
-40
-26
-52
-125
-176
-41
419
1038
1330
967
214
-327
-370
-157
-36
-57
-90
-83
-70
-64
-56
-46
-37
-29
-21
-12
-1
9
21
35
51
66
82
103
128
151
170
187
201
208
201
177
137
85
33
-13
-49
-75
-93
-105
-109
-110
-109
-106
-102
-98
-94
-90
-86
-82
-80
-79
-79
-78
-77
-76
-77
-79
-79
-79
-79
-80
-81
-81
-80
-78
-77
-76
-75
-74
-73
-71
-69
-67
-67
-66
-65
-64
-63
-62
-58
-50
-37
-27
-22
-22
-22
-25
-32
-41
-47
-49
-49
-50
-49
-50
-54
-49
-35
-42
-91
-160
-153
105
670
1232
1293
736
24
-309
-216
-47
-29
-83
-94
-77
-70
-66
-58
-50
-41
-33
-26
-17
-6
6
19
34
50
67
87
109
133
157
178
196
208
212
202
174
130
78
26
-19
-54
-80
-95
-103
-106
-106
-104
-100
-96
-92
-88
-84
-82
-80
-78
-77
-75
-73
-72
-72
-72
-73
-73
-74
-74
-75
-74
-74
-75
-75
-74
-74
-74
-72
-70
-68
-67
-65
-64
-62
-60
-58
-57
-56
-55
-55
-53
-51
-50
-50
-50
-49
-45
-35
-22
-11
-7
-9
-11
-12
-18
-27
-35
-39
-39
-40
-43
-42
-43
-45
-38
-31
-51
-109
-164
-85
295
906
1314
1109
419
-183
-317
-142
-19
-45
-88
-82
-67
-61
-55
-52
-50
-41
-28
-16
-6
3
13
28
43
56
71
91
114
138
158
176
192
205
208
195
164
119
67
19
-22
-55
-81
-97
-103
-105
-106
-104
-98
-93
-90
-88
-85
-82
-80
-80
-81
-81
-79
-76
-77
-80
-83
-85
-86
-86
-82
-80
-80
-83
-83
-80
-77
-76
-79
-78
-72
-66
-65
-68
-70
-67
-64
-65
-66
-63
-57
-49
-42
-37
-29
-21
-17
-18
-21
-25
-28
-34
-43
-49
-48
-45
-43
-43
-47
-52
-44
-32
-47
-105
-164
-83
309
930
1327
1093
371
-252
-388
-194
-41
-44
-83
-82
-68
-61
-54
-45
-37
-29
-19
-10
0
12
23
37
52
69
87
107
128
151
172
190
203
212
209
190
152
102
51
4
-35
-66
-86
-98
-105
-107
-105
-101
-97
-93
-89
-84
-80
-78
-77
-75
-74
-74
-75
-75
-75
-76
-77
-76
-76
-76
-78
-80
-81
-80
-79
-78
-76
-75
-74
-73
-71
-68
-67
-66
-66
-65
-63
-62
-62
-62
-62
-60
-53
-40
-26
-19
-20
-21
-20
-22
-31
-42
-48
-47
-46
-48
-48
-49
-52
-46
-33
-43
-95
-162
-140
142
718
1253
1262
673
-23
-314
-200
-39
-33
-86
-93
-76
-71
-66
-57
-49
-41
-32
-24
-14
-3
9
22
36
50
68
89
111
133
156
178
196
208
211
201
174
131
77
25
-20
-55
-80
-96
-105
-109
-109
-106
-101
-97
-93
-89
-85
-82
-80
-78
-77
-77
-76
-75
-74
-75
-75
-74
-75
-76
-77
-76
-76
-77
-77
-76
-75
-75
-75
-74
-72
-71
-70
-69
-66
-65
-65
-63
-61
-59
-59
-58
-58
-55
-47
-33
-21
-17
-19
-18
-17
-18
-26
-37
-45
-46
-44
-45
-47
-49
-54
-50
-35
-34
-71
-137
-158
26
525
1119
1313
865
134
-299
-267
-77
-18
-66
-90
-77
-66
-61
-53
-47
-42
-32
-22
-12
-3
3
12
25
43
63
83
103
122
144
166
184
195
199
196
181
147
97
42
-6
-45
-74
-92
-103
-109
-109
-104
-97
-90
-85
-83
-82
-81
-83
-86
-87
-81
-74
-76
-83
-86
-80
-76
-79
-84
-85
-81
-79
-81
-83
-82
-78
-76
-75
-71
-67
-65
-67
-68
-68
-65
-61
-53
-45
-36
-28
-21
-17
-17
-21
-29
-39
-47
-50
-49
-49
-51
-51
-51
-53
-47
-33
-37
-83
-153
-133
164
751
1253
1191
546
-151
-405
-250
-60
-33
-78
-88
-77
-74
-69
-59
-48
-36
-27
-19
-11
0
12
25
39
55
73
94
116
138
161
179
193
202
202
185
149
99
47
-1
-39
-68
-89
-101
-105
-106
-104
-101
-97
-91
-85
-80
-76
-72
-70
-68
-67
-66
-66
-67
-67
-68
-69
-70
-71
-71
-71
-71
-71
-72
-72
-71
-70
-70
-69
-67
-66
-66
-65
-62
-61
-62
-62
-61
-60
-58
-51
-38
-26
-21
-21
-22
-22
-25
-32
-41
-48
-49
-48
-48
-47
-49
-54
-50
-36
-43
-90
-156
-151
87
628
1187
1279
756
48
-304
-225
-53
-26
-79
-94
-77
-70
-65
-57
-52
-45
-35
-26
-18
-7
5
17
31
46
63
83
104
126
149
171
189
202
209
202
176
131
79
31
-12
-49
-77
-94
-102
-106
-106
-101
-94
-91
-90
-89
-85
-80
-78
-78
-76
-75
-77
-80
-80
-77
-76
-76
-78
-80
-80
-81
-82
-84
-83
-81
-78
-75
-75
-73
-71
-70
-70
-70
-67
-65
-63
-63
-62
-60
-56
-52
-44
-32
-24
-22
-21
-17
-18
-25
-34
-40
-44
-46
-47
-47
-48
-52
-55
-45
-30
-39
-90
-158
-138
145
721
1249
1246
642
-72
-375
-254
-69
-35
-75
-81
-64
-59
-59
-54
-46
-37
-27
-17
-6
6
18
32
46
60
74
92
115
138
159
177
192
204
208
197
166
119
65
14
-28
-60
-82
-98
-109
-115
-115
-111
-106
-103
-100
-96
-91
-87
-87
-87
-84
-80
-80
-82
-83
-82
-80
-80
-80
-82
-82
-81
-80
-80
-79
-79
-79
-78
-76
-75
-72
-69
-69
-70
-69
-68
-64
-56
-44
-33
-26
-25
-24
-24
-29
-38
-46
-50
-50
-51
-53
-53
-54
-57
-51
-38
-45
-93
-164
-157
104
679
1247
1300
725
-2
-335
-231
-51
-28
-81
-92
-75
-69
-66
-56
-48
-42
-34
-25
-15
-4
7
19
33
49
67
88
110
134
157
178
195
207
209
196
164
117
62
10
-32
-64
-86
-101
-109
-111
-109
-106
-102
-98
-94
-91
-88
-85
-82
-79
-78
-76
-73
-72
-72
-72
-72
-72
-72
-73
-73
-73
-73
-72
-72
-72
-73
-71
-69
-66
-64
-63
-63
-62
-61
-58
-57
-56
-56
-54
-53
-52
-50
-49
-48
-46
-38
-25
-12
-6
-8
-10
-11
-14
-22
-30
-35
-36
-37
-39
-40
-40
-43
-39
-26
-30
-73
-140
-153
52
570
1156
1314
836
110
-293
-241
-57
-14
-66
-86
-70
-61
-58
-51
-43
-35
-27
-21
-15
-2
13
27
37
50
67
87
107
129
152
174
191
205
211
205
179
139
92
41
-6
-45
-71
-88
-100
-108
-111
-110
-107
-101
-96
-92
-90
-87
-83
-80
-82
-84
-85
-85
-85
-84
-82
-82
-86
-89
-88
-85
-88
-92
-92
-88
-82
-79
-80
-82
-85
-85
-80
-73
-70
-72
-73
-72
-69
-70
-72
-68
-58
-48
-42
-35
-27
-22
-25
-32
-38
-46
-54
-59
-58
-57
-60
-61
-59
-58
-52
-42
-51
-101
-167
-125
210
822
1303
1184
497
-194
-416
-246
-65
-47
-86
-87
-70
-62
-56
-50
-47
-41
-29
-14
-1
9
15
24
39
59
80
101
121
143
165
184
198
208
209
191
154
106
57
11
-29
-61
-83
-96
-101
-101
-101
-99
-96
-91
-85
-80
-75
-72
-70
-67
-64
-62
-63
-63
-61
-59
-59
-59
-59
-59
-60
-60
-59
-57
-55
-52
-50
-48
-49
-49
-47
-42
-39
-39
-40
-40
-38
-33
-25
-14
-4
2
5
6
4
-3
-13
-20
-22
-22
-23
-23
-24
-28
-26
-14
-14
-54
-124
-148
38
547
1163
1380
941
195
-265
-251
-64
-6
-58
-84
-70
-61
-59
-52
-45
-39
-31
-25
-17
-8
2
12
25
39
55
74
93
115
138
160
176
186
190
180
151
105
50
-4
-51
-89
-117
-134
-145
-150
-152
-151
-149
-146
-144
-142
-139
-137
-137
-136
-135
-135
-135
-136
-136
-137
-137
-138
-139
-142
-143
-144
-145
-146
-145
-144
-144
-144
-144
-142
-141
-139
-137
-136
-136
-135
-133
-131
-129
-126
-124
-120
-110
-97
-86
-80
-77
-75
-75
-79
-86
-92
-92
-90
-88
-86
-83
-83
-80
-65
-59
-90
-153
-184
-36
422
1028
1305
945
228
-264
-282
-88
-5
-46
-73
-55
-40
-34
-23
-13
-3
12
27
42
57
73
88
106
125
146
169
193
219
247
274
296
314
326
326
307
271
224
176
132
97
71
54
45
42
44
49
53
57
62
68
72
75
76
76
78
79
79
77
73
70
68
66
63
59
53
47
41
36
32
30
27
20
11
1
-4
-8
-13
-22
-31
-38
-45
-54
-62
-72
-86
-99
-108
-114
-119
-124
-129
-137
-150
-166
-185
-207
-231
-256
-279
-299
-320
-341
-357
-375
-393
-404
-416
-455
-530
-609
-583
-281
285
734
615
-55
