# session 13
3
14
27
41
55
72
92
113
137
162
186
206
221
229
224
201
159
106
51
3
-34
-60
-77
-87
-91
-91
-88
-85
-82
-79
-76
-71
-66
-61
-57
-53
-50
-47
-45
-44
-43
-43
-42
-43
-45
-48
-49
-50
-51
-51
-51
-53
-55
-53
-51
-50
-49
-50
-51
-50
-49
-47
-46
-45
-45
-44
-43
-42
-41
-40
-41
-40
-39
-40
-40
-39
-34
-23
-10
-2
1
-1
-3
-5
-9
-17
-25
-31
-33
-32
-33
-35
-35
-38
-39
-29
-22
-49
-113
-165
-73
316
926
1326
1114
426
-170
-300
-129
-13
-42
-84
-79
-66
-63
-56
-48
-43
-36
-27
-17
-8
2
12
25
40
57
75
95
118
141
162
181
196
205
202
182
144
97
46
-2
-43
-74
-94
-104
-109
-109
-107
-106
-103
-97
-91
-88
-86
-81
-75
-72
-73
-75
-73
-69
-67
-68
-69
-70
-72
-74
-74
-73
-71
-73
-76
-78
-75
-72
-72
-76
-76
-71
-68
-67
-68
-68
-67
-66
-65
-62
-58
-55
-54
-55
-57
-56
-51
-46
-48
-52
-50
-43
-35
-28
-18
-10
-8
-14
-17
-14
-14
-21
-30
-34
-32
-31
-36
-42
-43
-43
-42
-30
-16
-37
-103
-169
-97
281
906
1349
1175
476
-174
-351
-178
-27
-33
-76
-75
-60
-55
-51
-42
-33
-24
-18
-9
3
13
21
31
47
66
87
106
124
145
169
189
202
209
208
190
152
98
42
-6
-43
-73
-96
-111
-118
-120
-119
-117
-113
-109
-106
-104
-101
-95
-90
-86
-85
-86
-85
-83
-80
-80
-81
-83
-82
-79
-77
-78
-79
-80
-78
-75
-73
-73
-73
-72
-71
-69
-67
-64
-62
-62
-62
-61
-59
-58
-57
-58
-55
-46
-34
-23
-17
-16
-18
-18
-20
-26
-35
-43
-46
-45
-44
-46
-46
-46
-48
-42
-30
-43
-98
-165
-140
155
746
1284
1275
664
-40
-322
-195
-30
-24
-78
-83
-66
-61
-57
-49
-42
-36
-28
-18
-8
3
14
26
41
57
75
96
120
145
169
189
205
214
213
196
159
108
53
2
-39
-71
-93
-105
-109
-109
-109
-107
-105
-101
-97
-94
-90
-86
-82
-78
-75
-73
-70
-68
-67
-68
-68
-68
-68
-69
-70
-70
-70
-71
-72
-71
-71
-70
-69
-69
-69
-68
-66
-65
-64
-63
-62
-61
-59
-57
-55
-54
-54
-54
-53
-51
-51
-50
-48
-45
-40
-31
-18
-9
-7
-10
-11
-12
-15
-23
-32
-38
-38
-38
-39
-40
-41
-43
-39
-28
-35
-81
-147
-145
93
634
1193
1282
754
44
-305
-222
-46
-18
-70
-84
-67
-60
-56
-48
-41
-34
-25
-17
-8
3
13
25
37
53
71
90
111
133
156
176
193
206
211
201
172
129
78
26
-20
-55
-80
-94
-104
-109
-107
-102
-99
-94
-87
-81
-79
-77
-74
-70
-68
-69
-69
-68
-68
-68
-67
-67
-68
-70
-71
-72
-72
-72
-71
-73
-75
-75
-70
-68
-70
-71
-69
-66
-65
-66
-63
-60
-59
-61
-60
-57
-57
-58
-56
-50
-46
-47
-49
-48
-44
-37
-27
-17
-10
-8
-11
-15
-18
-21
-28
-37
-44
-45
-42
-39
-38
-43
-47
-36
-25
-48
-114
-172
-80
325
951
1349
1115
396
-224
-359
-173
-31
-38
-75
-72
-60
-57
-51
-40
-32
-25
-19
-11
0
13
25
37
50
66
83
103
123
144
165
184
199
207
202
179
139
89
38
-7
-45
-75
-96
-110
-117
-118
-117
-114
-109
-105
-100
-96
-91
-87
-84
-82
-80
-79
-78
-78
-78
-77
-76
-76
-77
-78
-78
-77
-76
-76
-77
-78
-78
-76
-74
-72
-71
-71
-70
-68
-65
-63
-63
-64
-64
-62
-61
-59
-52
-38
-24
-19
-20
-21
-20
-24
-31
-40
-47
-48
-47
-48
-49
-49
-51
-49
-35
-31
-66
-133
-169
-21
446
1064
1346
981
248
-258
-282
-90
-9
-54
-85
-73
-62
-59
-52
-44
-37
-28
-18
-10
0
10
22
36
51
67
86
108
131
155
176
193
205
210
203
178
135
81
27
-19
-56
-82
-99
-107
-111
-112
-109
-104
-98
-95
-92
-87
-83
-79
-77
-74
-71
-70
-70
-69
-68
-68
-68
-68
-69
-71
-72
-73
-74
-74
-74
-74
-74
-72
-71
-70
-69
-69
-67
-66
-65
-63
-61
-60
-59
-58
-57
-55
-54
-53
-52
-52
-50
-45
-34
-20
-11
-9
-10
-11
-12
-16
-24
-33
-39
-40
-39
-40
-41
-42
-46
-42
-29
-34
-78
-144
-145
83
615
1175
1276
760
50
-308
-228
-48
-15
-67
-83
-69
-62
-57
-49
-41
-34
-26
-18
-8
3
14
27
38
50
65
85
108
133
155
173
189
202
207
198
170
124
70
22
-18
-53
-79
-94
-100
-102
-102
-102
-102
-99
-94
-87
-81
-79
-77
-74
-72
-74
-76
-77
-76
-75
-73
-73
-75
-79
-79
-77
-78
-83
-85
-81
-75
-73
-72
-73
-73
-74
-75
-74
-69
-65
-62
-62
-62
-59
-56
-56
-58
-57
-49
-36
-26
-19
-14
-10
-11
-20
-30
-36
-41
-44
-44
-44
-44
-43
-47
-53
-46
-27
-30
-81
-157
-144
138
718
1247
1240
631
-84
-383
-254
-62
-25
-68
-79
-65
-57
-51
-42
-36
-28
-18
-10
-2
7
18
30
45
62
79
97
117
139
162
182
195
201
199
184
151
102
50
2
-37
-69
-91
-105
-111
-113
-113
-110
-106
-101
-97
-91
-86
-82
-80
-79
-75
-73
-73
-74
-73
-70
-70
-71
-73
-75
-76
-75
-73
-72
-74
-76
-76
-74
-72
-71
-71
-70
-68
-65
-64
-65
-66
-65
-62
-58
-50
-39
-28
-22
-20
-20
-21
-24
-34
-43
-48
-48
-47
-49
-49
-49
-52
-49
-35
-39
-83
-151
-160
62
597
1178
1303
793
66
-317
-247
-60
-18
-70
-89
-74
-66
-63
-56
-47
-38
-30
-23
-15
-3
9
21
35
50
67
87
109
132
154
173
190
201
204
192
162
115
62
11
-31
-64
-88
-102
-108
-110
-109
-106
-102
-97
-92
-87
-84
-80
-77
-73
-72
-71
-72
-70
-68
-67
-68
-68
-69
-69
-70
-72
-72
-73
-72
-71
-70
-71
-71
-70
-68
-66
-65
-64
-63
-62
-62
-61
-59
-57
-56
-56
-55
-54
-51
-45
-33
-20
-11
-11
-13
-14
-16
-22
-31
-38
-41
-41
-42
-44
-44
-45
-47
-37
-28
-47
-102
-158
-95
251
846
1284
1133
470
-153
-320
-154
-19
-36
-82
-79
-63
-59
-54
-47
-40
-33
-26
-17
-6
5
16
28
42
58
76
95
116
139
161
179
193
202
202
185
152
104
53
5
-35
-66
-87
-98
-103
-104
-103
-100
-96
-91
-87
-82
-79
-76
-75
-73
-71
-69
-67
-65
-66
-66
-66
-66
-68
-71
-73
-74
-72
-71
-71
-74
-75
-73
-69
-68
-70
-71
-68
-64
-63
-64
-63
-60
-59
-61
-63
-60
-55
-53
-54
-55
-52
-47
-39
-28
-17
-11
-11
-17
-23
-25
-26
-32
-41
-45
-41
-38
-38
-40
-45
-45
-32
-23
-49
-114
-161
-40
395
1013
1342
1030
299
-260
-332
-135
-18
-43
-78
-73
-64
-59
-46
-35
-32
-30
-19
-5
4
8
18
37
55
67
80
100
125
148
167
183
197
204
198
176
138
88
37
-6
-42
-70
-92
-104
-109
-114
-116
-112
-106
-102
-100
-95
-90
-86
-87
-91
-92
-89
-85
-85
-87
-87
-86
-86
-88
-88
-86
-87
-87
-86
-85
-85
-84
-80
-76
-76
-78
-78
-74
-71
-72
-72
-66
-54
-40
-29
-24
-23
-25
-29
-36
-43
-48
-51
-52
-53
-54
-54
-55
-59
-55
-39
-34
-67
-134
-159
25
530
1126
1306
833
79
-364
-318
-100
-16
-55
-80
-67
-56
-51
-42
-32
-25
-18
-11
-1
10
22
34
48
64
80
99
120
142
164
183
198
209
210
195
162
114
59
7
-35
-65
-87
-101
-107
-109
-109
-107
-104
-99
-93
-89
-85
-81
-78
-75
-74
-71
-70
-68
-67
-67
-67
-68
-67
-67
-67
-67
-67
-68
-69
-69
-68
-67
-67
-67
-65
-63
-62
-62
-63
-62
-60
-58
-58
-57
-57
-56
-52
-41
-26
-16
-14
-18
-19
-19
-23
-33
-41
-46
-48
-49
-50
-49
-49
-53
-48
-35
-43
-93
-158
-145
111
662
1208
1262
711
9
-316
-218
-47
-28
-80
-91
-74
-70
-66
-57
-48
-40
-32
-25
-16
-5
6
18
30
45
63
82
104
128
151
170
185
194
196
185
156
111
59
9
-32
-64
-86
-100
-106
-107
-106
-104
-99
-95
-91
-87
-82
-77
-73
-72
-70
-68
-66
-65
-65
-65
-66
-67
-68
-69
-68
-68
-69
-69
-68
-67
-68
-68
-68
-66
-63
-61
-61
-63
-64
-62
-56
-51
-50
-52
-53
-52
-51
-49
-47
-43
-35
-25
-15
-9
-7
-8
-12
-17
-25
-33
-40
-42
-40
-38
-39
-42
-48
-47
-33
-30
-64
-132
-161
5
487
1086
1316
906
173
-297
-290
-91
-14
-58
-88
-78
-67
-62
-54
-45
-36
-27
-22
-15
-2
11
20
27
41
63
86
105
122
141
162
181
195
200
191
167
129
78
23
-26
-61
-82
-96
-108
-114
-112
-109
-108
-107
-103
-97
-93
-89
-87
-85
-83
-81
-82
-83
-85
-85
-83
-81
-80
-81
-83
-83
-82
-80
-79
-79
-80
-80
-78
-76
-74
-72
-71
-70
-70
-69
-68
-64
-58
-46
-32
-24
-23
-25
-25
-26
-30
-37
-45
-49
-49
-48
-50
-51
-50
-51
-48
-35
-32
-65
-134
-166
11
514
1124
1334
885
128
-338
-312
-98
-13
-52
-79
-67
-57
-52
-44
-35
-27
-18
-11
-4
6
18
31
43
58
74
94
115
138
161
183
198
208
209
194
160
111
58
10
-32
-65
-89
-102
-107
-109
-110
-109
-105
-100
-96
-92
-88
-83
-79
-77
-75
-73
-72
-72
-73
-73
-72
-73
-73
-74
-75
-76
-76
-75
-74
-74
-75
-75
-75
-73
-73
-73
-72
-70
-67
-64
-62
-61
-62
-63
-63
-61
-54
-43
-29
-20
-18
-21
-22
-21
-25
-32
-39
-45
-46
-47
-48
-48
-48
-50
-45
-33
-40
-88
-154
-148
93
636
1199
1293
769
57
-299
-220
-47
-22
-75
-88
-71
-64
-62
-55
-47
-40
-32
-24
-15
-4
6
18
31
47
65
85
106
129
151
171
188
201
203
191
161
114
60
11
-30
-60
-82
-97
-106
-108
-107
-104
-101
-97
-92
-89
-85
-81
-78
-76
-75
-72
-69
-69
-70
-71
-68
-65
-67
-73
-74
-71
-71
-75
-76
-72
-69
-71
-73
-71
-68
-66
-66
-68
-69
-66
-62
-61
-63
-62
-59
-56
-49
-36
-23
-17
-19
-21
-20
-21
-29
-40
-50
-53
-51
-48
-46
-44
-47
-52
-45
-32
-46
-102
-168
-136
164
747
1267
1242
621
-88
-369
-232
-50
-30
-79
-84
-64
-57
-56
-51
-40
-29
-21
-15
-9
2
16
30
42
56
73
95
118
142
162
178
194
206
209
190
148
96
44
-1
-40
-70
-93
-106
-113
-116
-116
-113
-107
-101
-100
-100
-97
-91
-86
-83
-81
-80
-81
-81
-79
-77
-78
-81
-85
-85
-83
-80
-80
-80
-80
-80
-78
-77
-76
-75
-76
-76
-73
-68
-61
-51
-39
-29
-26
-27
-28
-30
-37
-47
-55
-56
-54
-53
-54
-55
-54
-57
-56
-43
-38
-73
-145
-181
-10
493
1120
1359
928
162
-326
-317
-106
-20
-61
-90
-76
-64
-60
-54
-46
-36
-28
-21
-14
-4
9
22
36
50
68
89
111
134
158
179
194
203
204
189
154
105
52
2
-40
-71
-93
-105
-111
-112
-112
-110
-106
-102
-98
-94
-91
-87
-84
-80
-76
-73
-71
-71
-72
-71
-71
-71
-71
-72
-72
-72
-73
-73
-72
-71
-70
-69
-69
-70
-68
-66
-64
-63
-61
-61
-60
-58
-57
-57
-53
-42
-28
-18
-16
-19
-20
-19
-23
-31
-39
-43
-44
-43
-44
-46
-49
-53
-50
-34
-27
-58
-125
-168
-52
370
988
1349
1077
363
-203
-290
-108
-9
-49
-85
-71
-58
-59
-55
-46
-37
-29
-21
-11
1
11
17
26
43
64
84
102
122
145
169
187
200
205
198
176
138
88
35
-14
-54
-82
-99
-107
-108
-107
-108
-112
-112
-108
-101
-93
-88
-88
-89
-90
-90
-89
-86
-82
-79
-79
-81
-84
-87
-90
-86
-81
-81
-87
-91
-91
-89
-85
-79
-74
-74
-82
-90
-88
-74
-55
-38
-31
-37
-47
-53
-52
-51
-55
-58
-59
-58
-60
-65
-68
-71
-75
-72
-52
-37
-66
-146
-202
-44
472
1140
1416
975
147
-409
-419
-175
-48
-76
-109
-95
-79
-72
-65
-59
-54
-47
-34
-19
-6
3
16
32
50
68
88
112
139
165
186
199
205
206
193
158
103
43
-11
-52
-79
-98
-112
-123
-129
-128
-123
-117
-112
-105
-97
-93
-92
-90
-84
-79
-78
-80
-79
-76
-74
-72
-72
-73
-76
-75
-71
-68
-68
-70
-70
-68
-65
-61
-57
-52
-41
-27
-16
-12
-11
-13
-18
-24
-30
-35
-36
-32
-29
-27
-28
-33
-29
-13
-8
-46
-119
-148
42
566
1195
1411
945
157
-332
-310
-86
9
-29
-57
-45
-34
-27
-18
-11
-7
1
11
20
30
41
53
66
83
101
122
144
166
187
205
221
231
227
202
158
106
52
1
-44
-76
-95
-105
-111
-114
-114
-113
-113
-112
-109
-107
-107
-106
-103
-99
-98
-100
-102
-103
-103
-103
-106
-111
-114
-114
-115
-118
-121
-122
-122
-122
-122
-122
-123
-125
-126
-126
-124
-123
-123
-123
-125
-129
-129
-123
-110
-96
-90
-90
-91
-90
-92
-100
-108
-113
-114
-114
-115
-117
-113
-111
-110
-100
-92
-119
-184
-236
-139
264
907
1352
1168
456
-195
-362
-186
-49
-71
-116
-107
-88
-80
-68
-53
-42
-31
-19
-5
11
27
43
62
85
108
131
157
187
218
245
269
290
305
306
287
250
202
153
111
81
61
50
46
46
