# session 7
-21
-22
-21
-18
-14
-14
-17
-19
-19
-19
-21
-24
-26
-27
-28
-30
-32
-33
-33
-33
-34
-34
-32
-30
-31
-33
-34
-35
-37
-39
-39
-39
-38
-33
-21
-10
-3
-3
-5
-7
-11
-18
-27
-33
-34
-33
-34
-38
-42
-46
-50
-44
-30
-39
-93
-167
-151
137
733
1286
1292
679
-44
-348
-226
-50
-33
-85
-95
-80
-74
-69
-61
-54
-47
-39
-29
-17
-4
6
18
31
49
69
91
112
136
160
181
198
209
210
194
155
101
42
-9
-49
-79
-100
-111
-116
-118
-119
-116
-112
-107
-105
-103
-100
-97
-94
-93
-92
-89
-87
-87
-88
-87
-85
-85
-86
-86
-85
-84
-83
-83
-82
-81
-80
-78
-75
-72
-71
-71
-69
-67
-65
-65
-64
-62
-60
-58
-55
-52
-49
-47
-45
-43
-40
-39
-38
-40
-41
-39
-31
-18
-5
0
-2
-5
-5
-6
-13
-22
-30
-34
-33
-33
-34
-34
-37
-41
-34
-22
-38
-95
-157
-109
219
818
1307
1226
587
-77
-304
-164
-22
-33
-81
-81
-65
-61
-54
-45
-38
-30
-21
-12
-5
4
14
27
41
58
77
98
119
142
166
189
205
215
218
212
186
140
86
35
-8
-44
-69
-83
-92
-98
-98
-96
-94
-92
-87
-82
-79
-80
-80
-79
-77
-77
-79
-80
-76
-71
-72
-81
-87
-84
-80
-83
-89
-91
-88
-84
-81
-79
-79
-80
-79
-74
-67
-66
-70
-72
-70
-68
-66
-65
-62
-58
-53
-51
-53
-57
-57
-52
-47
-46
-49
-49
-43
-32
-21
-15
-13
-11
-6
-5
-12
-26
-37
-39
-36
-35
-39
-43
-42
-41
-39
-30
-26
-53
-121
-172
-50
400
1040
1384
1065
311
-268
-349
-151
-29
-51
-88
-80
-65
-60
-53
-44
-35
-25
-17
-9
1
14
27
39
53
70
89
110
131
154
177
198
212
220
216
195
157
106
52
3
-37
-69
-91
-105
-111
-114
-114
-112
-109
-105
-100
-94
-89
-86
-86
-85
-83
-81
-79
-78
-78
-79
-80
-82
-82
-82
-82
-82
-82
-82
-82
-81
-79
-78
-77
-76
-74
-73
-72
-71
-69
-67
-66
-65
-64
-62
-59
-58
-59
-60
-58
-49
-36
-24
-17
-18
-19
-19
-19
-26
-36
-44
-47
-46
-46
-46
-46
-47
-46
-35
-27
-56
-123
-175
-73
334
957
1355
1129
430
-167
-294
-125
-15
-47
-89
-82
-68
-66
-61
-52
-42
-33
-25
-18
-10
0
10
22
37
55
75
96
120
145
171
192
208
219
220
205
170
120
64
12
-31
-64
-85
-99
-107
-111
-111
-108
-104
-100
-97
-94
-91
-87
-84
-82
-79
-77
-76
-75
-74
-73
-72
-73
-74
-75
-76
-76
-76
-76
-76
-76
-75
-72
-70
-69
-68
-65
-64
-64
-64
-62
-58
-55
-56
-57
-57
-54
-51
-50
-50
-50
-48
-45
-41
-32
-19
-9
-6
-10
-14
-13
-13
-18
-29
-38
-40
-40
-38
-37
-40
-46
-41
-28
-37
-87
-154
-141
122
685
1235
1282
716
2
-326
-227
-53
-32
-83
-91
-72
-65
-61
-53
-46
-41
-35
-26
-15
-4
8
22
36
49
65
86
109
129
149
174
199
216
219
207
181
138
86
34
-14
-54
-80
-93
-101
-111
-122
-125
-118
-106
-98
-98
-101
-98
-90
-85
-88
-95
-96
-88
-81
-80
-85
-89
-90
-88
-86
-85
-86
-86
-85
-83
-82
-82
-80
-78
-75
-74
-72
-71
-70
-69
-68
-65
-64
-63
-60
-51
-39
-28
-22
-20
-20
-22
-27
-36
-44
-49
-48
-48
-50
-51
-51
-53
-48
-34
-37
-81
-152
-147
117
689
1241
1273
684
-44
-370
-255
-61
-23
-69
-82
-66
-56
-49
-39
-32
-26
-19
-9
1
11
22
36
51
68
87
107
130
155
180
203
221
233
237
224
191
144
89
34
-15
-53
-77
-89
-95
-98
-97
-94
-90
-88
-91
-95
-96
-94
-91
-91
-92
-92
-91
-89
-89
-90
-91
-90
-89
-89
-91
-92
-92
-91
-90
-88
-86
-84
-82
-81
-80
-79
-77
-75
-74
-73
-72
-71
-70
-69
-68
-65
-63
-60
-52
-38
-25
-18
-18
-18
-19
-22
-29
-38
-43
-43
-42
-43
-44
-46
-49
-43
-31
-43
-95
-158
-127
164
739
1253
1233
633
-49
-319
-195
-38
-34
-85
-90
-74
-68
-63
-55
-48
-40
-31
-23
-14
-2
11
23
37
52
71
91
112
136
161
182
199
212
219
213
187
143
90
37
-10
-46
-73
-91
-101
-104
-103
-100
-95
-90
-86
-84
-83
-80
-77
-76
-76
-74
-71
-69
-71
-74
-77
-78
-77
-75
-77
-80
-81
-79
-76
-77
-79
-79
-76
-73
-70
-69
-70
-70
-69
-67
-66
-65
-60
-56
-56
-59
-59
-54
-45
-33
-23
-19
-18
-15
-13
-19
-31
-42
-46
-45
-46
-46
-44
-45
-48
-42
-32
-46
-100
-163
-115
217
816
1292
1188
530
-143
-367
-212
-48
-41
-87
-89
-72
-66
-61
-52
-41
-31
-25
-19
-10
1
11
22
38
58
80
100
119
139
160
178
195
210
216
204
173
128
77
24
-22
-58
-81
-97
-108
-115
-116
-111
-106
-102
-101
-100
-96
-92
-90
-89
-89
-90
-91
-90
-90
-90
-91
-91
-92
-92
-91
-91
-90
-89
-89
-89
-88
-86
-83
-81
-80
-79
-79
-78
-76
-72
-65
-57
-45
-35
-30
-28
-30
-36
-45
-54
-59
-58
-58
-59
-59
-61
-63
-53
-41
-58
-118
-181
-112
262
890
1339
1170
477
-167
-338
-165
-21
-33
-79
-79
-65
-61
-55
-46
-38
-29
-18
-7
2
10
18
28
42
57
77
102
129
156
179
199
213
219
215
196
160
111
56
5
-38
-70
-91
-102
-106
-107
-108
-107
-102
-96
-92
-90
-88
-85
-82
-81
-82
-82
-80
-78
-76
-76
-76
-77
-78
-79
-79
-79
-80
-80
-79
-77
-75
-71
-65
-65
-68
-71
-70
-69
-68
-68
-68
-66
-64
-62
-56
-43
-30
-23
-23
-23
-23
-26
-34
-44
-49
-49
-50
-51
-50
-51
-52
-44
-35
-53
-107
-164
-108
229
823
1278
1153
499
-137
-325
-167
-28
-42
-89
-88
-73
-68
-62
-53
-46
-38
-32
-25
-18
-9
2
17
31
46
62
82
105
128
152
175
194
205
207
196
168
123
70
20
-22
-57
-85
-100
-103
-101
-101
-102
-102
-97
-89
-82
-82
-83
-80
-75
-74
-76
-78
-79
-78
-78
-78
-80
-83
-83
-78
-74
-73
-73
-70
-66
-62
-61
-62
-64
-63
-60
-55
-54
-56
-58
-57
-54
-53
-52
-44
-33
-27
-27
-21
-6
1
-6
-21
-35
-45
-53
-58
-59
-58
-57
-52
-35
-25
-52
-121
-164
-11
466
1071
1306
890
141
-351
-354
-144
-43
-72
-101
-92
-80
-73
-64
-56
-49
-40
-29
-17
-4
10
27
45
62
78
95
112
131
151
171
188
203
212
207
180
135
83
34
-9
-44
-73
-94
-109
-116
-118
-117
-114
-109
-104
-99
-94
-90
-88
-87
-87
-86
-83
-80
-80
-80
-81
-82
-83
-83
-83
-84
-85
-85
-84
-83
-82
-81
-80
-79
-77
-77
-77
-75
-70
-61
-49
-39
-32
-29
-31
-37
-45
-53
-57
-57
-57
-56
-56
-59
-59
-47
-41
-74
-145
-188
-45
427
1063
1367
1010
267
-258
-295
-104
-19
-64
-96
-83
-72
-70
-64
-55
-46
-37
-29
-20
-9
2
15
29
43
59
79
102
125
149
172
191
204
209
203
178
135
82
30
-15
-51
-78
-94
-104
-108
-109
-106
-103
-99
-95
-90
-86
-83
-80
-78
-76
-76
-75
-75
-75
-76
-76
-76
-77
-79
-79
-78
-78
-77
-77
-76
-75
-73
-71
-70
-69
-69
-68
-67
-65
-63
-61
-59
-58
-58
-57
-50
-39
-26
-18
-17
-18
-20
-23
-30
-39
-45
-45
-45
-46
-46
-47
-51
-46
-33
-41
-88
-154
-144
108
658
1201
1250
694
-6
-324
-220
-47
-27
-78
-89
-73
-67
-62
-54
-47
-39
-31
-23
-14
-3
9
22
35
51
70
91
113
135
157
177
194
208
213
205
179
136
84
32
-13
-49
-74
-88
-97
-101
-101
-97
-93
-90
-88
-84
-79
-75
-74
-73
-73
-76
-79
-79
-74
-70
-71
-76
-79
-77
-74
-75
-78
-81
-80
-79
-77
-73
-70
-73
-75
-72
-66
-63
-64
-66
-63
-55
-51
-55
-61
-61
-55
-52
-54
-51
-37
-19
-7
-7
-15
-22
-23
-24
-32
-43
-47
-41
-36
-40
-46
-52
-55
-44
-30
-45
-103
-168
-103
268
893
1335
1155
447
-208
-381
-200
-42
-44
-85
-81
-63
-59
-56
-49
-41
-31
-22
-14
-5
6
16
29
45
61
78
98
122
145
165
181
196
206
205
188
154
106
53
4
-36
-67
-88
-101
-108
-113
-114
-110
-103
-98
-95
-92
-86
-82
-80
-81
-81
-81
-80
-80
-80
-81
-81
-82
-83
-83
-81
-81
-82
-81
-81
-80
-79
-77
-76
-74
-72
-70
-69
-68
-67
-65
-63
-63
-63
-60
-48
-34
-24
-23
-24
-24
-26
-33
-42
-48
-49
-49
-51
-52
-50
-52
-53
-43
-36
-62
-128
-178
-68
358
987
1357
1086
366
-210
-303
-120
-16
-55
-94
-85
-72
-68
-61
-53
-46
-38
-29
-20
-10
2
14
28
43
60
79
100
124
148
172
191
206
214
212
192
153
101
48
-1
-41
-70
-90
-102
-107
-108
-105
-102
-99
-96
-92
-87
-83
-81
-80
-78
-76
-75
-74
-73
-72
-73
-74
-75
-76
-78
-80
-80
-79
-78
-77
-78
-77
-75
-73
-71
-70
-68
-67
-66
-65
-64
-62
-61
-58
-56
-55
-55
-54
-52
-47
-37
-24
-15
-13
-15
-16
-16
-20
-30
-40
-46
-44
-42
-43
-43
-46
-49
-42
-31
-48
-105
-165
-111
226
824
1286
1165
509
-133
-324
-167
-27
-40
-84
-81
-67
-65
-60
-50
-42
-34
-26
-19
-13
-2
13
28
41
54
72
94
118
141
161
180
196
208
211
199
169
125
75
25
-20
-55
-76
-88
-96
-102
-106
-105
-100
-94
-90
-89
-88
-83
-78
-74
-75
-79
-82
-81
-79
-80
-84
-84
-78
-75
-79
-85
-85
-81
-78
-79
-81
-81
-78
-72
-67
-66
-70
-74
-73
-66
-61
-62
-66
-64
-55
-46
-42
-39
-32
-22
-15
-14
-17
-22
-29
-39
-49
-51
-48
-45
-46
-49
-53
-51
-37
-30
-59
-130
-171
-5
491
1104
1329
895
136
-351
-344
-129
-30
-60
-87
-76
-65
-60
-53
-44
-35
-26
-17
-8
3
16
29
43
59
76
94
115
138
161
182
199
211
217
211
186
142
89
36
-9
-45
-72
-89
-99
-104
-106
-104
-99
-94
-89
-86
-82
-79
-76
-75
-76
-76
-76
-75
-75
-76
-78
-80
-80
-80
-80
-81
-81
-81
-80
-78
-77
-77
-76
-74
-73
-72
-71
-69
-67
-66
-64
-62
-61
-61
-60
-58
-57
-56
-54
-47
-35
-23
-15
-14
-15
-16
-19
-26
-35
-42
-42
-42
-44
-45
-46
-49
-44
-33
-41
-89
-156
-151
98
654
1220
1302
761
45
-304
-222
-52
-28
-80
-92
-76
-70
-66
-57
-49
-43
-35
-27
-17
-6
5
18
31
47
65
86
107
129
153
175
193
204
210
205
183
142
90
37
-8
-45
-74
-93
-103
-107
-106
-103
-99
-95
-92
-89
-86
-82
-79
-78
-77
-77
-76
-75
-75
-75
-75
-76
-77
-76
-76
-77
-77
-77
-76
-75
-74
-74
-74
-72
-70
-68
-66
-65
-64
-62
-61
-60
-59
-58
-56
-55
-54
-53
-52
-50
-47
-39
-27
-16
-12
-12
-12
-12
-15
-23
-34
-41
-43
-44
-47
-46
-44
-44
-39
-29
-41
-91
-156
-138
134
702
1239
1261
682
-20
-323
-211
-45
-32
-81
-87
-71
-68
-66
-56
-45
-35
-30
-25
-16
-2
10
19
32
51
71
90
107
127
149
170
189
205
212
204
178
135
83
32
-15
-52
-78
-94
-103
-109
-109
-106
-103
-101
-99
-98
-97
-94
-88
-81
-78
-80
-82
-82
-83
-86
-87
-86
-86
-88
-88
-84
-79
-79
-81
-84
-85
-82
-76
-71
-70
-71
-73
-72
-66
-61
-60
-61
-62
-60
-58
-57
-54
-46
-36
-26
-20
-16
-13
-12
-17
-26
-35
-41
-45
-45
-45
-45
-45
-49
-49
-37
-27
-50
-115
-168
-52
386
1014
1349
1029
283
-282
-349
-144
-23
-47
-82
-75
-62
-57
-50
-41
-33
-26
-17
-7
4
16
28
41
56
73
91
112
135
158
180
198
211
219
218
199
160
108
54
7
-33
-63
-84
-95
-100
-102
-102
-98
-93
-89
-86
-83
-80
-76
-75
-74
-74
-73
-72
-72
-73
-74
-75
-76
-77
-79
-79
-78
-77
-77
-76
-76
-74
-73
-72
-72
-71
-69
-67
-66
-65
-63
-61
-59
-58
-58
-55
-53
-53
-55
-55
-54
-49
-40
-27
-17
-14
-15
-16
-16
-21
-31
-40
-44
-45
-46
-47
-46
-49
-50
-41
-33
-56
-115
-170
-95
273
885
1320
1150
469
-156
-319
-156
-29
-52
-96
-92
-78
-74
-69
-60
-53
-46
-37
-29
-20
-9
3
15
29
45
62
81
103
126
148
168
184
194
197
188
160
116
63
13
-30
-63
-88
-104
-112
-114
-112
-108
-104
-99
-94
-90
-87
-85
-83
-81
-80
-79
-78
-77
-77
-78
-77
-77
-77
-78
-78
-78
-77
-76
-75
-75
-74
-71
-68
-66
-66
-66
-64
-60
-57
-55
-54
-52
-50
-47
-46
-46
-45
-42
-41
-42
-42
-38
-28
-13
-1
3
2
0
0
-1
-8
-18
-26
-28
-27
-27
-26
-26
-30
-28
-16
-20
-63
-132
-140
80
615
1198
1328
819
84
-309
-247
-61
-16
-63
-79
-65
-60
-58
-47
-39
-33
-26
-16
-6
0
7
20
37
53
65
79
98
121
145
165
180
192
200
196
172
129
78
28
-17
-55
-85
-109
-124
-130
-131
-130
-126
-121
-115
-112
-112
-115
-116
-111
-104
-99
-100
-100
-98
-97
-100
-101
-99
-96
-94
-93
-90
-85
