# session 3
-44
-45
-43
-41
-39
-40
-41
-40
-39
-39
-38
-35
-30
-24
-15
-6
0
1
-1
-5
-11
-21
-32
-39
-39
-35
-32
-33
-40
-42
-31
-27
-56
-121
-163
-27
428
1045
1343
993
253
-283
-333
-137
-32
-60
-92
-84
-75
-73
-66
-57
-50
-41
-30
-19
-8
-2
5
19
38
56
74
95
121
145
163
177
191
203
203
185
148
100
50
5
-34
-68
-93
-108
-115
-116
-115
-114
-114
-112
-109
-105
-102
-98
-93
-89
-90
-94
-94
-91
-90
-93
-94
-93
-91
-91
-92
-93
-92
-90
-90
-91
-89
-85
-82
-81
-79
-77
-76
-74
-71
-66
-61
-56
-46
-35
-27
-23
-24
-29
-38
-47
-51
-50
-48
-49
-51
-55
-56
-46
-34
-52
-114
-179
-110
270
901
1345
1167
468
-174
-343
-175
-36
-48
-90
-87
-73
-68
-60
-51
-44
-37
-29
-20
-9
3
15
28
44
62
82
105
130
156
179
200
216
226
223
203
162
110
54
5
-36
-66
-88
-100
-107
-110
-108
-106
-104
-100
-96
-91
-86
-82
-78
-76
-75
-74
-74
-73
-71
-70
-71
-73
-74
-76
-76
-77
-77
-77
-77
-77
-75
-74
-74
-74
-73
-70
-69
-68
-68
-66
-64
-62
-63
-63
-61
-60
-55
-45
-31
-21
-18
-17
-17
-19
-27
-39
-46
-46
-44
-45
-47
-50
-55
-49
-37
-50
-103
-168
-138
155
733
1252
1241
650
-29
-308
-197
-45
-39
-88
-95
-82
-78
-72
-63
-57
-50
-40
-31
-21
-10
2
17
32
47
63
83
107
132
157
180
199
211
216
207
180
136
84
32
-11
-46
-71
-88
-96
-99
-98
-96
-91
-87
-83
-80
-77
-74
-69
-67
-67
-68
-67
-66
-65
-66
-68
-70
-71
-71
-71
-73
-75
-75
-73
-72
-73
-76
-78
-76
-70
-66
-65
-66
-64
-61
-63
-66
-66
-62
-58
-58
-59
-58
-54
-45
-34
-26
-23
-23
-20
-16
-18
-27
-38
-45
-44
-41
-44
-49
-52
-53
-46
-33
-35
-74
-144
-163
42
569
1164
1323
837
94
-331
-290
-96
-35
-80
-102
-86
-73
-67
-59
-52
-46
-38
-29
-20
-10
3
19
35
52
69
87
104
123
146
172
194
207
211
206
185
145
94
44
-1
-39
-69
-89
-101
-108
-109
-107
-103
-101
-100
-95
-90
-87
-86
-86
-85
-84
-82
-82
-83
-85
-85
-85
-84
-85
-85
-87
-88
-88
-86
-83
-80
-78
-77
-76
-75
-73
-70
-67
-66
-66
-66
-65
-61
-56
-48
-36
-25
-19
-18
-20
-22
-27
-36
-45
-48
-47
-47
-48
-48
-51
-49
-37
-33
-65
-135
-177
-25
460
1092
1369
983
235
-278
-306
-116
-30
-68
-96
-84
-74
-71
-63
-54
-48
-39
-30
-21
-11
2
15
29
46
63
82
104
131
156
179
198
213
220
216
192
148
93
38
-10
-48
-76
-95
-105
-111
-112
-111
-107
-102
-97
-93
-89
-85
-81
-76
-74
-73
-72
-71
-70
-70
-69
-68
-68
-68
-70
-71
-71
-72
-73
-73
-73
-72
-71
-70
-69
-68
-68
-69
-69
-69
-68
-67
-64
-62
-61
-62
-62
-60
-56
-50
-38
-24
-16
-17
-19
-18
-20
-28
-40
-45
-44
-42
-45
-46
-48
-52
-48
-36
-41
-86
-153
-156
75
617
1190
1299
784
68
-301
-236
-65
-34
-84
-99
-83
-75
-68
-58
-51
-46
-38
-30
-19
-7
6
19
33
48
65
86
109
133
157
180
199
213
221
216
190
146
94
45
2
-33
-62
-83
-95
-100
-100
-99
-100
-99
-92
-83
-78
-78
-76
-72
-70
-70
-71
-72
-71
-71
-74
-75
-74
-74
-77
-78
-77
-76
-78
-83
-85
-82
-75
-72
-74
-77
-74
-68
-67
-72
-73
-67
-60
-59
-61
-61
-57
-51
-48
-41
-28
-18
-14
-14
-17
-22
-31
-39
-43
-43
-45
-48
-48
-44
-46
-47
-39
-37
-69
-137
-172
-2
496
1111
1343
921
168
-323
-331
-130
-37
-69
-98
-89
-77
-70
-61
-51
-43
-38
-31
-19
-4
6
15
28
44
63
83
106
130
153
175
194
208
213
206
182
142
92
40
-7
-45
-73
-92
-105
-111
-113
-111
-108
-105
-101
-96
-93
-91
-87
-83
-81
-79
-77
-76
-74
-74
-75
-76
-77
-78
-78
-78
-78
-78
-77
-76
-76
-75
-74
-73
-72
-70
-67
-65
-64
-64
-65
-64
-60
-52
-42
-32
-26
-24
-24
-27
-34
-43
-51
-53
-53
-53
-53
-54
-57
-54
-41
-45
-92
-164
-172
58
609
1205
1341
834
100
-296
-244
-71
-37
-88
-105
-89
-80
-75
-65
-56
-49
-42
-33
-24
-13
-2
10
24
41
61
83
105
130
157
182
200
212
216
208
181
136
83
30
-16
-54
-80
-95
-104
-108
-109
-108
-105
-101
-97
-92
-87
-83
-80
-76
-73
-70
-68
-68
-68
-68
-67
-68
-70
-71
-73
-74
-75
-75
-75
-74
-74
-74
-73
-71
-69
-69
-69
-68
-66
-64
-63
-60
-58
-57
-58
-58
-56
-52
-48
-41
-28
-17
-11
-11
-11
-12
-18
-29
-39
-41
-40
-41
-43
-43
-46
-47
-37
-29
-54
-116
-170
-80
314
930
1329
1111
420
-178
-313
-147
-31
-56
-98
-93
-78
-72
-65
-59
-54
-45
-33
-22
-14
-5
7
21
36
51
66
86
113
143
168
185
200
213
215
199
163
114
63
17
-21
-54
-80
-95
-102
-104
-105
-105
-104
-101
-95
-88
-86
-87
-86
-82
-79
-79
-81
-83
-81
-77
-77
-82
-86
-87
-88
-87
-84
-83
-83
-83
-81
-77
-74
-75
-76
-76
-75
-73
-71
-71
-69
-65
-60
-53
-43
-33
-27
-24
-22
-23
-28
-38
-47
-51
-50
-50
-51
-50
-52
-53
-45
-33
-46
-101
-167
-117
229
838
1299
1159
478
-186
-388
-222
-57
-48
-87
-88
-72
-66
-60
-51
-43
-34
-25
-16
-5
8
21
35
51
68
87
108
132
158
182
202
218
229
228
207
167
116
62
12
-30
-63
-86
-99
-104
-104
-104
-102
-98
-94
-91
-87
-83
-80
-77
-75
-73
-73
-71
-70
-70
-72
-73
-75
-76
-77
-79
-81
-81
-80
-78
-77
-77
-76
-76
-75
-73
-72
-71
-70
-67
-66
-65
-63
-62
-61
-61
-60
-58
-52
-41
-28
-20
-18
-19
-19
-22
-29
-38
-43
-44
-46
-47
-47
-49
-49
-39
-31
-54
-115
-168
-81
304
915
1326
1130
448
-157
-305
-147
-33
-60
-102
-96
-81
-77
-69
-61
-54
-46
-37
-28
-19
-8
5
19
33
50
69
91
114
139
164
185
203
214
215
201
169
122
70
20
-23
-57
-81
-95
-102
-104
-102
-97
-92
-88
-84
-81
-78
-75
-72
-71
-71
-70
-69
-69
-72
-74
-72
-70
-72
-77
-79
-77
-74
-73
-74
-75
-77
-77
-73
-68
-67
-68
-67
-64
-63
-63
-62
-59
-56
-53
-50
-51
-54
-51
-46
-45
-46
-42
-28
-15
-10
-10
-10
-13
-21
-30
-36
-36
-38
-45
-50
-47
-46
-43
-33
-29
-61
-128
-171
-32
431
1053
1350
997
260
-272
-323
-134
-37
-68
-100
-90
-76
-71
-65
-57
-46
-36
-32
-28
-16
2
18
29
40
57
77
97
119
143
167
187
202
212
211
193
157
108
54
6
-35
-66
-87
-101
-108
-111
-112
-110
-107
-102
-97
-95
-93
-90
-87
-85
-84
-84
-85
-86
-86
-86
-85
-85
-86
-87
-86
-85
-85
-84
-83
-82
-81
-79
-77
-75
-74
-72
-70
-67
-66
-67
-66
-63
-57
-48
-36
-26
-21
-19
-21
-26
-33
-42
-46
-47
-46
-47
-46
-49
-50
-39
-32
-59
-126
-180
-73
355
990
1362
1089
364
-220
-322
-141
-30
-61
-99
-90
-76
-72
-66
-58
-51
-42
-33
-23
-12
-1
11
25
42
60
80
101
124
149
173
193
208
217
215
195
155
103
48
0
-40
-71
-91
-103
-107
-108
-105
-101
-98
-95
-92
-89
-85
-82
-80
-78
-77
-75
-74
-74
-73
-73
-74
-74
-74
-75
-77
-78
-79
-79
-78
-77
-77
-76
-75
-73
-71
-70
-68
-65
-63
-63
-64
-64
-64
-63
-62
-61
-58
-53
-44
-32
-22
-16
-15
-15
-18
-26
-36
-42
-41
-41
-43
-43
-44
-47
-39
-28
-45
-101
-164
-115
215
810
1286
1192
553
-99
-317
-177
-37
-46
-92
-92
-76
-72
-67
-58
-50
-41
-32
-24
-16
-6
7
20
34
50
69
91
113
136
161
184
203
213
214
202
175
133
80
28
-16
-48
-70
-86
-97
-103
-103
-99
-95
-92
-88
-83
-79
-76
-73
-72
-72
-72
-71
-73
-75
-76
-76
-74
-74
-76
-79
-82
-82
-81
-82
-84
-83
-80
-77
-77
-76
-72
-70
-72
-72
-67
-62
-60
-59
-60
-63
-65
-60
-50
-41
-34
-26
-17
-12
-11
-16
-26
-38
-45
-43
-42
-47
-51
-48
-47
-44
-35
-35
-68
-135
-164
18
525
1127
1322
867
117
-340
-319
-116
-34
-71
-97
-85
-71
-63
-53
-46
-40
-33
-24
-15
-4
7
19
34
51
67
85
107
131
155
175
192
205
210
205
183
143
92
41
-3
-40
-69
-89
-100
-104
-104
-104
-103
-99
-93
-87
-84
-82
-79
-77
-76
-77
-77
-76
-75
-75
-75
-76
-76
-77
-80
-82
-81
-81
-80
-79
-77
-76
-75
-74
-73
-72
-71
-69
-67
-66
-64
-64
-63
-63
-62
-60
-56
-47
-35
-26
-20
-20
-22
-27
-35
-43
-47
-48
-48
-49
-49
-52
-50
-38
-36
-72
-141
-176
-18
467
1092
1361
977
240
-257
-278
-97
-26
-71
-99
-86
-75
-72
-64
-56
-48
-39
-30
-20
-10
1
14
28
44
61
81
102
126
151
174
193
209
218
213
192
153
101
49
1
-37
-66
-86
-97
-102
-102
-100
-97
-93
-88
-84
-81
-78
-75
-73
-72
-71
-70
-69
-69
-69
-70
-71
-73
-74
-75
-75
-76
-77
-77
-77
-76
-76
-76
-76
-75
-73
-72
-71
-69
-68
-66
-65
-62
-59
-58
-59
-58
-56
-55
-56
-56
-53
-47
-37
-25
-16
-12
-12
-14
-18
-25
-34
-40
-42
-42
-45
-46
-47
-50
-43
-31
-42
-94
-160
-135
157
736
1254
1233
632
-50
-320
-200
-45
-40
-90
-96
-81
-75
-70
-60
-51
-44
-37
-28
-17
-6
5
16
30
46
65
86
109
133
160
183
201
215
223
217
191
148
97
47
2
-36
-63
-80
-89
-92
-91
-90
-88
-84
-79
-75
-73
-71
-69
-67
-66
-66
-67
-67
-67
-69
-73
-76
-77
-75
-74
-74
-74
-76
-79
-80
-77
-75
-74
-72
-70
-70
-70
-67
-64
-64
-65
-65
-64
-60
-57
-55
-55
-55
-55
-55
-54
-51
-46
-39
-30
-20
-13
-11
-13
-18
-23
-30
-37
-40
-42
-47
-48
-46
-50
-50
-37
-28
-57
-125
-165
-11
470
1083
1334
933
189
-308
-320
-117
-24
-61
-93
-84
-75
-72
-66
-54
-39
-26
-18
-12
-4
8
19
29
40
58
82
105
128
150
171
189
203
211
208
188
152
104
55
9
-31
-62
-82
-95
-103
-106
-105
-103
-103
-101
-95
-88
-85
-86
-86
-84
-82
-80
-79
-82
-84
-85
-86
-87
-88
-86
-85
-86
-87
-88
-88
-88
-85
-81
-77
-77
-77
-75
-72
-69
-66
-65
-65
-65
-62
-58
-51
-42
-31
-22
-17
-16
-19
-26
-36
-44
-47
-47
-46
-46
-47
-52
-51
-37
-33
-67
-139
-169
16
526
1133
1332
878
128
-328
-305
-104
-27
-67
-92
-80
-69
-64
-55
-47
-39
-30
-20
-11
0
11
23
37
53
71
91
113
138
162
185
204
216
221
215
189
144
90
36
-12
-49
-76
-94
-104
-109
-111
-109
-105
-100
-95
-91
-87
-83
-80
-77
-74
-72
-72
-72
-72
-73
-74
-75
-77
-80
-80
-80
-80
-81
-81
-80
-79
-78
-76
-74
-73
-71
-69
-68
-67
-65
-63
-61
-60
-60
-60
-60
-59
-56
-52
-45
-35
-25
-17
-14
-14
-16
-23
-33
-40
-41
-40
-41
-40
-40
-43
-37
-26
-38
-89
-153
-129
154
727
1254
1257
672
-16
-306
-198
-44
-37
-87
-92
-77
-73
-68
-58
-50
-42
-34
-27
-19
-10
3
18
34
49
66
88
112
136
159
181
200
215
221
212
184
140
86
34
-12
-49
-75
-90
-98
-103
-104
-103
-101
-99
-94
-88
-82
-80
-79
-79
-77
-77
-79
-80
-81
-80
-80
-80
-81
-84
-86
-86
-85
-88
-91
-92
-88
-85
-86
-87
-82
-74
-72
-74
-77
-76
-73
-70
-68
-67
-71
-73
-66
-55
-47
-41
-34
-28
-23
-22
-25
-32
-44
-53
-53
-48
-49
-53
-57
-59
-53
-41
-45
-84
-149
-165
37
557
1150
1308
818
71
-354
-309
-112
-44
-79
-95
-83
-77
-71
-57
-46
-39
-34
-25
-14
-2
10
23
37
53
70
90
113
138
162
182
200
213
218
210
187
146
95
43
-1
-37
-64
-82
-92
-97
-98
-97
-93
-88
-84
-79
-74
-70
-67
-64
-61
-59
-58
-56
-54
-55
-56
-57
-57
-58
-58
-58
-57
-58
-58
-58
-57
-56
-55
-53
-50
-49
-50
-49
-47
-46
-45
-44
-44
-42
-39
-32
-22
-12
-5
-2
-4
-9
-17
-26
-32
-34
-35
-37
-38
-41
-43
-33
-27
-54
-121
-173
-68
349
975
1354
1101
392
-191
-303
-134
-32
-67
-107
-99
-86
-85
-80
-73
-69
-62
-54
-46
-37
-27
-16
-4
10
27
46
66
88
112
136
157
173
183
180
161
122
70
15
-35
-76
-107
-129
-142
-148
-150
-151
-150
-147
-143
-138
-134
-131
-127
-123
-120
-117
-115
-114
-112
-111
-110
-110
-109
-107
-106
-105
-104
-103
-102
-100
-97
-94
-91
-88
-83
-79
-76
-73
-68
-63
-57
-53
-48
-42
-36
-30
-25
-20
-16
-9
-2
7
18
34
51
64
71
77
82
84
80
77
79
85
91
94
102
109
112
124
143
139
93
35
70
367
952
1477
1463
872
200
-73
56
