# session 4
15
8
-25
-42
-28
-17
-16
-8
2
7
13
21
30
43
54
63
75
93
112
130
149
171
196
218
234
245
251
246
223
180
124
69
23
-11
-38
-59
-74
-79
-77
-72
-69
-68
-67
-64
-62
-60
-59
-58
-56
-55
-56
-59
-59
-56
-57
-63
-68
-68
-64
-63
-68
-74
-75
-70
-63
-60
-64
-70
-72
-67
-61
-58
-60
-59
-54
-52
-53
-56
-58
-58
-58
-56
-52
-48
-45
-41
-32
-20
-12
-10
-11
-15
-21
-29
-36
-42
-45
-45
-45
-46
-47
-52
-53
-41
-34
-62
-132
-177
-24
464
1089
1347
940
180
-328
-343
-138
-39
-70
-99
-90
-78
-71
-62
-54
-46
-37
-28
-19
-9
2
15
29
45
64
85
107
130
154
177
195
209
216
212
189
147
94
42
-5
-44
-72
-91
-102
-107
-108
-107
-104
-99
-93
-88
-84
-80
-78
-75
-72
-70
-70
-71
-72
-72
-73
-73
-74
-75
-77
-78
-78
-78
-79
-79
-77
-75
-75
-75
-75
-73
-70
-68
-67
-66
-65
-63
-61
-60
-60
-59
-57
-56
-56
-56
-55
-53
-47
-35
-22
-14
-13
-14
-15
-18
-24
-33
-39
-41
-40
-41
-41
-41
-45
-44
-31
-31
-72
-143
-164
30
543
1148
1349
906
177
-264
-250
-77
-28
-77
-99
-83
-74
-72
-64
-55
-46
-36
-28
-20
-9
2
14
27
43
61
81
104
129
155
179
199
215
225
223
203
163
110
56
7
-33
-64
-85
-97
-103
-104
-102
-100
-98
-93
-88
-84
-82
-80
-75
-72
-70
-70
-70
-69
-69
-69
-70
-71
-73
-74
-74
-74
-74
-75
-75
-75
-75
-76
-75
-75
-73
-72
-71
-70
-67
-65
-63
-62
-62
-62
-60
-58
-57
-54
-53
-53
-54
-53
-50
-46
-40
-30
-17
-9
-8
-10
-11
-13
-20
-30
-38
-39
-39
-40
-41
-43
-48
-47
-33
-31
-68
-137
-164
10
502
1107
1334
919
191
-270
-266
-84
-22
-68
-93
-81
-73
-69
-60
-53
-47
-39
-31
-19
-5
7
17
27
43
62
82
101
121
145
171
194
212
223
223
203
163
111
58
10
-30
-61
-85
-101
-109
-109
-108
-105
-102
-97
-92
-90
-89
-85
-78
-76
-78
-81
-81
-79
-77
-77
-79
-80
-81
-80
-79
-79
-82
-82
-81
-79
-78
-77
-75
-74
-74
-73
-69
-61
-58
-62
-66
-67
-64
-61
-58
-57
-56
-52
-45
-37
-31
-26
-17
-10
-12
-17
-21
-24
-32
-41
-45
-46
-47
-46
-47
-50
-44
-29
-32
-79
-152
-139
146
731
1261
1248
631
-86
-385
-258
-70
-35
-79
-91
-77
-66
-59
-51
-45
-37
-27
-17
-6
5
16
29
44
61
80
100
123
147
171
193
210
221
224
213
183
135
80
26
-19
-54
-79
-95
-103
-106
-107
-107
-103
-98
-92
-88
-84
-81
-79
-77
-75
-73
-73
-73
-74
-74
-74
-76
-78
-78
-78
-80
-80
-80
-79
-78
-77
-78
-78
-77
-77
-76
-73
-71
-71
-70
-69
-67
-65
-64
-64
-65
-64
-62
-57
-49
-36
-25
-19
-18
-17
-18
-24
-35
-43
-45
-45
-47
-47
-46
-49
-44
-32
-39
-84
-152
-157
65
599
1182
1317
823
105
-284
-232
-63
-31
-81
-96
-81
-75
-71
-63
-55
-48
-40
-32
-24
-13
0
13
26
41
59
79
103
127
152
176
196
211
219
215
193
152
100
46
-3
-42
-70
-89
-100
-104
-105
-103
-101
-96
-91
-87
-84
-82
-78
-75
-73
-71
-70
-70
-70
-70
-70
-71
-72
-73
-75
-77
-76
-75
-76
-77
-77
-76
-75
-74
-72
-70
-68
-69
-68
-67
-65
-64
-62
-58
-54
-54
-57
-59
-55
-47
-37
-30
-25
-20
-14
-10
-13
-24
-37
-45
-44
-44
-47
-47
-44
-43
-40
-33
-39
-80
-144
-152
61
586
1163
1300
805
76
-323
-268
-82
-32
-76
-92
-78
-73
-72
-64
-54
-44
-34
-25
-17
-7
5
19
33
48
63
81
102
126
153
177
197
209
214
209
189
148
92
38
-4
-37
-67
-93
-107
-109
-106
-107
-107
-106
-101
-96
-91
-87
-84
-82
-84
-85
-83
-79
-79
-81
-85
-86
-87
-86
-86
-87
-88
-86
-84
-83
-83
-83
-82
-79
-76
-74
-73
-73
-72
-71
-69
-66
-60
-52
-43
-33
-25
-19
-19
-24
-33
-42
-48
-49
-49
-50
-51
-52
-56
-52
-37
-36
-74
-144
-160
57
595
1179
1304
788
46
-353
-288
-88
-29
-73
-91
-77
-67
-63
-55
-47
-38
-30
-22
-12
0
12
24
40
57
75
95
117
141
166
189
207
221
227
215
185
139
85
32
-13
-49
-75
-92
-102
-108
-110
-109
-105
-100
-95
-89
-85
-83
-81
-79
-77
-75
-74
-73
-72
-73
-74
-76
-76
-76
-77
-78
-79
-79
-80
-80
-79
-78
-76
-75
-73
-72
-69
-68
-68
-68
-67
-65
-64
-65
-66
-64
-60
-53
-42
-29
-21
-20
-20
-21
-24
-32
-40
-45
-43
-42
-44
-45
-49
-51
-41
-31
-51
-108
-165
-103
243
841
1292
1162
511
-120
-309
-159
-30
-47
-92
-90
-76
-72
-66
-57
-51
-42
-32
-24
-15
-5
8
23
39
56
74
95
117
140
162
183
202
217
220
207
176
131
79
27
-18
-55
-81
-96
-103
-106
-106
-101
-96
-92
-90
-89
-88
-86
-83
-82
-83
-82
-78
-73
-73
-77
-79
-78
-80
-86
-88
-85
-82
-81
-81
-80
-79
-79
-78
-76
-73
-73
-72
-69
-64
-63
-64
-64
-62
-60
-58
-51
-41
-29
-20
-17
-18
-19
-20
-27
-38
-47
-49
-48
-49
-49
-48
-51
-51
-39
-30
-56
-122
-172
-51
388
1010
1338
1018
281
-278
-346
-149
-34
-60
-95
-86
-68
-60
-54
-51
-47
-38
-28
-16
-4
8
19
30
45
63
82
101
125
151
175
193
206
212
208
188
151
103
50
1
-39
-68
-88
-101
-108
-110
-111
-109
-106
-101
-96
-92
-88
-86
-84
-82
-80
-78
-77
-76
-78
-79
-80
-80
-81
-81
-81
-81
-80
-80
-80
-78
-77
-77
-76
-73
-70
-68
-66
-65
-66
-66
-65
-62
-59
-52
-42
-31
-24
-20
-19
-19
-22
-32
-42
-48
-48
-47
-49
-48
-50
-53
-47
-34
-43
-96
-166
-146
145
735
1276
1276
672
-32
-326
-211
-48
-39
-91
-97
-80
-75
-70
-61
-53
-46
-38
-29
-19
-7
6
19
35
50
68
88
112
138
162
183
201
214
217
206
175
127
71
18
-26
-60
-84
-99
-107
-109
-108
-103
-97
-94
-91
-88
-85
-82
-80
-78
-75
-73
-73
-73
-72
-70
-69
-68
-69
-71
-72
-73
-74
-75
-74
-72
-72
-74
-74
-72
-71
-69
-69
-68
-67
-65
-63
-61
-59
-58
-57
-55
-54
-53
-52
-49
-41
-27
-15
-11
-12
-13
-13
-18
-26
-34
-38
-40
-42
-43
-43
-44
-50
-46
-32
-36
-80
-146
-145
89
630
1195
1293
772
58
-304
-231
-57
-27
-80
-96
-81
-75
-72
-65
-57
-48
-37
-25
-15
-9
-2
12
30
47
61
76
98
127
157
179
193
204
211
207
184
144
94
41
-6
-42
-67
-87
-103
-110
-109
-104
-100
-99
-97
-95
-90
-86
-84
-84
-82
-80
-80
-81
-80
-78
-79
-84
-86
-83
-78
-77
-80
-81
-81
-81
-82
-82
-78
-73
-71
-71
-69
-66
-65
-69
-72
-72
-67
-59
-48
-37
-28
-25
-23
-21
-20
-23
-28
-35
-42
-47
-49
-50
-51
-49
-48
-50
-44
-32
-40
-92
-163
-125
205
809
1290
1184
514
-174
-408
-247
-64
-42
-82
-87
-72
-63
-56
-48
-40
-34
-26
-17
-4
9
21
32
46
64
85
106
129
152
175
196
213
224
224
205
167
115
60
10
-30
-62
-85
-99
-105
-107
-107
-106
-102
-97
-91
-87
-83
-80
-77
-75
-73
-72
-73
-73
-72
-71
-72
-74
-75
-77
-79
-80
-80
-79
-78
-79
-80
-78
-74
-72
-73
-73
-71
-68
-68
-67
-66
-64
-64
-64
-62
-60
-56
-48
-37
-26
-21
-20
-21
-22
-27
-37
-45
-47
-46
-47
-48
-47
-49
-46
-33
-33
-73
-143
-171
-2
486
1101
1356
969
243
-239
-258
-85
-24
-73
-99
-87
-77
-74
-65
-56
-49
-42
-35
-28
-18
-6
7
20
35
53
74
97
122
147
172
192
208
216
212
191
152
101
48
0
-39
-69
-89
-101
-106
-107
-105
-103
-100
-96
-92
-88
-85
-82
-79
-77
-76
-74
-72
-71
-71
-71
-72
-73
-73
-74
-74
-75
-74
-75
-76
-76
-76
-74
-72
-71
-72
-73
-70
-64
-59
-60
-63
-64
-60
-56
-56
-57
-59
-56
-49
-38
-28
-20
-15
-13
-13
-17
-26
-35
-41
-46
-48
-49
-49
-47
-47
-47
-40
-34
-55
-110
-168
-110
233
836
1297
1168
502
-150
-348
-189
-42
-51
-100
-103
-87
-77
-65
-54
-50
-44
-31
-14
1
19
44
70
88
104
122
139
148
156
174
195
208
214
215
204
176
131
77
21
-28
-65
-90
-104
-113
-119
-121
-118
-114
-109
-107
-105
-101
-97
-96
-95
-94
-94
-92
-92
-94
-95
-94
-92
-94
-96
-97
-96
-95
-93
-91
-89
-89
-89
-87
-85
-83
-81
-79
-78
-78
-75
-70
-62
-52
-40
-30
-25
-24
-26
-31
-39
-47
-51
-51
-50
-50
-50
-51
-54
-50
-37
-38
-78
-152
-168
53
603
1202
1333
811
59
-345
-282
-83
-27
-74
-94
-80
-71
-65
-56
-47
-40
-31
-22
-13
-2
10
23
38
54
73
96
121
147
172
194
213
227
232
219
184
134
79
26
-18
-52
-76
-93
-102
-107
-108
-108
-105
-100
-95
-91
-87
-80
-75
-71
-68
-67
-66
-65
-65
-66
-68
-70
-73
-75
-76
-76
-76
-77
-79
-79
-78
-77
-76
-75
-73
-71
-70
-69
-67
-65
-62
-61
-60
-60
-58
-57
-57
-56
-54
-49
-38
-25
-15
-14
-15
-14
-16
-23
-34
-42
-44
-42
-43
-44
-44
-47
-49
-39
-31
-54
-115
-169
-92
277
884
1316
1150
479
-140
-303
-145
-24
-49
-94
-89
-75
-72
-67
-58
-50
-39
-30
-22
-12
-1
10
21
34
50
72
95
118
144
171
193
205
213
216
205
172
121
68
19
-22
-52
-76
-95
-109
-113
-108
-104
-102
-99
-94
-90
-86
-81
-79
-82
-85
-83
-78
-75
-77
-81
-83
-80
-76
-75
-79
-82
-82
-81
-82
-83
-80
-77
-75
-75
-73
-69
-67
-69
-70
-67
-61
-57
-57
-58
-57
-55
-55
-54
-48
-34
-23
-18
-18
-15
-12
-15
-22
-30
-38
-45
-51
-51
-48
-45
-47
-49
-39
-26
-39
-96
-166
-127
203
814
1311
1222
557
-137
-382
-232
-60
-43
-85
-89
-76
-70
-65
-56
-47
-37
-27
-18
-9
2
14
28
43
61
81
101
123
145
170
193
211
222
222
206
171
122
69
18
-26
-61
-84
-97
-105
-109
-110
-108
-105
-99
-94
-91
-88
-86
-83
-80
-78
-76
-76
-76
-75
-75
-76
-77
-77
-78
-79
-79
-79
-79
-80
-80
-79
-77
-76
-75
-73
-71
-70
-70
-69
-67
-66
-66
-66
-65
-62
-53
-40
-29
-24
-24
-24
-26
-33
-42
-50
-52
-51
-52
-53
-52
-54
-54
-44
-37
-64
-128
-180
-88
306
928
1344
1145
456
-152
-298
-139
-28
-58
-100
-93
-80
-78
-71
-62
-56
-48
-37
-27
-17
-6
5
19
35
52
72
96
121
147
171
193
212
224
224
206
167
116
62
12
-29
-63
-87
-102
-107
-109
-108
-106
-103
-101
-97
-93
-90
-87
-83
-80
-77
-75
-74
-72
-71
-71
-72
-73
-74
-74
-74
-74
-75
-76
-74
-73
-72
-71
-69
-68
-68
-67
-65
-63
-62
-61
-59
-57
-56
-55
-53
-53
-53
-52
-50
-48
-45
-38
-25
-13
-9
-11
-11
-10
-13
-22
-32
-38
-39
-39
-40
-40
-42
-48
-45
-29
-27
-67
-137
-156
37
546
1140
1326
873
143
-290
-260
-74
-21
-71
-93
-79
-74
-72
-63
-52
-44
-36
-28
-18
-5
7
17
29
44
61
83
108
130
151
173
195
211
217
211
192
158
109
52
1
-38
-67
-88
-102
-108
-109
-108
-107
-104
-97
-91
-89
-87
-83
-81
-81
-85
-88
-88
-83
-77
-74
-76
-80
-85
-88
-87
-85
-86
-87
-84
-79
-75
-74
-75
-75
-72
-69
-67
-68
-70
-68
-64
-61
-61
-58
-49
-38
-30
-25
-22
-19
-19
-25
-35
-44
-50
-52
-53
-55
-55
-55
-56
-58
-50
-40
-54
-109
-171
-107
260
876
1308
1122
417
-231
-399
-215
-54
-52
-92
-92
-78
-71
-63
-53
-45
-37
-30
-21
-9
2
13
26
42
60
79
101
126
151
174
194
210
219
218
199
160
109
53
2
-39
-70
-91
-104
-111
-114
-113
-109
-104
-100
-94
-90
-88
-85
-81
-77
-76
-75
-75
-75
-75
-75
-75
-75
-73
-73
-74
-74
-73
-73
-74
-72
-70
-69
-69
-67
-64
-62
-61
-59
-55
-53
-52
-52
-51
-50
-48
-46
-41
-31
-19
-10
-6
-6
-6
-8
-16
-27
-33
-33
-33
-35
-35
-37
-39
-33
-21
-32
-83
-146
-123
155
726
1263
1283
707
12
-289
-185
-28
-20
-72
-81
-66
-61
-57
-47
-40
-33
-25
-16
-7
4
16
27
39
55
73
92
115
139
163
185
202
215
220
213
186
142
89
36
-10
-47
-74
-93
-103
-107
-107
-106
-104
-100
-95
-92
-89
-87
-86
-86
-86
-83
-80
-81
-83
-85
-88
-89
-88
-90
-94
-96
-96
-94
-95
-97
-98
-98
-98
-97
-95
-94
-93
-90
-87
-85
-85
-84
-85
-86
-86
-83
-80
-78
-71
-57
-46
-43
-44
-43
-42
-48
-59
-69
-71
-69
-70
-73
-74
-76
-78
-70
-55
-62
-109
-176
-158
120
695
1227
1229
632
-74
-371
-255
-82
-60
-104
-107
-90
-86
-83
-74
-62
-51
-42
-35
-27
-17
-9
2
17
33
51
71
