# session 6
50
644
747
225
-512
-889
-792
-571
-502
-532
-539
-514
-492
-474
-454
-434
-415
-395
-374
-352
-330
-307
-283
-259
-235
-207
-177
-143
-108
-75
-45
-19
2
14
10
-14
-53
-98
-140
-173
-196
-210
-216
-215
-210
-201
-192
-182
-170
-158
-147
-137
-127
-118
-109
-102
-95
-88
-81
-76
-72
-68
-65
-60
-55
-51
-47
-43
-39
-35
-31
-25
-19
-15
-11
-7
-3
1
5
8
12
15
19
22
24
27
29
29
30
32
37
46
59
70
74
73
72
72
67
57
49
44
43
41
40
40
35
33
43
46
13
-55
-98
27
466
1088
1423
1120
400
-148
-224
-50
36
-7
-44
-35
-26
-25
-19
-12
-8
-3
4
12
21
30
38
50
64
79
95
114
135
157
178
195
209
218
216
196
160
110
55
3
-39
-71
-94
-108
-115
-117
-116
-114
-112
-109
-107
-104
-102
-101
-100
-100
-100
-99
-98
-98
-99
-100
-101
-102
-104
-106
-107
-108
-108
-108
-108
-108
-108
-107
-105
-102
-100
-99
-98
-98
-97
-97
-95
-91
-89
-88
-88
-85
-81
-79
-78
-77
-77
-76
-73
-68
-59
-47
-34
-27
-27
-30
-32
-34
-40
-49
-54
-53
-52
-54
-55
-56
-60
-55
-41
-46
-92
-158
-147
113
676
1230
1282
720
11
-315
-218
-47
-26
-79
-92
-78
-71
-65
-56
-47
-38
-28
-18
-8
1
11
24
39
55
71
90
112
137
160
183
203
216
218
208
183
144
97
49
5
-31
-59
-78
-88
-93
-96
-96
-95
-91
-85
-77
-73
-71
-70
-70
-70
-71
-70
-70
-69
-67
-63
-64
-69
-72
-69
-65
-67
-71
-71
-68
-67
-68
-66
-61
-56
-56
-60
-61
-59
-56
-53
-49
-48
-50
-52
-47
-40
-39
-44
-46
-43
-38
-32
-24
-15
-8
-5
-5
-6
-8
-17
-29
-39
-41
-38
-38
-41
-44
-49
-46
-31
-23
-53
-124
-167
-13
471
1092
1346
936
174
-334
-344
-132
-30
-60
-87
-77
-67
-63
-55
-46
-37
-29
-22
-13
-1
11
23
37
51
66
84
105
128
150
170
187
199
205
200
177
136
86
35
-11
-49
-77
-96
-106
-111
-112
-109
-105
-100
-95
-92
-88
-86
-83
-81
-80
-80
-79
-79
-78
-78
-79
-80
-80
-81
-82
-83
-83
-82
-82
-80
-79
-78
-77
-75
-73
-72
-72
-70
-68
-67
-66
-65
-63
-61
-60
-59
-58
-57
-57
-57
-54
-46
-35
-23
-16
-13
-12
-13
-18
-26
-36
-40
-40
-41
-42
-43
-45
-46
-36
-31
-61
-125
-171
-58
367
990
1350
1074
362
-201
-291
-115
-18
-56
-93
-83
-69
-65
-59
-52
-45
-38
-29
-19
-9
2
15
29
44
60
79
100
123
147
171
191
206
215
215
199
164
115
62
13
-28
-60
-81
-94
-100
-103
-102
-99
-94
-89
-86
-84
-81
-77
-75
-74
-73
-72
-72
-71
-69
-69
-70
-71
-72
-71
-72
-74
-76
-77
-76
-74
-73
-73
-72
-69
-69
-70
-69
-67
-63
-62
-61
-61
-60
-58
-55
-52
-51
-51
-51
-51
-50
-48
-45
-39
-29
-17
-7
-5
-8
-12
-14
-18
-25
-33
-36
-37
-39
-42
-43
-45
-42
-31
-33
-71
-137
-162
13
504
1105
1325
899
163
-299
-287
-93
-23
-68
-95
-84
-74
-71
-64
-58
-49
-39
-30
-21
-10
2
10
17
31
52
75
93
111
135
161
184
198
202
197
182
155
114
65
14
-30
-63
-85
-99
-108
-114
-114
-109
-102
-98
-94
-89
-85
-83
-83
-82
-81
-80
-79
-76
-75
-76
-78
-80
-79
-78
-77
-77
-78
-78
-79
-77
-74
-71
-69
-69
-69
-65
-61
-58
-57
-56
-54
-52
-53
-53
-51
-45
-37
-26
-14
-7
-7
-12
-20
-30
-38
-44
-46
-47
-49
-48
-47
-48
-42
-28
-34
-84
-156
-143
137
717
1249
1242
629
-87
-384
-251
-58
-26
-74
-85
-66
-53
-46
-41
-38
-35
-30
-23
-15
-4
7
20
36
53
71
91
113
135
158
180
199
213
215
200
165
115
61
13
-29
-62
-87
-101
-108
-110
-109
-109
-108
-104
-99
-95
-92
-88
-84
-81
-80
-79
-77
-76
-77
-77
-77
-76
-76
-76
-77
-79
-80
-80
-80
-79
-77
-76
-74
-73
-71
-69
-66
-63
-62
-63
-63
-62
-61
-61
-60
-59
-55
-48
-35
-24
-19
-18
-17
-18
-24
-34
-42
-44
-42
-43
-45
-46
-48
-46
-33
-30
-64
-128
-163
-18
436
1044
1331
983
265
-242
-278
-96
-17
-61
-91
-78
-66
-63
-57
-52
-46
-37
-27
-19
-9
4
18
33
48
64
82
102
124
148
172
192
206
214
212
192
154
103
51
5
-33
-63
-85
-98
-103
-103
-101
-100
-99
-96
-91
-87
-84
-81
-79
-78
-79
-79
-79
-77
-77
-77
-78
-78
-79
-79
-81
-83
-83
-83
-82
-82
-80
-79
-79
-78
-75
-72
-70
-69
-70
-71
-68
-62
-59
-60
-61
-61
-59
-51
-37
-24
-21
-24
-22
-18
-21
-32
-46
-54
-52
-49
-48
-48
-50
-52
-46
-31
-36
-85
-157
-147
125
698
1235
1244
648
-63
-367
-246
-63
-34
-80
-87
-67
-58
-54
-49
-42
-31
-19
-10
-4
5
18
31
45
58
74
94
122
154
182
199
206
214
221
212
176
126
80
41
0
-42
-75
-94
-103
-107
-107
-105
-104
-103
-100
-96
-93
-90
-87
-84
-84
-85
-85
-85
-84
-83
-82
-84
-86
-86
-86
-85
-86
-87
-86
-85
-84
-83
-82
-79
-77
-77
-77
-76
-73
-71
-69
-63
-52
-39
-29
-24
-23
-25
-29
-37
-46
-51
-52
-52
-52
-51
-50
-55
-54
-42
-39
-76
-148
-172
30
559
1161
1326
837
88
-335
-285
-86
-25
-72
-94
-80
-70
-67
-59
-51
-43
-35
-26
-16
-4
8
22
38
54
72
92
116
141
164
186
204
216
219
207
176
130
76
24
-20
-56
-82
-97
-104
-106
-107
-106
-104
-100
-95
-91
-89
-86
-84
-81
-78
-75
-72
-69
-67
-68
-70
-71
-72
-74
-76
-78
-79
-80
-80
-79
-78
-78
-78
-76
-73
-71
-71
-72
-71
-70
-70
-68
-65
-63
-63
-62
-60
-58
-53
-43
-29
-17
-14
-16
-18
-20
-25
-33
-41
-45
-46
-47
-48
-49
-53
-54
-42
-35
-64
-127
-170
-59
355
966
1328
1067
367
-194
-285
-107
-4
-39
-76
-66
-55
-54
-49
-41
-34
-25
-16
-8
0
11
22
36
50
65
83
104
127
151
174
194
207
212
205
184
146
94
41
-7
-51
-82
-90
-83
-77
-80
-86
-86
-82
-77
-73
-70
-68
-67
-66
-66
-69
-70
-67
-64
-64
-65
-69
-75
-81
-85
-86
-86
-87
-88
-92
-94
-93
-89
-86
-86
-85
-82
-79
-78
-75
-73
-73
-75
-75
-71
-67
-63
-59
-56
-51
-42
-30
-23
-22
-25
-27
-26
-28
-37
-46
-48
-46
-45
-48
-52
-56
-54
-39
-29
-54
-118
-168
-63
352
971
1338
1065
333
-262
-363
-162
-25
-42
-83
-82
-70
-65
-59
-50
-40
-32
-23
-13
-1
8
17
29
43
58
77
99
122
144
165
186
202
211
210
196
165
116
61
11
-27
-53
-74
-92
-106
-114
-113
-110
-109
-109
-107
-102
-96
-92
-91
-90
-88
-87
-86
-85
-85
-86
-87
-88
-88
-89
-89
-89
-89
-89
-88
-87
-85
-84
-82
-80
-78
-76
-77
-76
-75
-73
-68
-56
-42
-32
-27
-26
-27
-28
-33
-40
-45
-44
-42
-42
-41
-43
-47
-41
-27
-34
-85
-158
-149
118
696
1263
1316
743
19
-315
-218
-45
-26
-80
-92
-76
-70
-67
-58
-52
-44
-35
-25
-15
-4
7
21
37
53
70
89
113
137
162
183
200
211
214
200
167
119
64
14
-28
-60
-83
-98
-105
-108
-107
-103
-99
-95
-94
-94
-91
-85
-78
-74
-73
-72
-70
-67
-65
-64
-65
-67
-67
-64
-64
-70
-81
-90
-93
-93
-93
-91
-89
-88
-87
-85
-82
-80
-77
-76
-75
-75
-73
-71
-70
-67
-61
-49
-34
-23
-21
-23
-24
-25
-30
-38
-46
-49
-48
-48
-49
-48
-51
-52
-41
-33
-57
-118
-170
-81
307
917
1310
1088
395
-192
-310
-133
-18
-48
-90
-82
-67
-64
-57
-47
-40
-33
-25
-16
-6
6
18
31
46
62
79
98
121
147
171
190
204
215
216
200
164
113
58
8
-31
-59
-79
-92
-97
-97
-97
-97
-95
-92
-90
-87
-82
-78
-75
-75
-73
-69
-66
-69
-75
-79
-79
-76
-75
-76
-78
-77
-76
-77
-78
-77
-77
-77
-77
-73
-67
-62
-63
-65
-65
-63
-61
-62
-63
-62
-55
-46
-35
-26
-20
-17
-14
-15
-20
-29
-40
-49
-50
-47
-45
-47
-49
-50
-48
-37
-31
-54
-114
-170
-83
314
933
1323
1082
361
-254
-381
-186
-39
-46
-84
-82
-69
-62
-55
-47
-40
-32
-24
-14
-4
6
16
28
44
61
81
102
123
145
166
183
194
200
199
182
143
92
42
-2
-41
-72
-92
-101
-105
-107
-107
-104
-100
-96
-92
-88
-85
-83
-81
-79
-77
-75
-74
-75
-76
-78
-79
-81
-81
-81
-80
-81
-81
-81
-79
-76
-75
-74
-73
-71
-70
-68
-68
-66
-63
-61
-61
-62
-61
-59
-51
-38
-25
-18
-18
-19
-19
-21
-29
-39
-47
-49
-48
-49
-50
-50
-53
-52
-38
-36
-74
-143
-169
7
504
1116
1345
925
188
-278
-270
-82
-18
-67
-93
-80
-71
-67
-58
-51
-45
-36
-28
-19
-10
0
13
28
45
61
80
103
128
152
175
194
208
214
208
183
142
90
38
-9
-47
-76
-96
-107
-112
-111
-108
-105
-101
-97
-93
-89
-85
-81
-79
-77
-75
-73
-72
-71
-71
-72
-72
-72
-73
-74
-75
-76
-75
-75
-74
-74
-73
-71
-70
-69
-69
-69
-68
-66
-64
-63
-61
-60
-59
-59
-59
-57
-54
-48
-38
-24
-15
-14
-17
-17
-17
-22
-31
-40
-45
-46
-46
-46
-45
-47
-49
-38
-28
-47
-103
-161
-106
228
822
1289
1181
530
-123
-327
-172
-29
-41
-88
-87
-72
-69
-61
-50
-43
-39
-33
-26
-15
-1
13
24
34
49
70
92
111
132
155
177
196
206
205
192
165
123
69
15
-29
-60
-82
-96
-104
-108
-109
-108
-104
-96
-92
-92
-93
-90
-85
-81
-81
-83
-86
-85
-80
-77
-80
-86
-88
-85
-83
-83
-84
-82
-80
-79
-78
-78
-76
-75
-74
-74
-73
-71
-66
-62
-59
-58
-56
-50
-39
-28
-20
-17
-17
-20
-26
-33
-42
-47
-49
-49
-50
-49
-49
-52
-48
-34
-32
-69
-139
-157
59
594
1174
1291
763
11
-389
-314
-100
-28
-65
-84
-71
-62
-56
-47
-37
-30
-23
-15
-4
7
18
32
47
60
76
97
122
147
168
186
201
213
216
203
172
127
74
22
-21
-54
-77
-93
-103
-108
-107
-104
-99
-94
-90
-87
-85
-83
-80
-78
-77
-76
-77
-78
-79
-80
-80
-80
-80
-80
-81
-82
-83
-83
-82
-80
-79
-79
-78
-76
-74
-72
-71
-70
-69
-68
-67
-64
-63
-61
-56
-46
-33
-25
-23
-22
-24
-29
-36
-44
-49
-49
-49
-51
-51
-53
-55
-47
-36
-50
-104
-168
-129
182
773
1278
1228
607
-69
-320
-188
-37
-41
-92
-95
-80
-75
-69
-59
-51
-43
-35
-27
-18
-7
3
15
29
46
65
87
110
133
156
177
194
205
208
196
164
118
65
16
-27
-60
-83
-97
-105
-107
-106
-103
-100
-97
-94
-89
-85
-82
-80
-78
-77
-76
-75
-74
-74
-75
-77
-78
-77
-76
-77
-79
-80
-79
-78
-75
-73
-73
-73
-72
-69
-66
-65
-66
-65
-63
-61
-61
-62
-60
-51
-34
-18
-14
-19
-21
-18
-19
-29
-43
-49
-46
-43
-45
-48
-49
-51
-45
-35
-45
-91
-155
-138
133
699
1228
1236
649
-51
-348
-229
-51
-28
-78
-89
-73
-66
-61
-51
-42
-34
-26
-19
-10
3
17
30
43
55
70
89
115
140
161
177
192
207
213
200
167
121
71
24
-18
-56
-85
-100
-101
-100
-102
-104
-102
-98
-95
-93
-91
-87
-82
-78
-77
-78
-80
-82
-82
-81
-80
-80
-82
-85
-87
-87
-84
-82
-82
-82
-80
-79
-80
-82
-80
-75
-69
-63
-54
-43
-33
-30
-33
-40
-48
-57
-63
-64
-63
-65
-66
-64
-67
-66
-54
-48
-80
-151
-187
-11
496
1109
1312
853
92
-371
-343
-129
-41
-78
-103
-92
-81
-75
-67
-60
-53
-44
-36
-28
-18
-7
6
20
37
55
76
98
122
145
167
185
197
200
187
154
105
50
0
-42
-75
-98
-112
-118
-121
-120
-117
-112
-106
-101
-96
-92
-88
-85
-82
-80
-80
-79
-76
-75
-75
-75
-76
-77
-77
-76
-75
-73
-71
-70
-68
-67
-66
-64
-60
-57
-56
-55
-54
-52
-50
-51
-51
-47
-39
-26
-13
-5
-4
-4
-2
-3
-9
-18
-24
-23
-20
-19
-19
-21
-24
-17
-4
-16
-70
-135
-107
184
762
1284
1275
682
0
-276
-158
-3
-1
-53
-58
-42
-37
-32
-22
-14
-6
3
10
19
30
41
54
67
81
98
118
140
164
186
206
222
232
235
222
190
141
86
36
-6
-40
-65
-80
-89
-93
-94
-92
-90
-89
-87
-86
-84
-83
-82
-82
-83
-84
-85
-84
-85
-90
-95
-97
-98
-100
-103
-106
-109
-112
-116
-117
-117
-115
-114
-115
-118
-120
-121
-122
-125
-126
-124
-122
-124
-129
-131
-125
-111
-98
-93
-93
-95
-96
-99
-104
-111
-119
-127
-129
-125
-122
-123
-127
-130
-120
-104
-114
-162
-222
-197
84
655
1177
1170
570
-132
-420
-291
-104
-73
-117
-128
-115
-103
-88
-72
-63
-56
-42
-22
-4
9
23
42
64
84
103
129
161
191
218
244
268
283
285
270
240
200
159
118
81
51
33
26
25
26
29
37
47
57
