# session 12
0
184
-425
198
2849
4838
4713
4160
4157
4066
3817
3698
3551
3367
3275
3158
2975
2865
2816
2674
2436
2256
2176
2107
2012
1893
1767
1671
1576
1445
1349
1286
1151
994
952
967
883
722
651
619
440
434
994
1419
860
-10
-165
108
185
150
150
97
10
-50
-95
-128
-150
-160
-153
-155
-178
-195
-217
-265
-313
-350
-387
-416
-443
-473
-479
-463
-466
-485
-502
-522
-544
-556
-565
-598
-666
-676
-621
-750
-934
-535
176
24
-918
-1375
-1087
-784
-666
-554
-499
-520
-519
-506
-519
-507
-417
-336
-373
-429
-378
-342
-425
-491
-491
-533
-597
-597
-587
-622
-645
-622
-589
-574
-581
-559
-478
-439
-496
-505
-413
-336
-322
-403
-424
54
762
647
-273
-766
-519
-263
-214
-139
-76
-66
-22
34
64
103
149
185
225
267
297
319
333
338
338
326
296
268
261
260
237
206
210
241
270
320
370
341
279
256
232
255
305
164
103
678
1283
843
-132
-428
-143
22
45
94
102
70
79
135
197
233
255
282
309
346
375
339
269
264
291
230
104
55
87
88
55
56
48
-10
-16
25
-42
-159
-170
-191
-275
-228
-189
-333
-91
761
1076
192
-734
-721
-317
-178
-186
-148
-108
-94
-74
-30
30
81
136
208
258
264
255
232
190
174
185
156
85
43
51
66
62
61
68
53
33
51
65
46
42
43
40
97
95
-33
165
803
939
148
-526
-421
-159
-135
-100
-52
-95
-90
-35
-42
-49
-29
-47
-56
16
120
162
111
49
46
33
-45
-113
-136
-161
-206
-255
-291
-309
-331
-368
-411
-465
-506
-511
-539
-562
-466
-406
-508
-288
430
694
-14
-728
-714
-440
-339
-298
-259
-235
-181
-135
-129
-95
-29
5
16
56
114
158
192
229
246
228
194
166
144
122
98
78
73
90
114
122
90
42
39
48
21
47
65
-65
70
779
1173
516
-294
-341
-63
29
76
143
144
136
139
120
100
96
124
194
226
202
223
272
241
199
229
234
181
170
172
100
28
32
24
-53
-113
-129
-147
-149
-155
-239
-292
-254
-347
-416
83
733
422
-580
-982
-659
-397
-344
-270
-215
-215
-211
-214
-189
-104
-39
-25
2
44
73
95
104
93
85
83
86
101
104
67
23
17
23
4
-14
1
-2
-45
-49
-23
-37
-4
49
-51
51
712
1116
493
-308
-323
12
119
129
146
119
139
196
208
218
204
108
65
149
196
151
135
142
89
10
-34
-18
58
115
85
32
8
-22
-43
-14
-9
-88
-162
-171
-206
-274
-309
-430
-544
-138
585
520
-378
-874
-658
-465
-447
-340
-247
-241
-196
-143
-145
-129
-70
-35
-27
19
82
73
13
25
105
124
60
25
49
55
40
65
114
142
168
187
146
74
59
60
-6
-26
23
-116
-175
467
1170
717
-317
-568
-234
-111
-94
7
32
22
50
31
7
38
63
92
159
197
193
188
154
76
45
87
95
29
-4
40
71
60
55
66
92
131
143
126
100
31
-22
-22
-177
-342
83
748
474
-561
-1006
-668
-368
-300
-230
-191
-193
-150
-122
-161
-181
-148
-107
-70
-23
19
36
20
-20
-40
-14
4
-12
-19
-20
-60
-97
-73
-30
-23
-26
-22
-37
-57
-64
-62
-5
26
-137
-117
540
1055
460
-455
-509
-119
-37
-49
68
125
120
144
154
185
260
279
244
244
256
247
249
229
150
88
89
80
36
27
50
37
7
9
15
10
20
20
1
19
54
55
73
34
-143
-18
636
889
123
-648
-586
-278
-226
-198
-130
-138
-184
-239
-247
-168
-167
-266
-242
-119
-112
-166
-152
-147
-183
-188
-167
-141
-96
-70
-80
-98
-131
-158
-140
-106
-89
-70
-48
-21
-2
-10
14
28
-109
-110
385
727
140
-664
-659
-214
-38
-13
70
96
64
76
125
176
227
279
339
384
389
379
376
376
384
390
368
335
306
268
223
164
94
63
78
71
37
6
-29
-51
-54
-62
-27
-1
-138
-129
404
824
333
-460
-602
-346
-249
-223
-183
-250
-314
-271
-268
-343
-354
-292
-246
-215
-175
-155
-156
-150
-134
-102
-62
-55
-92
-128
-139
-145
-165
-185
-177
-157
-152
-142
-120
-110
-117
-126
-75
-3
-89
-117
417
1062
764
-173
-525
-226
-14
7
48
63
48
93
157
180
175
179
217
269
304
325
332
324
317
310
298
281
238
179
150
143
115
77
63
57
42
21
-1
-7
-14
-63
-78
-32
-104
-135
344
901
530
-441
-779
-434
-194
-165
-95
-78
-166
-212
-186
-161
-155
-147
-116
-65
-29
-22
-32
-57
-92
-121
-137
-141
-130
-92
-53
-65
-123
-158
-169
-179
-163
-133
-144
-168
-178
-216
-209
-132
-223
-378
-13
655
564
-285
-732
-474
-194
-134
-64
27
64
89
117
142
177
212
247
296
340
352
338
312
285
262
238
210
200
216
223
187
137
121
133
142
150
154
117
57
13
-49
-95
-56
-99
-262
-48
585
676
-105
-723
-580
-245
-110
-23
39
19
-2
13
32
39
17
-18
-15
17
14
-33
-86
-120
-134
-138
-162
-212
-235
-187
-129
-140
-172
-152
-117
-119
-135
-131
-93
-41
-32
-9
67
-49
-300
5
794
841
-74
-664
-413
-44
74
120
135
88
33
6
25
66
84
103
146
173
171
174
167
126
79
53
35
32
54
68
67
76
92
102
110
109
107
103
90
79
46
15
46
-15
-165
111
736
662
-212
-703
-457
-186
-120
-36
33
38
58
86
96
112
119
107
112
127
121
98
60
-1
-65
-115
-172
-221
-233
-264
-341
-388
-400
-438
-463
-435
-415
-425
-399
-327
-275
-244
-163
-137
-273
-142
569
1016
420
-440
-574
-293
-169
-151
-125
-126
-111
-56
0
54
112
163
198
219
249
285
284
245
219
228
234
217
214
234
231
190
148
132
134
142
153
139
83
45
52
38
30
48
-54
-48
530
1109
670
-297
-592
-323
-183
-158
-78
-41
-42
-24
-5
35
90
127
206
315
349
321
308
284
236
205
160
73
-2
-55
-126
-201
-245
-274
-314
-338
-314
-303
-361
-400
-375
-379
-387
-389
-477
-302
445
900
216
-726
-826
-470
-328
-304
-238
-192
-158
-113
-81
-52
-22
9
58
120
178
212
199
155
119
98
72
54
60
61
35
13
27
47
47
61
99
88
12
-19
28
89
161
156
13
139
769
1090
475
-285
-359
-85
49
77
78
70
103
120
83
75
118
162
216
288
335
353
363
357
346
343
318
262
218
173
87
-8
-60
-97
-153
-192
-191
-214
-277
-308
-331
-396
-417
-442
-581
-455
188
503
-178
-983
-1002
-648
-485
-411
-318
-284
-268
-236
-228
-215
-176
-157
-134
-72
-42
-71
-72
-33
-23
-30
-4
48
100
129
115
72
35
12
-6
-17
-19
-29
-71
-107
-114
-134
-115
-57
-162
-211
372
1078
740
-254
-564
-190
63
115
181
202
196
235
269
282
305
312
313
343
388
406
384
339
305
291
277
263
258
254
246
223
188
183
209
212
188
160
109
55
30
-6
-17
2
-123
-187
297
849
497
-357
-598
-303
-133
-98
-38
-27
-53
-61
-71
-66
-53
-62
-52
-15
-16
-37
-32
-47
-116
-175
-189
-195
-212
-236
-264
-282
-289
-301
-319
-317
-292
-281
-300
-313
-312
-319
-291
-253
-331
-328
92
483
110
-626
-787
-441
-193
-108
-36
-11
-11
16
35
39
64
93
111
125
127
112
95
73
64
100
130
92
68
107
104
33
-15
-32
-53
-46
3
36
11
-22
-22
-29
-8
57
-13
-99
283
856
706
-18
-313
-85
71
82
133
164
143
131
123
124
151
165
150
146
162
180
197
205
198
208
234
237
211
185
165
134
91
48
20
5
13
37
18
-31
-36
-48
-87
-46
-57
-224
-25
681
844
28
-640
-504
-210
-158
-130
-87
-99
-100
-89
-97
-95
-79
-56
-20
5
13
24
24
6
6
12
-21
-73
-94
-83
-78
-115
-169
-182
-168
-170
-166
-161
-194
-217
-223
-270
-272
-228
-337
-345
162
556
15
-785
-818
-405
-207
-151
-85
-85
-102
-76
-57
-47
-26
-5
20
59
93
108
104
94
82
66
67
85
87
63
43
36
16
-18
-39
-32
1
37
37
19
33
32
24
89
79
-41
216
847
893
148
-336
-138
118
163
213
277
276
264
281
303
314
336
376
392
384
394
399
369
335
315
294
279
259
215
168
119
55
7
-18
-53
-72
-52
-57
-106
-123
-130
-180
-177
-161
-322
-337
216
669
184
-598
-697
-389
-268
-258
-217
-211
-213
-193
-190
-179
-144
-124
-120
-98
-75
-73
-83
-93
-101
-97
-87
-94
-124
-158
-195
-238
-266
-274
-274
-255
-212
-187
-201
-213
-199
-214
-250
-214
-201
-306
-151
421
579
-134
-762
-601
-217
-95
-55
-6
-13
-13
15
20
21
32
39
57
81
93
103
115
112
106
116
131
131
122
111
99
75
37
8
4
22
67
95
55
16
29
20
31
81
-21
-39
488
932
377
-502
-582
-166
33
86
165
178
154
179
218
237
246
263
295
331
364
389
393
385
370
340
303
275
239
189
153
128
88
44
16
-7
-8
11
-10
-64
-73
-86
-119
-57
-43
-185
26
698
796
-39
-648
-441
-122
-69
-35
4
-19
-11
17
1
5
50
65
47
50
64
50
32
26
-9
-60
-69
-57
-83
-124
-148
-176
-220
-257
-271
-267
-248
-230
-239
-252
-248
-270
-281
-233
-294
-424
-142
404
265
-557
-947
-628
-312
-246
-190
-131
-123
-107
-80
-66
-58
-56
-43
-8
18
14
-3
-8
-1
10
17
17
10
10
8
-30
-74
-86
-94
-102
-75
-31
-23
-41
-33
-13
-27
-14
27
-72
-146
264
822
621
-148
-465
-209
13
69
122
151
155
195
223
217
233
262
266
275
305
315
299
293
289
272
269
279
261
223
200
179
136
92
61
41
43
61
49
11
19
27
-26
-14
19
-144
-113
532
926
226
-639
-626
-237
-116
-79
0
-4
-15
26
34
20
44
76
96
125
149
138
110
86
61
31
7
-8
-24
-50
-77
-101
-132
-169
-187
-185
-185
-188
-194
-210
-214
-223
-244
-206
-192
-336
-278
263
510
-169
-905
-828
-419
-263
-214
-148
-136
-125
-81
-56
-34
6
39
67
96
119
125
107
80
73
79
66
38
21
10
-3
-16
-34
-53
-54
-47
-40
-23
-27
-59
-61
-51
-67
-23
1
-164
-115
485
808
173
-530
-450
-92
22
69
133
134
146
192
208
227
277
314
328
347
367
367
352
329
293
258
245
243
224
192
165
136
99
72
64
54
40
36
15
-33
-44
-44
-84
-84
-100
-277
-238
349
722
161
-581
-620
-317
-210
-189
-140
-137
-136
-104
-90
-82
-53
-21
3
26
42
46
45
44
36
24
14
1
-22
-47
-74
-116
-166
-202
-216
-211
-191
-171
-184
-225
-236
-233
-251
-208
-174
-323
-275
318
628
-72
-860
-783
-366
-223
-171
-85
-82
-92
-44
-2
24
61
95
117
143
169
172
153
135
121
97
71
62
67
67
48
14
-14
-29
-38
-43
-41
-26
-22
-46
-53
-42
-49
-16
2
-143
-105
447
753
103
-659
-599
-178
-16
29
100
108
105
146
175
193
226
255
276
310
345
360
367
368
345
304
277
265
250
238
222
185
137
100
76
68
91
135
144
99
66
70
65
86
106
-48
-133
338
870
515
-306
-505
-190
-29
-14
37
48
33
50
57
57
86
113
120
134
156
153
122
90
59
24
-1
-22
-64
-125
-180
-228
-282
-332
-358
-362
-360
-352
-356
-399
-430
-413
-414
-414
-353
-419
-566
-247
375
264
-564
-941
-630
-364
-331
-283
-239
-242
-218
-181
-164
-134
-85
-41
6
59
96
115
130
141
140
133
128
123
108
85
54
18
-20
-54
-73
-67
-32
0
-12
-35
-25
-38
-63
-1
-26
-204
25
704
733
-152
-714
-440
-87
2
75
137
135
162
206
224
251
287
318
360
405
425
417
403
391
372
344
314
285
262
250
220
165
119
91
69
48
35
33
23
-3
-12
-21
-58
-34
-3
-126
-62
499
790
136
-619
-574
-189
-68
-54
8
13
-14
4
34
43
63
99
122
133
156
174
157
129
112
92
71
55
28
-5
-26
-47
-89
-133
-154
-171
-193
-196
-195
-230
-254
-250
-283
-293
-243
-344
-445
-25
504
144
-741
-973
-592
-342
-280
-201
-164
-157
-102
-45
-7
43
91
131
178
212
217
213
202
175
148
136
131
121
114
109
92
54
12
-9
-10
-4
12
18
-10
-31
-22
-54
-90
-43
-88
-240
21
651
654
-125
-587
-363
-127
-97
-45
-24
-64
-21
56
57
55
95
114
122
155
170
153
149
160
162
161
155
132
104
73
24
-28
-62
-88
-108
-99
-64
-41
-64
-113
-130
-133
-161
-137
-118
-281
-294
250
673
170
-594
-660
-338
-210
-174
-102
-85
-82
-31
9
29
65
106
144
189
225
241
249
246
230
222
216
188
144
104
67
33
-1
-39
-64
-68
-66
-45
-19
-31
-52
-43
-62
-67
-1
-73
-180
218
764
415
-501
-748
-353
-104
-52
24
45
19
45
81
89
102
126
158
196
228
253
271
268
247
215
179
147
112
70
38
14
-27
-75
-96
-94
-101
-101
-81
-82
-110
-116
-127
-151
-110
-111
-255
-118
455
576
-179
-787
-594
-225
-128
-95
-55
-71
-75
-66
-80
-81
-69
-68
-52
-28
-28
