# session 23
1
-3
-37
-44
-37
-86
-94
-47
-156
-202
303
1002
1169
979
925
930
855
812
801
758
723
704
670
635
612
587
554
520
483
444
407
375
356
355
360
345
305
258
227
208
178
153
157
136
99
123
84
18
415
1113
994
-39
-687
-496
-215
-158
-105
-64
-85
-83
-71
-83
-86
-83
-89
-87
-82
-80
-70
-51
-35
-20
-4
11
25
33
26
5
-18
-43
-73
-110
-150
-187
-214
-236
-253
-256
-251
-246
-244
-239
-233
-227
-223
-222
-218
-216
-219
-226
-235
-246
-250
-238
-204
-169
-163
-185
-204
-204
-200
-208
-204
-182
-187
-188
-153
-202
-184
338
973
682
-311
-757
-484
-249
-220
-167
-128
-135
-117
-96
-98
-91
-76
-68
-54
-35
-20
-2
19
41
65
92
116
131
136
130
120
108
95
73
47
23
1
-18
-29
-33
-33
-29
-24
-18
-12
-8
-5
1
6
7
4
-3
-14
-23
-23
-4
33
63
60
37
20
21
21
10
14
31
22
22
46
-20
32
601
1186
808
-163
-527
-246
-52
-40
2
26
13
31
49
45
51
57
59
68
81
91
106
125
143
160
179
194
201
198
188
176
161
140
115
88
59
33
11
-5
-13
-17
-17
-15
-13
-12
-10
-8
-11
-15
-14
-18
-32
-47
-56
-53
-24
11
17
-5
-29
-41
-42
-49
-61
-56
-54
-62
-40
-71
-130
223
943
1014
117
-601
-493
-200
-145
-113
-60
-70
-69
-39
-39
-45
-27
-14
-17
-15
-2
10
21
44
71
90
101
111
117
113
102
92
79
56
21
-19
-58
-86
-100
-112
-128
-134
-131
-132
-135
-135
-136
-139
-143
-152
-162
-170
-178
-175
-149
-121
-123
-149
-172
-181
-184
-196
-201
-182
-185
-195
-156
-200
-266
141
832
724
-240
-811
-596
-326
-269
-204
-151
-161
-153
-138
-142
-129
-109
-103
-89
-64
-40
-13
21
51
81
117
154
179
190
191
192
192
182
165
150
133
112
103
103
92
62
9
-54
-89
-85
-68
-60
-70
-102
-133
-133
-124
-121
-91
-22
34
38
7
-22
-36
-40
-50
-53
-37
-45
-64
-55
-120
-126
375
1063
884
-64
-549
-297
-31
45
127
157
110
85
46
-32
-48
8
54
84
140
216
283
337
401
490
588
679
758
816
843
847
842
829
819
824
822
786
753
745
690
545
389
330
380
431
352
179
47
-39
-140
-220
-253
-295
-330
-314
-334
-470
-629
-707
-726
-741
-749
-718
-672
-666
-719
-881
-1037
-725
2
100
-791
-1529
-1427
-1116
-1028
-980
-955
-1002
-998
-937
-916
-904
-855
-799
-752
-699
-636
-579
-531
-468
-374
-273
-188
-113
-38
40
122
205
279
335
390
466
537
556
536
512
487
465
459
476
531
635
733
758
713
667
670
712
749
766
775
772
749
732
739
753
745
718
703
680
636
633
604
485
666
1321
1552
760
-96
-131
160
219
204
222
185
161
186
181
141
103
68
37
8
-20
-29
-21
-31
-54
-55
-37
-28
-26
-30
-61
-112
-156
-193
-234
-271
-309
-358
-400
-408
-394
-384
-379
-386
-424
-479
-513
-530
-558
-590
-597
-581
-549
-497
-450
-444
-478
-529
-571
-601
-654
-729
-773
-824
-915
-967
-1051
-1224
-1034
-327
-57
-743
-1375
-1219
-863
-785
-769
-711
-674
-596
-469
-373
-321
-286
-259
-222
-161
-78
11
100
201
304
396
483
548
551
506
469
443
405
364
330
296
276
292
319
331
336
349
367
387
417
450
458
442
445
489
538
559
569
594
638
683
707
699
678
678
695
692
685
693
672
654
679
599
550
1029
1668
1374
343
-138
110
320
324
348
350
307
294
283
250
227
210
189
172
151
129
124
122
112
103
99
90
75
54
32
9
-20
-54
-91
-136
-190
-237
-271
-300
-322
-337
-352
-365
-373
-378
-382
-385
-391
-399
-409
-424
-442
-444
-420
-392
-387
-408
-431
-439
-442
-457
-455
-431
-440
-438
-396
-464
-445
121
708
267
-758
-1080
-736
-510
-457
-370
-332
-340
-310
-287
-287
-268
-244
-230
-213
-194
-175
-147
-114
-82
-48
-15
13
34
44
47
50
50
41
24
3
-14
-25
-41
-57
-56
-40
-20
-3
8
19
36
56
71
76
72
62
55
66
97
141
172
174
156
146
151
155
151
161
177
182
217
226
132
285
930
1274
605
-254
-314
33
141
132
191
220
205
193
191
214
250
252
238
249
279
296
300
312
324
306
256
182
63
-111
-292
-417
-481
-531
-589
-624
-621
-608
-568
-466
-354
-294
-263
-225
-187
-151
-117
-87
-55
-29
-26
-26
-5
5
-1
41
124
150
106
78
81
75
78
94
77
58
112
116
7
219
926
1227
497
-345
-376
-51
22
0
47
47
31
84
122
82
45
61
85
94
101
104
103
118
141
147
154
175
168
140
139
134
95
71
76
52
-23
-81
-66
-33
-66
-117
-105
-72
-81
-103
-117
-119
-85
-60
-108
-158
-143
-133
-155
-137
-73
-46
-78
-123
-150
-154
-151
-156
-153
-130
-114
-153
-238
-99
510
1020
581
-374
-680
-356
-185
-214
-160
-146
-203
-153
-71
-91
-113
-85
-85
-81
-34
-14
-16
24
49
26
57
141
154
92
69
101
118
90
52
30
19
-2
-39
-63
-57
-42
-33
-22
-28
-52
-48
-17
-8
-20
-29
-28
-23
-38
-69
-50
29
66
12
-34
-8
14
-32
-67
-13
32
-31
-50
14
-44
71
759
1181
424
-595
-669
-243
-105
-112
-22
27
-7
-12
32
53
29
20
41
54
73
110
130
128
126
143
198
241
222
205
220
202
152
130
124
101
51
-7
-19
1
-28
-73
-51
-19
-47
-70
-39
-23
-39
-40
-45
-59
-41
-45
-105
-110
-36
-13
-55
-63
-49
-68
-85
-67
-63
-96
-117
-90
-61
-133
-143
335
1006
824
-186
-747
-498
-225
-202
-147
-72
-100
-137
-100
-64
-102
-137
-85
-26
-43
-70
-54
-37
-24
19
64
70
50
39
45
55
39
-4
-38
-47
-62
-97
-129
-140
-143
-150
-151
-143
-140
-149
-135
-98
-107
-154
-173
-192
-226
-223
-208
-206
-163
-112
-113
-110
-100
-148
-195
-168
-134
-130
-99
-73
-75
-51
-88
-112
338
1069
998
35
-570
-361
-72
-44
-38
3
25
51
62
55
75
111
124
123
140
170
187
200
235
276
296
315
343
347
340
360
354
301
275
279
242
179
143
146
183
211
205
209
247
271
269
282
313
327
324
327
328
322
326
332
331
350
402
453
461
420
387
391
391
395
444
459
417
433
424
395
792
1391
947
-640
-1770
-1661
-1062
-639
-556
-786
-959
-809
-612
-623
-666
-623
-757
-1102
-1249
-1187
-1270
-1262
-873
-615
-760
-742
-416
-254
-270
-169
-17
43
40
8
-12
4
-11
-48
-14
66
108
125
147
155
149
140
124
105
88
57
35
53
58
11
-9
28
48
29
-16
-100
-176
-199
-227
-269
-293
-322
-314
-308
-395
-184
608
1034
280
-641
-602
-135
11
37
166
227
196
193
228
254
265
282
311
330
328
328
351
390
425
439
436
443
468
475
446
429
429
398
342
303
260
197
169
193
190
137
109
137
151
112
80
104
124
96
67
52
34
43
61
31
0
24
48
38
23
-1
-50
-80
-49
-33
-85
-71
-8
-102
-38
622
1114
466
-572
-772
-390
-192
-180
-151
-129
-123
-113
-101
-89
-98
-113
-104
-107
-112
-71
-34
-45
-60
-39
5
35
24
12
20
2
-45
-60
-56
-93
-151
-170
-173
-210
-232
-195
-177
-214
-226
-193
-183
-186
-177
-171
-155
-160
-220
-241
-186
-158
-164
-134
-98
-99
-129
-148
-144
-147
-142
-111
-123
-124
-78
-149
-83
575
1133
581
-413
-628
-299
-142
-113
-61
-74
-89
-44
-20
-16
6
6
-19
4
70
80
24
34
126
155
125
152
180
140
129
160
137
101
110
73
-6
-8
23
-6
-29
-5
-14
-46
-18
39
40
-2
-15
18
41
27
14
7
-12
-4
44
74
62
43
44
64
64
20
-6
28
45
42
83
40
-20
419
1171
1104
134
-474
-302
-71
-45
-1
36
18
35
62
41
27
51
73
77
83
92
91
96
110
121
139
176
195
166
127
124
140
131
86
47
31
3
-54
-71
-28
-17
-55
-50
-33
-71
-87
-55
-48
-54
-46
-58
-84
-109
-137
-138
-111
-99
-91
-68
-67
-92
-104
-110
-137
-132
-101
-123
-133
-95
-144
-28
597
1056
508
-410
-653
-372
-157
-170
-372
-560
-541
-416
-338
-329
-322
-233
-195
-336
-422
-328
-265
-250
-171
-120
-133
-108
-73
-79
-80
-80
-101
-92
-58
-64
-89
-97
-128
-166
-149
-105
-79
-66
-67
-70
-50
-31
-29
-14
24
64
71
29
8
60
62
-72
-217
-276
-289
-259
-180
-141
-163
-151
-91
-4
99
78
25
472
1273
1295
352
-308
-148
168
309
417
466
478
529
548
568
654
686
659
708
772
783
840
911
872
795
808
849
800
694
659
727
802
829
801
720
669
708
702
552
352
202
154
203
185
28
-84
-64
-78
-220
-422
-634
-877
-1142
-1366
-1485
-1513
-1546
-1639
-1758
-1840
-1830
-1734
-1618
-1477
-1335
-1304
-1293
-1169
-1115
-999
-303
435
53
-975
-1230
-738
-383
-288
-214
-172
-177
-181
-166
-138
-137
-136
-82
-28
5
77
149
148
131
149
179
220
288
359
421
481
543
604
652
664
626
577
615
750
805
692
632
779
899
791
648
639
624
511
389
265
132
99
189
284
306
259
191
203
320
433
437
333
196
98
80
165
241
230
558
1459
1948
1273
522
763
1364
1604
1715
1802
1684
1465
1272
1111
1099
1157
952
488
119
-26
-120
-320
-621
-899
-1043
-1043
-972
-946
-1043
-1184
-1212
-1091
-946
-910
-972
-1046
-1109
-1171
-1184
-1107
-986
-889
-798
-692
-685
-836
-973
-988
-1012
-1128
-1250
-1371
-1569
-1764
-1772
-1631
-1560
-1604
-1614
-1518
-1347
-1162
-1033
-939
-790
-604
-423
-269
-282
-340
40
560
246
-631
-860
-470
-333
-451
-360
-93
139
322
487
616
688
739
838
941
970
981
1031
1085
1132
1166
1153
1148
1196
1209
1162
1139
1136
1099
1047
1002
961
931
896
841
793
760
720
686
677
674
656
616
570
539
509
474
451
423
365
316
326
359
341
271
220
206
182
130
88
87
85
26
-6
15
-61
17
645
1134
542
-459
-694
-392
-257
-255
-228
-254
-279
-250
-239
-248
-254
-284
-302
-278
-269
-284
-254
-200
-213
-259
-239
-185
-178
-192
-185
-194
-231
-249
-248
-255
-271
-286
-307
-347
-380
-348
-304
-327
-342
-304
-289
-277
-242
-257
-287
-257
-239
-258
-253
-256
-263
-192
-114
-147
-202
-186
-159
-148
-141
-154
-162
-149
-121
-69
-107
-169
263
1034
972
-54
-690
-482
-229
-175
-60
-2
-70
-73
-19
-6
-3
24
57
56
11
6
76
119
113
134
169
172
187
217
205
167
161
175
160
108
60
65
83
32
-42
-44
-16
-10
8
14
-12
11
52
2
-46
1
25
-16
-22
-23
-70
-71
-11
10
-19
-47
-65
-50
-19
-42
-80
-79
-90
-79
-33
-132
-178
375
1113
855
-261
-854
-584
-279
-253
-226
-158
-141
-146
-156
-168
-156
-143
-151
-153
-139
-110
-83
-96
-124
-84
3
18
-38
-45
-3
-16
-68
-73
-75
-129
-175
-194
-234
-270
-270
-259
-245
-224
-232
-257
-261
-247
-211
-173
-184
-205
-172
-139
-157
-176
-182
-186
-162
-123
-100
-59
-10
-25
-76
-70
-19
14
32
29
27
92
105
31
355
1149
1348
475
-321
-267
42
159
243
290
270
315
392
419
430
432
438
494
544
555
612
684
677
666
738
835
891
880
838
865
942
945
900
901
915
899
899
924
932
912
904
946
1016
1056
1054
1050
1071
1098
1096
1109
1204
1279
1208
1097
1129
1262
1287
1194
1256
1381
974
-8
-885
-1466
-2045
-2398
-2135
-1530
-1032
-667
-433
-335
108
965
927
-751
-2612
-3373
-3598
-3784
-3784
-3912
-4148
-3822
-3028
-2331
-1827
-1769
-2395
-3213
-3783
-4064
-3831
-3114
-2431
-1936
-1470
-1112
-867
-564
-275
-142
-48
132
316
393
418
505
609
644
688
786
843
845
871
937
1024
1069
1034
1018
1079
1109
1093
1114
1141
1131
1124
1098
1048
1044
1073
1083
1096
1095
1055
1038
1045
1002
939
923
923
903
889
899
860
735
848
1488
1962
1387
374
90
372
501
483
492
469
448
451
420
410
425
375
326
356
354
281
258
295
296
268
261
264
252
229
203
157
108
100
90
25
-35
-62
-128
-195
-182
-168
-225
-268
-248
-235
-258
-282
-299
-297
-278
-301
-349
-335
-315
-372
-399
-359
-390
-461
-426
-348
-335
-351
-380
-421
-418
-399
-422
-424
-385
-369
-367
-406
-394
65
762
636
-376
-970
-733
-474
-449
-377
-339
-371
-296
-229
-306
-329
-225
-202
-268
-236
-148
-139
-148
-116
-89
-51
9
24
12
32
43
28
32
26
-24
-50
-34
-61
-126
-130
-88
-90
-113
-90
-54
-53
-56
-36
-12
-11
-29
-29
-4
6
-11
-29
-36
-20
31
78
70
23
-3
16
36
30
43
59
14
18
106
49
78
729
1335
732
-411
-643
-220
-82
-88
63
113
41
62
103
71
69
111
113
94
115
150
145
133
176
230
232
231
269
282
243
217
215
195
163
139
105
47
-16
-21
21
4
-63
-63
-29
-54
-64
-3
4
-72
-86
-31
-32
-70
-62
-54
-95
-123
-97
-64
-46
-31
-44
-81
-74
-44
-77
-108
-61
-55
-98
-76
-107
-86
455
1110
788
-245
-694
-431
-219
-199
-156
-122
-109
-75
-75
-96
-87
-90
-86
-5
