# session 16
-344
-402
-162
-430
-1448
-2125
-1995
-1766
-1734
-1624
-1475
-1413
-1350
-1266
-1185
-1094
-1031
-942
-828
-869
-772
-56
553
10
-961
-1065
-594
-358
-277
-140
-68
-37
30
72
76
84
96
122
175
232
265
274
276
278
283
292
313
347
397
453
480
472
476
522
585
623
614
567
532
539
578
661
779
863
873
846
817
802
799
810
896
970
925
1184
2023
2514
1914
1199
1370
1907
2172
2341
2546
2662
2750
2888
2988
2925
2526
1743
1043
1012
1535
2037
2330
2571
2815
2904
2568
1717
655
-193
-726
-1162
-1548
-1556
-1108
-707
-719
-971
-1240
-1526
-1821
-2068
-2272
-2443
-2544
-2599
-2729
-2942
-3089
-3129
-3169
-3239
-3385
-3583
-3332
-2472
-2108
-2883
-3574
-3293
-2870
-2844
-2733
-2483
-2467
-2636
-2816
-3006
-3084
-2918
-2642
-2427
-2270
-2151
-2102
-2096
-2119
-2196
-2226
-2027
-1589
-1070
-628
-358
-193
35
351
640
866
1059
1211
1327
1454
1599
1734
1847
1939
2015
2074
2100
2118
2157
2165
2160
2227
2195
2063
2415
3149
3051
1986
1361
1632
1930
1945
1974
2004
1951
1912
1886
1843
1814
1794
1770
1768
1774
1756
1709
1633
1543
1458
1367
1254
1144
1061
990
920
853
787
715
637
559
479
392
299
211
142
96
70
44
-1
-59
-125
-194
-254
-338
-428
-459
-571
-742
-416
341
331
-701
-1413
-1230
-953
-951
-943
-921
-976
-1010
-1016
-1039
-1053
-1042
-1016
-962
-891
-840
-823
-832
-851
-871
-907
-952
-982
-997
-1018
-1035
-1031
-1022
-1026
-1031
-1022
-1000
-978
-985
-1025
-1053
-1038
-990
-920
-850
-809
-797
-791
-766
-717
-684
-648
-568
-597
-642
-152
647
572
-423
-994
-734
-424
-339
-235
-136
-100
-36
47
102
158
223
274
316
369
425
469
494
514
537
544
526
509
511
522
539
568
595
615
638
655
656
656
658
657
668
698
750
836
924
964
982
1008
1033
1071
1104
1104
1145
1150
1002
1186
1966
2267
1373
464
545
956
1047
1031
1027
953
895
888
873
874
885
865
852
864
840
757
648
521
361
165
-53
-279
-509
-726
-891
-1004
-1100
-1188
-1271
-1359
-1438
-1497
-1549
-1569
-1518
-1431
-1357
-1286
-1216
-1192
-1207
-1226
-1236
-1223
-1203
-1166
-1020
-895
-958
-741
37
335
-562
-1510
-1514
-1208
-1200
-1207
-1067
-922
-782
-642
-562
-517
-468
-451
-450
-363
-158
36
112
104
90
91
90
76
50
29
28
28
11
-22
-55
-70
-57
-25
6
32
58
88
121
166
231
289
312
322
339
368
419
459
486
569
584
501
845
1655
1784
831
81
235
550
594
630
675
623
565
521
458
424
428
437
462
511
554
568
559
543
529
514
493
469
445
415
378
322
250
189
156
132
91
33
-18
-63
-126
-189
-211
-187
-133
-70
-45
-70
-99
-122
-141
-144
-169
-192
-159
-206
-238
266
1028
880
-152
-724
-481
-212
-186
-160
-133
-139
-114
-81
-66
-33
10
46
80
113
134
132
107
80
77
103
139
167
183
198
200
142
28
-77
-149
-215
-275
-311
-345
-418
-523
-603
-632
-647
-672
-671
-618
-510
-370
-250
-155
-49
30
90
216
257
222
693
1550
1505
383
-313
-23
334
341
312
306
261
250
259
230
183
134
100
119
171
167
77
-29
-110
-210
-331
-409
-431
-435
-428
-415
-424
-474
-555
-638
-692
-717
-733
-757
-805
-881
-955
-982
-956
-904
-855
-830
-821
-813
-832
-880
-883
-855
-838
-754
-678
-708
-384
449
716
-132
-873
-654
-187
-36
36
126
146
176
252
322
390
459
518
593
693
784
836
854
864
880
881
843
780
735
731
764
811
854
888
906
889
840
787
745
710
681
656
627
604
591
592
617
649
652
624
570
501
456
396
277
185
54
-178
-2
771
1014
47
-954
-1006
-701
-621
-589
-529
-535
-526
-464
-425
-411
-391
-367
-342
-342
-422
-572
-711
-774
-759
-701
-640
-594
-546
-480
-407
-343
-290
-246
-217
-209
-213
-203
-172
-138
-107
-77
-57
-54
-60
-60
-34
29
84
86
58
36
17
22
44
34
53
101
24
99
746
1273
706
-298
-517
-166
7
28
89
100
78
96
114
119
145
180
220
277
339
382
394
385
367
336
286
226
175
137
106
74
46
26
11
-3
-18
-34
-49
-69
-96
-118
-134
-163
-211
-255
-279
-277
-252
-235
-242
-244
-240
-241
-220
-205
-225
-198
-196
-284
24
854
1055
54
-842
-713
-287
-152
-77
9
12
43
138
192
184
166
164
162
134
100
90
88
75
52
24
-7
-46
-96
-133
-140
-135
-132
-130
-132
-137
-137
-133
-127
-117
-112
-117
-122
-118
-111
-96
-57
-4
31
41
51
52
46
76
106
105
152
157
53
332
1109
1261
286
-544
-413
-58
16
69
129
76
34
59
77
89
119
153
188
209
209
209
203
168
117
67
8
-55
-98
-115
-109
-93
-95
-129
-176
-219
-248
-253
-248
-248
-248
-245
-254
-273
-285
-279
-254
-209
-180
-185
-187
-195
-228
-234
-205
-188
-137
-111
-199
31
806
1119
274
-634
-608
-227
-122
-107
-59
-70
-94
-105
-133
-143
-120
-76
-12
19
-16
-56
-60
-49
-47
-76
-145
-213
-248
-258
-245
-216
-204
-206
-187
-149
-117
-94
-71
-43
-5
37
74
95
103
114
137
169
221
277
300
298
298
295
303
324
326
355
404
343
447
1106
1638
1082
62
-197
133
292
271
293
300
280
286
291
287
301
334
368
394
424
464
488
481
471
461
427
371
322
295
286
279
252
205
149
84
10
-63
-138
-213
-278
-338
-401
-455
-502
-558
-621
-658
-646
-611
-588
-550
-490
-466
-459
-399
-340
-304
-237
-268
-267
286
995
652
-499
-983
-617
-314
-254
-176
-161
-228
-238
-210
-193
-149
-96
-70
-42
15
77
111
113
92
58
21
-27
-96
-160
-184
-174
-153
-129
-109
-107
-124
-147
-171
-192
-212
-229
-245
-270
-300
-319
-323
-313
-293
-282
-293
-298
-290
-290
-275
-266
-311
-326
-313
-400
-247
477
890
122
-884
-949
-533
-388
-373
-313
-322
-350
-320
-290
-268
-229
-188
-141
-69
6
59
82
70
37
0
-46
-104
-159
-191
-200
-192
-170
-143
-122
-103
-82
-66
-55
-40
-21
-8
0
1
-11
-15
8
51
102
147
164
155
144
123
107
125
135
144
208
200
203
715
1469
1323
322
-180
147
487
588
708
817
860
928
1010
1062
1113
1177
1250
1336
1432
1534
1633
1705
1739
1749
1735
1697
1646
1599
1567
1551
1529
1487
1446
1428
1425
1422
1423
1430
1435
1442
1455
1442
1337
1123
885
707
562
385
178
-26
-209
-357
-507
-710
-913
-1069
-1181
-1209
-1234
-1340
-1140
-446
-179
-989
-1898
-1988
-1769
-1808
-1918
-1965
-2021
-1994
-1844
-1720
-1698
-1678
-1589
-1493
-1448
-1420
-1402
-1418
-1441
-1504
-1706
-1995
-2185
-2235
-2294
-2480
-2711
-2837
-2875
-2928
-2979
-2982
-2990
-3031
-3060
-3083
-3101
-3034
-2878
-2712
-2455
-1994
-1447
-974
-562
-195
90
330
563
758
928
1105
1232
1344
1512
1563
1593
2179
2987
2752
1628
1124
1495
1810
1867
1954
2004
1979
1993
2008
1984
1988
2016
2027
2043
2085
2119
2120
2084
2021
1938
1841
1736
1626
1516
1422
1348
1289
1242
1193
1130
1060
992
930
875
815
745
682
636
588
525
467
429
412
405
382
331
283
242
187
151
132
80
58
54
-79
-7
662
1101
353
-723
-886
-516
-390
-397
-352
-370
-422
-432
-442
-451
-438
-425
-405
-363
-316
-276
-255
-267
-303
-343
-388
-453
-542
-637
-699
-713
-692
-661
-637
-633
-660
-705
-743
-753
-737
-707
-675
-644
-615
-595
-586
-573
-547
-507
-444
-381
-357
-352
-335
-328
-323
-293
-286
-283
-253
-330
-331
223
859
468
-608
-1018
-684
-440
-405
-332
-279
-278
-246
-211
-191
-154
-111
-74
-29
27
80
119
136
128
103
65
18
-36
-88
-130
-155
-159
-152
-154
-168
-181
-193
-213
-233
-238
-230
-219
-206
-188
-163
-145
-140
-134
-115
-88
-44
2
4
-29
-45
-53
-61
-48
-53
-66
-34
-81
-106
388
1085
843
-224
-751
-457
-170
-123
-63
-17
-32
-15
28
57
94
145
204
280
365
442
508
545
540
510
477
421
338
274
256
264
273
284
293
294
299
307
300
276
251
233
226
229
221
196
168
143
123
120
143
181
193
159
126
118
100
92
108
100
120
154
58
175
889
1338
564
-531
-665
-233
-50
-12
73
79
44
68
98
112
147
187
221
276
355
418
440
433
405
351
277
202
129
60
8
-14
-16
-13
-15
-28
-44
-54
-70
-100
-130
-146
-160
-174
-181
-187
-210
-236
-242
-229
-202
-165
-151
-169
-184
-194
-208
-200
-196
-204
-163
-181
-269
79
845
883
-137
-891
-706
-358
-292
-237
-165
-178
-180
-147
-134
-122
-89
-50
-4
52
113
164
187
173
135
87
34
-26
-94
-155
-190
-204
-213
-221
-228
-242
-267
-295
-315
-330
-348
-365
-377
-385
-391
-396
-409
-431
-446
-440
-409
-361
-325
-326
-332
-328
-332
-325
-306
-315
-302
-271
-337
-212
452
928
321
-662
-854
-505
-339
-318
-261
-246
-252
-218
-189
-166
-124
-79
-33
34
115
186
231
250
251
241
222
189
143
95
69
70
84
100
113
118
118
118
121
122
122
127
138
152
166
185
211
228
223
213
226
263
300
314
314
326
342
357
377
362
339
396
396
347
781
1562
1452
302
-416
-169
157
209
294
392
400
411
420
397
399
435
471
500
512
525
596
706
774
777
745
674
551
439
399
369
296
239
212
123
-23
-104
-82
-35
-14
-3
6
-1
-20
-35
-58
-91
-102
-98
-110
-111
-87
-77
-82
-91
-112
-128
-146
-184
-173
-184
-299
-80
655
873
-46
-943
-877
-495
-399
-368
-314
-348
-372
-350
-375
-409
-390
-347
-290
-189
-65
40
106
125
91
25
-29
-96
-273
-554
-796
-938
-1048
-1166
-1268
-1342
-1397
-1455
-1545
-1658
-1746
-1785
-1784
-1742
-1668
-1583
-1474
-1328
-1180
-1048
-908
-765
-657
-574
-479
-395
-334
-241
-139
-88
-31
-7
-66
208
975
1255
451
-354
-264
145
312
422
556
616
671
755
812
860
922
978
1032
1098
1167
1230
1273
1279
1253
1215
1168
1109
1041
973
920
890
873
852
826
800
774
742
709
675
641
609
585
560
529
497
464
420
367
323
308
327
354
342
291
244
209
173
156
139
103
103
67
-33
241
958
1094
173
-667
-630
-332
-273
-249
-197
-210
-208
-165
-148
-141
-113
-78
-43
-2
49
103
131
119
94
66
10
-69
-153
-246
-324
-344
-332
-339
-360
-374
-387
-406
-423
-429
-426
-430
-442
-450
-463
-488
-503
-514
-531
-528
-486
-440
-437
-467
-481
-483
-495
-480
-450
-465
-454
-426
-505
-324
424
799
-47
-1073
-1088
-626
-461
-415
-315
-296
-302
-258
-229
-209
-164
-126
-94
-28
59
135
183
197
178
136
82
29
-23
-80
-131
-157
-161
-156
-151
-150
-152
-151
-154
-166
-168
-158
-156
-160
-150
-145
-156
-166
-170
-175
-164
-137
-132
-154
-173
-193
-198
-170
-163
-153
-71
-64
-49
493
1259
1065
7
-502
-168
150
217
301
363
360
393
445
477
521
579
633
697
767
827
874
899
894
869
841
810
770
721
676
647
637
644
654
656
658
660
649
626
607
593
573
549
518
467
401
339
286
247
234
243
260
254
219
190
168
131
106
95
56
43
39
-74
29
691
1122
441
-549
-715
-429
-396
-467
-454
-485
-539
-556
-600
-665
-700
-727
-753
-745
-722
-713
-689
-633
-595
-602
-630
-661
-696
-732
-768
-791
-788
-774
-759
-742
-733
-743
-757
-768
-787
-819
-853
-879
-900
-925
-951
-967
-972
-963
-912
-792
-642
-539
-504
-477
-437
-410
-373
-326
-317
-294
-256
-314
-181
490
973
369
-614
-807
-471
-328
-309
-212
-139
-92
2
97
163
221
275
338
420
506
591
674
729
749
762
772
761
735
713
704
716
747
782
815
840
857
871
882
887
892
903
913
913
909
913
926
927
919
925
952
995
1040
1051
1024
1006
995
982
996
997
973
998
954
837
1182
1928
1839
621
-292
-188
140
203
154
-44
-368
-531
-487
-471
-587
-693
-638
-467
-315
-201
-96
-50
-85
-124
-134
-187
-316
-469
-591
-664
-701
-733
-770
-803
-833
-869
-906
-950
-1006
-1063
-1108
-1136
-1146
-1146
-1143
-1141
-1127
-1082
-1012
-942
-890
-873
-877
-890
-940
-984
-935
-843
-778
-682
-658
-711
-314
517
603
-373
-1069
-831
-436
-298
-158
-12
45
105
174
199
213
230
240
283
378
490
587
655
677
668
654
613
511
402
365
373
352
302
252
199
148
115
93
74
69
75
80
92
111
128
140
141
119
62
-19
-97
-137
-152
-192
-254
-295
-324
-359
-376
-412
-477
-454
-391
-362
41
910
1207
396
-374
-236
192
365
480
609
648
666
692
691
706
752
792
848
939
1036
1128
1198
1208
1166
1119
1069
995
912
838
778
744
733
720
684
623
537
430
312
196
87
-17
-134
-295
-497
-699
-874
-1008
-1066
-1022
-932
-845
-748
-617
-490
-423
-397
-375
-361
-343
-304
-284
-267
-231
-296
-291
248
907
604
-425
-885
-617
-424
-493
-573
-668
-790
-824
-755
-658
-574
-497
-413
-330
-255
-185
-143
-147
-145
-90
-27
-11
-17
-6
13
35
82
140
171
190
216
236
244
259
263
245
247
272
220
27
-201
-331
-392
-456
-495
-523
-597
-659
-644
-617
-594
-538
-492
-474
-447
-431
-369
-241
-234
-138
557
1235
736
-372
-647
-208
46
113
237
287
268
299
332
348
391
435
464
515
583
649
708
731
699
645
592
530
459
386
309
245
210
189
168
156
149
125
89
52
16
-17
-38
-56
-79
-101
-117
-133
-155
-173
-174
-154
-122
-89
