# session 8
-73
-32
132
122
-207
-382
-66
326
379
304
401
576
568
379
346
608
810
800
915
1125
994
627
429
318
172
147
90
-225
-521
-583
-673
-1037
-1761
-2658
-3007
-2360
-1313
-544
36
571
877
1057
1341
1592
1711
1705
1289
539
123
98
-66
-307
-318
-311
-468
-681
-946
-1251
-1514
-1808
-2029
-1784
-1004
-118
297
-31
-477
-190
422
355
-245
-697
-1012
-1264
-1152
-602
163
715
758
806
1251
1281
429
-432
-777
-1036
-1420
-1799
-2143
-2368
-2465
-2640
-2874
-2971
-2960
-2708
-1957
-1172
-901
-714
-330
-331
-723
-755
-388
-196
-236
-250
-330
-534
-515
-142
254
516
740
855
850
900
1038
1197
1325
1414
1616
1837
1806
2041
2954
3248
1901
318
28
367
108
-580
-863
-655
-398
-180
113
442
800
1115
1183
1129
1250
1465
1577
1660
1761
1760
1685
1715
1812
1752
1598
1581
1629
1608
1634
1714
1697
1694
1911
2069
1830
1641
1814
1652
1047
775
534
-22
315
1526
1538
202
-433
85
587
687
635
579
665
784
829
1054
1313
1049
387
-119
-468
-968
-1386
-1197
-787
-1062
-1604
-1512
-1397
-1904
-2359
-2591
-3047
-3116
-2229
-1355
-1519
-2382
-3134
-3573
-3920
-4241
-4432
-4479
-4339
-3838
-3087
-2522
-2068
-1220
-329
-293
-838
-914
-467
-43
448
1027
930
-100
-1139
-1656
-2175
-2680
-2332
-1229
-410
-128
58
197
284
559
847
842
836
1121
1383
1459
1598
1785
1962
2211
2162
1943
2567
3514
3162
2100
1939
2355
2360
2019
1726
1531
1474
1757
1813
529
-1223
-1402
-621
-693
-1099
-958
-933
-1150
-1000
-629
-337
-112
-109
-238
-116
178
410
726
1102
1228
1184
1303
1486
1433
1312
1421
1511
1349
1317
1602
1892
2071
1970
1382
932
1171
1537
1607
1633
1666
1567
1372
1461
2159
2494
1096
-1276
-2827
-3477
-4049
-4602
-5015
-5361
-5476
-5198
-4477
-3311
-2262
-2056
-2503
-3004
-3400
-3473
-3033
-2527
-2245
-1858
-1384
-1154
-938
-443
-39
-89
-248
-41
358
560
649
802
919
998
1086
1055
967
958
761
233
-133
169
1002
1592
1217
242
-198
220
720
747
603
702
938
1115
1358
1559
1330
961
1149
1672
1737
1379
1165
1089
860
613
631
860
957
910
1112
1230
912
1150
1642
902
1185
4265
5340
2180
192
978
371
-1596
-1842
-890
-566
-284
869
1809
1284
205
84
670
968
985
1169
1113
-27
-1805
-2762
-2603
-2081
-1388
-617
-356
-581
-508
10
258
-49
-424
-540
-397
-115
-259
-1199
-2308
-3000
-3435
-3698
-3775
-3885
-3851
-3214
-2310
-1866
-1607
-896
-171
56
211
504
916
1786
2460
1818
733
699
1316
1719
2005
2198
2254
2554
2745
2044
1130
958
793
201
179
660
584
154
17
45
119
259
518
955
848
-339
-1630
-2504
-3572
-4194
-3541
-2919
-3167
-2912
-1631
-552
-104
272
621
788
982
1072
923
1348
2152
1415
26
668
1134
-278
1362
5882
5550
1036
-651
-10
-225
-548
-911
-1778
-1886
-1219
-978
-1038
-723
-226
-219
-748
-1058
-1037
-1382
-1901
-1735
-1000
-604
-964
-1433
-1283
-1054
-1130
-783
-534
-912
-455
-268
-1876
-566
4646
5480
1050
-885
-381
-1322
-1761
-736
-308
-147
418
548
374
530
857
1033
887
616
670
976
1244
1480
1492
1035
520
493
756
754
428
230
397
647
756
814
622
-51
-620
-530
-264
-184
33
279
190
112
449
722
491
713
2064
2676
1129
-523
-624
-514
-935
-994
-708
-698
-771
-459
89
106
-428
-605
-628
-651
326
649
-942
374
5277
5564
715
-915
761
519
-604
-540
-593
-895
-699
-652
-1150
-1736
-2037
-2013
-1983
-1986
-1652
-1333
-1561
-1722
-1232
-500
277
1040
985
16
-491
-110
21
-104
243
90
-776
-217
1426
1203
-318
-406
416
501
204
54
-20
116
280
209
295
687
958
1196
1647
1829
1619
1642
1863
1833
1829
1982
1783
1239
679
-94
-934
-1025
-270
510
810
985
1712
2714
2567
920
-690
-1207
-983
-449
126
533
954
1268
816
-340
-1329
-1933
-2683
-3394
-3184
-2247
-1817
-2206
-2738
-3084
-3295
-3497
-3754
-3782
-3477
-3204
-3116
-2919
-2004
-647
-351
-316
1231
1421
-238
2816
8673
6879
-85
-2227
-1312
-1874
-1269
538
310
-608
6
1040
1514
1391
535
-148
16
96
-268
-423
-428
-469
-216
50
-298
-1012
-1390
-1335
-1360
-1637
-1599
-1154
-1147
-1514
-1218
-654
-1050
-1969
-2201
-1628
-700
173
464
-74
-968
-1381
-1075
-530
51
732
1421
2404
3538
3558
2490
2131
2792
3254
3420
3783
4075
4147
4269
4306
3984
3526
3237
2990
2618
2393
2510
2477
1934
1362
1106
957
931
939
510
-131
-362
-398
-564
-646
-727
-891
-668
-146
-49
-279
-307
-308
-396
-195
100
-29
-90
658
1445
872
-783
-1975
-2102
-1728
-1389
-1235
-1070
-533
119
93
-398
-146
787
998
375
10
-16
-149
-120
123
48
-467
-1060
-1451
-1605
-1747
-2036
-2227
-2075
-1845
-2041
-2742
-3406
-3508
-3313
-3451
-3827
-3981
-4041
-4186
-4247
-4410
-4623
-4074
-3053
-2994
-3705
-3711
-2845
-1906
-1396
-1330
-926
214
869
424
153
631
993
993
1081
1265
1445
1717
1909
1820
1719
1858
2004
1913
1786
1900
2100
2071
1909
1912
2033
2045
1942
1839
1745
1660
1639
1631
1578
1604
1664
1621
1914
2798
3181
2267
1237
1196
1445
1299
1148
1164
1063
896
837
830
823
795
711
660
750
876
890
849
835
758
607
556
608
589
498
419
317
219
221
243
162
81
111
108
-15
-71
-65
-148
-138
-121
-380
-124
844
421
-1564
-1925
-551
-623
-1816
-1834
-1405
-1599
-1659
-1501
-1575
-1508
-1220
-1116
-1108
-989
-885
-856
-824
-781
-751
-715
-668
-652
-667
-640
-582
-577
-619
-654
-670
-638
-554
-476
-444
-452
-454
-398
-299
-169
-94
-221
-249
321
928
545
-379
-657
-375
-240
-246
-192
-159
-148
-90
-29
12
58
113
160
197
250
328
389
423
459
477
451
436
461
484
494
452
333
293
321
177
105
339
307
73
322
123
-1037
-1328
-923
-1382
-390
2912
3624
634
-1147
-601
-316
-353
-28
45
-70
28
54
-31
19
99
99
117
149
152
189
260
275
240
221
210
187
178
203
256
276
207
130
137
148
105
105
140
103
72
143
217
242
212
14
-90
333
720
133
-881
-1120
-712
-447
-366
-252
-187
-179
-124
-56
-31
-16
41
122
117
-16
-158
-261
-459
-760
-921
-790
-507
-281
-161
-84
-31
-9
9
46
77
99
148
208
218
208
221
220
253
303
163
143
839
1594
1224
249
-77
104
141
118
153
119
85
119
143
150
167
178
193
210
210
215
237
235
205
198
223
243
241
217
173
119
58
-22
-99
-127
-118
-110
-121
-160
-195
-203
-241
-287
-290
-381
-458
-65
519
333
-500
-899
-685
-487
-443
-376
-331
-332
-309
-282
-267
-234
-191
-155
-116
-78
-49
-12
24
37
44
76
122
151
154
134
99
62
16
-43
-86
-93
-82
-83
-111
-136
-140
-163
-171
-126
-192
-283
99
689
457
-456
-815
-461
-199
-174
-107
-54
-73
-61
-25
-6
27
65
92
130
179
217
239
244
237
234
244
258
268
267
250
211
158
112
82
53
16
-9
-20
-45
-75
-87
-108
-105
-72
-174
-265
145
721
456
-438
-769
-417
-159
-145
-87
-7
-2
-9
14
44
65
78
89
103
129
154
174
210
251
258
255
274
278
246
216
193
145
75
24
0
-17
-19
-8
-28
-59
-59
-85
-109
-41
-78
-241
36
661
550
-334
-750
-421
-126
-78
-33
-11
-30
-12
15
33
62
92
128
173
206
248
298
321
335
364
375
359
345
330
294
243
194
148
92
26
-13
5
23
-26
-87
-119
-177
-205
-166
-281
-426
-51
521
279
-560
-866
-581
-398
-390
-335
-303
-324
-314
-290
-282
-256
-226
-230
-239
-209
-164
-142
-130
-105
-80
-62
-42
-26
-24
-38
-72
-126
-171
-189
-197
-189
-150
-125
-145
-146
-120
-151
-160
-99
-186
-267
205
808
475
-452
-740
-395
-177
-144
-80
-57
-65
-28
-2
7
45
76
82
111
153
175
198
225
228
230
255
272
269
264
254
231
209
193
178
171
183
209
213
199
221
238
210
237
245
117
269
870
994
205
-409
-207
106
112
110
168
159
143
161
174
187
205
213
219
230
261
312
344
331
302
290
288
274
243
205
166
120
63
14
-11
-25
-26
-23
-50
-88
-106
-149
-183
-142
-214
-368
-61
547
403
-486
-925
-659
-414
-378
-336
-321
-348
-339
-323
-320
-305
-303
-323
-329
-304
-267
-260
-291
-319
-322
-314
-302
-302
-314
-325
-342
-368
-387
-395
-389
-342
-263
-216
-215
-196
-160
-158
-138
-119
-229
-182
394
881
456
-337
-522
-267
-124
-78
-29
-19
7
57
64
62
76
46
-1
17
79
123
139
121
94
121
188
216
203
189
160
94
8
-42
-23
30
65
77
76
84
109
111
142
215
119
-3
415
1022
742
-176
-487
-132
100
111
155
188
181
201
214
205
224
259
284
316
360
398
428
453
461
458
459
454
421
375
339
301
246
191
149
118
108
106
86
63
32
-46
-87
-14
-65
-285
-73
608
627
-309
-930
-662
-301
-262
-264
-241
-255
-244
-231
-264
-287
-279
-267
-241
-207
-190
-176
-153
-146
-148
-127
-75
11
91
89
27
6
35
43
19
20
70
117
114
98
95
75
98
148
20
-83
355
916
630
-176
-414
-130
16
26
83
75
11
16
39
31
46
87
109
101
88
117
177
182
124
110
165
187
126
35
-43
-120
-198
-253
-282
-291
-284
-311
-400
-461
-435
-421
-419
-343
-375
-527
-256
400
390
-488
-1073
-864
-540
-473
-473
-492
-563
-601
-597
-609
-634
-654
-635
-532
-410
-378
-394
-368
-322
-320
-351
-370
-373
-378
-383
-385
-400
-419
-423
-431
-427
-385
-362
-376
-367
-354
-320
-207
-203
-295
66
732
574
-414
-891
-541
-214
-145
-56
13
25
88
172
238
323
387
414
466
556
637
678
663
628
648
705
711
687
704
738
754
775
800
805
797
804
818
823
865
958
994
982
1043
1030
931
1287
2040
2112
1309
800
1018
1271
1303
1405
1549
1551
1489
1498
1528
1517
1540
1626
1681
1695
1723
1751
1749
1724
1728
1816
1870
1695
1313
917
645
511
401
231
97
20
-171
-495
-854
-1368
-2043
-2445
-2444
-2650
-3273
-3509
-3113
-3136
-3901
-4190
-3469
-2669
-2327
-2095
-1821
-1609
-1400
-1188
-1071
-958
-749
-755
-1269
-1802
-1688
-1146
-791
-698
-626
-487
-325
-225
-195
-147
-118
-230
-436
-611
-759
-896
-995
-1091
-1188
-1202
-1180
-1235
-1262
-1218
-1324
-1411
-1024
-505
-542
-840
-837
-854
-1187
-1354
-1041
-582
-223
87
309
408
539
737
853
894
983
1111
1186
1188
1208
1243
1079
736
588
717
844
898
950
950
909
917
970
1012
1026
1022
1012
1002
1036
1030
876
930
1536
2019
1557
659
341
563
439
-433
-1291
-1268
-696
-351
-213
5
208
329
474
629
711
747
817
912
954
952
985
1056
1108
1125
1112
1097
1125
1173
1179
1160
1182
1259
1292
1193
1136
1257
1087
143
-992
-1117
-98
610
-120
-1513
-2294
-2321
-1983
-1538
-1163
-791
-360
-59
104
328
607
830
986
1122
1285
1470
1603
1678
1774
1915
2061
2150
2203
2350
2423
1954
1080
533
434
331
198
224
203
-52
-397
-741
-1080
-1303
-1524
-1847
-1741
-1080
-1018
-2013
-2777
-2660
-2529
-2771
-2880
-2732
-2610
-2598
-2618
-2508
-2061
-1355
-803
-664
-733
-653
-322
86
314
205
-64
-123
-12
-143
-549
-903
-1147
-1402
-1589
-1648
-1702
-1811
-1910
-1965
-2016
-2076
-2100
-2095
-2008
-1417
-80
1107
1038
225
-41
191
108
-244
-470
-660
-847
-907
-988
-1044
-604
422
1566
2335
2464
2143
1839
1640
1459
1463
1655
1817
1935
2029
2009
1907
1779
1609
1438
1331
1267
1192
1055
888
795
765
708
614
428
259
548
1094
923
43
-427
-270
-178
-181
65
351
401
351
369
498
841
1504
2307
2788
2726
2350
1897
1521
1453
1642
1729
1664
1631
1612
1545
1473
1360
1159
957
822
711
567
369
142
-97
-347
-539
-700
-1014
-1278
-992
-509
-819
-1809
-2379
-2199
-1848
-1673
-1588
-1493
-1397
-1335
-1315
-1355
-1479
-1642
-1792
-1909
-1933
-1899
-1978
-2167
-2279
-2296
-2339
-2401
-2407
-2407
-2480
-2568
-2604
-2606
-2571
-2515
-2530
-2613
-2638
-2567
-2507
-2511
-2464
-2361
-2451
-2561
-2059
-1347
-1648
-2668
-3033
-2786
-2661
-2348
-1647
-1080
-626
-13
439
630
898
1154
1176
1239
1609
2112
2517
2818
3041
3142
3186
3322
3502
3589
3675
3836
3941
4010
4146
4094
3723
3489
3705
4022
4086
4041
4146
4257
4169
4329
5001
5273
4539
3749
3743
4000
3850
3475
3400
3728
4080
4180
4229
4409
4460
4192
3845
3499
2891
2076
1394
815
125
-549
-1057
-1543
-2029
-2350
-2570
-2862
-3172
-3388
-3518
-3602
-3725
-3924
-4069
-4104
-4184
-4284
-4224
-4220
-4427
-4233
-3450
-3222
-4053
-4777
-4695
-4421
-4368
-4413
-4460
-4354
-4072
-3871
-3789
-3660
-3531
-3510
-3501
-3368
-3152
-3023
-3057
-3104
-2904
-2404
-1970
-1869
-1731
-1311
-1053
-995
-500
444
1169
1300
874
285
63
79
-180
-568
-787
-1180
-1742
-1705
-1209
-1502
-2657
-3215
-2495
-1259
-193
669
1373
1907
2328
2678
2990
3317
3630
3889
4183
4472
4442
4058
3707
3572
3548
3643
3880
4141
4345
4470
4554
4656
4755
4842
4876
4633
4058
3500
3190
2995
2800
2666
2567
2268
1837
1856
2266
1996
846
-16
-148
-253
-557
-735
-803
-910
-1027
-1166
-1343
-1471
-1550
-1658
-1760
-1779
-1775
-1852
-1995
-2101
-2134
-2173
-2265
-2345
-2395
-2466
-2527
-2527
-2513
-2513
-2497
-2485
-2505
-2551
-2598
-2618
-2633
-2656
-2660
-2734
-2790
-2381
-1719
-1832
-2648
-2740
-1681
-444
486
1292
1821
1894
1689
1264
813
956
1736
2407
2733
3010
3082
2813
2620
2610
2422
2056
1748
1456
1154
944
785
628
541
469
352
293
281
194
85
5
-98
-133
-139
-336
-353
257
687
37
-897
-1020
-681
-562
-588
-551
-523
-576
-641
-610
-512
-482
-525
-546
-532
-522
-522
-528
-558
-620
-662
-643
-619
-637
-647
-616
-542
-396
-187
5
143
230
235
139
-19
