# session 17
14
164
-340
192
2367
3916
3716
3236
3233
3134
2923
2858
2775
2634
2542
2441
2308
2203
2105
1993
1893
1804
1712
1622
1532
1442
1351
1254
1162
1089
1039
1006
970
899
815
752
691
619
571
519
455
441
377
265
591
1317
1305
241
-557
-415
-111
-92
-85
-50
-90
-119
-116
-130
-137
-132
-133
-121
-88
-50
-14
10
0
-43
-96
-156
-225
-298
-367
-435
-492
-523
-535
-547
-559
-568
-578
-592
-606
-623
-643
-660
-671
-673
-664
-649
-638
-630
-628
-633
-635
-621
-590
-541
-495
-484
-500
-504
-509
-523
-505
-482
-486
-446
-448
-518
-172
620
719
-289
-1092
-921
-542
-459
-401
-313
-307
-293
-244
-217
-191
-146
-102
-51
13
84
157
221
249
244
224
200
166
120
70
27
2
-5
-1
5
10
11
10
5
-4
-10
-14
-17
-19
-14
-6
2
8
13
10
-1
-3
19
60
106
127
115
109
116
109
112
132
116
120
152
69
151
837
1402
785
-327
-579
-186
4
21
96
121
102
126
147
151
177
209
238
282
333
384
435
464
457
429
392
345
285
219
155
105
74
57
47
41
34
24
11
-3
-15
-25
-38
-52
-64
-73
-77
-81
-94
-114
-125
-116
-85
-39
-14
-29
-48
-45
-56
-67
-48
-52
-63
-22
-74
-111
404
1147
901
-228
-787
-477
-191
-165
-105
-50
-63
-53
-28
-23
-3
30
53
85
132
188
242
275
280
268
244
205
157
103
43
-11
-45
-62
-74
-85
-95
-106
-118
-134
-151
-163
-170
-176
-182
-183
-182
-191
-213
-235
-245
-240
-209
-160
-144
-173
-191
-184
-201
-217
-199
-208
-211
-172
-239
-211
401
1046
600
-499
-883
-543
-310
-271
-195
-156
-167
-141
-111
-98
-66
-20
20
63
117
176
232
271
285
277
257
227
168
93
33
-10
-42
-51
-51
-64
-77
-83
-96
-108
-103
-102
-115
-116
-113
-125
-133
-128
-125
-113
-69
-25
-29
-55
-52
-47
-59
-33
-3
-26
2
30
-57
193
966
1163
175
-740
-641
-231
-104
-35
43
19
1
34
40
37
67
117
176
229
262
304
369
408
387
341
311
289
258
218
172
132
116
126
142
145
131
109
88
67
44
29
24
17
2
-12
-17
-11
0
13
22
13
-15
-29
-38
-72
-91
-72
-80
-86
-51
-138
-188
322
970
608
-486
-929
-590
-318
-265
-186
-143
-165
-155
-138
-137
-107
-62
-22
30
95
162
224
256
241
198
148
90
26
-36
-94
-147
-182
-194
-188
-165
-132
-101
-86
-88
-102
-120
-140
-159
-176
-197
-223
-239
-230
-197
-152
-111
-102
-120
-124
-110
-108
-102
-76
-76
-73
-39
-102
-96
458
1133
816
-247
-705
-395
-142
-111
-45
5
-8
5
27
34
57
92
118
153
201
251
298
334
345
330
299
256
203
144
84
21
-38
-69
-65
-48
-34
-24
-20
-26
-37
-47
-56
-67
-79
-92
-109
-132
-154
-167
-156
-122
-80
-60
-73
-94
-97
-99
-111
-100
-80
-84
-63
-69
-155
81
818
1111
300
-603
-626
-282
-176
-145
-70
-56
-53
-23
-11
4
36
57
83
137
197
255
319
362
364
336
294
241
187
141
93
43
-2
-34
-44
-35
-22
-13
-12
-17
-24
-32
-46
-55
-53
-56
-68
-80
-98
-128
-152
-161
-155
-130
-108
-123
-159
-164
-154
-170
-172
-151
-169
-168
-127
-200
-124
561
1149
544
-586
-850
-444
-224
-172
-75
-40
-43
-3
13
4
30
73
113
168
240
317
393
444
456
439
405
356
303
251
190
121
71
54
51
44
32
21
11
2
-7
-24
-52
-73
-73
-75
-102
-138
-156
-157
-157
-167
-189
-209
-213
-205
-188
-168
-165
-187
-203
-202
-207
-200
-168
-165
-164
-125
-179
-178
356
1010
671
-405
-860
-541
-285
-249
-180
-135
-149
-131
-106
-103
-83
-52
-27
11
65
120
178
231
253
239
204
163
118
72
29
-9
-42
-61
-54
-29
-5
12
27
35
30
16
-2
-18
-31
-41
-47
-50
-49
-42
-31
-23
-17
-11
-3
3
11
18
23
30
36
33
21
13
22
54
104
145
146
123
117
122
110
112
129
125
140
139
62
252
928
1250
507
-411
-495
-159
-41
-14
55
60
43
69
89
103
134
163
189
227
273
324
376
405
395
353
300
243
180
112
44
-23
-87
-140
-172
-185
-193
-209
-238
-271
-298
-316
-333
-356
-385
-411
-429
-442
-452
-458
-466
-474
-471
-457
-445
-432
-418
-410
-402
-368
-305
-240
-190
-167
-168
-156
-128
-118
-101
-66
-58
-32
25
-30
56
708
1264
703
-356
-615
-236
-21
22
90
100
82
111
131
140
182
226
257
303
365
437
513
569
585
567
526
473
411
341
270
209
147
90
70
78
73
55
40
25
13
4
-14
-40
-56
-57
-57
-67
-85
-89
-79
-78
-87
-92
-101
-121
-142
-150
-142
-123
-102
-93
-108
-126
-132
-147
-162
-155
-164
-170
-130
-189
-222
285
985
688
-453
-996
-675
-386
-354
-286
-225
-240
-224
-191
-191
-184
-165
-151
-126
-77
-19
42
102
135
129
93
36
-29
-87
-137
-187
-237
-277
-297
-295
-282
-270
-261
-254
-251
-249
-246
-242
-241
-244
-241
-232
-223
-217
-208
-200
-197
-192
-172
-132
-74
-18
8
3
7
29
42
58
98
114
125
173
143
156
671
1355
1112
75
-424
-118
178
239
323
395
405
442
493
522
558
602
640
687
745
806
875
938
971
966
936
887
822
754
693
632
562
501
467
453
446
444
443
437
422
393
355
320
291
267
242
217
192
172
153
129
97
59
14
-30
-57
-59
-44
-39
-72
-139
-204
-264
-330
-375
-406
-470
-521
-548
-664
-621
-50
417
-158
-1193
-1481
-1172
-1022
-1031
-985
-982
-1024
-1032
-1042
-1067
-1065
-1050
-1045
-1042
-1024
-979
-919
-876
-857
-859
-889
-947
-1010
-1061
-1102
-1130
-1138
-1118
-1076
-1022
-959
-889
-820
-750
-679
-615
-551
-470
-385
-308
-223
-129
-53
8
74
147
232
343
456
527
564
610
661
680
700
757
787
794
833
775
738
1226
1887
1559
435
-67
262
517
467
394
295
165
119
145
194
278
397
538
694
838
973
1121
1252
1321
1321
1263
1185
1146
1137
1084
992
933
901
854
830
864
903
910
910
892
812
693
603
559
517
428
293
158
60
11
6
28
64
100
119
131
158
186
205
229
236
253
331
317
267
712
1470
1336
215
-479
-273
-24
-47
-25
29
15
27
59
41
7
-16
-93
-287
-585
-893
-1114
-1245
-1401
-1680
-2048
-2423
-2737
-2876
-2792
-2637
-2536
-2414
-2190
-1924
-1695
-1504
-1340
-1204
-1101
-1027
-976
-933
-885
-827
-786
-787
-781
-703
-573
-444
-315
-184
-87
-33
5
48
104
187
283
334
358
413
377
285
649
1391
1386
389
-308
-109
222
284
334
401
393
391
418
433
444
456
467
497
556
633
717
796
842
829
751
649
574
547
547
555
553
494
365
249
204
184
180
234
313
347
343
342
343
342
347
352
360
385
399
377
348
342
341
314
222
79
-11
6
75
169
274
334
391
487
496
579
1164
1776
1379
326
-82
217
410
377
373
354
285
253
239
215
211
223
232
248
283
341
419
492
536
547
533
502
469
439
360
171
-80
-286
-416
-507
-582
-644
-695
-738
-780
-823
-871
-918
-955
-968
-968
-976
-1002
-1027
-1032
-1022
-1002
-963
-893
-815
-767
-760
-765
-757
-750
-748
-733
-740
-757
-693
-649
-703
-384
445
702
-180
-993
-837
-382
-216
-117
9
66
129
221
288
368
470
519
482
405
362
395
462
485
423
302
199
146
111
93
111
109
41
-27
-49
-89
-183
-273
-328
-412
-576
-754
-845
-850
-846
-885
-970
-1042
-990
-823
-684
-615
-519
-387
-326
-355
-345
-224
-81
23
107
163
241
348
324
403
1071
1704
1174
42
-264
155
398
440
539
585
571
601
632
643
685
746
796
846
912
994
1082
1152
1191
1200
1180
1142
1099
1050
989
924
870
831
799
780
780
779
756
733
726
710
681
659
634
598
577
570
545
508
473
427
386
389
403
337
187
49
-20
-82
-202
-374
-578
-746
-842
-1004
-1105
-655
6
-256
-1301
-1770
-1450
-1213
-1215
-1121
-1018
-1047
-1086
-1059
-990
-913
-861
-801
-705
-647
-635
-556
-427
-388
-451
-531
-593
-615
-588
-566
-562
-522
-450
-403
-392
-404
-459
-547
-608
-636
-677
-717
-707
-648
-573
-499
-422
-320
-201
-120
-97
-91
-72
-28
52
150
238
303
329
307
270
272
308
317
311
277
129
161
746
1218
636
-386
-639
-267
7
154
310
382
413
483
538
556
574
599
631
681
745
813
882
935
942
896
841
802
738
613
462
333
232
150
86
40
9
-11
-38
-77
-98
-83
-60
-61
-78
-92
-95
-90
-84
-73
-58
-47
-39
-22
8
53
106
137
131
110
77
8
-89
-160
-190
-235
-287
-289
-345
-421
-53
648
608
-374
-1042
-815
-421
-272
-160
-59
-31
14
86
131
169
213
248
285
343
415
488
553
599
597
540
461
387
314
244
179
115
51
8
4
24
42
54
66
70
50
20
-5
-24
-48
-82
-116
-142
-166
-190
-205
-224
-262
-309
-348
-370
-362
-316
-259
-231
-241
-259
-266
-273
-278
-270
-278
-279
-231
-269
-331
61
689
435
-712
-1399
-1209
-963
-975
-967
-881
-759
-618
-576
-638
-661
-614
-547
-461
-333
-166
8
131
176
162
109
56
68
132
156
117
69
29
20
123
340
559
730
873
978
1048
1131
1229
1287
1253
1132
976
836
779
843
863
650
363
240
204
139
75
-31
-168
-197
-218
-424
-658
-751
-808
-839
-854
-937
-710
-27
73
-954
-1860
-1743
-1317
-1163
-1062
-956
-918
-842
-731
-649
-573
-540
-550
-465
-272
-65
172
415
538
552
594
680
720
687
631
596
567
525
496
509
546
582
616
647
664
661
657
667
682
692
719
763
796
821
852
886
922
964
996
1026
1068
1090
1060
1006
949
871
780
680
562
474
437
366
274
232
115
44
499
1093
692
-487
-1054
-799
-563
-560
-553
-576
-645
-678
-706
-747
-762
-766
-769
-747
-708
-654
-566
-469
-399
-338
-290
-302
-380
-471
-547
-612
-671
-718
-743
-748
-743
-727
-699
-670
-655
-655
-655
-631
-574
-505
-449
-414
-390
-365
-350
-368
-408
-441
-461
-480
-492
-480
-438
-385
-348
-337
-336
-320
-290
-268
-256
-230
-211
-192
-137
-144
-154
281
1027
1042
155
-423
-183
150
226
291
366
365
366
393
407
423
445
469
508
550
587
635
694
736
745
725
684
630
570
518
485
450
393
333
296
278
263
248
238
223
199
178
165
130
55
-29
-87
-126
-171
-219
-259
-290
-313
-324
-316
-287
-239
-174
-111
-88
-121
-163
-171
-173
-188
-184
-173
-186
-171
-173
-242
-2
707
969
166
-706
-710
-362
-263
-246
-188
-188
-204
-186
-175
-159
-122
-89
-62
-26
24
93
173
243
294
311
285
251
246
262
273
270
254
235
232
248
281
319
344
352
354
356
359
368
378
386
402
422
435
445
448
434
415
405
402
409
430
433
393
338
305
275
229
205
195
154
151
175
72
138
798
1327
708
-385
-675
-362
-219
-217
-171
-195
-280
-334
-386
-440
-455
-448
-455
-454
-394
-288
-219
-221
-248
-278
-342
-429
-479
-484
-493
-523
-563
-609
-649
-668
-698
-781
-892
-983
-1047
-1095
-1116
-1112
-1114
-1149
-1209
-1268
-1316
-1354
-1358
-1311
-1257
-1218
-1139
-1041
-1042
-1050
-788
-256
264
660
1008
1295
1416
1392
1592
2252
2599
1811
678
419
737
840
797
822
799
716
646
585
557
559
529
485
473
479
499
527
500
384
263
229
259
278
258
190
89
24
42
78
44
-52
-135
-155
-116
-39
24
35
27
31
16
-14
-9
-11
-107
-263
-377
-433
-473
-517
-569
-634
-693
-723
-741
-767
-777
-777
-804
-813
-819
-900
-742
-43
421
-199
-1122
-1215
-822
-660
-610
-480
-394
-344
-265
-201
-153
-89
2
143
298
397
477
585
661
721
877
1094
1247
1352
1450
1505
1525
1513
1398
1239
1213
1311
1371
1354
1321
1263
1159
1040
966
959
973
943
888
811
625
322
30
-157
-230
-214
-177
-186
-228
-250
-243
-244
-257
-248
-238
-242
-211
-220
-293
-12
708
901
59
-773
-785
-513
-464
-482
-492
-555
-616
-655
-701
-737
-764
-779
-741
-652
-553
-455
-354
-292
-327
-447
-578
-685
-784
-882
-964
-1035
-1104
-1162
-1187
-1187
-1185
-1185
-1185
-1191
-1177
-1106
-1004
-924
-870
-824
-780
-729
-671
-632
-615
-577
-501
-418
-348
-282
-236
-229
-213
-126
16
167
286
351
421
467
416
610
1274
1580
844
-36
-82
277
423
471
548
582
625
704
755
789
841
896
954
1018
1079
1133
1185
1228
1251
1245
1216
1179
1137
1084
1031
981
930
879
836
798
757
717
682
651
622
592
560
527
493
445
378
294
201
114
60
41
31
-2
-67
-142
-200
-246
-298
-334
-353
-401
-431
-427
-532
-538
3
580
163
-869
-1270
-1000
-806
-791
-749
-736
-767
-772
-777
-794
-796
-792
-786
-768
-750
-733
-705
-672
-654
-663
-700
-754
-821
-900
-974
-1044
-1119
-1180
-1209
-1228
-1247
-1261
-1275
-1293
-1306
-1315
-1322
-1331
-1342
-1312
-1183
-968
-744
-551
-365
-163
46
228
354
445
559
712
834
884
888
864
888
1047
1180
1327
1992
2914
2894
1921
1364
1641
2017
2224
2433
2569
2614
2739
2930
2995
2827
2500
2191
1987
1826
1628
1385
1125
879
651
401
110
-180
-433
-654
-859
-1046
-1208
-1343
-1448
-1525
-1583
-1634
-1685
-1736
-1783
-1825
-1873
-1927
-1963
-1972
-1965
-1938
-1866
-1732
-1568
-1430
-1320
-1193
-1051
-925
