# session 18
-255
-1286
2257
-1598
-16999
-27931
-26696
-23639
-23849
-23224
-21737
-21250
-20588
-19485
-18768
-18060
-17164
-16432
-15741
-14965
-14259
-13603
-12926
-12278
-11658
-11036
-10433
-9853
-9285
-8735
-8198
-7656
-7106
-6571
-6084
-5644
-5218
-4789
-4375
-3981
-3579
-3193
-2858
-2496
-2123
-1880
-1448
-471
252
-172
-917
-805
-177
234
512
817
1051
1251
1472
1660
1825
2011
2199
2370
2538
2703
2862
3021
3178
3316
3415
3479
3526
3566
3596
3610
3610
3601
3592
3590
3599
3613
3624
3629
3631
3625
3611
3593
3568
3538
3509
3477
3438
3388
3322
3249
3195
3169
3152
3121
3065
2990
2918
2856
2783
2699
2645
2598
2497
2424
2390
2240
2244
2813
3236
2517
1358
1041
1337
1444
1396
1390
1326
1221
1156
1086
1000
935
880
823
776
737
707
686
657
606
534
443
339
229
115
-4
-121
-232
-339
-436
-515
-575
-621
-664
-712
-757
-797
-837
-883
-927
-962
-996
-1030
-1056
-1082
-1117
-1151
-1166
-1156
-1133
-1119
-1129
-1157
-1182
-1187
-1189
-1204
-1206
-1194
-1203
-1195
-1187
-1273
-1147
-492
-55
-700
-1688
-1862
-1503
-1335
-1302
-1223
-1192
-1188
-1149
-1121
-1107
-1077
-1042
-1008
-966
-918
-860
-789
-729
-694
-680
-686
-709
-739
-768
-794
-814
-832
-848
-856
-849
-832
-811
-788
-766
-745
-724
-704
-685
-666
-646
-627
-612
-597
-579
-565
-560
-558
-542
-495
-419
-347
-308
-286
-243
-159
-58
19
89
162
191
208
250
225
332
942
1515
1096
142
-140
205
427
473
550
579
543
520
497
491
534
587
620
654
692
737
792
824
819
804
765
669
544
432
337
267
234
212
180
159
163
179
197
220
239
245
250
262
272
278
287
292
281
273
274
259
255
335
472
573
640
722
788
792
763
731
698
662
639
653
673
669
683
658
562
800
1501
1724
896
41
45
376
454
427
413
366
345
353
332
308
297
278
279
322
381
430
466
497
518
494
409
295
178
51
-85
-212
-322
-418
-497
-549
-575
-593
-612
-628
-646
-671
-689
-712
-751
-783
-795
-814
-852
-881
-866
-807
-753
-721
-664
-582
-535
-532
-562
-629
-687
-704
-742
-801
-819
-839
-847
-800
-832
-773
-153
467
-49
-1188
-1496
-1060
-821
-778
-604
-435
-358
-271
-185
-160
-186
-206
-165
-91
-15
114
289
396
388
318
227
131
36
-91
-250
-377
-464
-563
-662
-731
-794
-859
-904
-937
-956
-924
-865
-823
-742
-549
-314
-117
76
253
313
315
433
645
835
1016
1194
1304
1352
1387
1395
1357
1293
1226
1174
1177
1223
1212
1310
1899
2577
2329
1292
683
798
961
939
924
904
844
813
797
729
601
463
399
434
510
567
586
604
667
706
596
364
122
-97
-282
-404
-497
-596
-673
-724
-765
-783
-794
-839
-907
-952
-975
-994
-1008
-1006
-994
-987
-999
-1022
-1040
-1034
-999
-929
-833
-740
-685
-670
-666
-651
-628
-614
-588
-534
-498
-480
-425
-431
-450
-19
739
755
-156
-776
-573
-252
-174
-110
-35
-23
-7
23
39
66
103
129
157
194
235
284
343
396
429
437
422
392
354
311
260
205
155
109
72
53
49
51
56
60
58
52
46
42
42
39
35
31
21
-2
-25
-34
-36
-23
12
41
36
8
-14
-22
-29
-40
-36
-31
-47
-35
-33
-102
117
819
1144
410
-478
-543
-205
-78
-44
25
41
42
77
100
113
140
167
192
230
275
325
388
454
503
527
532
524
500
465
426
383
329
272
225
199
189
191
203
222
231
220
199
181
170
166
165
166
168
174
178
170
155
152
175
228
294
339
344
339
355
361
327
300
310
297
291
343
300
301
838
1466
981
-366
-1096
-946
-757
-760
-722
-709
-836
-1031
-1208
-1357
-1488
-1548
-1512
-1467
-1418
-1274
-1180
-1349
-1602
-1638
-1493
-1338
-1224
-1156
-1096
-979
-823
-680
-547
-413
-292
-172
-45
63
141
198
232
236
220
206
207
214
219
229
234
211
181
179
202
230
254
261
251
249
263
271
274
300
321
309
332
328
226
448
1170
1397
502
-407
-362
58
235
335
449
474
487
531
544
537
548
569
599
637
672
712
772
840
888
904
889
857
818
770
708
647
598
551
508
488
486
470
441
416
403
408
406
354
279
239
206
138
90
102
104
43
-27
-62
-80
-86
-56
-15
-13
-50
-104
-177
-271
-361
-403
-405
-431
-452
-452
-551
-558
-55
479
61
-936
-1285
-970
-764
-758
-708
-676
-697
-690
-673
-671
-653
-626
-604
-574
-531
-479
-415
-339
-263
-201
-162
-134
-113
-109
-127
-151
-173
-198
-223
-242
-249
-238
-211
-182
-161
-154
-160
-169
-169
-164
-158
-151
-137
-117
-97
-80
-60
-41
-32
-33
-27
-2
44
100
138
132
92
55
41
28
15
25
25
-4
-17
-82
-155
189
866
853
-82
-740
-537
-184
-95
-32
52
77
107
152
175
205
243
263
283
318
354
394
448
509
553
565
553
535
512
472
423
376
322
265
221
197
187
186
189
195
201
205
207
213
222
227
224
209
176
130
95
73
28
-47
-104
-127
-134
-103
-60
-115
-284
-429
-479
-494
-498
-444
-366
-357
-367
-348
-423
-383
200
768
283
-782
-1127
-769
-478
-335
-189
-150
-191
-194
-184
-161
-70
59
172
282
407
551
698
837
964
1070
1136
1170
1196
1213
1209
1185
1146
1118
1093
981
728
418
188
78
33
-18
-94
-187
-266
-267
-195
-150
-159
-172
-197
-245
-263
-248
-253
-254
-233
-275
-421
-565
-618
-633
-677
-712
-720
-755
-778
-737
-777
-765
-230
419
70
-1022
-1487
-1152
-857
-793
-717
-677
-705
-711
-727
-777
-796
-774
-743
-707
-666
-611
-536
-457
-402
-359
-303
-251
-249
-292
-327
-331
-336
-358
-360
-311
-226
-139
-37
103
240
308
330
375
448
515
571
627
676
722
772
816
845
865
881
889
897
892
838
754
700
669
614
567
552
494
417
425
397
337
713
1411
1354
369
-308
-149
143
220
295
367
369
383
407
414
431
434
380
299
241
247
309
354
333
294
282
281
267
236
187
128
73
23
-34
-95
-138
-159
-172
-188
-208
-229
-253
-280
-297
-302
-316
-357
-410
-447
-474
-509
-541
-553
-537
-500
-467
-458
-470
-482
-480
-466
-457
-438
-406
-400
-396
-391
-470
-378
235
763
282
-695
-997
-706
-537
-531
-487
-460
-463
-447
-440
-444
-429
-408
-388
-362
-325
-273
-222
-189
-154
-98
-46
-21
-14
-17
-43
-97
-169
-236
-282
-302
-298
-267
-213
-156
-105
-58
-28
-21
-21
-11
1
14
41
65
59
37
15
-16
-37
-12
37
80
138
241
345
388
383
391
404
385
399
412
323
474
1151
1518
771
-233
-390
-61
78
125
207
203
190
267
344
376
415
480
577
676
678
539
351
238
234
279
342
467
606
637
605
646
705
704
769
876
737
380
193
251
304
278
272
345
510
707
834
848
781
742
826
990
1142
1235
1239
1181
1118
985
699
365
131
-44
-262
-458
-533
-615
-702
-345
343
280
-747
-1475
-1306
-980
-928
-914
-889
-925
-952
-960
-993
-1022
-1037
-1050
-1052
-1035
-1012
-990
-990
-1069
-1232
-1378
-1442
-1494
-1568
-1595
-1580
-1606
-1647
-1594
-1438
-1283
-1181
-1083
-989
-971
-1024
-1062
-1057
-1041
-1025
-998
-948
-884
-837
-808
-753
-659
-544
-408
-257
-131
-49
35
139
245
364
500
605
715
862
895
963
1565
2327
2119
1107
622
910
1169
1176
1191
1219
1217
1233
1237
1205
1180
1179
1182
1175
1160
1148
1142
1154
1190
1218
1208
1177
1143
1097
1038
975
906
826
749
691
652
622
599
585
571
551
534
521
507
488
459
404
312
202
99
12
-48
-75
-87
-119
-177
-267
-409
-603
-790
-893
-939
-1063
-1250
-1328
-1359
-1452
-1233
-559
-289
-950
-1624
-1528
-1149
-1002
-939
-851
-821
-813
-816
-889
-985
-1035
-1048
-1008
-896
-768
-689
-646
-620
-609
-607
-612
-629
-659
-699
-745
-793
-852
-925
-980
-975
-888
-729
-540
-374
-248
-145
-41
51
87
92
136
213
274
322
368
398
423
477
567
660
721
757
816
902
952
970
1067
1242
1346
1391
1453
1462
1650
2357
2895
2313
1268
1027
1425
1663
1725
1849
1984
2105
2246
2351
2394
2402
2386
2365
2352
2310
2225
2128
1984
1732
1443
1215
1012
761
501
298
121
-100
-366
-607
-791
-947
-1080
-1147
-1152
-1158
-1217
-1321
-1419
-1485
-1544
-1610
-1674
-1739
-1811
-1872
-1912
-1935
-1938
-1927
-1935
-1980
-2029
-2056
-2081
-2122
-2154
-2177
-2238
-2286
-2290
-2402
-2444
-1943
-1360
-1780
-2883
-3299
-2838
-2316
-2015
-1809
-1721
-1709
-1675
-1621
-1487
-1229
-983
-842
-698
-514
-412
-379
-251
-57
23
33
121
217
205
149
121
93
59
51
69
90
117
171
269
395
510
579
609
624
626
623
626
625
633
704
827
940
1047
1181
1321
1422
1477
1513
1554
1603
1645
1685
1739
1772
1764
1782
1774
1724
2035
2789
3019
2202
1392
1431
1766
1864
1897
1956
1961
1971
2008
2017
2017
2033
2055
2084
2118
2153
2184
2213
2256
2293
2291
2299
2311
2112
1575
953
593
506
423
208
-17
-179
-314
-395
-460
-635
-855
-1000
-1159
-1400
-1615
-1743
-1808
-1827
-1823
-1814
-1792
-1772
-1770
-1757
-1724
-1719
-1791
-1890
-1909
-1841
-1759
-1680
-1597
-1515
-1412
-1385
-1431
-1092
-360
-304
-1304
-2124
-2035
-1758
-1764
-1773
-1744
-1825
-1875
-1739
-1501
-1298
-1156
-1035
-914
-792
-665
-536
-429
-350
-289
-282
-365
-471
-508
-494
-493
-501
-489
-446
-370
-280
-233
-285
-415
-534
-588
-612
-640
-667
-687
-682
-629
-555
-500
-446
-341
-178
6
177
312
409
484
552
624
698
767
852
960
1069
1178
1205
1110
1297
2025
2413
1668
704
643
1066
1245
1283
1351
1366
1379
1448
1503
1537
1584
1626
1657
1696
1749
1805
1858
1906
1940
1934
1882
1807
1730
1649
1569
1473
1304
1058
816
638
503
374
239
104
-14
-108
-187
-269
-358
-443
-516
-586
-672
-763
-836
-885
-913
-918
-922
-959
-1020
-1078
-1119
-1160
-1213
-1250
-1271
-1315
-1336
-1334
-1429
-1352
-696
-109
-603
-1605
-1863
-1533
-1381
-1345
-1189
-1070
-1036
-974
-890
-816
-743
-690
-659
-628
-587
-542
-500
-455
-377
-252
-133
-68
-38
-8
25
53
71
74
60
43
30
18
11
16
27
35
44
49
39
23
19
25
25
13
-6
-20
-12
24
78
125
140
133
147
196
251
302
365
402
414
471
478
431
802
1571
1639
663
-97
51
378
430
470
552
561
563
592
592
553
493
425
349
264
210
218
269
329
365
353
322
311
304
281
249
209
147
75
16
-13
-7
16
28
28
41
65
73
64
61
80
113
147
175
205
249
316
417
517
559
551
554
589
615
618
628
627
560
497
461
342
431
1095
1591
953
-94
-289
99
259
288
457
547
391
160
10
-117
-319
-550
-729
-857
-951
-1004
-1028
-1046
-1067
-1103
-1154
-1203
-1251
-1312
-1378
-1428
-1466
-1502
-1532
-1546
-1549
-1545
-1538
-1541
-1544
-1532
-1531
-1553
-1575
-1624
-1688
-1606
-1301
-924
-599
-298
-4
235
397
497
581
670
736
786
866
939
967
1042
1103
1043
1301
2127
2529
1768
863
849
1271
1440
1323
1030
679
403
168
-67
-275
-478
-627
-613
-495
-399
-317
-187
-6
201
386
498
549
593
609
516
334
155
-13
-156
-191
-157
-171
-177
-82
-7
-77
-165
-173
-242
-400
-450
-362
-310
-322
-306
-265
-246
-246
-241
-238
-273
-304
-259
-212
-210
-161
-152
-157
324
1103
984
-98
-722
-448
-121
-38
73
173
188
227
283
299
315
345
370
397
430
462
503
555
609
646
655
637
604
557
497
430
365
304
245
192
159
145
131
113
98
87
73
59
43
22
-5
-38
-65
-73
-62
-47
-47
-72
-106
-123
-135
-169
-196
-192
-212
-231
-196
-261
-335
116
823
623
-437
-999
-731
-445
-395
-328
-275
-287
-274
-249
-249
-237
-212
-192
-166
-133
-101
-64
-25
3
22
34
28
4
-32
-70
-106
-143
-183
-220
-245
-257
-255
-242
-225
-208
-197
-190
-182
-180
-191
-202
-201
-188
-160
-119
-95
-107
-128
-130
-122
-123
-123
-101
-92
-95
-61
-91
-177
160
939
1102
225
-547
-470
-166
-102
-70
-8
-3
4
34
43
54
78
96
117
149
182
218
263
308
340
356
355
341
318
289
257
226
195
164
138
125
120
119
119
125
134
141
146
145
129
98
64
41
39
62
85
79
42
-7
-42
-62
-93
-110
-99
-168
-338
-494
-663
-688
-92
721
545
-493
-997
-688
-390
-322
-234
-167
-177
-177
-154
-130
-89
-43
-7
27
68
112
155
200
251
293
301
277
243
215
189
157
122
90
55
20
-2
-5
5
21
33
32
26
34
47
35
2
-17
-13
-2
18
45
43
7
-14
-8
-17
-39
-26
-16
-41
-17
-14
-133
65
817
1130
279
-677
-697
-313
-177
-134
-60
-53
-52
-19
-12
-13
2
12
31
71
112
149
193
238
276
299
294
260
212
167
124
73
19
-22
-53
-85
-110
-116
-106
-96
-92
-92
-91
-88
-89
-99
-118
-139
-150
-145
-125
-94
-78
-92
-116
-122
-122
-135
-138
-116
-115
-121
-89
-144
-189
274
1022
921
-94
-714
-502
-226
-188
-138
-83
-91
-76
-46
-42
-34
-14
-1
18
49
83
123
168
211
242
254
248
229
197
156
114
76
40
5
-28
-55
-67
-67
-60
-51
-40
-33
-31
-32
-36
-43
-51
-62
-81
-101
-114
-118
-104
-68
-39
-43
-66
-85
-91
-94
-102
-96
-82
-91
-80
-69
-134
39
715
1112
436
-515
-660
-332
-203
-181
-110
-95
-110
-94
-89
-94
-84
-70
-46
-6
37
86
142
187
227
266
279
264
245
223
177
120
84
59
23
-18
-46
-52
-43
-34
-27
-17
-11
-14
-20
-29
-40
-49
-60
-65
-66
-80
-107
-118
-105
-76
-32
