# session 9
-32
-78
27
-153
-717
-1060
-961
-816
-780
-709
-619
-567
-493
-390
-309
-262
-241
-228
-204
-168
-125
-88
-85
-86
-56
-37
-52
-44
8
67
97
75
35
5
-27
1
79
-7
-43
475
1020
567
-422
-711
-334
-49
22
44
24
54
190
305
337
343
350
365
383
387
380
360
316
266
217
159
92
10
-57
-48
-22
-73
-117
-83
-72
-101
-124
-189
-249
-221
-205
-200
-147
-229
-257
311
966
623
-325
-656
-378
-186
-145
-76
-45
-58
-26
19
18
7
33
77
105
123
141
160
175
176
173
175
158
118
96
105
116
93
36
19
87
150
143
124
126
96
46
48
30
-81
44
587
815
165
-577
-607
-326
-226
-176
-98
-93
-84
-11
34
24
29
59
60
37
50
80
51
21
54
27
-123
-229
-235
-264
-328
-354
-361
-352
-308
-268
-246
-249
-294
-307
-285
-318
-316
-275
-358
-185
603
1084
409
-498
-596
-307
-207
-162
-96
-80
-36
30
44
67
113
116
114
158
199
206
206
189
146
131
154
152
127
119
96
63
83
103
53
35
100
119
60
0
-68
-83
-23
-100
-139
390
994
591
-425
-763
-396
-117
-58
9
69
76
75
114
194
223
171
171
259
306
287
294
285
175
69
78
64
-37
-45
19
-77
-249
-233
-97
-61
-118
-186
-255
-276
-236
-221
-204
-164
-268
-313
239
965
745
-215
-659
-398
-176
-179
-155
-110
-121
-123
-76
-34
-32
-34
-15
7
45
115
162
150
122
109
100
90
85
82
65
13
-35
-15
32
26
28
98
134
83
51
67
78
59
-51
-78
400
1053
873
-67
-615
-469
-290
-304
-300
-284
-306
-295
-265
-274
-261
-168
-52
36
115
180
192
179
191
191
155
139
124
50
-28
-53
-36
6
-15
-134
-195
-154
-174
-268
-343
-341
-213
-174
-369
-151
788
1201
303
-650
-625
-269
-183
-164
-118
-98
-38
16
10
13
39
69
134
199
219
220
213
181
144
113
76
52
50
43
24
13
29
53
36
4
28
49
6
-19
-2
16
56
-5
-142
185
961
1075
189
-546
-495
-223
-119
-78
-78
-98
-57
-19
-39
-38
-7
5
62
201
293
262
197
178
171
118
27
-29
-34
-67
-139
-178
-163
-124
-121
-180
-222
-214
-238
-289
-322
-324
-249
-245
-362
-19
873
1069
94
-714
-601
-301
-218
-141
-104
-124
-67
-24
-64
-57
3
34
61
107
162
227
258
212
141
106
106
116
102
56
19
-2
-19
-8
29
39
20
3
5
14
4
14
64
6
-80
276
922
897
89
-467
-364
-165
-151
-156
-135
-139
-151
-153
-149
-154
-160
-155
-138
-99
-31
25
53
111
188
204
182
186
176
140
137
124
36
-48
-75
-110
-142
-128
-116
-141
-169
-168
-200
-324
-243
371
920
524
-358
-660
-439
-290
-226
-129
-83
-56
-8
-31
-105
-133
-109
-61
-1
62
119
150
137
109
109
126
134
122
76
10
-36
-50
-44
-14
25
25
-7
-13
-9
-56
-66
34
11
-135
187
943
1012
140
-497
-366
-116
-72
-36
-11
-44
-37
7
13
4
42
117
164
168
181
220
272
317
319
271
234
226
184
98
34
-16
-104
-183
-195
-173
-164
-215
-303
-331
-327
-352
-332
-356
-448
-89
682
693
-270
-852
-571
-280
-266
-199
-119
-121
-86
-33
-13
25
52
33
43
96
122
128
152
166
151
136
122
97
68
49
46
40
20
18
53
88
93
75
57
31
-25
-40
11
-57
-76
449
1076
773
-107
-396
-159
-74
-74
37
74
0
-43
-57
-91
-106
-90
-87
-105
-117
-116
-126
-162
-188
-129
-5
62
54
58
84
81
49
1
-50
-64
-12
33
-14
-104
-160
-208
-229
-245
-326
-127
597
947
172
-742
-760
-396
-278
-231
-154
-158
-156
-99
-63
-45
-11
39
110
171
180
161
151
145
145
163
187
200
203
180
126
64
2
-47
-52
-19
13
20
14
18
0
-48
-73
-156
-256
94
856
993
174
-473
-301
22
28
-4
48
42
38
109
117
33
25
100
133
152
197
202
172
168
160
156
209
237
164
91
68
15
-41
-37
-47
-107
-161
-203
-235
-242
-276
-325
-350
-454
-448
96
694
336
-601
-910
-590
-374
-324
-240
-177
-131
-67
-60
-80
-39
14
32
65
103
89
45
35
55
75
82
77
61
28
-17
-42
-44
-41
-24
15
41
17
-36
-42
8
27
32
59
-31
-94
362
1016
856
16
-377
-145
56
68
91
122
119
108
101
97
69
24
18
35
31
45
80
65
3
-43
-71
-67
4
87
107
88
55
9
26
110
105
-25
-97
-58
-67
-125
-105
-137
-274
-53
581
696
-85
-779
-715
-380
-259
-257
-239
-207
-150
-100
-110
-125
-77
-2
62
112
136
143
141
107
64
60
69
63
68
80
68
38
16
15
27
38
33
0
-31
-26
-42
-69
-17
-49
-195
117
884
950
40
-574
-353
-53
-8
43
94
65
45
52
58
73
78
76
91
96
81
76
54
-6
-22
22
17
-58
-106
-87
-47
-28
-36
-29
23
76
84
66
44
19
-3
-6
-21
-166
-315
16
684
633
-328
-976
-760
-448
-454
-471
-412
-383
-348
-314
-298
-226
-133
-135
-186
-158
-66
-20
-39
-55
-41
4
70
107
98
85
77
62
55
56
49
51
55
27
17
56
69
77
119
34
-17
500
1197
946
-37
-454
-165
49
70
139
177
148
162
217
259
251
178
128
187
284
320
298
257
217
183
150
127
107
60
-3
-38
-35
0
74
145
158
120
99
126
107
11
2
27
-107
-4
642
911
120
-726
-727
-413
-305
-232
-161
-194
-232
-218
-208
-199
-176
-150
-111
-41
36
80
74
38
10
9
18
13
0
-13
-27
-46
-62
-58
-37
2
49
51
-8
-63
-102
-126
-90
-128
-302
-97
640
881
100
-616
-491
-121
1
45
90
109
133
116
90
166
240
208
194
253
269
242
239
222
185
165
99
-23
-81
-57
-54
-88
-103
-83
-76
-173
-358
-442
-347
-238
-237
-221
-92
-49
-155
79
752
935
192
-496
-420
-105
-67
-173
-276
-486
-878
-1257
-1389
-1470
-1804
-2145
-2133
-1926
-1792
-1686
-1552
-1515
-1612
-1679
-1578
-1355
-1094
-828
-631
-542
-456
-302
-147
-19
108
200
252
330
427
516
671
785
698
827
1526
1931
1234
335
299
703
872
914
988
1032
1084
1166
1231
1299
1386
1470
1564
1671
1754
1802
1833
1845
1850
1879
1927
1956
1968
1985
1994
1977
1964
1988
2028
2058
2082
2098
2111
2133
2122
2101
2171
2201
2077
2266
2978
3278
2533
1589
1280
1311
1145
616
-125
-720
-1130
-1583
-1862
-1755
-1776
-2265
-2682
-2724
-2843
-3054
-2761
-2210
-2277
-2700
-2621
-2404
-2830
-3555
-3983
-4281
-4633
-4824
-4799
-4668
-4476
-4387
-4438
-4297
-3888
-3506
-3110
-2622
-2287
-1924
-1233
-842
-1328
-1964
-2032
-2089
-2563
-2682
-1991
-1227
-875
-579
-168
175
447
706
913
1094
1282
1424
1503
1572
1643
1696
1758
1849
1935
1991
2031
2058
2073
2087
2105
2133
2179
2194
2133
2074
2076
2075
2078
2083
1953
1906
2381
2917
2598
1781
1528
1807
1971
1981
2017
2021
1999
2021
2032
1999
1966
1947
1929
1907
1890
1876
1817
1710
1652
1692
1717
1637
1566
1572
1427
1040
766
724
544
90
-560
-1483
-2299
-2336
-1785
-1340
-1124
-990
-953
-855
-462
-72
-487
-1977
-3569
-4110
-3651
-2974
-2433
-2036
-1807
-1546
-1137
-1065
-1557
-1924
-1774
-1596
-1688
-1805
-1657
-1221
-1157
-2122
-3317
-3429
-2672
-2070
-1782
-1515
-1280
-1101
-918
-756
-621
-483
-369
-269
-158
-112
-117
-28
41
-51
102
646
742
46
-444
-145
301
458
566
687
702
755
903
840
525
364
447
457
389
476
649
724
751
820
895
939
981
1034
1063
1071
1084
1095
1109
1152
1199
1232
1263
1285
1309
1341
1332
1363
1485
1420
1214
1456
1941
1670
746
279
530
893
1055
1101
1118
1157
1249
1365
1457
1537
1620
1631
1518
1321
1012
573
183
-10
-127
-286
-494
-805
-1143
-1278
-1287
-1442
-1693
-1866
-2019
-2194
-2318
-2412
-2511
-2588
-2643
-2614
-2445
-2298
-2105
-1370
-281
98
-398
-674
-299
104
273
418
521
529
589
750
912
1032
1148
1271
1358
1425
1523
1538
1336
1070
943
874
740
583
439
295
167
31
-145
-312
-444
-589
-773
-987
-1193
-1346
-1504
-1697
-1782
-1840
-2092
-2125
-1603
-1443
-2291
-3132
-3198
-3090
-3166
-3125
-2981
-2953
-3069
-3169
-2922
-2269
-1622
-1191
-826
-489
-227
7
206
345
485
647
776
854
906
953
1006
1059
1105
1153
1216
1293
1377
1436
1446
1462
1499
1512
1561
1638
1551
1507
1988
2557
2298
1535
1276
1514
1696
1773
1845
1871
1900
1914
1840
1799
1871
1926
1906
1893
1905
1898
1867
1836
1809
1781
1763
1746
1695
1631
1582
1466
1283
1194
1217
1195
1163
1217
1180
948
777
779
763
629
375
199
631
1438
1373
263
-682
-1149
-1599
-1564
-827
-564
-1405
-2506
-3240
-3773
-4113
-3985
-3325
-2475
-2119
-2613
-3407
-3700
-3337
-2691
-2154
-1816
-1514
-1195
-941
-743
-604
-565
-532
-468
-526
-653
-565
-344
-458
-941
-1168
-906
-839
-1373
-1818
-1651
-1476
-1800
-2103
-1927
-1573
-1299
-999
-689
-483
-334
-183
-50
79
222
357
484
605
690
732
760
787
818
848
871
893
910
902
877
855
837
825
824
834
860
875
847
817
805
778
799
830
672
606
1106
1594
1174
308
-60
76
390
600
303
-266
-425
-251
-147
-7
229
363
427
533
622
684
739
736
704
723
761
763
754
749
727
697
683
677
672
682
718
756
760
755
755
719
702
748
662
494
782
1437
1479
756
300
510
753
736
777
888
643
66
-241
-144
-54
-22
-60
-584
-1428
-1893
-2157
-2870
-3772
-4317
-4720
-5176
-5257
-4843
-4373
-3930
-3288
-2593
-2077
-1654
-1236
-865
-567
-362
-262
-242
-201
13
273
385
753
1542
1765
991
430
801
1353
1594
1776
1973
2100
2212
2315
2407
2535
2652
2741
2866
2977
3052
3203
3251
2901
2480
2512
2809
2955
3016
3110
3098
2930
2619
2049
1233
425
-223
-783
-1303
-1733
-2060
-2313
-2448
-2498
-2679
-2823
-2449
-2024
-2510
-3274
-2883
-1592
-574
33
582
1048
1401
1719
2023
2304
2333
1762
778
176
451
1200
1742
1939
2009
1894
1331
418
-382
-826
-1124
-1506
-1921
-2253
-2511
-2735
-2928
-3096
-3258
-3371
-3386
-3400
-3471
-3497
-3567
-3798
-3704
-3014
-2656
-3329
-4247
-4490
-4025
-3119
-2090
-1299
-792
-380
5
286
473
701
942
1081
1214
1234
895
562
491
128
-443
-344
285
639
775
1012
1190
1250
1348
1456
1515
1585
1667
1686
1655
1648
1625
1586
1654
1629
1193
660
358
-65
-574
-500
63
425
538
672
779
816
878
949
980
1010
1061
1100
1118
1133
1150
1157
1156
1148
1130
1131
1144
1113
1078
1022
683
62
-308
-188
48
111
-5
-248
-429
-436
-488
-642
-666
-678
-815
-537
217
305
-569
-1097
-731
-337
-312
-287
-174
-87
22
159
259
331
414
519
621
691
751
819
859
869
897
940
969
990
997
991
996
947
787
666
711
806
859
903
930
947
974
973
1004
1067
975
982
1517
1953
1440
654
629
1024
1176
1204
1271
1297
1325
1327
1218
1101
964
585
-66
-789
-1324
-1533
-1683
-1998
-2192
-2133
-2116
-2107
-1900
-1704
-1772
-2136
-2793
-3564
-4204
-4720
-5108
-5340
-5646
-5914
-5503
-4448
-3516
-2896
-2395
-2073
-1610
-723
-244
-744
-1209
-845
-297
-141
-130
-49
77
218
263
217
233
171
-135
-403
-429
-410
-373
-163
116
316
479
619
705
774
840
878
898
917
941
975
1025
1098
1165
1184
1189
1204
1180
1175
1217
1116
1034
1492
2107
1846
964
623
889
1062
1060
1097
1112
1071
1025
953
885
891
935
950
940
943
946
925
902
908
921
917
910
897
859
800
734
672
629
601
575
562
562
533
480
456
414
340
362
369
178
262
909
1138
330
-434
-340
-19
33
51
94
63
46
64
47
28
44
60
50
28
35
54
-26
-217
-346
-338
-299
-288
-293
-330
-381
-404
-427
-459
-476
-497
-508
-473
-467
-511
-516
-510
-531
-496
-513
-605
-324
231
109
-716
-1122
-845
-602
-570
-503
-474
-532
-522
-464
-470
-496
-475
-436
-400
-363
-339
-340
-366
-407
-429
-426
-437
-449
-431
-426
-456
-471
-463
-465
-475
-476
-456
-428
-427
-431
-409
-413
-404
-336
-393
-478
-91
458
172
-697
-951
-546
-288
-280
-235
-186
-184
-171
-166
-171
-143
-103
-83
-67
-49
-41
-38
-34
-32
-30
-23
-8
2
0
-6
-10
-20
-40
-60
-69
-58
-27
-20
-39
-14
16
1
58
113
-24
46
644
928
282
-360
-219
141
242
308
407
420
417
453
485
522
566
593
612
633
653
675
684
664
643
640
631
601
569
542
503
457
417
387
372
379
406
429
419
392
383
364
350
399
360
162
294
923
1154
517
-73
13
266
316
342
383
368
367
391
393
396
416
433
444
457
470
486
495
484
471
469
462
435
398
351
294
239
190
146
115
103
112
118
75
15
-12
-70
-127
-82
-139
-318
-25
619
458
-524
-990
-658
-374
-345
-284
-242
-273
-285
-298
-336
-338
-306
-294
-293
-281
-269
-277
-299
-323
-364
-420
-461
-495
-565
-661
-729
-762
-792
-830
-868
-897
-896
-903
-964
-1014
-1025
-1079
-1102
-1041
-1144
-1276
-851
-273
-640
-1590
-1834
-1409
-1146
-1098
-1010
-960
-947
-885
-836
-822
-773
-708
-664
-606
-529
-470
-425
-379
-336
-287
-234
-194
-162
-122
-79
-41
-2
34
81
148
226
320
422
481
535
651
717
712
782
810
797
1271
1984
1659
428
-5
671
1161
1075
1022
1122
1216
1452
1812
2023
1994
1729
1331
1345
2003
2467
2178
1879
1982
1789
1171
854
948
966
821
758
778
570
2
