# session 3
-48
-223
235
-379
-2557
-4043
-3877
-3332
-2928
-2483
-2168
-1604
-656
-474
-1396
-2144
-2112
-1863
-1660
-1427
-1280
-1166
-912
-648
-473
-316
-312
-423
-361
-306
-318
-83
-56
-182
511
720
-321
972
4447
4040
165
-1002
296
411
-131
-87
71
167
134
20
216
387
251
331
556
517
576
807
699
412
389
476
494
539
563
469
400
683
1372
1809
1377
617
421
582
402
-95
-526
-825
-1063
-1254
-1387
-1471
-1609
-1764
-1719
-1611
-1674
-1585
-1162
-821
-688
-522
-399
-393
-325
-190
-84
17
86
107
165
240
237
202
200
154
12
-127
-198
-249
-221
16
282
355
471
715
638
223
16
46
-11
-29
85
80
171
791
1361
993
116
-284
-186
-64
-26
0
29
51
54
60
71
37
-5
22
61
34
-1
37
104
154
255
449
608
596
478
410
421
422
373
304
232
159
93
53
80
135
113
67
137
286
398
474
528
515
436
372
370
344
222
142
201
175
61
394
1084
1031
24
-677
-535
-358
-487
-511
-403
-370
-290
-188
-297
-455
-396
-328
-440
-535
-485
-414
-407
-417
-371
-299
-286
-305
-304
-317
-321
-289
-288
-313
-302
-318
-365
-352
-333
-378
-408
-412
-440
-435
-375
-356
-389
-347
-169
9
40
-13
-54
-110
-141
-158
-270
-120
682
1293
690
-381
-645
-325
-169
-158
-103
-83
-101
-95
-84
-80
-77
-80
-85
-85
-56
-1
72
258
629
949
941
716
532
407
278
189
175
203
240
260
243
181
92
21
-18
-75
-125
2
362
684
681
435
220
117
56
2
-53
-73
-71
-167
-140
459
1144
811
-275
-774
-501
-275
-281
-250
-226
-260
-254
-233
-257
-292
-299
-263
-196
-145
-110
-43
41
97
131
159
163
147
130
111
89
73
59
41
18
-9
-41
-71
-96
-113
-111
-102
-105
-98
-52
-1
12
7
3
-14
-23
-12
1
25
8
-61
155
787
1082
482
-276
-399
-185
-91
-60
-32
-60
-89
-84
-75
-64
-58
-61
-52
-38
-43
-57
-48
-18
3
12
19
-6
-50
-41
12
24
3
11
24
11
8
16
4
-17
-41
-76
-91
-75
-61
-52
-32
-35
-71
-96
-91
-94
-97
-79
-123
-160
185
792
810
90
-421
-304
-96
-74
-67
-61
-81
-59
-26
-27
-14
19
35
45
66
88
112
140
145
98
37
38
81
65
0
-19
11
30
31
38
39
20
-16
-56
-93
-127
-158
-174
-159
-124
-111
-131
-156
-165
-168
-188
-196
-153
-168
-256
-14
612
742
-26
-726
-653
-329
-230
-195
-126
-106
-105
-80
-53
-37
-26
-5
21
25
15
19
23
8
-11
-17
-23
-30
-26
-21
-24
-18
17
65
101
117
118
112
106
89
60
35
33
51
72
81
74
51
29
33
29
15
50
24
-103
133
823
985
194
-469
-343
-71
-42
10
96
67
34
81
121
118
96
68
59
84
112
116
105
106
134
174
191
186
196
219
221
219
244
259
223
167
132
110
83
42
-1
-20
-14
-6
-4
-2
-4
-22
-41
-51
-77
-97
-85
-147
-170
256
864
692
-196
-643
-376
-122
-116
-101
-73
-102
-127
-134
-131
-107
-91
-94
-84
-62
-54
-55
-55
-65
-78
-83
-87
-98
-108
-117
-130
-133
-118
-101
-96
-107
-135
-159
-175
-215
-265
-269
-244
-224
-182
-131
-130
-163
-173
-174
-174
-146
-197
-280
49
721
793
35
-535
-429
-221
-204
-178
-134
-138
-118
-77
-73
-77
-66
-56
-38
-15
-10
-12
2
24
39
49
59
72
78
73
87
139
192
213
209
181
133
92
61
24
-5
-5
11
19
15
4
-20
-37
-35
-53
-50
6
-60
-174
199
898
887
84
-401
-217
7
47
95
132
111
99
101
97
98
101
108
132
150
154
166
184
195
205
214
223
238
250
253
271
301
306
282
252
213
149
72
-5
-81
-139
-161
-156
-149
-160
-199
-244
-242
-228
-270
-270
-219
-308
-288
280
756
205
-766
-995
-653
-444
-374
-267
-207
-212
-213
-199
-176
-143
-121
-111
-95
-72
-53
-36
-22
-18
-16
-2
19
41
61
77
104
148
180
185
174
151
107
70
55
32
-4
-14
8
36
45
19
-7
9
10
-9
39
28
-93
170
880
1006
189
-457
-319
-28
31
65
104
74
50
73
80
50
50
116
162
138
129
183
225
210
197
252
332
353
328
323
333
336
335
317
271
230
181
66
-65
-148
-211
-205
-111
-100
-214
-287
-299
-328
-341
-330
-361
-491
-608
-327
345
538
-164
-851
-849
-607
-502
-426
-404
-454
-430
-357
-349
-364
-326
-250
-215
-260
-293
-237
-175
-178
-179
-129
-82
-79
-90
-75
-30
23
64
89
112
137
156
157
148
139
133
148
186
216
218
211
209
208
203
201
224
203
80
198
862
1384
912
-7
-309
-61
125
152
150
145
153
155
129
116
121
107
76
64
86
125
148
160
192
225
227
215
206
188
170
160
162
196
228
193
121
60
-23
-120
-186
-256
-340
-368
-375
-431
-465
-454
-489
-489
-421
-535
-617
7
870
606
-564
-1067
-656
-323
-359
-422
-428
-417
-370
-301
-202
-88
-36
-40
-39
-40
-16
106
277
382
413
424
417
389
362
336
305
292
308
312
278
249
242
198
117
84
92
71
49
59
60
60
87
101
113
129
9
-135
219
976
1101
291
-421
-421
-189
-95
-56
-47
-72
-72
-49
-24
-8
-12
20
100
134
94
46
12
0
28
21
-95
-233
-279
-280
-308
-344
-352
-319
-288
-305
-311
-290
-348
-433
-405
-351
-363
-360
-340
-355
-337
-287
-260
-227
-254
-264
168
870
842
-8
-553
-387
-148
-111
-75
-35
-56
-77
-67
-35
-2
-6
-16
28
94
129
149
165
152
138
176
250
291
271
247
295
380
419
431
459
453
369
265
213
216
220
185
116
42
9
44
75
45
38
35
-43
133
778
1123
523
-257
-325
29
213
179
83
14
-17
-68
-132
-170
-203
-230
-256
-296
-265
-151
-111
-174
-227
-275
-323
-297
-227
-194
-178
-158
-142
-107
-47
-8
-49
-130
-162
-171
-198
-168
-107
-132
-194
-194
-185
-205
-180
-141
-255
-348
103
867
853
-46
-636
-458
-186
-131
-92
-62
-80
-69
-40
-4
80
168
199
214
238
221
179
195
262
276
216
159
123
67
-3
-27
11
65
97
81
11
-54
-63
-39
6
91
182
232
252
255
256
256
197
123
116
25
-50
394
1014
692
-371
-836
-566
-401
-439
-370
-277
-251
-238
-262
-317
-328
-308
-300
-285
-245
-213
-211
-203
-159
-113
-96
-80
-43
7
70
150
227
278
295
269
210
162
139
115
105
140
161
115
62
59
34
-39
-52
-64
-198
-52
675
1137
564
-252
-364
-112
-33
-45
-46
-78
-101
-110
-133
-158
-196
-248
-266
-224
-152
-84
-28
26
84
135
148
145
222
377
482
504
507
473
391
337
291
174
43
-31
-116
-218
-217
-158
-220
-357
-388
-358
-349
-316
-328
-279
226
849
613
-304
-740
-528
-361
-355
-268
-188
-206
-227
-210
-184
-162
-155
-135
-84
-51
-53
-38
1
32
44
45
36
16
0
16
66
104
117
135
149
117
63
33
33
49
66
77
85
92
107
124
126
139
102
-47
100
841
1292
595
-398
-576
-297
-200
-164
-70
-48
-60
-44
-39
-23
46
142
219
237
224
240
262
245
221
186
128
101
106
77
58
109
142
84
5
-41
-85
-119
-105
-79
-108
-185
-276
-359
-386
-355
-375
-442
-421
-450
-562
-166
743
897
-107
-899
-746
-386
-251
-123
9
76
132
140
93
70
65
52
61
75
54
19
15
44
53
16
-20
-34
-54
-60
-10
61
116
144
120
62
31
21
-8
-32
-14
14
-22
-115
-184
-229
-259
-211
-208
-370
-240
439
764
76
-716
-725
-379
-209
-51
227
462
561
545
460
361
275
210
173
137
68
1
-29
-65
-117
-120
-98
-131
-173
-167
-156
-140
-89
-2
118
240
311
338
345
356
383
406
401
323
154
28
16
-3
-59
-120
-226
-104
484
860
335
-436
-572
-333
-242
-239
-198
-182
-178
-149
-117
-95
-75
-48
-7
46
98
112
66
51
148
264
273
207
165
184
223
208
165
166
140
29
-46
-54
-112
-186
-173
-129
-160
-257
-307
-252
-189
-153
-91
-111
-96
394
961
591
-390
-741
-444
-251
-192
-108
-161
-242
-153
-115
-248
-274
-120
-43
-121
-191
-159
-92
-87
-110
-71
-46
-120
-186
-152
-78
-8
40
26
-9
-6
-7
-39
-53
-54
-69
-58
-29
-52
-86
-57
-31
-27
10
-68
-154
345
1167
1042
-14
-552
-235
48
64
119
179
166
163
177
194
225
236
220
194
172
184
187
107
26
33
23
-56
-81
-20
30
38
33
33
45
29
-44
-116
-128
-92
-36
18
36
12
-1
11
-43
-153
-214
-295
-291
213
861
600
-399
-846
-523
-260
-296
-326
-264
-163
-84
-106
-156
-125
-60
-20
9
20
27
61
94
90
65
32
-2
-17
-6
11
20
23
26
23
-7
-74
-133
-126
-85
-75
-52
24
41
-33
-47
21
76
93
-9
-78
430
1258
1200
222
-345
-154
17
-6
65
133
92
64
65
34
2
7
29
44
67
92
69
-3
-47
-26
11
27
28
34
60
103
144
153
113
45
-11
-53
-101
-131
-119
-123
-203
-278
-263
-252
-275
-208
-196
-406
-264
597
1073
285
-694
-764
-448
-349
-259
-146
-174
-195
-125
-102
-117
-80
-32
-13
5
31
60
105
171
219
211
181
189
211
204
215
253
249
233
259
239
142
101
118
74
41
123
188
141
98
96
75
72
26
-106
117
848
1116
319
-538
-568
-293
-276
-304
-221
-183
-223
-246
-228
-197
-178
-173
-152
-96
-35
-4
22
45
17
-21
15
57
-18
-131
-126
-49
-51
-130
-191
-245
-318
-346
-327
-325
-316
-284
-303
-345
-323
-292
-261
-168
-184
-287
106
927
1018
124
-538
-417
-181
-150
-95
-29
-62
-98
-72
-41
-41
-43
-15
23
45
66
103
145
178
205
228
238
226
232
269
296
304
331
362
347
296
263
251
219
197
224
232
175
136
113
54
45
23
-163
-90
592
987
282
-615
-642
-235
-92
-84
2
70
85
98
103
93
100
117
97
65
88
127
129
118
72
-46
-142
-156
-149
-128
-90
-108
-137
-64
2
-86
-203
-210
-189
-222
-236
-174
-103
-109
-159
-197
-212
-182
-190
-318
-165
523
904
276
-515
-555
-264
-200
-208
-145
-105
-74
-42
-59
-70
-18
36
55
89
132
131
119
150
173
147
136
172
200
206
223
257
281
275
220
122
17
-77
-157
-204
-199
-173
-186
-233
-269
-315
-365
-320
-272
-310
-46
636
861
168
-501
-453
-182
-92
-46
-48
-137
-158
-113
-130
-169
-173
-160
-110
-54
-72
-95
-44
0
12
20
-43
-138
-125
-53
-20
15
61
63
37
8
-32
-58
-50
-31
-9
10
3
-16
-21
-45
-52
-25
-131
-187
357
1059
742
-282
-640
-277
-23
30
84
83
88
162
215
277
384
462
529
598
578
508
506
527
483
402
341
301
251
179
144
165
152
84
40
13
-39
-78
-84
-88
-82
-58
-58
-75
-57
-56
-102
-78
-60
-208
-114
528
856
151
-710
-804
-532
-421
-383
-360
-376
-356
-330
-321
-257
-204
-228
-210
-129
-117
-166
-158
-103
-94
-140
-179
-162
-90
-20
3
3
-2
-39
-105
-161
-212
-249
-236
-199
-180
-173
-187
-211
-201
-180
-169
-131
-174
-281
30
763
907
123
-510
-400
-155
-101
1
118
93
67
163
240
203
185
251
266
201
193
240
208
124
109
118
55
-36
-62
-2
105
185
183
136
125
148
139
81
39
57
75
7
-88
-103
-95
-111
-64
-68
-201
49
826
1056
185
-662
-628
-262
-132
-141
-137
-100
-53
-56
-76
-50
-18
1
40
85
112
133
151
158
158
139
99
74
95
135
146
123
103
104
77
-3
-52
-33
-23
-19
29
33
-39
-58
-22
-9
41
48
-71
149
909
1215
456
-343
-355
-126
-114
-96
-42
-92
-157
-166
-175
-191
-186
-159
-128
-121
-137
-150
-142
-111
-72
-47
-5
81
128
98
103
173
173
75
-24
-101
-167
-199
-208
-213
-211
-215
-240
-261
-253
-244
-231
-218
-295
-272
301
1020
807
-168
-630
-366
-149
-161
-142
-120
-144
-129
-105
-127
-140
-148
-193
-216
-163
-111
-112
-122
-127
-143
-141
-112
-86
-44
16
54
95
139
101
26
42
103
116
115
149
212
265
255
189
140
183
240
107
40
585
1261
944
-95
-580
-353
-125
-75
-39
-39
-78
-81
-60
-34
26
103
145
158
165
154
121
100
84
52
15
-20
-51
-52
-28
-8
6
18
6
-50
-122
-150
-150
-176
-194
-168
-157
-160
-137
-150
-188
-150
-197
-347
23
933
1096
88
-699
-521
-160
-78
-23
29
-2
1
58
84
82
81
85
102
131
166
203
222
211
201
198
183
175
179
178
205
261
279
281
311
310
267
240
183
96
81
100
71
37
-15
-86
-79
-126
-268
8
694
722
-171
-814
-672
-387
-289
-213
-178
-186
-143
-142
-211
-181
-97
-148
-238
-225
-222
-273
-261
-227
-275
-340
-348
-321
-272
-203
-174
-202
-220
-181
-110
-80
-151
-244
-220
-126
-99
-126
-144
-161
-176
-185
-162
-111
-175
-219
228
855
678
-157
-541
-326
-170
-174
-111
-37
-23
-9
8
23
58
100
138
186
224
241
263
288
288
297
354
382
341
342
424
485
495
482
409
288
198
155
144
154
145
123
146
166
107
