# session 22
3
54
-100
41
706
1232
1206
1041
1028
1016
969
950
911
846
814
792
748
701
642
572
543
562
565
541
524
493
421
379
391
360
294
307
325
263
223
188
225
732
1394
1100
-35
-607
-319
-64
-82
-39
30
5
-31
-47
-52
-22
-15
-47
-44
-29
-46
-26
29
33
27
72
114
114
105
91
55
10
-20
-52
-105
-153
-196
-254
-269
-223
-224
-273
-267
-251
-272
-242
-196
-231
-255
-207
-211
-261
-240
-203
-237
-252
-215
-230
-282
-276
-247
-247
-222
-169
-156
-182
-208
-212
-193
-189
-193
-172
-164
-168
-154
-206
-111
536
1152
663
-441
-797
-454
-265
-255
-161
-107
-139
-141
-118
-102
-79
-54
-46
-51
-47
-17
31
87
127
130
136
193
258
261
224
206
196
160
111
84
66
31
-14
-38
-31
-14
-22
-42
-25
24
47
27
9
17
20
8
9
25
30
25
15
2
2
9
-4
-33
-49
-38
8
58
59
24
6
8
-5
-28
-14
27
15
-7
12
-40
79
761
1293
646
-491
-782
-422
-220
-153
-41
-4
-13
0
-23
-31
20
26
-6
26
78
81
92
138
164
178
234
308
331
295
256
241
221
178
138
90
9
-59
-65
-63
-78
-65
-56
-106
-136
-89
-48
-54
-51
-28
-41
-95
-120
-77
-42
-69
-85
-72
-115
-160
-109
-67
-89
-60
-30
-108
-147
-65
-44
-90
-78
-89
-115
-59
-92
-60
568
1230
735
-442
-845
-477
-226
-187
-109
-78
-122
-104
-41
-41
-69
-41
2
-3
-11
6
25
78
146
143
130
203
260
231
228
254
182
50
12
51
27
-77
-125
-65
-42
-124
-167
-106
-82
-134
-118
-37
-47
-118
-92
-38
-78
-112
-64
-50
-104
-113
-69
-85
-139
-113
-34
-11
-36
-59
-69
-55
-30
-40
-65
-62
-57
-49
-9
-42
-74
361
1110
1071
48
-665
-490
-197
-161
-90
-6
-44
-69
-28
-16
-22
0
23
24
26
35
42
79
156
195
178
197
242
233
226
261
229
124
85
85
13
-48
-14
-1
-72
-117
-94
-69
-68
-70
-64
-51
-37
-36
-50
-56
-42
-48
-77
-58
-14
-42
-103
-111
-105
-113
-84
-28
-9
-12
-19
-59
-97
-89
-63
-38
-35
-54
-34
-48
-104
254
1040
1156
171
-673
-570
-216
-148
-139
-90
-90
-80
-46
-52
-77
-79
-64
-50
-45
-29
7
35
60
112
144
125
131
184
197
165
145
123
77
24
-32
-76
-76
-71
-102
-117
-94
-89
-105
-104
-101
-90
-61
-50
-53
-37
-45
-87
-83
-42
-52
-85
-77
-76
-99
-78
-20
13
11
-26
-70
-56
-19
-31
-48
-44
-56
-41
-49
-85
296
1093
1173
123
-751
-642
-279
-190
-133
-40
-32
-33
12
29
3
-17
-5
26
50
59
81
133
175
172
178
247
311
308
289
289
260
203
164
118
45
-3
-18
-51
-76
-54
-41
-67
-71
-53
-59
-59
-31
-40
-73
-49
-6
-35
-87
-98
-97
-99
-77
-47
-36
-33
-32
-45
-68
-89
-102
-77
-36
-52
-65
-17
-72
-53
542
1193
737
-406
-809
-455
-225
-194
-106
-63
-96
-88
-61
-65
-73
-65
-46
-32
-29
-17
7
27
51
86
125
160
183
184
167
143
109
68
29
-10
-54
-90
-111
-122
-129
-133
-135
-134
-129
-123
-118
-115
-113
-110
-106
-104
-103
-104
-112
-122
-128
-125
-103
-64
-37
-45
-66
-75
-74
-73
-76
-67
-55
-65
-53
-27
-84
39
678
1164
590
-410
-640
-296
-131
-119
-55
-34
-51
-25
-5
-11
-5
6
11
22
37
51
71
97
126
156
186
212
227
226
213
194
166
129
92
57
24
-5
-25
-35
-39
-38
-36
-35
-33
-26
-21
-19
-17
-16
-15
-13
-17
-34
-52
-59
-55
-35
2
28
21
-1
-12
-9
-8
-19
-16
1
-6
-2
22
-36
52
659
1210
744
-254
-566
-253
-70
-63
-13
14
3
24
40
36
44
54
58
70
84
94
108
126
148
172
196
214
221
214
198
177
148
109
67
24
-17
-53
-79
-98
-114
-124
-129
-133
-139
-143
-147
-153
-158
-165
-175
-183
-194
-213
-234
-249
-247
-214
-175
-172
-198
-216
-219
-221
-230
-235
-218
-209
-221
-194
-195
-251
45
774
968
125
-695
-665
-337
-237
-193
-124
-118
-117
-87
-69
-53
-30
-14
8
38
58
76
104
132
162
196
228
251
264
267
259
245
219
182
140
101
68
39
17
3
-5
-10
-14
-13
-5
-1
-7
-16
-15
-15
-30
-55
-70
-65
-46
-20
-3
-13
-37
-51
-53
-63
-82
-80
-57
-70
-74
-32
-96
-92
465
1098
685
-418
-833
-485
-229
-187
-103
-53
-77
-65
-39
-41
-35
-17
-11
-2
19
33
42
67
107
143
172
201
221
221
202
178
152
111
60
17
-20
-56
-79
-86
-92
-97
-95
-90
-86
-78
-69
-68
-72
-71
-68
-70
-77
-80
-76
-53
-13
8
-9
-33
-39
-35
-35
-35
-18
-6
-17
10
25
-60
124
827
1184
448
-477
-551
-198
-67
-33
39
49
43
71
83
86
103
115
124
140
156
173
192
214
244
279
309
330
342
339
325
304
272
233
195
161
129
102
81
69
64
60
57
58
64
68
66
60
56
47
30
12
0
1
22
49
49
23
-1
-14
-24
-37
-52
-51
-51
-69
-60
-76
-167
56
783
1107
336
-585
-663
-345
-249
-238
-188
-194
-211
-195
-196
-206
-202
-203
-208
-203
-197
-191
-178
-165
-150
-128
-107
-98
-98
-111
-144
-166
-162
-187
-267
-344
-387
-419
-442
-452
-462
-469
-466
-463
-466
-468
-465
-465
-465
-466
-479
-499
-510
-511
-498
-461
-426
-428
-453
-465
-465
-466
-471
-468
-450
-443
-440
-411
-446
-455
5
747
713
-230
-860
-687
-424
-400
-363
-296
-287
-264
-217
-187
-159
-130
-112
-87
-44
0
32
74
138
197
233
265
311
348
360
374
404
416
401
395
402
414
437
465
491
531
583
629
673
721
767
810
853
894
938
981
1014
1043
1078
1125
1193
1276
1340
1370
1392
1427
1472
1517
1553
1600
1659
1701
1757
1819
1800
1949
2607
3191
2783
1812
1434
1723
1963
1805
1312
691
156
-242
-532
-714
-845
-977
-1072
-1101
-1119
-1170
-1243
-1308
-1344
-1342
-1319
-1314
-1332
-1327
-1300
-1293
-1328
-1385
-1448
-1514
-1578
-1620
-1619
-1587
-1547
-1507
-1469
-1434
-1402
-1375
-1359
-1353
-1353
-1343
-1333
-1343
-1364
-1374
-1379
-1370
-1325
-1279
-1271
-1277
-1267
-1242
-1196
-1134
-1059
-957
-864
-779
-621
-485
-375
185
1118
1284
432
-119
222
665
810
926
1034
1042
1037
1028
973
914
868
801
723
644
563
494
439
355
202
-16
-232
-399
-578
-787
-889
-907
-1018
-1099
-1022
-1107
-1400
-1438
-1259
-1262
-1242
-914
-567
-391
-193
69
280
464
647
762
814
871
947
1014
1078
1158
1241
1275
1263
1257
1261
1252
1235
1229
1233
1222
1192
1187
1152
1071
1312
1986
2221
1454
586
479
710
750
717
718
682
643
629
599
560
529
496
460
431
406
384
365
347
333
320
301
276
248
212
169
129
86
33
-25
-79
-130
-180
-224
-255
-277
-299
-322
-339
-350
-362
-378
-395
-409
-422
-443
-468
-491
-510
-509
-478
-448
-455
-486
-513
-526
-528
-538
-549
-530
-523
-536
-506
-531
-583
-193
535
519
-450
-1137
-976
-667
-592
-540
-484
-484
-466
-434
-430
-419
-393
-378
-367
-345
-319
-285
-249
-229
-212
-174
-145
-147
-149
-134
-119
-114
-111
-117
-133
-153
-172
-185
-188
-185
-172
-152
-133
-116
-97
-79
-67
-52
-40
-41
-48
-48
-39
-14
26
52
47
28
17
24
36
34
40
62
54
60
104
33
43
611
1228
816
-226
-587
-249
-12
29
101
138
126
144
162
163
175
187
192
205
219
231
249
272
294
318
341
359
367
360
344
324
301
271
235
198
163
132
105
86
78
76
70
65
67
69
66
61
57
47
25
3
-4
3
23
51
58
32
0
-14
-20
-31
-41
-37
-36
-53
-39
-54
-144
74
783
1105
378
-489
-550
-241
-158
-159
-111
-108
-118
-98
-92
-96
-88
-85
-83
-74
-64
-54
-39
-21
-2
19
39
52
55
52
48
37
15
-7
-24
-48
-79
-97
-102
-109
-117
-107
-84
-68
-68
-72
-71
-66
-63
-62
-61
-65
-78
-78
-41
1
2
-20
-33
-42
-50
-54
-58
-47
-40
-55
-33
-39
-120
147
870
1055
177
-653
-595
-252
-155
-112
-50
-62
-68
-36
-32
-42
-35
-28
-21
-10
2
19
37
56
84
116
135
144
151
146
131
112
86
56
27
-6
-46
-77
-86
-89
-98
-104
-99
-92
-89
-86
-81
-76
-74
-80
-94
-105
-107
-93
-58
-26
-27
-53
-71
-73
-70
-74
-75
-64
-68
-68
-42
-112
-143
352
1077
913
-96
-646
-406
-152
-124
-80
-44
-58
-32
-3
-19
-25
-8
5
14
25
33
46
65
86
111
140
162
169
159
140
123
113
98
67
27
-3
-16
-23
-33
-44
-46
-41
-36
-31
-28
-27
-15
2
-8
-40
-47
-29
-23
-24
-3
21
16
-7
-29
-41
-40
-45
-57
-55
-52
-41
-48
-152
-81
557
1152
698
-319
-655
-348
-141
-132
-147
-143
-71
-18
-66
-61
15
-5
-68
-34
26
25
8
30
84
120
126
129
116
100
135
161
98
27
24
33
15
-16
-46
-55
-50
-62
-65
-34
-5
-5
-26
-41
-24
-1
-27
-68
-64
-47
-56
-49
-13
-25
-95
-123
-105
-121
-150
-128
-84
-85
-108
-64
-28
-145
-55
645
1205
661
-344
-614
-308
-138
-114
-69
-72
-92
-56
-26
-29
-22
-27
-42
-7
38
22
13
71
116
104
116
156
148
134
165
149
72
60
91
53
-8
-21
-20
-29
-43
-64
-58
-23
-14
-25
-29
-30
-19
-19
-47
-43
-6
-16
-51
-57
-73
-91
-39
33
21
-39
-52
-37
-41
-47
-40
-48
-76
-57
-5
-92
-170
299
1076
997
-48
-729
-515
-194
-173
-170
-100
-71
-60
-36
-38
-67
-66
-36
-23
-8
17
12
41
129
137
87
135
191
134
96
144
151
97
68
61
27
-6
-17
-57
-101
-75
-36
-53
-60
-21
-12
-46
-62
-53
-52
-52
-54
-88
-130
-132
-124
-125
-85
-35
-46
-61
-42
-63
-103
-96
-84
-94
-97
-74
-24
-70
-149
247
1020
1025
9
-719
-536
-208
-168
-145
-57
-15
-5
-5
-30
-47
-30
2
24
40
59
58
42
62
110
129
139
180
197
145
112
157
178
114
57
45
16
-20
-20
-19
-31
-26
-25
-42
-41
-22
-14
-18
-13
-4
-15
-34
-29
-28
-72
-107
-74
-4
35
15
-19
-18
-12
-43
-69
-49
-26
-41
-31
1
-79
-39
559
1187
779
-293
-709
-390
-145
-101
-29
-14
-75
-70
-25
-15
0
18
0
5
67
97
48
15
74
159
174
144
151
170
140
100
86
55
8
-12
-34
-74
-85
-74
-84
-99
-106
-122
-121
-95
-92
-107
-94
-82
-101
-117
-100
-74
-83
-121
-121
-60
-5
-13
-54
-70
-65
-73
-97
-97
-73
-73
-67
-34
-111
-155
338
1077
913
-140
-729
-468
-199
-202
-144
-56
-82
-115
-91
-61
-35
-18
-22
-39
-56
-33
32
61
37
47
109
145
141
146
142
93
58
96
124
64
-19
-47
-42
-39
-58
-90
-88
-49
-24
-24
-31
-41
-35
-12
-5
-18
-27
-32
-40
-59
-67
-23
40
46
7
-21
-34
-38
-35
-36
-48
-68
-54
-24
-94
-13
622
1189
667
-410
-747
-407
-167
-109
-51
-27
-24
-9
1
20
34
47
79
84
63
98
153
148
150
207
245
239
245
265
264
250
227
184
142
118
81
34
11
-2
-22
-27
-24
-34
-33
-20
-24
-24
-10
-16
-38
-48
-51
-56
-75
-95
-73
-33
-50
-98
-113
-111
-129
-153
-150
-132
-158
-183
-140
-173
-213
226
897
723
-251
-763
-512
-258
-223
-161
-115
-139
-130
-95
-85
-79
-72
-73
-61
-40
-28
-18
-3
18
44
68
86
99
104
96
84
74
58
35
8
-18
-41
-60
-73
-77
-75
-73
-70
-62
-54
-47
-40
-36
-33
-29
-30
-41
-53
-56
-45
-14
21
33
16
-4
-9
-8
-15
-19
-3
-1
-11
18
-12
-78
280
1020
1098
190
-535
-423
-130
-83
-63
-16
-25
-24
0
1
0
7
10
14
24
30
40
58
76
96
120
140
149
148
137
123
109
92
65
34
4
-22
-46
-64
-74
-75
-74
-73
-68
-62
-59
-56
-52
-49
-46
-51
-65
-79
-88
-91
-73
-32
-4
-15
-43
-58
-59
-62
-71
-63
-51
-61
-45
-37
-122
34
719
1147
504
-430
-566
-234
-113
-110
-53
-41
-53
-29
-17
-21
-8
1
2
10
23
32
46
63
81
100
118
130
133
129
120
109
90
64
36
9
-16
-39
-57
-69
-74
-72
-68
-66
-61
-57
-55
-53
-51
-49
-49
-57
-72
-86
-96
-95
-69
-30
-16
-34
-59
-70
-70
-78
-87
-73
-66
-81
-57
-65
-157
86
809
1068
280
-550
-557
-248
-161
-137
-83
-86
-92
-66
-58
-58
-45
-38
-35
-23
-9
4
20
42
68
89
102
115
125
125
121
117
103
83
59
32
5
-17
-37
-52
-56
-52
-46
-39
-33
-33
-32
-26
-20
-19
-19
-20
-29
-44
-56
-60
-47
-16
13
17
-3
-23
-24
-23
-41
-39
-13
-25
-31
10
-53
-39
518
1130
729
-317
-713
-405
-172
-130
-66
-37
-52
-35
-19
-26
-21
-10
-3
9
24
32
45
67
89
111
138
163
176
176
171
164
151
129
97
60
26
-3
-28
-46
-57
-63
-63
-58
-55
-52
-46
-42
-42
-43
-47
-57
-66
-72
-77
-72
-48
-17
-11
-32
-49
-51
-56
-64
-64
-59
-57
-50
-38
