# session 25
-54
-122
98
-179
-1171
-1819
-1697
-1492
-1477
-1408
-1317
-1280
-1208
-1126
-1081
-1018
-938
-873
-810
-739
-674
-612
-557
-513
-469
-421
-383
-356
-329
-301
-281
-269
-264
-266
-255
-223
-191
-163
-125
-91
-73
-52
-18
12
37
62
80
94
116
146
163
168
177
188
202
243
306
340
323
301
311
320
311
323
329
301
322
341
281
541
1280
1536
696
-200
-233
68
133
137
189
181
152
157
156
139
133
141
150
156
174
197
206
203
208
224
233
234
239
242
226
201
181
145
86
38
17
-3
-37
-71
-94
-118
-152
-186
-215
-256
-306
-330
-316
-280
-253
-248
-248
-240
-246
-274
-297
-296
-281
-252
-220
-215
-235
-241
-238
-256
-265
-233
-221
-227
-194
-231
-288
126
891
888
-108
-832
-682
-360
-284
-266
-245
-239
-209
-198
-213
-200
-185
-187
-170
-145
-140
-129
-104
-86
-68
-36
-19
-23
-23
-16
-16
-24
-22
-12
-12
-38
-74
-98
-110
-121
-115
-89
-78
-90
-80
-47
-44
-58
-40
-8
-6
-13
0
18
21
14
10
22
55
94
128
147
145
152
187
206
208
240
274
278
302
283
286
757
1565
1610
661
-16
176
486
515
544
619
633
652
695
712
725
753
767
776
816
842
785
712
728
787
816
848
887
874
800
698
617
603
613
624
577
170
-593
-984
-744
-787
-1618
-2398
-2369
-1841
-1366
-1058
-834
-664
-543
-478
-448
-388
-262
-112
5
89
166
249
336
422
507
556
394
-176
-969
-1436
-1409
-1396
-1805
-2450
-3020
-3251
-2680
-1338
-400
-736
-1457
-1407
-887
-604
-470
-280
-149
-77
20
108
181
265
321
351
410
479
513
538
571
604
644
686
706
714
722
716
700
697
701
697
688
674
644
618
615
598
552
532
552
559
533
505
500
506
502
473
438
427
422
385
338
321
312
297
310
345
341
288
247
240
210
168
195
193
34
-107
-125
-154
90
839
1187
412
-496
-543
-235
-172
-174
-137
-157
-166
-143
-160
-184
-182
-183
-187
-191
-206
-211
-196
-184
-186
-186
-184
-185
-192
-211
-242
-259
-259
-267
-288
-305
-326
-357
-376
-374
-373
-386
-397
-389
-365
-347
-356
-367
-348
-322
-319
-325
-324
-316
-308
-317
-333
-318
-276
-234
-205
-196
-211
-224
-218
-203
-177
-148
-154
-141
-75
-143
-214
282
1058
927
-77
-625
-389
-135
-102
-79
-85
-107
-62
-31
-49
-30
40
103
111
68
68
151
218
217
229
292
356
388
413
447
475
487
499
509
494
466
453
457
481
514
505
476
521
617
665
684
742
804
823
839
885
917
915
923
950
970
998
1061
1134
1173
1167
1146
1142
1135
1093
1033
926
768
760
891
814
796
1443
2060
1556
648
519
656
263
-320
-790
-1340
-1871
-2224
-2515
-2763
-2927
-3107
-3281
-3315
-3207
-3031
-2849
-2678
-2527
-2506
-2620
-2663
-2602
-2516
-2267
-1846
-1517
-1328
-1124
-957
-944
-959
-851
-697
-589
-446
-223
-30
79
170
295
458
587
572
469
447
511
550
573
658
811
960
1022
1016
1031
1079
1100
1116
1172
1258
1315
1278
1199
1121
911
789
1300
1981
1685
741
466
831
983
886
823
729
637
665
722
732
739
706
564
371
245
142
-118
-507
-724
-659
-556
-590
-634
-545
-359
-187
-98
-67
-34
-13
-61
-123
-100
-11
72
152
246
309
321
322
323
323
366
387
260
76
20
56
71
43
-29
-99
-86
-11
67
141
195
238
307
349
325
359
366
121
91
759
1175
360
-729
-949
-755
-714
-593
-381
-304
-261
-170
-152
-231
-336
-416
-439
-414
-358
-273
-174
-82
-3
14
-46
-77
-8
74
83
48
2
-100
-307
-560
-745
-832
-862
-865
-837
-763
-652
-549
-477
-409
-326
-246
-174
-102
-45
-20
-4
22
47
75
109
73
-69
-217
-311
-395
-439
-378
-272
-210
-166
-56
43
10
179
891
1412
852
-90
-259
104
272
267
286
282
281
321
347
357
383
414
436
444
441
452
493
532
531
507
507
533
538
489
407
352
356
370
348
310
278
244
210
176
107
1
-87
-143
-240
-394
-497
-505
-512
-546
-527
-451
-398
-400
-448
-514
-548
-541
-551
-627
-761
-883
-919
-888
-884
-943
-971
-875
-774
-765
-461
348
786
144
-696
-738
-371
-213
-168
-97
-66
-52
-23
0
32
71
91
110
152
205
248
284
327
366
383
389
409
434
431
411
410
424
422
411
417
425
407
371
354
354
338
310
302
308
298
277
263
262
275
276
244
220
242
282
313
349
399
452
483
465
425
413
424
431
456
492
496
518
543
459
563
1224
1762
1263
331
115
439
593
577
586
571
533
516
512
477
349
189
139
95
-144
-496
-776
-1000
-1226
-1396
-1490
-1590
-1694
-1652
-1380
-1018
-751
-588
-459
-351
-266
-190
-145
-153
-183
-234
-358
-550
-724
-792
-796
-897
-1139
-1340
-1355
-1245
-1120
-1008
-906
-795
-684
-623
-633
-680
-726
-731
-683
-605
-498
-374
-286
-225
-131
-15
86
109
2
102
784
1377
843
-299
-690
-304
22
153
313
422
452
510
585
644
704
754
777
781
776
778
788
789
788
802
813
811
814
827
818
775
735
718
665
525
354
244
186
113
38
26
64
93
108
132
158
184
213
232
246
266
275
268
260
255
238
208
176
171
193
199
169
121
77
60
59
48
61
92
72
57
42
-35
200
934
1214
375
-540
-563
-233
-157
-165
-134
-146
-152
-134
-144
-154
-152
-162
-175
-188
-208
-228
-248
-258
-246
-244
-251
-230
-212
-239
-261
-249
-250
-269
-283
-310
-350
-377
-404
-443
-459
-454
-466
-484
-477
-469
-477
-471
-449
-455
-483
-492
-491
-501
-507
-499
-479
-451
-431
-425
-431
-454
-470
-462
-469
-469
-439
-441
-438
-406
-470
-371
288
810
223
-794
-1012
-657
-466
-403
-301
-264
-269
-234
-189
-151
-128
-129
-106
-47
6
50
97
140
177
184
150
146
195
215
180
169
212
258
281
304
323
316
317
370
424
440
491
580
607
605
664
729
746
767
810
844
881
930
973
1008
1055
1128
1206
1244
1262
1296
1316
1321
1358
1415
1463
1501
1521
1565
1617
1583
1747
2425
2902
2356
1501
1332
1561
1746
1852
1523
787
337
188
-158
-614
-950
-1192
-1234
-1143
-1241
-1482
-1613
-1690
-1812
-1907
-1949
-1986
-2033
-2075
-2089
-2102
-2142
-2171
-2178
-2206
-2241
-2254
-2265
-2272
-2239
-2184
-2156
-2155
-2114
-1941
-1592
-1148
-746
-407
-57
281
526
720
933
1119
1239
1373
1561
1674
1556
1257
981
790
546
245
52
-42
-156
-310
-559
-717
-287
346
15
-1087
-1569
-1251
-991
-944
-855
-806
-818
-761
-673
-604
-505
-408
-387
-435
-510
-572
-581
-571
-609
-670
-688
-667
-656
-687
-710
-643
-519
-420
-298
-111
8
-35
-103
-31
195
503
822
1089
1306
1526
1724
1844
1939
2068
2188
2272
2343
2383
2395
2432
2482
2496
2485
2441
2332
2230
2158
1994
1754
1601
1502
1283
980
750
536
297
420
1010
1175
330
-607
-741
-508
-481
-528
-514
-534
-578
-594
-609
-640
-679
-697
-676
-663
-686
-691
-661
-642
-645
-641
-625
-619
-624
-623
-611
-605
-617
-635
-645
-646
-662
-703
-725
-704
-675
-666
-645
-598
-565
-563
-555
-529
-516
-524
-521
-506
-505
-512
-505
-507
-534
-523
-452
-411
-431
-443
-433
-427
-418
-398
-362
-322
-318
-303
-263
-316
-226
404
973
526
-421
-690
-390
-237
-239
-186
-162
-182
-158
-107
-70
-51
-38
-10
12
5
8
44
70
78
98
123
134
136
137
140
159
187
191
176
181
187
161
137
140
141
138
152
162
177
222
252
224
197
205
199
172
176
205
206
183
177
196
221
237
232
200
169
157
150
140
145
163
150
143
198
173
128
581
1334
1208
115
-566
-341
-21
42
96
155
149
150
174
195
210
195
158
145
148
134
113
116
140
146
140
170
227
239
195
159
162
156
118
80
51
2
-61
-96
-96
-88
-90
-100
-110
-112
-108
-110
-126
-143
-146
-149
-160
-163
-164
-175
-187
-196
-189
-147
-100
-95
-120
-137
-144
-161
-181
-171
-148
-161
-153
-115
-176
-96
518
1074
618
-353
-657
-364
-187
-172
-122
-98
-116
-120
-120
-118
-108
-105
-101
-93
-90
-86
-83
-85
-72
-38
-21
-32
-31
-2
4
-33
-50
-18
5
-12
-43
-68
-85
-103
-124
-130
-113
-101
-97
-91
-96
-104
-83
-66
-87
-112
-117
-124
-124
-115
-122
-131
-101
-51
-24
-24
-37
-55
-70
-77
-88
-86
-66
-80
-94
-46
-76
-89
412
1118
893
-166
-715
-451
-175
-124
-56
-5
-10
17
32
3
8
39
24
2
28
74
106
133
165
196
215
223
226
222
217
217
224
230
214
160
101
65
34
11
18
18
-6
-7
24
31
17
22
40
47
53
68
73
60
54
64
78
97
123
133
122
104
76
39
13
-5
-13
12
26
-8
-22
-56
-97
263
961
951
-35
-750
-571
-232
-151
-99
-52
-75
-70
-34
-26
-26
-19
-17
-6
13
24
25
33
58
82
85
91
119
140
133
106
78
58
41
20
-4
-35
-76
-108
-107
-93
-104
-128
-129
-114
-120
-141
-140
-123
-121
-137
-147
-136
-137
-171
-192
-170
-144
-136
-115
-88
-97
-125
-124
-106
-105
-106
-92
-96
-94
-72
-132
-82
502
1145
788
-253
-672
-372
-165
-168
-117
-77
-94
-62
-10
-8
-29
-30
-11
14
21
11
18
49
71
77
85
93
96
109
123
115
86
65
66
63
39
14
7
-3
-21
-29
-20
-11
-17
-27
-15
8
7
-8
-12
-12
-14
-21
-43
-69
-71
-58
-50
-28
1
-6
-35
-49
-65
-96
-102
-77
-76
-74
-10
0
-9
422
1172
1155
169
-522
-369
-118
-118
-105
-75
-109
-113
-98
-113
-114
-101
-95
-62
-7
33
66
103
120
127
146
156
140
118
106
88
56
29
26
12
-45
-98
-100
-96
-119
-131
-116
-107
-116
-115
-94
-83
-88
-76
-47
-31
-15
24
46
17
-13
-3
21
42
68
80
62
45
52
50
23
12
16
0
12
28
-61
51
726
1250
686
-306
-523
-190
-70
-112
-73
-41
-38
-8
1
-24
-34
-22
-9
1
5
15
30
21
-12
-27
-17
-8
-19
-53
-84
-77
-63
-86
-117
-116
-110
-123
-139
-157
-167
-143
-107
-89
-74
-45
-9
31
54
50
46
55
58
57
68
64
34
23
54
88
98
77
42
25
24
10
3
5
-16
-1
29
-83
-41
600
1179
675
-334
-606
-288
-134
-136
-102
-113
-144
-125
-121
-143
-141
-123
-110
-112
-130
-131
-116
-114
-89
-14
46
53
45
38
14
-13
-21
-6
16
33
29
-10
-67
-107
-118
-103
-42
47
89
74
57
50
33
19
12
20
60
82
40
-8
0
22
14
-4
-26
-56
-66
-46
-48
-78
-79
-78
-109
-82
-74
-173
79
839
1036
121
-700
-582
-213
-116
-68
-17
-48
-70
-68
-76
-65
-66
-102
-99
-47
-25
-30
11
82
113
111
125
152
166
158
145
156
170
141
110
109
79
5
-29
-13
-11
-38
-49
-33
-11
-2
-2
-2
0
6
15
21
20
10
13
47
86
95
76
48
23
20
20
11
21
20
-15
15
44
-51
149
853
1087
234
-638
-624
-277
-157
-113
-81
-110
-95
-53
-76
-100
-74
-54
-51
-48
-50
-38
-12
-8
-10
27
67
55
28
35
46
37
31
29
20
23
21
-20
-54
-39
-23
-39
-48
-36
-28
-29
-31
-23
-9
-12
-31
-34
-33
-56
-73
-46
-5
10
-4
-37
-57
-36
-24
-52
-60
-43
-44
-26
-48
-140
133
895
1135
279
-576
-542
-209
-133
-108
-45
-57
-71
-29
-8
-27
-35
-26
-19
-11
1
6
14
37
51
42
36
40
41
40
31
20
21
19
-3
-21
-35
-60
-79
-77
-79
-93
-95
-88
-89
-92
-87
-83
-79
-70
-76
-102
-118
-103
-78
-57
-30
-12
-30
-53
-49
-46
-61
-47
-20
-44
-47
-8
-79
-39
573
1218
824
-204
-563
-249
-80
-114
-85
-82
-128
-109
-74
-81
-75
-47
-40
-46
-42
-40
-41
-20
14
31
39
45
42
44
52
45
33
28
11
-11
-12
-8
-21
-21
5
0
-46
-43
14
37
38
61
48
12
49
95
44
-26
-22
20
59
96
105
76
42
29
25
8
-6
-2
0
19
43
-38
-16
558
1232
931
-81
-507
-216
-12
-25
22
58
27
37
67
56
39
38
48
64
46
7
23
76
99
118
142
114
63
52
47
13
-11
-34
-79
-103
-96
-104
-122
-121
-122
-132
-127
-117
-124
-126
-108
-107
-135
-140
-100
-79
-118
-161
-169
-177
-163
-84
-21
-46
-75
-55
-66
-124
-132
-86
-89
-123
-98
-130
-244
31
784
1024
229
-572
-562
-257
-170
-148
-105
-109
-94
-43
-27
-18
31
69
66
80
103
75
46
78
97
51
22
52
83
82
56
32
45
80
83
52
33
29
9
-18
-32
-42
-48
-35
-14
-6
-3
3
-11
-45
-46
-4
9
-40
-80
-49
9
21
-7
-23
-20
-24
-40
-59
-60
-50
-67
-77
-36
-84
-164
215
935
934
21
-611
-444
-183
-170
-142
-85
-99
-86
-44
-49
-45
1
29
27
19
23
61
94
58
26
85
144
117
79
86
103
109
111
108
101
81
41
19
47
61
14
-4
33
19
-15
35
86
50
17
37
51
43
32
10
-7
11
49
76
65
-8
-77
-38
12
-47
-76
-25
-54
-79
-22
-119
-91
591
1141
457
-648
-814
-386
-223
-224
-168
-170
-182
-147
-171
-199
-138
-95
-107
-91
-72
-84
-64
-18
-7
-16
4
50
62
9
