# session 6
-26
-150
191
-100
-1448
-2465
-2533
-2348
-1891
-1196
-1329
-2213
-2461
-1983
-1696
-1621
-1423
-1265
-1240
-1203
-1149
-1098
-987
-858
-797
-772
-708
-609
-525
-478
-427
-364
-363
-397
-333
-220
-189
-167
-95
-86
-117
-53
40
69
89
98
53
25
42
59
77
9
-139
70
709
874
129
-578
-558
-308
-251
-213
-141
-127
-105
-44
-4
32
92
134
155
206
268
295
325
384
432
473
535
582
576
545
527
533
545
528
495
470
442
410
379
335
298
273
238
226
190
43
117
686
1042
461
-377
-503
-168
-8
-8
45
118
135
96
81
153
221
193
161
208
275
309
313
271
199
165
186
187
109
-4
-47
-10
-5
-73
-132
-157
-167
-136
-107
-150
-178
-145
-168
-204
-175
-247
-250
291
871
475
-464
-732
-392
-226
-287
-306
-311
-329
-308
-277
-262
-236
-202
-183
-163
-115
-51
-4
-2
-42
-66
-27
33
57
83
139
159
134
139
172
160
125
124
135
120
88
38
-51
-111
-109
-210
-301
82
638
386
-501
-858
-531
-244
-168
-98
-48
-23
23
30
-10
-14
12
21
50
110
137
120
91
33
-31
-41
-33
-46
-39
-17
-18
-32
-50
-69
-60
-25
2
-20
-94
-129
-77
-69
-124
-88
-83
-219
24
796
1025
201
-558
-493
-199
-137
-148
-169
-217
-224
-220
-225
-182
-131
-114
-66
12
41
48
81
104
93
71
76
129
167
138
132
184
179
117
127
179
186
196
208
170
119
58
3
44
25
-112
162
831
773
-228
-863
-598
-231
-143
-65
23
33
49
58
1
-37
-22
-21
-9
72
145
136
101
82
40
-29
-61
-38
-24
-45
-53
-53
-100
-164
-199
-235
-259
-228
-213
-243
-225
-181
-183
-144
-124
-248
-84
635
994
311
-484
-502
-223
-177
-181
-119
-99
-95
-66
-44
-33
-13
27
98
180
244
293
317
297
262
259
292
323
321
305
306
302
265
230
221
219
237
258
222
173
185
159
58
48
49
-132
-64
574
869
127
-684
-643
-268
-142
-100
-22
-11
-31
-3
61
112
94
38
58
153
186
135
132
183
147
19
-46
3
73
82
31
-32
-76
-96
-79
-58
-86
-103
-53
-35
-74
-73
-81
-131
-135
-233
-375
-10
669
552
-370
-890
-711
-526
-543
-554
-563
-593
-585
-565
-549
-498
-425
-376
-338
-273
-204
-167
-147
-130
-128
-113
-59
-7
21
51
77
94
130
160
154
161
209
225
167
92
39
-10
-24
-14
-121
-191
255
898
675
-329
-857
-558
-189
-98
-74
-26
10
37
49
39
18
28
93
151
157
163
194
206
196
176
134
114
153
172
111
33
-16
-64
-113
-131
-147
-239
-432
-613
-628
-514
-432
-337
-166
-178
-310
129
994
1002
26
-540
-263
4
-36
-63
-48
-47
6
79
139
212
268
305
392
502
559
575
583
588
616
656
667
683
765
860
891
876
874
912
953
950
960
1018
1014
938
931
942
881
864
819
690
969
1617
1563
670
147
357
639
831
919
603
142
28
65
-47
-161
-198
-261
-341
-426
-576
-752
-889
-1046
-1263
-1501
-1768
-2037
-2194
-2326
-2649
-2953
-2796
-2244
-1710
-1333
-1036
-778
-560
-437
-423
-441
-507
-672
-939
-1249
-1219
-615
-276
-1008
-2059
-2393
-2210
-2033
-1890
-1736
-1581
-1357
-1067
-783
-530
-316
-133
40
200
353
500
607
647
673
755
878
956
974
1008
1068
1087
1102
1185
1255
1212
1164
1224
1292
1284
1261
1222
1169
1203
1186
1029
1265
2012
2165
1249
482
631
968
984
958
931
735
522
459
492
545
539
463
458
552
619
675
738
678
536
427
243
1
-47
20
-71
-180
-75
79
148
233
324
362
387
379
344
332
282
212
145
-45
-55
496
836
113
-867
-1057
-837
-849
-994
-1090
-1161
-1242
-1338
-1407
-1550
-1923
-2210
-1982
-1473
-1133
-931
-716
-552
-483
-418
-283
-139
-94
-85
12
137
186
213
261
299
343
411
436
408
407
398
351
383
402
254
406
1123
1451
755
-91
-410
-517
-488
-184
85
147
209
309
331
307
315
290
171
74
32
-157
-510
-855
-1248
-1692
-1846
-1592
-1240
-996
-806
-651
-560
-495
-442
-447
-454
-409
-455
-646
-767
-800
-916
-985
-961
-1122
-1137
-424
201
-406
-1454
-1608
-1211
-1034
-877
-541
-287
-157
-7
140
247
346
448
560
677
772
856
948
1006
1020
1052
1107
1164
1233
1287
1297
1327
1388
1419
1454
1535
1594
1615
1639
1649
1645
1637
1602
1609
1623
1487
1542
2172
2597
1988
1119
1029
1406
1572
1502
1410
1414
1518
1588
1587
1621
1638
1497
1256
1037
874
822
812
624
276
-41
-405
-904
-1265
-1310
-1258
-1259
-1232
-1215
-1322
-1467
-1531
-1579
-1683
-1806
-1902
-1978
-2041
-2047
-2032
-2158
-2217
-1731
-1109
-1361
-2303
-2828
-2735
-2575
-2493
-2346
-2132
-1917
-1782
-1740
-1700
-1653
-1686
-1776
-1785
-1593
-1236
-1036
-1235
-1488
-1326
-914
-678
-637
-601
-571
-684
-937
-1029
-728
-233
180
508
776
981
1172
1302
1366
1531
1667
1546
1703
2511
2922
2214
1469
1420
1333
980
907
1030
1068
1204
1402
1409
1329
1306
1215
994
763
588
441
364
442
639
829
930
920
837
775
797
871
915
855
724
641
578
377
69
-156
-274
-402
-514
-457
-353
-493
-559
-1
550
56
-935
-1241
-1032
-993
-1078
-1120
-1200
-1275
-1300
-1335
-1297
-1040
-639
-320
-162
-29
161
321
424
452
279
-63
-312
-326
-143
157
434
585
693
883
1103
1236
1311
1409
1490
1519
1529
1528
1534
1520
1370
1358
1938
2581
2295
1435
1134
1431
1649
1677
1764
1872
1755
1386
1062
969
957
910
850
722
493
269
91
-109
-319
-477
-609
-781
-999
-1246
-1554
-1919
-2240
-2455
-2628
-2807
-2940
-2963
-2943
-3020
-3153
-3194
-3205
-3284
-3439
-3727
-3796
-3139
-2496
-3030
-4104
-4413
-4154
-4030
-4018
-3988
-3804
-3193
-2351
-1716
-1250
-782
-418
-211
-32
189
413
586
693
767
829
888
997
1182
1368
1499
1615
1733
1817
1872
1946
2051
2168
2250
2274
2302
2345
2360
2426
2507
2379
2356
2934
3417
2866
2011
1957
2321
2464
2567
2641
2440
2225
2310
2504
2547
2449
2325
2272
2286
2258
2137
1958
1684
1246
689
98
-448
-845
-1127
-1396
-1477
-1179
-745
-472
-307
-175
-131
-123
-111
-176
-286
-336
-313
-241
-255
-375
-123
591
744
-105
-843
-794
-601
-666
-806
-1035
-1373
-1616
-1732
-1861
-2016
-2135
-2183
-2153
-2079
-2017
-1985
-1977
-1993
-2001
-1945
-1866
-1843
-1827
-1755
-1725
-1782
-1792
-1740
-1715
-1583
-1230
-875
-649
-354
63
393
634
916
1070
1070
1517
2433
2641
1782
1112
1275
1650
1792
1564
963
578
783
1099
1224
1375
1552
1644
1704
1675
1542
1514
1475
1061
424
-62
-490
-1006
-1451
-1772
-2114
-2526
-2804
-2698
-2370
-2233
-2218
-2025
-1811
-1783
-1754
-1567
-1235
-826
-659
-737
-239
892
1219
293
-421
-174
235
343
399
452
423
369
331
337
411
504
583
655
705
730
756
774
765
747
746
756
752
709
649
627
639
634
624
647
675
683
693
688
661
654
649
614
612
565
414
605
1289
1506
704
-139
-213
44
169
219
226
161
90
76
154
259
257
175
142
147
124
106
112
84
27
22
60
54
-5
-67
-113
-130
-175
-335
-489
-454
-405
-562
-717
-669
-591
-587
-533
-392
-316
-431
-375
352
1119
765
-275
-647
-344
-156
-148
-105
-104
-160
-169
-125
-140
-310
-502
-498
-369
-309
-291
-257
-294
-411
-477
-427
-339
-306
-311
-268
-192
-159
-150
-100
-33
7
42
78
83
99
164
195
204
263
214
172
699
1459
1268
239
-307
-82
189
236
271
352
283
-19
-224
-86
153
336
455
250
-243
-477
-319
-169
-131
-33
21
-160
-411
-463
-400
-439
-523
-523
-510
-556
-618
-674
-723
-726
-653
-557
-509
-390
-168
-219
-407
150
1125
972
-163
-628
-224
75
110
139
98
38
40
-99
-421
-652
-687
-694
-750
-769
-682
-503
-308
-183
-106
-19
19
-38
-55
54
150
140
154
258
328
322
353
427
446
448
482
462
440
520
493
383
793
1586
1568
587
-54
144
438
486
534
596
579
571
614
640
633
666
743
805
829
763
557
384
416
533
574
569
576
590
582
559
558
467
105
-424
-834
-995
-932
-831
-931
-1092
-1049
-924
-847
-746
-713
-588
-77
174
-554
-1473
-1628
-1400
-1350
-1411
-1534
-1726
-1851
-1943
-2112
-2321
-2536
-2620
-2320
-1700
-1094
-664
-416
-299
-143
120
354
502
628
750
860
965
1048
1112
1185
1269
1353
1438
1491
1493
1528
1631
1708
1760
1838
1826
1886
2435
3023
2695
1804
1467
1676
1816
1861
1923
1905
1860
1903
1948
1875
1848
2027
1952
1181
384
395
864
1084
1031
956
962
1075
1230
1321
1244
917
395
-110
-448
-699
-1018
-1375
-1634
-1760
-1801
-1905
-2204
-2507
-2611
-2752
-2954
-2652
-2003
-2170
-3235
-3843
-3533
-3166
-3166
-3286
-3420
-3532
-3584
-3681
-3777
-3735
-3711
-3732
-3390
-2607
-1864
-1399
-1053
-760
-539
-328
-129
25
168
313
432
530
626
731
843
929
987
1043
1087
1129
1166
1156
1183
1267
1179
1146
1769
2512
2189
1179
790
1041
1214
1243
1271
1237
1213
1256
1266
1244
1248
1248
1229
1242
1323
1424
1415
1241
1025
877
769
699
725
783
750
679
680
655
499
367
376
409
387
298
51
-305
-599
-781
-860
-957
-1142
-869
123
656
-64
-841
-689
-289
-178
-71
62
71
71
90
6
-203
-489
-693
-612
-326
-119
-69
-80
-91
-27
141
284
325
381
503
592
623
656
730
822
809
660
474
90
-630
-1146
-985
-605
-493
-527
-521
-191
717
1483
1210
489
423
853
1120
1223
1347
1440
1506
1586
1642
1696
1781
1820
1825
1922
1963
1630
1059
759
860
1057
1130
1025
728
308
-139
-501
-614
-541
-567
-738
-874
-921
-941
-1028
-1195
-1260
-1157
-1020
-884
-854
-950
-659
36
23
-1018
-1871
-1921
-1823
-1974
-2163
-2292
-2433
-2599
-2765
-2921
-3068
-3187
-3322
-3528
-3523
-2991
-2376
-2295
-2479
-2500
-2597
-2927
-3238
-3434
-3504
-3322
-2937
-2567
-2273
-1911
-1384
-840
-439
-105
155
164
104
375
755
659
443
1055
2104
2161
1257
776
1069
1408
1546
1651
1690
1687
1723
1737
1776
1896
1849
1572
1462
1642
1786
1809
1891
2007
2058
2090
2118
2087
2029
1999
1973
1933
1889
1849
1838
1851
1828
1762
1706
1677
1673
1654
1593
1586
1550
1388
1624
2417
2577
1585
771
831
906
698
711
880
905
930
1043
1090
1086
1122
1145
1133
1154
1219
1200
811
41
-493
-321
152
409
527
680
789
825
877
950
988
1029
1121
1183
1198
1269
1204
678
-62
-525
-881
-1394
-1580
-1336
-1687
-2960
-3996
-4198
-4220
-4430
-4576
-4621
-4725
-4858
-4913
-4956
-5035
-5008
-4956
-5069
-4918
-4150
-3477
-3385
-3186
-2510
-1907
-1532
-1054
-587
-390
-268
-41
117
162
287
528
797
1050
1219
1358
1524
1432
1087
1078
1225
817
643
1670
2476
1666
627
762
1216
1096
716
354
48
-24
68
94
96
140
158
174
200
124
-35
-129
-111
12
250
534
752
849
751
506
368
356
217
123
470
1077
1530
1807
2037
2267
2438
2455
2487
2659
2694
2781
3396
3824
3177
2156
1567
1006
263
-290
-693
-1117
-1427
-1618
-1818
-1927
-1802
-1489
-1042
-484
-65
-123
-573
-1048
-1396
-1621
-1761
-1942
-2087
-1915
-1512
-1198
-905
-434
60
428
744
905
766
523
406
433
633
1000
1327
1432
1615
2320
3060
2870
2064
1725
1839
1800
1650
1528
1266
920
686
504
294
106
-82
-309
-505
-643
-780
-878
-919
-1095
-1369
-1262
-655
-61
227
301
102
-425
-987
-1201
-952
-479
-175
-206
-420
-614
-788
-1020
-1207
-1355
-1660
-1749
-1152
-695
-1376
-2404
-2597
-2263
-2005
-1650
-1194
-1014
-1010
-829
-533
-344
-204
20
337
705
1006
1192
1390
1420
858
-55
-697
-1122
-1579
-1845
-1942
-2226
-2449
-2165
-1624
-1182
-793
-517
-400
-199
28
7
-55
88
164
99
435
1299
1757
1135
184
-109
153
460
686
808
808
844
981
1071
1071
1100
1172
1188
1158
1182
1259
1287
1248
1202
1173
1147
1121
1081
1025
982
961
927
865
800
732
660
610
566
505
464
428
347
325
341
191
202
836
1327
730
-191
-318
-1
107
112
126
64
21
51
51
-15
-87
-98
-63
-73
-118
-123
-139
-229
-323
-367
-398
-422
-434
-457
-503
-562
-618
-647
-641
-622
-606
-600
-619
-655
-684
-715
-756
-746
-747
-886
-826
-207
249
-333
-1278
-1460
-1101
-913
-900
-869
-836
-789
-715
-657
-623
-591
-537
-462
-407
-370
-313
-244
-205
-203
-219
-210
-146
-76
-65
-76
-35
12
-3
-33
-32
-11
35
72
49
30
42
21
30
43
-77
36
745
1237
661
-225
-299
210
424
109
-277
-306
-3
419
592
11
-1038
-1453
-934
-254
159
484
783
996
1167
1332
1491
1639
1750
1832
1902
1951
2009
2058
1894
1536
1434
1645
1489
804
320
229
146
311
872
1162
1199
1686
1996
1083
-113
-65
887
1439
1173
570
91
-241
-302
237
994
1031
204
-628
-605
92
274
-454
-924
-487
127
537
993
1363
1500
1619
1810
2067
2243
1836
741
-382
-1106
-1627
-2085
-2422
-2691
-2931
-3058
-3153
-3426
-3628
-3304
-2940
-3452
-4424
-4705
-4340
-4134
-4206
-4190
-3947
-3527
-3075
-2714
-2320
-1697
-970
-434
-63
297
365
-135
-745
-831
-454
-74
98
216
470
760
878
882
910
858
623
396
351
305
93
-21
208
559
825
1099
1277
1278
1596
2313
2440
1634
990
1118
1403
1473
1557
1691
1769
1794
1709
1576
1626
1714
1442
956
746
812
825
710
568
444
312
108
-127
-225
-120
66
216
312
386
462
526
573
633
694
689
644
636
649
665
672
574
555
1008
1566
1338
522
147
349
494
417
378
421
394
278
234
320
413
457
513
581
620
645
666
640
573
524
479
390
292
158
-119
-497
-844
-1154
-1477
-1832
-2241
-2664
-2977
-3107
-3071
-2921
-2715
-2447
-2138
-1975
-1887
-1429
-781
-826
-1522
-1786
-1345
-933
-823
-735
