# session 20
18
161
-323
212
2328
3818
3640
3222
3255
3171
2970
2904
2813
2661
2561
2459
2330
2224
2116
1991
1881
1791
1714
1659
1601
1513
1406
1311
1233
1154
1069
1006
951
874
826
765
633
793
1436
1686
864
-97
-206
86
152
126
143
109
61
48
18
-21
-44
-68
-90
-101
-111
-118
-113
-103
-92
-85
-88
-109
-142
-182
-227
-277
-331
-384
-431
-474
-510
-537
-554
-563
-562
-555
-550
-547
-543
-542
-544
-546
-549
-552
-551
-553
-566
-581
-590
-590
-570
-529
-490
-481
-496
-509
-503
-495
-496
-481
-458
-459
-439
-414
-468
-306
351
772
155
-776
-933
-591
-436
-411
-341
-313
-314
-283
-258
-249
-230
-209
-189
-159
-126
-96
-60
-16
33
79
113
128
124
110
95
79
55
24
-5
-25
-39
-50
-51
-44
-33
-16
4
19
32
46
53
53
53
57
63
68
60
40
28
34
59
102
142
148
125
108
111
111
102
117
134
117
131
146
71
256
955
1301
532
-432
-521
-151
-2
37
110
123
111
130
140
139
149
158
168
183
198
221
255
293
332
364
381
384
373
344
305
262
212
162
117
74
37
17
5
-5
-10
-5
6
17
18
9
-2
-13
-17
-17
-30
-56
-79
-90
-87
-68
-45
-39
-50
-67
-75
-75
-87
-98
-85
-89
-102
-64
-92
-138
288
1012
897
-174
-846
-615
-289
-226
-162
-99
-110
-100
-72
-77
-76
-60
-52
-36
-8
9
28
69
118
155
180
195
190
168
137
96
45
-1
-37
-78
-120
-146
-156
-161
-161
-155
-148
-136
-125
-120
-120
-119
-121
-125
-129
-138
-154
-169
-173
-161
-127
-93
-89
-110
-124
-121
-121
-130
-121
-104
-114
-106
-86
-151
-26
625
1108
519
-482
-709
-365
-191
-166
-96
-69
-78
-57
-44
-42
-26
-10
1
23
46
67
95
131
170
210
238
244
233
213
186
148
108
74
42
8
-23
-43
-54
-56
-50
-42
-35
-29
-21
-13
-9
-10
-12
-11
-13
-27
-48
-65
-70
-59
-28
8
19
0
-24
-31
-28
-34
-36
-23
-29
-33
-4
-48
-31
470
1108
856
-141
-638
-388
-143
-117
-76
-39
-47
-31
-8
-11
-8
6
15
26
44
63
85
115
149
182
206
216
210
193
170
137
95
56
20
-14
-44
-68
-84
-91
-89
-79
-68
-62
-59
-59
-58
-58
-58
-60
-65
-79
-101
-119
-125
-116
-88
-51
-34
-51
-79
-85
-76
-84
-94
-77
-73
-82
-55
-93
-120
323
1028
916
-76
-688
-489
-216
-172
-127
-78
-83
-70
-49
-49
-38
-21
-18
-8
18
40
66
103
142
175
200
212
212
204
185
153
114
72
30
-3
-30
-58
-71
-68
-66
-67
-61
-51
-47
-46
-46
-49
-53
-57
-70
-88
-100
-108
-101
-68
-32
-30
-54
-74
-77
-73
-82
-89
-69
-65
-72
-41
-86
-103
388
1082
836
-252
-807
-525
-238
-184
-108
-55
-73
-56
-23
-25
-19
1
9
21
50
78
102
133
175
220
256
275
274
253
217
176
133
91
48
7
-27
-53
-69
-74
-67
-55
-48
-46
-43
-38
-35
-37
-48
-62
-75
-87
-93
-85
-65
-41
-31
-49
-78
-80
-65
-76
-90
-70
-67
-77
-43
-83
-117
347
1050
854
-209
-787
-525
-232
-176
-106
-51
-65
-53
-28
-33
-30
-9
6
18
38
62
87
123
168
209
234
243
234
211
181
146
104
60
20
-13
-40
-60
-73
-81
-81
-73
-64
-58
-55
-55
-58
-61
-63
-71
-88
-106
-114
-107
-83
-50
-37
-56
-82
-88
-83
-89
-98
-83
-76
-83
-55
-82
-133
244
981
1012
60
-664
-526
-218
-159
-123
-67
-71
-66
-42
-42
-38
-21
-11
-1
20
40
62
94
129
164
192
208
207
191
167
140
108
71
33
-1
-30
-55
-68
-70
-67
-62
-53
-45
-41
-38
-36
-34
-36
-48
-67
-81
-85
-69
-32
-1
-3
-28
-46
-50
-52
-61
-59
-46
-55
-55
-31
-93
-64
486
1121
803
-205
-649
-383
-163
-141
-91
-52
-60
-46
-33
-38
-29
-14
-10
2
23
43
67
96
129
161
181
183
175
160
138
105
69
34
1
-33
-61
-80
-88
-90
-88
-82
-76
-71
-68
-64
-63
-63
-72
-92
-112
-123
-117
-86
-45
-30
-50
-74
-84
-86
-93
-99
-87
-83
-87
-51
-74
-147
190
944
1063
151
-630
-548
-233
-160
-125
-66
-68
-66
-38
-35
-41
-26
-8
8
27
51
76
103
136
172
199
217
220
203
181
157
122
81
47
18
-16
-47
-64
-65
-61
-55
-46
-40
-42
-40
-33
-36
-53
-68
-80
-91
-85
-51
-18
-17
-37
-57
-73
-85
-92
-80
-61
-77
-75
-40
-119
-87
518
1113
621
-459
-790
-432
-211
-177
-94
-50
-66
-44
-18
-23
-20
-4
11
28
51
78
110
148
191
230
255
262
252
231
199
160
122
84
45
6
-27
-53
-65
-63
-56
-50
-44
-37
-34
-35
-38
-41
-52
-72
-89
-90
-78
-55
-34
-38
-65
-83
-81
-81
-96
-93
-78
-87
-67
-54
-149
-1
690
1089
373
-596
-709
-348
-202
-165
-87
-71
-79
-52
-40
-40
-29
-23
-13
11
33
53
83
119
152
182
203
205
191
170
142
108
70
34
1
-31
-58
-75
-79
-75
-68
-65
-63
-57
-49
-48
-52
-57
-68
-86
-104
-108
-91
-56
-27
-26
-46
-62
-67
-68
-77
-75
-58
-66
-59
-33
-102
-41
561
1147
708
-314
-666
-355
-151
-132
-81
-53
-63
-44
-28
-30
-22
-10
-1
15
35
53
76
104
135
166
187
193
184
169
148
120
86
51
16
-17
-44
-61
-69
-67
-63
-57
-49
-39
-32
-31
-31
-30
-32
-43
-61
-80
-92
-85
-53
-14
1
-14
-37
-48
-49
-56
-63
-51
-47
-56
-30
-50
-114
210
943
1076
195
-585
-517
-208
-141
-116
-60
-63
-67
-44
-39
-39
-27
-19
-12
4
24
44
66
93
123
150
164
163
151
133
108
74
38
5
-29
-60
-84
-102
-109
-106
-102
-99
-87
-72
-68
-72
-74
-72
-72
-73
-81
-99
-118
-126
-114
-75
-33
-22
-45
-69
-69
-60
-70
-74
-51
-53
-62
-21
-58
-84
389
1094
917
-116
-699
-471
-197
-142
-80
-31
-44
-37
-16
-13
-7
5
13
29
48
65
89
122
161
200
227
236
229
212
194
172
137
94
54
15
-22
-47
-58
-60
-59
-57
-55
-47
-33
-27
-34
-47
-53
-59
-73
-88
-94
-97
-93
-69
-39
-32
-50
-73
-83
-82
-86
-75
-63
-88
-79
-46
-131
-23
665
1146
464
-597
-790
-404
-212
-168
-85
-60
-70
-47
-29
-26
-14
-2
12
30
50
80
119
155
192
237
273
278
258
232
202
162
116
71
29
-9
-38
-61
-78
-86
-86
-77
-63
-53
-55
-55
-48
-50
-59
-66
-80
-105
-119
-108
-84
-59
-46
-54
-76
-85
-81
-89
-97
-77
-72
-89
-59
-71
-139
192
928
1010
65
-708
-591
-259
-181
-136
-72
-76
-70
-37
-33
-33
-19
-11
0
23
46
70
102
138
174
206
223
223
207
181
149
113
76
41
5
-27
-51
-67
-76
-77
-68
-59
-54
-50
-45
-43
-45
-47
-49
-58
-78
-98
-106
-98
-71
-39
-28
-44
-65
-72
-71
-78
-81
-67
-68
-72
-39
-74
-107
318
1036
974
-8
-663
-484
-194
-146
-106
-55
-62
-54
-30
-31
-29
-13
-4
8
28
46
65
93
127
162
190
205
205
192
172
145
113
77
39
6
-23
-47
-62
-66
-64
-60
-50
-40
-35
-32
-30
-31
-34
-34
-38
-53
-75
-89
-90
-72
-34
-2
-2
-25
-44
-48
-49
-58
-55
-40
-49
-50
-27
-87
-30
547
1132
722
-296
-672
-372
-165
-152
-104
-71
-80
-63
-48
-52
-42
-27
-21
-9
10
26
47
75
104
132
157
169
164
148
125
96
64
29
-6
-40
-71
-94
-104
-105
-99
-92
-85
-77
-67
-64
-65
-63
-60
-63
-67
-68
-74
-90
-103
-104
-89
-56
-21
-17
-40
-61
-61
-55
-63
-60
-42
-52
-49
-23
-93
-12
615
1155
623
-416
-708
-366
-165
-139
-73
-39
-48
-31
-16
-18
-10
-1
5
21
44
69
95
125
159
193
218
230
227
215
199
169
121
76
43
11
-21
-50
-71
-76
-67
-58
-54
-54
-50
-40
-36
-41
-46
-52
-67
-83
-92
-94
-83
-48
-20
-34
-63
-72
-72
-79
-83
-65
-58
-81
-60
-38
-129
47
773
1143
349
-647
-729
-347
-195
-143
-55
-46
-63
-33
-13
-16
-8
8
22
42
64
91
126
168
208
246
274
281
265
240
210
164
113
74
38
-3
-39
-59
-70
-78
-79
-75
-70
-65
-63
-61
-56
-55
-64
-76
-84
-96
-112
-121
-114
-88
-58
-54
-79
-101
-102
-103
-118
-115
-94
-103
-101
-69
-133
-82
511
1104
660
-386
-746
-426
-211
-178
-111
-80
-95
-71
-47
-49
-39
-25
-16
2
22
40
66
102
138
172
201
215
215
201
176
145
111
77
42
8
-21
-43
-58
-64
-64
-60
-53
-44
-40
-37
-32
-30
-33
-36
-44
-61
-80
-87
-73
-38
-6
-5
-29
-47
-48
-47
-58
-57
-40
-48
-52
-26
-82
-44
513
1130
773
-250
-668
-377
-153
-134
-85
-51
-60
-42
-25
-32
-28
-14
-6
8
26
43
63
89
119
151
175
185
183
170
147
116
82
46
10
-25
-53
-74
-90
-100
-100
-94
-85
-76
-67
-63
-64
-62
-55
-58
-77
-98
-107
-107
-89
-51
-22
-30
-54
-64
-60
-65
-78
-68
-51
-63
-51
-37
-110
52
735
1161
512
-447
-616
-289
-146
-128
-70
-52
-57
-36
-29
-30
-15
-6
-3
12
32
51
75
103
131
160
183
193
188
171
145
113
77
40
6
-26
-51
-68
-76
-79
-77
-74
-67
-59
-51
-46
-41
-39
-42
-47
-51
-63
-82
-92
-84
-59
-25
-7
-21
-45
-54
-52
-62
-67
-50
-53
-62
-28
-63
-98
336
1053
966
-23
-654
-459
-178
-140
-105
-60
-69
-60
-36
-37
-34
-21
-16
-7
11
27
46
73
106
136
161
175
176
165
145
120
91
60
25
-9
-38
-61
-80
-86
-80
-72
-66
-61
-57
-52
-45
-44
-54
-73
-91
-98
-83
-48
-17
-17
-42
-64
-70
-70
-80
-78
-62
-74
-72
-40
-117
-109
453
1103
770
-243
-658
-374
-163
-150
-101
-66
-79
-64
-47
-47
-32
-16
-14
-5
15
32
56
91
125
154
180
190
183
169
152
132
103
65
25
-8
-34
-52
-61
-64
-64
-60
-51
-45
-45
-44
-39
-41
-55
-71
-80
-79
-65
-36
-15
-23
-49
-63
-63
-73
-85
-70
-62
-81
-51
-57
-161
92
843
1054
151
-718
-662
-305
-203
-146
-60
-63
-73
-41
-33
-37
-16
1
4
20
47
74
103
138
173
205
229
234
229
220
195
149
105
71
35
-5
-34
-48
-52
-53
-52
-47
-36
-30
-29
-28
-29
-39
-57
-69
-68
-55
-31
-14
-21
-45
-58
-56
-66
-79
-61
-55
-74
-42
-53
-155
124
866
1012
91
-720
-628
-287
-196
-143
-69
-73
-78
-50
-41
-39
-26
-18
-6
14
34
59
88
118
151
181
199
202
192
172
146
112
72
33
-1
-31
-54
-72
-84
-84
-76
-67
-59
-52
-49
-52
-54
-62
-79
-94
-96
-79
-45
-19
-22
-45
-63
-66
-66
-77
-75
-60
-68
-62
-39
-120
-71
535
1141
716
-311
-667
-359
-161
-145
-88
-58
-71
-51
-33
-37
-28
-15
-10
5
26
42
65
96
123
150
177
192
188
173
151
122
89
55
20
-11
-36
-56
-71
-76
-73
-69
-65
-57
-48
-42
-38
-37
-46
-64
-79
-88
-82
-51
-15
-7
-29
-54
-60
-60
-69
-75
-58
-58
-68
-41
-79
-133
265
1000
1006
58
-627
-478
-190
-149
-121
-73
-81
-78
-52
-50
-48
-36
-28
-17
-1
15
35
62
90
117
143
159
162
153
135
112
87
57
23
-11
-40
-62
-78
-89
-92
-89
-82
-73
-64
-56
-50
-47
-46
-47
-56
-72
-88
-97
-91
-56
-16
-10
-36
-58
-62
-61
-72
-73
-53
-55
-61
-26
-68
-100
355
1072
949
-59
-668
-455
-175
-137
-95
-39
-41
-38
-22
-21
-8
11
15
23
48
71
89
116
149
177
200
222
231
219
197
175
148
114
78
43
9
-22
-41
-49
-49
-43
-33
-26
-27
-30
-29
-29
-40
-51
-52
-63
-88
-105
-105
-94
-68
-44
-51
-77
-90
-91
-99
-112
-100
-93
-117
-94
-73
-166
17
743
1084
269
-699
-741
-358
-227
-186
-98
-86
-96
-66
-56
-59
-37
-18
-11
10
38
62
89
128
171
207
235
251
248
226
198
168
132
89
48
14
-14
-36
-50
-57
-62
-60
-50
-39
-35
-35
-37
-38
-39
-40
-44
-55
-76
-94
-101
-93
-68
-37
-24
-38
-60
-67
-65
-74
-77
-57
-62
-72
-41
-86
-96
394
1061
816
-221
-744
-481
-214
-167
-108
-64
-75
-59
-36
-40
-37
-24
-14
0
18
37
62
91
119
150
182
202
203
192
177
154
119
83
49
14
-19
-44
-59
-67
-67
-66
-63
-55
-48
-43
-39
-36
-36
-36
-37
-42
-52
-68
-86
-97
-93
-68
-29
-7
-16
-41
-54
-52
-56
-62
-50
-49
-59
-31
-51
-94
268
967
994
75
-632
-505
-201
-141
-110
-59
-63
-60
-33
-30
-29
-17
-10
-2
14
32
54
83
113
142
171
193
196
187
174
153
124
93
62
27
-7
-33
-51
-64
-67
-62
-56
-49
-40
-33
-32
-31
-32
-35
-38
-38
-42
-57
-78
-95
-98
-79
-43
-15
-18
-43
-62
-64
-68
-79
-71
-59
-69
-52
-54
-118
126
822
1078
294
-566
-594
-271
-172
-148
-89
-88
-94
-69
-65
-75
-67
-57
-49
-32
-17
-4
13
