# session 10
-411
-1868
3210
-2249
-24208
-39836
-38100
-33723
-33979
-33031
-30860
-30139
-29198
-27654
-26682
-25726
-24492
-23492
-22550
-21488
-20523
-19613
-18663
-17760
-16898
-16029
-15189
-14384
-13587
-12809
-12060
-11329
-10617
-9924
-9249
-8595
-7962
-7346
-6748
-6170
-5610
-5070
-4548
-4042
-3553
-3077
-2618
-2180
-1756
-1342
-945
-570
-209
147
505
847
1152
1433
1723
2027
2320
2581
2828
3089
3341
3596
3960
4420
4837
5257
5753
6197
6642
7169
7216
6349
5271
4769
4653
4553
4525
4567
4556
4523
4516
4496
4468
4454
4440
4465
4599
4884
5367
5967
6422
6696
6941
7083
7181
7444
7393
6589
5873
6021
6412
6298
5812
5302
4879
4443
3844
3256
2959
2812
2578
2344
2160
1908
1632
1438
1261
1063
917
812
683
553
458
363
248
149
69
-20
-115
-198
-272
-349
-422
-488
-557
-634
-708
-773
-838
-903
-940
-953
-1008
-1119
-1204
-1234
-1259
-1300
-1339
-1378
-1420
-1455
-1479
-1495
-1513
-1538
-1563
-1577
-1590
-1600
-1575
-1521
-1494
-1480
-1423
-1385
-1429
-1449
-1397
-1404
-1460
-1457
-1475
-1532
-1469
-1367
-1440
-1582
-1615
-1604
-1622
-1609
-1555
-1536
-1572
-1576
-1489
-1411
-1448
-1512
-1490
-1428
-1392
-1365
-1334
-1302
-1264
-1229
-1205
-1176
-1138
-1102
-1068
-1027
-988
-959
-927
-890
-854
-813
-766
-731
-706
-672
-632
-599
-562
-520
-487
-460
-426
-392
-362
-328
-287
-254
-236
-208
-165
-137
-121
-62
24
40
-7
-13
37
83
111
139
167
191
211
231
261
292
308
319
340
361
374
394
419
430
431
440
448
449
457
471
474
474
483
486
484
499
522
526
514
509
519
525
519
540
560
509
511
714
869
721
520
515
562
564
591
618
618
634
641
621
623
633
627
650
688
672
630
624
622
599
587
579
535
482
457
432
401
397
405
382
346
329
315
296
299
329
328
274
267
318
276
240
494
784
597
162
32
153
251
315
341
315
314
327
299
298
345
349
309
300
318
327
341
354
311
221
149
104
57
27
21
-11
-77
-121
-144
-183
-207
-190
-193
-245
-287
-288
-270
-220
-155
-130
32
645
1388
1354
486
-144
-18
293
376
368
370
396
479
557
566
519
446
395
379
337
244
157
101
44
-27
-91
-134
-169
-231
-314
-381
-430
-491
-572
-658
-731
-783
-836
-928
-1044
-1125
-1193
-1300
-1383
-1460
-1676
-1770
-1381
-1066
-1554
-2318
-2507
-2333
-2297
-2358
-2406
-2479
-2565
-2638
-2657
-2617
-2618
-2691
-2798
-2911
-2829
-2449
-2079
-1864
-1559
-1296
-1443
-1755
-1765
-1598
-1643
-1934
-2180
-2168
-2082
-2166
-2136
-1715
-1386
-1486
-1406
-748
-6
442
705
849
1130
1964
2870
2846
2178
2031
2472
2787
2898
3046
3148
3171
3232
3308
3341
3368
3412
3446
3476
3509
3529
3516
3476
3435
3400
3350
3279
3207
3138
3071
3007
2931
2846
2779
2737
2691
2645
2609
2557
2496
2457
2405
2353
2354
2264
2104
2346
2862
2673
1698
1036
1081
1235
1188
1031
780
484
228
-29
-343
-650
-861
-1008
-1193
-1397
-1549
-1742
-2094
-2510
-3013
-3833
-4675
-4760
-4021
-3195
-2675
-2314
-2032
-1835
-1698
-1633
-1592
-1564
-1701
-1971
-2161
-2279
-2359
-2313
-2334
-2500
-2298
-1745
-1782
-2473
-2700
-2178
-1672
-1469
-1312
-1160
-1083
-1104
-1292
-1600
-1832
-2025
-2447
-3057
-3589
-4128
-4668
-4593
-3684
-2680
-2065
-1593
-1130
-788
-512
-238
-32
117
285
461
608
755
922
1055
1127
1199
1284
1335
1409
1470
1367
1413
1989
2417
1905
1173
1201
1597
1729
1765
1867
1888
1868
1909
1934
1932
1988
2019
1901
1768
1786
1860
1876
1870
1829
1737
1685
1664
1576
1450
1350
1186
781
110
-498
-603
-289
-53
-7
-45
-463
-1280
-1735
-1546
-1490
-1969
-2223
-1534
-482
-250
-783
-966
-554
-202
-47
165
381
536
702
843
928
1022
1141
1254
1370
1491
1598
1685
1759
1822
1877
1921
1958
1990
2008
2013
2011
2005
2000
2005
2032
2064
2097
2130
2139
2124
2130
2148
2155
2201
2210
2062
1946
1816
956
-712
-2055
-2491
-2684
-3071
-3436
-3712
-4024
-4356
-4660
-4938
-5182
-5358
-5534
-5843
-6047
-5640
-4703
-3831
-3218
-2661
-2093
-1566
-1109
-735
-395
-111
1
31
194
401
447
507
818
1010
504
-503
-1165
-1027
-409
55
179
507
1264
1573
957
464
817
1277
1363
1448
1544
1440
1330
1409
1725
1921
1113
-452
-1120
-480
299
658
707
510
434
694
977
1120
1084
836
641
443
-182
-901
-1185
-1374
-1614
-1433
-1059
-994
-874
-531
-447
-461
-153
70
105
637
1381
1240
482
277
638
872
927
1008
1052
1052
1081
1106
1114
1136
1149
1142
1150
1177
1186
1145
1052
943
829
694
588
567
562
504
421
308
139
10
11
84
143
157
113
47
-21
-158
-299
-294
-362
-670
-674
-160
-89
-899
-1546
-1405
-1107
-1039
-966
-887
-906
-879
-752
-634
-544
-452
-380
-321
-255
-196
-164
-185
-276
-353
-325
-247
-221
-242
-261
-282
-321
-367
-412
-470
-531
-552
-546
-552
-552
-583
-767
-976
-897
-677
-719
-672
-11
518
-8
-843
-880
-451
-245
-180
-87
-40
0
68
109
138
198
270
341
411
478
531
564
577
576
573
578
571
549
551
570
562
533
506
479
464
474
512
563
570
538
548
576
585
638
629
507
728
1355
1436
669
131
352
678
756
809
884
911
927
967
1022
1047
1075
1194
1210
935
707
823
1008
1043
1059
1095
1081
1072
1099
1107
1098
1088
1056
1029
1034
1022
1031
1040
718
-32
-776
-1285
-1586
-1425
-1026
-1338
-2315
-2717
-2412
-2628
-3528
-3985
-3752
-3552
-3583
-3576
-3489
-3406
-3434
-3538
-3388
-2860
-2287
-1879
-1524
-1182
-923
-723
-530
-358
-232
-128
-18
83
158
222
281
321
345
382
429
467
517
581
602
585
600
612
609
672
676
534
705
1320
1464
734
137
303
638
725
761
810
806
811
840
844
837
845
859
866
869
870
867
854
833
806
783
769
746
712
679
635
573
520
485
458
435
425
424
405
365
353
355
297
275
320
199
132
631
1112
601
-289
-411
-36
128
159
239
283
254
120
-48
-55
70
159
199
198
185
213
131
-136
-297
-213
-120
-119
-102
-77
-98
-127
-136
-146
-156
-154
-145
-129
-114
-123
-134
-115
-116
-125
-77
-126
-264
8
614
559
-265
-722
-471
-223
-201
-145
-90
-111
-109
-71
-50
-32
-2
26
57
95
124
125
103
69
41
29
-11
-75
-79
-84
-155
-132
-160
-707
-1467
-1623
-1263
-1026
-966
-871
-774
-737
-702
-597
-536
-638
-508
94
327
-371
-1045
-892
-470
-321
-260
-180
-160
-139
-85
-60
-48
-16
23
67
117
163
200
206
178
162
172
173
158
153
155
142
114
90
73
61
57
60
66
64
47
40
42
25
49
83
-44
-69
468
989
534
-354
-510
-122
56
60
117
140
125
148
173
185
209
239
275
318
342
343
340
342
343
328
304
297
304
301
297
296
266
218
207
226
225
218
237
232
194
186
180
155
176
118
-51
174
848
964
193
-370
-193
61
72
89
126
105
106
132
132
141
162
163
170
201
214
183
144
130
127
110
88
77
60
27
-9
-45
-93
-137
-156
-158
-150
-125
-123
-174
-205
-199
-239
-248
-196
-318
-414
57
573
120
-788
-954
-557
-361
-342
-284
-262
-265
-235
-216
-197
-159
-135
-111
-62
-24
-13
-11
-17
-38
-58
-64
-64
-82
-119
-144
-160
-191
-223
-236
-234
-222
-203
-183
-155
-132
-128
-154
-185
-144
-125
-272
-210
374
693
58
-679
-619
-241
-132
-116
-52
-46
-60
-40
-24
-16
3
27
52
68
66
61
62
53
36
40
55
38
-2
-23
-29
-49
-81
-107
-120
-112
-89
-52
-18
-24
-49
-45
-49
-48
31
22
-132
73
715
843
139
-390
-239
5
38
77
140
141
145
181
206
227
259
290
320
360
402
436
455
457
440
420
404
382
355
332
305
267
228
195
172
174
193
212
205
179
189
219
174
148
205
116
48
548
1102
653
-302
-524
-156
56
113
189
199
172
181
197
220
248
258
276
305
311
335
334
100
-326
-587
-618
-668
-698
-548
-457
-707
-1138
-1396
-1339
-1124
-983
-913
-781
-640
-581
-530
-471
-447
-367
-276
-358
-286
295
649
46
-721
-703
-298
-120
-65
1
14
27
77
109
136
185
232
275
324
366
380
361
323
291
259
207
159
137
125
107
87
60
27
10
14
16
20
36
31
-1
-18
-23
-21
4
-71
-220
18
629
689
-46
-556
-368
-110
-90
-56
22
32
31
54
68
88
117
135
152
175
190
193
191
187
186
173
137
108
103
94
67
39
7
-32
-48
-37
-14
15
26
-3
-21
-12
-29
-17
35
-71
-146
320
902
607
-245
-528
-237
-49
-18
48
77
52
55
77
91
109
130
157
187
215
243
250
218
185
172
145
99
70
60
44
14
-22
-54
-79
-98
-113
-113
-94
-93
-118
-123
-129
-163
-135
-129
-261
-119
480
644
-107
-766
-624
-278
-189
-148
-76
-66
-72
-59
-51
-39
-12
25
65
94
120
150
157
127
90
68
49
20
-1
-5
-18
-44
-52
-50
-69
-87
-73
-46
-47
-85
-110
-109
-130
-117
-46
-138
-302
8
592
455
-360
-730
-432
-180
-149
-88
-33
-55
-70
-63
-54
-24
7
18
36
74
101
90
55
31
28
21
5
3
9
-9
-40
-62
-86
-112
-116
-91
-60
-36
-36
-59
-59
-43
-63
-51
-9
-103
-80
481
985
522
-357
-552
-230
-55
-21
27
23
8
37
56
62
82
103
132
180
220
234
229
210
183
160
143
123
96
75
56
26
-9
-41
-68
-85
-91
-88
-75
-87
-121
-118
-114
-137
-95
-94
-233
-40
593
658
-210
-833
-587
-211
-132
-83
-12
-13
-5
38
59
73
105
149
198
230
237
236
227
198
171
161
134
89
71
81
75
43
5
-19
-18
-16
-30
-27
-12
-34
-65
-66
-88
-88
-30
-127
-256
151
778
548
-324
-621
-286
-86
-87
-40
-20
-42
-14
17
22
51
95
127
160
191
204
192
159
130
119
115
106
101
94
78
51
16
-19
-44
-68
-89
-96
-89
-87
-107
-115
-94
-110
-136
-111
-205
-320
92
728
470
-492
-850
-488
-242
-233
-180
-133
-126
-100
-96
-104
-83
-75
-70
-36
-17
-9
18
-1
-65
-69
-42
-86
-152
-163
-167
-202
-217
-190
-184
-228
-224
-121
-34
-37
-50
-30
-24
-52
-54
0
-34
-147
135
851
1058
369
-271
-253
-52
-1
58
143
170
188
227
248
249
262
301
333
329
330
351
326
262
271
341
303
164
153
305
329
118
-16
102
223
190
140
110
42
7
52
63
-16
-39
29
-54
-143
240
667
230
-653
-874
-484
-192
-137
-137
-133
-101
-69
-113
-191
-176
-97
-90
-121
-119
-186
-297
-251
-107
-79
-134
-187
-251
-263
-241
-308
-363
-252
-145
-221
-340
-339
-298
-327
-383
-379
-343
-317
-248
-216
-318
-129
622
1030
374
-417
-406
-84
-6
21
84
80
78
82
63
121
185
101
27
104
197
267
307
204
159
348
359
58
-24
138
124
83
226
272
159
135
142
24
-109
-186
-310
-510
-724
-829
-666
-447
-624
-825
-227
597
308
-710
-1006
-566
-310
-303
-164
16
78
112
160
225
314
316
220
213
260
193
128
191
276
328
357
347
365
440
473
432
414
465
525
598
761
915
907
828
805
805
790
667
381
87
-180
-284
334
1340
1358
417
-85
29
132
380
749
736
555
625
737
757
819
842
829
946
1070
1012
881
759
569
367
246
47
-300
-503
-605
-1141
-1925
-2109
-1748
-1473
-1115
-637
-984
-2309
-3274
-3113
-2440
-1928
-1579
-1137
-757
-729
-465
484
950
190
-525
-338
-23
-80
-120
18
75
74
226
275
-67
-358
-152
248
464
583
711
566
-75
-857
-1320
-1444
-1307
-984
-736
-601
-420
-331
-352
-165
98
52
-90
-46
-23
-52
56
162
173
259
335
375
764
1350
1319
610
32
-32
164
308
215
-49
-183
-121
-109
-214
-239
-120
-7
36
104
194
175
105
96
29
-87
-70
32
153
251
113
-126
-110
-2
-31
-18
27
-65
-115
30
147
116
109
192
190
35
82
721
1442
1273
421
-23
147
311
238
176
277
366
261
219
450
549
364
477
897
920
675
777
921
707
542
600
515
331
334
432
502
600
614
423
224
245
416
491
346
139
69
94
156
262
247
206
706
1547
1517
352
-651
-624
-89
256
328
288
288
438
609
565
422
508
788
921
833
767
820
825
722
643
615
626
689
675
654
876
922
201
-688
-707
-131
-215
-1329
-2494
-3214
-4146
-5121
-5278
-5330
-6112
-6437
-5387
-3771
-2342
-1626
-2043
-2550
-2001
-1238
-1123
-1028
-692
-575
-517
-248
-15
94
175
159
94
132
237
303
252
139
185
395
485
392
377
642
1008
1018
681
580
857
1078
1065
968
961
1132
1261
1074
756
718
1037
1330
1441
1851
2391
1946
684
93
354
504
456
564
642
574
574
699
872
1030
1056
916
769
731
752
723
600
450
346
266
210
217
230
233
340
506
527
438
399
354
322
455
533
313
167
409
668
644
525
421
390
715
1171
932
16
-574
-526
-415
-398
-223
-35
-72
-132
-43
-30
-127
-38
159
168
123
137
26
-61
40
-22
-292
-314
-151
-222
-447
-595
-757
-950
-1000
-924
-869
-854
-870
-917
-914
-833
-769
-827
-986
-1092
-1164
-1268
-953
-37
358
-536
-1618
-1794
-1460
-1245
-1179
-1103
-910
-675
-481
-253
-111
-152
-100
96
236
402
570
514
451
630
711
474
278
323
396
430
448
328
142
91
62
-27
-12
-3
-172
-230
-60
9
24
174
36
-251
446
1719
1595
240
-340
-20
106
138
357
362
156
116
259
345
263
270
532
643
609
923
1070
652
513
292
-458
412
2525
1918
-228
88
