# session 14
127
202
-69
231
1409
2252
2184
1944
1909
1847
1756
1684
1594
1537
1464
1343
1282
1185
1084
1443
2013
1762
807
362
616
808
765
758
766
720
684
653
590
552
549
509
450
455
472
404
304
250
219
177
137
101
52
-28
-122
-193
-256
-333
-380
-402
-477
-586
-663
-731
-736
-654
-692
-746
-332
232
-4
-849
-1217
-958
-701
-626
-588
-596
-645
-677
-699
-708
-684
-666
-667
-640
-596
-587
-584
-560
-579
-648
-663
-607
-562
-535
-503
-516
-598
-674
-681
-629
-580
-585
-592
-546
-514
-513
-453
-455
-564
-292
404
508
-293
-861
-616
-240
-153
-131
-55
-13
-45
-51
54
134
99
126
253
315
328
382
416
409
427
455
446
445
482
495
469
467
505
534
550
562
549
537
554
540
515
568
556
398
572
1244
1492
795
115
237
653
827
889
943
961
1043
1151
1117
1016
1014
1060
1082
1126
1169
1169
1182
1225
1244
1241
1205
1103
1004
972
981
1027
1083
1088
1061
1030
963
870
827
866
945
1042
1139
1108
1101
1690
2472
1891
89
-722
-71
363
307
530
231
-1146
-2117
-1944
-1657
-1539
-1416
-2025
-3241
-3916
-4300
-5136
-5542
-4744
-3610
-2835
-2156
-1665
-1661
-1871
-2148
-2588
-2736
-2227
-1562
-1188
-923
-628
-428
-299
-90
97
86
225
867
1339
793
-386
-1314
-1871
-2349
-2647
-2427
-1777
-1205
-881
-590
-321
-149
29
215
342
486
657
730
675
596
611
702
729
733
815
734
373
167
341
546
625
744
878
913
914
941
991
1074
1068
968
1262
2013
2090
981
139
410
370
-947
-2687
-4219
-5309
-5244
-4261
-3551
-3152
-2430
-1663
-1220
-844
-437
-143
111
401
637
797
967
1166
1326
1432
1542
1685
1826
1948
2072
2182
2240
2301
2403
2459
2502
2628
2647
2564
2905
3562
3533
2683
2133
2393
2714
2515
2251
2347
2272
1707
1439
1899
2448
2703
2912
3167
3323
3335
3280
3152
2810
2410
2457
2955
3207
2894
2548
2653
3033
3357
3575
3790
4048
4034
3336
2390
1965
1666
633
-801
-1596
-1494
-1438
-2556
-4497
-5816
-6185
-6342
-6420
-6298
-6257
-6109
-5254
-3939
-3104
-2884
-2467
-1703
-1374
-1515
-1356
-809
-306
-188
-888
-2251
-3350
-3967
-4538
-4809
-4554
-4461
-4772
-4698
-3803
-2608
-1964
-2320
-3295
-4201
-4798
-5195
-5623
-6109
-6084
-5354
-4713
-4420
-3739
-2421
-1025
-331
-863
-2186
-3401
-4140
-4077
-2960
-1511
-518
196
878
1419
1861
2249
2590
2993
3122
2508
1637
1332
1535
1820
2110
2371
2534
2675
2830
2965
3112
3243
3275
3245
3225
3244
3292
3231
3175
3646
4415
4362
3420
2799
2890
3035
2987
2946
2918
2852
2783
2716
2649
2556
2383
2174
2061
2078
2135
2139
2079
2007
1938
1819
1672
1567
1384
983
536
286
178
65
-25
-68
-178
-337
-364
-269
-176
-112
-206
-363
2
732
678
-262
-839
-656
-434
-428
-420
-456
-540
-499
-472
-736
-1118
-1271
-1198
-1055
-890
-750
-683
-665
-663
-662
-683
-759
-855
-922
-969
-1010
-1020
-1002
-1004
-1037
-1037
-1014
-1042
-1091
-1107
-1088
-1020
-1057
-1269
-1099
-303
35
-767
-1614
-1584
-1226
-1093
-1041
-966
-921
-890
-867
-839
-783
-742
-722
-654
-548
-484
-469
-442
-401
-400
-427
-431
-417
-413
-412
-403
-392
-378
-355
-315
-254
-203
-183
-180
-197
-202
-117
-78
-203
-35
655
967
318
-353
-295
-17
50
90
154
170
198
227
217
211
223
241
290
359
407
417
388
350
370
455
516
511
474
417
336
277
286
327
324
272
224
189
143
65
-17
-7
2
-181
-151
527
1028
463
-352
-414
-150
-77
-6
75
58
100
172
128
106
199
272
288
288
262
254
283
289
280
295
302
292
300
317
313
298
304
337
373
397
404
381
357
363
363
381
430
308
151
596
1394
1302
307
-248
-7
245
261
279
280
230
221
220
180
190
254
245
178
200
274
307
325
266
172
270
236
-355
-906
-905
-954
-1241
-1167
-821
-675
-633
-559
-537
-521
-500
-496
-457
-502
-532
-75
515
185
-785
-1099
-686
-412
-396
-297
-181
-205
-256
-208
-128
-104
-99
-50
23
81
106
85
46
49
100
138
138
133
142
124
68
24
14
13
32
70
80
78
87
46
23
91
7
-124
361
1147
958
-52
-481
-168
62
114
227
272
229
238
267
275
299
323
333
271
-9
-405
-555
-412
-279
-238
-173
-121
-137
-145
-117
-126
-180
-175
-91
-33
-12
41
91
63
-28
-63
-4
-55
-214
38
645
575
-349
-942
-727
-426
-373
-320
-266
-287
-265
-220
-250
-233
-95
-12
-53
-61
2
29
32
76
116
112
88
45
9
37
82
52
-13
-12
54
130
175
185
190
177
149
183
161
-60
7
722
1128
405
-487
-516
-164
-54
-29
44
68
65
76
93
129
148
127
127
171
184
159
169
196
177
161
177
159
111
93
80
43
16
12
17
28
27
43
111
148
133
190
189
-28
43
686
932
133
-716
-739
-399
-217
-138
-124
-165
-160
-124
-117
-98
-55
-31
-35
-43
-30
-3
12
4
-16
-30
-32
-38
-48
-50
-61
-92
-115
-126
-132
-118
-129
-189
-220
-204
-192
-142
-139
-304
-215
452
856
242
-557
-585
-231
-88
-53
8
29
40
83
125
163
222
286
316
313
332
386
387
309
255
265
260
239
239
186
61
-22
-68
-177
-258
-186
-115
-196
-286
-291
-329
-368
-342
-414
-430
39
585
361
-334
-585
-394
-258
-233
-219
-232
-245
-231
-223
-232
-241
-242
-229
-185
-123
-86
-66
-20
20
5
-32
-24
17
35
32
29
-3
-42
-21
33
46
17
2
18
25
28
66
16
-135
102
830
1084
380
-304
-256
2
51
74
101
46
20
56
56
57
127
205
228
233
265
298
279
210
174
220
275
270
243
222
176
123
120
136
127
119
109
62
14
-31
-66
1
35
-125
-23
582
773
33
-613
-441
-59
53
88
120
72
31
56
62
11
-27
-16
-13
-19
16
27
-63
-157
-173
-190
-249
-290
-289
-278
-270
-268
-264
-261
-262
-245
-215
-234
-271
-250
-231
-253
-291
-416
-393
190
769
372
-513
-722
-375
-180
-135
-53
-10
-4
17
25
33
67
95
127
188
236
239
228
222
211
206
201
174
158
169
153
114
131
177
179
183
213
210
188
172
106
53
69
-54
-183
232
859
637
-266
-692
-499
-343
-332
-272
-207
-159
-95
-54
-33
-1
23
35
47
51
51
34
-34
-110
-125
-116
-152
-216
-267
-303
-328
-352
-377
-378
-347
-320
-298
-225
-140
-160
-208
-153
-210
-366
32
870
876
-119
-737
-508
-225
-175
-93
-12
-9
13
49
51
70
119
150
169
203
229
228
219
212
210
226
233
197
165
189
221
203
177
209
279
308
262
204
204
203
162
188
202
49
131
748
1067
419
-352
-389
-105
-15
2
50
54
52
74
92
131
198
225
202
223
321
375
304
216
231
272
209
80
3
-24
-70
-153
-235
-252
-213
-207
-263
-317
-319
-295
-304
-312
-257
-286
-389
-59
702
863
80
-576
-495
-247
-195
-158
-107
-105
-87
-56
-69
-86
-63
-18
47
138
231
282
271
232
207
185
152
126
95
31
-23
-18
-4
-21
-17
7
-15
-42
-25
-51
-81
3
-12
-135
219
934
887
-12
-547
-351
-126
-99
-52
-20
-64
-101
-113
-105
-62
-18
-3
3
20
58
102
131
164
218
242
192
114
95
121
107
51
23
18
3
-21
-54
-54
-14
-37
-74
6
-10
-122
294
1088
1034
53
-496
-184
196
308
390
479
512
532
593
700
783
825
917
1010
1088
1279
1101
-251
-2138
-2976
-2817
-3150
-4406
-5746
-6735
-7570
-8216
-8633
-9156
-9575
-8981
-7370
-5800
-4723
-3830
-2992
-2248
-1670
-1253
-523
607
1131
695
439
931
1501
1842
2185
2480
2662
2888
3151
3346
3525
3739
3944
4133
4332
4502
4609
4707
4851
5008
5125
5223
5341
5463
5567
5676
5803
5916
6012
6127
6251
6321
6339
6376
6436
6483
6542
6523
6381
6592
7373
7521
5916
3609
2258
1798
1460
1143
769
104
-662
-1270
-1819
-2412
-2963
-3412
-3814
-4192
-4497
-4749
-5013
-5213
-5331
-5495
-5649
-5689
-5628
-5058
-3813
-3035
-3448
-3827
-3249
-2514
-2173
-1774
-1232
-953
-972
-1006
-1083
-1392
-1509
-924
-336
-565
-789
-176
267
-385
-1405
-2062
-2561
-3048
-3389
-3645
-3897
-4100
-4253
-4394
-4534
-4678
-4828
-5002
-5203
-5376
-5487
-5572
-5663
-5768
-5875
-5977
-6110
-6237
-6274
-6363
-6502
-6066
-4659
-2938
-1659
-741
154
894
1309
1875
2940
3678
3369
2867
3097
3618
3870
4019
4191
4284
4341
4418
4475
4517
4572
4618
4638
4674
4723
4693
4556
4397
4265
4151
4062
3966
3817
3665
3567
3464
3305
3142
3025
2913
2759
2595
2471
2354
2187
2050
1985
1811
1623
1854
2198
1785
852
472
722
902
864
810
734
639
592
559
509
470
434
376
312
253
178
87
-2
-85
-162
-227
-290
-364
-439
-519
-605
-672
-726
-787
-831
-859
-914
-979
-1029
-1086
-1098
-1076
-1204
-1313
-926
-388
-600
-1347
-1637
-1396
-1207
-1161
-1105
-1083
-1096
-1075
-1049
-1046
-1042
-1033
-1016
-985
-962
-943
-894
-856
-873
-882
-851
-855
-901
-919
-922
-939
-939
-922
-913
-880
-818
-800
-817
-804
-808
-813
-748
-799
-944
-591
169
200
-636
-1125
-897
-658
-619
-545
-481
-472
-427
-365
-318
-245
-172
-123
-69
-13
13
21
26
14
5
49
105
70
-8
8
84
105
96
102
104
123
165
188
205
221
220
249
241
157
368
904
916
152
-367
-128
223
316
381
467
493
525
573
565
524
520
561
609
622
606
594
584
564
548
541
519
484
460
446
411
363
326
302
288
297
298
259
230
218
191
221
256
127
143
644
948
387
-305
-302
4
111
149
209
210
197
190
150
124
153
193
197
177
174
186
168
119
84
61
28
-11
-65
-150
-235
-287
-324
-370
-415
-428
-412
-415
-438
-449
-471
-484
-475
-599
-758
-446
168
118
-632
-1049
-866
-680
-666
-635
-611
-616
-586
-547
-537
-520
-493
-472
-453
-434
-425
-426
-435
-447
-449
-439
-437
-453
-479
-508
-540
-556
-542
-519
-489
-442
-427
-453
-441
-405
-389
-320
-284
-396
-242
366
561
-111
-660
-428
-34
90
203
351
383
403
513
624
700
797
915
1010
1082
1161
1244
1309
1362
1423
1481
1514
1529
1542
1545
1537
1539
1556
1573
1604
1685
1772
1802
1830
1887
1902
1961
2096
2052
2015
2552
3169
2815
1934
1760
2260
2559
2275
1528
627
7
-23
434
992
1413
1701
1962
2294
2452
2092
1587
1446
1182
256
-881
-1784
-2601
-3364
-3960
-4471
-4939
-5347
-5745
-6027
-6183
-6463
-6572
-5836
-4533
-3438
-2563
-1837
-1395
-718
321
736
339
-244
-1223
-2413
-2688
-2307
-2479
-3060
-3492
-3900
-3872
-2807
-1567
-1492
-2280
-2534
-1779
-777
-292
-152
204
545
403
264
579
905
1030
1044
711
314
516
1051
1308
1415
1622
1777
1815
1916
1976
1637
1212
1383
1647
1020
107
89
705
1084
1142
1233
1445
1399
819
116
-302
-448
-213
153
-98
-709
-660
-49
335
425
498
592
712
842
916
947
972
990
1016
1059
1115
1152
1128
1089
1092
1073
1041
1061
958
789
1114
1737
1587
712
309
585
809
826
850
833
787
800
805
777
777
782
761
748
749
747
739
719
691
666
633
583
530
477
413
337
270
230
200
179
188
189
143
108
83
23
22
7
-199
-185
415
756
109
-661
-681
-404
-337
-325
-294
-322
-341
-326
-336
-356
-355
-348
-340
-335
-336
-341
-356
-390
-428
-458
-489
-529
-575
-624
-678
-737
-793
-829
-841
-833
-835
-881
-923
-920
-934
-937
-896
-987
-1069
-649
-139
-533
-1454
-1695
-1292
-1028
-981
-922
-896
-905
-881
-862
-860
-828
-778
-740
-710
-687
-673
-660
-649
-659
-688
-710
-718
-735
-761
-781
-797
-816
-830
-832
-828
-808
-783
-782
-784
-784
-781
-705
-656
-781
-678
-63
219
-463
-1174
-1060
-645
-485
-404
-292
-243
-210
-147
-99
-54
17
91
152
218
287
343
383
413
433
449
470
490
510
536
540
507
485
509
565
637
692
696
712
781
805
813
911
886
714
1018
1780
1872
1088
629
912
1213
1281
1375
1471
1500
1562
1651
1708
1771
1859
1935
2009
2097
2170
2218
2278
2345
2385
2397
2413
2449
2483
2495
2521
2548
2532
2566
2668
2609
2321
1917
1325
665
438
778
1196
1227
1082
1389
1954
1873
1283
1083
1232
1307
1428
1606
1684
1756
1778
1547
1111
676
404
306
226
84
-160
-592
-1089
-1483
-1863
-2155
-2233
-2558
-3392
-4046
-4094
-4070
-4294
-4489
-4559
-4650
-4793
-4927
-5009
-5103
-5237
-5285
-5359
-5595
-5458
-4745
-4536
-5344
-6045
-5882
-5356
-4998
-4841
-4604
-4037
-3494
-3649
-4479
-5000
-4372
-3132
-2215
-1389
-497
-396
-866
-576
300
664
591
523
430
531
984
1423
1696
1981
2248
2440
2643
2814
2897
2979
3079
3162
3235
3153
2974
3257
3920
3878
3001
2495
2739
2985
2983
2994
2993
2917
2863
2834
2789
2745
2704
2659
2618
2580
2530
2456
2351
2246
2159
2059
1936
1829
1735
1616
1482
1360
1244
1126
1016
931
851
737
618
531
419
321
303
162
-52
216
742
453
-535
-977
-687
-439
-430
-444
-474
-507
-509
-543
-585
-579
-579
-609
-618
-606
-614
-633
-648
-671
-705
-747
-791
-815
-824
-864
-923
-952
-962
-987
-1000
-978
-968
-1002
-1028
-1044
-1084
-1064
-1033
-1191
-1209
-620
-126
-661
-1527
-1586
-1162
-983
-953
-872
-837
-820
-757
-704
-656
-588
-529
-474
-409
-364
-337
-299
-259
-226
-183
-135
-108
-89
-59
-47
-69
-85
-59
-19
19
68
97
87
89
89
66
109
116
-72
-3
669
1084
518
-200
-222
30
87
103
163
176
183
215
238
260
291
322
349
374
402
434
455
461
460
457
447
428
403
375
334
277
231
217
214
213
226
221
179
157
144
98
112
117
-63
-19
600
912
181
-639
-602
-228
-107
-75
-21
-29
-48
-18
