# session 4
70
88
-3
148
598
876
846
803
809
756
687
629
557
524
538
534
505
472
432
414
410
393
400
352
243
521
1243
1415
637
-5
116
365
393
454
533
504
470
470
433
376
339
301
233
158
123
117
86
40
20
0
-24
6
55
49
37
47
2
-95
-170
-228
-272
-259
-222
-231
-283
-355
-407
-423
-473
-538
-546
-607
-581
-31
574
182
-795
-1073
-712
-519
-512
-460
-439
-414
-332
-296
-303
-276
-229
-171
-123
-107
-67
-4
-27
-115
-152
-150
-162
-151
-88
-13
30
25
-31
-100
-143
-168
-162
-98
-38
-44
-51
-25
-35
-95
-105
-12
-7
-134
163
1000
1247
386
-385
-280
32
64
52
79
45
4
5
16
19
20
33
53
66
82
92
54
6
23
66
61
52
89
125
143
178
180
102
12
-31
-48
-58
-63
-52
-29
-46
-70
-17
21
-36
-100
-224
-275
261
1036
852
-163
-636
-337
-101
-114
-76
2
27
33
46
86
143
153
129
144
191
214
204
194
196
183
127
53
29
80
132
116
71
65
65
23
-18
-5
19
8
7
38
41
29
46
49
61
79
-25
25
650
1204
742
-156
-393
-162
-87
-104
-80
-132
-210
-202
-170
-174
-178
-173
-162
-122
-75
-47
-3
49
45
-1
-29
-36
-35
-31
-30
-39
-73
-122
-165
-211
-234
-213
-230
-300
-311
-294
-359
-416
-400
-397
-383
-362
-420
-201
575
1027
345
-587
-693
-351
-206
-179
-156
-177
-154
-85
-60
-43
1
17
-2
-7
16
48
76
90
91
80
51
27
49
91
104
115
153
157
107
71
84
107
115
144
185
162
121
158
190
166
173
97
18
493
1278
1151
102
-490
-261
-30
-41
-10
25
-18
-32
8
33
27
27
81
149
160
167
234
290
276
230
184
150
152
156
120
76
65
66
40
-27
-101
-137
-145
-149
-148
-189
-287
-310
-234
-226
-275
-255
-308
-323
210
895
613
-367
-746
-469
-323
-336
-238
-174
-207
-188
-146
-179
-225
-207
-174
-163
-149
-130
-124
-123
-120
-120
-119
-114
-100
-68
-32
-16
-19
-30
-36
-36
-46
-46
-3
45
56
63
81
84
78
48
10
9
-59
-80
402
1057
822
-151
-645
-468
-315
-325
-306
-309
-350
-357
-343
-314
-263
-232
-185
-15
273
550
719
798
845
868
838
786
776
805
811
747
620
479
366
275
190
115
51
13
5
-29
-97
-138
-171
-210
-187
-231
-399
-165
595
803
-86
-945
-904
-540
-429
-390
-310
-337
-408
-385
-352
-378
-364
-277
-212
-191
-159
-111
-87
-101
-128
-153
-187
-229
-245
-228
-207
-194
-192
-199
-199
-194
-193
-184
-157
-118
-83
-76
-92
-95
-97
-84
-11
-13
-112
166
868
1034
300
-311
-197
90
175
216
258
256
250
258
272
287
287
276
260
243
234
236
236
235
227
195
161
166
196
209
204
199
188
149
74
-5
-28
11
35
11
-4
-7
-27
-27
-15
-14
11
-21
-106
180
864
1012
260
-395
-335
-107
-92
-108
-107
-139
-141
-121
-128
-139
-139
-142
-149
-157
-163
-163
-172
-200
-231
-255
-274
-272
-236
-197
-191
-208
-227
-252
-287
-313
-316
-294
-255
-222
-223
-247
-251
-230
-234
-230
-175
-213
-289
64
682
577
-284
-743
-468
-174
-132
-105
-72
-76
-57
-29
-29
-19
12
36
56
81
97
100
101
100
88
64
48
69
122
162
176
174
148
107
91
94
86
82
109
143
139
115
133
155
129
147
179
69
125
676
1022
455
-278
-286
31
116
118
166
162
143
144
132
135
165
176
169
183
209
212
200
186
160
128
113
116
138
177
196
175
139
101
51
0
-34
-45
-35
-14
-1
-22
-58
-69
-85
-103
-68
-121
-257
40
738
787
-53
-623
-425
-150
-118
-93
-57
-73
-74
-59
-61
-56
-49
-54
-52
-38
-32
-40
-64
-100
-136
-163
-176
-163
-125
-96
-103
-138
-175
-213
-259
-304
-329
-317
-280
-251
-249
-268
-289
-296
-301
-294
-250
-284
-378
-117
477
534
-173
-671
-493
-233
-204
-183
-140
-155
-141
-73
-37
-47
-54
-44
-32
-22
-4
20
30
24
16
7
6
33
77
109
115
95
56
11
-30
-58
-59
-41
-18
16
45
36
25
49
53
48
100
66
-34
287
924
905
135
-312
-108
108
133
175
211
193
204
239
250
251
256
262
271
284
296
300
292
279
266
253
246
264
297
304
274
234
195
149
95
47
22
10
4
26
53
32
9
13
-13
0
41
-86
-80
504
943
351
-499
-534
-175
-88
-90
-19
-9
-26
-26
-58
-73
-36
-9
-10
-21
-45
-53
-28
-27
-88
-148
-156
-144
-144
-143
-129
-121
-153
-222
-274
-294
-327
-366
-368
-350
-355
-376
-378
-360
-367
-388
-343
-318
-408
-252
352
613
-47
-787
-763
-385
-213
-174
-147
-155
-150
-124
-113
-99
-79
-71
-47
-1
33
49
54
47
41
33
20
24
60
101
110
96
77
57
31
4
-9
-7
-3
4
17
7
-7
11
8
-6
48
9
-123
177
815
756
-63
-464
-163
87
95
140
193
185
195
218
225
241
259
266
277
288
288
285
273
248
226
206
191
205
242
261
244
207
169
136
104
80
78
92
108
129
131
95
77
87
64
58
69
-63
-82
455
992
596
-248
-453
-160
-34
-44
-1
12
-5
3
1
-4
19
31
21
20
20
5
-16
-45
-80
-107
-128
-132
-105
-79
-99
-153
-204
-252
-302
-340
-366
-391
-398
-366
-315
-297
-311
-305
-295
-313
-283
-250
-380
-365
162
521
-49
-818
-815
-410
-235
-184
-109
-101
-113
-81
-56
-50
-32
-9
5
27
54
60
48
46
49
37
36
64
94
108
109
90
50
4
-41
-83
-108
-109
-89
-56
-29
-39
-67
-56
-43
-63
-21
3
-136
-30
584
847
175
-496
-398
-71
14
52
114
110
110
141
150
159
187
208
224
245
258
256
254
258
253
234
230
257
290
297
273
231
185
140
94
57
39
30
22
31
41
11
-17
-8
-29
-39
45
22
-99
243
905
827
-9
-426
-161
82
121
177
213
195
197
196
173
168
182
183
179
171
153
133
116
81
25
-24
-53
-63
-63
-72
-98
-136
-184
-239
-287
-324
-349
-358
-358
-352
-340
-345
-356
-356
-376
-367
-302
-347
-357
110
638
281
-606
-862
-502
-268
-230
-158
-109
-114
-95
-71
-69
-63
-49
-35
-23
-16
-14
-18
-30
-54
-86
-107
-101
-75
-50
-36
-36
-49
-72
-101
-129
-147
-152
-155
-153
-133
-121
-138
-137
-123
-140
-115
-76
-189
-143
439
851
288
-496
-496
-107
23
42
112
118
109
152
180
185
212
239
252
271
299
318
314
286
259
247
235
226
246
277
275
246
220
191
150
113
94
77
55
57
85
80
46
47
51
29
64
59
-104
14
660
951
284
-406
-331
-27
23
37
97
90
72
90
100
107
128
143
154
165
175
181
172
146
118
96
77
80
111
129
107
67
25
-27
-82
-122
-154
-181
-189
-169
-151
-178
-222
-231
-246
-276
-239
-262
-421
-249
361
465
-302
-881
-680
-350
-289
-265
-224
-232
-228
-205
-202
-191
-171
-166
-154
-131
-125
-123
-110
-109
-124
-127
-112
-93
-61
-31
-32
-64
-98
-123
-146
-170
-191
-193
-167
-128
-114
-143
-164
-143
-140
-152
-108
-139
-264
-9
632
698
-69
-603
-403
-111
-56
-13
39
32
39
68
84
115
158
187
219
254
271
275
282
289
286
281
286
309
339
353
340
304
258
210
161
117
92
83
90
119
138
107
72
64
45
66
122
5
-76
408
965
558
-355
-547
-148
52
66
129
139
105
129
155
150
163
193
216
235
245
242
236
230
212
176
133
113
126
144
132
95
55
17
-29
-79
-114
-132
-145
-150
-137
-140
-180
-201
-208
-249
-235
-201
-345
-354
188
570
-31
-847
-845
-428
-275
-253
-187
-179
-193
-159
-138
-143
-127
-99
-79
-59
-31
-10
-12
-28
-41
-60
-80
-68
-32
-17
-28
-40
-54
-87
-127
-156
-180
-197
-185
-143
-117
-136
-161
-162
-178
-194
-144
-162
-298
-104
519
686
-10
-615
-495
-204
-158
-152
-106
-103
-102
-79
-62
-43
-15
7
24
37
53
74
84
82
86
96
112
151
204
230
217
181
147
120
90
56
38
36
43
67
91
69
34
38
21
-7
36
-15
-173
125
828
830
-39
-556
-307
-37
-3
49
89
66
92
154
175
181
205
248
295
325
331
328
326
321
301
270
258
278
300
303
288
246
187
143
118
83
38
10
10
26
28
-6
-33
-35
-71
-95
-52
-125
-211
176
700
381
-505
-792
-455
-237
-207
-140
-113
-142
-131
-110
-118
-120
-101
-76
-51
-32
-23
-22
-28
-45
-70
-87
-80
-57
-36
-27
-39
-68
-95
-118
-146
-171
-178
-171
-159
-136
-126
-153
-172
-166
-184
-181
-161
-277
-289
227
713
264
-579
-710
-336
-174
-168
-109
-89
-105
-83
-66
-63
-44
-20
1
20
33
49
67
62
43
40
53
71
103
139
153
143
121
93
57
16
-11
-20
-20
-1
32
28
-16
-29
-27
-49
-32
-37
-191
-152
401
784
299
-392
-446
-182
-109
-111
-71
-74
-85
-56
-37
-27
3
30
47
76
112
132
135
128
120
121
131
153
197
236
230
193
160
130
90
49
26
22
25
41
69
69
38
33
26
-12
16
9
-161
-31
631
848
57
-663
-527
-167
-82
-57
-16
-29
-17
17
8
6
48
81
92
112
137
151
150
139
118
97
85
85
98
115
110
76
47
34
2
-50
-71
-63
-72
-86
-68
-57
-70
-65
-72
-111
-86
-74
-201
-90
474
688
23
-619
-502
-167
-102
-93
-43
-54
-69
-51
-54
-63
-56
-59
-68
-65
-52
-41
-44
-53
-55
-62
-69
-43
7
28
17
-2
-21
-38
-51
-74
-100
-108
-100
-70
-31
-30
-59
-60
-58
-70
-29
-48
-202
-41
585
776
87
-506
-363
-61
-6
16
60
49
46
63
61
71
100
111
113
125
138
137
124
110
102
93
92
117
143
139
111
76
38
-2
-48
-96
-118
-109
-89
-64
-47
-71
-112
-123
-139
-155
-118
-162
-311
-104
490
577
-113
-612
-456
-217
-187
-162
-122
-130
-121
-89
-78
-67
-44
-21
-1
18
29
34
34
31
30
32
43
76
115
123
94
55
22
-10
-46
-75
-88
-91
-83
-52
-24
-37
-47
-29
-44
-53
-10
-87
-165
259
846
587
-269
-541
-194
10
15
76
110
78
85
114
122
125
130
142
168
180
170
160
151
131
102
82
87
115
140
138
112
74
34
-4
-28
-37
-43
-52
-49
-25
-11
-28
-32
-22
-46
-36
16
-83
-143
309
789
368
-485
-635
-240
-43
-27
35
50
21
36
53
48
63
83
88
96
107
108
99
84
62
35
18
18
31
45
48
30
6
-11
-31
-62
-85
-87
-82
-70
-42
-34
-64
-80
-85
-111
-92
-88
-231
-164
401
700
98
-567
-484
-153
-91
-94
-44
-49
-66
-54
-47
-33
-11
-4
0
10
10
2
-13
-33
-51
-69
-67
-30
9
9
-18
-44
-71
-105
-138
-164
-183
-192
-183
-153
-122
-128
-154
-154
-163
-178
-133
-161
-294
-79
519
619
-53
-556
-422
-190
-144
-110
-71
-75
-54
-16
3
25
52
70
90
110
122
135
145
142
138
142
160
190
214
206
170
128
88
49
8
-26
-45
-51
-42
-6
26
3
-30
-18
-24
-34
25
-23
-133
234
850
616
-343
-723
-352
-68
-24
58
106
67
69
115
142
151
151
163
205
239
237
230
238
233
211
196
193
198
199
185
152
112
75
42
5
-29
-50
-61
-66
-54
-52
-85
-107
-111
-136
-110
-77
-201
-140
461
810
141
-666
-622
-214
-87
-63
4
3
-17
2
8
8
36
61
71
85
101
108
103
92
78
59
42
44
63
67
46
20
-7
-48
-96
-132
-155
-164
-158
-128
-95
-111
-147
-145
-159
-182
-122
-148
-313
-88
564
643
-105
-618
-441
-180
-127
-112
-113
-134
-111
-79
-72
-61
-47
-38
-22
1
12
12
7
2
-3
-2
11
32
51
55
30
-9
-41
-74
-119
-152
-152
-136
-118
-93
-89
-118
-121
-101
-122
-113
-74
-190
-195
363
864
387
-470
-610
-272
-125
-105
-43
-34
-49
-20
0
10
45
75
86
116
160
182
178
170
163
154
147
152
167
181
180
160
138
121
96
71
67
63
54
75
109
88
42
35
20
-6
13
-58
-184
127
744
637
-259
-724
-404
-98
-73
-33
18
-2
5
41
53
68
96
113
126
140
150
152
133
94
63
50
45
56
78
80
58
32
1
-37
-65
-81
-90
-80
-52
-34
-46
-65
-56
-46
-55
-4
44
-89
-107
382
752
240
-487
-498
-160
-68
-66
-4
-4
-30
-11
-1
1
35
65
57
42
48
61
60
43
18
-2
-5
14
48
67
64
64
72
65
29
-27
-79
-99
-72
-21
0
-29
-50
-54
-91
-101
-53
-148
-283
71
701
614
-176
-593
-383
-182
-175
-153
-131
-150
-144
-119
-104
-85
-65
-49
-32
-23
-20
-14
-18
-36
-47
-40
-21
12
41
41
15
-21
-54
-86
-125
-159
-161
-131
-95
-73
-79
-99
-96
-98
-122
-87
-68
-206
-116
499
799
101
-672
-602
-205
-79
-51
14
20
14
42
60
76
107
134
164
202
230
243
249
237
203
171
163
170
173
170
166
157
138
116
99
80
61
57
75
97
97
70
