# session 13
16
79
-165
200
1361
2068
1900
1672
1667
1599
1515
1507
1460
1360
1296
1277
1223
1134
1119
1080
917
1058
1614
1641
787
165
365
676
695
696
730
692
649
630
599
579
576
565
555
561
564
545
506
453
392
340
301
255
205
168
136
90
39
-1
-28
-52
-63
-49
-42
-71
-107
-138
-181
-183
-189
-341
-343
191
632
127
-726
-878
-548
-387
-368
-334
-343
-358
-334
-316
-306
-284
-261
-245
-234
-219
-199
-206
-245
-271
-274
-287
-313
-332
-348
-365
-382
-410
-449
-466
-453
-435
-415
-392
-403
-436
-429
-420
-442
-407
-401
-541
-424
167
403
-249
-892
-796
-463
-356
-304
-231
-223
-220
-176
-138
-110
-70
-21
28
63
83
89
79
65
67
68
57
46
42
35
20
0
-22
-41
-40
-25
-11
15
40
14
-13
16
22
28
98
16
-107
316
914
570
-390
-664
-252
22
82
170
218
206
220
247
270
306
350
383
399
424
477
507
482
444
418
384
343
307
278
258
232
188
146
121
105
90
93
111
99
54
45
50
15
30
56
-97
-94
474
867
263
-541
-526
-127
1
17
75
64
48
93
120
128
156
182
201
232
259
261
236
198
167
146
118
81
53
36
11
-30
-76
-115
-147
-170
-174
-153
-139
-169
-208
-208
-227
-265
-228
-251
-419
-253
361
465
-308
-888
-691
-370
-303
-262
-215
-234
-229
-190
-174
-158
-128
-102
-73
-45
-32
-30
-30
-30
-29
-32
-37
-37
-35
-38
-51
-79
-117
-144
-143
-117
-80
-44
-38
-78
-111
-109
-130
-133
-69
-138
-275
83
745
631
-241
-667
-391
-151
-131
-89
-57
-69
-38
2
13
36
76
111
153
195
209
212
225
235
237
233
219
197
170
140
103
63
32
22
26
25
30
50
48
19
8
-7
-44
14
72
-86
-33
615
931
154
-668
-551
-128
-53
-66
4
12
-9
28
57
35
46
143
239
279
329
378
342
278
270
243
160
127
148
141
110
102
105
73
-27
-134
-139
-67
-63
-164
-227
-167
-156
-267
-263
-165
-206
4
709
913
32
-787
-684
-305
-194
-136
-60
-82
-111
-80
-46
-34
-62
-148
-199
-107
52
110
67
92
218
267
169
56
1
-24
-41
-106
-252
-407
-511
-555
-511
-372
-273
-361
-477
-377
-259
-294
-239
-192
-313
16
800
794
-139
-648
-388
-124
-64
-11
19
52
134
194
262
435
636
740
779
818
821
788
771
709
617
645
673
511
361
330
207
110
218
231
51
2
60
-17
-113
-64
-24
-141
-304
-351
-383
-555
-540
-19
335
-249
-1139
-1305
-960
-800
-831
-790
-642
-444
-322
-329
-283
-158
-158
-207
-135
-53
58
264
278
99
119
210
76
4
129
129
14
-42
-139
-204
-93
11
34
43
-72
-209
-170
-145
-173
-94
-100
-30
679
1385
911
-152
-464
-198
-20
218
437
272
111
306
425
343
396
471
395
446
694
785
599
408
345
206
-46
-167
-145
-147
-163
-181
-206
-132
-45
-132
-280
-322
-297
-303
-385
-475
-467
-432
-504
-663
-667
-143
675
778
-85
-848
-838
-533
-435
-405
-155
147
182
83
63
1
-77
6
113
103
128
238
285
226
178
225
289
253
130
-1
-97
-152
-199
-207
-117
-51
-85
-25
177
321
421
517
446
349
410
313
247
888
1471
680
-605
-742
-122
131
59
50
52
-50
-186
-158
-14
-13
-21
145
179
36
69
145
-18
-294
-534
-590
-429
-445
-677
-659
-418
-215
-37
1
-80
63
446
750
637
103
-251
-162
-116
-223
-299
-363
38
982
1208
301
-386
-266
-126
-277
-406
-432
-422
-407
-349
-173
-64
-159
-110
224
402
376
565
781
581
304
346
370
155
-19
-74
-119
-108
-43
-50
-142
-228
-289
-371
-423
-385
-356
-337
-216
-198
-461
-512
163
978
771
-377
-1121
-948
-593
-426
-319
-287
-130
262
435
263
154
245
347
236
-75
-161
87
210
102
76
126
79
16
92
254
287
111
-108
-237
-287
-224
-80
-79
-227
-247
-138
-103
-27
211
396
530
971
1473
1150
77
-568
-487
-356
-229
61
129
-17
78
253
120
-99
-89
-24
-111
-166
-24
67
-64
-126
19
39
-202
-451
-513
-369
-179
-204
-370
-355
-173
-36
119
332
377
277
260
142
-214
-453
-541
-577
-22
943
927
-201
-919
-643
-143
100
128
22
-113
-251
-413
-491
-438
-361
-295
-269
-308
-171
238
513
442
293
211
211
306
263
41
64
393
580
506
450
452
353
268
340
326
181
165
1
-338
-109
215
2
907
2714
1971
-676
-1192
-136
-65
-210
212
410
467
632
678
792
915
818
792
760
419
212
394
441
192
57
148
249
272
242
183
181
277
363
386
390
324
197
170
248
319
385
417
379
447
761
980
348
-1346
-2909
-2958
-1863
-1268
-2054
-3553
-4529
-4586
-4161
-3483
-2636
-1986
-1707
-1609
-1435
-1010
-582
-501
-470
-196
-19
9
206
358
237
201
354
355
276
405
487
311
322
600
551
320
509
765
615
332
227
666
1629
1837
734
-158
81
544
645
697
815
894
931
888
703
435
277
336
473
574
691
807
907
1123
1419
1545
1455
1385
1481
1596
1501
1254
1148
1269
1417
1493
1532
1491
1372
1244
1076
893
817
824
751
635
892
1538
1526
418
-369
-159
-398
-1776
-3397
-4787
-5545
-4911
-3501
-2686
-2340
-1677
-926
-519
-280
-84
7
94
139
-52
-352
-462
-375
-304
-377
-468
-411
-343
-366
-230
73
126
-136
-336
-358
-384
-444
-426
-393
-475
-393
246
923
640
-300
-554
-39
70
-268
-87
388
325
123
374
655
675
722
818
817
767
680
576
528
440
252
130
142
90
-104
-183
-42
10
-88
-103
-233
-588
-633
-281
-75
-26
42
7
94
279
76
57
914
1497
755
-342
-732
-636
-497
-412
-370
-307
-228
-203
-169
-68
26
62
55
18
-5
-12
-38
-9
94
123
69
87
210
428
707
811
634
463
484
512
370
114
-68
-34
129
208
217
295
286
148
398
977
818
-208
-881
-848
-819
-858
-683
-544
-580
-553
-431
-358
-370
-418
-392
-207
7
28
-50
33
172
160
113
98
95
197
218
-30
-205
-141
-137
-212
-162
-56
-28
-8
171
485
610
416
193
66
21
372
977
899
22
-590
-500
-186
77
210
164
146
214
212
207
290
305
62
-328
-378
-16
72
-222
-210
45
-97
-389
-292
-190
-437
-457
-252
-520
-575
-81
-521
-601
2243
4485
2313
-387
-358
-131
-600
-385
-7
256
828
752
-215
-765
-595
-268
97
251
-6
-210
-121
-98
-199
-157
-42
46
281
310
-517
-1609
-1792
-1307
-1064
-1056
-996
-926
-821
-698
-659
-620
-555
-564
-572
-509
-430
-294
-129
-144
-312
-320
-173
-234
-311
280
1145
1022
25
-526
-301
64
262
254
80
14
112
121
29
-1
12
76
274
512
619
595
533
488
446
386
368
416
435
403
391
452
656
835
713
612
886
1000
606
248
88
-128
-152
13
-89
-115
532
1236
1156
670
432
329
169
66
23
43
145
133
39
189
393
216
-76
7
304
484
623
773
777
676
558
373
368
610
179
-1460
-3086
-3353
-2533
-1708
-1457
-1596
-1610
-1295
-876
-612
-526
-434
-258
-83
270
917
1201
656
75
142
388
499
708
803
628
701
1046
1071
924
1121
1405
1430
1451
1595
1629
1602
1728
1751
1365
1010
1155
1166
349
-595
-615
109
793
1119
1089
936
940
625
-752
-2694
-3880
-3915
-3821
-4656
-5554
-4817
-3328
-3177
-3602
-2891
-1766
-1274
-974
-671
-636
-577
-346
-261
-261
-76
169
294
373
462
539
596
555
384
258
295
356
328
281
243
216
357
651
742
541
403
460
505
489
498
531
594
666
611
600
1183
2101
2114
1068
294
287
357
316
372
359
255
285
388
360
207
77
139
428
742
846
750
644
624
623
578
509
442
362
274
215
187
214
321
356
245
280
518
476
34
-265
-162
-9
-117
-180
299
867
527
-395
-652
-222
29
47
152
206
210
270
127
-45
53
-181
-466
122
174
-491
1370
4340
3104
-452
-1166
-426
-836
-1144
-906
-1004
-1050
-833
-827
-866
-732
-683
-733
-702
-637
-580
-438
-335
-533
-712
-170
705
655
-280
-899
-904
-793
-691
-614
-675
-741
-661
-452
-164
45
0
-198
-311
-284
-208
-142
-92
-79
-143
-263
-359
-397
-400
-393
-383
-342
-220
-71
-9
17
103
167
142
117
92
16
-10
-45
-199
8
818
1165
332
-596
-646
-323
-173
-95
-78
-166
-209
-172
-134
-55
87
223
318
367
355
326
354
404
390
319
235
142
67
41
26
-22
-90
-134
-131
-119
-130
-160
-217
-280
-315
-316
-242
-202
-376
-297
551
1194
474
-648
-701
-177
-71
-71
126
138
222
548
218
-139
1240
2734
1742
44
6
434
268
222
333
250
236
330
338
337
359
341
332
342
330
337
364
330
266
258
239
193
239
233
77
343
1133
1281
401
-242
-72
162
191
295
348
219
120
135
169
212
298
371
380
384
449
518
538
549
572
565
519
464
418
367
302
252
223
173
130
174
214
153
145
156
-239
-1008
-1510
-1600
-1701
-1656
-1040
-550
-1246
-2585
-3177
-2986
-2930
-3160
-3213
-2991
-2668
-2272
-1818
-1445
-1188
-933
-660
-453
-318
-206
-117
-66
-41
-15
29
84
141
198
233
245
269
302
326
376
457
495
487
500
504
479
499
485
388
622
1281
1464
752
117
201
458
512
542
563
524
534
600
633
628
640
712
791
787
715
671
694
732
734
748
809
848
846
839
787
677
590
544
509
491
470
396
303
256
216
156
144
82
-118
-6
653
972
336
-365
-350
-92
-36
-10
29
-1
-15
3
1
-4
-11
-24
-3
28
19
18
48
32
-26
-37
-30
-84
-144
-165
-227
-323
-362
-383
-434
-426
-379
-433
-520
-514
-514
-540
-503
-564
-655
-288
245
-15
-828
-1052
-667
-441
-433
-360
-295
-294
-259
-211
-200
-188
-152
-108
-66
-40
-16
28
77
102
114
124
126
112
88
54
14
-18
-39
-46
-15
37
48
22
28
36
32
90
75
-76
131
789
914
143
-451
-298
-29
15
55
97
68
56
67
51
43
62
85
109
130
146
181
223
225
213
240
266
247
213
180
123
47
-18
-67
-100
-112
-126
-171
-199
-190
-213
-230
-195
-262
-273
222
756
346
-581
-810
-422
-208
-189
-114
-70
-67
-34
-47
-82
-30
27
2
0
62
82
52
49
69
81
89
77
16
-55
-89
-112
-177
-259
-303
-301
-280
-279
-303
-294
-282
-335
-332
-270
-370
-337
242
631
-5
-877
-931
-530
-347
-309
-242
-214
-217
-192
-133
-71
-50
-46
-11
32
68
129
186
191
168
161
169
178
174
151
114
73
48
46
41
36
61
81
82
107
107
81
147
153
11
277
962
926
-17
-529
-182
161
210
268
324
320
345
375
380
400
427
454
496
526
549
597
632
631
653
695
679
620
600
598
550
505
503
494
507
561
560
562
628
435
-68
-238
95
234
153
618
1287
1014
184
73
339
-146
-963
-1051
-552
-153
76
309
502
636
775
911
1022
1137
1262
1374
1467
1538
1589
1638
1654
1631
1643
1645
1576
1610
1650
1103
-95
-1290
-2176
-2884
-3441
-3909
-4296
-4511
-4791
-5138
-4967
-4521
-4743
-5253
-5080
-4568
-4225
-3676
-2884
-2275
-1815
-1362
-1016
-734
-425
-159
53
264
465
650
825
963
1069
1167
1234
1264
1277
1277
1255
1226
1213
1203
1182
1212
1261
1139
913
898
1031
1044
1073
1142
992
1085
1829
2001
740
-417
-209
397
544
609
744
753
740
780
784
778
803
820
825
834
839
847
862
855
796
710
634
566
495
426
363
314
299
264
134
13
26
45
-55
-151
-169
-165
-152
-231
-337
-18
580
483
-333
-735
-454
-223
-231
-206
-178
-209
-205
-184
-188
-175
-148
-138
-127
-108
-94
-70
-34
-29
-57
-64
-42
-39
-79
-138
-188
-213
-221
-227
-205
-151
-135
-163
-169
-172
-173
-113
-156
-349
-154
556
815
188
-395
-356
-181
-176
-170
-135
-131
-122
-111
-103
-81
-64
-53
-13
45
92
132
158
151
137
150
152
106
46
-7
-72
-130
-151
-163
-171
-145
-122
-126
-108
-105
-138
-95
-83
-245
-107
560
792
38
-673
-588
-277
-195
-162
-114
-126
-155
-167
-163
-138
-120
-106
-76
-64
-68
-45
-24
-50
-83
-96
-109
-134
-173
-220
-253
-274
-298
-321
-330
-316
-298
-305
-305
-273
-268
-246
-162
-201
-232
248
841
529
-369
-647
-303
-100
-101
-57
-27
-38
-10
28
47
77
117
165
227
279
312
354
388
390
395
419
421
397
383
365
321
275
243
226
239
263
250
228
216
183
209
272
135
28
498
1056
704
-141
-390
-156
-72
-95
-50
-33
-48
-43
-46
-54
-61
-79
-49
58
151
185
197
192
165
138
96
13
-84
-168
-254
-335
-390
-428
-475
-519
-520
-517
-573
-621
-606
-598
-589
-594
-684
-497
247
719
149
-662
-742
-438
-324
-306
-249
-216
-193
-160
-145
-127
-93
-56
-2
75
145
183
204
230
259
271
275
281
265
220
172
142
133
138
157
189
198
171
143
106
90
177
196
73
363
1140
1272
381
-317
-204
47
97
165
229
219
221
228
218
242
280
302
344
397
409
413
451
486
497
507
488
411
338
314
278
198
143
134
113
68
-5
-91
-83
-51
-220
-475
-609
-667
-399
302
521
-225
-882
-747
-435
-373
-344
-284
-273
-282
-261
-204
-179
-231
-258
-192
-123
-104
-91
-72
-63
-57
-63
-81
-85
-87
-124
-176
-211
-230
-237
-229
-216
