# session 7
-11
53
-218
167
1431
2221
2060
1851
1917
1881
1768
1757
1752
1688
1621
1573
1515
1433
1355
1301
1241
1167
1121
1076
990
891
807
727
671
643
603
563
537
492
441
399
343
324
302
138
154
686
1004
358
-462
-488
-145
-54
-58
-9
-25
-63
-53
-59
-81
-69
-45
-45
-54
-51
-50
-69
-95
-115
-122
-109
-95
-105
-122
-117
-117
-151
-190
-204
-202
-188
-151
-121
-138
-163
-158
-171
-186
-161
-253
-382
-6
700
664
-158
-615
-426
-272
-304
-274
-235
-252
-252
-240
-240
-224
-194
-170
-151
-129
-100
-76
-75
-91
-93
-75
-59
-62
-81
-107
-134
-162
-198
-236
-252
-247
-225
-194
-190
-224
-236
-228
-240
-215
-212
-337
-229
386
738
154
-584
-619
-331
-236
-208
-150
-150
-160
-132
-110
-98
-74
-52
-34
-8
27
52
52
39
28
27
42
64
65
43
23
3
-34
-66
-75
-77
-76
-47
-14
-29
-57
-53
-68
-68
-2
-52
-156
185
733
493
-386
-716
-359
-79
-29
20
32
11
42
69
60
75
106
122
148
187
208
196
174
159
157
165
174
173
161
143
118
84
36
-5
-17
-16
-13
8
24
10
7
14
5
53
90
-40
24
600
932
341
-367
-335
2
107
133
196
195
180
201
212
216
236
250
255
272
289
286
271
255
234
214
206
202
190
168
142
112
71
17
-24
-38
-34
-10
16
4
-26
-33
-51
-62
-20
-85
-245
6
664
769
56
-480
-369
-170
-151
-122
-96
-124
-121
-99
-100
-88
-65
-62
-61
-46
-40
-52
-71
-93
-103
-96
-86
-83
-93
-123
-159
-186
-218
-252
-262
-251
-232
-206
-199
-237
-264
-252
-274
-285
-231
-304
-393
22
621
375
-500
-813
-470
-217
-187
-149
-126
-134
-106
-74
-65
-49
-33
-14
25
63
79
88
95
88
77
79
88
80
49
13
-11
-35
-64
-90
-117
-139
-131
-95
-83
-110
-125
-133
-157
-115
-70
-189
-136
420
718
54
-718
-664
-243
-61
10
82
83
89
142
176
199
236
264
289
322
346
355
357
346
319
292
276
274
273
254
214
178
158
132
92
73
85
101
107
89
54
48
44
11
35
32
-125
-15
594
803
70
-587
-416
-53
15
46
121
112
96
131
153
159
185
218
236
245
251
244
228
212
193
165
147
141
122
89
55
22
-21
-71
-107
-127
-143
-136
-116
-139
-184
-187
-198
-227
-191
-224
-376
-160
444
447
-373
-878
-608
-297
-262
-227
-171
-185
-188
-162
-149
-128
-99
-84
-68
-48
-43
-48
-50
-64
-83
-80
-66
-65
-74
-92
-124
-158
-185
-212
-236
-243
-219
-168
-135
-154
-172
-151
-152
-158
-112
-170
-271
102
772
701
-153
-637
-419
-180
-154
-123
-88
-95
-82
-54
-33
-1
36
70
104
127
142
153
154
151
155
161
167
174
168
147
128
112
85
52
44
56
68
96
129
123
109
108
86
105
157
35
-36
452
965
529
-341
-509
-158
3
21
78
82
58
84
108
115
135
153
172
211
246
260
266
256
223
194
191
191
170
133
101
83
66
23
-27
-48
-53
-57
-38
-18
-35
-42
-38
-73
-54
5
-124
-155
382
814
254
-584
-633
-251
-108
-94
-41
-42
-56
-37
-41
-49
-28
-7
9
39
63
60
48
35
9
-20
-27
-27
-48
-79
-98
-120
-158
-200
-230
-247
-252
-237
-207
-206
-238
-246
-237
-260
-245
-205
-316
-347
122
559
132
-627
-709
-333
-159
-138
-76
-48
-49
-22
-3
2
18
28
27
32
40
41
38
32
28
37
58
73
81
82
65
32
-2
-39
-69
-74
-52
-18
16
12
-32
-50
-49
-73
-48
-27
-171
-136
440
837
303
-430
-455
-141
-36
-10
49
56
61
103
125
141
177
208
233
262
289
310
319
309
294
291
291
285
271
242
204
166
122
77
54
46
27
23
46
32
-6
-1
-19
-64
-12
-23
-189
29
683
706
-164
-716
-455
-134
-84
-35
18
-4
-18
-1
20
46
58
78
130
159
147
142
137
100
64
54
45
22
-11
-47
-76
-105
-136
-152
-171
-209
-218
-184
-181
-226
-235
-212
-238
-248
-197
-269
-331
97
648
352
-526
-824
-475
-221
-189
-144
-111
-116
-96
-65
-42
-10
22
51
87
119
135
132
110
81
61
53
56
57
52
47
46
37
16
-2
-6
-9
-20
-18
-17
-42
-61
-70
-106
-103
-74
-200
-242
237
690
247
-549
-644
-262
-93
-77
-9
19
13
41
69
88
125
155
174
197
215
215
200
171
140
125
123
122
112
96
78
59
33
1
-19
-28
-44
-42
0
16
-22
-32
-17
-43
-24
20
-106
-120
397
823
337
-438
-509
-164
-35
-35
14
17
-8
18
49
56
72
90
97
115
138
138
120
107
91
73
66
67
62
49
23
-11
-44
-76
-106
-117
-115
-112
-94
-75
-98
-119
-106
-129
-136
-72
-149
-257
152
714
376
-540
-791
-399
-168
-151
-91
-59
-75
-52
-21
-10
11
41
74
115
148
162
170
172
169
171
175
170
158
142
115
87
66
31
-5
-14
-9
-7
20
50
32
5
4
-21
-19
13
-119
-211
254
826
514
-317
-546
-247
-106
-114
-59
-38
-63
-52
-29
-20
-6
7
19
35
44
40
37
34
27
26
35
32
9
-15
-37
-72
-115
-153
-187
-210
-216
-201
-165
-144
-172
-197
-178
-188
-205
-138
-164
-301
-32
582
559
-209
-642
-412
-158
-99
-39
0
-12
8
44
60
77
106
139
174
200
215
224
224
219
217
220
220
205
174
141
114
84
48
8
-26
-47
-56
-47
-21
-30
-71
-71
-71
-106
-71
-72
-229
-52
601
689
-187
-828
-586
-207
-124
-76
-17
-28
-23
9
20
40
76
102
131
171
200
206
201
188
164
142
135
128
105
84
77
69
43
6
-18
-22
-30
-37
-17
-11
-49
-69
-73
-99
-76
-70
-227
-170
418
745
128
-591
-544
-205
-127
-121
-61
-59
-64
-28
-14
-8
28
61
78
110
150
172
173
155
136
145
168
180
179
160
122
84
60
30
-10
-35
-39
-32
-11
2
-21
-42
-40
-76
-93
-59
-179
-290
150
714
369
-511
-732
-365
-171
-168
-115
-86
-96
-76
-58
-60
-40
-3
24
40
60
80
86
83
86
87
82
76
60
28
-4
-31
-62
-100
-139
-168
-178
-167
-134
-103
-117
-150
-150
-159
-176
-127
-151
-298
-85
539
632
-95
-619
-442
-171
-120
-82
-35
-41
-31
0
17
45
80
100
126
159
175
178
189
206
212
204
202
204
185
150
128
104
64
31
20
7
-12
-4
20
2
-40
-30
-23
-52
-4
-2
-173
-11
656
783
-88
-765
-551
-177
-86
-18
60
40
24
55
83
111
137
151
174
204
228
245
243
210
173
151
130
102
71
47
27
0
-34
-68
-90
-99
-108
-112
-90
-78
-106
-126
-130
-154
-126
-96
-232
-201
346
655
1
-766
-698
-280
-143
-107
-20
1
-10
15
32
41
63
81
93
106
110
106
94
69
42
28
21
12
2
-15
-39
-60
-85
-126
-163
-168
-158
-150
-129
-113
-139
-164
-153
-161
-145
-99
-213
-291
165
696
347
-465
-627
-263
-73
-43
28
59
52
76
97
115
153
184
199
217
235
252
261
250
228
210
197
183
165
138
102
64
33
1
-37
-66
-75
-68
-46
-27
-51
-87
-93
-113
-126
-83
-147
-275
36
645
587
-175
-576
-346
-120
-75
-19
11
-9
8
39
49
66
91
118
153
179
190
194
187
176
173
172
167
164
153
121
82
46
10
-22
-39
-47
-58
-54
-38
-61
-97
-90
-108
-141
-98
-150
-279
64
690
486
-484
-908
-551
-242
-189
-120
-66
-76
-64
-42
-41
-14
36
68
92
121
146
163
155
110
65
48
33
7
-14
-29
-45
-66
-94
-119
-129
-131
-126
-108
-93
-117
-147
-140
-157
-192
-145
-161
-318
-114
534
613
-218
-809
-578
-238
-178
-142
-92
-100
-87
-54
-46
-25
12
33
58
100
134
144
138
125
117
123
140
152
151
145
145
144
131
109
90
86
100
123
143
140
122
118
112
89
113
106
-59
6
620
1004
440
-294
-324
-55
0
8
63
47
21
56
87
85
82
99
122
139
159
170
154
131
126
123
110
98
87
70
46
14
-27
-68
-98
-107
-101
-89
-72
-64
-85
-102
-104
-131
-136
-112
-221
-290
134
674
419
-371
-659
-407
-235
-218
-172
-147
-158
-139
-112
-100
-80
-55
-27
12
45
54
48
41
36
35
40
49
51
34
4
-24
-49
-83
-123
-152
-164
-164
-147
-136
-169
-201
-190
-206
-224
-158
-186
-313
-7
621
515
-366
-805
-499
-221
-184
-124
-82
-111
-96
-51
-40
-28
2
24
58
109
139
137
127
118
104
91
80
70
63
51
29
7
-12
-30
-33
-21
-9
14
38
29
23
47
34
31
103
53
-50
315
892
675
-172
-488
-161
75
102
151
172
149
164
182
175
184
206
221
241
269
284
278
258
237
220
207
196
178
151
126
103
73
33
3
-5
-1
0
12
32
24
2
3
-10
-20
23
-50
-193
134
791
709
-161
-620
-358
-116
-103
-60
-18
-41
-43
-33
-40
-25
-1
6
18
43
53
41
19
-13
-44
-57
-59
-75
-107
-136
-154
-176
-214
-248
-266
-278
-279
-253
-230
-253
-297
-304
-297
-314
-293
-293
-416
-323
235
530
-54
-743
-712
-375
-265
-239
-170
-147
-136
-97
-78
-65
-28
6
30
60
85
92
90
79
67
70
83
89
82
64
39
9
-19
-43
-66
-79
-78
-64
-40
-39
-67
-64
-47
-72
-46
2
-120
-92
482
864
263
-525
-521
-132
31
88
162
170
173
212
229
239
279
320
341
359
388
405
394
358
315
283
268
250
221
197
179
151
114
84
62
45
35
39
59
64
33
15
12
-16
0
41
-89
-128
383
854
400
-400
-506
-169
-27
-1
65
76
57
75
94
108
132
156
175
191
205
214
204
173
142
114
79
47
24
1
-25
-57
-94
-134
-169
-194
-207
-211
-204
-204
-233
-262
-269
-296
-304
-269
-375
-498
-125
452
221
-655
-988
-631
-354
-324
-275
-226
-235
-229
-201
-179
-150
-115
-88
-58
-17
18
29
25
24
30
35
32
26
19
8
-8
-28
-54
-87
-115
-120
-101
-77
-66
-83
-114
-128
-146
-166
-132
-170
-319
-107
549
700
-41
-661
-542
-244
-153
-98
-44
-38
-9
40
63
100
158
197
228
273
317
338
338
323
309
305
306
318
323
295
259
238
200
141
112
116
109
98
110
103
65
54
47
16
54
58
-104
33
682
863
53
-634
-450
-84
-11
33
100
77
58
86
105
137
183
191
186
222
271
276
237
195
172
155
133
108
82
53
29
15
-7
-50
-85
-89
-88
-94
-89
-95
-133
-158
-166
-182
-143
-126
-283
-246
326
652
7
-767
-737
-366
-249
-214
-129
-122
-149
-127
-103
-95
-69
-31
-6
13
50
80
64
21
3
6
1
-9
-12
-25
-46
-61
-80
-105
-119
-121
-121
-101
-59
-51
-99
-130
-123
-137
-129
-109
-231
-249
277
797
397
-437
-618
-288
-127
-126
-85
-63
-69
-47
-20
-12
-6
10
33
50
58
68
72
59
39
34
47
62
62
45
25
4
-25
-61
-87
-90
-76
-53
-20
-2
-21
-37
-23
-33
-36
16
-52
-165
208
853
737
-101
-518
-286
-81
-58
-7
26
8
17
41
55
80
108
134
176
216
227
225
226
227
224
218
205
180
155
143
128
91
46
9
-22
-45
-45
-24
-10
-27
-42
-30
-51
-68
-12
-63
-193
139
778
639
-286
-732
-413
-133
-101
-42
-2
-41
-39
-1
7
13
45
78
99
118
141
147
124
94
71
53
41
34
22
3
-16
-36
-61
-92
-120
-134
-143
-142
-120
-111
-137
-145
-138
-161
-135
-99
-230
-221
310
686
129
-655
-686
-310
-153
-119
-59
-53
-61
-29
-9
2
32
62
88
121
146
157
157
146
131
125
119
108
103
100
85
62
36
-4
-50
-73
-78
-75
-56
-41
-66
-93
-89
-107
-107
-52
-135
-262
100
718
571
-247
-593
-302
-82
-58
0
28
0
14
45
58
83
101
103
119
140
146
149
144
121
107
114
119
109
93
74
46
13
-13
-35
-62
-80
-73
-49
-30
-37
-63
-68
-70
-92
-68
-53
-197
-185
347
766
306
-431
-531
-242
-118
-102
-64
-63
-66
-37
-22
-15
6
23
38
59
72
75
79
80
73
69
73
74
61
36
11
-10
-40
-80
-106
-112
-109
-95
-59
-35
-62
-87
-74
-96
-113
-50
-115
-269
75
720
542
-390
-788
-444
-175
-148
-85
-38
-57
-39
4
26
60
101
125
157
201
227
232
226
204
175
164
167
152
113
77
57
31
-8
-42
-66
-86
-94
-80
-50
-46
-84
-101
-90
-106
-78
-47
-180
-132
451
780
95
-722
-679
-267
-129
-91
-11
-9
-30
1
26
39
67
97
129
169
194
198
189
171
153
139
121
95
74
62
51
31
9
-9
-34
-56
-61
-54
-41
-31
-44
-61
-54
-70
-86
-34
-74
-211
65
687
628
-240
-727
-437
-124
-74
-25
28
20
30
52
56
78
112
132
159
194
213
217
206
175
145
135
127
105
78
57
42
25
-1
-35
-67
-80
-78
-70
-57
-57
-87
-105
-106
-133
-128
-93
-210
-279
164
660
296
-517
-699
-359
-187
-175
-122
-110
-133
-113
-100
-109
-86
-50
-42
