# session 11
441
695
-141
764
4482
7283
7199
6506
6406
6002
5410
5250
5151
4705
4408
4927
5653
5228
3932
3330
3591
3725
3510
3254
3026
2887
2787
2547
2333
2325
2306
2201
2155
2078
1927
1867
1839
1721
1576
1348
1018
864
911
830
629
557
566
529
506
482
365
201
74
-45
-242
-521
-763
-952
-1121
-957
-309
121
-300
-1156
-1686
-1599
-1165
-929
-983
-984
-936
-962
-905
-838
-950
-1035
-918
-760
-673
-676
-797
-924
-954
-1022
-1189
-1321
-1428
-1562
-1626
-1670
-1758
-1729
-1712
-1777
-1499
-1452
-2856
-4672
-4850
-3961
-3611
-3542
-3219
-3128
-3048
-2184
-1309
-1780
-2920
-3154
-2614
-2261
-2066
-1732
-1526
-1557
-1539
-1410
-1343
-1341
-1259
-1074
-908
-808
-669
-486
-433
-502
-452
-327
-350
-352
-227
-309
-423
-244
-334
-538
-87
-132
-693
1061
3787
2861
4
-324
569
320
88
680
1378
1653
1242
612
540
776
903
1160
1455
1467
1479
1743
1928
1878
1884
2044
2162
2217
2331
2457
2510
2587
2767
2966
3130
3317
3645
4058
4100
3715
3797
4528
4713
4173
4046
4365
4396
4358
4550
4647
4682
4867
4929
5005
5705
6628
6817
6150
4611
2322
707
570
522
-348
-1263
-1860
-2453
-2944
-3208
-3416
-3691
-4019
-4203
-4186
-4368
-4703
-4663
-4628
-4984
-5019
-5053
-5662
-5160
-3387
-2277
59
4689
6119
2732
383
451
-275
-1310
-1392
-1620
-2085
-2271
-2567
-2544
-1836
-1761
-2881
-3781
-3711
-3403
-3249
-3011
-2756
-2744
-2900
-2960
-2858
-2767
-2768
-2641
-2293
-2058
-2122
-2189
-2061
-1873
-1752
-1735
-1809
-1906
-1977
-1937
-1733
-1556
-1589
-1686
-1676
-1628
-1600
-1579
-1592
-1618
-1614
-1580
-1470
-1345
-1284
-889
54
608
94
-537
-433
-151
-184
-242
-210
-245
-308
-337
-359
-350
-308
-289
-310
-291
-205
-186
-227
-167
-244
-573
-277
1303
3345
4840
5862
6788
7475
7814
8249
8778
8407
6847
5258
4346
3678
3009
2538
2202
1776
1482
1747
2138
1678
602
51
149
233
166
101
14
-66
-101
-154
-221
-267
-317
-355
-332
-280
-262
-252
-238
-310
-400
-264
77
340
391
271
155
340
703
708
364
199
265
264
221
240
236
265
386
357
278
734
1444
1298
396
-17
297
582
623
663
699
671
619
539
423
317
254
212
165
134
161
187
119
26
10
-3
-94
-201
-274
-342
-409
-456
-478
-485
-507
-531
-524
-537
-618
-687
-704
-729
-777
-884
-1053
-918
-315
-32
-655
-1368
-1383
-1142
-1120
-1145
-1160
-1290
-1465
-1589
-1674
-1739
-1819
-1910
-1980
-2062
-2169
-2253
-2321
-2400
-2466
-2535
-2608
-2613
-2579
-2619
-2718
-2798
-2873
-2955
-3001
-3000
-3016
-3104
-3212
-3268
-3331
-3454
-3521
-3546
-3731
-3843
-3445
-3077
-3599
-4381
-4278
-3555
-2820
-1890
-928
-378
140
963
1608
1875
2167
2594
2946
3200
3426
3611
3751
3871
3962
4026
4083
4126
4123
4082
4030
3966
3895
3825
3728
3622
3565
3519
3423
3332
3247
3128
3064
2981
2715
2689
3216
3389
2523
1616
1584
1879
1912
1835
1763
1652
1561
1483
1375
1285
1222
1150
1079
1022
966
901
819
713
602
508
427
342
254
172
64
-92
-229
-306
-390
-486
-521
-557
-660
-742
-793
-880
-903
-902
-1061
-1022
-464
-197
-900
-1680
-1662
-1343
-1249
-1203
-1146
-1182
-1204
-1189
-1214
-1217
-1172
-1167
-1179
-1129
-1070
-1069
-1096
-1107
-1084
-1042
-1028
-1031
-1010
-994
-1032
-1089
-1111
-1103
-1104
-1115
-1086
-1029
-1010
-1008
-988
-977
-923
-858
-957
-931
-337
175
-316
-1166
-1243
-814
-614
-577
-502
-467
-447
-377
-324
-302
-266
-218
-157
-74
11
80
139
181
200
223
256
266
252
243
236
207
166
141
136
142
157
165
163
174
163
130
184
209
37
135
785
1016
230
-482
-330
20
93
137
187
141
123
179
215
215
219
237
247
248
270
305
314
305
308
326
342
329
281
233
200
160
112
74
60
79
111
110
78
85
114
111
155
215
101
126
712
1155
601
-235
-316
26
158
176
220
217
212
216
168
138
175
200
193
208
243
278
307
314
312
334
348
313
279
292
287
222
174
167
128
90
129
158
107
81
96
92
116
92
13
294
855
761
-73
-538
-293
-32
2
32
54
38
57
81
79
88
95
87
101
142
183
221
243
228
197
178
153
110
74
53
20
-28
-70
-95
-98
-80
-76
-104
-114
-106
-131
-134
-113
-261
-355
123
697
363
-492
-726
-422
-276
-280
-240
-238
-265
-255
-257
-279
-280
-267
-260
-264
-268
-257
-251
-272
-293
-287
-270
-268
-285
-312
-342
-372
-398
-425
-463
-472
-419
-377
-410
-440
-428
-433
-408
-364
-470
-480
14
460
42
-701
-787
-433
-253
-203
-134
-118
-113
-63
-32
-24
5
32
49
81
107
112
123
141
148
160
189
208
210
197
151
89
54
35
9
12
54
64
38
53
66
49
121
154
4
170
839
986
159
-485
-288
47
119
184
256
244
246
273
271
283
326
366
388
394
419
480
503
457
417
416
405
363
304
256
240
230
198
156
120
107
117
109
88
78
43
32
81
-12
-148
207
812
668
-136
-495
-231
-17
-10
12
38
34
47
62
63
74
92
103
105
104
110
112
90
57
45
51
48
27
5
-25
-83
-143
-174
-198
-226
-230
-235
-270
-287
-293
-327
-303
-277
-430
-427
89
382
-265
-1030
-957
-508
-369
-390
-345
-317
-315
-290
-273
-256
-218
-196
-190
-156
-120
-118
-113
-99
-112
-115
-72
-41
-46
-53
-71
-124
-162
-157
-155
-145
-93
-69
-105
-116
-107
-111
-64
-86
-240
-47
580
682
-69
-612
-417
-121
-61
-14
44
36
44
91
131
171
209
231
261
316
368
401
414
408
412
440
449
409
353
292
214
151
128
104
74
104
157
130
98
142
127
78
141
96
-17
410
1029
653
-370
-643
-221
5
25
101
120
93
126
150
134
140
169
197
225
253
282
308
313
295
270
232
162
93
68
51
-7
-70
-107
-134
-144
-129
-140
-184
-198
-221
-281
-254
-238
-413
-333
289
485
-351
-1081
-870
-457
-392
-360
-277
-306
-343
-302
-268
-256
-237
-214
-188
-174
-156
-104
-66
-66
-54
-38
-47
-47
-44
-81
-132
-150
-148
-151
-152
-129
-106
-122
-131
-115
-138
-134
-72
-177
-280
192
799
458
-451
-677
-285
-72
-59
9
55
50
70
101
125
149
173
213
248
252
273
322
331
300
304
337
343
325
307
270
214
182
174
143
128
197
244
177
127
131
89
93
128
-25
-20
560
935
327
-419
-374
-15
73
64
95
92
93
111
98
89
112
137
150
156
163
189
212
200
183
192
195
160
109
59
7
-40
-78
-111
-136
-143
-132
-137
-154
-161
-203
-250
-206
-237
-389
-130
473
320
-667
-1151
-766
-402
-353
-310
-279
-313
-303
-275
-288
-290
-260
-237
-219
-186
-135
-72
-31
-40
-64
-50
-30
-51
-83
-82
-85
-126
-157
-144
-123
-103
-75
-74
-81
-74
-107
-106
-33
-142
-239
299
927
467
-545
-741
-309
-106
-87
-3
36
27
50
71
87
118
149
188
243
292
338
388
419
428
429
416
383
333
272
224
195
150
89
58
83
140
165
136
124
117
71
110
169
-23
-49
607
1041
313
-585
-540
-127
-24
9
101
103
85
119
136
137
160
190
220
266
319
358
371
363
347
323
278
212
154
111
55
-24
-93
-133
-157
-163
-175
-231
-267
-233
-263
-351
-319
-309
-396
-84
489
227
-825
-1298
-896
-528
-480
-438
-392
-416
-416
-380
-348
-310
-269
-232
-181
-126
-80
-22
39
60
42
15
-11
-37
-54
-72
-110
-150
-158
-146
-143
-135
-125
-138
-137
-131
-158
-117
-61
-219
-221
387
797
137
-707
-663
-218
-54
-2
98
138
157
210
247
275
316
356
389
422
458
490
510
523
519
488
452
423
388
365
362
325
237
178
194
246
289
298
273
243
190
131
145
103
-97
-13
555
766
119
-513
-459
-195
-134
-117
-82
-88
-84
-58
-40
-17
10
27
51
79
94
94
79
59
60
63
32
-11
-35
-71
-139
-198
-245
-316
-362
-317
-274
-343
-409
-380
-400
-458
-408
-449
-598
-277
331
106
-862
-1256
-853
-484
-378
-293
-235
-223
-177
-113
-72
-41
0
62
126
155
156
161
173
177
170
166
167
168
167
164
156
158
178
185
168
165
165
137
123
105
43
66
132
-5
-5
603
1060
490
-327
-381
-63
42
89
174
170
138
145
134
116
138
173
187
191
208
239
258
258
260
274
279
264
237
204
165
133
134
152
129
87
84
67
-5
-62
-111
-174
-174
-256
-506
-374
315
493
-356
-1089
-951
-610
-529
-459
-369
-374
-352
-272
-235
-206
-133
-77
-68
-45
11
45
44
61
102
118
102
88
80
60
29
22
58
90
80
80
106
86
40
37
11
-30
0
-79
-236
149
924
857
-143
-702
-415
-108
-54
27
89
45
24
71
116
132
135
144
153
161
182
202
185
139
108
106
90
51
35
31
-9
-43
-44
-78
-119
-79
-32
-35
2
47
36
58
8
-184
10
664
696
-229
-903
-722
-371
-243
-178
-160
-182
-162
-150
-163
-148
-142
-135
-67
22
73
84
35
-44
-39
29
17
-52
-42
2
-26
-60
-32
-17
-33
-4
36
12
-16
-4
-20
-26
7
-99
-166
315
916
612
-270
-541
-205
9
38
85
89
62
87
127
163
226
292
326
337
355
374
342
260
219
246
275
276
245
179
103
49
14
-12
-36
-55
-61
-85
-121
-92
-30
-33
-40
-44
-171
-141
389
738
94
-855
-1020
-645
-439
-398
-337
-311
-312
-272
-241
-257
-270
-226
-135
-32
58
105
100
85
80
49
4
-14
-26
-45
-39
-31
-50
-62
-48
-32
-29
-46
-50
-15
-5
-13
29
-39
-209
69
757
755
-171
-773
-512
-161
-106
-75
-24
-28
-12
26
47
91
149
176
214
287
336
333
298
239
191
194
207
175
144
142
103
39
38
69
68
90
126
88
35
37
11
0
72
15
-75
355
1014
848
-26
-439
-198
-1
-16
-26
-72
-177
-222
-215
-237
-273
-287
-277
-236
-185
-160
-167
-195
-231
-254
-247
-218
-183
-160
-161
-179
-192
-185
-162
-145
-150
-165
-162
-141
-147
-172
-124
-77
-164
-26
644
1060
452
-400
-490
-158
-30
-18
30
41
53
102
122
124
153
180
219
293
320
268
244
256
227
193
198
190
170
171
160
138
136
122
69
40
45
17
-21
-13
-19
-27
25
-48
-207
98
715
593
-277
-714
-441
-168
-109
-65
-56
-87
-80
-73
-100
-119
-114
-87
-39
8
17
-20
-56
-48
-39
-66
-88
-100
-135
-154
-106
-73
-137
-195
-142
-74
-79
-108
-131
-175
-195
-111
-44
-199
-261
268
846
503
-342
-593
-302
-105
-52
-12
-35
-52
5
41
41
80
127
147
179
217
223
227
237
200
144
134
136
135
180
208
147
83
78
71
67
118
147
76
-13
-64
-102
-94
-124
-309
-254
341
687
101
-620
-619
-277
-111
-29
43
48
46
46
-9
-66
-68
-53
-42
-7
38
47
37
51
63
31
-13
-32
-46
-74
-110
-154
-181
-151
-101
-91
-113
-158
-207
-219
-211
-168
-74
-121
-240
138
845
785
-95
-601
-378
-98
-24
22
42
11
26
101
126
64
26
85
167
194
182
176
173
149
129
144
142
106
122
174
156
118
148
151
88
89
132
79
14
38
38
10
8
-131
-193
330
868
388
-571
-791
-425
-228
-175
-36
53
30
30
74
86
90
145
179
114
42
61
87
33
-49
-81
-70
-79
-143
-210
-239
-266
-292
-285
-262
-215
-149
-157
-230
-236
-202
-220
-200
-166
-275
-187
482
1002
501
-380
-589
-315
-146
-71
11
40
62
106
106
67
50
75
123
157
168
184
183
145
124
149
158
132
130
138
98
43
26
21
24
73
89
-2
-60
-10
-15
-56
-19
-109
-202
281
888
489
-509
-800
-437
-197
-117
-37
-65
-120
-55
47
85
77
83
132
174
178
190
203
174
122
57
-41
-117
-131
-144
-180
-192
-184
-197
-211
-208
-216
-234
-228
-199
-197
-218
-173
-142
-306
-292
386
997
520
-400
-592
-300
-172
-101
11
5
-19
45
97
123
178
218
220
232
265
274
239
195
173
165
156
138
105
76
67
65
73
95
110
122
133
94
30
45
102
98
80
27
-116
30
670
989
360
-422
-537
-326
-245
-201
-154
-180
-196
-166
-171
-178
-96
17
70
106
171
202
164
115
87
58
28
-8
-78
-150
-179
-203
-254
-290
-297
-299
-297
-302
-311
-310
-321
-293
-220
-320
-380
254
1067
727
-403
-809
-449
-225
-202
-109
-28
0
31
45
64
110
155
214
301
372
400
385
324
251
217
206
168
110
80
74
47
24
41
32
-14
-10
12
-23
-40
-11
17
50
-25
-183
96
796
870
61
-517
-397
-193
-128
-18
43
10
-11
-54
-92
-13
91
110
128
183
197
179
175
164
148
164
180
140
76
45
28
-9
-53
-83
-119
-161
-180
-208
-281
-357
-411
-446
-462
-522
-471
25
551
203
-699
-970
-576
-336
-348
-305
-258
-251
-181
-115
-126
-131
-93
-54
-20
-4
-15
-13
30
77
94
92
101
128
145
131
118
125
137
144
156
166
147
119
111
83
62
135
114
-97
109
926
1200
353
-419
-308
36
116
116
117
111
146
168
178
222
224
181
213
291
307
282
270
265
242
183
129
143
193
208
182
134
69
10
-20
-29
-66
-149
-233
-299
-322
-248
-254
-438
-251
495
704
-187
-978
-821
-408
-306
-279
-218
-210
-177
-87
-53
-100
-126
-76
-6
31
53
72
64
40
30
30
34
43
44
27
12
9
-1
-28
