# session 24
-82
-96
-128
-53
192
381
241
114
635
1258
635
-985
-1988
-2025
-1960
-1992
-1836
-1629
-1549
-1458
-1268
-1093
-1010
-944
-817
-660
-496
-340
-242
-174
-39
108
140
106
138
216
257
276
316
347
338
321
317
306
295
292
257
219
271
343
309
265
302
293
244
286
318
237
199
261
255
159
127
194
237
198
171
194
161
95
111
128
69
54
72
53
42
-15
61
665
1204
617
-515
-820
-438
-213
-149
-80
-118
-149
-72
-64
-145
-140
-76
-83
-115
-84
-60
-93
-72
25
49
0
21
76
66
71
129
130
69
34
20
4
5
-2
-43
-77
-68
-20
38
52
23
19
45
73
114
134
99
89
134
138
108
147
219
235
226
239
256
273
286
282
286
319
347
359
377
343
377
892
1617
1412
229
-493
-240
104
178
269
350
355
405
467
481
499
519
529
557
593
631
675
676
664
715
695
499
322
333
469
581
557
544
631
352
-350
-704
-756
-1287
-1894
-1700
-1072
-807
-973
-1330
-1759
-2104
-2110
-1713
-1311
-1467
-2234
-3003
-3144
-2675
-2085
-1654
-1334
-1073
-882
-724
-565
-428
-319
-200
-81
0
93
187
175
325
996
1574
1124
111
-348
-246
-142
-62
62
62
-34
-51
1
33
61
135
236
321
381
436
494
546
585
618
649
676
698
708
705
701
707
711
697
666
635
609
580
553
533
517
503
499
497
486
474
470
459
437
417
401
375
350
352
374
379
353
318
285
262
245
217
201
202
174
161
184
94
112
683
1222
693
-373
-690
-350
-138
-96
-27
-12
-37
-22
-16
-36
-40
-33
-31
-27
-26
-27
-22
-12
-1
13
27
39
45
44
33
17
0
-25
-62
-104
-147
-187
-221
-246
-261
-270
-277
-279
-276
-273
-273
-274
-274
-272
-276
-287
-301
-309
-303
-275
-242
-237
-261
-286
-288
-281
-290
-295
-281
-285
-283
-245
-304
-337
134
817
644
-315
-818
-576
-329
-300
-254
-215
-228
-213
-185
-179
-167
-150
-142
-126
-104
-88
-69
-42
-16
8
33
57
73
86
95
94
90
89
85
73
53
31
12
0
-6
-2
8
15
21
30
39
44
48
47
43
40
39
38
55
94
118
105
80
65
62
62
54
61
73
60
73
94
-3
83
726
1204
599
-387
-577
-225
-60
-36
28
42
26
46
59
55
61
67
69
77
84
91
106
125
140
154
172
188
195
192
183
171
157
137
110
81
51
21
-4
-19
-29
-33
-31
-30
-31
-27
-25
-26
-24
-23
-32
-47
-59
-67
-61
-32
1
6
-20
-48
-56
-58
-73
-83
-72
-77
-87
-66
-116
-140
315
1018
909
-58
-633
-416
-164
-162
-142
-98
-108
-102
-82
-86
-83
-71
-67
-62
-51
-44
-37
-24
-9
7
25
37
41
41
37
25
12
3
-12
-36
-60
-79
-97
-110
-115
-116
-115
-110
-104
-101
-96
-88
-83
-83
-79
-76
-84
-101
-112
-114
-104
-75
-37
-11
-8
-27
-55
-64
-56
-55
-44
-29
-25
3
-19
-68
293
1014
1064
160
-512
-363
-89
-70
-52
-3
-12
-10
14
17
19
30
38
48
55
59
74
96
114
132
146
142
137
149
152
126
100
98
99
81
53
33
22
4
-18
-20
2
12
-6
-22
-9
11
13
3
2
12
13
-1
-3
12
-1
-49
-70
-60
-48
-8
48
45
-2
-14
-7
-34
-65
-40
-1
-19
-24
-3
-64
69
724
1176
550
-428
-602
-254
-115
-139
-123
-102
-71
-51
-79
-81
-56
-75
-96
-72
-53
-49
-28
-12
-15
1
32
43
33
-8
-67
-74
-42
-61
-108
-106
-103
-150
-200
-219
-222
-220
-217
-210
-200
-202
-221
-233
-217
-192
-192
-212
-210
-196
-213
-223
-187
-171
-215
-241
-208
-173
-147
-113
-105
-126
-117
-87
-107
-143
-111
-74
-89
-53
-20
-101
100
852
1227
427
-561
-590
-169
-60
-51
49
45
3
59
120
128
120
108
108
140
193
236
239
234
249
274
324
385
379
326
321
343
349
352
334
296
275
263
248
239
218
217
267
276
226
248
318
292
251
318
366
298
256
319
360
319
296
303
273
281
357
330
272
423
458
13
-414
-370
-238
-259
-245
-284
-406
-387
-298
-57
661
1211
687
-249
-540
-510
-692
-774
-594
-471
-471
-423
-338
-289
-246
-178
-107
-47
8
87
174
208
214
273
327
305
349
475
317
-207
-555
-465
-308
-221
-68
-186
-770
-1158
-952
-664
-566
-404
-227
-241
-319
-316
-268
-197
-179
-241
-192
-144
-528
-1070
-1097
-815
-778
-828
-655
-411
-306
-283
-231
-178
-173
-138
-49
-15
-15
65
57
-174
-78
727
1220
441
-662
-824
-386
-127
-36
55
78
71
126
181
159
128
160
201
215
231
253
291
339
357
386
446
465
481
531
515
466
474
444
364
333
297
209
161
175
176
146
131
136
118
110
150
179
184
180
132
108
170
193
159
176
167
111
166
255
188
101
172
224
126
108
228
212
125
211
235
267
893
1540
956
-285
-647
-210
94
157
205
230
254
296
334
372
363
318
358
446
450
424
453
485
496
542
612
640
639
668
690
646
610
617
566
484
466
463
444
451
440
442
502
410
35
-443
-933
-1454
-1877
-2148
-2365
-2528
-2489
-2169
-1797
-1691
-1717
-1544
-1235
-1002
-812
-594
-424
-402
-508
-625
-662
-589
-447
-336
-174
178
316
-313
-1398
-2146
-2282
-1971
-1466
-1062
-800
-519
-293
-221
-136
47
174
210
279
395
479
537
607
677
744
802
817
843
946
1006
922
867
948
946
737
553
550
578
528
502
565
618
603
608
651
643
609
638
669
645
619
602
575
575
600
609
586
507
421
417
345
9
-352
-387
-252
-271
-290
-72
-21
-442
-499
343
836
69
-759
-634
-233
-111
-26
14
-51
12
136
101
61
107
89
85
120
-74
-407
-482
-351
-282
-224
-98
-2
16
29
75
94
48
-9
-14
22
28
-22
-74
-87
-80
-62
-38
-33
-44
-57
-67
-50
-17
-24
-56
-58
-54
-81
-111
-108
-69
-21
-11
-44
-87
-109
-89
-66
-93
-107
-69
-59
-108
-189
-108
448
1057
747
-221
-611
-343
-192
-198
-119
-90
-110
-68
-58
-101
-87
-47
-59
-80
-35
20
-15
-64
-6
73
76
84
111
78
40
67
88
41
-27
-56
-46
-57
-114
-148
-109
-70
-108
-163
-135
-72
-72
-99
-88
-78
-89
-93
-107
-124
-87
-62
-128
-165
-86
-42
-93
-107
-62
-57
-77
-74
-76
-81
-80
-92
-64
-26
-102
3
641
1095
492
-442
-570
-213
-101
-102
-16
-9
-59
-34
-2
-14
4
37
22
-5
11
51
85
87
74
109
162
146
116
144
160
124
98
88
66
45
25
2
2
23
26
11
8
21
37
44
40
39
51
59
53
47
53
55
43
27
15
7
19
52
78
74
49
31
32
33
24
31
38
18
27
32
-49
132
831
1211
508
-414
-513
-191
-96
-96
-41
-38
-56
-37
-35
-45
-39
-37
-44
-41
-34
-33
-27
-16
-3
9
18
23
26
24
15
7
5
3
-8
-29
-55
-77
-91
-102
-111
-112
-108
-105
-102
-95
-89
-87
-84
-80
-78
-78
-78
-82
-90
-96
-103
-108
-91
-48
-17
-26
-56
-68
-60
-65
-81
-68
-55
-77
-56
-52
-146
76
803
1070
249
-616
-605
-259
-155
-124
-61
-60
-63
-37
-35
-37
-24
-19
-18
-8
3
14
31
49
61
76
93
105
109
109
105
103
105
102
86
58
27
-1
-24
-41
-49
-49
-48
-44
-38
-36
-41
-41
-35
-33
-34
-35
-40
-53
-65
-72
-63
-33
-1
3
-18
-39
-37
-35
-54
-56
-32
-44
-45
-3
-74
-33
582
1165
648
-426
-742
-399
-188
-130
-38
-10
-28
-3
13
6
18
29
29
43
65
78
93
115
135
150
168
186
199
204
200
192
185
177
158
127
87
52
25
1
-20
-30
-31
-34
-37
-35
-33
-36
-41
-45
-49
-56
-67
-75
-81
-80
-63
-31
-15
-33
-65
-74
-70
-84
-95
-75
-77
-91
-52
-89
-166
226
960
916
-68
-718
-528
-236
-178
-121
-66
-79
-73
-48
-49
-48
-36
-31
-22
-7
5
19
39
57
74
94
112
123
125
121
111
100
90
76
51
19
-11
-32
-51
-68
-79
-83
-80
-75
-70
-65
-63
-68
-73
-72
-78
-97
-112
-115
-114
-96
-58
-36
-49
-74
-82
-82
-93
-98
-81
-82
-88
-60
-111
-160
275
1014
956
-17
-636
-427
-153
-138
-110
-61
-74
-66
-34
-36
-43
-31
-20
-11
1
16
37
55
65
81
102
115
118
118
110
96
84
74
62
45
25
6
-7
-17
-29
-30
-21
-14
-15
-12
-7
-9
-11
-7
-3
-7
-20
-34
-41
-38
-15
20
38
24
0
-9
-9
-21
-29
-11
-5
-15
5
-38
-107
263
1016
1089
174
-531
-391
-104
-82
-69
-22
-35
-37
-13
-16
-23
-13
-7
-9
-9
4
26
38
39
49
66
77
78
71
63
54
44
32
19
-1
-27
-49
-62
-78
-95
-101
-97
-94
-89
-83
-85
-84
-73
-69
-77
-79
-84
-100
-111
-105
-86
-51
-22
-31
-62
-71
-68
-82
-89
-71
-76
-78
-40
-101
-155
307
1036
914
-68
-620
-377
-124
-123
-96
-46
-54
-47
-18
-14
-20
-18
-3
25
42
39
34
46
66
81
87
94
102
107
103
93
91
98
90
66
49
38
8
-17
11
59
67
66
72
20
-40
-3
29
-19
-14
29
-46
-149
-147
-126
-126
-90
-57
-73
-97
-83
-27
-8
-71
-129
-136
-125
-123
-190
-136
408
1002
686
-233
-533
-220
-133
-241
-146
-39
-85
-93
-41
-26
-10
12
-4
0
46
56
32
54
99
104
104
134
150
132
126
159
193
172
101
56
62
65
36
1
-5
9
9
9
33
48
31
27
31
15
9
21
15
14
33
27
6
2
-12
-33
-28
-34
-56
-26
-2
-43
-39
-46
-121
163
822
882
77
-526
-443
-254
-218
-160
-110
-118
-105
-77
-75
-70
-53
-50
-63
-67
-50
-40
-49
-37
-4
1
-11
-3
3
-18
-27
-4
8
-31
-79
-88
-87
-120
-160
-179
-187
-182
-175
-172
-155
-136
-152
-163
-134
-124
-165
-184
-142
-94
-79
-69
-51
-66
-112
-147
-166
-165
-138
-130
-132
-89
-128
-194
209
925
864
-88
-692
-498
-214
-146
-86
-35
-31
-4
23
16
12
31
65
84
70
74
109
122
121
155
198
210
210
207
188
184
213
217
176
163
189
171
100
67
93
101
80
90
114
99
88
129
159
138
116
117
124
152
201
227
223
209
193
184
177
168
185
216
221
240
230
118
277
973
1370
713
-155
-230
100
214
231
281
283
286
321
326
322
338
337
321
319
321
322
326
318
303
298
301
308
306
282
243
183
68
-89
-249
-402
-533
-634
-750
-868
-934
-1016
-1182
-1390
-1692
-2105
-2346
-2233
-1975
-1742
-1497
-1256
-1064
-880
-689
-543
-469
-426
-352
-265
-211
-152
-80
-47
-9
48
-21
28
667
1347
994
23
-288
27
177
159
241
305
293
301
321
330
350
355
337
350
390
403
393
403
426
431
431
444
461
450
413
395
409
403
364
340
341
315
259
227
230
231
225
223
214
201
199
204
196
172
157
163
155
115
103
149
184
162
126
106
91
68
45
41
38
15
34
44
-76
36
733
1208
562
-416
-570
-230
-112
-119
-81
-94
-111
-80
-84
-108
-92
-77
-88
-88
-75
-63
-50
-42
-40
-29
-13
-13
-20
-16
-9
-17
-35
-44
-52
-84
-128
-130
-97
-111
-172
-196
-176
-158
-147
-147
-161
-152
-120
-118
-143
-150
-139
-137
-154
-179
-183
-146
-99
-84
-94
-107
-114
-125
-150
-157
-117
-105
-120
-78
-114
-177
281
1056
933
-141
-757
-504
-221
-185
-134
-105
-126
-84
-42
-70
-86
-57
-38
-41
-41
-33
-18
6
35
59
69
79
98
108
99
95
98
98
98
86
47
11
1
-18
-47
-44
-14
-7
-25
-35
-13
19
24
0
-7
12
10
-14
-5
29
26
-4
-12
-1
-4
-20
-24
-25
-37
-33
-2
28
43
48
28
-2
-10
-5
3
1
-23
-13
10
-29
180
862
1210
476
-478
-574
-207
-86
-97
-45
-29
-46
-33
-23
-33
-32
-9
16
18
17
39
51
38
50
91
106
105
132
147
113
85
98
99
70
45
20
-9
-9
-2
-15
-19
-13
-33
-47
-35
-37
-45
-22
-1
-17
-39
-41
-35
-35
-40
-42
-36
-32
-45
-59
-43
-23
-45
-78
-79
-70
-83
-87
-48
7
16
-18
-31
-18
-34
-57
-48
-46
-42
-29
-87
16
640
1207
759
-239
-578
-289
-110
-122
-106
-82
-76
-74
-78
-54
-16
-21
-42
-35
-13
-5
-8
5
39
58
60
74
91
99
96
73
51
56
55
29
17
9
-32
-74
-71
-51
-59
-86
-93
-68
-52
-73
-91
-74
-53
-59
-70
-68
-67
-63
-56
-61
-69
-63
-64
-75
-72
-67
-68
-60
-60
-77
-75
-57
-52
-45
-40
-64
-91
-83
-52
-17
19
29
2
-11
-1
-28
-63
-47
-33
-32
-15
-39
128
768
1211
625
-321
-518
-210
-89
-102
-55
-30
-36
-19
-5
-7
-11
-15
-4
20
25
23
35
52
77
106
106
95
110
128
120
108
101
85
76
90
82
35
-3
-10
-22
-44
-50
-45
-39
-32
-30
-25
-10
-10
-25
-22
-16
-37
-50
-31
-14
-18
-25
-32
-48
-51
-32
-23
-31
-31
-22
-23
-35
-41
-42
-51
-69
-58
-3
35
29
29
40
19
-12
-12
