# session 0
-26
36
112
139
166
260
343
365
376
401
460
526
534
520
539
542
518
521
529
500
470
459
438
403
382
377
367
339
303
279
275
284
292
301
319
331
320
309
307
294
274
261
252
251
253
231
200
197
210
200
171
160
175
179
147
118
136
154
133
117
124
106
83
101
113
77
46
42
36
27
18
-11
-48
-60
-65
-83
-85
-65
-71
-109
-156
-214
-255
-251
-236
-221
-187
-180
-198
-176
-181
-248
-244
-131
189
829
1105
287
-760
-838
-384
-234
-240
-175
-169
-185
-151
-143
-155
-138
-125
-115
-77
-51
-56
-34
23
50
46
59
80
84
88
94
73
25
-10
-23
-33
-52
-70
-84
-95
-105
-122
-149
-161
-148
-138
-141
-141
-158
-180
-154
-98
-84
-108
-128
-141
-150
-150
-146
-143
-148
-159
-168
-174
-164
-134
-115
-126
-136
-123
-107
-104
-105
-96
-80
-70
-72
-76
-65
-34
-13
-29
-38
-9
14
-6
-30
-9
56
97
73
37
23
9
-2
-2
-14
-21
-20
-19
9
9
-73
-116
-44
270
1010
1523
806
-444
-701
-165
92
68
133
179
152
162
207
260
301
290
268
283
311
332
351
360
375
400
386
345
333
330
296
272
269
216
131
112
122
69
21
49
52
-15
-49
-55
-108
-159
-163
-179
-213
-197
-149
-148
-211
-275
-285
-259
-240
-230
-235
-254
-243
-203
-197
-218
-220
-219
-217
-177
-141
-153
-164
-156
-168
-181
-173
-163
-148
-133
-145
-159
-141
-122
-131
-146
-156
-168
-163
-134
-113
-102
-75
-56
-74
-109
-132
-132
-140
-180
-188
-148
-140
-138
-96
-126
-209
-181
2
518
1333
1484
456
-524
-469
-78
-13
-21
37
33
8
26
83
146
141
101
142
215
217
199
217
225
208
220
274
301
270
243
271
298
263
202
180
192
176
102
25
0
-14
-47
-65
-69
-82
-73
-43
-44
-63
-65
-68
-90
-101
-83
-67
-80
-97
-88
-71
-78
-95
-100
-99
-97
-90
-90
-93
-83
-90
-125
-126
-78
-56
-86
-106
-94
-82
-81
-87
-101
-108
-92
-77
-82
-85
-70
-61
-68
-70
-56
-23
26
43
-18
-106
-142
-144
-155
-162
-162
-162
-145
-132
-131
-93
-78
-155
-195
-114
211
1006
1641
1008
-303
-691
-239
-24
-81
-38
4
-6
6
-2
5
76
120
103
112
153
181
208
244
270
289
310
313
298
283
269
260
256
226
167
124
104
81
55
33
-6
-55
-80
-83
-92
-113
-120
-92
-71
-102
-139
-124
-100
-113
-118
-98
-108
-134
-116
-92
-127
-160
-134
-118
-154
-170
-145
-137
-150
-148
-133
-132
-143
-149
-145
-131
-109
-101
-115
-127
-127
-118
-107
-109
-123
-120
-118
-155
-200
-219
-239
-261
-257
-228
-189
-168
-187
-215
-211
-183
-146
-116
-116
-106
-69
-68
-61
-6
-35
-132
-107
83
619
1401
1348
105
-807
-526
-51
2
13
68
38
35
80
100
125
162
184
202
233
278
322
356
385
384
360
373
407
394
366
363
336
288
271
255
202
163
151
109
51
23
4
-18
-18
-22
-46
-42
-20
-41
-83
-80
-39
-16
-36
-67
-79
-75
-73
-84
-103
-111
-104
-95
-93
-94
-99
-118
-132
-109
-80
-111
-177
-179
-126
-129
-157
-95
-35
-107
-162
-93
-88
-216
-296
-277
-252
-237
-219
-204
-178
-153
-140
-94
-28
-18
-43
-28
9
20
26
32
3
-32
-18
-2
-19
-16
-1
-41
-80
-57
-48
-83
-83
-47
-30
-39
-44
-15
11
-41
-104
-87
102
769
1615
1407
81
-732
-463
-137
-137
-88
-30
-70
-62
-3
14
8
5
19
66
116
142
161
176
194
227
253
249
242
258
277
273
242
205
177
151
114
68
28
3
-14
-39
-66
-81
-93
-109
-120
-116
-105
-92
-82
-80
-83
-82
-80
-84
-87
-86
-90
-98
-104
-112
-113
-101
-103
-124
-134
-125
-121
-131
-149
-165
-167
-158
-165
-185
-190
-175
-171
-183
-183
-170
-166
-159
-142
-133
-142
-153
-154
-151
-147
-139
-126
-116
-112
-111
-110
-116
-121
-102
-59
-8
43
64
39
18
37
42
19
18
32
40
46
37
38
37
-27
-62
8
229
967
1938
1709
178
-738
-391
-42
-114
-94
-18
-49
-27
27
10
6
48
76
91
122
156
176
188
209
240
257
262
274
286
296
316
323
295
253
223
207
177
115
65
60
47
-2
-29
-28
-41
-48
-37
-68
-127
-126
-98
-112
-127
-112
-119
-150
-143
-108
-105
-126
-120
-100
-110
-142
-170
-188
-178
-144
-140
-173
-187
-181
-190
-185
-157
-161
-188
-177
-169
-222
-258
-219
-183
-189
-183
-171
-191
-204
-180
-166
-174
-175
-183
-187
-141
-105
-111
-78
-32
-61
-78
-26
-8
-29
-23
-24
-41
-35
-23
-11
-21
-88
-118
-59
196
937
1672
1197
-175
-768
-367
-74
-116
-98
-57
-85
-80
-38
-14
-14
-26
-16
28
69
87
94
110
151
199
220
225
247
290
332
362
395
436
458
443
415
385
332
247
160
96
59
26
-15
-40
-34
-31
-47
-50
-36
-35
-47
-50
-49
-63
-77
-78
-80
-93
-110
-127
-145
-152
-153
-165
-179
-184
-189
-195
-196
-197
-199
-194
-189
-191
-190
-180
-170
-162
-155
-154
-149
-137
-131
-132
-125
-118
-119
-119
-115
-111
-99
-93
-102
-96
-58
-12
27
39
8
-28
-36
-39
-41
-36
-46
-54
-45
-52
-39
2
-43
-113
-52
137
681
1519
1499
205
-786
-557
-125
-104
-84
-10
-42
-48
-4
-2
6
40
54
63
84
100
120
151
176
193
212
237
267
288
288
288
293
279
253
235
208
155
102
59
11
-38
-80
-115
-137
-144
-141
-136
-136
-136
-125
-107
-91
-77
-71
-77
-75
-57
-50
-65
-78
-74
-67
-75
-95
-105
-103
-109
-116
-114
-115
-125
-128
-126
-131
-131
-119
-112
-116
-109
-98
-105
-120
-117
-105
-98
-96
-101
-105
-96
-84
-92
-103
-92
-78
-80
-79
-73
-74
-77
-64
-40
-10
36
77
78
54
42
47
56
66
66
60
71
69
37
38
30
-59
-97
-11
242
942
1636
1133
-228
-767
-343
-75
-114
-65
-29
-73
-62
-31
-34
-24
-7
-3
9
35
64
88
98
104
128
163
179
178
183
193
195
191
185
170
149
126
96
49
-7
-60
-110
-155
-184
-198
-204
-197
-188
-189
-185
-166
-158
-162
-151
-132
-131
-133
-119
-103
-99
-103
-105
-103
-99
-94
-91
-87
-76
-65
-65
-71
-66
-56
-51
-46
-36
-29
-29
-27
-20
-13
-3
9
15
18
25
34
43
52
61
62
62
66
71
73
78
87
94
95
90
88
97
104
103
105
111
110
107
111
108
99
93
89
80
82
99
107
92
82
86
86
72
58
49
43
43
47
38
19
8
3
-4
-4
2
-13
-42
-47
-33
-37
-60
-74
-87
-108
-104
-75
-62
-68
-77
-100
-131
-142
-136
-128
-129
-146
-155
-139
-146
-159
-136
-165
-241
-209
-66
306
1033
1329
438
-644
-710
-295
-201
-215
-135
-124
-146
-117
-91
-78
-54
-37
-28
-12
8
29
50
69
90
115
139
160
176
185
193
205
213
204
185
167
149
129
102
52
-19
-85
-126
-158
-194
-225
-242
-247
-237
-219
-208
-196
-170
-153
-151
-144
-145
-155
-127
-110
-144
-64
107
-77
-699
-1150
-1080
-792
-511
-198
-3
-91
-239
-158
73
222
259
283
316
324
322
346
387
412
426
457
493
509
510
513
538
591
664
752
843
900
901
860
786
691
591
468
313
152
19
-74
-136
-178
-208
-230
-242
-233
-213
-208
-210
-200
-190
-189
-177
-169
-212
-290
-332
-326
-315
-312
-310
-307
-300
-289
-287
-290
-284
-268
-248
-236
-236
-234
-222
-213
-210
-207
-213
-221
-212
-198
-201
-206
-192
-174
-168
-156
-134
-121
-106
-72
-48
-51
-39
3
40
61
79
93
95
93
90
90
96
105
114
124
139
154
155
145
141
148
158
162
158
156
159
158
153
152
153
154
157
151
145
155
147
93
31
-2
-20
-31
-32
-34
-36
-34
-35
-38
-37
-39
-49
-56
-56
-54
-55
-54
-54
-53
-47
-42
-45
-47
-47
-57
-75
-77
-71
-85
-101
-91
-68
-42
-14
-21
-65
-89
-78
-69
-75
-87
-85
-69
-79
-89
-78
-136
-194
-112
83
578
1367
1420
270
-688
-545
-186
-192
-185
-96
-98
-101
-72
-81
-89
-68
-51
-36
-10
19
55
91
104
99
106
121
119
120
143
163
166
174
180
164
145
146
148
132
115
100
67
27
6
-9
-36
-63
-76
-83
-93
-98
-97
-103
-120
-125
-117
-120
-124
-121
-153
-154
-25
-4
-378
-852
-920
-674
-467
-265
-32
-55
-339
-464
-304
-114
-12
47
68
72
102
138
158
181
216
249
288
333
359
359
374
444
549
648
738
810
833
813
776
706
587
443
289
136
3
-105
-197
-262
-303
-325
-326
-318
-319
-312
-284
-256
-239
-222
-209
-202
-190
-173
-163
-158
-148
-137
-131
-127
-121
-119
-119
-116
-111
-104
-96
-92
-95
-93
-85
-81
-82
-78
-70
-65
-58
-43
-34
-39
-42
-38
-30
-20
-19
-27
-24
1
20
22
21
18
14
15
19
18
17
15
7
4
8
1
-20
-33
-38
-53
-69
-72
-63
-49
-41
-44
-45
-39
-38
-43
-46
-51
-49
-34
-16
-12
-21
-30
-39
-47
-58
-74
-73
-33
5
-8
-43
-56
-51
-54
-74
-78
-53
-59
-87
-43
-27
-108
-90
80
518
1465
2017
964
-597
-838
-279
-134
-182
-77
-53
-86
-47
-31
-39
-20
-11
-3
23
42
63
96
103
98
119
136
121
110
126
136
125
106
86
55
28
22
9
-26
-44
-44
-54
-56
-70
-113
-86
36
92
35
2
20
14
1
21
45
48
42
45
64
63
30
25
32
-28
-25
159
232
-104
-604
-884
-973
-1010
-877
-557
-330
-269
-161
1
79
108
123
98
91
139
185
212
235
247
263
279
271
271
319
392
471
561
658
743
794
828
857
831
705
538
393
257
110
-34
-164
-269
-334
-370
-397
-409
-399
-385
-377
-365
-346
-328
-310
-296
-289
-280
-268
-257
-243
-223
-215
-220
-221
-213
-206
-204
-201
-196
-199
-204
-197
-185
-180
-175
-167
-164
-160
-144
-129
-125
-121
-111
-101
-94
-86
-77
-70
-65
-61
-54
-45
-39
-37
-35
-28
-22
-18
-20
-24
-24
-27
-42
-49
-46
-48
-26
37
71
36
4
6
11
5
-4
4
18
2
4
48
1
-83
-27
143
695
1754
2050
720
-615
-552
-70
-53
-74
11
-23
-44
11
16
11
45
61
62
82
108
130
157
183
208
235
257
277
297
311
314
316
321
320
314
312
302
272
227
179
127
74
27
-13
-49
-81
-100
-105
-100
-100
-105
-108
-102
-96
-101
-114
-137
-173
-200
-189
-163
-155
-158
-157
-158
-166
-172
-176
-195
-238
-281
-294
-282
-257
-208
-160
-161
-192
-199
-189
-190
-192
-204
-226
-218
-200
-211
-191
-168
-235
-285
-232
1
771
1675
1316
-194
-967
-560
-206
-241
-205
-149
-186
-175
-130
-128
-123
-98
-78
-52
-21
3
28
59
91
126
163
198
233
269
301
321
332
333
315
280
224
140
49
-26
-92
-139
-141
-130
-163
-209
-203
-173
-171
-181
-174
-162
-152
-120
-75
-68
-104
-126
-111
-95
-95
-89
-70
-47
-21
-3
-10
-25
-21
-8
-5
5
21
26
36
72
89
57
26
29
44
75
119
116
82
115
171
131
62
80
119
105
77
68
90
132
140
119
118
117
90
85
92
68
57
99
140
147
158
167
140
111
118
121
98
88
98
96
85
85
95
102
98
94
94
82
72
85
89
69
62
74
74
59
42
29
20
10
2
5
2
-20
-37
-42
-57
-75
-68
-58
-84
-107
-95
-101
-147
-164
-143
-138
-137
-122
-142
-189
-184
-149
-156
-178
-166
-151
-163
-179
-180
-170
-142
-113
-122
-163
-179
-167
-164
-167
-166
-166
-165
-175
-175
-141
-164
-238
-217
-106
279
1175
1675
750
-540
-703
-272
-194
-224
-139
-143
-158
-92
-84
-122
-97
-50
-34
-28
-11
20
46
56
74
109
130
136
151
169
186
214
231
228
247
280
271
227
191
159
105
41
-7
-43
-85
-134
-166
-166
-146
-141
-162
-175
-155
-126
-107
-104
-120
-112
-77
-90
-76
81
102
-326
-858
-1000
-862
-636
-221
160
62
-304
-375
-148
44
126
168
193
223
254
264
266
279
278
250
237
265
312
354
393
426
474
570
691
792
859
845
728
603
524
428
292
164
55
-49
-139
-205
-246
-266
-275
-273
-258
-244
-237
-227
-220
-216
-198
-171
-164
-165
-143
-124
-143
-162
-145
-127
-134
-142
-138
-136
-140
-140
-139
-129
-108
-101
-125
-144
-127
-90
-71
-82
-98
-76
-28
-15
-39
-36
-9
-9
-27
-20
7
25
19
1
5
43
67
49
36
49
53
45
53
62
53
48
51
32
16
28
31
8
3
21
35
43
50
53
45
24
11
7
-8
-25
-15
1
-1
6
30
29
1
-13
-4
4
2
2
3
-6
-16
-20
-31
-38
-27
-21
-34
-38
-31
-26
-19
-32
-81
-119
-119
-109
-87
-41
-27
-70
-106
-107
-126
-151
-137
-139
-173
-146
-129
-223
-256
-173
54
862
1847
1500
-26
-791
-457
-251
-361
-323
-257
-283
-262
-214
-200
-181
-156
-137
-103
-58
-25
-10
-6
3
26
55
83
113
152
186
206
233
274
288
267
264
281
272
231
189
155
123
83
40
6
-19
-31
-23
-6
10
20
26
46
74
83
104
150
145
175
358
354
-171
-771
-892
-655
-295
154
434
307
-76
