# session 16
-29
-19
-35
58
219
235
131
75
55
2
-52
-91
-134
-172
-186
-182
-168
-153
-141
-135
-139
-149
-153
-154
-169
-192
-200
-207
-236
-263
-265
-265
-268
-240
-195
-186
-198
-185
-167
-172
-163
-150
-160
-135
-104
-167
-233
-237
-90
668
1707
1465
-120
-994
-516
-56
-86
-56
37
23
43
105
127
164
228
274
314
359
380
363
309
227
136
60
9
-30
-64
-79
-73
-59
-43
-27
-19
-18
-16
-19
-29
-33
-37
-54
-70
-81
-109
-144
-155
-158
-165
-138
-89
-84
-110
-102
-87
-103
-103
-87
-97
-83
-58
-125
-199
-181
39
845
1827
1503
-75
-901
-436
-19
-69
-53
25
5
19
75
100
134
189
234
277
311
318
298
244
160
77
14
-31
-61
-80
-92
-95
-88
-81
-82
-87
-91
-93
-95
-99
-108
-119
-127
-134
-146
-172
-209
-232
-240
-250
-240
-202
-182
-194
-192
-180
-192
-192
-174
-193
-202
-155
-185
-293
-325
-198
412
1499
1720
336
-941
-748
-152
-102
-138
-37
-25
-26
36
68
97
162
219
264
314
345
339
306
252
188
136
102
71
37
19
19
20
18
22
27
26
19
9
-4
-26
-48
-57
-66
-91
-122
-143
-167
-193
-199
-201
-206
-181
-148
-156
-171
-159
-156
-163
-153
-159
-158
-114
-134
-204
-173
-14
491
1319
1268
-258
-1506
-1157
-369
-167
-105
39
44
39
114
144
158
222
281
328
389
438
464
485
490
462
415
358
285
194
100
25
-24
-56
-73
-76
-72
-68
-65
-66
-74
-82
-92
-115
-141
-156
-173
-192
-197
-203
-230
-240
-201
-160
-165
-181
-171
-167
-175
-167
-171
-180
-144
-150
-228
-248
-235
5
871
1523
641
-833
-1022
-333
-68
-107
-20
21
3
56
105
126
179
236
278
328
377
395
369
311
233
152
81
23
-29
-73
-108
-126
-120
-103
-98
-95
-88
-86
-85
-81
-92
-120
-137
-133
-131
-159
-209
-231
-223
-224
-214
-159
-116
-137
-161
-150
-149
-151
-131
-136
-147
-97
-105
-219
-270
-184
309
1423
1992
825
-718
-820
-188
-52
-114
-11
20
-2
47
83
103
159
212
257
315
361
375
353
296
221
152
95
55
29
6
-14
-20
-19
-18
-19
-17
-16
-17
-18
-19
-28
-44
-57
-71
-90
-116
-154
-193
-216
-221
-209
-172
-132
-135
-166
-170
-152
-161
-174
-153
-154
-175
-135
-133
-249
-325
-221
363
1553
2060
677
-1072
-1199
-442
-180
-176
-54
-26
-50
7
51
75
135
193
245
322
392
424
418
384
329
264
198
146
109
56
-23
-94
-129
-141
-147
-148
-146
-144
-143
-142
-142
-150
-174
-195
-198
-202
-225
-258
-279
-286
-291
-289
-260
-225
-230
-254
-241
-213
-219
-215
-180
-180
-173
-122
-166
-253
-218
-110
404
1475
1672
144
-1193
-897
-215
-110
-73
37
14
25
97
115
152
228
281
349
430
467
478
473
421
344
276
209
151
111
63
4
-29
-34
-35
-35
-27
-18
-14
-12
-12
-13
-20
-38
-53
-67
-105
-159
-192
-197
-187
-164
-131
-115
-129
-144
-137
-141
-165
-155
-139
-164
-145
-112
-217
-333
-282
73
1092
2175
1608
-353
-1290
-693
-183
-204
-149
-51
-69
-44
13
37
90
165
221
292
374
427
445
431
389
334
258
164
93
53
2
-74
-136
-164
-171
-170
-168
-169
-169
-164
-159
-162
-171
-178
-180
-191
-216
-245
-267
-275
-278
-286
-278
-234
-196
-203
-206
-181
-186
-202
-166
-151
-172
-138
-140
-236
-266
-228
141
1259
2017
895
-871
-1119
-392
-132
-150
-28
9
-21
37
92
118
176
241
298
365
430
481
503
478
413
324
219
114
34
-21
-75
-124
-144
-143
-139
-131
-119
-112
-102
-85
-77
-83
-90
-95
-102
-124
-171
-213
-224
-234
-248
-216
-153
-139
-173
-184
-161
-158
-171
-156
-151
-169
-138
-133
-246
-323
-251
186
1326
2249
1382
-467
-1054
-445
-125
-178
-105
-49
-70
-23
26
42
101
178
230
284
351
406
432
419
369
294
216
149
91
33
-20
-61
-94
-115
-122
-119
-112
-100
-90
-89
-87
-80
-81
-94
-107
-118
-137
-162
-183
-203
-225
-244
-256
-246
-203
-165
-163
-177
-176
-166
-169
-169
-143
-144
-171
-126
-98
-200
-260
-167
241
1314
2175
1204
-761
-1331
-596
-190
-198
-70
13
-23
12
67
95
158
225
274
347
430
484
514
513
469
396
312
225
144
79
19
-50
-118
-164
-183
-180
-164
-147
-135
-123
-116
-119
-126
-135
-152
-176
-191
-195
-202
-219
-240
-255
-262
-269
-279
-268
-225
-190
-191
-200
-184
-170
-182
-173
-152
-172
-164
-110
-163
-249
-235
-138
519
1807
2029
351
-1097
-842
-211
-156
-133
-12
-32
-36
36
67
103
171
223
284
365
431
471
480
446
380
298
209
130
69
19
-27
-67
-92
-96
-95
-92
-80
-67
-63
-63
-63
-67
-72
-77
-92
-112
-129
-145
-162
-179
-203
-231
-251
-259
-246
-199
-152
-144
-159
-167
-160
-155
-166
-163
-142
-155
-155
-107
-148
-251
-241
-68
624
1851
2094
490
-1036
-906
-255
-156
-162
-50
-46
-52
10
42
73
139
192
248
329
403
452
474
457
408
337
251
168
106
49
-14
-66
-102
-128
-135
-122
-114
-115
-107
-96
-100
-109
-108
-111
-125
-137
-148
-167
-184
-191
-200
-209
-209
-202
-200
-208
-226
-243
-254
-261
-247
-202
-158
-146
-157
-156
-137
-133
-140
-120
-114
-128
-82
-70
-164
-162
-43
293
1311
2196
1251
-708
-1260
-534
-162
-179
-53
15
-15
42
92
91
139
210
262
333
421
484
520
537
516
444
353
272
196
124
61
-6
-79
-135
-158
-156
-147
-126
-93
-74
-82
-88
-83
-90
-107
-124
-144
-163
-168
-171
-188
-206
-208
-203
-210
-230
-243
-245
-249
-254
-236
-205
-192
-195
-190
-172
-168
-171
-149
-141
-162
-128
-99
-172
-180
-92
83
842
1829
1374
-397
-1212
-619
-149
-150
-56
41
11
35
88
106
156
219
262
327
415
483
527
542
513
443
349
249
158
81
18
-36
-80
-111
-131
-139
-131
-109
-91
-80
-71
-69
-79
-92
-102
-115
-132
-145
-156
-170
-183
-188
-203
-234
-256
-260
-259
-240
-195
-163
-166
-175
-165
-153
-160
-158
-136
-143
-153
-112
-130
-215
-209
-118
340
1511
2211
1026
-727
-982
-328
-128
-173
-68
-37
-61
-4
39
57
116
183
244
323
402
460
496
497
454
379
290
196
112
44
-11
-59
-98
-116
-118
-117
-118
-116
-109
-103
-103
-109
-118
-127
-139
-155
-172
-184
-196
-212
-227
-235
-241
-247
-262
-287
-309
-318
-314
-286
-236
-201
-196
-200
-198
-189
-186
-191
-173
-158
-178
-152
-108
-180
-256
-210
40
940
2110
1817
-36
-1135
-680
-159
-151
-104
-14
-34
-6
57
73
115
184
234
301
390
467
527
558
545
501
433
346
267
207
140
60
-5
-47
-76
-92
-90
-78
-67
-56
-49
-51
-56
-55
-61
-82
-95
-97
-108
-127
-142
-152
-160
-170
-177
-171
-160
-171
-200
-217
-224
-238
-239
-207
-163
-146
-157
-163
-144
-130
-135
-120
-114
-145
-116
-80
-169
-197
-73
129
856
1849
1423
-455
-1424
-827
-270
-237
-124
1
-30
-8
60
75
110
184
247
311
387
460
523
560
549
493
413
326
236
151
76
8
-57
-112
-143
-155
-154
-134
-107
-92
-89
-85
-86
-94
-106
-120
-134
-146
-158
-169
-180
-190
-191
-196
-223
-252
-264
-272
-263
-220
-182
-186
-202
-195
-180
-184
-192
-176
-173
-181
-146
-145
-225
-239
-161
186
1183
1997
1155
-543
-1012
-397
-99
-149
-75
-20
-39
7
60
83
133
192
245
309
374
427
466
464
415
344
259
163
78
18
-26
-65
-91
-95
-87
-82
-84
-83
-80
-79
-78
-74
-71
-80
-91
-90
-95
-123
-154
-162
-161
-172
-185
-199
-228
-253
-257
-253
-240
-201
-161
-154
-165
-161
-147
-146
-144
-126
-133
-138
-86
-92
-178
-170
-21
510
1625
2138
836
-857
-1014
-331
-121
-148
-48
-28
-44
21
64
87
150
217
273
343
413
471
509
510
471
407
331
255
189
124
54
-11
-54
-75
-88
-97
-97
-95
-99
-104
-109
-116
-127
-137
-149
-164
-174
-182
-192
-201
-207
-209
-213
-227
-257
-277
-278
-277
-262
-217
-177
-174
-184
-181
-168
-166
-171
-156
-156
-177
-141
-124
-218
-259
-164
212
1244
2140
1310
-549
-1154
-505
-141
-188
-114
-49
-73
-31
20
32
76
137
186
251
322
377
416
424
388
327
265
210
159
104
45
-10
-51
-76
-91
-101
-105
-106
-106
-105
-108
-114
-116
-117
-130
-148
-158
-167
-182
-194
-195
-192
-191
-194
-201
-217
-234
-242
-241
-222
-180
-147
-143
-149
-144
-127
-119
-119
-100
-99
-122
-80
-55
-153
-164
19
414
1324
2083
1175
-743
-1365
-650
-192
-164
-37
38
3
56
124
133
173
239
288
350
427
481
520
555
556
517
475
436
376
292
201
107
17
-53
-97
-121
-125
-116
-110
-109
-108
-112
-123
-135
-147
-165
-181
-187
-197
-217
-233
-237
-240
-249
-267
-282
-283
-283
-287
-266
-224
-206
-219
-222
-200
-193
-203
-189
-176
-194
-162
-131
-211
-240
-166
-4
757
1829
1498
-281
-1223
-688
-192
-186
-102
-3
-32
2
69
81
118
186
235
294
373
441
495
528
516
460
383
298
213
131
59
-1
-54
-100
-125
-130
-129
-122
-106
-93
-91
-89
-88
-95
-104
-112
-125
-137
-143
-150
-158
-170
-202
-236
-243
-239
-231
-195
-150
-143
-162
-163
-148
-151
-162
-149
-143
-155
-128
-117
-188
-209
-142
98
907
1760
1219
-363
-991
-442
-71
-115
-71
-6
-25
7
59
79
126
186
231
293
373
435
474
489
460
392
307
215
125
50
-4
-48
-86
-112
-124
-130
-129
-123
-115
-107
-103
-101
-97
-98
-107
-117
-124
-135
-149
-159
-167
-172
-183
-213
-241
-250
-260
-261
-216
-158
-149
-169
-172
-158
-156
-162
-148
-140
-160
-137
-107
-174
-219
-141
109
895
1847
1473
-192
-1074
-580
-103
-120
-95
-15
-26
3
63
82
119
181
233
294
370
433
479
499
477
419
342
257
171
96
35
-16
-60
-93
-108
-114
-118
-114
-108
-105
-101
-98
-102
-109
-111
-121
-138
-145
-148
-159
-172
-178
-183
-187
-188
-187
-191
-211
-240
-252
-252
-247
-211
-156
-137
-155
-160
-143
-138
-151
-145
-127
-144
-137
-90
-140
-224
-171
10
639
1735
1838
230
-1134
-858
-190
-114
-117
-4
-3
-3
64
92
116
176
232
287
355
418
471
502
493
454
395
322
251
190
130
67
9
-31
-54
-67
-73
-73
-70
-69
-69
-67
-70
-79
-90
-98
-111
-126
-138
-145
-153
-161
-166
-170
-174
-175
-175
-174
-172
-169
-168
-173
-178
-176
-169
-169
-192
-224
-241
-240
-219
-158
-93
-85
-118
-132
-117
-109
-120
-114
-95
-114
-109
-56
-106
-197
-139
53
689
1819
1975
354
-1086
-852
-181
-106
-115
4
7
3
69
97
120
178
229
277
342
403
453
488
489
454
402
344
286
230
174
115
57
13
-15
-38
-55
-62
-60
-60
-60
-60
-68
-81
-90
-98
-112
-128
-142
-160
-179
-189
-190
-192
-198
-205
-210
-210
-210
-210
-203
-196
-196
-198
-199
-201
-211
-231
-248
-245
-204
-137
-94
-108
-144
-157
-143
-133
-146
-148
-129
-143
-144
-95
-142
-236
-159
100
765
1789
1776
72
-1351
-1087
-388
-254
-201
-56
-52
-56
15
49
72
127
175
225
295
363
424
476
504
496
461
416
373
328
267
188
101
20
-47
-100
-134
-142
-134
-132
-134
-125
-114
-117
-130
-147
-159
-155
-168
-205
-202
-189
-235
-188
24
90
-160
-438
-578
-772
-1002
-929
-556
-366
-496
-529
-281
-24
107
207
284
306
334
411
509
622
760
905
1048
1193
1327
1419
1438
1368
1217
1000
747
493
260
64
-82
-182
-258
-312
-337
-349
-355
-350
-342
-336
-327
-315
-309
-308
-304
-293
-284
-284
-284
-279
-276
-276
-275
-269
-265
-263
-259
-255
-251
-246
-237
-232
-232
-232
-227
-224
-223
-218
-215
-212
-205
-197
-194
-191
-183
-178
-176
-171
-162
-156
-160
-177
-198
-208
-203
-195
-180
-149
-120
-114
-116
-106
-104
-112
-94
-92
-117
-72
-54
-172
-189
-52
224
1130
2148
1513
-401
-1182
-584
-196
-216
-97
-17
-63
-25
34
40
80
140
181
238
316
393
475
553
601
615
602
559
494
415
327
241
166
101
40
-13
-54
-82
-97
-96
-87
-81
-75
-67
-72
-85
-86
-100
-125
-122
-144
-201
-154
-62
-189
-445
-460
-237
-154
-329
-359
0
274
53
-269
-274
-159
-142
-136
-90
-45
12
88
166
252
355
469
596
736
880
1012
1105
1122
1062
943
774
575
376
186
10
-124
-212
-269
-297
-307
-314
-316
-310
-306
-307
-303
-298
-298
-306
-314
-312
-308
-314
-315
-301
-288
-292
-303
-307
-300
-292
-289
-282
-269
-261
-262
-268
-265
-252
-248
-251
-245
-243
-265
-293
-302
-293
-266
-218
-176
-165
-175
-183
-171
-160
-172
-160
-130
-148
-146
-105
-181
-272
-207
-30
671
1930
2079
366
-1067
-832
-254
-218
-194
-81
-98
-92
-24
-7
16
76
124
176
255
333
406
479
534
564
569
549
507
445
366
280
200
126
54
-11
-57
-78
-83
-86
-83
-74
-77
-81
-76
-92
-108
-98
-136
-174
-32
93
-222
-785
-991
-808
-605
-356
33
196
-65
-336
-305
-171
-120
-98
-56
2
84
181
278
379
482
588
700
809
909
992
1038
1028
959
823
634
433
252
94
-41
-146
-221
-272
-303
-320
-324
-319
-311
-304
-296
-285
-270
-255
-243
-235
-222
-208
-204
-209
-203
-191
-186
-185
-179
-172
-165
-154
-143
-140
-138
-130
-120
-114
-113
-104
-85
-73
-71
-66
-58
-54
-52
-59
-76
-82
-72
-62
-44
0
