# session 14
48
177
-202
358
1506
1075
-284
-440
193
392
349
364
327
266
199
190
269
254
225
381
500
440
421
471
514
565
496
335
307
287
103
-2
42
15
-52
-32
21
31
-35
-94
-3
74
-84
-275
-305
-330
-386
-401
-506
-609
-446
-332
-592
-738
-438
77
771
1144
305
-982
-1202
-744
-656
-680
-484
-386
-381
-275
-187
-198
-210
-175
-112
-47
7
67
136
200
248
228
126
99
222
283
168
76
114
116
11
-60
-40
-17
-11
35
94
124
144
148
112
98
112
45
9
177
295
165
44
75
460
1480
2111
1089
-424
-675
-247
-181
-160
45
115
36
-50
-95
-28
98
164
192
218
190
127
144
239
267
185
114
89
39
-34
-76
-108
-173
-209
-182
-183
-224
-233
-281
-375
-357
-290
-270
-162
-78
-237
-396
-409
-451
-432
-333
-384
-475
-376
139
1249
1912
831
-863
-1244
-745
-531
-434
-223
-176
-241
-264
-291
-265
-121
51
171
172
77
63
139
146
98
92
113
147
160
116
97
108
49
-23
-16
-9
-40
-48
-46
-17
80
148
161
255
376
335
196
125
125
131
88
-8
-47
136
742
1560
1617
543
-437
-382
59
180
106
16
-72
-107
-109
-79
8
32
-62
-112
-59
2
59
121
124
62
11
79
254
248
-38
-273
-425
-714
-813
-485
-249
-389
-494
-325
-159
-278
-503
-451
-230
-248
-461
-551
-466
-339
-291
-339
-365
-415
-425
242
1413
1346
-314
-1425
-1037
-467
-330
-175
-51
-120
-149
-58
61
186
234
192
213
336
425
473
588
665
501
315
506
786
618
301
357
478
268
73
172
177
-78
-126
146
267
174
215
325
260
163
203
237
162
85
34
-59
-128
-41
359
1026
1175
164
-1016
-1104
-555
-288
-235
-217
-308
-306
-131
-67
-122
-29
118
35
-80
79
196
-43
-254
-160
-85
-158
-158
-115
-136
-126
-133
-250
-287
-202
-216
-211
19
143
-82
-262
-94
129
43
-226
-296
-183
-198
-286
-246
-230
-316
-289
-64
404
989
898
-131
-899
-713
-329
-143
23
19
-21
159
192
42
170
326
100
-107
50
294
376
372
432
528
470
300
263
319
268
144
75
79
109
111
85
32
-58
-86
24
140
165
125
34
-50
-115
-259
-324
-107
34
-212
-444
-354
-64
496
967
362
-981
-1435
-805
-301
-247
-158
-2
-14
-138
-199
-181
-131
-21
87
58
-4
88
185
121
85
132
1
-238
-236
-73
-31
-32
56
73
-37
-65
13
29
33
125
162
55
-35
-13
42
62
37
-23
-59
-62
-130
-243
-280
-258
40
861
1299
340
-916
-939
-309
-80
-83
-57
-92
-88
-3
79
146
148
135
247
403
490
555
581
525
467
448
429
388
317
263
291
314
263
272
357
327
193
136
158
155
96
-15
-93
-54
-31
-147
-252
-235
-206
-242
-291
-323
-369
-289
257
922
552
-828
-1631
-1300
-837
-696
-530
-299
-205
-293
-448
-469
-344
-242
-159
-13
124
208
246
127
-97
-89
163
221
-26
-159
-29
29
-118
-215
-157
-109
-123
-96
-48
-46
-49
-52
-70
-56
-54
-137
-186
-128
-66
-20
11
-13
-22
25
387
1410
2150
1209
-452
-850
-289
-15
59
228
297
313
265
90
180
550
588
317
276
407
415
372
349
308
305
312
192
22
32
195
213
-5
-218
-254
-180
-116
-145
-243
-261
-170
-150
-271
-361
-323
-292
-352
-387
-344
-360
-465
-507
-463
-243
477
1219
744
-716
-1457
-1105
-703
-547
-353
-305
-492
-575
-411
-175
-52
-117
-243
-227
-105
-59
-71
-41
5
29
64
115
170
220
219
177
166
154
106
121
230
306
312
310
279
229
262
343
336
277
246
196
142
144
129
97
119
294
995
2005
1919
427
-630
-347
125
162
203
297
234
106
45
96
186
179
131
158
193
173
169
190
141
24
-49
-70
-131
-237
-326
-393
-436
-465
-509
-495
-399
-368
-391
-323
-257
-293
-323
-346
-417
-470
-542
-601
-457
-310
-497
-715
-604
-184
751
1753
1300
-435
-1217
-648
-369
-578
-401
-122
-224
-358
-327
-279
-169
-20
-6
-39
38
120
106
83
100
120
150
177
116
6
-13
35
7
-87
-111
-32
44
74
125
197
181
73
14
44
81
111
134
139
176
198
99
-21
44
510
1422
2001
1324
26
-513
-232
77
162
156
109
75
149
280
289
200
221
291
214
102
103
89
15
10
29
-49
-127
-98
-78
-135
-153
-133
-207
-280
-178
-59
-115
-231
-311
-367
-371
-387
-408
-289
-233
-511
-706
-436
-207
-447
-738
-515
464
1725
1856
398
-929
-847
-355
-481
-758
-685
-514
-414
-277
-154
-126
-105
-63
-34
48
185
225
126
41
84
214
345
433
447
401
388
388
278
138
109
129
127
116
108
181
283
219
113
214
334
187
-42
-30
97
3
-196
-161
185
920
1666
1257
-246
-1045
-578
-96
-107
-117
-37
-88
-188
-148
-52
-94
-177
-111
-16
-44
-53
69
161
79
-56
-90
-37
37
57
-44
-183
-243
-258
-268
-254
-249
-248
-221
-232
-292
-279
-193
-173
-221
-256
-321
-398
-344
-269
-350
-402
-276
29
733
1417
900
-534
-1159
-715
-371
-382
-296
-147
-77
-36
-61
-137
-115
14
126
176
210
246
267
296
369
408
336
246
236
245
213
181
173
184
211
239
261
274
253
232
274
348
370
332
291
256
199
167
152
43
-100
-126
67
720
1475
1110
-340
-1139
-739
-271
-195
-163
-158
-225
-244
-227
-203
-162
-144
-126
-65
-8
32
73
61
-8
-48
-55
-78
-70
-35
-104
-238
-247
-207
-315
-429
-345
-221
-232
-248
-194
-196
-235
-197
-171
-257
-368
-399
-353
-324
-356
-387
-444
-291
617
1600
1034
-589
-1136
-495
-91
-132
-155
-182
-179
-58
13
6
54
135
182
224
286
353
406
410
355
277
211
175
187
212
187
150
178
257
347
401
400
437
497
412
304
381
392
164
34
118
129
64
114
134
-19
-133
47
642
1287
967
-366
-1144
-743
-299
-277
-194
-101
-130
-53
33
-17
-1
83
73
57
106
114
83
74
44
-20
-63
-98
-117
-70
-62
-216
-393
-413
-328
-254
-272
-376
-407
-306
-249
-307
-368
-399
-434
-435
-374
-327
-350
-401
-472
-566
-600
-405
215
926
717
-485
-1248
-909
-369
-171
-38
75
65
40
74
145
217
261
298
321
324
388
460
380
298
421
504
323
202
369
492
382
290
284
225
215
307
257
76
89
283
343
234
133
104
106
109
117
93
-23
-143
-191
-151
272
1008
920
-417
-1474
-1237
-607
-318
-125
7
-55
-103
-38
8
26
70
78
38
50
108
95
7
-65
-60
28
96
38
-68
-73
34
94
-27
-142
-16
108
-50
-235
-191
-59
20
22
-67
-107
-35
-81
-245
-201
-13
-21
-142
-217
-161
444
1238
833
-587
-1143
-535
-80
-96
-69
12
9
17
72
114
106
68
83
169
244
269
266
238
184
140
148
209
250
218
158
93
2
-19
114
230
169
61
58
90
41
-37
-8
101
61
-191
-303
-32
215
-46
-633
-989
-612
461
1029
90
-1229
-1373
-741
-342
-185
-92
-137
-191
-136
-71
-49
-18
45
104
108
96
144
218
202
98
35
43
17
-27
11
76
75
63
71
69
117
175
89
-11
98
200
51
-108
-56
55
69
-4
-80
-78
-59
-113
-172
-113
294
1058
1259
210
-926
-881
-302
-129
-121
8
56
19
33
72
107
146
168
191
240
287
323
336
287
228
242
258
212
184
186
146
97
88
86
93
94
15
-72
-20
68
9
-108
-142
-148
-189
-242
-283
-275
-251
-290
-334
-293
-3
721
1178
346
-997
-1223
-577
-228
-200
-144
-151
-179
-114
-73
-84
-49
22
77
109
110
91
83
89
64
-16
-77
-82
-91
-122
-137
-147
-153
-138
-132
-146
-140
-82
-20
-32
-84
-91
-113
-176
-149
-68
-82
-117
-125
-200
-266
-252
-10
869
1768
1157
-514
-1133
-547
-164
-155
-29
57
14
42
102
93
85
122
176
225
253
279
316
310
237
185
177
139
96
101
89
70
117
158
139
134
130
100
119
154
114
90
137
129
44
-26
-53
-51
-96
-230
-361
-462
-286
600
1432
776
-713
-1101
-482
-179
-247
-178
-75
-83
-107
-94
-57
-36
-34
20
105
147
166
173
133
84
67
49
25
17
8
-2
35
104
98
17
-15
36
87
97
62
-6
-57
-69
-74
-89
-122
-154
-155
-175
-243
-291
-308
-117
514
890
75
-1109
-1202
-551
-239
-227
-161
-127
-134
-98
-58
-14
44
71
90
128
148
157
177
173
136
95
63
58
78
71
39
39
50
33
20
31
19
-1
22
46
20
-22
-68
-114
-99
-52
-53
-60
-84
-196
-319
-332
34
973
1551
658
-721
-910
-300
-27
-29
11
-8
-33
22
58
75
125
165
190
228
249
226
204
186
125
42
12
29
42
56
90
115
110
102
101
53
-40
-68
-17
0
-31
-42
-57
-83
-73
-72
-92
-81
-102
-195
-285
-224
336
1191
1065
-314
-1206
-763
-171
-92
-67
-2
-42
-34
31
26
18
78
127
121
98
100
124
119
54
-24
-65
-79
-78
-60
-40
-16
17
34
24
7
-13
-33
-31
-30
-59
-72
-61
-81
-109
-104
-94
-81
-92
-175
-260
-344
-291
392
1284
907
-529
-1076
-473
-88
-153
-114
-44
-72
-44
18
31
45
78
91
83
79
80
43
-36
-86
-113
-178
-218
-152
-74
-77
-67
23
92
73
29
6
-11
-17
4
34
32
16
52
88
49
33
79
23
-159
-359
-334
427
1587
1583
178
-764
-481
-117
-158
-132
-22
-17
-27
-30
-56
-40
9
33
66
125
140
93
44
2
-54
-86
-51
11
55
106
173
181
113
71
97
90
27
7
36
37
22
24
15
-6
-31
-61
-49
-18
-96
-274
-387
-129
681
1260
525
-836
-1163
-535
-144
-128
-63
1
-26
-38
-22
-2
42
86
102
109
113
100
67
26
-19
-63
-83
-57
5
67
101
108
89
58
43
35
-24
-95
-89
-54
-82
-120
-110
-96
-114
-133
-114
-93
-140
-212
-255
-172
369
1075
729
-645
-1287
-679
-106
-57
-4
99
78
67
109
124
145
196
229
238
251
249
211
153
80
-18
-99
-100
-33
39
81
93
79
44
19
30
24
-38
-92
-98
-100
-97
-82
-87
-108
-122
-114
-87
-103
-156
-201
-204
148
907
990
-184
-1135
-771
-127
-48
-58
67
76
37
79
118
118
130
162
188
207
206
155
67
-1
-41
-61
-51
-30
-7
47
98
87
51
43
29
-2
-6
-10
-47
-58
-29
-52
-110
-106
-88
-108
-79
-42
-105
-165
-183
-44
669
1426
843
-619
-1037
-402
-64
-83
41
85
-41
-44
59
78
42
37
48
52
57
59
33
-25
-91
-130
-139
-121
-72
-10
25
30
28
22
8
-12
-29
-43
-64
-83
-80
-70
-69
-53
-46
-79
-92
-85
-147
-290
-458
-290
696
1739
1304
-164
-741
-299
-59
-132
-72
-17
-62
-55
-17
-6
24
66
91
106
112
94
44
-33
-99
-139
-151
-97
7
51
17
4
18
3
-9
11
4
-38
-63
-86
-101
-65
-31
-56
-75
-70
-69
-43
-44
-162
-366
-480
-50
987
1418
389
-759
-678
-119
-14
-82
-38
-2
27
55
46
60
93
107
155
208
170
94
68
51
8
-6
20
61
120
168
166
144
135
116
77
36
19
51
98
72
-12
-59
-72
-96
-116
-121
-87
-26
-74
-274
-418
-175
548
1029
332
-935
-1251
-627
-191
-154
-115
-68
-77
-55
-15
5
31
50
61
95
124
103
43
-27
-82
-95
-90
-75
-16
62
85
71
64
39
-4
-26
-33
-50
-60
-69
-93
-107
-109
-125
-142
-157
-157
-112
-102
-157
-184
-169
144
978
1306
170
-1091
-956
-254
-67
-56
55
61
64
148
174
150
155
186
268
349
306
207
189
200
164
113
67
50
84
100
80
122
201
193
126
93
70
35
17
0
-20
-10
21
23
-29
-66
-26
-27
-116
-157
-178
-22
697
1239
408
-924
-1063
-393
-103
-114
-63
-51
-47
17
43
61
126
167
185
214
208
186
187
153
67
-11
-57
-56
-10
10
-20
-39
-30
-28
-45
-63
-55
-36
-63
-115
-114
-90
-121
-182
-221
-202
-135
-132
-235
-308
-299
-121
431
830
155
-1014
-1216
-585
-235
-228
-138
-41
-21
21
50
35
49
110
157
139
75
45
54
40
4
-13
-25
-41
-34
-20
-23
-22
-14
-40
-70
-52
-24
-26
-23
-10
-8
-14
-36
-66
-68
-72
-94
-77
-69
-163
-275
-257
118
895
1212
297
-828
-849
-276
-48
-11
78
72
40
102
162
182
209
247
299
351
364
345
326
289
210
143
154
189
172
145
162
169
137
114
105
83
83
126
148
123
99
74
32
14
3
-39
-41
-23
-99
-214
-264
-75
656
1346
748
-670
-1106
-480
-54
-20
60
117
84
95
141
175
201
201
205
240
272
289
284
230
145
79
26
-25
-56
-69
-100
-151
-188
-200
-193
-180
-178
-177
-156
-138
-124
-114
-157
-227
-260
-302
-349
-317
-303
-383
-458
-449
-76
690
777
-378
-1310
-961
-323
-188
-174
-109
-129
-139
-94
-39
41
81
55
63
93
63
36
59
44
-56
-164
-203
-170
-140
-155
-168
-159
-155
-146
-116
-76
-35
-19
-29
-21
-10
-51
-88
-69
-80
-129
-94
-26
-95
-262
-367
-125
762
1604
1132
-205
-713
-279
14
14
84
138
83
40
73
153
213
243
290
344
368
381
371
327
291
260
205
180
212
231
200
157
