# session 18
-61
-83
-34
-5
-132
-315
-361
-318
-318
-327
-306
-301
-314
-318
-313
-310
-301
-268
-217
-191
-208
-235
-233
-212
-212
-210
-182
-191
-208
-159
-200
-331
-268
-46
462
1651
2398
1135
-811
-1174
-536
-338
-344
-193
-167
-201
-136
-100
-99
-55
-17
7
60
119
163
221
299
376
444
503
548
566
569
570
554
501
429
354
269
178
92
17
-43
-84
-111
-129
-134
-127
-117
-119
-122
-118
-122
-136
-141
-159
-186
-182
-205
-263
-206
-111
-228
-392
-276
-53
-137
-524
-727
-382
134
185
-119
-253
-190
-173
-187
-159
-124
-88
-33
24
79
144
215
297
393
497
604
709
795
854
884
877
830
745
629
488
336
178
23
-111
-206
-260
-281
-274
-257
-243
-232
-221
-212
-208
-207
-208
-207
-208
-211
-218
-225
-229
-229
-230
-230
-226
-225
-224
-218
-209
-205
-202
-194
-186
-182
-179
-175
-171
-165
-160
-157
-153
-147
-145
-143
-141
-137
-135
-132
-125
-122
-128
-147
-173
-186
-179
-164
-130
-79
-52
-67
-91
-97
-90
-87
-102
-103
-81
-100
-111
-56
-104
-234
-186
0
518
1690
2303
994
-782
-1008
-398
-236
-251
-132
-118
-142
-86
-57
-48
-8
23
49
99
153
205
276
357
433
505
571
621
649
656
642
599
525
433
327
215
106
4
-88
-155
-193
-210
-207
-199
-194
-177
-164
-174
-162
-155
-199
-129
117
137
-320
-839
-1046
-1088
-1018
-631
-176
-203
-570
-655
-384
-139
-37
18
49
81
169
294
415
540
661
754
835
934
1044
1144
1220
1257
1230
1134
986
798
588
381
195
33
-100
-201
-272
-319
-348
-365
-372
-369
-358
-349
-343
-331
-316
-307
-298
-284
-272
-264
-259
-255
-252
-250
-247
-242
-240
-237
-233
-233
-236
-232
-225
-222
-219
-211
-207
-208
-206
-202
-200
-195
-187
-178
-172
-168
-164
-157
-150
-145
-139
-133
-129
-126
-121
-118
-119
-117
-110
-107
-108
-106
-105
-104
-99
-96
-101
-116
-144
-164
-162
-154
-138
-101
-66
-61
-71
-69
-59
-66
-75
-54
-56
-84
-48
-49
-173
-190
-61
252
1264
2361
1725
-230
-1074
-550
-207
-249
-151
-78
-122
-94
-47
-50
-29
14
50
97
147
190
245
320
399
474
542
595
624
629
618
591
540
463
367
265
167
70
-24
-102
-159
-191
-203
-202
-195
-189
-183
-168
-160
-177
-177
-162
-197
-207
-105
-46
-107
-75
125
250
96
-157
-112
163
129
-248
-446
-356
-279
-272
-236
-198
-168
-112
-39
36
121
210
300
405
527
656
784
905
990
1016
985
893
744
562
368
175
1
-142
-253
-327
-365
-384
-394
-391
-380
-371
-361
-348
-333
-316
-301
-292
-289
-283
-270
-263
-263
-260
-252
-249
-248
-242
-235
-228
-219
-210
-208
-206
-201
-198
-193
-184
-177
-174
-167
-158
-152
-148
-144
-138
-131
-126
-124
-122
-115
-107
-104
-103
-99
-93
-89
-88
-86
-82
-76
-71
-69
-77
-102
-132
-141
-131
-113
-74
-21
-2
-28
-56
-62
-50
-50
-66
-54
-45
-78
-60
-32
-143
-213
-89
188
1041
2236
2029
165
-1040
-677
-216
-243
-196
-98
-130
-118
-64
-61
-41
5
31
64
116
163
211
276
346
412
475
533
573
591
595
588
559
499
415
321
223
127
38
-37
-93
-129
-140
-140
-144
-139
-134
-147
-142
-130
-176
-145
94
195
-210
-777
-1006
-1006
-940
-601
-163
-199
-623
-777
-541
-289
-148
-35
56
131
230
337
412
464
530
619
711
800
893
982
1054
1100
1106
1055
949
811
651
474
300
148
17
-97
-187
-252
-307
-345
-359
-362
-367
-362
-347
-337
-333
-326
-318
-312
-303
-295
-296
-296
-285
-278
-280
-279
-270
-263
-257
-253
-249
-244
-238
-231
-226
-224
-221
-212
-205
-200
-191
-181
-172
-167
-161
-152
-145
-146
-146
-139
-130
-124
-120
-119
-118
-113
-108
-108
-105
-100
-101
-102
-96
-88
-88
-88
-91
-109
-126
-125
-123
-118
-85
-44
-37
-56
-65
-52
-44
-58
-51
-33
-65
-61
-6
-93
-204
-93
163
867
2091
2229
451
-1099
-910
-314
-266
-214
-61
-79
-92
-29
-18
-11
33
61
88
136
183
233
296
362
430
499
554
591
615
625
620
597
550
480
401
317
230
148
79
22
-26
-59
-78
-90
-95
-94
-94
-100
-108
-113
-127
-144
-153
-176
-204
-203
-230
-285
-245
-185
-303
-445
-331
-93
-82
-388
-627
-356
167
273
-24
-208
-193
-189
-201
-175
-150
-126
-80
-26
26
85
154
236
331
439
550
658
759
839
881
880
837
754
636
496
338
172
7
-143
-263
-340
-377
-384
-376
-362
-348
-336
-328
-322
-319
-316
-311
-304
-302
-303
-303
-300
-296
-291
-285
-281
-278
-271
-261
-252
-245
-238
-229
-221
-213
-202
-191
-186
-180
-168
-158
-151
-142
-134
-131
-125
-113
-104
-101
-96
-90
-87
-90
-108
-133
-143
-134
-112
-67
-21
-15
-34
-42
-46
-44
-40
-53
-48
-28
-56
-58
-5
-80
-189
-96
134
788
1969
2173
520
-1010
-886
-295
-222
-193
-74
-91
-94
-31
-18
-7
39
64
87
136
187
241
307
375
446
524
588
627
652
666
658
622
555
462
357
250
144
36
-64
-138
-175
-191
-196
-186
-173
-170
-160
-152
-167
-163
-146
-193
-179
38
155
-190
-742
-1032
-1087
-1081
-847
-382
-182
-432
-627
-453
-192
-87
-59
-8
77
183
276
346
420
510
609
713
824
942
1065
1175
1249
1262
1203
1078
902
688
459
247
68
-79
-196
-279
-333
-368
-388
-393
-387
-378
-367
-354
-341
-327
-313
-302
-291
-282
-275
-269
-264
-258
-251
-245
-241
-239
-237
-231
-224
-218
-217
-216
-209
-199
-192
-188
-185
-179
-171
-163
-156
-151
-144
-136
-129
-124
-121
-116
-111
-107
-103
-96
-91
-91
-90
-87
-84
-81
-80
-77
-72
-69
-68
-67
-67
-67
-66
-64
-64
-65
-66
-67
-71
-84
-106
-122
-123
-112
-77
-29
-10
-27
-50
-60
-53
-52
-65
-55
-45
-78
-61
-30
-139
-202
-61
186
955
2159
2079
256
-1050
-751
-262
-262
-207
-101
-134
-126
-68
-65
-54
-14
9
41
94
142
191
251
318
391
464
527
577
607
620
617
597
551
479
393
301
202
98
5
-71
-131
-168
-181
-182
-178
-173
-175
-168
-161
-169
-162
-158
-210
-186
2
13
-423
-912
-1012
-906
-841
-595
-143
-9
-354
-619
-493
-264
-145
-85
-47
3
104
221
323
423
507
578
672
791
911
1032
1151
1245
1285
1252
1146
989
794
570
346
152
-10
-145
-244
-307
-352
-378
-384
-382
-381
-375
-363
-352
-339
-322
-309
-298
-287
-279
-275
-264
-253
-255
-258
-248
-235
-233
-233
-230
-228
-223
-213
-207
-203
-201
-197
-191
-185
-181
-176
-172
-172
-166
-154
-148
-146
-142
-137
-134
-131
-126
-118
-110
-107
-108
-105
-101
-98
-98
-98
-94
-91
-90
-86
-80
-79
-79
-78
-78
-77
-72
-68
-68
-73
-89
-109
-116
-113
-108
-80
-30
-9
-35
-64
-65
-50
-53
-66
-49
-49
-77
-37
-36
-170
-173
13
361
1351
2423
1762
-249
-1134
-604
-248
-280
-166
-88
-135
-104
-56
-60
-37
3
29
70
120
165
224
291
357
428
499
556
601
632
641
629
602
554
477
386
291
197
103
17
-56
-112
-148
-165
-172
-170
-161
-154
-150
-148
-156
-164
-165
-183
-202
-196
-227
-272
-196
-111
-257
-482
-482
-353
-421
-704
-782
-378
67
35
-229
-277
-183
-154
-148
-119
-90
-45
20
90
165
248
334
433
549
672
799
922
1024
1088
1107
1072
986
858
699
517
333
156
-14
-165
-277
-346
-381
-389
-381
-369
-357
-348
-340
-324
-304
-292
-290
-284
-276
-275
-276
-272
-266
-260
-254
-248
-243
-240
-240
-238
-231
-219
-211
-207
-202
-193
-183
-172
-165
-163
-158
-148
-143
-138
-129
-117
-106
-103
-106
-99
-83
-77
-78
-72
-65
-62
-55
-46
-45
-44
-35
-30
-33
-35
-29
-21
-17
-22
-25
-19
-12
-12
-17
-20
-16
-14
-26
-45
-52
-48
-50
-52
-27
18
41
17
-26
-43
-27
-25
-43
-28
-24
-66
-40
-16
-143
-180
-8
287
1183
2366
1957
-79
-1206
-727
-278
-302
-203
-102
-150
-130
-75
-80
-60
-19
-1
31
79
121
174
241
310
387
468
531
575
609
626
619
589
531
442
341
242
140
32
-68
-146
-204
-244
-265
-269
-264
-250
-234
-227
-218
-207
-211
-216
-216
-234
-249
-243
-276
-303
-230
-198
-292
-242
83
362
248
-240
-620
-420
47
97
-216
-374
-299
-209
-173
-178
-196
-171
-108
-55
-7
54
121
198
296
406
523
650
775
875
938
959
927
843
720
570
399
219
45
-105
-222
-299
-333
-335
-324
-308
-289
-271
-254
-237
-225
-218
-211
-202
-198
-197
-190
-182
-178
-179
-178
-171
-166
-165
-160
-149
-146
-148
-144
-136
-131
-126
-117
-109
-107
-106
-103
-98
-95
-94
-90
-83
-81
-81
-77
-71
-69
-67
-63
-60
-55
-47
-44
-51
-58
-55
-47
-39
-38
-47
-55
-56
-52
-50
-47
-45
-49
-54
-50
-45
-47
-48
-47
-59
-85
-104
-111
-113
-97
-48
4
13
-19
-51
-60
-53
-61
-79
-69
-72
-100
-66
-57
-184
-231
-113
202
1184
2321
1834
-64
-1000
-528
-172
-251
-207
-136
-169
-143
-97
-100
-79
-40
-18
15
62
106
158
219
278
343
412
471
516
547
561
559
539
492
420
330
231
130
34
-59
-143
-200
-223
-241
-257
-246
-233
-235
-212
-196
-242
-195
16
67
-220
-501
-582
-682
-733
-387
89
44
-411
-632
-518
-371
-266
-163
-101
-67
-13
51
114
171
233
338
481
601
688
785
875
909
904
894
860
777
662
534
393
250
121
8
-91
-172
-231
-272
-297
-304
-299
-298
-298
-288
-272
-264
-260
-247
-231
-219
-213
-210
-204
-196
-189
-186
-183
-176
-167
-161
-158
-153
-149
-145
-140
-135
-129
-122
-118
-112
-103
-99
-96
-87
-80
-79
-76
-69
-64
-57
-46
-43
-45
-43
-36
-32
-32
-29
-25
-21
-18
-19
-21
-17
-12
-12
-14
-9
-6
-12
-14
-8
-6
-8
-8
-6
-9
-15
-20
-21
-20
-18
-17
-20
-25
-25
-22
-23
-24
-25
-30
-37
-44
-58
-71
-73
-67
-50
-11
23
14
-27
-59
-56
-50
-69
-67
-53
-87
-83
-40
-141
-248
-134
94
775
2021
2209
463
-1093
-939
-370
-333
-295
-162
-191
-204
-139
-127
-125
-88
-58
-28
14
54
98
153
205
260
326
386
431
470
499
509
508
500
473
418
346
267
185
101
24
-41
-95
-135
-160
-171
-181
-190
-189
-186
-192
-192
-191
-211
-220
-211
-251
-280
-185
-131
-294
-456
-385
-252
-344
-576
-517
-91
131
-136
-410
-356
-220
-183
-141
-56
-14
-29
-20
56
149
219
293
393
509
628
753
884
1002
1081
1097
1054
965
832
659
467
277
98
-60
-183
-275
-336
-360
-358
-352
-347
-335
-319
-304
-291
-278
-265
-254
-248
-244
-236
-228
-224
-224
-221
-215
-212
-212
-208
-199
-193
-190
-191
-190
-185
-177
-167
-156
-152
-150
-142
-129
-119
-109
-102
-94
-82
-73
-69
-62
-49
-39
-41
-43
-41
-39
-34
-30
-36
-41
-32
-24
-29
-39
-45
-44
-37
-31
-34
-39
-47
-71
-99
-99
-81
-75
-59
-16
1
-36
-78
-84
-73
-76
-89
-77
-68
-80
-39
-40
-194
-229
-35
281
1128
2175
1695
-251
-1256
-746
-300
-307
-194
-92
-138
-113
-58
-69
-55
-11
12
44
92
134
180
234
289
352
419
476
517
545
560
563
553
522
472
404
320
230
145
67
-8
-74
-120
-150
-171
-176
-175
-176
-174
-175
-191
-202
-204
-228
-242
-228
-261
-291
-222
-208
-334
-292
46
310
161
-284
-508
-186
229
158
-166
-271
-226
-235
-248
-230
-215
-181
-118
-56
4
71
142
218
308
414
533
650
752
831
880
892
861
782
662
517
358
195
38
-101
-212
-291
-337
-353
-349
-335
-316
-301
-292
-281
-266
-256
-256
-258
-256
-253
-254
-256
-256
-258
-263
-261
-253
-250
-253
-251
-244
-235
-226
-221
-219
-211
-197
-189
-187
-183
-176
-172
-168
-160
-150
-143
-137
-128
-122
-122
-115
-100
-95
-99
-98
-93
-91
-93
-108
-132
-142
-132
-109
-64
-10
7
-22
-52
-54
-39
-36
-53
-44
-24
-52
-43
7
-83
-188
-90
144
833
2020
2161
501
-936
-759
-205
-169
-154
-46
-65
-67
-4
7
13
49
74
104
152
192
233
288
343
399
466
530
574
605
626
634
626
599
542
467
385
290
189
105
43
-9
-50
-64
-58
-64
-74
-68
-70
-80
-71
-99
-129
15
186
-63
-657
-987
-901
-729
-472
-45
126
-211
-577
-577
-399
-248
-108
9
65
90
114
144
186
239
300
372
448
518
582
645
707
754
771
749
693
608
495
363
227
96
-25
-131
-221
-298
-354
-388
-411
-429
-438
-437
-430
-423
-420
-414
-399
-388
-388
-386
-375
-370
-374
-376
-371
-365
-358
-352
-350
-343
-331
-327
-327
-321
-306
-290
-281
-276
-265
-246
-229
-216
-206
-198
-185
-166
-154
-149
-138
-120
-104
-95
-94
-89
-72
-59
-61
-63
-54
-44
-37
-27
-18
-16
-14
-13
-14
-9
-3
-5
-13
-23
-30
-32
-34
-23
27
86
94
60
40
49
63
52
41
63
63
48
100
80
-52
2
244
671
1665
2390
1281
-656
-1111
-421
-132
-140
17
81
44
90
126
123
158
198
225
264
304
343
399
460
514
570
630
684
728
759
777
783
777
752
706
641
562
474
387
302
217
144
89
45
14
0
-10
-23
-33
-43
-61
-79
-97
-130
-166
-193
-228
-257
-269
-320
-366
-319
-324
-468
-477
-227
-15
-143
-626
-1051
-874
-286
-53
-306
-540
-579
-599
-637
-652
-656
-656
-647
-636
-619
-597
-576
-544
-492
-433
-375
-311
-239
-171
-115
