# session 6
-31
-40
-63
188
296
-135
-423
-201
16
89
139
53
-1
125
146
47
128
262
198
128
249
384
372
316
292
233
116
6
-79
-129
-96
-31
-74
-245
-441
-544
-517
-454
-435
-414
-369
-314
-229
-157
-105
-10
12
-174
-349
-261
-38
52
-80
-274
-300
-169
194
1054
1700
928
-518
-886
-394
-158
-71
130
204
238
300
187
89
208
264
218
329
431
322
255
339
383
378
363
264
168
179
178
119
121
161
161
194
229
159
134
265
286
117
82
236
312
274
213
115
15
-61
-141
-179
-207
-285
-302
-161
267
926
944
-186
-1200
-1024
-470
-348
-350
-295
-323
-345
-310
-300
-310
-299
-215
-100
-127
-255
-275
-211
-169
-167
-269
-400
-365
-283
-366
-457
-375
-254
-204
-139
-69
-108
-182
-160
-133
-176
-160
-45
38
30
-20
-64
-60
-16
-29
-77
-24
34
-65
-128
7
343
1105
1822
1224
-322
-914
-350
56
55
110
183
196
251
305
284
218
299
653
860
542
248
454
577
287
162
344
402
314
226
87
1
43
46
16
49
14
-104
-132
-101
-88
-13
30
-74
-68
117
45
-300
-423
-336
-364
-403
-377
-443
-476
-369
-198
284
863
433
-953
-1663
-1184
-608
-460
-408
-345
-320
-289
-309
-357
-290
-155
-45
97
200
141
53
43
15
3
89
117
20
-7
81
121
107
135
157
124
102
119
157
233
295
258
203
236
245
141
68
90
84
31
41
113
118
35
69
252
390
836
1868
2210
900
-429
-307
137
-100
-290
-74
30
-25
21
62
29
75
155
128
102
190
247
174
100
106
92
-16
-125
-133
-94
-117
-209
-312
-384
-422
-483
-550
-532
-474
-456
-380
-288
-382
-461
-300
-313
-677
-835
-648
-468
-299
-259
-559
-757
-507
189
1541
2516
1322
-834
-1202
-328
-236
-544
-339
-151
-268
-238
-86
-90
-141
-112
-44
57
134
74
-50
-17
235
435
309
41
-28
66
109
52
-14
9
91
129
159
260
347
328
313
398
395
220
245
538
537
168
24
212
348
309
138
-45
-58
-7
205
1067
1947
1405
-77
-696
-390
-211
-199
-82
-94
-242
-339
-401
-368
-176
-48
-88
-83
17
24
-68
-119
-118
-137
-197
-277
-307
-237
-207
-381
-551
-430
-291
-486
-671
-461
-185
-210
-324
-284
-204
-183
-110
5
-23
-172
-248
-257
-298
-305
-246
-204
-181
-205
-121
601
1585
1335
-83
-805
-507
-413
-532
-250
86
135
143
197
233
310
396
414
452
560
638
642
642
657
637
573
502
437
354
258
164
51
-24
32
116
86
17
-4
-5
18
51
43
31
55
29
-66
-112
-114
-196
-276
-194
-124
-237
-322
-263
-28
643
1242
582
-875
-1365
-794
-382
-335
-274
-280
-277
-29
165
-11
-277
-394
-481
-433
-84
213
110
-158
-246
-140
-60
-92
-42
46
-107
-203
-1
-24
-266
-160
-88
-323
-138
237
-36
-293
46
114
-209
-127
133
35
-92
-31
-55
-156
-177
-173
-134
-71
48
745
1905
1938
405
-722
-449
18
63
114
146
65
113
234
253
229
202
187
248
328
337
307
294
275
218
149
82
-39
-178
-217
-196
-180
-83
83
146
74
-36
-96
-50
37
60
62
75
0
-151
-253
-287
-289
-280
-310
-353
-337
-350
-486
-670
-692
-83
1081
1336
-54
-1322
-1126
-576
-539
-454
-222
-244
-299
-125
21
-13
-59
-47
-8
95
188
139
42
67
164
172
56
-33
40
141
109
80
96
-127
-514
-595
-381
-245
-187
-46
124
237
257
180
124
173
235
240
212
150
109
147
134
57
118
263
646
1707
2490
1518
-108
-384
141
213
144
237
187
149
257
260
208
228
177
106
152
173
109
72
18
-102
-171
-149
-131
-177
-269
-350
-371
-372
-412
-430
-390
-398
-429
-380
-377
-487
-499
-361
-250
-245
-377
-578
-560
-313
-263
-442
-384
-135
-260
-609
-199
1171
2044
1201
-354
-987
-782
-560
-410
-284
-278
-258
-175
-151
-120
-51
-59
-94
-42
42
91
118
139
163
195
238
290
306
277
305
390
396
337
347
388
355
327
392
435
372
311
284
207
130
126
128
125
165
180
152
145
61
-128
-215
-167
121
919
1442
547
-880
-1154
-575
-253
-203
-153
-187
-265
-296
-335
-372
-327
-233
-164
-128
-110
-67
2
-24
-173
-281
-299
-331
-350
-290
-268
-345
-383
-378
-451
-490
-427
-432
-399
-108
168
210
239
233
19
-152
-92
-27
-77
-133
-182
-249
-267
-203
-119
-68
171
911
1528
882
-498
-954
-436
-26
101
173
112
69
175
231
225
312
426
477
476
410
370
458
493
362
327
466
499
397
342
314
292
335
319
199
176
264
264
196
202
240
287
380
368
149
-66
-148
-193
-213
-194
-225
-304
-351
-352
-324
-282
-25
633
976
119
-1136
-1367
-775
-352
-313
-449
-521
-405
-340
-423
-411
-306
-191
-1
69
-90
-132
34
142
165
93
-95
-85
119
11
-295
-270
-111
-165
-186
-81
-125
-214
-96
32
9
53
157
45
-173
-207
-148
-133
-59
41
75
115
104
-2
9
121
405
1327
2154
1333
-364
-811
-197
60
-52
-72
-73
-64
-48
-121
-134
16
165
215
205
195
261
365
362
270
193
97
-35
-124
-172
-219
-258
-290
-282
-226
-254
-368
-357
-212
-164
-249
-304
-282
-244
-246
-300
-309
-255
-297
-375
-274
-175
-310
-441
-447
-405
197
1403
1578
17
-1255
-933
-278
-156
-101
-35
-101
-104
-1
163
298
188
39
201
382
295
253
349
285
129
107
93
18
80
266
300
79
-185
-241
-129
-96
-137
-41
105
117
120
158
81
67
260
289
77
72
223
168
50
-1
-109
-150
-64
282
1391
2494
1849
114
-497
-91
27
-41
1
-86
-132
-34
-28
9
104
-7
-13
368
511
151
-103
-130
-245
-308
-226
-238
-327
-334
-339
-412
-470
-458
-415
-401
-420
-421
-381
-331
-298
-309
-375
-427
-398
-333
-291
-275
-306
-359
-320
-231
-251
-300
-283
-233
278
1449
1933
722
-663
-709
-270
-293
-323
-110
-45
-158
-198
-120
19
167
214
144
82
96
157
228
279
318
342
262
84
16
113
178
128
80
95
110
91
112
206
239
162
113
124
108
102
154
186
159
116
67
9
-45
-81
-64
-25
53
516
1302
1291
54
-950
-755
-256
-121
-39
5
-134
-183
-47
42
29
7
5
29
36
0
-6
33
48
27
-39
-148
-172
-84
-85
-230
-347
-368
-345
-322
-313
-263
-181
-208
-324
-335
-256
-257
-300
-242
-175
-239
-305
-282
-275
-272
-249
-296
-357
-310
81
1033
1624
660
-825
-1022
-402
-192
-200
-70
-36
-50
43
101
85
110
160
178
196
279
402
441
383
335
287
186
118
121
88
-12
-81
-53
42
126
156
159
182
211
201
156
151
213
268
248
178
141
152
123
62
83
113
30
-55
-56
168
920
1575
893
-573
-1034
-483
-148
-159
-93
-33
-64
-70
-42
-16
12
46
93
140
166
193
208
156
73
31
-39
-167
-178
-56
-94
-299
-289
-84
-94
-258
-211
-73
-129
-267
-274
-183
-139
-196
-263
-277
-287
-284
-260
-287
-288
-221
-265
-371
-345
-278
46
878
1222
224
-851
-755
-283
-220
-178
-45
-82
-135
-66
1
75
159
154
157
263
313
250
214
207
157
106
65
16
7
28
22
13
6
-39
-71
-46
-30
-47
-41
3
53
84
62
1
-40
-53
-70
-74
-69
-129
-230
-236
-165
-227
-320
180
1322
1789
757
-476
-593
-190
-107
-127
-46
-36
-54
-3
36
38
56
88
115
149
184
204
211
212
185
125
69
37
27
38
53
44
12
-15
-27
-48
-84
-88
-62
-62
-61
-22
-14
-46
-44
-28
-38
-58
-92
-117
-105
-141
-233
-289
-250
200
1084
1254
65
-1039
-889
-341
-202
-171
-86
-87
-94
-50
-13
14
31
45
86
132
149
159
174
168
119
47
-11
-43
-63
-66
-61
-76
-103
-101
-81
-86
-93
-70
-68
-108
-115
-81
-81
-105
-109
-120
-137
-144
-162
-152
-108
-148
-244
-305
-278
244
1233
1331
2
-1030
-716
-169
-108
-80
16
-11
-24
54
101
105
136
207
255
252
257
281
254
187
142
96
17
-57
-78
-52
-23
-23
-30
-18
-4
-19
-47
-62
-68
-66
-37
-14
-35
-51
-45
-61
-82
-76
-71
-62
-67
-142
-255
-373
-284
513
1552
1301
-164
-916
-479
-90
-100
-49
19
-32
-56
-15
18
41
66
100
149
205
236
192
113
97
130
107
32
-4
36
81
76
68
98
117
91
58
32
12
14
30
33
25
10
-16
-50
-81
-90
-91
-119
-133
-109
-150
-282
-362
-168
444
973
540
-527
-905
-447
-100
-94
-72
-30
-48
-40
-5
21
56
76
71
102
160
170
138
113
73
6
-39
-49
-50
-47
-43
-40
-27
-19
-34
-57
-68
-84
-119
-141
-125
-101
-108
-117
-100
-102
-135
-149
-145
-140
-114
-119
-215
-348
-419
-143
653
1096
234
-967
-1016
-364
-108
-134
-62
-31
-66
-32
37
81
116
152
185
211
230
247
243
202
141
77
17
-17
-10
20
46
64
68
66
70
51
9
1
21
11
-5
11
10
-15
-12
9
20
21
-4
-15
21
16
-75
-197
-205
356
1413
1572
242
-861
-586
-5
77
78
133
90
89
160
174
160
170
185
219
266
268
225
184
138
55
-40
-106
-124
-100
-89
-111
-92
-20
-1
-55
-76
-49
-63
-117
-135
-108
-91
-117
-156
-150
-117
-132
-180
-184
-158
-187
-256
-268
-296
-288
252
1111
933
-384
-1078
-585
-127
-132
-93
-15
-73
-104
-46
12
40
30
28
86
123
85
66
69
-24
-173
-226
-214
-237
-254
-227
-213
-203
-159
-128
-136
-127
-99
-99
-118
-112
-95
-108
-121
-84
-52
-63
-50
-15
-7
20
36
-23
-54
-35
141
816
1402
715
-591
-807
-163
115
78
161
206
173
205
240
231
250
302
331
331
332
327
280
205
130
43
-44
-99
-115
-96
-56
-29
-24
-4
29
31
9
10
21
4
-22
-34
-50
-47
-3
8
-28
-39
-48
-84
-65
-38
-106
-200
-245
-3
774
1246
359
-900
-941
-268
-31
-53
34
55
18
53
82
89
124
149
153
179
207
191
136
73
11
-50
-91
-119
-156
-171
-130
-85
-79
-83
-80
-87
-104
-117
-121
-137
-168
-183
-176
-167
-150
-152
-197
-217
-190
-193
-209
-204
-245
-330
-425
-335
445
1524
1361
-63
-838
-445
-110
-156
-115
-58
-97
-79
-27
-8
22
63
118
178
174
132
136
146
109
53
-7
-57
-61
-54
-62
-28
30
33
9
26
43
3
-56
-78
-81
-79
-62
-66
-94
-84
-59
-85
-116
-117
-128
-124
-114
-200
-401
-505
-12
1114
1630
669
-504
-568
-160
-101
-119
-17
13
1
34
57
63
108
192
246
224
196
223
245
216
165
118
93
95
80
39
24
42
44
19
-7
-17
-19
-37
-77
-97
-65
-23
-36
-80
-92
-87
-106
-124
-133
-153
-144
-122
-179
-316
-424
-203
651
1474
1063
-193
-731
-401
-166
-163
-79
-17
-41
-26
5
13
43
86
113
144
182
203
189
142
84
29
-22
-58
-63
-43
-20
-13
-26
-40
-53
-71
-89
-102
-119
-145
-169
-149
-92
-78
-111
-121
-117
-128
-128
-138
-159
-123
-113
-231
-371
-340
191
1170
1401
197
-961
-800
-206
-79
-79
8
16
11
51
75
109
148
154
176
229
261
259
220
137
51
-8
-49
-58
-43
-39
-40
-26
-8
2
0
-13
-32
-50
-53
-51
-66
-90
-105
-114
-118
-122
-133
-123
-98
-104
-114
-123
-183
-235
-264
-211
374
1280
1108
-287
-1045
-541
-70
-87
-35
57
1
-10
55
66
68
118
172
202
218
222
202
148
68
-17
-87
-125
-132
-120
-103
-89
-73
-47
-23
-15
-11
-6
-2
-2
-22
-55
-60
-48
-60
-66
-50
-53
-60
-44
-51
-51
-18
-56
-160
-245
-219
325
1281
1305
8
-886
-509
-14
-5
9
90
60
51
93
102
128
183
210
223
245
250
229
182
103
21
-36
-82
-124
-129
-96
-72
-66
-53
-37
-30
-29
-40
-68
-78
-55
-57
-88
-86
-77
-116
-161
-176
-177
-164
-162
-169
-141
-139
-221
-335
-377
53
1065
1465
380
-815
-739
-177
-58
-72
1
-24
-65
-21
14
25
65
134
192
213
211
198
163
109
50
-13
-68
-97
-97
-74
-51
-50
-55
-44
-47
-82
-94
-68
-70
-112
-136
-119
-83
-67
-90
-118
-117
-115
-127
-138
-142
-120
-97
-149
-265
-395
-349
334
1398
1455
204
-707
-472
-87
-84
-79
-12
-21
-10
31
43
71
113
129
161
222
238
189
141
114
73
18
-22
-40
-42
-35
-32
-40
-39
-26
-24
-43
-63
-83
-112
-135
-140
-128
-105
-95
-112
-130
-137
-141
-127
-110
-124
-123
-85
-106
-216
-344
-230
552
1563
1408
75
-695
-345
17
-5
24
102
91
104
152
174
206
251
279
299
318
322
304
261
198
128
54
1
-3
26
46
42
29
22
21
20
12
-1
-21
-43
-61
-79
-102
-108
-97
-94
-100
-109
-128
-144
-147
-155
-147
-132
-178
-276
-377
-313
359
1336
1183
-264
-1136
-690
-173
-149
-124
-56
-91
-75
-8
-4
4
53
82
98
123
136
123
85
13
-90
-187
-237
-250
-244
-219
-183
-156
-146
-149
-165
-169
-148
-135
-150
-176
-210
-243
-243
-230
-254
-264
-223
-200
-203
-182
-192
-221
-183
-175
-256
-316
-300
76
939
1212
108
-971
-737
-108
-12
-31
82
91
68
134
186
197
230
275
288
293
344
412
409
323
212
106
24
-8
7
40
72
103
130
153
183
218
237
234
223
