# session 1
-26
-40
4
5
-159
-388
-488
-457
-425
-418
-382
-345
-357
-340
-276
-336
-469
-413
-234
113
940
1505
689
-610
-815
-387
-343
-396
-236
-166
-202
-167
-125
-130
-136
-127
-87
-44
-61
-78
-9
55
55
81
116
93
108
184
200
179
194
198
207
276
308
230
152
149
154
114
62
30
-7
-57
-87
-88
-85
-89
-96
-89
-30
32
-20
-98
-52
-30
-120
-42
160
-57
-660
-942
-732
-460
-195
180
342
78
-231
-256
-140
-55
16
102
164
193
244
322
327
262
234
243
253
273
274
280
354
391
328
349
492
541
481
468
441
277
86
22
18
-64
-170
-184
-192
-286
-327
-270
-264
-276
-201
-176
-257
-238
-111
-91
-140
-75
4
-50
-99
-56
-71
-126
-32
98
21
-122
-82
30
25
-20
-15
-16
-47
-55
-16
16
-15
-55
-25
9
-30
-58
-11
19
-13
-17
22
20
-15
-16
-14
-37
-31
14
27
1
1
21
0
-31
1
38
3
-34
-2
32
16
-7
-2
10
0
-16
2
11
-27
-35
1
-27
-94
-75
-21
-24
-23
7
5
-11
-22
-64
-101
-91
-80
-74
-46
-30
-60
-129
-168
-102
5
275
926
1298
557
-502
-657
-285
-175
-179
-115
-119
-134
-90
-67
-59
-41
-46
-59
-49
-18
32
70
54
26
53
100
107
94
103
120
127
142
164
161
142
138
146
149
147
117
60
14
-19
-56
-67
-60
-93
-137
-123
-100
-120
-121
-99
-103
-97
-93
-140
-81
74
-137
-781
-1182
-1012
-653
-304
69
177
-125
-419
-391
-209
-50
53
76
80
135
195
238
304
350
340
324
333
368
426
448
424
453
557
635
660
693
703
627
524
449
358
239
132
33
-55
-107
-140
-160
-155
-165
-207
-218
-189
-167
-143
-116
-129
-156
-138
-106
-108
-109
-81
-72
-100
-120
-123
-149
-179
-163
-127
-119
-123
-119
-123
-130
-117
-99
-96
-90
-72
-66
-84
-92
-73
-57
-63
-67
-46
-32
-47
-57
-47
-53
-67
-48
-26
-36
-39
-22
-27
-50
-58
-52
-44
-38
-38
-37
-31
-25
-16
-9
-23
-52
-59
-40
-31
-40
-33
-14
-30
-66
-68
-52
-55
-42
4
28
3
-28
-41
-43
-47
-55
-50
-45
-70
-66
-21
-64
-139
-79
61
455
1223
1420
394
-615
-548
-168
-145
-142
-46
-52
-79
-48
-32
-38
-33
-23
-2
35
60
63
79
109
111
93
98
115
116
123
145
150
138
153
185
181
151
149
161
142
103
67
30
-12
-48
-57
-53
-82
-124
-130
-119
-112
-107
-119
-108
-65
-92
-112
44
45
-483
-1085
-1152
-848
-489
-82
149
-48
-363
-401
-235
-76
30
89
116
140
172
222
274
303
342
405
417
379
378
422
457
491
544
596
641
684
701
665
587
484
372
268
172
69
-31
-101
-148
-195
-249
-286
-282
-258
-254
-252
-220
-199
-221
-238
-218
-196
-184
-175
-173
-165
-145
-140
-153
-154
-145
-141
-132
-123
-130
-139
-133
-125
-119
-110
-108
-113
-110
-97
-85
-80
-75
-64
-52
-50
-55
-52
-40
-29
-27
-38
-48
-36
-10
-2
-9
-13
-24
-31
-2
38
47
34
27
28
22
1
-12
3
23
19
-9
-46
-47
25
107
118
91
57
-18
-88
-76
-55
-84
-82
-47
-59
-56
15
50
18
-10
-42
-93
-110
-84
-66
-87
-97
-69
-101
-166
-111
36
389
1107
1387
461
-628
-673
-255
-164
-167
-98
-120
-143
-77
-41
-70
-94
-89
-69
-19
48
51
-21
-59
-10
48
63
50
33
40
71
75
51
65
105
113
115
155
168
123
99
108
81
27
6
-4
-29
-35
-11
0
-14
-9
18
15
-1
36
54
-3
63
233
49
-517
-819
-610
-270
47
337
306
-63
-296
-225
-118
-55
36
102
127
172
215
235
259
269
251
257
289
304
311
337
373
403
428
466
514
533
512
489
463
385
262
147
53
-36
-116
-175
-224
-262
-276
-269
-261
-254
-247
-242
-233
-227
-230
-223
-202
-193
-195
-185
-174
-173
-162
-148
-154
-164
-156
-136
-124
-119
-97
-77
-99
-133
-122
-90
-76
-71
-65
-66
-67
-58
-47
-44
-59
-77
-78
-80
-98
-103
-75
-53
-62
-73
-59
-48
-56
-50
-21
-17
-40
-38
-15
-25
-49
-47
-38
-38
-37
-44
-67
-76
-61
-47
-44
-41
-41
-39
-32
-27
-31
-39
-44
-44
-45
-50
-55
-56
-50
-31
-6
13
17
-8
-49
-65
-42
-26
-49
-63
-42
-47
-66
-43
-80
-173
-121
41
385
1178
1628
671
-677
-812
-262
-132
-186
-55
40
-16
-115
-119
4
45
-66
-100
15
116
148
182
228
220
154
134
185
204
171
176
219
235
224
207
204
232
238
176
126
136
142
137
148
121
64
46
31
-21
-56
-56
-44
-9
7
-34
-62
-41
-42
-62
-65
-102
-120
2
43
-298
-749
-831
-626
-425
-165
113
62
-261
-381
-213
-54
16
82
124
115
111
134
156
169
187
215
251
289
320
353
405
459
510
564
605
639
687
683
573
454
380
272
154
74
-81
-280
-326
-283
-311
-353
-397
-483
-472
-342
-286
-313
-294
-262
-272
-283
-276
-249
-192
-150
-160
-178
-183
-189
-181
-153
-141
-145
-143
-147
-156
-127
-99
-139
-167
-109
-74
-118
-130
-84
-61
-51
-18
-29
-84
-75
-29
-68
-122
-79
-38
-73
-66
-3
-18
-80
-65
-35
-74
-96
-48
-28
-67
-75
-29
3
6
-2
-34
-66
-51
-26
-38
-64
-86
-101
-73
-33
-77
-147
-110
-31
-28
-12
79
121
73
28
-1
-18
29
96
97
58
48
75
59
-11
-5
104
414
1178
1785
1140
-179
-626
-264
-66
-95
-67
-13
53
90
36
6
43
56
64
82
47
39
147
225
188
182
225
191
134
173
232
221
203
222
223
198
202
217
191
152
139
118
68
20
-19
-57
-86
-98
-112
-134
-149
-156
-165
-170
-172
-187
-188
-165
-163
-176
-186
-235
-234
-89
-86
-474
-864
-832
-591
-421
-189
88
86
-173
-314
-239
-113
12
118
126
68
60
111
141
135
132
133
140
186
251
281
305
377
457
499
535
574
584
573
534
445
342
255
139
-4
-111
-168
-216
-281
-345
-364
-339
-324
-333
-334
-322
-307
-273
-213
-169
-164
-160
-125
-98
-110
-116
-90
-78
-96
-103
-85
-83
-113
-124
-83
-50
-68
-93
-97
-105
-115
-115
-116
-116
-106
-101
-103
-102
-99
-101
-93
-72
-54
-45
-46
-54
-43
-7
18
20
22
24
23
41
64
57
26
9
27
56
45
3
20
106
140
66
-9
10
64
57
27
50
89
88
75
73
65
56
56
44
19
21
73
130
120
52
29
43
-3
-30
43
74
6
-33
-39
-46
-20
-33
-89
-58
139
722
1562
1569
367
-611
-500
-164
-157
-144
-73
-88
-97
-76
-80
-61
-5
22
20
54
99
91
87
138
140
77
69
93
68
64
111
118
97
104
100
74
64
56
45
47
44
25
3
-25
-56
-85
-128
-154
-142
-158
-221
-218
-141
-119
-158
-167
-157
-155
-144
-168
-196
-80
21
-296
-907
-1227
-1121
-909
-634
-257
-106
-308
-424
-245
-62
15
122
220
220
202
216
224
233
251
255
293
380
406
344
337
432
531
595
659
723
759
752
710
645
548
417
279
164
61
-47
-150
-222
-259
-263
-246
-243
-264
-273
-249
-217
-204
-209
-222
-224
-196
-155
-135
-133
-126
-116
-118
-132
-145
-143
-125
-104
-91
-88
-89
-90
-84
-76
-83
-107
-107
-64
-36
-53
-55
-33
-51
-84
-68
-41
-46
-50
-48
-67
-75
-39
1
5
-26
-42
-4
36
23
-18
-43
-42
-15
12
2
-24
-32
-29
-36
-38
-26
-19
-19
-3
24
34
30
26
29
41
59
85
104
76
18
-8
-3
5
8
-12
-24
-3
-8
-13
30
-7
-93
-30
168
678
1579
1769
529
-672
-606
-170
-134
-123
-45
-91
-123
-85
-85
-83
-41
-22
-40
-54
-30
20
46
42
58
96
100
77
82
115
120
92
78
91
103
92
61
38
31
15
-9
-5
-2
-34
-62
-73
-104
-130
-113
-101
-117
-109
-68
-45
-67
-100
-112
-104
-88
-72
-64
-58
-61
-81
-101
-104
-108
-121
-134
-139
-128
-120
-150
-192
-198
-172
-142
-132
-162
-198
-188
-165
-179
-195
-171
-137
-112
-90
-93
-108
-116
-151
-165
-124
8
613
1580
1589
249
-764
-559
-176
-168
-119
-31
-82
-92
-16
2
-24
-15
19
37
42
76
136
158
150
169
206
239
280
314
339
384
425
425
407
385
345
295
237
164
104
69
18
-61
-115
-124
-125
-129
-101
-71
-110
-167
-146
-97
-98
-88
-33
-22
-66
-74
-41
-34
-50
-57
-60
-75
-94
-105
-108
-106
-104
-98
-98
-129
-170
-162
-112
-81
-78
-73
-85
-116
-128
-132
-159
-168
-155
-192
-226
-182
-175
-235
-203
-151
-211
-220
-99
228
961
1406
563
-720
-905
-360
-155
-183
-109
-87
-114
-70
-25
-17
-6
6
25
69
109
121
131
153
165
167
189
226
261
287
295
306
340
349
308
262
224
162
86
12
-61
-110
-125
-135
-160
-184
-188
-181
-175
-156
-120
-89
-84
-96
-97
-66
-32
-47
-77
-67
-61
-89
-79
-25
-7
-21
-9
13
10
0
-9
-28
-28
6
29
28
31
22
-12
-32
-26
-23
-40
-74
-91
-54
-21
-43
-66
-91
-137
-131
-84
157
909
1536
902
-392
-777
-358
-163
-192
-117
-84
-122
-103
-77
-78
-46
-3
0
-4
30
75
91
104
145
181
190
204
247
297
332
357
391
414
395
351
302
226
129
52
0
-46
-77
-96
-105
-101
-126
-188
-214
-184
-176
-200
-199
-174
-168
-179
-178
-157
-144
-158
-175
-173
-178
-185
-167
-151
-157
-165
-162
-157
-159
-171
-176
-158
-141
-145
-139
-117
-103
-102
-105
-105
-87
-72
-92
-104
-88
-106
-146
-120
-63
-67
-86
-55
-32
-69
-108
-104
-87
-84
-87
-77
-49
-42
-57
-39
-44
-116
-107
21
290
929
1453
860
-357
-721
-285
-51
-64
6
45
19
45
85
107
132
134
125
150
189
204
213
245
292
321
329
347
382
411
427
444
463
480
484
459
413
362
297
208
118
50
1
-38
-73
-103
-113
-112
-128
-147
-142
-141
-155
-147
-123
-125
-132
-117
-111
-122
-125
-123
-131
-130
-124
-133
-146
-157
-179
-198
-187
-173
-180
-175
-159
-166
-184
-184
-172
-162
-165
-183
-196
-191
-191
-202
-201
-188
-189
-198
-186
-166
-182
-220
-223
-193
-176
-176
-178
-199
-210
-163
-107
-97
-91
-74
-82
-93
-83
-88
-106
-104
-96
-81
-60
-54
-33
-24
-109
-161
-93
77
728
1735
1703
310
-668
-429
-73
-99
-86
-19
-38
-34
-2
9
26
29
15
43
94
117
123
139
165
198
235
259
274
305
347
371
391
437
475
450
383
311
228
150
111
78
-1
-87
-114
-77
-32
-39
-103
-144
-122
-95
-95
-79
-46
-46
-57
-44
-30
-22
-3
11
14
26
22
-14
-45
-48
-44
-54
-77
-88
-79
-88
-121
-121
-98
-108
-118
-85
-67
-87
-85
-64
-67
-74
-61
-49
-45
-41
-41
-45
-41
-34
-35
-38
-34
-32
-41
-52
-57
-55
-48
-34
-25
-25
-25
-23
-25
-29
-37
-51
-53
-38
-29
-36
-46
-51
-53
-48
-43
-46
-54
-59
-57
-58
-61
-58
-53
-57
-61
-60
-63
-69
-73
-71
-64
-56
-53
-56
-59
-56
-49
-54
-62
-56
-44
-43
-48
-41
-20
4
8
-6
-16
-17
-25
-31
-28
-32
-34
-36
-55
-44
-13
-68
-131
-85
58
639
1655
1771
409
-727
-555
-138
-152
-142
-45
-72
-94
-55
-42
-34
-28
-47
-41
0
32
62
103
125
122
137
172
185
190
225
268
297
316
321
319
314
271
211
192
169
79
-12
-28
-30
-77
-111
-93
-78
-94
-106
-106
-102
-90
-79
-75
-70
-62
-49
-43
-45
-27
6
0
-39
-56
-51
-34
-14
-46
-121
-132
-90
-92
-115
-96
-77
-95
-112
-106
-97
-104
-111
-106
-102
-111
-117
-118
-121
-114
-120
-154
-152
-98
-91
-142
-146
-93
-66
-75
-95
-116
-100
-64
-90
-150
-164
-151
-137
-104
-84
-113
-142
-139
-119
-84
-40
-18
-30
-58
-74
-71
-76
-83
-82
-106
-107
-52
-78
-163
-152
-38
471
1522
1910
738
-545
-540
-84
-83
-167
-99
-65
-43
-17
-56
-70
-14
15
16
41
53
42
70
129
160
179
220
267
304
337
375
418
454
476
491
474
401
304
210
99
7
-15
-19
-62
-101
-111
-115
-112
-110
-125
-123
-97
-92
-109
-112
-112
-116
-108
-97
-88
-73
-77
-97
-89
-69
-81
-100
-95
-83
-76
-70
-80
-106
-119
-110
-92
-79
-72
-64
-62
-72
-69
-49
-44
-60
-61
-36
-18
-23
-44
-53
-31
-6
-14
-33
-29
-25
-35
-40
-36
-35
-30
-11
-7
-35
-56
-42
-22
-17
-15
-18
-25
-25
-19
-12
-16
-43
-51
-9
29
21
6
3
-4
-7
-6
-16
-15
10
12
-20
-29
-11
-22
-59
-72
-66
-62
-67
-78
-76
-53
-40
-46
-49
-39
-23
-8
-8
-18
-16
-7
-7
-6
6
11
-9
-42
-68
-75
-70
-77
-86
-73
-77
-87
-56
-73
-149
-118
12
352
1131
1560
676
-548
-673
-199
-79
-111
-36
-29
-58
-29
-14
-15
1
11
16
33
49
67
89
111
135
160
177
193
225
260
279
295
330
363
357
337
333
320
269
197
123
61
14
-33
-79
-109
-127
-139
-136
-131
-146
-163
-153
-142
-148
-147
-134
-134
-144
-133
-108
-124
-164
-101
41
-2
-298
-523
-486
-393
-310
-63
141
-81
-471
-501
-255
-109
-85
-59
-43
-48
-35
