# session 34
-13
-37
52
-21
-399
-719
-750
-718
-715
-643
-644
-731
-638
-394
120
1172
1667
410
-1153
-1174
-511
-428
-490
-332
-304
-377
-332
-265
-249
-229
-201
-181
-160
-125
-80
-50
-27
17
51
55
68
103
139
187
245
267
263
291
348
365
355
391
414
337
247
209
148
65
16
-44
-112
-117
-98
-134
-176
-151
-93
-69
-88
-109
-94
-51
-37
-72
-89
-62
-55
-69
-64
-57
-54
-50
-81
-113
-86
-51
-59
-70
-71
-78
-88
-89
-68
-48
-70
-92
-58
-21
-42
-76
-68
-49
-57
-63
-51
-58
-64
-32
-28
-81
-91
-47
-44
-64
-37
-19
-69
-117
-96
-64
-80
-89
-34
17
2
-28
-34
-40
-33
-12
-40
-81
-67
-59
-56
-19
-61
-135
-76
145
850
1951
1982
421
-781
-516
-34
-58
-73
-9
-59
-63
-9
-16
-18
26
50
39
32
57
98
104
100
140
173
159
168
230
276
280
281
300
343
386
389
381
401
394
334
288
265
197
79
-25
-75
-99
-142
-190
-187
-154
-164
-202
-189
-151
-163
-177
-141
-132
-169
-169
-144
-159
-179
-169
-168
-171
-155
-158
-203
-235
-218
-190
-187
-194
-188
-173
-176
-190
-186
-177
-188
-193
-173
-153
-135
-119
-149
-198
-182
-136
-135
-138
-122
-134
-135
-92
-102
-165
-168
-122
-114
-121
-89
-66
-105
-143
-134
-131
-137
-84
-17
-26
-63
-55
-38
-51
-67
-65
-47
-52
-96
-80
2
-52
-169
-86
89
515
1593
2253
1121
-507
-680
-80
-3
-122
-38
-15
-56
-36
-29
-25
17
43
47
55
65
77
91
97
103
134
187
220
215
218
250
289
331
360
355
375
429
423
365
346
341
281
196
129
66
-16
-102
-127
-94
-110
-170
-163
-143
-191
-191
-114
-117
-174
-141
-86
-120
-162
-145
-119
-107
-107
-132
-163
-158
-130
-130
-169
-178
-122
-83
-135
-199
-180
-125
-120
-146
-140
-122
-123
-115
-101
-130
-159
-120
-83
-111
-127
-102
-107
-121
-84
-59
-98
-126
-108
-96
-100
-89
-72
-76
-103
-128
-130
-117
-95
-40
11
-15
-72
-68
-42
-55
-77
-80
-58
-42
-70
-64
-16
-83
-160
-45
242
979
2025
1912
282
-804
-410
30
-107
-125
7
-42
-87
-22
-3
-13
28
59
50
44
49
72
114
124
99
113
161
190
224
260
250
247
300
334
327
354
384
358
340
337
268
170
123
61
-58
-128
-118
-147
-219
-217
-181
-216
-255
-219
-185
-193
-186
-161
-171
-204
-198
-161
-165
-206
-213
-184
-170
-174
-179
-180
-169
-167
-193
-212
-191
-166
-176
-185
-158
-140
-153
-151
-133
-146
-165
-132
-94
-122
-141
-80
-66
-146
-143
-51
-60
-132
-117
-79
-81
-62
-59
-114
-127
-86
-79
-69
-6
26
-15
-40
-19
-17
-41
-34
-14
-29
-40
-30
-29
-16
-32
-86
-65
93
655
1725
2117
854
-597
-641
-104
-30
-60
29
-15
-68
4
43
24
35
54
58
85
118
106
88
123
164
172
199
241
240
231
260
290
313
354
378
382
414
435
387
331
308
263
175
81
11
-25
-69
-149
-195
-177
-165
-182
-191
-188
-171
-147
-162
-193
-185
-165
-175
-185
-173
-166
-173
-173
-165
-177
-204
-212
-200
-197
-203
-194
-170
-163
-185
-196
-186
-185
-193
-179
-154
-154
-165
-155
-139
-145
-159
-162
-153
-137
-136
-147
-131
-107
-117
-120
-99
-121
-168
-157
-127
-128
-84
-3
-4
-66
-75
-58
-78
-92
-80
-75
-68
-75
-90
-53
-51
-141
-133
34
458
1449
2201
1282
-461
-911
-287
-35
-117
-36
30
6
0
-28
-36
24
56
42
55
94
115
125
148
173
175
174
200
235
273
322
343
324
328
368
400
420
433
412
372
345
301
202
91
16
-41
-99
-153
-197
-225
-224
-204
-195
-193
-172
-155
-173
-180
-147
-130
-157
-179
-161
-121
-119
-168
-199
-180
-167
-179
-181
-169
-163
-168
-180
-189
-191
-184
-175
-165
-149
-140
-160
-181
-164
-143
-154
-156
-118
-91
-120
-172
-190
-174
-161
-147
-86
-19
-39
-107
-113
-85
-90
-90
-74
-84
-104
-115
-104
-59
-78
-160
-137
-13
425
1511
2196
1102
-582
-842
-217
-51
-123
-30
-16
-63
-12
36
29
19
18
38
71
86
100
126
144
155
181
205
217
236
267
296
326
363
398
422
440
448
445
431
403
346
262
170
78
-9
-79
-123
-151
-173
-181
-177
-177
-177
-169
-162
-158
-152
-148
-153
-154
-148
-150
-160
-164
-167
-177
-183
-185
-193
-202
-201
-195
-195
-199
-202
-198
-185
-186
-205
-210
-193
-183
-183
-175
-169
-173
-173
-164
-157
-155
-152
-147
-149
-163
-173
-173
-166
-141
-87
-41
-52
-90
-102
-101
-103
-99
-100
-100
-81
-88
-109
-69
-70
-158
-133
18
420
1419
2146
1199
-463
-814
-205
-8
-101
-33
-9
-53
-14
18
5
18
38
47
66
84
96
118
139
152
170
195
220
244
268
294
326
359
386
410
432
448
453
441
411
363
295
207
116
36
-30
-83
-119
-136
-143
-146
-147
-142
-134
-130
-127
-120
-113
-114
-114
-108
-108
-114
-115
-113
-117
-118
-117
-123
-130
-129
-127
-131
-134
-134
-133
-131
-128
-126
-125
-125
-125
-121
-118
-118
-117
-114
-111
-110
-111
-111
-109
-104
-102
-109
-116
-115
-111
-108
-108
-108
-110
-114
-116
-114
-114
-114
-110
-108
-115
-131
-147
-151
-144
-127
-89
-43
-39
-77
-100
-98
-99
-98
-101
-109
-89
-80
-109
-87
-59
-147
-175
-38
265
1105
2033
1498
-236
-977
-413
-39
-109
-61
-3
-51
-32
12
9
21
40
44
65
90
101
117
137
154
177
202
220
238
264
290
314
344
376
395
408
427
446
450
438
414
370
302
216
125
38
-34
-90
-128
-150
-156
-156
-157
-158
-152
-142
-136
-133
-128
-124
-120
-119
-118
-120
-126
-131
-134
-138
-141
-145
-148
-150
-150
-153
-155
-155
-156
-154
-149
-148
-151
-145
-137
-140
-144
-140
-136
-136
-133
-128
-128
-129
-125
-123
-124
-126
-124
-122
-121
-125
-126
-122
-117
-116
-116
-116
-116
-117
-127
-143
-147
-139
-122
-77
-25
-29
-73
-87
-80
-83
-82
-84
-91
-78
-79
-97
-61
-61
-153
-141
-5
342
1306
2139
1324
-394
-878
-276
-24
-106
-39
-6
-49
-14
16
4
25
52
57
71
89
99
112
130
151
176
199
220
245
270
293
322
352
375
398
422
438
448
456
444
400
333
253
162
73
-2
-62
-107
-137
-154
-161
-157
-153
-153
-146
-134
-129
-127
-122
-120
-116
-106
-101
-114
-126
-120
-116
-128
-133
-127
-134
-150
-154
-153
-155
-148
-141
-141
-144
-155
-170
-164
-145
-140
-144
-142
-142
-143
-133
-125
-131
-136
-130
-129
-126
-114
-110
-111
-99
-89
-97
-104
-100
-85
-68
-75
-95
-93
-78
-73
-69
-64
-69
-82
-72
-46
-52
-87
-90
-67
-69
-92
-96
-88
-88
-68
-8
34
1
-51
-53
-34
-33
-41
-54
-58
-40
-47
-46
-5
-49
-130
-71
88
617
1728
2150
834
-635
-631
-77
-29
-86
-7
-30
-63
-17
-1
-1
25
32
30
52
79
89
95
106
125
147
162
178
205
238
269
297
320
343
364
376
385
406
422
402
352
297
233
151
65
-14
-78
-120
-144
-157
-168
-174
-166
-156
-160
-163
-151
-144
-142
-131
-126
-131
-129
-132
-152
-159
-147
-141
-151
-169
-178
-167
-159
-171
-185
-186
-186
-185
-180
-173
-173
-179
-183
-178
-170
-167
-163
-160
-162
-166
-165
-158
-149
-145
-147
-150
-146
-138
-136
-138
-133
-128
-136
-151
-167
-178
-176
-155
-106
-50
-38
-70
-92
-90
-87
-80
-79
-92
-83
-67
-87
-75
-40
-103
-150
-51
180
914
2023
1999
433
-691
-401
19
-61
-91
-20
-52
-48
4
-1
-2
28
38
51
76
75
71
103
138
149
163
191
216
238
264
291
323
359
383
394
408
425
431
418
379
320
254
176
87
12
-46
-101
-141
-152
-159
-165
-151
-139
-153
-161
-146
-137
-140
-136
-132
-129
-122
-119
-126
-133
-137
-138
-137
-135
-136
-141
-144
-137
-128
-128
-134
-139
-139
-138
-135
-130
-123
-117
-114
-117
-119
-115
-108
-106
-109
-111
-110
-108
-107
-102
-95
-90
-88
-83
-79
-86
-93
-87
-78
-75
-68
-58
-60
-67
-64
-54
-46
-46
-51
-54
-53
-55
-64
-74
-76
-70
-61
-35
13
38
7
-31
-40
-41
-42
-47
-55
-42
-37
-66
-44
-8
-89
-128
23
370
1182
1999
1400
-311
-1029
-462
-58
-76
-3
22
-81
-78
-20
-18
-6
25
32
36
53
72
91
103
113
136
164
179
193
220
251
271
290
316
337
354
377
407
421
411
387
353
294
216
135
51
-35
-99
-134
-158
-177
-185
-179
-171
-170
-166
-150
-144
-157
-161
-151
-155
-165
-166
-167
-169
-167
-175
-187
-185
-187
-199
-201
-201
-208
-207
-200
-201
-198
-189
-185
-186
-190
-193
-186
-172
-162
-155
-143
-135
-140
-148
-156
-171
-183
-177
-142
-82
-41
-58
-98
-106
-95
-93
-96
-104
-101
-88
-107
-106
-65
-110
-181
-122
60
697
1831
2033
526
-836
-654
-85
-76
-128
-44
-64
-78
-3
21
-11
-17
7
30
48
68
86
98
115
138
158
180
209
235
262
299
337
372
407
433
450
468
477
459
417
350
256
162
81
-14
-109
-160
-181
-202
-208
-194
-183
-177
-167
-162
-156
-142
-134
-135
-132
-125
-127
-133
-136
-138
-138
-137
-142
-149
-147
-146
-153
-153
-143
-147
-164
-166
-160
-167
-179
-175
-163
-161
-163
-159
-156
-159
-165
-177
-192
-199
-196
-164
-95
-53
-83
-125
-125
-111
-105
-114
-137
-132
-118
-140
-128
-91
-142
-169
-80
134
895
1981
1812
172
-847
-452
-20
-95
-104
-32
-64
-60
-14
-18
-8
8
-26
-25
57
91
38
39
132
192
188
196
230
256
282
313
336
359
399
429
420
412
439
455
413
331
230
120
15
-85
-154
-169
-173
-197
-198
-175
-175
-175
-148
-139
-156
-157
-154
-159
-162
-179
-216
-225
-182
-134
-128
-160
-177
-167
-185
-225
-224
-217
-246
-232
-166
-160
-193
-170
-152
-204
-243
-230
-226
-226
-173
-97
-75
-105
-129
-132
-134
-138
-138
-140
-148
-168
-163
-96
-82
-177
-196
-88
271
1257
2147
1413
-323
-929
-391
-110
-165
-79
-26
-63
-14
44
20
-4
14
42
68
91
105
108
117
150
187
214
251
291
312
332
368
394
393
410
468
519
522
495
456
395
297
168
54
-9
-52
-109
-161
-190
-204
-204
-185
-163
-155
-159
-160
-146
-135
-140
-137
-131
-149
-170
-166
-162
-172
-177
-175
-189
-214
-214
-186
-179
-205
-219
-207
-198
-202
-211
-218
-216
-211
-214
-211
-203
-218
-243
-244
-226
-187
-129
-106
-143
-171
-163
-159
-160
-162
-169
-148
-123
-152
-155
-120
-180
-240
-173
49
834
1994
1930
277
-869
-531
-59
-111
-128
-49
-82
-93
-56
-51
-28
10
9
5
28
57
78
90
113
156
173
156
171
221
252
261
285
336
387
406
410
424
432
425
400
330
226
136
59
-17
-69
-108
-133
-111
-76
-91
-121
-108
-81
-74
-70
-63
-61
-57
-53
-60
-77
-81
-57
-34
-46
-71
-82
-86
-90
-96
-96
-79
-67
-77
-91
-100
-98
-80
-71
-83
-74
-48
-58
-82
-69
-39
-44
-77
-76
-42
-58
-104
-81
-34
-54
-78
-47
-19
-16
-29
-53
-53
-26
-20
-26
-21
-31
-36
-2
20
-6
-24
-4
18
18
5
-1
5
8
10
19
14
7
15
6
-20
-9
20
11
-6
11
29
16
5
8
1
-19
-24
-11
2
9
13
8
-1
-4
-1
-2
-5
-7
-12
-17
-17
-18
-22
-24
-20
-17
-20
-28
-37
-38
-23
-7
-16
-43
-63
-62
-51
-58
-80
-76
-73
-93
-72
-61
-146
-166
-43
232
990
1815
1356
-137
-785
-340
-62
-148
-123
-73
-104
-95
-74
-82
-67
-47
-50
-48
-33
-14
3
15
29
48
60
70
88
106
121
133
146
162
179
190
199
212
224
230
231
221
197
161
92
5
-40
-43
-67
-111
-138
-152
-165
-166
-170
-174
-161
-165
-193
-186
-192
-227
-115
37
-228
-846
-1208
-1184
-1076
-832
-389
-153
-307
-436
-296
-131
-94
-39
94
182
178
162
173
185
196
217
238
259
279
287
295
317
344
366
398
434
456
484
552
633
674
674
649
596
516
418
309
201
97
-7
-104
-181
-229
-252
-263
-255
-226
-203
-196
-183
-173
-171
-158
-143
-144
-136
-116
-111
-111
-97
-89
-87
-74
-63
-68
-69
-50
-37
-57
-77
-54
-14
-9
-27
-29
-25
-36
-41
-27
-18
-14
-3
3
-1
1
6
4
1
6
12
12
9
15
24
26
22
17
18
23
20
13
20
32
31
21
16
17
23
31
30
16
7
11
16
16
18
17
12
8
5
4
6
-2
-10
-5
-1
-8
-11
-8
-6
-9
-19
-28
-27
-21
-20
-24
-33
-38
-33
-33
-38
-44
-51
-58
-56
-59
-68
-66
-59
-62
-69
-67
-63
-68
-80
-88
-82
-73
-77
-91
-96
-89
-92
-103
-100
-87
-72
-40
-20
-50
-101
-122
-113
-98
-102
-117
-108
-109
-131
-100
-90
-184
-187
-21
316
1084
1744
1067
-410
-877
-369
-119
-177
-121
-89
-126
-97
-70
-82
-67
-44
-42
-29
-3
20
42
65
83
96
112
137
156
163
172
185
197
209
222
229
240
262
286
307
327
348
364
367
358
342
309
258
208
162
119
82
51
26
13
-5
-28
-32
-36
-56
-52
-62
-112
-46
99
-93
-668
-1088
-1138
-1096
-959
-579
-293
-408
-574
-429
-158
-3
65
96
92
86
86
78
72
69
69
79
89
78
59
50
48
52
69
100
127
138
152
183
