# session 22
-12
-7
-27
-30
20
76
86
70
58
49
52
62
51
32
34
41
34
30
31
18
0
2
18
24
11
-11
-23
-14
-3
-11
-24
-22
-17
-20
-25
-30
-36
-37
-36
-38
-35
-23
-25
-52
-86
-102
-97
-69
-10
43
27
-37
-72
-69
-67
-74
-78
-69
-68
-105
-101
-51
-124
-230
-157
13
585
1771
2123
589
-978
-899
-291
-239
-265
-156
-159
-172
-131
-136
-131
-92
-81
-77
-50
-25
8
46
66
78
99
123
157
203
243
268
298
338
367
373
363
353
342
297
221
151
88
13
-51
-94
-136
-160
-158
-165
-167
-150
-152
-169
-188
-225
-158
58
87
-285
-703
-845
-864
-813
-456
-4
-28
-440
-631
-497
-336
-209
-92
-46
-40
-13
28
96
186
240
284
377
458
475
491
542
596
657
725
764
778
797
793
716
585
450
326
211
107
3
-105
-190
-225
-235
-268
-305
-304
-281
-276
-277
-259
-239
-236
-239
-227
-199
-177
-176
-180
-169
-147
-131
-130
-131
-123
-131
-153
-149
-125
-123
-127
-106
-93
-109
-119
-101
-79
-71
-76
-91
-96
-78
-55
-47
-44
-40
-38
-30
-19
-26
-28
8
35
5
-22
-1
19
12
12
20
21
21
22
20
20
20
21
25
25
14
12
18
11
15
37
31
4
11
24
-1
-18
0
12
7
5
4
3
-1
-11
-10
-1
-9
-19
-14
-18
-36
-35
-11
12
35
47
27
-11
-29
-20
-27
-56
-48
-20
-60
-82
-28
-84
-200
-114
123
622
1523
1762
489
-856
-857
-341
-237
-221
-116
-132
-178
-144
-113
-105
-84
-61
-53
-50
-38
-17
4
34
66
81
98
136
179
207
223
236
255
277
293
309
334
350
331
285
245
215
171
109
55
21
-4
-39
-66
-48
-39
-93
-119
-91
-131
-123
93
86
-569
-1366
-1598
-1358
-993
-530
-166
-223
-493
-544
-395
-244
-94
38
81
86
122
155
167
185
207
235
308
406
469
516
594
664
693
722
767
787
771
734
672
583
489
379
245
122
30
-56
-140
-195
-225
-251
-266
-266
-264
-261
-251
-239
-226
-213
-207
-206
-198
-187
-185
-179
-165
-153
-146
-140
-135
-130
-120
-110
-107
-109
-100
-87
-94
-108
-105
-93
-84
-66
-49
-53
-64
-57
-40
-42
-72
-94
-78
-51
-40
-35
-28
-33
-35
-20
-9
-1
15
15
-2
11
37
25
7
23
38
28
17
15
13
12
11
17
22
18
21
31
20
6
15
16
-4
-9
0
2
2
-11
-34
-41
-39
-53
-57
-37
-16
9
33
23
-17
-47
-57
-69
-93
-92
-68
-80
-91
-56
-113
-216
-130
117
637
1537
1734
385
-1018
-1000
-424
-292
-271
-160
-164
-183
-136
-122
-116
-84
-77
-78
-49
-14
10
27
41
65
102
127
137
163
202
228
247
277
303
315
330
354
372
373
344
287
231
187
135
80
39
5
-24
-41
-61
-86
-90
-92
-110
-109
-95
-108
-116
-125
-193
-190
-28
-72
-594
-1155
-1235
-992
-821
-666
-332
-46
-105
-293
-276
-129
-35
7
31
60
122
160
135
122
168
227
276
335
396
447
519
626
722
788
864
947
972
934
880
802
669
507
352
195
46
-55
-132
-220
-282
-308
-333
-337
-301
-279
-288
-274
-234
-222
-237
-227
-195
-187
-198
-192
-175
-166
-161
-155
-153
-157
-163
-163
-163
-171
-168
-149
-141
-140
-127
-128
-150
-151
-126
-105
-105
-113
-112
-102
-91
-79
-70
-81
-93
-75
-45
-45
-65
-60
-38
-35
-42
-43
-52
-62
-45
-23
-29
-46
-41
-28
-29
-35
-28
-23
-29
-33
-31
-33
-37
-44
-52
-44
-18
7
36
61
46
1
-26
-23
-19
-29
-24
-6
-28
-49
-2
-22
-138
-103
109
491
1198
1542
592
-738
-943
-415
-192
-183
-103
-84
-99
-66
-56
-62
-39
-22
-17
5
34
53
71
96
125
150
173
202
237
261
278
302
332
354
368
380
387
380
361
331
285
230
174
121
76
39
8
-10
-18
-35
-46
-51
-73
-77
-67
-123
-109
116
99
-639
-1597
-1961
-1752
-1377
-892
-445
-385
-586
-601
-401
-213
-65
79
181
239
268
297
362
417
406
392
433
493
549
607
659
714
789
858
904
935
935
875
783
688
571
429
297
180
59
-50
-129
-183
-219
-247
-272
-284
-273
-256
-247
-245
-242
-227
-206
-202
-208
-200
-192
-195
-191
-181
-176
-175
-173
-166
-158
-162
-171
-164
-151
-149
-151
-149
-145
-142
-141
-141
-134
-119
-110
-112
-120
-123
-112
-94
-83
-87
-87
-68
-55
-71
-85
-70
-58
-57
-44
-28
-40
-61
-56
-35
-24
-31
-39
-36
-30
-31
-34
-25
-17
-26
-31
-17
-15
-29
-28
-20
-26
-28
-29
-43
-36
1
30
44
48
19
-31
-45
-21
-17
-44
-40
-22
-57
-40
24
-79
-186
-13
296
887
1774
1661
68
-1126
-874
-377
-305
-209
-90
-116
-108
-55
-72
-78
-24
-9
-56
-65
-2
48
48
75
140
158
129
141
198
240
263
293
329
355
365
375
391
381
347
322
290
231
173
118
61
16
-23
-58
-67
-65
-79
-88
-92
-105
-111
-118
-138
-129
-145
-219
-152
21
-210
-946
-1508
-1481
-1209
-1006
-724
-326
-137
-255
-334
-202
-55
7
63
105
116
164
244
259
220
231
303
362
396
456
548
640
724
808
887
962
1022
1030
977
884
761
616
457
289
124
-15
-122
-203
-262
-299
-323
-332
-320
-297
-287
-293
-286
-255
-224
-219
-223
-211
-197
-194
-192
-182
-174
-170
-168
-164
-165
-172
-174
-170
-170
-155
-128
-137
-178
-188
-161
-144
-144
-130
-108
-108
-128
-135
-117
-97
-97
-108
-94
-69
-76
-95
-83
-66
-69
-65
-49
-49
-55
-46
-33
-30
-36
-39
-32
-14
2
0
-14
-21
-14
-2
3
0
4
14
14
7
-1
-9
0
19
14
-4
-2
-3
-17
-9
13
24
53
89
65
8
-8
4
-4
-25
-18
3
-21
-34
14
-37
-158
-77
162
625
1557
1964
710
-884
-1030
-418
-242
-240
-111
-88
-131
-107
-88
-81
-56
-45
-40
-20
3
25
53
83
107
124
143
175
212
244
274
301
327
346
360
377
394
388
362
329
285
225
153
75
5
-42
-73
-104
-133
-143
-142
-148
-154
-157
-165
-170
-174
-198
-208
-196
-241
-263
-118
-88
-559
-1239
-1520
-1391
-1245
-1105
-742
-326
-246
-406
-412
-222
-60
-3
6
12
43
105
163
207
272
354
407
444
516
614
703
803
932
1062
1160
1233
1285
1287
1217
1083
904
705
506
308
120
-38
-161
-244
-289
-320
-350
-357
-346
-340
-328
-306
-293
-280
-255
-241
-240
-224
-206
-213
-217
-201
-193
-195
-181
-170
-184
-198
-192
-184
-186
-187
-181
-175
-176
-177
-168
-162
-164
-157
-141
-135
-141
-137
-125
-115
-105
-97
-99
-100
-89
-78
-74
-67
-60
-56
-48
-35
-29
-29
-25
-16
-12
-12
-4
8
13
12
4
-2
10
27
23
10
12
19
18
20
25
20
9
9
15
8
0
12
20
2
-20
-24
-28
-37
-38
-35
-19
19
45
29
-6
-33
-45
-39
-40
-47
-41
-64
-84
-25
-45
-172
-114
104
513
1499
2173
1053
-769
-1137
-504
-279
-287
-144
-113
-160
-114
-84
-91
-65
-44
-39
-18
5
19
44
75
102
127
152
181
215
248
274
305
343
373
389
401
406
394
365
322
265
200
126
44
-32
-99
-153
-184
-202
-217
-217
-204
-197
-196
-198
-199
-192
-193
-209
-210
-211
-240
-255
-264
-314
-291
-163
-170
-346
-417
-365
-449
-760
-1039
-879
-321
31
-77
-233
-178
-71
-20
-16
-50
-61
-27
6
35
80
129
176
233
296
366
452
549
647
747
847
932
989
1016
1010
961
872
755
614
457
297
135
-17
-136
-217
-269
-291
-289
-276
-261
-241
-219
-201
-184
-166
-152
-144
-136
-127
-123
-123
-119
-113
-115
-127
-138
-140
-136
-136
-139
-137
-136
-137
-135
-130
-126
-122
-118
-115
-111
-107
-102
-95
-93
-96
-95
-90
-90
-93
-91
-87
-87
-91
-91
-87
-86
-88
-87
-81
-74
-71
-79
-84
-71
-58
-66
-73
-61
-49
-48
-45
-39
-35
-35
-34
-26
-18
-19
-19
-10
-4
-12
-15
-10
-6
-4
-3
-5
-5
1
2
-2
-2
1
4
8
12
12
10
11
13
13
14
16
16
15
17
17
18
20
22
19
14
12
12
15
12
-6
-29
-32
-5
38
59
30
-11
-15
-8
-28
-28
-14
-45
-45
-3
-89
-189
-97
93
695
1875
2174
667
-786
-692
-181
-186
-222
-133
-155
-170
-124
-123
-127
-98
-85
-76
-52
-34
-18
7
32
57
85
114
141
173
209
245
280
314
344
369
390
405
403
379
335
272
199
130
64
-4
-64
-108
-148
-182
-188
-191
-210
-195
-184
-237
-163
96
25
-657
-1374
-1618
-1549
-1261
-707
-307
-413
-645
-601
-420
-265
-106
10
44
68
107
137
171
211
243
288
354
422
479
529
569
609
670
753
844
920
960
947
884
787
666
522
371
226
96
-17
-111
-181
-228
-256
-273
-276
-272
-269
-264
-253
-242
-237
-230
-218
-210
-207
-198
-188
-187
-188
-181
-178
-178
-170
-160
-160
-160
-152
-141
-136
-135
-133
-126
-119
-115
-109
-102
-98
-92
-83
-74
-69
-61
-50
-43
-42
-39
-32
-26
-22
-17
-10
-8
-9
-6
2
6
6
9
15
17
18
22
24
24
29
36
38
39
42
44
45
44
42
41
38
36
40
44
42
40
38
35
34
34
33
31
34
36
32
26
24
23
20
18
16
9
3
7
9
0
-6
-4
-9
-17
-16
-16
-24
-31
-36
-49
-71
-86
-75
-52
-36
-8
21
10
-36
-68
-65
-66
-89
-87
-69
-101
-105
-55
-140
-252
-135
89
650
1783
2097
544
-1034
-973
-390
-331
-316
-183
-199
-221
-166
-155
-151
-120
-109
-100
-69
-44
-21
9
34
55
81
109
134
163
197
227
254
283
315
343
368
392
410
413
402
376
336
282
218
150
82
23
-25
-67
-98
-117
-131
-143
-150
-156
-160
-167
-182
-192
-204
-234
-244
-241
-293
-301
-187
-198
-443
-587
-478
-438
-681
-940
-778
-235
91
-68
-282
-256
-187
-194
-175
-118
-70
-17
30
39
42
80
139
194
251
319
399
491
587
684
785
878
942
969
964
924
841
725
593
447
293
139
-5
-127
-220
-280
-311
-322
-321
-308
-286
-266
-254
-238
-218
-204
-192
-178
-169
-165
-160
-153
-149
-148
-151
-156
-154
-149
-150
-153
-152
-149
-147
-144
-142
-141
-139
-139
-135
-126
-122
-118
-112
-106
-100
-91
-88
-88
-81
-74
-71
-66
-60
-52
-41
-37
-41
-43
-39
-35
-33
-30
-29
-28
-30
-32
-30
-26
-26
-28
-31
-34
-40
-51
-64
-66
-58
-44
-10
36
43
3
-33
-36
-27
-37
-56
-41
-34
-68
-47
-18
-129
-189
-61
166
893
1979
1795
48
-1069
-674
-197
-221
-192
-108
-141
-134
-91
-95
-84
-55
-46
-32
-9
3
22
53
79
100
126
154
181
210
243
276
308
339
362
377
393
403
390
355
308
251
183
112
47
-6
-45
-74
-96
-112
-128
-136
-130
-134
-157
-155
-152
-191
-134
53
-7
-517
-1002
-1047
-888
-741
-407
-9
-45
-448
-643
-492
-289
-153
-54
-6
19
76
144
200
269
339
364
366
403
475
537
584
638
699
756
807
845
850
816
756
675
565
432
300
184
74
-33
-123
-186
-233
-273
-298
-305
-305
-302
-293
-284
-273
-261
-255
-252
-241
-226
-223
-226
-222
-212
-203
-200
-203
-205
-199
-189
-184
-184
-185
-184
-182
-177
-166
-159
-161
-160
-151
-150
-153
-147
-138
-136
-133
-125
-119
-118
-117
-113
-111
-107
-97
-92
-92
-90
-92
-100
-101
-94
-86
-78
-79
-90
-92
-86
-81
-76
-73
-79
-85
-87
-101
-112
-100
-90
-82
-41
3
-15
-63
-79
-66
-63
-80
-74
-49
-72
-81
-30
-97
-206
-77
191
746
1813
2112
571
-1049
-1002
-363
-265
-244
-94
-100
-122
-59
-44
-49
-13
11
29
59
80
98
129
157
184
216
246
274
305
335
365
400
428
449
472
496
514
527
526
501
460
408
334
249
182
124
63
21
6
-8
-28
-36
-34
-36
-39
-46
-61
-74
-85
-102
-119
-129
-139
-147
-164
-201
-231
-231
-230
-223
-170
-120
-136
-164
-155
-145
-139
-125
-131
-133
-113
-122
-116
-84
-154
-224
-130
88
767
1898
1963
326
-995
-730
-160
-144
-152
-58
-80
-86
-35
-29
-22
13
22
26
57
89
111
135
168
201
225
248
281
316
339
355
366
363
344
313
268
209
142
66
-16
-98
-164
-198
-214
-248
-290
-301
-291
-293
-303
-307
-310
-316
-321
-329
-338
-346
-358
-371
-381
-388
-399
-407
-410
-417
-425
-426
-441
-492
-538
-540
-522
-494
-434
-388
-408
-436
-426
-416
-415
-406
-406
-402
-381
-393
-398
-360
-414
-514
-465
-284
300
1434
1773
324
-1184
-1100
-451
-357
-386
-271
-277
-320
-261
-215
-210
-186
-145
-103
-61
-24
16
59
105
157
210
260
317
377
425
466
502
517
517
517
512
491
457
400
328
271
216
151
120
127
129
139
181
217
224
237
260
271
280
296
314
333
348
351
349
354
363
369
373
380
384
382
387
395
394
398
420
430
414
402
410
416
412
410
410
407
403
400
392
379
359
330
299
282
283
315
368
390
344
275
241
229
218
204
173
152
143
95
73
110
24
-146
-143
20
581
1774
2259
812
-922
-1049
-467
-416
-521
-465
-496
-557
-546
-567
-610
-617
-631
-659
-673
-680
-692
-708
-721
-725
-731
-740
-744
-745
-748
-751
-756
-769
-793
-822
-846
