# session 9
-33
44
-115
-39
754
1361
638
-553
-718
-144
180
213
232
226
221
260
272
253
263
272
263
291
312
272
276
346
315
185
141
166
142
88
32
-23
-29
-38
-122
-174
-143
-139
-146
-73
-11
-34
-30
24
12
-36
1
72
55
-10
-13
-28
-147
-229
-183
78
891
1756
1265
-320
-1031
-534
-129
-108
-23
47
36
91
126
90
105
167
200
223
231
209
226
295
324
281
218
146
57
-7
-15
-3
-28
-98
-171
-207
-207
-179
-134
-120
-130
-94
-61
-135
-231
-241
-236
-258
-265
-248
-198
-183
-294
-397
-409
-241
565
1610
1326
-214
-995
-583
-283
-351
-277
-187
-242
-249
-173
-102
-39
34
88
78
29
25
47
37
27
-2
-79
-81
10
-31
-238
-349
-287
-236
-238
-194
-138
-122
-38
66
-47
-277
-275
-98
-47
-112
-133
-109
-63
-7
-19
-119
-191
-192
-187
54
787
1318
711
-395
-684
-291
-68
-58
-20
7
19
32
19
52
140
171
186
271
309
261
318
472
485
378
336
326
266
239
263
221
109
57
83
93
46
-22
-65
-42
30
70
33
-9
-4
-10
-50
-66
-56
-70
-132
-235
-325
-371
-215
479
1248
833
-563
-1186
-658
-181
-141
-109
-66
-89
-55
-16
-37
-4
80
107
113
136
140
151
160
78
-52
-76
-2
41
29
10
-44
-146
-191
-132
-95
-153
-176
-75
6
-47
-101
-37
35
13
-34
-43
-63
-115
-102
-19
-44
-191
-318
-330
171
1240
1528
258
-941
-780
-238
-147
-145
-101
-108
-27
37
-48
-62
57
119
156
275
336
252
199
257
241
107
82
167
102
-55
-56
-46
-182
-190
-14
1
-130
-119
-36
-39
-36
8
6
-75
-201
-252
-169
-134
-217
-218
-157
-226
-362
-382
28
973
1400
363
-934
-990
-417
-251
-260
-125
-59
-123
-153
-79
26
57
37
51
85
94
118
181
205
136
88
138
162
93
56
64
-3
-90
-62
14
1
-37
20
91
72
34
39
24
-21
-54
-85
-119
-139
-131
-87
-94
-197
-271
-249
19
757
1266
506
-776
-1016
-440
-125
-92
-16
28
37
84
127
172
239
282
298
313
337
370
386
370
353
327
273
250
267
229
147
127
131
59
-53
-125
-142
-115
-84
-81
-62
-34
-66
-124
-142
-155
-172
-162
-141
-117
-129
-216
-303
-340
-105
768
1545
839
-708
-1151
-543
-205
-198
-84
-32
-89
-69
-39
-50
-11
46
57
95
175
212
175
111
73
66
26
-37
-33
16
-9
-118
-193
-172
-152
-217
-248
-173
-156
-239
-243
-165
-133
-124
-123
-162
-173
-155
-173
-168
-153
-236
-344
-389
-146
793
1719
1143
-407
-949
-426
-129
-167
-101
-62
-113
-98
-57
-48
-13
43
72
93
149
196
176
143
147
131
94
93
77
13
-22
-20
-27
-20
-13
-53
-97
-89
-41
5
-5
-54
-38
21
14
-16
-17
-56
-75
-15
-75
-293
-437
-430
-10
1060
1748
892
-487
-763
-283
-73
-101
-70
-47
-60
-47
-10
35
98
180
229
199
172
226
276
254
230
229
204
163
132
107
106
131
131
93
65
57
33
1
-5
9
21
14
-7
-16
-37
-95
-122
-101
-110
-130
-128
-192
-315
-312
43
698
920
83
-974
-1055
-511
-230
-132
2
-38
-185
-178
-64
16
34
36
104
190
158
75
94
138
91
22
21
48
50
42
43
40
26
12
-14
-54
-68
-59
-58
-47
-14
-12
-54
-78
-86
-115
-143
-162
-173
-147
-150
-249
-363
-390
-40
859
1327
355
-936
-973
-317
-94
-121
-41
-3
-8
31
51
64
109
144
174
220
236
216
197
168
100
15
-40
-55
-56
-62
-62
-55
-46
-25
-1
4
-11
-45
-97
-134
-128
-104
-85
-73
-83
-112
-122
-133
-155
-130
-108
-170
-266
-340
-86
821
1443
542
-848
-941
-226
31
-12
79
141
128
136
156
208
272
289
307
343
344
333
341
328
263
171
99
75
73
65
67
73
64
66
93
100
73
44
5
-44
-40
1
-9
-63
-97
-107
-109
-120
-145
-135
-128
-228
-366
-432
-239
485
1129
529
-773
-1088
-460
-107
-126
-56
0
-54
-48
19
44
53
84
114
142
172
156
90
56
45
-39
-175
-251
-219
-120
-47
-48
-61
-31
-3
-3
-13
-34
-57
-54
-51
-93
-119
-63
-26
-101
-175
-158
-145
-145
-85
-65
-175
-324
-300
232
1103
1202
131
-770
-601
-143
-64
-107
-86
-66
-28
5
3
29
87
114
122
153
184
177
147
118
75
20
-14
-8
20
49
69
87
102
105
94
68
29
5
11
13
-4
-22
-39
-46
-33
-40
-81
-115
-124
-103
-89
-157
-282
-336
-68
659
1133
446
-711
-929
-399
-117
-96
-11
34
14
47
96
125
163
206
243
273
280
263
228
177
117
46
-26
-57
-42
-15
20
57
62
45
54
69
35
-7
-20
-49
-78
-45
-6
-31
-67
-74
-85
-114
-152
-147
-97
-129
-244
-322
-289
190
1123
1272
1
-1100
-846
-239
-116
-98
-20
-36
-20
62
69
52
98
145
148
152
162
144
105
62
-4
-92
-160
-171
-134
-80
-36
-12
4
29
60
61
29
8
2
-15
-19
-11
-39
-77
-60
-26
-35
-77
-112
-99
-82
-149
-265
-359
-224
489
1235
767
-532
-945
-385
-48
-61
17
77
31
36
75
86
105
153
216
259
252
216
176
111
18
-72
-130
-141
-113
-72
-24
39
79
72
70
76
24
-38
-22
-10
-74
-100
-48
-29
-59
-85
-107
-114
-104
-106
-101
-114
-206
-346
-460
-256
642
1526
1060
-282
-772
-347
-106
-140
-67
-16
-59
-60
-29
5
51
74
97
153
173
129
87
67
40
-4
-59
-89
-61
-19
-5
7
27
30
21
8
-14
-32
-37
-46
-64
-81
-97
-111
-110
-106
-128
-149
-132
-120
-129
-127
-167
-286
-412
-355
231
1160
1267
151
-782
-610
-171
-115
-114
-30
-23
-39
-12
19
57
102
128
160
208
210
149
79
31
-11
-58
-104
-122
-91
-29
20
37
34
27
24
26
15
-11
-30
-40
-48
-40
-17
-16
-35
-39
-16
15
5
-51
-71
-17
8
-82
-234
-68
833
1734
1225
-279
-910
-410
7
33
95
163
92
58
150
214
193
184
208
224
191
54
-52
75
221
85
-117
-118
-85
-116
-34
131
185
117
15
-37
18
56
-19
-51
-8
-69
-180
-168
-126
-138
-88
-7
-45
-161
-231
-225
-171
-153
-262
-450
-365
438
1436
1230
-152
-974
-646
-251
-260
-243
-116
-79
-134
-207
-250
-198
-73
-13
-58
-74
-16
-10
-70
-106
-167
-310
-366
-234
-126
-213
-329
-282
-167
-193
-322
-352
-312
-391
-501
-451
-369
-394
-393
-308
-261
-252
-206
-136
-64
2
61
152
230
166
11
8
394
1114
1452
741
-314
-527
-101
114
129
202
180
109
231
435
552
691
863
903
858
848
762
571
479
490
402
257
226
236
179
144
164
139
44
-48
-52
23
29
-56
-90
-130
-299
-408
-321
-244
-276
-295
-292
-297
-262
-237
-271
-260
-208
-271
-438
-529
-217
678
1282
501
-796
-962
-344
-122
-172
-74
-34
-91
-59
-4
32
120
178
130
96
135
152
109
47
-27
-115
-182
-191
-150
-87
3
66
14
-73
-62
-47
-98
-112
-97
-118
-118
-111
-145
-139
-120
-192
-255
-209
-140
-96
-89
-141
-138
-62
-114
-279
-396
-304
424
1479
1326
-177
-1030
-533
-18
-9
7
51
-6
25
135
152
104
98
149
219
261
269
258
205
109
4
-79
-78
29
107
81
79
131
98
17
48
137
125
8
-83
-52
12
-37
-129
-115
-47
-49
-129
-229
-234
-104
-33
-141
-213
-127
-109
-291
-418
-58
767
1118
288
-782
-861
-318
-57
-42
38
118
108
54
21
72
170
195
176
212
235
179
161
195
129
-6
-31
40
75
67
82
110
108
77
36
4
5
20
-12
-77
-92
-59
-63
-87
-50
-24
-107
-197
-179
-142
-166
-201
-191
-148
-142
-217
-341
-390
-4
866
1188
222
-872
-861
-350
-182
-143
-20
11
-28
-6
56
95
117
166
219
204
169
188
198
140
68
6
-36
-8
23
-38
-62
43
81
5
37
135
90
13
38
32
-52
-103
-101
-68
-46
-83
-105
-60
-54
-92
-88
-95
-114
-61
-48
-171
-325
-245
522
1638
1562
56
-924
-539
-41
-22
-5
44
-24
-45
30
93
102
97
174
284
252
124
76
88
60
-24
-146
-226
-209
-152
-96
-41
-47
-98
-73
-4
-21
-71
-66
-60
-83
-91
-90
-104
-121
-137
-142
-135
-133
-114
-73
-84
-115
-66
-57
-195
-343
-362
70
1148
1754
739
-645
-689
-82
4
-83
25
35
-17
54
109
91
120
189
218
222
227
175
72
7
-55
-189
-283
-231
-147
-137
-148
-124
-72
-30
-33
-42
0
33
-7
-58
-78
-103
-120
-103
-113
-156
-139
-72
-61
-101
-126
-146
-151
-118
-152
-302
-408
-272
292
1043
1022
-36
-838
-594
-114
-6
12
62
51
45
60
60
83
135
181
212
219
203
172
130
83
24
-38
-54
-27
-2
22
56
68
61
60
52
30
15
0
-30
-57
-69
-79
-79
-49
-23
-37
-62
-71
-79
-85
-72
-76
-98
-76
-59
-152
-275
-195
288
900
761
-313
-1080
-758
-160
11
32
104
112
99
124
152
177
194
203
244
290
278
233
201
148
62
8
10
34
50
63
85
102
95
69
51
51
52
24
-18
-42
-68
-116
-141
-111
-78
-89
-107
-100
-96
-94
-89
-110
-116
-68
-93
-234
-345
-270
305
1283
1413
119
-984
-725
-143
-71
-53
66
28
-42
1
52
78
104
111
135
194
197
117
45
5
-52
-111
-127
-107
-76
-60
-62
-46
-1
12
-35
-76
-55
-26
-77
-161
-163
-127
-150
-174
-149
-150
-182
-182
-184
-192
-159
-158
-222
-217
-158
-190
-291
-372
-139
756
1506
821
-555
-851
-267
5
-28
14
19
-8
42
86
100
131
155
178
212
224
209
171
91
-10
-73
-85
-80
-70
-49
-23
11
64
106
101
78
69
62
62
60
15
-46
-68
-76
-85
-59
-35
-55
-68
-68
-82
-72
-64
-86
-59
-35
-149
-319
-311
207
1176
1448
309
-855
-737
-148
-11
-2
98
95
74
119
127
120
170
224
241
247
249
228
185
122
40
-34
-73
-82
-59
-7
27
24
23
23
-2
-18
-3
-3
-41
-80
-92
-97
-135
-189
-186
-122
-84
-108
-132
-126
-122
-139
-169
-176
-125
-89
-176
-321
-336
36
825
1220
437
-665
-776
-244
-15
-20
37
31
-29
-10
29
48
88
125
132
148
171
165
132
83
26
-13
-24
-25
-25
-13
11
25
17
1
-8
-20
-38
-42
-37
-53
-86
-115
-144
-173
-183
-164
-142
-148
-163
-157
-153
-169
-167
-156
-162
-141
-123
-189
-290
-321
-15
882
1549
774
-677
-1016
-419
-125
-151
-52
16
-44
-55
16
99
166
208
232
236
220
207
188
121
26
-26
-28
-27
-32
-16
11
13
-1
7
11
-10
2
45
22
-44
-49
-24
-42
-76
-90
-95
-89
-76
-69
-56
-48
-54
-42
-39
-71
-47
9
-43
-128
-129
70
797
1596
1100
-448
-1096
-521
-71
-44
47
119
79
107
167
180
213
260
284
299
309
313
292
208
98
31
-5
-36
-55
-64
-61
-39
-22
-20
-9
9
3
-18
-26
-21
-24
-38
-54
-79
-115
-126
-104
-117
-160
-135
-78
-111
-159
-123
-95
-97
-74
-125
-215
-185
-39
458
1255
1128
-316
-1275
-804
-183
-105
-25
101
32
-19
54
102
107
120
149
186
206
198
184
144
46
-87
-203
-256
-247
-226
-222
-219
-208
-194
-189
-191
-166
-109
-83
-96
-102
-114
-143
-154
-165
-191
-177
-148
-182
-210
-170
-145
-154
-144
-156
-171
-105
-74
-155
-191
-128
207
1085
1632
702
-687
-856
-280
-47
0
84
53
54
146
136
91
146
221
265
301
325
339
313
206
64
-44
-111
-136
-133
-139
-151
-132
-86
-54
-48
-45
-22
17
49
49
20
-8
-18
-34
-62
-69
-61
-83
-103
-76
-42
-42
-36
-26
-43
-24
18
-42
-140
-169
-108
459
1542
1724
363
-782
-547
-40
-19
-11
86
59
42
96
115
139
199
242
270
302
328
334
280
151
33
-24
-95
-183
-179
-102
-92
-135
-127
-91
-81
-69
-54
-60
-62
-47
-39
-66
-119
-144
-122
-123
-173
-194
-170
-172
-210
-218
-174
-151
-197
-228
-190
-205
-304
-359
-339
9
939
1471
489
-881
-961
-324
-146
-196
-93
-44
-51
7
24
-12
35
158
235
234
232
253
240
170
84
8
-62
-125
-140
-94
-53
-23
31
30
-41
-33
41
26
-45
-53
-35
-60
-100
-126
-164
-213
-223
-206
-236
-285
-259
-196
-195
-225
-217
-213
-196
-109
-101
-232
-272
-156
177
930
1418
657
-522
-657
-134
50
16
86
135
132
170
260
315
256
209
320
445
446
420
417
368
282
213
166
129
100
84
82
69
36
23
34
17
-20
-31
-42
-76
-88
-89
-141
-185
-151
-139
-199
-206
-154
-150
-150
-105
-108
-148
-137
-134
-174
-154
-113
-176
-280
-273
178
1287
2040
1168
-381
-780
-301
-116
-160
-86
-65
-94
-47
-7
-1
34
72
91
115
131
110
65
12
-54
-118
-169
-204
-210
-196
-196
-193
-168
-145
-131
-122
-133
-149
-141
-157
-207
-216
-190
-219
-272
-272
-253
-259
-272
-278
-258
-208
-183
-196
-184
-166
-172
-143
-124
-194
-261
-248
84
1087
1920
1142
-492
-948
-348
-69
-140
-57
41
45
62
91
130
204
256
270
290
315
316
289
237
144
19
-76
-91
-55
-41
-64
-64
-7
43
42
32
33
19
18
51
88
