# session 11
-57
-31
-72
-50
123
295
340
325
295
214
118
65
41
50
145
349
593
675
503
348
445
604
636
594
470
234
12
-171
-361
-427
-339
-326
-400
-345
-251
-291
-276
-123
-88
-159
-118
-63
-101
-77
12
-8
-132
-213
-160
-70
-117
-223
-222
-173
-104
-1
144
742
1686
1541
4
-997
-670
-270
-254
-140
-20
-22
21
13
-118
-199
-169
-24
236
445
527
607
653
584
533
531
480
451
420
228
29
40
101
38
-41
-71
-158
-240
-144
-52
-189
-246
-34
-13
-259
-187
154
72
-443
-807
-825
-694
-586
-556
-533
-504
-556
-572
-403
-116
471
1303
1272
-7
-1008
-859
-466
-311
-112
-16
-113
-109
22
127
162
92
-1
20
98
145
190
278
395
383
157
3
116
232
220
221
128
-102
-151
47
194
194
156
158
234
289
219
153
209
262
224
191
192
151
106
137
154
56
-34
16
76
2
-85
-36
172
642
1112
759
-395
-1105
-869
-432
-236
-119
-41
-72
-156
-124
-2
-63
-179
31
237
-24
-333
-262
-106
-78
-70
-89
-115
-101
-181
-325
-306
-236
-356
-509
-454
-298
-232
-246
-292
-342
-278
-113
-79
-241
-394
-388
-268
-171
-173
-183
-117
-62
-83
-81
-46
-109
-197
-114
8
207
991
1861
1327
-295
-1008
-516
-111
-75
15
61
20
123
291
305
252
330
508
619
632
637
661
653
595
528
487
444
383
334
336
419
535
553
476
440
424
309
171
116
73
18
28
37
-57
-127
-51
17
-62
-174
-212
-221
-278
-384
-432
-418
-507
-562
-327
-10
287
677
490
-681
-1565
-1281
-785
-701
-571
-436
-579
-656
-479
-340
-339
-347
-321
-270
-215
-186
-161
-89
3
-9
-132
-176
-64
50
63
20
-40
-68
-26
19
4
-17
-20
-65
-111
-63
10
-34
-117
-27
151
120
15
111
120
-101
-109
120
186
155
224
249
140
332
1407
2548
1970
139
-646
-195
65
40
189
284
253
256
243
244
286
282
317
415
387
283
303
342
254
179
212
202
73
-48
-103
-165
-231
-261
-333
-470
-514
-459
-499
-591
-548
-488
-489
-336
-147
-279
-585
-741
-762
-658
-473
-500
-683
-569
-298
-414
-680
-632
-496
-28
1240
1895
569
-1033
-1067
-479
-348
-270
-66
45
124
108
-36
-27
174
298
297
338
454
508
461
441
459
438
423
405
284
157
136
135
181
359
470
391
356
450
477
421
393
338
249
242
279
251
225
266
299
295
296
270
212
180
126
14
-50
-8
293
972
1256
297
-982
-1173
-647
-366
-254
-106
-124
-219
-160
-86
-187
-345
-358
-265
-281
-416
-373
-114
-88
-429
-628
-482
-403
-539
-585
-497
-525
-641
-608
-485
-494
-595
-596
-516
-482
-474
-435
-424
-447
-397
-283
-200
-138
-98
-132
-180
-188
-163
-47
71
14
-28
127
424
1194
2182
1843
126
-776
-262
179
215
414
501
351
360
433
402
509
667
609
566
753
902
826
678
564
462
397
426
505
466
301
269
376
301
69
-39
-69
-152
-198
-203
-224
-204
-165
-174
-181
-192
-258
-278
-200
-169
-261
-421
-548
-506
-395
-443
-447
-251
-134
131
748
662
-553
-1396
-1140
-766
-690
-573
-462
-457
-492
-565
-537
-382
-319
-307
-212
-163
-147
-3
143
152
182
312
334
125
-97
-78
73
111
78
93
68
-16
-21
72
164
201
158
85
119
253
329
320
309
276
190
173
314
461
366
59
-80
105
404
945
1721
1636
258
-828
-618
-119
-49
-22
68
19
-64
-39
40
61
13
33
170
253
163
43
73
220
286
180
62
98
156
41
-91
-40
-81
-449
-698
-515
-403
-627
-647
-316
-166
-283
-325
-328
-408
-400
-278
-212
-236
-291
-343
-329
-254
-232
-290
-355
-277
314
1310
1487
293
-803
-699
-240
-189
-227
-165
-126
-75
-30
-48
0
191
360
355
266
230
228
230
283
376
420
405
410
449
393
208
75
90
150
173
151
96
92
143
118
26
8
35
29
67
130
53
-66
-14
25
-159
-293
-199
-174
-313
-380
-276
188
1000
1141
0
-1097
-973
-396
-225
-192
-85
-115
-232
-250
-247
-304
-307
-214
-104
-10
-4
-101
-87
58
43
-101
-97
-1
68
156
85
-239
-418
-262
-164
-298
-320
-182
-249
-438
-364
-140
-29
63
140
43
-114
-134
-60
-10
-35
-64
36
145
95
29
34
324
1444
2649
2123
308
-518
-97
197
68
-12
56
159
187
120
69
107
193
222
176
169
215
220
194
199
218
192
112
83
119
48
-139
-248
-262
-280
-280
-253
-239
-210
-158
-142
-173
-214
-226
-199
-202
-291
-394
-400
-336
-380
-548
-534
-352
-425
-627
-545
-219
501
1408
1209
-141
-941
-766
-400
-27
109
-163
-270
-228
-527
-680
-307
-47
-87
52
256
195
125
234
274
191
180
202
132
109
179
103
-84
-61
128
184
92
21
58
172
226
154
79
101
155
178
187
180
162
170
179
176
198
147
-41
-171
-4
685
1691
1803
495
-622
-415
69
52
18
78
-48
-201
-178
-93
-100
-203
-257
-144
26
80
50
52
80
95
123
133
49
-79
-146
-202
-329
-418
-366
-313
-348
-317
-228
-294
-471
-555
-577
-563
-383
-186
-274
-485
-451
-294
-305
-361
-327
-359
-422
-380
-357
-51
969
1636
679
-737
-909
-421
-329
-334
-172
-122
-106
32
139
168
201
229
280
393
499
534
520
527
579
561
435
369
396
385
365
384
383
422
523
523
450
468
459
300
184
228
273
238
238
314
327
214
107
60
-11
-75
-140
-293
-390
-288
1
501
660
-288
-1514
-1608
-1022
-760
-530
-180
-159
-266
-249
-370
-441
-208
-93
-203
-117
54
-14
-109
-46
-6
-66
-145
-156
-10
145
39
-165
-158
-71
-64
-25
20
-18
-33
-42
-157
-204
-65
58
37
-61
-175
-239
-240
-241
-221
-133
-37
-34
-137
-208
-154
83
753
1540
1251
-120
-891
-541
-193
-169
13
220
227
223
268
279
280
320
433
536
476
363
396
459
382
270
264
312
294
201
81
-23
-20
65
51
-30
-52
-154
-356
-403
-273
-171
-136
-95
-39
-10
-76
-208
-246
-189
-262
-452
-442
-242
-216
-366
-339
129
947
1300
444
-768
-999
-545
-348
-396
-376
-318
-251
-196
-193
-163
-105
-89
-52
24
52
64
111
130
138
208
271
210
47
-83
-36
142
152
-76
-130
136
299
220
198
266
262
217
177
95
-71
-188
33
417
324
-99
-5
406
237
-114
235
627
385
677
1784
1605
-224
-1230
-690
-196
-176
-52
51
-27
-56
-9
47
133
181
146
123
115
29
-79
-102
-106
-174
-203
-125
-57
-78
-152
-237
-266
-235
-299
-471
-540
-497
-543
-618
-459
-144
-73
-362
-623
-522
-236
-106
-198
-429
-607
-479
-285
-471
-705
-573
-282
464
1701
1702
-120
-1424
-1020
-366
-189
3
133
19
-92
-124
-101
32
162
180
161
190
322
529
626
579
567
570
471
346
233
145
205
317
294
281
366
358
259
194
142
187
372
419
257
213
322
288
157
125
47
-56
91
203
-98
-362
-237
39
610
1279
858
-562
-1232
-766
-340
-276
-176
-127
-234
-264
-155
-35
67
101
18
-17
101
166
106
106
120
42
57
153
35
-175
-172
-153
-342
-477
-362
-222
-239
-239
-60
23
-267
-540
-395
-203
-279
-341
-338
-454
-482
-327
-286
-335
-274
-294
-462
-482
-241
331
1131
1208
72
-941
-755
-191
-45
-23
61
86
133
204
211
250
347
372
339
373
476
570
606
599
585
537
453
442
523
531
401
266
198
157
146
180
199
179
161
166
228
319
250
18
-87
-22
-32
-133
-209
-302
-400
-436
-470
-499
-446
-205
477
1241
868
-658
-1593
-1218
-635
-485
-432
-380
-443
-485
-431
-379
-322
-232
-228
-276
-143
44
-5
4
311
353
-38
-170
16
-49
-248
-260
-280
-362
-308
-188
-177
-291
-380
-276
-93
-74
-148
-159
-155
-163
-175
-230
-229
-112
-26
50
210
244
114
86
245
897
2137
2511
1035
-455
-355
225
260
244
373
402
444
530
507
433
445
520
535
463
454
542
541
409
332
357
315
165
92
114
26
-132
-164
-155
-217
-235
-203
-237
-279
-279
-324
-360
-278
-207
-243
-270
-297
-411
-487
-434
-379
-444
-625
-707
-505
-198
229
962
1109
-175
-1502
-1324
-595
-583
-795
-669
-511
-418
-284
-286
-422
-450
-383
-336
-266
-165
-91
-62
-98
-138
-55
96
147
92
34
5
-9
23
128
188
77
-41
65
242
248
219
320
408
403
413
394
286
216
193
151
199
323
334
228
249
866
2028
2362
1074
-286
-371
-13
-27
-81
-36
-33
29
123
117
76
71
58
34
49
107
145
116
52
5
-5
-5
-33
-80
-120
-174
-220
-211
-209
-255
-271
-270
-276
-213
-179
-334
-494
-456
-365
-323
-253
-237
-364
-460
-398
-333
-410
-512
-464
-364
-105
859
1893
1194
-773
-1457
-688
-359
-614
-518
-269
-285
-316
-203
-100
-36
78
165
92
-12
32
158
267
345
345
290
254
218
175
155
109
28
20
103
146
83
23
66
165
260
355
400
387
423
474
448
444
473
386
287
294
209
43
111
567
1361
1866
1078
-453
-915
-258
72
-93
-60
50
-33
-101
-119
-235
-358
-375
-339
-284
-196
-108
-52
-22
-18
-43
-40
-11
-137
-396
-418
-193
-204
-499
-592
-408
-366
-572
-706
-616
-474
-440
-510
-574
-547
-508
-508
-463
-475
-631
-656
-522
-569
-694
-635
-341
511
1494
1053
-618
-1344
-731
-255
-262
-198
-74
-5
106
213
275
371
529
664
672
613
660
762
734
716
898
1004
831
670
641
507
348
397
497
430
291
268
387
483
402
297
355
413
321
241
257
270
251
151
-26
-79
-20
-69
-171
-150
173
887
1185
185
-1101
-1220
-675
-427
-302
-198
-319
-384
-239
-171
-168
-85
-77
-192
-259
-225
-127
-54
-133
-262
-292
-330
-404
-378
-323
-339
-343
-374
-475
-461
-299
-232
-335
-401
-300
-180
-190
-215
-177
-230
-341
-323
-264
-306
-302
-166
-89
-149
-250
-351
-160
638
1227
509
-729
-961
-448
-195
-134
45
158
161
186
214
253
304
273
250
379
525
578
655
749
744
727
759
687
529
508
589
556
439
378
338
281
263
274
288
340
401
361
178
-55
-219
-288
-279
-224
-185
-165
-150
-222
-349
-369
-192
345
1041
858
-433
-1331
-1040
-534
-421
-360
-258
-226
-217
-287
-396
-301
-78
-55
-172
-192
-176
-86
179
202
-252
-577
-379
-26
107
-44
-315
-394
-270
-254
-346
-272
-114
-155
-303
-290
-149
-41
26
42
-69
-230
-270
-204
-137
-47
37
-6
-96
-96
166
1045
1998
1523
-157
-931
-367
74
-7
-6
77
59
69
121
137
148
189
267
374
458
466
417
389
414
417
348
266
231
220
185
152
140
71
-44
-55
8
-39
-153
-149
-59
-56
-142
-172
-134
-144
-203
-228
-232
-222
-183
-207
-297
-313
-224
188
1046
1335
193
-1098
-1094
-517
-389
-429
-328
-290
-330
-338
-285
-153
-69
-162
-229
-85
62
49
11
20
35
78
114
69
23
54
81
42
12
25
7
-47
-54
-45
-88
-108
-32
59
89
59
-18
-75
-61
-47
-47
-7
-7
-96
-140
-98
161
884
1421
741
-466
-705
-231
-54
-41
125
172
100
149
214
179
167
218
262
308
353
343
310
311
301
253
238
250
196
83
-13
-77
-104
-89
-91
-130
-127
-69
-35
-22
2
-18
-81
-99
-81
-91
-120
-155
-169
-119
-110
-235
-338
-315
5
895
1552
710
-812
-1180
-621
-325
-289
-216
-229
-250
-203
-203
-202
-132
-85
-90
-89
-68
-26
14
-5
-31
18
23
-125
-237
-153
-53
-94
-156
-146
-127
-130
-124
-118
-132
-118
-49
-5
-34
-65
-80
-109
-118
-97
-71
-26
-39
-157
-246
-267
-46
824
1628
946
-565
-969
-383
-92
-102
-1
46
12
33
61
103
172
180
182
253
287
262
282
299
232
165
145
115
64
27
20
43
60
57
65
84
81
58
40
54
85
69
21
8
-16
-85
-109
-88
-107
-133
-169
-289
-443
-510
-200
741
1468
791
-545
-877
-367
-106
-128
-82
-48
-44
14
58
65
87
128
183
238
246
224
215
195
157
133
107
65
50
84
124
136
132
123
109
104
105
89
60
51
62
57
24
-9
-31
-54
-85
-117
-124
-91
-88
-179
-300
-288
94
763
885
-37
-986
-948
-438
-199
-130
-96
-172
-206
-114
-72
-113
-104
-71
-70
-1
121
108
-3
-1
43
-67
-228
-238
-148
-95
-79
-39
13
-1
-70
-82
-27
-16
-53
-52
-34
-50
-73
-89
-115
-119
-103
-119
-120
-87
-146
-271
-322
-227
355
1360
1475
154
-921
-653
-127
-108
-121
-21
-48
-92
-25
53
67
42
40
87
139
161
142
63
-36
-80
-105
-158
-162
-83
-18
-11
15
72
83
54
57
75
53
27
35
24
-15
-17
14
34
36
19
7
19
-21
-116
-189
-223
130
1161
1781
789
-654
-812
-222
-49
-70
68
104
15
3
46
73
87
96
127
173
161
99
79
102
73
-11
-71
-88
-88
-71
-32
22
61
29
-39
-23
60
58
-38
-84
-60
-75
-138
-159
-144
-164
-192
-153
-99
-137
-210
-177
-188
-316
77
1122
1348
91
-927
-627
-117
-91
-69
23
-35
-68
12
62
68
94
138
183
198
159
106
64
-24
-164
-234
-193
-155
-165
-136
-54
-9
-1
43
71
25
5
39
14
-27
6
7
-68
-97
-69
-59
-69
-63
-29
-44
-158
-246
-281
-145
631
1542
1083
-431
-1008
-456
-96
-94
-15
-14
-96
-40
32
-5
-36
-7
