# session 30
30
89
-121
164
1150
1800
1693
1506
1520
1471
1375
1345
1302
1232
1186
1141
1086
1039
994
943
900
862
820
774
733
698
662
623
584
549
513
473
437
409
382
352
321
291
264
237
210
183
158
131
109
90
70
47
26
9
-9
-26
-45
-68
-87
-96
-103
-122
-144
-154
-159
-172
-186
-194
-205
-216
-224
-235
-252
-262
-260
-254
-255
-263
-272
-282
-295
-312
-326
-320
-289
-262
-272
-298
-307
-317
-324
-306
-298
-310
-305
-311
-312
-278
-322
-410
-366
-238
255
1434
2059
856
-730
-881
-365
-318
-383
-290
-292
-316
-259
-239
-243
-214
-204
-203
-174
-147
-137
-120
-99
-80
-57
-32
-16
-2
23
50
70
85
102
118
133
148
166
179
183
179
168
145
107
54
-5
-56
-92
-116
-139
-155
-155
-145
-143
-141
-122
-116
-117
-90
-88
-112
2
167
10
-407
-612
-583
-592
-442
17
256
-30
-341
-314
-174
-80
25
99
105
113
144
167
189
220
251
279
309
341
376
409
436
467
504
529
552
602
671
735
789
811
767
675
575
467
338
205
82
-32
-129
-200
-249
-279
-292
-294
-291
-285
-272
-257
-246
-235
-219
-203
-192
-182
-170
-160
-156
-152
-145
-139
-135
-130
-123
-118
-114
-108
-99
-91
-89
-90
-85
-77
-69
-66
-64
-61
-60
-56
-51
-51
-48
-37
-32
-36
-33
-24
-25
-29
-24
-16
-11
-11
-12
-9
-1
1
-1
5
15
19
17
17
20
23
22
23
26
26
27
32
36
35
39
44
44
41
40
38
34
38
44
44
40
40
43
45
43
38
36
36
34
28
26
26
26
28
29
24
16
15
16
10
4
7
11
9
2
-5
-9
-8
-9
-15
-18
-20
-29
-35
-32
-28
-33
-40
-46
-51
-54
-56
-61
-71
-76
-79
-89
-101
-108
-117
-116
-78
-33
-32
-70
-104
-111
-104
-115
-129
-116
-126
-144
-103
-124
-235
-209
-68
305
1333
2140
1218
-486
-896
-356
-202
-283
-197
-180
-228
-189
-166
-187
-173
-149
-141
-122
-102
-89
-69
-48
-41
-24
4
20
30
49
65
76
94
118
133
145
162
183
203
223
240
248
248
238
212
167
115
61
10
-33
-67
-89
-100
-103
-106
-102
-96
-98
-95
-91
-103
-100
-90
-118
-99
27
31
-223
-446
-442
-440
-536
-403
22
218
-55
-325
-254
-80
-20
-8
5
6
17
38
54
78
116
145
152
159
187
224
255
301
368
419
453
516
607
683
737
773
764
708
618
492
335
176
30
-97
-196
-262
-305
-334
-348
-348
-339
-325
-312
-299
-285
-268
-247
-229
-217
-203
-186
-170
-156
-142
-134
-132
-123
-108
-98
-97
-93
-85
-84
-85
-81
-76
-74
-70
-66
-68
-65
-53
-46
-50
-53
-46
-41
-37
-31
-26
-26
-25
-23
-22
-16
-9
-9
-10
-8
-6
-4
-1
-1
0
6
9
7
6
5
7
14
20
21
22
24
23
26
31
27
25
29
31
29
32
37
33
29
27
23
22
28
28
18
16
22
24
25
25
21
15
12
12
13
14
12
6
0
-4
-2
2
2
-5
-11
-14
-19
-24
-23
-21
-27
-34
-44
-60
-73
-74
-64
-35
5
16
-13
-48
-67
-63
-61
-78
-77
-70
-96
-81
-52
-142
-192
-74
144
866
1962
1832
162
-917
-556
-151
-224
-204
-124
-168
-168
-131
-143
-136
-112
-115
-106
-77
-63
-50
-32
-24
-13
8
24
34
47
63
73
82
96
112
123
129
139
156
174
193
210
221
225
221
198
151
92
38
-11
-57
-94
-113
-121
-136
-152
-141
-129
-145
-154
-146
-149
-145
-152
-201
-177
-47
-82
-375
-599
-589
-603
-788
-822
-433
-6
-36
-284
-274
-94
-14
-7
4
-2
-8
6
22
38
55
69
85
119
177
248
309
357
411
476
542
614
697
785
864
917
925
887
808
690
544
387
230
78
-56
-161
-236
-282
-304
-311
-310
-300
-288
-281
-271
-250
-228
-216
-205
-188
-175
-168
-158
-142
-130
-126
-126
-125
-121
-115
-110
-108
-107
-110
-112
-107
-95
-88
-92
-96
-89
-79
-76
-77
-75
-74
-74
-68
-59
-54
-54
-56
-56
-49
-40
-37
-38
-37
-35
-34
-32
-27
-22
-19
-18
-22
-26
-22
-16
-14
-13
-10
-9
-11
-10
-7
-7
-11
-9
-5
-8
-9
-4
-1
-4
-4
-3
-7
-9
-7
-7
-12
-15
-16
-15
-24
-44
-59
-58
-54
-36
7
38
19
-23
-43
-39
-39
-59
-58
-41
-65
-71
-33
-98
-181
-99
70
626
1753
2081
675
-727
-647
-144
-150
-194
-105
-128
-154
-111
-109
-119
-96
-83
-79
-60
-46
-41
-23
2
17
26
40
56
68
76
90
113
132
141
152
168
181
193
216
241
253
253
244
224
185
129
71
19
-31
-70
-92
-114
-136
-141
-146
-156
-142
-154
-192
-91
96
-15
-470
-880
-1111
-1255
-1096
-550
-189
-391
-674
-582
-319
-134
1
93
117
127
149
172
196
214
226
256
305
347
386
446
512
543
553
593
659
718
770
821
843
821
762
664
534
395
257
122
3
-91
-167
-228
-270
-293
-303
-303
-298
-291
-281
-270
-261
-251
-238
-226
-217
-207
-193
-183
-181
-177
-169
-164
-156
-145
-139
-137
-130
-121
-118
-117
-112
-105
-101
-99
-92
-85
-82
-81
-77
-72
-68
-66
-62
-58
-59
-61
-51
-39
-37
-38
-33
-28
-28
-30
-27
-22
-23
-25
-18
-12
-16
-17
-12
-11
-12
-8
-7
-8
-8
-6
-4
-2
-4
-6
-2
1
0
-3
-5
-11
-15
-16
-21
-38
-53
-52
-38
-5
39
55
25
-16
-33
-25
-21
-40
-41
-22
-41
-46
-17
-87
-169
-94
68
644
1778
2048
592
-776
-647
-143
-154
-187
-99
-130
-155
-111
-110
-122
-106
-96
-88
-70
-59
-45
-25
-15
-9
6
26
39
46
52
59
72
88
101
107
112
121
136
156
176
192
203
206
192
162
122
75
26
-13
-44
-72
-89
-99
-114
-122
-118
-130
-134
-124
-160
-171
-28
62
-178
-523
-626
-622
-678
-521
-85
106
-179
-448
-367
-176
-81
-29
1
-4
-13
-4
15
32
51
96
162
211
243
289
335
368
408
459
510
565
631
692
734
745
715
646
545
428
302
173
54
-45
-126
-191
-233
-255
-268
-272
-269
-260
-249
-243
-234
-217
-201
-195
-187
-174
-165
-160
-148
-135
-129
-129
-130
-127
-121
-115
-114
-114
-105
-92
-87
-90
-88
-80
-74
-74
-71
-64
-58
-57
-55
-50
-48
-51
-47
-38
-35
-37
-35
-33
-32
-28
-23
-21
-18
-16
-20
-23
-19
-11
-7
-9
-13
-16
-17
-17
-18
-19
-21
-21
-20
-18
-17
-18
-21
-23
-24
-25
-27
-28
-29
-37
-51
-61
-60
-57
-46
-12
21
15
-23
-49
-50
-48
-62
-69
-50
-62
-90
-51
-57
-167
-145
10
335
1255
2075
1269
-447
-944
-371
-137
-213
-134
-99
-146
-119
-95
-108
-91
-72
-72
-56
-33
-23
-13
4
23
37
46
58
73
85
95
104
110
114
120
125
133
149
174
200
219
233
244
241
218
179
129
73
25
-12
-46
-74
-90
-101
-111
-118
-127
-133
-129
-138
-154
-145
-159
-206
-146
-30
-132
-395
-464
-352
-401
-612
-561
-145
125
-51
-274
-216
-76
-36
-30
-26
-51
-63
-34
13
63
117
168
198
210
230
266
306
348
396
448
511
588
669
740
792
812
786
710
598
462
311
155
12
-108
-200
-264
-302
-322
-332
-333
-324
-311
-301
-290
-272
-253
-240
-229
-218
-206
-191
-175
-166
-161
-154
-143
-135
-132
-129
-121
-114
-110
-108
-105
-99
-96
-95
-91
-84
-79
-78
-77
-73
-65
-59
-54
-50
-48
-46
-44
-41
-35
-31
-30
-26
-19
-20
-26
-24
-14
-8
-9
-12
-13
-11
-11
-13
-12
-8
-3
-3
-9
-9
0
4
-1
0
4
3
-3
-7
-8
-7
-9
-13
-11
-10
-14
-17
-15
-16
-24
-38
-58
-65
-51
-21
18
43
27
-13
-38
-38
-31
-39
-53
-44
-50
-75
-42
-37
-139
-146
-21
254
1125
2067
1496
-194
-869
-368
-94
-184
-135
-88
-132
-113
-84
-96
-87
-69
-64
-50
-33
-23
-8
7
19
34
47
55
65
79
91
102
114
128
143
154
161
171
188
205
219
232
238
223
187
141
89
32
-22
-65
-98
-117
-128
-140
-139
-138
-155
-149
-135
-181
-156
45
101
-249
-674
-864
-982
-1004
-623
-109
-95
-466
-599
-417
-222
-82
31
71
77
108
141
161
177
189
214
276
340
384
432
484
501
501
534
596
661
721
770
798
794
749
667
554
416
271
143
30
-76
-167
-231
-273
-301
-319
-330
-331
-322
-311
-303
-295
-285
-274
-262
-251
-240
-232
-223
-214
-205
-198
-190
-182
-177
-173
-166
-159
-155
-151
-142
-130
-122
-117
-110
-100
-93
-88
-82
-75
-72
-68
-59
-51
-48
-43
-39
-37
-34
-28
-22
-14
-9
-10
-10
-7
-4
-1
5
7
9
11
13
14
18
19
18
21
25
23
20
23
27
27
26
25
24
25
27
28
26
21
17
20
25
24
18
13
12
13
9
4
-3
-17
-30
-31
-20
7
47
56
20
-17
-26
-23
-25
-38
-40
-30
-55
-64
-22
-77
-172
-105
43
507
1595
2089
823
-689
-734
-192
-152
-208
-110
-122
-159
-112
-100
-116
-99
-87
-85
-71
-55
-39
-22
-10
-2
9
21
33
46
56
64
74
84
90
96
107
122
135
151
173
194
203
202
196
174
133
79
21
-29
-65
-94
-115
-124
-134
-144
-142
-152
-168
-154
-162
-199
-103
59
-70
-462
-691
-713
-779
-719
-294
69
-96
-440
-455
-248
-104
-29
23
38
45
60
70
90
126
157
184
210
224
239
284
357
430
494
550
608
678
750
800
813
783
716
621
498
351
204
76
-35
-129
-200
-257
-296
-308
-304
-305
-308
-299
-283
-272
-265
-254
-245
-237
-225
-213
-206
-203
-196
-187
-180
-177
-176
-170
-164
-161
-151
-137
-131
-130
-126
-118
-111
-103
-96
-94
-90
-79
-70
-66
-61
-51
-39
-34
-35
-32
-21
-14
-12
-7
0
2
3
10
17
19
22
25
26
26
27
29
34
37
38
40
46
47
44
47
51
49
46
47
46
41
38
37
40
42
37
31
31
31
28
26
28
27
23
18
17
17
15
13
8
0
-13
-28
-37
-37
-26
6
46
52
19
-15
-27
-16
-17
-54
-63
-37
-59
-68
-39
-121
-198
-97
80
674
1786
1928
377
-906
-669
-174
-198
-197
-106
-145
-155
-109
-121
-126
-95
-91
-89
-66
-50
-40
-24
-13
-5
7
17
25
36
47
51
56
67
78
80
84
96
111
124
144
170
187
194
194
175
133
80
26
-24
-62
-88
-111
-131
-143
-145
-142
-150
-159
-156
-167
-183
-166
-176
-223
-156
-42
-174
-483
-602
-546
-626
-793
-650
-197
30
-164
-328
-211
-55
-13
1
12
2
1
20
41
63
86
103
120
160
234
313
369
412
464
524
592
672
754
830
891
913
878
797
685
541
375
215
74
-54
-159
-228
-265
-287
-299
-287
-264
-264
-278
-272
-249
-232
-219
-202
-192
-184
-171
-160
-154
-142
-130
-127
-123
-114
-111
-111
-107
-104
-103
-100
-96
-91
-86
-83
-78
-70
-65
-66
-63
-55
-51
-53
-52
-46
-43
-44
-45
-43
-41
-40
-34
-25
-23
-28
-26
-15
-8
-12
-15
-9
-2
-6
-12
-7
-3
-8
-13
-8
-4
-9
-14
-10
-7
-15
-21
-17
-13
-15
-16
-18
-24
-23
-18
-26
-38
-40
-36
-33
-33
-41
-59
-71
-68
-53
-24
12
27
8
-24
-42
-38
-37
-57
-60
-43
-62
-67
-25
-82
-176
-116
28
522
1595
2000
733
-655
-645
-150
-131
-181
-97
-110
-134
-95
-93
-103
-84
-77
-75
-58
-43
-28
-9
5
18
37
53
63
77
91
99
106
120
136
146
153
166
182
193
203
215
220
209
190
157
109
58
11
-35
-69
-86
-105
-117
-116
-135
-152
-130
-150
-171
-1
139
-215
-849
-1161
-1150
-1045
-680
-172
-93
-427
-583
-420
-226
-78
53
110
116
136
160
176
193
206
221
257
306
351
392
445
501
529
542
583
648
703
747
783
787
744
668
571
450
319
194
80
-25
-117
-190
-241
-271
-286
-293
-292
-285
-275
-268
-260
-248
-236
-228
-221
-214
-210
-205
-200
-193
-183
-173
-165
-159
-153
-149
-145
-141
-139
-140
-133
-120
-113
-108
-99
-94
-91
-83
-77
-73
-68
-61
-55
-51
-50
-50
-46
-40
-39
-37
-29
-21
-20
-22
-18
-9
-4
-4
-5
-2
2
2
1
3
5
4
6
11
12
12
14
16
17
18
15
11
9
8
10
15
15
13
11
8
-2
-17
-27
-24
-14
8
43
65
46
8
-15
-16
-15
-35
-47
-27
-33
-56
-19
-39
-148
-120
21
361
1311
2045
1131
-505
-857
-287
-116
-193
-110
-90
-138
-106
-86
-106
-95
-76
-72
-59
-42
-29
-13
1
12
22
34
45
54
61
70
80
86
91
99
107
117
129
146
166
183
193
197
197
176
131
79
29
-16
-51
-77
-104
-128
-135
-140
-156
-160
-156
-170
-170
-158
-202
-204
-55
-20
-339
-697
-758
-730
-793
-654
-235
-20
-222
-415
-309
-121
-37
-5
13
11
12
25
38
52
78
119
166
213
266
322
366
404
455
516
577
641
706
768
813
812
755
659
535
390
240
99
-26
-129
-207
-261
-292
-306
-310
-304
-292
-282
-275
-265
-248
-229
-217
-207
-194
-182
-170
-157
-144
-135
-127
-121
-117
-108
-98
-96
-91
-78
-69
-67
-60
-53
-49
-42
-37
-38
-32
-19
-14
-13
-4
7
9
