# session 36
-49
-63
-14
-46
-232
-397
-418
-392
-395
-389
-367
-357
-356
-352
-341
-330
-323
-316
-310
-306
-301
-304
-305
-279
-237
-204
-173
-159
-183
-206
-198
-184
-184
-190
-192
-173
-159
-167
-140
-115
-179
-205
-87
191
866
1581
1178
-185
-834
-415
-59
-78
-57
-12
-37
-22
13
10
15
34
44
55
69
83
99
114
129
149
170
190
215
235
244
266
305
320
311
327
362
377
376
376
359
321
272
219
162
98
33
0
0
-4
-21
-37
-44
-37
-22
-18
-28
-34
-35
-34
-31
-32
-41
-48
-51
-61
-71
-77
-80
-85
-91
-98
-106
-109
-104
-103
-113
-120
-114
-109
-112
-116
-115
-115
-116
-112
-107
-110
-111
-98
-88
-105
-132
-136
-124
-115
-107
-99
-101
-110
-117
-118
-113
-105
-102
-103
-105
-107
-106
-112
-125
-116
-84
-61
-44
-18
-19
-60
-82
-76
-79
-82
-81
-87
-79
-70
-82
-62
-42
-104
-120
12
309
940
1493
961
-318
-805
-355
-45
-73
-41
4
-19
-9
12
2
6
12
-8
-2
61
119
129
131
149
159
160
164
165
184
231
263
265
280
304
308
313
330
329
310
290
264
229
189
140
83
32
0
-17
-31
-48
-49
-38
-40
-54
-56
-45
-44
-52
-60
-68
-75
-79
-84
-95
-110
-120
-121
-117
-119
-129
-137
-138
-141
-149
-154
-151
-152
-157
-159
-159
-157
-150
-144
-147
-152
-149
-143
-146
-151
-146
-139
-139
-142
-142
-137
-131
-130
-133
-130
-125
-123
-120
-117
-121
-124
-115
-103
-101
-109
-120
-134
-138
-121
-94
-58
-20
-22
-61
-79
-71
-66
-63
-68
-77
-62
-59
-70
-39
-49
-131
-106
71
522
1439
1906
837
-640
-813
-225
-49
-88
-6
2
-33
3
15
4
29
50
56
71
84
93
112
133
147
163
183
209
233
250
268
295
318
329
343
362
379
389
394
386
365
328
269
191
113
47
-10
-56
-83
-100
-116
-121
-112
-104
-107
-108
-103
-105
-109
-104
-101
-114
-124
-123
-123
-131
-137
-142
-150
-155
-156
-158
-161
-160
-163
-168
-168
-166
-166
-163
-159
-164
-170
-164
-154
-155
-158
-157
-155
-154
-153
-151
-154
-164
-177
-184
-179
-156
-110
-64
-62
-100
-128
-132
-122
-113
-123
-135
-120
-122
-138
-106
-118
-202
-179
-23
432
1441
2029
961
-623
-853
-249
-75
-148
-76
-58
-91
-52
-28
-36
-14
10
17
31
52
67
83
101
123
150
176
197
222
250
278
306
335
361
381
400
418
426
418
391
342
276
193
99
14
-51
-102
-141
-161
-167
-168
-165
-158
-154
-151
-143
-134
-131
-131
-131
-132
-132
-131
-132
-137
-141
-144
-149
-152
-151
-151
-152
-149
-150
-157
-158
-153
-151
-151
-150
-150
-149
-148
-149
-148
-142
-136
-133
-133
-143
-163
-176
-165
-133
-88
-47
-48
-88
-110
-101
-96
-95
-98
-103
-90
-91
-110
-81
-79
-168
-168
-17
371
1291
2021
1214
-406
-867
-290
-18
-93
-51
-20
-53
-28
-2
-9
9
29
35
52
72
85
101
119
136
158
180
202
232
261
280
302
337
367
384
400
417
426
420
396
351
286
205
117
34
-36
-88
-121
-139
-149
-154
-152
-144
-137
-133
-131
-130
-128
-126
-126
-129
-129
-127
-130
-137
-142
-146
-150
-155
-161
-165
-165
-161
-163
-167
-165
-158
-156
-157
-152
-148
-149
-149
-145
-142
-140
-138
-137
-135
-130
-127
-132
-133
-126
-121
-119
-117
-120
-135
-152
-152
-133
-102
-64
-35
-44
-77
-94
-95
-95
-91
-99
-105
-87
-92
-113
-73
-73
-168
-157
5
410
1338
1972
1043
-517
-826
-234
-25
-99
-38
-15
-50
-20
1
-7
15
32
35
53
72
81
96
116
129
144
171
200
220
237
262
288
311
332
355
377
397
410
412
401
370
317
245
165
89
19
-36
-70
-90
-106
-117
-120
-113
-105
-103
-104
-106
-110
-112
-109
-114
-126
-127
-120
-126
-137
-144
-149
-154
-159
-166
-171
-168
-166
-169
-168
-165
-166
-168
-167
-166
-166
-164
-160
-157
-155
-151
-148
-147
-146
-140
-138
-141
-137
-131
-131
-131
-124
-118
-119
-125
-130
-136
-145
-145
-127
-96
-54
-24
-36
-76
-94
-91
-85
-76
-80
-89
-75
-73
-90
-56
-51
-137
-135
12
394
1292
1955
1104
-449
-815
-237
-7
-80
-22
2
-38
-1
29
14
27
52
59
72
92
105
121
140
159
179
204
230
252
273
295
314
334
356
378
397
412
422
427
417
391
347
282
197
109
37
-14
-47
-76
-103
-118
-114
-106
-101
-98
-98
-103
-105
-106
-110
-111
-109
-113
-119
-123
-129
-135
-138
-140
-143
-150
-155
-156
-163
-175
-174
-165
-168
-174
-168
-164
-170
-172
-166
-164
-165
-162
-163
-169
-168
-159
-153
-154
-155
-156
-163
-170
-163
-144
-140
-157
-170
-162
-149
-147
-151
-160
-175
-180
-162
-129
-84
-56
-78
-117
-129
-125
-121
-116
-128
-131
-108
-116
-125
-74
-98
-187
-131
34
484
1478
1928
711
-773
-797
-158
-36
-111
-48
-29
-25
23
37
44
72
78
83
103
116
128
145
157
178
209
229
245
273
300
318
347
381
400
414
428
429
420
407
396
396
386
330
234
140
68
13
-27
-50
-62
-68
-63
-58
-69
-75
-57
-40
-44
-52
-50
-48
-55
-63
-65
-72
-90
-101
-99
-108
-123
-124
-125
-137
-142
-138
-147
-160
-159
-153
-162
-169
-163
-161
-169
-170
-164
-164
-165
-162
-163
-166
-165
-162
-162
-161
-162
-164
-162
-157
-160
-167
-175
-190
-194
-173
-148
-128
-102
-95
-125
-150
-148
-144
-148
-164
-173
-137
-116
-147
-131
-115
-205
-217
-76
237
1096
1976
1370
-307
-934
-369
-60
-155
-111
-63
-110
-75
-22
-39
-41
-13
4
21
44
68
91
106
125
154
176
194
223
250
277
314
343
369
405
418
401
394
384
363
362
342
256
161
94
17
-59
-87
-88
-97
-102
-88
-78
-84
-81
-67
-77
-91
-68
-47
-64
-76
-63
-59
-59
-46
-48
-80
-113
-131
-134
-132
-131
-128
-123
-135
-149
-139
-126
-132
-132
-117
-122
-146
-143
-123
-126
-146
-148
-137
-138
-148
-146
-127
-119
-132
-146
-136
-113
-111
-125
-127
-118
-122
-139
-148
-136
-100
-47
-5
-12
-49
-63
-56
-55
-58
-66
-70
-59
-71
-89
-40
-35
-140
-140
11
391
1323
2051
1198
-429
-836
-250
-29
-123
-63
-30
-73
-48
-20
-24
2
27
30
48
77
86
85
99
132
165
185
196
208
230
262
288
302
321
348
366
373
382
388
375
343
296
227
146
74
13
-46
-91
-110
-120
-126
-125
-119
-114
-112
-117
-122
-119
-114
-119
-126
-129
-134
-140
-144
-152
-157
-155
-158
-174
-189
-194
-197
-195
-189
-187
-188
-185
-182
-179
-170
-163
-169
-177
-175
-166
-157
-152
-151
-149
-142
-135
-132
-129
-119
-112
-118
-124
-116
-100
-94
-98
-98
-91
-88
-84
-74
-76
-94
-108
-103
-86
-51
-1
16
-21
-51
-49
-53
-61
-54
-57
-57
-48
-65
-53
-12
-73
-143
-43
198
820
1757
1707
213
-904
-600
-70
-48
-44
37
6
-4
43
46
49
74
78
84
108
125
133
148
173
194
208
222
246
268
282
302
327
345
360
383
400
404
404
404
394
362
306
232
152
71
3
-43
-79
-111
-126
-128
-130
-134
-129
-124
-127
-132
-135
-131
-130
-138
-146
-145
-147
-160
-172
-180
-189
-193
-194
-196
-197
-196
-197
-196
-193
-193
-196
-197
-197
-197
-196
-193
-192
-185
-176
-172
-173
-174
-169
-158
-151
-155
-159
-156
-153
-151
-148
-155
-162
-152
-139
-131
-96
-45
-47
-94
-115
-110
-110
-108
-112
-117
-95
-93
-116
-85
-87
-168
-128
67
501
1406
1898
783
-819
-1012
-327
-93
-119
-10
15
-27
11
32
27
61
86
87
107
132
142
154
174
195
219
243
262
278
299
330
362
384
400
420
441
455
463
461
436
403
366
291
180
91
32
-38
-106
-130
-122
-127
-142
-136
-113
-104
-106
-97
-85
-87
-92
-92
-96
-107
-115
-116
-113
-119
-137
-151
-154
-157
-164
-168
-173
-176
-172
-167
-168
-175
-183
-184
-179
-176
-174
-165
-161
-167
-172
-169
-169
-167
-160
-157
-158
-150
-137
-139
-158
-176
-181
-174
-165
-146
-99
-51
-60
-106
-125
-120
-119
-116
-119
-123
-103
-109
-131
-93
-98
-186
-153
13
424
1378
1972
932
-641
-847
-214
-41
-111
-24
-7
-47
-16
-14
-32
6
37
32
46
74
89
98
111
129
158
193
218
240
269
301
324
347
380
411
434
450
461
462
448
407
341
262
169
78
13
-32
-77
-109
-115
-121
-129
-120
-106
-106
-105
-95
-94
-99
-105
-109
-108
-110
-122
-126
-121
-125
-141
-151
-151
-153
-154
-154
-159
-164
-162
-157
-153
-154
-162
-168
-161
-148
-146
-155
-162
-159
-150
-144
-138
-128
-124
-130
-128
-111
-109
-127
-127
-107
-101
-111
-124
-142
-156
-154
-141
-113
-63
-23
-35
-81
-106
-102
-89
-87
-106
-106
-79
-92
-109
-61
-78
-167
-126
19
464
1508
2074
937
-597
-722
-134
-40
-130
-51
-39
-66
-18
-1
-24
-18
-9
1
32
61
72
92
122
139
142
154
184
216
244
279
310
329
354
387
406
412
422
429
412
371
315
234
136
58
2
-54
-96
-113
-123
-138
-143
-136
-127
-121
-121
-113
-104
-112
-122
-118
-116
-129
-137
-134
-131
-136
-148
-152
-150
-152
-155
-151
-156
-167
-170
-166
-161
-158
-161
-162
-152
-147
-154
-158
-151
-143
-143
-149
-145
-124
-116
-133
-137
-115
-106
-118
-120
-106
-97
-101
-101
-87
-75
-85
-107
-121
-128
-125
-104
-64
-20
0
-23
-55
-61
-63
-70
-62
-55
-54
-55
-80
-78
-23
-64
-149
-74
132
692
1719
1938
506
-851
-685
-94
-50
-71
27
3
-17
33
30
28
65
69
62
85
100
104
125
145
160
187
216
239
261
276
290
321
351
358
373
411
432
420
413
414
375
286
190
110
26
-65
-132
-168
-189
-197
-193
-194
-196
-193
-185
-169
-157
-169
-192
-191
-167
-142
-132
-144
-165
-173
-176
-190
-199
-193
-187
-181
-169
-174
-198
-201
-179
-172
-177
-175
-177
-178
-160
-148
-160
-170
-165
-161
-154
-143
-140
-136
-123
-119
-127
-135
-148
-168
-176
-153
-97
-42
-42
-85
-96
-81
-93
-110
-106
-100
-93
-90
-91
-72
-92
-161
-151
-73
272
1309
2194
1404
-281
-786
-247
-17
-98
-51
-28
-61
-27
-17
-38
2
53
59
72
97
93
90
122
150
162
185
199
227
312
361
300
256
311
369
383
405
425
412
383
347
281
195
110
27
-53
-108
-138
-157
-167
-173
-178
-177
-174
-165
-140
-117
-118
-127
-121
-111
-114
-122
-129
-145
-163
-164
-160
-162
-160
-156
-160
-160
-159
-162
-158
-148
-159
-172
-148
-111
-115
-144
-139
-109
-111
-132
-141
-152
-154
-124
-105
-119
-129
-137
-160
-170
-164
-151
-102
-41
-49
-97
-112
-121
-136
-117
-98
-108
-102
-105
-121
-74
-65
-172
-180
-24
368
1339
2163
1382
-299
-803
-238
2
-99
-53
-25
-73
-32
12
-10
-10
22
37
40
50
72
99
114
122
142
166
182
203
242
290
321
326
335
364
394
417
433
426
392
346
282
190
91
12
-49
-114
-161
-163
-151
-158
-163
-155
-153
-154
-148
-147
-149
-145
-143
-154
-162
-153
-145
-154
-164
-165
-170
-178
-177
-176
-182
-185
-180
-178
-180
-176
-171
-171
-173
-170
-164
-154
-146
-148
-152
-152
-148
-140
-131
-126
-123
-121
-122
-121
-115
-114
-120
-130
-140
-141
-119
-83
-44
-21
-35
-66
-72
-63
-66
-68
-76
-84
-62
-56
-82
-52
-39
-133
-150
-9
356
1257
2023
1268
-353
-836
-255
12
-80
-36
2
-35
-12
11
-1
21
45
48
65
83
89
109
138
149
159
186
209
222
241
269
291
309
336
366
384
391
401
403
382
342
292
223
138
60
2
-46
-81
-95
-96
-100
-103
-97
-92
-94
-95
-89
-88
-99
-109
-111
-112
-121
-132
-138
-141
-147
-153
-154
-157
-166
-172
-170
-169
-171
-169
-165
-164
-163
-163
-167
-169
-164
-161
-162
-157
-149
-150
-156
-156
-149
-144
-143
-145
-145
-142
-143
-150
-158
-163
-154
-131
-101
-64
-41
-64
-101
-104
-99
-109
-109
-109
-111
-98
-107
-121
-79
-87
-178
-162
23
496
1356
1684
590
-737
-794
-211
-47
-77
-9
-12
-42
0
20
13
32
49
56
75
93
103
117
138
158
177
195
214
236
262
284
303
323
342
355
368
383
392
388
373
338
278
205
128
57
1
-38
-62
-75
-80
-82
-81
-79
-76
-75
-78
-80
-78
-80
-91
-97
-94
-95
-110
-124
-128
-126
-129
-136
-142
-144
-141
-139
-140
-138
-134
-136
-142
-140
-132
-132
-138
-136
-129
-130
-135
-138
-138
-133
-125
-121
-125
-130
-129
-123
-119
-124
-137
-151
-154
-143
-118
-73
-35
-47
-87
-101
-98
-103
-103
-106
-111
-95
-98
-114
-79
-89
-180
-151
61
567
1498
1882
700
-797
-902
-265
-80
-111
-25
-22
-53
-5
10
-8
16
40
44
58
75
90
108
125
141
165
190
207
225
245
269
296
316
330
350
373
383
390
397
384
337
273
204
123
42
-23
-72
-103
-118
-131
-138
-131
-123
-124
-120
-115
-120
-126
-124
-125
-132
-138
-142
-148
-158
-168
-170
-170
-174
-178
-174
-171
-175
-176
-172
-172
-177
-178
-173
-166
-159
-156
-155
-151
-144
-140
-141
-140
-136
-132
-139
-162
-176
-163
-133
-89
-36
-19
-53
-83
-83
-79
-75
-73
-81
-72
-63
-80
-54
-31
-115
-149
-40
231
1069
2095
1729
36
-844
-381
14
-57
-47
11
-23
-10
25
13
19
43
49
57
71
77
87
