# session 41
19
24
31
34
14
-38
-104
-157
-191
-212
-224
-227
-220
-214
-209
-198
-184
-177
-171
-160
-149
-142
-133
-126
-126
-127
-125
-122
-121
-119
-116
-112
-107
-102
-98
-94
-91
-88
-85
-83
-82
-77
-70
-65
-60
-55
-51
-47
-41
-37
-34
-29
-25
-23
-20
-18
-19
-13
-4
-5
-10
-8
-3
1
4
1
-2
0
3
2
0
1
3
6
8
8
11
13
8
2
4
9
7
4
7
9
6
1
2
5
4
1
-1
-3
-5
-4
-5
-9
-11
-8
-9
-12
-13
-13
-16
-25
-38
-51
-52
-40
-17
13
30
10
-26
-38
-36
-42
-42
-45
-54
-43
-36
-55
-37
-26
-103
-120
4
243
828
1447
1040
-182
-699
-307
-39
-79
-48
-12
-44
-29
-2
-8
0
15
15
23
40
50
60
73
87
103
122
140
160
182
203
221
239
258
274
290
307
318
316
301
269
215
150
88
31
-20
-60
-86
-100
-109
-114
-111
-104
-101
-100
-95
-92
-95
-100
-101
-99
-100
-105
-110
-115
-120
-124
-127
-130
-130
-128
-127
-128
-125
-121
-120
-122
-120
-114
-111
-108
-103
-97
-89
-83
-82
-80
-74
-68
-67
-68
-66
-61
-57
-57
-55
-54
-60
-62
-53
-47
-49
-45
-41
-45
-43
-28
-22
-31
-38
-39
-36
-30
-30
-33
-28
-26
-35
-40
-29
-21
-27
-41
-47
-45
-43
-47
-49
-47
-49
-50
-48
-51
-55
-52
-48
-50
-53
-50
-47
-48
-50
-47
-36
-25
-26
-36
-46
-47
-39
-37
-46
-41
-36
-48
-24
-9
-81
-97
21
230
778
1429
1116
-81
-661
-292
6
-29
-10
29
0
6
33
34
46
58
51
59
83
92
96
112
133
148
163
180
198
219
240
259
279
297
308
319
334
342
344
332
285
214
150
98
45
-1
-38
-67
-85
-93
-98
-100
-99
-98
-100
-98
-92
-96
-111
-118
-114
-117
-123
-126
-135
-148
-153
-161
-173
-169
-159
-166
-177
-171
-162
-166
-169
-162
-153
-147
-145
-142
-138
-132
-126
-120
-116
-118
-120
-114
-105
-105
-108
-102
-95
-92
-90
-88
-84
-76
-72
-72
-70
-65
-62
-56
-45
-37
-35
-34
-29
-20
-14
-12
-5
8
16
17
19
24
27
28
33
39
40
42
45
43
38
38
39
39
39
37
33
36
38
28
7
-7
-8
-26
-66
-67
-31
-45
-74
-47
-74
-149
-74
163
579
1139
1120
122
-748
-599
-139
-32
-27
17
-5
-13
28
40
35
46
55
53
51
56
68
84
102
121
140
159
177
199
225
242
252
270
287
296
309
320
312
291
261
215
156
98
45
0
-39
-73
-93
-101
-106
-104
-97
-95
-91
-83
-88
-95
-89
-87
-101
-110
-109
-112
-120
-125
-131
-136
-140
-144
-150
-151
-150
-149
-148
-145
-140
-137
-137
-131
-121
-120
-123
-118
-110
-108
-106
-99
-95
-94
-88
-80
-79
-82
-79
-70
-63
-59
-56
-56
-57
-55
-50
-44
-44
-51
-55
-57
-64
-57
-31
-44
-91
-93
-68
-96
-130
-102
-61
-49
-34
-11
-20
-54
-68
-59
-56
-60
-47
-18
0
-24
-58
-27
0
-71
-95
52
330
835
1282
846
-262
-724
-336
-25
-15
17
47
38
70
79
65
105
125
79
60
77
109
207
306
273
161
113
135
163
184
214
243
267
287
297
308
328
333
327
311
236
140
112
89
-7
-58
-16
-26
-111
-138
-109
-114
-121
-86
-71
-101
-123
-122
-99
-55
-79
-187
-220
-132
-87
-120
-128
-123
-149
-157
-143
-156
-174
-171
-167
-155
-131
-144
-182
-162
-113
-112
-108
-68
-85
-153
-147
-73
-72
-157
-197
-149
-101
-89
-95
-123
-139
-97
-50
-62
-82
-59
-24
-25
-58
-76
-74
-90
-99
-63
-38
-68
-97
-95
-83
-68
-92
-137
-74
169
622
1106
974
28
-735
-580
-117
25
22
45
23
10
48
81
92
85
83
115
122
73
88
183
201
137
129
164
169
190
239
223
165
191
275
307
295
300
311
300
265
211
154
103
52
-3
-39
-51
-68
-99
-107
-89
-102
-144
-139
-83
-56
-78
-103
-102
-80
-71
-107
-151
-149
-112
-77
-73
-106
-146
-168
-172
-165
-160
-161
-146
-119
-110
-114
-120
-116
-91
-82
-102
-103
-91
-96
-79
-40
-44
-58
-43
-56
-94
-85
-61
-72
-86
-92
-83
-53
-67
-129
-117
-58
-77
-118
-124
-158
-139
64
513
1118
1219
278
-776
-788
-233
-12
-8
44
35
-6
10
23
29
63
90
94
100
118
154
186
174
131
122
160
187
197
243
295
278
250
303
375
362
304
285
285
237
160
111
65
-17
-91
-124
-138
-138
-142
-181
-218
-198
-145
-113
-119
-139
-149
-157
-173
-177
-167
-149
-130
-132
-155
-147
-124
-150
-173
-115
-55
-76
-109
-111
-131
-148
-114
-99
-145
-157
-108
-92
-114
-110
-101
-118
-124
-88
-16
43
18
-65
-94
-77
-106
-130
-67
8
16
-12
-57
-65
-15
-23
-106
-112
172
995
1827
1356
-209
-975
-509
-107
-154
-139
-68
-103
-108
-71
-97
-120
-72
-53
-106
-152
-161
-94
93
228
144
39
106
193
184
192
253
295
320
349
366
379
398
380
305
236
197
123
22
-36
-72
-118
-124
-97
-115
-148
-124
-88
-83
-81
-77
-85
-83
-65
-54
-49
-44
-47
-56
-65
-69
-68
-69
-80
-91
-98
-111
-125
-121
-110
-120
-140
-137
-126
-134
-150
-159
-155
-121
-75
-63
-78
-86
-92
-104
-114
-119
-112
-105
-112
-104
-90
-119
-127
-75
-108
-193
-130
103
680
1515
1431
-21
-1140
-857
-287
-186
-122
-15
-47
-52
7
3
-5
32
47
46
73
102
116
130
146
159
179
208
239
266
285
306
343
378
385
391
413
415
390
361
303
195
93
37
-13
-81
-133
-146
-139
-136
-137
-131
-119
-127
-154
-162
-139
-121
-122
-122
-114
-112
-114
-112
-105
-103
-102
-106
-126
-142
-121
-100
-127
-157
-136
-119
-138
-136
-110
-123
-162
-173
-152
-126
-111
-96
-78
-85
-103
-99
-105
-135
-138
-136
-162
-154
-114
-120
-147
-158
-215
-273
-247
-169
241
1204
1659
585
-767
-883
-458
-357
-194
10
-91
-155
-66
-129
-139
57
80
-73
-7
169
135
32
97
227
249
205
217
301
361
329
292
343
398
401
457
488
346
270
417
407
125
-17
29
-48
-182
-174
-166
-278
-328
-203
-80
-138
-257
-223
-125
-172
-243
-152
-57
-102
-157
-126
-83
-93
-122
-96
-43
-49
-67
-33
-13
-28
-23
-20
-36
-36
-35
-1
80
66
-20
26
99
31
15
117
122
96
165
134
19
22
3
-69
39
126
-45
-121
118
611
1350
1598
564
-727
-888
-408
-203
-147
-72
-103
-126
-76
-71
-90
-43
31
18
-116
-234
-194
-71
-57
-149
-128
51
142
77
35
41
58
117
140
148
251
299
218
200
198
72
-28
-41
-73
-102
-134
-214
-251
-218
-176
-128
-119
-195
-250
-202
-126
-121
-201
-238
-122
-21
-102
-189
-123
-44
-70
-99
-50
-31
-93
-9
277
342
1
-283
-250
-215
-292
-241
-100
-61
-15
100
55
-138
-151
22
88
33
8
-13
-53
-61
-44
-32
-39
-58
-32
29
32
-32
-80
-60
-6
-12
-82
-86
-3
37
-1
-48
-42
10
-29
-157
-124
173
755
1481
1484
324
-720
-626
-166
-70
-65
-11
-11
12
46
24
21
49
49
38
44
52
66
95
124
137
145
161
172
183
206
212
217
277
325
295
281
320
301
229
220
247
173
36
2
22
-71
-161
-106
-71
-117
-112
-110
-154
-137
-131
-174
-136
-139
-242
-163
24
-1
-96
-96
-133
-199
-260
-335
-218
56
88
-95
-140
-82
-118
-169
-120
-76
-128
-144
-77
-83
-140
-99
-40
-58
-83
-96
-103
-76
-103
-193
-143
15
6
-126
-120
-20
-34
-131
-145
-64
-22
-85
-139
-74
17
13
-15
-5
-39
-97
-72
-42
-94
-122
-79
-17
23
-71
-217
-137
11
-56
-76
135
511
1156
1526
731
-512
-773
-303
-73
-75
-26
-7
-23
-3
16
19
40
67
55
17
29
90
115
99
109
133
130
134
175
210
220
241
278
307
328
335
327
322
317
289
247
196
126
48
-12
-46
-67
-95
-130
-147
-131
-100
-88
-110
-121
-98
-89
-110
-120
-117
-120
-114
-99
-90
-100
-138
-167
-142
-103
-98
-120
-165
-198
-167
-130
-153
-172
-138
-114
-120
-122
-125
-127
-106
-97
-119
-120
-90
-80
-85
-90
-107
-106
-66
-49
-61
-48
-45
-79
-76
-38
-46
-70
-62
-61
-77
-70
-46
-14
23
22
-25
-54
-43
-40
-54
-63
-63
-45
-28
-58
-78
-17
-5
-96
-84
33
260
952
1645
1106
-241
-701
-253
-27
-76
-6
35
-19
-16
26
44
50
53
58
55
31
24
58
97
123
144
147
146
180
221
229
228
250
276
299
328
350
351
342
321
273
196
110
28
-40
-85
-110
-124
-131
-136
-143
-137
-113
-100
-111
-120
-106
-93
-103
-113
-100
-88
-96
-110
-120
-130
-134
-143
-160
-163
-142
-125
-122
-125
-135
-143
-131
-109
-113
-133
-129
-108
-107
-121
-119
-103
-100
-112
-120
-115
-116
-122
-112
-94
-93
-102
-116
-124
-98
-65
-77
-108
-107
-95
-92
-99
-104
-74
-25
-16
-30
-23
-36
-84
-102
-83
-76
-76
-63
-58
-59
-57
-54
-34
-44
-106
-104
-2
299
1028
1592
958
-289
-645
-227
-33
-64
-2
19
-29
-30
-8
16
32
18
43
110
104
55
82
134
131
129
163
184
181
198
235
255
272
301
311
328
399
428
340
251
235
208
129
50
1
-30
-60
-91
-107
-94
-70
-72
-97
-98
-72
-73
-93
-84
-73
-89
-92
-70
-68
-101
-127
-130
-128
-124
-116
-116
-124
-114
-85
-78
-106
-125
-119
-107
-96
-81
-74
-82
-95
-98
-81
-57
-63
-92
-96
-76
-71
-74
-69
-71
-83
-81
-73
-72
-72
-83
-101
-84
-50
-63
-99
-85
-52
-67
-97
-93
-89
-102
-94
-73
-75
-68
-25
-11
-58
-93
-88
-91
-102
-96
-90
-80
-63
-82
-98
-66
-89
-164
-107
73
428
1102
1404
566
-524
-622
-170
-31
-68
-30
-22
-24
17
29
18
31
43
44
55
73
82
92
119
144
143
131
147
187
225
254
270
274
283
301
320
343
357
336
304
288
241
138
52
23
-1
-35
-52
-65
-87
-87
-67
-58
-54
-58
-86
-113
-100
-78
-92
-118
-109
-91
-103
-126
-128
-127
-140
-144
-127
-119
-137
-156
-151
-138
-135
-133
-124
-120
-127
-133
-134
-130
-115
-97
-100
-113
-112
-105
-98
-96
-105
-104
-80
-77
-104
-107
-86
-79
-77
-63
-63
-88
-105
-93
-71
-58
-41
-13
-12
-48
-66
-48
-46
-64
-56
-46
-64
-59
-42
-63
-60
-38
-86
-105
11
315
943
1416
830
-338
-684
-253
-30
-68
-24
-1
-40
-10
33
16
2
30
55
55
53
63
71
86
126
152
143
143
174
201
221
248
263
269
291
322
336
339
331
294
239
187
130
70
19
-24
-52
-53
-51
-73
-99
-90
-58
-53
-73
-82
-80
-79
-72
-70
-86
-91
-80
-82
-89
-93
-120
-156
-155
-125
-113
-122
-123
-116
-124
-144
-165
-181
-163
-116
-115
-155
-150
-115
-127
-163
-159
-127
-116
-130
-122
-84
-92
-156
-161
-77
-42
-122
-195
-177
-125
-82
-41
-22
-29
-60
-117
-135
-75
-30
-58
-98
-106
-94
-97
-102
-71
-69
-115
-69
68
373
1028
1365
578
-464
-531
-103
-14
-65
-16
7
28
61
28
11
73
114
91
74
83
90
115
166
177
138
145
206
212
183
230
294
274
238
242
247
284
360
355
255
179
138
75
15
-27
-85
-129
-113
-74
-68
-98
-133
-140
-120
-103
-92
-75
-79
-114
-139
-130
-116
-110
-103
-108
-131
-142
-126
-102
-91
-102
-120
-99
-64
-83
-125
-113
-88
-105
-116
-86
-70
-84
-88
-86
-90
-67
-24
-25
-58
-62
-56
-80
-81
-41
-42
-91
-80
-25
-36
-56
-14
-42
-156
-114
122
461
956
1195
502
-592
-883
-429
-80
-3
21
32
46
62
54
53
51
45
89
149
128
66
60
109
156
173
173
172
162
156
190
229
231
248
289
261
175
159
227
242
129
-11
-70
-88
-123
-154
-186
-230
-232
-201
-200
-201
-172
-182
-221
-196
-152
-186
-249
-247
-199
-178
-193
-186
-140
-134
-194
-236
-227
-193
-151
-146
-190
-217
-211
-200
-166
-141
-181
-218
-190
-148
-101
-45
-69
-155
-162
-120
-138
-151
-108
-105
-137
-128
-124
-123
-86
-101
-138
-68
135
651
1287
1042
-173
-887
-523
-70
-26
-48
-11
23
52
68
94
116
91
96
150
145
129
193
237
210
225
279
300
318
343
343
358
417
458
454
434
435
488
544
483
329
231
188
118
62
58
53
31
12
-24
-47
7
70
39
5
43
33
-19
37
110
41
-51
-45
-13
-1
-9
-35
-15
32
-17
-100
-72
-3
-19
-74
-74
-43
-45
-66
-77
-98
-104
-68
-36
-32
-38
-49
-53
-78
-130
-112
-50
-89
-155
-139
-156
-195
-125
-99
-202
-190
-59
137
680
1161
592
-566
-889
-412
-125
-154
-147
-114
-139
-167
-156
-131
-125
-124
-118
-118
-95
-61
-83
-103
-52
-32
-76
-55
11
10
-13
9
53
80
62
37
66
89
42
1
-46
-160
-235
-217
-253
-345
-363
-346
-342
-306
-299
-358
-360
-296
-295
-307
-229
-188
-266
-311
-267
-226
-193
-190
-254
-259
-143
-86
-162
-223
-171
-83
-51
-63
-49
-20
-10
13
54
66
76
118
139
132
163
207
216
254
350
407
397
401
425
423
426
474
525
544
567
627
680
694
701
723
749
805
1000
1444
1960
2031
1344
143
