# session 25
0
6
-5
21
85
102
61
31
26
19
17
26
31
28
27
29
32
33
31
25
16
8
5
1
-5
-18
-31
-36
-34
-38
-47
-49
-49
-53
-54
-54
-57
-60
-59
-58
-60
-61
-59
-61
-64
-59
-52
-54
-57
-59
-64
-67
-62
-59
-60
-58
-58
-61
-61
-57
-58
-67
-83
-95
-89
-66
-34
3
23
5
-30
-46
-52
-57
-54
-59
-66
-53
-55
-75
-47
-46
-136
-152
-52
217
968
1669
1080
-343
-855
-388
-102
-137
-100
-66
-95
-75
-43
-42
-37
-24
-10
10
26
44
67
86
105
132
162
189
214
245
279
307
329
347
359
367
369
353
318
276
225
159
89
26
-28
-70
-96
-111
-119
-120
-119
-118
-108
-93
-84
-82
-84
-91
-96
-96
-103
-112
-110
-102
-105
-110
-113
-118
-125
-124
-118
-122
-130
-127
-123
-126
-124
-118
-119
-118
-112
-113
-119
-111
-102
-103
-102
-99
-96
-94
-91
-91
-85
-74
-69
-70
-75
-78
-72
-69
-77
-76
-69
-86
-103
-78
-47
-36
-7
26
0
-45
-45
-40
-55
-51
-40
-45
-41
-46
-53
-22
-33
-116
-112
24
369
1048
1388
572
-590
-772
-296
-84
-92
-51
-42
-55
-26
-11
-16
-3
11
19
36
53
60
75
101
122
139
170
204
221
228
244
263
279
291
297
296
291
280
258
228
190
141
89
42
5
-21
-38
-47
-46
-39
-33
-29
-28
-27
-24
-22
-25
-32
-37
-41
-49
-57
-62
-68
-77
-85
-90
-94
-97
-100
-103
-109
-113
-110
-109
-111
-108
-105
-113
-119
-114
-111
-112
-109
-105
-104
-102
-101
-98
-91
-88
-91
-89
-82
-83
-87
-83
-77
-79
-81
-78
-70
-65
-68
-72
-68
-64
-73
-90
-85
-58
-37
-19
11
16
-22
-51
-49
-51
-51
-45
-51
-47
-38
-55
-44
-15
-87
-150
-17
319
921
1426
896
-440
-1043
-600
-193
-141
-70
-6
-31
-19
15
18
32
52
56
63
80
94
111
126
140
158
180
197
216
243
266
278
292
311
323
324
322
319
306
284
257
220
166
106
56
18
-14
-37
-48
-53
-54
-49
-43
-45
-51
-54
-56
-60
-65
-73
-82
-89
-97
-108
-117
-121
-129
-137
-139
-139
-143
-143
-140
-141
-148
-151
-149
-150
-151
-148
-146
-147
-149
-148
-145
-143
-144
-143
-149
-169
-179
-155
-124
-103
-72
-53
-83
-119
-121
-120
-123
-120
-125
-124
-108
-122
-125
-85
-129
-221
-153
98
629
1333
1219
-80
-1086
-849
-322
-209
-155
-56
-65
-69
-26
-13
-2
24
34
47
72
87
100
121
144
169
196
219
246
278
306
328
351
372
382
383
382
376
356
324
279
225
164
105
49
2
-26
-41
-52
-54
-45
-34
-28
-25
-22
-25
-34
-40
-40
-42
-49
-54
-62
-75
-84
-84
-90
-103
-106
-101
-102
-105
-105
-105
-107
-107
-104
-98
-98
-108
-110
-102
-99
-101
-94
-84
-79
-77
-77
-85
-92
-88
-81
-84
-90
-93
-95
-89
-71
-46
-14
-4
-37
-75
-82
-79
-79
-85
-99
-92
-79
-99
-90
-59
-130
-193
-85
159
711
1411
1180
-137
-970
-652
-218
-168
-123
-48
-65
-64
-31
-27
-18
5
17
25
36
52
75
95
112
132
153
175
204
236
264
289
312
331
346
355
354
344
325
293
245
188
128
65
4
-44
-71
-88
-102
-109
-103
-92
-85
-80
-79
-81
-82
-80
-80
-81
-83
-85
-88
-95
-106
-114
-119
-125
-133
-138
-136
-133
-137
-142
-139
-133
-132
-138
-145
-139
-130
-130
-129
-121
-119
-122
-118
-113
-116
-118
-118
-126
-129
-110
-86
-69
-43
-20
-35
-72
-87
-80
-77
-78
-85
-92
-78
-75
-87
-59
-56
-133
-134
0
294
904
1301
601
-585
-863
-385
-124
-115
-59
-37
-56
-25
1
-1
11
24
28
42
56
67
88
113
131
151
178
206
228
251
280
307
325
336
346
351
346
330
304
269
226
175
116
62
21
-9
-32
-47
-55
-57
-51
-39
-33
-32
-24
-13
-16
-26
-25
-21
-22
-25
-34
-45
-47
-49
-58
-66
-66
-66
-68
-67
-69
-73
-70
-68
-70
-71
-68
-66
-61
-57
-61
-63
-59
-56
-57
-57
-56
-56
-55
-51
-46
-43
-44
-45
-45
-42
-39
-37
-37
-35
-33
-35
-36
-34
-33
-35
-35
-31
-25
-23
-28
-32
-32
-30
-30
-29
-29
-30
-30
-29
-31
-34
-33
-31
-35
-39
-38
-39
-43
-42
-41
-44
-48
-52
-55
-55
-53
-58
-63
-61
-58
-65
-72
-68
-62
-65
-74
-77
-71
-58
-47
-46
-60
-78
-78
-64
-74
-93
-80
-80
-98
-62
-64
-168
-146
73
465
1169
1550
652
-694
-927
-394
-177
-175
-73
-48
-81
-42
-14
-21
-2
19
23
35
58
76
92
108
123
143
164
186
212
241
268
289
307
324
336
343
349
356
357
344
318
281
234
180
120
66
26
-4
-31
-47
-46
-40
-37
-36
-35
-37
-36
-32
-34
-39
-39
-41
-53
-64
-65
-68
-82
-93
-98
-102
-104
-107
-114
-121
-124
-128
-129
-120
-113
-117
-122
-120
-119
-118
-111
-106
-106
-107
-104
-102
-105
-107
-105
-101
-96
-92
-88
-88
-87
-85
-84
-81
-78
-81
-82
-76
-71
-75
-77
-74
-72
-70
-68
-71
-76
-74
-67
-65
-67
-65
-61
-64
-68
-65
-62
-65
-68
-61
-52
-52
-54
-52
-52
-52
-44
-29
-21
-26
-40
-49
-43
-45
-51
-38
-43
-57
-21
-32
-130
-101
74
380
1072
1583
827
-521
-845
-346
-116
-126
-51
-31
-61
-27
-4
-9
11
28
30
43
58
71
91
110
127
150
175
199
223
245
269
297
325
346
362
369
367
355
334
305
264
212
151
89
29
-21
-60
-89
-108
-115
-113
-106
-96
-87
-82
-75
-65
-58
-56
-56
-57
-58
-58
-58
-59
-62
-68
-74
-79
-84
-87
-89
-90
-93
-94
-91
-84
-82
-85
-91
-93
-89
-84
-80
-76
-73
-74
-73
-69
-67
-65
-63
-60
-57
-54
-55
-55
-50
-43
-45
-51
-51
-48
-43
-40
-42
-45
-43
-40
-43
-46
-43
-41
-41
-38
-34
-34
-35
-33
-32
-32
-28
-27
-37
-42
-35
-34
-40
-40
-37
-38
-40
-43
-46
-42
-38
-41
-45
-44
-44
-46
-45
-45
-49
-47
-40
-39
-42
-41
-41
-44
-37
-20
-12
-24
-40
-41
-34
-44
-47
-34
-48
-49
-9
-53
-139
-56
148
542
1249
1433
386
-722
-695
-226
-122
-113
-30
-36
-53
-13
1
1
18
22
23
40
56
69
86
98
110
133
160
180
201
231
265
295
322
346
361
367
367
359
342
314
274
219
154
90
30
-24
-71
-109
-130
-136
-141
-142
-133
-121
-112
-102
-92
-87
-82
-77
-72
-72
-76
-76
-73
-74
-82
-88
-91
-92
-94
-99
-104
-105
-105
-107
-111
-111
-107
-103
-104
-106
-102
-97
-94
-90
-89
-92
-89
-84
-86
-89
-79
-70
-72
-75
-70
-70
-78
-76
-64
-62
-70
-67
-58
-58
-61
-58
-57
-56
-53
-51
-53
-54
-53
-53
-53
-54
-51
-50
-56
-57
-49
-46
-52
-53
-51
-55
-53
-47
-51
-59
-60
-54
-45
-30
-19
-22
-39
-46
-39
-44
-52
-37
-42
-63
-25
-29
-138
-125
31
299
1016
1689
1042
-411
-867
-363
-103
-135
-67
-36
-71
-38
-8
-17
-5
18
30
43
56
67
86
105
123
148
175
198
224
258
294
329
365
396
414
423
429
424
400
359
302
232
156
80
9
-54
-104
-140
-160
-169
-175
-177
-171
-160
-149
-139
-129
-119
-109
-99
-93
-92
-91
-88
-87
-87
-90
-92
-93
-93
-93
-96
-99
-98
-95
-96
-100
-100
-95
-91
-91
-91
-90
-83
-76
-79
-82
-75
-69
-73
-74
-70
-70
-73
-68
-61
-61
-61
-55
-53
-55
-53
-45
-44
-47
-43
-39
-38
-37
-34
-31
-28
-29
-30
-24
-20
-24
-27
-28
-30
-28
-24
-24
-25
-23
-21
-21
-21
-24
-26
-25
-21
-19
-24
-31
-31
-27
-25
-28
-31
-32
-32
-31
-28
-28
-37
-41
-32
-19
-9
-1
-7
-29
-34
-23
-34
-45
-24
-34
-52
-9
-35
-138
-69
165
566
1311
1634
612
-691
-797
-276
-129
-135
-42
-36
-61
-22
-10
-16
7
18
20
36
49
58
79
100
118
139
162
184
212
240
267
299
337
371
398
414
419
420
407
369
315
260
189
102
22
-48
-116
-162
-182
-196
-205
-201
-190
-178
-165
-156
-147
-135
-128
-124
-116
-112
-116
-115
-109
-110
-112
-117
-133
-145
-142
-139
-145
-148
-150
-157
-160
-154
-147
-145
-146
-145
-136
-130
-133
-135
-136
-135
-129
-124
-126
-125
-117
-111
-107
-102
-106
-108
-92
-75
-85
-98
-82
-63
-66
-74
-63
-48
-45
-47
-41
-29
-19
-20
-28
-26
-13
-5
-4
-4
-8
-12
-4
9
7
-3
1
7
0
8
41
43
-3
-20
7
11
18
88
121
29
-55
-29
-1
-17
4
23
7
58
78
-67
-128
-9
159
764
1691
1529
89
-785
-447
-92
-123
-74
-6
-71
-80
-21
-12
-13
10
8
-13
-13
17
67
102
99
108
146
162
171
221
264
266
292
362
415
432
442
453
438
394
359
311
187
47
-3
-21
-94
-164
-151
-114
-150
-218
-212
-163
-159
-173
-158
-133
-115
-111
-132
-145
-125
-101
-104
-127
-119
-61
-38
-91
-137
-139
-156
-162
-118
-93
-117
-114
-90
-124
-175
-156
-116
-127
-140
-135
-146
-131
-73
-74
-137
-145
-113
-119
-129
-112
-97
-86
-81
-90
-89
-77
-77
-73
-65
-82
-93
-59
-42
-80
-101
-86
-85
-88
-71
-66
-73
-67
-58
-55
-53
-58
-67
-62
-54
-55
-58
-56
-51
-51
-53
-58
-77
-100
-91
-45
-11
-21
-52
-59
-40
-46
-77
-70
-58
-90
-69
-28
-120
-177
-46
236
1044
2153
1932
165
-944
-574
-148
-189
-145
-62
-101
-90
-56
-67
-31
26
36
42
61
71
91
125
151
177
211
243
275
317
371
429
479
526
579
618
630
631
621
574
488
387
281
172
67
-29
-107
-162
-196
-219
-239
-249
-243
-235
-231
-220
-205
-197
-185
-167
-154
-150
-147
-143
-143
-146
-149
-148
-146
-154
-167
-173
-175
-181
-184
-182
-182
-184
-180
-176
-178
-180
-177
-173
-170
-166
-165
-164
-160
-154
-150
-146
-141
-139
-141
-140
-136
-131
-129
-130
-127
-121
-119
-116
-110
-107
-105
-100
-94
-92
-94
-101
-118
-145
-157
-120
-54
-22
-41
-70
-74
-58
-58
-70
-59
-55
-76
-51
-38
-134
-164
-22
316
1166
2074
1602
-33
-826
-399
-69
-129
-94
-37
-74
-62
-27
-35
-25
2
9
16
35
53
72
95
116
139
169
206
245
284
328
378
431
478
514
542
558
555
529
477
403
314
215
116
26
-45
-97
-135
-162
-179
-190
-193
-188
-182
-178
-171
-163
-155
-149
-144
-140
-137
-136
-137
-136
-135
-140
-149
-152
-155
-161
-164
-166
-169
-169
-166
-167
-171
-170
-170
-172
-168
-162
-162
-164
-158
-151
-150
-147
-143
-141
-146
-161
-183
-198
-202
-188
-137
-73
-56
-86
-105
-103
-99
-93
-95
-101
-87
-87
-104
-78
-89
-183
-182
-23
420
1402
2080
1172
-433
-831
-291
-90
-170
-113
-84
-116
-83
-57
-66
-46
-23
-21
-8
15
35
53
75
99
127
157
189
229
275
319
361
406
448
475
488
491
474
431
367
289
197
102
18
-50
-106
-147
-174
-190
-196
-194
-190
-188
-184
-177
-169
-159
-151
-148
-146
-138
-135
-140
-140
-138
-143
-152
-154
-156
-162
-167
-172
-176
-174
-168
-167
-168
-167
-170
-191
-215
-221
-212
-192
-139
-73
-64
-108
-130
-122
-120
-119
-116
-113
-97
-102
-121
-84
-85
-188
-194
-42
374
1387
2203
1346
-410
-935
-350
-83
-171
-121
-80
-113
-81
-47
-53
-33
-8
-4
9
33
55
75
95
121
156
189
221
263
307
348
392
437
472
494
506
506
486
441
372
286
194
106
24
-51
-102
-132
-154
-168
-169
-165
-160
-151
-140
-136
-134
-132
-130
-133
-137
-141
-147
-155
-160
-163
-170
-179
-182
-185
-190
-192
-190
-189
-194
-201
-199
-190
-184
-187
-188
-182
-176
-175
-173
-167
-162
-161
-162
-159
-155
-150
-142
-137
-135
-137
-145
-158
-161
-154
-134
-81
-21
-18
-60
-77
-71
-71
-67
-69
-77
-64
-68
-85
-41
-45
-158
-134
70
497
1461
2162
1172
-598
-1020
-367
-91
-144
-60
-31
-75
-35
-6
-22
-2
28
37
52
76
94
111
129
148
173
202
231
261
293
330
369
405
436
458
473
484
485
469
437
385
305
215
135
60
-12
-66
-98
-118
-129
-130
-121
-109
-105
-113
-114
-105
-100
-108
-120
-124
-128
-137
-144
-146
-153
-162
-166
-175
-189
-192
-187
-189
-194
-196
-195
-189
-179
-177
-179
-176
-172
-170
-167
-163
-160
-156
-151
-148
-148
-147
-140
-131
-127
-129
-130
-129
-137
-151
-155
-148
-144
-126
-69
-22
-42
-83
-91
-84
-78
-74
-83
-74
-54
-76
-69
-21
-95
-175
-46
215
858
1880
1849
186
-1089
-769
-195
-175
-146
-31
-62
-69
-12
-12
-10
26
35
38
68
94
108
128
153
180
206
229
252
279
310
342
376
406
430
448
456
454
442
415
369
304
230
155
79
9
-46
-88
-119
-129
-124
-120
-122
-119
-113
-113
-118
-121
-123
-128
-133
-138
-149
-159
-165
-172
-183
-188
-191
-202
-209
-203
-203
-210
-210
-204
-200
-198
-193
-190
-188
-184
-180
-176
-170
-164
-160
-157
-153
-147
-139
-131
-127
-127
-121
-111
-103
-102
-112
-132
-145
-141
-123
-77
-9
22
-5
-37
-40
-36
-27
-19
-32
-29
-7
-25
-23
27
-38
-142
-63
169
824
1975
2218
723
-688
-575
-50
-48
-96
-14
-30
-43
4
11
10
37
48
58
81
92
