# session 17
-100
-124
-51
-105
-404
-651
-646
-577
-578
-568
-532
-518
-509
-489
-477
-462
-424
-379
-343
-308
-276
-275
-304
-313
-293
-287
-275
-247
-259
-245
-181
-241
-337
-223
30
677
1860
2112
456
-1153
-1049
-415
-326
-287
-131
-130
-139
-64
-33
-15
38
82
126
192
263
337
413
482
544
588
595
576
553
517
456
384
311
234
160
101
49
2
-32
-55
-68
-69
-63
-59
-49
-42
-50
-55
-58
-82
-99
-112
-170
-163
-2
47
-238
-574
-648
-658
-884
-1035
-687
-156
-58
-251
-231
-60
-15
-31
-1
19
23
61
137
251
397
551
710
878
1047
1212
1355
1431
1411
1292
1089
838
574
315
86
-88
-205
-281
-320
-329
-330
-329
-322
-314
-306
-295
-289
-287
-281
-272
-270
-267
-259
-252
-253
-257
-258
-255
-251
-248
-248
-244
-237
-232
-230
-226
-222
-218
-212
-204
-197
-192
-187
-181
-173
-166
-162
-156
-145
-136
-131
-128
-125
-122
-117
-114
-112
-110
-110
-108
-104
-102
-100
-97
-95
-92
-88
-86
-93
-110
-133
-146
-140
-114
-68
-17
1
-33
-69
-65
-67
-83
-66
-63
-91
-55
-55
-184
-203
-67
261
1276
2341
1661
-289
-1087
-539
-201
-247
-156
-88
-122
-82
-33
-23
22
78
116
170
242
315
396
480
555
613
643
642
621
581
520
437
337
236
144
53
-35
-103
-150
-176
-177
-173
-176
-161
-143
-145
-131
-127
-179
-117
106
76
-396
-828
-904
-879
-796
-412
-22
-148
-539
-577
-286
-71
-16
12
60
123
208
308
418
531
643
757
866
966
1061
1130
1138
1074
951
782
582
381
198
36
-103
-215
-302
-365
-401
-409
-407
-410
-406
-388
-374
-371
-364
-353
-342
-329
-322
-323
-322
-312
-300
-288
-285
-295
-296
-283
-273
-266
-256
-251
-254
-254
-248
-239
-228
-222
-221
-214
-197
-186
-185
-179
-167
-163
-163
-154
-146
-154
-175
-186
-182
-176
-170
-147
-106
-84
-89
-87
-70
-77
-78
-52
-67
-83
-29
-63
-177
-114
58
495
1640
2357
1086
-812
-1104
-427
-220
-217
-58
-33
-74
-11
28
32
81
134
173
234
308
386
474
566
649
708
729
721
693
635
541
425
313
211
114
24
-51
-103
-134
-145
-139
-126
-115
-106
-99
-95
-95
-99
-107
-127
-159
-192
-227
-249
-237
-234
-234
-153
-84
-179
-240
-34
237
229
-95
-379
-207
243
347
27
-230
-254
-242
-249
-229
-199
-169
-124
-78
-30
35
118
214
320
429
536
638
723
776
789
763
698
594
456
294
119
-51
-187
-267
-299
-306
-302
-291
-283
-280
-278
-275
-276
-278
-279
-281
-286
-292
-297
-303
-310
-313
-310
-308
-308
-306
-300
-295
-294
-304
-329
-351
-351
-336
-304
-255
-224
-225
-226
-218
-214
-203
-200
-204
-184
-180
-198
-154
-145
-261
-286
-169
181
1247
2308
1562
-438
-1223
-626
-245
-273
-176
-106
-138
-95
-40
-30
13
76
123
184
263
350
445
539
620
679
705
704
681
616
511
391
272
157
49
-46
-121
-173
-206
-218
-209
-196
-182
-153
-137
-134
-102
-99
-146
-55
160
85
-379
-770
-865
-902
-870
-497
-27
15
-246
-296
-117
3
36
82
141
211
304
404
509
627
740
849
969
1089
1187
1248
1256
1194
1059
863
636
413
217
52
-82
-188
-269
-321
-346
-358
-363
-357
-348
-344
-336
-321
-308
-302
-298
-292
-287
-283
-280
-277
-279
-280
-275
-268
-266
-265
-262
-262
-261
-256
-251
-250
-246
-235
-228
-227
-225
-220
-213
-206
-198
-194
-191
-187
-179
-172
-169
-166
-161
-155
-154
-156
-155
-151
-146
-141
-146
-167
-191
-196
-194
-185
-147
-96
-81
-103
-115
-101
-95
-108
-94
-78
-106
-90
-43
-132
-207
-105
98
845
2138
2219
399
-1053
-805
-261
-244
-191
-60
-90
-96
-33
-21
-4
53
95
138
205
276
353
445
540
618
670
696
697
671
616
533
430
318
209
108
14
-66
-124
-161
-178
-178
-167
-150
-132
-125
-120
-107
-111
-126
-122
-145
-183
-116
-27
-131
-323
-307
-116
-93
-314
-340
57
324
50
-309
-330
-237
-231
-217
-167
-121
-57
28
108
193
296
416
548
684
821
953
1045
1071
1031
931
775
587
391
196
9
-150
-266
-339
-379
-399
-405
-401
-391
-380
-369
-360
-353
-345
-338
-332
-328
-324
-322
-322
-320
-317
-313
-309
-305
-302
-297
-293
-289
-286
-283
-279
-273
-270
-268
-260
-252
-249
-243
-232
-226
-226
-236
-260
-275
-270
-256
-230
-184
-149
-144
-148
-140
-125
-130
-138
-118
-119
-138
-94
-98
-215
-214
-85
266
1356
2402
1595
-395
-1118
-531
-199
-227
-118
-56
-91
-46
3
11
54
109
149
208
282
358
449
544
624
687
725
732
712
667
593
491
375
261
156
57
-30
-94
-130
-146
-144
-131
-116
-108
-101
-90
-93
-108
-100
-107
-168
-154
-31
-32
-228
-335
-207
-102
-219
-262
52
332
136
-217
-289
-213
-207
-204
-160
-118
-65
11
86
164
261
375
501
641
788
930
1040
1089
1070
984
834
639
427
218
22
-144
-267
-346
-394
-421
-433
-433
-429
-423
-413
-403
-396
-389
-383
-378
-374
-370
-365
-361
-359
-359
-358
-354
-350
-345
-337
-327
-318
-316
-317
-317
-314
-309
-314
-336
-352
-349
-337
-310
-260
-222
-213
-211
-206
-195
-182
-186
-179
-155
-172
-171
-111
-165
-279
-207
-4
589
1811
2248
716
-992
-1016
-372
-246
-229
-90
-88
-99
-25
-1
5
58
108
148
210
284
368
466
558
630
683
712
715
695
648
567
464
358
243
117
8
-64
-103
-118
-119
-113
-99
-88
-88
-81
-73
-88
-96
-90
-145
-184
-20
179
38
-352
-575
-612
-727
-768
-447
-89
-152
-376
-319
-116
-35
-19
25
67
111
180
259
349
461
589
726
879
1039
1193
1313
1360
1320
1205
1027
799
550
307
89
-87
-212
-296
-352
-385
-400
-405
-402
-398
-396
-393
-387
-381
-374
-370
-369
-368
-367
-366
-363
-359
-359
-359
-358
-356
-353
-350
-346
-341
-337
-336
-337
-331
-321
-313
-311
-323
-350
-370
-364
-345
-320
-285
-253
-235
-226
-224
-219
-211
-217
-211
-188
-205
-203
-151
-216
-328
-265
-89
535
1869
2389
831
-951
-1020
-394
-283
-274
-134
-131
-149
-83
-54
-38
16
63
111
186
266
347
440
533
609
664
695
699
677
627
548
448
342
238
134
41
-30
-77
-101
-105
-101
-93
-82
-80
-81
-78
-91
-102
-91
-120
-165
-91
-19
-207
-496
-510
-292
-206
-288
-161
234
378
66
-227
-218
-145
-150
-136
-83
-34
28
109
191
272
366
481
615
753
890
1018
1108
1128
1085
992
848
667
472
277
93
-68
-196
-286
-333
-349
-355
-361
-362
-355
-346
-337
-328
-320
-317
-313
-311
-311
-311
-308
-307
-307
-304
-299
-294
-290
-290
-291
-282
-271
-269
-265
-254
-253
-254
-243
-234
-234
-227
-217
-214
-207
-191
-179
-176
-176
-173
-172
-173
-166
-153
-147
-151
-158
-172
-182
-185
-189
-183
-144
-95
-80
-95
-102
-87
-82
-97
-87
-70
-99
-85
-33
-121
-197
-68
158
866
2090
2120
268
-1184
-888
-294
-252
-174
-26
-58
-61
10
22
38
92
128
170
239
301
367
457
527
566
617
675
686
645
592
532
451
355
267
187
105
30
-23
-59
-86
-100
-97
-89
-89
-90
-87
-95
-106
-107
-124
-159
-165
-178
-229
-189
-85
-151
-299
-224
-16
-36
-372
-664
-470
29
180
-82
-242
-176
-136
-153
-139
-112
-83
-34
18
70
139
220
307
404
507
615
719
798
837
835
793
707
587
448
291
122
-35
-157
-231
-262
-266
-261
-258
-256
-252
-246
-245
-248
-250
-250
-251
-254
-257
-260
-261
-260
-255
-251
-252
-252
-248
-243
-238
-234
-229
-223
-219
-215
-209
-203
-199
-198
-194
-185
-176
-171
-170
-166
-162
-161
-162
-159
-158
-156
-151
-161
-197
-230
-235
-228
-208
-154
-101
-98
-119
-122
-109
-112
-125
-114
-103
-119
-98
-76
-164
-231
-173
54
879
2012
1828
147
-914
-558
-130
-170
-150
-62
-83
-77
-29
-16
9
52
83
127
190
250
317
394
459
506
538
543
525
494
449
381
300
219
141
63
-4
-49
-78
-95
-101
-103
-100
-88
-86
-97
-84
-83
-126
-88
53
102
70
180
373
363
166
147
394
425
-8
-424
-445
-320
-285
-268
-204
-109
-7
58
99
165
252
334
419
509
599
690
766
794
764
682
557
406
246
92
-40
-143
-227
-294
-336
-359
-370
-375
-376
-367
-351
-342
-338
-328
-316
-309
-300
-291
-287
-282
-273
-268
-267
-263
-260
-258
-255
-248
-239
-233
-232
-228
-220
-214
-213
-210
-200
-191
-190
-186
-175
-165
-159
-150
-143
-138
-133
-127
-120
-108
-97
-97
-102
-99
-89
-83
-78
-73
-71
-70
-65
-61
-56
-50
-47
-45
-46
-60
-82
-94
-93
-79
-40
12
34
17
-10
-14
-2
-11
-23
-3
-8
-26
23
4
-132
-114
75
508
1565
2344
1305
-551
-1022
-423
-172
-184
-62
-27
-63
-10
24
18
55
104
139
186
241
296
361
429
491
548
583
595
598
588
557
511
437
321
224
196
165
90
50
39
-36
-112
-84
-46
-72
-62
-29
-85
-149
-137
-161
-165
11
100
-255
-764
-949
-906
-879
-689
-314
-214
-491
-632
-425
-193
-97
-14
83
161
242
276
227
254
444
595
596
610
704
777
794
784
756
687
540
370
264
173
27
-111
-195
-266
-326
-352
-366
-375
-365
-353
-349
-331
-311
-319
-329
-317
-308
-299
-277
-272
-280
-268
-266
-294
-306
-285
-267
-260
-253
-245
-234
-217
-205
-208
-220
-212
-179
-158
-138
-94
-93
-157
-158
-90
-91
-132
-105
-77
-97
-87
-52
-51
-45
-9
12
8
0
-2
0
-11
-33
-35
-24
-20
5
46
52
22
9
21
21
-1
-1
13
-8
-4
28
-56
-147
-31
266
938
1852
1699
97
-1077
-796
-268
-196
-120
3
-18
-18
41
48
56
101
135
167
218
272
326
390
454
512
559
586
595
595
583
556
520
458
355
238
139
67
25
-9
-55
-89
-92
-94
-106
-103
-96
-95
-99
-128
-168
-176
-189
-228
-236
-263
-336
-274
-132
-266
-575
-606
-417
-432
-675
-738
-360
133
233
2
-149
-153
-147
-144
-135
-125
-80
-26
-2
29
95
177
260
342
435
548
650
716
767
797
780
722
637
525
395
247
76
-74
-171
-240
-291
-298
-274
-255
-249
-248
-254
-262
-254
-241
-255
-280
-281
-280
-303
-312
-294
-295
-311
-301
-282
-291
-298
-277
-267
-284
-285
-266
-262
-286
-317
-327
-304
-264
-223
-185
-166
-176
-195
-190
-164
-162
-174
-158
-156
-180
-134
-112
-237
-296
-180
168
1196
2329
1784
-152
-1077
-577
-190
-236
-174
-102
-132
-96
-43
-39
-9
44
81
132
202
265
329
409
490
553
598
623
620
592
543
465
356
246
147
50
-39
-104
-143
-169
-180
-173
-162
-153
-133
-119
-129
-117
-99
-138
-107
92
126
-280
-739
-803
-642
-494
-199
204
276
-24
-233
-179
-93
-78
-64
-32
11
76
153
232
320
410
500
598
699
798
893
971
1004
986
915
788
617
439
271
114
-18
-117
-192
-247
-278
-289
-292
-293
-290
-278
-263
-256
-249
-237
-226
-219
-215
-211
-205
-198
-198
-199
-192
-182
-182
-185
-185
-181
-176
-177
-181
-176
-166
-162
-163
-160
-151
-145
-143
-141
-137
-136
-133
-126
-123
-123
-116
-109
-111
-110
-99
-95
-104
-110
-106
-106
-109
-104
-97
-98
-98
-96
-98
-101
-95
-88
-88
-90
-89
-91
-94
-94
-93
-96
-106
-119
-125
-120
-103
-70
-33
-26
-63
-95
-83
-76
-97
-86
-71
-103
-84
-54
-170
-228
-77
208
1060
2266
2039
113
-1127
-758
-287
-296
-221
-113
-147
-131
-72
-67
-45
4
34
75
131
181
240
314
386
454
512
548
562
567
559
529
472
398
313
224
136
52
-22
-82
-125
-149
-156
-154
-151
-149
-142
-142
-145
-142
-152
-174
-174
-197
-251
-188
-38
-128
-491
-719
-644
-589
-683
-565
-153
18
-262
-484
-359
-152
-39
26
35
25
81
177
261
357
477
598
730
880
1033
1180
1293
1335
1303
1211
1051
832
591
361
147
-45
-198
-304
-369
-406
-425
-426
-420
-410
-392
-369
-351
-339
-329
-318
-305
-293
-283
-274
-263
-258
-255
-250
-245
-239
-231
-224
-221
-217
-211
-208
-203
-196
-192
-186
-175
-169
-168
-163
-152
-142
-137
-134
-130
-123
-117
-116
-116
-116
-110
-97
-87
-88
-87
-75
-68
-68
-64
-64
-68
-65
-60
-61
-59
-53
-57
-65
-70
-78
-82
-79
-75
-43
28
58
21
22
62
2
-124
-138
-83
-104
-99
-42
-135
-237
-125
81
766
2100
2375
596
-1050
-918
-330
-291
-254
-117
-141
-139
-67
-68
-51
24
51
51
90
147
209
289
371
446
518
567
581
581
573
535
452
347
247
156
60
-41
-129
-189
-228
-249
-256
-258
-259
-251
-239
-229
-223
-228
-237
-234
-240
-261
-271
-298
-334
-295
-262
-336
-278
99
497
541
167
-287
-276
180
370
38
-296
-352
-335
-341
-312
-273
-240
-184
-116
-58
5
84
178
287
404
523
641
749
821
843
822
765
667
533
380
215
48
-100
-208
-274
-305
-309
-295
-270
-245
-227
-211
-196
-182
-169
-161
-161
-159
-153
-149
-148
-145
-142
-143
-139
-128
-117
-110
-106
-101
-95
-86
-75
-67
-62
-56
-48
-38
-28
-19
-18
-17
-12
-4
1
4
7
12
14
14
18
22
24
27
31
31
29
29
30
28
27
24
12
-9
-30
-40
-39
-22
16
57
62
25
-18
-32
-28
-42
-61
-52
-67
-106
-74
-77
-221
-266
-141
183
1190
2288
1661
-318
-1214
-713
-369
-430
-368
-316
-367
-346
-313
-328
-314
-285
-273
-249
-215
-185
-146
-93
-39
6
42
