# session 20
27
29
42
16
-36
-42
-17
-12
-18
-20
-33
-37
-23
-27
-51
-60
-56
-60
-67
-73
-78
-84
-96
-111
-120
-120
-117
-119
-122
-118
-117
-133
-141
-128
-124
-132
-125
-114
-120
-130
-123
-113
-116
-116
-102
-98
-109
-108
-95
-91
-96
-99
-95
-85
-79
-83
-84
-81
-92
-102
-96
-91
-92
-92
-104
-128
-136
-133
-136
-120
-65
-17
-24
-68
-94
-80
-73
-99
-102
-72
-99
-128
-71
-101
-235
-197
-25
375
1381
2043
969
-712
-1006
-414
-234
-276
-176
-153
-180
-134
-113
-116
-78
-50
-44
-16
26
60
99
140
181
231
282
325
379
436
473
498
528
546
539
520
486
426
346
265
192
125
63
22
6
-14
-38
-36
-34
-56
-47
-42
-101
-29
214
112
-586
-1260
-1410
-1270
-1010
-529
-142
-256
-579
-622
-434
-249
-94
18
73
137
214
269
347
442
466
453
504
603
685
744
801
865
925
949
930
883
790
658
532
413
269
120
9
-74
-157
-227
-274
-303
-315
-314
-313
-307
-291
-282
-281
-272
-263
-258
-249
-242
-241
-234
-225
-228
-229
-224
-223
-220
-209
-198
-191
-189
-189
-183
-179
-190
-195
-183
-176
-178
-175
-166
-158
-153
-153
-159
-159
-150
-140
-136
-140
-139
-127
-118
-119
-118
-109
-100
-96
-94
-90
-88
-88
-77
-58
-55
-63
-57
-45
-42
-40
-32
-33
-43
-51
-53
-51
-34
2
34
35
12
-11
-11
-1
-17
-41
-22
-14
-44
-18
-9
-131
-155
21
310
1027
1818
1273
-388
-1142
-648
-254
-236
-136
-66
-110
-88
-38
-39
-31
-7
12
46
80
103
136
181
216
251
304
359
394
423
462
505
536
552
557
550
527
482
418
344
268
194
124
67
31
4
-20
-32
-41
-63
-75
-74
-91
-97
-90
-144
-149
34
65
-467
-1237
-1635
-1640
-1523
-1244
-789
-519
-601
-652
-401
-78
74
115
147
170
186
227
295
358
413
483
570
668
779
888
973
1058
1165
1255
1277
1227
1120
966
779
575
371
181
12
-129
-232
-303
-348
-363
-361
-368
-381
-387
-385
-374
-356
-340
-325
-298
-275
-279
-298
-303
-294
-290
-291
-280
-263
-264
-280
-285
-276
-271
-268
-259
-249
-251
-251
-234
-216
-217
-219
-207
-189
-180
-167
-117
-44
-8
-22
-75
-167
-242
-232
-185
-169
-159
-142
-158
-190
-190
-181
-180
-147
-99
-102
-126
-113
-92
-104
-129
-129
-103
-107
-121
-76
-99
-227
-193
-15
286
1194
2093
1324
-522
-1157
-553
-215
-232
-112
-43
-94
-73
-29
-23
6
51
79
94
110
150
213
264
293
334
398
462
510
547
585
621
642
643
628
592
526
438
356
280
190
101
38
-25
-90
-107
-85
-75
-89
-110
-112
-101
-115
-134
-131
-136
-101
16
-2
-337
-747
-939
-985
-983
-758
-304
-72
-300
-576
-506
-243
-77
-34
-15
24
60
75
106
176
247
306
383
480
568
642
725
832
945
1036
1094
1105
1048
940
807
640
439
247
87
-52
-175
-266
-321
-353
-372
-382
-385
-381
-364
-348
-341
-327
-311
-310
-315
-307
-297
-294
-290
-280
-268
-262
-267
-273
-270
-260
-257
-269
-273
-250
-230
-239
-249
-233
-215
-216
-215
-195
-181
-191
-201
-191
-177
-179
-176
-155
-152
-191
-221
-201
-172
-157
-125
-85
-82
-120
-151
-124
-85
-114
-143
-114
-127
-136
-55
-92
-230
-147
109
645
1661
1936
436
-1147
-1104
-449
-305
-259
-104
-96
-99
-25
-11
-16
19
41
65
121
160
180
220
272
316
356
403
454
506
549
585
623
637
611
576
546
485
397
314
218
119
54
1
-55
-73
-73
-91
-91
-68
-81
-115
-114
-102
-115
-125
-129
-170
-213
-214
-255
-316
-221
-87
-218
-481
-544
-485
-570
-793
-834
-437
93
212
-10
-123
-88
-92
-105
-72
-41
-16
19
48
72
119
187
256
334
434
531
600
671
769
856
905
931
941
914
843
744
621
470
304
137
-24
-145
-208
-251
-277
-258
-242
-267
-267
-227
-215
-229
-224
-215
-216
-216
-225
-244
-246
-241
-245
-242
-234
-246
-262
-259
-255
-255
-246
-242
-250
-249
-237
-224
-211
-213
-228
-226
-214
-213
-211
-201
-205
-227
-248
-261
-259
-238
-198
-142
-106
-133
-175
-174
-163
-163
-155
-162
-169
-147
-156
-165
-122
-181
-300
-233
-20
543
1643
1992
550
-1000
-974
-347
-237
-257
-154
-146
-152
-99
-85
-85
-57
-29
0
38
78
117
152
187
237
299
355
406
453
496
534
556
556
547
533
480
387
292
209
125
44
-21
-64
-78
-76
-79
-70
-50
-64
-78
-45
-60
-92
91
253
-210
-1106
-1579
-1450
-1150
-743
-225
-24
-269
-475
-391
-227
-94
37
121
154
195
229
248
302
394
475
548
640
738
802
834
884
959
1008
1004
969
908
810
689
557
410
260
128
16
-72
-142
-204
-248
-269
-284
-296
-295
-289
-279
-262
-249
-247
-243
-231
-223
-222
-218
-206
-198
-202
-197
-182
-178
-186
-186
-178
-172
-166
-159
-157
-155
-147
-142
-143
-145
-143
-141
-138
-132
-121
-107
-102
-113
-114
-102
-94
-86
-73
-75
-85
-77
-63
-61
-60
-50
-44
-50
-54
-49
-42
-46
-52
-47
-39
-37
-36
-36
-42
-49
-45
-36
-36
-44
-46
-41
-39
-42
-41
-39
-43
-48
-49
-47
-44
-45
-54
-63
-71
-76
-71
-59
-46
-19
4
-12
-54
-76
-69
-61
-76
-83
-62
-75
-96
-49
-77
-201
-148
93
550
1455
1932
796
-842
-1123
-526
-291
-270
-143
-116
-143
-90
-61
-75
-56
-27
-5
27
58
86
121
158
189
221
257
299
341
381
417
447
462
475
492
493
471
444
404
334
256
192
131
72
29
-5
-43
-65
-72
-82
-92
-98
-109
-114
-123
-152
-158
-164
-233
-213
-42
-148
-763
-1356
-1457
-1310
-1231
-1044
-589
-209
-215
-362
-308
-122
4
53
86
141
195
194
177
219
298
366
441
536
636
744
867
990
1097
1181
1224
1209
1130
1004
845
660
461
271
101
-49
-169
-257
-323
-363
-373
-365
-350
-333
-319
-308
-293
-278
-265
-247
-233
-233
-234
-226
-217
-211
-207
-209
-215
-215
-208
-202
-201
-199
-194
-191
-192
-188
-174
-163
-165
-167
-159
-148
-138
-129
-128
-132
-131
-121
-110
-104
-102
-96
-85
-80
-79
-74
-66
-63
-63
-59
-51
-45
-47
-51
-57
-60
-52
-45
-49
-47
-39
-44
-50
-44
-46
-59
-70
-73
-60
-37
-18
6
30
16
-28
-56
-52
-45
-58
-64
-40
-49
-76
-41
-71
-187
-126
90
480
1364
1925
864
-792
-1104
-496
-258
-257
-137
-105
-133
-85
-56
-58
-35
-13
3
32
60
89
128
163
198
245
292
334
384
433
467
494
518
532
537
531
495
428
351
272
187
108
46
-8
-59
-90
-97
-102
-111
-107
-101
-111
-119
-125
-144
-142
-149
-210
-163
13
-136
-809
-1431
-1525
-1339
-1168
-864
-407
-191
-356
-501
-351
-109
22
93
162
185
168
183
229
271
325
407
494
575
668
777
893
1008
1113
1194
1233
1215
1142
1018
852
658
464
281
106
-49
-165
-244
-301
-339
-355
-358
-355
-339
-322
-320
-319
-301
-282
-277
-273
-259
-244
-239
-241
-246
-245
-238
-233
-229
-227
-231
-232
-220
-209
-212
-220
-217
-206
-198
-200
-203
-194
-181
-176
-179
-176
-168
-161
-149
-141
-145
-147
-129
-114
-120
-128
-123
-119
-119
-114
-107
-102
-104
-107
-102
-95
-96
-98
-92
-91
-106
-116
-109
-100
-90
-55
-9
-3
-35
-62
-59
-45
-54
-60
-38
-50
-74
-22
-36
-168
-136
62
437
1409
2209
1256
-606
-1132
-521
-236
-244
-119
-79
-118
-70
-36
-43
-11
23
34
65
105
131
161
202
247
294
342
393
449
501
540
571
589
593
591
575
530
463
383
287
184
92
13
-53
-96
-121
-139
-143
-135
-132
-136
-135
-136
-144
-149
-160
-184
-187
-203
-261
-226
-93
-196
-632
-986
-1000
-924
-976
-915
-495
-34
7
-212
-258
-140
-82
-85
-66
-33
0
35
71
121
185
252
321
400
486
584
695
814
928
1028
1096
1120
1098
1035
929
783
612
437
262
90
-61
-176
-262
-322
-352
-355
-347
-341
-331
-313
-294
-286
-286
-279
-271
-268
-269
-267
-261
-258
-260
-261
-257
-254
-255
-252
-242
-240
-243
-239
-229
-225
-221
-211
-204
-202
-201
-197
-190
-184
-179
-172
-166
-161
-154
-144
-138
-139
-140
-129
-117
-118
-126
-124
-127
-150
-168
-158
-137
-106
-61
-39
-59
-79
-81
-76
-72
-83
-83
-55
-69
-97
-51
-76
-199
-152
39
430
1403
2074
1014
-720
-1065
-443
-211
-228
-111
-80
-113
-65
-35
-39
-12
14
26
54
89
121
161
206
248
295
351
410
462
509
554
590
613
626
619
577
512
435
345
241
140
52
-24
-82
-111
-121
-125
-118
-107
-107
-106
-100
-120
-132
-116
-150
-164
-3
73
-339
-988
-1284
-1219
-1105
-850
-344
-17
-179
-442
-405
-210
-82
-9
36
50
75
122
171
224
289
357
427
500
574
651
738
836
931
1006
1053
1065
1031
942
810
656
487
303
132
-4
-110
-196
-258
-298
-321
-328
-329
-328
-321
-309
-301
-295
-285
-274
-267
-257
-245
-241
-246
-244
-237
-237
-240
-236
-227
-225
-229
-229
-223
-218
-221
-227
-222
-212
-210
-212
-206
-200
-203
-204
-196
-192
-197
-200
-195
-191
-205
-231
-246
-240
-221
-188
-151
-140
-150
-158
-163
-161
-153
-158
-158
-137
-150
-160
-109
-148
-258
-179
39
496
1467
1924
686
-912
-1057
-438
-254
-247
-127
-111
-133
-82
-59
-59
-24
6
26
62
99
131
170
216
264
316
370
427
484
535
578
614
640
650
636
597
534
449
350
252
160
76
10
-35
-64
-77
-81
-77
-68
-70
-82
-75
-72
-97
-96
-98
-155
-99
73
-106
-784
-1354
-1386
-1167
-968
-648
-228
-69
-242
-369
-254
-81
-3
19
40
72
113
153
197
254
315
380
455
540
631
728
836
952
1062
1149
1206
1210
1141
1012
853
672
474
280
107
-44
-171
-263
-315
-344
-363
-370
-367
-362
-357
-350
-344
-335
-320
-305
-298
-295
-285
-272
-267
-269
-268
-265
-265
-263
-259
-255
-248
-241
-240
-239
-236
-233
-231
-223
-213
-213
-216
-203
-187
-191
-195
-174
-158
-167
-172
-158
-150
-146
-138
-134
-133
-125
-117
-116
-116
-108
-101
-103
-114
-132
-140
-134
-130
-115
-60
-13
-28
-61
-64
-55
-53
-61
-59
-28
-28
-58
-19
-29
-155
-113
103
453
1405
2318
1470
-497
-1170
-551
-227
-250
-112
-52
-111
-67
-18
-36
-22
18
41
69
95
108
137
184
226
269
327
390
444
489
530
568
594
605
606
584
530
459
379
277
167
72
-13
-92
-148
-177
-193
-195
-191
-191
-187
-179
-187
-197
-196
-207
-222
-226
-242
-256
-260
-307
-328
-215
-141
-309
-547
-616
-620
-799
-1042
-895
-318
61
-75
-276
-220
-112
-98
-92
-70
-57
-29
22
72
123
192
268
339
429
545
660
770
897
1029
1128
1186
1205
1175
1094
966
799
607
408
207
15
-144
-265
-345
-378
-382
-382
-376
-360
-348
-340
-329
-319
-309
-293
-280
-281
-284
-279
-272
-263
-253
-252
-256
-252
-246
-245
-240
-230
-226
-225
-217
-207
-204
-203
-198
-190
-182
-172
-167
-166
-162
-154
-148
-145
-139
-128
-119
-119
-121
-121
-121
-130
-150
-157
-146
-139
-120
-64
-25
-42
-64
-63
-59
-60
-71
-77
-57
-62
-79
-31
-55
-186
-159
9
402
1486
2381
1409
-515
-1071
-478
-223
-255
-136
-94
-137
-97
-65
-72
-47
-21
-9
17
48
78
118
161
203
258
323
388
452
510
560
601
626
631
615
567
489
393
285
172
60
-44
-132
-194
-228
-248
-255
-248
-236
-223
-204
-196
-202
-198
-196
-215
-212
-209
-259
-243
-103
-103
-371
-602
-594
-570
-733
-833
-516
-42
1
-312
-436
-302
-197
-163
-103
-28
29
64
81
114
179
248
316
402
500
605
726
858
978
1079
1151
1171
1131
1043
904
720
519
318
123
-51
-188
-291
-359
-392
-406
-414
-411
-398
-378
-356
-339
-324
-306
-288
-279
-270
-251
-236
-234
-232
-226
-221
-211
-196
-184
-174
-164
-162
-167
-164
-151
-141
-134
-130
-127
-122
-112
-104
-98
-87
-80
-82
-78
-65
-62
-65
-55
-39
-33
-38
-38
-30
-23
-20
-16
-13
-14
-7
6
10
7
13
24
27
25
28
35
44
51
50
45
47
52
55
57
60
59
57
59
58
55
54
58
58
54
52
53
51
50
49
45
45
51
55
51
42
35
34
39
41
34
24
23
28
29
27
23
15
12
14
9
5
7
2
-11
-16
-15
-19
-19
-16
-19
-34
-53
-61
-43
-11
1
-27
-59
-56
-49
-73
-76
-71
-103
-90
-63
-168
-215
-61
163
831
1895
1783
90
-1066
-733
-281
-305
-261
-169
-213
-209
-154
-155
-154
-125
-106
-89
-67
-44
-10
24
50
83
131
183
227
267
313
361
395
414
431
449
451
428
387
332
258
164
69
-10
-78
-137
-180
-204
-211
-211
-214
-207
-202
-217
-207
-188
-238
-229
-26
52
-365
-1022
-1453
-1624
-1608
-1231
-615
-372
-651
-856
-661
-368
-181
-37
62
93
123
180
234
282
341
420
511
599
684
776
870
967
1075
1188
1278
1312
1268
1145
969
762
537
320
139
-4
-121
-208
-268
-312
-340
-348
-344
-331
-315
-310
-306
-288
-269
-261
-248
-228
-216
-214
-207
-197
-191
-188
-179
-168
-164
-163
-161
-162
-162
-157
-143
-133
-135
-136
-122
-105
-103
-105
-91
-68
-56
-56
-52
-45
-37
-29
-20
-11
-4
2
4
8
16
22
21
25
36
45
50
51
46
48
54
54
54
62
67
59
47
45
65
89
85
56
37
39
49
60
66
61
60
66
69
62
49
30
