# session 38
2
31
-37
-3
275
546
583
533
553
575
558
545
539
532
529
514
479
436
390
336
272
203
143
103
82
70
58
45
40
41
33
23
23
21
11
5
1
-13
-29
-36
-45
-58
-65
-64
-67
-76
-73
-65
-74
-90
-89
-83
-82
-75
-72
-79
-80
-81
-93
-92
-65
-39
-22
-6
-21
-66
-90
-85
-88
-96
-93
-100
-105
-91
-94
-107
-79
-84
-155
-139
61
525
1214
1344
314
-821
-851
-320
-120
-98
-23
-21
-46
-15
0
-2
14
20
16
33
49
47
54
74
84
91
112
134
145
162
186
204
212
224
239
247
246
240
227
202
163
106
39
-20
-66
-105
-131
-144
-158
-171
-174
-171
-173
-172
-164
-160
-163
-164
-159
-158
-161
-160
-161
-168
-171
-170
-170
-169
-168
-170
-168
-160
-156
-152
-145
-137
-132
-131
-131
-128
-122
-125
-131
-120
-94
-66
-39
-16
-26
-65
-85
-76
-75
-80
-73
-73
-82
-66
-57
-74
-54
-39
-100
-104
58
431
1071
1391
595
-607
-835
-312
-41
-37
22
46
21
41
56
50
65
81
80
87
97
105
121
137
146
165
189
200
209
232
255
268
282
303
320
329
338
344
332
299
252
191
122
58
7
-33
-68
-94
-102
-100
-105
-110
-106
-103
-102
-97
-93
-96
-96
-89
-88
-98
-106
-105
-106
-109
-110
-114
-125
-129
-126
-126
-129
-128
-124
-119
-121
-126
-120
-111
-115
-120
-114
-121
-141
-135
-101
-74
-55
-37
-48
-85
-103
-99
-102
-108
-104
-110
-115
-103
-107
-112
-78
-89
-156
-113
100
573
1282
1376
267
-848
-784
-235
-82
-77
4
0
-25
12
25
14
31
47
50
60
73
84
97
109
121
137
153
171
193
215
233
253
273
293
312
327
336
336
321
285
228
149
60
-16
-69
-110
-142
-161
-170
-172
-170
-168
-163
-156
-156
-160
-156
-148
-147
-148
-143
-142
-147
-144
-137
-141
-149
-145
-138
-137
-137
-137
-137
-130
-124
-123
-121
-115
-112
-112
-109
-102
-98
-98
-96
-92
-91
-88
-79
-77
-92
-109
-106
-84
-58
-26
2
-9
-54
-72
-62
-66
-73
-65
-70
-74
-58
-67
-73
-39
-73
-134
-56
109
520
1313
1493
334
-789
-642
-109
-40
-59
22
3
-23
17
26
24
43
47
46
65
80
88
103
123
143
163
184
207
234
261
288
316
342
368
392
409
419
421
411
377
311
224
131
49
-19
-70
-108
-131
-138
-135
-136
-139
-138
-135
-133
-132
-131
-130
-129
-131
-135
-140
-144
-146
-146
-150
-156
-160
-162
-161
-161
-163
-168
-168
-165
-161
-159
-158
-161
-164
-163
-162
-169
-180
-176
-147
-108
-75
-66
-95
-129
-135
-134
-141
-138
-132
-138
-129
-119
-136
-118
-94
-155
-174
-63
146
708
1383
1030
-298
-936
-472
-63
-66
-43
2
-27
-13
21
16
24
44
47
56
74
86
97
113
127
144
166
187
209
237
264
289
317
345
365
381
396
402
389
357
303
228
146
70
4
-46
-78
-96
-103
-105
-107
-106
-102
-101
-102
-100
-95
-91
-88
-88
-90
-96
-101
-104
-106
-111
-116
-118
-121
-124
-125
-125
-126
-128
-129
-131
-130
-129
-131
-130
-127
-127
-128
-129
-130
-129
-123
-123
-126
-127
-136
-147
-135
-104
-72
-43
-40
-73
-104
-107
-108
-116
-111
-105
-112
-104
-97
-111
-86
-61
-128
-153
-27
238
823
1391
910
-376
-897
-419
-55
-59
-25
17
-11
-1
27
25
34
49
50
58
72
79
89
107
125
140
155
174
199
223
246
270
290
309
332
354
365
371
373
357
317
261
192
118
54
9
-25
-47
-56
-61
-63
-60
-57
-56
-53
-48
-49
-54
-60
-65
-68
-70
-75
-84
-91
-95
-100
-106
-109
-110
-111
-112
-112
-112
-110
-109
-110
-109
-105
-106
-106
-104
-106
-107
-103
-97
-97
-98
-98
-95
-90
-84
-86
-90
-87
-81
-82
-81
-75
-69
-66
-64
-63
-64
-64
-57
-49
-45
-44
-44
-46
-44
-39
-37
-39
-40
-39
-38
-38
-36
-34
-32
-34
-40
-39
-30
-34
-56
-69
-52
-18
16
41
29
-12
-36
-35
-41
-46
-42
-50
-55
-42
-51
-51
-12
-54
-136
-52
181
648
1387
1466
276
-826
-681
-154
-67
-66
19
1
-21
19
24
21
46
49
47
70
84
81
91
100
98
113
135
142
150
174
197
210
226
241
253
269
283
294
304
303
282
247
199
139
86
42
-6
-55
-88
-98
-88
-88
-102
-95
-76
-87
-117
-126
-118
-111
-109
-117
-125
-126
-128
-130
-139
-160
-171
-163
-159
-164
-164
-160
-159
-162
-163
-156
-149
-141
-130
-132
-150
-157
-154
-160
-154
-116
-98
-134
-171
-163
-138
-133
-138
-129
-112
-101
-94
-90
-88
-85
-83
-86
-93
-98
-71
-11
12
-30
-60
-44
-50
-73
-54
-39
-71
-87
-81
-84
-58
-46
-69
-31
47
343
1151
1650
761
-543
-687
-140
25
-35
12
34
32
55
28
7
51
75
58
72
108
113
112
135
146
140
173
221
222
248
305
302
381
623
677
440
286
289
249
220
244
193
90
26
-18
-55
-68
-88
-126
-165
-176
-153
-143
-158
-121
-46
-71
-168
-169
-111
-103
-73
-44
-146
-219
-110
-74
-212
-236
-134
-153
-204
-148
-160
-255
-226
-145
-174
-199
-146
-139
-171
-148
-145
-198
-180
-87
-82
-165
-183
-124
-106
-133
-123
-94
-118
-156
-131
-76
-49
-29
-8
-37
-89
-88
-57
-68
-104
-116
-94
-76
-84
-74
-66
-121
-138
-44
204
855
1508
1006
-365
-885
-347
14
-37
-19
22
-19
-22
-4
-4
25
65
80
79
78
86
104
117
119
144
226
276
215
175
242
300
304
322
342
344
357
388
417
401
311
208
156
124
63
-22
-77
-67
-45
-66
-72
-33
-38
-98
-107
-69
-74
-100
-73
-31
-56
-117
-140
-129
-127
-133
-133
-129
-138
-151
-145
-127
-130
-150
-157
-138
-115
-125
-152
-151
-132
-130
-139
-138
-135
-132
-120
-109
-118
-128
-113
-115
-160
-178
-132
-84
-57
-30
-44
-93
-104
-89
-101
-114
-115
-120
-112
-111
-130
-98
-78
-162
-178
-9
356
1031
1464
701
-613
-905
-327
-26
-49
-4
17
-28
-18
10
15
29
46
57
71
87
105
116
116
122
147
177
195
201
207
224
256
301
335
341
334
341
355
356
331
277
205
130
61
13
-13
-43
-76
-87
-85
-91
-93
-82
-76
-82
-87
-88
-91
-99
-109
-122
-127
-119
-118
-139
-158
-158
-153
-151
-153
-166
-179
-171
-160
-163
-164
-153
-149
-154
-154
-150
-147
-146
-147
-144
-133
-130
-131
-128
-141
-179
-194
-164
-115
-67
-36
-47
-86
-107
-103
-98
-98
-102
-89
-72
-95
-104
-54
-80
-165
-112
69
525
1402
1695
507
-820
-785
-161
-9
-44
23
24
6
31
28
36
77
81
68
88
111
121
140
165
177
185
208
238
256
269
296
321
335
349
369
387
400
399
383
355
300
211
118
43
-26
-86
-116
-122
-128
-146
-151
-131
-120
-134
-139
-130
-139
-156
-151
-144
-153
-162
-165
-174
-189
-201
-204
-196
-186
-185
-187
-180
-178
-192
-199
-186
-175
-176
-178
-171
-161
-159
-165
-165
-169
-188
-206
-201
-174
-124
-71
-64
-107
-138
-137
-133
-127
-121
-127
-118
-108
-128
-109
-82
-153
-192
-92
193
978
1815
1307
-304
-1002
-447
-31
-78
-48
14
-25
-18
25
26
35
58
65
76
97
112
124
142
160
184
206
221
241
273
296
304
320
348
370
381
391
399
387
353
298
218
127
50
-5
-49
-84
-103
-101
-96
-104
-110
-103
-101
-107
-105
-99
-102
-110
-111
-114
-129
-147
-154
-153
-154
-161
-163
-159
-157
-159
-158
-157
-161
-165
-163
-161
-157
-150
-144
-144
-149
-152
-148
-141
-142
-160
-183
-192
-178
-142
-86
-39
-47
-96
-118
-104
-96
-99
-106
-109
-90
-87
-107
-79
-69
-157
-179
-47
305
1108
1736
990
-501
-922
-338
-22
-69
-30
6
-27
-9
18
14
30
50
56
69
86
98
116
138
153
164
179
197
215
239
267
288
299
318
345
355
352
355
351
320
266
199
121
44
-22
-72
-103
-115
-118
-120
-121
-117
-111
-114
-121
-121
-120
-127
-133
-131
-131
-139
-145
-147
-150
-153
-149
-149
-156
-160
-162
-163
-157
-151
-157
-162
-150
-138
-145
-152
-145
-139
-139
-126
-118
-128
-134
-133
-148
-165
-154
-118
-66
-27
-39
-83
-102
-90
-87
-101
-111
-89
-56
-77
-113
-78
-75
-164
-165
0
449
1328
1751
671
-803
-929
-233
8
-58
-4
15
-11
28
50
46
78
99
88
92
110
122
140
164
178
191
209
225
241
266
292
306
309
314
325
339
348
345
325
289
238
163
80
9
-43
-84
-118
-133
-130
-127
-130
-129
-129
-132
-130
-127
-135
-140
-134
-136
-151
-158
-158
-168
-179
-176
-174
-184
-187
-175
-168
-173
-175
-173
-170
-163
-158
-158
-160
-157
-148
-141
-140
-150
-171
-180
-153
-111
-72
-43
-47
-84
-103
-94
-93
-93
-91
-97
-91
-90
-105
-84
-73
-144
-162
-38
296
1050
1647
938
-529
-979
-391
-27
-51
-14
24
-1
19
39
29
53
80
79
89
112
118
125
150
172
175
181
207
235
248
264
294
315
314
319
335
340
334
320
286
231
166
93
20
-39
-80
-109
-120
-122
-122
-118
-112
-107
-104
-105
-107
-108
-114
-125
-129
-128
-135
-144
-142
-141
-148
-153
-158
-165
-167
-164
-162
-158
-153
-157
-161
-152
-144
-143
-142
-137
-134
-135
-136
-136
-145
-163
-167
-141
-101
-60
-34
-47
-87
-109
-105
-95
-93
-100
-93
-80
-102
-106
-57
-83
-165
-120
86
634
1513
1608
281
-925
-739
-125
-16
-43
25
14
1
41
47
49
79
91
94
116
133
139
149
164
180
200
217
232
255
280
290
301
324
341
341
345
356
354
329
283
213
131
50
-30
-102
-150
-173
-183
-185
-185
-184
-175
-163
-160
-165
-165
-168
-172
-170
-166
-165
-167
-174
-179
-176
-174
-181
-188
-188
-185
-179
-174
-175
-176
-175
-173
-169
-166
-165
-155
-146
-153
-168
-178
-183
-176
-145
-95
-55
-61
-98
-117
-115
-111
-106
-108
-110
-97
-108
-115
-70
-91
-180
-141
24
484
1462
1889
651
-873
-907
-217
-40
-81
11
18
-12
30
49
46
72
87
90
108
134
156
173
182
200
228
250
266
285
309
331
353
375
397
417
434
434
413
381
333
250
142
51
-15
-81
-135
-156
-164
-175
-176
-166
-159
-152
-141
-134
-138
-144
-146
-144
-146
-151
-157
-159
-160
-166
-180
-189
-185
-182
-185
-184
-178
-178
-180
-176
-170
-165
-163
-164
-166
-165
-159
-151
-147
-143
-139
-145
-162
-181
-186
-171
-134
-82
-43
-49
-87
-106
-105
-105
-103
-102
-106
-95
-97
-104
-65
-70
-155
-143
-25
299
1168
1830
978
-556
-868
-236
17
-57
-2
29
-5
21
43
38
56
76
85
103
117
124
140
162
179
196
217
244
270
290
308
333
361
384
403
419
427
426
406
359
285
197
102
12
-57
-101
-127
-145
-156
-157
-153
-150
-145
-139
-140
-141
-137
-132
-132
-136
-138
-140
-141
-148
-158
-159
-152
-150
-153
-156
-158
-160
-162
-161
-154
-148
-150
-152
-148
-145
-144
-140
-139
-141
-136
-128
-125
-123
-119
-118
-119
-121
-120
-112
-105
-113
-117
-106
-103
-120
-140
-144
-131
-97
-49
-16
-25
-62
-83
-83
-82
-76
-75
-83
-74
-72
-92
-63
-43
-123
-143
-28
258
1028
1774
1164
-364
-883
-305
23
-47
-9
35
-3
21
53
35
41
70
81
94
110
118
131
153
172
192
211
223
236
262
294
319
338
355
375
399
419
419
400
370
322
248
158
73
0
-59
-99
-115
-120
-129
-136
-133
-127
-128
-125
-118
-113
-114
-114
-114
-119
-123
-118
-115
-123
-133
-134
-133
-135
-134
-132
-136
-143
-148
-143
-133
-133
-140
-138
-128
-125
-127
-127
-125
-126
-127
-122
-116
-116
-114
-108
-109
-113
-107
-101
-106
-107
-99
-97
-100
-99
-98
-100
-98
-95
-93
-87
-84
-96
-117
-123
-105
-83
-59
-21
-2
-38
-75
-75
-72
-73
-72
-84
-78
-55
-77
-82
-35
-80
-148
-50
184
776
1679
1609
105
-993
-631
-60
-38
-38
43
5
-5
49
50
47
76
86
90
112
130
143
162
179
187
196
213
237
264
287
304
319
334
351
367
380
392
397
384
350
295
217
117
19
-58
-113
-151
-175
-188
-191
-183
-170
-162
-157
-153
-152
-152
-144
-134
-133
-132
-127
-132
-144
-148
-150
-151
-153
-163
-163
-154
-161
-173
-166
-165
-173
-165
-156
-154
-142
-147
-173
-166
-138
-131
-126
-135
-172
-161
-96
-80
-111
-114
-94
-88
-92
-93
-86
-84
-88
-78
-67
-73
-84
-98
-93
-35
24
21
9
23
23
6
-20
-48
-35
2
-9
-32
-27
-38
-29
-1
-82
-207
-131
304
1115
1731
1167
-286
-1010
-525
44
58
-44
20
62
33
72
135
128
114
127
116
97
111
144
178
192
201
239
250
186
147
203
269
284
290
303
301
302
314
311
276
218
145
84
39
-31
-122
-185
-215
-241
-255
-249
-227
-197
-179
-187
-193
-174
-159
-156
-143
-131
-154
-181
-161
-123
-117
-128
-126
-119
-108
-90
-84
-95
-96
-81
-72
-72
-65
-54
-51
-47
-31
-27
-42
-47
-37
-37
-49
-64
-78
-77
-52
-19
12
30
6
-44
-63
-60
-67
-67
-63
-75
-74
-74
-95
-81
-76
-157
-177
-38
336
1164
1779
925
-719
-1199
-582
-227
-225
-131
-88
-134
-104
-70
-84
-71
-56
-69
-70
-53
-41
-30
-20
-10
3
16
23
30
36
42
55
79
