# session 8
30
-17
82
-2
-416
-303
686
955
-426
-1710
-1517
-816
-564
-487
-347
-264
-243
-204
-123
-82
-120
-82
72
158
134
83
22
80
382
703
710
432
232
314
396
286
260
259
14
2
502
749
425
178
235
274
226
222
274
292
211
105
37
-77
-217
-202
-105
-201
-391
-375
-224
-138
-110
-124
-133
-93
-191
-403
-417
-421
-667
-638
-261
-225
-36
1105
1664
117
-1692
-1562
-449
-18
-85
-102
-251
-499
-562
-512
-477
-411
-323
-175
74
234
238
295
381
333
304
423
504
426
211
-69
-179
-125
-245
-409
-228
53
107
110
169
255
417
559
626
679
627
492
445
461
449
376
265
297
473
520
367
170
65
132
262
268
134
-13
-18
122
415
1072
1567
750
-816
-1254
-659
-565
-903
-708
-344
-549
-873
-806
-802
-938
-661
-320
-519
-649
-258
-79
-335
-337
-56
18
-105
-328
-712
-966
-857
-697
-731
-805
-767
-632
-466
-301
-169
-209
-475
-648
-421
-78
-76
-265
-217
2
53
-106
-253
-124
258
417
194
147
464
661
749
997
1033
806
866
1046
1252
2191
3107
2313
663
136
475
633
655
712
751
825
821
672
559
538
522
487
458
461
433
337
311
371
322
150
-7
-148
-252
-243
-254
-500
-933
-1189
-988
-716
-901
-1236
-1278
-1139
-895
-795
-1164
-1304
-740
-489
-909
-1012
-723
-736
-898
-791
-587
-556
-625
-575
-377
-6
760
1384
708
-819
-1419
-925
-513
-398
-218
-94
-88
-61
1
167
393
443
448
697
999
1104
1114
1129
1216
1379
1361
1094
819
575
398
507
739
762
684
665
589
418
273
243
316
321
151
-20
-95
-223
-383
-436
-519
-701
-694
-497
-493
-657
-678
-586
-553
-613
-746
-837
-807
-753
-745
-769
-834
-933
-998
-907
-434
657
1894
1901
318
-1125
-1156
-608
-414
-478
-626
-702
-488
-229
-179
-128
-3
47
66
89
116
259
431
440
398
426
405
306
197
51
-75
-97
-106
-71
202
539
594
518
594
650
599
739
941
789
556
572
519
430
642
794
573
354
296
229
189
160
58
16
12
-157
-307
-199
11
424
1038
841
-465
-1305
-909
-382
-268
-155
-82
-239
-469
-677
-745
-515
-288
-470
-770
-751
-585
-433
-179
0
58
298
419
-39
-558
-585
-452
-475
-540
-595
-582
-441
-364
-455
-456
-239
-63
-74
-112
-138
-261
-352
-256
-163
-195
-138
33
70
16
116
305
435
623
830
831
829
1029
975
716
1362
2827
3123
1631
240
90
337
388
466
546
510
490
521
482
351
260
289
319
251
177
146
76
-9
8
139
227
140
13
56
61
-299
-732
-725
-489
-630
-1114
-1382
-1289
-1170
-1203
-1368
-1530
-1403
-1070
-989
-1102
-1054
-1022
-1170
-1153
-949
-1029
-1335
-1344
-1103
-980
-822
-501
-408
-583
-461
261
1115
1024
-335
-1454
-1090
-256
-89
-102
121
185
149
367
583
538
568
886
1164
1222
1395
1816
2007
1707
1383
1333
1282
1166
1200
1296
1302
1254
1078
780
605
587
583
590
544
346
139
70
101
116
-54
-351
-410
-181
-53
-111
-128
-136
-232
-280
-282
-375
-472
-552
-778
-968
-880
-719
-382
500
1008
1
-1396
-1568
-1168
-1165
-1025
-584
-587
-1024
-1245
-1108
-844
-610
-464
-325
-127
-10
12
124
255
192
52
13
-35
-138
-102
79
143
39
3
112
225
293
394
542
598
463
365
517
660
557
419
430
533
690
812
732
511
371
383
472
565
593
484
330
330
375
394
952
1910
1677
55
-845
-296
189
77
105
289
296
322
436
399
212
-3
-136
78
434
272
-71
144
262
-211
-371
-259
-766
-1279
-1106
-1050
-1455
-1649
-1598
-1834
-2243
-2251
-1860
-1586
-1522
-1358
-1077
-882
-782
-698
-688
-782
-752
-438
-149
-199
-319
-150
107
115
26
119
273
298
349
535
766
1402
2611
3122
1984
583
387
788
883
837
863
828
761
772
819
864
924
927
845
833
958
1024
901
751
709
649
487
336
158
-148
-396
-449
-497
-576
-507
-396
-472
-582
-509
-447
-557
-591
-486
-490
-515
-395
-468
-874
-1085
-862
-731
-944
-951
-606
-633
-1080
-1180
-1016
-1103
-1152
-820
-46
1037
1236
-218
-1593
-1346
-575
-379
-273
4
108
20
-106
-167
-51
129
157
94
141
282
367
416
588
795
741
550
661
894
729
435
554
761
609
506
830
1149
1052
770
649
697
750
721
674
703
685
450
198
206
258
66
-135
-85
-10
-113
-210
-174
-131
-143
-207
-224
253
1105
1041
-325
-1385
-1200
-722
-655
-635
-397
-161
-184
-417
-534
-381
-187
-168
-167
-50
-84
-227
-19
192
-237
-650
-387
-170
-368
-391
-279
-405
-485
-353
-282
-261
-159
-87
-80
-52
-28
-43
-81
-151
-200
-157
-82
-74
-105
-56
71
133
108
108
128
151
227
284
251
188
304
1089
2329
2395
762
-498
-184
319
157
40
179
192
137
152
137
91
79
96
133
160
165
193
214
172
121
88
22
-47
-81
-143
-285
-479
-645
-711
-728
-758
-729
-667
-730
-819
-733
-677
-844
-913
-721
-671
-851
-857
-672
-544
-421
-362
-584
-795
-589
-240
-189
-386
-579
-290
912
1958
1156
-649
-1190
-562
-227
-225
-99
25
193
378
193
-158
-100
167
142
-8
92
411
686
746
689
694
712
712
799
820
622
477
535
538
409
354
410
483
585
744
839
738
570
593
752
788
698
648
657
651
586
486
428
382
273
250
387
431
308
222
369
933
1443
860
-465
-953
-484
-198
-261
-189
-80
-127
-130
3
84
53
49
105
148
179
165
55
-61
-80
-30
-29
-244
-631
-880
-902
-976
-1239
-1487
-1519
-1481
-1665
-1923
-1839
-1523
-1451
-1619
-1616
-1355
-1150
-1136
-1069
-789
-443
-199
-120
-165
-213
-301
-447
-405
-143
54
40
-59
374
1636
2229
894
-614
-411
328
237
133
551
603
126
-35
153
132
44
197
407
548
705
871
953
864
712
697
719
642
575
505
451
570
571
243
141
362
266
41
263
553
484
268
-5
-288
-351
-236
-101
36
58
-29
-41
-68
-206
-234
-156
-237
-351
-239
-30
345
1057
1318
401
-680
-764
-359
-199
-139
-96
-161
-169
-99
-81
-43
28
-23
-100
58
344
435
377
386
382
289
273
315
224
76
26
-29
-172
-261
-233
-220
-254
-235
-174
-143
-136
-157
-168
-71
18
-45
-96
-27
-6
-59
-59
-21
-6
-17
-73
-121
-72
-37
15
542
1298
998
-435
-1265
-789
-226
-323
-557
-488
-287
-231
-321
-304
-104
2
-131
-244
-120
93
178
146
105
78
49
38
58
50
-59
-197
-221
-159
-140
-189
-249
-268
-242
-244
-220
-23
188
164
73
81
14
-107
-71
29
18
-87
-250
-371
-300
-170
-231
-332
-233
29
593
1414
1512
444
-502
-384
60
161
160
224
236
200
166
155
194
245
276
310
328
320
325
321
270
236
250
214
129
145
185
11
-228
-239
-187
-255
-228
-85
-98
-251
-306
-233
-163
-186
-260
-264
-195
-169
-233
-340
-403
-397
-409
-409
-333
-333
-398
-313
-45
640
1637
1561
-26
-1178
-884
-435
-439
-332
-196
-302
-344
-224
-190
-204
-95
44
84
103
172
254
372
498
475
354
359
403
283
133
117
110
39
0
-9
-37
-48
-54
-56
56
205
163
38
107
260
231
110
95
124
96
75
114
156
114
-12
-71
-23
50
559
1683
2037
624
-887
-865
-277
-268
-420
-347
-276
-255
-186
-104
-84
-162
-271
-282
-170
-35
47
91
136
179
193
159
89
-5
-96
-183
-308
-385
-294
-245
-410
-468
-324
-317
-379
-273
-236
-380
-407
-265
-178
-206
-238
-238
-312
-453
-470
-350
-272
-256
-252
-294
-290
70
864
1376
745
-522
-1012
-527
-48
45
107
201
158
106
215
383
496
538
478
409
485
639
719
712
744
883
830
476
400
634
418
-43
58
441
560
562
512
329
199
186
190
227
247
171
108
127
119
32
-56
-65
-38
-95
-170
-142
-163
-294
-304
-190
76
787
1254
332
-1137
-1411
-794
-468
-366
-227
-297
-414
-351
-378
-525
-481
-298
-206
-201
-258
-352
-316
-143
-46
-108
-271
-430
-388
-185
-183
-384
-443
-431
-549
-587
-478
-445
-442
-389
-405
-414
-301
-208
-205
-219
-230
-204
-155
-183
-251
-282
-301
-272
-209
-210
-202
-120
130
916
1776
1308
-233
-907
-442
-113
-50
167
220
110
261
439
322
223
334
411
324
118
-90
-64
155
189
83
213
358
170
80
323
289
-159
-425
-372
-286
-241
-243
-241
-132
-61
-154
-201
-111
-78
-110
-86
-110
-224
-212
-113
-220
-443
-434
-277
-276
-354
-262
110
831
1409
849
-508
-1022
-474
-96
-120
6
176
200
274
357
332
360
493
592
630
684
813
940
927
895
1033
1196
1246
1279
1182
862
691
858
1006
979
980
1058
1129
1189
1239
1277
1317
1370
1426
1433
1408
1466
1557
1526
1521
1723
1841
1651
1469
1502
1576
1578
1596
2089
3154
3449
2183
856
121
-1367
-3131
-3152
-1955
-1671
-2638
-3842
-4708
-5274
-5813
-6353
-6638
-6765
-6993
-7118
-6999
-6729
-5961
-4526
-3164
-2370
-1810
-1301
-918
-559
-276
-218
-195
2
289
535
643
629
706
894
988
1022
1124
1213
1254
1305
1331
1321
1345
1429
1505
1455
1335
1337
1400
1582
2393
3361
2955
1396
608
836
807
365
47
-187
-303
-42
412
693
809
948
1119
1229
1315
1463
1565
1498
1394
1352
1276
1219
1295
1346
1257
1203
1240
1226
1174
1191
1243
1254
1216
1186
1253
1297
1119
992
1098
547
-1433
-3676
-4331
-3368
-2194
-1559
-1230
-976
-818
-713
-596
-458
-66
652
859
-77
-1110
-1081
-529
-295
-225
-115
-99
-111
-75
-71
-42
31
18
-10
85
168
111
15
4
79
106
-26
-214
-315
-313
-238
-205
-367
-569
-424
-21
8
-438
-653
-419
-306
-473
-506
-263
-98
-313
-604
-486
-158
-55
-115
-197
-276
-265
-274
-341
-232
19
438
1149
1276
143
-929
-767
-213
-50
21
64
-46
-21
224
356
287
264
322
300
325
594
809
662
443
454
494
391
301
286
227
137
93
67
51
67
67
25
-3
-25
-84
-129
-124
-117
-94
-23
-8
-123
-256
-299
-252
-208
-253
-246
-78
-24
-201
-278
-20
534
879
184
-1172
-1693
-1177
-648
-442
-407
-514
-489
-320
-424
-584
-310
-13
-107
-118
112
84
-121
-60
87
34
-72
-89
-30
45
-7
-130
-88
53
71
67
172
239
201
185
203
186
192
246
234
139
107
159
142
60
48
73
82
138
199
241
272
256
706
1970
2572
1292
-182
-173
328
301
206
277
285
276
294
288
288
277
261
301
313
207
112
131
140
59
-2
-9
-70
-175
-204
-174
-186
-233
-256
-275
-324
-353
-330
-318
-321
-268
-195
-211
-347
-533
-630
-555
-428
-412
-546
-715
-724
-603
-566
-558
-535
-490
197
1458
1502
-168
-1359
-1045
-591
-608
-531
-376
-374
-347
-253
-168
-43
61
88
179
340
419
467
552
556
504
505
472
391
384
356
270
332
392
162
-27
108
144
-68
-69
180
254
82
-19
120
202
-125
-509
-422
-168
-177
-127
206
346
10
-329
-270
41
657
1501
1428
9
-1094
-883
-441
-426
-338
-135
-121
-104
81
208
172
126
141
169
202
268
369
408
289
125
59
30
-15
-61
-139
-180
-136
-182
-359
-425
-342
-303
-315
-302
-318
-306
-177
-118
-205
-159
-5
-108
-385
-411
-189
-109
-267
-364
-304
-294
-287
-141
137
759
1458
1110
-183
-776
-431
-358
-592
-422
-102
-142
-335
-277
-7
149
128
160
315
422
413
431
580
711
639
539
642
726
581
494
588
545
332
251
306
320
321
347
322
273
280
284
228
179
154
99
29
-34
-105
-168
-180
-119
-42
-102
-294
-409
-328
124
944
1171
74
-1154
-1168
-562
-334
-392
-438
-472
-431
-321
-297
-379
-424
-411
-416
-292
-13
-45
-474
-604
-279
-137
-242
-168
-82
-290
-532
-565
-518
-457
-349
-295
-360
-430
-407
-324
-242
-175
-81
45
54
-103
-176
-70
-26
-95
-84
39
163
152
40
43
139
467
1477
2305
1405
-301
-703
-148
45
100
334
326
190
293
425
407
420
490
495
474
499
527
503
456
427
384
314
275
231
109
4
-17
-73
-167
-190
-195
-229
-186
-116
-161
-210
-133
-70
-139
-217
-163
-37
-27
-182
-326
-372
-403
-379
-342
-469
-556
-392
-187
220
889
728
-581
-1403
-995
-547
-570
-445
-174
-172
-322
-333
-188
-32
-32
-174
-268
-242
-163
-92
-57
11
179
331
378
392
350
235
208
271
262
202
149
42
-31
41
144
170
185
237
284
287
255
219
199
221
255
226
194
226
172
55
111
230
538
1459
2060
1076
-332
-529
-185
-161
-55
128
95
149
324
304
196
204
220
174
141
158
219
272
223
59
-89
-108
-83
-151
-257
-293
-331
-403
-365
-313
-500
-734
-705
-590
-557
-489
-500
-694
-795
-703
-609
-556
-537
-574
-613
-686
-763
-677
-512
-427
-393
-325
225
1385
1700
251
-1170
-1076
-506
-374
-280
-102
-19
74
136
73
40
130
250
320
365
479
602
507
241
128
238
347
351
329
325
299
260
245
203
157
255
379
300
242
403
367
-11
-129
197
422
367
289
220
133
108
129
165
161
44
-69
-73
218
1154
1939
1080
-659
-1129
-466
-108
-58
97
107
-26
-61
-46
-25
34
59
51
82
118
114
99
83
68
37
-76
-224
-259
-280
-404
-378
-223
-441
-844
-732
-391
-459
-572
-362
-276
-445
-493
-455
-498
-460
-355
-384
-448
-405
-368
-379
-337
-322
-407
-419
-280
108
965
1567
745
-700
-961
-287
35
36
144
197
184
243
288
347
508
604
585
631
635
407
223
335
466
378
200
67
25
53
32
-32
0
137
