# session 40
-19
-60
31
-13
-343
-557
-457
-180
550
1413
1020
-462
-1101
-607
-306
-400
-362
-295
-329
-303
-252
-250
-234
-205
-197
-181
-155
-141
-121
-83
-48
-27
-7
19
45
64
86
111
128
141
163
189
206
221
243
257
251
238
218
173
110
49
-7
-54
-87
-114
-129
-128
-131
-135
-131
-141
-140
-121
-149
-145
18
88
-226
-663
-905
-1081
-1150
-775
-203
-83
-348
-406
-170
50
164
234
252
233
233
262
286
294
306
327
341
360
404
455
490
519
553
579
603
644
695
740
780
798
767
699
612
504
385
275
165
57
-29
-94
-145
-182
-196
-194
-194
-204
-204
-191
-190
-197
-190
-178
-177
-179
-175
-168
-160
-155
-156
-157
-147
-143
-164
-180
-154
-120
-126
-142
-137
-131
-134
-130
-126
-125
-114
-110
-131
-151
-145
-134
-132
-131
-133
-140
-140
-131
-123
-110
-89
-88
-108
-119
-115
-110
-100
-90
-93
-101
-92
-79
-86
-96
-81
-67
-76
-84
-74
-61
-56
-60
-68
-62
-58
-78
-85
-57
-45
-67
-78
-70
-69
-90
-122
-129
-92
-37
-4
-8
-42
-79
-89
-81
-85
-94
-85
-90
-108
-68
-55
-138
-136
-33
208
1024
1908
1375
-182
-759
-242
25
-74
-43
-1
-38
-23
-3
-15
3
29
37
49
65
80
98
112
125
150
175
186
192
203
212
218
230
239
242
253
271
280
284
295
302
295
279
245
196
149
101
45
1
-27
-60
-78
-86
-123
-132
-106
-155
-150
78
91
-524
-1260
-1513
-1424
-1167
-693
-334
-405
-567
-466
-231
-26
141
228
234
230
240
249
257
262
278
313
340
351
377
425
468
496
518
551
596
641
687
734
750
716
658
585
487
378
274
161
45
-53
-136
-206
-245
-266
-289
-303
-297
-294
-300
-299
-288
-282
-282
-274
-261
-257
-249
-236
-236
-241
-230
-222
-229
-216
-206
-242
-253
-190
-146
-176
-196
-179
-195
-237
-204
-107
-58
-82
-111
-116
-110
-99
-88
-88
-96
-105
-95
-68
-60
-77
-87
-92
-97
-74
-42
-51
-68
-58
-58
-77
-70
-40
-26
-24
-17
-13
-10
0
2
-6
-1
13
19
20
6
-11
7
33
8
-29
-24
-9
-12
-5
32
65
58
17
-25
-35
-28
-38
-36
-8
-18
-27
17
-15
-97
-31
120
528
1469
1891
720
-689
-713
-129
-18
-50
40
26
-17
20
36
16
19
43
67
76
74
85
112
134
133
130
157
180
162
150
168
172
157
153
145
131
133
151
175
195
198
197
204
202
175
137
96
55
16
-30
-75
-102
-123
-147
-164
-169
-168
-184
-220
-224
-214
-264
-267
-144
-170
-475
-685
-617
-609
-793
-772
-377
-66
-166
-349
-273
-80
15
30
23
5
8
51
109
161
210
250
260
253
261
285
310
339
370
399
435
479
522
571
616
619
571
498
404
289
174
72
-23
-110
-185
-245
-277
-285
-285
-286
-282
-264
-243
-230
-215
-198
-190
-183
-166
-150
-143
-139
-138
-132
-118
-108
-108
-103
-98
-101
-99
-91
-93
-99
-84
-68
-75
-81
-72
-71
-78
-68
-57
-63
-66
-52
-43
-48
-49
-41
-37
-39
-39
-38
-35
-27
-19
-20
-22
-13
2
6
-8
-22
-20
-8
1
-2
-12
-12
-7
-9
-11
-4
0
-3
-4
0
1
-11
-30
-31
-11
13
47
86
83
33
-5
2
15
-3
-15
12
7
-35
-7
10
-84
-86
73
388
1127
1739
1022
-421
-820
-280
-33
-105
-68
-49
-87
-60
-37
-63
-68
-58
-56
-29
8
13
10
25
34
46
86
117
102
86
90
92
104
133
141
128
136
159
168
176
190
184
162
139
115
85
51
13
-17
-39
-82
-127
-114
-91
-130
-154
-130
-176
-187
10
36
-523
-1220
-1456
-1375
-1192
-771
-341
-343
-563
-504
-209
30
155
209
218
234
255
258
280
337
383
411
446
466
450
431
450
483
492
498
542
609
658
679
685
677
631
532
414
313
205
78
-28
-96
-158
-224
-272
-290
-303
-324
-315
-250
-216
-261
-287
-239
-208
-219
-189
-132
-130
-161
-145
-105
-104
-120
-102
-79
-83
-84
-65
-54
-59
-62
-53
-40
-36
-35
-40
-50
-41
-24
-37
-54
-44
-39
-45
-29
-23
-53
-74
-62
-29
7
0
-54
-81
-67
-67
-77
-62
-45
-47
-45
-38
-41
-48
-49
-49
-41
-31
-34
-55
-58
-16
19
-22
-76
-55
-21
-45
-69
-50
-26
-7
19
24
-5
-48
-75
-77
-77
-79
-54
-51
-89
-72
-52
-144
-176
-49
196
816
1506
1115
-186
-781
-397
-96
-112
-86
-57
-87
-89
-74
-59
-44
-50
-54
-36
-13
19
54
67
72
93
115
125
141
160
143
111
132
172
154
135
173
192
176
203
226
177
133
124
95
63
61
44
-11
-50
-53
-67
-93
-81
-78
-123
-121
-110
-177
-100
113
-159
-1012
-1591
-1485
-1133
-760
-348
-179
-331
-403
-215
9
152
246
286
297
331
381
413
442
494
529
502
464
477
503
506
515
539
555
577
628
675
672
631
598
576
531
462
388
301
194
107
40
-61
-158
-185
-221
-313
-341
-281
-268
-306
-296
-259
-247
-238
-225
-226
-223
-200
-178
-192
-232
-227
-166
-127
-136
-142
-138
-143
-149
-161
-172
-149
-111
-100
-104
-114
-145
-162
-142
-135
-155
-147
-112
-116
-148
-150
-138
-148
-147
-127
-140
-165
-137
-101
-110
-113
-90
-89
-97
-84
-71
-69
-61
-57
-62
-55
-46
-60
-75
-67
-67
-81
-80
-81
-109
-127
-118
-117
-115
-79
-44
-56
-90
-93
-69
-69
-98
-99
-86
-117
-113
-45
-86
-174
-90
103
624
1634
1889
515
-821
-676
-106
-56
-70
18
-20
-53
-5
26
55
75
60
76
127
146
146
177
216
241
266
281
269
267
293
302
293
297
290
268
271
295
314
325
334
355
363
306
239
220
187
122
88
64
11
-44
-87
-106
-90
-101
-140
-130
-105
-148
-198
-187
-159
-158
-181
-222
-248
-244
-236
-232
-226
-238
-255
-247
-242
-277
-307
-295
-276
-258
-209
-177
-210
-241
-221
-200
-197
-193
-197
-193
-181
-194
-185
-173
-235
-249
-158
90
947
2028
1673
-76
-997
-522
-127
-200
-158
-73
-113
-105
-65
-70
-39
12
8
-4
20
42
49
72
113
142
158
183
217
246
275
285
254
234
297
380
383
336
303
268
198
109
35
-18
-63
-105
-123
-120
-120
-121
-113
-112
-119
-118
-114
-119
-122
-118
-118
-124
-134
-143
-136
-120
-129
-159
-175
-187
-202
-179
-133
-132
-159
-157
-139
-137
-147
-165
-168
-133
-95
-105
-140
-151
-140
-136
-141
-110
-33
10
-32
-96
-115
-105
-87
-78
-87
-85
-69
-98
-129
-76
-41
-109
-127
-24
308
1115
1691
854
-650
-1008
-381
-30
-5
80
89
34
72
90
47
57
105
130
137
131
137
151
123
128
243
299
216
215
341
374
307
310
367
365
314
308
380
430
352
221
161
131
48
-47
-101
-126
-131
-141
-175
-195
-176
-158
-165
-185
-214
-229
-192
-144
-146
-168
-161
-144
-139
-140
-139
-125
-93
-69
-81
-109
-105
-82
-96
-137
-143
-102
-72
-86
-114
-104
-61
-35
-40
-42
-24
-1
8
2
-2
7
12
1
-12
-6
7
7
-7
-14
-2
13
10
-5
-14
-4
17
22
1
-17
-16
-10
-5
3
16
23
24
22
9
-14
-22
-8
0
-8
-11
-2
8
8
-5
-17
-15
-16
-30
-32
-23
-27
-35
-35
-32
-32
-32
-33
-41
-50
-45
-29
-25
-39
-39
-25
-21
-13
3
-9
-45
-58
-51
-50
-54
-62
-64
-50
-60
-74
-36
-45
-132
-109
71
480
1217
1510
546
-655
-728
-211
-61
-83
-12
-4
-26
6
13
0
17
31
27
30
41
54
68
80
90
103
116
127
140
154
165
171
178
185
189
192
195
194
187
172
153
124
80
30
-17
-63
-105
-135
-151
-161
-168
-174
-176
-170
-163
-158
-151
-142
-135
-121
-118
-127
-110
-109
-184
-157
33
-77
-737
-1392
-1537
-1358
-1125
-825
-524
-381
-335
-206
5
173
257
290
301
307
318
330
336
349
377
402
405
404
438
491
523
539
570
607
636
679
736
775
780
756
701
614
497
361
225
101
-12
-108
-178
-231
-269
-281
-279
-280
-273
-253
-236
-226
-207
-188
-179
-170
-146
-125
-122
-120
-107
-98
-96
-92
-86
-86
-91
-93
-91
-93
-101
-104
-95
-88
-92
-96
-89
-82
-82
-81
-73
-67
-63
-53
-45
-54
-67
-60
-42
-39
-52
-63
-65
-58
-43
-33
-36
-40
-36
-34
-37
-35
-26
-24
-29
-33
-30
-25
-22
-21
-20
-22
-24
-26
-26
-27
-30
-31
-30
-27
-27
-32
-34
-34
-34
-34
-35
-40
-42
-40
-42
-42
-38
-38
-38
-40
-56
-66
-46
-20
-5
13
13
-18
-42
-42
-43
-51
-58
-54
-41
-53
-55
-20
-55
-128
-57
148
588
1286
1359
286
-678
-548
-125
-80
-82
-13
-27
-35
0
-1
-6
12
16
16
33
48
54
64
78
96
114
130
146
166
185
199
212
227
242
259
271
276
281
291
292
272
234
184
127
68
14
-31
-67
-96
-113
-121
-128
-132
-132
-139
-141
-133
-146
-155
-131
-160
-182
-18
15
-578
-1442
-1802
-1613
-1271
-850
-420
-271
-385
-408
-222
-1
147
235
276
290
312
351
392
427
444
431
407
406
433
459
477
507
549
588
625
678
738
780
786
758
703
618
498
362
229
98
-22
-117
-192
-251
-288
-308
-319
-322
-317
-306
-293
-284
-279
-269
-251
-234
-221
-206
-191
-176
-163
-155
-150
-147
-143
-141
-139
-136
-134
-135
-133
-127
-124
-126
-125
-120
-118
-116
-107
-97
-91
-84
-76
-69
-66
-66
-66
-66
-67
-66
-60
-50
-40
-37
-40
-37
-29
-33
-42
-39
-26
-20
-26
-31
-27
-23
-23
-22
-24
-27
-21
-10
-12
-24
-22
-10
-5
-7
-6
-10
-20
-23
-17
-13
-21
-38
-40
-22
-5
14
41
41
12
-12
-25
-27
-17
-23
-31
-6
-2
-12
30
11
-91
-55
86
358
1103
1689
949
-364
-629
-153
-5
-55
18
32
-13
11
49
52
41
26
33
60
74
78
86
100
114
122
125
144
174
193
199
205
209
224
254
267
263
297
368
378
299
215
170
119
47
-20
-80
-134
-168
-196
-223
-231
-232
-245
-244
-234
-254
-261
-258
-311
-257
-66
-276
-1089
-1757
-1760
-1463
-1123
-625
-231
-276
-464
-404
-206
-65
52
154
193
199
210
229
267
313
335
353
408
462
473
493
540
565
567
595
645
695
744
776
763
710
633
524
391
263
146
33
-68
-149
-215
-262
-283
-285
-279
-269
-257
-245
-228
-200
-177
-165
-149
-127
-114
-109
-94
-78
-75
-66
-48
-40
-46
-42
-30
-30
-41
-43
-33
-24
-23
-30
-37
-33
-25
-28
-33
-28
-21
-24
-31
-28
-20
-17
-22
-25
-23
-20
-17
-17
-19
-22
-29
-33
-26
-18
-26
-36
-33
-30
-38
-45
-40
-33
-37
-46
-52
-54
-55
-61
-68
-70
-66
-71
-85
-91
-79
-75
-89
-105
-122
-132
-109
-80
-98
-140
-146
-138
-139
-112
-54
-26
-52
-86
-95
-88
-78
-75
-85
-72
-55
-83
-75
-24
-86
-154
-47
153
683
1549
1527
178
-808
-530
-105
-108
-84
-12
-49
-52
-14
-18
-12
12
16
30
58
72
87
110
129
149
175
188
194
209
223
229
238
251
259
265
278
292
306
321
328
320
305
289
255
202
148
99
49
9
-18
-40
-59
-67
-72
-89
-104
-103
-108
-129
-135
-125
-137
-171
-184
-179
-187
-200
-203
-206
-218
-228
-231
-230
-228
-226
-220
-209
-200
-196
-195
-197
-211
-227
-223
-202
-174
-129
-83
-91
-142
-165
-156
-151
-149
-147
-149
-135
-133
-151
-122
-109
-187
-198
-108
106
820
1603
1118
-313
-854
-349
-38
-90
-54
-16
-48
-19
21
16
30
54
56
64
83
96
114
143
163
178
203
228
244
261
280
296
312
329
341
351
357
346
313
267
209
136
64
7
-35
-64
-80
-88
-93
-98
-103
-105
-101
-101
-110
-113
-108
-110
-121
-124
-118
-121
-127
-129
-131
-135
-133
-133
-137
-140
-143
-145
-143
-142
-143
-136
-127
-131
-136
-132
-130
-134
-135
-132
-127
-121
-117
-120
-132
-144
-143
-122
-93
-60
-33
-42
-81
-98
-91
-93
-99
-101
-99
-87
-89
-104
-74
-63
-134
-138
-48
152
807
1519
1066
-255
-759
-295
-10
-63
-37
-7
-40
-17
17
11
20
41
47
58
78
95
113
132
151
170
188
207
229
250
270
292
313
330
345
358
367
372
366
334
277
207
134
68
20
-12
-36
-53
-60
-62
-67
-70
-69
-66
-65
-64
-64
-66
-69
-74
-78
-81
-83
-84
-86
-87
-85
-86
-88
-84
-77
-77
-78
-75
-71
-67
-62
-60
-63
-63
-63
-63
-62
-60
-61
-65
-70
-72
-74
-79
-84
-87
-90
-92
-94
-99
-101
-100
-101
-100
-97
-100
-106
-109
-110
-114
-117
-119
-121
-125
-129
-124
-119
-127
-138
-139
-143
-143
-125
-98
-72
-51
-66
-105
-116
-105
-103
-102
-103
-107
-93
-94
-105
-65
-65
-148
-122
47
380
1072
1487
653
-607
-779
-239
-46
-71
8
23
-13
22
45
36
53
70
71
83
102
114
124
138
156
175
187
197
213
228
238
245
252
257
260
263
265
266
261
245
216
178
134
85
37
-3
-32
-52
-65
-73
-76
-74
-72
-72
-71
-72
-73
-76
-85
-90
-87
-86
-93
-100
-105
-115
-122
-121
-120
-120
-117
-114
-112
-108
-101
-94
-89
-84
-77
-71
-68
-68
-64
-56
-49
-42
-36
-35
-37
-34
-27
-22
-20
-15
-9
-6
-5
-2
3
7
15
22
18
13
12
12
