# session 35
-44
-68
4
-50
-351
-604
-602
-537
-554
-548
-514
-521
-490
-436
-500
-542
-419
-170
555
1636
1591
37
-1052
-717
-238
-278
-326
-286
-319
-315
-272
-264
-236
-189
-172
-162
-133
-102
-77
-56
-32
-6
14
30
56
82
98
115
135
151
176
198
201
208
225
222
217
238
252
240
211
161
97
51
26
1
-31
-54
-64
-71
-76
-77
-85
-79
-75
-115
-86
95
139
-159
-464
-519
-538
-528
-204
198
130
-248
-365
-188
-32
39
84
88
69
86
136
179
211
258
298
290
274
296
322
333
356
391
413
435
473
512
551
593
617
602
562
515
445
347
242
145
53
-35
-120
-194
-245
-272
-281
-275
-268
-265
-253
-236
-231
-228
-211
-197
-192
-184
-176
-173
-170
-166
-162
-154
-148
-144
-136
-131
-133
-131
-121
-118
-124
-129
-124
-111
-101
-101
-104
-100
-94
-95
-96
-88
-79
-77
-77
-71
-62
-59
-58
-56
-52
-48
-51
-55
-54
-48
-43
-39
-39
-45
-51
-50
-41
-35
-37
-43
-43
-41
-40
-38
-37
-41
-44
-45
-52
-65
-70
-67
-60
-42
-6
24
10
-33
-58
-54
-46
-59
-76
-60
-59
-83
-53
-47
-140
-125
66
458
1327
2001
1148
-498
-942
-348
-90
-160
-93
-57
-96
-67
-49
-67
-50
-26
-24
-11
14
30
40
52
70
84
91
98
108
119
131
143
148
148
151
154
155
164
188
217
244
262
272
274
261
224
169
110
53
7
-27
-60
-86
-105
-124
-133
-132
-143
-153
-149
-164
-180
-167
-190
-216
-105
0
-192
-544
-709
-748
-875
-900
-581
-226
-238
-404
-321
-72
91
158
172
132
104
121
135
140
164
193
215
241
266
288
319
358
394
427
468
515
564
620
678
721
729
695
628
530
402
264
140
23
-92
-183
-236
-266
-286
-297
-302
-298
-287
-280
-280
-272
-254
-237
-232
-224
-209
-200
-200
-192
-180
-177
-174
-163
-154
-152
-153
-149
-141
-133
-129
-126
-121
-119
-116
-110
-105
-103
-101
-96
-91
-88
-88
-85
-80
-78
-76
-71
-69
-69
-64
-56
-51
-53
-60
-57
-48
-48
-52
-44
-37
-41
-45
-44
-43
-46
-55
-60
-57
-59
-48
4
44
15
-28
-34
-28
-31
-44
-44
-28
-45
-54
-7
-46
-144
-73
117
602
1656
2115
813
-747
-783
-170
-82
-123
-21
-44
-88
-34
-20
-33
-2
15
8
27
55
70
82
95
117
144
153
155
172
189
195
205
221
232
242
253
263
279
300
311
316
324
318
280
220
157
92
28
-24
-65
-97
-113
-117
-128
-144
-144
-139
-152
-170
-173
-175
-193
-212
-225
-237
-245
-244
-245
-256
-268
-272
-276
-288
-307
-320
-322
-316
-286
-231
-200
-220
-246
-241
-231
-225
-222
-229
-219
-197
-207
-198
-161
-212
-278
-235
-48
735
2037
2165
462
-925
-676
-132
-152
-174
-78
-104
-112
-52
-40
-37
-10
2
12
38
61
79
104
132
158
180
197
220
251
283
312
339
364
385
403
416
416
397
360
304
228
140
51
-30
-89
-122
-142
-156
-163
-168
-172
-169
-163
-157
-149
-146
-150
-148
-139
-138
-147
-146
-136
-137
-148
-147
-137
-138
-149
-153
-148
-148
-152
-149
-141
-136
-135
-143
-164
-187
-202
-203
-186
-147
-98
-74
-97
-131
-140
-138
-141
-141
-146
-143
-128
-142
-141
-93
-128
-220
-192
-46
518
1705
2209
907
-638
-705
-154
-96
-158
-76
-90
-121
-72
-52
-52
-24
-17
-22
-3
20
39
63
88
111
134
157
181
207
236
269
301
327
352
381
409
421
419
401
361
292
201
112
36
-34
-92
-119
-124
-132
-145
-144
-139
-144
-146
-130
-112
-111
-115
-109
-100
-97
-97
-95
-91
-87
-85
-87
-91
-93
-93
-92
-90
-85
-77
-74
-73
-67
-58
-53
-55
-55
-50
-45
-44
-43
-38
-34
-30
-23
-15
-13
-17
-16
-10
-4
1
2
1
3
6
4
0
-1
0
4
8
5
0
2
4
1
-2
-2
1
3
4
3
0
-2
0
1
-2
-1
1
-1
0
3
-7
-20
-18
-14
-21
-29
-33
-38
-38
-37
-45
-51
-47
-49
-61
-63
-58
-63
-58
-40
-42
-61
-62
-58
-64
-62
-55
-62
-70
-66
-63
-65
-65
-61
-61
-67
-71
-64
-56
-61
-76
-79
-68
-74
-103
-108
-79
-68
-89
-84
-40
-14
-31
-55
-64
-58
-47
-61
-83
-69
-68
-99
-63
-29
-109
-140
-58
217
1132
2134
1628
-27
-730
-283
-39
-135
-84
-32
-80
-75
-50
-43
-10
11
3
10
34
48
60
82
102
115
136
166
189
203
217
231
252
281
311
334
353
370
385
396
399
380
338
282
209
124
46
-8
-50
-86
-112
-128
-138
-143
-142
-138
-134
-127
-119
-118
-114
-102
-94
-98
-103
-105
-107
-112
-119
-128
-139
-149
-156
-161
-171
-176
-172
-170
-177
-180
-175
-172
-173
-174
-175
-175
-173
-171
-171
-170
-172
-178
-171
-153
-147
-153
-150
-139
-137
-142
-141
-135
-128
-126
-131
-132
-126
-122
-120
-112
-107
-109
-102
-94
-107
-115
-96
-79
-80
-78
-71
-77
-80
-75
-72
-73
-84
-106
-100
-45
-1
-11
-35
-42
-45
-44
-43
-59
-58
-35
-39
-28
4
-63
-136
-63
114
746
1930
2227
813
-524
-419
32
-23
-83
4
-8
-20
24
24
16
36
46
52
69
78
87
105
124
142
167
189
206
227
258
290
317
346
374
397
416
433
441
432
401
356
300
228
140
56
-9
-60
-101
-130
-144
-148
-153
-160
-160
-150
-146
-146
-132
-116
-114
-117
-116
-117
-119
-120
-125
-131
-132
-131
-136
-143
-140
-138
-149
-159
-158
-153
-150
-143
-145
-155
-148
-130
-133
-146
-139
-124
-121
-125
-127
-124
-118
-113
-116
-116
-110
-111
-114
-108
-106
-108
-104
-97
-99
-101
-98
-98
-100
-97
-90
-84
-83
-84
-81
-75
-75
-77
-75
-72
-73
-74
-69
-64
-64
-64
-62
-63
-64
-59
-55
-59
-59
-51
-48
-57
-72
-83
-73
-36
-11
-25
-49
-56
-50
-40
-48
-63
-48
-44
-56
-20
-35
-136
-113
42
425
1397
2129
1225
-391
-745
-181
-13
-104
-36
-17
-64
-30
-2
-13
-1
18
30
47
61
72
89
107
127
156
181
197
218
249
278
305
336
370
399
423
446
465
471
462
434
383
312
233
149
66
-3
-59
-109
-138
-138
-134
-136
-133
-128
-126
-117
-106
-105
-105
-98
-89
-85
-88
-93
-95
-97
-103
-114
-124
-127
-123
-121
-131
-147
-151
-143
-139
-146
-158
-159
-155
-156
-156
-144
-136
-146
-157
-157
-152
-153
-154
-150
-144
-143
-148
-145
-134
-134
-142
-135
-123
-124
-121
-115
-122
-129
-126
-126
-124
-116
-113
-119
-116
-104
-96
-100
-105
-101
-92
-89
-88
-83
-81
-82
-81
-80
-83
-82
-76
-67
-69
-101
-130
-103
-45
-26
-46
-62
-60
-53
-56
-58
-41
-46
-68
-28
-10
-104
-118
9
296
1167
2159
1684
-14
-785
-301
14
-84
-54
2
-41
-31
2
-6
6
31
33
40
59
71
83
103
128
148
170
198
226
249
275
302
329
365
407
437
453
469
481
475
452
412
342
250
164
88
10
-55
-89
-106
-122
-138
-144
-138
-129
-119
-106
-97
-98
-99
-91
-85
-89
-94
-94
-96
-101
-109
-117
-124
-132
-136
-139
-146
-150
-148
-145
-147
-151
-152
-148
-143
-146
-151
-147
-142
-142
-142
-140
-137
-137
-136
-132
-130
-131
-128
-121
-118
-118
-116
-113
-112
-107
-99
-98
-100
-94
-89
-92
-93
-86
-80
-84
-94
-88
-70
-69
-84
-84
-71
-75
-93
-91
-74
-69
-79
-81
-73
-72
-80
-83
-79
-72
-68
-71
-69
-65
-72
-89
-91
-68
-28
-4
-22
-54
-45
-20
-42
-66
-46
-49
-64
-20
-44
-144
-101
57
468
1483
2144
1121
-456
-692
-138
-33
-113
-23
-21
-73
-23
9
-8
2
19
19
29
46
63
82
97
113
138
166
190
211
232
254
281
306
327
353
378
394
410
430
431
406
369
306
212
126
69
12
-50
-90
-109
-116
-107
-97
-107
-121
-117
-99
-92
-93
-86
-79
-84
-82
-72
-85
-108
-104
-95
-109
-121
-125
-134
-131
-119
-123
-138
-145
-146
-143
-137
-129
-120
-119
-126
-120
-108
-115
-129
-131
-127
-117
-103
-101
-104
-98
-95
-100
-103
-105
-102
-88
-81
-84
-77
-72
-87
-91
-74
-70
-79
-73
-59
-59
-66
-66
-68
-70
-60
-53
-62
-67
-59
-48
-45
-59
-69
-60
-62
-78
-69
-44
-40
-48
-51
-57
-64
-61
-54
-49
-50
-56
-56
-56
-68
-76
-50
-18
-17
-36
-52
-56
-51
-61
-72
-45
-39
-64
-31
-25
-128
-126
39
384
1218
1928
1197
-331
-756
-210
1
-102
-51
-20
-74
-53
-13
-14
-6
1
-3
12
35
47
59
79
102
124
138
153
180
206
225
249
274
292
317
354
381
391
398
404
393
365
319
250
168
98
40
-19
-60
-72
-76
-88
-93
-84
-75
-78
-83
-78
-72
-78
-86
-87
-89
-97
-96
-93
-102
-111
-110
-115
-124
-122
-121
-129
-130
-128
-138
-139
-126
-125
-129
-124
-122
-127
-123
-115
-118
-121
-113
-106
-107
-106
-105
-106
-100
-90
-90
-98
-101
-96
-88
-80
-80
-86
-88
-86
-85
-79
-72
-77
-88
-90
-81
-74
-72
-71
-66
-67
-75
-76
-66
-61
-69
-70
-65
-62
-57
-50
-57
-69
-63
-57
-68
-71
-53
-42
-48
-64
-82
-79
-40
-4
-11
-42
-53
-43
-51
-78
-77
-61
-75
-57
-18
-80
-141
-31
264
948
1749
1423
-94
-959
-526
-74
-107
-84
15
-10
-22
9
1
1
28
36
41
62
74
79
101
125
133
138
158
198
237
250
258
288
315
325
349
384
397
395
401
403
379
333
279
215
131
60
30
4
-48
-83
-84
-79
-74
-65
-72
-80
-68
-64
-81
-95
-94
-87
-86
-95
-104
-111
-120
-127
-131
-148
-157
-144
-143
-163
-161
-146
-156
-169
-157
-153
-163
-154
-138
-144
-157
-155
-142
-132
-139
-149
-137
-117
-111
-114
-120
-131
-129
-115
-106
-100
-90
-92
-100
-84
-65
-82
-103
-85
-66
-69
-69
-66
-81
-85
-67
-66
-77
-67
-54
-71
-94
-80
-47
-24
-2
13
-8
-41
-51
-54
-54
-44
-52
-62
-51
-55
-51
-31
-88
-136
-20
265
871
1564
1264
-88
-875
-498
-64
-60
-61
-13
-38
-34
-12
-30
-18
23
25
13
33
60
67
66
79
108
130
138
157
184
202
229
268
290
297
315
333
344
362
371
355
328
288
218
146
97
50
-2
-33
-43
-53
-66
-66
-58
-57
-57
-48
-44
-60
-71
-56
-47
-59
-67
-65
-78
-96
-100
-98
-99
-98
-106
-120
-123
-121
-121
-116
-116
-131
-137
-123
-115
-122
-128
-126
-125
-132
-139
-130
-119
-125
-132
-124
-119
-130
-137
-132
-128
-128
-127
-120
-116
-122
-130
-129
-129
-136
-144
-147
-134
-109
-87
-61
-37
-50
-90
-111
-108
-102
-105
-115
-100
-80
-97
-89
-58
-118
-161
-30
285
955
1653
1211
-267
-1004
-534
-95
-92
-51
13
-22
-15
21
11
18
50
59
59
71
92
119
135
139
156
185
209
225
241
260
289
320
339
354
376
399
411
416
414
397
368
318
237
149
78
13
-50
-87
-101
-111
-119
-116
-111
-111
-113
-113
-107
-99
-98
-106
-114
-114
-112
-116
-119
-127
-142
-153
-155
-150
-137
-142
-177
-180
-134
-130
-183
-197
-165
-160
-174
-173
-174
-182
-176
-166
-166
-170
-168
-163
-170
-195
-209
-190
-156
-113
-86
-106
-134
-140
-155
-171
-160
-149
-140
-139
-174
-162
-109
-169
-222
-94
167
838
1786
1599
-23
-1077
-665
-138
-135
-112
-23
-53
-53
-7
-10
-3
25
29
35
59
78
92
110
129
158
190
212
231
255
274
287
318
364
397
423
459
474
451
424
398
350
279
197
120
55
-13
-83
-120
-121
-115
-114
-113
-106
-91
-77
-77
-78
-66
-60
-73
-91
-94
-86
-86
-103
-122
-126
-127
-138
-147
-145
-150
-167
-178
-173
-166
-173
-187
-191
-185
-182
-183
-181
-178
-178
-175
-171
-170
-174
-189
-208
-202
-170
-132
-93
-74
-99
-142
-156
-145
-135
-138
-138
-119
-124
-155
-129
-109
-183
-189
-63
216
1020
1886
1373
-205
-859
-364
-56
-130
-94
-45
-82
-68
-35
-33
-24
-15
-4
21
39
49
70
91
106
128
160
190
208
225
255
292
320
342
373
408
426
431
444
442
402
343
269
173
83
23
-22
-60
-81
-84
-85
-91
-87
-77
-83
-98
-94
-73
-69
-86
-94
-83
-76
-90
-105
-110
-110
-113
-126
-138
-132
-123
-132
-139
-132
-138
-152
-146
-131
-134
-145
-135
-118
-130
-158
-162
-143
-126
-110
-115
-146
-155
-124
-106
-120
-128
-119
-111
-108
-102
-97
-97
-94
-83
-82
-98
-114
-121
-113
-85
-58
-40
-20
-21
-53
-74
-66
-61
-78
-97
-82
-47
-60
-84
-52
-78
-172
-140
60
566
1454
1735
607
-636
-628
-122
-46
-92
-27
-41
-73
-45
-34
-31
-7
0
-4
6
23
37
52
70
95
119
131
144
169
193
208
232
262
282
293
311
329
335
342
352
335
278
206
146
92
32
-21
-43
-47
-58
-74
-79
-73
-70
-68
-61
-61
-64
-58
-58
-68
-65
-56
-72
-100
-105
-100
-110
-119
-113
-114
-128
-134
-126
-122
-128
-131
-121
-115
-122
-122
-111
-112
-115
-104
-103
-116
-112
-95
-99
-108
-95
-74
-73
-84
-87
-80
-76
-81
-79
-64
-57
-65
-72
-75
-86
-96
-86
-64
-47
-26
9
28
4
-33
-44
-40
-41
-42
-45
-49
-36
-34
-42
-17
-24
-98
-85
88
510
1240
1534
612
-590
-715
-195
-13
-57
-15
-6
-36
-14
6
-1
9
25
25
23
32
46
57
