# session 24
15
18
1
99
130
-99
-236
-115
129
942
2094
1827
-24
-1123
-669
-168
-173
-129
-62
-112
-95
-37
-41
-31
5
16
28
59
85
103
125
154
191
222
258
308
352
374
396
418
425
435
443
412
348
292
236
150
50
-30
-80
-116
-139
-145
-141
-134
-128
-130
-125
-106
-95
-101
-105
-99
-96
-94
-97
-109
-117
-116
-123
-141
-153
-155
-154
-153
-153
-153
-154
-158
-162
-156
-146
-141
-142
-139
-129
-126
-128
-121
-113
-121
-130
-113
-88
-91
-102
-86
-73
-100
-120
-91
-56
-50
-58
-75
-82
-51
-23
-34
-37
-10
14
27
0
-70
-79
-3
19
-28
-22
33
59
70
75
45
22
37
43
37
63
81
58
44
54
54
46
43
37
38
50
55
50
49
51
50
58
79
76
48
32
25
21
56
95
72
28
33
66
78
69
72
97
98
53
17
19
24
18
11
4
12
31
20
-7
-1
12
-8
-21
-5
-2
-3
22
31
1
-27
-39
-52
-72
-65
-19
-23
-78
-58
-50
-161
-185
-74
213
1101
1999
1363
-323
-957
-448
-181
-275
-214
-124
-148
-149
-104
-89
-126
-161
-139
-107
-107
-84
-28
-11
-18
15
52
49
54
93
133
155
146
145
198
241
227
234
259
207
122
97
91
44
-30
-98
-125
-124
-153
-199
-189
-150
-161
-184
-165
-186
-224
-61
119
-273
-1143
-1663
-1564
-1250
-826
-288
-58
-277
-465
-385
-240
-107
44
130
151
176
186
173
207
276
310
331
396
476
513
525
563
629
672
678
708
782
827
805
752
691
616
520
399
272
155
39
-66
-136
-181
-219
-252
-275
-278
-266
-253
-230
-202
-198
-208
-201
-197
-208
-203
-177
-160
-154
-139
-123
-131
-154
-151
-109
-87
-126
-159
-116
-61
-67
-87
-76
-74
-89
-83
-74
-89
-87
-47
-24
-42
-54
-38
-32
-42
-35
-15
-13
-28
-24
7
30
14
-11
-3
21
26
22
22
18
21
49
89
98
67
33
20
23
36
48
45
42
57
70
66
68
77
65
50
61
75
71
65
64
59
57
62
57
41
42
54
49
34
33
34
23
21
31
29
20
15
9
0
-1
-2
-13
-19
-17
-17
-22
-26
-29
-35
-38
-38
-39
-42
-47
-56
-59
-58
-74
-90
-78
-53
-36
-15
-11
-42
-81
-102
-104
-105
-120
-124
-117
-142
-142
-105
-173
-259
-143
127
657
1397
1307
-14
-1036
-821
-360
-302
-268
-186
-204
-202
-162
-160
-146
-109
-98
-91
-66
-43
-27
-10
14
41
58
72
99
129
150
166
182
199
219
239
255
275
294
303
306
301
280
241
195
150
106
63
23
-4
-19
-36
-50
-57
-68
-75
-58
-56
-79
-69
-70
-134
-81
107
-32
-687
-1305
-1429
-1270
-1078
-742
-311
-159
-318
-386
-213
-15
84
118
113
103
116
140
177
240
310
366
410
459
519
582
643
710
793
884
971
1040
1083
1093
1050
949
806
637
451
268
109
-27
-144
-227
-274
-304
-326
-331
-325
-319
-314
-306
-295
-286
-276
-263
-253
-245
-235
-225
-218
-208
-201
-199
-190
-175
-174
-178
-171
-165
-167
-166
-162
-158
-151
-144
-142
-139
-134
-131
-129
-122
-114
-110
-108
-105
-101
-96
-91
-87
-86
-82
-76
-75
-74
-65
-58
-60
-63
-61
-62
-60
-53
-50
-52
-53
-53
-55
-55
-51
-50
-48
-47
-50
-53
-52
-63
-76
-68
-46
-19
15
31
4
-38
-55
-46
-45
-60
-50
-34
-67
-66
-19
-98
-184
-57
175
754
1773
1878
358
-945
-755
-237
-209
-195
-100
-126
-129
-76
-77
-82
-54
-38
-27
-4
13
28
50
70
88
112
135
153
175
210
248
275
291
310
330
347
361
370
366
341
299
243
175
98
31
-19
-62
-99
-118
-128
-137
-139
-140
-148
-145
-138
-157
-163
-149
-187
-185
-24
7
-409
-952
-1130
-1028
-944
-768
-354
-46
-154
-370
-325
-152
-59
-5
45
77
125
162
150
149
195
239
273
326
386
442
508
588
672
761
850
932
995
1022
1000
929
822
683
518
346
186
43
-84
-183
-245
-286
-316
-329
-329
-326
-319
-308
-295
-284
-276
-264
-249
-241
-241
-235
-222
-218
-218
-209
-200
-201
-200
-197
-195
-191
-188
-187
-185
-179
-174
-168
-158
-151
-149
-145
-139
-134
-127
-120
-115
-108
-100
-95
-92
-90
-87
-83
-77
-72
-71
-70
-65
-62
-61
-60
-59
-58
-56
-53
-51
-50
-52
-55
-56
-64
-83
-97
-88
-68
-41
-4
13
-10
-39
-47
-41
-43
-60
-56
-42
-69
-63
-14
-88
-183
-81
138
747
1845
2015
457
-944
-788
-240
-202
-194
-91
-119
-132
-77
-72
-74
-46
-34
-28
-3
19
37
60
81
100
123
148
172
197
223
249
272
297
324
350
373
390
398
391
365
321
262
194
120
52
-5
-50
-80
-98
-111
-118
-120
-125
-124
-122
-138
-140
-132
-175
-168
-4
48
-285
-717
-875
-882
-904
-714
-267
-44
-269
-480
-345
-109
-11
15
35
37
42
63
90
124
168
214
262
311
360
416
476
534
597
675
754
823
877
903
888
827
723
584
430
276
128
-7
-118
-200
-255
-294
-320
-329
-329
-326
-318
-308
-301
-291
-281
-274
-264
-250
-242
-239
-232
-228
-230
-230
-222
-206
-204
-224
-226
-194
-180
-197
-201
-173
-140
-134
-160
-175
-149
-130
-154
-168
-142
-133
-158
-150
-108
-113
-150
-121
-50
-46
-114
-190
-235
-206
-120
-74
-76
-52
-19
-40
-90
-109
-82
-39
-28
-35
-51
-100
-98
-5
-32
-157
-65
219
709
1552
1817
594
-827
-923
-358
-172
-194
-123
-39
-28
-89
-107
-70
-108
-125
-5
76
42
33
35
3
55
195
269
245
197
168
197
296
381
372
347
405
469
446
399
393
376
314
263
238
189
118
74
50
32
47
64
21
-30
-5
50
37
-2
20
3
-94
-11
194
-75
-903
-1554
-1613
-1372
-1079
-745
-507
-477
-487
-353
-147
-10
62
121
151
132
122
164
209
213
241
318
367
371
408
494
581
641
684
745
835
907
921
903
866
768
621
489
352
181
40
-58
-164
-255
-292
-311
-321
-317
-328
-330
-303
-297
-317
-303
-273
-271
-263
-231
-209
-211
-227
-247
-248
-246
-250
-203
-127
-138
-205
-214
-194
-195
-187
-174
-180
-183
-180
-177
-168
-167
-177
-171
-153
-144
-131
-112
-112
-126
-132
-125
-122
-119
-90
-51
-58
-101
-120
-103
-76
-51
-27
-1
18
5
-42
-70
-41
-8
-26
-36
0
-10
-48
-20
-36
-115
-37
248
820
1627
1647
283
-969
-862
-321
-211
-155
-11
0
-16
13
3
1
31
40
53
84
85
75
109
146
133
127
178
208
174
169
224
244
218
229
270
278
273
289
294
276
281
288
229
142
101
72
22
-4
-10
-36
-56
-51
-47
-45
-47
-70
-88
-82
-89
-128
-161
-163
-163
-186
-208
-204
-172
-124
-109
-151
-185
-173
-177
-204
-200
-187
-191
-168
-154
-188
-176
-145
-217
-230
-51
288
970
1569
898
-680
-1306
-761
-342
-293
-166
-69
-104
-95
-56
-52
-33
-1
10
24
46
63
84
113
141
168
190
210
245
282
299
308
319
316
304
293
273
246
215
162
91
31
-25
-81
-113
-121
-132
-151
-162
-149
-120
-113
-123
-114
-98
-98
-98
-100
-117
-132
-125
-112
-113
-128
-142
-143
-147
-166
-174
-145
-98
-63
-48
-62
-99
-119
-105
-93
-100
-105
-108
-99
-82
-88
-86
-52
-89
-159
-90
72
450
1221
1481
373
-907
-946
-392
-197
-148
-47
-49
-58
-5
-3
-17
20
50
59
82
99
101
120
152
173
198
230
255
285
324
350
356
368
382
385
379
360
323
272
209
123
28
-45
-94
-131
-149
-150
-163
-185
-183
-162
-156
-158
-146
-126
-116
-113
-111
-111
-115
-124
-134
-140
-143
-148
-149
-140
-130
-142
-160
-149
-144
-172
-180
-153
-147
-159
-136
-102
-109
-127
-115
-100
-102
-109
-125
-142
-127
-92
-62
-35
-26
-51
-78
-77
-63
-55
-57
-67
-60
-41
-54
-52
-12
-45
-108
-46
126
594
1374
1437
235
-834
-712
-246
-147
-102
-12
-26
-35
5
17
26
47
48
50
75
96
107
120
137
157
181
209
237
259
274
291
313
336
344
336
332
333
313
266
217
169
110
48
-2
-42
-67
-77
-81
-80
-72
-67
-67
-62
-51
-46
-48
-51
-53
-54
-53
-58
-76
-91
-92
-95
-107
-113
-109
-105
-108
-112
-110
-107
-112
-110
-97
-94
-105
-108
-99
-93
-93
-93
-93
-92
-81
-72
-78
-89
-87
-81
-80
-76
-69
-69
-71
-66
-59
-56
-52
-46
-42
-44
-46
-41
-31
-31
-37
-38
-32
-29
-28
-24
-22
-23
-22
-24
-27
-24
-17
-17
-21
-17
-13
-19
-26
-22
-14
-11
-14
-19
-21
-20
-20
-17
-13
-17
-15
-6
-15
-38
-43
-22
4
17
7
-18
-32
-27
-30
-43
-33
-33
-66
-43
-11
-98
-133
-10
168
748
1641
1485
27
-899
-569
-174
-175
-122
-47
-84
-76
-36
-43
-36
-9
-5
2
26
43
53
71
94
117
139
157
177
204
231
252
269
287
301
308
314
313
295
266
243
216
161
84
16
-34
-74
-102
-114
-117
-116
-109
-101
-95
-91
-90
-88
-81
-78
-80
-81
-84
-95
-107
-116
-120
-127
-139
-148
-150
-153
-153
-144
-138
-142
-148
-147
-141
-136
-135
-130
-119
-114
-115
-111
-102
-96
-94
-90
-84
-77
-73
-72
-72
-66
-57
-50
-45
-41
-40
-41
-43
-39
-27
-22
-29
-32
-23
-14
-15
-17
-14
-10
-11
-14
-17
-16
-8
-5
-12
-12
-4
-7
-13
-5
3
3
9
22
24
7
-13
-9
2
-15
-21
-11
-26
-19
6
-64
-110
2
178
652
1423
1354
60
-879
-617
-181
-142
-110
-39
-57
-47
-12
-22
-18
10
18
24
47
70
87
102
115
135
162
187
212
236
261
288
303
312
326
329
312
295
280
247
202
158
101
33
-19
-59
-106
-140
-144
-139
-135
-129
-121
-111
-99
-97
-97
-88
-79
-82
-88
-92
-98
-104
-108
-113
-118
-120
-125
-130
-127
-121
-120
-125
-128
-124
-119
-116
-112
-105
-101
-100
-97
-94
-93
-89
-85
-83
-80
-74
-71
-69
-61
-60
-63
-56
-46
-53
-57
-47
-45
-49
-35
-26
-36
-38
-30
-35
-41
-29
-18
-24
-30
-27
-26
-28
-23
-12
-9
-14
-18
-18
-17
-15
-11
-15
-18
-10
-1
-8
-15
-10
-12
-20
-11
10
9
-13
-21
-15
-25
-39
-22
-15
-41
-20
5
-77
-108
19
218
731
1420
1183
-73
-803
-480
-121
-110
-78
-28
-45
-27
0
-13
-5
17
22
39
61
63
70
102
127
132
146
175
196
213
238
259
270
285
300
302
293
279
262
235
189
138
94
49
-3
-45
-74
-92
-104
-114
-121
-116
-106
-99
-82
-53
-39
-42
-45
-50
-58
-61
-64
-75
-84
-82
-84
-93
-99
-105
-111
-108
-105
-114
-121
-119
-117
-119
-117
-111
-104
-100
-106
-115
-111
-101
-101
-103
-95
-91
-94
-90
-83
-83
-81
-76
-75
-75
-69
-65
-65
-66
-65
-60
-53
-52
-56
-58
-56
-52
-47
-45
-45
-44
-43
-41
-40
-41
-41
-39
-38
-35
-30
-27
-32
-34
-29
-23
-21
-16
-12
-17
-15
-3
-3
-10
0
13
3
-16
-20
-12
-18
-30
-21
-17
-36
-18
-4
-77
-94
37
254
739
1283
936
-225
-797
-439
-101
-80
-46
-6
-24
-10
14
11
22
41
49
62
76
87
106
125
141
160
180
199
219
240
259
277
296
309
316
324
334
329
293
247
209
168
119
71
30
-7
-38
-59
-67
-65
-61
-59
-57
-54
-47
-40
-41
-44
-47
-52
-57
-59
-63
-73
-79
-81
-87
-96
-99
-94
-95
-104
-108
-106
-109
-116
-117
-116
-115
-108
-108
-121
-112
-72
-58
-88
-114
-121
-129
-130
-120
-113
-111
-109
-107
-104
-104
-106
-106
-102
-99
-97
-96
-97
-98
-97
-97
-99
-96
-88
-84
-87
-89
-89
-86
-83
-81
-83
-84
-79
-74
-74
-71
-60
-66
-90
-93
-64
-31
-3
11
-9
-39
-53
-60
-59
-51
-49
-39
-26
-45
-32
7
-62
-124
14
309
883
1560
1279
-90
-937
-606
-178
-139
-84
-3
-22
-10
35
34
40
67
78
86
103
117
135
161
180
193
211
236
258
281
304
323
336
352
365
366
362
355
333
297
256
204
140
76
21
-29
-67
-92
-107
-110
-106
-105
-106
-104
-100
-98
-99
-102
-105
-105
-111
-121
-128
-134
-142
-148
-153
-161
-165
-167
-177
-188
-183
-176
-180
-183
-177
-173
-173
-168
-164
-163
-159
-154
-152
-149
-146
-147
-148
-148
-146
-143
-150
-161
-149
-116
-88
-59
-34
-48
-85
-99
-92
-83
-84
-98
-95
-79
-90
-84
-42
-85
-155
-79
95
508
1261
1420
317
-786
-722
-227
-107
-95
-13
-6
-19
11
20
24
45
59
71
95
116
131
149
171
198
230
263
295
326
358
392
419
437
454
466
458
434
403
357
292
223
154
86
26
-23
-59
-77
-83
-85
-80
-73
-71
-69
-61
-56
-57
-60
-62
-63
-65
-69
-76
-84
-90
-96
-108
-117
-119
-121
-126
-129
-131
-137
-141
-141
-142
-146
-148
-146
-146
-151
-153
-152
-154
-157
-154
-161
-180
-180
-154
-131
-111
-85
-90
-131
-156
-157
-161
-164
-162
-169
-162
-153
-173
-160
-130
-197
-250
-143
90
605
1211
918
-320
-1031
-689
-279
-225
-184
-131
-151
-142
-110
-109
-98
-77
-67
-54
-32
-13
8
31
55
81
109
137
171
208
244
277
308
334
352
362
365
355
331
294
246
186
124
70
26
-9
-32
-41
-37
-27
-19
-10
6
22
34
45
56
64
