# session 33
209
179
230
146
-142
-352
-355
-319
-329
-330
-312
-301
-306
-321
-303
-258
-248
-272
-280
-275
-270
-269
-277
-270
-247
-267
-266
-199
-238
-337
-242
24
608
1513
1543
98
-1095
-842
-284
-241
-236
-145
-173
-183
-137
-139
-135
-103
-103
-104
-72
-49
-39
-20
4
22
43
69
99
127
151
182
218
248
275
306
331
345
359
366
355
325
273
188
90
11
-53
-119
-176
-207
-218
-222
-220
-213
-199
-183
-176
-170
-156
-146
-145
-141
-134
-132
-133
-131
-127
-126
-129
-137
-144
-143
-142
-139
-136
-140
-146
-141
-129
-128
-131
-130
-126
-123
-117
-113
-114
-113
-106
-100
-99
-97
-92
-90
-88
-84
-82
-82
-75
-69
-69
-64
-57
-61
-64
-52
-45
-53
-56
-56
-76
-98
-89
-53
-6
32
31
-4
-25
-28
-30
-27
-29
-36
-20
-24
-51
-14
-5
-104
-92
62
362
1211
2037
1354
-297
-837
-267
12
-66
-11
17
-38
-7
31
17
28
52
53
60
78
96
116
128
136
156
182
199
215
247
285
314
341
375
410
443
470
476
464
436
385
320
249
164
67
-17
-79
-125
-162
-189
-194
-188
-186
-185
-178
-174
-173
-168
-166
-159
-145
-138
-146
-153
-149
-148
-154
-157
-157
-159
-162
-162
-161
-167
-182
-189
-175
-163
-172
-184
-182
-173
-168
-165
-162
-157
-158
-161
-153
-140
-143
-152
-149
-141
-143
-146
-139
-134
-137
-144
-155
-161
-142
-100
-56
-36
-52
-83
-99
-105
-108
-103
-107
-109
-92
-101
-112
-70
-91
-178
-127
51
482
1399
1845
735
-704
-789
-185
-55
-123
-41
-21
-53
-24
-6
-7
14
35
48
60
65
77
99
116
134
161
183
198
219
256
298
329
350
376
411
438
456
471
472
447
393
315
221
123
34
-31
-72
-112
-157
-180
-168
-148
-146
-158
-158
-143
-131
-123
-113
-107
-111
-115
-110
-103
-103
-106
-103
-102
-106
-109
-112
-117
-118
-113
-111
-112
-113
-113
-115
-114
-105
-97
-100
-106
-105
-105
-106
-102
-96
-98
-96
-88
-88
-95
-97
-97
-102
-101
-86
-77
-88
-102
-101
-93
-86
-84
-94
-113
-119
-105
-81
-49
-9
2
-40
-82
-80
-66
-69
-81
-89
-74
-59
-84
-76
-26
-86
-159
-48
194
776
1692
1665
156
-1012
-699
-122
-86
-85
1
-34
-45
2
-6
-8
31
42
42
63
73
73
93
120
136
161
190
210
230
261
286
306
333
364
392
416
437
451
450
425
383
324
240
136
33
-50
-108
-147
-175
-192
-198
-199
-200
-194
-188
-181
-165
-152
-150
-140
-129
-141
-157
-154
-147
-152
-157
-158
-166
-173
-169
-161
-165
-176
-181
-181
-182
-180
-171
-167
-173
-174
-159
-150
-155
-160
-160
-158
-147
-136
-135
-135
-130
-131
-139
-145
-143
-135
-128
-104
-52
-21
-54
-95
-99
-94
-89
-81
-94
-94
-68
-83
-87
-36
-89
-180
-77
166
729
1694
1806
318
-996
-770
-152
-86
-92
8
1
-9
34
47
51
48
38
62
91
97
118
150
167
176
180
194
246
298
306
314
358
404
431
448
458
462
463
456
427
363
281
200
110
5
-85
-141
-174
-193
-194
-191
-203
-211
-192
-171
-169
-163
-147
-136
-130
-131
-143
-145
-136
-145
-154
-145
-152
-174
-172
-163
-165
-156
-151
-174
-182
-148
-128
-148
-167
-158
-142
-137
-141
-140
-126
-116
-126
-131
-117
-111
-115
-107
-97
-97
-98
-103
-107
-91
-72
-71
-78
-97
-129
-142
-126
-103
-71
-21
19
7
-38
-63
-58
-52
-59
-63
-44
-24
-51
-64
-19
-60
-165
-122
18
432
1485
2160
1109
-502
-747
-157
-14
-105
-37
-18
-51
-16
2
-10
7
22
29
51
69
65
68
94
128
152
161
162
189
255
298
284
284
335
374
383
405
429
423
398
352
271
179
105
28
-57
-111
-142
-180
-208
-205
-203
-208
-198
-184
-183
-178
-178
-189
-180
-149
-142
-156
-156
-148
-150
-159
-171
-174
-158
-151
-162
-164
-159
-167
-171
-162
-157
-158
-159
-163
-151
-127
-127
-143
-137
-127
-144
-159
-136
-94
-88
-125
-147
-127
-101
-98
-101
-90
-75
-73
-83
-85
-73
-64
-68
-74
-65
-46
-59
-108
-130
-89
-25
19
23
-3
-19
-28
-49
-37
-11
-36
-50
-13
-26
-53
-8
-28
-102
-56
112
702
1808
2078
685
-644
-515
-3
-27
-97
-10
-20
-42
13
28
5
9
20
27
48
68
76
86
106
119
125
141
170
197
211
221
250
287
307
319
336
346
350
355
344
300
234
163
97
36
-32
-93
-124
-133
-145
-157
-160
-156
-144
-135
-135
-118
-95
-110
-144
-147
-128
-117
-111
-113
-116
-101
-94
-116
-128
-120
-128
-145
-140
-130
-131
-128
-123
-124
-117
-104
-106
-113
-105
-103
-112
-108
-92
-90
-100
-94
-77
-76
-92
-95
-82
-75
-78
-79
-80
-81
-74
-70
-76
-78
-73
-74
-79
-75
-70
-69
-64
-57
-66
-79
-76
-67
-66
-66
-64
-63
-59
-55
-62
-75
-87
-90
-76
-51
-17
25
38
1
-34
-44
-56
-60
-54
-55
-36
-18
-54
-58
-20
-79
-134
-37
182
806
1706
1562
95
-869
-515
-58
-75
-81
-18
-44
-41
-2
-4
0
21
26
36
51
58
76
108
124
123
132
156
180
201
222
239
260
288
314
329
340
353
368
380
377
345
292
237
179
105
26
-27
-52
-79
-106
-110
-98
-94
-100
-104
-94
-87
-95
-94
-81
-84
-99
-97
-89
-98
-108
-104
-103
-119
-135
-133
-128
-129
-128
-125
-134
-143
-134
-122
-124
-126
-124
-129
-135
-128
-115
-113
-122
-134
-134
-120
-108
-111
-118
-117
-109
-100
-102
-118
-127
-116
-105
-98
-87
-90
-106
-102
-84
-87
-100
-94
-83
-85
-85
-79
-77
-83
-92
-100
-94
-77
-53
-19
-6
-33
-58
-61
-66
-65
-61
-70
-59
-49
-83
-70
-21
-92
-142
1
270
916
1766
1469
-128
-1048
-573
-73
-86
-65
7
-28
-25
13
13
28
46
39
57
93
101
99
117
141
163
186
209
231
252
270
291
317
341
357
372
389
404
412
413
400
363
302
231
156
79
8
-44
-80
-102
-117
-124
-120
-111
-111
-113
-109
-109
-114
-113
-107
-103
-103
-109
-123
-133
-132
-134
-144
-153
-157
-164
-168
-163
-161
-168
-175
-174
-168
-166
-166
-161
-154
-157
-161
-158
-159
-163
-162
-159
-154
-145
-140
-138
-134
-134
-136
-129
-122
-127
-126
-113
-108
-110
-109
-118
-142
-153
-141
-121
-89
-43
-22
-50
-84
-88
-84
-81
-79
-93
-99
-84
-93
-85
-53
-116
-174
-63
151
731
1708
1768
313
-858
-591
-66
-67
-89
-4
-29
-48
-10
-8
-5
23
39
49
66
85
107
118
119
133
163
195
226
250
266
290
328
360
372
385
411
433
440
443
423
360
283
215
141
60
-5
-58
-95
-105
-110
-128
-137
-123
-109
-108
-102
-91
-96
-105
-105
-106
-107
-101
-104
-115
-115
-109
-112
-122
-134
-138
-134
-134
-140
-137
-131
-136
-136
-119
-111
-126
-139
-125
-111
-121
-113
-75
-69
-100
-111
-107
-102
-82
-74
-97
-108
-96
-100
-119
-118
-101
-91
-89
-86
-84
-87
-82
-67
-77
-109
-107
-66
-54
-88
-105
-77
-60
-83
-101
-94
-95
-102
-77
-22
16
-3
-56
-72
-54
-52
-66
-77
-73
-47
-55
-87
-49
-38
-140
-137
13
323
1158
1935
1245
-347
-850
-287
-11
-93
-53
-15
-49
-26
1
-5
11
27
29
40
54
67
86
109
134
149
149
160
192
217
234
263
288
303
324
347
356
365
381
385
363
321
261
189
120
61
5
-47
-81
-98
-108
-104
-94
-104
-113
-99
-91
-108
-115
-106
-104
-104
-95
-93
-110
-124
-122
-114
-115
-123
-127
-127
-129
-137
-143
-145
-149
-151
-150
-146
-142
-146
-155
-149
-134
-133
-141
-141
-138
-139
-135
-129
-131
-132
-130
-130
-127
-123
-123
-117
-107
-107
-113
-109
-103
-98
-87
-87
-101
-103
-90
-84
-85
-83
-84
-98
-107
-96
-74
-44
-3
12
-19
-52
-59
-61
-58
-55
-65
-53
-34
-56
-47
-12
-85
-138
-5
277
936
1753
1444
-80
-940
-492
-40
-69
-53
16
-17
-11
27
17
27
61
65
70
94
103
108
130
154
167
185
209
229
248
273
296
312
329
358
391
410
404
398
403
393
357
309
242
160
83
9
-54
-91
-111
-128
-131
-127
-129
-127
-120
-121
-126
-125
-125
-127
-121
-113
-116
-125
-135
-149
-154
-146
-145
-160
-167
-163
-161
-161
-159
-163
-171
-166
-151
-147
-156
-158
-152
-150
-147
-139
-138
-145
-142
-128
-123
-126
-122
-113
-118
-127
-124
-115
-114
-111
-104
-106
-109
-98
-92
-101
-105
-99
-95
-94
-94
-100
-114
-123
-102
-60
-32
-26
-34
-52
-67
-74
-73
-67
-73
-66
-37
-56
-92
-52
-53
-141
-101
84
509
1389
1819
729
-712
-818
-204
-36
-87
-17
-3
-20
13
8
-6
32
60
59
70
86
96
118
144
159
171
196
223
240
256
279
310
345
370
384
401
421
431
429
415
386
334
261
179
101
34
-21
-63
-92
-110
-115
-112
-112
-114
-108
-99
-97
-98
-96
-98
-102
-102
-103
-109
-109
-105
-116
-136
-139
-133
-143
-159
-158
-153
-156
-159
-157
-151
-145
-145
-150
-154
-155
-156
-155
-149
-141
-138
-143
-145
-140
-137
-138
-139
-137
-135
-125
-116
-115
-116
-119
-123
-111
-90
-91
-113
-121
-104
-90
-90
-90
-86
-85
-91
-103
-109
-95
-65
-30
4
6
-27
-56
-66
-65
-58
-66
-78
-55
-42
-68
-47
-31
-116
-128
21
324
1068
1799
1213
-318
-895
-360
-23
-68
-21
22
-18
5
39
28
44
76
78
75
89
107
119
133
155
176
189
206
241
274
291
309
336
356
375
400
419
429
439
444
423
370
307
236
147
57
-18
-73
-100
-110
-129
-142
-137
-139
-144
-123
-107
-121
-132
-126
-130
-140
-135
-132
-142
-144
-143
-155
-166
-158
-153
-166
-180
-183
-184
-183
-178
-176
-177
-174
-172
-177
-174
-169
-168
-165
-165
-172
-169
-155
-159
-178
-176
-156
-149
-160
-162
-150
-145
-153
-155
-147
-141
-141
-143
-147
-152
-154
-140
-115
-92
-55
-23
-43
-83
-88
-82
-84
-83
-94
-96
-74
-84
-86
-36
-75
-157
-63
157
662
1578
1764
404
-911
-762
-148
-51
-71
5
-10
-17
30
26
24
59
72
73
90
109
123
137
153
180
205
224
244
265
291
327
356
371
394
428
452
466
477
479
465
426
355
267
182
102
28
-28
-66
-91
-103
-106
-107
-105
-96
-83
-80
-93
-103
-94
-84
-88
-93
-90
-87
-93
-103
-118
-133
-137
-136
-139
-136
-131
-146
-167
-170
-165
-163
-162
-157
-151
-150
-153
-152
-155
-160
-151
-140
-148
-158
-152
-139
-132
-132
-135
-134
-132
-133
-128
-121
-121
-122
-119
-119
-122
-120
-115
-113
-115
-123
-128
-118
-98
-77
-49
-26
-39
-67
-72
-73
-81
-81
-90
-101
-83
-83
-93
-53
-70
-169
-139
13
390
1307
1913
946
-587
-835
-228
-26
-101
-51
-31
-61
-43
-33
-40
-14
21
33
29
44
78
92
91
116
145
169
228
271
241
218
269
327
352
380
422
460
468
438
406
382
329
249
169
99
33
-49
-136
-177
-159
-131
-134
-148
-139
-125
-127
-123
-104
-92
-89
-96
-124
-134
-103
-73
-58
-59
-96
-132
-132
-154
-194
-173
-136
-157
-174
-142
-129
-154
-169
-157
-139
-141
-159
-149
-110
-126
-179
-148
-65
-76
-145
-145
-110
-121
-134
-104
-80
-101
-132
-134
-128
-135
-103
-17
23
-35
-106
-117
-97
-88
-95
-102
-86
-74
-87
-75
-71
-165
-205
-52
247
898
1698
1435
-13
-884
-518
-106
-121
-92
-21
-52
-45
-4
-25
-52
-33
3
32
44
49
67
83
83
113
172
188
171
202
260
288
312
354
387
399
411
457
508
478
391
343
307
218
108
32
-5
-44
-107
-130
-96
-104
-167
-175
-128
-111
-116
-97
-77
-86
-106
-126
-128
-97
-82
-117
-134
-107
-113
-144
-130
-109
-143
-165
-133
-119
-150
-152
-122
-133
-166
-153
-132
-138
-132
-126
-154
-171
-154
-135
-125
-143
-184
-186
-167
-194
-190
-100
-54
-112
-149
-134
-143
-153
-137
-144
-144
-121
-156
-182
-98
-97
-233
-218
2
521
1531
2000
770
-820
-924
-262
-105
-171
-108
-117
-130
-59
-48
-63
-20
-2
-15
9
31
37
72
95
94
143
197
198
230
279
262
265
337
381
398
440
465
474
475
430
363
302
199
68
-23
-83
-134
-158
-165
-176
-181
-178
-183
-185
-172
-156
-153
-156
-142
-115
-107
-117
-126
-144
-149
-117
-120
-173
-168
-121
-151
-200
-175
-158
-187
-182
-153
-159
-166
-154
-159
-171
-148
-118
-142
-203
-215
-164
-143
-154
-104
-38
-59
-90
-67
-78
-119
-112
-86
-65
-59
-100
-102
-58
-100
-142
-48
292
1207
2165
1655
-47
-829
-354
-19
-83
-36
3
-67
-48
19
21
10
40
93
119
102
92
111
140
175
194
196
222
270
299
322
357
393
425
444
456
479
501
498
470
421
340
218
90
16
-27
-97
-162
-168
-152
-157
-161
-140
-132
-159
-164
-133
-139
-176
-162
-126
-144
-178
-179
-171
-170
-166
-173
-198
-207
-198
-202
-222
-228
-216
-224
-249
-246
-237
-253
-256
-238
-242
-246
-234
-259
-297
-289
-287
-325
-327
-272
-225
-205
-192
-203
-245
-273
-256
-240
-260
-256
-212
-218
-249
-215
-229
-310
-264
-113
311
1364
2053
1010
-628
-886
-273
-114
-214
-149
-122
-151
-120
-107
-96
-30
7
-17
-8
42
60
54
86
143
169
176
217
281
306
315
367
439
491
529
553
560
572
592
594
553
467
371
289
218
182
173
130
85
107
