# session 5
-22
28
-126
29
699
1208
1167
984
945
924
880
855
829
805
775
725
698
692
646
579
536
495
452
438
444
446
435
396
339
311
304
277
254
247
221
210
218
152
42
-3
123
695
1472
1325
98
-701
-411
-10
9
13
59
21
13
54
52
42
75
119
145
160
174
187
185
163
129
85
29
-26
-70
-107
-135
-157
-189
-230
-249
-244
-245
-249
-239
-228
-237
-244
-226
-215
-239
-286
-328
-348
-343
-323
-291
-261
-264
-292
-290
-276
-295
-302
-272
-275
-285
-238
-239
-332
-404
-334
242
1275
1445
111
-1064
-852
-278
-192
-181
-79
-84
-85
-15
10
12
54
104
143
185
225
256
267
254
222
174
109
52
12
-38
-97
-124
-121
-131
-158
-173
-166
-147
-129
-113
-92
-80
-85
-90
-84
-96
-137
-165
-169
-188
-195
-148
-108
-131
-151
-135
-142
-155
-132
-127
-131
-91
-97
-166
-185
-141
271
1265
1679
502
-833
-769
-157
-24
21
160
105
23
84
129
145
208
261
304
355
357
340
373
395
353
304
254
156
61
16
-30
-72
-57
-42
-91
-133
-109
-70
-59
-50
-6
53
49
-38
-113
-121
-122
-132
-113
-103
-127
-123
-90
-97
-138
-149
-130
-117
-117
-151
-202
-169
-96
-147
-268
-318
-103
758
1769
1460
-33
-800
-413
-74
-93
-64
-35
-57
-13
33
47
94
134
149
188
225
251
297
318
281
244
230
212
165
91
54
71
55
-10
-52
-71
-83
-65
-36
-27
-36
-62
-89
-78
-46
-36
-50
-87
-150
-187
-167
-138
-123
-109
-126
-172
-185
-172
-181
-185
-167
-172
-172
-142
-162
-228
-235
-75
414
997
819
-217
-906
-658
-243
-145
-101
-34
-44
-57
-36
-12
35
75
74
93
157
205
219
241
272
261
219
194
171
119
70
38
12
-7
-46
-115
-150
-134
-139
-166
-165
-153
-153
-147
-137
-145
-147
-134
-150
-201
-210
-151
-104
-121
-161
-187
-200
-212
-222
-195
-155
-181
-206
-150
-139
-209
-210
-54
443
1133
1002
-218
-1070
-758
-249
-131
-35
78
46
32
91
113
138
202
235
254
309
369
416
461
470
435
390
331
257
197
156
121
93
61
27
3
-27
-59
-66
-47
-19
6
13
18
29
21
-3
-21
-41
-61
-63
-59
-54
-44
-59
-91
-82
-61
-100
-143
-120
-98
-92
-60
-96
-182
-171
-79
312
1199
1518
329
-988
-929
-313
-158
-126
-8
-21
-27
70
95
69
114
173
189
210
244
270
302
334
333
295
242
176
81
-19
-80
-109
-139
-167
-186
-201
-206
-204
-205
-197
-176
-153
-126
-98
-90
-112
-144
-163
-173
-194
-209
-186
-149
-147
-177
-198
-188
-179
-195
-205
-199
-194
-168
-169
-235
-252
-190
80
863
1502
782
-641
-1010
-454
-162
-144
-21
16
-55
-26
41
51
69
119
175
226
258
281
310
334
334
312
273
230
182
102
13
-45
-80
-98
-97
-114
-149
-157
-141
-122
-85
-46
-42
-55
-62
-67
-72
-79
-106
-140
-143
-116
-89
-80
-95
-115
-120
-116
-125
-135
-122
-101
-95
-89
-106
-153
-166
-80
315
1046
1253
291
-758
-733
-225
-67
-50
41
50
23
60
83
79
112
169
208
243
290
328
350
368
370
351
331
301
242
185
154
111
44
-18
-57
-74
-75
-73
-80
-77
-57
-50
-73
-85
-61
-48
-72
-105
-135
-166
-165
-123
-102
-122
-138
-134
-144
-167
-169
-153
-150
-165
-171
-150
-135
-168
-203
-186
3
549
1051
639
-441
-914
-552
-205
-142
-96
-54
-55
-30
-4
0
25
70
101
131
184
237
268
302
340
332
284
247
218
176
133
90
39
-17
-68
-110
-142
-153
-137
-130
-153
-159
-128
-111
-131
-145
-135
-130
-151
-173
-172
-176
-208
-223
-188
-157
-188
-215
-163
-129
-181
-183
-131
-154
-136
-53
-149
-258
-102
50
341
1206
1617
504
-810
-819
-257
-94
-76
2
-9
-34
-3
20
49
105
169
240
327
429
482
431
353
348
400
447
426
345
305
322
261
108
41
64
-29
-155
-80
21
30
194
358
163
-90
-66
4
-27
-85
-144
-107
-22
-175
-472
-509
-333
-294
-405
-446
-389
-347
-354
-286
-59
9
-314
-522
-282
-180
-477
-384
548
1254
457
-1115
-1601
-944
-497
-484
-316
-92
-112
-196
-150
-46
16
47
107
172
209
260
336
483
742
842
606
447
648
832
617
83
-297
-176
18
-90
-38
234
207
126
358
453
262
214
321
341
290
224
153
85
-28
-115
-47
35
-46
-157
-199
-267
-285
-157
-120
-270
-360
-350
-356
-305
-237
-174
256
923
872
-25
-785
-989
-892
-670
-479
-111
541
571
-142
-248
229
85
-285
-68
204
168
189
265
248
235
214
162
149
115
37
31
63
28
-12
-13
-51
-128
-167
-149
-93
21
191
266
111
-49
70
238
139
117
501
750
395
-62
-101
52
44
-116
-184
-18
110
-66
-238
-162
-201
-435
-422
-161
290
1232
1805
699
-1008
-1372
-791
-495
-431
-353
-350
-319
-317
-438
-414
-209
-142
-178
-80
61
77
6
-111
-202
-130
-16
-55
-56
12
-228
-528
-274
129
-14
-326
-311
-282
-421
-417
-280
-257
-247
-138
-81
-108
-108
-59
52
153
81
-89
-204
-313
-337
-151
-26
-109
-68
148
220
160
150
209
363
496
685
1643
3061
2965
1095
-165
74
361
266
400
509
313
210
260
223
149
145
253
461
563
455
355
380
382
311
233
135
39
-3
-88
-269
-411
-483
-563
-597
-578
-610
-614
-555
-634
-735
-570
-462
-721
-813
-519
-473
-668
-502
-270
-428
-509
-278
-175
-215
-185
-309
-598
-648
-424
-277
-326
-344
-204
37
615
1480
1466
76
-1120
-1014
-502
-322
-211
-52
77
185
187
134
243
456
518
428
416
570
751
862
892
771
543
467
545
458
249
217
184
-39
-103
98
132
-108
-285
-231
-86
-69
-202
-255
-159
-115
-168
-228
-368
-554
-560
-438
-407
-422
-426
-448
-392
-448
-875
-1097
-631
-303
-664
-812
-301
-93
-370
295
2045
2507
724
-827
-540
126
109
-17
-50
-128
-63
19
-65
-27
216
358
344
338
353
345
366
485
631
607
392
257
325
366
276
239
292
309
302
309
280
276
403
541
486
290
148
84
44
115
273
239
-11
-143
-77
-6
73
178
172
57
-69
-210
-305
-250
-183
-320
-552
-656
-696
-566
85
614
-131
-1478
-1750
-1113
-755
-666
-479
-498
-713
-700
-598
-660
-511
-101
27
83
560
767
158
-351
-197
-30
-79
40
234
198
47
-23
-58
-126
-168
-157
-162
-209
-263
-288
-214
-43
55
-14
-118
-86
52
95
0
34
311
547
599
631
668
640
615
656
760
839
785
667
517
274
192
599
1529
2566
2545
994
-415
-365
117
126
104
128
-34
-85
22
-38
-154
-179
-312
-457
-355
-282
-489
-662
-631
-588
-504
-342
-362
-588
-699
-624
-550
-606
-887
-1240
-1140
-556
-272
-614
-934
-768
-406
-216
-160
-23
111
-29
-284
-274
-113
-122
-145
52
171
-21
-226
-356
-578
-594
-325
-349
-564
-369
13
618
1933
2679
1435
-152
-216
262
276
384
622
590
572
678
601
437
453
584
649
583
538
727
993
973
746
660
681
555
353
247
129
-51
-116
-78
-145
-288
-347
-364
-425
-453
-398
-296
-205
-327
-704
-852
-604
-523
-642
-485
-388
-680
-819
-666
-567
-423
-294
-418
-494
-491
-798
-1073
-895
-559
134
1339
1527
-62
-1395
-1183
-672
-580
-460
-411
-496
-373
-212
-249
-238
-129
-69
21
134
168
352
812
1137
1049
810
702
805
997
925
632
598
728
569
363
442
490
329
186
42
-112
-16
218
228
120
90
28
-23
8
-82
-258
-259
-214
-337
-502
-616
-661
-513
-326
-364
-391
-208
34
564
1228
862
-480
-1153
-843
-574
-486
-315
-185
37
319
247
63
228
351
107
-16
156
181
42
78
244
341
330
257
271
333
172
-38
104
306
94
-255
-315
-209
-131
-50
25
95
180
159
63
164
369
345
274
393
413
276
268
241
37
-28
92
87
3
65
205
254
185
83
275
1097
1818
1124
-448
-1045
-639
-482
-618
-574
-479
-406
-307
-277
-213
-65
-85
-268
-364
-392
-389
-227
-103
-283
-425
-263
-189
-308
-263
-187
-356
-536
-599
-622
-452
-193
-300
-738
-985
-846
-612
-514
-444
-287
-144
-54
45
36
-147
-251
-138
-27
-80
-212
-265
-116
203
436
365
192
293
591
972
1707
2272
1521
-56
-759
-272
386
503
157
-66
123
295
223
242
374
337
211
197
245
292
347
372
353
300
167
4
3
156
191
68
85
248
203
-18
-89
-105
-256
-365
-442
-688
-827
-569
-303
-372
-495
-458
-464
-548
-457
-177
7
-19
-90
-119
-214
-378
-472
-451
-399
-372
-4
1125
2041
1239
-374
-747
-225
-137
-233
-142
-190
-199
42
171
134
163
204
233
357
483
486
474
612
808
782
595
620
759
600
317
256
252
222
252
117
-179
-220
-19
95
112
110
65
59
113
104
32
-49
-211
-412
-468
-377
-319
-372
-485
-592
-604
-485
-426
-525
-535
-400
-156
566
1303
651
-953
-1533
-995
-591
-498
-492
-571
-478
-330
-437
-432
-185
-177
-319
-231
-115
-97
32
193
243
285
331
332
368
427
407
303
89
-181
-302
-324
-443
-460
-199
-3
-43
6
215
339
374
370
323
434
571
267
-150
-72
129
59
52
156
176
216
142
-140
-211
-6
339
1217
2097
1457
-271
-1002
-528
-204
-306
-308
-157
-50
-38
-33
50
100
55
76
179
221
274
325
96
-194
1
329
104
-232
-55
114
-194
-466
-411
-343
-294
-176
-157
-200
-216
-367
-524
-414
-243
-212
-167
-85
-31
67
140
122
182
298
230
8
-142
-109
43
29
-199
-227
63
584
1525
2160
1231
-413
-840
-260
-9
-120
-56
79
53
24
170
325
312
247
210
150
142
216
251
288
382
345
188
208
339
254
-18
-255
-412
-506
-536
-466
-285
-191
-308
-442
-539
-717
-802
-665
-529
-431
-317
-432
-689
-596
-296
-322
-539
-554
-509
-604
-663
-617
-621
-650
-382
622
2025
2255
698
-872
-1077
-726
-610
-466
-255
-178
-95
43
79
79
201
440
702
767
513
265
322
472
508
531
527
436
415
447
313
164
244
342
265
196
182
108
85
158
121
19
98
238
214
162
208
206
134
121
112
62
99
225
298
292
214
74
-40
-44
300
1108
1513
620
-690
-1004
-549
-213
-99
-30
-61
-231
-421
-428
-276
-214
-203
-70
-19
-180
-235
-47
88
35
-17
36
97
81
-15
-148
-264
-347
-422
-494
-514
-479
-520
-706
-822
-717
-614
-643
-621
-561
-605
-547
-269
-110
-158
-95
98
159
57
-64
-155
-270
-327
-157
90
404
1262
2078
1327
-419
-969
-257
172
86
68
124
116
95
88
96
65
45
173
287
225
262
484
561
486
504
545
495
408
296
244
317
275
38
-139
-244
-301
-127
64
-72
-269
-274
-233
-147
-63
-199
-344
-232
-137
-191
-151
-81
-159
-220
-128
-44
-152
-312
-227
30
406
1191
1754
948
-427
-706
-272
-250
-374
-195
-50
-112
-140
-69
-28
15
156
243
169
190
399
487
376
293
263
221
250
320
257
89
-14
-52
-125
-205
-253
-287
-248
-155
-166
-228
-171
-95
-119
-156
-201
-279
-292
-257
-278
-289
-227
-196
-216
-190
-187
-261
-262
-173
117
966
1663
850
-716
-1080
-510
-372
-477
-327
-287
-376
-274
-130
-96
-82
-121
-180
-125
-31
2
68
192
227
151
140
226
234
119
3
-46
-31
-15
-76
-155
-162
-142
-112
-27
5
-88
-145
-68
19
28
3
-2
20
24
-10
-16
0
-2
14
-1
-68
-86
-105
193
1454
2668
1916
44
-571
-131
-39
-114
3
-51
-166
-84
-29
-59
0
98
124
104
132
253
321
271
325
468
407
246
252
223
-48
-321
-376
-296
-231
-246
-303
-335
-351
-370
-360
-313
-276
-273
-289
-304
-301
-288
-276
-261
-272
-370
-502
-493
-350
-287
-350
-375
-108
684
1465
1052
-359
-1116
-805
-458
-408
-326
-269
-279
-201
-103
-73
-42
-32
-50
14
148
253
345
432
437
398
405
417
379
342
322
270
197
155
128
85
54
43
39
83
173
189
116
119
213
247
243
300
310
179
23
-78
-100
-4
56
-76
-191
-121
196
981
1626
909
-569
-1010
-487
-170
-115
-45
-93
-130
12
151
179
152
88
21
6
24
30
43
98
137
125
132
132
69
117
297
268
-15
-273
-486
-696
-767
-690
-545
-413
-427
-510
-436
-237
-91
-91
-254
-419
-404
-286
-217
-233
-279
-268
-255
-328
-385
-407
-185
809
1810
1121
-607
-1146
-517
-145
-132
-68
-35
-10
75
144
198
193
153
243
336
291
403
656
631
561
817
823
306
207
690
580
-140
-218
196
-40
-617
-512
83
403
322
129
27
-8
-94
-163
-75
57
23
-107
-120
-97
-212
-280
-178
-204
-370
-344
-163
183
784
782
-383
-1399
-1227
-693
-499
-389
-278
-244
-272
-438
-567
-392
-165
-201
-296
-190
11
90
7
-87
-47
21
-51
-131
-62
-33
-148
-149
-13
-58
-216
-167
-49
-95
-115
12
103
134
199
232
193
169
176
170
170
206
224
195
230
314
215
50
170
397
681
1439
1939
1014
-312
-433
56
120
84
230
298
313
341
221
44
87
296
394
385
449
508
427
342
367
393
366
330
263
177
136
83
-45
-166
-223
-265
-292
-248
-161
-123
-149
-189
-215
-209
-206
-301
-397
-366
-433
-615
-424
-37
-186
-582
-569
-577
-917
-658
705
1728
817
-1010
-1519
-839
-569
-734
-560
-268
-232
-251
-249
-318
-327
-235
-201
-187
-106
-29
