# session 27
-41
-74
18
8
-301
-635
-681
-588
-572
-579
-553
-533
-512
-483
-464
-445
-415
-389
-375
-372
-366
-343
-312
-287
-273
-265
-258
-252
-236
-213
-199
-189
-179
-183
-180
-150
-134
-147
-151
-142
-137
-127
-102
-63
-15
1
-33
-64
-60
-45
-49
-69
-61
-24
-30
-31
16
-43
-157
-73
190
788
1837
2128
733
-743
-723
-144
-64
-103
-19
-29
-51
-2
16
13
32
45
54
73
86
96
116
140
162
185
208
231
254
280
311
342
370
395
418
437
451
460
456
428
383
327
258
181
108
39
-15
-43
-70
-101
-94
-51
-34
-48
-54
-53
-58
-59
-60
-72
-81
-83
-93
-105
-111
-118
-131
-139
-141
-147
-160
-170
-176
-179
-177
-186
-198
-174
-131
-145
-211
-248
-234
-204
-182
-180
-185
-179
-172
-177
-179
-171
-168
-176
-179
-171
-166
-168
-171
-169
-161
-155
-159
-165
-164
-175
-192
-179
-145
-114
-81
-64
-92
-121
-114
-104
-107
-114
-118
-106
-109
-132
-97
-78
-180
-209
-47
326
1174
1945
1273
-385
-1016
-476
-128
-153
-83
-37
-78
-38
16
8
16
47
63
77
94
111
136
166
194
224
253
276
302
334
360
385
421
461
490
509
525
539
541
524
487
431
357
272
186
105
34
-16
-48
-69
-79
-80
-81
-83
-84
-85
-84
-83
-88
-94
-95
-98
-104
-109
-114
-126
-142
-152
-158
-166
-176
-179
-175
-176
-182
-189
-194
-196
-199
-201
-200
-196
-195
-197
-201
-208
-212
-208
-204
-202
-200
-198
-199
-203
-212
-227
-238
-238
-233
-206
-143
-98
-119
-160
-172
-167
-162
-166
-172
-151
-141
-162
-127
-106
-213
-231
-45
312
1153
1989
1328
-452
-1167
-578
-178
-208
-137
-74
-113
-85
-43
-51
-33
0
9
22
46
68
88
110
136
169
200
230
267
305
336
370
411
451
480
502
527
548
542
510
465
403
319
228
139
59
-6
-53
-87
-106
-114
-110
-100
-94
-97
-103
-102
-90
-80
-80
-85
-88
-93
-98
-108
-131
-150
-154
-171
-195
-176
-147
-176
-213
-189
-158
-170
-193
-205
-210
-206
-201
-189
-165
-160
-180
-213
-253
-256
-208
-169
-143
-95
-76
-112
-139
-141
-142
-137
-139
-149
-145
-152
-142
-98
-147
-250
-210
-13
601
1764
2177
812
-738
-801
-234
-133
-183
-116
-116
-136
-107
-82
-53
-28
-32
-24
-6
6
38
74
87
110
161
198
213
234
267
305
348
386
408
416
429
452
454
426
387
335
254
168
93
19
-46
-89
-120
-139
-144
-141
-133
-127
-131
-128
-110
-110
-116
-104
-115
-142
-124
-96
-116
-136
-130
-139
-157
-163
-166
-159
-148
-158
-168
-161
-165
-174
-166
-164
-176
-176
-157
-145
-155
-169
-157
-137
-153
-186
-197
-201
-197
-137
-68
-74
-111
-109
-104
-112
-110
-122
-133
-109
-110
-121
-82
-117
-208
-147
32
570
1751
2308
972
-702
-814
-215
-130
-181
-74
-87
-137
-93
-67
-58
-33
-32
-27
-14
-23
-2
65
94
89
104
132
164
203
227
250
288
307
319
372
416
393
370
389
382
314
230
157
80
-7
-68
-83
-91
-125
-149
-137
-119
-117
-117
-114
-118
-124
-118
-106
-101
-99
-102
-128
-163
-160
-125
-119
-142
-141
-135
-168
-189
-150
-128
-166
-184
-156
-145
-154
-155
-156
-149
-135
-147
-164
-140
-116
-143
-179
-178
-164
-161
-131
-53
-8
-66
-128
-101
-67
-97
-126
-111
-88
-94
-99
-54
-65
-200
-223
-30
409
1394
2269
1527
-271
-929
-364
-78
-211
-174
-95
-122
-91
-41
-67
-78
-41
-44
-78
-46
41
89
94
106
127
149
187
229
253
263
279
299
314
323
348
387
398
369
332
297
253
190
110
44
2
-61
-111
-88
-74
-116
-100
-35
-60
-117
-86
-62
-117
-132
-74
-59
-104
-118
-91
-93
-144
-167
-131
-112
-133
-143
-139
-146
-161
-187
-188
-149
-144
-179
-162
-118
-136
-172
-156
-125
-126
-160
-201
-188
-129
-115
-148
-153
-143
-168
-197
-188
-167
-143
-89
-46
-71
-98
-77
-78
-109
-108
-92
-75
-55
-98
-155
-120
-113
-160
-88
163
853
1905
1930
324
-994
-739
-159
-144
-143
-15
-57
-112
-43
-13
-47
-23
35
35
8
35
105
144
124
84
97
183
260
279
283
304
325
345
357
350
360
404
420
386
357
331
274
202
131
59
4
-35
-76
-96
-86
-85
-107
-119
-114
-114
-124
-129
-131
-142
-143
-130
-128
-145
-159
-164
-170
-184
-196
-192
-183
-186
-188
-181
-181
-181
-172
-173
-186
-187
-184
-199
-196
-150
-108
-105
-116
-118
-120
-122
-118
-120
-134
-151
-159
-153
-136
-96
-35
-16
-60
-95
-86
-68
-64
-77
-88
-73
-81
-111
-83
-90
-200
-202
-28
425
1442
2166
1190
-572
-1026
-411
-136
-186
-117
-95
-135
-94
-60
-77
-68
-35
-5
20
32
45
71
96
113
137
167
194
221
249
277
301
326
350
369
381
391
394
389
375
347
299
236
163
92
40
2
-32
-54
-59
-64
-73
-70
-59
-56
-63
-69
-69
-69
-78
-91
-100
-106
-114
-123
-127
-128
-133
-140
-146
-150
-152
-145
-132
-127
-142
-163
-161
-143
-138
-138
-128
-124
-132
-147
-166
-163
-130
-109
-120
-132
-132
-144
-165
-173
-171
-168
-132
-66
-44
-84
-118
-119
-116
-119
-127
-131
-117
-121
-128
-85
-106
-211
-187
-20
441
1492
2106
937
-792
-1053
-399
-181
-202
-98
-93
-139
-95
-67
-68
-39
-15
-4
18
38
52
72
94
109
123
158
210
247
260
274
299
320
332
346
366
379
374
357
340
317
273
210
137
61
-4
-46
-79
-107
-118
-124
-134
-137
-130
-126
-124
-115
-111
-119
-124
-123
-132
-148
-160
-166
-166
-163
-168
-183
-193
-186
-172
-168
-186
-217
-217
-182
-169
-171
-128
-103
-167
-211
-155
-103
-118
-138
-142
-146
-122
-56
-3
-20
-74
-87
-61
-50
-57
-67
-62
-46
-65
-76
-34
-72
-169
-124
94
756
1969
2368
929
-660
-703
-136
-78
-154
-86
-90
-111
-73
-67
-67
-34
-20
-25
-11
24
52
67
80
96
114
142
166
176
201
249
282
293
307
315
317
331
325
286
260
236
169
90
34
-24
-72
-87
-102
-131
-138
-124
-118
-116
-113
-126
-142
-139
-136
-153
-155
-132
-128
-151
-166
-177
-190
-186
-177
-193
-208
-192
-172
-180
-199
-196
-180
-179
-190
-188
-171
-154
-149
-153
-151
-141
-140
-141
-132
-133
-149
-142
-119
-130
-159
-161
-153
-151
-125
-76
-43
-39
-62
-92
-96
-74
-70
-90
-84
-55
-73
-96
-41
-45
-168
-172
36
551
1549
2117
1079
-510
-822
-261
-56
-104
-49
-47
-82
-41
-14
-22
-11
14
36
51
54
65
93
113
126
150
172
184
199
225
247
263
279
292
301
312
324
326
313
293
266
222
175
138
99
48
9
-3
-8
-21
-29
-26
-26
-34
-35
-29
-31
-44
-59
-64
-64
-74
-93
-106
-109
-113
-122
-135
-145
-146
-141
-141
-148
-153
-154
-157
-163
-162
-156
-153
-152
-156
-160
-158
-150
-149
-152
-150
-147
-145
-143
-144
-149
-166
-189
-183
-143
-107
-80
-52
-57
-99
-121
-116
-113
-114
-119
-114
-105
-121
-112
-66
-120
-217
-146
136
792
1661
1542
70
-1041
-775
-231
-153
-133
-54
-71
-76
-35
-29
-26
-3
10
24
44
59
79
102
117
134
158
177
194
218
241
257
276
297
308
313
323
337
341
331
311
281
236
179
119
66
24
-6
-27
-39
-42
-44
-49
-54
-53
-52
-56
-61
-63
-66
-75
-88
-98
-104
-112
-119
-120
-119
-121
-128
-137
-140
-133
-128
-132
-134
-129
-127
-126
-122
-122
-126
-121
-116
-121
-121
-115
-115
-116
-110
-108
-110
-109
-115
-138
-152
-145
-133
-107
-52
-17
-43
-84
-94
-88
-84
-89
-97
-85
-88
-114
-78
-59
-162
-182
-6
385
1276
2059
1284
-499
-1129
-518
-152
-191
-116
-61
-104
-75
-37
-42
-23
-1
-1
16
46
64
76
89
107
136
167
189
208
226
246
274
299
311
319
336
353
356
348
337
315
272
211
138
61
-9
-60
-97
-127
-141
-140
-138
-143
-148
-146
-141
-138
-140
-141
-143
-152
-163
-168
-170
-177
-186
-190
-188
-188
-197
-206
-203
-201
-206
-203
-193
-192
-196
-193
-187
-184
-182
-180
-189
-209
-223
-221
-205
-161
-96
-66
-89
-112
-112
-111
-108
-103
-109
-97
-87
-104
-77
-56
-150
-192
-73
251
1193
2287
1835
-25
-975
-485
-67
-119
-80
-17
-56
-33
13
6
20
54
69
87
107
116
134
167
192
204
217
237
265
296
322
345
368
390
402
408
417
421
407
374
327
265
191
105
18
-54
-109
-147
-165
-167
-169
-171
-167
-160
-153
-151
-153
-156
-159
-164
-166
-171
-183
-195
-196
-196
-204
-212
-214
-215
-219
-223
-220
-212
-214
-219
-215
-208
-214
-222
-216
-206
-207
-211
-217
-231
-233
-219
-216
-206
-148
-99
-125
-175
-183
-172
-164
-166
-178
-166
-160
-190
-164
-123
-211
-255
-110
204
1012
1935
1431
-354
-1217
-686
-243
-249
-164
-81
-116
-76
16
78
144
193
207
224
238
243
264
292
307
319
335
345
349
358
374
390
410
436
455
457
450
445
434
408
364
300
226
152
71
-14
-80
-118
-139
-152
-154
-144
-133
-134
-132
-116
-106
-116
-126
-120
-116
-129
-141
-140
-145
-159
-167
-169
-176
-184
-185
-186
-188
-190
-190
-183
-169
-161
-156
-151
-154
-173
-202
-228
-242
-236
-201
-144
-106
-118
-154
-169
-159
-140
-139
-153
-141
-118
-141
-146
-108
-156
-228
-167
31
687
1807
1997
542
-772
-628
-118
-116
-157
-77
-96
-112
-64
-53
-53
-27
-13
-3
19
35
49
69
87
108
134
157
180
210
236
252
271
294
310
314
312
305
294
273
235
183
124
64
5
-56
-108
-133
-138
-145
-149
-138
-126
-126
-128
-121
-114
-110
-104
-101
-101
-93
-88
-103
-121
-118
-109
-109
-114
-115
-117
-123
-127
-125
-129
-142
-147
-140
-138
-144
-144
-141
-141
-142
-140
-137
-132
-130
-128
-124
-120
-128
-156
-187
-191
-165
-120
-65
-31
-43
-76
-87
-81
-72
-68
-77
-70
-51
-68
-68
-25
-83
-175
-107
99
731
1913
2266
850
-597
-537
-15
-29
-111
-35
-48
-69
-25
-21
-29
-6
10
20
36
47
55
71
91
116
139
156
175
200
216
228
248
268
277
279
280
276
267
252
226
191
149
99
49
7
-31
-65
-87
-97
-100
-98
-95
-93
-91
-91
-89
-83
-83
-93
-98
-94
-92
-100
-110
-118
-125
-131
-136
-142
-146
-149
-154
-159
-161
-161
-161
-162
-166
-171
-167
-160
-163
-169
-162
-152
-153
-155
-155
-159
-160
-153
-149
-148
-143
-132
-128
-134
-136
-130
-131
-150
-167
-165
-148
-111
-52
-14
-36
-72
-77
-70
-59
-50
-67
-78
-65
-80
-75
-31
-95
-200
-145
110
873
2033
2101
494
-817
-599
-85
-99
-126
-44
-75
-92
-40
-24
-17
9
22
34
55
68
84
112
136
154
173
186
197
217
241
257
268
279
286
291
298
298
288
275
256
225
186
140
90
46
14
-17
-43
-44
-36
-52
-73
-65
-47
-51
-62
-64
-70
-79
-82
-83
-92
-103
-114
-124
-127
-129
-135
-135
-127
-130
-142
-144
-139
-141
-142
-133
-133
-140
-137
-134
-142
-144
-133
-133
-139
-138
-133
-129
-132
-137
-130
-118
-119
-121
-113
-109
-111
-110
-102
-93
-91
-96
-102
-113
-126
-124
-103
-70
-23
4
-21
-64
-78
-68
-60
-67
-79
-68
-61
-80
-58
-40
-128
-183
-66
292
1115
1877
1304
-255
-929
-455
-93
-114
-75
-30
-63
-50
-26
-35
-18
12
20
33
51
60
75
97
110
124
148
172
188
203
218
235
249
256
263
272
279
281
272
254
233
209
172
127
80
41
15
-1
-15
-23
-23
-28
-36
-28
-16
-16
-21
-25
-33
-38
-36
-42
-57
-67
-69
-77
-88
-89
-87
-96
-108
-110
-105
-107
-114
-119
-120
-118
-118
-125
-129
-124
-121
-123
-121
-119
-123
-120
-115
-115
-114
-110
-108
-107
-104
-103
-106
-105
-101
-99
-98
-102
-120
-136
-120
-86
-57
-25
-2
-19
-59
-77
-75
-70
-71
-78
-69
-60
-77
-61
-32
-106
-178
-72
281
1006
1647
1102
-366
-1042
-571
-136
-115
-89
-42
-66
-57
-28
-25
-13
4
9
21
38
51
68
85
97
115
136
153
167
181
199
220
231
235
248
263
261
256
262
256
229
198
156
91
30
-5
-34
-67
-85
-91
-102
-105
-84
-65
-69
-78
-76
-73
-86
-93
-85
-83
-95
-103
-111
-127
-132
-129
-138
-144
-135
-136
-149
-145
-135
-137
-141
-140
-135
-126
-122
-122
-121
-121
-113
-101
-107
-119
-104
-81
-83
-88
-72
-65
-77
-77
-72
-88
-89
-57
-30
-1
45
43
-18
-39
-15
-17
-27
-15
-8
-10
-24
-26
11
-11
-100
-56
200
729
1455
1501
320
-831
-765
-203
-33
-31
34
34
16
50
63
47
62
100
121
120
127
147
160
172
187
199
210
226
236
239
258
292
314
314
307
305
302
291
279
266
235
194
156
109
52
10
-16
-39
-56
-63
-63
-60
-60
-69
-79
-79
-78
-84
-93
-102
-115
-127
-136
-143
-150
-159
-172
-181
-183
-185
-193
-200
-203
-206
-211
-211
-208
-212
-219
-219
-217
-216
-218
-218
-220
-220
-220
-219
-215
-214
-231
-245
-220
-179
-155
-134
-122
-151
-190
-194
-185
-184
-184
-189
-185
-174
-186
-172
-132
-184
-248
-126
200
829
1497
1142
-307
-1186
-794
-263
-178
-132
-58
-82
-72
-21
-21
-25
6
35
60
85
97
107
130
156
179
203
227
252
280
307
329
351
376
397
410
421
436
447
440
416
383
339
281
219
166
127
102
92
90
93
