# session 28
-15
-11
-14
-26
-19
15
31
18
12
15
4
-14
-14
-2
-4
-19
-31
-35
-42
-49
-52
-55
-65
-72
-68
-66
-77
-80
-72
-71
-75
-76
-79
-85
-88
-82
-73
-74
-87
-92
-81
-78
-86
-84
-77
-79
-82
-76
-71
-72
-83
-101
-100
-73
-44
-16
18
16
-26
-53
-49
-28
6
-5
-73
-94
-64
-69
-59
-39
-106
-144
8
412
1154
1673
983
-402
-880
-390
-49
-50
-17
15
-9
8
31
31
46
59
60
71
89
107
124
132
140
164
194
204
194
201
246
276
264
257
269
270
266
269
256
229
204
174
122
61
8
-39
-82
-106
-108
-108
-113
-116
-111
-97
-89
-100
-115
-115
-111
-118
-130
-137
-136
-129
-122
-134
-161
-175
-171
-168
-173
-176
-174
-170
-168
-171
-171
-168
-170
-171
-167
-164
-164
-160
-157
-154
-151
-150
-151
-142
-133
-142
-163
-176
-173
-149
-97
-45
-39
-78
-107
-101
-91
-89
-95
-111
-106
-91
-95
-70
-54
-144
-199
-76
297
1105
1807
1209
-286
-892
-416
-62
-78
-49
-14
-35
-5
28
19
29
54
61
71
90
104
120
136
137
141
166
196
218
241
261
274
291
304
301
300
314
332
333
307
264
217
161
96
35
-13
-45
-63
-72
-74
-71
-63
-56
-55
-53
-48
-48
-56
-63
-62
-62
-67
-78
-91
-97
-105
-124
-135
-123
-116
-123
-126
-135
-148
-137
-122
-132
-137
-131
-135
-134
-119
-115
-123
-126
-124
-122
-115
-112
-119
-124
-111
-94
-101
-121
-127
-128
-133
-116
-78
-47
-24
-16
-46
-92
-113
-98
-68
-60
-84
-94
-84
-91
-79
-52
-113
-190
-103
244
949
1579
1131
-196
-860
-478
-97
-91
-75
-29
-58
-56
-16
-17
-26
-8
0
-1
23
58
70
68
73
98
128
134
132
164
207
216
212
227
250
262
256
245
245
232
198
169
133
77
37
24
-6
-50
-60
-47
-55
-66
-51
-37
-41
-35
-20
-24
-34
-34
-40
-51
-54
-53
-63
-74
-80
-90
-94
-84
-88
-98
-82
-72
-103
-115
-81
-68
-95
-107
-96
-96
-106
-106
-95
-93
-104
-102
-88
-100
-125
-119
-100
-89
-68
-52
-46
-20
-17
-82
-121
-85
-69
-91
-89
-76
-79
-84
-88
-76
-74
-127
-140
8
400
1044
1355
610
-566
-879
-426
-133
-108
-62
-35
-53
-37
-16
-15
-7
3
7
16
27
38
54
68
80
98
119
134
149
168
186
202
217
228
236
244
250
250
248
237
214
183
146
100
56
22
-7
-29
-38
-39
-41
-38
-30
-26
-27
-30
-32
-35
-36
-42
-51
-59
-66
-75
-83
-88
-91
-94
-99
-106
-108
-106
-108
-109
-109
-115
-120
-114
-107
-110
-114
-112
-107
-107
-110
-112
-111
-113
-113
-107
-105
-109
-106
-104
-122
-137
-124
-106
-99
-83
-48
-12
2
-17
-49
-69
-70
-61
-63
-76
-71
-68
-80
-64
-71
-145
-137
0
356
1185
1772
894
-679
-1058
-419
-91
-112
-39
-3
-44
-23
-5
-19
8
48
51
44
54
83
119
136
137
148
168
183
200
230
262
281
288
294
310
329
339
338
322
293
265
233
170
90
24
-34
-80
-93
-93
-109
-120
-113
-105
-98
-84
-78
-88
-97
-95
-105
-128
-131
-114
-113
-132
-149
-159
-166
-168
-169
-175
-182
-183
-180
-181
-179
-170
-170
-176
-166
-152
-155
-155
-141
-136
-146
-157
-172
-176
-148
-107
-74
-46
-44
-81
-112
-111
-100
-91
-96
-106
-95
-94
-110
-81
-73
-163
-179
-22
354
1117
1656
910
-476
-852
-334
-69
-98
-44
-37
-91
-45
17
14
16
31
34
48
63
65
86
123
148
167
187
201
220
245
268
292
316
328
337
352
358
346
327
302
258
200
132
61
2
-41
-79
-106
-108
-97
-94
-93
-85
-80
-81
-79
-72
-71
-77
-81
-82
-86
-94
-100
-101
-102
-106
-113
-118
-119
-117
-120
-122
-119
-117
-124
-126
-121
-119
-120
-119
-119
-122
-124
-123
-121
-119
-118
-118
-118
-119
-120
-115
-109
-109
-110
-108
-116
-136
-134
-103
-75
-49
-12
-5
-48
-80
-78
-71
-66
-69
-75
-60
-58
-78
-48
-42
-136
-145
15
393
1208
1806
1000
-522
-947
-385
-87
-113
-51
-20
-54
-28
-6
-15
4
27
29
44
67
79
93
115
134
150
168
189
212
235
258
283
306
324
338
351
363
368
358
341
319
277
205
123
48
-16
-69
-105
-122
-130
-134
-133
-128
-126
-126
-125
-122
-120
-122
-124
-127
-131
-138
-146
-150
-152
-159
-165
-170
-175
-179
-177
-174
-178
-182
-181
-178
-177
-174
-169
-167
-165
-163
-160
-156
-152
-146
-141
-144
-161
-179
-180
-167
-146
-103
-54
-49
-90
-114
-110
-106
-102
-107
-115
-96
-97
-121
-82
-67
-171
-184
-27
327
1216
2017
1274
-441
-1018
-426
-97
-146
-80
-35
-76
-46
-9
-17
0
29
36
48
71
91
111
133
157
182
207
233
262
290
318
349
380
406
424
437
448
451
435
401
352
284
198
110
28
-41
-93
-126
-141
-146
-143
-137
-130
-122
-116
-112
-111
-109
-108
-108
-111
-117
-125
-132
-140
-148
-153
-157
-163
-171
-177
-180
-180
-180
-180
-180
-179
-176
-174
-175
-176
-175
-172
-167
-163
-159
-157
-153
-149
-147
-144
-133
-124
-133
-153
-161
-148
-117
-66
-13
-1
-33
-60
-64
-63
-60
-66
-81
-72
-67
-99
-82
-55
-146
-204
-104
153
948
1996
1727
40
-940
-515
-91
-151
-141
-67
-97
-91
-53
-54
-35
-1
12
30
49
56
74
105
128
153
184
209
231
259
290
319
350
377
396
409
420
424
412
384
338
274
199
119
38
-35
-93
-129
-144
-151
-156
-155
-144
-131
-124
-122
-117
-112
-111
-110
-107
-106
-110
-118
-127
-131
-134
-139
-146
-150
-152
-153
-156
-157
-155
-155
-160
-161
-156
-152
-149
-147
-149
-147
-141
-136
-133
-128
-125
-121
-117
-117
-118
-116
-115
-111
-105
-103
-109
-129
-156
-163
-142
-112
-75
-32
-18
-48
-72
-77
-82
-81
-81
-95
-82
-63
-90
-77
-38
-128
-199
-81
162
873
1949
1872
266
-833
-487
-35
-99
-113
-36
-72
-75
-25
-27
-29
-2
9
13
33
51
64
80
101
126
150
174
195
218
247
277
300
320
340
350
358
374
376
354
317
270
210
141
69
2
-42
-67
-88
-102
-108
-107
-98
-87
-84
-85
-81
-77
-76
-84
-94
-97
-96
-101
-107
-109
-115
-128
-134
-138
-144
-143
-139
-140
-144
-142
-139
-138
-136
-132
-125
-119
-120
-121
-112
-103
-104
-104
-96
-91
-94
-94
-87
-86
-93
-94
-86
-82
-84
-83
-82
-86
-85
-81
-81
-82
-78
-73
-78
-96
-110
-102
-77
-50
-15
9
-12
-54
-70
-66
-67
-73
-83
-75
-58
-75
-81
-40
-77
-177
-138
59
577
1514
1829
658
-675
-711
-172
-65
-120
-58
-52
-80
-53
-27
-15
-2
-1
7
24
30
40
58
74
93
115
126
134
159
188
203
216
234
253
269
277
275
276
281
265
222
179
136
76
16
-20
-45
-70
-84
-89
-91
-81
-68
-68
-71
-68
-67
-69
-65
-67
-80
-88
-92
-99
-106
-114
-122
-123
-116
-114
-118
-125
-128
-124
-118
-118
-123
-123
-117
-112
-116
-122
-111
-92
-89
-94
-89
-76
-72
-79
-84
-80
-71
-64
-59
-52
-43
-39
-47
-58
-63
-61
-56
-51
-42
-34
-35
-40
-47
-61
-60
-30
-1
18
50
61
24
-10
-9
-1
3
-3
-12
0
6
-12
14
28
-59
-87
62
434
1180
1713
965
-461
-882
-347
-37
-57
-8
21
-14
7
34
27
39
55
58
67
82
88
98
115
133
147
159
175
193
210
226
241
252
260
267
277
283
280
271
247
191
128
102
100
60
-24
-94
-122
-127
-134
-142
-148
-154
-162
-166
-169
-175
-182
-187
-194
-205
-216
-228
-242
-255
-266
-279
-288
-287
-287
-297
-306
-309
-312
-302
-273
-265
-288
-285
-245
-223
-227
-221
-205
-194
-187
-185
-184
-176
-172
-168
-143
-111
-104
-105
-95
-91
-98
-88
-63
-54
-71
-77
-55
-24
12
63
90
63
27
18
26
41
43
28
44
65
43
60
105
29
-42
69
387
1163
2023
1588
-42
-864
-379
45
13
48
116
90
100
112
94
124
161
156
157
167
171
189
207
224
270
307
303
323
366
351
310
321
357
377
396
416
422
411
375
331
289
221
126
44
-19
-80
-128
-154
-171
-181
-179
-175
-176
-174
-170
-171
-179
-190
-201
-204
-203
-213
-227
-230
-235
-251
-262
-258
-262
-274
-280
-275
-272
-277
-283
-282
-272
-262
-258
-253
-247
-245
-245
-243
-235
-224
-225
-228
-216
-209
-228
-243
-222
-185
-142
-98
-91
-121
-134
-127
-129
-133
-139
-137
-110
-109
-127
-86
-91
-195
-193
-20
464
1521
2196
1152
-552
-910
-309
-84
-139
-72
-56
-85
-41
-18
-25
-3
16
22
46
73
91
112
131
149
175
204
226
248
271
300
332
361
383
403
416
419
415
404
374
317
238
151
69
-1
-47
-83
-120
-139
-133
-125
-125
-120
-109
-106
-108
-104
-93
-86
-89
-93
-98
-107
-116
-122
-126
-133
-137
-137
-140
-150
-160
-162
-157
-154
-156
-158
-156
-152
-147
-143
-147
-159
-176
-189
-190
-176
-142
-89
-51
-66
-105
-121
-118
-110
-102
-103
-94
-78
-106
-120
-71
-106
-208
-157
73
670
1692
1934
562
-837
-777
-188
-94
-132
-57
-62
-82
-45
-34
-30
-1
15
21
35
48
64
85
102
124
153
178
198
223
254
281
300
318
341
364
381
387
381
359
318
252
172
88
7
-51
-84
-122
-157
-151
-127
-132
-148
-138
-114
-110
-116
-113
-111
-127
-140
-136
-135
-144
-153
-161
-169
-169
-164
-169
-177
-172
-163
-163
-168
-169
-164
-155
-154
-158
-157
-162
-174
-163
-131
-103
-70
-40
-55
-89
-90
-82
-90
-97
-104
-110
-105
-115
-105
-47
-63
-169
-154
77
618
1444
1675
592
-696
-834
-319
-106
-109
-77
-87
-102
-73
-65
-63
-34
-18
-19
-7
11
24
36
52
65
76
92
111
122
130
154
185
198
198
204
216
218
211
194
168
138
94
42
2
-39
-93
-108
-84
-89
-115
-97
-60
-54
-56
-39
-27
-32
-40
-44
-46
-40
-35
-47
-61
-61
-63
-68
-63
-61
-75
-77
-58
-45
-52
-67
-75
-69
-57
-53
-56
-57
-61
-66
-67
-66
-63
-47
-27
-9
16
22
-16
-62
-79
-76
-66
-61
-68
-67
-55
-69
-80
-42
-50
-133
-125
107
634
1274
1243
175
-831
-798
-311
-118
-79
-15
-11
-27
-1
41
86
105
66
10
-15
-24
-39
-19
70
151
157
140
151
169
185
214
232
228
232
255
271
273
276
281
274
243
191
127
68
20
-19
-45
-61
-77
-88
-80
-69
-71
-72
-71
-80
-85
-74
-66
-73
-81
-87
-93
-100
-107
-112
-117
-124
-133
-133
-128
-131
-135
-132
-130
-132
-134
-135
-135
-136
-142
-144
-134
-126
-128
-132
-135
-137
-135
-138
-148
-160
-176
-187
-178
-149
-106
-64
-54
-88
-125
-135
-123
-108
-120
-132
-114
-116
-133
-95
-106
-205
-186
-18
444
1484
2130
1051
-629
-925
-311
-117
-177
-94
-80
-119
-78
-51
-56
-38
-27
-21
8
33
46
64
86
108
135
159
175
197
228
252
270
289
308
323
336
345
349
347
326
279
218
155
81
6
-46
-75
-100
-119
-125
-121
-113
-106
-104
-104
-102
-105
-110
-105
-93
-94
-102
-107
-109
-121
-137
-139
-129
-130
-138
-140
-142
-147
-146
-144
-150
-156
-150
-141
-139
-143
-160
-189
-202
-192
-162
-104
-46
-50
-95
-106
-93
-94
-95
-98
-104
-95
-94
-96
-63
-84
-171
-162
-34
449
1568
2259
1206
-441
-755
-201
-49
-139
-81
-60
-88
-56
-38
-39
-11
8
9
26
49
67
83
100
122
146
167
191
220
245
269
294
314
326
336
341
340
329
303
256
197
127
47
-33
-97
-140
-167
-181
-191
-199
-198
-183
-170
-167
-165
-161
-159
-161
-162
-162
-164
-173
-179
-176
-173
-177
-181
-184
-189
-193
-191
-186
-185
-192
-193
-184
-176
-176
-176
-174
-173
-168
-160
-156
-155
-151
-146
-146
-146
-147
-160
-184
-199
-186
-145
-80
-33
-46
-85
-97
-93
-88
-82
-88
-90
-69
-75
-84
-44
-68
-156
-127
27
548
1684
2274
1102
-488
-670
-117
-26
-116
-41
-25
-56
-25
-5
0
26
41
47
66
83
96
115
138
160
186
211
233
253
276
302
324
340
351
359
368
375
371
351
320
277
216
146
83
28
-19
-56
-81
-92
-94
-93
-90
-84
-76
-73
-75
-78
-79
-82
-88
-90
-92
-97
-106
-112
-115
-119
-127
-131
-132
-136
-143
-146
-145
-146
-145
-147
-149
-147
-142
-143
-143
-140
-138
-139
-136
-133
-132
-130
-124
-120
-119
-116
-112
-109
-107
-105
-104
-106
-107
-106
-103
-100
-98
-98
-96
-93
-91
-91
-91
-87
-82
-81
-94
-119
-135
-132
-125
-102
-40
5
-20
-63
-69
-66
-67
-66
-76
-76
-63
-82
-77
-38
-98
-181
-126
67
751
1921
2088
564
-746
-559
-66
-101
-143
-61
-86
-98
-47
-42
-45
-16
-3
-1
18
35
46
62
82
103
123
142
162
182
202
221
237
248
259
268
273
274
274
267
247
219
187
140
80
26
-15
-47
-73
-88
-97
-101
-96
-88
-85
-85
-83
-82
-84
-85
-83
-81
-83
-86
-88
-90
-95
-100
-105
-108
-111
-112
-111
-109
-110
-110
-103
-94
-90
-88
-85
-84
-81
-74
-70
-68
-63
-57
-53
-49
-45
-42
-37
-32
-29
-26
-20
-13
-7
-3
-1
1
3
5
7
8
9
15
21
22
20
18
18
21
25
25
22
22
29
35
34
29
25
