# session 21
17
3
41
80
2
-154
-228
-212
-195
-186
-179
-186
-183
-161
-151
-153
-146
-143
-163
-182
-170
-152
-149
-139
-124
-130
-148
-151
-145
-139
-128
-120
-110
-97
-90
-90
-91
-98
-100
-90
-82
-80
-66
-56
-77
-96
-73
-50
-67
-83
-72
-69
-78
-75
-66
-63
-56
-47
-47
-56
-59
-51
-50
-61
-72
-85
-100
-106
-92
-57
-19
-8
-24
-42
-41
-40
-77
-117
-91
-64
-98
-82
-71
-192
-217
-47
233
1054
2096
1679
-161
-1139
-695
-293
-301
-200
-114
-173
-174
-122
-114
-107
-79
-53
-34
-9
35
74
86
106
157
208
246
290
345
396
437
467
494
519
519
487
464
439
353
237
154
83
0
-55
-82
-111
-123
-117
-117
-112
-104
-120
-131
-109
-109
-145
-144
-137
-194
-187
-55
-93
-446
-757
-766
-717
-822
-828
-451
22
87
-170
-279
-163
-46
2
4
-7
40
89
28
-31
42
151
213
297
413
487
546
667
818
916
954
980
1008
1000
911
762
607
462
313
152
-16
-146
-199
-240
-335
-399
-364
-318
-318
-305
-276
-278
-284
-266
-261
-265
-240
-205
-199
-208
-220
-232
-218
-169
-153
-199
-217
-175
-164
-182
-147
-113
-146
-165
-134
-134
-158
-143
-123
-128
-131
-133
-132
-120
-130
-160
-154
-120
-106
-108
-109
-110
-120
-143
-129
-58
-49
-121
-126
-82
-129
-199
-166
-107
-104
-101
-67
-47
-53
-72
-96
-108
-112
-123
-120
-118
-139
-99
-64
-188
-265
-118
180
949
1958
1659
-88
-1136
-754
-336
-338
-233
-119
-165
-164
-110
-97
-90
-74
-40
27
64
51
55
96
134
175
224
253
288
369
438
447
450
487
525
531
501
464
430
372
299
248
209
164
123
71
21
21
46
37
37
68
53
19
37
10
-23
138
214
-314
-1160
-1549
-1377
-1035
-629
-216
-110
-356
-543
-445
-227
-35
129
250
304
288
249
280
350
353
332
383
470
534
584
640
714
789
830
851
877
874
809
699
576
459
342
207
57
-65
-132
-189
-251
-264
-269
-365
-450
-371
-258
-272
-298
-248
-249
-330
-361
-311
-253
-241
-289
-350
-348
-292
-259
-267
-268
-253
-267
-308
-309
-263
-226
-217
-214
-226
-252
-237
-177
-146
-166
-180
-160
-137
-140
-162
-167
-148
-136
-142
-142
-131
-115
-101
-100
-112
-115
-104
-91
-87
-89
-82
-62
-60
-76
-80
-75
-72
-57
-49
-80
-107
-65
1
0
-51
-70
-33
12
-9
-73
-51
27
3
-41
-19
-99
-200
-83
200
900
2017
2045
288
-1181
-952
-319
-209
-134
-14
-62
-55
60
87
36
20
54
95
113
128
169
214
239
253
267
304
368
421
445
474
513
527
521
531
545
535
508
470
390
272
178
121
55
-12
-45
-67
-88
-83
-90
-132
-143
-121
-132
-168
-184
-192
-205
-214
-231
-266
-299
-323
-341
-344
-347
-349
-313
-254
-247
-280
-280
-261
-257
-250
-248
-257
-250
-250
-239
-192
-239
-345
-291
-128
366
1542
2209
955
-828
-1075
-433
-241
-274
-180
-154
-151
-93
-95
-115
-79
-45
-23
22
66
98
144
203
262
323
390
465
526
545
533
530
533
510
440
342
252
171
64
-64
-158
-196
-218
-247
-259
-249
-238
-233
-228
-227
-224
-210
-206
-223
-232
-223
-227
-229
-195
-177
-217
-260
-275
-299
-332
-340
-326
-306
-269
-218
-196
-216
-229
-215
-205
-200
-187
-182
-179
-171
-193
-191
-133
-170
-281
-254
-101
431
1623
2213
886
-856
-1022
-364
-183
-213
-127
-126
-135
-71
-46
-23
24
13
-6
46
108
149
198
246
291
357
426
482
537
585
613
629
631
604
547
472
380
282
190
104
17
-52
-79
-89
-111
-127
-120
-103
-88
-74
-65
-61
-57
-55
-55
-55
-56
-59
-64
-72
-78
-84
-97
-111
-114
-115
-120
-121
-119
-120
-119
-112
-106
-101
-96
-92
-92
-88
-81
-75
-74
-72
-69
-64
-60
-57
-51
-41
-33
-27
-22
-22
-20
-5
8
4
-4
-7
-12
-10
4
12
9
9
12
14
17
16
13
20
29
21
15
18
14
8
18
26
22
15
8
7
20
24
15
19
20
-6
-23
-12
0
-1
-3
0
2
-5
-17
-21
-20
-26
-34
-32
-27
-32
-44
-53
-53
-52
-52
-55
-60
-62
-62
-69
-78
-79
-84
-104
-111
-78
-38
-42
-86
-117
-104
-89
-112
-122
-102
-130
-148
-101
-158
-259
-175
1
544
1774
2301
847
-875
-977
-402
-311
-308
-188
-210
-228
-155
-146
-166
-134
-106
-96
-72
-43
-9
30
59
85
123
169
214
263
314
349
365
375
384
386
378
356
313
253
182
102
17
-66
-140
-196
-229
-251
-268
-271
-257
-245
-237
-226
-222
-219
-206
-208
-226
-218
-225
-261
-215
-135
-205
-300
-184
19
16
-262
-515
-341
92
172
-126
-293
-231
-187
-189
-162
-132
-109
-67
-14
42
98
151
213
279
342
428
559
706
846
981
1084
1137
1161
1144
1048
884
693
488
274
72
-103
-237
-324
-380
-411
-411
-398
-390
-372
-352
-354
-355
-331
-306
-290
-263
-234
-215
-198
-196
-207
-201
-176
-161
-150
-132
-128
-142
-138
-116
-111
-127
-131
-117
-104
-96
-90
-85
-72
-53
-53
-67
-61
-47
-49
-49
-42
-44
-43
-26
-12
-15
-16
-9
-6
-2
13
23
19
19
20
8
2
14
26
27
28
26
19
18
32
42
34
31
42
37
18
21
34
28
20
26
29
26
28
37
41
33
13
-2
0
11
21
24
8
-12
-3
17
6
-20
-24
-17
-20
-25
-29
-35
-38
-39
-38
-24
-11
-23
-49
-65
-70
-70
-65
-47
-23
-20
-42
-60
-63
-72
-90
-101
-86
-47
-5
15
6
-39
-89
-86
-63
-91
-100
-50
-46
-31
64
-9
-231
-237
29
737
1890
2102
573
-847
-739
-248
-277
-315
-208
-216
-218
-136
-121
-147
-108
-60
-69
-69
-24
12
45
93
107
106
162
221
232
288
397
419
365
421
541
501
369
354
359
253
148
102
46
-8
-58
-127
-167
-145
-114
-144
-207
-187
-136
-208
-199
78
121
-497
-1236
-1498
-1436
-1210
-713
-259
-267
-504
-560
-435
-246
-57
37
57
92
117
126
181
267
317
333
373
458
547
606
656
715
773
831
892
930
921
864
774
674
552
386
232
137
33
-103
-184
-216
-268
-299
-283
-301
-349
-344
-294
-273
-278
-262
-235
-237
-252
-240
-220
-221
-223
-208
-197
-197
-193
-176
-157
-169
-193
-180
-152
-158
-169
-158
-156
-155
-142
-149
-158
-134
-122
-131
-115
-93
-110
-120
-91
-75
-81
-67
-46
-56
-73
-68
-55
-45
-38
-33
-14
15
5
-45
-57
-15
7
-1
11
31
20
3
11
23
28
34
46
52
48
47
53
51
44
48
56
52
52
66
71
55
44
56
57
43
45
57
41
4
-11
4
37
81
107
75
14
-4
27
33
3
6
13
-29
-20
13
-92
-158
-26
228
1010
2166
1965
72
-1174
-792
-301
-319
-238
-115
-174
-175
-96
-97
-115
-87
-59
-37
-17
-2
40
92
105
112
162
217
244
269
309
351
385
409
422
429
434
435
418
373
317
262
199
117
29
-37
-78
-115
-155
-187
-202
-200
-200
-213
-219
-215
-227
-248
-255
-265
-286
-293
-295
-311
-328
-331
-336
-339
-333
-336
-359
-382
-385
-363
-312
-255
-241
-270
-286
-283
-284
-272
-251
-256
-258
-246
-245
-208
-179
-272
-327
-222
44
878
1995
1744
-32
-1108
-674
-179
-190
-162
-90
-124
-104
-46
-36
-11
32
53
81
106
122
167
227
265
310
378
433
467
502
535
553
543
517
495
451
369
289
224
141
53
-5
-51
-98
-123
-127
-130
-128
-118
-109
-104
-100
-99
-100
-100
-94
-90
-100
-119
-126
-119
-119
-137
-153
-149
-145
-162
-171
-154
-141
-155
-188
-216
-223
-209
-179
-120
-60
-55
-91
-113
-123
-135
-135
-144
-145
-109
-107
-142
-104
-104
-222
-223
-79
274
1283
2204
1385
-471
-1069
-442
-119
-190
-129
-72
-107
-92
-62
-52
-17
19
33
50
83
125
163
183
204
257
326
378
407
436
471
498
505
485
437
383
335
270
184
98
24
-42
-88
-116
-140
-156
-158
-157
-157
-146
-132
-129
-134
-135
-123
-111
-125
-162
-174
-159
-161
-188
-200
-192
-193
-215
-233
-235
-232
-227
-217
-217
-223
-217
-207
-204
-201
-199
-207
-213
-199
-184
-188
-196
-196
-190
-193
-217
-240
-230
-177
-97
-51
-86
-144
-155
-142
-139
-134
-132
-122
-101
-126
-146
-85
-111
-253
-236
-52
429
1558
2284
1137
-665
-979
-324
-124
-195
-111
-84
-109
-51
-16
-26
-7
21
43
72
101
132
167
196
238
297
334
358
409
460
477
490
516
531
516
481
442
396
327
239
155
84
29
-8
-34
-51
-46
-32
-27
-29
-27
-27
-27
-25
-18
-16
-38
-66
-58
-31
-45
-77
-77
-76
-102
-117
-107
-106
-114
-115
-114
-117
-114
-112
-116
-118
-113
-112
-111
-106
-104
-102
-92
-89
-96
-101
-104
-104
-89
-66
-56
-59
-59
-56
-55
-56
-54
-46
-39
-41
-37
-27
-34
-52
-52
-41
-46
-52
-40
-37
-54
-64
-55
-51
-54
-47
-46
-58
-58
-44
-44
-64
-76
-70
-66
-69
-62
-50
-59
-74
-71
-62
-62
-68
-85
-105
-105
-72
-27
-11
-42
-79
-76
-62
-80
-87
-60
-76
-100
-57
-100
-228
-197
-59
361
1466
2138
932
-807
-1012
-362
-197
-238
-135
-126
-151
-97
-81
-88
-55
-27
-14
1
14
43
83
113
138
172
210
249
282
304
324
334
330
324
327
323
292
245
221
200
128
29
-33
-71
-117
-143
-151
-173
-187
-174
-175
-192
-192
-185
-187
-177
-179
-203
-204
-208
-249
-211
-105
-119
-189
-96
50
-30
-334
-492
-216
159
108
-209
-301
-181
-125
-140
-128
-101
-73
-34
3
35
85
146
190
227
284
354
435
546
667
752
812
869
898
873
804
699
555
387
223
71
-66
-176
-245
-287
-320
-339
-338
-336
-331
-310
-292
-295
-293
-270
-251
-235
-216
-202
-186
-159
-149
-164
-163
-141
-129
-128
-113
-95
-95
-105
-104
-94
-89
-91
-92
-84
-74
-74
-82
-86
-76
-69
-74
-74
-62
-54
-55
-50
-41
-37
-34
-31
-30
-27
-17
-9
-11
-8
4
9
5
11
22
16
1
1
14
25
18
6
15
31
25
9
11
19
20
18
22
33
38
22
15
35
42
19
10
21
20
11
16
24
24
24
22
11
-3
-7
0
6
3
2
9
9
4
2
-7
-20
-20
-10
-4
-3
-9
-21
-23
-21
-33
-37
-20
-24
-59
-81
-80
-74
-44
10
38
16
-21
-45
-51
-58
-68
-56
-55
-88
-63
-27
-131
-197
-66
166
854
1949
1924
291
-926
-665
-208
-231
-217
-129
-165
-176
-139
-143
-138
-112
-109
-95
-65
-46
-22
13
31
43
78
122
149
169
200
241
276
301
322
343
354
352
332
297
253
201
140
85
48
2
-60
-95
-103
-121
-134
-134
-145
-141
-143
-188
-102
127
8
-643
-1220
-1304
-1149
-873
-405
-97
-267
-558
-559
-392
-253
-125
-15
33
46
64
98
150
191
213
255
321
376
424
482
528
561
618
699
770
815
825
788
724
655
556
421
294
189
74
-42
-126
-183
-230
-259
-267
-272
-274
-261
-244
-247
-251
-226
-195
-197
-212
-201
-174
-158
-165
-180
-182
-171
-163
-162
-157
-149
-150
-155
-143
-127
-133
-146
-139
-133
-146
-152
-142
-131
-121
-106
-96
-98
-109
-118
-111
-92
-83
-85
-85
-77
-60
-52
-60
-64
-46
-26
-23
-25
-19
-6
4
6
6
15
29
31
22
21
37
54
56
48
48
51
52
67
76
54
36
49
56
50
57
51
19
19
57
81
95
117
108
59
28
44
54
17
0
44
40
-20
-2
-5
-113
-77
155
526
1226
1650
758
-671
-1000
-476
-207
-186
-96
-62
-95
-67
-16
-21
-36
19
62
-5
-44
43
96
58
75
160
202
195
197
220
245
271
304
335
349
351
365
376
352
315
288
230
139
74
43
6
-56
-121
-143
-135
-161
-189
-173
-175
-182
-159
-215
-229
57
193
-510
-1664
-2371
-2535
-2411
-1934
-1316
-1062
-1085
-920
-536
-173
103
294
412
495
516
489
499
527
530
570
666
762
838
895
942
1020
1145
1236
1263
1279
1280
1206
1083
945
753
534
363
234
123
17
-99
-170
-173
-216
-315
-333
-281
-286
-300
-254
-230
-260
-260
-223
-211
-214
-184
-153
-186
-252
-248
-180
-176
-239
-254
-228
-239
-249
-216
-208
-233
-230
-210
-211
-203
-178
-182
-201
-197
-197
-199
-170
-162
-194
-181
-125
-121
-157
-160
-139
-123
-109
-95
-87
-89
-92
-90
-103
-136
-150
-133
-121
-99
-35
24
16
-29
-54
-46
-27
-26
-29
-26
-45
-31
11
-74
-182
-82
105
593
1661
2049
660
-867
-846
-248
-164
-183
-75
-77
-86
-31
-35
-57
-33
-4
10
25
48
75
86
95
134
175
195
232
289
316
324
358
395
404
416
434
417
378
350
303
223
143
68
-6
-51
-76
-107
-129
-135
-138
-143
-164
-190
-171
-164
-209
-138
65
1
-491
-987
-1173
-1190
-1062
-619
-135
-123
-446
-543
-360
-201
-113
-39
-28
-47
-9
51
84
120
181
249
313
364
396
433
511
603
667
723
795
842
839
804
730
619
498
376
244
116
6
-90
-160
-198
-233
-273
-284
-273
-273
-271
-250
-230
-218
-211
-206
-192
-175
-179
-185
-157
-130
-137
-130
-93
-91
-131
-142
-113
-97
-103
-93
-76
-77
-68
-39
-43
-80
-82
-56
-49
-43
-24
-16
-10
4
-8
-34
-30
-8
-2
-9
-21
-35
-41
-34
-15
16
37
36
28
23
17
16
24
27
21
