# session 23
-42
-58
-15
29
-71
-277
-390
-396
-415
-436
-422
-409
-404
-384
-364
-359
-347
-330
-333
-325
-296
-315
-323
-172
-50
-278
-705
-932
-949
-952
-829
-411
4
10
-221
-271
-147
-73
-57
-28
-5
11
42
79
116
164
217
258
290
335
399
470
549
645
739
810
877
954
1002
995
935
833
692
524
349
183
38
-81
-172
-232
-267
-286
-293
-289
-281
-270
-256
-241
-229
-218
-205
-192
-179
-166
-153
-145
-138
-128
-118
-112
-110
-108
-104
-100
-98
-98
-97
-92
-89
-90
-90
-86
-85
-86
-82
-76
-73
-70
-65
-59
-55
-52
-45
-39
-35
-28
-21
-17
-13
-10
-7
-2
4
7
12
19
21
21
26
32
33
31
31
33
35
35
38
43
45
42
42
43
42
40
39
37
36
36
37
36
33
32
34
34
28
24
24
26
28
27
24
24
24
23
20
18
15
13
12
8
5
3
1
-1
-2
-4
-9
-14
-17
-20
-24
-26
-24
-22
-24
-28
-32
-36
-41
-45
-46
-45
-47
-53
-66
-80
-86
-78
-55
-18
9
-7
-50
-74
-66
-61
-84
-99
-79
-89
-113
-69
-89
-210
-162
34
392
1339
2116
1185
-600
-1076
-492
-264
-315
-212
-178
-222
-187
-164
-174
-150
-128
-121
-98
-76
-60
-32
-8
9
45
84
106
133
173
204
230
259
286
310
337
357
368
372
359
326
283
225
151
75
5
-57
-93
-104
-122
-147
-154
-153
-164
-164
-150
-164
-176
-153
-169
-192
-74
41
-151
-562
-873
-1029
-1119
-1008
-559
-111
-153
-497
-571
-351
-170
-88
-28
-13
-21
3
36
61
99
146
188
230
286
361
455
555
645
731
835
947
1025
1064
1081
1050
948
794
612
418
241
95
-34
-141
-211
-255
-285
-300
-301
-298
-294
-288
-272
-249
-239
-242
-224
-188
-172
-173
-160
-142
-144
-151
-147
-137
-132
-131
-131
-128
-118
-115
-122
-120
-112
-117
-120
-106
-95
-98
-97
-92
-87
-76
-61
-62
-74
-77
-65
-47
-28
-20
-28
-38
-29
-15
-18
-29
-29
-21
-21
-25
-24
-23
-27
-26
-21
-23
-27
-22
-23
-30
-32
-30
-34
-36
-35
-37
-40
-39
-42
-45
-43
-41
-46
-56
-64
-71
-86
-98
-96
-92
-78
-29
19
10
-28
-45
-39
-22
-7
-2
-16
-63
-78
-27
-70
-194
-143
34
449
1518
2292
1289
-438
-834
-311
-167
-231
-136
-120
-178
-157
-134
-145
-133
-101
-70
-61
-73
-65
-26
8
31
61
96
123
141
168
209
243
265
291
319
339
355
361
349
319
276
221
159
96
39
-13
-57
-93
-123
-146
-153
-162
-183
-180
-184
-233
-167
50
2
-527
-1041
-1129
-994
-767
-337
-8
-169
-527
-605
-459
-311
-171
-55
-7
23
65
88
106
161
241
322
408
502
568
587
607
664
727
774
825
868
869
834
780
691
566
439
320
189
53
-71
-166
-224
-257
-287
-312
-331
-349
-353
-336
-318
-311
-307
-298
-277
-257
-249
-235
-207
-201
-212
-194
-169
-183
-191
-154
-141
-171
-174
-149
-139
-137
-127
-117
-104
-94
-89
-84
-87
-89
-67
-51
-62
-59
-41
-48
-65
-60
-41
-24
-25
-39
-32
-8
-13
-32
-33
-30
-26
-6
8
-7
-29
-29
-10
1
-6
-15
-15
-16
-20
-21
-20
-31
-56
-68
-54
-41
-35
-6
27
11
-36
-59
-52
-50
-68
-66
-50
-78
-82
-27
-96
-211
-118
93
640
1761
2120
633
-947
-919
-327
-257
-261
-141
-155
-176
-124
-118
-118
-80
-58
-41
-15
-9
-2
28
55
78
111
134
145
175
215
241
264
296
323
345
378
402
403
411
411
356
277
224
170
95
31
-13
-55
-88
-98
-99
-112
-134
-146
-149
-152
-164
-176
-178
-206
-254
-203
-94
-175
-431
-552
-489
-506
-685
-726
-393
-23
-65
-310
-306
-129
-68
-94
-97
-89
-72
-37
-21
-4
49
106
144
189
246
303
370
447
529
622
715
792
852
886
878
837
767
651
499
346
199
59
-56
-135
-200
-257
-286
-281
-271
-271
-265
-243
-223
-221
-223
-212
-201
-198
-191
-176
-170
-176
-176
-162
-158
-170
-174
-168
-170
-174
-169
-165
-161
-153
-152
-157
-146
-133
-138
-140
-123
-116
-126
-119
-101
-109
-131
-132
-119
-114
-107
-87
-75
-92
-111
-105
-89
-81
-83
-91
-96
-91
-95
-115
-126
-116
-80
-30
-10
-43
-82
-80
-49
-46
-84
-92
-71
-80
-62
-33
-132
-204
-78
146
766
1764
1721
152
-1006
-698
-185
-176
-165
-81
-114
-120
-72
-66
-57
-29
-25
-20
3
26
51
78
97
121
157
184
199
223
261
300
333
360
382
401
419
430
428
406
367
319
264
201
145
110
74
36
22
14
-16
-38
-42
-47
-36
-50
-106
-4
225
43
-711
-1390
-1564
-1459
-1182
-689
-373
-544
-790
-680
-389
-167
8
145
206
258
322
333
314
341
392
423
465
530
587
631
679
739
804
862
909
947
957
923
850
739
600
459
321
184
58
-46
-127
-188
-239
-282
-305
-310
-312
-312
-302
-288
-285
-284
-276
-268
-268
-266
-261
-267
-273
-270
-266
-259
-254
-260
-260
-240
-234
-251
-258
-246
-235
-226
-214
-202
-197
-193
-177
-162
-164
-165
-157
-152
-145
-133
-127
-123
-111
-102
-100
-95
-87
-83
-77
-71
-72
-78
-76
-68
-62
-65
-71
-63
-51
-62
-91
-108
-115
-122
-109
-60
-9
2
-19
-36
-33
-26
-35
-43
-30
-43
-62
-23
-48
-166
-141
9
349
1310
2115
1226
-527
-991
-379
-121
-180
-100
-67
-110
-76
-42
-46
-31
-14
-6
17
43
64
86
105
123
141
159
181
208
233
258
279
294
312
336
354
368
377
371
350
324
287
230
168
114
64
20
-9
-31
-52
-69
-74
-79
-97
-96
-82
-123
-144
4
132
-49
-357
-489
-586
-768
-678
-202
50
-270
-625
-557
-298
-130
-46
-21
-38
-30
3
26
49
87
131
179
233
286
329
368
416
473
528
582
638
680
691
675
629
549
451
348
233
106
-7
-95
-165
-218
-252
-274
-285
-285
-275
-267
-262
-252
-239
-232
-227
-217
-208
-209
-212
-211
-205
-196
-190
-187
-182
-176
-174
-175
-172
-162
-155
-155
-154
-143
-132
-131
-132
-122
-111
-111
-112
-106
-99
-94
-92
-91
-82
-76
-82
-76
-55
-51
-60
-61
-58
-59
-56
-50
-46
-38
-31
-32
-36
-41
-62
-84
-80
-61
-34
16
54
39
9
3
4
-1
-11
-10
5
-14
-32
19
-1
-130
-115
62
442
1307
1849
843
-701
-945
-339
-133
-167
-74
-53
-83
-44
-41
-64
-34
-7
-9
4
24
39
63
80
84
104
133
151
167
191
218
237
246
259
283
305
318
324
316
290
259
221
177
139
103
62
31
8
-27
-53
-45
-50
-79
-68
-66
-119
-30
179
12
-658
-1218
-1280
-1092
-793
-342
-68
-259
-562
-562
-368
-198
-56
56
106
148
203
222
205
204
227
262
302
339
378
427
470
498
535
590
636
664
682
673
625
556
481
393
293
195
97
4
-68
-126
-182
-213
-215
-224
-250
-257
-242
-235
-234
-224
-213
-211
-211
-209
-207
-201
-190
-190
-197
-195
-186
-180
-177
-174
-175
-174
-166
-159
-158
-155
-147
-140
-137
-137
-136
-130
-120
-114
-113
-107
-95
-89
-84
-73
-63
-61
-58
-49
-46
-45
-38
-32
-30
-22
-14
-14
-18
-19
-15
-12
-12
-14
-16
-16
-12
-7
-6
-9
-17
-35
-46
-28
4
31
51
54
32
5
-1
18
22
1
4
8
-15
13
25
-79
-88
109
454
1174
1795
1044
-601
-1170
-580
-207
-197
-63
28
-36
-48
-3
-4
-28
-31
-6
31
54
57
60
84
120
140
146
153
156
164
192
214
221
239
268
283
289
305
325
335
326
291
246
213
168
88
18
-13
-39
-69
-85
-94
-99
-95
-95
-114
-149
-164
-136
-155
-236
-169
9
-141
-704
-1202
-1388
-1464
-1479
-1198
-666
-337
-387
-432
-236
-22
47
62
83
94
107
135
164
194
234
280
325
383
464
539
589
653
749
852
951
1033
1065
1054
1022
949
809
636
469
302
136
-2
-101
-188
-258
-289
-295
-301
-300
-291
-286
-273
-257
-252
-246
-229
-222
-231
-232
-220
-211
-206
-201
-200
-199
-196
-198
-199
-188
-183
-198
-204
-191
-184
-184
-172
-163
-170
-168
-156
-153
-155
-148
-136
-127
-124
-126
-123
-114
-111
-113
-107
-98
-96
-103
-127
-152
-153
-138
-107
-48
-7
-24
-50
-52
-51
-49
-47
-46
-27
-29
-51
-10
-10
-126
-118
57
406
1292
2052
1223
-496
-999
-395
-103
-147
-70
-44
-90
-48
-16
-36
-21
9
16
34
60
72
85
108
134
161
192
220
244
273
304
337
371
400
424
444
454
449
428
384
318
246
173
96
26
-36
-85
-106
-114
-128
-126
-117
-133
-133
-113
-161
-151
88
188
-345
-1228
-1830
-2043
-1949
-1442
-788
-573
-765
-771
-444
-116
69
179
227
231
248
281
308
338
382
435
483
523
573
637
700
757
821
891
951
997
1024
1016
968
883
766
622
466
315
176
59
-42
-136
-211
-255
-284
-305
-311
-309
-303
-292
-284
-279
-270
-260
-256
-250
-240
-236
-231
-221
-216
-218
-216
-207
-199
-195
-198
-203
-195
-180
-175
-173
-163
-152
-148
-144
-137
-129
-122
-116
-109
-101
-95
-94
-92
-87
-80
-74
-70
-69
-65
-59
-58
-59
-56
-54
-53
-49
-45
-41
-36
-39
-50
-47
-34
-42
-71
-93
-97
-94
-81
-41
12
22
-14
-43
-46
-38
-38
-52
-51
-43
-70
-60
-24
-112
-193
-97
82
703
1863
2024
416
-961
-751
-208
-198
-199
-97
-126
-144
-95
-88
-88
-64
-59
-54
-27
-1
20
41
59
81
110
138
159
186
218
246
271
298
325
349
368
379
377
359
324
275
213
136
56
-13
-66
-105
-129
-139
-144
-150
-149
-145
-158
-163
-146
-169
-194
-74
88
11
-263
-486
-674
-914
-934
-492
-29
-117
-498
-573
-366
-203
-117
-37
23
59
66
57
79
132
178
225
282
334
383
444
515
589
663
738
810
858
870
839
766
656
523
377
231
96
-20
-113
-185
-239
-275
-293
-299
-298
-296
-288
-275
-266
-259
-246
-226
-209
-201
-197
-190
-183
-180
-174
-165
-162
-159
-152
-147
-139
-124
-119
-128
-127
-116
-110
-105
-97
-95
-94
-85
-73
-64
-62
-66
-66
-60
-55
-55
-51
-46
-45
-46
-35
-22
-29
-45
-40
-25
-23
-26
-21
-13
-13
-15
-8
1
-3
-16
-21
-21
-20
-17
-13
-11
-6
-2
-4
-12
-18
-27
-47
-69
-73
-67
-44
12
58
39
-15
-42
-36
-27
-40
-59
-53
-64
-86
-53
-73
-188
-173
-35
287
1247
2118
1313
-454
-987
-397
-140
-222
-151
-109
-150
-114
-83
-100
-86
-60
-56
-38
-9
8
21
39
56
76
103
127
144
163
190
213
229
251
280
305
321
332
335
322
289
245
192
126
60
6
-39
-74
-95
-117
-136
-137
-145
-156
-137
-153
-189
-49
153
-57
-664
-1108
-1230
-1234
-977
-419
-136
-407
-692
-605
-371
-190
-43
44
65
86
123
157
188
207
225
287
385
459
507
583
664
691
704
764
833
867
873
844
762
661
565
448
293
142
32
-52
-126
-177
-213
-264
-309
-303
-271
-263
-273
-273
-264
-254
-237
-214
-204
-204
-191
-172
-173
-185
-180
-168
-166
-158
-134
-121
-126
-135
-142
-141
-134
-137
-139
-127
-115
-104
-89
-83
-84
-71
-59
-64
-57
-28
-10
0
21
12
-42
-65
-28
6
21
45
40
16
47
78
24
-29
-8
5
-17
-15
6
30
68
61
-22
-59
24
81
8
-65
-35
3
-2
16
32
-12
-39
-15
-14
-48
-65
-55
-32
-23
-29
-5
14
-40
-100
-83
-46
-46
-43
-5
30
23
1
2
-14
-82
-114
-74
-64
-87
-65
-42
-55
-93
-143
-107
4
255
1049
1851
1190
-497
-1124
-570
-242
-274
-177
-122
-166
-114
-80
-148
-138
-37
-22
-88
-85
-14
21
16
27
63
101
114
88
75
114
160
172
184
219
260
300
332
334
316
295
270
267
276
218
111
60
53
16
-27
-36
-27
-23
-26
-41
-47
-37
-79
-133
-26
112
-149
-742
-1059
-922
-699
-472
-95
121
-135
-480
-466
-233
-45
48
46
20
57
91
72
78
121
159
223
313
360
379
437
511
554
594
644
677
715
780
789
692
579
489
353
187
69
-20
-121
-209
-266
-300
-316
-317
-306
-291
-296
-315
-315
-292
-271
-271
-282
-279
-268
-274
-271
-215
-166
-201
-270
-284
-259
-240
-229
-230
-242
-233
-196
-176
-183
-196
-196
-172
-147
-156
-176
-160
-128
-115
-109
-106
-105
-81
-49
-52
-55
-26
-15
-30
-17
11
21
24
29
39
54
51
32
38
61
61
52
61
71
68
74
89
87
82
91
97
86
80
92
96
75
63
79
100
117
141
150
130
95
58
47
71
66
31
34
34
22
65
40
-90
-59
178
586
1306
1648
674
-678
-873
-334
-127
-140
-72
-60
-87
-62
-46
-51
-50
-47
-33
-5
15
21
22
36
62
81
93
108
120
129
141
159
180
191
192
204
225
239
238
220
196
185
159
105
53
10
-32
-59
-79
-108
-119
-103
-106
-131
-134
-143
-205
-177
11
-61
-763
-1613
-1867
-1551
-1117
-690
-334
-280
-462
-532
-409
-252
-110
27
121
160
190
238
263
237
219
259
311
337
366
411
455
500
557
608
648
693
726
713
668
614
542
444
334
226
122
25
-54
-114
-159
-196
-218
-222
-216
-211
-205
-201
-195
-182
-167
-161
-157
-146
-132
-121
-118
-118
-109
-103
-108
-97
-78
-86
-94
-81
-83
-86
-61
-51
-70
-76
-73
-66
-24
