# session 13
45
35
60
52
-90
-248
-247
-227
-348
-475
-404
188
1283
1663
509
-754
-730
-196
-94
-129
-50
-19
-29
-23
-20
9
64
105
136
178
214
208
185
182
149
58
-14
-39
-48
-27
12
6
-25
-22
-10
-19
-29
-44
-75
-90
-91
-117
-142
-122
-101
-128
-140
-102
-96
-151
-189
-182
-157
-119
-136
-264
-396
-381
-11
795
1264
485
-766
-1008
-446
-123
-77
13
29
-43
-34
40
97
132
154
180
210
222
224
211
162
102
64
41
33
35
33
31
22
-21
-52
-8
58
61
16
-26
-63
-87
-92
-103
-110
-69
-18
-31
-81
-113
-122
-109
-90
-119
-163
-140
-126
-241
-365
-159
551
1178
757
-442
-1000
-573
-124
-70
-63
5
26
21
37
65
95
124
154
187
213
220
199
161
133
115
97
84
74
61
51
50
49
43
41
44
38
36
44
30
-3
-6
5
-15
-27
-11
-28
-74
-78
-61
-68
-84
-101
-108
-81
-95
-219
-352
-302
188
1055
1344
368
-775
-814
-279
-93
-106
-46
-41
-64
-21
10
11
53
119
149
152
166
177
149
106
97
91
40
-22
-40
-37
-59
-85
-63
-24
-48
-95
-74
-36
-77
-137
-135
-122
-147
-162
-141
-134
-154
-150
-131
-144
-153
-126
-122
-139
-123
-130
-204
-277
-124
657
1682
1486
-77
-1056
-638
-106
-85
-70
25
38
54
72
58
92
160
207
250
275
261
232
192
136
88
62
51
43
17
-33
-77
-80
-66
-79
-98
-86
-68
-69
-77
-101
-134
-144
-147
-153
-148
-166
-203
-178
-119
-125
-146
-141
-166
-163
-108
-146
-278
-367
-181
675
1674
1309
-240
-958
-458
-90
-142
-82
2
-24
-3
39
41
75
120
136
168
213
223
201
164
109
37
-25
-48
-40
-37
-49
-60
-54
-36
-38
-62
-60
-30
-37
-74
-81
-99
-159
-171
-112
-101
-149
-143
-94
-108
-147
-124
-98
-107
-80
-77
-204
-366
-405
6
1103
1896
1098
-399
-763
-245
-53
-133
-68
-16
-38
-3
53
76
97
127
171
219
244
236
202
146
80
19
-23
-37
-34
-39
-61
-76
-67
-53
-53
-52
-47
-54
-74
-87
-96
-116
-136
-132
-106
-94
-111
-130
-127
-126
-133
-121
-119
-132
-105
-92
-197
-363
-400
69
1160
1802
916
-471
-732
-233
-52
-105
-50
-19
-31
6
37
53
100
153
187
214
231
225
193
146
96
43
-9
-35
-34
-42
-69
-90
-94
-91
-86
-79
-78
-83
-88
-99
-119
-139
-155
-170
-168
-136
-109
-117
-133
-132
-136
-140
-136
-146
-137
-101
-149
-290
-367
-120
734
1644
1255
-285
-1074
-582
-96
-87
-59
21
7
20
63
69
99
161
202
233
267
282
264
213
147
92
46
6
-12
-21
-51
-81
-91
-97
-98
-85
-78
-85
-86
-80
-91
-120
-144
-163
-197
-212
-182
-157
-167
-172
-164
-162
-150
-150
-167
-135
-109
-198
-307
-296
76
1031
1715
862
-712
-1084
-421
-74
-96
-18
39
18
52
86
90
139
210
256
289
312
314
290
243
182
127
84
56
39
22
0
-20
-29
-26
-20
-19
-19
-9
-4
-19
-44
-66
-83
-101
-125
-135
-121
-111
-114
-102
-87
-91
-88
-82
-99
-77
-28
-94
-235
-282
-28
823
1735
1306
-265
-1008
-485
-42
-64
-30
47
25
34
65
66
99
157
195
228
259
259
231
189
131
62
17
3
-16
-53
-88
-120
-145
-149
-136
-128
-122
-108
-100
-110
-128
-153
-194
-227
-231
-230
-233
-227
-225
-225
-205
-196
-210
-194
-173
-194
-186
-165
-249
-378
-428
-156
794
1743
1225
-340
-955
-424
-82
-141
-98
-32
-61
-39
18
45
82
130
164
201
245
266
237
161
76
11
-47
-104
-127
-108
-92
-92
-88
-81
-78
-60
-42
-53
-61
-32
-6
-24
-67
-100
-118
-133
-140
-126
-106
-97
-83
-71
-81
-85
-79
-97
-85
-30
-68
-193
-255
-125
561
1674
1843
507
-646
-488
-29
-32
-66
25
28
15
79
138
169
203
239
270
301
325
319
266
190
125
80
57
52
46
25
1
2
27
36
17
7
16
8
-10
-8
-7
-33
-64
-90
-133
-177
-202
-212
-200
-170
-162
-186
-198
-189
-197
-202
-188
-193
-205
-190
-227
-341
-392
-139
592
1269
813
-557
-1223
-745
-234
-159
-118
-43
-50
-43
-3
15
46
104
155
202
247
249
219
215
220
167
84
51
72
89
69
29
-6
-24
-24
-24
-20
19
47
-2
-47
-10
-7
-86
-92
-25
-63
-159
-142
-105
-182
-265
-248
-188
-123
-93
-129
-135
-87
-112
-141
-53
-34
-185
-295
-113
681
1764
1697
147
-1053
-872
-322
-173
-230
-230
-41
164
116
14
64
78
40
135
294
331
269
236
240
197
90
-2
-13
31
37
-21
-69
-90
-129
-127
-36
18
-26
-56
-35
-30
-61
-89
-76
-71
-129
-175
-161
-163
-166
-130
-140
-175
-125
-82
-141
-169
-110
-93
-120
-96
-92
-173
-261
-292
61
1078
1765
904
-546
-866
-366
-138
-100
35
61
-30
-33
52
125
182
282
362
322
286
381
448
373
291
270
235
207
228
210
108
34
32
10
-46
-43
24
48
23
24
6
-81
-126
-89
-94
-148
-166
-176
-213
-228
-199
-152
-136
-199
-266
-237
-200
-237
-251
-208
-188
-185
-203
-289
-339
-161
327
873
758
-261
-1157
-1061
-516
-240
-155
-91
-66
-43
-29
-47
-28
37
87
126
175
226
269
286
272
248
219
185
164
158
146
122
87
40
-2
-17
-8
12
39
57
44
15
9
27
38
28
-9
-53
-67
-65
-84
-87
-53
-51
-86
-87
-54
-45
-62
-61
-56
-76
-56
-7
-57
-143
-92
174
795
1379
879
-493
-1105
-639
-250
-241
-137
43
63
36
165
241
-12
-143
262
545
265
59
211
366
478
504
281
94
140
118
15
57
76
-87
-220
-237
-277
-311
-213
-98
-121
-148
-96
-148
-228
-56
123
-73
-347
-286
-81
-49
-153
-218
-199
-159
-141
-128
-76
-5
-41
-150
-88
107
116
-116
-179
543
1776
1883
281
-1073
-813
-113
-78
-209
-30
76
-144
-306
-100
189
197
24
-25
57
48
-50
-17
156
243
156
39
-58
-202
-152
297
577
214
-193
-114
36
-97
-311
-388
-291
-176
-189
-148
-10
-286
-1237
-2158
-2115
-1190
-401
-308
-386
-120
174
121
-18
-29
-102
-103
295
785
937
946
1069
1158
1104
1012
890
673
504
479
432
314
217
180
265
282
-73
-413
-227
132
225
218
241
171
3
-92
-15
93
125
245
664
1246
1261
196
-1068
-1389
-1052
-708
-317
-32
-103
-224
-202
-162
-79
-42
-93
73
342
303
147
73
-28
-9
-33
-445
-686
-355
-123
-246
-277
-271
-452
-573
-484
-385
-391
-385
-275
-222
-378
-452
-253
-260
-597
-552
-38
232
145
7
-184
-242
16
179
63
53
126
-20
-76
332
823
895
705
583
454
255
175
207
270
537
890
790
125
-577
-781
-358
232
316
-45
-237
-169
-123
-88
-20
-46
-106
79
465
503
108
-20
202
158
94
496
774
559
426
420
129
-116
17
84
-153
-341
-367
-430
-527
-554
-527
-472
-408
-389
-441
-527
-598
-635
-621
-533
-378
-170
1
-77
-318
-232
338
838
689
110
-17
638
1290
1203
630
212
195
314
240
94
108
149
115
113
114
87
125
172
180
248
297
207
133
166
155
101
116
77
-156
-364
-310
-237
-445
-605
-420
-375
-606
-416
-46
-507
-1240
-971
-219
-166
-550
-594
-412
-402
-525
-610
-615
-547
-465
-410
-376
-372
-332
-216
-168
-219
-233
-293
-430
-292
92
207
74
75
446
1599
2954
2589
558
-600
-119
416
387
387
537
570
536
671
806
582
317
484
752
758
747
806
769
689
582
387
242
164
-22
-231
-319
-392
-416
-260
-153
-250
-243
-141
-363
-681
-629
-546
-643
-565
-576
-936
-945
-522
-531
-853
-721
-448
-653
-973
-943
-798
-716
-597
-566
-600
-350
205
895
1505
1206
-281
-1507
-1428
-791
-254
229
496
546
608
560
441
636
951
763
271
289
808
1052
916
964
1149
972
609
523
570
508
391
184
-3
97
262
185
40
-51
-124
-64
58
12
-107
-129
-130
-174
-163
-81
-99
-270
-397
-408
-504
-691
-685
-464
-388
-618
-721
-5
1375
1870
480
-1353
-1824
-1322
-1058
-1123
-1079
-862
-655
-561
-475
-300
-124
-34
-30
2
195
283
35
-32
336
481
289
319
436
336
316
408
344
266
284
283
380
482
170
-232
65
759
862
487
423
555
482
531
788
781
560
457
374
251
207
155
-15
-187
-146
70
163
393
1107
1245
-52
-1357
-1455
-1142
-926
-601
-533
-680
-638
-763
-992
-761
-528
-627
-436
-66
-91
-178
-8
82
2
-64
-131
-226
-294
-330
-343
-360
-389
-374
-388
-549
-656
-508
-319
-206
5
106
-150
-315
-67
181
149
73
220
554
774
802
801
664
440
478
591
501
475
690
1302
2275
2411
1043
-314
-459
-147
-149
-347
-476
-308
60
166
53
164
307
143
35
144
193
358
521
237
282
896
402
-968
-871
131
-72
-693
-549
-549
-922
-839
-561
-580
-602
-528
-536
-537
-457
-359
-337
-435
-445
-287
-337
-561
-396
-2
-29
-279
-194
95
140
-253
-689
-63
1815
3060
2169
279
-626
-137
578
436
-80
71
549
554
386
481
590
557
522
510
517
586
646
556
391
416
550
422
113
-53
-168
-301
-273
-278
-559
-812
-889
-1027
-1032
-767
-886
-1643
-2092
-1511
-664
-751
-1471
-1619
-1367
-1661
-2099
-1581
-16
1310
925
-596
-1243
-856
-730
-868
-609
-190
-111
-335
-361
143
729
863
834
1016
1168
1137
1134
1140
1045
964
931
946
1104
1246
1207
1212
1309
1222
985
853
821
744
670
781
982
953
760
699
692
562
431
398
345
194
59
66
120
77
17
-22
-141
-176
-38
-174
-657
-896
-875
-990
-1018
-809
-423
495
1164
-95
-2175
-2392
-1379
-1246
-1500
-1241
-1210
-1520
-1419
-1115
-1084
-1028
-754
-523
-365
-157
46
220
381
437
436
511
505
292
164
306
463
463
353
155
70
290
529
496
332
213
276
612
840
599
261
213
339
489
438
22
-260
5
303
205
37
87
273
509
1004
1898
2270
1079
-598
-1033
-653
-545
-536
-419
-362
-191
42
-15
-163
-43
153
132
-1
-80
-132
-144
-105
-172
-417
-702
-844
-717
-489
-438
-445
-396
-541
-833
-975
-968
-847
-649
-594
-621
-493
-349
-314
-206
-71
-146
-242
-77
90
-22
-145
-24
164
195
104
142
410
706
1198
2134
2568
1524
53
-302
203
551
557
493
480
535
593
559
450
349
305
351
489
629
676
666
682
703
702
720
677
443
124
-71
-73
45
87
-42
-120
-8
78
-4
-164
-300
-332
-325
-457
-626
-609
-614
-940
-1349
-1462
-1310
-1060
-871
-1016
-1264
-966
-566
-804
-546
931
1361
-439
-1925
-1575
-915
-774
-592
-406
-408
-348
-193
-80
-33
-69
-88
79
411
717
872
954
1048
1027
866
768
712
529
367
415
484
358
162
127
195
90
-122
-72
162
201
124
143
153
106
80
62
84
139
98
-38
-158
-213
-226
-241
-205
-79
122
639
1225
735
-768
-1504
-948
-334
-176
-109
-54
-36
-106
-337
-410
-223
-228
-409
-370
-293
-309
-120
134
165
260
498
460
168
-29
-189
-416
-507
-405
-308
-339
-417
-357
-155
12
128
205
128
2
1
55
133
195
87
11
167
169
-57
-9
206
162
93
238
662
1587
2207
1317
-123
-403
56
264
396
507
397
391
557
561
504
602
680
666
729
839
867
890
949
892
693
439
153
-58
-59
9
-64
-203
-241
-236
-326
-470
-573
-608
-479
-248
-286
-631
-849
-830
-842
-864
-685
-471
-592
-912
-963
-904
-1191
-1495
-1420
-1309
-937
328
1216
41
-1815
-2146
-1590
-1438
-1259
-791
-636
-732
-558
-163
116
184
179
252
319
228
200
476
770
813
802
818
759
746
724
452
170
159
197
215
421
658
613
328
158
356
643
606
411
401
516
594
565
420
283
232
243
284
225
49
-85
-43
494
1422
1396
-152
-1414
-1108
-376
-225
-319
-389
-361
-94
118
43
5
95
12
-160
-99
134
273
290
267
168
4
-32
135
294
254
70
-81
-82
2
-17
-214
-403
-396
-271
-142
-45
-84
-160
-33
27
-249
-375
-122
-27
-219
-331
-295
-238
-263
-319
-170
113
563
1502
1962
626
-1161
-1324
-551
-327
-449
-369
-228
-164
-132
-87
1
100
147
132
135
223
335
408
494
577
554
451
362
269
139
-15
-202
-359
-360
-231
-176
-301
-345
-98
69
-82
-179
-190
-359
-327
-6
4
-260
-306
-230
-133
64
11
-326
-368
-86
228
768
1162
532
-605
-978
-658
-364
-107
152
59
-301
-356
-78
2
-116
21
305
327
242
340
449
433
434
442
388
360
332
229
185
249
236
124
93
163
199
166
116
94
151
234
190
29
-71
-70
-68
-68
-34
-35
-93
-106
-102
-204
-293
-214
27
519
941
341
-1081
-1687
-1129
-658
-581
-394
-360
-561
-407
-90
-226
-445
-270
-65
-85
-65
72
184
240
233
163
119
156
180
99
-21
-66
-64
-103
-142
-108
-76
-119
-150
-145
-194
-225
-120
-24
-50
-53
-26
-67
-82
-88
-187
-163
-23
-158
-369
-241
56
722
1914
2192
739
-592
-501
-77
-31
56
112
-49
-84
113
260
267
242
259
300
334
372
401
399
429
457
344
177
166
272
294
165
7
-73
-105
-107
-37
45
51
19
2
-26
-68
-50
37
53
-107
-302
-283
-92
-85
-304
-333
-169
-245
-466
-367
210
1016
1173
71
-1177
-1214
-579
-345
-412
-384
-329
-300
-257
-262
-268
-130
39
57
43
108
96
-19
-31
60
93
60
27
-12
