# session 37
-23
-37
-9
42
-9
-155
-221
-194
-187
-193
-190
-195
-179
-169
-190
-161
-141
-222
-227
-75
302
1207
1936
1091
-604
-1071
-427
-112
-161
-83
-37
-77
-54
-33
-42
-17
8
10
29
56
68
82
106
128
148
171
194
219
246
272
295
322
352
377
394
405
411
406
382
333
258
168
78
-5
-77
-127
-156
-175
-184
-183
-176
-167
-159
-153
-146
-138
-136
-136
-131
-129
-132
-133
-136
-144
-148
-149
-154
-160
-162
-163
-163
-160
-160
-163
-162
-162
-164
-166
-164
-160
-155
-155
-158
-154
-145
-142
-144
-141
-135
-132
-130
-127
-127
-130
-139
-157
-168
-156
-125
-81
-38
-34
-70
-94
-93
-94
-93
-88
-91
-86
-81
-95
-66
-40
-122
-164
-65
191
1010
2072
1803
148
-789
-372
15
-70
-70
-3
-40
-37
2
-1
8
35
43
50
64
73
90
111
127
145
169
191
211
236
261
288
318
346
369
391
411
423
424
406
364
300
215
120
36
-33
-86
-120
-132
-139
-146
-145
-135
-131
-131
-127
-124
-126
-125
-122
-121
-122
-121
-120
-123
-126
-124
-121
-128
-137
-132
-126
-132
-135
-128
-127
-136
-138
-131
-125
-123
-128
-133
-127
-119
-118
-116
-111
-113
-121
-122
-119
-118
-115
-107
-106
-112
-112
-108
-110
-112
-110
-111
-115
-115
-114
-111
-105
-109
-124
-129
-121
-109
-79
-33
-21
-55
-84
-88
-92
-87
-79
-94
-93
-70
-91
-92
-47
-104
-173
-56
193
824
1815
1782
196
-991
-646
-81
-73
-68
26
-9
-22
26
26
30
60
65
68
89
105
119
139
152
163
187
217
239
255
276
303
327
346
366
388
406
418
422
414
388
346
284
198
102
17
-50
-100
-137
-158
-166
-167
-169
-167
-156
-146
-141
-136
-134
-137
-135
-127
-128
-137
-143
-148
-156
-160
-161
-165
-171
-174
-177
-180
-180
-179
-181
-182
-179
-176
-177
-177
-173
-172
-174
-169
-165
-164
-163
-161
-159
-153
-146
-145
-144
-141
-144
-157
-172
-177
-169
-145
-97
-48
-49
-89
-108
-102
-102
-103
-101
-104
-90
-85
-107
-81
-60
-143
-171
-62
214
1064
2057
1621
-72
-876
-376
-3
-79
-57
-3
-44
-28
12
6
19
46
50
60
81
96
112
134
156
177
202
227
251
275
307
341
371
400
430
456
474
485
481
455
406
330
232
127
38
-32
-88
-129
-152
-162
-166
-164
-156
-147
-142
-137
-130
-125
-125
-128
-129
-131
-135
-138
-142
-150
-159
-163
-162
-159
-163
-173
-183
-183
-177
-172
-176
-180
-173
-166
-167
-166
-158
-156
-159
-153
-139
-136
-143
-142
-134
-133
-134
-128
-122
-123
-119
-109
-107
-112
-107
-96
-94
-96
-91
-84
-84
-95
-112
-126
-124
-106
-69
-21
-2
-31
-63
-67
-62
-57
-56
-73
-74
-52
-64
-64
-22
-70
-151
-91
66
626
1761
2131
775
-631
-558
-21
-15
-85
-1
-11
-39
2
13
10
33
47
50
63
73
84
104
125
142
161
183
206
231
256
282
311
340
366
390
408
418
425
421
387
327
259
183
95
11
-55
-102
-138
-159
-164
-165
-168
-170
-169
-167
-160
-155
-158
-162
-161
-160
-163
-163
-164
-171
-177
-180
-183
-192
-201
-198
-194
-202
-209
-200
-192
-195
-197
-194
-192
-188
-185
-184
-179
-174
-174
-173
-167
-162
-155
-150
-153
-153
-144
-136
-133
-126
-115
-112
-115
-114
-107
-100
-103
-115
-119
-101
-71
-30
8
8
-26
-45
-41
-39
-33
-30
-40
-26
-10
-33
-21
13
-56
-108
4
302
1079
2016
1698
88
-820
-390
39
-16
-19
48
17
9
32
27
40
64
64
70
90
101
112
129
141
157
182
205
218
223
237
273
319
342
342
346
361
369
368
359
333
282
209
122
36
-34
-86
-128
-156
-161
-159
-167
-171
-161
-151
-150
-148
-144
-144
-145
-147
-150
-150
-153
-163
-170
-171
-173
-180
-185
-182
-179
-181
-182
-183
-187
-187
-179
-177
-184
-188
-183
-174
-170
-169
-166
-160
-156
-155
-156
-162
-161
-151
-138
-130
-133
-147
-163
-167
-161
-141
-95
-45
-40
-75
-95
-93
-94
-92
-92
-102
-98
-99
-106
-64
-61
-160
-166
-39
292
1237
2133
1431
-288
-867
-288
-2
-97
-48
-3
-45
-21
9
-5
11
40
49
63
82
93
104
125
149
169
186
206
229
255
286
316
337
360
391
414
427
435
430
400
348
276
189
103
28
-38
-88
-120
-137
-143
-143
-143
-142
-136
-126
-119
-120
-126
-128
-127
-128
-131
-134
-142
-150
-152
-155
-164
-171
-173
-178
-182
-179
-176
-178
-180
-179
-179
-175
-169
-167
-172
-172
-168
-166
-166
-162
-155
-151
-152
-154
-154
-154
-164
-183
-194
-180
-142
-86
-44
-53
-90
-107
-105
-102
-94
-99
-108
-89
-90
-112
-74
-70
-169
-163
-4
396
1373
2144
1289
-366
-782
-194
12
-104
-56
-24
-65
-36
-10
-23
-8
18
28
45
62
76
93
107
122
150
176
190
209
239
263
278
304
347
378
391
400
404
396
376
327
247
160
84
13
-45
-81
-103
-119
-125
-127
-130
-128
-116
-108
-111
-117
-118
-117
-118
-125
-132
-133
-140
-155
-158
-146
-146
-159
-161
-156
-156
-159
-163
-167
-162
-150
-147
-151
-154
-150
-144
-145
-147
-139
-128
-124
-125
-128
-130
-124
-118
-120
-119
-113
-117
-134
-148
-142
-121
-87
-44
-28
-61
-97
-99
-97
-99
-96
-101
-97
-85
-102
-102
-70
-122
-188
-105
152
813
1710
1602
180
-824
-520
-43
-47
-72
-9
-30
-37
-1
3
8
33
41
47
67
83
92
104
121
141
161
179
195
215
236
255
273
295
317
334
344
350
351
341
313
262
194
124
55
-8
-54
-78
-93
-103
-106
-105
-106
-102
-96
-93
-96
-101
-105
-109
-118
-124
-123
-124
-135
-147
-152
-152
-152
-152
-150
-151
-157
-157
-152
-150
-149
-145
-139
-141
-143
-139
-134
-132
-131
-130
-126
-118
-115
-119
-120
-115
-114
-118
-128
-141
-141
-119
-87
-46
-19
-39
-79
-91
-90
-91
-88
-92
-93
-84
-99
-97
-56
-98
-165
-73
222
924
1829
1631
16
-1109
-744
-158
-104
-81
14
-14
-26
19
23
26
57
72
79
97
117
134
148
164
186
204
216
235
260
278
293
314
336
350
355
363
372
375
366
343
301
237
155
68
-5
-54
-88
-120
-138
-137
-133
-144
-153
-151
-149
-156
-165
-166
-160
-158
-170
-184
-190
-195
-203
-208
-210
-209
-207
-207
-210
-210
-208
-209
-210
-210
-207
-202
-202
-208
-208
-201
-196
-200
-213
-230
-237
-230
-211
-163
-100
-88
-129
-152
-142
-133
-128
-131
-131
-108
-106
-127
-95
-87
-175
-189
-79
297
1323
2192
1362
-403
-929
-324
-39
-110
-49
-17
-59
-23
13
4
22
48
58
76
98
111
129
151
169
187
211
239
264
287
308
331
355
374
388
405
422
425
409
377
322
243
159
79
6
-51
-88
-111
-122
-122
-120
-118
-111
-104
-105
-105
-102
-105
-111
-113
-115
-124
-138
-147
-152
-157
-162
-169
-176
-180
-183
-187
-187
-184
-185
-188
-190
-187
-184
-185
-185
-182
-180
-188
-203
-219
-225
-213
-185
-134
-89
-93
-131
-148
-140
-133
-128
-136
-146
-127
-124
-140
-107
-108
-192
-183
-47
347
1340
2097
1213
-444
-851
-256
-26
-116
-63
-36
-77
-50
-22
-25
-2
20
25
42
65
79
96
115
133
153
177
201
224
249
277
304
329
352
374
391
403
408
395
359
302
224
134
51
-16
-68
-105
-126
-136
-141
-140
-134
-130
-128
-128
-127
-124
-127
-133
-139
-141
-144
-150
-158
-163
-167
-173
-174
-172
-174
-181
-184
-183
-182
-180
-178
-179
-178
-173
-171
-173
-170
-165
-164
-163
-160
-157
-157
-169
-191
-202
-190
-167
-130
-75
-48
-78
-115
-116
-107
-104
-106
-113
-102
-89
-111
-99
-57
-119
-188
-103
120
807
1876
1878
326
-842
-540
-28
-47
-73
2
-26
-33
12
15
15
43
59
69
86
102
121
144
161
181
203
225
246
267
288
312
339
360
377
394
407
414
411
392
351
289
215
131
47
-19
-63
-93
-110
-116
-117
-118
-120
-124
-119
-111
-113
-123
-128
-130
-133
-137
-143
-148
-148
-155
-169
-174
-175
-181
-185
-185
-187
-190
-186
-184
-186
-185
-183
-185
-185
-180
-179
-178
-170
-165
-170
-170
-163
-162
-169
-167
-146
-126
-136
-153
-136
-127
-174
-210
-175
-129
-116
-94
-49
-19
-23
-47
-79
-103
-89
-52
-52
-74
-54
-43
-84
-67
-22
-94
-143
-43
245
1071
2012
1589
-39
-820
-336
29
-58
-58
-8
-48
-35
14
19
22
34
38
51
69
75
87
110
129
146
170
189
202
219
241
262
285
310
330
343
346
348
349
333
300
257
186
93
27
-4
-33
-66
-81
-77
-74
-89
-98
-74
-49
-58
-72
-70
-72
-75
-74
-78
-84
-87
-94
-110
-127
-132
-126
-128
-138
-142
-142
-146
-148
-148
-149
-147
-144
-144
-142
-141
-145
-146
-141
-139
-138
-136
-141
-144
-140
-138
-142
-140
-140
-145
-138
-122
-119
-125
-126
-132
-145
-141
-114
-95
-79
-42
-22
-56
-103
-126
-133
-118
-89
-87
-93
-86
-94
-101
-94
-125
-149
-61
269
1008
1621
1052
-304
-835
-376
-35
-44
-20
2
-32
-6
27
11
24
58
55
60
96
108
104
124
144
149
166
194
213
222
234
255
275
288
295
301
305
310
312
295
260
229
193
126
48
8
1
-17
-51
-62
-52
-58
-69
-51
-29
-35
-54
-61
-61
-66
-73
-79
-86
-93
-99
-102
-107
-112
-117
-124
-129
-124
-118
-120
-122
-117
-117
-125
-131
-131
-124
-117
-113
-113
-115
-115
-112
-108
-108
-111
-110
-104
-101
-100
-98
-100
-115
-122
-97
-64
-43
-16
-1
-34
-76
-79
-76
-86
-85
-83
-84
-75
-85
-97
-65
-72
-150
-142
63
591
1346
1405
248
-854
-761
-214
-69
-81
-26
-34
-49
-14
-4
-10
6
22
29
42
58
70
85
100
111
128
151
167
180
202
223
235
261
293
302
300
312
316
299
272
226
155
88
30
-27
-76
-113
-134
-124
-100
-94
-105
-112
-110
-97
-82
-80
-91
-96
-95
-96
-102
-108
-114
-122
-128
-123
-116
-124
-137
-138
-133
-127
-122
-122
-123
-115
-110
-120
-130
-127
-120
-122
-125
-123
-121
-124
-126
-122
-120
-131
-150
-154
-122
-74
-34
-15
-34
-78
-102
-100
-93
-82
-75
-77
-72
-71
-83
-73
-85
-136
-108
35
422
1235
1701
788
-605
-840
-259
-13
-44
14
31
1
31
53
49
73
91
87
93
110
125
139
150
160
180
204
221
234
248
269
294
313
323
335
350
361
360
343
309
265
206
126
47
-11
-53
-90
-113
-126
-137
-134
-118
-110
-113
-113
-108
-107
-113
-119
-122
-130
-144
-153
-145
-142
-162
-184
-183
-172
-172
-174
-171
-178
-187
-185
-179
-173
-165
-175
-196
-178
-125
-105
-135
-168
-181
-182
-172
-163
-168
-166
-142
-123
-137
-157
-140
-101
-68
-26
-6
-51
-96
-70
-40
-56
-73
-79
-74
-54
-64
-76
-17
13
-41
-60
73
585
1383
1429
260
-752
-601
-114
-31
-50
-1
-15
-34
-3
18
15
4
7
39
66
65
69
91
109
119
137
167
191
197
205
234
258
261
273
297
305
311
323
311
272
230
179
109
47
11
-23
-69
-94
-84
-73
-73
-73
-79
-81
-71
-68
-77
-81
-84
-88
-81
-83
-105
-106
-80
-87
-125
-129
-106
-114
-127
-106
-95
-117
-119
-97
-98
-112
-108
-101
-105
-109
-110
-110
-108
-106
-105
-104
-105
-115
-130
-123
-88
-56
-35
-18
-31
-75
-97
-92
-95
-101
-102
-105
-96
-92
-106
-85
-61
-121
-157
-31
326
979
1407
752
-486
-884
-415
-79
-54
-22
-4
-23
3
27
21
30
50
60
64
69
78
94
106
117
139
161
174
190
207
223
246
267
278
289
304
310
310
306
287
246
191
125
56
-3
-48
-83
-104
-116
-121
-118
-111
-105
-101
-98
-100
-102
-102
-106
-113
-117
-121
-126
-129
-131
-135
-139
-140
-139
-140
-138
-138
-143
-144
-138
-136
-139
-135
-129
-132
-135
-129
-124
-126
-126
-119
-117
-122
-123
-117
-116
-131
-148
-143
-115
-78
-39
-19
-44
-84
-96
-92
-88
-85
-94
-96
-80
-88
-93
-55
-84
-161
-115
63
574
1503
1726
438
-865
-762
-155
-44
-75
1
-8
-27
15
17
12
55
83
79
87
109
128
143
155
166
185
212
238
255
274
301
326
346
361
374
390
408
408
387
353
297
213
118
40
-20
-70
-111
-134
-142
-145
-144
-136
-132
-132
-126
-122
-127
-130
-130
-133
-136
-139
-149
-157
-157
-159
-164
-166
-175
-185
-177
-165
-173
-185
-181
-170
-169
-175
-175
-169
-165
-165
-165
-163
-159
-156
-151
-144
-141
-147
-153
-160
-174
-181
-164
-128
-83
-49
-62
-103
-121
-115
-116
-115
-118
-129
-110
-89
-101
-86
-84
-164
-168
-47
237
1033
1821
1218
-350
-921
-366
-25
-78
-40
1
-33
-3
37
24
25
56
79
88
91
96
117
148
172
183
195
217
243
265
289
316
338
361
385
402
413
425
424
397
343
269
189
113
40
-21
-62
-87
-97
-98
-100
-104
-100
-94
-91
-86
-86
-91
-89
-83
-88
-96
-98
-102
-110
-118
-125
-127
-126
-132
-139
-136
-128
-128
-136
-140
-133
-124
-128
-134
-127
-118
-124
-128
-119
-118
-127
-126
-113
-108
-111
-117
-120
-117
-128
-150
-149
-118
-82
-48
-31
-56
-95
-107
-109
-112
-108
-115
-125
-110
-113
-126
-88
-97
-191
-173
4
410
1205
1627
705
-618
-792
-241
-57
-113
-62
-52
-83
-56
-39
-48
-33
-20
-22
-13
-2
3
12
27
42
55
62
69
84
107
