# session 0
-68
-20
18
65
114
147
193
247
269
318
395
386
412
584
539
269
541
1271
945
-1145
-3462
-4070
-3108
-2318
-2437
-2628
-2401
-2200
-2173
-2065
-1914
-1831
-1733
-1617
-1525
-1417
-1318
-1293
-1216
-911
-481
-269
-431
-720
-803
-665
-524
-474
-438
-372
-309
-256
-198
-140
-86
-34
15
60
104
146
188
232
277
316
350
386
426
467
508
548
585
615
638
648
644
627
602
576
551
526
507
496
477
451
436
432
399
326
264
271
332
381
386
373
374
396
430
466
488
489
478
467
460
455
451
446
440
433
429
426
419
407
395
383
371
359
347
333
317
300
279
256
238
225
210
191
172
156
144
129
113
101
97
98
102
103
97
84
67
48
31
14
-6
-25
-38
-47
-56
-63
-76
-91
-88
-91
-149
-174
-4
307
449
241
-114
-294
-250
-178
-189
-219
-219
-212
-211
-211
-212
-213
-208
-200
-197
-197
-194
-187
-179
-171
-165
-156
-143
-126
-108
-90
-73
-60
-47
-36
-33
-42
-64
-97
-133
-166
-193
-213
-228
-238
-241
-239
-236
-233
-227
-217
-206
-196
-189
-183
-178
-172
-166
-162
-159
-154
-149
-145
-143
-139
-134
-131
-128
-122
-113
-107
-103
-98
-90
-85
-82
-76
-66
-57
-52
-48
-41
-34
-30
-28
-22
-14
-8
-4
1
12
28
44
53
56
55
54
50
44
38
34
34
35
33
35
41
42
50
62
32
-15
79
368
613
541
213
-46
-60
36
66
41
36
46
49
51
57
61
64
69
73
78
84
89
95
102
110
121
135
149
163
177
192
204
215
222
224
215
193
159
118
76
38
6
-17
-31
-39
-44
-45
-44
-44
-43
-41
-38
-35
-34
-34
-33
-33
-34
-35
-36
-38
-41
-43
-43
-43
-43
-44
-46
-46
-45
-44
-45
-46
-46
-47
-47
-48
-47
-47
-47
-48
-50
-51
-52
-52
-52
-52
-53
-54
-53
-53
-50
-41
-28
-15
-12
-18
-25
-28
-31
-38
-49
-59
-62
-61
-62
-61
-63
-66
-46
-36
-98
-137
59
449
662
450
33
-189
-140
-51
-61
-94
-87
-76
-78
-75
-67
-61
-54
-47
-43
-37
-30
-23
-15
-5
3
12
27
45
63
79
97
116
134
144
142
126
95
56
19
-13
-37
-51
-60
-72
-82
-82
-72
-61
-53
-38
-11
13
22
21
24
32
38
39
35
29
21
13
6
0
-8
-16
-21
-22
-23
-25
-28
-30
-34
-41
-46
-43
-37
-35
-36
-37
-36
-35
-36
-35
-35
-34
-35
-35
-34
-32
-31
-31
-30
-23
-9
4
9
5
-2
-9
-14
-21
-28
-35
-36
-37
-40
-38
-38
-41
-23
-12
-73
-115
75
463
684
483
70
-157
-109
-17
-27
-63
-59
-47
-46
-42
-35
-30
-22
-14
-10
-5
2
9
18
27
35
46
58
73
90
108
124
138
149
156
157
146
122
88
49
13
-17
-40
-56
-66
-70
-71
-71
-70
-70
-68
-65
-61
-57
-53
-50
-47
-46
-46
-45
-44
-44
-47
-50
-50
-50
-50
-51
-51
-50
-47
-46
-46
-48
-49
-48
-46
-45
-43
-43
-43
-42
-40
-38
-36
-33
-32
-31
-29
-26
-23
-21
-20
-19
-14
-3
12
27
34
31
23
15
8
-2
-15
-28
-31
-29
-31
-31
-28
-30
-20
1
-29
-86
10
329
607
534
171
-121
-141
-41
-14
-47
-55
-43
-39
-36
-28
-24
-22
-17
-11
-4
3
9
16
24
32
42
54
68
84
101
118
132
144
154
158
153
134
103
65
28
-3
-28
-45
-54
-58
-58
-56
-53
-51
-49
-47
-44
-41
-39
-38
-36
-35
-33
-33
-32
-30
-28
-27
-29
-32
-34
-34
-34
-33
-33
-34
-35
-35
-34
-33
-32
-33
-35
-36
-34
-32
-31
-32
-32
-32
-33
-33
-32
-31
-30
-29
-28
-26
-26
-29
-31
-31
-27
-15
2
13
13
6
1
-3
-10
-23
-36
-42
-39
-39
-39
-37
-39
-35
-16
-27
-81
-39
205
484
495
203
-99
-167
-77
-24
-43
-57
-47
-43
-43
-37
-32
-29
-26
-20
-11
0
5
8
14
25
34
44
61
84
103
114
123
134
145
152
153
145
124
89
48
9
-24
-49
-62
-66
-69
-73
-73
-68
-61
-57
-57
-57
-57
-54
-49
-43
-41
-46
-53
-54
-47
-42
-44
-48
-46
-42
-39
-36
-34
-35
-38
-38
-33
-26
-24
-24
-23
-22
-20
-17
-16
-19
-18
-12
-4
-2
-9
-18
-20
-11
1
14
22
24
23
23
18
10
4
-2
-14
-22
-21
-18
-17
-21
-27
-14
8
-27
-83
28
350
589
460
81
-169
-135
-15
4
-28
-24
-5
-6
-11
-11
-8
-2
2
-3
-7
0
9
14
20
33
49
63
77
93
109
123
136
146
149
147
140
127
99
56
12
-22
-47
-65
-80
-88
-89
-84
-80
-79
-80
-78
-73
-68
-65
-64
-64
-63
-64
-66
-65
-61
-59
-62
-65
-66
-65
-65
-66
-65
-63
-61
-61
-61
-60
-60
-59
-58
-57
-57
-57
-54
-52
-52
-53
-52
-50
-48
-43
-31
-15
-2
3
0
-4
-6
-11
-18
-27
-32
-31
-30
-30
-28
-31
-27
-1
-7
-77
-59
210
567
636
321
-53
-162
-62
6
-18
-39
-28
-21
-20
-13
-8
-3
5
12
16
22
29
36
44
51
60
71
87
104
120
137
155
169
175
177
174
159
128
87
44
4
-28
-52
-67
-74
-76
-77
-77
-77
-75
-74
-71
-65
-60
-59
-58
-55
-50
-47
-47
-49
-50
-49
-49
-52
-54
-54
-52
-50
-48
-48
-49
-49
-47
-44
-43
-42
-41
-39
-39
-40
-39
-36
-35
-36
-35
-33
-32
-34
-31
-17
0
11
10
4
0
-4
-8
-15
-25
-33
-35
-36
-37
-33
-35
-33
-12
-19
-88
-75
189
553
638
331
-50
-174
-80
-10
-35
-58
-47
-40
-40
-35
-29
-25
-18
-11
-6
-2
5
13
22
31
41
53
67
85
106
125
140
152
162
168
168
154
123
82
40
3
-28
-52
-68
-76
-77
-78
-78
-76
-73
-69
-64
-61
-59
-57
-54
-51
-50
-50
-50
-49
-49
-49
-51
-52
-52
-52
-52
-50
-49
-48
-48
-48
-46
-44
-42
-40
-38
-38
-38
-38
-36
-33
-31
-30
-31
-31
-31
-30
-28
-27
-26
-24
-23
-18
-9
4
16
20
16
11
7
3
-6
-15
-22
-22
-20
-22
-19
-17
-20
-7
7
-39
-84
69
424
658
501
108
-138
-110
-11
-7
-42
-42
-29
-29
-27
-21
-16
-11
-5
-1
4
9
16
24
32
40
50
62
75
92
111
130
145
155
161
163
156
135
101
61
21
-13
-39
-57
-69
-75
-77
-77
-76
-74
-72
-68
-64
-61
-59
-58
-57
-55
-52
-51
-53
-54
-55
-55
-57
-58
-58
-57
-57
-57
-56
-55
-56
-56
-56
-55
-53
-51
-50
-49
-49
-50
-50
-47
-43
-43
-44
-44
-42
-39
-38
-37
-34
-32
-32
-31
-25
-14
1
10
10
6
4
1
-8
-20
-28
-26
-22
-23
-24
-24
-27
-16
1
-31
-79
26
329
574
481
130
-134
-137
-34
-6
-35
-39
-26
-24
-23
-17
-11
-7
-1
5
13
22
29
33
39
49
62
76
90
106
124
144
162
175
182
183
177
160
131
91
48
10
-20
-41
-56
-65
-70
-72
-70
-67
-64
-61
-59
-56
-51
-47
-44
-42
-40
-39
-38
-37
-38
-37
-36
-37
-40
-43
-45
-43
-42
-42
-43
-44
-45
-45
-46
-47
-47
-48
-47
-46
-45
-46
-46
-45
-44
-43
-42
-40
-39
-38
-37
-32
-24
-14
-5
0
-4
-15
-28
-34
-36
-35
-36
-39
-36
-34
-38
-24
-8
-52
-83
87
437
635
441
46
-171
-121
-24
-25
-58
-54
-41
-41
-40
-36
-33
-26
-17
-11
-6
-1
6
15
25
34
43
55
71
90
109
127
143
155
163
164
153
127
89
48
10
-24
-50
-66
-74
-78
-81
-82
-81
-79
-75
-70
-66
-63
-61
-58
-54
-51
-49
-46
-45
-46
-46
-45
-44
-44
-45
-44
-40
-37
-35
-34
-32
-32
-32
-32
-32
-34
-35
-36
-36
-34
-33
-32
-30
-29
-27
-25
-24
-23
-21
-20
-19
-18
-16
-12
-10
-10
-7
0
10
19
25
27
23
12
-1
-11
-14
-12
-12
-13
-10
-11
-11
11
12
-52
-53
187
555
678
400
11
-137
-54
18
-7
-37
-28
-19
-21
-17
-11
-6
0
5
10
17
24
30
36
43
52
62
75
89
104
121
136
149
159
165
165
154
130
94
54
17
-16
-41
-58
-67
-71
-73
-74
-74
-73
-71
-68
-66
-65
-63
-59
-56
-55
-55
-55
-56
-56
-58
-60
-61
-61
-63
-64
-65
-65
-66
-66
-66
-66
-65
-64
-64
-64
-64
-63
-62
-61
-60
-60
-59
-59
-59
-59
-57
-56
-55
-55
-55
-54
-53
-52
-51
-48
-46
-45
-45
-43
-35
-24
-15
-11
-14
-22
-33
-43
-51
-53
-53
-56
-58
-56
-58
-56
-39
-54
-108
-55
214
508
509
190
-128
-192
-95
-47
-76
-92
-79
-71
-68
-62
-56
-49
-41
-34
-28
-21
-12
0
14
30
44
57
71
90
110
129
144
158
169
176
175
163
140
108
71
35
6
-13
-25
-31
-33
-31
-27
-21
-13
-6
-1
3
9
15
20
23
26
29
33
36
36
37
40
44
46
48
50
52
54
58
62
65
66
65
67
72
75
75
75
77
81
85
86
85
85
86
88
88
86
84
84
87
87
85
81
82
85
88
87
88
93
100
105
106
100
84
67
56
53
53
49
41
37
32
26
35
36
-15
-36
129
427
560
356
8
-167
-116
-34
-36
-63
-64
-62
-68
-72
-74
-76
-78
-82
-88
-89
-86
-84
-84
-84
-81
-77
-73
-68
-57
-46
-37
-30
-27
-28
-35
-49
-73
-108
-151
-196
-242
-282
-310
-329
-343
-354
-360
-361
-360
-360
-361
-362
-364
-367
-368
-369
-370
-370
-368
-366
-365
-367
-368
-367
-362
-356
-352
-350
-348
-344
-338
-332
-329
-326
-320
-312
-302
-294
-286
-280
-277
-276
-270
-257
-241
-227
-216
-205
-193
-180
-168
-157
-144
-130
-115
-97
-75
-52
-30
-8
13
29
34
34
40
55
77
95
108
128
149
161
187
218
202
189
352
694
915
772
417
210
266
387
414
400
420
452
471
490
514
539
563
584
602
623
649
677
703
725
744
765
789
818
849
880
909
931
946
959
972
979
967
936
897
862
830
801
777
763
756
752
749
745
738
732
730
731
729
720
706
692
680
667
652
633
614
596
575
549
521
494
474
453
424
388
354
323
290
256
222
186
144
99
60
23
-19
-68
-120
-168
-214
-262
-312
-361
-411
-463
-516
-566
-615
-665
-715
-765
-819
-884
-957
-1031
-1104
-1172
-1230
-1286
-1347
-1415
-1485
-1540
-1575
-1649
-1776
-1804
-1603
-1351
-1387
-1765
-2168
-2313
-2272
-2274
-2362
-2439
-2482
-2532
-2593
-2648
-2700
-2748
-2791
-2836
-2887
-2937
-2976
-3002
-3032
-3081
-3133
-3160
-3166
-3177
-3203
-3229
-3238
-3240
-3253
-3283
-3322
-3357
-3393
-3443
-3505
-3558
-3590
-3607
-3624
-3643
-3634
-3582
-3550
-3613
-3708
-3580
-2970
-1962
-1001
-301
581
2122
3929
5049
5195
5110
5564
6479
7189
7256
6926
6846
7238
7641
7623
7249
6988
7503
8749
9423
8773
8369
10286
14096
17139
17721
16715
15159
12297
8330
6057
6490
6951
6289
6641
8354
8738
6632
4045
2891
2429
1242
791
3693
8792
12032
10929
5488
-1756
-5853
-4150
44
1796
340
-1432
-1684
-2100
-4782
-8471
-10672
-11425
-12042
-12605
-12739
-12622
-12405
-12004
-11450
-10839
-10243
-9734
-9325
-8967
-8625
-8282
-7919
-7552
-7196
-6837
-6452
-6049
-5655
-5289
-4953
-4651
-4382
-4141
-3926
-3743
-3585
-3431
-3256
-3044
-2799
-2551
-2330
-2124
-1900
-1659
-1443
-1264
-1086
-879
-652
-436
-241
-63
93
226
351
481
606
721
844
990
1145
1287
1412
1521
1603
1667
1741
1837
1928
1986
2029
2094
2180
2249
2281
2295
2322
2368
2410
2433
2457
2501
2546
2563
2556
2552
2554
2545
2514
2473
2442
2426
2408
2380
2362
2353
2336
2314
2283
2225
2200
2308
2503
2571
2381
2065
1862
1833
1836
1764
1661
1608
1603
1584
1506
1395
1322
1298
1258
1172
1086
1040
998
918
822
760
723
661
571
496
461
438
395
324
245
168
104
53
-4
-89
-194
-290
-361
-419
-479
-539
-588
-625
-658
-691
-724
-764
-812
-863
-904
-931
-943
-959
-994
-1034
-1050
-1052
-1074
-1128
-1179
-1201
-1212
-1228
-1202
-1090
-931
-803
-743
-747
-799
-875
-948
-1008
-1068
-1129
-1175
-1201
-1228
-1254
-1250
-1214
-1168
-1113
-1030
-926
-851
-835
-844
-829
-787
-743
-715
-703
-700
-680
-620
-534
-458
-409
-335
-131
206
485
485
215
-81
-188
-125
-38
31
132
260
363
432
480
490
448
379
321
279
231
178
147
151
170
188
208
227
239
243
244
244
243
242
233
215
182
137
87
44
19
10
7
-3
-9
6
43
81
102
107
108
107
95
73
72
110
170
221
251
264
260
239
213
210
237
275
306
319
316
309
312
325
340
354
364
363
346
319
288
252
214
179
158
159
177
199
214
218
211
201
195
190
177
152
123
97
70
39
10
-5
-5
-10
-27
-41
-45
-48
-40
-30
-66
-114
-13
269
485
383
54
-179
-176
-90
-80
-117
-127
-116
-114
-119
-126
-134
-133
-126
-124
-125
-121
-115
-112
-110
-104
-96
-88
-81
-72
-60
-47
-37
-28
-21
-16
-20
-35
-62
-101
-141
-175
-200
-218
-232
-241
-244
-241
-237
-236
-234
-230
-227
-225
-220
-210
-196
-184
-165
-138
-105
-72
-39
0
46
90
119
133
137
136
127
112
95
86
88
94
93
87
80
72
58
39
23
18
28
47
64
72
71
69
75
83
85
