# session 16
-7
5
-47
79
389
547
495
470
511
526
541
592
638
659
661
649
632
598
526
426
333
259
193
129
77
49
43
48
54
55
46
33
34
53
75
82
69
32
-12
-31
-43
-51
-39
-51
-87
-165
-385
-260
922
2083
1301
-574
-1089
-365
-55
-203
-172
-121
-169
-145
-107
-121
-105
-66
-45
-11
43
96
138
155
151
142
118
60
-11
-68
-114
-148
-169
-191
-209
-205
-191
-188
-187
-178
-178
-189
-187
-160
-123
-94
-81
-101
-133
-143
-148
-157
-138
-132
-158
-223
-436
-364
805
2156
1579
-375
-1104
-426
-70
-225
-194
-111
-164
-157
-104
-103
-86
-43
-21
14
78
135
181
223
240
228
197
135
54
-7
-45
-82
-117
-142
-150
-131
-103
-85
-68
-71
-116
-154
-134
-89
-65
-52
-32
-13
-27
-65
-67
-31
-29
-77
-137
-153
-148
-346
-486
443
2071
2093
165
-1088
-616
-51
-135
-186
-86
-99
-127
-85
-58
-54
-34
13
73
123
158
183
194
191
190
188
151
73
3
-52
-111
-161
-174
-153
-118
-112
-136
-135
-123
-123
-85
-61
-139
-186
-113
-71
-104
-81
-26
-29
-56
-88
-128
-119
-102
-135
-177
-366
-474
470
2093
2083
124
-1135
-683
-136
-167
-147
-33
-44
-67
-64
-66
-22
38
64
98
172
257
310
342
381
395
343
254
161
71
18
-10
-77
-149
-139
-95
-102
-125
-121
-109
-77
-37
-68
-144
-151
-95
-87
-134
-141
-94
-78
-107
-122
-136
-144
-85
-70
-146
-130
-183
-363
256
1682
1803
-7
-1304
-868
-199
-123
-107
-66
-148
-149
-67
-46
-23
25
28
53
149
220
250
315
347
263
167
142
106
28
-24
-58
-113
-152
-153
-160
-184
-182
-149
-111
-84
-94
-138
-149
-104
-72
-79
-69
-38
-50
-111
-148
-137
-127
-144
-127
-91
-235
-346
403
1745
1806
198
-919
-541
-42
-134
-188
-74
-81
-114
-78
-61
-63
-33
11
38
52
102
178
181
119
119
166
120
15
-14
-2
-48
-101
-107
-121
-133
-81
-23
-46
-98
-108
-98
-96
-85
-69
-56
-39
-28
-31
-34
-45
-73
-82
-62
-52
-76
-93
-107
-269
-360
437
1837
1895
227
-919
-542
-67
-158
-176
-62
-97
-126
-70
-55
-59
-42
-37
-24
37
125
191
200
181
183
173
106
31
-5
-35
-83
-131
-162
-169
-162
-169
-165
-121
-89
-108
-130
-123
-108
-94
-82
-73
-46
-23
-56
-98
-74
-46
-75
-92
-104
-135
-153
-346
-507
371
1953
1959
72
-1123
-645
-90
-140
-167
-83
-90
-90
-68
-66
-24
36
67
97
140
196
270
329
337
317
298
255
169
77
13
-44
-108
-147
-137
-109
-107
-124
-115
-84
-86
-110
-114
-114
-125
-113
-88
-89
-94
-99
-127
-133
-97
-94
-117
-118
-125
-121
-190
-400
-61
1256
1958
620
-1115
-1209
-407
-92
-111
-62
-61
-89
-53
-24
-6
37
75
109
175
247
292
320
333
334
329
282
180
93
44
-29
-124
-171
-169
-170
-179
-160
-126
-118
-134
-143
-137
-116
-91
-89
-98
-82
-71
-90
-100
-97
-99
-85
-82
-122
-186
-324
-266
579
1641
1320
-166
-823
-320
-8
-148
-141
-49
-85
-94
-45
-42
-54
-34
4
50
90
115
141
163
153
130
121
94
33
-13
-26
-41
-57
-57
-60
-82
-95
-90
-87
-94
-104
-103
-86
-78
-85
-61
-5
8
-42
-83
-79
-66
-59
-48
-58
-69
-105
-259
-163
745
1689
1162
-304
-805
-281
1
-94
-85
-50
-85
-82
-71
-67
-15
30
31
39
67
105
153
179
164
154
154
111
28
-23
-45
-73
-87
-91
-133
-177
-153
-101
-91
-109
-110
-107
-120
-124
-95
-47
-18
-34
-70
-66
-45
-75
-110
-91
-84
-115
-215
-433
-202
1020
1955
1010
-630
-902
-272
-82
-180
-116
-67
-92
-101
-125
-115
-48
-22
-14
72
165
175
177
218
229
191
157
127
75
8
-59
-107
-133
-142
-136
-121
-100
-79
-96
-142
-143
-107
-108
-114
-52
22
4
-60
-60
-37
-91
-148
-100
-65
-105
-116
-287
-542
148
1716
1942
225
-976
-560
-75
-172
-169
-32
-41
-77
-73
-54
-11
19
55
118
133
133
199
272
303
296
236
177
160
99
3
-35
-71
-135
-124
-84
-126
-164
-136
-120
-117
-95
-98
-110
-88
-72
-79
-74
-55
-35
-50
-108
-117
-75
-86
-157
-361
-557
93
1596
2007
438
-1002
-786
-119
-76
-186
-116
-73
-80
-77
-59
-2
29
4
43
139
155
137
207
287
260
194
174
136
24
-65
-61
-77
-173
-202
-109
-87
-193
-236
-163
-127
-167
-147
-29
19
-88
-171
-119
-69
-96
-114
-98
-93
-136
-185
-221
-443
-581
356
1895
1760
-163
-1246
-697
-160
-178
-136
-71
-134
-111
-51
-81
-54
54
85
79
173
286
288
247
279
354
362
270
156
97
51
-47
-129
-122
-99
-124
-130
-98
-98
-130
-124
-94
-77
-54
-23
-17
-32
-52
-83
-104
-105
-89
-54
-58
-99
-146
-358
-460
452
1821
1517
-393
-1342
-688
-124
-194
-192
-63
-60
-55
7
18
1
39
119
179
208
263
363
443
450
403
343
277
188
86
14
-28
-81
-144
-172
-163
-163
-174
-162
-141
-137
-110
-53
-34
-55
-58
-52
-70
-93
-107
-109
-93
-102
-141
-158
-319
-530
116
1611
1946
317
-1095
-864
-229
-157
-213
-168
-173
-160
-110
-109
-125
-94
-25
62
133
168
204
268
318
316
287
240
139
18
-46
-81
-132
-162
-176
-214
-217
-165
-166
-221
-206
-122
-70
-67
-60
-31
-17
-60
-125
-151
-146
-131
-132
-149
-186
-379
-459
440
1920
1924
191
-941
-560
-100
-180
-216
-143
-162
-153
-107
-111
-98
-49
-20
37
140
197
200
242
304
291
221
170
112
15
-47
-43
-67
-143
-187
-184
-194
-214
-208
-177
-141
-112
-86
-61
-50
-47
-31
-16
-19
-39
-67
-77
-65
-93
-116
-124
-287
-196
928
2169
1585
-225
-889
-315
-44
-190
-141
-70
-144
-141
-71
-68
-69
-21
28
50
91
183
264
270
267
308
304
203
91
26
-26
-101
-168
-178
-158
-174
-203
-186
-168
-202
-229
-197
-157
-153
-153
-119
-69
-29
-18
-49
-82
-78
-99
-151
-134
-98
-128
-190
-365
-326
764
2201
1846
-73
-1004
-478
-96
-211
-210
-146
-160
-112
-72
-97
-67
-19
-25
7
94
142
177
243
284
299
311
248
104
-7
-66
-144
-201
-172
-149
-206
-235
-183
-164
-197
-190
-146
-117
-102
-113
-139
-136
-117
-119
-124
-121
-113
-84
-56
-60
-70
-79
-101
-116
-124
-112
-61
-71
-155
-202
-315
-229
884
2362
2056
97
-970
-529
-120
-184
-177
-127
-133
-55
-11
-82
-85
-4
27
32
97
203
289
345
386
397
345
257
182
122
50
-39
-104
-108
-97
-131
-176
-178
-159
-146
-121
-97
-111
-130
-117
-100
-83
-51
-50
-98
-133
-121
-95
-77
-74
-96
-144
-182
-163
-114
-79
-33
15
-23
-130
-158
-89
-65
-98
-73
-26
-39
-100
-286
-246
850
2297
1935
-94
-1192
-666
-117
-151
-195
-138
-131
-102
-49
-44
-71
-71
-9
76
117
158
255
329
319
301
323
324
262
155
40
-44
-100
-130
-117
-120
-195
-242
-197
-155
-139
-100
-87
-114
-101
-69
-87
-99
-75
-97
-154
-145
-90
-79
-87
-74
-98
-165
-185
-157
-141
-114
-63
-43
-46
-31
-37
-82
-120
-120
-91
-69
-66
-89
-230
-217
705
2104
2053
313
-864
-549
-111
-186
-204
-109
-140
-137
-41
-29
-81
-61
7
39
55
106
183
255
287
259
221
213
179
89
4
-41
-65
-86
-117
-154
-167
-154
-159
-181
-171
-134
-125
-133
-101
-64
-79
-96
-64
-50
-86
-103
-95
-113
-133
-119
-92
-60
-34
-34
-37
-46
-92
-113
-82
-85
-99
-143
-287
62
1371
2216
1088
-616
-858
-250
-121
-228
-139
-86
-121
-107
-82
-70
-45
-20
15
64
113
183
271
313
305
297
286
230
129
25
-46
-85
-120
-156
-171
-179
-205
-220
-187
-139
-115
-110
-118
-142
-147
-122
-104
-114
-126
-127
-124
-120
-127
-145
-141
-99
-56
-40
-56
-91
-107
-96
-90
-82
-69
-59
-55
-183
-261
493
1852
1934
277
-955
-635
-83
-106
-164
-78
-75
-74
-8
12
-14
-6
34
73
120
197
274
309
325
350
352
304
217
120
41
-10
-52
-102
-141
-144
-129
-130
-143
-148
-145
-137
-125
-112
-91
-73
-84
-116
-132
-114
-90
-107
-159
-182
-143
-81
-52
-77
-128
-140
-91
-68
-89
-80
-81
-124
-166
-320
-288
714
1986
1546
-297
-1131
-546
-83
-133
-143
-103
-116
-83
-52
-47
-14
-1
6
81
156
177
222
297
324
312
312
297
210
70
-30
-40
-46
-113
-172
-176
-180
-179
-137
-105
-103
-94
-96
-124
-133
-110
-76
-54
-74
-109
-123
-157
-177
-98
-12
-40
-78
-41
-36
-110
-145
-88
-56
-96
-86
-129
-350
-58
1240
2057
905
-828
-1107
-411
-87
-137
-123
-64
-47
-61
-66
-20
20
32
80
128
154
245
345
334
331
425
428
295
215
182
54
-89
-122
-133
-174
-161
-123
-152
-173
-116
-78
-105
-113
-80
-74
-103
-114
-104
-130
-182
-168
-85
-42
-69
-89
-80
-96
-140
-157
-106
-34
-57
-113
-109
-264
-351
548
1902
1596
-329
-1362
-803
-232
-231
-196
-42
-6
-25
-22
0
38
34
13
98
248
321
343
389
432
449
462
440
329
172
59
-11
-90
-145
-144
-144
-171
-175
-152
-158
-183
-168
-121
-103
-103
-88
-109
-186
-211
-135
-81
-112
-127
-95
-99
-122
-112
-132
-159
-118
-110
-142
-133
-256
-190
847
1983
1282
-610
-1256
-572
-162
-216
-140
-56
-103
-79
-27
-54
-31
61
79
54
128
259
338
394
447
439
386
331
223
90
37
9
-92
-166
-153
-171
-222
-192
-137
-161
-185
-143
-131
-178
-167
-99
-101
-137
-98
-71
-128
-136
-70
-68
-112
-111
-103
-119
-142
-160
-190
-308
-143
947
2099
1501
-308
-1033
-469
-88
-171
-186
-134
-142
-142
-109
-50
-12
-42
-44
45
115
132
200
318
351
291
274
292
203
53
-6
-35
-128
-184
-155
-139
-164
-178
-177
-177
-189
-182
-122
-71
-88
-125
-152
-158
-110
-49
-32
-27
-44
-111
-142
-115
-97
-70
-54
-107
-181
-303
-188
861
2171
1780
-66
-960
-458
-80
-174
-189
-160
-177
-112
-64
-95
-84
-37
-14
20
74
136
228
315
331
320
325
281
179
89
16
-54
-102
-145
-187
-176
-149
-176
-188
-138
-125
-168
-156
-96
-104
-157
-157
-136
-132
-93
-41
-46
-64
-60
-76
-83
-60
-76
-108
-101
-106
-122
-203
-372
58
1489
2317
1094
-604
-795
-213
-126
-239
-152
-111
-168
-166
-113
-70
-64
-61
-5
56
88
161
253
272
269
311
315
232
126
32
-50
-94
-118
-167
-211
-199
-174
-208
-238
-174
-114
-157
-173
-91
-73
-143
-135
-84
-134
-183
-120
-71
-101
-78
-7
-37
-130
-123
-63
-89
-121
-70
-51
-103
-205
-384
-98
1204
2284
1443
-328
-874
-351
-94
-193
-211
-168
-126
-77
-64
-66
-52
-33
-3
35
95
189
267
292
303
323
323
274
169
57
2
-41
-114
-148
-137
-168
-208
-177
-143
-161
-153
-109
-96
-93
-72
-78
-94
-79
-80
-108
-100
-81
-110
-133
-96
-66
-65
-39
-23
-73
-97
-55
-54
-74
-42
-52
-103
-146
-305
-130
1089
2272
1528
-334
-980
-421
-116
-193
-161
-115
-149
-134
-96
-76
-36
3
18
44
101
167
233
295
342
359
340
294
222
128
37
-34
-92
-139
-167
-185
-195
-188
-174
-172
-171
-155
-131
-113
-111
-117
-110
-93
-93
-110
-117
-116
-128
-152
-163
-149
-125
-104
-87
-78
-98
-125
-117
-110
-116
-90
-90
-133
-131
-235
-289
584
2021
1923
52
-1160
-765
-209
-182
-181
-110
-117
-99
-52
-53
-53
-19
18
59
112
178
260
347
415
449
442
397
319
219
118
31
-49
-116
-148
-158
-180
-203
-193
-166
-157
-155
-143
-129
-128
-129
-114
-91
-79
-85
-96
-111
-135
-153
-133
-119
-138
-29
263
431
308
135
63
29
9
-29
-68
-95
-250
-121
1035
2195
1417
-536
-1224
-591
-184
-215
-177
-128
-149
-125
-94
-95
-72
-36
-11
26
84
156
241
315
352
363
356
303
204
103
19
-66
-141
-184
-207
-226
-241
-256
-269
-266
-244
-217
-196
-179
-166
-160
-160
-157
-160
-174
-182
-182
-177
-162
-139
-119
-115
-134
-151
-140
-135
-137
-112
-109
-138
-175
-311
-167
958
2203
1669
-170
-976
-469
-121
-211
-197
-130
-150
-131
-88
-85
-70
-39
-16
21
78
142
213
280
324
350
347
296
202
103
25
-33
-83
-126
-150
-155
-161
-175
-182
-174
-158
-145
-138
-125
-105
-93
-87
-81
-80
-92
-103
-102
-90
-70
-43
-22
-18
-34
-47
-41
-42
-47
-26
-20
-48
-86
-191
-26
1020
2171
1677
-57
-836
-358
-32
-141
-137
-74
-104
-86
-35
-38
-40
-9
19
46
93
156
226
293
346
370
356
309
238
146
54
-9
-44
-79
-112
-128
-136
-147
-153
-149
-138
-123
-113
-113
-121
-127
-110
-85
-79
-87
-97
-103
-84
-42
-29
-59
-81
-75
-73
-90
-96
-76
-87
-128
-164
-253
-89
913
2017
1515
-206
-956
-429
-76
-194
-179
-69
-98
-148
-121
-64
-41
-55
-38
22
73
118
166
201
240
285
295
232
122
50
-14
-155
-235
-160
-142
-236
-240
-211
-290
-318
-234
-206
-231
-212
-201
-223
-226
-198
-159
-168
-225
-224
-176
-176
-171
-142
-186
-229
-173
-146
-186
-166
-126
-188
-352
-336
411
1582
1619
172
-924
-701
-236
-182
-158
-100
-136
-123
-63
-58
-43
-10
-40
-46
85
228
262
285
356
401
382
323
267
235
182
103
71
59
-18
-102
-87
-17
8
-10
-14
13
38
38
66
125
95
15
70
164
92
