# session 1
-2
-11
4
82
116
33
-23
10
25
8
21
51
62
68
85
114
136
139
141
166
193
200
204
223
242
247
244
229
184
115
44
-15
-58
-87
-101
-105
-106
-108
-109
-107
-103
-103
-108
-103
-90
-87
-93
-94
-95
-100
-107
-116
-119
-107
-77
-36
-11
-25
-67
-97
-98
-87
-89
-95
-78
-88
-120
-110
-199
-274
425
1715
1830
328
-821
-591
-106
-80
-119
-77
-92
-96
-60
-53
-52
-35
-27
-19
0
10
16
34
56
65
78
102
123
134
148
166
177
185
206
232
237
202
132
54
-16
-75
-116
-133
-138
-145
-149
-142
-140
-144
-145
-143
-143
-141
-137
-141
-142
-134
-134
-147
-156
-154
-141
-105
-62
-59
-90
-112
-125
-126
-114
-123
-126
-93
-107
-135
-119
-248
-184
882
2107
1543
-270
-989
-432
-58
-111
-100
-67
-92
-68
-41
-52
-43
-27
-25
-10
9
17
31
55
73
88
106
122
144
168
181
188
203
222
239
255
249
198
118
42
-25
-81
-114
-126
-131
-135
-136
-135
-131
-130
-136
-143
-138
-131
-133
-136
-134
-140
-156
-159
-140
-101
-65
-66
-96
-120
-129
-126
-117
-126
-124
-104
-122
-131
-147
-300
-65
1163
2155
1250
-464
-854
-248
-27
-142
-110
-75
-105
-83
-58
-67
-53
-34
-34
-25
-7
3
13
31
48
63
80
99
115
129
144
153
156
165
188
205
185
127
61
1
-54
-95
-115
-125
-133
-138
-141
-138
-133
-133
-127
-116
-122
-136
-134
-124
-127
-139
-145
-133
-94
-51
-41
-63
-92
-118
-122
-103
-110
-123
-93
-89
-122
-115
-217
-226
657
1962
1780
104
-837
-415
-14
-99
-123
-61
-85
-88
-56
-57
-55
-39
-34
-26
-9
5
20
36
51
70
88
99
107
118
132
141
139
142
162
184
176
131
69
6
-49
-87
-105
-114
-124
-130
-127
-122
-123
-125
-125
-128
-128
-123
-119
-121
-122
-126
-131
-125
-98
-60
-37
-49
-79
-105
-118
-112
-100
-106
-101
-90
-114
-112
-142
-273
89
1312
2013
934
-563
-735
-179
-33
-122
-89
-74
-94
-69
-52
-55
-38
-21
-14
-4
3
10
29
45
54
68
87
101
115
128
130
131
140
153
168
173
150
97
32
-31
-79
-100
-111
-130
-135
-121
-115
-126
-131
-127
-128
-129
-127
-130
-130
-123
-121
-129
-134
-129
-111
-78
-43
-38
-65
-96
-114
-114
-102
-108
-107
-76
-82
-102
-108
-231
-111
903
1959
1387
-229
-828
-315
-3
-87
-95
-58
-81
-71
-44
-42
-36
-26
-23
-10
7
16
26
39
51
69
89
103
113
121
124
126
132
145
164
174
156
111
54
-6
-62
-98
-112
-120
-126
-126
-123
-121
-121
-124
-127
-124
-117
-118
-120
-116
-116
-126
-134
-128
-102
-61
-31
-42
-74
-100
-115
-110
-98
-110
-107
-82
-100
-108
-127
-278
-3
1232
2112
1110
-536
-826
-218
-13
-112
-89
-66
-89
-67
-49
-51
-38
-28
-25
-5
15
20
30
49
66
79
93
107
118
128
139
145
148
159
182
193
164
103
36
-27
-81
-121
-142
-145
-140
-137
-134
-132
-132
-129
-124
-125
-127
-124
-124
-124
-119
-124
-137
-136
-111
-75
-42
-39
-64
-87
-101
-103
-93
-100
-105
-74
-83
-110
-87
-208
-217
731
1998
1605
-192
-1041
-501
-43
-75
-85
-44
-65
-58
-39
-46
-32
-11
-12
-6
10
19
32
55
71
84
100
114
127
146
162
167
169
180
201
219
205
150
73
-1
-62
-105
-134
-149
-150
-143
-136
-130
-125
-125
-124
-118
-112
-116
-121
-125
-125
-123
-127
-136
-139
-130
-103
-56
-34
-60
-92
-108
-120
-113
-104
-114
-99
-87
-115
-110
-180
-294
315
1678
2001
518
-808
-641
-87
-48
-119
-69
-70
-83
-53
-43
-41
-24
-16
-12
0
15
30
46
59
73
94
116
131
144
161
171
167
169
192
217
211
166
100
31
-33
-87
-123
-140
-147
-148
-143
-135
-131
-130
-126
-120
-118
-120
-121
-121
-121
-119
-119
-123
-122
-121
-127
-130
-122
-96
-52
-23
-44
-82
-98
-106
-103
-93
-102
-99
-75
-93
-106
-134
-283
7
1247
2114
1111
-514
-787
-192
-9
-116
-87
-63
-88
-65
-46
-53
-37
-19
-14
-3
14
25
33
45
63
83
101
119
137
148
155
162
171
184
203
211
182
118
47
-12
-63
-111
-145
-157
-153
-152
-158
-155
-137
-126
-127
-124
-121
-122
-116
-109
-111
-110
-105
-111
-119
-118
-114
-107
-99
-105
-117
-114
-103
-82
-36
-4
-27
-64
-76
-84
-88
-82
-86
-78
-69
-94
-99
-159
-297
174
1508
2110
869
-572
-610
-78
-10
-102
-61
-50
-57
-31
-32
-36
-16
-6
-1
20
34
37
48
70
92
105
117
134
153
167
178
181
186
203
223
224
191
134
69
6
-55
-98
-122
-143
-155
-150
-140
-139
-135
-125
-121
-122
-119
-118
-124
-128
-129
-132
-133
-127
-124
-124
-120
-118
-122
-125
-124
-134
-148
-139
-100
-51
-30
-49
-80
-96
-100
-90
-84
-104
-103
-77
-105
-123
-142
-303
-48
1211
2136
1118
-579
-864
-223
-9
-102
-72
-71
-108
-70
-45
-59
-38
-4
-2
-2
18
39
55
69
79
96
128
154
161
173
194
201
196
203
236
259
223
153
105
51
-42
-114
-124
-124
-147
-157
-145
-124
-90
-76
-112
-121
-70
-60
-92
-66
-39
-106
-166
-125
-84
-115
-161
-189
-197
-178
-176
-191
-138
-64
-88
-145
-142
-152
-180
-147
-121
-132
-96
-82
-99
-73
-213
-218
857
2277
1914
86
-870
-646
-463
-399
-174
-85
-116
-66
-86
-175
-145
-74
-74
-52
-11
-26
15
182
291
248
204
244
301
337
382
430
428
405
452
516
467
365
300
196
65
49
62
-80
-270
-318
-279
-240
-202
-195
-216
-225
-254
-317
-303
-147
2
-21
-147
-213
-224
-239
-196
-69
29
8
-110
-250
-307
-237
-176
-206
-216
-205
-243
-203
-173
-285
200
1575
2049
443
-1315
-1363
-601
-268
-189
-82
-78
-124
-87
-12
21
7
-46
-121
-143
-53
58
59
-1
38
169
229
179
128
146
223
293
305
323
388
386
259
131
94
102
93
50
13
33
77
68
31
32
55
86
130
156
160
138
30
-123
-175
-139
-143
-206
-216
-104
-19
-105
-166
-67
-76
-240
-241
-117
-134
-195
-174
-173
-166
-158
-122
519
1728
1853
225
-1153
-890
-192
-120
-202
-112
-109
-191
-192
-130
-83
-83
-84
-35
-31
-113
-107
42
137
102
66
87
126
169
210
194
89
-13
0
53
23
-35
-44
-84
-177
-227
-221
-211
-203
-210
-229
-204
-143
-116
-113
-96
-81
-63
-29
4
42
63
31
32
106
110
42
62
103
45
38
146
178
115
96
73
-129
-408
-86
1169
1994
1006
-597
-940
-396
-130
-147
-144
-111
-3
76
-20
-110
-49
7
-16
-11
22
17
10
29
31
35
64
67
68
130
164
119
143
268
326
274
202
118
-8
-144
-207
-142
-58
-106
-203
-181
-104
-93
-104
-126
-219
-317
-321
-268
-200
-134
-147
-214
-202
-153
-165
-176
-177
-231
-223
-117
-85
-117
-102
-110
-139
-168
-184
434
1912
2518
979
-812
-848
-94
46
-71
36
85
22
58
92
10
-20
29
-46
-209
-230
-120
-29
19
33
-1
-26
12
75
126
168
175
132
95
96
84
22
-42
-73
-116
-180
-203
-216
-283
-309
-210
-129
-159
-166
-108
-108
-147
-109
-58
-94
-152
-142
-113
-133
-178
-191
-169
-154
-153
-115
-90
-168
-226
-241
-364
-10
1415
2418
1233
-722
-1072
-326
-50
-138
-72
-75
-173
-109
-1
-32
-80
-68
-57
-26
66
179
252
256
273
357
357
249
260
396
424
351
328
353
385
351
136
-141
-228
-185
-198
-211
-166
-146
-141
-112
-128
-172
-148
-94
-95
-109
-82
-53
-66
-82
-62
-63
-112
-134
-131
-181
-241
-230
-175
-157
-218
-254
-252
-426
-216
1331
2927
2159
-80
-942
-398
-114
-223
-214
-187
-195
-160
-115
-64
-65
-138
-167
-166
-217
-241
-223
-231
-202
-123
-97
-105
-58
26
97
137
140
140
168
182
132
39
-52
-103
-94
-86
-116
-96
-33
-60
-130
-83
23
19
-73
-86
-1
17
-64
-118
-162
-270
-351
-339
-297
-248
-186
-143
-143
-164
-176
-219
-101
753
1980
1840
17
-1297
-942
-263
-186
-241
-216
-242
-172
-55
-118
-205
-144
-124
-186
-156
-113
-139
-69
86
147
184
294
361
371
448
539
532
494
499
487
415
291
134
-16
-117
-158
-149
-151
-212
-250
-200
-142
-127
-126
-131
-114
-65
-24
38
103
25
-120
-79
65
74
3
1
55
62
-12
-25
17
-111
143
1577
2876
1927
-265
-1052
-472
-179
-329
-329
-265
-271
-224
-151
-118
-97
-105
-125
-91
-33
-19
-45
-60
-31
28
77
92
74
55
59
75
85
95
114
96
-15
-131
-137
-131
-215
-282
-282
-286
-263
-198
-188
-235
-252
-239
-232
-218
-165
-96
-78
-116
-171
-273
-385
-379
-320
-338
-344
-311
-317
-306
-381
-456
399
2177
2696
971
-771
-838
-292
-212
-253
-100
7
-31
-56
-18
-36
-89
-12
128
151
113
142
207
193
41
-127
-108
37
60
-37
-64
-9
32
58
78
59
12
-40
-117
-198
-240
-242
-215
-197
-232
-267
-254
-269
-298
-257
-240
-267
-180
-78
-159
-253
-197
-125
-101
-46
25
36
-2
2
-29
-77
564
2073
2708
1307
-334
-421
194
313
184
172
109
-52
-161
-167
-125
-101
-94
-82
-72
-39
13
35
46
82
106
139
208
220
165
178
252
283
324
407
404
287
180
109
45
25
20
-27
-50
-56
-161
-265
-226
-207
-309
-338
-251
-226
-271
-260
-205
-183
-194
-201
-185
-182
-254
-321
-286
-253
36
1117
2130
1374
-558
-1352
-731
-212
-248
-311
-266
-242
-249
-261
-242
-204
-188
-193
-239
-310
-250
-53
68
47
-4
-48
-29
112
210
112
-9
-5
-3
-53
-50
-27
-85
-178
-208
-189
-177
-154
-113
-108
-108
-72
-97
-153
-89
-15
-55
-11
135
118
11
75
155
52
-17
80
143
139
104
-4
407
1731
2411
1052
-707
-909
-356
-256
-275
-142
-132
-152
-89
-96
-139
-116
-98
-82
-27
-5
-16
27
61
-3
-56
25
147
172
137
134
153
145
136
172
199
130
2
-76
-83
-102
-163
-182
-130
-108
-146
-156
-142
-146
-104
-2
54
31
-46
-164
-239
-238
-252
-268
-269
-332
-319
-246
-381
-28
1559
2714
1533
-467
-932
-345
-94
-143
-105
-45
0
51
68
59
65
103
160
201
217
237
253
212
123
60
10
-76
-128
-104
-85
-80
-44
-37
-95
-150
-190
-230
-220
-172
-186
-270
-301
-210
-112
-144
-235
-219
-111
-69
-114
-118
-86
-168
-312
-292
-166
-183
-273
-260
-251
-307
-384
-404
251
1756
2406
994
-680
-786
-186
-26
-28
56
16
-87
-139
-199
-250
-236
-189
-150
-114
-58
-4
-3
-16
23
86
133
192
238
190
117
207
415
490
384
298
342
382
278
150
158
189
156
182
212
79
-83
-100
-102
-172
-228
-279
-346
-349
-286
-257
-295
-341
-332
-253
-193
-268
-117
902
2089
1649
-221
-1260
-811
-259
-236
-287
-250
-236
-240
-235
-206
-164
-128
-102
-107
-127
-97
-64
-102
-109
-7
83
94
116
150
135
151
246
284
241
245
220
21
-213
-286
-241
-208
-217
-220
-203
-206
-199
-126
-56
-46
-23
6
-36
-79
-43
-35
-99
-58
72
31
-66
35
13
7
1062
2547
2135
102
-846
-328
2
-113
-163
-286
-398
-281
-214
-278
-218
-102
-94
-111
-93
-77
-52
-14
31
81
104
118
152
137
86
113
143
81
70
148
116
-52
-172
-168
-129
-149
-227
-267
-220
-184
-207
-183
-100
-90
-139
-150
-156
-171
-145
-108
-79
-82
-200
-331
-392
-465
-11
1422
2335
1180
-571
-836
-250
-138
-247
-151
-116
-175
-114
-7
-2
-49
-76
-74
-38
11
81
203
286
247
204
217
203
213
324
402
357
274
188
86
4
-59
-143
-217
-220
-174
-140
-137
-153
-187
-207
-180
-139
-117
-98
-90
-112
-146
-161
-156
-171
-203
-160
-108
-189
-294
-406
-460
365
2100
2614
890
-811
-812
-295
-293
-353
-248
-202
-176
-124
-140
-163
-101
-32
-29
-42
-62
-135
-192
-161
-112
-88
-60
-42
-19
49
120
138
133
157
203
192
91
0
-12
-25
-81
-101
-44
25
64
109
165
188
159
88
33
65
99
44
-5
-68
-244
-348
-375
-486
33
1545
2191
611
-1225
-1288
-506
-238
-250
-147
-89
-120
-131
-109
-74
-58
-79
-87
-54
-35
-41
-18
20
32
53
103
138
148
148
124
87
79
97
105
99
99
79
10
-68
-120
-143
-106
-46
-82
-192
-225
-166
-124
-144
-179
-197
-216
-241
-228
-168
-122
-140
-157
-102
-178
-335
352
1965
2427
721
-898
-731
-49
22
7
151
140
72
110
122
117
188
233
198
171
111
-42
-137
-81
-14
-38
-69
-40
5
15
5
-13
-40
-38
14
40
-2
-45
-59
-62
-50
-39
-69
-114
-112
-64
-39
-76
-136
-187
-230
-253
-259
-268
-244
-210
-243
-291
-379
-457
195
1715
2275
745
-919
-916
-248
-118
-186
-137
-169
-242
-255
-275
-284
-238
-198
-178
-137
-107
-93
-29
40
23
4
69
117
103
90
86
117
213
272
286
354
357
196
108
209
279
230
173
141
154
223
212
88
14
-12
-145
-331
-419
-401
-342
-293
-276
-310
-372
-77
898
1618
818
-730
-1191
-572
-143
-164
-172
-122
-133
-133
-124
-151
-145
-96
-71
-25
55
56
-21
-36
26
64
53
48
78
110
123
146
197
242
265
280
280
248
210
167
68
-80
-199
-245
-201
-127
-142
-164
-78
-90
-287
-344
-199
-190
-284
-140
137
188
67
14
