# session 19
-18
-19
-25
48
154
170
136
144
168
175
188
211
237
274
324
385
450
499
529
546
534
471
373
277
188
99
24
-22
-50
-68
-77
-83
-92
-97
-96
-93
-86
-76
-68
-67
-71
-73
-77
-88
-100
-99
-87
-73
-55
-40
-41
-59
-81
-94
-89
-90
-98
-84
-80
-104
-134
-248
-214
653
1935
1850
218
-856
-528
-93
-161
-206
-135
-149
-152
-107
-101
-97
-70
-59
-50
-20
12
43
90
151
213
267
307
331
331
294
220
130
44
-37
-107
-156
-185
-198
-202
-205
-209
-213
-212
-206
-197
-189
-181
-175
-169
-162
-162
-169
-171
-156
-133
-106
-81
-74
-90
-112
-125
-118
-110
-121
-121
-104
-116
-143
-236
-354
128
1446
2125
980
-527
-684
-173
-103
-210
-148
-125
-151
-121
-100
-99
-74
-53
-43
-18
11
38
78
131
188
248
299
329
342
324
262
174
89
12
-61
-120
-157
-175
-178
-176
-177
-178
-171
-160
-154
-146
-131
-121
-119
-117
-111
-115
-127
-124
-102
-73
-41
-20
-27
-47
-63
-71
-66
-66
-77
-67
-60
-81
-107
-250
-341
391
1753
1926
422
-750
-525
-72
-105
-157
-91
-100
-108
-67
-55
-52
-32
-17
1
28
55
88
133
183
239
296
334
353
358
330
258
170
91
15
-61
-118
-151
-170
-180
-182
-181
-178
-172
-161
-151
-142
-133
-126
-122
-118
-115
-110
-107
-120
-137
-133
-108
-84
-64
-49
-53
-71
-92
-97
-85
-87
-97
-73
-70
-106
-124
-254
-342
405
1734
1793
212
-928
-647
-154
-139
-166
-108
-118
-124
-90
-75
-61
-35
-17
2
33
63
95
140
197
258
310
350
380
393
370
304
213
120
36
-39
-103
-147
-167
-175
-180
-178
-164
-149
-137
-129
-124
-121
-113
-106
-101
-94
-88
-92
-97
-97
-106
-123
-127
-116
-101
-79
-61
-63
-80
-100
-106
-91
-86
-97
-77
-64
-93
-92
-175
-292
322
1661
1927
390
-980
-836
-243
-125
-149
-100
-103
-104
-67
-61
-59
-34
-16
-4
20
53
88
132
185
244
303
352
386
397
377
318
230
136
51
-28
-98
-145
-169
-181
-190
-194
-191
-182
-170
-157
-147
-137
-130
-122
-113
-109
-113
-113
-114
-130
-141
-125
-96
-73
-57
-56
-75
-98
-110
-106
-96
-99
-98
-79
-84
-104
-161
-301
-26
1180
2208
1471
-182
-737
-287
-89
-199
-177
-133
-157
-137
-107
-104
-85
-60
-49
-29
1
31
65
109
163
224
275
306
323
321
279
203
116
35
-38
-100
-146
-172
-185
-190
-194
-196
-194
-189
-180
-170
-158
-143
-131
-123
-116
-109
-104
-97
-93
-96
-97
-102
-119
-131
-116
-89
-68
-49
-39
-51
-70
-79
-73
-62
-69
-75
-54
-54
-77
-102
-235
-165
824
2106
1853
193
-745
-414
-80
-151
-160
-103
-123
-119
-84
-78
-63
-33
-18
-4
21
50
87
131
177
229
283
326
354
361
332
266
180
94
14
-57
-115
-151
-168
-175
-178
-180
-178
-171
-160
-153
-146
-135
-120
-110
-105
-98
-90
-84
-85
-87
-87
-84
-84
-88
-94
-99
-102
-99
-98
-104
-109
-116
-130
-130
-100
-60
-27
-9
-21
-47
-60
-65
-65
-56
-61
-66
-48
-59
-79
-109
-255
-80
1030
2085
1420
-240
-838
-368
-99
-163
-140
-100
-114
-90
-63
-65
-47
-23
-17
-1
32
64
99
142
189
244
304
352
379
388
369
309
218
124
38
-39
-100
-143
-168
-178
-181
-187
-190
-180
-166
-157
-149
-143
-137
-128
-113
-104
-105
-106
-102
-98
-104
-111
-113
-109
-104
-103
-113
-123
-121
-125
-145
-146
-114
-79
-54
-36
-38
-57
-76
-86
-75
-56
-68
-77
-52
-63
-82
-83
-212
-54
1057
2097
1303
-530
-1162
-569
-146
-125
-92
-76
-97
-56
-28
-57
-55
-9
31
63
101
135
160
190
243
325
417
486
521
526
499
432
329
203
80
-6
-59
-103
-135
-147
-162
-185
-194
-187
-182
-170
-154
-158
-170
-161
-134
-123
-122
-106
-87
-95
-108
-91
-86
-135
-180
-172
-140
-117
-99
-81
-67
-69
-93
-117
-108
-88
-87
-77
-67
-108
-130
-142
-265
7
1259
2301
1448
-336
-897
-376
-126
-211
-177
-133
-168
-165
-139
-123
-90
-66
-63
-45
-10
15
32
70
141
225
288
320
343
370
358
265
137
46
-15
-86
-159
-196
-201
-212
-236
-246
-241
-239
-235
-220
-207
-200
-183
-167
-158
-134
-103
-106
-132
-132
-114
-114
-121
-117
-121
-132
-125
-94
-63
-53
-59
-56
-50
-65
-78
-57
-44
-59
-50
-45
-69
-108
-229
-84
997
2261
1879
148
-743
-374
-66
-154
-150
-84
-103
-97
-65
-62
-45
-16
-4
9
34
60
93
137
185
242
304
352
380
391
368
301
208
113
25
-57
-124
-169
-193
-204
-208
-208
-209
-211
-209
-197
-180
-167
-158
-143
-125
-113
-105
-94
-85
-84
-83
-80
-75
-76
-85
-94
-101
-117
-127
-116
-92
-68
-44
-30
-38
-52
-60
-61
-53
-56
-67
-49
-40
-64
-79
-189
-197
642
1998
2032
437
-724
-513
-112
-149
-182
-120
-131
-130
-91
-86
-84
-55
-34
-22
-6
13
43
87
140
199
261
318
359
378
369
318
231
133
41
-42
-111
-158
-186
-199
-202
-199
-203
-207
-200
-186
-175
-164
-150
-141
-137
-132
-124
-118
-113
-108
-106
-107
-104
-97
-96
-101
-107
-110
-107
-100
-101
-108
-110
-116
-133
-133
-103
-68
-39
-21
-29
-52
-65
-65
-54
-46
-63
-64
-44
-63
-77
-113
-252
82
1336
2155
1092
-588
-930
-357
-110
-150
-110
-89
-108
-80
-54
-50
-31
-10
6
31
58
87
128
179
232
295
361
417
453
468
451
383
278
173
83
-3
-80
-134
-165
-181
-189
-189
-186
-184
-179
-166
-154
-148
-145
-137
-127
-117
-108
-102
-98
-96
-100
-107
-116
-131
-143
-140
-124
-103
-79
-68
-75
-87
-95
-90
-73
-75
-87
-68
-66
-92
-100
-208
-195
699
2036
1936
255
-850
-558
-139
-175
-201
-141
-156
-154
-111
-102
-97
-74
-57
-40
-13
13
42
83
137
199
264
321
359
374
360
304
214
114
22
-58
-123
-168
-191
-200
-206
-212
-216
-214
-206
-197
-189
-179
-164
-151
-141
-130
-118
-113
-110
-102
-97
-102
-109
-115
-126
-138
-133
-111
-82
-56
-48
-59
-73
-83
-82
-69
-70
-74
-54
-55
-80
-96
-209
-141
824
2115
1899
228
-763
-443
-86
-153
-171
-112
-126
-118
-80
-77
-71
-48
-34
-17
9
32
60
102
156
215
273
324
359
378
368
315
229
139
54
-31
-103
-146
-169
-184
-192
-194
-192
-185
-173
-165
-159
-149
-134
-123
-117
-112
-107
-102
-98
-93
-87
-87
-95
-103
-110
-125
-135
-121
-95
-71
-49
-42
-55
-72
-81
-76
-68
-75
-73
-52
-66
-87
-112
-236
-18
1132
2195
1514
-176
-801
-345
-95
-184
-166
-122
-145
-128
-96
-93
-74
-48
-37
-20
7
29
59
103
153
209
266
312
344
359
342
282
196
109
27
-48
-112
-157
-182
-192
-196
-201
-201
-193
-180
-166
-153
-144
-137
-128
-122
-120
-117
-115
-113
-108
-103
-107
-115
-120
-130
-142
-141
-121
-93
-64
-47
-51
-65
-77
-83
-77
-74
-78
-60
-53
-80
-85
-165
-246
388
1738
2106
704
-667
-646
-174
-137
-197
-141
-134
-143
-125
-127
-110
-72
-69
-72
-26
34
73
102
136
181
236
286
319
344
358
326
241
149
74
-8
-92
-148
-185
-198
-175
-167
-193
-192
-165
-174
-179
-142
-137
-164
-123
-34
-13
-57
-96
-110
-103
-76
-46
-40
-62
-79
-84
-128
-186
-151
-46
-7
-27
-26
-43
-105
-111
-43
-29
-65
-42
-26
-58
-72
-183
-105
930
2195
1746
-45
-853
-395
-102
-192
-162
-111
-121
-81
-87
-112
-29
10
-78
-73
45
75
44
87
180
260
310
324
348
397
414
365
250
109
20
-15
-43
-78
-152
-232
-214
-151
-154
-190
-221
-236
-163
-51
-57
-145
-127
-37
-100
-241
-176
-33
-101
-180
-83
-70
-202
-222
-128
-107
-153
-147
-64
-38
-142
-197
-118
-115
-180
-118
-65
-140
-181
-247
-78
1044
2272
1610
-447
-1399
-818
-225
-179
-223
-175
-115
-73
-50
-61
-99
-101
-56
-25
17
111
180
196
243
333
413
491
579
614
566
498
409
265
130
44
-66
-187
-218
-197
-229
-273
-251
-228
-253
-246
-193
-163
-151
-123
-111
-121
-132
-154
-170
-168
-185
-202
-163
-122
-121
-98
-73
-101
-118
-100
-107
-109
-92
-101
-105
-98
-107
-109
-196
-124
842
2108
1674
-355
-1450
-864
-200
-146
-148
-81
-98
-95
-44
-26
-25
-11
9
28
56
111
179
237
303
397
484
545
605
641
599
494
379
254
121
11
-76
-148
-184
-190
-201
-212
-213
-218
-211
-179
-166
-181
-172
-144
-142
-146
-142
-152
-154
-130
-114
-111
-101
-100
-116
-131
-135
-128
-130
-141
-122
-107
-137
-141
-196
-256
372
1648
1801
124
-1320
-1098
-361
-162
-156
-88
-92
-107
-78
-60
-48
-33
-24
1
33
57
98
159
225
310
410
491
541
558
523
444
345
221
84
-24
-101
-171
-223
-237
-235
-241
-248
-248
-245
-241
-235
-219
-201
-197
-194
-181
-176
-178
-158
-120
-97
-100
-115
-118
-107
-123
-152
-136
-104
-112
-128
-117
-105
-184
-256
293
1562
1994
541
-1109
-1172
-431
-140
-138
-78
-62
-63
-25
-22
-33
-17
12
47
72
92
149
225
287
356
434
519
606
629
566
483
393
262
118
8
-65
-122
-174
-181
-142
-140
-185
-180
-133
-134
-162
-153
-125
-120
-119
-104
-89
-89
-87
-70
-58
-63
-73
-94
-131
-155
-154
-159
-162
-152
-165
-187
-247
-372
-50
1149
2011
1018
-763
-1206
-530
-165
-205
-167
-122
-144
-126
-104
-110
-100
-81
-70
-52
-28
2
48
105
168
244
315
360
381
382
342
256
160
75
-6
-82
-136
-165
-178
-182
-185
-185
-174
-163
-159
-150
-135
-132
-134
-128
-123
-128
-130
-121
-110
-97
-74
-51
-46
-57
-73
-81
-75
-63
-62
-58
-46
-53
-76
-144
-202
264
1467
2124
1064
-459
-696
-165
-52
-183
-141
-105
-134
-112
-90
-95
-81
-62
-52
-33
-11
11
47
94
149
211
267
306
332
337
304
234
151
74
4
-61
-113
-144
-161
-169
-168
-159
-153
-150
-146
-138
-129
-119
-113
-111
-111
-108
-104
-105
-108
-109
-114
-127
-132
-123
-108
-85
-61
-55
-69
-83
-94
-99
-90
-94
-104
-86
-85
-118
-138
-217
-44
1052
2272
1674
-303
-1147
-515
-84
-202
-203
-126
-156
-143
-98
-101
-92
-65
-54
-35
-4
22
56
111
174
246
325
392
433
451
436
374
275
170
71
-22
-104
-162
-197
-217
-225
-224
-219
-210
-198
-183
-169
-162
-158
-151
-145
-142
-137
-133
-133
-132
-130
-141
-155
-150
-129
-105
-77
-59
-71
-98
-116
-121
-113
-108
-121
-109
-86
-114
-140
-213
-285
424
2056
2613
881
-949
-919
-216
-150
-252
-165
-154
-177
-125
-102
-101
-69
-43
-30
-2
33
71
121
180
253
334
406
457
484
480
434
345
232
121
22
-67
-143
-196
-222
-228
-229
-227
-218
-205
-194
-184
-172
-164
-160
-156
-151
-143
-137
-139
-143
-151
-170
-190
-184
-159
-134
-108
-93
-109
-145
-175
-188
-170
-144
-140
-121
-92
-111
-135
-203
-283
379
2004
2664
1016
-872
-922
-206
-117
-235
-150
-129
-155
-108
-83
-85
-56
-32
-20
8
40
71
114
171
238
312
378
427
457
460
425
346
242
139
44
-46
-120
-165
-187
-200
-208
-206
-200
-199
-202
-204
-205
-202
-189
-172
-159
-153
-150
-147
-154
-174
-183
-169
-141
-109
-77
-68
-87
-107
-116
-114
-100
-100
-108
-85
-78
-117
-157
-279
-141
1058
2532
2062
-87
-1161
-578
-109
-232
-246
-163
-194
-185
-135
-134
-122
-85
-65
-46
-13
19
58
110
172
243
315
373
408
420
404
346
248
137
35
-61
-145
-205
-241
-260
-269
-274
-271
-259
-246
-236
-227
-217
-203
-192
-188
-188
-187
-197
-210
-202
-175
-146
-115
-93
-105
-133
-150
-155
-147
-137
-145
-137
-113
-134
-170
-263
-388
214
1820
2554
996
-882
-959
-239
-132
-251
-170
-146
-172
-127
-101
-101
-71
-44
-31
-1
39
78
126
183
251
324
388
434
462
469
437
358
254
156
66
-19
-88
-131
-149
-155
-159
-157
-145
-127
-110
-99
-88
-74
-63
-58
-51
-50
-64
-71
-53
-24
7
40
52
33
11
-3
-12
-1
5
-11
1
13
-27
-66
-198
-228
726
2336
2328
272
-1147
-704
-60
-90
-133
-42
-61
-67
-14
-9
-9
19
33
49
91
128
156
198
263
342
415
468
510
538
529
463
358
245
137
33
-58
-129
-177
-206
-225
-234
-233
-230
-229
-226
-221
-211
-197
-191
-199
-209
-216
-229
-242
-240
-227
-209
-195
-203
-227
-253
-279
-292
-285
-296
-316
-299
-304
-344
-369
-499
-390
749
2056
1394
-755
-1660
-940
-383
-423
-413
-351
-383
-368
-327
-329
-317
-285
-270
-249
-213
-176
-130
-71
-2
76
153
215
257
277
263
198
93
-19
-121
-217
-301
-358
-389
-403
-405
-399
-390
-376
-358
-342
-326
-305
-291
-283
-274
-267
-269
-258
-226
-190
-154
-119
-107
-119
-129
-130
-120
-94
-82
-76
-40
-29
-61
-114
-240
22
1367
2676
1886
-193
-898
-193
160
13
49
134
105
134
190
199
229
273
296
327
373
415
465
529
597
667
739
797
834
855
847
793
705
611
521
435
365
317
290
276
270
268
273
281
288
295
298
296
295
293
285
275
263
240
213
206
216
228
240
241
210
162
122
92
76
59
23
5
3
-47
-115
-243
-382
245
1856
2511
867
-1014
-1085
-433
-408
-567
-517
-534
-593
-575
-583
-618
-620
-620
-632
-632
-628
-623
-602
-568
-530
-489
-451
-426
-417
-424
-460
-538
-643
-746
-837
