# session 41
-9
-22
-9
147
272
155
-7
-31
-28
-56
-60
-47
-51
-65
-54
-38
-68
-96
-175
-234
535
2227
2789
1071
-680
-614
3
-35
-172
-93
-101
-140
-101
-91
-100
-76
-63
-62
-46
-30
-20
-5
12
27
46
68
87
107
129
146
159
172
184
196
209
210
174
106
29
-41
-102
-149
-177
-189
-194
-198
-195
-185
-179
-181
-182
-174
-165
-161
-162
-159
-154
-152
-156
-160
-158
-150
-139
-129
-123
-118
-116
-111
-103
-101
-108
-103
-71
-20
16
3
-48
-81
-79
-82
-87
-75
-81
-92
-64
-67
-107
-140
-261
-29
1334
2753
2025
-149
-994
-333
33
-135
-141
-86
-139
-132
-92
-98
-90
-69
-66
-57
-38
-27
-12
11
30
45
65
86
108
134
160
173
181
196
217
238
241
207
144
72
-7
-86
-144
-175
-193
-203
-204
-197
-186
-180
-172
-155
-143
-144
-142
-133
-129
-126
-118
-113
-116
-120
-117
-110
-108
-114
-111
-100
-99
-110
-111
-83
-35
2
-4
-49
-82
-86
-89
-92
-82
-87
-98
-70
-71
-109
-113
-193
-33
1168
2603
2061
-130
-1189
-559
-26
-107
-130
-68
-106
-106
-67
-67
-62
-41
-34
-24
-7
4
19
41
60
76
95
119
145
168
189
209
230
245
260
279
285
251
180
96
11
-72
-139
-182
-206
-218
-222
-220
-212
-200
-189
-183
-174
-165
-159
-155
-148
-143
-140
-139
-137
-136
-136
-135
-134
-133
-130
-122
-113
-113
-120
-115
-86
-39
-3
-8
-53
-91
-93
-91
-95
-86
-87
-102
-81
-73
-115
-151
-242
-64
1167
2682
2265
162
-891
-344
40
-148
-179
-104
-151
-154
-111
-119
-114
-87
-83
-76
-55
-42
-32
-14
4
22
41
61
81
103
124
144
156
164
175
193
204
184
130
61
-8
-71
-124
-158
-174
-182
-183
-177
-169
-163
-158
-151
-146
-143
-140
-137
-135
-133
-131
-130
-128
-125
-123
-120
-118
-116
-111
-103
-101
-106
-109
-91
-49
-1
17
-14
-63
-83
-81
-87
-87
-76
-86
-85
-58
-75
-108
-172
-270
306
1946
2866
1453
-505
-735
-78
-7
-175
-117
-103
-150
-118
-96
-107
-86
-68
-66
-51
-34
-23
-6
11
23
42
65
84
105
127
146
162
174
182
196
216
216
175
106
33
-36
-97
-140
-167
-183
-191
-191
-187
-180
-173
-168
-162
-153
-148
-147
-142
-136
-135
-135
-134
-132
-131
-129
-127
-124
-122
-121
-117
-114
-111
-106
-104
-110
-111
-87
-40
5
15
-23
-70
-85
-85
-93
-88
-83
-93
-77
-63
-100
-121
-205
-250
604
2285
2628
780
-828
-621
-15
-60
-168
-94
-106
-130
-94
-91
-94
-68
-55
-49
-32
-19
-7
11
28
45
67
85
101
122
144
161
175
187
198
214
232
228
187
120
47
-26
-91
-137
-164
-178
-182
-177
-170
-166
-161
-156
-152
-149
-145
-142
-140
-140
-138
-136
-135
-134
-133
-130
-127
-126
-125
-122
-118
-113
-104
-98
-104
-111
-96
-56
-7
18
-4
-54
-80
-80
-85
-84
-74
-85
-86
-62
-81
-112
-166
-271
244
1818
2769
1427
-549
-829
-135
0
-163
-117
-94
-138
-109
-87
-99
-80
-60
-59
-46
-26
-13
1
18
35
53
73
93
114
132
150
166
178
186
200
219
221
188
127
55
-17
-83
-133
-163
-180
-189
-190
-187
-181
-173
-165
-158
-151
-145
-141
-136
-131
-129
-128
-126
-125
-124
-122
-119
-117
-114
-112
-110
-108
-107
-105
-97
-91
-97
-105
-91
-50
-1
25
0
-52
-78
-74
-78
-79
-69
-79
-79
-54
-73
-106
-169
-283
250
1862
2818
1462
-491
-747
-89
0
-167
-114
-98
-143
-113
-95
-106
-85
-66
-66
-52
-34
-23
-8
9
24
43
66
84
102
123
143
159
168
176
191
211
214
183
123
50
-22
-83
-129
-161
-179
-185
-183
-179
-176
-171
-163
-154
-148
-145
-141
-136
-134
-133
-129
-124
-124
-125
-121
-116
-116
-115
-113
-110
-109
-108
-104
-95
-88
-91
-97
-89
-55
-6
23
1
-50
-77
-76
-83
-86
-75
-84
-86
-61
-79
-110
-157
-278
162
1703
2762
1538
-481
-862
-171
9
-149
-112
-84
-126
-100
-78
-89
-72
-54
-51
-36
-17
-7
8
29
46
64
84
101
120
141
160
174
187
199
212
228
232
201
136
59
-14
-81
-135
-168
-185
-194
-198
-194
-185
-179
-173
-165
-157
-151
-148
-145
-141
-137
-135
-132
-130
-127
-124
-122
-120
-118
-116
-114
-112
-109
-103
-95
-98
-106
-101
-68
-17
21
11
-40
-76
-77
-77
-83
-76
-80
-89
-64
-67
-106
-144
-258
-4
1362
2757
2037
-76
-887
-267
39
-147
-150
-93
-141
-129
-92
-103
-96
-73
-69
-59
-38
-26
-14
5
22
40
60
77
97
120
140
153
165
175
187
202
212
191
135
64
-5
-70
-123
-156
-175
-184
-186
-184
-180
-175
-167
-158
-150
-143
-137
-133
-131
-128
-126
-125
-122
-119
-118
-117
-114
-112
-110
-108
-105
-102
-100
-95
-88
-92
-101
-94
-61
-10
25
12
-39
-73
-74
-78
-82
-73
-79
-86
-61
-69
-105
-147
-270
51
1501
2793
1877
-216
-857
-206
35
-151
-135
-90
-138
-121
-90
-103
-90
-67
-64
-54
-36
-25
-11
7
23
40
61
83
104
126
146
161
172
182
196
213
221
196
139
66
-6
-71
-121
-154
-173
-183
-186
-183
-176
-170
-163
-155
-147
-144
-142
-138
-136
-132
-128
-126
-125
-124
-122
-122
-119
-115
-113
-111
-109
-106
-105
-105
-99
-89
-88
-99
-101
-73
-25
16
18
-23
-64
-74
-78
-83
-69
-67
-83
-65
-61
-98
-122
-237
-138
1040
2614
2311
233
-896
-388
40
-114
-153
-82
-125
-129
-86
-92
-92
-68
-61
-53
-33
-22
-13
6
28
45
61
78
98
124
145
156
163
171
182
202
219
206
155
84
13
-54
-112
-151
-174
-188
-192
-187
-178
-171
-163
-156
-152
-148
-146
-145
-143
-140
-138
-138
-135
-130
-129
-129
-126
-122
-120
-120
-116
-106
-100
-106
-112
-97
-58
-10
15
-5
-54
-81
-82
-86
-85
-77
-88
-85
-61
-80
-103
-154
-238
337
1913
2721
1255
-661
-828
-121
-6
-157
-107
-91
-130
-100
-83
-94
-74
-56
-53
-38
-21
-10
7
26
41
57
78
97
117
139
159
175
187
196
210
226
224
185
117
42
-33
-99
-147
-177
-194
-201
-201
-197
-190
-181
-174
-166
-158
-150
-145
-142
-138
-134
-131
-128
-126
-125
-123
-121
-119
-117
-114
-112
-106
-98
-101
-110
-101
-64
-14
19
3
-49
-82
-84
-87
-89
-79
-87
-92
-67
-79
-115
-159
-273
121
1628
2813
1741
-326
-843
-176
20
-163
-134
-96
-145
-124
-97
-110
-94
-71
-69
-56
-37
-26
-12
5
21
39
60
79
99
120
140
156
168
178
191
210
215
184
123
50
-21
-84
-130
-160
-177
-184
-181
-175
-168
-162
-157
-150
-142
-137
-135
-133
-129
-126
-125
-125
-127
-123
-116
-113
-115
-115
-110
-107
-104
-108
-116
-111
-78
-29
9
3
-43
-84
-93
-100
-107
-95
-94
-103
-77
-75
-120
-145
-256
-132
1073
2615
2237
142
-942
-407
24
-122
-157
-86
-126
-133
-95
-97
-91
-67
-58
-48
-30
-19
-7
13
32
49
70
92
110
128
145
160
174
188
201
214
225
210
153
78
8
-58
-118
-155
-173
-185
-188
-180
-172
-169
-167
-162
-153
-145
-140
-139
-137
-133
-129
-132
-135
-127
-119
-120
-121
-115
-112
-110
-105
-108
-118
-106
-59
-7
10
-26
-77
-97
-97
-106
-103
-97
-107
-90
-73
-109
-112
-159
-202
576
2162
2464
601
-1048
-844
-139
-64
-126
-60
-77
-100
-58
-47
-55
-40
-28
-19
-1
17
36
56
68
79
97
121
143
165
190
208
211
217
235
254
266
256
208
129
43
-31
-91
-143
-181
-193
-192
-196
-195
-183
-173
-173
-172
-160
-153
-152
-146
-138
-137
-142
-140
-132
-130
-135
-135
-127
-124
-131
-125
-94
-51
-19
-19
-59
-108
-119
-109
-111
-110
-112
-116
-92
-96
-131
-102
-156
-119
882
2357
2050
-113
-1344
-732
-68
-91
-117
-39
-69
-80
-35
-30
-32
-12
3
11
21
39
62
79
90
106
125
151
183
209
227
243
252
255
268
292
301
268
194
105
22
-48
-105
-152
-185
-202
-203
-191
-181
-183
-190
-185
-174
-166
-158
-153
-152
-151
-149
-153
-155
-152
-147
-133
-124
-142
-158
-129
-77
-40
-25
-54
-115
-133
-118
-135
-149
-133
-133
-126
-111
-145
-152
-195
-254
481
2075
2407
480
-1234
-961
-167
-89
-166
-90
-101
-113
-68
-77
-86
-40
-16
-30
-27
1
30
49
68
87
105
136
172
191
219
267
295
303
323
342
337
320
268
168
65
-7
-64
-113
-145
-162
-162
-149
-144
-147
-138
-130
-140
-139
-119
-116
-133
-133
-121
-124
-131
-129
-125
-121
-120
-131
-131
-93
-42
-24
-51
-97
-128
-137
-141
-139
-130
-137
-133
-112
-130
-141
-164
-213
357
1862
2565
994
-980
-1088
-247
-46
-180
-123
-99
-138
-103
-78
-88
-71
-51
-47
-33
-18
-10
5
24
39
56
76
101
127
155
182
203
220
235
253
259
230
164
82
1
-70
-125
-159
-177
-185
-186
-184
-182
-178
-171
-164
-158
-153
-149
-144
-138
-134
-130
-127
-126
-125
-119
-108
-104
-116
-128
-113
-64
-15
-8
-40
-71
-81
-86
-89
-79
-74
-88
-82
-71
-90
-111
-161
-22
895
2132
1971
341
-643
-282
60
-98
-145
-66
-99
-112
-74
-78
-79
-58
-54
-50
-33
-25
-20
-6
7
20
36
54
72
93
116
137
153
166
181
200
204
174
116
51
-11
-68
-111
-136
-149
-155
-159
-162
-164
-163
-165
-166
-164
-161
-158
-153
-146
-141
-135
-127
-121
-117
-114
-113
-112
-109
-106
-103
-101
-99
-98
-96
-88
-82
-87
-93
-80
-43
4
32
16
-32
-65
-68
-73
-76
-65
-71
-79
-55
-60
-101
-151
-240
156
1635
2857
1867
-186
-743
-115
34
-180
-141
-97
-154
-131
-100
-117
-105
-84
-85
-74
-56
-47
-34
-17
-5
10
29
48
68
89
109
127
144
158
170
188
195
167
105
35
-31
-91
-136
-159
-167
-168
-164
-159
-154
-150
-146
-140
-136
-133
-132
-131
-129
-128
-123
-118
-115
-113
-109
-104
-102
-99
-96
-95
-93
-92
-90
-88
-86
-87
-90
-84
-56
-7
32
28
-18
-60
-74
-82
-87
-76
-81
-94
-70
-69
-105
-121
-231
-82
1147
2593
2041
-62
-964
-323
59
-123
-139
-69
-118
-115
-77
-89
-86
-62
-58
-49
-29
-18
-7
11
26
40
57
74
89
107
124
137
144
148
157
178
194
179
128
61
-7
-69
-118
-151
-168
-173
-171
-165
-160
-153
-145
-139
-135
-131
-126
-121
-117
-114
-110
-106
-103
-101
-99
-98
-96
-92
-91
-91
-88
-85
-88
-92
-89
-70
-28
20
37
1
-50
-73
-79
-87
-82
-81
-95
-78
-66
-101
-111
-186
-208
671
2263
2407
497
-945
-586
13
-69
-162
-82
-106
-130
-88
-87
-93
-70
-61
-57
-38
-24
-13
4
19
32
48
66
84
101
117
130
138
142
150
168
190
186
141
74
6
-57
-111
-149
-170
-180
-180
-174
-165
-156
-150
-145
-138
-132
-126
-122
-120
-117
-113
-110
-107
-104
-102
-102
-102
-99
-97
-102
-107
-95
-58
-4
28
3
-53
-83
-87
-93
-90
-83
-97
-96
-74
-98
-116
-151
-252
253
1770
2604
1207
-678
-842
-122
0
-158
-107
-88
-130
-101
-82
-94
-75
-58
-56
-42
-26
-17
-3
15
29
44
63
82
98
114
128
137
144
151
164
181
181
146
83
13
-51
-106
-150
-176
-188
-191
-186
-175
-166
-160
-153
-145
-138
-132
-128
-125
-121
-116
-113
-111
-108
-105
-104
-97
-92
-96
-102
-87
-47
2
26
-2
-55
-82
-84
-88
-84
-78
-92
-84
-66
-95
-110
-166
-244
423
1994
2538
894
-815
-739
-58
-25
-154
-88
-90
-124
-87
-75
-84
-63
-48
-46
-30
-14
-4
11
28
43
60
77
94
110
125
137
145
150
157
173
192
188
146
79
10
-54
-111
-151
-173
-183
-184
-178
-169
-163
-156
-149
-142
-138
-133
-130
-127
-124
-122
-121
-119
-117
-115
-107
-101
-107
-113
-99
-63
-16
13
-8
-62
-94
-98
-102
-99
-90
-103
-97
-76
-102
-118
-161
-256
307
1841
2557
1066
-743
-815
-114
-22
-162
-105
-94
-133
-102
-88
-99
-79
-63
-61
-47
-31
-22
-6
12
26
41
59
75
90
103
114
123
128
132
147
167
167
130
69
2
-62
-118
-158
-181
-191
-189
-182
-174
-166
-157
-151
-146
-142
-138
-135
-132
-130
-127
-123
-123
-123
-117
-110
-111
-117
-109
-77
-26
12
0
-54
-92
-96
-97
-95
-84
-92
-95
-71
-85
-111
-137
-246
113
1519
2583
1488
-489
-918
-209
21
-139
-110
-71
-115
-95
-67
-78
-64
-41
-36
-25
-7
5
23
41
52
67
88
106
119
129
139
149
154
156
171
197
202
169
111
46
-13
-63
-106
-140
-155
-150
-138
-129
-122
-119
-117
-112
-107
-105
-98
-88
-88
-95
-96
-87
-80
-78
-83
-86
-71
-35
10
38
19
-34
-69
-75
-80
-78
-71
-85
-81
-60
-85
-98
-131
-232
278
1755
2477
1006
-848
-962
-209
-23
-130
-86
-78
-110
-81
-70
-82
-65
-49
-48
-36
-20
-7
10
26
42
60
74
87
103
117
123
125
126
132
149
168
163
120
51
-22
-91
-152
-196
-222
-233
-233
-228
-223
-217
-210
-203
-197
-193
-189
-185
-184
-184
-183
-182
-178
-174
-178
-186
-177
-143
-94
-61
-76
-128
-162
-165
-168
-166
-154
-162
-161
-135
-151
-172
-208
-306
172
1684
2615
1317
-599
-847
-156
-36
-203
-149
-124
-168
-138
-116
-127
-106
-84
-80
-65
-46
-32
-15
5
23
41
58
74
89
103
112
