# session 22
96
86
123
63
694
2263
2671
816
-935
-825
-206
-217
-312
-225
-229
-250
-201
-185
-182
-148
-125
-111
-83
-54
-26
11
52
100
160
229
301
364
410
438
438
388
291
180
71
-38
-135
-201
-240
-262
-271
-271
-273
-280
-286
-284
-277
-266
-251
-234
-216
-202
-190
-177
-167
-159
-151
-148
-143
-136
-133
-134
-129
-128
-133
-135
-140
-155
-154
-124
-87
-52
-21
-28
-70
-93
-90
-93
-91
-80
-89
-83
-59
-82
-122
-210
-297
375
2060
2847
1284
-675
-866
-212
-119
-249
-187
-170
-196
-150
-124
-128
-103
-83
-72
-45
-17
2
31
67
105
160
230
301
366
417
450
463
437
362
260
159
57
-43
-122
-170
-201
-221
-225
-220
-217
-215
-211
-208
-200
-187
-176
-168
-161
-154
-145
-132
-122
-120
-116
-111
-113
-119
-125
-136
-139
-123
-101
-82
-57
-41
-58
-84
-91
-91
-89
-87
-99
-94
-71
-89
-114
-166
-275
219
1790
2790
1441
-717
-1181
-442
-135
-220
-176
-140
-166
-138
-112
-112
-89
-67
-56
-29
4
30
63
109
160
219
288
366
440
493
528
539
504
415
300
182
67
-42
-127
-180
-209
-223
-228
-234
-242
-247
-245
-240
-233
-221
-207
-196
-186
-176
-166
-159
-152
-145
-144
-145
-143
-143
-147
-151
-158
-173
-179
-163
-135
-100
-65
-55
-79
-102
-102
-97
-90
-84
-94
-91
-67
-84
-118
-193
-287
299
1925
2836
1422
-600
-919
-251
-105
-246
-189
-156
-189
-158
-132
-135
-111
-87
-79
-58
-34
-15
12
47
88
140
204
273
339
393
429
444
420
345
244
140
36
-63
-141
-189
-212
-222
-227
-228
-224
-221
-218
-213
-205
-194
-182
-171
-161
-154
-149
-142
-130
-120
-116
-114
-111
-112
-119
-123
-130
-145
-148
-127
-103
-81
-48
-27
-47
-75
-79
-79
-79
-68
-76
-84
-62
-70
-112
-186
-307
152
1748
2937
1769
-417
-1008
-345
-98
-235
-193
-149
-187
-158
-123
-125
-107
-85
-75
-52
-23
0
33
75
122
175
234
303
372
420
450
472
456
380
277
176
68
-35
-111
-165
-206
-225
-227
-226
-227
-225
-218
-210
-205
-198
-185
-176
-172
-164
-153
-144
-138
-133
-131
-131
-133
-132
-126
-122
-121
-119
-120
-123
-122
-129
-149
-146
-107
-65
-38
-28
-42
-68
-82
-93
-99
-81
-71
-79
-65
-71
-104
-111
-221
-101
1117
2633
2127
-147
-1333
-753
-179
-199
-196
-130
-156
-141
-98
-103
-95
-68
-58
-42
-11
15
44
83
127
179
245
321
397
464
515
544
545
498
402
286
171
57
-46
-118
-161
-188
-202
-208
-208
-204
-200
-194
-185
-179
-178
-172
-161
-157
-155
-152
-148
-143
-140
-142
-148
-157
-174
-190
-185
-165
-144
-119
-97
-100
-122
-133
-131
-127
-115
-114
-123
-104
-98
-126
-158
-260
-81
1130
2569
2101
8
-1052
-513
-73
-203
-226
-146
-179
-179
-136
-138
-137
-111
-97
-84
-57
-33
-9
23
62
108
168
240
308
363
411
435
412
349
267
173
71
-30
-116
-176
-203
-215
-225
-219
-204
-211
-236
-242
-228
-220
-213
-197
-177
-167
-160
-148
-135
-124
-115
-107
-99
-90
-87
-91
-102
-112
-110
-94
-76
-53
-31
-28
-47
-61
-65
-67
-57
-50
-65
-54
-33
-63
-99
-196
-219
660
2364
2771
965
-738
-680
-123
-138
-230
-157
-161
-179
-138
-127
-128
-102
-85
-74
-50
-25
0
32
66
103
155
221
289
348
393
426
439
413
337
233
126
23
-70
-147
-197
-223
-233
-236
-240
-245
-246
-245
-241
-230
-217
-208
-198
-182
-168
-162
-156
-147
-137
-129
-125
-120
-114
-112
-111
-105
-101
-104
-106
-111
-125
-124
-93
-55
-27
-6
-13
-54
-89
-95
-97
-98
-89
-98
-107
-84
-91
-128
-170
-275
64
1496
2735
1745
-454
-1171
-468
-94
-204
-180
-123
-157
-138
-103
-106
-91
-65
-54
-34
-6
15
40
72
110
158
215
277
341
397
435
456
452
406
319
217
117
17
-74
-144
-188
-212
-224
-226
-225
-224
-219
-210
-200
-190
-180
-168
-156
-145
-138
-131
-123
-120
-123
-123
-129
-146
-151
-130
-103
-79
-55
-53
-83
-106
-107
-107
-101
-93
-103
-101
-80
-99
-131
-198
-254
409
2005
2680
1058
-895
-1025
-280
-124
-238
-174
-153
-179
-135
-109
-114
-89
-64
-54
-33
-8
14
45
83
126
179
243
309
372
422
454
463
431
353
251
148
44
-56
-134
-183
-213
-226
-227
-225
-228
-233
-232
-222
-213
-206
-196
-181
-167
-160
-153
-146
-142
-143
-146
-152
-170
-184
-172
-144
-117
-87
-69
-89
-123
-129
-122
-121
-111
-111
-116
-91
-88
-124
-167
-280
-35
1307
2733
2056
-162
-1153
-549
-113
-228
-231
-156
-184
-178
-144
-147
-130
-97
-86
-74
-48
-21
6
41
86
137
194
257
325
383
422
446
446
398
310
209
105
-2
-95
-159
-194
-211
-221
-224
-218
-215
-212
-201
-189
-183
-176
-169
-166
-155
-140
-139
-142
-138
-138
-148
-147
-127
-107
-87
-61
-56
-85
-111
-113
-106
-93
-90
-107
-99
-82
-110
-133
-211
-255
548
2206
2604
695
-1163
-1074
-297
-145
-208
-141
-142
-158
-108
-87
-89
-63
-38
-22
1
26
55
99
148
189
239
316
398
454
492
527
538
494
407
298
182
66
-37
-117
-168
-199
-217
-223
-226
-228
-225
-218
-211
-206
-202
-194
-187
-183
-182
-178
-173
-177
-188
-186
-169
-150
-127
-102
-102
-127
-144
-150
-154
-144
-140
-152
-134
-126
-163
-171
-246
-228
725
2287
2239
151
-1318
-894
-206
-197
-245
-158
-170
-181
-135
-126
-123
-97
-82
-66
-42
-21
5
44
84
131
189
256
325
388
434
463
467
426
338
233
129
25
-68
-133
-176
-201
-209
-206
-202
-196
-188
-183
-179
-171
-162
-156
-153
-154
-151
-150
-161
-165
-145
-121
-103
-74
-55
-83
-123
-134
-132
-127
-120
-128
-117
-87
-111
-150
-216
-298
332
1993
2775
1133
-902
-1014
-234
-119
-267
-182
-151
-190
-153
-128
-131
-104
-79
-68
-42
-18
1
37
81
124
176
242
317
386
436
466
474
440
366
272
166
56
-29
-89
-148
-194
-205
-196
-192
-190
-187
-183
-177
-172
-168
-169
-174
-173
-159
-152
-156
-155
-154
-164
-163
-141
-121
-112
-100
-94
-109
-132
-147
-144
-127
-128
-137
-116
-118
-136
-133
-244
-80
1149
2464
1700
-519
-1417
-708
-179
-208
-176
-117
-149
-121
-75
-84
-76
-48
-34
-15
10
30
63
106
143
190
256
329
398
462
512
537
520
453
357
250
133
19
-61
-104
-142
-182
-202
-207
-205
-187
-178
-195
-198
-172
-162
-174
-169
-148
-147
-157
-160
-166
-167
-149
-142
-155
-142
-106
-105
-134
-144
-148
-155
-139
-133
-150
-135
-122
-133
-142
-220
-29
1083
2248
1546
-500
-1367
-698
-146
-153
-141
-83
-103
-90
-62
-68
-55
-27
-20
-12
6
26
52
84
124
179
243
303
357
401
442
476
473
412
317
219
125
27
-60
-115
-146
-165
-170
-167
-173
-177
-162
-151
-152
-146
-131
-129
-126
-112
-105
-109
-106
-106
-120
-122
-112
-113
-109
-87
-81
-101
-126
-142
-151
-144
-140
-154
-153
-131
-145
-170
-208
-276
155
1487
2359
1208
-686
-1083
-383
-106
-218
-182
-138
-166
-140
-112
-121
-104
-76
-66
-52
-31
-15
9
43
81
126
180
236
285
327
365
385
371
323
250
167
85
5
-63
-109
-133
-143
-146
-146
-152
-155
-152
-147
-145
-141
-137
-132
-125
-115
-108
-105
-104
-103
-106
-116
-124
-122
-110
-91
-65
-54
-67
-87
-95
-99
-94
-82
-85
-88
-73
-80
-105
-155
-200
308
1658
2405
1161
-614
-864
-218
-76
-219
-162
-126
-167
-141
-112
-119
-104
-85
-78
-64
-45
-30
-8
19
51
93
142
194
245
291
321
333
319
270
196
113
33
-40
-102
-143
-161
-166
-168
-170
-166
-163
-165
-167
-163
-155
-149
-145
-138
-132
-129
-128
-123
-116
-110
-106
-104
-101
-104
-113
-120
-117
-111
-100
-74
-43
-35
-55
-73
-77
-76
-68
-59
-65
-66
-53
-65
-91
-148
-149
487
1829
2294
871
-689
-695
-103
-75
-197
-120
-107
-143
-105
-89
-99
-77
-59
-58
-44
-26
-12
6
30
58
98
147
197
245
285
313
332
327
282
211
135
59
-20
-84
-123
-144
-154
-155
-151
-146
-141
-138
-137
-137
-135
-131
-131
-135
-135
-132
-129
-125
-121
-117
-115
-113
-111
-107
-103
-103
-103
-99
-96
-99
-105
-111
-120
-119
-102
-72
-35
-8
-23
-60
-72
-68
-70
-63
-61
-73
-57
-40
-69
-81
-149
-150
688
2166
2257
418
-957
-608
-30
-100
-175
-84
-102
-122
-79
-76
-80
-56
-46
-38
-16
-1
11
35
62
94
136
183
235
285
322
346
364
358
308
228
144
59
-28
-100
-148
-173
-184
-186
-183
-175
-167
-165
-163
-156
-149
-147
-148
-150
-153
-152
-150
-149
-149
-147
-143
-141
-141
-142
-141
-140
-143
-145
-148
-161
-169
-153
-118
-78
-45
-43
-72
-93
-93
-100
-106
-90
-85
-83
-57
-63
-93
-131
-226
171
1630
2717
1530
-598
-1066
-301
-50
-215
-162
-106
-154
-127
-90
-97
-86
-70
-62
-35
-8
11
42
80
116
166
226
278
327
377
413
433
433
397
323
235
142
41
-51
-115
-154
-177
-186
-192
-193
-183
-171
-174
-182
-178
-167
-164
-167
-167
-168
-169
-161
-148
-148
-154
-153
-151
-154
-156
-146
-123
-91
-74
-85
-100
-105
-114
-116
-104
-110
-112
-87
-105
-126
-107
-191
37
1257
2331
1320
-809
-1447
-636
-126
-153
-122
-72
-99
-77
-46
-53
-40
-16
-7
11
38
61
87
121
160
208
265
330
395
450
486
507
498
439
342
235
124
15
-75
-135
-170
-190
-200
-206
-204
-196
-192
-186
-173
-158
-150
-145
-138
-131
-128
-131
-136
-137
-135
-140
-152
-160
-155
-146
-138
-117
-86
-78
-98
-115
-118
-113
-101
-100
-112
-100
-90
-111
-110
-153
-117
662
1921
1843
81
-1109
-665
-60
-107
-176
-87
-98
-116
-75
-71
-73
-44
-27
-19
-1
17
37
65
93
121
160
207
253
291
319
337
345
329
275
195
116
39
-39
-103
-139
-152
-154
-153
-149
-142
-135
-130
-127
-123
-118
-115
-112
-111
-111
-111
-111
-110
-111
-118
-128
-135
-139
-140
-131
-104
-74
-62
-71
-85
-92
-90
-79
-74
-80
-68
-58
-79
-75
-104
-126
479
1704
1875
255
-1126
-822
-105
-63
-162
-80
-74
-99
-59
-46
-54
-33
-20
-15
5
24
39
67
100
130
167
211
255
297
332
357
367
353
301
223
142
62
-19
-85
-125
-146
-158
-162
-162
-159
-152
-146
-142
-137
-131
-125
-124
-125
-128
-129
-129
-132
-135
-138
-144
-151
-154
-143
-116
-85
-73
-81
-90
-96
-105
-101
-89
-90
-81
-68
-94
-96
-119
-191
303
1589
2025
483
-1132
-972
-157
-36
-158
-82
-67
-105
-68
-50
-60
-38
-21
-19
-1
22
41
67
99
132
172
220
270
313
344
369
389
382
331
248
160
75
-10
-84
-135
-162
-175
-179
-180
-176
-165
-156
-153
-148
-144
-145
-142
-135
-132
-131
-126
-127
-137
-145
-149
-156
-155
-136
-101
-68
-57
-67
-80
-91
-94
-83
-80
-88
-69
-61
-91
-83
-136
-140
623
1854
1643
-240
-1353
-732
-40
-76
-136
-48
-68
-86
-41
-34
-34
-7
8
20
44
63
80
108
139
172
216
267
315
355
385
405
409
385
322
233
141
51
-37
-106
-148
-172
-186
-189
-186
-179
-169
-161
-154
-145
-137
-135
-133
-128
-124
-124
-125
-131
-142
-152
-153
-143
-115
-79
-63
-79
-102
-113
-119
-114
-102
-111
-110
-88
-106
-123
-150
-257
107
1375
2096
784
-1004
-1094
-249
-26
-168
-113
-72
-111
-81
-52
-61
-46
-24
-17
-1
23
44
68
96
128
167
210
254
296
331
355
373
373
334
257
169
82
-5
-77
-122
-149
-167
-176
-176
-170
-160
-148
-142
-135
-124
-115
-112
-108
-106
-110
-114
-116
-125
-136
-133
-115
-89
-63
-55
-70
-89
-103
-111
-102
-97
-107
-92
-78
-107
-114
-186
-264
410
1804
1983
196
-1252
-872
-108
-69
-163
-81
-83
-111
-73
-63
-68
-45
-32
-25
-2
21
41
69
99
131
169
213
257
297
326
348
363
353
303
224
138
48
-38
-105
-147
-170
-182
-185
-183
-175
-163
-152
-146
-140
-133
-125
-119
-116
-117
-118
-122
-125
-127
-139
-150
-138
-108
-73
-44
-48
-84
-110
-116
-117
-106
-99
-107
-92
-74
-99
-108
-185
-273
402
1853
2130
373
-1153
-857
-117
-80
-179
-95
-95
-123
-80
-66
-73
-48
-28
-16
8
29
48
76
108
140
176
218
263
304
331
350
366
359
312
242
164
75
-12
-78
-123
-154
-169
-169
-167
-164
-155
-143
-136
-130
-121
-119
-124
-126
-131
-145
-153
-142
-119
-88
-57
-54
-81
-105
-114
-114
-105
-105
-114
-95
-87
-116
-138
-279
-347
522
1999
1944
27
-1200
-678
-55
-122
-186
-104
-127
-139
-98
-102
-103
-73
-59
-49
-20
8
29
58
90
122
162
212
261
301
329
347
351
331
278
196
103
12
-67
-121
-151
-173
-190
-193
-185
-181
-182
-173
-156
-141
-131
-132
-137
-132
-119
-116
-125
-133
-128
-113
-92
-70
-60
-68
-88
-107
-113
-108
-112
-112
-84
-90
-125
-104
-183
-203
678
2053
1788
-296
-1577
-1029
-269
-145
-132
-72
-94
-86
-45
-46
-41
-16
-6
6
32
56
81
115
151
194
247
306
365
417
458
490
500
466
388
290
187
81
-14
-84
-128
-155
-172
-183
-187
-186
-179
-172
-163
-151
-141
-137
-133
-128
-134
-148
-151
-142
-130
-110
-94
-98
-113
-123
-132
-132
-120
-119
-118
-96
-104
-124
-160
-306
-83
1110
2099
1114
-776
-1166
-340
9
-132
-106
-48
-88
-71
-35
-44
-36
-13
-8
4
25
36
