# session 26
-14
-33
15
67
-28
-212
-264
-201
-173
-167
-132
-98
-70
-33
6
48
102
155
203
249
288
319
332
305
237
150
56
-40
-122
-176
-207
-222
-226
-224
-221
-216
-207
-195
-182
-171
-161
-151
-140
-131
-126
-123
-119
-111
-104
-104
-106
-105
-103
-104
-105
-106
-114
-129
-126
-96
-59
-22
4
-10
-52
-71
-65
-67
-64
-59
-72
-61
-34
-59
-86
-158
-207
575
2267
2763
926
-892
-783
-80
-67
-187
-101
-99
-127
-85
-83
-93
-60
-38
-32
-11
5
18
49
85
112
141
176
220
273
326
363
391
416
420
382
303
212
121
15
-81
-135
-166
-172
-126
-97
-136
-148
-120
-162
-200
-114
-75
-180
-206
-99
-59
-68
-16
-56
-225
-250
-112
-126
-282
-299
-224
-254
-310
-281
-232
-194
-152
-119
-101
-101
-122
-155
-184
-147
-47
-66
-189
-131
7
-80
-225
-207
185
1381
2511
1713
-396
-1268
-614
-48
-80
-218
-167
3
6
-127
-93
-18
-75
-40
110
151
54
-101
-106
163
343
235
202
286
288
404
565
437
313
440
462
331
221
-2
-195
-112
-81
-233
-208
-111
-215
-274
-223
-273
-233
-83
-173
-317
-187
-115
-321
-394
-185
-129
-316
-271
-51
-184
-412
-266
-139
-249
-202
-80
-139
-151
-72
-82
-112
-133
-170
-121
-82
-132
-86
-32
-134
-166
-152
-155
635
2230
2560
790
-770
-633
-128
-144
-122
-53
-183
-189
-86
-120
-88
-8
-107
-136
10
28
-6
68
61
20
126
186
113
132
270
362
349
275
257
327
295
109
27
77
-8
-173
-180
-116
-148
-235
-249
-130
-53
-165
-217
-117
-143
-189
-34
-21
-242
-249
-78
-73
-126
-131
-184
-168
-66
-56
-65
-12
-47
-136
-110
-49
-92
-140
-70
-22
-120
-145
-20
-20
-174
-308
-120
981
2401
2110
97
-1082
-597
-62
-143
-192
-116
-169
-178
-52
-48
-170
-143
-28
-34
-55
-5
16
40
99
105
128
237
271
217
269
389
405
374
400
373
221
104
72
-36
-176
-173
-143
-220
-255
-200
-220
-299
-282
-208
-204
-234
-215
-176
-168
-164
-145
-144
-156
-151
-144
-153
-154
-126
-82
-53
-45
-44
-70
-128
-168
-157
-95
-34
-70
-147
-121
-73
-92
-134
-213
125
1416
2403
1318
-651
-1065
-295
-40
-233
-184
-83
-138
-144
-71
-73
-110
-61
-21
-66
-29
73
33
-26
66
125
117
208
274
228
266
360
345
314
309
246
180
106
-52
-167
-160
-171
-229
-226
-189
-206
-238
-230
-212
-213
-209
-201
-190
-146
-109
-138
-166
-137
-120
-150
-162
-129
-66
1
13
-21
-36
-61
-113
-94
-15
-25
-115
-121
-35
-2
-75
-231
-264
446
1875
2366
932
-678
-760
-167
-63
-167
-128
-119
-143
-117
-86
-60
-46
-64
-62
-19
9
15
31
60
92
124
162
208
256
292
319
344
365
361
319
246
155
57
-36
-106
-148
-176
-199
-210
-207
-201
-197
-191
-185
-185
-181
-167
-153
-146
-143
-142
-143
-147
-154
-152
-131
-105
-83
-64
-68
-108
-143
-144
-134
-121
-114
-129
-125
-109
-130
-141
-198
-315
182
1556
2171
786
-925
-1076
-395
-140
-172
-135
-126
-139
-110
-94
-86
-60
-47
-44
-29
-8
14
42
66
94
138
184
220
264
319
360
389
424
434
387
308
218
110
4
-72
-129
-177
-202
-206
-209
-212
-206
-192
-185
-191
-192
-180
-169
-162
-149
-147
-160
-152
-127
-125
-120
-89
-83
-92
-71
-80
-126
-99
-52
-106
-164
-147
-117
-88
-188
-267
514
1955
2050
262
-1140
-888
-244
-121
-113
-11
2
-59
-85
-65
-32
-10
12
31
23
14
50
114
150
158
195
259
283
289
342
411
442
452
448
399
304
195
106
43
-28
-125
-201
-229
-212
-179
-196
-243
-227
-177
-186
-197
-173
-191
-232
-209
-175
-199
-224
-205
-176
-151
-126
-126
-131
-87
-70
-186
-297
-244
-179
-210
-204
-169
-206
-253
-280
77
1373
2565
1707
-419
-1158
-442
-86
-262
-224
-132
-210
-227
-163
-143
-134
-111
-85
-45
-26
-37
-19
29
63
97
149
200
243
292
343
377
398
406
372
289
189
87
-21
-103
-145
-176
-199
-196
-187
-189
-188
-183
-182
-176
-166
-163
-165
-166
-177
-189
-177
-140
-98
-63
-56
-87
-119
-126
-127
-128
-117
-121
-127
-100
-101
-140
-200
-328
-10
1393
2594
1605
-478
-1016
-269
-11
-206
-169
-107
-162
-144
-103
-113
-103
-80
-73
-56
-30
-14
7
35
64
103
151
199
246
298
343
373
392
391
345
257
158
61
-33
-108
-152
-174
-186
-188
-181
-173
-170
-167
-162
-157
-153
-148
-148
-146
-140
-145
-161
-155
-122
-85
-49
-33
-64
-109
-124
-123
-129
-123
-123
-138
-124
-112
-146
-178
-280
-236
746
2228
2074
83
-1116
-571
-18
-156
-219
-123
-158
-174
-123
-121
-124
-96
-84
-77
-56
-37
-20
5
34
67
102
141
188
235
272
301
331
349
330
269
183
91
0
-82
-141
-174
-190
-196
-195
-187
-178
-171
-161
-151
-141
-137
-137
-133
-126
-132
-141
-123
-84
-46
-21
-28
-77
-120
-128
-131
-132
-117
-120
-126
-101
-109
-149
-212
-366
-73
1301
2423
1364
-682
-1126
-312
-7
-172
-140
-87
-131
-109
-76
-85
-65
-37
-33
-18
8
25
43
70
101
134
170
210
252
291
322
347
370
375
338
260
167
72
-19
-95
-146
-176
-191
-197
-197
-193
-185
-176
-168
-159
-151
-144
-142
-145
-142
-139
-148
-146
-114
-75
-48
-37
-61
-110
-135
-134
-137
-134
-127
-137
-127
-108
-140
-170
-263
-380
285
1887
2414
695
-1044
-906
-152
-88
-203
-125
-123
-157
-113
-95
-104
-82
-63
-53
-31
-7
11
32
56
87
124
164
204
241
274
310
346
369
368
330
252
154
57
-27
-94
-144
-179
-194
-193
-187
-181
-172
-159
-148
-141
-133
-126
-128
-135
-130
-124
-136
-144
-121
-82
-55
-42
-55
-97
-127
-132
-134
-129
-119
-132
-130
-110
-135
-164
-230
-362
141
1673
2488
1012
-970
-1154
-341
-91
-191
-138
-114
-145
-113
-93
-100
-81
-61
-54
-32
-5
14
37
69
102
137
177
220
262
300
335
367
392
395
357
279
182
81
-15
-95
-148
-181
-200
-209
-211
-206
-196
-186
-177
-165
-155
-149
-144
-141
-141
-136
-138
-152
-150
-122
-89
-61
-43
-62
-109
-133
-130
-131
-128
-120
-129
-120
-97
-119
-150
-240
-326
378
2027
2622
922
-892
-840
-126
-90
-228
-150
-142
-178
-136
-119
-127
-103
-86
-80
-57
-35
-19
5
33
61
95
133
170
208
245
275
300
324
329
291
217
129
37
-50
-116
-159
-187
-202
-205
-201
-195
-187
-177
-168
-162
-155
-150
-144
-139
-140
-141
-138
-145
-158
-147
-112
-78
-51
-40
-68
-111
-125
-124
-126
-117
-113
-126
-110
-95
-130
-160
-274
-293
673
2366
2503
498
-1006
-645
-40
-128
-218
-128
-146
-165
-118
-112
-110
-79
-67
-60
-34
-15
1
26
54
82
117
156
195
233
267
296
322
341
334
284
201
110
20
-67
-134
-174
-197
-209
-211
-208
-202
-194
-187
-182
-175
-166
-160
-157
-151
-142
-139
-143
-142
-140
-149
-152
-128
-90
-58
-34
-39
-80
-110
-111
-113
-116
-107
-114
-119
-95
-106
-143
-200
-341
25
1528
2727
1634
-495
-1020
-288
-38
-213
-176
-124
-170
-144
-110
-121
-105
-76
-64
-46
-26
-10
16
46
69
98
135
174
218
262
295
321
345
353
326
259
164
68
-13
-81
-139
-176
-190
-198
-207
-205
-192
-183
-174
-157
-148
-150
-142
-132
-139
-146
-138
-134
-141
-141
-139
-149
-141
-104
-65
-42
-43
-75
-108
-113
-117
-126
-114
-104
-111
-95
-94
-131
-164
-278
-127
1088
2557
2053
-134
-1213
-589
-63
-162
-189
-124
-158
-144
-91
-94
-88
-58
-51
-43
-17
6
25
53
82
112
147
191
238
280
315
350
383
400
379
313
218
116
17
-73
-140
-184
-208
-221
-228
-228
-219
-205
-194
-186
-178
-166
-155
-152
-148
-140
-133
-133
-140
-146
-148
-156
-157
-133
-96
-62
-42
-56
-96
-117
-114
-117
-114
-102
-108
-104
-84
-105
-130
-192
-268
362
1950
2647
1071
-807
-878
-168
-100
-246
-160
-128
-163
-124
-103
-115
-94
-73
-68
-49
-26
-11
11
38
61
93
135
174
211
252
286
310
328
332
302
234
146
52
-39
-112
-161
-191
-204
-208
-213
-212
-198
-184
-179
-173
-163
-156
-150
-142
-137
-136
-134
-132
-136
-138
-138
-150
-159
-138
-98
-59
-33
-42
-85
-112
-111
-110
-105
-92
-101
-105
-82
-94
-123
-181
-273
245
1788
2719
1385
-589
-867
-169
-48
-220
-157
-125
-169
-132
-104
-115
-93
-70
-66
-48
-25
-10
12
38
63
94
132
169
207
246
279
305
329
339
308
234
144
57
-28
-103
-151
-177
-192
-201
-204
-205
-199
-189
-183
-178
-170
-159
-152
-148
-144
-140
-138
-135
-134
-132
-129
-129
-130
-129
-137
-150
-140
-104
-63
-29
-23
-59
-93
-95
-94
-97
-83
-84
-93
-72
-75
-109
-137
-242
3
1328
2671
1909
-238
-1034
-349
6
-175
-173
-102
-147
-138
-97
-105
-95
-68
-62
-49
-26
-11
8
36
62
90
127
164
200
239
273
300
327
349
338
279
192
99
8
-75
-136
-173
-193
-205
-209
-206
-198
-189
-180
-172
-163
-153
-144
-138
-135
-135
-134
-131
-131
-133
-135
-134
-131
-133
-138
-138
-144
-155
-147
-112
-73
-38
-22
-49
-89
-99
-96
-98
-90
-91
-99
-76
-76
-112
-137
-245
-58
1209
2641
2027
-149
-1095
-433
0
-160
-175
-97
-138
-134
-90
-97
-92
-63
-55
-44
-20
-2
15
40
67
96
130
167
205
244
279
309
337
359
352
300
215
120
26
-60
-126
-167
-191
-207
-214
-211
-203
-194
-186
-177
-167
-157
-151
-147
-144
-143
-141
-138
-140
-144
-141
-136
-142
-150
-153
-162
-168
-148
-109
-68
-37
-47
-93
-118
-113
-112
-109
-103
-115
-106
-80
-101
-124
-192
-287
360
2001
2689
1036
-869
-902
-155
-60
-195
-126
-111
-142
-104
-92
-102
-74
-52
-47
-26
-3
12
33
62
94
134
172
205
242
283
317
345
376
391
357
281
191
93
-6
-89
-144
-180
-202
-212
-214
-213
-206
-194
-183
-171
-158
-146
-138
-135
-132
-131
-130
-124
-121
-130
-135
-129
-137
-154
-144
-105
-65
-40
-47
-88
-119
-120
-122
-123
-112
-116
-119
-98
-109
-126
-138
-235
99
1458
2514
1383
-746
-1276
-456
-53
-161
-142
-93
-126
-107
-78
-84
-70
-47
-37
-21
0
17
42
72
99
133
176
222
268
312
350
383
413
424
395
322
222
114
8
-80
-145
-189
-213
-223
-229
-232
-226
-213
-202
-192
-178
-165
-158
-152
-146
-142
-137
-134
-134
-135
-139
-151
-152
-129
-91
-52
-33
-57
-102
-121
-122
-127
-121
-115
-126
-116
-99
-126
-148
-230
-266
553
2169
2481
617
-1002
-743
-70
-113
-229
-134
-140
-172
-126
-113
-119
-93
-75
-66
-43
-22
-6
17
44
72
106
144
185
228
266
297
322
348
352
310
228
134
40
-49
-118
-160
-184
-196
-202
-199
-191
-182
-177
-170
-160
-152
-146
-138
-135
-133
-129
-127
-126
-125
-130
-139
-132
-99
-55
-15
-11
-56
-100
-108
-109
-111
-101
-103
-107
-85
-93
-125
-168
-299
-11
1368
2591
1638
-472
-1076
-324
-5
-180
-162
-102
-147
-129
-91
-99
-86
-60
-55
-40
-16
1
21
47
74
106
143
182
225
266
299
326
350
361
340
273
179
81
-11
-92
-150
-182
-199
-210
-214
-211
-202
-194
-188
-181
-172
-164
-157
-151
-148
-145
-143
-144
-144
-146
-155
-155
-131
-91
-49
-26
-53
-107
-131
-130
-132
-126
-124
-138
-121
-106
-135
-157
-267
-285
664
2276
2305
294
-1101
-651
-40
-135
-214
-122
-145
-157
-107
-108
-111
-81
-69
-62
-36
-15
2
30
58
86
122
164
203
241
280
310
335
358
358
309
222
125
33
-50
-115
-156
-180
-193
-202
-200
-187
-175
-174
-171
-160
-147
-138
-127
-120
-121
-121
-116
-113
-120
-127
-118
-95
-61
-21
-10
-48
-93
-107
-112
-117
-107
-110
-119
-95
-97
-131
-141
-243
-107
1046
2355
1679
-505
-1435
-688
-93
-136
-144
-84
-115
-108
-69
-73
-63
-36
-27
-16
7
27
52
84
115
150
191
237
285
332
372
406
439
455
428
353
252
145
39
-53
-121
-165
-191
-203
-207
-208
-202
-192
-181
-170
-159
-147
-138
-130
-125
-122
-119
-115
-119
-133
-132
-105
-61
-18
-8
-48
-96
-111
-114
-118
-110
-112
-120
-99
-99
-136
-181
-313
-118
1160
2553
1901
-226
-1080
-397
-5
-185
-191
-111
-156
-154
-114
-121
-113
-85
-77
-64
-42
-28
-11
15
42
69
103
141
180
217
249
275
302
318
298
233
145
53
-38
-117
-172
-203
-220
-227
-231
-230
-223
-215
-210
-201
-191
-184
-181
-177
-173
-171
-167
-166
-174
-182
-171
-137
-92
-54
-59
-108
-151
-159
-161
-159
-151
-161
-161
-135
-149
-184
-258
-399
65
1616
2600
1282
-719
-994
-240
-71
-239
-187
-153
-195
-163
-132
-139
-120
-100
-94
-74
-49
-29
-4
24
54
88
125
166
211
252
283
311
339
350
318
243
148
54
-31
-99
-147
-177
-188
-189
-189
-183
-168
-155
-149
-138
-118
-104
-96
-86
-76
-69
-61
-56
-59
-59
-58
-64
-63
-39
2
44
63
36
-9
-27
-28
-32
-24
-22
-31
-9
3
-34
-56
-160
-152
841
2447
2387
284
-1142
-675
-4
-33
-94
-14
-36
-53
-14
-11
-10
16
28
36
53
66
81
106
134
163
199
236
272
308
341
367
388
402
387
325
228
123
18
-84
-166
-221
-255
-278
-292
-302
-306
-304
-298
-294
-287
-279
-273
-270
-268
-269
-270
-271
-276
-283
-284
-287
-303
-312
-287
-245
-213
-191
