# session 36
-7
-19
5
53
40
-42
-101
-97
-70
-82
-114
-117
-205
-92
1022
2484
2138
75
-1079
-580
-64
-125
-154
-96
-129
-129
-89
-90
-89
-66
-55
-43
-24
-7
11
31
50
69
93
121
150
179
209
240
267
287
306
325
322
278
200
105
7
-77
-139
-180
-204
-215
-221
-223
-216
-204
-196
-190
-180
-170
-163
-158
-153
-147
-142
-138
-136
-136
-136
-136
-134
-133
-133
-131
-125
-120
-118
-114
-103
-98
-107
-107
-84
-43
-1
17
-13
-61
-78
-72
-77
-75
-64
-75
-73
-47
-65
-100
-163
-263
274
1865
2831
1523
-438
-768
-136
-11
-160
-113
-92
-131
-100
-78
-87
-69
-51
-48
-35
-19
-8
12
34
45
42
42
70
127
185
216
213
207
223
232
210
195
178
88
-41
-108
-138
-201
-265
-292
-302
-303
-292
-280
-264
-236
-212
-195
-173
-160
-149
-102
-61
-82
-109
-84
-49
-33
-19
-18
-34
-51
-52
-30
-10
-24
-40
-29
-30
-42
-18
25
43
32
-5
-58
-87
-84
-86
-95
-101
-106
-94
-85
-103
-116
-184
-230
354
1588
2025
893
-372
-513
-162
-94
-146
-117
-99
-103
-83
-41
-22
-44
-57
-39
-24
-15
6
17
17
30
56
75
84
95
114
133
147
161
182
208
230
230
203
157
95
7
-87
-137
-132
-133
-172
-204
-198
-179
-170
-167
-161
-148
-140
-140
-126
-104
-106
-117
-105
-82
-64
-57
-66
-80
-71
-44
-20
4
31
25
-43
-116
-116
-61
-24
-9
-7
-44
-97
-108
-96
-104
-108
-95
-93
-83
-71
-98
-108
-122
-183
196
1269
1859
960
-324
-591
-210
-27
-30
-23
-54
-98
-89
-63
-50
-43
-32
-24
-22
-19
-6
13
26
34
53
75
82
83
105
140
165
176
196
227
241
219
176
122
54
-17
-73
-114
-138
-142
-150
-173
-181
-162
-144
-137
-124
-106
-97
-100
-105
-93
-76
-85
-108
-109
-94
-90
-92
-94
-100
-99
-92
-92
-96
-90
-69
-29
16
28
-5
-48
-67
-73
-80
-73
-62
-78
-84
-65
-81
-96
-116
-187
204
1432
2237
1276
-323
-744
-290
-82
-139
-135
-127
-137
-114
-95
-88
-70
-57
-49
-38
-22
1
15
16
41
77
81
87
128
151
142
151
178
189
184
168
149
129
78
-11
-86
-128
-175
-224
-251
-258
-236
-197
-199
-218
-182
-145
-170
-173
-116
-91
-116
-120
-106
-100
-84
-76
-98
-100
-66
-54
-78
-86
-56
-16
0
-4
-15
-46
-84
-88
-74
-87
-117
-115
-76
-68
-97
-94
-143
-155
471
1621
1863
697
-388
-423
-113
-61
-80
-61
-79
-93
-71
-49
-40
-35
-27
-15
-3
5
6
11
29
47
57
78
120
170
193
170
154
174
184
186
211
204
139
71
18
-42
-92
-123
-146
-158
-158
-159
-164
-159
-143
-143
-152
-134
-111
-115
-94
-27
-34
-146
-197
-121
-71
-124
-161
-107
-41
-26
-25
-16
-34
-73
-89
-87
-90
-89
-88
-95
-85
-80
-111
-105
-121
-184
275
1426
1898
799
-478
-594
-180
-90
-149
-121
-107
-113
-89
-70
-62
-48
-39
-29
-17
-15
-17
-11
0
18
38
48
62
94
129
145
159
190
218
216
219
242
202
77
-22
-51
-87
-136
-155
-165
-186
-188
-173
-166
-162
-154
-151
-159
-160
-142
-132
-133
-118
-106
-112
-96
-85
-124
-152
-126
-92
-60
-23
-23
-62
-89
-92
-97
-98
-87
-83
-90
-82
-84
-104
-95
-137
-116
542
1671
1841
609
-483
-451
-95
-88
-154
-107
-88
-99
-74
-48
-38
-26
-16
-11
-1
10
18
25
34
48
63
80
104
128
141
158
182
196
211
238
241
220
183
94
-20
-69
-75
-111
-149
-155
-153
-151
-142
-135
-129
-120
-117
-116
-108
-100
-104
-114
-113
-100
-91
-102
-119
-115
-88
-53
-25
-14
-40
-92
-126
-124
-127
-139
-137
-143
-155
-143
-156
-189
-201
-286
-92
1031
2246
1745
-45
-918
-504
-127
-167
-180
-142
-155
-140
-106
-99
-87
-65
-54
-41
-23
-7
9
29
49
68
88
108
134
162
185
203
220
236
253
268
261
216
141
59
-20
-90
-140
-170
-186
-193
-193
-188
-183
-179
-174
-167
-161
-157
-153
-147
-145
-147
-146
-140
-131
-130
-139
-145
-129
-88
-42
-21
-40
-85
-117
-119
-119
-122
-110
-112
-126
-100
-94
-144
-199
-329
-134
1250
2946
2590
434
-734
-324
-13
-196
-220
-149
-185
-176
-134
-142
-136
-107
-99
-92
-74
-63
-52
-33
-14
2
23
46
67
88
109
132
153
168
187
209
206
158
81
1
-74
-140
-190
-217
-227
-227
-225
-220
-214
-207
-199
-192
-185
-176
-169
-165
-159
-152
-145
-136
-124
-122
-131
-131
-102
-50
-5
6
-22
-66
-89
-87
-92
-95
-82
-85
-94
-69
-75
-127
-201
-317
108
1738
3170
2263
73
-696
-173
-24
-233
-204
-157
-210
-186
-149
-161
-146
-121
-118
-108
-90
-78
-65
-48
-33
-16
5
28
50
72
94
116
134
150
171
189
175
119
44
-28
-96
-151
-187
-205
-212
-212
-210
-207
-201
-196
-191
-185
-177
-173
-171
-166
-161
-157
-152
-145
-137
-126
-118
-125
-133
-115
-69
-19
2
-22
-68
-95
-93
-93
-96
-84
-87
-96
-69
-69
-116
-167
-287
-9
1446
2979
2349
210
-707
-207
21
-185
-182
-124
-172
-156
-116
-125
-114
-90
-86
-75
-56
-45
-33
-16
-2
14
34
54
73
95
117
136
151
165
185
205
201
155
85
11
-60
-122
-164
-185
-191
-188
-185
-183
-179
-174
-169
-163
-159
-156
-154
-152
-150
-146
-140
-136
-133
-129
-126
-123
-117
-111
-114
-123
-122
-97
-49
-4
2
-38
-82
-94
-91
-97
-91
-84
-99
-91
-67
-96
-131
-216
-284
486
2242
2927
1287
-515
-568
-26
-77
-215
-141
-148
-181
-138
-127
-134
-109
-98
-97
-77
-59
-55
-45
-27
-10
8
24
42
60
79
96
111
123
139
164
184
172
122
54
-13
-78
-130
-161
-176
-180
-178
-174
-171
-165
-158
-152
-145
-141
-139
-137
-133
-128
-126
-123
-121
-116
-111
-110
-108
-97
-88
-91
-98
-87
-49
-1
27
9
-39
-68
-69
-73
-78
-67
-73
-82
-58
-65
-102
-136
-248
40
1437
2779
1994
-98
-881
-297
2
-148
-148
-103
-142
-128
-99
-110
-100
-77
-73
-63
-45
-34
-19
1
17
33
52
71
89
109
126
141
154
168
187
209
213
175
105
30
-43
-110
-160
-188
-201
-203
-198
-192
-186
-178
-171
-165
-161
-160
-158
-153
-149
-147
-143
-138
-133
-130
-130
-131
-126
-115
-112
-123
-127
-105
-57
-11
3
-27
-73
-92
-89
-94
-90
-79
-90
-86
-64
-85
-115
-189
-282
360
2024
2845
1381
-472
-641
-58
-41
-192
-128
-119
-158
-124
-109
-118
-95
-77
-75
-62
-46
-34
-16
0
13
29
47
62
78
95
110
123
134
144
163
182
176
130
63
-5
-69
-124
-159
-178
-187
-186
-178
-170
-166
-159
-151
-147
-144
-140
-137
-136
-134
-130
-126
-124
-121
-118
-114
-110
-107
-105
-99
-90
-91
-101
-100
-72
-22
20
21
-21
-61
-70
-72
-79
-69
-65
-79
-63
-51
-87
-114
-217
-200
803
2467
2573
658
-743
-446
25
-98
-175
-99
-130
-149
-108
-107
-108
-84
-75
-69
-53
-41
-28
-10
5
18
35
53
69
86
102
113
124
134
149
170
185
169
117
49
-19
-82
-133
-168
-185
-187
-181
-175
-169
-161
-153
-150
-148
-144
-140
-139
-137
-134
-130
-127
-123
-119
-115
-112
-111
-109
-106
-102
-94
-88
-94
-105
-96
-57
-7
19
1
-47
-76
-77
-79
-79
-71
-80
-81
-56
-71
-97
-140
-260
154
1653
2753
1647
-326
-782
-162
5
-158
-127
-98
-141
-118
-93
-102
-87
-68
-64
-50
-33
-24
-10
9
23
37
55
72
88
104
119
131
141
149
164
184
189
154
90
20
-47
-108
-152
-176
-185
-183
-176
-168
-162
-155
-149
-144
-141
-137
-135
-134
-133
-130
-125
-122
-119
-116
-114
-114
-109
-104
-102
-96
-88
-91
-101
-98
-69
-22
18
16
-30
-71
-78
-79
-83
-75
-79
-87
-64
-67
-99
-122
-245
-86
1154
2601
2111
88
-861
-335
25
-125
-148
-90
-131
-129
-93
-100
-95
-70
-64
-55
-38
-25
-12
6
20
35
54
70
85
101
117
129
138
147
162
183
192
166
106
35
-34
-97
-147
-176
-190
-192
-185
-175
-165
-158
-154
-149
-143
-140
-138
-135
-133
-132
-129
-125
-122
-118
-114
-111
-109
-108
-101
-95
-100
-106
-91
-52
-4
25
6
-45
-75
-77
-82
-82
-74
-86
-83
-62
-84
-103
-158
-266
277
1836
2693
1339
-526
-762
-130
-18
-161
-118
-101
-139
-112
-92
-98
-80
-62
-57
-43
-26
-14
2
20
36
53
71
88
108
125
138
151
161
170
187
206
199
153
81
4
-64
-119
-162
-189
-199
-198
-191
-183
-175
-168
-161
-153
-145
-140
-135
-133
-131
-129
-127
-125
-122
-120
-118
-115
-113
-107
-99
-99
-109
-106
-75
-24
16
12
-36
-76
-82
-82
-83
-74
-81
-88
-64
-71
-102
-122
-246
-47
1244
2619
1989
-44
-895
-331
15
-128
-144
-93
-131
-125
-92
-98
-90
-67
-60
-49
-30
-19
-8
11
29
45
64
83
102
122
141
154
164
174
190
209
211
175
108
31
-43
-106
-153
-182
-198
-202
-196
-187
-178
-169
-160
-153
-148
-142
-137
-134
-133
-129
-127
-127
-126
-122
-120
-119
-115
-109
-106
-103
-99
-101
-108
-100
-64
-12
21
4
-48
-80
-85
-91
-90
-81
-91
-90
-64
-80
-108
-150
-282
100
1588
2722
1655
-335
-835
-214
-9
-154
-131
-103
-139
-112
-89
-107
-98
-75
-64
-46
-29
-19
-2
18
30
40
54
71
94
124
147
154
156
170
196
221
222
183
109
29
-41
-99
-138
-160
-173
-179
-175
-165
-156
-146
-135
-126
-120
-115
-109
-107
-107
-105
-104
-105
-105
-103
-103
-104
-98
-90
-94
-105
-102
-73
-28
10
12
-31
-75
-86
-87
-89
-82
-86
-98
-77
-78
-112
-124
-225
-100
1074
2553
2138
40
-1045
-497
-23
-134
-170
-110
-148
-150
-113
-118
-113
-88
-81
-70
-49
-34
-20
1
19
39
61
84
107
130
152
172
187
199
217
237
234
188
113
31
-46
-112
-162
-192
-210
-222
-223
-214
-201
-191
-182
-172
-161
-150
-140
-132
-126
-119
-115
-115
-115
-111
-109
-107
-104
-104
-102
-93
-87
-91
-95
-78
-34
13
27
-8
-56
-75
-78
-82
-74
-71
-85
-70
-56
-86
-101
-193
-250
585
2242
2622
886
-674
-539
-8
-63
-167
-100
-116
-141
-101
-95
-101
-77
-62
-58
-42
-26
-13
3
18
32
52
72
90
108
126
142
156
168
181
201
211
184
120
46
-26
-95
-149
-181
-201
-212
-211
-205
-197
-188
-178
-170
-162
-153
-145
-138
-133
-128
-124
-120
-118
-116
-112
-107
-104
-101
-95
-91
-90
-86
-83
-91
-97
-83
-47
-1
27
7
-45
-72
-72
-77
-77
-70
-80
-76
-55
-77
-98
-160
-285
235
1801
2716
1429
-424
-703
-113
-20
-167
-126
-110
-146
-118
-99
-107
-88
-70
-64
-49
-34
-22
-4
14
28
46
66
86
105
125
145
161
173
187
208
220
202
148
72
-7
-76
-133
-174
-198
-208
-211
-210
-205
-198
-190
-180
-170
-162
-154
-146
-141
-136
-130
-125
-122
-117
-113
-110
-107
-102
-97
-90
-84
-90
-98
-89
-54
-5
33
24
-27
-63
-68
-74
-79
-69
-76
-79
-55
-68
-97
-135
-271
30
1433
2680
1825
-161
-812
-236
7
-149
-141
-100
-141
-129
-99
-103
-89
-68
-65
-54
-35
-20
-4
14
29
47
67
87
109
134
155
169
181
196
216
232
217
162
85
4
-73
-137
-179
-203
-219
-226
-226
-221
-214
-202
-191
-183
-173
-160
-152
-149
-145
-135
-126
-120
-116
-114
-115
-111
-102
-99
-108
-110
-87
-42
6
21
-18
-69
-83
-86
-102
-100
-93
-110
-104
-85
-120
-144
-211
-305
373
2021
2663
1029
-785
-819
-154
-73
-178
-116
-115
-145
-109
-93
-95
-69
-50
-44
-30
-11
7
28
49
71
94
117
141
164
189
214
233
246
268
294
296
253
179
95
13
-61
-121
-166
-190
-197
-202
-209
-213
-208
-194
-176
-162
-157
-150
-135
-125
-125
-123
-117
-118
-125
-128
-125
-118
-116
-123
-128
-109
-68
-29
-23
-59
-106
-126
-127
-128
-119
-114
-134
-128
-107
-133
-141
-177
-218
498
2090
2554
749
-1082
-1016
-249
-94
-154
-88
-92
-111
-69
-57
-57
-29
-8
4
23
40
58
79
98
121
151
172
190
221
257
285
311
331
344
356
350
297
206
107
8
-84
-149
-188
-214
-230
-237
-239
-234
-222
-208
-195
-182
-171
-161
-151
-141
-133
-127
-125
-126
-125
-124
-126
-128
-128
-128
-126
-118
-118
-129
-131
-109
-71
-33
-16
-42
-88
-108
-108
-113
-110
-100
-112
-106
-83
-108
-135
-202
-259
467
2139
2754
1045
-821
-832
-134
-62
-177
-112
-114
-143
-102
-92
-103
-78
-61
-61
-46
-27
-14
1
18
38
60
79
103
137
172
195
212
236
263
282
283
249
176
83
-5
-84
-147
-189
-212
-221
-225
-227
-224
-213
-204
-199
-190
-181
-174
-166
-155
-148
-142
-138
-135
-134
-130
-128
-129
-128
-124
-121
-117
-108
-106
-115
-113
-90
-48
-5
9
-27
-77
-95
-93
-102
-100
-86
-94
-92
-69
-94
-131
-195
-279
349
2039
2915
1386
-636
-851
-154
-40
-179
-119
-106
-140
-100
-82
-93
-71
-50
-45
-30
-13
0
21
43
60
81
107
133
162
194
224
252
274
294
316
325
294
222
133
43
-39
-104
-146
-168
-179
-185
-184
-177
-170
-166
-157
-146
-138
-132
-124
-116
-110
-104
-98
-93
-88
-86
-84
-80
-76
-72
-69
-67
-63
-59
-53
-49
-46
-44
