# session 18
-18
-10
-31
-24
63
157
170
132
100
75
64
71
63
56
70
50
18
-45
-228
-9
1210
2223
1318
-471
-914
-263
12
-99
-70
-23
-51
-35
-11
-15
4
28
38
59
93
132
187
254
318
371
408
420
393
327
238
146
59
-20
-83
-128
-154
-163
-168
-175
-177
-169
-164
-164
-159
-152
-157
-164
-166
-171
-176
-167
-143
-119
-103
-98
-109
-133
-142
-129
-134
-149
-131
-128
-156
-194
-360
-340
628
1888
1532
-222
-1077
-555
-111
-169
-179
-115
-132
-126
-91
-89
-81
-55
-34
-10
25
62
110
179
254
315
356
378
372
324
245
161
81
3
-68
-121
-154
-170
-175
-175
-170
-160
-149
-137
-128
-125
-122
-120
-128
-142
-145
-130
-107
-83
-65
-63
-80
-107
-117
-104
-105
-114
-91
-90
-123
-160
-328
-316
645
1911
1573
-169
-1027
-511
-72
-136
-149
-90
-110
-99
-63
-63
-52
-23
-5
21
59
97
148
215
280
331
368
386
376
332
257
169
86
15
-50
-103
-133
-144
-149
-156
-157
-148
-137
-128
-123
-124
-129
-130
-134
-142
-141
-128
-104
-75
-56
-59
-77
-98
-105
-92
-93
-100
-79
-82
-114
-155
-332
-331
607
1846
1535
-128
-960
-497
-90
-137
-143
-88
-103
-91
-58
-55
-40
-9
8
28
61
96
137
188
246
300
335
345
335
296
225
142
66
-5
-73
-128
-159
-170
-177
-180
-172
-157
-146
-138
-131
-130
-132
-130
-132
-142
-145
-132
-110
-81
-57
-55
-77
-104
-109
-97
-103
-108
-88
-100
-124
-155
-346
-314
679
1819
1308
-393
-1117
-594
-156
-142
-126
-88
-98
-75
-38
-24
-5
16
31
54
90
140
204
266
325
387
434
447
432
387
308
213
126
45
-28
-79
-108
-128
-141
-142
-135
-126
-120
-114
-109
-106
-103
-105
-114
-121
-124
-122
-108
-83
-70
-78
-93
-111
-117
-106
-113
-122
-99
-103
-128
-142
-302
-303
652
1883
1477
-293
-1149
-647
-182
-175
-162
-116
-133
-120
-89
-79
-57
-29
-14
11
46
83
140
213
282
341
387
405
392
346
267
174
87
7
-65
-115
-144
-169
-185
-188
-190
-189
-178
-169
-168
-167
-169
-177
-171
-146
-119
-94
-74
-72
-93
-119
-125
-118
-127
-133
-117
-127
-164
-248
-431
-206
1002
2082
1344
-354
-870
-315
-71
-194
-174
-119
-141
-121
-86
-84
-66
-39
-26
-6
29
70
121
177
228
277
311
320
304
260
188
106
38
-21
-81
-120
-126
-130
-161
-185
-183
-186
-193
-168
-135
-136
-137
-112
-122
-174
-168
-98
-56
-55
-51
-64
-83
-61
-56
-104
-114
-88
-100
-107
-212
-342
301
1723
2074
585
-748
-600
-101
-114
-178
-92
-74
-92
-87
-108
-108
-52
-5
5
18
59
123
193
246
285
329
361
349
313
266
177
65
-6
-41
-82
-125
-148
-157
-176
-194
-157
-109
-150
-198
-139
-95
-143
-138
-77
-102
-135
-78
-62
-136
-160
-115
-90
-104
-124
-125
-125
-170
-210
-278
-434
-88
1215
2127
1173
-423
-748
-265
-140
-199
-120
-111
-163
-156
-143
-115
-77
-70
-25
43
27
5
89
183
217
262
304
283
245
217
150
58
-1
-52
-126
-169
-151
-156
-213
-223
-173
-184
-224
-159
-88
-142
-177
-127
-149
-189
-93
-31
-125
-149
-41
-11
-80
-102
-65
-65
-122
-119
-46
-58
-143
-260
-367
159
1468
1946
625
-744
-690
-168
-94
-98
-34
-108
-141
-37
-10
-46
-4
31
5
45
157
191
145
189
340
401
322
291
335
293
191
146
98
-5
-88
-120
-132
-142
-169
-172
-120
-94
-127
-125
-85
-91
-118
-118
-135
-148
-107
-72
-54
-8
-24
-122
-145
-99
-114
-131
-87
-91
-152
-146
-173
-400
-305
789
1937
1417
-242
-940
-440
-75
-163
-193
-132
-131
-104
-60
-76
-80
-41
-26
-7
45
67
90
184
271
276
261
292
334
298
201
144
74
-64
-119
-83
-139
-216
-173
-147
-198
-186
-123
-130
-162
-135
-114
-171
-209
-143
-81
-86
-77
-51
-61
-75
-97
-136
-102
-42
-102
-175
-109
-42
-144
-400
-416
475
1806
1772
130
-1047
-785
-255
-176
-159
-70
-73
-109
-108
-82
-29
-1
-2
37
78
98
185
281
276
302
439
501
418
337
300
223
125
79
27
-90
-165
-142
-150
-212
-194
-124
-140
-191
-163
-106
-98
-92
-75
-113
-159
-103
-32
-72
-106
-35
-33
-142
-143
-54
-90
-166
-126
-86
-135
-288
-437
102
1503
2106
709
-1010
-1165
-447
-144
-188
-180
-148
-120
-77
-55
-56
-50
-33
-7
32
92
152
183
230
331
432
474
445
367
293
244
177
72
-24
-86
-144
-191
-194
-192
-224
-208
-148
-173
-227
-169
-112
-166
-195
-142
-116
-125
-107
-70
-40
-46
-103
-138
-96
-76
-127
-124
-52
-79
-154
-146
-276
-371
527
2107
2222
424
-954
-745
-231
-194
-217
-162
-140
-109
-125
-178
-125
-33
-45
-82
-31
48
82
127
224
302
313
319
353
340
244
155
113
29
-92
-143
-148
-176
-183
-177
-210
-220
-194
-206
-215
-169
-150
-164
-146
-143
-166
-150
-122
-102
-46
-12
-53
-78
-59
-68
-78
-64
-80
-91
-67
-89
-160
-280
-250
603
2037
2202
556
-794
-622
-134
-152
-205
-136
-147
-138
-74
-70
-83
-46
-11
-3
17
67
122
162
209
278
327
337
340
327
267
174
80
-9
-84
-126
-141
-152
-166
-181
-197
-202
-195
-191
-196
-194
-174
-151
-139
-133
-127
-121
-119
-119
-118
-118
-125
-131
-131
-141
-156
-149
-123
-96
-66
-43
-58
-95
-115
-116
-109
-104
-115
-112
-95
-112
-122
-182
-334
58
1400
2220
1101
-582
-897
-345
-139
-188
-141
-115
-124
-88
-60
-51
-28
-10
4
38
81
122
173
238
307
372
427
465
474
439
361
262
168
82
0
-67
-107
-128
-145
-155
-149
-138
-134
-134
-128
-116
-103
-93
-87
-83
-80
-74
-66
-74
-99
-113
-101
-85
-73
-63
-61
-73
-91
-102
-91
-82
-98
-90
-71
-103
-117
-166
-346
17
1399
2237
1014
-775
-1070
-436
-182
-216
-169
-149
-159
-127
-112
-108
-83
-65
-50
-16
23
62
119
193
274
346
394
416
413
366
273
168
74
-16
-97
-151
-181
-200
-213
-220
-227
-232
-227
-216
-204
-194
-184
-174
-160
-143
-135
-133
-126
-123
-135
-149
-149
-138
-117
-90
-74
-78
-91
-105
-107
-91
-88
-101
-85
-80
-107
-111
-203
-233
582
2007
2127
464
-842
-643
-154
-157
-201
-134
-134
-135
-97
-87
-82
-60
-46
-30
2
40
83
138
206
282
347
387
406
396
339
246
149
62
-19
-85
-127
-150
-164
-173
-184
-195
-201
-195
-183
-171
-158
-139
-123
-120
-122
-117
-111
-118
-125
-114
-90
-63
-37
-26
-38
-60
-77
-78
-66
-69
-72
-54
-66
-97
-133
-266
-83
1089
2312
1720
-117
-890
-396
-84
-192
-182
-118
-142
-128
-87
-83
-75
-52
-36
-14
13
45
95
156
221
291
345
367
371
344
267
166
77
-4
-83
-142
-176
-195
-205
-211
-219
-229
-233
-228
-217
-207
-195
-183
-179
-177
-171
-170
-179
-175
-153
-127
-100
-77
-73
-88
-108
-118
-110
-107
-119
-107
-93
-120
-140
-243
-358
280
1742
2224
756
-765
-759
-208
-145
-214
-151
-147
-161
-120
-104
-103
-73
-48
-32
-3
33
74
130
199
271
335
381
407
403
351
257
157
71
-9
-80
-128
-150
-161
-171
-179
-181
-179
-175
-170
-158
-141
-133
-136
-132
-123
-128
-139
-131
-108
-83
-57
-43
-49
-69
-91
-101
-90
-88
-92
-79
-87
-116
-147
-287
-188
863
2121
1725
-11
-849
-405
-70
-172
-177
-114
-137
-125
-86
-88
-82
-50
-27
-10
18
53
97
150
212
275
325
354
361
335
267
176
87
6
-66
-123
-160
-178
-188
-196
-201
-198
-189
-181
-175
-163
-150
-148
-151
-145
-145
-156
-153
-126
-97
-74
-53
-50
-68
-92
-100
-89
-88
-101
-85
-70
-95
-123
-254
-336
403
1792
2004
493
-736
-557
-113
-141
-189
-120
-124
-133
-98
-90
-85
-60
-43
-26
2
30
65
117
181
244
290
318
332
322
270
190
108
27
-51
-113
-151
-172
-184
-192
-195
-189
-176
-165
-157
-149
-139
-134
-135
-135
-133
-141
-150
-137
-109
-80
-58
-51
-66
-90
-106
-102
-89
-96
-96
-80
-94
-114
-182
-358
-66
1171
2076
1172
-417
-775
-262
-82
-168
-130
-100
-121
-94
-68
-69
-50
-23
-6
17
47
79
121
176
235
287
321
337
336
304
234
146
64
-6
-68
-117
-148
-166
-174
-172
-164
-155
-148
-143
-136
-125
-117
-120
-127
-129
-136
-147
-143
-118
-87
-60
-47
-54
-73
-94
-99
-85
-84
-90
-67
-64
-91
-122
-276
-273
634
1898
1700
95
-816
-452
-76
-128
-144
-89
-100
-92
-61
-59
-48
-22
-5
20
52
78
111
160
213
265
306
327
329
309
253
167
81
10
-54
-114
-158
-177
-184
-196
-202
-191
-174
-166
-161
-148
-140
-142
-141
-139
-149
-155
-138
-115
-96
-80
-78
-90
-109
-126
-122
-111
-120
-118
-103
-118
-134
-222
-409
-44
1221
1928
809
-720
-894
-314
-121
-171
-133
-117
-122
-86
-64
-58
-31
-8
10
38
70
108
162
223
285
344
382
397
391
353
279
188
96
9
-61
-110
-140
-156
-159
-159
-157
-151
-139
-128
-122
-123
-118
-103
-96
-101
-100
-89
-77
-59
-42
-41
-53
-68
-80
-80
-83
-95
-74
-56
-91
-103
-190
-367
118
1454
1896
435
-1060
-991
-321
-124
-132
-81
-82
-82
-41
-35
-35
-8
11
29
66
100
134
194
272
339
392
433
456
448
391
297
194
94
-2
-77
-123
-157
-181
-192
-195
-197
-192
-181
-168
-158
-151
-150
-156
-161
-155
-136
-113
-91
-77
-77
-89
-108
-125
-123
-124
-134
-119
-118
-149
-170
-312
-400
393
1801
1884
242
-957
-672
-164
-160
-197
-141
-148
-142
-100
-94
-90
-65
-46
-28
5
42
83
133
194
259
307
333
346
335
279
194
107
25
-54
-115
-152
-173
-186
-196
-203
-202
-192
-183
-182
-177
-164
-164
-177
-173
-146
-113
-81
-55
-52
-69
-89
-99
-93
-92
-103
-90
-75
-101
-135
-260
-367
295
1730
2165
753
-636
-594
-121
-117
-184
-114
-115
-138
-106
-94
-95
-76
-56
-33
7
45
72
108
170
239
289
320
337
330
280
190
97
27
-33
-101
-154
-177
-182
-183
-181
-182
-181
-175
-166
-154
-140
-132
-127
-117
-120
-133
-126
-97
-69
-43
-22
-25
-51
-77
-83
-73
-77
-87
-72
-77
-110
-159
-322
-239
820
2141
1844
150
-751
-392
-89
-190
-197
-136
-157
-145
-105
-106
-96
-62
-43
-24
8
43
84
137
194
244
287
314
322
301
242
155
69
-9
-80
-140
-177
-199
-209
-213
-217
-220
-216
-204
-188
-177
-171
-160
-143
-138
-142
-134
-131
-148
-151
-128
-101
-77
-55
-50
-68
-93
-107
-96
-86
-96
-86
-73
-97
-122
-233
-352
270
1705
2208
836
-617
-651
-172
-131
-197
-138
-131
-139
-98
-79
-74
-51
-35
-14
29
68
99
144
206
271
325
363
382
378
338
257
156
66
-6
-73
-130
-160
-172
-184
-196
-195
-184
-170
-161
-154
-142
-129
-127
-125
-113
-100
-91
-92
-104
-112
-110
-115
-131
-134
-117
-91
-69
-58
-64
-86
-104
-93
-81
-96
-88
-59
-85
-98
-128
-290
12
1299
2158
1034
-748
-1100
-454
-143
-156
-110
-89
-104
-74
-49
-45
-23
2
17
44
84
124
167
224
296
367
420
453
467
444
372
269
164
66
-21
-88
-135
-164
-181
-195
-206
-208
-201
-194
-183
-165
-148
-142
-136
-123
-118
-123
-122
-116
-120
-137
-152
-153
-144
-126
-99
-77
-75
-88
-105
-111
-97
-91
-102
-92
-81
-102
-109
-185
-279
314
1698
2210
869
-612
-681
-185
-133
-216
-159
-142
-151
-115
-97
-96
-75
-60
-48
-20
9
39
87
146
204
262
309
337
343
315
243
150
65
-12
-80
-131
-161
-176
-184
-191
-199
-205
-207
-203
-191
-177
-167
-158
-146
-130
-118
-113
-112
-107
-102
-111
-130
-137
-126
-110
-84
-52
-38
-51
-71
-82
-76
-66
-72
-72
-58
-69
-87
-139
-255
100
1374
2334
1461
-217
-700
-234
-75
-195
-158
-111
-134
-113
-84
-81
-59
-36
-25
-2
31
60
96
148
209
268
313
343
357
338
274
184
90
4
-70
-124
-161
-184
-195
-201
-208
-216
-221
-218
-209
-197
-182
-169
-156
-144
-140
-140
-137
-131
-126
-122
-120
-123
-126
-136
-148
-142
-118
-92
-62
-37
-39
-62
-79
-80
-69
-69
-76
-57
-43
-58
-64
-167
-221
522
1887
2098
623
-613
-500
-95
-116
-165
-106
-110
-115
-79
-67
-59
-37
-20
-5
17
41
73
116
172
241
304
344
369
381
354
279
180
86
0
-73
-128
-165
-187
-198
-207
-208
-197
-187
-181
-169
-156
-143
-128
-118
-118
-114
-103
-96
-95
-94
-92
-88
-84
-82
-82
-84
-86
-85
-85
-87
-98
-115
-114
-88
-54
-22
-4
-12
-35
-54
-60
-50
-50
-64
-51
-47
-80
-86
-170
-233
475
1811
1960
371
-926
-737
-195
-129
-159
-109
-118
-119
-81
-70
-64
-40
-26
-11
14
37
68
118
176
237
298
349
380
389
368
306
216
123
36
-46
-116
-163
-187
-198
-205
-211
-208
-194
-181
-172
-163
-151
-141
-131
-118
-110
-113
-116
-117
-129
-153
-160
-142
-116
-95
-85
-87
-95
-111
-123
-116
-109
-115
-99
-92
-120
-133
-234
-337
321
1714
2055
589
-776
-695
-193
-147
-191
-128
-126
-133
-92
-71
-59
-30
-9
11
44
83
128
186
251
323
395
448
475
474
435
353
249
148
56
-29
-94
-131
-148
-154
-160
-167
-171
-166
-154
-143
-132
-121
-111
-103
-93
-81
-71
-65
-62
-62
-63
-64
-65
-72
-83
-90
-86
-71
-46
-23
-15
-23
-42
