# session 2
96
95
74
153
303
352
339
368
356
265
196
142
59
35
73
58
19
50
66
-15
-91
-71
-40
-68
-86
-86
-114
-116
-169
-247
362
1734
2106
571
-953
-948
-392
-245
-216
-184
-277
-289
-178
-150
-180
-161
-139
-132
-109
-84
-35
48
78
33
24
67
92
127
207
267
297
345
378
380
395
407
378
310
203
82
-7
-91
-177
-193
-160
-180
-249
-287
-298
-335
-354
-302
-281
-316
-296
-312
-179
788
1978
1473
-472
-1384
-777
-284
-350
-351
-281
-276
-215
-178
-226
-225
-189
-206
-208
-152
-112
-106
-94
-80
-71
-36
14
16
-14
20
126
206
223
229
221
151
61
11
-61
-184
-240
-187
-137
-133
-126
-122
-142
-157
-160
-191
-205
-151
-136
-177
-212
-351
-163
1147
2494
1760
-266
-953
-245
172
76
98
198
173
123
157
224
243
219
156
31
-66
-61
-61
-112
-102
-35
-5
-5
-22
-66
-69
-9
46
76
82
34
-36
-98
-175
-212
-184
-201
-215
-92
-10
-127
-200
-133
-188
-326
-282
-201
-252
-266
-372
-542
306
2146
2511
557
-1054
-844
-269
-162
-91
-122
-306
-288
-177
-237
-307
-278
-252
-219
-155
-130
-133
-97
-52
-33
-1
39
45
65
129
169
180
239
305
275
199
201
224
141
68
152
255
249
254
308
286
216
203
197
153
98
27
-8
-82
-203
357
1766
2142
440
-1167
-980
-302
-281
-365
-293
-384
-502
-426
-289
-234
-243
-261
-243
-205
-188
-185
-188
-187
-145
-95
-103
-126
-102
-70
-80
-90
-28
63
74
29
11
-33
-129
-180
-199
-225
-160
-39
-60
-169
-161
-94
-132
-212
-209
-212
-290
-307
-335
-400
276
1832
2344
764
-830
-776
-191
-138
-214
-175
-186
-170
-109
-90
-56
8
33
45
78
92
101
149
229
311
375
407
413
411
411
405
417
491
572
543
445
396
314
92
-109
-133
-98
-103
-90
-98
-210
-321
-319
-292
-303
-267
-227
-284
-304
-282
-284
306
1639
1985
351
-1242
-1098
-361
-242
-336
-272
-246
-272
-255
-230
-227
-234
-231
-202
-172
-167
-158
-107
-55
-63
-108
-116
-76
-33
-23
-19
16
40
-8
-64
-73
-112
-206
-241
-190
-147
-148
-144
-129
-158
-229
-249
-213
-215
-233
-194
-171
-172
-161
-233
22
1223
2329
1605
-118
-646
-68
214
133
189
252
219
227
234
184
154
160
173
166
76
-61
-96
-34
-3
4
31
1
-93
-113
-40
-27
-78
-63
11
41
21
6
10
9
-18
-35
-15
-46
-171
-249
-196
-163
-217
-230
-221
-258
-287
-415
-350
808
2350
1984
-66
-1097
-586
-173
-254
-255
-183
-153
-101
-81
-98
-109
-155
-200
-177
-148
-165
-162
-119
-103
-118
-100
-61
-61
-78
-59
-13
41
100
131
104
62
55
59
50
53
70
72
54
37
44
63
60
51
45
26
62
79
-92
138
1376
2261
1167
-602
-945
-376
-209
-260
-153
-129
-198
-189
-178
-224
-240
-182
-102
-79
-113
-109
-57
-53
-78
-49
-25
-60
-84
-95
-135
-111
10
74
28
-17
-29
-45
-44
-22
-12
-7
-11
-65
-154
-202
-200
-207
-212
-186
-187
-193
-156
-219
-124
792
1865
1400
-250
-1000
-563
-247
-323
-304
-225
-222
-188
-129
-105
-86
-73
-75
-44
22
91
146
142
78
73
158
204
180
197
264
305
338
417
485
476
417
356
310
276
226
147
62
-24
-128
-230
-273
-252
-229
-221
-243
-324
-386
-433
-464
111
1508
2090
564
-1297
-1374
-474
-139
-194
-135
-124
-193
-194
-182
-185
-157
-139
-139
-122
-117
-125
-97
-54
-41
-60
-85
-75
-42
-38
-40
4
45
49
77
131
128
56
-20
-66
-107
-144
-149
-137
-134
-121
-128
-208
-246
-182
-187
-239
-237
-344
-61
1399
2700
1775
-223
-783
-220
-29
-112
-39
-33
-93
-50
44
125
157
137
162
230
242
229
253
276
255
185
82
0
-48
-107
-170
-177
-117
-41
7
1
-54
-101
-106
-121
-166
-152
-83
-103
-209
-248
-231
-246
-231
-190
-238
-267
-240
-354
-103
1192
2260
1307
-549
-1030
-427
-191
-305
-270
-219
-243
-238
-240
-246
-186
-126
-126
-113
-75
-85
-98
-34
12
-55
-142
-150
-123
-126
-131
-88
-34
-31
-35
-5
9
-2
0
16
37
52
26
-25
-37
-14
-8
15
70
56
21
45
-60
49
1208
2539
1988
98
-661
-96
242
141
161
183
69
-2
-48
-162
-244
-240
-222
-199
-152
-136
-171
-208
-237
-246
-227
-247
-307
-302
-258
-265
-247
-147
-81
-94
-103
-97
-112
-126
-114
-102
-125
-184
-209
-184
-212
-287
-279
-246
-257
-249
-399
-445
647
2276
1998
-120
-1246
-696
-174
-178
-136
-37
16
65
-2
-130
-135
-76
-57
-32
18
59
77
79
82
97
101
93
93
103
118
164
251
314
286
214
185
191
173
154
191
244
229
180
184
200
150
117
149
106
21
8
-101
53
1199
2254
1301
-696
-1265
-570
-225
-298
-257
-234
-282
-250
-218
-234
-215
-188
-192
-172
-136
-129
-110
-83
-116
-171
-175
-172
-198
-212
-209
-191
-114
-33
-50
-131
-167
-147
-129
-126
-115
-104
-131
-180
-202
-214
-234
-205
-157
-192
-224
-234
-377
-90
1303
2433
1435
-487
-973
-386
-203
-330
-273
-208
-195
-144
-127
-134
-93
-53
-41
-27
-13
5
24
49
120
199
182
112
113
169
217
294
408
475
474
452
395
301
268
307
310
251
167
42
-87
-160
-194
-198
-172
-167
-199
-349
-509
78
1513
1963
378
-1194
-994
-232
-178
-305
-221
-237
-312
-270
-246
-288
-285
-239
-211
-198
-165
-118
-114
-164
-174
-125
-124
-177
-188
-158
-127
-56
52
113
89
27
-21
-26
-12
-10
13
63
30
-123
-255
-274
-258
-241
-189
-182
-221
-172
-219
-319
461
1995
2136
330
-1018
-714
-161
-148
-165
-99
-113
-95
-34
-18
-3
25
45
104
185
216
232
299
359
333
281
301
352
369
412
508
538
471
390
282
148
78
35
-54
-86
-28
-26
-92
-128
-159
-202
-205
-180
-174
-212
-264
-270
-306
-225
553
1618
1358
-238
-1170
-784
-312
-273
-241
-177
-207
-214
-199
-239
-244
-175
-136
-128
-91
-92
-152
-150
-69
-40
-84
-114
-102
-86
-81
-49
29
65
1
-57
-58
-91
-167
-188
-167
-172
-189
-204
-235
-262
-281
-306
-285
-258
-322
-336
-258
-349
-170
991
2000
1175
-435
-762
-180
23
-3
129
158
88
144
237
261
278
292
288
294
298
305
309
217
41
-40
-5
-2
-31
-13
14
12
20
49
79
104
84
4
-30
41
81
0
-94
-135
-156
-172
-190
-195
-174
-194
-203
-170
-311
-172
1088
2305
1424
-538
-1047
-383
-159
-289
-227
-195
-229
-159
-105
-104
-59
-19
-18
12
52
47
15
-34
-107
-163
-192
-231
-257
-233
-189
-148
-91
-19
16
-12
-49
-44
-24
-11
10
3
-70
-115
-86
-123
-203
-123
-13
-44
-22
-21
-81
651
2090
2164
383
-872
-502
83
113
54
37
-60
-152
-198
-211
-182
-147
-120
-84
-66
-67
-58
-64
-96
-103
-76
-77
-121
-163
-171
-145
-89
-38
-46
-70
-48
-29
-36
-10
16
-26
-87
-139
-197
-207
-172
-161
-182
-228
-226
-220
-431
-294
1101
2475
1584
-554
-1179
-418
-27
-98
-44
-16
-107
-143
-153
-183
-158
-95
-67
-71
-54
-1
32
-2
-32
-3
15
-19
-37
-3
57
125
172
176
152
126
102
81
92
159
232
246
210
167
132
98
81
99
84
16
22
-32
-221
263
1641
2037
408
-1185
-1074
-383
-236
-271
-230
-249
-246
-198
-206
-209
-149
-88
-63
-47
-22
-10
-24
-18
1
-45
-126
-145
-144
-182
-160
-46
17
-14
-34
-18
-21
-37
-29
-3
22
10
-62
-127
-121
-122
-159
-136
-95
-116
-130
-231
-250
635
2033
1880
11
-1103
-639
-183
-313
-352
-246
-236
-218
-190
-218
-203
-125
-63
-21
1
5
20
31
24
30
28
-9
-13
51
132
234
356
391
307
242
248
237
193
182
224
259
201
42
-94
-138
-162
-194
-198
-190
-171
-228
-404
-55
1266
2102
922
-870
-1127
-394
-110
-160
-104
-106
-155
-130
-139
-177
-153
-118
-104
-101
-126
-123
-80
-91
-136
-141
-144
-163
-151
-114
-50
50
116
108
82
63
21
-30
-43
-11
18
14
-16
-89
-207
-296
-328
-321
-266
-248
-318
-343
-415
-460
386
1943
2090
327
-947
-624
-130
-180
-227
-166
-174
-160
-115
-110
-90
-24
36
67
105
185
252
243
232
299
361
338
307
312
305
298
296
246
164
115
88
46
-14
-51
-11
63
60
-26
-106
-114
-88
-116
-160
-132
-123
-179
-185
-254
-246
583
1816
1580
-156
-1144
-722
-293
-344
-343
-291
-342
-334
-263
-244
-238
-202
-165
-137
-114
-90
-62
-41
-25
-9
-7
-10
9
59
127
180
181
121
19
-65
-78
-76
-118
-126
-64
-42
-101
-164
-193
-195
-182
-172
-144
-119
-140
-138
-193
-362
125
1621
2326
920
-721
-732
-71
91
80
166
170
163
199
183
158
194
248
257
207
158
153
127
40
-33
-60
-84
-117
-143
-164
-163
-128
-86
-71
-83
-102
-114
-113
-109
-112
-129
-179
-262
-313
-309
-324
-348
-319
-327
-359
-333
-484
-492
695
2309
1925
-180
-1205
-635
-180
-264
-266
-192
-209
-207
-178
-163
-143
-150
-164
-95
22
65
29
9
25
4
-61
-107
-109
-77
-4
68
75
33
4
8
20
8
-13
1
31
30
-5
-36
-43
-59
-92
-65
-24
-72
-85
-93
-219
216
1579
2250
1035
-411
-467
58
180
134
150
145
153
161
109
30
-61
-135
-140
-112
-86
-54
-32
-34
-37
-50
-74
-88
-96
-103
-84
-26
25
23
-2
-4
-14
-43
-31
2
-28
-97
-139
-162
-190
-225
-225
-168
-176
-280
-302
-365
-470
304
1924
2203
419
-1002
-736
-201
-228
-265
-182
-174
-146
-84
-80
-106
-147
-179
-143
-84
-78
-91
-75
-50
-52
-70
-66
-55
-64
-36
60
121
92
54
54
43
14
16
50
62
50
47
22
-37
-51
2
62
67
37
77
48
-162
260
1762
2518
1073
-694
-779
-125
-36
-186
-168
-150
-194
-235
-234
-175
-135
-142
-136
-131
-140
-120
-94
-111
-128
-125
-157
-203
-179
-104
-49
-7
9
-61
-147
-150
-141
-174
-160
-105
-119
-167
-179
-197
-235
-254
-244
-211
-216
-247
-206
-313
-494
314
2032
2276
330
-1142
-748
-92
-117
-189
-137
-193
-222
-178
-187
-197
-138
-74
-41
-19
-6
-4
9
44
65
39
-12
-26
25
92
140
189
221
172
83
67
107
116
115
165
218
198
136
119
133
101
64
82
70
19
-31
-178
29
1247
2318
1422
-452
-1004
-451
-216
-276
-206
-182
-228
-196
-169
-186
-168
-132
-119
-105
-70
-32
-18
-22
-12
-2
-31
-78
-87
-60
-25
9
26
21
23
15
-43
-89
-46
19
13
-20
-32
-65
-115
-126
-111
-101
-97
-114
-114
-153
-300
35
1298
2126
1120
-435
-716
-257
-174
-271
-228
-241
-308
-295
-253
-220
-189
-185
-185
-149
-112
-96
-68
-37
-38
-49
-45
-40
-29
19
91
151
173
135
75
51
40
17
29
70
67
21
-13
-18
-15
-29
-34
-11
-30
-51
-59
-272
-248
948
2313
1631
-422
-1198
-567
-184
-257
-223
-175
-206
-181
-152
-165
-148
-114
-105
-94
-64
-46
-52
-56
-42
-31
-40
-60
-75
-45
33
71
40
6
-14
-40
-57
-67
-79
-66
-43
-62
-110
-144
-153
-172
-208
-193
-141
-165
-198
-198
-297
-12
1241
2158
1008
-941
-1297
-472
-105
-170
-99
-46
-86
-58
-17
-9
50
120
117
83
62
49
49
57
55
57
62
46
44
85
136
172
180
144
76
19
1
20
46
56
58
45
-11
-73
-76
-62
-84
-93
-92
-111
-112
-216
-273
532
1966
2039
301
-956
-616
-70
-102
-167
-114
-134
-125
-61
-70
-101
-60
-13
-44
-90
-64
-4
13
2
12
26
7
-17
17
101
157
151
115
77
31
-17
-45
-42
-23
-4
7
-11
-70
-121
-132
-143
-150
-130
-156
-197
-205
-344
-213
980
2244
1551
-392
-1091
-485
-168
-293
-282
-231
-253
-227
-197
-206
-185
-150
-137
-117
-85
-64
-50
-37
-29
-28
-35
-42
-29
9
59
100
102
57
6
-18
-33
-59
-71
-58
-47
-53
-79
-121
-147
-166
-204
-209
-193
-225
-231
-293
-435
146
1646
2120
499
-1066
-913
-285
-261
-328
-238
-236
-238
-176
-160
-155
-112
-83
-64
-29
2
29
59
75
77
71
58
52
72
117
168
192
158
97
61
38
-1
-21
1
25
13
-38
-93
-104
-102
-129
-123
-100
-145
-173
-241
-410
96
1605
2309
957
-598
-646
-166
-179
-265
-186
-184
-213
-186
-173
-165
-137
-117
-97
-68
-47
-26
5
33
42
27
2
-1
33
95
160
190
174
143
119
88
60
66
91
92
72
38
-7
-32
-33
-34
-20
-18
-58
-74
-167
-321
224
1598
2080
770
-535
-478
-40
-45
-104
-49
-68
-87
-47
-31
-19
15
33
38
52
68
84
95
86
66
57
53
43
44
76
125
157
151
116
78
54
34
10
0
12
12
-30
-93
-125
-136
-165
-170
-148
-178
-202
-232
-434
-256
957
1922
948
-774
-1091
-434
-191
-274
-241
-231
-265
-235
-208
-209
-187
-164
-158
-145
-126
-114
-105
-97
-92
-94
-101
-103
-84
-39
13
31
-1
-49
-82
-114
-166
-204
-192
-171
-188
-230
-276
-309
-322
-340
-345
-319
-339
-369
-392
-599
-497
721
1893
1076
-726
-1156
-499
-247
-344
-297
-264
-288
-244
-197
-182
-152
-124
-101
-64
-30
-4
20
43
68
84
79
85
131
201
268
321
347
340
313
299
306
320
342
379
418
430
410
400
423
434
454
515
516
485
490
326
450
1768
3047
2162
418
120
