# session 28
-47
-66
-22
26
-62
-234
-289
-244
-235
-243
-226
-218
-220
-211
-206
-209
-208
-214
-225
-208
-168
-131
-101
-79
-92
-130
-146
-139
-140
-136
-124
-133
-126
-96
-120
-173
-268
-322
439
2217
3022
1434
-505
-677
-99
-104
-252
-173
-159
-192
-151
-132
-137
-111
-95
-90
-70
-52
-40
-16
10
31
59
96
137
179
219
253
284
312
335
329
276
189
97
8
-72
-132
-165
-180
-186
-186
-181
-174
-168
-165
-163
-160
-157
-152
-147
-141
-135
-131
-127
-121
-116
-113
-110
-109
-108
-105
-103
-104
-102
-101
-104
-108
-117
-130
-124
-89
-50
-18
3
-11
-52
-72
-67
-69
-67
-56
-69
-74
-49
-65
-117
-207
-291
334
2027
2999
1607
-399
-711
-109
-58
-226
-160
-139
-181
-142
-119
-132
-111
-92
-91
-74
-55
-44
-24
1
25
53
86
120
156
195
230
258
285
306
302
254
175
84
-7
-88
-148
-188
-210
-216
-216
-214
-207
-201
-197
-191
-185
-182
-178
-171
-165
-161
-156
-151
-148
-148
-144
-137
-135
-136
-133
-129
-132
-131
-125
-127
-135
-140
-149
-150
-124
-83
-44
-16
-19
-60
-92
-89
-88
-94
-83
-82
-90
-66
-65
-110
-177
-301
21
1477
2872
2086
-45
-835
-246
6
-183
-165
-105
-153
-134
-94
-107
-97
-69
-63
-53
-32
-15
3
26
51
82
115
148
183
221
258
295
327
351
356
325
254
163
70
-14
-80
-125
-153
-166
-169
-168
-164
-158
-148
-139
-134
-131
-130
-143
-159
-160
-146
-133
-122
-115
-113
-114
-113
-104
-94
-94
-93
-84
-89
-102
-87
-43
-4
25
35
5
-36
-41
-34
-44
-46
-54
-85
-83
-69
-116
-162
-255
-310
497
2187
2628
764
-1049
-981
-324
-296
-404
-341
-349
-373
-327
-304
-287
-234
-188
-160
-128
-94
-55
-11
25
54
86
128
180
236
287
329
364
397
417
402
340
251
153
55
-32
-97
-139
-162
-170
-169
-164
-155
-146
-141
-135
-124
-115
-107
-102
-100
-100
-98
-96
-98
-99
-100
-102
-101
-101
-113
-124
-112
-80
-41
-5
2
-35
-75
-82
-83
-91
-82
-82
-95
-73
-67
-112
-149
-251
-120
1065
2648
2376
277
-932
-462
-13
-155
-197
-118
-155
-160
-117
-122
-122
-95
-83
-74
-56
-40
-22
0
22
51
84
119
158
202
240
268
294
318
323
288
213
118
22
-66
-138
-188
-216
-229
-234
-236
-234
-228
-217
-207
-200
-194
-184
-175
-172
-166
-156
-151
-150
-146
-143
-143
-142
-146
-157
-150
-116
-71
-30
-15
-49
-98
-110
-107
-116
-111
-102
-114
-103
-86
-119
-158
-260
-242
742
2455
2675
743
-808
-567
-38
-142
-231
-143
-165
-185
-137
-133
-137
-109
-94
-83
-61
-45
-30
-6
19
46
80
115
153
195
235
266
293
319
330
304
234
140
44
-43
-116
-167
-198
-212
-215
-215
-214
-208
-200
-193
-186
-177
-168
-160
-154
-149
-142
-138
-137
-134
-129
-131
-131
-130
-137
-145
-129
-90
-41
-6
-11
-57
-94
-97
-98
-103
-92
-93
-103
-79
-73
-116
-169
-283
-29
1332
2792
2173
30
-913
-348
-12
-187
-194
-128
-172
-163
-123
-129
-117
-90
-87
-75
-48
-30
-14
10
35
64
98
137
180
219
252
282
310
332
336
299
217
119
26
-60
-131
-175
-197
-211
-218
-217
-211
-203
-195
-190
-184
-175
-166
-163
-158
-150
-144
-142
-139
-137
-137
-137
-133
-129
-128
-134
-145
-141
-108
-56
-12
0
-32
-76
-92
-92
-100
-97
-92
-107
-98
-76
-105
-143
-242
-270
613
2347
2765
928
-761
-630
-54
-113
-222
-139
-150
-174
-134
-133
-140
-110
-96
-87
-59
-39
-28
-8
16
39
72
111
147
184
225
265
295
319
335
319
253
162
71
-21
-105
-159
-190
-212
-221
-216
-211
-210
-203
-191
-180
-174
-168
-158
-150
-147
-141
-134
-135
-143
-142
-134
-126
-124
-126
-128
-122
-121
-136
-136
-101
-55
-18
-3
-34
-85
-101
-98
-106
-101
-94
-103
-82
-73
-117
-137
-214
-175
847
2510
2523
425
-1086
-718
-95
-129
-185
-105
-128
-143
-99
-95
-97
-74
-64
-53
-29
-11
7
35
66
95
127
166
212
258
300
336
365
388
400
375
300
196
89
-11
-97
-156
-190
-212
-227
-231
-224
-212
-202
-193
-183
-170
-160
-152
-145
-140
-137
-136
-134
-135
-138
-138
-135
-136
-140
-138
-133
-140
-154
-143
-105
-61
-26
-19
-54
-95
-103
-101
-106
-96
-92
-104
-85
-78
-118
-160
-273
-118
1119
2681
2309
179
-959
-446
-18
-170
-205
-129
-165
-166
-124
-128
-122
-95
-87
-79
-59
-42
-23
2
25
50
84
123
165
206
246
279
306
330
338
305
228
133
38
-53
-128
-176
-201
-215
-224
-231
-234
-230
-220
-208
-197
-186
-176
-165
-155
-146
-139
-134
-129
-126
-125
-124
-122
-121
-119
-117
-118
-119
-125
-136
-128
-93
-50
-10
9
-21
-69
-83
-77
-85
-83
-75
-88
-80
-58
-88
-132
-228
-271
559
2322
2912
1175
-621
-612
-43
-95
-222
-136
-140
-172
-127
-118
-127
-101
-86
-82
-63
-43
-29
-9
15
38
68
104
143
183
224
262
292
317
334
321
263
174
77
-16
-95
-153
-189
-208
-216
-220
-219
-219
-218
-210
-199
-189
-179
-166
-156
-150
-142
-134
-130
-128
-126
-126
-125
-123
-121
-119
-117
-114
-112
-111
-106
-109
-126
-132
-103
-58
-19
9
3
-42
-76
-77
-78
-83
-73
-78
-88
-63
-66
-115
-185
-305
51
1553
2930
2075
-76
-838
-248
-14
-207
-190
-135
-181
-160
-119
-126
-116
-97
-92
-75
-51
-36
-18
6
28
53
84
119
163
210
251
283
311
336
343
311
234
134
34
-57
-128
-170
-189
-204
-217
-219
-211
-205
-204
-201
-193
-182
-170
-161
-154
-149
-146
-144
-139
-135
-133
-132
-128
-122
-118
-119
-117
-111
-109
-112
-112
-107
-103
-97
-97
-109
-112
-84
-39
-3
4
-27
-65
-75
-75
-85
-76
-66
-77
-64
-53
-95
-123
-206
-204
744
2445
2649
642
-981
-712
-81
-113
-190
-99
-112
-136
-97
-88
-85
-60
-52
-47
-24
-4
10
32
63
97
125
161
219
275
310
341
378
407
426
417
349
243
140
39
-61
-136
-180
-204
-215
-221
-228
-223
-207
-197
-198
-193
-177
-162
-157
-155
-150
-144
-144
-144
-139
-140
-147
-147
-143
-145
-147
-142
-139
-136
-132
-136
-147
-142
-116
-79
-40
-21
-50
-94
-106
-102
-114
-112
-102
-109
-95
-79
-117
-130
-181
-222
546
2144
2493
633
-1071
-893
-182
-115
-184
-109
-119
-139
-94
-83
-85
-60
-49
-45
-24
-3
14
38
62
90
129
174
216
263
316
362
399
435
453
423
345
247
142
31
-64
-131
-178
-207
-216
-221
-228
-223
-212
-207
-199
-182
-173
-169
-158
-147
-142
-135
-127
-128
-131
-129
-125
-126
-127
-128
-128
-124
-123
-122
-117
-119
-135
-135
-98
-50
-17
-8
-31
-67
-79
-77
-84
-80
-70
-82
-71
-45
-74
-118
-200
-223
583
2267
2798
1072
-695
-673
-75
-88
-204
-125
-129
-157
-114
-104
-112
-85
-70
-69
-53
-36
-24
-6
17
42
72
105
142
186
233
276
308
334
351
339
280
188
92
1
-84
-151
-190
-207
-216
-222
-225
-226
-224
-218
-211
-204
-195
-186
-178
-171
-165
-161
-155
-149
-147
-147
-145
-138
-128
-120
-115
-110
-108
-108
-107
-116
-131
-122
-86
-47
-14
0
-29
-75
-91
-87
-95
-95
-81
-86
-81
-51
-66
-123
-222
-242
552
2294
3046
1468
-433
-616
-92
-136
-288
-207
-205
-249
-207
-188
-198
-178
-168
-171
-155
-138
-127
-109
-88
-67
-41
-9
29
72
118
161
197
226
246
243
198
119
29
-59
-141
-201
-232
-246
-248
-244
-244
-246
-244
-242
-238
-224
-204
-191
-185
-184
-178
-158
-144
-97
71
295
412
451
509
501
363
224
159
111
63
33
6
-22
-52
-81
-87
-58
-23
-1
-3
-43
-95
-115
-118
-130
-130
-128
-147
-138
-117
-154
-211
-312
-290
678
2456
2842
968
-711
-593
-89
-201
-305
-212
-231
-257
-207
-200
-205
-176
-162
-156
-136
-119
-104
-82
-59
-34
-3
33
73
116
159
198
230
256
278
277
232
152
64
-23
-104
-166
-202
-219
-224
-225
-223
-219
-213
-204
-196
-187
-180
-172
-165
-157
-150
-145
-141
-137
-132
-128
-126
-124
-119
-115
-113
-110
-106
-102
-98
-94
-91
-93
-106
-111
-83
-33
11
34
20
-27
-59
-58
-59
-63
-52
-56
-63
-39
-47
-93
-159
-267
152
1702
2982
1982
-146
-794
-197
-11
-196
-162
-118
-167
-144
-113
-125
-107
-83
-80
-68
-47
-36
-21
4
30
54
83
119
162
204
239
268
296
321
329
304
241
152
57
-34
-107
-155
-180
-196
-203
-201
-198
-195
-188
-179
-173
-169
-159
-150
-146
-146
-144
-138
-133
-133
-135
-133
-128
-127
-127
-123
-119
-117
-118
-117
-113
-106
-105
-119
-134
-120
-75
-23
9
0
-46
-84
-87
-86
-90
-80
-83
-97
-74
-69
-111
-155
-260
-19
1327
2793
2150
-79
-1083
-474
-43
-163
-166
-102
-143
-136
-98
-105
-96
-71
-65
-50
-25
-12
4
32
61
87
118
157
205
255
299
331
356
384
406
389
316
211
102
0
-86
-150
-190
-212
-222
-226
-225
-220
-213
-206
-191
-170
-163
-170
-169
-158
-154
-153
-147
-142
-145
-145
-144
-151
-149
-135
-134
-144
-136
-133
-151
-148
-99
-45
-23
-40
-83
-113
-114
-115
-117
-103
-106
-117
-96
-103
-138
-144
-208
47
1340
2645
1838
-385
-1250
-537
-68
-163
-154
-95
-136
-119
-72
-80
-83
-57
-37
-26
-9
18
44
58
76
112
157
202
250
301
352
396
428
448
452
418
333
223
114
4
-92
-149
-183
-209
-216
-212
-221
-224
-205
-194
-198
-191
-171
-162
-161
-161
-159
-153
-144
-143
-148
-148
-144
-145
-148
-150
-155
-158
-145
-110
-66
-42
-56
-95
-125
-132
-128
-120
-114
-122
-114
-91
-115
-133
-144
-222
218
1664
2572
1233
-827
-1186
-401
-91
-169
-121
-94
-123
-90
-70
-77
-53
-32
-29
-12
11
28
52
77
100
134
177
218
263
322
379
417
441
456
444
388
296
190
80
-31
-120
-166
-186
-206
-220
-219
-218
-220
-212
-200
-193
-186
-177
-169
-161
-150
-142
-143
-145
-141
-138
-141
-138
-133
-139
-151
-150
-129
-92
-55
-45
-72
-110
-127
-129
-131
-127
-115
-117
-109
-103
-128
-128
-178
-226
499
2066
2495
728
-1018
-931
-215
-108
-183
-115
-115
-133
-95
-86
-90
-67
-54
-47
-32
-15
8
34
51
72
112
153
192
239
292
337
374
405
417
392
330
242
136
28
-58
-122
-174
-203
-201
-197
-206
-209
-206
-205
-198
-187
-180
-173
-164
-157
-148
-139
-139
-143
-139
-128
-126
-132
-131
-128
-136
-145
-131
-98
-60
-33
-38
-79
-110
-105
-104
-114
-104
-99
-108
-86
-83
-126
-148
-232
-81
1102
2597
2202
85
-1045
-524
-58
-165
-180
-101
-133
-133
-95
-99
-90
-62
-58
-52
-34
-24
-10
19
50
75
101
135
177
227
277
312
338
365
377
345
271
179
86
-5
-85
-143
-173
-189
-201
-202
-197
-195
-195
-192
-183
-178
-179
-171
-155
-152
-155
-146
-133
-130
-131
-132
-134
-133
-132
-135
-134
-130
-128
-123
-121
-137
-147
-121
-79
-50
-35
-40
-68
-92
-92
-92
-96
-81
-76
-92
-75
-64
-109
-151
-244
-118
1043
2686
2566
507
-851
-510
-56
-163
-206
-125
-152
-158
-115
-116
-116
-90
-81
-78
-63
-46
-31
-9
16
39
62
94
136
181
227
270
300
325
342
326
267
184
97
9
-71
-129
-164
-185
-191
-187
-185
-187
-186
-179
-173
-169
-164
-161
-155
-145
-141
-143
-136
-127
-123
-120
-114
-113
-113
-109
-108
-111
-108
-102
-103
-104
-96
-90
-89
-82
-78
-82
-82
-81
-93
-102
-79
-39
-6
19
20
-12
-44
-48
-47
-53
-45
-41
-58
-49
-31
-65
-114
-200
-119
905
2598
2831
963
-601
-466
-14
-128
-215
-128
-148
-171
-126
-119
-122
-101
-95
-95
-80
-68
-55
-35
-18
0
26
55
90
133
175
212
245
272
292
290
249
178
96
12
-67
-128
-166
-187
-196
-196
-192
-188
-186
-187
-185
-178
-173
-174
-174
-168
-163
-161
-157
-151
-144
-137
-132
-130
-124
-117
-119
-121
-116
-108
-108
-111
-110
-104
-100
-98
-96
-93
-90
-86
-81
-78
-78
-74
-68
-66
-64
-61
-73
-94
-88
-48
-1
31
35
5
-33
-43
-42
-52
-49
-41
-56
-51
-28
-57
-117
-206
-104
918
2592
2857
1048
-514
-424
-11
-144
-237
-150
-171
-194
-149
-144
-149
-123
-113
-111
-95
-81
-70
-52
-34
-14
12
44
80
120
161
202
236
262
284
290
259
190
108
30
-46
-111
-152
-173
-184
-183
-179
-178
-177
-173
-169
-166
-162
-158
-153
-146
-141
-138
-131
-121
-114
-108
-102
-96
-92
-89
-87
-85
-81
-78
-75
-72
-69
-65
-61
-56
-51
-47
-44
-43
-40
-36
-36
-37
-35
-33
-34
-28
-23
-33
-50
-45
-11
35
70
66
23
-14
-17
-16
-25
-18
-12
-28
-15
5
-38
-104
-195
-46
1101
2782
2811
839
-580
-337
35
-147
-214
-129
-168
-183
-137
-142
-146
-119
-112
-109
-92
-82
-72
-54
-36
-17
9
39
74
115
155
191
223
248
264
261
223
150
65
-22
-106
-174
-217
-240
-253
-258
-258
-256
-255
-255
-254
-250
-243
-237
-234
-229
-219
-212
-207
-200
-191
-188
-188
-186
-183
-181
-178
-176
-172
-165
-160
-159
-155
-148
-141
-136
-132
-128
-124
-120
-115
-109
-104
-96
-87
-93
-105
-95
-54
0
35
27
-16
-46
-42
-37
-41
-28
-19
-25
-2
10
-34
-91
-181
76
1411
2947
2487
375
-675
-185
127
-72
-78
9
-36
-31
21
21
28
59
72
82
104
