# session 15
1
0
-13
96
269
311
265
248
224
181
149
128
135
132
87
69
-66
-356
10
1268
1687
330
-881
-557
73
62
-34
43
50
35
54
45
52
67
49
73
142
170
171
188
198
197
210
210
174
110
23
-53
-64
-33
-32
-57
-45
-4
7
-24
-51
-69
-97
-104
-103
-117
-103
-254
-637
-357
1006
1674
388
-1014
-861
-205
-132
-219
-167
-159
-159
-135
-136
-95
-31
-33
-21
57
111
116
132
158
177
172
110
28
-1
-15
-67
-118
-144
-159
-149
-118
-88
-71
-85
-119
-140
-163
-172
-149
-171
-201
-212
-469
-601
357
1556
928
-879
-1378
-568
-106
-151
-109
-56
-84
-56
-13
-5
24
57
75
131
211
244
233
246
277
278
257
230
174
93
31
6
8
30
56
70
103
179
224
186
147
154
147
121
80
16
-18
-140
-372
-14
1087
1347
19
-1046
-641
-16
-43
-143
-80
-101
-111
-51
-71
-108
-55
-4
3
31
38
10
69
159
105
13
45
69
2
-32
-64
-163
-177
-61
-2
-18
-6
-30
-102
-86
-31
-71
-132
-142
-129
-121
-263
-348
303
1205
782
-628
-1002
-264
59
-159
-144
28
23
-65
-96
-34
62
48
-23
14
92
88
74
97
122
163
177
113
73
94
33
-96
-107
-9
17
-47
-50
25
20
-53
-28
12
-66
-110
-56
-55
-107
-275
-482
-8
1093
1163
-211
-1085
-605
-74
-106
-129
-11
39
51
17
-56
-24
71
74
57
110
129
109
148
163
104
115
180
150
73
40
7
-23
-15
-33
-78
-52
12
0
-39
-23
-39
-114
-87
2
-30
-87
-172
-425
-219
853
1309
56
-1198
-897
-117
-2
-106
-21
36
-12
-73
-64
26
68
54
123
184
113
68
131
171
179
214
210
137
76
74
77
10
-62
-38
-32
-88
-8
157
138
4
-40
-38
-15
22
-30
-57
-52
-314
-342
633
1472
636
-725
-795
-172
-48
-147
-58
-14
-54
-13
25
-14
-6
57
67
70
155
222
177
112
122
172
175
110
38
20
31
-20
-141
-205
-151
-100
-133
-152
-98
-77
-148
-232
-234
-153
-138
-260
-256
-153
-433
-563
467
1431
445
-1213
-1288
-405
-75
-152
-159
-144
-75
-1
-45
-60
-11
-21
5
117
158
151
211
264
253
264
280
182
23
-14
31
-46
-171
-114
26
10
-71
-18
39
-66
-160
-95
-11
-2
-14
7
39
-157
-465
59
1356
1535
134
-814
-485
-50
77
182
90
-76
4
81
11
30
105
81
71
130
137
111
157
206
173
154
179
129
15
-43
-45
-44
-27
3
-1
-43
-71
-37
10
-20
-86
-53
31
-14
-124
-163
-349
-567
62
1322
1372
-82
-963
-471
27
-88
-212
-158
-111
-101
-146
-156
-44
-9
-99
-73
14
12
63
83
-101
-129
99
82
-68
101
212
-41
-203
-193
-255
-121
214
204
-73
-84
54
3
-2
162
60
-259
-174
50
-284
-411
603
1469
717
-536
-732
-311
-109
-36
-15
-162
-239
-81
33
-75
-131
-6
-3
-70
123
229
-26
-28
288
243
35
86
-2
-186
-22
87
-113
-107
26
-141
-235
-45
-75
-250
-51
215
55
-255
-354
-251
-62
-104
-406
-189
707
1010
233
-429
-424
-333
-179
132
52
-307
-228
83
26
-158
-37
168
96
-51
62
216
154
123
213
207
155
131
59
27
77
64
11
4
-16
-41
4
58
55
29
18
7
-19
-34
-36
-26
1
-92
-267
8
703
762
-36
-544
-350
-160
-175
-109
-23
-18
-12
-29
-30
86
164
104
118
245
305
309
298
242
260
360
336
197
114
66
-2
-41
-51
-67
-56
1
52
65
38
-28
-93
-94
-43
14
25
-69
-222
-354
-390
-33
709
956
207
-622
-677
-328
-166
-199
-208
-128
-100
-163
-119
-10
-66
-129
6
127
97
68
86
112
154
144
53
-13
-36
-96
-162
-181
-189
-209
-218
-192
-127
-79
-98
-132
-150
-200
-233
-181
-154
-165
-142
-316
-540
34
1105
964
-442
-1194
-724
-188
-87
-86
-76
-63
5
51
30
44
125
166
155
219
336
349
290
294
343
359
310
214
145
111
35
-42
-47
-31
-2
74
111
74
57
42
-44
-125
-110
-48
-29
-40
-79
-335
-563
145
1464
1432
-202
-1236
-802
-199
-90
-95
-82
-63
-10
-27
-66
18
106
90
98
187
264
285
279
289
327
313
211
135
121
35
-110
-147
-105
-117
-123
-50
-1
-30
-53
-29
-7
-41
-98
-109
-126
-167
-195
-423
-635
161
1626
1612
-146
-1232
-727
-122
-138
-221
-178
-149
-123
-106
-79
-12
3
-24
34
135
163
178
225
221
181
188
166
63
1
9
-41
-143
-177
-155
-144
-132
-82
-25
-19
-53
-71
-83
-91
-91
-137
-159
-158
-418
-489
618
1923
1263
-629
-1159
-390
-63
-220
-145
-41
-120
-138
-57
-23
-27
3
69
120
153
200
225
216
241
256
192
138
111
11
-97
-94
-77
-130
-142
-77
-53
-82
-72
-46
-63
-83
-78
-77
-112
-169
-175
-259
-541
-287
1066
1991
904
-747
-912
-246
-91
-224
-179
-116
-114
-121
-136
-99
-35
-37
-56
-12
74
153
161
123
156
202
113
3
28
48
-48
-124
-124
-131
-128
-72
-13
11
5
-31
-65
-76
-69
-41
-33
-77
-145
-334
-461
239
1532
1583
36
-968
-524
-17
-88
-154
-90
-92
-102
-85
-70
-69
-71
-24
45
78
140
199
144
93
152
154
65
52
66
-26
-109
-94
-105
-147
-82
14
-16
-79
-41
7
-29
-74
-58
-33
-63
-106
-191
-454
-441
603
1780
1231
-436
-956
-316
-20
-152
-121
-51
-73
-68
-74
-84
-17
44
27
18
79
165
200
162
129
145
141
105
77
15
-74
-88
-73
-109
-122
-89
-63
-13
17
-53
-90
-30
-56
-142
-96
-46
-97
-130
-328
-539
213
1567
1432
-239
-1040
-446
-54
-192
-163
-55
-88
-80
-35
-43
-46
-37
-5
81
138
150
175
173
153
183
179
109
88
62
-36
-63
-32
-98
-151
-81
-58
-78
12
66
-48
-118
-66
-66
-103
-78
-76
-102
-154
-449
-591
364
1708
1372
-362
-1088
-451
-39
-174
-182
-91
-131
-146
-81
-57
-53
21
101
82
56
125
161
94
90
174
174
102
99
94
-17
-108
-70
-29
-66
-85
-46
-12
-10
-6
30
38
-65
-150
-74
-10
-128
-210
-161
-326
-538
150
1453
1453
-124
-1103
-607
-27
-59
-125
-40
-42
-94
-84
-56
-42
8
69
63
62
142
172
110
109
166
162
130
105
48
2
-5
-31
-61
-56
-42
-26
3
17
18
20
5
-13
-19
-40
-56
-41
-27
-38
-226
-537
-168
1068
1494
197
-985
-684
-75
-84
-134
-13
-46
-86
36
79
-38
-98
-27
49
78
116
173
167
91
63
111
136
110
79
30
-31
-49
-32
-36
-68
-87
-70
-43
-33
-22
-2
-10
-54
-101
-104
-59
-69
-127
-141
-364
-702
-53
1465
1571
-219
-1321
-698
-35
-53
-67
-10
-78
-70
9
-10
-32
30
74
55
73
155
189
150
150
195
182
120
85
61
15
-24
-36
-44
-53
-53
-56
-69
-58
-8
25
-6
-43
-33
-43
-90
-105
-132
-170
-164
-406
-778
-107
1519
1756
-7
-1231
-734
-81
-95
-157
-102
-121
-103
-29
-17
-33
-9
36
88
147
180
178
185
219
235
210
166
123
80
41
9
-26
-75
-108
-84
-38
-24
-26
-7
21
3
-70
-100
-41
-7
-34
-48
-88
-124
-182
-512
-574
617
1866
989
-972
-1368
-475
-55
-134
-83
0
-3
-21
-53
-37
42
87
113
163
185
203
265
305
298
289
265
217
169
99
25
7
-3
-64
-88
-24
7
-51
-78
-29
-7
-50
-84
-71
-69
-100
-113
-121
-132
-102
-269
-688
-339
1189
1884
409
-1165
-994
-244
-131
-198
-112
-101
-129
-101
-82
-65
-31
-24
-15
46
119
155
169
178
165
140
121
98
71
35
-18
-63
-90
-129
-153
-115
-58
-23
9
18
-21
-43
-6
-6
-82
-117
-83
-67
-107
-350
-698
-196
1367
2013
586
-891
-743
-112
-88
-202
-145
-124
-128
-117
-109
-53
-17
-61
-34
83
118
101
143
148
103
147
201
116
19
12
-24
-96
-88
-47
-62
-82
-64
-42
-13
28
44
21
-16
-55
-84
-48
10
-46
-130
-147
-425
-708
231
1918
1811
-199
-1231
-531
0
-174
-204
-81
-125
-165
-108
-55
-20
1
18
69
110
83
71
156
259
280
237
173
87
3
-24
-15
-46
-88
-60
-31
-72
-96
-71
-64
-47
11
6
-65
-100
-100
-86
-63
-121
-187
-194
-456
-607
480
1947
1384
-654
-1330
-511
-72
-173
-90
-5
-83
-82
-50
-75
-19
80
79
66
151
224
196
179
254
292
214
147
145
99
11
-20
-27
-77
-111
-80
-59
-86
-74
-8
-5
-67
-67
-15
-50
-162
-178
-104
-119
-159
-185
-453
-461
714
1916
1045
-886
-1277
-398
-22
-150
-103
-51
-130
-117
-28
-7
-13
20
69
110
144
163
180
223
269
268
225
172
106
34
-13
-31
-40
-59
-86
-97
-85
-88
-94
-48
8
-24
-97
-102
-97
-153
-157
-92
-111
-177
-307
-576
-240
1194
1985
618
-1092
-1076
-298
-108
-145
-57
-73
-115
-70
-54
-52
-24
-22
17
126
176
157
186
220
188
182
210
156
65
18
-56
-130
-86
-27
-76
-99
-37
-51
-113
-48
47
0
-79
-64
-54
-90
-108
-152
-192
-137
-265
-570
6
1589
2016
350
-1080
-771
-121
-125
-201
-109
-81
-74
-64
-89
-71
-24
-7
24
60
79
131
180
162
158
204
196
103
21
0
-3
-46
-108
-120
-80
-56
-65
-55
-18
3
-3
-25
-49
-53
-51
-51
-39
-53
-104
-232
-469
-253
942
1853
880
-773
-944
-159
23
-199
-154
-67
-118
-118
-79
-92
-89
-39
5
35
77
109
109
105
124
140
132
114
81
35
-3
-28
-47
-60
-67
-68
-60
-42
-18
0
3
-17
-48
-67
-79
-88
-73
-69
-97
-131
-321
-489
211
1512
1471
-172
-1112
-536
-1
-97
-128
-36
-72
-89
-44
-45
-43
-9
11
32
70
103
126
135
127
128
141
123
65
10
-12
-29
-63
-90
-94
-94
-98
-92
-73
-50
-30
-22
-37
-58
-72
-87
-85
-62
-73
-93
-163
-414
-354
664
1574
769
-761
-958
-221
10
-126
-71
-22
-73
-56
-19
-26
-14
13
26
45
78
109
122
118
126
147
143
107
73
47
13
-11
-8
-4
-26
-51
-50
-38
-28
-13
2
-4
-26
-42
-54
-74
-70
-56
-82
-95
-189
-499
-344
860
1641
495
-1033
-956
-150
1
-120
-39
-17
-65
-29
-4
-17
13
62
88
120
170
200
187
171
192
220
211
175
129
79
37
8
-9
3
21
-12
-68
-65
-15
18
26
25
9
-14
-37
-47
-22
-25
-72
-85
-258
-603
-155
1281
1662
46
-1267
-797
-43
-41
-114
-19
-58
-117
-93
-119
-167
-152
-125
-117
-95
-41
9
31
61
111
125
96
67
30
-25
-56
-56
-58
-64
-67
-72
-64
-37
-19
-1
34
34
-15
-44
-46
-53
-41
-40
-63
-86
-349
-680
31
1604
1728
-82
-1231
-646
-11
-88
-149
-54
-64
-71
-28
-18
-1
40
63
87
135
181
203
198
190
202
211
185
136
82
21
-35
-57
-51
-49
-66
-86
-92
-77
-51
-25
-3
-7
-43
-68
-74
-90
-85
-77
-115
-126
-273
-650
-293
1278
2027
483
-1212
-1042
-221
-85
-156
-67
-64
-95
-52
-27
-17
25
67
101
147
197
240
258
252
259
279
264
199
121
48
-20
-60
-70
-74
-76
-73
-78
-81
-66
-42
-21
-22
-71
-118
-118
-128
-149
-126
-125
-147
-197
-486
-547
556
1811
1075
-881
-1434
-598
-114
-154
-110
-64
-96
-59
-26
-39
-1
63
85
120
193
250
273
290
302
295
263
197
122
66
4
-73
-112
-107
-102
-102
-93
-86
-82
-73
-44
-17
-48
-105
-113
-110
-134
-122
-106
-139
-178
-356
-480
303
1612
1411
-425
-1435
-811
-155
-127
-125
-46
-54
-42
-6
-1
23
65
101
152
213
257
293
324
332
314
276
213
135
69
4
-76
-129
-129
-124
-135
-126
-93
-68
-57
-40
-23
-40
-80
-99
-115
-143
-131
-111
-137
-145
-232
-370
184
1472
1711
133
-1210
-910
-189
-77
-135
-81
-79
-75
-23
-17
-30
12
75
109
148
220
267
258
254
278
265
187
100
46
-1
-59
-92
-100
-119
-138
-125
-97
-80
-62
-39
-30
-51
-90
-115
-129
-147
-147
-138
-155
-168
-276
-458
-2
1325
1899
572
-952
-932
-254
-114
-197
-137
-118
-138
-105
-85
-84
-61
-34
-2
51
104
137
146
149
162
161
127
88
51
-12
-81
-114
-123
-132
-139
-133
-113
-84
-50
-11
15
0
-28
-42
-68
-88
-65
-62
-91
-136
-312
-304
570
1651
1270
-226
-815
-296
-4
-121
-107
-53
-98
-81
-38
-55
-59
-33
-18
1
35
64
84
91
92
103
107
78
31
1
-12
-26
-52
-79
-93
-95
-98
-101
-92
-65
-20
30
49
22
-10
-17
-40
-72
-56
-48
-87
-129
-313
-438
366
1763
1712
-15
-1027
-500
-10
-131
-164
-63
-89
-103
-63
-69
-70
-38
-11
18
66
118
159
172
163
159
146
103
45
-7
-51
-80
-101
-122
-133
-129
-131
-144
-147
-122
-80
-37
-10
-23
-66
-92
-97
-106
-93
-78
-113
-140
-292
-623
-232
1281
1988
531
-1044
-860
-127
-88
-199
-101
-90
-118
-75
-65
-70
-30
4
28
82
142
174
185
190
195
193
163
107
50
3
-39
-73
-89
-88
-85
-85
-91
-101
-99
-75
-40
-3
23
10
-32
-50
-50
-68
-60
-40
-72
-103
-255
-604
-237
1367
2246
784
-1000
-936
-127
-12
-131
-46
-24
-58
-27
6
24
