# session 25
81
283
-178
150
1871
2415
487
-1118
-679
0
-119
-196
-79
-118
-141
-81
-84
-93
-60
-47
-40
-16
3
18
45
74
105
144
189
238
288
333
367
393
403
379
310
216
118
20
-72
-142
-185
-208
-221
-231
-236
-234
-229
-224
-217
-206
-196
-188
-179
-170
-164
-159
-154
-152
-153
-151
-147
-147
-149
-149
-146
-145
-143
-141
-144
-149
-156
-170
-172
-146
-112
-79
-43
-39
-78
-108
-109
-109
-99
-86
-97
-93
-74
-99
-120
-181
-230
510
2141
2635
839
-977
-881
-148
-97
-213
-124
-116
-153
-114
-92
-93
-73
-61
-51
-27
-8
8
35
67
105
151
195
242
297
348
385
417
437
422
360
271
171
67
-33
-108
-155
-182
-197
-203
-208
-210
-204
-193
-186
-180
-166
-152
-145
-140
-134
-130
-124
-119
-117
-114
-112
-109
-108
-110
-118
-123
-131
-146
-146
-117
-80
-49
-32
-48
-83
-97
-96
-96
-88
-90
-98
-77
-74
-107
-118
-191
-42
1090
2492
1998
-198
-1332
-693
-82
-139
-168
-91
-119
-122
-80
-81
-77
-51
-42
-31
-7
10
30
61
93
131
179
232
287
342
388
422
449
457
417
332
228
120
11
-83
-149
-190
-214
-226
-232
-237
-238
-233
-223
-213
-202
-190
-180
-171
-161
-152
-145
-140
-138
-134
-129
-131
-140
-142
-148
-163
-160
-130
-96
-64
-40
-53
-91
-105
-101
-102
-95
-91
-102
-86
-75
-106
-128
-215
-152
874
2437
2334
260
-1113
-652
-54
-144
-211
-118
-142
-156
-108
-109
-111
-79
-65
-57
-33
-11
5
29
60
95
136
183
233
283
329
363
387
394
366
293
196
98
1
-87
-151
-187
-205
-214
-218
-219
-218
-212
-202
-192
-182
-175
-166
-157
-151
-147
-142
-138
-134
-128
-127
-134
-137
-139
-154
-159
-134
-95
-61
-34
-40
-77
-100
-97
-97
-91
-83
-95
-90
-70
-91
-117
-189
-244
477
2084
2603
866
-929
-849
-125
-83
-211
-125
-116
-152
-110
-94
-105
-82
-63
-56
-34
-14
3
30
58
88
127
174
222
271
315
350
378
393
375
314
225
127
31
-60
-133
-177
-199
-210
-216
-217
-213
-206
-200
-192
-183
-175
-166
-157
-151
-148
-143
-136
-134
-131
-125
-128
-135
-136
-141
-156
-154
-124
-86
-50
-29
-49
-88
-100
-96
-96
-88
-85
-95
-78
-73
-108
-132
-235
-143
965
2500
2224
100
-1126
-579
-28
-143
-195
-108
-139
-151
-107
-107
-104
-75
-63
-52
-29
-11
10
37
64
95
136
180
227
275
315
346
373
387
360
290
199
103
6
-79
-140
-178
-197
-203
-207
-209
-205
-195
-185
-176
-169
-160
-151
-147
-142
-138
-135
-133
-131
-129
-126
-128
-134
-138
-146
-162
-159
-125
-85
-49
-29
-48
-89
-104
-100
-98
-89
-89
-98
-78
-74
-110
-133
-236
-138
991
2520
2202
59
-1144
-582
-36
-149
-194
-109
-140
-147
-102
-103
-100
-72
-61
-50
-26
-7
11
38
67
101
141
184
228
274
313
344
373
387
363
294
203
107
11
-76
-140
-176
-195
-205
-209
-209
-205
-197
-186
-177
-169
-161
-153
-147
-142
-138
-136
-136
-133
-132
-136
-138
-141
-155
-165
-147
-111
-75
-45
-44
-80
-110
-112
-112
-112
-105
-111
-106
-82
-103
-137
-190
-310
138
1667
2677
1378
-695
-1050
-281
-55
-208
-161
-121
-162
-132
-100
-111
-96
-68
-58
-43
-22
0
25
52
85
122
163
211
266
311
338
364
391
392
343
263
174
75
-26
-103
-148
-175
-191
-196
-200
-201
-193
-178
-165
-158
-152
-142
-129
-117
-109
-108
-110
-106
-103
-111
-117
-114
-121
-134
-124
-91
-61
-36
-34
-66
-97
-99
-99
-99
-92
-101
-101
-81
-100
-120
-160
-252
241
1713
2502
1024
-1000
-1217
-363
-74
-178
-132
-102
-135
-107
-85
-94
-76
-55
-47
-29
-7
11
37
68
102
143
190
239
291
339
379
409
430
420
361
267
164
60
-40
-120
-173
-204
-222
-231
-237
-239
-233
-223
-212
-199
-185
-174
-165
-156
-149
-144
-139
-137
-141
-143
-149
-163
-163
-138
-104
-69
-43
-57
-97
-113
-110
-112
-104
-97
-107
-94
-77
-104
-138
-248
-246
706
2352
2484
499
-1020
-671
-47
-126
-218
-124
-142
-168
-120
-112
-117
-90
-75
-64
-39
-18
1
27
53
83
123
166
212
260
301
330
355
369
346
281
193
98
5
-76
-137
-176
-195
-202
-205
-205
-202
-195
-185
-176
-170
-163
-157
-152
-145
-140
-138
-133
-131
-135
-136
-141
-157
-161
-133
-97
-62
-36
-45
-87
-108
-103
-105
-102
-96
-108
-101
-81
-106
-140
-232
-306
443
2119
2669
910
-898
-817
-114
-93
-223
-139
-137
-174
-127
-109
-117
-92
-73
-67
-46
-24
-7
17
46
78
118
162
207
252
294
328
355
373
359
300
211
117
21
-69
-135
-174
-193
-203
-209
-212
-212
-205
-194
-182
-171
-163
-156
-147
-140
-137
-134
-129
-125
-121
-117
-121
-128
-129
-137
-151
-143
-109
-69
-35
-26
-57
-91
-96
-95
-94
-82
-86
-93
-67
-70
-104
-151
-279
36
1476
2752
1787
-398
-1072
-345
-23
-192
-171
-109
-156
-140
-104
-112
-98
-72
-67
-53
-28
-11
9
37
64
98
141
187
232
275
312
342
366
371
334
258
167
72
-24
-105
-158
-189
-207
-213
-216
-218
-214
-203
-191
-182
-175
-167
-159
-153
-148
-143
-141
-138
-131
-127
-130
-130
-129
-135
-141
-147
-162
-166
-139
-99
-64
-39
-48
-85
-106
-107
-110
-103
-96
-108
-93
-75
-108
-135
-224
-251
639
2338
2624
661
-1008
-753
-83
-113
-210
-119
-130
-154
-103
-94
-98
-70
-59
-55
-28
-4
13
38
69
103
144
188
230
275
317
349
380
402
388
328
243
150
52
-39
-110
-156
-181
-191
-197
-199
-196
-187
-178
-170
-160
-151
-142
-136
-132
-128
-123
-123
-124
-122
-120
-122
-124
-122
-127
-133
-134
-144
-160
-152
-118
-81
-50
-42
-69
-98
-102
-102
-102
-94
-102
-105
-82
-90
-118
-152
-242
143
1567
2661
1525
-625
-1173
-389
-46
-187
-162
-109
-148
-126
-91
-98
-84
-58
-51
-37
-15
2
24
53
83
120
162
207
256
305
346
378
402
405
367
287
189
90
-7
-92
-151
-185
-203
-214
-222
-224
-219
-210
-201
-190
-178
-166
-157
-148
-140
-135
-132
-131
-130
-129
-128
-126
-124
-121
-118
-121
-125
-126
-135
-150
-144
-111
-73
-37
-20
-45
-85
-94
-90
-91
-82
-81
-91
-70
-64
-101
-128
-223
-67
1138
2640
2198
17
-1105
-510
-18
-157
-187
-100
-137
-141
-95
-100
-97
-66
-53
-42
-20
-5
14
43
72
103
143
190
239
285
323
354
380
394
372
305
213
117
22
-65
-130
-169
-191
-202
-207
-208
-206
-201
-190
-179
-170
-163
-156
-150
-145
-140
-135
-132
-129
-127
-126
-126
-124
-122
-123
-122
-119
-119
-122
-126
-139
-152
-137
-102
-63
-24
-14
-50
-85
-87
-85
-88
-80
-86
-92
-66
-73
-110
-147
-250
98
1542
2771
1751
-431
-1071
-339
-26
-192
-169
-112
-159
-141
-104
-113
-101
-75
-66
-52
-31
-15
9
39
67
99
139
184
230
277
317
349
374
385
357
282
182
83
-11
-94
-155
-188
-202
-209
-214
-218
-215
-204
-193
-187
-179
-169
-159
-149
-140
-138
-140
-140
-132
-122
-120
-125
-127
-122
-122
-122
-118
-114
-117
-125
-137
-139
-119
-85
-49
-17
-18
-56
-80
-74
-74
-76
-66
-73
-73
-52
-72
-97
-134
-205
342
1900
2751
1258
-832
-1112
-313
-60
-170
-119
-92
-126
-94
-74
-85
-64
-41
-35
-18
5
22
43
73
108
148
190
237
289
340
380
415
443
443
394
308
208
106
3
-87
-150
-189
-211
-223
-232
-235
-230
-221
-211
-203
-194
-184
-175
-169
-163
-154
-149
-146
-145
-142
-143
-145
-143
-140
-144
-152
-156
-167
-178
-162
-126
-91
-56
-42
-73
-109
-113
-108
-105
-93
-102
-114
-92
-94
-123
-158
-249
117
1543
2729
1715
-417
-1049
-356
-58
-206
-181
-141
-187
-152
-104
-113
-101
-74
-67
-56
-40
-23
10
50
78
100
135
186
238
283
321
353
378
388
354
277
191
101
-2
-88
-136
-168
-200
-214
-208
-200
-194
-187
-185
-187
-181
-166
-157
-158
-157
-150
-140
-129
-127
-136
-138
-126
-118
-122
-128
-140
-162
-169
-142
-102
-67
-35
-29
-57
-82
-86
-94
-99
-89
-91
-84
-60
-76
-96
-144
-235
330
1933
2785
1275
-762
-976
-212
-50
-202
-144
-107
-141
-115
-97
-103
-81
-60
-53
-32
-5
19
42
65
96
135
176
224
280
331
370
396
414
411
364
279
178
69
-37
-115
-161
-192
-214
-225
-228
-229
-225
-217
-211
-209
-200
-186
-177
-172
-164
-155
-151
-149
-144
-142
-145
-142
-138
-143
-149
-153
-165
-171
-151
-112
-71
-44
-55
-92
-107
-103
-105
-99
-91
-104
-93
-72
-96
-111
-174
-208
573
2173
2539
703
-987
-796
-102
-103
-217
-127
-125
-152
-110
-102
-109
-82
-64
-58
-39
-18
1
27
52
81
121
168
219
272
317
351
380
402
392
335
245
148
50
-43
-117
-164
-189
-201
-206
-208
-206
-199
-189
-180
-172
-164
-154
-148
-142
-134
-129
-128
-125
-122
-122
-122
-122
-122
-120
-120
-126
-129
-132
-145
-151
-128
-91
-56
-27
-30
-65
-86
-83
-84
-80
-71
-80
-74
-53
-77
-97
-151
-204
481
2083
2662
962
-876
-845
-120
-68
-202
-121
-111
-149
-107
-90
-100
-76
-54
-47
-27
-7
9
32
62
92
126
166
212
262
309
345
372
393
391
344
259
163
66
-32
-111
-162
-191
-206
-213
-216
-218
-212
-202
-193
-183
-173
-166
-159
-153
-148
-145
-139
-133
-132
-135
-135
-133
-133
-132
-132
-132
-130
-127
-128
-131
-134
-146
-157
-144
-109
-70
-38
-33
-64
-93
-95
-93
-91
-83
-92
-93
-65
-75
-102
-137
-236
193
1699
2764
1523
-590
-1016
-262
-35
-201
-153
-110
-156
-124
-85
-97
-89
-69
-59
-40
-18
-2
18
46
78
113
152
199
250
299
338
368
390
397
371
304
213
114
15
-70
-125
-156
-175
-187
-190
-188
-181
-170
-162
-158
-149
-137
-130
-126
-120
-117
-116
-113
-110
-112
-112
-109
-109
-111
-109
-106
-107
-109
-114
-116
-118
-127
-138
-130
-101
-66
-34
-29
-58
-84
-87
-88
-85
-77
-85
-82
-62
-82
-96
-117
-173
360
1819
2527
992
-991
-1143
-299
-61
-182
-127
-96
-134
-104
-79
-90
-73
-52
-45
-27
-5
12
35
65
95
132
178
232
285
334
377
412
439
443
399
310
207
105
1
-92
-153
-186
-204
-212
-216
-220
-217
-208
-200
-193
-184
-173
-163
-154
-147
-142
-137
-134
-134
-132
-131
-130
-129
-131
-134
-133
-134
-137
-139
-147
-158
-147
-114
-76
-45
-36
-59
-86
-90
-91
-90
-78
-83
-88
-66
-73
-101
-128
-215
140
1550
2717
1670
-481
-1075
-323
-15
-183
-153
-95
-145
-127
-87
-96
-83
-57
-51
-37
-10
9
30
57
85
118
157
201
250
302
347
378
400
406
377
303
205
105
6
-83
-146
-182
-201
-207
-209
-211
-209
-202
-195
-189
-180
-169
-162
-155
-148
-143
-141
-141
-139
-136
-134
-135
-135
-130
-123
-124
-133
-138
-139
-153
-163
-143
-104
-67
-37
-36
-73
-101
-99
-98
-96
-87
-98
-100
-76
-91
-115
-161
-254
269
1842
2766
1347
-709
-982
-222
-55
-218
-158
-121
-166
-136
-106
-113
-97
-74
-61
-41
-22
-4
23
51
81
120
161
201
248
297
342
376
394
395
367
296
195
90
-6
-85
-141
-176
-194
-200
-201
-202
-197
-187
-178
-170
-165
-160
-148
-135
-128
-126
-123
-119
-116
-114
-112
-112
-112
-111
-115
-120
-124
-136
-145
-126
-89
-57
-35
-39
-72
-95
-96
-97
-93
-88
-101
-92
-68
-92
-106
-142
-180
496
2025
2479
687
-1160
-1071
-242
-84
-177
-105
-96
-126
-89
-74
-83
-60
-40
-35
-18
3
22
48
77
108
149
197
248
302
357
401
433
456
452
396
299
192
84
-24
-114
-172
-206
-226
-237
-239
-239
-240
-236
-224
-210
-200
-193
-184
-174
-165
-157
-153
-150
-144
-139
-139
-138
-137
-140
-146
-157
-172
-167
-134
-96
-65
-47
-64
-97
-106
-100
-102
-94
-91
-100
-81
-71
-103
-122
-206
-115
955
2494
2295
204
-1069
-560
-16
-146
-202
-103
-136
-150
-100
-100
-100
-70
-58
-50
-27
-5
15
38
62
93
133
175
222
275
323
357
383
401
389
330
240
144
47
-45
-117
-161
-182
-192
-195
-195
-194
-190
-182
-173
-165
-158
-151
-144
-138
-136
-134
-130
-129
-131
-131
-128
-128
-135
-139
-145
-159
-160
-133
-97
-65
-43
-55
-93
-108
-105
-109
-104
-96
-104
-90
-78
-108
-126
-206
-206
702
2322
2475
503
-1036
-701
-67
-133
-223
-128
-147
-174
-129
-122
-123
-93
-83
-80
-53
-30
-17
4
32
62
101
145
189
238
286
319
339
360
358
306
220
128
34
-61
-135
-180
-203
-216
-221
-220
-215
-211
-205
-196
-186
-177
-165
-155
-149
-146
-143
-139
-132
-126
-123
-123
-124
-124
-123
-130
-144
-141
-113
-78
-47
-33
-56
-92
-100
-94
-92
-82
-84
-95
-71
-66
-98
-90
-140
-20
1056
2466
2013
-217
-1425
-782
-98
-100
-121
-52
-80
-75
-29
-32
-31
-6
8
22
43
59
84
119
153
185
224
272
328
385
432
468
502
517
488
414
317
209
96
-7
-87
-139
-171
-189
-201
-205
-203
-199
-194
-187
-178
-168
-160
-154
-147
-141
-139
-138
-137
-137
-136
-139
-149
-157
-160
-173
-185
-167
-131
-98
-80
-92
-127
-147
-148
-150
-146
-143
-158
-154
-142
-167
-187
-270
-296
532
2139
2444
579
-1067
-849
-185
-215
-335
-252
-261
-294
-255
-249
-260
-239
-230
-231
-215
-201
-192
-174
-154
-135
-107
-71
-31
9
44
72
