# session 9
0
-1
-12
31
115
142
104
70
63
45
18
30
35
-1
-9
-148
-398
141
1575
1932
339
-1036
-749
-73
3
-42
26
17
12
63
78
87
132
164
184
228
284
314
310
290
280
277
266
231
164
80
10
-37
-75
-101
-102
-92
-92
-95
-96
-105
-110
-96
-75
-63
-67
-91
-114
-128
-143
-132
-115
-147
-167
-279
-532
-135
1252
1882
538
-952
-876
-228
-127
-195
-128
-127
-147
-113
-103
-99
-62
-28
4
56
99
123
138
135
118
116
129
121
73
10
-39
-76
-107
-120
-116
-114
-119
-116
-108
-108
-103
-84
-62
-52
-68
-93
-98
-103
-118
-105
-101
-131
-158
-337
-509
205
1593
1695
127
-922
-534
-65
-130
-164
-87
-111
-125
-88
-83
-77
-43
-8
37
89
124
151
171
160
134
130
132
102
46
-4
-43
-87
-126
-134
-120
-117
-122
-114
-104
-106
-103
-81
-46
-20
-33
-73
-95
-108
-114
-86
-81
-116
-145
-336
-490
257
1567
1537
-22
-975
-569
-101
-112
-119
-58
-78
-76
-34
-23
-9
30
67
103
151
199
229
236
229
218
208
195
167
113
55
7
-31
-55
-57
-51
-49
-46
-46
-53
-56
-49
-37
-20
-16
-43
-73
-84
-100
-107
-88
-103
-133
-196
-443
-440
534
1590
1043
-473
-943
-376
-64
-130
-108
-62
-81
-64
-29
-17
9
47
78
123
173
210
233
240
225
207
208
205
169
106
38
-18
-54
-68
-72
-75
-76
-78
-84
-92
-92
-81
-68
-58
-56
-77
-100
-104
-112
-112
-92
-110
-134
-190
-474
-500
573
1765
1160
-540
-1069
-440
-86
-138
-108
-66
-86
-64
-41
-41
-12
29
58
98
141
172
196
206
194
184
189
182
139
71
4
-54
-96
-118
-123
-117
-106
-103
-110
-117
-121
-116
-98
-74
-66
-93
-124
-124
-129
-146
-125
-115
-139
-156
-375
-599
164
1604
1596
-113
-1151
-667
-115
-111
-119
-55
-71
-63
-22
-14
3
44
78
115
161
202
233
251
249
237
234
232
202
133
60
7
-37
-74
-89
-86
-85
-90
-91
-94
-97
-89
-74
-61
-59
-78
-102
-105
-111
-122
-107
-113
-141
-187
-427
-485
535
1868
1445
-352
-1077
-454
-55
-146
-132
-72
-105
-88
-49
-50
-28
10
33
73
121
152
176
189
180
171
176
171
134
77
21
-24
-60
-83
-90
-89
-87
-86
-88
-89
-73
-47
-31
-31
-51
-78
-88
-98
-114
-100
-100
-133
-174
-389
-525
337
1751
1632
-94
-1012
-464
-16
-134
-150
-61
-88
-91
-50
-49
-33
9
33
61
106
141
161
165
149
133
132
127
95
45
-1
-37
-68
-94
-103
-99
-94
-99
-109
-117
-117
-103
-79
-57
-50
-70
-94
-98
-107
-114
-90
-95
-130
-183
-432
-504
493
1802
1375
-376
-1022
-361
1
-140
-125
-43
-74
-65
-26
-28
-15
22
52
86
127
159
182
188
178
172
177
169
128
67
17
-22
-57
-79
-81
-78
-80
-86
-91
-100
-103
-87
-61
-39
-28
-45
-75
-88
-96
-102
-86
-96
-117
-158
-428
-568
342
1627
1279
-389
-1040
-395
6
-105
-107
-35
-59
-56
-20
-17
-4
29
56
91
137
173
193
198
190
178
170
159
124
65
9
-27
-54
-72
-75
-74
-79
-82
-85
-93
-94
-81
-65
-50
-37
-44
-71
-88
-100
-111
-96
-96
-116
-136
-350
-592
31
1333
1439
-26
-995
-584
-69
-79
-113
-53
-64
-67
-29
-13
1
33
64
101
145
182
210
226
221
211
213
210
174
115
60
8
-39
-63
-57
-46
-44
-47
-53
-61
-70
-72
-61
-40
-21
-18
-41
-71
-89
-105
-103
-82
-107
-133
-174
-439
-512
442
1590
1087
-527
-1070
-440
-49
-111
-110
-64
-75
-53
-21
-16
4
36
68
113
163
200
229
240
226
220
239
236
173
90
29
-19
-70
-107
-109
-88
-82
-92
-89
-85
-100
-108
-91
-75
-68
-60
-66
-85
-94
-108
-118
-95
-98
-125
-127
-338
-589
111
1479
1435
-266
-1259
-704
-93
-75
-92
-32
-48
-39
2
4
14
51
79
111
155
196
230
250
243
235
242
236
191
124
58
-3
-53
-85
-100
-104
-99
-87
-77
-81
-93
-93
-78
-60
-47
-42
-60
-86
-95
-109
-120
-95
-93
-124
-172
-416
-538
368
1715
1467
-242
-1043
-456
-18
-119
-131
-49
-69
-71
-37
-34
-20
15
43
77
123
165
194
201
187
178
183
175
129
63
15
-21
-70
-114
-118
-105
-107
-110
-98
-97
-112
-114
-97
-75
-49
-29
-49
-91
-103
-101
-116
-110
-102
-126
-146
-317
-568
-29
1375
1786
374
-879
-646
-94
-93
-156
-80
-82
-94
-51
-36
-29
5
39
73
118
160
190
211
217
207
187
165
137
85
18
-31
-62
-93
-118
-120
-106
-93
-86
-81
-81
-88
-96
-93
-68
-32
-21
-45
-72
-78
-80
-88
-87
-105
-139
-131
-249
-527
-191
1057
1662
547
-749
-734
-192
-90
-153
-108
-92
-90
-54
-50
-44
19
77
82
91
146
206
216
195
193
215
227
210
164
92
20
-26
-41
-33
-31
-50
-52
-10
26
21
32
48
-3
-65
-52
-25
-24
14
57
26
-24
-36
-71
-115
-110
-126
-161
-194
-424
-471
536
1772
1228
-607
-1335
-720
-261
-241
-165
-138
-260
-268
-128
-57
-77
-35
58
90
111
190
270
335
411
460
455
395
272
151
105
81
-34
-233
-368
-354
-292
-284
-297
-265
-215
-238
-266
-118
78
52
-69
-62
-57
-140
-124
7
31
-98
-192
-173
-125
-86
-184
-338
333
1890
2245
440
-1195
-1020
-336
-178
-107
-14
-67
-44
43
-1
-8
115
167
159
249
383
435
374
266
263
361
338
86
-215
-293
-163
-156
-300
-282
-215
-351
-392
-191
-128
-218
-143
-23
-33
18
118
59
-18
33
41
-23
-38
-42
-76
-119
-138
-151
-365
-438
584
1996
1592
-399
-1407
-852
-267
-225
-237
-126
-15
30
38
47
26
11
61
105
152
276
311
176
163
345
406
305
258
196
13
-98
-71
-128
-296
-326
-166
-65
-143
-206
-125
-60
-122
-182
-166
-146
-154
-184
-234
-240
-196
-214
-293
-317
-306
-302
-307
-370
-35
1295
2521
1780
-174
-944
-391
-27
-135
-154
-72
-60
-61
-34
23
108
155
144
149
194
259
333
380
355
316
345
372
254
38
-116
-201
-294
-384
-432
-428
-372
-284
-182
-116
-155
-230
-219
-159
-134
-129
-131
-136
-89
-37
-94
-172
-154
-183
-288
-285
-336
-385
489
2100
2304
538
-905
-791
-303
-239
-290
-286
-254
-188
-159
-138
-78
-76
-124
-106
-47
-11
43
145
218
185
92
38
22
-25
-110
-183
-205
-185
-178
-208
-231
-227
-206
-122
26
64
-86
-135
103
319
275
173
135
76
68
187
268
204
130
96
-57
-22
986
2376
2139
218
-1014
-709
-282
-374
-430
-337
-318
-319
-276
-218
-127
-29
26
62
115
181
248
301
329
345
348
278
154
94
61
-94
-275
-297
-253
-294
-347
-323
-268
-241
-253
-281
-277
-219
-171
-207
-286
-294
-228
-229
-320
-319
-228
-274
-341
-243
-343
-453
539
2041
1740
-236
-1299
-870
-426
-360
-223
-122
-174
-198
-157
-83
56
229
327
270
183
307
576
704
713
793
836
710
595
551
385
179
155
145
7
-15
96
32
-152
-188
-197
-333
-398
-321
-298
-347
-347
-339
-364
-357
-326
-280
-189
-174
-251
-211
-176
-73
899
2220
1746
-364
-1405
-770
-190
-205
-235
-216
-185
-42
38
-17
-31
-6
-34
-37
47
159
256
320
335
327
308
271
235
166
0
-168
-227
-283
-417
-496
-448
-379
-353
-313
-243
-225
-239
-162
-59
-93
-163
-103
-18
-40
-80
-73
-119
-144
-25
-79
-201
724
2400
2382
292
-1114
-730
-152
-87
8
106
9
-86
-113
-152
-189
-212
-212
-169
-125
-94
9
160
216
191
218
250
166
38
-27
-72
-132
-167
-178
-205
-219
-169
-104
-96
-114
-88
-11
85
109
5
-95
-74
-54
-122
-141
-101
-159
-198
-102
-146
-14
1119
2296
1503
-548
-1349
-747
-290
-296
-278
-241
-315
-403
-363
-206
-107
-119
-100
-28
22
80
174
256
318
387
441
427
326
204
141
122
92
57
39
39
79
148
170
133
113
108
92
119
162
85
-74
-147
-166
-238
-274
-239
-263
-325
-423
-527
29
1417
1934
457
-1204
-1219
-420
-86
-72
-1
32
-3
-27
-14
36
60
26
12
60
106
99
105
199
274
214
157
198
165
9
-113
-180
-259
-307
-287
-247
-213
-176
-148
-148
-176
-190
-132
-40
-41
-136
-200
-202
-211
-232
-203
-151
-165
-163
-148
-287
41
1617
2968
1969
-129
-679
-45
108
-51
109
287
263
206
166
128
44
-195
-512
-714
-774
-752
-657
-515
-352
-151
32
58
-55
-146
-184
-221
-243
-285
-376
-397
-328
-280
-216
-112
-105
-134
-39
61
43
17
33
18
-45
-80
8
97
-19
-180
-270
-347
277
1952
2804
1328
-636
-958
-358
-139
-190
-164
-128
-97
-49
-23
-28
-35
-4
60
115
166
221
262
292
279
194
120
95
33
-75
-142
-155
-166
-212
-254
-211
-147
-161
-139
-36
-19
-43
53
114
18
-28
27
3
-67
-39
10
-21
-56
-168
-364
166
1818
2762
1364
-681
-1112
-558
-390
-434
-331
-318
-397
-397
-344
-265
-167
-106
-40
84
165
173
263
414
441
394
421
409
244
87
39
-20
-113
-140
-144
-208
-252
-212
-188
-248
-279
-204
-144
-195
-249
-221
-182
-198
-242
-248
-199
-208
-296
-373
-414
39
1503
2696
1669
-561
-1324
-617
-159
-176
-102
-29
-72
-64
2
35
34
35
82
155
175
141
151
238
300
288
277
273
173
20
-36
-55
-193
-319
-226
-99
-190
-289
-185
-135
-302
-425
-391
-382
-435
-442
-392
-332
-312
-344
-340
-304
-346
-388
-354
-245
468
1936
2441
741
-1199
-1243
-364
-136
-258
-148
-79
-221
-286
-169
-112
-169
-82
152
253
211
217
272
314
353
376
377
374
318
172
13
-80
-115
-118
-98
-86
-103
-134
-165
-169
-114
-38
-26
-62
-54
-12
-17
-52
-57
-17
29
8
0
10
-191
-54
1340
2724
1845
-333
-1066
-329
209
234
207
223
283
312
207
122
161
203
197
130
-29
-119
-23
74
92
156
208
127
-14
-143
-236
-270
-327
-413
-384
-299
-338
-399
-350
-297
-306
-287
-208
-130
-108
-149
-215
-276
-342
-378
-348
-303
-276
-400
-670
-169
1607
2668
1239
-789
-1070
-434
-287
-355
-309
-341
-358
-281
-258
-249
-170
-123
-131
-94
-1
103
205
253
235
237
266
248
186
118
24
-83
-128
-118
-128
-143
-118
-90
-43
67
157
189
233
237
152
110
130
78
28
68
-19
-247
-321
-398
-462
423
1953
1875
-82
-1320
-849
-231
-203
-235
-204
-238
-223
-165
-141
-86
30
114
111
107
202
316
314
274
327
378
281
128
85
107
38
-117
-222
-233
-206
-168
-146
-147
-126
-95
-114
-147
-142
-134
-157
-201
-276
-370
-393
-298
-235
-299
-345
-446
-511
393
2186
2616
851
-741
-707
-273
-251
-241
-188
-194
-126
-63
-56
38
174
245
291
331
384
465
456
348
336
433
418
238
80
34
-23
-153
-281
-378
-419
-346
-258
-261
-254
-197
-195
-201
-106
-11
-43
-134
-178
-207
-239
-218
-219
-276
-269
-333
-313
728
2368
2253
161
-1178
-793
-316
-385
-395
-312
-314
-264
-170
-126
-82
-35
-21
-11
29
122
248
310
272
220
210
186
110
19
-53
-129
-214
-266
-282
-296
-286
-224
-178
-159
-70
39
27
-31
-15
12
1
-31
-76
-46
26
-10
-52
-70
-114
520
2007
2456
851
-714
-666
-180
-234
-334
-266
-278
-334
-349
-344
-276
-178
-115
-22
103
160
186
260
317
318
325
324
276
199
82
-68
-163
-181
-184
-191
-215
-283
-346
-328
-222
-99
-73
-155
-200
-153
-143
-215
-241
-169
-131
-206
-251
-278
-330
207
1557
2118
724
-987
-1215
-630
-392
-396
-331
-287
-288
-252
-168
-81
-61
-79
-33
64
162
279
387
398
344
336
388
431
416
339
230
128
41
-23
-31
18
53
34
6
-26
-91
-163
-207
-225
-258
-332
-370
-318
-260
-243
-251
-262
-246
-266
-56
998
2159
1595
-279
-1096
-539
-153
-230
-138
31
1
-37
31
50
-4
44
185
199
102
135
294
377
370
387
421
408
320
173
63
59
63
-19
-125
-232
-383
-486
-464
-389
-304
-229
-220
-239
-222
-227
-255
-253
-246
-236
-224
-209
-136
-178
-269
528
2125
2303
378
-1136
-852
-216
-138
-105
-8
-74
-148
-104
-61
-68
-15
122
117
-99
-199
-58
27
-17
22
132
163
134
75
-40
-157
-213
-236
-233
-199
-187
-205
-179
-118
-97
-86
-27
-10
-110
-195
-180
-175
-176
-95
-56
-118
-189
-266
124
1496
2547
1531
-415
-990
-431
-153
-200
-157
-121
-132
-127
-144
-150
-99
-47
-54
-119
-152
-75
33
78
103
144
150
106
35
-40
-98
-139
-172
-157
-107
-124
-196
-185
-85
-35
-59
-45
49
126
103
57
78
118
124
128
160
113
-115
28
1279
2621
2109
218
-836
-690
-494
-522
-474
-410
-394
-355
-320
-310
-277
-223
-185
-135
-51
17
58
138
234
245
211
216
206
137
64
0
-53
-65
-87
-137
-134
-100
-118
-138
-114
-85
-50
-36
-107
-167
-116
-102
-265
-408
-306
-197
-339
-95
1171
2188
1252
-645
-1267
-654
-229
-248
-271
-265
-224
-73
9
-94
-149
-7
179
276
313
336
366
397
381
315
261
213
113
1
-41
-71
-163
-241
-262
-285
-309
-297
-276
-257
-223
-180
-146
-163
-231
-250
-199
-180
-179
-138
-124
-162
-252
-287
289
1549
2053
866
-547
-711
-304
-266
-366
-348
-354
-359
-354
-419
-359
-95
31
-19
99
322
354
297
345
409
398
380
389
356
241
79
