# session 35
-34
-51
-8
21
-87
-258
-309
-271
-266
-276
-262
-255
-256
-246
-236
-230
-221
-212
-207
-201
-192
-185
-178
-169
-161
-153
-147
-143
-140
-137
-134
-126
-117
-120
-128
-115
-80
-39
-6
-3
-40
-74
-75
-71
-75
-64
-60
-72
-54
-48
-91
-136
-253
-98
1147
2738
2445
421
-692
-274
46
-139
-169
-98
-142
-140
-94
-99
-98
-75
-66
-56
-37
-25
-12
8
28
48
69
92
119
145
173
207
238
256
272
292
291
253
183
98
13
-62
-121
-160
-177
-185
-193
-195
-189
-182
-177
-173
-170
-160
-149
-141
-133
-126
-127
-127
-121
-119
-122
-120
-115
-115
-115
-112
-109
-107
-104
-100
-95
-91
-89
-88
-87
-84
-78
-72
-72
-85
-96
-77
-28
15
22
-9
-47
-62
-62
-67
-62
-54
-65
-57
-41
-69
-92
-170
-226
542
2192
2709
1033
-650
-603
-29
-53
-170
-101
-110
-137
-96
-90
-99
-77
-63
-57
-38
-25
-16
3
22
40
61
86
112
142
177
211
243
271
293
313
316
281
206
117
25
-71
-151
-203
-237
-259
-267
-263
-256
-246
-235
-225
-215
-203
-193
-184
-175
-165
-156
-148
-144
-139
-134
-132
-132
-133
-133
-131
-130
-128
-125
-122
-119
-116
-112
-105
-101
-109
-119
-106
-63
-14
5
-22
-64
-79
-74
-78
-79
-67
-73
-72
-50
-68
-109
-186
-259
375
2037
2987
1689
-188
-520
-38
-43
-207
-147
-137
-180
-145
-125
-135
-117
-99
-95
-78
-62
-52
-36
-17
0
20
43
65
91
121
151
178
200
217
234
244
226
167
87
9
-63
-125
-166
-187
-198
-203
-201
-196
-191
-185
-179
-171
-164
-158
-152
-145
-138
-136
-139
-141
-145
-149
-147
-140
-132
-127
-122
-117
-113
-108
-101
-93
-95
-105
-107
-83
-35
11
17
-21
-60
-67
-67
-73
-65
-63
-76
-61
-48
-82
-114
-220
-171
887
2581
2700
806
-614
-393
13
-123
-194
-121
-155
-171
-129
-130
-131
-104
-94
-88
-70
-55
-43
-26
-8
11
33
57
82
108
134
163
191
212
229
247
250
215
143
58
-23
-97
-154
-188
-205
-214
-216
-213
-207
-200
-192
-184
-176
-168
-159
-154
-151
-147
-144
-139
-136
-135
-135
-132
-128
-125
-122
-117
-114
-109
-100
-97
-108
-114
-96
-54
-6
14
-14
-60
-78
-78
-84
-81
-72
-82
-74
-55
-82
-111
-192
-248
511
2197
2843
1279
-457
-551
-48
-73
-196
-135
-142
-172
-137
-129
-136
-114
-101
-96
-75
-56
-48
-34
-14
4
22
43
68
93
117
145
176
197
212
234
249
225
161
81
0
-77
-137
-175
-196
-204
-208
-208
-202
-187
-174
-169
-165
-154
-146
-145
-144
-138
-131
-127
-127
-128
-127
-120
-113
-110
-115
-119
-113
-108
-112
-114
-100
-63
-17
9
-16
-65
-90
-92
-95
-90
-81
-93
-84
-59
-84
-111
-174
-245
415
2029
2741
1231
-590
-740
-140
-59
-166
-112
-111
-142
-111
-102
-106
-77
-60
-62
-48
-26
-13
-2
14
38
65
90
115
147
180
205
226
248
268
290
304
282
214
123
30
-57
-127
-173
-201
-215
-218
-214
-205
-198
-196
-192
-179
-170
-170
-162
-147
-146
-152
-144
-138
-144
-146
-141
-142
-139
-128
-133
-149
-138
-97
-58
-36
-42
-84
-117
-110
-102
-110
-110
-119
-128
-104
-108
-133
-134
-210
38
1331
2636
1862
-299
-1157
-502
-62
-140
-131
-93
-140
-120
-76
-79
-74
-61
-56
-34
-7
5
25
49
60
75
112
149
171
201
249
287
303
320
349
371
352
279
180
81
-19
-102
-150
-182
-211
-220
-214
-214
-211
-196
-187
-184
-177
-171
-160
-147
-149
-157
-151
-139
-136
-140
-138
-128
-126
-132
-123
-99
-73
-47
-35
-61
-101
-115
-116
-120
-107
-101
-122
-112
-92
-122
-122
-155
-208
511
2104
2530
710
-1051
-920
-182
-93
-179
-116
-119
-132
-86
-76
-85
-70
-57
-44
-25
-13
6
31
47
69
102
127
148
185
227
258
285
316
341
354
347
296
203
101
7
-80
-151
-195
-215
-221
-221
-219
-215
-210
-207
-199
-186
-176
-170
-164
-158
-157
-153
-143
-139
-144
-146
-135
-128
-136
-145
-140
-114
-71
-32
-31
-70
-104
-104
-102
-112
-103
-96
-108
-91
-82
-121
-156
-261
-154
1034
2739
2637
556
-790
-434
-16
-166
-217
-140
-176
-181
-137
-142
-140
-113
-105
-96
-76
-64
-53
-32
-13
4
22
46
76
106
133
161
187
208
227
239
224
169
89
5
-74
-141
-186
-209
-218
-219
-219
-217
-212
-206
-199
-192
-183
-174
-166
-157
-150
-143
-135
-129
-127
-123
-119
-116
-111
-107
-112
-124
-124
-100
-55
-11
2
-27
-67
-78
-73
-78
-78
-68
-76
-74
-52
-74
-122
-215
-262
494
2269
3153
1695
-220
-504
-34
-77
-233
-162
-158
-198
-156
-138
-150
-129
-112
-109
-92
-76
-68
-54
-36
-21
-2
20
43
69
97
123
146
166
187
208
211
175
105
26
-47
-114
-166
-195
-209
-215
-216
-215
-216
-213
-205
-196
-186
-175
-167
-160
-152
-144
-139
-132
-126
-122
-118
-113
-109
-105
-103
-102
-100
-97
-95
-92
-88
-83
-80
-74
-69
-76
-88
-81
-47
-1
30
23
-19
-51
-53
-51
-55
-45
-46
-57
-35
-32
-80
-148
-272
10
1467
3088
2625
521
-542
-170
29
-186
-193
-133
-186
-178
-138
-148
-139
-114
-109
-100
-81
-71
-61
-45
-31
-13
8
29
53
80
106
131
154
172
193
219
223
181
107
29
-43
-107
-155
-183
-193
-193
-189
-184
-180
-178
-176
-171
-165
-162
-160
-154
-145
-138
-134
-130
-125
-122
-122
-123
-120
-115
-111
-108
-104
-103
-102
-96
-89
-88
-90
-85
-79
-79
-79
-77
-75
-76
-71
-66
-68
-72
-68
-62
-55
-48
-52
-65
-64
-37
6
43
48
10
-32
-38
-33
-37
-31
-33
-49
-30
-21
-69
-119
-243
-149
1059
2821
2775
722
-633
-325
35
-142
-189
-109
-154
-166
-121
-124
-124
-97
-88
-80
-61
-48
-36
-18
0
18
35
52
74
102
131
158
184
204
221
243
256
233
170
90
14
-58
-122
-166
-187
-196
-198
-194
-189
-186
-182
-178
-173
-168
-165
-161
-155
-152
-150
-147
-142
-139
-140
-138
-133
-131
-129
-127
-125
-123
-118
-112
-108
-107
-106
-104
-101
-100
-99
-95
-88
-88
-100
-109
-92
-50
-4
17
-4
-46
-66
-64
-70
-69
-59
-69
-70
-45
-63
-109
-197
-278
388
2133
3115
1739
-220
-550
-47
-56
-223
-160
-152
-194
-156
-139
-150
-127
-109
-107
-89
-70
-61
-46
-27
-11
7
30
56
85
117
146
172
195
218
240
252
233
174
95
14
-63
-126
-168
-194
-206
-208
-211
-214
-211
-204
-197
-189
-180
-171
-162
-151
-143
-136
-129
-123
-119
-117
-114
-111
-110
-110
-108
-104
-101
-100
-98
-94
-89
-85
-82
-79
-77
-72
-69
-77
-89
-77
-32
19
38
13
-31
-52
-50
-53
-55
-48
-58
-57
-33
-52
-96
-177
-271
328
2023
3081
1817
-152
-555
-55
-39
-214
-159
-145
-190
-157
-134
-144
-125
-107
-105
-88
-70
-61
-48
-30
-13
8
32
55
82
113
145
174
198
219
238
249
231
173
93
10
-66
-130
-176
-201
-213
-218
-218
-217
-214
-210
-203
-193
-184
-175
-166
-156
-148
-144
-138
-133
-131
-130
-125
-122
-121
-118
-113
-111
-110
-105
-99
-95
-93
-93
-95
-91
-87
-92
-101
-91
-57
-12
18
6
-39
-67
-66
-68
-69
-56
-63
-72
-48
-53
-92
-155
-279
111
1653
2979
2083
25
-660
-145
5
-185
-162
-124
-169
-145
-115
-129
-118
-97
-92
-78
-61
-52
-35
-13
3
23
51
73
95
125
158
189
215
237
256
269
259
210
129
40
-39
-106
-159
-191
-202
-205
-206
-204
-200
-192
-183
-177
-174
-167
-157
-151
-148
-142
-134
-132
-134
-132
-129
-132
-135
-128
-119
-120
-122
-118
-115
-113
-106
-100
-104
-111
-101
-64
-19
3
-13
-56
-88
-90
-85
-82
-73
-81
-89
-67
-73
-105
-142
-225
175
1618
2749
1694
-370
-941
-285
-23
-158
-129
-90
-131
-114
-90
-100
-82
-55
-51
-45
-24
-4
10
24
46
74
100
129
164
201
231
261
295
321
339
350
337
276
176
73
-21
-102
-151
-171
-197
-227
-232
-216
-206
-205
-202
-192
-178
-170
-170
-165
-153
-148
-149
-148
-145
-141
-140
-144
-145
-139
-136
-138
-133
-124
-127
-137
-129
-99
-60
-28
-26
-62
-98
-101
-99
-108
-100
-90
-99
-85
-77
-114
-128
-196
-137
873
2472
2465
466
-938
-585
-45
-116
-172
-100
-133
-145
-99
-98
-102
-79
-67
-58
-39
-25
-11
9
27
46
72
99
128
158
192
227
258
281
305
327
320
267
183
89
-4
-85
-147
-187
-208
-215
-217
-216
-211
-204
-195
-188
-180
-170
-162
-157
-153
-148
-143
-138
-134
-133
-132
-129
-128
-127
-125
-121
-116
-117
-127
-132
-113
-70
-26
-10
-35
-74
-89
-86
-89
-87
-78
-89
-89
-64
-81
-123
-206
-295
334
2045
3053
1726
-240
-601
-83
-65
-234
-174
-162
-207
-174
-152
-161
-140
-122
-122
-108
-91
-81
-65
-44
-26
-7
12
35
63
93
120
149
172
187
206
222
205
145
67
-12
-83
-140
-176
-195
-203
-205
-201
-194
-187
-180
-173
-165
-157
-151
-145
-139
-133
-128
-124
-120
-115
-112
-111
-108
-104
-103
-100
-91
-89
-96
-100
-88
-53
-5
25
7
-40
-66
-63
-68
-75
-65
-68
-78
-55
-57
-102
-163
-285
21
1476
2954
2315
243
-649
-194
6
-191
-186
-135
-185
-173
-136
-147
-137
-113
-109
-99
-80
-67
-54
-39
-23
-2
23
46
71
99
125
148
169
188
208
226
219
171
96
17
-58
-120
-164
-190
-205
-207
-203
-198
-193
-185
-178
-173
-167
-159
-153
-150
-146
-142
-137
-132
-128
-127
-129
-126
-121
-120
-119
-114
-110
-112
-120
-121
-101
-58
-10
8
-25
-77
-94
-86
-90
-90
-82
-92
-86
-63
-86
-118
-207
-297
414
2144
2930
1416
-412
-574
-55
-71
-206
-142
-144
-177
-137
-123
-133
-112
-98
-95
-78
-60
-48
-32
-16
0
21
43
67
94
121
143
166
188
205
225
243
228
164
80
4
-67
-129
-169
-189
-198
-197
-190
-181
-173
-165
-161
-156
-148
-144
-142
-138
-135
-133
-128
-125
-125
-125
-122
-120
-119
-119
-113
-106
-110
-119
-114
-85
-39
-5
-12
-53
-84
-86
-86
-91
-81
-79
-90
-70
-65
-99
-131
-249
-112
1102
2663
2352
297
-854
-414
-5
-133
-169
-108
-148
-151
-114
-120
-116
-90
-83
-75
-54
-39
-25
-6
12
30
53
78
104
131
157
184
209
227
244
264
264
221
144
58
-25
-96
-150
-184
-202
-208
-207
-201
-193
-186
-179
-170
-161
-154
-148
-144
-142
-137
-133
-133
-131
-127
-125
-125
-122
-117
-118
-118
-111
-103
-107
-116
-112
-84
-39
2
7
-31
-72
-79
-76
-84
-79
-74
-86
-73
-58
-92
-128
-242
-250
729
2485
2811
999
-545
-423
5
-117
-212
-140
-163
-185
-145
-142
-144
-119
-105
-97
-81
-67
-54
-36
-20
-3
18
39
60
86
110
132
153
169
185
205
216
193
132
56
-18
-86
-141
-174
-190
-199
-202
-195
-187
-181
-175
-166
-159
-152
-145
-140
-138
-135
-132
-128
-125
-122
-122
-121
-117
-115
-115
-113
-110
-107
-99
-92
-96
-107
-102
-72
-26
12
10
-32
-68
-72
-72
-79
-68
-66
-80
-61
-54
-93
-129
-259
-177
1000
2684
2600
631
-633
-325
22
-138
-189
-125
-162
-170
-133
-137
-134
-108
-97
-86
-69
-59
-46
-27
-12
4
24
46
71
97
118
140
164
184
197
213
221
194
129
53
-17
-81
-133
-167
-184
-188
-188
-189
-183
-172
-162
-157
-150
-142
-134
-130
-127
-123
-121
-119
-116
-111
-110
-110
-108
-103
-101
-98
-92
-88
-89
-92
-88
-79
-74
-80
-91
-89
-62
-15
24
25
-16
-53
-58
-58
-64
-56
-54
-65
-45
-40
-79
-109
-231
-163
963
2583
2463
494
-745
-391
14
-111
-159
-100
-138
-142
-102
-106
-104
-79
-71
-64
-46
-32
-20
-2
15
33
52
72
95
122
146
167
186
204
222
243
251
221
156
74
-9
-83
-139
-176
-198
-209
-211
-205
-197
-191
-184
-175
-166
-160
-156
-152
-147
-144
-143
-142
-138
-134
-131
-129
-130
-131
-130
-126
-121
-121
-121
-119
-116
-116
-111
-105
-110
-122
-119
-91
-46
-6
-1
-39
-79
-89
-87
-90
-82
-81
-92
-74
-64
-101
-135
-262
-235
845
2572
2687
789
-602
-376
5
-142
-210
-143
-182
-195
-151
-152
-151
-123
-112
-106
-86
-71
-57
-37
-19
-3
16
38
60
83
106
129
151
169
185
205
217
196
138
64
-9
-76
-130
-164
-181
-189
-191
-186
-178
-170
-162
-153
-143
-135
-128
-121
-114
-107
-101
-95
-90
-87
-85
-82
-79
-76
-74
-70
-65
-62
-59
-54
-50
-48
-44
-37
-32
-38
-45
-35
2
50
80
66
21
-7
-7
-10
-11
-1
-11
-20
4
-5
-45
-105
-249
86
1586
2959
2169
156
-579
-112
42
-136
-118
-82
-133
-119
-90
-98
-86
-69
-68
-56
-37
-26
-13
5
20
36
54
69
86
109
134
154
169
183
200
218
217
177
104
23
-53
-119
-167
-197
-214
-223
-226
-223
-219
-216
-213
-208
-199
-193
-190
-190
-190
-188
-185
-184
-186
-188
-188
-190
-195
-197
-195
-195
-196
-193
-190
-190
-190
-189
-187
-182
-178
-185
-194
-187
-154
-107
-78
-92
-137
-166
-167
-169
-170
-158
-161
-164
-138
-145
-184
-228
-340
-22
1406
2744
1959
-81
-829
-288
-51
-213
-201
-155
-196
-175
-138
-142
-127
-99
-87
-67
-41
-23
-2
26
52
77
104
134
168
203
236
270
302
327
351
380
389
354
288
216
148
89
48
26
19
22
29
38
53
72
