# session 27
-35
-34
-33
-37
-39
-35
-32
-33
-34
-31
-31
-35
-38
-42
-48
-53
-55
-60
-66
-70
-81
-95
-85
-51
-16
16
23
-11
-47
-56
-59
-58
-51
-62
-67
-46
-60
-89
-139
-235
248
1763
2714
1387
-649
-974
-222
-28
-193
-146
-109
-154
-128
-101
-112
-96
-74
-69
-52
-31
-15
6
32
59
91
128
167
211
259
299
329
353
367
347
277
178
79
-18
-105
-168
-203
-219
-227
-230
-229
-224
-217
-211
-203
-193
-183
-176
-169
-162
-158
-154
-150
-148
-149
-147
-145
-145
-143
-144
-148
-148
-153
-165
-160
-127
-88
-51
-30
-52
-93
-105
-101
-103
-93
-91
-102
-83
-79
-112
-138
-239
-84
1133
2638
2189
23
-1072
-481
-9
-154
-181
-97
-137
-142
-97
-98
-93
-64
-54
-42
-19
-3
14
41
68
97
135
175
216
260
301
333
361
384
378
325
237
139
41
-49
-122
-168
-192
-202
-207
-209
-207
-201
-192
-183
-175
-167
-157
-150
-143
-138
-134
-129
-127
-126
-124
-123
-122
-120
-117
-116
-120
-121
-127
-142
-143
-116
-79
-42
-13
-26
-68
-87
-88
-93
-85
-82
-93
-74
-65
-99
-115
-203
-144
911
2490
2336
233
-1090
-596
-20
-123
-183
-95
-127
-147
-103
-101
-101
-75
-63
-52
-29
-11
6
27
50
79
115
155
198
240
277
312
346
371
368
324
245
150
54
-37
-115
-169
-199
-212
-216
-216
-216
-210
-197
-185
-180
-175
-164
-155
-148
-143
-142
-144
-145
-144
-139
-131
-126
-126
-131
-136
-133
-126
-137
-148
-129
-88
-51
-29
-40
-78
-102
-105
-106
-98
-93
-107
-97
-80
-109
-117
-159
-192
543
2121
2533
694
-1130
-1027
-232
-85
-161
-96
-103
-129
-81
-66
-78
-54
-32
-22
2
25
41
69
102
130
161
206
259
312
359
400
435
462
468
434
356
250
133
19
-69
-127
-170
-201
-216
-219
-215
-208
-201
-192
-180
-170
-163
-157
-153
-150
-143
-137
-137
-139
-141
-148
-147
-138
-147
-167
-157
-118
-81
-66
-85
-124
-143
-142
-145
-137
-128
-136
-124
-111
-138
-126
-157
-180
586
2109
2333
400
-1292
-1051
-252
-119
-179
-111
-115
-131
-90
-84
-91
-68
-52
-42
-19
1
17
44
78
112
147
181
227
289
347
382
410
440
445
389
287
182
80
-21
-103
-160
-204
-224
-221
-229
-244
-235
-225
-233
-222
-186
-183
-210
-208
-173
-149
-146
-158
-192
-207
-156
-96
-98
-116
-94
-65
-58
-63
-82
-105
-113
-113
-103
-92
-106
-117
-112
-144
-198
-298
-315
486
2112
2596
894
-809
-734
-107
-115
-238
-163
-160
-186
-147
-143
-155
-123
-92
-94
-103
-79
-21
20
25
46
99
134
152
185
228
282
345
380
394
386
303
171
67
-30
-127
-172
-179
-178
-149
-114
-116
-131
-119
-88
-64
-64
-94
-123
-92
-24
-29
-109
-112
42
170
81
-62
-3
128
102
10
-19
-29
-34
-23
-30
-54
-90
-99
-51
-49
-110
-179
-299
43
1452
2571
1502
-530
-999
-278
-72
-292
-272
-204
-246
-241
-206
-190
-167
-167
-177
-156
-129
-118
-109
-99
-78
-49
-17
48
121
134
115
127
172
231
246
158
42
-28
-102
-190
-239
-268
-297
-290
-267
-270
-272
-249
-227
-214
-196
-176
-159
-134
-114
-112
-105
-91
-92
-96
-71
-30
2
17
-5
-49
-68
-63
-64
-59
-59
-68
-49
-37
-70
-61
-113
-215
394
1807
2241
763
-771
-817
-249
-71
-77
-43
-60
-72
-34
-19
-22
-4
12
7
10
37
64
78
100
134
162
188
225
267
313
366
404
414
418
401
318
199
100
5
-88
-147
-172
-193
-214
-219
-208
-200
-196
-179
-170
-179
-173
-144
-130
-134
-131
-116
-116
-135
-144
-121
-89
-70
-54
-45
-66
-99
-122
-135
-131
-131
-148
-127
-97
-138
-159
-190
-308
184
1666
2427
1016
-853
-1101
-424
-162
-184
-131
-127
-155
-122
-99
-99
-83
-66
-57
-41
-16
8
20
28
55
98
135
171
219
267
302
335
368
377
343
275
187
88
-5
-82
-140
-180
-201
-213
-219
-217
-208
-198
-189
-181
-173
-167
-165
-163
-158
-153
-141
-136
-159
-188
-183
-149
-113
-85
-71
-86
-115
-133
-144
-146
-137
-148
-167
-142
-124
-154
-155
-238
-259
680
2366
2567
625
-961
-767
-198
-196
-236
-149
-157
-170
-129
-121
-126
-110
-98
-82
-58
-43
-29
-7
17
47
93
141
176
209
260
315
350
373
383
351
267
163
64
-25
-100
-145
-159
-162
-167
-167
-161
-155
-150
-144
-130
-113
-107
-105
-94
-80
-77
-81
-80
-91
-122
-133
-102
-67
-50
-32
-31
-70
-106
-105
-104
-112
-104
-111
-120
-97
-100
-140
-214
-338
146
1829
3089
1856
-473
-1119
-409
-126
-272
-245
-204
-238
-206
-173
-188
-183
-158
-133
-107
-90
-71
-34
-3
18
54
102
154
211
267
312
351
393
420
390
294
179
77
-25
-127
-203
-240
-250
-246
-242
-241
-234
-225
-222
-219
-213
-204
-196
-194
-195
-185
-171
-166
-165
-163
-170
-182
-174
-140
-100
-73
-71
-96
-126
-135
-134
-129
-115
-115
-117
-83
-86
-130
-150
-246
14
1427
2861
2015
-336
-1247
-525
-70
-179
-162
-90
-126
-116
-80
-89
-83
-56
-47
-34
-1
14
14
41
87
118
145
196
264
326
370
399
430
459
446
370
258
143
36
-56
-130
-182
-209
-215
-212
-206
-199
-186
-176
-183
-192
-185
-172
-165
-158
-155
-164
-172
-170
-160
-152
-160
-179
-177
-153
-133
-116
-92
-86
-106
-120
-123
-127
-120
-119
-134
-112
-88
-118
-131
-198
-233
592
2204
2464
527
-1168
-965
-233
-127
-171
-94
-96
-112
-79
-75
-71
-37
-20
-26
-25
-3
31
53
75
116
153
177
221
283
332
373
416
441
437
393
307
204
101
0
-85
-138
-170
-192
-202
-202
-196
-186
-182
-180
-169
-160
-161
-156
-150
-163
-173
-155
-141
-154
-167
-167
-161
-138
-109
-109
-135
-147
-145
-152
-154
-145
-149
-145
-122
-133
-142
-157
-221
208
1533
2332
1049
-926
-1314
-536
-137
-164
-130
-103
-127
-108
-78
-65
-53
-50
-50
-32
4
38
54
66
98
149
205
244
269
317
388
431
438
432
386
290
193
105
-6
-112
-166
-177
-185
-213
-238
-217
-174
-172
-187
-162
-130
-140
-154
-132
-109
-119
-131
-114
-97
-110
-122
-105
-84
-86
-85
-70
-73
-88
-86
-85
-95
-92
-90
-92
-90
-97
-101
-160
-203
426
1835
2327
790
-944
-1010
-298
-90
-146
-93
-82
-103
-78
-69
-68
-45
-34
-28
-9
2
11
33
56
80
115
154
194
236
272
304
344
376
372
326
248
149
49
-35
-105
-162
-192
-200
-198
-191
-181
-178
-172
-157
-149
-152
-153
-146
-138
-135
-139
-142
-140
-139
-146
-152
-153
-155
-163
-172
-170
-151
-124
-101
-87
-90
-110
-126
-132
-134
-122
-111
-122
-115
-100
-125
-167
-247
-92
981
2443
2287
376
-856
-496
-49
-156
-198
-111
-136
-145
-101
-100
-101
-75
-68
-65
-48
-34
-25
-11
8
29
57
91
128
166
204
239
269
294
302
271
202
119
39
-37
-101
-142
-161
-169
-172
-173
-168
-159
-153
-149
-144
-140
-138
-138
-138
-139
-138
-134
-129
-130
-131
-128
-134
-152
-152
-124
-90
-64
-44
-47
-77
-100
-100
-101
-102
-89
-90
-94
-73
-85
-131
-195
-255
285
1854
2903
1690
-346
-803
-195
-69
-242
-186
-145
-188
-157
-126
-137
-121
-100
-96
-83
-65
-55
-41
-18
9
36
68
109
157
203
242
277
308
326
311
251
161
66
-23
-102
-160
-192
-203
-203
-201
-200
-194
-186
-178
-173
-169
-165
-163
-163
-164
-161
-157
-155
-154
-150
-149
-151
-153
-162
-170
-155
-116
-80
-53
-40
-62
-103
-117
-106
-109
-110
-99
-107
-103
-80
-105
-155
-242
-260
562
2321
2953
1204
-694
-725
-95
-112
-251
-161
-155
-189
-142
-125
-132
-106
-91
-89
-69
-46
-31
-11
13
39
72
110
150
192
236
278
310
334
345
323
257
162
63
-28
-106
-163
-195
-209
-211
-207
-201
-196
-191
-187
-181
-173
-166
-162
-161
-160
-155
-148
-146
-145
-146
-146
-146
-151
-159
-148
-109
-67
-41
-33
-54
-95
-115
-109
-111
-111
-101
-108
-109
-84
-103
-146
-216
-293
317
1981
2894
1411
-635
-880
-176
-78
-244
-173
-145
-184
-142
-118
-130
-107
-85
-81
-64
-42
-25
-3
22
47
78
116
158
198
235
271
301
324
339
327
268
177
85
-3
-85
-146
-178
-194
-200
-196
-188
-182
-177
-170
-161
-156
-155
-153
-148
-142
-139
-139
-136
-132
-131
-133
-134
-137
-144
-141
-113
-72
-37
-21
-41
-85
-110
-106
-110
-113
-102
-107
-112
-89
-101
-139
-189
-276
193
1727
2776
1510
-596
-1006
-263
-53
-221
-172
-127
-170
-140
-108
-117
-98
-74
-71
-56
-30
-11
10
33
56
85
124
165
202
237
269
298
323
341
333
282
197
104
14
-70
-137
-177
-193
-198
-197
-189
-180
-174
-170
-162
-153
-150
-150
-147
-144
-143
-142
-140
-138
-138
-140
-140
-142
-149
-149
-124
-83
-44
-22
-38
-83
-110
-110
-113
-112
-99
-106
-109
-85
-100
-133
-175
-256
217
1728
2718
1414
-668
-1042
-282
-57
-209
-159
-119
-164
-137
-106
-111
-93
-71
-66
-47
-23
-8
12
40
69
97
130
169
209
247
278
304
327
346
339
287
202
110
20
-64
-131
-173
-193
-199
-196
-189
-181
-171
-163
-156
-151
-147
-145
-145
-143
-138
-138
-140
-138
-137
-138
-139
-145
-151
-139
-104
-63
-29
-25
-64
-108
-117
-113
-117
-110
-109
-120
-100
-91
-127
-143
-220
-110
990
2499
2197
54
-1181
-631
-58
-146
-191
-113
-145
-148
-100
-101
-100
-74
-64
-53
-29
-12
6
35
64
91
121
156
194
232
267
296
318
338
347
320
249
155
62
-25
-101
-154
-183
-197
-201
-196
-186
-175
-167
-160
-157
-153
-148
-144
-144
-144
-144
-141
-138
-140
-143
-145
-153
-157
-139
-101
-61
-30
-37
-84
-119
-121
-121
-121
-109
-113
-119
-95
-103
-134
-154
-237
103
1492
2655
1617
-540
-1160
-402
-45
-183
-164
-110
-151
-132
-97
-103
-91
-69
-60
-42
-19
-3
17
43
70
102
136
170
209
246
275
299
322
341
338
294
216
123
29
-58
-124
-167
-193
-205
-204
-195
-186
-178
-170
-163
-155
-149
-148
-147
-144
-139
-138
-139
-140
-139
-142
-151
-154
-135
-98
-56
-26
-35
-82
-116
-117
-117
-118
-108
-115
-117
-92
-104
-132
-159
-243
158
1599
2657
1475
-643
-1134
-365
-53
-186
-156
-112
-151
-129
-97
-104
-89
-66
-58
-40
-16
1
22
48
75
106
140
175
212
247
275
301
324
342
337
289
207
114
21
-67
-134
-174
-196
-206
-204
-195
-189
-182
-173
-165
-158
-153
-148
-143
-141
-141
-140
-140
-141
-140
-142
-152
-150
-125
-84
-43
-20
-41
-90
-116
-116
-120
-116
-105
-116
-112
-89
-112
-134
-182
-240
403
1975
2600
946
-943
-973
-207
-80
-201
-134
-119
-150
-112
-95
-103
-78
-57
-50
-33
-13
5
29
57
83
112
147
185
222
254
281
303
325
341
326
267
181
88
-4
-87
-147
-185
-205
-210
-206
-198
-188
-180
-172
-162
-154
-149
-143
-139
-139
-142
-143
-143
-142
-141
-146
-151
-137
-102
-61
-29
-31
-76
-120
-128
-129
-135
-127
-130
-138
-116
-120
-152
-169
-261
-18
1281
2597
1813
-371
-1206
-495
-53
-177
-180
-115
-151
-139
-103
-111
-100
-73
-67
-54
-28
-6
16
43
70
102
139
176
214
251
282
307
331
351
350
308
228
134
42
-44
-115
-162
-187
-198
-199
-194
-186
-178
-169
-160
-153
-145
-139
-135
-133
-130
-128
-130
-132
-131
-134
-143
-139
-112
-70
-29
-12
-43
-94
-114
-113
-117
-111
-104
-118
-107
-88
-118
-133
-198
-227
595
2217
2509
586
-1097
-854
-128
-102
-199
-118
-123
-146
-102
-92
-98
-70
-53
-45
-22
2
22
48
75
101
135
173
209
243
272
298
327
354
361
331
267
180
84
-8
-88
-145
-179
-196
-202
-202
-196
-187
-181
-176
-167
-155
-149
-150
-149
-146
-142
-139
-140
-144
-149
-154
-154
-142
-116
-80
-41
-36
-82
-129
-136
-133
-137
-130
-132
-145
-127
-129
-161
-166
-250
-100
1078
2487
1920
-302
-1373
-705
-121
-185
-204
-130
-158
-156
-115
-113
-104
-75
-63
-51
-27
-7
16
48
80
109
143
183
226
267
301
326
344
361
361
319
239
148
58
-30
-103
-152
-183
-203
-212
-210
-199
-187
-176
-165
-153
-144
-136
-127
-121
-119
-121
-125
-125
-127
-137
-144
-124
-85
-48
-33
-60
-116
-147
-146
-151
-153
-143
-150
-147
-124
-144
-161
-182
-260
230
1731
2612
1219
-822
-1138
-358
-68
-156
-120
-99
-124
-91
-70
-74
-51
-33
-31
-11
12
23
36
59
87
116
151
191
233
268
299
328
351
363
348
288
193
95
5
-74
-136
-177
-198
-204
-200
-190
-172
-151
-134
-119
-104
-90
-79
-70
-62
-59
-61
-60
-65
-82
-86
-58
-18
14
22
-10
-59
-76
-71
-73
-65
-53
-61
-48
-30
-59
-81
-161
-214
586
2259
2704
873
-935
-884
-204
-122
-208
-148
-154
-177
-142
-137
-144
-122
-109
-104
-85
-68
-52
-27
1
28
59
97
138
182
224
257
284
311
323
290
210
112
11
-88
-171
-229
-267
-292
-306
-314
-317
-315
-308
-300
-291
-283
-276
-266
-260
-257
-251
-243
-251
-265
-249
-206
-165
-137
-137
-177
-221
-228
-226
-233
-222
-216
-226
-204
-193
-236
-283
-406
-285
947
2634
2419
263
-1043
-607
-137
-258
-296
-214
-240
-232
-179
-173
-160
-123
-106
-86
-51
-25
-3
30
67
108
157
209
261
314
363
404
441
474
484
447
375
289
202
123
66
37
23
20
27
39
52
69
88
101
