# session 29
-22
-38
15
-17
-217
-383
-359
-270
-242
-248
-266
-293
-297
-283
-277
-263
-250
-252
-228
-211
-242
-263
-338
-249
820
2438
2391
373
-990
-612
-108
-214
-264
-177
-206
-211
-156
-154
-156
-125
-109
-98
-76
-57
-42
-21
3
29
59
95
139
184
226
265
300
327
341
329
278
198
109
20
-59
-117
-150
-168
-175
-175
-172
-171
-166
-158
-152
-146
-137
-129
-123
-118
-113
-109
-105
-102
-101
-100
-98
-96
-92
-89
-88
-96
-109
-105
-71
-22
11
12
-19
-56
-67
-66
-69
-62
-57
-68
-53
-34
-68
-110
-201
-145
847
2477
2614
717
-746
-489
-1
-122
-204
-112
-134
-158
-117
-118
-123
-96
-86
-81
-64
-50
-38
-20
-2
19
46
75
108
149
190
222
249
275
292
282
236
164
80
-7
-85
-141
-174
-191
-198
-201
-202
-199
-192
-189
-186
-179
-171
-167
-164
-158
-152
-149
-146
-141
-137
-133
-129
-126
-126
-124
-120
-119
-116
-109
-111
-127
-135
-108
-57
-15
-4
-31
-70
-84
-81
-86
-84
-74
-82
-83
-61
-78
-114
-185
-249
363
1948
2793
1418
-457
-694
-99
-54
-215
-148
-128
-171
-138
-116
-126
-106
-89
-88
-73
-54
-43
-26
-4
15
37
64
97
135
173
208
238
265
285
289
261
199
119
35
-44
-109
-153
-177
-185
-186
-188
-188
-181
-174
-169
-164
-156
-150
-145
-140
-134
-129
-129
-127
-121
-117
-117
-114
-112
-110
-106
-102
-101
-100
-99
-96
-91
-87
-84
-78
-83
-103
-109
-80
-32
8
20
-6
-47
-62
-58
-64
-62
-52
-61
-60
-40
-57
-91
-172
-236
434
2045
2765
1268
-534
-649
-60
-53
-199
-126
-120
-160
-122
-105
-115
-92
-75
-77
-64
-45
-32
-17
3
24
48
76
110
145
178
212
243
266
288
301
277
214
135
55
-26
-96
-143
-168
-179
-182
-180
-177
-172
-164
-153
-147
-144
-139
-134
-132
-130
-125
-121
-119
-118
-118
-116
-112
-110
-112
-112
-108
-104
-101
-99
-96
-91
-89
-89
-87
-81
-80
-80
-74
-76
-93
-103
-82
-36
11
27
-1
-45
-61
-55
-60
-63
-55
-61
-59
-38
-53
-87
-159
-227
386
1965
2769
1349
-514
-703
-87
-45
-202
-133
-117
-160
-125
-106
-117
-98
-83
-83
-66
-44
-32
-15
7
27
48
72
103
141
177
208
236
259
279
289
269
213
141
65
-16
-92
-149
-181
-196
-210
-218
-206
-188
-186
-188
-172
-152
-144
-145
-143
-138
-136
-137
-134
-128
-128
-130
-128
-127
-130
-130
-124
-116
-110
-107
-109
-108
-104
-98
-92
-87
-88
-85
-74
-79
-99
-95
-52
0
28
17
-27
-64
-66
-60
-58
-43
-42
-60
-44
-39
-81
-97
-162
-10
1134
2586
2180
118
-906
-362
-8
-202
-207
-125
-177
-155
-79
-72
-77
-74
-59
-11
3
-33
-25
42
92
109
125
146
169
194
224
268
317
340
340
340
306
224
146
70
-44
-134
-161
-190
-223
-208
-188
-207
-210
-173
-154
-165
-165
-143
-130
-143
-162
-151
-109
-95
-135
-163
-141
-127
-139
-132
-120
-127
-118
-92
-111
-151
-137
-102
-113
-138
-133
-105
-45
19
3
-66
-78
-51
-73
-108
-96
-83
-86
-72
-78
-112
-145
-199
147
1420
2547
1769
-104
-765
-246
-28
-178
-153
-103
-148
-141
-118
-124
-109
-84
-68
-55
-53
-51
-34
-12
13
38
56
71
98
127
154
189
221
232
243
247
194
107
45
-14
-93
-146
-160
-174
-185
-172
-157
-156
-157
-153
-149
-144
-140
-143
-133
-106
-92
-103
-119
-118
-104
-102
-110
-101
-93
-108
-113
-91
-82
-94
-95
-97
-107
-88
-31
16
19
-16
-61
-87
-87
-70
-43
-45
-79
-79
-66
-90
-96
-149
-99
818
2349
2450
603
-794
-511
-17
-124
-188
-91
-123
-153
-107
-95
-93
-77
-83
-79
-46
-28
-28
-12
15
31
50
84
117
143
182
219
226
240
279
283
225
156
94
14
-71
-126
-162
-191
-195
-185
-181
-179
-174
-170
-156
-140
-140
-145
-139
-134
-135
-131
-123
-127
-132
-127
-120
-120
-120
-120
-119
-115
-106
-108
-123
-131
-110
-59
-8
4
-32
-76
-91
-93
-102
-96
-81
-91
-90
-72
-93
-114
-170
-188
563
2141
2606
886
-854
-793
-124
-85
-202
-139
-141
-164
-119
-106
-112
-92
-89
-89
-61
-37
-28
-4
25
43
59
83
114
150
188
226
263
292
315
325
294
221
138
52
-40
-117
-159
-180
-196
-206
-201
-185
-171
-168
-167
-160
-149
-135
-121
-116
-118
-118
-119
-119
-115
-113
-119
-123
-117
-108
-102
-99
-106
-112
-97
-64
-27
-8
-24
-68
-96
-95
-97
-101
-94
-101
-103
-75
-87
-118
-118
-160
212
1546
2552
1408
-714
-1282
-513
-92
-143
-109
-73
-103
-77
-51
-63
-52
-26
-14
3
21
32
50
78
105
129
160
199
241
281
320
354
383
412
429
403
328
227
123
19
-78
-147
-187
-212
-229
-233
-227
-218
-210
-201
-190
-181
-174
-166
-157
-152
-151
-150
-149
-150
-149
-149
-150
-148
-150
-163
-170
-150
-105
-63
-51
-79
-118
-133
-131
-132
-126
-121
-129
-113
-97
-126
-136
-186
-196
584
2101
2394
645
-898
-696
-81
-106
-208
-124
-130
-157
-116
-105
-110
-85
-71
-67
-51
-35
-22
-2
19
39
62
90
122
154
185
213
238
259
278
281
247
182
105
26
-50
-108
-142
-161
-171
-172
-170
-165
-156
-146
-140
-136
-130
-125
-123
-122
-121
-121
-120
-117
-116
-115
-111
-115
-130
-129
-95
-46
-11
-10
-43
-82
-95
-93
-88
-80
-82
-90
-71
-67
-94
-105
-174
-45
961
2242
1903
78
-871
-373
23
-124
-158
-80
-111
-112
-72
-78
-76
-48
-42
-38
-22
-11
-1
14
30
47
67
88
111
138
166
189
205
219
231
224
184
117
46
-26
-92
-138
-161
-175
-184
-183
-175
-167
-159
-151
-144
-138
-133
-128
-125
-124
-125
-123
-121
-122
-120
-115
-117
-129
-132
-108
-62
-16
-1
-30
-76
-95
-93
-97
-94
-84
-93
-89
-70
-95
-121
-176
-242
373
1899
2520
945
-844
-848
-132
-51
-181
-110
-98
-133
-95
-78
-88
-72
-59
-52
-32
-13
-2
15
36
59
84
111
141
173
203
230
253
275
295
301
267
197
112
24
-64
-137
-182
-205
-216
-222
-222
-215
-203
-190
-177
-167
-159
-152
-145
-139
-139
-141
-140
-139
-140
-136
-133
-142
-152
-142
-106
-59
-28
-37
-81
-119
-124
-121
-121
-111
-112
-122
-100
-96
-136
-166
-272
-142
1039
2543
2152
44
-1053
-493
-26
-159
-189
-113
-151
-149
-102
-109
-111
-83
-71
-59
-31
-11
2
25
50
69
99
138
167
193
228
262
283
311
338
327
275
203
114
17
-65
-118
-148
-167
-181
-183
-174
-167
-162
-152
-137
-129
-125
-120
-114
-112
-112
-112
-111
-108
-106
-106
-110
-118
-122
-108
-72
-29
-7
-28
-75
-103
-103
-105
-105
-95
-104
-105
-82
-99
-119
-128
-220
131
1499
2503
1323
-752
-1216
-425
-66
-157
-123
-85
-120
-99
-78
-89
-70
-47
-47
-37
-16
1
25
52
69
89
125
167
203
242
280
302
314
335
355
331
254
150
49
-41
-119
-176
-205
-218
-233
-236
-215
-193
-189
-186
-176
-169
-167
-161
-150
-140
-129
-125
-134
-139
-126
-115
-134
-164
-159
-119
-78
-49
-38
-62
-110
-134
-134
-138
-130
-114
-112
-95
-75
-100
-132
-203
-129
806
2321
2426
631
-734
-480
-34
-158
-213
-108
-139
-174
-149
-164
-163
-120
-103
-102
-89
-78
-57
-21
4
23
47
70
93
127
168
194
201
209
232
237
190
110
33
-29
-82
-132
-169
-182
-180
-182
-181
-171
-165
-162
-148
-131
-131
-137
-131
-115
-106
-111
-117
-117
-113
-109
-105
-98
-98
-111
-118
-94
-40
10
23
-10
-56
-75
-74
-76
-70
-62
-74
-71
-55
-78
-106
-190
-228
576
2266
2805
1092
-657
-626
-44
-88
-216
-131
-136
-173
-130
-116
-122
-98
-83
-79
-60
-45
-32
-8
14
32
56
84
111
141
172
198
218
238
260
266
234
164
80
-4
-80
-141
-181
-206
-219
-219
-213
-206
-199
-189
-179
-170
-163
-159
-159
-154
-147
-144
-143
-140
-140
-143
-139
-135
-135
-135
-133
-137
-145
-137
-99
-48
-16
-24
-69
-106
-111
-114
-123
-115
-117
-124
-95
-91
-135
-167
-273
-89
1187
2683
2149
-36
-1075
-476
-28
-161
-178
-104
-139
-136
-98
-104
-95
-66
-59
-50
-23
-1
15
36
63
94
126
159
187
212
248
285
306
326
354
353
292
200
115
29
-66
-137
-171
-187
-202
-210
-202
-186
-179
-178
-168
-150
-143
-146
-142
-129
-124
-127
-129
-128
-124
-121
-125
-129
-125
-122
-132
-136
-113
-69
-27
-15
-46
-93
-108
-104
-105
-99
-97
-115
-101
-76
-105
-110
-139
-161
564
2074
2396
560
-1159
-1002
-243
-110
-164
-89
-92
-114
-75
-65
-70
-48
-35
-25
0
20
33
53
83
111
140
171
209
250
290
328
359
386
410
409
359
271
168
59
-44
-121
-172
-204
-225
-239
-243
-233
-215
-206
-200
-191
-179
-171
-163
-155
-151
-149
-145
-142
-145
-150
-152
-149
-150
-163
-171
-155
-119
-77
-45
-50
-93
-127
-128
-126
-128
-116
-116
-126
-104
-100
-135
-159
-251
-61
1187
2642
2116
-17
-1024
-440
-24
-174
-192
-119
-159
-154
-109
-114
-110
-83
-74
-64
-42
-26
-11
11
35
59
86
118
154
191
225
254
278
301
314
296
237
153
63
-25
-98
-149
-181
-198
-203
-202
-199
-193
-184
-175
-167
-159
-152
-147
-141
-133
-127
-124
-122
-120
-119
-120
-120
-118
-124
-138
-138
-109
-65
-27
-11
-32
-74
-95
-91
-94
-94
-84
-89
-89
-69
-84
-114
-169
-242
305
1855
2779
1479
-452
-759
-131
-39
-206
-148
-120
-164
-132
-107
-119
-101
-79
-75
-59
-39
-29
-16
6
28
51
78
108
142
175
203
227
251
271
273
242
175
90
5
-72
-135
-173
-192
-201
-204
-201
-197
-193
-188
-180
-172
-163
-155
-149
-144
-139
-135
-131
-128
-127
-125
-121
-121
-120
-117
-115
-115
-115
-123
-135
-119
-76
-32
-4
-5
-44
-81
-83
-80
-88
-81
-77
-90
-72
-60
-96
-132
-225
-87
1067
2611
2359
325
-845
-388
20
-148
-187
-105
-145
-151
-106
-111
-108
-79
-72
-65
-45
-31
-17
4
24
43
70
100
130
164
198
227
251
274
292
285
238
160
72
-13
-89
-145
-179
-196
-202
-202
-198
-192
-184
-175
-166
-157
-148
-143
-138
-133
-129
-124
-122
-121
-121
-119
-119
-120
-120
-120
-120
-118
-116
-116
-114
-114
-129
-138
-113
-66
-26
-1
-9
-53
-87
-85
-81
-86
-76
-77
-89
-67
-62
-103
-149
-245
23
1369
2796
2161
35
-876
-305
8
-182
-186
-118
-165
-157
-118
-128
-118
-91
-87
-77
-55
-40
-23
0
22
43
69
98
134
171
202
230
256
279
297
292
243
163
79
-4
-82
-141
-174
-192
-200
-199
-192
-185
-177
-169
-164
-157
-149
-143
-140
-137
-133
-131
-130
-128
-127
-126
-125
-124
-123
-123
-120
-115
-114
-113
-113
-120
-129
-116
-75
-28
3
2
-36
-77
-87
-83
-86
-78
-75
-89
-72
-58
-97
-130
-223
-172
866
2531
2576
563
-883
-546
-21
-126
-199
-117
-147
-164
-117
-115
-117
-91
-80
-73
-52
-34
-20
0
22
46
73
102
136
175
212
243
266
290
315
321
282
205
116
26
-61
-131
-176
-199
-211
-217
-215
-205
-193
-183
-176
-169
-161
-151
-143
-140
-138
-135
-134
-134
-133
-131
-131
-130
-130
-129
-127
-125
-124
-123
-126
-135
-135
-105
-56
-13
-2
-31
-77
-97
-94
-100
-100
-91
-102
-99
-75
-97
-130
-198
-262
422
2090
2834
1258
-650
-785
-136
-70
-201
-136
-131
-168
-129
-112
-118
-93
-76
-74
-54
-32
-17
7
35
57
81
112
146
182
221
259
288
312
336
349
323
254
163
68
-21
-95
-148
-183
-201
-205
-202
-199
-194
-186
-174
-164
-157
-151
-144
-138
-136
-135
-133
-130
-130
-132
-134
-132
-127
-126
-126
-123
-122
-132
-139
-121
-80
-37
-15
-28
-68
-98
-102
-105
-105
-92
-97
-108
-84
-85
-120
-152
-250
26
1385
2730
1938
-256
-1117
-456
-43
-166
-169
-108
-143
-135
-102
-106
-92
-67
-64
-57
-36
-18
2
24
48
79
118
154
188
226
264
299
329
357
376
360
294
200
103
1
-96
-165
-200
-219
-231
-242
-248
-244
-231
-216
-200
-189
-189
-192
-184
-171
-167
-171
-169
-163
-161
-163
-169
-175
-168
-158
-162
-160
-133
-101
-72
-55
-80
-128
-146
-141
-141
-130
-123
-137
-117
-95
-133
-141
-175
-167
672
2211
2326
332
-1248
-919
-186
-116
-159
-86
-100
-101
-53
-57
-59
-28
-12
0
23
36
55
89
114
137
176
217
253
303
360
395
418
455
487
479
421
325
214
105
7
-74
-127
-147
-156
-168
-183
-185
-172
-154
-143
-138
-132
-121
-107
-98
-103
-112
-112
-104
-101
-110
-112
-103
-104
-113
-105
-76
-45
-22
-23
-60
-94
-95
-93
-98
-87
-91
-102
-78
-76
-106
-109
-187
5
1201
2491
1804
-315
-1211
-558
-73
-138
-134
-78
-115
-109
-72
-77
-75
-57
-50
-38
-18
-4
13
34
55
81
115
149
185
225
267
304
333
356
369
342
260
151
44
-59
-149
-212
-251
-276
-287
-289
-290
-289
-286
-280
-271
-262
-257
-255
-247
-236
-233
-236
-235
-231
-231
-233
-232
-238
-253
-256
-231
-189
-150
-130
-144
-185
-210
-206
-203
-203
-191
-191
-194
-171
-174
-208
-257
-336
84
1527
2648
1632
-360
-895
-267
-64
-230
-192
-140
-178
-147
-105
-106
-85
-56
-45
-25
4
26
50
82
113
144
183
231
280
327
376
417
449
482
503
482
420
343
262
187
128
90
72
72
80
84
