# session 3
-53
-62
-21
-48
-188
-289
-270
-235
-242
-246
-233
-199
-132
-65
-47
-69
-103
-136
-161
-172
-172
-157
-125
-103
-124
-173
-194
-189
-200
-195
-171
-195
-218
-284
-523
-323
943
1936
1016
-600
-872
-283
-125
-233
-178
-139
-162
-138
-114
-106
-74
-47
-30
3
31
43
56
59
51
51
49
34
49
107
146
135
108
91
71
47
33
35
46
54
47
10
-42
-61
-58
-72
-77
-83
-105
-108
-256
-451
162
1516
1775
379
-707
-464
-45
-81
-113
-51
-64
-61
-28
-33
-23
17
34
45
74
97
101
104
111
106
90
82
94
127
175
199
166
113
81
51
13
-2
10
22
28
12
-42
-88
-92
-107
-123
-104
-115
-147
-205
-464
-457
655
1914
1391
-251
-788
-261
-46
-171
-146
-109
-155
-151
-126
-121
-100
-80
-75
-55
-28
-14
-10
-12
-16
-22
-36
-37
13
89
118
83
36
3
-38
-88
-118
-111
-88
-74
-70
-85
-126
-155
-165
-179
-162
-140
-176
-192
-294
-607
-280
1231
2088
722
-1006
-1016
-268
-118
-216
-158
-146
-170
-133
-118
-126
-95
-57
-43
-25
14
48
54
58
81
87
64
75
137
184
176
145
119
83
28
-10
-18
-18
-14
0
6
-24
-84
-126
-131
-143
-143
-117
-133
-145
-196
-460
-259
1152
2263
1182
-685
-977
-270
-63
-174
-129
-115
-148
-112
-97
-106
-71
-40
-33
-8
30
59
72
65
55
51
42
51
107
167
175
136
86
43
5
-25
-36
-31
-24
-8
-3
-59
-127
-126
-124
-162
-136
-102
-148
-173
-332
-535
248
1881
2064
261
-976
-554
-45
-127
-149
-73
-126
-137
-80
-81
-88
-55
-33
-18
13
42
59
72
76
70
56
39
53
119
172
146
90
73
54
-7
-58
-64
-54
-44
-30
-49
-108
-148
-151
-177
-200
-170
-175
-217
-263
-474
-452
642
1935
1426
-308
-897
-306
-65
-226
-192
-131
-176
-154
-113
-124
-111
-79
-65
-43
-14
5
22
26
7
-5
2
11
47
120
166
149
104
55
2
-38
-54
-53
-38
-5
16
-20
-98
-144
-149
-169
-179
-170
-195
-223
-354
-613
-180
1270
1901
485
-996
-802
-116
-79
-161
-67
-78
-113
-52
-24
-37
-9
35
59
74
88
108
127
127
115
108
105
129
202
266
251
191
151
120
68
17
-4
-5
-3
13
36
6
-72
-109
-112
-134
-125
-110
-156
-164
-288
-666
-343
1191
1966
553
-994
-814
-112
-60
-136
-58
-78
-97
-43
-39
-35
7
18
25
61
81
80
89
89
68
50
55
88
134
159
154
130
81
24
-13
-41
-73
-80
-62
-54
-62
-87
-131
-152
-152
-172
-169
-142
-165
-175
-268
-591
-368
980
1791
560
-994
-926
-193
-76
-176
-99
-82
-115
-85
-63
-56
-26
-1
17
36
51
71
93
87
63
45
48
75
115
148
163
145
101
55
22
2
-10
-15
-16
-10
1
-13
-68
-111
-111
-115
-119
-98
-108
-132
-216
-493
-390
754
1749
971
-540
-828
-259
-53
-119
-84
-67
-64
-24
-50
-82
-30
-6
-40
-16
54
85
94
93
64
50
75
91
93
112
135
130
93
46
19
6
-21
-46
-46
-31
-10
-7
-56
-110
-108
-108
-129
-108
-98
-134
-151
-344
-573
143
1592
1681
46
-1006
-579
-79
-107
-134
-84
-101
-87
-55
-58
-41
-16
-12
4
35
56
69
75
81
90
87
83
119
177
202
171
109
53
22
-3
-36
-53
-42
-23
-11
-14
-49
-95
-109
-115
-138
-129
-114
-137
-159
-330
-545
89
1530
1800
239
-972
-636
-89
-120
-173
-100
-120
-133
-93
-89
-86
-53
-33
-19
3
20
29
39
47
37
10
-5
26
81
98
63
21
-3
-27
-60
-90
-106
-98
-69
-50
-62
-99
-128
-126
-130
-155
-144
-129
-160
-165
-286
-531
-61
1282
1667
227
-1030
-742
-111
-66
-127
-63
-62
-72
-43
-35
-16
18
34
51
81
105
124
142
142
122
104
110
133
150
161
161
133
92
62
40
14
-9
-15
6
41
48
11
-36
-54
-61
-85
-86
-74
-104
-118
-163
-384
-275
704
1472
706
-598
-785
-243
-46
-110
-81
-61
-80
-61
-39
-29
1
32
50
68
90
110
120
113
103
94
74
66
91
116
106
74
37
0
-30
-56
-80
-86
-70
-51
-44
-59
-106
-141
-135
-138
-153
-137
-143
-167
-196
-439
-568
323
1596
1293
-316
-992
-439
-72
-151
-144
-99
-127
-107
-71
-73
-53
-18
2
31
64
82
103
123
122
112
115
139
186
228
224
178
123
75
39
8
-23
-45
-43
-31
-23
-26
-58
-105
-121
-119
-133
-118
-99
-139
-145
-233
-541
-276
1051
1762
500
-1008
-952
-238
-63
-116
-61
-61
-82
-41
-19
-17
10
36
53
82
114
132
139
147
144
123
114
142
184
195
162
101
39
-6
-34
-62
-87
-94
-83
-73
-71
-86
-132
-169
-165
-170
-183
-158
-162
-198
-218
-408
-477
449
1705
1310
-393
-1073
-473
-90
-167
-143
-86
-122
-112
-67
-49
-29
-11
11
55
89
99
112
127
121
101
85
93
132
166
154
105
52
15
-10
-34
-51
-51
-40
-29
-19
-23
-68
-124
-136
-128
-131
-121
-133
-164
-181
-369
-525
242
1598
1608
73
-866
-477
-57
-110
-137
-87
-113
-111
-75
-72
-57
-13
25
62
103
127
139
146
145
130
110
102
117
142
146
108
49
2
-20
-34
-51
-59
-53
-40
-26
-25
-62
-114
-127
-123
-144
-137
-117
-149
-159
-258
-544
-223
1128
1822
588
-847
-792
-175
-75
-138
-84
-86
-94
-54
-44
-35
6
29
44
79
110
128
138
136
130
126
123
142
184
196
151
76
13
-18
-26
-42
-79
-88
-52
-47
-97
-119
-110
-124
-139
-152
-169
-150
-149
-189
-251
-476
-484
528
1701
1127
-599
-1178
-518
-75
-76
-59
-61
-124
-109
-60
-68
-61
21
87
85
100
145
136
104
113
110
87
119
188
204
157
80
1
-42
-50
-71
-100
-108
-100
-91
-70
-50
-71
-116
-128
-126
-142
-125
-101
-132
-150
-268
-534
-133
1245
1841
522
-863
-722
-109
-55
-132
-66
-67
-88
-52
-40
-34
2
26
43
72
92
107
134
145
125
104
110
138
170
169
114
39
-6
-26
-58
-97
-109
-94
-74
-52
-39
-68
-115
-128
-132
-154
-139
-122
-162
-189
-315
-566
-149
1208
1793
539
-781
-664
-111
-85
-160
-87
-85
-104
-63
-44
-39
-10
15
41
84
110
116
127
136
126
104
87
97
129
134
90
35
5
-16
-40
-62
-74
-74
-57
-36
-24
-35
-73
-104
-110
-125
-137
-113
-122
-156
-189
-414
-521
360
1630
1394
-151
-864
-388
-49
-125
-121
-72
-100
-87
-49
-46
-28
10
35
61
95
122
141
151
144
125
113
127
158
171
142
87
28
-16
-38
-55
-80
-92
-79
-64
-56
-51
-75
-125
-142
-141
-162
-151
-122
-157
-183
-294
-612
-347
1002
1751
522
-959
-888
-204
-81
-153
-84
-70
-86
-46
-23
-17
10
36
63
99
126
153
179
185
179
175
168
181
218
212
134
51
9
-23
-64
-93
-104
-107
-95
-72
-58
-71
-112
-151
-162
-169
-171
-143
-151
-190
-200
-404
-605
199
1640
1540
-253
-1232
-640
-84
-122
-125
-49
-76
-74
-34
-29
-12
20
40
72
113
141
165
185
183
162
144
155
194
213
175
100
28
-22
-47
-63
-78
-82
-62
-35
-21
-23
-46
-89
-116
-123
-136
-131
-113
-138
-159
-242
-511
-305
994
1958
935
-711
-876
-188
-26
-145
-87
-64
-105
-72
-43
-45
-16
18
35
61
97
123
135
139
133
112
99
124
163
163
111
36
-28
-59
-75
-102
-125
-117
-92
-72
-61
-70
-109
-141
-141
-147
-150
-127
-144
-176
-219
-479
-528
546
1879
1419
-304
-917
-326
-38
-169
-142
-82
-124
-117
-82
-76
-53
-16
14
44
68
89
116
127
111
96
90
95
127
155
121
46
-11
-38
-49
-56
-73
-89
-82
-64
-53
-49
-68
-111
-136
-138
-154
-151
-122
-139
-160
-235
-532
-456
738
1839
1084
-506
-830
-226
-27
-138
-97
-59
-89
-66
-39
-38
-16
13
33
65
102
127
142
145
132
107
90
103
132
130
82
28
-7
-37
-64
-73
-80
-97
-102
-81
-53
-36
-44
-86
-124
-123
-123
-131
-112
-120
-145
-165
-409
-593
259
1633
1472
-150
-938
-419
-26
-102
-101
-46
-73
-58
-23
-28
-8
34
50
69
106
141
164
174
167
155
144
151
184
200
151
70
7
-31
-50
-56
-70
-95
-113
-110
-85
-61
-58
-84
-125
-140
-132
-150
-159
-136
-158
-178
-232
-534
-494
712
1818
937
-785
-1062
-321
-43
-130
-80
-43
-70
-46
-21
-15
15
49
74
105
133
155
180
196
187
164
153
171
201
197
133
46
-17
-49
-69
-81
-93
-112
-119
-103
-78
-58
-48
-66
-108
-130
-130
-140
-129
-110
-140
-152
-249
-544
-270
1107
1959
798
-764
-809
-159
-48
-151
-89
-70
-97
-69
-50
-42
-12
11
24
56
91
117
143
156
140
114
112
138
166
156
92
15
-34
-64
-89
-96
-99
-121
-136
-114
-83
-68
-60
-73
-112
-134
-137
-154
-148
-129
-154
-170
-280
-560
-229
1150
1925
754
-718
-735
-154
-83
-170
-107
-97
-112
-73
-63
-62
-25
0
12
47
88
116
136
139
129
119
115
125
143
131
77
14
-35
-60
-68
-79
-91
-93
-105
-120
-103
-71
-59
-56
-65
-97
-117
-121
-136
-127
-111
-136
-148
-264
-518
-139
1190
1831
657
-687
-656
-120
-59
-135
-78
-67
-82
-53
-38
-29
-1
24
51
90
124
149
171
179
165
146
139
154
174
164
110
38
-13
-35
-48
-63
-75
-82
-93
-108
-110
-91
-71
-59
-57
-81
-113
-125
-140
-151
-127
-132
-154
-194
-452
-532
464
1740
1313
-366
-1004
-423
-63
-132
-112
-63
-91
-74
-35
-28
-17
7
33
71
108
132
151
162
158
142
123
125
153
169
131
55
-12
-55
-78
-88
-95
-106
-114
-119
-129
-137
-128
-106
-89
-85
-104
-129
-134
-141
-145
-118
-122
-156
-170
-357
-460
435
1806
1605
-98
-955
-436
-24
-113
-126
-66
-89
-81
-46
-45
-28
0
18
51
89
107
126
148
144
124
115
119
133
147
129
68
-1
-38
-48
-55
-67
-80
-92
-104
-115
-113
-98
-82
-67
-64
-89
-112
-113
-122
-120
-94
-115
-148
-192
-425
-390
705
1875
1258
-406
-891
-284
-14
-126
-97
-51
-86
-68
-32
-31
-17
11
33
61
93
116
140
156
144
111
91
99
121
128
94
30
-21
-47
-63
-80
-91
-98
-105
-121
-137
-141
-135
-125
-106
-81
-77
-103
-124
-130
-151
-153
-121
-135
-157
-185
-416
-417
621
1779
1225
-378
-873
-297
-21
-121
-97
-52
-85
-69
-32
-30
-18
16
50
81
107
132
158
170
158
141
132
136
157
168
132
68
23
0
-19
-31
-37
-46
-54
-63
-83
-104
-104
-91
-83
-73
-59
-75
-108
-111
-110
-127
-114
-104
-133
-139
-269
-487
28
1312
1601
225
-910
-663
-133
-74
-95
-46
-61
-60
-22
-17
-9
23
47
71
106
141
170
186
180
165
152
151
176
206
187
114
32
-26
-59
-78
-93
-106
-111
-113
-124
-138
-149
-157
-155
-141
-128
-121
-130
-149
-156
-159
-164
-137
-132
-168
-164
-306
-516
132
1516
1613
-36
-1147
-704
-111
-86
-101
-35
-53
-56
-20
-10
10
44
62
87
128
160
185
211
224
212
194
200
228
243
209
127
40
-11
-30
-42
-55
-67
-76
-83
-94
-110
-118
-116
-109
-97
-83
-89
-115
-126
-128
-132
-113
-117
-151
-147
-275
-453
197
1562
1681
63
-1048
-604
-36
-78
-127
-47
-62
-70
-26
-20
-13
26
47
65
106
139
152
168
180
167
143
141
165
185
162
90
13
-33
-57
-78
-92
-100
-104
-111
-123
-137
-141
-134
-123
-108
-87
-84
-113
-130
-123
-134
-136
-116
-138
-152
-195
-423
-254
956
1874
853
-798
-956
-212
-2
-120
-70
-41
-73
-40
-13
-17
12
48
67
94
129
157
178
187
177
161
153
164
191
193
135
48
-11
-37
-55
-69
-78
-86
-92
-100
-118
-137
-140
-125
-112
-103
-92
-103
-137
-146
-144
-164
-160
-145
-170
-176
-296
-538
-85
1229
1629
245
-989
-729
-128
-91
-156
-90
-86
-101
-69
-53
-41
-9
18
38
68
103
133
151
157
154
138
124
136
158
148
94
27
-20
-39
-43
-51
-64
-75
-83
-94
-109
-119
-116
-107
-95
-77
-64
-81
-106
-108
-116
-127
-100
-94
-125
-131
-290
-475
166
1431
1492
41
-900
-521
-51
-56
-73
-15
-26
-21
16
21
29
64
94
120
151
184
215
234
233
220
213
220
239
250
220
145
62
11
-8
-17
-27
-34
-43
-58
-74
-84
-87
-88
-87
-76
-56
-55
-85
-102
-95
-109
-114
-80
-95
-126
-140
-364
-427
548
1717
1137
-580
-1117
-434
-27
-66
-35
1
-32
-11
23
26
47
81
106
134
166
198
224
236
234
224
212
213
233
241
191
98
13
-36
-63
-82
-96
-104
-106
-112
-124
-137
-140
-133
-123
-110
-104
-128
-157
-158
-162
-173
-150
-154
-187
-196
-379
-534
255
1596
1486
-162
-1066
-570
-110
-169
-189
-129
-153
-152
-121
-124
-114
-78
-53
-29
4
32
56
79
86
72
54
47
57
68
43
-26
-100
-148
-173
-179
-177
-178
-177
-179
-198
-217
-205
-172
-151
-140
-138
-160
-181
-182
-194
-194
-156
-158
-188
-222
-428
-428
563
1747
1306
-270
-856
-329
-25
-107
-88
-37
-50
-20
21
28
55
99
134
174
223
266
301
327
337
327
315
328
356
355
307
241
184
145
130
132
136
133
129
127
