# session 40
52
43
-12
326
497
-94
-466
-86
140
-37
-72
-4
-44
-52
-13
-21
-23
0
3
4
20
32
42
57
71
86
106
127
150
177
202
222
239
254
268
280
276
237
166
84
7
-62
-117
-152
-170
-177
-180
-179
-176
-174
-172
-168
-162
-158
-155
-151
-146
-143
-139
-133
-131
-134
-136
-135
-135
-135
-133
-131
-131
-127
-124
-123
-117
-109
-113
-123
-113
-74
-26
1
-16
-63
-93
-93
-95
-97
-86
-91
-96
-72
-84
-123
-179
-293
129
1687
2905
1816
-291
-827
-172
4
-189
-157
-118
-169
-145
-115
-126
-110
-88
-85
-71
-51
-41
-29
-11
7
27
48
72
98
125
149
170
189
208
229
247
247
212
149
73
-5
-80
-138
-172
-188
-196
-198
-197
-192
-181
-173
-174
-174
-167
-159
-155
-149
-145
-144
-140
-134
-133
-135
-134
-127
-118
-114
-115
-114
-108
-98
-96
-103
-107
-89
-48
-3
19
-5
-54
-80
-79
-83
-81
-72
-84
-79
-51
-74
-104
-153
-228
364
1975
2806
1304
-684
-891
-169
-17
-146
-93
-78
-113
-82
-70
-82
-60
-40
-39
-26
-9
3
20
40
56
76
100
123
147
173
201
228
248
263
279
294
285
238
163
78
-10
-90
-146
-178
-199
-214
-218
-212
-206
-201
-194
-185
-177
-173
-169
-163
-157
-154
-153
-152
-151
-147
-145
-145
-145
-143
-140
-137
-133
-126
-120
-127
-134
-116
-72
-24
-4
-32
-80
-100
-97
-101
-99
-88
-98
-97
-71
-91
-129
-197
-271
367
2041
2905
1416
-534
-721
-75
-36
-203
-137
-125
-168
-131
-112
-125
-104
-84
-81
-66
-49
-39
-23
-5
11
30
53
75
99
126
152
174
192
207
223
239
235
194
124
46
-28
-94
-145
-174
-189
-195
-194
-192
-187
-182
-176
-171
-165
-158
-151
-146
-140
-136
-132
-129
-126
-124
-123
-120
-118
-115
-111
-109
-109
-104
-96
-98
-107
-98
-60
-13
16
2
-46
-80
-81
-80
-82
-72
-77
-85
-59
-65
-110
-160
-273
68
1559
2920
2025
-140
-852
-209
32
-170
-154
-103
-156
-137
-101
-114
-104
-79
-75
-66
-47
-34
-20
-3
13
31
53
74
98
126
152
176
196
212
231
248
249
216
150
70
-10
-81
-134
-168
-185
-193
-197
-197
-193
-188
-181
-174
-168
-163
-157
-150
-144
-139
-134
-129
-126
-124
-123
-122
-117
-113
-112
-111
-108
-106
-106
-105
-102
-96
-89
-87
-94
-95
-72
-27
17
19
-28
-71
-76
-75
-82
-73
-72
-86
-65
-57
-101
-139
-258
-134
1099
2727
2422
289
-878
-373
44
-130
-172
-93
-135
-142
-102
-107
-102
-73
-69
-66
-45
-28
-13
7
25
40
63
84
101
125
156
182
199
217
235
251
261
245
189
113
36
-34
-98
-147
-175
-183
-186
-188
-187
-183
-182
-179
-171
-163
-155
-147
-146
-145
-140
-136
-135
-131
-129
-129
-128
-124
-120
-118
-119
-119
-116
-113
-116
-113
-106
-102
-99
-98
-106
-109
-85
-43
-7
4
-24
-70
-88
-83
-83
-79
-83
-98
-76
-60
-96
-114
-203
-183
831
2506
2534
453
-1033
-649
-33
-80
-147
-71
-91
-106
-72
-76
-75
-49
-40
-31
-10
4
16
35
54
74
97
118
138
168
203
233
259
284
304
319
329
312
253
168
77
-14
-94
-152
-185
-200
-206
-214
-220
-214
-200
-192
-190
-180
-165
-159
-162
-158
-148
-142
-142
-144
-145
-143
-140
-140
-141
-141
-138
-131
-124
-122
-117
-111
-117
-126
-107
-61
-18
-6
-35
-75
-94
-96
-100
-94
-89
-103
-91
-66
-98
-133
-207
-269
471
2159
2751
1016
-820
-789
-96
-52
-177
-109
-110
-140
-97
-85
-94
-71
-56
-53
-37
-20
-10
7
27
45
65
89
113
141
172
204
235
259
280
298
308
291
236
152
62
-26
-101
-154
-184
-202
-213
-216
-215
-214
-209
-199
-189
-181
-172
-163
-156
-148
-141
-137
-133
-127
-124
-124
-124
-120
-114
-112
-114
-112
-108
-105
-102
-97
-96
-91
-82
-85
-98
-91
-55
-10
20
15
-27
-64
-68
-67
-71
-61
-59
-71
-48
-42
-91
-142
-250
-47
1275
2878
2462
304
-791
-279
64
-145
-174
-98
-146
-145
-99
-109
-107
-84
-82
-76
-57
-46
-37
-20
-4
13
33
54
77
104
131
157
183
203
219
237
246
219
154
72
-9
-81
-139
-179
-201
-210
-215
-218
-216
-210
-204
-198
-190
-183
-174
-165
-158
-153
-148
-144
-138
-131
-124
-120
-117
-114
-110
-109
-108
-106
-102
-99
-97
-95
-92
-88
-84
-82
-80
-73
-67
-73
-81
-65
-24
21
44
24
-23
-50
-50
-55
-58
-47
-58
-65
-36
-48
-100
-167
-263
231
1848
3019
1856
-210
-680
-78
11
-189
-138
-107
-160
-131
-103
-117
-101
-83
-82
-68
-51
-44
-29
-9
7
23
42
63
86
112
138
162
183
198
213
233
239
209
148
75
2
-67
-121
-157
-176
-181
-181
-180
-179
-179
-179
-174
-167
-161
-154
-148
-147
-144
-137
-130
-128
-128
-127
-125
-122
-120
-116
-110
-108
-109
-105
-99
-99
-103
-101
-93
-89
-89
-88
-87
-85
-78
-76
-85
-89
-71
-34
6
27
4
-44
-68
-68
-72
-67
-58
-74
-71
-45
-71
-110
-185
-278
379
2094
2928
1379
-554
-698
-59
-27
-178
-112
-108
-145
-104
-92
-107
-86
-68
-66
-52
-34
-21
-5
11
25
42
61
83
108
136
163
187
207
222
240
258
261
229
163
83
7
-62
-118
-155
-173
-180
-183
-183
-181
-176
-171
-168
-165
-160
-157
-153
-149
-144
-140
-140
-140
-136
-133
-133
-132
-128
-123
-121
-121
-121
-120
-115
-111
-109
-103
-94
-95
-107
-108
-80
-34
6
11
-26
-68
-77
-74
-81
-75
-70
-82
-66
-52
-93
-126
-216
-171
869
2570
2645
615
-848
-498
28
-100
-182
-98
-129
-147
-102
-102
-105
-78
-70
-66
-48
-35
-24
-7
8
25
47
68
89
116
144
169
192
212
227
243
254
240
188
111
31
-45
-111
-158
-185
-198
-205
-209
-207
-203
-198
-191
-182
-173
-165
-158
-150
-144
-140
-134
-131
-130
-127
-123
-119
-118
-117
-114
-111
-109
-107
-104
-100
-98
-95
-88
-82
-87
-96
-89
-56
-7
28
19
-29
-64
-65
-65
-71
-61
-63
-75
-53
-53
-100
-148
-258
8
1403
2869
2206
61
-816
-237
43
-161
-161
-99
-151
-143
-104
-116
-108
-83
-80
-71
-52
-42
-28
-10
6
23
42
63
87
113
138
163
184
199
213
231
238
216
160
86
10
-61
-118
-156
-178
-189
-194
-194
-191
-185
-178
-173
-168
-162
-156
-151
-146
-142
-138
-133
-129
-128
-126
-123
-119
-117
-116
-114
-111
-107
-106
-105
-98
-93
-98
-103
-85
-42
6
23
-7
-56
-76
-72
-77
-79
-71
-81
-78
-54
-75
-111
-180
-273
337
1999
2875
1408
-532
-717
-68
-22
-189
-124
-110
-156
-124
-106
-115
-94
-78
-77
-62
-46
-34
-14
3
12
28
53
75
97
121
145
167
188
206
219
233
233
196
125
47
-29
-96
-146
-174
-191
-202
-203
-198
-191
-186
-180
-174
-167
-157
-150
-148
-150
-147
-139
-133
-130
-128
-127
-125
-120
-117
-118
-116
-107
-104
-105
-98
-88
-88
-96
-92
-62
-14
21
10
-36
-69
-71
-72
-75
-64
-72
-83
-53
-51
-91
-118
-224
-1
1317
2716
2019
-148
-1039
-396
16
-111
-120
-68
-109
-100
-65
-74
-66
-44
-41
-33
-14
0
15
31
45
62
84
106
129
154
180
202
220
234
246
263
272
247
183
102
21
-56
-120
-163
-188
-199
-201
-197
-191
-184
-177
-169
-160
-154
-149
-147
-147
-147
-143
-140
-140
-140
-138
-137
-136
-135
-133
-132
-130
-128
-121
-113
-116
-126
-117
-77
-26
3
-14
-63
-96
-96
-96
-99
-87
-90
-97
-73
-77
-116
-168
-282
62
1533
2857
1970
-137
-819
-200
19
-181
-163
-112
-163
-145
-111
-124
-112
-88
-85
-73
-56
-47
-32
-11
3
18
38
58
79
103
125
143
160
174
186
200
210
188
132
63
-5
-69
-121
-154
-172
-180
-181
-177
-172
-166
-160
-154
-148
-143
-138
-133
-129
-127
-124
-121
-118
-117
-114
-110
-107
-105
-104
-102
-100
-97
-90
-85
-90
-96
-82
-40
10
31
2
-48
-72
-71
-75
-76
-68
-79
-78
-54
-75
-108
-173
-280
274
1899
2840
1462
-499
-757
-99
-8
-174
-122
-106
-149
-117
-96
-108
-88
-70
-68
-55
-38
-26
-10
7
21
38
58
78
100
124
145
163
178
191
205
221
224
196
134
59
-13
-80
-132
-161
-174
-182
-184
-178
-172
-167
-159
-151
-147
-143
-139
-138
-137
-134
-131
-129
-128
-126
-122
-119
-117
-116
-113
-111
-108
-106
-103
-100
-98
-94
-85
-84
-93
-96
-78
-37
10
27
-9
-60
-75
-72
-82
-80
-70
-79
-69
-56
-89
-115
-207
-271
543
2246
2715
951
-723
-603
-9
-52
-171
-100
-113
-141
-98
-91
-102
-78
-63
-61
-47
-31
-20
-5
12
28
47
67
84
100
120
143
159
168
180
197
214
217
190
129
53
-18
-78
-127
-156
-169
-173
-171
-164
-159
-157
-149
-140
-137
-138
-136
-133
-131
-130
-131
-130
-126
-123
-121
-119
-118
-116
-112
-108
-106
-104
-101
-99
-91
-81
-82
-93
-93
-66
-18
22
20
-26
-68
-77
-79
-86
-75
-73
-87
-68
-65
-103
-123
-218
-106
1037
2550
2211
112
-1036
-499
6
-97
-138
-74
-110
-113
-74
-79
-76
-51
-44
-35
-15
-1
12
30
47
62
81
101
120
143
166
185
199
211
221
234
247
236
189
117
41
-31
-94
-140
-167
-179
-184
-182
-176
-169
-163
-157
-149
-143
-139
-136
-135
-134
-132
-130
-130
-129
-128
-128
-128
-126
-123
-121
-120
-119
-117
-113
-109
-105
-102
-99
-93
-87
-88
-97
-96
-67
-16
24
18
-28
-65
-69
-71
-77
-67
-69
-81
-60
-59
-102
-145
-261
-40
1303
2800
2231
109
-829
-271
44
-148
-160
-97
-147
-141
-103
-112
-106
-83
-78
-67
-48
-38
-26
-7
8
22
40
60
81
102
121
137
152
162
171
184
195
187
147
85
20
-44
-98
-136
-158
-170
-174
-171
-165
-157
-150
-145
-141
-136
-133
-130
-128
-125
-123
-121
-120
-117
-116
-116
-115
-111
-108
-106
-102
-101
-101
-96
-92
-91
-85
-78
-83
-94
-87
-52
-1
34
22
-27
-61
-62
-65
-72
-62
-68
-78
-54
-57
-98
-144
-277
-34
1354
2791
2093
-28
-855
-253
44
-144
-149
-94
-142
-132
-95
-105
-98
-75
-71
-60
-43
-32
-19
-2
13
30
49
66
84
107
130
147
161
174
185
198
209
199
151
82
13
-56
-119
-156
-170
-178
-186
-186
-179
-172
-165
-160
-157
-154
-147
-142
-138
-132
-128
-130
-132
-127
-124
-123
-122
-119
-116
-111
-108
-109
-105
-100
-101
-102
-94
-86
-93
-99
-82
-44
-2
20
-7
-58
-74
-66
-76
-77
-67
-83
-78
-49
-76
-106
-167
-235
453
2096
2722
1049
-785
-789
-101
-36
-151
-85
-86
-117
-84
-78
-84
-57
-40
-38
-23
-4
13
30
42
54
73
96
120
142
163
186
204
214
226
241
255
257
228
162
80
2
-68
-121
-154
-178
-190
-186
-180
-179
-171
-161
-157
-155
-149
-148
-149
-145
-140
-140
-141
-138
-134
-134
-137
-134
-129
-129
-132
-128
-121
-120
-122
-115
-104
-103
-112
-109
-78
-30
3
-7
-49
-81
-83
-87
-92
-80
-82
-94
-71
-67
-107
-144
-245
-13
1302
2727
2090
-57
-975
-358
24
-136
-151
-89
-134
-127
-89
-97
-90
-65
-60
-49
-32
-22
-8
11
26
44
66
87
106
128
150
170
186
198
210
225
234
216
162
89
13
-57
-113
-151
-174
-186
-189
-185
-180
-174
-169
-163
-155
-148
-142
-136
-131
-127
-124
-121
-119
-118
-115
-114
-113
-112
-109
-108
-106
-102
-99
-96
-94
-91
-85
-78
-80
-90
-86
-53
-5
29
22
-24
-61
-62
-59
-63
-56
-60
-74
-53
-48
-95
-145
-252
-20
1327
2847
2306
171
-799
-253
52
-155
-165
-95
-148
-143
-101
-112
-108
-82
-77
-70
-54
-44
-31
-13
0
16
37
56
74
94
115
134
147
158
168
182
193
180
134
70
4
-58
-112
-149
-168
-177
-180
-180
-177
-172
-166
-161
-156
-152
-148
-143
-138
-134
-132
-130
-127
-124
-124
-123
-119
-116
-113
-110
-107
-107
-106
-103
-101
-100
-99
-99
-98
-99
-94
-84
-83
-96
-98
-68
-20
14
12
-27
-66
-73
-75
-83
-74
-71
-84
-61
-51
-96
-138
-249
-124
1085
2708
2441
343
-831
-350
50
-131
-174
-98
-140
-142
-98
-108
-110
-84
-78
-72
-52
-37
-24
-7
5
19
41
63
82
102
124
144
160
172
183
197
211
208
174
116
47
-23
-81
-121
-145
-155
-157
-156
-153
-145
-138
-134
-128
-120
-119
-119
-114
-110
-107
-101
-95
-96
-95
-91
-88
-86
-83
-83
-83
-79
-77
-78
-77
-74
-73
-71
-67
-66
-61
-53
-55
-66
-64
-34
13
49
46
0
-40
-45
-46
-52
-42
-43
-54
-32
-31
-72
-102
-208
-15
1262
2715
2144
9
-948
-344
56
-99
-119
-57
-102
-99
-61
-70
-69
-49
-43
-34
-19
-11
2
19
34
50
70
89
107
126
148
166
179
189
198
210
219
207
159
87
12
-58
-119
-163
-192
-210
-218
-217
-212
-207
-201
-196
-193
-188
-182
-178
-175
-174
-175
-175
-170
-167
-167
-167
-167
-167
-164
-158
-154
-153
-152
-150
-147
-146
-142
-137
-136
-134
-126
-124
-135
-138
-111
-64
-23
-16
-54
-97
-104
-100
-107
-99
-92
-105
-89
-74
-107
-141
-256
-219
859
2563
2582
563
-818
-450
30
-107
-175
-101
-140
-152
-105
-110
-117
-91
-77
-68
-52
-45
-36
-16
4
20
35
47
61
82
104
118
127
136
142
149
154
139
96
