# session 13
-14
-100
90
36
-542
-853
-452
-78
-133
-159
-52
-52
-38
62
48
-30
11
63
21
45
176
218
148
143
224
244
148
43
23
31
-17
-51
-5
33
0
-23
32
89
39
-62
-82
-62
-107
-196
-277
-275
-217
-322
-168
1044
2308
1629
-285
-1033
-565
-325
-398
-300
-215
-238
-192
-125
-112
-81
-30
13
78
160
232
307
349
330
319
328
284
208
149
76
10
2
13
29
59
6
-126
-170
-118
-106
-129
-144
-179
-202
-198
-217
-208
-228
-316
187
1548
2115
666
-1034
-1107
-418
-243
-297
-202
-170
-202
-168
-142
-156
-149
-132
-129
-106
-34
52
101
107
100
111
153
183
125
24
0
7
-75
-176
-176
-133
-126
-111
-73
-59
-75
-112
-186
-233
-190
-184
-249
-203
-233
-374
404
2116
2426
523
-1043
-821
-229
-180
-212
-167
-144
-56
35
70
138
202
214
239
265
264
310
373
343
270
236
170
10
-168
-285
-328
-327
-328
-317
-282
-277
-284
-224
-174
-232
-321
-378
-386
-286
-184
-186
-168
-254
-356
509
2107
2097
61
-1310
-912
-363
-392
-389
-287
-273
-223
-192
-275
-273
-116
-13
-50
-97
-57
47
150
231
301
329
283
199
92
-45
-154
-188
-185
-169
-137
-107
-78
-56
-71
-98
-90
-97
-133
-111
-83
-126
-137
-179
-187
617
2098
2281
597
-718
-463
85
127
103
142
107
100
153
181
171
144
125
115
84
31
-27
-75
-81
-19
69
109
62
-28
-109
-174
-190
-126
-66
-76
-74
-11
8
-61
-104
-86
-122
-184
-150
-154
-255
-261
-322
-325
679
2221
1999
-33
-1211
-772
-310
-356
-339
-255
-275
-271
-233
-225
-201
-158
-126
-57
46
79
59
133
241
201
86
59
55
-5
-52
-75
-132
-189
-185
-132
-75
-29
-9
-48
-119
-143
-130
-133
-135
-156
-165
-126
-262
-260
856
2345
1886
-206
-1158
-511
-10
-62
-51
-5
-49
-44
-42
-110
-182
-265
-337
-308
-210
-131
-69
-10
29
51
56
54
40
-20
-105
-124
-89
-98
-124
-79
-10
1
-22
-36
-33
-44
-110
-159
-145
-166
-186
-195
-378
-159
1263
2554
1688
-262
-896
-426
-243
-323
-273
-252
-256
-174
-119
-106
-53
-31
-81
-116
-100
-48
31
68
39
41
97
104
44
-10
-32
-52
-89
-120
-96
-26
42
75
52
10
22
15
-81
-92
27
39
-16
-2
-70
237
1512
2399
1239
-593
-895
-218
-14
-157
-147
-108
-151
-243
-358
-392
-323
-243
-174
-112
-86
-60
-16
-2
3
44
71
38
-4
-13
-14
-31
-50
-52
-58
-67
-40
-11
-52
-114
-105
-80
-100
-129
-186
-229
-202
-394
-565
535
2467
2483
229
-1263
-829
-214
-223
-267
-202
-150
-78
-67
-130
-156
-168
-195
-151
-29
66
110
139
139
128
158
171
84
-39
-107
-123
-122
-132
-144
-122
-72
-29
2
13
-4
-30
-59
-53
16
37
3
31
-70
-137
795
2286
2073
74
-1069
-590
-119
-209
-292
-324
-382
-344
-299
-295
-251
-219
-229
-196
-134
-95
-45
18
64
108
156
180
149
67
9
-7
-74
-156
-128
-65
-63
-23
55
18
-72
-79
-93
-157
-166
-164
-187
-200
-371
-363
761
2268
1928
-49
-1101
-690
-324
-386
-343
-234
-221
-217
-225
-251
-230
-191
-170
-139
-81
-13
34
39
37
79
140
160
126
79
42
-5
-65
-90
-37
32
47
60
112
130
100
77
48
37
88
113
111
98
-31
228
1474
2440
1442
-332
-735
-207
-79
-193
-191
-308
-447
-378
-263
-236
-221
-192
-166
-143
-129
-102
-47
2
38
82
118
116
79
21
-33
-49
-49
-85
-128
-104
-37
-18
-79
-130
-117
-142
-209
-180
-135
-183
-216
-385
-547
420
2266
2393
248
-1281
-902
-309
-335
-331
-224
-290
-341
-252
-193
-241
-282
-239
-172
-129
-68
17
70
79
89
117
130
95
29
-35
-82
-111
-114
-100
-84
-58
-17
5
-3
-3
-1
-39
-46
16
-2
-69
-28
-83
-10
1105
2545
2096
92
-846
-324
47
-33
10
64
-28
-112
-185
-271
-278
-225
-179
-132
-71
-5
44
46
22
16
15
0
-34
-94
-154
-178
-194
-224
-219
-170
-125
-96
-78
-80
-89
-122
-181
-171
-100
-122
-161
-160
-280
54
1489
2499
1265
-713
-1069
-411
-232
-327
-251
-231
-277
-242
-218
-237
-209
-137
-76
-27
34
95
127
132
140
155
154
125
68
-6
-68
-104
-126
-131
-93
-29
18
26
14
9
-3
-56
-87
-53
-67
-121
-119
-250
-191
946
2260
1579
-456
-1185
-509
-136
-236
-199
-142
-179
-162
-136
-138
-112
-84
-67
-20
38
82
123
145
138
143
175
199
171
97
23
-16
-33
-46
-38
-10
12
19
-2
-47
-76
-97
-135
-135
-126
-181
-207
-266
-430
108
1688
2365
772
-1018
-1012
-309
-202
-269
-183
-194
-236
-194
-171
-170
-139
-114
-96
-55
-10
29
63
78
80
98
128
123
57
-29
-76
-94
-124
-153
-137
-84
-42
-33
-51
-69
-83
-117
-138
-108
-105
-147
-184
-309
-165
969
2184
1481
-517
-1230
-517
-111
-224
-186
-120
-184
-169
-107
-112
-110
-66
-26
6
47
89
114
128
140
151
171
188
165
99
38
4
-18
-32
-28
-10
8
2
-31
-51
-53
-68
-74
-65
-85
-104
-217
-446
-28
1382
2071
739
-831
-820
-194
-140
-243
-163
-147
-172
-139
-132
-138
-108
-81
-55
-20
-7
-7
3
7
11
52
118
145
112
59
28
7
-22
-39
-24
4
23
19
-4
-21
-36
-62
-65
-68
-101
-104
-246
-537
-65
1404
1952
540
-821
-655
-135
-161
-216
-131
-154
-178
-131
-112
-109
-101
-109
-86
-27
3
1
8
24
48
95
143
150
120
97
91
72
34
7
5
21
34
18
-20
-48
-70
-83
-73
-86
-118
-138
-337
-557
42
1234
1219
-293
-1238
-754
-145
-94
-119
-69
-80
-76
-38
-30
-22
1
22
55
89
96
99
113
118
134
186
223
203
170
157
131
86
56
43
29
28
46
35
-10
-38
-59
-93
-87
-80
-123
-118
-228
-550
-211
1098
1513
-16
-1422
-1110
-297
-112
-138
-73
-78
-95
-61
-47
-37
-9
6
30
79
114
127
147
160
162
199
262
270
216
168
142
112
85
83
94
104
106
83
45
19
-6
-28
-24
-37
-60
-86
-344
-590
177
1587
1532
-162
-1131
-624
-131
-183
-182
-102
-146
-164
-115
-102
-101
-79
-59
-37
-6
19
28
20
20
60
120
153
133
78
32
10
-20
-52
-52
-34
-23
-17
-35
-74
-94
-106
-120
-103
-106
-140
-172
-400
-591
216
1649
1645
21
-962
-571
-158
-200
-190
-121
-145
-139
-100
-86
-57
-27
-21
5
44
57
66
80
85
102
146
174
156
119
94
81
68
50
41
46
63
72
42
-11
-44
-68
-80
-69
-97
-138
-167
-403
-540
326
1567
1208
-503
-1258
-665
-188
-203
-184
-125
-145
-131
-95
-100
-89
-38
7
26
40
76
115
118
104
128
181
203
168
110
64
29
-10
-44
-49
-31
-8
8
-3
-36
-53
-71
-101
-90
-80
-112
-104
-237
-509
38
1511
1837
169
-1216
-901
-220
-126
-138
-65
-83
-90
-41
-28
-19
21
55
75
103
143
178
186
180
204
251
270
234
166
107
67
33
14
20
39
61
74
49
7
-14
-41
-70
-53
-57
-100
-117
-313
-568
115
1607
1811
205
-954
-632
-170
-213
-238
-176
-210
-223
-187
-178
-171
-155
-146
-126
-104
-83
-54
-35
-28
9
72
106
77
14
-29
-47
-67
-83
-68
-42
-24
-16
-28
-57
-74
-83
-90
-92
-113
-130
-204
-446
-322
794
1789
1022
-592
-1000
-413
-148
-225
-190
-147
-166
-143
-111
-101
-73
-38
-11
21
51
74
92
98
104
131
167
169
133
85
40
0
-25
-26
-7
17
35
30
-11
-51
-68
-91
-106
-101
-133
-159
-215
-467
-340
900
1999
1117
-669
-1082
-421
-137
-208
-165
-133
-153
-108
-70
-68
-36
5
31
71
118
155
193
227
244
269
311
316
256
179
124
79
41
39
64
80
87
90
60
11
-27
-64
-81
-63
-75
-103
-190
-485
-389
861
1995
1120
-672
-1058
-380
-125
-215
-153
-120
-170
-142
-101
-107
-86
-42
-19
1
36
61
69
84
107
124
135
128
69
-12
-55
-78
-115
-126
-92
-59
-48
-56
-95
-139
-165
-193
-197
-183
-224
-256
-321
-568
-316
1087
2108
999
-808
-1094
-441
-237
-312
-256
-239
-262
-224
-200
-198
-161
-119
-85
-44
-5
26
56
75
88
119
161
170
129
66
9
-37
-59
-43
-9
26
54
47
7
-22
-46
-77
-70
-61
-103
-122
-243
-458
100
1577
2016
439
-1014
-789
-132
-90
-167
-104
-116
-127
-77
-78
-94
-62
-29
-5
40
90
124
145
154
175
225
267
255
203
154
125
100
81
91
118
131
125
99
53
5
-40
-60
-39
-50
-96
-150
-392
-496
471
1890
1668
-46
-894
-423
-96
-223
-226
-163
-200
-195
-157
-170
-173
-137
-111
-88
-54
-23
-5
6
9
20
56
84
48
-27
-67
-71
-87
-103
-87
-52
-21
-7
-33
-79
-112
-137
-136
-114
-136
-164
-234
-455
-281
833
1671
784
-704
-945
-365
-151
-212
-174
-148
-162
-134
-109
-105
-82
-52
-31
-5
25
50
68
77
85
108
143
156
122
64
16
-17
-30
-10
24
45
57
53
20
-20
-59
-86
-71
-74
-123
-127
-267
-573
-119
1306
1773
283
-1133
-951
-284
-136
-143
-82
-99
-109
-65
-43
-18
26
51
77
119
150
167
177
171
177
215
245
227
168
107
77
65
45
43
75
102
104
94
69
32
-10
-46
-36
-20
-62
-96
-232
-511
-97
1344
1979
573
-981
-936
-287
-155
-198
-146
-162
-172
-124
-116
-114
-72
-40
-27
-3
29
57
73
75
87
119
141
115
50
-12
-52
-80
-89
-66
-27
1
11
-9
-55
-93
-120
-150
-150
-150
-182
-204
-365
-595
7
1513
1943
404
-999
-831
-277
-252
-298
-223
-228
-239
-197
-175
-151
-106
-79
-59
-14
34
62
68
65
78
114
143
123
64
14
-14
-39
-48
-25
10
38
56
40
-3
-33
-59
-76
-55
-61
-94
-121
-332
-443
449
1788
1549
-181
-1079
-587
-141
-177
-169
-105
-128
-116
-66
-53
-40
-7
21
43
70
102
125
123
112
132
180
200
161
89
32
15
14
3
0
18
42
51
29
-10
-35
-60
-79
-59
-65
-98
-118
-358
-538
404
1937
1740
-196
-1235
-685
-162
-178
-160
-101
-136
-122
-82
-84
-56
-5
13
32
70
104
133
142
123
123
162
188
155
75
-11
-53
-48
-42
-47
-32
0
18
1
-36
-61
-88
-129
-133
-133
-175
-195
-343
-595
-16
1546
2050
500
-953
-799
-239
-223
-290
-236
-240
-241
-206
-197
-175
-138
-119
-85
-31
2
17
24
15
22
74
120
106
46
-23
-75
-96
-91
-64
-17
20
26
24
29
7
-32
17
135
113
-25
-105
-335
-550
290
1817
1780
-28
-1096
-620
-152
-226
-228
-151
-185
-177
-122
-113
-93
-46
-20
-8
14
48
79
87
85
105
133
132
101
56
10
-21
-37
-56
-63
-35
3
14
-3
-30
-51
-85
-120
-105
-98
-140
-145
-290
-572
-11
1542
2021
468
-951
-767
-189
-137
-167
-102
-118
-120
-68
-47
-33
-7
7
34
85
119
135
156
168
174
200
227
199
125
58
14
-16
-18
0
5
1
26
54
22
-41
-71
-96
-112
-78
-73
-103
-169
-473
-508
695
2095
1480
-457
-1141
-514
-161
-238
-228
-207
-213
-174
-188
-196
-87
-9
-36
-23
51
73
53
49
42
43
97
134
73
-23
-64
-87
-125
-128
-99
-90
-65
-9
-26
-121
-167
-164
-177
-160
-150
-209
-202
-262
-593
-298
1287
2295
984
-873
-1079
-433
-243
-226
-94
-90
-133
-92
-88
-90
-15
13
-8
73
155
111
107
185
170
149
247
256
104
22
25
-28
-51
35
87
44
35
83
58
-25
-10
39
-43
-117
-63
-68
-124
-177
-406
-152
1335
2399
1054
-1085
-1397
-502
-171
-265
-122
-28
-214
-304
-129
-5
-45
-32
36
61
147
238
156
107
256
306
172
157
223
102
-68
-59
-59
-216
-246
-8
165
77
-51
-82
-99
-118
-88
-36
-74
-227
-256
-174
-358
-189
1215
2266
957
-1060
-1314
-600
-369
-300
-195
-318
-302
-70
-102
-266
-159
30
48
-31
-62
90
310
264
87
163
291
170
54
59
-77
-232
-134
-33
-143
-175
-13
51
-32
-15
73
-38
-255
-212
-23
-76
-219
-263
-423
-145
1256
2269
1106
-849
-1362
-750
-250
-109
-202
-291
-168
-68
-140
-140
-18
65
100
132
177
255
270
168
155
309
340
170
78
89
24
-54
-70
-101
-82
39
68
-21
-24
22
-33
-108
-133
-134
-119
-184
-266
-200
-235
-187
865
2191
1652
-280
-1044
-471
-194
-307
-182
-101
-219
-187
-74
-106
-135
-39
51
56
42
95
180
168
95
110
162
119
25
-54
-109
-103
-82
-135
-203
-194
-124
-49
-50
-127
-133
-77
-154
-252
-166
-130
-246
-218
-256
-379
548
2261
2177
-11
-1333
-775
-193
-263
-209
-65
-166
-190
-21
-21
-177
-128
78
117
28
73
207
223
183
220
258
225
162
64
-67
-155
-165
-155
-166
-106
56
107
-49
-128
-7
21
-123
-151
-43
-71
-174
-157
-242
-356
387
1882
2158
482
-1037
-926
-289
-177
-259
-245
-263
-268
-209
-170
-133
-67
-51
-72
5
143
157
51
16
118
221
166
-7
-83
-32
-74
-245
-318
-202
-89
-133
-189
-76
14
-109
-165
-19
-28
-226
-242
-86
-52
-261
-524
-40
1523
2440
1115
-876
-1232
-481
-194
-298
-193
-90
-208
-302
-220
-101
-96
-149
-67
131
197
112
106
205
251
237
228
205
174
148
89
25
12
28
