# session 34
-29
-39
-22
121
209
44
-161
-226
-278
-355
-380
-380
-389
-386
-373
-363
-349
-332
-316
-298
-280
-265
-249
-235
-223
-210
-200
-195
-190
-184
-178
-172
-166
-161
-156
-151
-145
-137
-130
-125
-117
-107
-105
-112
-108
-77
-26
15
18
-19
-52
-54
-50
-54
-42
-37
-50
-32
-18
-59
-115
-243
-100
1176
2921
2795
722
-583
-259
68
-128
-171
-92
-137
-142
-96
-101
-98
-70
-63
-57
-38
-25
-12
9
26
43
65
88
113
144
175
201
223
244
265
281
272
222
142
56
-27
-97
-146
-173
-187
-191
-190
-187
-183
-178
-172
-167
-160
-153
-147
-139
-132
-126
-122
-117
-114
-111
-108
-107
-107
-108
-107
-104
-101
-98
-96
-92
-89
-87
-87
-85
-83
-81
-76
-75
-85
-97
-88
-50
-1
25
4
-42
-65
-61
-66
-69
-59
-66
-67
-42
-55
-101
-182
-290
254
1927
3079
1904
-121
-608
-91
-36
-218
-168
-145
-192
-161
-137
-148
-129
-109
-106
-92
-73
-59
-42
-23
-7
12
36
62
88
117
147
174
196
217
239
253
234
171
85
1
-77
-142
-183
-205
-219
-225
-223
-216
-210
-205
-199
-192
-183
-175
-168
-160
-155
-151
-148
-142
-136
-134
-131
-127
-125
-125
-124
-122
-119
-115
-111
-108
-105
-102
-99
-95
-94
-95
-92
-87
-88
-98
-101
-79
-33
9
14
-22
-61
-70
-69
-72
-62
-60
-76
-57
-38
-77
-121
-237
-192
893
2638
2753
793
-650
-393
27
-123
-196
-114
-142
-157
-117
-119
-116
-87
-76
-69
-50
-37
-24
-2
18
38
61
83
110
141
169
194
220
247
271
289
286
242
164
79
-4
-81
-141
-179
-198
-199
-188
-180
-179
-175
-170
-170
-167
-156
-143
-137
-135
-130
-127
-124
-119
-116
-117
-117
-114
-112
-112
-112
-112
-108
-100
-96
-95
-93
-89
-85
-82
-86
-97
-96
-59
-7
20
2
-40
-70
-74
-76
-75
-64
-70
-77
-53
-59
-95
-129
-232
60
1439
2769
1990
-103
-892
-303
-3
-158
-152
-104
-148
-134
-100
-110
-100
-76
-70
-60
-40
-26
-11
9
29
51
76
103
133
167
202
233
260
284
306
313
287
217
122
26
-62
-140
-194
-221
-234
-244
-248
-245
-239
-232
-220
-208
-198
-188
-179
-169
-161
-152
-144
-140
-137
-131
-128
-130
-130
-127
-125
-125
-123
-122
-119
-113
-108
-106
-101
-95
-97
-106
-101
-68
-19
12
1
-40
-70
-71
-71
-75
-65
-65
-75
-52
-49
-94
-152
-268
14
1437
2969
2414
313
-661
-211
21
-182
-185
-123
-173
-164
-125
-133
-122
-97
-91
-80
-62
-51
-36
-16
2
21
42
67
96
126
154
182
206
223
241
256
243
188
108
24
-55
-124
-173
-201
-212
-216
-218
-216
-208
-201
-193
-186
-177
-169
-159
-152
-145
-138
-132
-128
-125
-123
-122
-119
-117
-116
-113
-108
-105
-102
-99
-97
-94
-90
-84
-80
-82
-92
-92
-64
-13
26
20
-22
-54
-57
-60
-65
-55
-55
-68
-48
-42
-83
-130
-248
-65
1232
2841
2512
445
-683
-275
32
-159
-185
-114
-158
-160
-122
-127
-120
-94
-90
-81
-62
-50
-36
-15
3
22
45
68
96
127
155
183
208
228
245
261
253
201
120
34
-48
-121
-176
-210
-225
-229
-229
-225
-216
-208
-201
-191
-182
-176
-169
-160
-156
-152
-146
-142
-139
-137
-134
-132
-130
-128
-127
-126
-124
-119
-113
-112
-110
-107
-105
-100
-94
-98
-109
-103
-67
-14
16
-4
-50
-75
-69
-66
-70
-76
-85
-70
-44
-70
-109
-177
-289
251
1897
2966
1740
-226
-635
-87
-1
-164
-150
-156
-181
-128
-110
-129
-108
-83
-77
-65
-46
-31
-16
0
19
41
64
88
111
138
172
205
230
250
271
281
253
176
84
2
-74
-138
-173
-193
-217
-230
-223
-216
-214
-199
-181
-172
-164
-154
-146
-141
-137
-131
-121
-117
-124
-134
-125
-106
-105
-121
-123
-109
-104
-99
-80
-78
-106
-114
-71
-15
13
0
-41
-65
-53
-50
-62
-69
-88
-93
-61
-65
-97
-139
-240
166
1663
2851
1814
-268
-876
-260
-21
-165
-147
-118
-159
-134
-104
-115
-104
-84
-79
-67
-50
-35
-14
5
22
51
84
106
129
165
203
230
251
273
298
306
270
189
90
-7
-96
-169
-217
-240
-251
-258
-259
-253
-248
-239
-225
-218
-218
-207
-184
-166
-157
-149
-143
-141
-141
-139
-138
-138
-139
-136
-128
-127
-136
-140
-124
-85
-38
-13
-34
-78
-95
-89
-92
-91
-83
-93
-88
-64
-86
-124
-206
-267
464
2183
2951
1421
-423
-586
-58
-75
-214
-147
-148
-186
-147
-131
-139
-116
-99
-93
-73
-55
-44
-27
-8
12
36
64
92
119
148
178
205
225
246
267
267
228
153
64
-22
-97
-154
-189
-207
-216
-222
-221
-214
-207
-199
-188
-177
-169
-162
-153
-143
-137
-132
-127
-124
-122
-121
-120
-117
-111
-110
-119
-126
-113
-77
-30
3
-7
-53
-83
-81
-81
-85
-77
-80
-86
-63
-71
-111
-164
-287
50
1537
2937
2161
74
-726
-219
-9
-190
-182
-136
-181
-165
-132
-142
-130
-106
-100
-87
-68
-55
-40
-21
-3
20
45
69
97
129
161
189
212
233
255
265
238
171
85
-5
-91
-159
-199
-223
-237
-239
-237
-236
-232
-222
-212
-203
-194
-186
-176
-166
-157
-154
-153
-149
-141
-137
-137
-137
-133
-125
-121
-127
-132
-122
-90
-43
-5
-9
-55
-90
-91
-93
-97
-84
-88
-100
-77
-78
-116
-154
-275
-37
1341
2821
2207
90
-845
-325
-12
-164
-168
-116
-155
-139
-103
-115
-107
-81
-76
-68
-47
-28
-11
13
35
53
73
100
132
163
195
228
258
282
305
318
295
226
136
42
-51
-124
-166
-190
-206
-214
-216
-212
-205
-196
-187
-178
-170
-164
-156
-149
-144
-140
-136
-134
-134
-132
-132
-133
-128
-117
-115
-125
-129
-109
-70
-27
-9
-32
-75
-97
-97
-101
-98
-87
-97
-92
-68
-90
-123
-190
-263
393
2063
2877
1366
-564
-764
-136
-62
-197
-141
-135
-171
-136
-120
-130
-110
-92
-87
-70
-51
-38
-20
0
19
43
70
99
130
163
195
224
248
270
291
290
243
158
64
-26
-107
-170
-208
-229
-241
-247
-247
-243
-236
-228
-216
-203
-192
-180
-167
-157
-151
-146
-140
-135
-131
-128
-127
-127
-125
-122
-117
-113
-117
-125
-126
-106
-62
-13
5
-23
-67
-83
-81
-86
-85
-76
-87
-82
-55
-76
-120
-216
-308
397
2173
3078
1612
-303
-547
-35
-62
-218
-148
-144
-185
-148
-131
-139
-115
-98
-96
-79
-60
-50
-35
-16
4
24
47
75
105
134
164
190
209
230
253
257
220
146
61
-23
-97
-155
-188
-204
-212
-217
-216
-210
-204
-197
-187
-179
-173
-162
-152
-145
-140
-132
-126
-122
-119
-116
-113
-109
-109
-108
-106
-105
-104
-99
-95
-94
-88
-82
-88
-98
-89
-58
-14
21
15
-31
-66
-67
-66
-73
-66
-68
-76
-50
-46
-93
-150
-277
-36
1371
2958
2464
349
-673
-231
18
-183
-193
-131
-176
-168
-133
-143
-131
-106
-105
-95
-74
-62
-47
-26
-12
3
28
55
84
115
140
163
191
218
240
254
244
190
107
24
-50
-116
-165
-193
-202
-202
-201
-201
-199
-192
-182
-173
-167
-161
-152
-146
-145
-142
-136
-130
-122
-114
-114
-116
-113
-110
-110
-111
-108
-102
-100
-100
-96
-91
-90
-89
-88
-86
-78
-69
-73
-81
-73
-44
-4
29
27
-12
-46
-51
-54
-58
-46
-47
-56
-36
-43
-87
-131
-250
16
1412
2821
2081
-70
-919
-324
-2
-148
-137
-86
-135
-123
-87
-96
-86
-63
-60
-48
-25
-10
4
23
44
66
89
114
145
179
210
242
269
290
312
329
314
252
165
70
-23
-101
-157
-194
-214
-221
-224
-225
-220
-213
-207
-199
-191
-184
-175
-166
-161
-156
-148
-144
-143
-143
-142
-141
-140
-139
-139
-136
-132
-130
-127
-123
-120
-118
-112
-106
-100
-99
-109
-117
-102
-59
-10
10
-15
-57
-77
-76
-80
-79
-69
-80
-80
-55
-73
-123
-220
-313
350
2127
3183
1852
-144
-537
-53
-60
-233
-171
-157
-203
-168
-147
-154
-132
-115
-113
-96
-77
-66
-49
-29
-12
9
33
59
88
118
147
176
201
221
242
253
228
163
79
-5
-80
-141
-180
-200
-208
-212
-214
-212
-207
-202
-196
-188
-180
-172
-162
-150
-142
-135
-128
-122
-119
-117
-112
-109
-108
-107
-106
-103
-100
-98
-95
-90
-85
-84
-82
-77
-71
-70
-79
-87
-80
-49
-1
33
22
-22
-53
-53
-53
-56
-47
-52
-61
-36
-37
-85
-151
-280
36
1526
3023
2356
247
-645
-176
21
-181
-175
-122
-173
-161
-127
-137
-127
-103
-98
-87
-68
-56
-40
-22
-5
15
37
60
89
122
155
184
210
233
256
269
252
196
114
25
-59
-127
-172
-198
-213
-220
-221
-222
-224
-221
-213
-205
-196
-187
-177
-166
-158
-154
-149
-142
-141
-142
-139
-133
-129
-128
-125
-122
-120
-115
-107
-104
-106
-106
-101
-96
-93
-94
-104
-110
-92
-49
-4
14
-11
-54
-72
-74
-79
-72
-61
-73
-65
-44
-74
-104
-186
-247
543
2281
2876
1170
-601
-598
-35
-70
-187
-111
-120
-153
-111
-99
-105
-81
-66
-61
-44
-26
-13
5
24
44
69
96
125
156
188
220
253
280
300
318
322
287
210
114
20
-66
-133
-176
-200
-216
-222
-222
-220
-217
-210
-202
-194
-185
-177
-169
-161
-154
-149
-146
-143
-141
-140
-140
-140
-139
-136
-135
-132
-128
-125
-123
-119
-113
-109
-113
-123
-117
-79
-26
3
-12
-54
-81
-83
-85
-85
-74
-81
-90
-65
-70
-112
-178
-296
103
1661
3030
2154
52
-682
-169
-13
-211
-187
-143
-191
-169
-139
-150
-133
-110
-108
-94
-73
-63
-48
-28
-10
11
35
59
85
118
152
181
206
227
249
262
243
183
97
11
-68
-135
-180
-204
-215
-219
-220
-217
-210
-201
-192
-184
-177
-169
-159
-151
-145
-139
-131
-126
-122
-121
-121
-119
-115
-112
-111
-111
-107
-101
-96
-99
-106
-105
-84
-41
6
17
-19
-60
-70
-69
-76
-69
-64
-79
-66
-48
-82
-118
-221
-218
767
2543
2871
1000
-596
-449
13
-112
-208
-128
-155
-177
-132
-130
-137
-112
-101
-94
-73
-59
-48
-28
-9
7
30
57
83
113
145
176
204
227
249
269
269
226
145
54
-32
-107
-164
-197
-212
-218
-221
-223
-218
-208
-199
-192
-186
-178
-167
-156
-151
-150
-146
-140
-137
-136
-133
-133
-136
-135
-128
-125
-125
-120
-110
-108
-117
-123
-107
-67
-21
1
-19
-61
-84
-83
-89
-90
-78
-85
-86
-58
-75
-117
-186
-284
262
1895
2932
1659
-328
-704
-118
-35
-199
-146
-125
-169
-137
-115
-124
-102
-82
-81
-68
-48
-36
-19
3
23
42
66
96
127
157
187
216
237
256
279
294
271
201
109
20
-60
-123
-163
-187
-200
-205
-203
-198
-190
-182
-174
-166
-157
-151
-148
-145
-143
-143
-140
-137
-135
-136
-136
-133
-132
-134
-131
-123
-116
-119
-129
-130
-109
-63
-19
-9
-42
-81
-92
-92
-98
-91
-86
-97
-81
-64
-98
-124
-205
-198
744
2456
2743
853
-746
-563
-32
-112
-205
-127
-150
-172
-127
-124
-129
-104
-92
-86
-68
-53
-39
-18
0
18
41
65
91
123
155
185
213
236
256
276
278
236
154
61
-25
-100
-157
-192
-210
-216
-217
-213
-207
-200
-191
-180
-171
-162
-154
-149
-144
-139
-135
-132
-130
-128
-128
-127
-124
-123
-122
-120
-116
-110
-107
-112
-118
-108
-72
-21
10
-7
-53
-78
-78
-81
-81
-68
-74
-78
-54
-64
-103
-169
-287
158
1735
2969
1947
-90
-673
-137
-16
-201
-164
-130
-181
-158
-124
-133
-122
-102
-96
-79
-60
-49
-34
-14
4
23
45
67
93
125
151
174
200
223
242
252
233
174
94
14
-67
-134
-169
-188
-204
-208
-204
-204
-199
-186
-177
-169
-157
-149
-151
-150
-142
-135
-135
-137
-135
-131
-127
-123
-121
-122
-117
-110
-114
-124
-121
-94
-49
-8
-6
-48
-86
-92
-95
-101
-86
-83
-102
-87
-78
-110
-125
-224
-152
968
2597
2447
363
-953
-536
-31
-123
-174
-105
-133
-137
-103
-108
-100
-71
-66
-58
-32
-18
-9
10
25
40
71
110
139
162
189
221
252
280
303
317
307
253
165
66
-26
-104
-163
-198
-216
-226
-232
-230
-221
-211
-201
-193
-186
-176
-162
-151
-147
-145
-145
-143
-140
-141
-143
-141
-138
-137
-131
-131
-141
-136
-101
-55
-27
-31
-63
-97
-104
-100
-99
-92
-99
-105
-78
-83
-124
-142
-249
-94
1146
2637
2169
73
-961
-431
-17
-138
-159
-96
-129
-127
-89
-91
-84
-59
-48
-38
-21
-5
11
29
51
74
96
125
140
106
60
69
118
158
196
238
238
175
84
-7
-94
-169
-223
-257
-274
-279
-276
-267
-246
-220
-198
-181
-159
-137
-124
-115
-103
-89
-81
-75
-70
-65
-64
-64
-61
-56
-49
-46
-52
-59
-50
-19
26
64
60
16
-16
-14
-13
-22
-13
-11
-23
-1
5
-38
-80
-204
-87
1127
2765
2557
525
-670
-275
82
-94
-136
-63
-106
-112
-68
-74
-75
-50
-44
-40
-23
-11
0
15
30
46
63
81
105
133
158
181
203
221
234
249
241
183
92
3
-77
-149
-199
-226
-244
-253
-252
-252
-254
-251
-245
-240
-236
-230
-225
-219
-212
-208
-208
-207
-206
-207
-208
-209
-211
-210
-206
-205
-206
-203
-199
-196
-199
-209
-210
-185
-141
-103
-97
-132
-174
-183
-177
-182
-179
-174
-184
-170
-152
-185
-218
-321
-359
536
2299
2757
991
-642
-547
-57
-159
-263
-177
-191
-213
-164
-153
-153
-120
-100
-88
-64
-43
-21
5
26
49
80
112
143
179
216
251
286
317
346
377
391
364
298
221
151
87
38
16
12
10
14
29
46
58
72
