# session 6
-64
-39
-99
-18
276
481
467
424
417
360
271
206
160
128
106
88
83
78
62
67
91
84
54
44
44
17
-26
-27
5
-3
-15
-99
-406
-317
840
1761
778
-865
-1038
-253
52
-13
31
53
20
49
72
64
83
114
136
170
205
230
249
242
211
206
234
242
200
130
53
-18
-68
-90
-96
-113
-133
-123
-105
-111
-121
-107
-99
-117
-137
-148
-161
-155
-148
-192
-211
-242
-502
-466
655
1743
959
-739
-1092
-369
-61
-151
-114
-81
-116
-83
-44
-45
-20
25
57
92
132
169
200
201
170
154
178
200
174
110
42
-16
-59
-81
-82
-78
-80
-87
-95
-95
-77
-52
-44
-63
-86
-98
-121
-131
-94
-95
-137
-165
-395
-576
269
1652
1472
-218
-1035
-473
-54
-142
-138
-71
-105
-99
-58
-54
-33
10
33
57
95
119
126
133
128
100
87
100
96
51
-8
-63
-106
-125
-117
-96
-80
-82
-87
-73
-48
-28
-12
-15
-40
-53
-63
-86
-77
-66
-94
-112
-254
-494
-56
1165
1516
258
-844
-614
-88
-52
-105
-55
-64
-76
-36
-12
-1
22
47
80
118
146
172
194
191
168
159
171
171
140
93
43
-5
-28
-28
-35
-48
-58
-74
-87
-78
-65
-58
-36
-22
-53
-90
-101
-106
-96
-93
-115
-120
-268
-555
-129
1232
1750
416
-902
-734
-141
-84
-141
-74
-84
-112
-79
-61
-57
-23
19
49
80
123
166
175
158
154
167
182
188
160
94
19
-46
-90
-102
-95
-83
-76
-99
-135
-136
-120
-121
-101
-70
-95
-139
-139
-136
-140
-120
-138
-162
-177
-415
-473
558
1789
1185
-611
-1162
-446
-48
-104
-55
-17
-71
-49
7
23
48
82
110
155
203
232
247
253
238
214
211
226
214
155
82
15
-49
-93
-99
-88
-91
-104
-105
-103
-109
-107
-92
-88
-105
-121
-126
-140
-147
-123
-124
-153
-200
-396
-401
552
1762
1363
-301
-969
-385
-42
-168
-153
-79
-118
-114
-77
-77
-56
-17
-1
20
54
79
96
103
86
63
70
99
109
83
32
-24
-63
-73
-69
-66
-70
-80
-90
-91
-84
-75
-58
-45
-60
-81
-82
-91
-102
-80
-81
-105
-153
-362
-343
644
1748
1169
-472
-944
-269
39
-100
-75
-14
-55
-43
-8
-16
0
34
53
80
113
129
140
144
126
106
114
138
141
105
46
-5
-35
-49
-57
-64
-71
-78
-92
-105
-105
-97
-86
-67
-58
-75
-94
-103
-109
-91
-83
-110
-116
-252
-495
-18
1268
1552
88
-1060
-641
7
-1
-72
10
-6
-38
-1
11
12
38
57
73
102
127
135
135
128
113
110
135
156
132
80
31
-13
-44
-48
-46
-59
-74
-81
-86
-94
-100
-96
-77
-59
-73
-101
-104
-112
-128
-104
-103
-136
-149
-361
-588
136
1446
1280
-400
-1187
-508
12
-75
-86
-4
-36
-42
-3
-1
12
50
70
88
120
151
174
180
155
131
148
184
191
157
97
29
-19
-38
-45
-49
-49
-54
-73
-89
-91
-84
-71
-61
-69
-89
-85
-70
-92
-109
-84
-98
-120
-140
-397
-499
438
1540
897
-766
-1118
-305
60
-62
-37
16
-19
5
43
39
58
92
113
139
172
195
211
210
193
183
196
215
205
154
85
32
1
-20
-36
-50
-62
-69
-84
-111
-118
-99
-85
-82
-75
-78
-88
-104
-137
-135
-92
-112
-140
-158
-423
-524
416
1509
887
-738
-1129
-385
0
-69
-47
-3
-21
6
27
13
37
77
98
134
175
190
199
208
194
174
185
217
214
149
58
-2
-28
-51
-68
-70
-71
-78
-88
-109
-125
-112
-86
-66
-65
-91
-116
-119
-123
-112
-96
-132
-149
-215
-516
-431
716
1624
707
-787
-899
-213
-20
-111
-55
-27
-56
-25
-1
-7
14
49
77
115
157
180
183
183
175
160
170
194
172
106
52
16
-24
-58
-69
-62
-52
-58
-85
-110
-109
-91
-76
-66
-67
-80
-87
-90
-101
-89
-68
-95
-115
-193
-476
-358
770
1615
683
-779
-884
-211
-11
-95
-52
-31
-60
-43
-29
-19
18
44
62
101
133
141
158
172
147
123
148
175
145
85
31
-22
-65
-71
-66
-86
-99
-87
-87
-100
-93
-79
-72
-62
-66
-88
-100
-108
-116
-102
-107
-133
-162
-377
-562
123
1342
1324
-56
-841
-435
-50
-97
-103
-46
-63
-54
-19
-15
4
46
75
105
146
179
199
208
199
178
171
186
189
145
77
21
-14
-31
-41
-52
-59
-59
-68
-81
-80
-70
-63
-48
-41
-70
-102
-110
-127
-135
-110
-116
-136
-191
-466
-512
467
1576
1043
-488
-940
-348
-39
-106
-85
-50
-73
-48
-14
-8
11
43
79
126
167
195
215
221
216
215
218
219
199
138
57
-4
-42
-70
-86
-92
-98
-104
-108
-110
-108
-100
-87
-74
-78
-102
-119
-130
-148
-134
-114
-144
-151
-255
-574
-328
958
1651
429
-1020
-925
-206
-41
-101
-42
-33
-47
-11
4
9
40
69
97
140
178
207
228
230
216
212
223
222
182
111
36
-25
-65
-84
-90
-87
-88
-98
-103
-89
-71
-61
-51
-52
-75
-98
-113
-132
-124
-105
-127
-153
-292
-593
-302
990
1708
580
-801
-747
-129
-59
-165
-101
-83
-103
-66
-47
-44
-7
24
43
83
126
152
167
163
143
133
144
143
110
57
6
-36
-66
-81
-80
-75
-77
-85
-89
-78
-62
-50
-35
-31
-54
-72
-78
-94
-89
-71
-98
-117
-234
-562
-357
920
1738
658
-811
-825
-156
-9
-95
-37
-19
-41
-10
11
21
54
80
108
164
216
235
242
255
255
238
239
244
193
102
28
-25
-62
-73
-83
-104
-107
-99
-111
-128
-122
-102
-83
-76
-95
-125
-128
-128
-144
-133
-127
-147
-157
-351
-612
0
1371
1478
-173
-1275
-757
-95
-77
-113
-32
-38
-45
-7
3
20
63
92
119
166
212
241
253
246
226
217
222
205
147
77
16
-39
-84
-106
-109
-108
-109
-111
-114
-112
-97
-78
-74
-89
-110
-120
-131
-147
-136
-126
-143
-167
-327
-536
-22
1239
1542
193
-900
-557
0
-43
-122
-37
-43
-67
-27
-16
-15
17
44
62
93
121
136
139
128
111
109
119
112
80
40
5
-29
-57
-69
-70
-69
-70
-77
-84
-79
-65
-48
-34
-38
-61
-75
-80
-91
-86
-80
-99
-122
-281
-515
-47
1200
1522
177
-924
-561
21
-22
-105
-14
-21
-46
-1
14
14
43
67
88
125
156
170
172
162
145
138
142
134
96
43
-2
-38
-64
-75
-76
-76
-81
-91
-105
-114
-108
-91
-72
-58
-67
-92
-105
-113
-119
-104
-110
-128
-148
-363
-515
240
1421
1166
-393
-1031
-367
63
-69
-88
-9
-36
-32
11
13
23
55
78
106
140
167
186
190
172
158
164
174
158
109
48
-1
-34
-55
-63
-62
-62
-65
-72
-85
-94
-87
-69
-49
-39
-55
-80
-89
-101
-106
-79
-91
-125
-137
-365
-599
119
1400
1241
-365
-1108
-458
31
-65
-89
-15
-38
-34
6
7
17
51
75
104
147
184
208
218
210
196
195
198
176
120
53
-4
-46
-68
-70
-68
-76
-83
-86
-97
-112
-108
-86
-66
-45
-37
-65
-93
-98
-106
-102
-88
-118
-132
-191
-499
-484
583
1532
718
-778
-948
-236
16
-80
-45
-9
-31
-12
9
19
51
76
90
124
170
204
222
221
208
200
200
195
163
101
34
-19
-51
-60
-59
-64
-72
-82
-96
-106
-110
-104
-82
-59
-47
-57
-91
-119
-121
-125
-119
-92
-105
-125
-188
-476
-496
518
1572
948
-555
-889
-252
13
-89
-61
-16
-42
-21
12
18
39
69
94
130
168
192
208
210
193
172
168
170
145
87
27
-22
-61
-80
-80
-81
-86
-87
-89
-98
-104
-103
-97
-83
-61
-47
-60
-88
-102
-113
-125
-100
-89
-121
-127
-285
-594
-167
1135
1482
70
-1106
-766
-108
-24
-65
-12
-23
-24
23
33
36
70
102
131
176
219
249
269
270
257
251
251
230
176
102
24
-39
-77
-95
-104
-103
-95
-89
-89
-95
-105
-106
-95
-83
-69
-58
-74
-104
-109
-109
-126
-116
-106
-127
-139
-312
-592
-90
1283
1660
244
-948
-640
-60
-60
-122
-52
-63
-69
-18
-11
-15
16
42
64
101
140
170
183
169
150
149
154
143
102
38
-20
-55
-81
-103
-107
-100
-103
-106
-96
-101
-124
-126
-102
-77
-54
-40
-58
-88
-96
-102
-113
-99
-99
-118
-133
-341
-562
110
1457
1557
60
-899
-463
8
-72
-114
-34
-51
-59
-18
-11
1
42
69
87
121
161
193
200
182
163
161
159
141
103
51
-4
-45
-68
-84
-89
-83
-79
-83
-83
-83
-92
-100
-97
-85
-66
-39
-26
-51
-87
-97
-99
-95
-80
-98
-116
-148
-404
-506
407
1605
1199
-391
-952
-332
17
-87
-78
-24
-48
-20
19
3
12
54
85
116
155
188
208
216
207
185
167
163
148
95
30
-18
-62
-99
-106
-97
-96
-98
-98
-103
-103
-104
-119
-128
-109
-82
-68
-60
-67
-96
-113
-114
-122
-109
-99
-124
-130
-262
-545
-181
1078
1562
303
-926
-711
-91
-27
-102
-38
-29
-43
-7
8
11
43
76
99
136
178
203
213
213
201
186
188
188
154
94
33
-22
-70
-95
-96
-85
-77
-75
-74
-74
-82
-95
-107
-109
-93
-67
-50
-48
-66
-91
-104
-113
-108
-85
-97
-112
-151
-409
-484
420
1516
1066
-412
-893
-323
0
-74
-70
-32
-49
-24
10
13
32
66
92
124
163
199
227
234
224
220
223
215
184
131
65
2
-50
-85
-97
-97
-93
-84
-76
-80
-84
-81
-88
-108
-116
-104
-86
-62
-52
-81
-107
-91
-93
-123
-102
-89
-125
-123
-277
-523
56
1338
1360
-265
-1296
-784
-131
-50
-49
5
-12
-3
37
45
65
103
129
160
202
244
283
309
313
306
301
297
272
209
122
40
-32
-96
-134
-144
-139
-130
-119
-115
-113
-109
-112
-128
-139
-134
-126
-120
-108
-106
-130
-151
-149
-140
-124
-115
-135
-149
-260
-485
-123
1118
1682
435
-955
-828
-140
-45
-134
-41
-18
-64
-43
-19
-12
20
47
57
92
147
181
184
176
173
181
193
175
118
65
33
-14
-74
-91
-64
-52
-75
-92
-82
-62
-45
-40
-60
-92
-97
-60
-34
-53
-81
-80
-75
-93
-99
-76
-84
-115
-149
-353
-438
425
1703
1516
-40
-799
-315
14
-122
-127
-41
-71
-89
-54
-34
-14
14
40
76
110
132
152
170
169
142
122
132
126
63
-13
-62
-98
-127
-133
-122
-108
-95
-92
-97
-84
-52
-56
-127
-170
-116
-72
-115
-138
-91
-76
-108
-113
-118
-147
-132
-95
-111
-136
-261
-477
-40
1296
1909
713
-646
-630
-119
-86
-152
-75
-101
-161
-105
-33
-16
-3
25
36
35
88
193
234
169
107
126
187
227
211
156
92
16
-61
-86
-72
-83
-79
-7
48
29
-3
-21
-48
-52
-21
-20
-75
-108
-68
-50
-122
-176
-143
-119
-121
-108
-155
-202
-177
-305
-276
641
1604
952
-629
-1165
-682
-311
-163
-30
-17
-4
86
35
-119
-125
-41
-6
79
226
261
188
167
206
242
296
330
246
59
-90
-84
-3
-66
-236
-232
-61
1
-40
4
41
-55
-107
-17
24
-16
28
101
53
-43
-88
-147
-253
-299
-245
-224
-252
-198
-231
-339
245
1436
1516
-14
-1263
-1113
-501
-180
3
116
135
107
8
-55
25
85
97
213
302
234
231
366
416
391
453
505
426
314
220
107
22
-43
-151
-215
-159
-111
-137
-142
-110
-100
-100
-120
-197
-243
-186
-149
-215
-279
-259
-222
-232
-222
-152
-172
-272
-246
-287
-307
613
1971
1529
-573
-1584
-886
-220
-125
-27
69
49
76
105
75
125
242
258
183
111
75
130
257
317
296
302
311
244
137
63
33
14
-39
-130
-213
-251
-232
-161
-86
-43
-38
-92
-195
-252
-207
-128
-103
-129
-145
-137
-147
-151
-120
-170
-279
-287
-387
-418
614
2237
2080
-13
-1334
-916
-276
-153
-148
-129
-130
-121
-122
-95
-45
-30
15
119
179
187
217
279
326
331
344
395
390
291
184
88
12
11
21
-35
-59
-29
-82
-170
-125
-15
21
34
59
33
-24
-98
-237
-363
-381
-360
-356
-352
-377
-383
-351
-238
432
1629
1808
162
-1445
-1346
-494
-187
-226
-188
-163
-199
-195
-123
-48
-44
-43
44
131
165
237
327
315
252
268
304
224
58
-24
31
79
17
-98
-197
-250
-217
-134
-95
-108
-139
-159
-123
-64
-80
-133
-129
-99
-94
-100
-112
-105
-20
74
31
-72
-121
-262
-133
1093
2534
2037
-11
-1033
-515
20
52
46
83
69
58
51
31
10
-32
-85
-110
-101
-62
18
108
150
170
239
296
234
117
24
-104
-223
-234
-234
-281
-231
-117
-134
-232
-241
-198
-182
-163
-147
-153
-142
-135
-187
-260
-319
-338
-284
-221
-208
-305
-529
-162
1434
2634
1405
-818
-1356
-597
-224
-239
-173
-175
-217
-148
-90
-92
-63
-26
-9
44
126
187
274
391
415
367
396
435
333
202
172
164
126
121
148
151
154
191
191
99
35
93
166
134
66
63
76
8
-109
-211
-321
-412
-420
-382
-330
-327
-359
154
1425
1930
495
-1232
-1313
-452
-84
-165
-172
-105
-86
-99
-109
-116
-115
-66
21
66
59
86
152
182
193
212
129
-46
-93
-21
-27
-69
-83
-185
-294
-260
-236
-293
-258
-193
-251
-285
-230
-257
-336
-300
-239
-293
-368
-343
-282
-264
-253
-251
-265
-268
-333
-130
1014
2312
1825
-135
-1125
-541
101
132
60
96
94
58
68
108
129
125
146
225
308
341
355
327
225
161
187
181
117
62
-4
-66
-85
-117
-184
-228
-257
-269
-201
-95
-51
-36
22
62
21
