# session 12
-51
-79
25
-47
-400
-612
-502
-349
-275
-249
-325
-393
-319
-238
-251
-283
-346
-459
-504
-488
-526
-559
-503
-457
-487
-529
-532
-485
-436
-470
-493
-374
-291
-393
-464
-407
-380
-377
-365
-399
-403
-447
-454
356
1776
1826
106
-1115
-805
-248
-129
-42
109
166
140
136
211
227
136
165
308
345
372
485
504
431
430
445
394
313
191
37
-79
-141
-144
-124
-178
-266
-239
-106
28
119
130
85
97
114
28
14
140
84
-157
-177
-5
92
84
-159
-204
997
2550
2059
-43
-1085
-714
-363
-254
-92
-66
-78
15
-25
-132
-47
71
57
73
167
228
300
411
421
327
300
306
181
10
-58
-104
-211
-283
-293
-292
-243
-173
-156
-126
-79
-119
-155
-98
-106
-224
-319
-313
-206
-168
-303
-285
-79
-151
2
1276
2338
1198
-915
-1436
-624
-162
-239
-351
-435
-431
-327
-276
-229
-104
-42
-61
7
133
176
206
316
362
279
240
240
109
-26
-10
-66
-239
-223
-76
-119
-230
-182
-101
-75
-30
-13
-66
-117
-146
-170
-175
-149
-95
-77
-129
-138
-210
-504
-179
1519
2811
1557
-734
-1352
-682
-342
-319
-207
-190
-211
-111
-101
-241
-232
28
244
237
219
309
287
172
297
567
555
334
258
261
162
72
61
51
66
100
55
-19
-45
-102
-186
-212
-230
-267
-264
-291
-398
-448
-384
-296
-236
-194
-142
-157
-229
265
1584
2163
703
-1127
-1266
-452
-156
-223
-168
-157
-235
-222
-135
-72
-47
-39
-17
52
116
91
46
122
242
254
208
157
51
-81
-170
-231
-250
-218
-225
-287
-289
-224
-211
-219
-155
-104
-142
-153
-95
-64
-60
-62
-92
-78
-1
31
-5
-174
-311
481
2195
2685
932
-774
-687
-10
131
167
337
371
291
215
118
-53
-270
-320
-105
77
43
21
89
71
11
64
119
35
-75
-103
-133
-223
-294
-293
-267
-244
-206
-176
-199
-232
-188
-83
-43
-107
-116
10
57
-70
-166
-169
-151
-135
-332
-434
595
2173
1980
40
-1068
-682
-311
-391
-362
-234
-230
-280
-267
-217
-246
-308
-228
-72
-30
-60
-24
86
177
168
98
70
70
32
28
103
136
111
151
177
81
62
218
334
343
336
250
96
16
-6
-54
-69
-6
23
-71
-214
-381
-434
231
1524
1788
259
-1237
-1209
-545
-317
-347
-327
-319
-305
-207
-63
52
105
113
111
134
189
248
281
299
323
349
326
220
84
-1
-61
-183
-302
-248
-80
-58
-188
-215
-98
-32
-91
-156
-166
-168
-166
-143
-180
-244
-197
-184
-370
-476
-438
-458
115
1655
2416
1047
-710
-972
-495
-409
-452
-304
-181
-161
-147
-113
-51
33
116
192
247
263
299
368
359
269
247
285
269
234
204
123
42
-30
-160
-225
-140
-118
-225
-273
-240
-232
-217
-154
-89
-51
-32
-63
-143
-165
-129
-125
-87
-90
-217
336
1948
2630
898
-1103
-1151
-354
-229
-374
-284
-194
-157
-95
-91
-133
-123
-52
64
178
213
223
310
377
304
238
328
395
223
-58
-217
-277
-342
-377
-345
-305
-302
-305
-270
-211
-179
-151
-88
-55
-83
-126
-171
-160
-88
-103
-146
-145
-276
38
1537
2684
1446
-726
-1203
-461
-158
-199
-85
-73
-206
-234
-221
-266
-255
-181
-161
-161
-107
-41
36
161
234
220
216
182
54
-38
-51
-100
-148
-120
-117
-178
-189
-120
-43
2
-1
-42
-47
-5
-38
-161
-209
-155
-157
-181
-152
-338
-454
636
2433
2424
338
-1071
-738
-230
-251
-227
-105
-148
-207
-130
-49
-88
-143
-115
-72
-25
79
162
189
263
332
288
240
263
226
112
52
36
-28
-101
-88
-10
27
3
11
76
92
34
8
35
14
-82
-135
-89
-105
-230
-303
-420
-372
687
2136
1734
-409
-1549
-952
-343
-354
-362
-255
-188
-116
-79
-76
-27
15
40
137
236
259
307
376
333
224
177
155
70
-57
-164
-222
-251
-299
-339
-308
-275
-333
-374
-291
-174
-119
-144
-238
-320
-325
-312
-315
-285
-272
-318
-352
-454
-525
223
1823
2397
892
-809
-963
-360
-144
-227
-294
-305
-257
-167
-33
103
161
194
263
328
461
691
802
712
590
480
387
431
499
348
121
47
-13
-180
-314
-352
-364
-377
-405
-414
-338
-240
-231
-275
-282
-257
-243
-205
-124
-97
-117
-61
-74
-61
845
2409
2468
510
-961
-682
-142
-197
-239
-139
-185
-237
-152
-73
-90
-143
-152
-109
-46
69
254
385
351
241
203
194
81
-61
-70
-49
-159
-287
-320
-358
-419
-392
-315
-292
-282
-232
-199
-224
-242
-206
-168
-132
-67
-73
-135
-123
-180
-44
1137
2559
1954
-299
-1343
-653
-115
-251
-226
13
46
-23
10
30
-15
-13
-17
-103
-112
29
115
67
40
75
82
44
-16
-115
-247
-350
-377
-344
-323
-334
-322
-254
-176
-140
-111
-53
-64
-143
-94
29
-25
-142
-138
-140
-190
-325
-404
525
2347
2578
389
-1350
-1018
-335
-331
-276
-72
-95
-134
-72
-79
-61
76
142
87
85
181
272
323
360
369
333
271
179
67
6
-1
-33
-80
-94
-120
-132
-50
43
59
102
193
187
83
22
45
99
96
-3
-42
9
-158
-185
974
2594
2239
-48
-1436
-1018
-469
-506
-535
-434
-410
-393
-337
-262
-149
-56
-34
-6
78
184
278
333
349
360
353
295
196
48
-114
-159
-113
-172
-334
-422
-404
-351
-286
-242
-232
-226
-229
-245
-265
-327
-370
-265
-171
-268
-314
-281
-433
-73
1429
2374
1085
-791
-1103
-532
-363
-392
-291
-244
-260
-250
-236
-215
-185
-136
-58
7
95
271
398
346
286
381
514
544
489
401
330
332
352
275
151
119
149
126
63
44
92
155
154
95
21
-95
-236
-326
-404
-469
-466
-540
-415
665
1963
1462
-527
-1488
-907
-365
-326
-261
-201
-233
-168
-115
-191
-183
-42
7
-54
-40
85
206
237
209
223
280
255
114
-33
-101
-121
-158
-205
-205
-165
-148
-155
-145
-122
-93
-58
-56
-101
-124
-103
-106
-149
-183
-215
-220
-229
-345
-6
1478
2779
1818
-407
-1233
-633
-227
-258
-227
-172
-193
-196
-126
11
102
94
141
290
364
366
441
513
513
575
676
637
478
290
49
-186
-298
-312
-322
-368
-420
-413
-342
-284
-264
-241
-226
-248
-296
-352
-356
-275
-234
-260
-261
-362
-213
1065
2548
1905
-356
-1350
-705
-228
-301
-339
-363
-374
-277
-307
-431
-336
-161
-186
-216
-39
151
198
211
275
356
405
366
235
92
-2
-84
-190
-258
-240
-214
-223
-202
-143
-90
-45
-40
-79
-81
-71
-134
-168
-107
-84
-108
-207
-336
339
2053
2736
1058
-771
-752
-43
81
16
51
23
18
54
57
64
28
-66
-98
-80
-67
-2
80
114
164
211
143
10
-77
-145
-221
-258
-262
-266
-265
-270
-273
-219
-151
-143
-162
-189
-220
-192
-163
-219
-269
-281
-293
-352
-620
-501
1089
2905
2204
-308
-1388
-730
-300
-404
-361
-259
-249
-183
-97
-76
-77
-64
-36
1
57
164
286
350
352
316
255
198
145
77
16
-23
-67
-101
-109
-116
-94
-20
22
13
46
89
68
52
64
67
105
111
15
-42
-136
-145
846
2491
2416
287
-1119
-751
-308
-439
-461
-399
-482
-469
-338
-276
-264
-243
-197
-118
-50
8
112
220
270
282
255
177
85
-2
-89
-154
-196
-232
-242
-230
-249
-268
-215
-163
-210
-269
-221
-148
-172
-226
-204
-196
-258
-234
-191
-315
12
1347
2276
1196
-595
-954
-311
-101
-265
-282
-278
-302
-179
-68
-122
-107
65
165
153
158
171
143
73
55
229
446
403
194
125
166
128
23
-44
-39
-3
-20
-67
-38
23
11
-24
-24
-58
-132
-142
-89
-96
-148
-159
-266
-290
527
1825
1730
-26
-1272
-970
-354
-233
-230
-178
-223
-256
-169
-94
-121
-127
-54
0
31
124
205
201
204
244
268
282
262
181
122
81
-26
-119
-100
-71
-122
-153
-111
-91
-110
-98
-85
-109
-126
-139
-131
-37
27
-20
-52
-110
-15
861
1949
1546
-146
-1049
-670
-228
-161
-134
-117
-132
-99
-64
-24
62
99
73
96
154
168
179
236
289
278
214
153
97
-28
-218
-348
-356
-319
-348
-437
-458
-396
-377
-391
-350
-320
-326
-274
-233
-257
-231
-214
-259
-218
-223
-226
521
1699
1538
-40
-1002
-694
-329
-402
-419
-268
-216
-257
-193
-73
-83
-145
-96
-37
-72
-83
-2
82
116
156
223
219
108
44
121
181
107
60
194
414
571
643
683
694
608
478
465
505
426
323
281
194
138
141
69
403
1469
1934
725
-706
-824
-359
-289
-366
-357
-382
-377
-366
-436
-403
-209
-128
-229
-267
-163
-99
-118
-84
-17
-18
-45
-78
-177
-269
-275
-281
-310
-285
-231
-206
-186
-163
-151
-139
-157
-230
-265
-232
-257
-318
-267
-169
-155
-251
-357
98
1358
2060
1033
-420
-677
-243
-122
-221
-259
-289
-304
-257
-208
-201
-202
-166
-115
-75
-10
82
132
148
209
300
322
275
237
210
162
110
68
55
83
99
88
117
181
187
123
67
55
44
42
79
67
-46
-234
-530
-418
866
2223
1504
-625
-1504
-860
-367
-396
-339
-206
-212
-247
-233
-218
-188
-142
-147
-164
-71
87
161
176
230
255
198
151
135
89
22
-53
-124
-131
-102
-108
-111
-75
-29
35
97
74
-18
-82
-110
-117
-96
-90
-70
-48
-219
-155
1035
2439
1848
-305
-1334
-754
-221
-235
-235
-175
-198
-210
-179
-137
-93
-62
-31
11
60
148
261
315
329
375
403
365
314
251
158
99
80
33
-2
27
27
-21
-9
-5
-155
-339
-381
-353
-353
-311
-257
-317
-401
-419
-386
143
1424
2085
787
-1061
-1350
-572
-243
-353
-336
-260
-245
-213
-177
-203
-257
-239
-141
-76
-70
-26
66
131
120
41
15
118
183
79
-34
-35
-40
-96
-92
-26
5
2
25
37
-27
-118
-141
-132
-174
-213
-186
-166
-183
-260
-360
151
1645
2590
1431
-450
-902
-344
-130
-199
-116
-44
-79
-67
12
93
159
186
179
219
308
366
414
502
535
472
440
434
283
14
-162
-202
-245
-323
-335
-289
-270
-250
-181
-123
-123
-170
-239
-286
-279
-227
-180
-186
-213
-281
-349
170
1464
2017
701
-921
-1099
-507
-293
-326
-282
-259
-263
-235
-209
-198
-190
-174
-137
-99
-62
16
127
205
221
221
255
277
211
92
-33
-165
-244
-236
-227
-246
-217
-148
-119
-131
-135
-130
-143
-148
-93
-74
-157
-167
-159
-273
255
1822
2534
955
-911
-980
-222
19
14
80
66
51
85
38
-23
43
153
151
77
73
106
60
-4
26
104
117
39
-78
-149
-162
-207
-296
-325
-269
-224
-225
-198
-124
-113
-210
-289
-280
-246
-220
-261
-344
-274
-259
-460
215
2161
2947
1058
-1016
-1088
-385
-256
-328
-294
-287
-220
-123
-142
-164
-82
-4
24
77
155
197
201
224
293
336
274
177
143
104
11
-48
-59
-84
-82
-29
10
33
55
16
-69
-95
-62
-37
-12
-11
-42
-9
-38
-104
643
2196
2434
545
-1022
-759
-130
-133
-160
-74
-212
-389
-382
-321
-285
-218
-147
-150
-179
-142
-69
-4
77
156
193
169
83
3
-56
-166
-250
-220
-240
-346
-320
-204
-188
-183
-130
-170
-263
-282
-263
-255
-292
-353
-341
-439
-523
406
2087
2211
323
-1035
-746
-252
-272
-292
-226
-261
-321
-354
-348
-282
-225
-198
-134
-52
-1
42
84
116
170
239
232
137
66
57
55
84
141
100
14
74
217
277
297
314
279
236
240
259
259
215
180
160
-29
-37
888
1952
1350
-422
-1172
-671
-278
-311
-328
-286
-267
-240
-212
-152
-61
-31
-31
49
174
234
240
260
272
243
227
232
171
69
20
-4
-73
-140
-131
-66
-25
-32
-48
-67
-106
-111
-86
-112
-131
-74
-49
-87
-173
-338
-48
1190
2110
1161
-543
-970
-436
-241
-348
-324
-306
-368
-392
-401
-417
-437
-523
-655
-711
-635
-466
-248
-38
86
118
152
214
216
148
110
140
194
220
223
266
357
404
376
323
265
184
72
-54
-143
-193
-229
-216
-279
-433
84
1504
2028
466
-1263
-1313
-637
-442
-468
-462
-525
-497
-355
-277
-225
-146
-97
-52
10
47
94
171
212
224
276
351
365
288
175
94
65
61
30
-19
-4
59
87
105
123
65
-17
-27
-35
-59
-27
-29
-106
-167
-298
-109
1184
2555
1816
-366
-1252
-616
-174
-228
-217
-192
-226
-216
-195
-129
-14
8
-7
74
181
255
321
349
358
386
379
336
317
283
198
125
42
-140
-348
-441
-422
-355
-272
-234
-257
-284
-319
-394
-424
-353
-296
-302
-312
-406
-288
797
2163
1692
-464
-1621
-1062
-520
-514
-311
-54
-138
-274
-249
-193
-138
-76
-53
-29
30
90
148
225
279
296
323
346
278
144
64
48
8
-46
-66
-72
-73
-61
-66
-89
-105
-120
-130
-129
-138
-152
-158
-141
-147
-302
-150
1120
2570
2033
-34
-993
-454
-76
-207
-192
-45
19
54
62
70
141
178
146
180
290
358
381
413
407
322
205
92
-9
-86
-152
-200
-193
-182
-229
-260
-222
-190
-186
-175
-175
-199
-230
-255
-244
-241
-278
-257
-298
-387
336
1880
2151
335
-1209
-1010
-430
-403
-394
-273
-304
-341
-291
-281
-299
-286
-275
-252
-137
70
216
192
125
177
254
215
125
53
-56
-186
-246
-265
-307
-317
-252
-187
-180
-219
-260
-273
-276
-287
-259
-207
-194
-179
-232
-285
436
2025
2635
1239
-259
-288
174
182
135
213
171
100
126
147
104
22
-65
-131
-165
-139
-68
-46
-66
-29
48
67
8
-84
-166
-215
-242
-280
-311
-292
-223
-146
-99
-116
-175
-190
-164
-167
-159
-136
-171
-177
-262
-490
124
1974
2804
1056
-964
-1055
-357
-235
-306
-245
-248
-236
-162
-168
-169
-61
5
-8
55
112
-3
-92
64
