# session 5
50
57
39
67
68
-54
-139
-197
-261
411
1957
2423
713
-1002
-903
-182
-97
-198
-133
-149
-177
-71
-2
-43
-51
15
67
95
146
197
211
215
233
252
290
343
322
189
16
-134
-237
-283
-288
-278
-270
-289
-304
-247
-166
-163
-207
-213
-200
-193
-201
-255
-265
-204
-301
-198
994
2419
1841
-329
-1324
-691
-200
-288
-295
-228
-250
-239
-206
-198
-166
-122
-90
-57
-31
4
57
91
85
72
130
291
417
351
182
68
-8
-70
-51
-8
-57
-128
-108
-39
3
-5
-48
-64
-52
-80
-116
-131
-163
-189
-282
-259
672
2151
2032
16
-1279
-788
-187
-242
-258
-143
-160
-163
-117
-135
-113
-21
0
-29
17
64
12
-19
49
95
71
73
109
86
-8
-90
-133
-173
-180
-112
-54
-73
-101
-83
-58
-76
-129
-154
-145
-155
-147
-135
-207
-261
-327
-444
257
2023
2630
786
-1067
-976
-300
-237
-256
-161
-197
-208
-145
-157
-160
-76
-2
21
32
64
121
149
136
154
216
250
226
180
131
57
-47
-125
-143
-153
-188
-195
-138
-74
-63
-82
-86
-81
-96
-126
-121
-75
-90
-134
-100
-197
-184
905
2401
1988
-97
-1085
-462
16
-66
-51
3
-110
-217
-240
-233
-209
-187
-159
-112
-83
-76
-47
8
50
65
77
107
130
107
55
17
-10
-49
-94
-133
-149
-128
-90
-63
-49
-56
-84
-96
-112
-162
-172
-143
-166
-187
-261
-410
156
1716
2378
876
-819
-865
-269
-187
-255
-187
-176
-165
-117
-145
-174
-140
-136
-137
-62
4
11
47
98
91
83
120
144
124
77
19
-23
-47
-83
-133
-168
-156
-86
-15
5
2
-9
-36
-40
-23
-21
-21
-19
-5
22
-76
-45
804
1912
1588
-14
-909
-626
-311
-327
-297
-219
-213
-226
-228
-203
-161
-136
-94
-22
25
51
85
110
137
178
193
173
150
133
104
39
-60
-128
-131
-116
-110
-97
-70
-25
19
8
-49
-66
-54
-98
-154
-153
-166
-180
-188
-327
-137
1031
2071
1255
-504
-1041
-523
-308
-398
-314
-223
-248
-233
-192
-202
-200
-145
-112
-128
-119
-68
-29
3
61
107
96
88
151
212
164
66
28
35
43
39
48
115
191
193
178
199
183
143
142
116
43
-22
-103
-176
-272
-465
-176
1092
1968
922
-776
-1095
-477
-219
-263
-213
-163
-148
-124
-126
-99
-13
37
54
92
112
112
148
166
114
89
142
185
181
160
89
-20
-73
-69
-90
-134
-147
-124
-97
-90
-110
-142
-144
-107
-86
-116
-124
-96
-172
-288
-274
-319
-229
806
2076
1547
-392
-1244
-663
-221
-254
-226
-187
-219
-174
-120
-128
-105
-57
-35
11
94
134
133
166
225
242
242
294
360
350
275
212
165
103
56
58
88
124
125
30
-103
-133
-94
-145
-265
-315
-281
-236
-233
-287
-305
-327
-426
22
1368
2032
683
-1016
-1121
-415
-182
-207
-163
-187
-197
-130
-114
-116
-78
-67
-81
-63
-32
-10
13
33
52
73
88
106
128
127
92
37
-29
-82
-91
-68
-74
-112
-121
-112
-123
-119
-125
-202
-255
-224
-201
-195
-188
-210
-201
-291
-421
332
1961
2329
639
-793
-625
-191
-261
-261
-135
-162
-178
-99
-53
-12
60
92
97
157
253
313
334
369
419
425
377
327
295
221
62
-104
-171
-155
-137
-140
-151
-142
-105
-83
-101
-134
-174
-194
-178
-172
-173
-154
-172
-193
-214
-296
102
1376
2081
798
-953
-1117
-384
-172
-279
-224
-197
-240
-197
-141
-147
-133
-75
-38
-23
25
100
144
153
174
208
244
283
287
211
81
-59
-183
-252
-256
-241
-233
-209
-167
-145
-149
-153
-162
-186
-208
-202
-155
-133
-166
-170
-264
-349
461
2025
2201
375
-1026
-712
-100
-47
-43
34
16
27
64
40
40
87
117
151
202
203
136
66
38
34
42
83
133
120
33
-63
-121
-167
-220
-242
-212
-176
-143
-94
-58
-51
-58
-88
-141
-200
-226
-184
-170
-212
-166
-217
-372
334
1877
2105
354
-1025
-796
-300
-300
-304
-230
-261
-258
-196
-185
-182
-153
-135
-94
-23
-2
-31
-26
14
25
10
21
50
45
-12
-83
-133
-174
-203
-205
-198
-182
-131
-76
-55
-31
-8
-21
-28
-11
-4
7
-8
-46
-36
-72
71
1073
2302
1923
207
-607
-138
204
115
138
212
147
52
-33
-124
-161
-147
-127
-97
-66
-52
-32
2
8
-25
-40
-4
35
26
-12
-53
-103
-146
-155
-158
-173
-149
-103
-102
-98
-59
-94
-181
-188
-166
-181
-183
-219
-244
-230
-428
-307
1120
2543
1615
-572
-1207
-533
-276
-370
-243
-154
-204
-192
-161
-189
-213
-198
-149
-83
-18
48
114
147
149
161
189
201
200
192
131
27
-44
-68
-78
-67
-57
-68
-32
43
42
-19
-21
15
-7
-41
12
52
-25
-53
-70
-248
160
1627
2341
826
-1012
-1114
-407
-214
-273
-264
-312
-316
-249
-254
-271
-221
-186
-166
-104
-35
27
103
150
164
200
225
190
146
123
56
-60
-124
-106
-117
-188
-197
-133
-101
-79
-31
-43
-101
-105
-109
-168
-155
-96
-143
-185
-237
-445
-9
1607
2485
979
-942
-1053
-325
-195
-318
-258
-220
-220
-166
-136
-140
-120
-79
-33
0
31
90
142
139
143
209
268
273
256
220
161
109
58
-4
-25
-9
-8
25
108
149
139
133
110
67
36
13
32
62
24
-21
-156
-352
264
1784
2129
356
-1227
-1029
-359
-286
-353
-315
-343
-350
-288
-245
-203
-152
-131
-96
-24
42
103
155
159
145
151
126
85
99
85
-26
-106
-100
-123
-176
-179
-161
-159
-145
-119
-85
-72
-118
-158
-145
-156
-186
-170
-174
-205
-243
-316
66
1232
1859
704
-842
-985
-380
-233
-328
-270
-228
-229
-185
-156
-129
-84
-88
-65
69
153
80
25
102
199
238
255
272
269
226
168
144
143
121
103
117
143
170
209
244
237
184
143
145
108
25
-15
-71
-190
-246
-339
-409
305
1636
1711
75
-1137
-849
-317
-287
-296
-215
-216
-204
-153
-139
-102
-34
-22
-25
26
69
64
73
82
36
6
61
108
68
11
-7
-39
-108
-159
-159
-146
-151
-146
-116
-107
-123
-134
-148
-151
-134
-155
-188
-165
-172
-236
-325
-455
-62
1328
2244
1046
-833
-1147
-440
-169
-217
-139
-98
-106
-47
-13
-34
-32
-4
42
109
140
140
179
247
268
260
293
362
405
385
320
242
180
152
125
76
61
116
143
76
1
-33
-102
-209
-271
-287
-279
-248
-265
-309
-309
-395
-279
740
1871
1241
-650
-1408
-764
-272
-267
-204
-125
-158
-156
-141
-163
-128
-65
-57
-38
22
52
52
62
56
40
46
70
97
107
67
3
-28
-45
-80
-102
-94
-84
-73
-48
-37
-62
-94
-106
-121
-163
-175
-125
-152
-284
-297
-271
-355
181
1622
2199
763
-813
-836
-282
-214
-267
-187
-168
-155
-89
-60
-51
-26
1
47
88
88
117
202
244
230
246
295
332
351
333
265
196
163
146
120
86
40
-48
-165
-212
-162
-124
-150
-171
-184
-225
-231
-205
-254
-289
-260
-334
-55
1150
2029
953
-875
-1245
-525
-178
-218
-164
-104
-116
-110
-96
-87
-68
-52
-31
1
20
39
84
122
122
120
153
201
223
202
133
35
-35
-49
-58
-92
-108
-88
-79
-95
-109
-124
-164
-203
-210
-209
-195
-163
-186
-210
-195
-324
-163
1079
2287
1418
-631
-1277
-555
-119
-150
-107
-60
-93
-78
-32
-5
5
-2
15
72
113
130
171
222
247
267
307
348
362
338
270
172
65
-23
-80
-120
-153
-165
-162
-162
-155
-154
-177
-204
-220
-251
-264
-243
-257
-268
-269
-391
-144
1122
2194
1271
-594
-1091
-476
-226
-326
-278
-235
-265
-233
-199
-197
-165
-122
-100
-74
-34
11
49
70
75
73
80
107
131
124
97
54
-15
-77
-94
-94
-101
-97
-76
-52
-41
-56
-69
-55
-74
-121
-105
-83
-108
-79
-142
-225
567
2029
2041
183
-1090
-721
-200
-235
-256
-181
-197
-179
-121
-109
-85
-28
4
31
81
124
149
175
191
183
178
192
200
173
108
35
-19
-56
-90
-108
-110
-113
-115
-104
-86
-81
-106
-143
-162
-164
-151
-147
-180
-190
-261
-438
-25
1361
2156
1029
-507
-689
-227
-179
-256
-184
-174
-202
-171
-148
-138
-112
-93
-68
-18
22
49
86
114
120
124
143
169
172
131
66
16
-12
-37
-62
-79
-85
-80
-70
-59
-53
-62
-83
-100
-121
-122
-90
-108
-150
-155
-332
-380
647
2064
1699
-199
-1100
-558
-132
-187
-166
-98
-116
-90
-35
-25
-9
38
81
117
160
205
238
251
240
222
221
236
239
208
135
41
-35
-84
-118
-146
-171
-187
-192
-194
-193
-196
-231
-278
-293
-310
-327
-304
-313
-341
-349
-507
-390
819
2028
1185
-791
-1332
-587
-231
-315
-259
-201
-219
-176
-136
-128
-85
-34
7
63
107
128
156
179
173
161
171
208
228
189
113
55
20
-7
-20
-25
-35
-41
-35
-19
-2
-13
-50
-64
-63
-85
-83
-61
-83
-101
-193
-337
221
1599
1998
525
-831
-641
-80
-74
-131
-52
-66
-83
-39
-33
-35
-2
24
45
79
104
119
133
129
106
103
142
180
179
138
75
19
-14
-33
-50
-62
-64
-57
-47
-43
-54
-78
-99
-120
-145
-140
-125
-164
-192
-250
-422
-57
1276
2016
753
-883
-933
-249
-137
-249
-174
-156
-191
-152
-125
-121
-81
-41
-17
20
57
81
94
86
61
49
67
102
118
90
32
-25
-66
-86
-95
-113
-135
-135
-116
-99
-87
-92
-113
-126
-140
-158
-139
-131
-162
-167
-302
-469
199
1546
1602
-44
-1115
-643
-92
-141
-178
-94
-113
-123
-72
-46
-32
-11
3
28
69
107
132
133
110
101
122
157
184
177
132
75
34
10
-5
-27
-56
-69
-54
-32
-16
-12
-29
-43
-45
-54
-48
-29
-53
-82
-159
-406
-290
769
1634
839
-584
-815
-258
-74
-140
-98
-93
-115
-64
-35
-39
2
48
62
81
113
135
141
127
104
99
125
160
167
126
73
46
28
-1
-24
-42
-77
-104
-82
-44
-34
-57
-89
-103
-107
-129
-116
-79
-119
-147
-178
-434
-330
836
1703
640
-959
-1038
-281
-55
-129
-68
-54
-92
-61
-34
-33
-3
34
60
96
128
141
155
163
156
161
197
231
217
162
107
64
15
-26
-41
-57
-91
-101
-75
-53
-56
-77
-99
-107
-119
-136
-126
-136
-171
-170
-334
-568
64
1452
1597
16
-1057
-631
-96
-121
-151
-87
-110
-109
-66
-66
-67
-36
-8
9
30
55
75
77
69
60
55
81
127
126
64
4
-26
-49
-70
-85
-97
-96
-76
-51
-35
-40
-63
-75
-78
-84
-69
-59
-89
-111
-245
-480
-51
1222
1685
429
-803
-656
-113
-62
-127
-85
-88
-91
-56
-45
-31
8
39
64
90
119
152
165
152
137
134
149
181
183
128
57
13
-7
-22
-45
-72
-86
-81
-71
-66
-67
-79
-97
-105
-121
-141
-122
-114
-156
-162
-282
-534
-61
1288
1632
103
-1194
-848
-145
-68
-115
-42
-52
-69
-32
-21
-11
25
49
78
123
154
170
188
191
174
166
186
213
203
147
83
35
-3
-26
-36
-51
-65
-62
-47
-32
-30
-54
-86
-110
-132
-127
-103
-123
-155
-249
-512
-351
835
1764
850
-708
-892
-231
-63
-177
-117
-93
-135
-100
-63
-62
-30
14
38
54
68
87
105
94
62
48
79
126
131
82
24
-15
-36
-49
-68
-96
-112
-108
-98
-84
-64
-66
-96
-119
-122
-115
-104
-119
-134
-168
-416
-503
444
1699
1300
-349
-941
-317
2
-130
-98
-32
-86
-78
-34
-32
-4
37
42
58
104
134
141
138
118
105
126
156
157
123
64
0
-43
-62
-81
-105
-123
-126
-113
-88
-62
-63
-93
-105
-102
-116
-110
-94
-114
-113
-229
-527
-224
1020
1568
339
-924
-726
-103
-53
-132
-62
-58
-76
-30
-3
5
35
66
93
134
173
196
204
197
182
182
208
233
212
155
96
54
28
9
-20
-45
-43
-32
-28
-13
-5
-34
-71
-82
-85
-75
-61
-83
-90
-168
-472
-403
677
1543
667
-790
-909
-204
29
-69
-42
-13
-29
-8
5
6
40
76
101
129
152
166
174
167
146
129
130
140
132
93
32
-22
-50
-61
-85
-119
-138
-135
-120
-94
-90
-122
-148
-157
-180
-177
-157
-192
-211
-276
-588
-543
544
1428
550
-908
-1020
-317
-89
-178
-135
-99
-117
-83
-43
-33
-8
28
54
76
102
121
120
105
90
75
71
82
79
34
-27
-65
-77
-77
-83
-101
-110
-93
-67
-44
-34
-48
-68
-82
-109
-112
-79
-94
-118
-152
-429
-543
357
1447
924
-591
-983
-319
-8
-110
-81
-22
-42
-22
6
2
24
64
91
114
150
192
211
193
172
174
195
231
249
212
152
116
96
77
68
67
65
66
65
61
82
112
91
40
32
53
54
26
3
15
-105
-374
-103
962
1456
490
-567
-488
-10
65
2
36
51
52
69
67
78
117
145
165
195
223
236
236
225
213
220
251
275
248
173
99
50
18
-1
-16
-45
-66
-52
-28
-22
-30
-58
-96
-124
-157
-175
-153
-166
-198
-211
-444
-637
148
1381
1087
-549
-1247
-633
-176
-213
-203
-160
-197
-188
-154
-151
-130
-100
-93
-71
-35
-33
-38
-6
27
23
22
46
51
3
-87
-182
-251
-279
-281
-283
-288
-290
-291
-287
-276
-283
-312
-332
-351
-369
-348
-336
-368
-342
-427
-748
-470
852
1513
222
-1280
-1201
-433
-210
-276
-223
-167
-151
-108
-85
-104
-68
39
71
50
165
335
336
271
321
375
342
345
396
365
283
253
230
189
218
294
312
323
394
426
402
440
509
501
467
523
630
642
613
634
434
329
1388
2776
2262
631
56
