# session 0
-16
-32
-52
-63
-54
-19
24
13
-66
-111
-77
-47
-57
-70
-86
-93
-81
-105
-119
-116
-209
106
1427
2411
1221
-866
-1296
-428
-30
-138
-121
-83
-120
-99
-72
-81
-70
-50
-43
-31
-18
-10
7
28
47
70
98
127
156
183
203
228
261
284
285
280
273
231
138
23
-76
-139
-162
-168
-181
-198
-203
-197
-192
-189
-176
-158
-157
-169
-161
-128
-111
-120
-125
-120
-124
-134
-136
-134
-139
-150
-152
-132
-101
-92
-113
-127
-111
-92
-100
-123
-124
-96
-78
-87
-60
14
24
-60
-91
-30
-4
-33
-37
-35
-46
-36
-40
-48
-79
-210
122
1506
2550
1408
-638
-1068
-267
56
-73
-48
-14
-55
-36
-17
-15
31
54
29
32
65
67
46
56
107
151
163
170
178
180
205
258
292
292
298
317
303
238
155
69
-24
-105
-145
-148
-153
-179
-195
-185
-181
-192
-186
-182
-196
-188
-160
-158
-170
-169
-167
-159
-139
-138
-162
-169
-149
-135
-141
-150
-142
-128
-132
-143
-131
-108
-108
-126
-124
-102
-98
-112
-94
-41
-10
-12
-14
-21
-54
-78
-81
-81
-78
-82
-88
-59
-52
-91
-90
-171
-182
739
2283
2269
297
-1077
-682
-68
-77
-120
-50
-77
-88
-45
-47
-53
-22
-6
-6
12
40
60
74
95
119
127
122
138
184
222
242
276
314
325
332
345
309
214
121
53
-22
-93
-126
-139
-159
-180
-187
-186
-177
-159
-153
-164
-160
-137
-125
-126
-121
-115
-123
-131
-126
-122
-121
-120
-132
-144
-141
-131
-125
-120
-118
-117
-114
-117
-125
-121
-114
-119
-113
-77
-45
-35
-32
-43
-75
-97
-95
-100
-106
-96
-105
-114
-89
-103
-128
-140
-276
-68
1224
2469
1676
-320
-1035
-432
-61
-127
-121
-93
-115
-93
-75
-86
-71
-45
-24
4
14
13
32
59
75
100
135
159
180
219
254
278
314
359
384
392
388
343
245
137
52
-24
-92
-132
-149
-159
-166
-172
-177
-172
-164
-161
-153
-138
-134
-135
-125
-116
-125
-139
-134
-125
-133
-143
-132
-118
-122
-135
-134
-126
-130
-138
-125
-88
-53
-34
-27
-37
-64
-84
-96
-116
-123
-102
-105
-119
-92
-95
-127
-109
-215
-205
808
2252
1981
27
-1101
-656
-130
-116
-124
-81
-102
-94
-69
-74
-62
-39
-34
-31
-18
-1
18
32
49
78
107
127
153
187
219
248
280
309
337
361
356
300
212
120
36
-34
-92
-140
-166
-169
-172
-175
-170
-162
-159
-151
-136
-127
-124
-119
-114
-111
-111
-115
-120
-117
-112
-114
-120
-120
-116
-117
-118
-114
-109
-109
-108
-106
-107
-108
-107
-104
-92
-62
-34
-20
-12
-19
-48
-68
-67
-70
-74
-72
-79
-64
-40
-79
-104
-114
-208
177
1494
2310
1143
-611
-910
-282
-48
-113
-79
-64
-87
-64
-51
-55
-39
-29
-23
-5
8
14
32
53
62
76
104
128
145
169
197
220
245
269
281
289
291
260
186
102
32
-28
-81
-122
-146
-157
-165
-171
-173
-167
-158
-148
-138
-127
-115
-105
-100
-102
-106
-110
-113
-119
-125
-129
-134
-142
-146
-139
-135
-142
-135
-101
-69
-55
-49
-60
-89
-97
-88
-110
-132
-106
-85
-102
-111
-128
-138
-144
-233
12
1157
2195
1481
-246
-908
-450
-127
-140
-116
-90
-103
-80
-61
-67
-48
-6
21
25
13
-6
-10
15
53
77
94
126
181
240
257
219
187
209
253
271
256
223
176
113
46
-18
-89
-148
-166
-162
-157
-146
-142
-137
-101
-79
-121
-165
-147
-114
-114
-120
-103
-90
-113
-138
-124
-104
-116
-124
-102
-91
-103
-91
-58
-44
-48
-53
-75
-101
-101
-88
-77
-75
-101
-106
-73
-88
-121
-125
-202
52
1188
2146
1325
-399
-953
-419
-99
-131
-109
-86
-116
-98
-69
-77
-78
-65
-56
-46
-28
-8
8
14
14
26
56
89
111
133
169
203
217
226
245
262
266
237
161
70
4
-51
-104
-137
-146
-140
-129
-133
-147
-143
-121
-116
-123
-113
-102
-113
-118
-100
-93
-105
-106
-96
-88
-85
-92
-100
-91
-83
-87
-64
-17
-7
-46
-82
-91
-94
-99
-86
-78
-92
-88
-77
-102
-107
-139
-198
317
1541
2015
819
-541
-641
-170
-48
-102
-90
-92
-88
-56
-49
-57
-52
-44
-32
-15
-3
5
15
29
52
76
89
102
130
159
175
194
215
233
261
282
254
188
123
56
-16
-70
-103
-130
-142
-138
-137
-136
-126
-122
-132
-137
-134
-137
-145
-150
-152
-159
-166
-166
-168
-173
-179
-183
-173
-140
-104
-80
-74
-93
-119
-124
-119
-119
-113
-115
-114
-93
-101
-124
-128
-226
-94
922
2050
1547
-166
-945
-479
-90
-121
-122
-85
-106
-98
-72
-70
-57
-36
-31
-20
-2
7
16
33
51
70
98
125
144
168
193
205
212
225
239
255
258
226
162
92
23
-41
-88
-118
-135
-139
-138
-144
-145
-136
-129
-127
-126
-127
-131
-134
-136
-136
-133
-129
-125
-118
-112
-111
-114
-109
-79
-32
-8
-30
-66
-79
-80
-91
-89
-80
-87
-76
-54
-77
-87
-124
-212
269
1568
2163
906
-648
-803
-252
-85
-125
-81
-76
-88
-56
-41
-42
-27
-15
-7
9
20
28
45
58
70
86
98
110
133
152
169
199
221
219
226
244
233
186
124
50
-23
-76
-119
-154
-164
-159
-160
-162
-156
-150
-146
-136
-130
-134
-136
-135
-145
-155
-148
-139
-149
-164
-171
-167
-141
-95
-76
-107
-138
-142
-151
-160
-142
-134
-145
-128
-126
-154
-149
-224
-193
670
1945
1820
184
-861
-551
-126
-146
-172
-123
-136
-132
-103
-103
-98
-75
-57
-37
-16
-1
20
45
58
73
99
127
143
154
175
202
220
228
240
260
267
240
184
113
36
-32
-78
-104
-117
-121
-125
-127
-123
-120
-121
-121
-121
-126
-131
-131
-126
-122
-125
-130
-127
-112
-83
-37
-5
-18
-58
-85
-96
-102
-95
-86
-100
-104
-82
-94
-108
-120
-214
65
1205
2088
1247
-356
-807
-310
-69
-136
-128
-109
-124
-101
-81
-79
-61
-47
-43
-24
-2
2
12
40
63
74
90
105
116
134
153
160
168
186
202
212
212
176
103
33
-21
-78
-124
-147
-154
-150
-139
-145
-159
-146
-124
-131
-144
-129
-120
-136
-143
-133
-128
-121
-88
-50
-48
-84
-123
-151
-165
-148
-113
-108
-118
-108
-125
-149
-120
-177
-162
577
1666
1533
111
-788
-514
-119
-96
-107
-78
-90
-83
-66
-75
-66
-42
-44
-51
-27
1
11
22
56
95
116
118
116
134
169
187
182
177
178
184
193
179
128
74
31
-26
-92
-127
-127
-117
-100
-80
-80
-95
-101
-93
-88
-94
-101
-101
-98
-98
-88
-59
-32
-38
-79
-119
-128
-128
-135
-132
-123
-120
-116
-132
-139
-107
-161
-71
737
1682
1291
-170
-892
-509
-113
-78
-72
-55
-87
-74
-33
-37
-53
-42
-31
-34
-28
-9
-2
5
41
75
72
75
107
134
150
168
174
174
189
201
191
162
119
61
2
-44
-76
-99
-114
-118
-112
-113
-120
-121
-116
-114
-110
-96
-90
-107
-115
-88
-53
-33
-34
-62
-111
-148
-148
-133
-141
-149
-110
-68
-80
-100
-141
-191
187
1172
1700
844
-444
-771
-315
-7
-60
-130
-60
-2
-43
-61
-16
-2
-8
11
7
-24
-20
-6
-11
19
61
41
33
101
131
80
63
97
112
123
152
138
82
55
37
-32
-99
-102
-95
-114
-112
-86
-87
-118
-139
-129
-99
-78
-81
-93
-84
-33
11
-32
-117
-126
-73
-60
-98
-131
-131
-107
-87
-95
-91
-65
-100
9
620
1236
903
-81
-568
-368
-106
-68
-130
-123
-35
-25
-117
-119
-11
12
-72
-94
-30
-1
-11
5
18
16
41
70
72
79
97
109
153
203
172
132
182
192
78
4
16
-26
-101
-108
-95
-110
-115
-111
-114
-105
-89
-87
-102
-103
-71
-45
-28
26
54
9
-19
-48
-119
-101
-26
-74
-138
-81
-44
-75
-103
-95
251
968
1179
427
-351
-400
-150
-59
-42
-22
-33
-46
-49
-43
-22
-14
-16
1
11
-7
0
38
31
11
53
80
44
46
93
88
59
72
95
110
130
132
97
50
12
-24
-63
-89
-97
-99
-100
-95
-90
-91
-92
-87
-83
-81
-79
-65
-31
-13
-44
-88
-106
-114
-121
-119
-130
-139
-125
-140
-160
-140
-198
-108
657
1523
1139
-207
-883
-561
-184
-119
-126
-124
-124
-104
-84
-72
-59
-52
-42
-20
-3
11
31
40
38
48
71
90
97
100
110
121
127
128
136
149
146
113
62
1
-60
-99
-112
-127
-144
-136
-112
-103
-101
-95
-93
-95
-88
-74
-57
-29
-9
-24
-60
-92
-108
-95
-79
-99
-104
-80
-101
-116
-133
-225
143
1327
1977
863
-656
-849
-274
-57
-95
-66
-59
-75
-51
-36
-39
-25
-10
-2
5
11
22
38
52
67
89
108
116
129
151
168
173
180
199
221
219
177
113
45
-21
-72
-106
-135
-152
-146
-138
-143
-141
-129
-124
-133
-142
-130
-96
-61
-51
-69
-99
-124
-138
-135
-136
-148
-135
-131
-179
-195
-243
-380
85
1485
2226
1032
-541
-727
-227
-132
-208
-160
-157
-180
-148
-134
-143
-128
-116
-115
-100
-82
-75
-56
-27
-4
18
48
77
98
119
136
150
168
193
206
188
144
82
16
-45
-96
-134
-156
-161
-158
-158
-157
-150
-144
-146
-148
-143
-124
-86
-52
-56
-91
-117
-130
-137
-140
-154
-152
-118
-126
-155
-165
-282
-130
983
2148
1558
-174
-843
-346
-57
-151
-145
-108
-136
-119
-85
-78
-65
-54
-51
-34
-17
-6
14
26
33
61
96
119
141
159
162
167
181
191
203
214
188
125
65
9
-53
-93
-99
-96
-100
-108
-116
-117
-108
-111
-121
-118
-100
-74
-45
-43
-76
-109
-122
-123
-118
-123
-122
-107
-123
-135
-143
-269
-111
952
2001
1399
-192
-767
-304
-50
-133
-128
-103
-129
-107
-82
-98
-98
-79
-73
-67
-51
-35
-21
-8
3
20
44
63
76
93
112
126
137
153
170
171
143
85
14
-45
-82
-115
-145
-152
-138
-131
-145
-165
-174
-170
-165
-161
-148
-118
-74
-42
-56
-99
-126
-128
-121
-129
-145
-134
-130
-152
-141
-207
-255
417
1659
1798
372
-763
-589
-139
-108
-144
-97
-100
-113
-102
-96
-82
-65
-63
-57
-36
-17
-9
2
23
46
65
86
109
127
140
144
147
158
172
179
175
146
87
18
-34
-63
-80
-99
-121
-130
-121
-116
-114
-100
-86
-97
-107
-84
-43
-19
-26
-56
-91
-116
-115
-110
-124
-118
-93
-114
-132
-167
-277
89
1305
2015
914
-658
-874
-274
-67
-137
-100
-70
-84
-65
-53
-58
-42
-21
-11
1
14
22
35
52
63
69
79
94
109
118
126
135
143
153
171
183
155
88
21
-27
-68
-105
-124
-125
-126
-133
-135
-128
-123
-127
-131
-131
-124
-103
-73
-59
-73
-105
-137
-149
-140
-144
-154
-138
-143
-168
-186
-313
-242
728
1957
1701
156
-678
-367
-80
-150
-166
-129
-146
-134
-106
-107
-97
-76
-71
-64
-42
-24
-16
-4
15
32
48
66
82
92
102
118
135
147
161
164
133
73
10
-48
-106
-151
-172
-179
-179
-174
-165
-152
-136
-127
-129
-128
-119
-107
-81
-47
-40
-66
-97
-122
-136
-134
-138
-133
-110
-124
-142
-154
-270
-69
1027
2012
1298
-328
-868
-366
-68
-112
-99
-73
-91
-75
-53
-49
-35
-17
-8
2
16
35
53
64
76
95
114
130
147
157
162
170
179
193
212
212
173
111
46
-19
-76
-116
-140
-153
-158
-160
-159
-149
-137
-135
-137
-138
-137
-127
-97
-61
-44
-49
-74
-118
-147
-135
-123
-135
-124
-112
-139
-138
-185
-264
290
1570
1987
694
-635
-631
-148
-74
-134
-108
-121
-133
-101
-92
-98
-86
-73
-61
-40
-17
0
16
39
67
86
96
113
137
154
159
168
187
202
203
182
135
69
3
-58
-111
-143
-157
-167
-172
-167
-162
-162
-164
-162
-160
-159
-152
-134
-102
-67
-59
-83
-114
-130
-125
-123
-140
-132
-110
-130
-144
-213
-344
126
1452
2093
915
-545
-665
-162
-63
-137
-99
-92
-105
-78
-70
-79
-70
-61
-57
-48
-41
-32
-13
9
32
53
71
89
110
132
153
172
187
205
222
209
153
77
6
-53
-98
-131
-154
-166
-168
-165
-166
-172
-176
-171
-165
-177
-196
-194
-167
-128
-99
-93
-111
-147
-177
-168
-147
-152
-146
-137
-163
-148
-203
-362
186
1699
2318
844
-802
-836
-213
-77
-126
-76
-87
-110
-73
-53
-49
-32
-25
-22
-6
10
21
27
35
55
83
108
133
162
185
197
210
233
265
288
274
213
132
53
-20
-82
-125
-151
-158
-155
-155
-152
-147
-147
-146
-137
-129
-122
-118
-127
-143
-144
-120
-75
-42
-51
-88
-118
-117
-92
-88
-107
-101
-105
-131
-114
-197
-251
541
1932
1962
235
-995
-668
-127
-121
-145
-67
-79
-91
-52
-44
-56
-45
-24
-8
2
10
16
27
45
72
97
117
137
159
180
200
224
249
272
287
268
207
127
49
-28
-85
-111
-126
-146
-162
-167
-167
-162
-157
-155
-155
-157
-157
-150
-144
-142
-138
-143
-161
-164
-145
-121
-88
-60
-74
-113
-132
-121
-103
-118
-135
-112
-112
-137
-142
-271
-209
844
2161
1766
-21
-867
-401
-56
-146
-152
-101
-122
-110
-85
-92
-86
-71
-68
-59
-45
-36
-24
-3
20
36
55
82
105
124
155
185
194
202
236
263
238
172
96
16
-68
-129
-160
-178
-193
-197
-193
-188
-184
-182
-177
-171
-169
-165
-160
-161
-163
-160
-157
-157
-154
-149
-147
-151
-160
-155
-121
-70
-29
-11
-15
-37
-58
-55
-37
-44
-52
-28
-36
-59
-59
-172
-33
1074
2283
1744
-6
-730
-246
60
-26
-13
39
17
26
50
50
60
83
