# session 24
-28
-41
13
-28
-231
-384
-361
-293
-263
-222
-165
-115
-61
-3
46
85
116
132
119
67
-8
-85
-163
-238
-289
-313
-323
-327
-324
-315
-300
-283
-266
-250
-233
-217
-200
-183
-171
-162
-152
-146
-142
-138
-146
-152
-134
-97
-57
-21
-10
-38
-69
-73
-70
-64
-49
-54
-62
-35
-35
-70
-126
-261
58
1509
2788
1804
-401
-1081
-342
6
-142
-117
-58
-101
-80
-40
-47
-31
-2
6
22
45
61
84
120
154
187
227
276
324
363
394
424
437
412
349
266
174
79
-7
-73
-120
-147
-159
-162
-163
-162
-156
-149
-141
-132
-123
-116
-110
-106
-103
-102
-106
-108
-115
-132
-138
-119
-92
-68
-50
-57
-91
-117
-122
-123
-117
-113
-124
-111
-98
-131
-153
-234
-272
541
2118
2352
421
-1218
-929
-172
-125
-215
-135
-136
-156
-113
-106
-111
-87
-73
-65
-44
-28
-9
23
54
88
132
180
225
271
309
336
357
358
319
241
148
54
-39
-120
-177
-211
-231
-242
-244
-240
-236
-230
-216
-200
-190
-182
-173
-165
-162
-159
-162
-177
-185
-173
-148
-119
-86
-74
-97
-123
-132
-136
-130
-120
-126
-119
-101
-121
-150
-245
-329
384
1997
2519
797
-957
-841
-112
-81
-217
-137
-126
-154
-110
-95
-102
-75
-53
-44
-26
-5
16
40
65
99
141
180
223
268
298
317
342
351
316
247
164
71
-21
-89
-130
-154
-172
-183
-187
-182
-170
-155
-143
-140
-140
-130
-115
-105
-102
-100
-96
-94
-99
-101
-97
-106
-119
-112
-88
-62
-35
-30
-58
-82
-87
-97
-99
-83
-89
-93
-69
-82
-108
-144
-266
108
1553
2594
1348
-813
-1285
-454
-78
-174
-139
-95
-130
-106
-77
-84
-69
-48
-41
-23
2
24
53
84
114
154
204
254
304
350
385
417
439
421
353
260
162
59
-36
-109
-159
-185
-200
-214
-220
-213
-206
-205
-197
-188
-183
-178
-170
-165
-165
-166
-172
-183
-187
-176
-151
-117
-91
-92
-113
-124
-121
-115
-105
-103
-105
-88
-90
-119
-153
-257
-52
1106
2292
1593
-361
-1057
-367
-15
-194
-190
-111
-156
-148
-107
-114
-104
-75
-66
-52
-28
-9
10
36
61
88
124
165
205
237
261
278
289
277
228
156
81
7
-63
-115
-143
-157
-166
-171
-171
-168
-166
-161
-152
-146
-143
-139
-134
-130
-125
-119
-115
-113
-115
-124
-132
-127
-108
-80
-50
-33
-44
-67
-76
-75
-69
-65
-74
-71
-55
-74
-102
-168
-258
293
1786
2509
1052
-767
-845
-130
-49
-201
-125
-103
-146
-107
-86
-98
-74
-53
-52
-35
-12
5
26
50
75
108
147
186
223
254
278
299
312
294
236
159
80
1
-72
-123
-152
-171
-180
-177
-166
-157
-151
-145
-137
-130
-126
-123
-122
-120
-119
-119
-120
-120
-125
-132
-136
-147
-162
-155
-120
-83
-55
-44
-67
-100
-107
-104
-104
-94
-95
-99
-74
-75
-107
-142
-260
-11
1299
2549
1687
-435
-1123
-373
-4
-170
-158
-91
-137
-126
-86
-92
-80
-54
-45
-29
-4
11
30
57
85
116
150
182
217
247
267
285
305
306
266
196
113
29
-51
-116
-160
-186
-199
-202
-198
-189
-180
-170
-161
-153
-145
-140
-139
-139
-137
-132
-133
-139
-142
-146
-161
-170
-150
-118
-83
-53
-54
-90
-117
-120
-123
-116
-107
-116
-106
-87
-114
-134
-212
-327
308
1896
2468
766
-1039
-944
-158
-69
-194
-111
-92
-124
-84
-65
-69
-45
-28
-24
-6
19
41
66
93
123
159
197
235
273
302
325
353
374
357
296
212
125
37
-42
-100
-137
-160
-172
-174
-169
-161
-153
-146
-139
-128
-117
-114
-114
-110
-107
-114
-121
-121
-133
-148
-141
-115
-86
-57
-52
-84
-115
-121
-119
-113
-107
-119
-113
-88
-108
-130
-179
-300
151
1586
2359
916
-1010
-1129
-269
-42
-182
-126
-93
-134
-105
-82
-94
-75
-51
-45
-27
-4
16
42
72
101
138
180
221
257
292
321
344
355
334
274
190
99
9
-72
-131
-169
-191
-201
-202
-199
-192
-180
-168
-163
-157
-146
-137
-134
-129
-133
-150
-154
-133
-105
-78
-51
-50
-81
-101
-103
-106
-105
-105
-108
-90
-86
-115
-147
-287
-258
747
2141
1807
-189
-1199
-532
19
-116
-160
-64
-98
-110
-65
-68
-67
-38
-27
-20
3
20
38
65
94
123
159
196
231
263
287
308
326
319
272
197
115
30
-53
-115
-148
-165
-176
-180
-174
-167
-163
-156
-146
-136
-130
-124
-118
-113
-113
-116
-116
-122
-137
-136
-108
-73
-41
-25
-49
-90
-107
-111
-112
-101
-103
-111
-92
-96
-128
-166
-304
-113
1122
2358
1555
-515
-1184
-402
2
-161
-158
-86
-130
-123
-84
-91
-82
-55
-47
-34
-11
8
29
56
84
117
154
191
228
259
281
302
322
318
273
200
118
34
-47
-111
-149
-168
-178
-180
-174
-167
-160
-150
-139
-133
-127
-123
-123
-121
-117
-128
-137
-117
-83
-49
-21
-28
-74
-108
-111
-112
-108
-100
-109
-101
-79
-103
-132
-237
-381
227
1768
2288
610
-1084
-901
-117
-56
-185
-104
-97
-130
-91
-78
-84
-57
-41
-36
-13
10
26
51
79
109
146
183
217
251
280
303
326
334
301
234
155
69
-18
-89
-136
-165
-182
-187
-187
-182
-174
-164
-153
-147
-141
-132
-127
-131
-132
-129
-139
-147
-126
-91
-57
-33
-44
-90
-120
-122
-122
-115
-109
-121
-110
-91
-116
-146
-263
-382
330
1906
2280
486
-1116
-831
-88
-80
-194
-106
-110
-143
-99
-87
-95
-71
-57
-51
-30
-7
11
35
63
94
126
159
196
231
259
290
320
326
292
232
159
75
-16
-91
-135
-161
-179
-184
-176
-167
-157
-148
-142
-134
-127
-122
-115
-107
-107
-110
-111
-122
-137
-127
-95
-64
-34
-23
-54
-98
-110
-101
-92
-90
-107
-111
-85
-94
-127
-185
-321
40
1445
2441
1213
-854
-1235
-390
-49
-163
-120
-77
-118
-89
-52
-60
-52
-31
-16
6
30
50
76
107
139
176
218
259
297
330
361
392
409
387
322
233
134
35
-51
-113
-153
-176
-189
-196
-197
-191
-181
-174
-168
-159
-149
-144
-141
-135
-130
-132
-135
-140
-155
-163
-150
-121
-89
-67
-83
-121
-140
-141
-142
-132
-128
-139
-120
-110
-141
-157
-263
-258
702
2200
2041
-2
-1256
-694
-57
-133
-193
-106
-135
-148
-98
-95
-97
-70
-56
-46
-22
-2
18
47
76
108
149
190
229
265
295
315
332
335
296
222
141
56
-30
-98
-140
-164
-176
-181
-183
-181
-174
-163
-152
-143
-136
-130
-125
-121
-115
-107
-107
-114
-115
-119
-137
-143
-121
-90
-57
-27
-35
-77
-100
-97
-95
-86
-81
-93
-82
-71
-99
-124
-231
-237
705
2310
2374
388
-1047
-642
-30
-118
-203
-109
-128
-149
-104
-98
-99
-72
-57
-45
-21
-5
12
40
71
104
142
178
213
248
273
289
304
307
275
208
129
47
-37
-107
-152
-175
-187
-193
-197
-195
-187
-179
-174
-167
-157
-148
-140
-133
-128
-126
-124
-121
-118
-117
-117
-113
-113
-119
-121
-124
-139
-145
-123
-86
-47
-20
-32
-71
-90
-90
-89
-79
-79
-93
-75
-65
-96
-115
-214
-164
894
2495
2364
261
-1076
-590
-21
-131
-193
-102
-131
-144
-95
-93
-92
-65
-55
-45
-20
-1
17
41
67
97
134
172
208
243
270
291
311
318
289
224
143
61
-20
-94
-146
-177
-192
-200
-204
-200
-193
-184
-174
-165
-157
-150
-145
-141
-137
-132
-130
-130
-129
-126
-122
-122
-126
-127
-125
-128
-133
-135
-146
-159
-147
-112
-73
-36
-26
-58
-88
-90
-93
-93
-81
-87
-88
-61
-75
-106
-156
-270
190
1756
2814
1511
-607
-989
-232
-34
-202
-142
-94
-142
-119
-89
-95
-74
-53
-50
-32
-6
11
33
64
97
132
169
207
246
280
306
332
351
341
293
220
138
53
-31
-98
-140
-162
-175
-183
-184
-180
-173
-166
-157
-147
-139
-134
-130
-126
-122
-119
-118
-121
-124
-123
-121
-122
-122
-121
-123
-123
-119
-121
-127
-130
-142
-155
-143
-109
-71
-34
-23
-55
-86
-89
-89
-85
-77
-86
-81
-64
-87
-106
-164
-227
452
2049
2625
916
-939
-906
-151
-77
-211
-131
-117
-154
-115
-96
-105
-81
-61
-54
-34
-11
5
26
56
89
125
168
214
258
294
324
348
361
346
290
208
119
30
-54
-117
-155
-176
-189
-198
-200
-195
-186
-175
-164
-156
-149
-140
-132
-129
-126
-123
-121
-118
-113
-110
-112
-115
-115
-114
-112
-107
-103
-106
-113
-114
-123
-135
-123
-89
-50
-15
-12
-48
-77
-77
-80
-80
-70
-78
-78
-58
-75
-97
-154
-234
375
1966
2704
1131
-804
-904
-159
-57
-204
-130
-108
-149
-111
-87
-97
-75
-54
-48
-30
-6
12
37
65
94
130
172
216
258
294
321
344
357
342
287
207
120
30
-56
-122
-163
-186
-196
-201
-207
-208
-200
-191
-183
-173
-160
-150
-143
-138
-133
-130
-128
-127
-127
-126
-124
-122
-120
-120
-124
-124
-119
-117
-120
-122
-131
-146
-139
-103
-62
-28
-18
-44
-76
-84
-87
-85
-75
-80
-81
-60
-74
-99
-134
-239
169
1654
2730
1524
-583
-1028
-272
-34
-205
-163
-111
-154
-131
-100
-102
-79
-58
-55
-33
-10
-1
21
59
92
121
161
208
253
292
322
345
366
363
313
232
149
62
-31
-105
-149
-172
-185
-192
-197
-200
-200
-195
-182
-166
-159
-155
-145
-135
-132
-129
-126
-125
-124
-121
-119
-117
-114
-111
-110
-115
-118
-118
-130
-142
-127
-90
-55
-31
-36
-64
-81
-84
-86
-77
-74
-86
-70
-61
-95
-91
-135
-87
851
2346
2220
86
-1378
-906
-164
-127
-171
-90
-106
-118
-75
-72
-74
-51
-37
-24
0
20
44
77
113
149
192
242
297
351
394
429
454
454
410
329
229
123
18
-75
-142
-182
-205
-220
-229
-232
-231
-225
-215
-202
-190
-179
-168
-158
-153
-149
-144
-139
-136
-136
-136
-134
-135
-140
-144
-153
-172
-176
-143
-99
-67
-56
-72
-98
-106
-104
-101
-93
-97
-97
-77
-86
-110
-154
-240
229
1713
2670
1376
-661
-1000
-242
-44
-213
-159
-118
-167
-137
-102
-112
-96
-73
-66
-47
-23
-5
19
48
74
108
153
200
245
286
316
339
355
345
291
208
119
30
-56
-122
-159
-179
-191
-194
-194
-194
-189
-180
-172
-165
-156
-148
-144
-141
-136
-128
-122
-121
-121
-118
-118
-125
-126
-130
-148
-157
-128
-86
-55
-36
-43
-75
-94
-95
-93
-84
-84
-94
-74
-68
-101
-126
-231
-95
1081
2557
2111
-49
-1145
-531
-21
-154
-188
-102
-138
-142
-96
-97
-92
-64
-55
-44
-20
-1
18
48
77
107
146
190
233
276
312
337
356
358
320
244
156
67
-24
-103
-155
-185
-200
-205
-207
-208
-204
-195
-186
-178
-169
-160
-151
-146
-143
-137
-133
-133
-131
-128
-131
-134
-137
-149
-160
-142
-106
-72
-44
-42
-76
-102
-103
-104
-100
-90
-99
-95
-74
-94
-115
-177
-271
328
1908
2616
1026
-885
-947
-177
-57
-198
-129
-109
-146
-108
-87
-98
-77
-56
-48
-26
-3
14
39
69
98
133
177
223
264
298
326
350
364
348
292
209
120
27
-61
-125
-162
-184
-199
-205
-206
-203
-196
-188
-181
-172
-161
-154
-149
-144
-140
-138
-134
-126
-125
-132
-134
-142
-161
-163
-134
-96
-59
-35
-53
-93
-108
-106
-106
-96
-97
-110
-88
-80
-113
-138
-257
-188
915
2430
2108
-20
-1189
-594
-31
-143
-190
-104
-134
-141
-95
-97
-97
-70
-57
-45
-19
4
23
48
78
111
150
192
234
273
305
331
355
363
331
261
173
82
-9
-87
-138
-169
-188
-195
-197
-197
-190
-175
-166
-162
-153
-140
-130
-126
-125
-127
-125
-119
-123
-129
-128
-135
-150
-143
-112
-77
-43
-34
-68
-105
-109
-109
-110
-100
-102
-103
-84
-98
-119
-156
-268
147
1603
2561
1235
-890
-1279
-431
-69
-157
-118
-82
-110
-83
-69
-85
-61
-29
-21
-4
24
48
71
101
136
178
223
271
325
377
416
440
448
430
370
277
177
81
-15
-101
-152
-175
-197
-218
-220
-210
-206
-198
-181
-173
-171
-159
-142
-139
-146
-146
-140
-137
-131
-130
-154
-172
-149
-115
-95
-70
-66
-107
-141
-146
-147
-136
-127
-144
-136
-117
-142
-146
-201
-217
596
2080
2118
64
-1526
-1140
-302
-152
-176
-105
-119
-124
-77
-76
-79
-45
-27
-20
8
34
48
76
117
161
210
265
320
378
426
461
492
498
447
352
246
136
25
-70
-139
-184
-211
-225
-223
-215
-220
-227
-213
-194
-193
-191
-177
-164
-157
-152
-153
-160
-163
-161
-158
-140
-105
-84
-102
-134
-153
-155
-142
-133
-135
-122
-114
-138
-135
-180
-233
409
1754
1957
160
-1463
-1234
-364
-104
-114
-56
-59
-68
-26
-13
-10
19
38
44
62
81
103
141
186
227
268
320
387
456
504
535
567
566
491
382
286
178
60
-22
-76
-129
-157
-153
-153
-160
-158
-153
-147
-136
-129
-131
-123
-107
-104
-106
-92
-81
-97
-113
-102
-86
-87
-79
-56
-54
-82
-104
-104
-99
-98
-104
-97
-74
-92
-117
-119
-193
44
1148
2065
1093
-839
-1362
-567
-93
-135
-114
-70
-95
-73
-52
-69
-55
-24
-16
-7
13
29
48
75
109
147
192
247
301
344
379
410
422
394
325
234
137
38
-57
-134
-182
-203
-213
-225
-231
-227
-220
-221
-221
-216
-210
-207
-205
-202
-200
-198
-200
-206
-211
-214
-218
-228
-238
-236
-216
-189
-167
-162
-178
-199
-205
-200
-194
-189
-190
-183
-168
-176
-191
-241
-246
382
1707
2139
682
-877
-833
-174
-112
-235
-156
-134
-163
-121
-99
-104
-79
-56
-48
-26
0
20
47
77
109
148
197
251
306
354
392
424
443
429
378
311
241
170
106
61
41
38
43
48
54
63
74
84
