# session 4
-60
-45
-70
-11
134
202
186
191
212
222
242
216
99
-26
-100
-160
-202
-186
-178
-241
-277
-200
-103
-58
-54
-125
-231
-240
-183
-158
-122
-109
-207
-271
-189
-89
-76
-137
-120
5
-155
-355
579
2107
1896
-6
-1088
-710
-235
-135
-98
-123
-165
-132
-146
-179
-109
-59
-67
71
295
311
205
285
474
540
540
541
467
376
334
261
161
101
19
-85
-98
-78
-138
-184
-136
-105
-154
-211
-218
-192
-192
-258
-317
-314
-323
-355
-333
-268
-184
-102
-118
-225
-364
-346
420
1731
1775
-32
-1458
-1101
-297
-95
-55
26
7
33
94
37
-6
62
119
147
206
244
260
319
376
372
357
370
397
386
279
98
-71
-179
-205
-180
-191
-208
-143
-80
-130
-239
-289
-204
-78
-100
-182
-137
-120
-232
-207
-38
-31
-126
-94
-64
-110
-126
-228
-73
1095
2304
1519
-578
-1414
-824
-403
-336
-66
182
168
74
-23
-120
-141
-109
-91
-83
-56
25
131
187
194
191
197
252
306
233
82
-20
-86
-133
-160
-222
-287
-273
-227
-208
-165
-93
-66
-83
-73
-32
-22
-55
-63
-35
-64
-131
-94
-51
-151
-206
-239
-391
166
1806
2489
809
-1066
-1067
-303
-136
-189
-103
-141
-267
-267
-204
-179
-136
-65
-36
-8
79
122
94
162
305
335
314
374
402
307
197
149
99
-33
-171
-174
-109
-90
-34
58
32
-41
-19
-6
-52
-34
1
-69
-171
-242
-333
-381
-300
-233
-279
-249
-188
-290
78
1353
1968
565
-1216
-1392
-632
-228
-137
-70
-50
1
61
30
7
46
59
68
112
135
160
236
296
311
337
362
342
307
278
202
61
-61
-96
-113
-188
-230
-141
-19
-47
-242
-412
-420
-373
-401
-405
-301
-251
-316
-303
-210
-239
-308
-230
-165
-214
-227
-320
-327
635
2123
2020
180
-1000
-638
-64
62
97
135
117
100
86
103
163
201
240
295
244
95
27
87
157
164
155
186
204
174
148
100
-19
-117
-132
-128
-136
-132
-108
-71
-51
-66
-76
-63
-78
-116
-107
-82
-115
-163
-190
-194
-141
-119
-191
-212
-291
-369
453
2024
2169
289
-1170
-886
-250
-202
-254
-166
-147
-162
-98
-51
-119
-191
-149
-73
-50
-50
-56
-37
56
154
180
197
253
286
240
130
28
-13
-51
-121
-165
-162
-125
-41
43
84
107
82
-4
-23
77
138
86
42
27
-56
-208
-329
-317
-290
-469
-266
1046
2129
1088
-908
-1423
-681
-211
-174
-155
-143
-124
-80
-68
-41
-4
-25
-27
46
84
91
179
270
250
190
159
147
151
111
-6
-85
-87
-150
-299
-377
-317
-230
-208
-214
-203
-207
-216
-174
-113
-86
-74
-132
-317
-451
-378
-247
-219
-259
-268
-208
-277
-446
199
1898
2684
1233
-560
-776
-231
-98
-169
-148
-136
-67
80
154
154
151
130
122
168
245
363
496
514
425
367
328
255
204
146
28
-72
-132
-197
-227
-215
-209
-172
-108
-84
-87
-81
-71
-50
-26
-48
-104
-130
-131
-160
-149
-54
-68
-214
-216
-294
-562
169
2112
2694
717
-1146
-1040
-372
-294
-340
-268
-233
-169
-112
-154
-175
-100
12
100
107
61
83
147
152
149
194
214
199
195
154
38
-66
-138
-251
-345
-327
-282
-283
-257
-185
-136
-119
-105
-92
-69
-33
-10
0
1
-35
-88
-116
-124
-179
-367
-254
951
2429
1979
-203
-1431
-983
-457
-413
-327
-225
-248
-234
-194
-200
-165
-69
13
61
95
171
300
393
404
392
375
341
314
288
227
115
-43
-200
-282
-287
-291
-324
-342
-301
-228
-188
-188
-197
-216
-226
-217
-248
-303
-313
-286
-218
-151
-193
-262
-335
-450
87
1616
2326
819
-988
-1041
-290
-123
-236
-158
-57
-43
-31
18
45
-7
-13
120
214
225
353
531
538
492
514
455
364
439
522
397
213
112
-14
-180
-255
-261
-295
-330
-321
-307
-278
-187
-117
-163
-204
-137
-91
-131
-145
-116
-111
-118
-104
-71
-161
-327
239
1782
2501
1089
-696
-921
-303
-92
-191
-234
-211
-139
-108
-178
-218
-154
-84
-77
-72
12
144
228
245
218
211
317
435
346
128
-4
-90
-224
-332
-365
-347
-310
-304
-305
-249
-191
-197
-190
-118
-63
-110
-187
-155
-72
-73
-82
-78
-134
-123
-131
-197
577
2186
2345
310
-1234
-816
-91
-77
-109
13
-25
-153
-240
-295
-295
-265
-240
-177
-78
18
116
204
239
208
157
166
233
244
144
18
-60
-124
-209
-277
-286
-253
-208
-193
-227
-217
-107
-33
-73
-136
-197
-269
-296
-294
-286
-275
-314
-331
-330
-450
-53
1422
2349
1045
-867
-1121
-395
-149
-225
-189
-190
-237
-214
-172
-144
-123
-122
-89
-1
77
135
199
250
295
348
390
446
506
457
321
243
223
193
169
158
139
138
167
211
238
190
93
67
99
73
30
46
-4
-124
-133
-121
-242
-358
-477
-454
457
1843
1680
-177
-1304
-822
-231
-202
-167
-45
-56
-73
-13
19
4
-10
-16
-16
19
77
111
119
126
152
212
279
293
240
142
25
-94
-217
-300
-298
-284
-304
-278
-247
-317
-349
-228
-121
-126
-144
-170
-265
-359
-385
-377
-341
-288
-280
-279
-323
-484
-87
1485
2684
1569
-545
-1102
-413
-125
-254
-206
-93
-71
-54
-39
-26
19
63
84
127
210
272
273
279
333
375
385
427
527
566
382
74
-83
-123
-259
-409
-416
-370
-334
-270
-232
-243
-236
-222
-216
-204
-234
-280
-250
-210
-219
-226
-237
-250
-316
-397
241
1799
2427
887
-874
-976
-369
-238
-274
-202
-227
-292
-262
-218
-208
-167
-98
-69
-50
32
112
122
146
207
218
208
262
322
266
98
-57
-133
-173
-207
-216
-211
-205
-199
-196
-173
-117
-75
-71
-65
-50
-64
-119
-141
-51
43
5
0
81
-20
153
1375
2516
1735
-50
-630
-146
81
6
42
114
158
148
21
-89
-107
-137
-162
-121
-78
-19
87
136
100
91
120
130
142
145
80
-16
-86
-155
-202
-192
-192
-227
-220
-187
-175
-134
-76
-112
-233
-297
-259
-234
-284
-310
-294
-313
-319
-423
-636
-55
1609
2300
695
-1067
-1056
-392
-292
-322
-189
-153
-168
-127
-128
-162
-154
-128
-90
-17
59
102
140
188
222
236
250
261
254
220
156
78
16
-51
-131
-153
-96
-44
-36
-8
66
114
102
87
81
31
-13
30
114
113
-28
-177
-272
-466
-348
851
2126
1434
-589
-1409
-781
-297
-317
-292
-207
-202
-170
-80
-11
11
12
33
92
142
154
195
284
324
305
312
310
236
167
132
47
-73
-135
-167
-226
-244
-180
-137
-184
-224
-170
-111
-133
-184
-208
-216
-188
-142
-144
-180
-201
-195
-207
-411
-549
313
1928
2179
463
-948
-771
-262
-254
-292
-212
-180
-135
-88
-81
-23
56
66
87
173
248
311
401
475
506
526
544
548
521
450
357
281
206
72
-119
-258
-268
-257
-342
-424
-380
-285
-240
-242
-276
-317
-313
-305
-337
-307
-226
-246
-270
-253
-399
-111
1353
2478
1280
-825
-1264
-494
-187
-309
-291
-239
-245
-216
-190
-196
-182
-145
-124
-129
-95
12
107
136
165
216
254
298
323
247
126
73
5
-178
-317
-282
-207
-206
-220
-205
-187
-173
-145
-114
-120
-151
-156
-147
-136
-98
-95
-124
-109
-210
-234
708
2208
2178
406
-753
-397
91
39
-22
82
141
139
129
97
62
60
21
-110
-200
-131
-11
62
121
152
132
134
176
157
56
-28
-71
-126
-165
-147
-126
-129
-123
-111
-107
-90
-54
-34
-73
-146
-173
-160
-192
-222
-199
-207
-227
-274
-432
-84
1310
2249
1077
-771
-1090
-437
-218
-285
-225
-210
-223
-149
-125
-188
-202
-146
-114
-122
-90
0
76
118
168
219
243
252
255
214
111
-6
-72
-80
-70
-70
-86
-106
-74
28
114
131
143
149
83
14
21
17
-11
27
93
89
-107
-391
93
1618
2283
725
-1108
-1184
-441
-229
-287
-245
-244
-259
-206
-140
-94
-75
-56
18
107
150
185
231
245
235
239
241
203
132
61
-3
-87
-174
-211
-213
-244
-296
-314
-276
-222
-200
-190
-170
-179
-222
-250
-246
-245
-243
-207
-189
-226
-254
-380
-526
149
1686
2136
570
-956
-908
-355
-260
-267
-192
-190
-174
-116
-104
-82
-14
31
56
118
184
225
294
389
425
430
510
594
543
434
392
357
258
143
62
42
58
-5
-165
-263
-249
-236
-249
-231
-207
-221
-238
-239
-231
-227
-285
-360
-338
-357
-347
409
1690
1687
25
-1145
-778
-198
-181
-200
-103
-110
-116
-62
-61
-77
-37
3
15
43
100
164
213
241
287
356
367
308
259
202
92
-1
-79
-179
-195
-142
-194
-268
-193
-122
-183
-206
-143
-159
-235
-240
-222
-224
-168
-121
-145
-110
-124
-177
518
1873
2003
358
-956
-759
-205
-110
-137
-118
-138
-140
-111
-94
-69
-35
0
42
81
115
147
164
187
240
276
252
207
168
112
23
-65
-105
-115
-154
-194
-196
-208
-225
-178
-117
-135
-201
-268
-309
-279
-212
-185
-184
-204
-221
-182
-268
-270
716
2234
2119
248
-900
-528
-122
-204
-202
-119
-142
-125
-73
-92
-108
-78
-59
-49
-9
66
140
163
159
181
189
171
181
187
130
73
50
-6
-74
-101
-122
-153
-151
-121
-76
-13
-1
-102
-207
-199
-184
-265
-301
-227
-207
-254
-332
-457
-51
1293
2122
984
-718
-1024
-493
-330
-373
-311
-315
-334
-229
-129
-152
-189
-123
-58
-102
-90
91
230
205
186
236
265
277
296
258
149
32
-36
-34
-3
2
-27
-74
-117
-107
-58
-58
-104
-115
-108
-135
-168
-152
-90
-73
-145
-175
-203
-328
161
1723
2620
1269
-601
-819
-161
-1
-66
34
57
10
53
96
88
104
144
141
89
53
79
141
180
175
154
160
184
166
86
-21
-117
-183
-221
-247
-253
-223
-194
-197
-181
-140
-137
-169
-202
-233
-242
-254
-301
-306
-290
-342
-357
-398
-490
207
1828
2324
678
-904
-834
-317
-311
-343
-253
-273
-285
-218
-182
-167
-142
-130
-97
-44
-22
6
69
93
60
67
129
153
111
45
-27
-103
-173
-212
-203
-166
-143
-120
-74
-30
-8
4
-8
-40
-35
-24
-61
-62
-14
-28
-50
-71
-78
525
1803
2138
726
-596
-471
52
55
-35
9
-54
-169
-189
-170
-150
-110
-74
-50
-21
10
49
107
148
155
167
189
183
153
116
64
5
-48
-109
-163
-188
-212
-233
-207
-170
-161
-142
-143
-199
-224
-209
-229
-222
-187
-217
-227
-295
-487
82
1731
2384
743
-970
-904
-302
-268
-260
-123
-194
-276
-185
-132
-181
-183
-106
-37
1
49
107
136
149
181
215
243
271
259
180
99
57
19
-21
-39
-58
-87
-59
23
71
92
129
120
52
9
0
5
41
16
-57
-40
-179
-457
171
1722
2013
271
-1182
-965
-358
-279
-308
-270
-288
-254
-172
-158
-151
-97
-44
-1
49
83
109
147
157
125
107
106
74
44
31
-27
-109
-137
-156
-204
-220
-198
-177
-142
-97
-77
-80
-106
-149
-151
-131
-151
-151
-126
-167
-205
-241
-318
178
1510
2095
771
-796
-894
-320
-180
-240
-196
-178
-182
-152
-126
-96
-46
-6
12
58
152
217
209
209
255
280
281
299
304
268
222
187
161
141
123
103
77
33
-15
-27
-30
-74
-127
-149
-164
-189
-205
-206
-212
-229
-210
-230
-341
57
1345
2084
874
-845
-1073
-414
-205
-302
-272
-245
-253
-212
-196
-218
-198
-146
-111
-78
-38
4
68
133
146
144
177
192
167
138
93
17
-35
-60
-90
-100
-100
-169
-250
-217
-140
-142
-171
-172
-186
-216
-254
-270
-227
-211
-224
-172
-285
-381
595
2219
2122
115
-1123
-675
-117
-97
-79
-2
-8
22
79
88
101
138
173
211
247
270
299
318
272
199
190
221
210
163
110
29
-75
-151
-185
-204
-221
-210
-164
-120
-100
-86
-100
-169
-204
-174
-196
-239
-215
-240
-294
-307
-424
-75
1420
2534
1365
-646
-1084
-457
-231
-296
-252
-260
-302
-254
-185
-145
-109
-70
-6
74
120
112
96
119
142
125
116
145
162
128
44
-62
-137
-167
-190
-208
-195
-169
-137
-71
-9
-17
-65
-90
-84
-53
-7
10
-43
-85
-57
-145
-190
603
1905
1850
221
-830
-491
-58
-81
-96
-92
-211
-278
-241
-205
-184
-162
-139
-109
-70
-8
71
126
150
167
165
151
160
159
91
-1
-52
-101
-186
-244
-236
-213
-199
-169
-136
-127
-139
-175
-226
-268
-289
-272
-254
-272
-251
-314
-553
-104
1505
2384
949
-938
-1081
-322
-125
-274
-276
-255
-289
-286
-244
-192
-138
-91
-58
-34
-2
35
73
124
161
170
214
298
302
205
128
104
58
-10
-39
-40
-42
-12
48
77
87
115
91
10
-7
30
23
-7
-56
-135
-215
-375
-259
841
2037
1377
-572
-1352
-719
-218
-189
-143
-73
-65
-56
-50
-9
77
117
129
180
212
213
258
305
271
215
231
283
273
196
137
119
72
-2
-37
-37
-44
-43
-16
12
24
31
34
14
-12
-6
19
17
-50
-138
-167
-272
-374
332
1820
2182
589
-907
-819
-219
-100
-137
-107
-120
-104
-36
2
17
28
51
116
178
193
199
226
271
317
337
327
307
288
257
199
119
52
18
7
-10
-56
-113
-169
-245
-299
-278
-259
-309
-355
-367
-388
-381
-361
-390
-393
-404
-393
268
1532
1691
90
-1290
-1139
-564
-467
-502
-471
-468
-433
-392
-409
-417
-390
-366
-331
-280
-237
-199
-164
-148
-143
-110
-57
-27
-13
-19
-92
-196
-252
-287
-357
-419
-437
-439
-423
-365
-303
-303
-354
-368
-328
-318
-318
-281
-281
-260
-206
-338
-114
1260
2437
1437
-508
-931
-241
25
-1
149
212
158
217
319
348
352
391
456
513
573
661
695
636
596
620
639
658
685
650
553
460
387
