# session 7
-12
-16
1
15
-48
-179
-273
-304
-332
-368
-416
-467
-465
-417
-370
-319
-297
-342
-339
-275
-201
342
1585
2162
788
-1112
-1390
-525
-151
-287
-254
-121
-97
-87
-84
-107
-100
-111
-164
-156
-80
-6
80
168
231
307
363
310
179
57
-43
-108
-126
-142
-180
-200
-195
-196
-220
-263
-254
-164
-119
-172
-176
-95
-71
-134
-191
-155
-34
2
-72
-77
-170
-293
581
2336
2569
565
-968
-583
92
83
57
179
158
124
177
197
152
59
-48
-82
-38
12
49
90
131
192
277
315
264
169
71
-24
-100
-151
-195
-242
-278
-258
-199
-195
-238
-230
-161
-108
-125
-199
-234
-188
-174
-210
-187
-148
-156
-217
-444
-395
806
2241
1701
-359
-1280
-686
-242
-322
-305
-190
-164
-175
-223
-284
-278
-223
-167
-115
-64
-11
41
98
160
196
211
221
179
105
72
27
-50
-50
21
82
181
312
377
384
380
326
256
263
291
223
128
124
172
158
5
-218
-325
-407
-485
146
1470
1705
162
-1204
-1107
-548
-367
-340
-302
-242
-132
-110
-178
-139
-48
-63
-66
42
102
77
127
206
135
4
0
67
72
11
-43
-67
-140
-269
-306
-218
-169
-187
-176
-153
-166
-177
-147
-78
-44
-135
-288
-363
-324
-247
-249
-335
-346
-369
-509
38
1738
2763
1472
-438
-782
-256
-151
-198
-101
-131
-158
-11
81
65
102
181
235
261
257
287
377
438
464
536
607
568
389
93
-179
-239
-179
-249
-388
-382
-300
-301
-330
-293
-236
-210
-165
-93
-93
-187
-245
-239
-246
-246
-242
-252
-247
-406
-449
685
2443
2275
59
-1258
-765
-243
-286
-227
-136
-233
-257
-174
-156
-124
6
96
78
92
208
291
290
313
355
318
234
168
81
-36
-113
-157
-224
-302
-334
-311
-281
-264
-221
-155
-135
-147
-118
-84
-111
-157
-165
-118
-30
5
14
66
-12
120
1302
2624
1907
-290
-1231
-593
-156
-339
-431
-356
-360
-375
-293
-180
-122
-109
-89
-39
34
99
166
261
341
373
392
378
278
137
16
-89
-181
-251
-278
-249
-225
-257
-272
-213
-160
-168
-188
-201
-211
-169
-113
-139
-168
-123
-151
-224
-241
-378
-168
1222
2567
1708
-414
-1182
-625
-292
-316
-255
-215
-220
-164
-125
-143
-148
-100
-16
38
72
150
234
282
334
364
351
377
421
372
274
245
255
200
104
73
89
69
71
140
152
53
-47
-125
-228
-303
-308
-306
-292
-253
-279
-335
-342
-366
-4
1249
2183
1088
-897
-1351
-547
-170
-270
-240
-206
-251
-198
-128
-134
-123
-102
-147
-170
-76
29
66
126
214
224
177
142
97
49
30
-5
-77
-137
-163
-176
-196
-217
-208
-188
-214
-248
-211
-159
-173
-203
-222
-274
-270
-162
-153
-246
-261
-369
-296
898
2443
2090
124
-888
-475
-113
-149
-101
-11
22
74
91
98
164
197
199
306
423
389
334
375
346
201
126
129
89
34
-13
-100
-178
-200
-224
-252
-259
-273
-262
-188
-139
-149
-123
-93
-150
-206
-207
-232
-246
-217
-232
-209
-156
-279
56
1517
2538
1325
-611
-974
-357
-174
-260
-217
-207
-226
-198
-202
-209
-143
-68
-49
-62
-36
38
63
5
-33
-4
35
47
4
-98
-191
-223
-228
-252
-283
-278
-247
-231
-198
-135
-97
-70
-26
-54
-133
-103
-13
-3
-13
35
86
51
-98
176
1505
2712
1829
-279
-1020
-375
-65
-256
-272
-260
-396
-401
-257
-173
-134
-60
0
23
56
99
128
162
222
274
292
283
233
140
50
-7
-59
-109
-112
-68
-69
-146
-173
-111
-82
-50
64
74
-78
-139
-99
-118
-118
-128
-295
-480
-563
-310
839
2189
1842
-24
-1103
-774
-351
-306
-223
-115
-125
-142
-114
-51
29
7
-133
-193
-69
121
242
271
285
357
403
319
197
159
133
45
-37
-71
-102
-144
-180
-202
-179
-97
-30
-4
37
43
-46
-111
-106
-135
-149
-107
-112
-144
-249
-387
259
1839
2354
712
-920
-816
-194
-206
-328
-228
-211
-268
-251
-241
-270
-246
-182
-173
-186
-132
-70
-85
-81
18
79
38
46
120
83
-57
-134
-147
-193
-259
-289
-273
-238
-211
-188
-151
-117
-123
-157
-167
-171
-232
-282
-245
-215
-218
-267
-415
-53
1420
2597
1653
-247
-832
-361
-169
-254
-215
-146
-142
-189
-244
-206
-125
-126
-169
-155
-82
2
82
159
204
208
246
310
276
188
207
254
172
94
177
274
206
96
134
253
293
260
213
172
163
147
83
67
75
-8
-64
-129
-285
228
1632
2072
524
-997
-931
-363
-258
-255
-197
-215
-225
-255
-298
-170
8
3
-49
-10
8
-5
56
128
123
118
164
176
120
36
-76
-174
-192
-198
-247
-255
-227
-249
-267
-225
-180
-162
-183
-252
-280
-224
-194
-211
-224
-257
-279
-366
-512
64
1624
2292
788
-955
-1064
-478
-357
-388
-299
-261
-233
-177
-154
-107
-26
29
73
125
164
210
271
314
331
340
359
383
356
254
154
108
56
-16
-44
-40
-57
-78
-109
-187
-245
-216
-183
-211
-239
-247
-263
-256
-228
-210
-159
-164
-198
460
1899
2274
591
-1044
-925
-272
-244
-330
-249
-262
-257
-146
-110
-142
-152
-152
-126
-61
7
73
126
139
153
193
202
172
160
132
38
-42
-41
-39
-89
-129
-138
-147
-138
-111
-107
-110
-101
-127
-197
-247
-232
-179
-183
-225
-200
-283
-361
533
2232
2540
809
-651
-568
-144
-142
-163
-90
-55
-16
13
15
46
94
136
182
210
242
323
398
389
333
274
209
142
78
0
-75
-126
-186
-265
-310
-302
-272
-231
-168
-118
-122
-168
-201
-218
-276
-327
-294
-323
-444
-444
-483
-474
570
2206
2017
-107
-1351
-872
-354
-368
-332
-267
-313
-294
-236
-227
-173
-70
-16
-18
-4
67
173
253
265
233
212
219
205
140
43
-55
-128
-169
-211
-252
-238
-175
-114
-60
-22
-24
-26
-14
-59
-120
-73
12
-28
-95
-85
-171
-45
1014
2226
1763
55
-708
-272
32
-14
35
69
9
-10
-78
-203
-201
-118
-111
-101
-5
63
52
58
95
113
143
197
209
160
82
-2
-68
-122
-192
-262
-290
-256
-174
-140
-202
-232
-177
-174
-266
-319
-271
-251
-314
-282
-271
-533
-219
1424
2558
1242
-790
-1104
-412
-192
-235
-143
-112
-136
-117
-131
-158
-134
-106
-76
-11
61
116
161
186
216
264
282
280
287
232
98
5
-6
-36
-111
-134
-60
27
54
78
154
190
134
89
77
32
3
15
18
1
-180
-307
554
2037
1909
-125
-1442
-994
-374
-349
-350
-263
-260
-237
-171
-145
-153
-163
-129
-42
21
43
69
88
91
106
134
154
126
31
-54
-102
-188
-272
-253
-214
-253
-276
-210
-126
-82
-93
-165
-216
-196
-178
-175
-149
-165
-180
-155
-326
-309
850
2264
1712
-310
-1172
-594
-196
-270
-272
-246
-250
-171
-118
-131
-104
-60
-22
58
121
129
177
271
310
328
405
483
488
439
378
331
287
224
189
217
223
157
83
27
-42
-126
-197
-230
-222
-201
-181
-185
-238
-256
-244
-286
88
1267
2000
905
-795
-1108
-455
-207
-314
-267
-206
-258
-279
-244
-206
-163
-142
-153
-136
-93
-68
-34
35
77
88
124
152
110
52
53
51
-30
-116
-117
-98
-120
-124
-89
-81
-115
-154
-184
-188
-191
-227
-236
-218
-254
-258
-272
-401
103
1693
2557
1146
-735
-955
-323
-173
-253
-178
-118
-89
-22
14
37
100
150
167
207
268
308
356
424
438
393
376
367
262
74
-77
-152
-194
-209
-217
-267
-299
-233
-143
-126
-147
-148
-135
-130
-170
-215
-216
-260
-322
-298
-376
-273
861
2187
1606
-352
-1185
-678
-329
-371
-344
-317
-332
-286
-250
-240
-192
-157
-160
-125
-35
23
16
22
96
166
162
138
132
82
-9
-69
-110
-176
-221
-199
-143
-106
-79
-27
11
-36
-93
-70
-44
-54
-38
-52
-80
-69
-201
-107
1053
2361
1798
-26
-723
-184
130
24
2
47
64
88
88
61
44
35
2
-70
-123
-102
-43
26
93
111
79
43
29
52
70
21
-50
-82
-117
-168
-160
-104
-69
-62
-98
-202
-255
-204
-216
-286
-271
-263
-273
-266
-479
-328
1227
2748
1733
-638
-1369
-631
-226
-288
-294
-259
-218
-176
-149
-64
5
-43
-95
-70
-6
83
146
138
147
216
248
206
164
132
74
11
-54
-131
-173
-161
-135
-94
-47
-35
-48
-63
-82
-92
-84
-45
0
-10
-14
-58
-209
268
1754
2421
853
-949
-935
-213
-126
-235
-229
-367
-469
-371
-270
-217
-157
-143
-150
-120
-95
-68
26
147
192
170
165
177
138
49
-24
-75
-135
-177
-181
-203
-237
-193
-76
-12
-69
-145
-138
-137
-198
-194
-155
-213
-267
-391
-525
334
2178
2593
645
-1026
-803
-194
-207
-225
-85
-122
-239
-249
-205
-163
-105
-33
1
-3
32
107
149
145
132
144
187
201
144
88
71
10
-102
-142
-94
-60
-28
67
160
182
175
157
101
44
53
82
38
14
19
-214
-267
795
2061
1406
-581
-1343
-711
-330
-428
-389
-304
-326
-274
-168
-144
-144
-90
-29
6
46
88
109
122
128
100
78
125
183
150
49
-27
-54
-81
-113
-93
-32
-21
-57
-30
39
8
-107
-155
-128
-108
-125
-180
-194
-194
-322
-10
1344
2313
1124
-851
-1242
-540
-296
-407
-330
-230
-231
-232
-216
-191
-169
-162
-114
-11
63
80
100
143
177
196
225
294
382
403
333
261
232
207
176
174
225
298
326
301
241
91
-121
-242
-240
-232
-264
-272
-312
-516
-418
686
1866
1231
-682
-1463
-786
-219
-214
-231
-179
-178
-193
-214
-211
-158
-109
-77
-48
-40
-24
26
50
34
38
75
105
109
94
64
0
-94
-154
-160
-166
-173
-135
-79
-57
-63
-91
-121
-123
-151
-237
-302
-295
-242
-279
-443
-45
1425
2450
1351
-491
-881
-331
-194
-289
-204
-153
-160
-110
-87
-92
-30
58
108
158
237
284
271
266
299
322
351
411
424
356
270
155
-19
-168
-236
-262
-243
-174
-152
-214
-252
-209
-159
-158
-174
-149
-116
-146
-170
-183
-269
88
1324
2105
964
-790
-1106
-458
-185
-212
-141
-117
-167
-175
-165
-149
-116
-105
-99
-51
25
73
89
112
133
120
135
204
216
123
16
-53
-103
-151
-206
-242
-206
-136
-97
-90
-123
-179
-163
-111
-135
-162
-148
-156
-142
-227
-346
420
1980
2117
191
-1233
-808
-88
-19
-22
78
66
59
102
90
80
127
167
149
79
-3
-55
-92
-123
-110
-68
-37
12
67
38
-64
-115
-95
-83
-88
-84
-78
-39
42
55
-42
-112
-129
-200
-242
-186
-205
-259
-273
-466
-217
1348
2635
1447
-733
-1206
-501
-259
-332
-259
-244
-271
-206
-173
-198
-178
-108
-39
0
26
60
82
82
101
156
224
262
227
139
68
23
-32
-80
-82
-65
-49
7
83
83
12
-10
22
-29
-136
-131
-71
-75
-113
-244
-82
1132
2427
1720
-301
-1038
-411
-54
-126
-98
-109
-217
-253
-287
-359
-373
-340
-295
-215
-135
-100
-67
-7
26
26
66
143
167
105
13
-32
-16
-15
-65
-102
-94
-63
-28
-31
-87
-113
-91
-129
-207
-195
-182
-236
-224
-348
-546
355
2269
2598
571
-1022
-767
-248
-289
-264
-102
-95
-160
-236
-317
-308
-236
-184
-133
-89
-64
1
77
70
38
73
130
148
133
78
-5
-34
-10
-20
-39
-4
36
56
92
96
57
70
104
87
107
139
55
-4
-49
-198
327
1872
2482
831
-994
-1052
-416
-331
-435
-380
-344
-337
-311
-311
-308
-245
-162
-121
-96
-24
63
105
112
103
93
103
106
88
59
-8
-89
-103
-75
-72
-76
-73
-56
-8
24
-8
-44
-60
-106
-136
-115
-147
-188
-174
-371
-410
781
2357
1912
-118
-978
-424
-166
-343
-311
-255
-299
-243
-173
-186
-174
-138
-131
-109
-56
-16
4
35
64
63
80
170
243
201
137
141
107
5
-2
116
198
200
203
217
205
162
103
41
3
-4
-61
-201
-290
-399
-609
-157
1338
2057
553
-1291
-1380
-612
-363
-388
-307
-235
-151
-87
-150
-189
-98
-22
-16
0
42
86
104
76
57
76
83
103
152
110
-37
-116
-90
-90
-156
-193
-144
-132
-203
-67
342
522
282
53
12
-30
-84
-110
-150
-238
-391
-113
1161
2244
1348
-558
-1121
-471
-137
-215
-186
-156
-185
-136
-88
-106
-94
-44
-16
11
64
115
136
138
157
219
296
353
401
409
334
241
187
120
51
75
137
109
36
-19
-129
-270
-328
-347
-377
-354
-333
-376
-413
-498
-375
617
1821
1362
-518
-1440
-856
-288
-266
-269
-237
-277
-270
-207
-149
-129
-166
-164
-70
-24
-79
-91
-49
-68
-97
-35
32
19
-8
-19
-60
-121
-146
-137
-136
-139
-79
24
56
7
-38
-82
-158
-200
-152
-88
-79
-63
-96
-201
262
1594
2272
1055
-510
-657
-129
-42
-107
-32
-26
-50
-8
23
58
100
113
187
321
374
363
387
402
362
338
390
473
512
484
407
276
106
-20
-73
-108
-140
-131
-84
-60
-106
-179
-215
-222
-212
-185
-228
-308
-240
-154
-117
545
1762
1728
-86
-1420
-1014
-312
-251
-251
-149
-207
-241
-151
-142
-198
-193
-163
-140
-86
-35
-38
-64
-68
-60
-50
-40
-66
-102
-80
-43
-50
-44
-33
-106
-180
-152
-124
-147
-128
-95
-127
-171
-191
-203
-203
-232
-231
-188
-345
-273
961
2309
1562
-500
-1214
-570
-207
-239
-146
-82
-106
-62
5
63
126
130
93
87
93
127
239
343
306
147
-1
-60
-69
-97
-153
-203
-242
-274
-290
-303
-314
-276
-191
-142
-161
-176
-150
-152
-192
-178
-152
-173
-147
-244
-400
428
2160
2370
313
-1275
-926
-261
-278
-347
-244
-212
-220
-219
-195
-94
13
56
81
84
67
117
196
196
195
291
380
369
314
256
202
172
