# session 21
-28
-29
-30
63
203
259
280
343
394
405
400
351
247
134
35
-58
-138
-189
-217
-234
-252
-263
-260
-255
-248
-226
-209
-211
-200
-170
-151
-146
-136
-134
-149
-160
-146
-110
-74
-52
-52
-63
-77
-91
-97
-78
-59
-68
-62
-45
-74
-100
-192
-315
349
2013
2657
944
-998
-1076
-329
-145
-204
-133
-125
-146
-100
-78
-80
-56
-34
-19
18
63
91
114
163
236
314
387
456
514
552
553
499
403
292
175
62
-20
-85
-164
-226
-233
-217
-216
-240
-265
-235
-167
-186
-285
-314
-246
-176
-141
-136
-137
-129
-163
-225
-208
-140
-121
-128
-120
-130
-146
-141
-140
-136
-116
-108
-107
-115
-153
-176
-276
-346
468
2228
2842
1162
-645
-742
-229
-238
-323
-227
-218
-225
-146
-139
-204
-170
-60
-44
-105
-96
-23
12
35
109
190
244
309
388
422
397
347
270
154
54
6
-36
-103
-162
-200
-224
-231
-220
-202
-193
-199
-203
-199
-187
-157
-127
-140
-175
-188
-179
-161
-151
-154
-145
-116
-97
-82
-47
-25
-42
-60
-62
-69
-66
-61
-77
-78
-70
-103
-150
-265
-233
756
2416
2619
773
-739
-595
-143
-216
-270
-184
-200
-211
-162
-152
-150
-121
-103
-90
-67
-42
-14
20
63
118
183
252
316
364
394
403
370
292
189
85
-5
-77
-134
-174
-194
-204
-212
-216
-224
-235
-241
-238
-234
-232
-228
-218
-204
-190
-181
-172
-158
-144
-134
-127
-121
-112
-104
-102
-102
-92
-79
-76
-78
-76
-84
-95
-79
-41
-7
21
36
14
-24
-38
-41
-44
-35
-36
-49
-34
-37
-86
-154
-281
-27
1343
2858
2371
318
-711
-316
-58
-222
-217
-146
-182
-167
-124
-128
-116
-86
-76
-61
-35
-23
-9
26
69
111
161
217
267
306
334
345
321
255
163
72
-18
-104
-169
-204
-222
-233
-233
-227
-220
-217
-213
-206
-195
-184
-175
-169
-163
-155
-149
-144
-139
-134
-130
-123
-117
-116
-119
-119
-117
-117
-119
-126
-140
-147
-129
-93
-52
-12
2
-26
-55
-54
-53
-60
-56
-61
-72
-50
-54
-105
-173
-306
-36
1370
2831
2202
111
-807
-323
-64
-233
-221
-155
-197
-184
-143
-147
-132
-96
-83
-70
-48
-27
1
40
82
129
187
250
307
350
377
384
350
269
168
74
-13
-97
-166
-208
-230
-241
-242
-239
-243
-246
-238
-224
-212
-200
-186
-176
-167
-155
-145
-138
-134
-131
-128
-122
-114
-108
-111
-116
-116
-126
-140
-125
-79
-38
-12
-4
-25
-55
-65
-68
-69
-61
-67
-71
-49
-63
-104
-167
-309
34
1495
2758
1876
-149
-856
-335
-97
-219
-193
-148
-177
-155
-126
-129
-111
-86
-76
-53
-21
2
26
62
107
162
226
293
354
400
429
431
387
297
192
91
-11
-104
-167
-205
-230
-243
-246
-249
-251
-247
-238
-222
-206
-196
-185
-170
-155
-146
-148
-155
-157
-160
-177
-187
-166
-132
-100
-66
-50
-72
-102
-110
-109
-104
-99
-106
-97
-79
-101
-129
-230
-359
275
1939
2775
1365
-492
-760
-220
-135
-241
-187
-172
-198
-166
-146
-143
-120
-101
-86
-60
-36
-12
24
64
110
174
244
307
362
404
426
411
343
239
135
36
-61
-137
-186
-214
-220
-221
-237
-256
-254
-245
-239
-224
-205
-193
-184
-174
-166
-152
-143
-149
-162
-171
-166
-143
-114
-85
-57
-55
-80
-97
-102
-110
-103
-96
-105
-90
-76
-113
-149
-273
-316
609
2319
2597
709
-894
-728
-163
-168
-228
-156
-166
-171
-126
-121
-119
-87
-69
-58
-30
3
31
59
100
159
229
310
387
427
444
466
444
343
232
157
66
-58
-157
-204
-221
-234
-245
-253
-255
-251
-245
-238
-232
-225
-213
-197
-181
-166
-163
-178
-191
-183
-164
-143
-102
-61
-68
-103
-115
-117
-126
-113
-100
-108
-84
-68
-121
-183
-318
-275
835
2574
2637
650
-788
-543
-118
-227
-271
-180
-202
-227
-193
-182
-176
-150
-124
-102
-79
-51
-20
11
49
102
168
246
314
346
362
381
364
282
168
65
-16
-85
-160
-232
-259
-246
-244
-262
-262
-242
-235
-237
-224
-210
-207
-196
-182
-182
-180
-175
-189
-197
-170
-129
-93
-60
-55
-78
-97
-104
-99
-81
-79
-83
-42
-34
-108
-194
-348
-207
1081
2757
2511
429
-800
-435
-69
-199
-218
-146
-176
-170
-127
-125
-109
-78
-65
-47
-22
-3
26
68
114
167
221
276
333
374
395
408
382
289
171
76
-6
-86
-150
-191
-214
-225
-234
-242
-243
-234
-221
-204
-191
-189
-189
-177
-163
-161
-159
-149
-156
-182
-181
-145
-114
-91
-61
-53
-79
-104
-111
-112
-98
-90
-99
-84
-77
-111
-161
-326
-279
874
2509
2300
179
-1109
-653
-124
-198
-236
-162
-188
-193
-147
-138
-137
-118
-99
-75
-47
-21
12
54
97
150
216
284
343
386
413
421
391
316
216
114
14
-75
-138
-178
-207
-231
-247
-252
-243
-234
-227
-214
-191
-174
-170
-168
-159
-145
-131
-123
-127
-124
-112
-120
-140
-136
-111
-81
-51
-41
-63
-80
-83
-83
-70
-65
-84
-70
-42
-65
-93
-205
-272
584
2273
2599
677
-1066
-944
-267
-171
-218
-153
-162
-169
-121
-108
-108
-82
-58
-34
-2
21
45
92
149
199
253
322
390
442
481
502
481
408
303
195
88
-22
-120
-180
-201
-215
-234
-249
-255
-252
-239
-228
-223
-212
-189
-169
-163
-162
-161
-159
-159
-161
-165
-176
-184
-180
-167
-148
-120
-101
-106
-124
-136
-143
-132
-114
-125
-126
-87
-99
-144
-176
-270
94
1527
2640
1482
-722
-1331
-574
-165
-206
-156
-121
-154
-117
-78
-84
-67
-31
-6
11
24
52
89
115
160
244
329
392
439
478
525
550
505
416
331
233
108
-4
-82
-131
-154
-169
-189
-198
-186
-173
-171
-169
-162
-157
-164
-180
-191
-201
-204
-181
-156
-171
-202
-195
-168
-165
-171
-164
-153
-154
-170
-185
-174
-152
-153
-146
-133
-151
-157
-213
-257
442
1939
2340
656
-978
-845
-163
-111
-193
-109
-127
-158
-94
-82
-118
-108
-84
-65
-35
-16
-1
31
62
92
150
225
285
337
385
408
393
341
258
163
69
-18
-85
-128
-157
-173
-172
-169
-172
-170
-161
-161
-163
-155
-144
-139
-134
-130
-132
-134
-138
-152
-165
-161
-147
-129
-95
-61
-64
-96
-118
-124
-122
-110
-112
-122
-93
-79
-110
-126
-207
-57
1081
2492
2059
13
-1014
-463
-34
-166
-178
-97
-133
-135
-97
-100
-90
-61
-53
-39
-9
10
30
66
107
148
200
260
311
347
368
367
327
247
150
53
-37
-117
-177
-215
-233
-239
-238
-235
-232
-224
-214
-208
-204
-194
-181
-174
-168
-157
-149
-145
-141
-142
-155
-164
-154
-129
-96
-61
-43
-59
-85
-97
-99
-91
-79
-83
-79
-61
-81
-109
-162
-231
338
1843
2589
1150
-697
-841
-164
-75
-212
-133
-111
-157
-122
-94
-101
-80
-57
-46
-23
1
24
55
92
132
186
246
299
342
373
388
378
326
238
140
47
-41
-116
-172
-206
-219
-221
-219
-214
-207
-202
-196
-183
-171
-165
-160
-152
-146
-140
-136
-138
-140
-139
-149
-162
-158
-135
-106
-72
-52
-65
-93
-105
-103
-97
-88
-97
-100
-77
-85
-119
-176
-276
167
1641
2656
1443
-592
-1000
-284
-74
-230
-177
-133
-182
-159
-126
-129
-107
-78
-69
-50
-21
5
36
74
118
171
227
279
326
362
383
379
338
259
162
66
-23
-101
-162
-199
-216
-224
-229
-226
-215
-205
-197
-189
-181
-171
-157
-145
-142
-139
-132
-129
-130
-127
-133
-154
-160
-136
-103
-76
-50
-45
-68
-87
-88
-88
-84
-90
-106
-89
-81
-119
-150
-265
-232
810
2409
2290
180
-1218
-783
-163
-183
-221
-144
-164
-163
-111
-106
-97
-61
-48
-40
-3
33
55
89
144
204
264
328
383
423
455
477
462
395
291
184
89
1
-74
-131
-173
-194
-197
-194
-190
-184
-176
-166
-152
-143
-146
-150
-141
-128
-126
-134
-142
-147
-150
-152
-150
-140
-120
-98
-96
-115
-133
-144
-141
-124
-127
-133
-103
-109
-140
-138
-238
-74
1130
2409
1639
-548
-1425
-713
-169
-180
-150
-96
-128
-108
-69
-74
-63
-36
-20
4
34
61
99
148
198
255
324
393
451
495
524
524
472
369
250
136
23
-78
-148
-188
-214
-233
-246
-254
-252
-241
-231
-222
-208
-195
-192
-191
-183
-174
-177
-191
-198
-188
-169
-143
-115
-105
-120
-141
-151
-151
-139
-127
-133
-126
-109
-128
-148
-209
-247
402
1812
2227
652
-928
-814
-149
-118
-235
-155
-146
-175
-133
-113
-118
-94
-73
-62
-36
-6
22
54
94
145
204
263
317
359
384
397
384
327
240
147
56
-27
-90
-133
-155
-158
-158
-163
-162
-153
-147
-145
-141
-135
-129
-124
-123
-123
-120
-121
-130
-134
-122
-105
-86
-59
-41
-58
-89
-105
-108
-101
-91
-97
-97
-75
-85
-110
-160
-254
182
1567
2440
1214
-670
-957
-239
-51
-200
-147
-108
-147
-114
-81
-90
-72
-47
-39
-19
8
27
52
91
136
188
244
295
336
364
379
370
319
232
136
45
-45
-125
-179
-206
-215
-215
-216
-214
-202
-186
-184
-189
-189
-183
-177
-169
-165
-166
-160
-159
-171
-172
-148
-117
-88
-65
-71
-104
-123
-122
-115
-111
-122
-131
-109
-106
-131
-169
-284
-49
1173
2321
1507
-448
-1056
-351
-25
-186
-165
-95
-139
-128
-88
-92
-80
-53
-41
-20
6
24
52
95
140
191
248
301
340
367
382
380
343
268
172
80
-4
-80
-140
-175
-189
-191
-193
-193
-186
-173
-164
-157
-150
-142
-137
-131
-128
-130
-133
-134
-141
-150
-140
-112
-80
-51
-41
-57
-81
-90
-92
-84
-77
-86
-80
-70
-97
-116
-197
-276
392
1839
2169
474
-1057
-806
-97
-77
-184
-97
-92
-120
-79
-68
-74
-47
-28
-16
10
34
55
89
132
174
223
278
329
364
384
395
379
320
233
140
45
-47
-121
-170
-199
-213
-220
-221
-213
-203
-195
-187
-177
-168
-160
-152
-146
-143
-141
-142
-146
-156
-169
-171
-155
-125
-91
-68
-73
-93
-106
-108
-105
-94
-92
-91
-66
-73
-110
-126
-224
-93
992
2233
1623
-378
-1184
-478
-21
-154
-160
-77
-114
-111
-65
-67
-60
-34
-22
-4
25
49
78
117
157
200
251
301
340
369
386
386
352
281
189
97
11
-70
-137
-182
-206
-218
-223
-222
-213
-202
-193
-184
-172
-159
-148
-140
-133
-126
-121
-117
-113
-117
-125
-128
-139
-159
-154
-113
-68
-45
-45
-65
-85
-92
-92
-83
-80
-94
-84
-64
-91
-109
-183
-261
425
1970
2419
707
-983
-863
-160
-100
-200
-121
-115
-140
-99
-83
-85
-59
-39
-26
2
28
50
86
126
166
212
263
309
344
368
386
383
341
265
177
87
-4
-86
-143
-178
-200
-213
-214
-205
-195
-186
-175
-162
-153
-146
-139
-133
-130
-127
-124
-126
-131
-131
-139
-159
-163
-129
-85
-58
-51
-65
-90
-108
-115
-107
-91
-92
-90
-70
-87
-112
-164
-315
42
1466
2488
1315
-708
-1147
-407
-96
-194
-163
-129
-158
-130
-104
-109
-88
-62
-51
-30
-2
23
56
97
142
194
249
299
340
368
383
382
352
284
194
98
5
-77
-141
-187
-214
-228
-235
-237
-230
-217
-202
-189
-179
-168
-153
-138
-128
-123
-124
-122
-124
-142
-159
-147
-118
-94
-73
-57
-64
-89
-107
-110
-101
-97
-111
-102
-80
-107
-133
-197
-331
155
1670
2524
1129
-855
-1149
-404
-126
-194
-143
-115
-137
-105
-83
-86
-62
-31
-10
16
46
77
111
149
198
259
320
368
407
440
463
459
413
328
227
128
32
-61
-137
-187
-208
-216
-228
-239
-235
-224
-216
-203
-184
-170
-159
-144
-132
-134
-140
-135
-129
-137
-152
-152
-137
-117
-93
-74
-80
-108
-130
-134
-118
-100
-114
-127
-95
-94
-128
-146
-265
-117
1102
2495
1868
-332
-1348
-711
-161
-183
-176
-120
-145
-122
-78
-84
-79
-47
-26
-4
26
58
95
134
175
232
300
364
420
466
492
497
467
390
282
171
62
-40
-119
-168
-198
-216
-227
-232
-236
-237
-230
-218
-206
-193
-182
-176
-167
-156
-150
-148
-148
-161
-181
-183
-161
-138
-115
-93
-95
-123
-142
-145
-145
-133
-127
-136
-118
-109
-142
-174
-293
-235
868
2521
2439
369
-1008
-623
-110
-209
-261
-175
-199
-204
-154
-151
-147
-115
-96
-79
-49
-24
1
38
80
127
185
247
301
338
363
374
355
287
192
95
-1
-94
-165
-209
-233
-244
-248
-254
-258
-258
-255
-248
-237
-225
-214
-202
-190
-175
-161
-154
-153
-149
-154
-167
-163
-137
-109
-82
-51
-45
-72
-94
-98
-100
-92
-83
-95
-87
-67
-94
-133
-240
-291
549
2293
2809
1010
-784
-740
-125
-132
-237
-150
-154
-179
-126
-110
-114
-81
-55
-40
-12
14
36
72
116
164
220
281
337
383
416
433
422
367
278
178
81
-14
-93
-144
-176
-195
-202
-203
-206
-210
-209
-199
-185
-168
-153
-139
-125
-110
-99
-91
-84
-78
-71
-63
-58
-56
-56
-56
-53
-53
-59
-64
-72
-90
-90
-59
-19
15
40
28
-19
-47
-47
-50
-45
-35
-47
-43
-25
-53
-86
-175
-245
509
2207
2814
1105
-743
-777
-140
-106
-222
-148
-144
-173
-131
-114
-119
-94
-72
-59
-35
-12
7
34
68
106
152
204
256
304
338
357
357
321
241
140
42
-50
-139
-211
-255
-277
-290
-298
-302
-302
-296
-288
-282
-276
-267
-259
-253
-244
-235
-228
-223
-218
-217
-219
-220
-218
-216
-218
-219
-217
-220
-226
-229
-238
-246
-226
-183
-141
-109
-100
-127
-161
-164
-158
-157
-143
-140
-146
-121
-115
-154
-194
-316
-146
1130
2669
2208
41
-1056
-505
-57
-179
-188
-100
-125
-112
-59
-52
-34
9
33
56
92
128
166
209
256
312
380
451
518
572
613
637
632
584
503
408
316
231
159
111
84
