# session 30
94
67
105
158
70
-121
-195
-157
-155
-173
-157
-149
-163
-170
-161
-137
-95
-57
-54
-93
-135
-144
-140
-148
-145
-139
-153
-142
-124
-159
-204
-308
-286
701
2411
2633
726
-796
-560
-70
-200
-288
-198
-227
-250
-201
-197
-201
-171
-157
-153
-136
-117
-101
-80
-57
-31
-4
24
58
97
137
177
212
237
260
277
262
204
120
33
-50
-126
-185
-219
-232
-236
-236
-231
-224
-217
-211
-203
-194
-186
-179
-171
-165
-161
-156
-149
-146
-143
-139
-136
-134
-132
-129
-124
-120
-118
-115
-111
-106
-103
-97
-92
-88
-84
-80
-77
-72
-68
-66
-64
-58
-54
-52
-47
-45
-55
-60
-41
4
51
69
41
-6
-25
-19
-23
-26
-16
-24
-26
0
-13
-57
-129
-210
347
1940
2912
1611
-354
-686
-72
8
-163
-106
-85
-132
-98
-76
-93
-79
-60
-57
-44
-27
-15
5
26
46
71
103
136
174
216
255
290
319
339
348
335
280
193
98
6
-80
-146
-183
-202
-212
-218
-219
-217
-214
-208
-198
-186
-178
-172
-165
-158
-152
-149
-147
-143
-138
-134
-133
-131
-129
-129
-128
-123
-117
-115
-114
-111
-109
-108
-106
-103
-101
-101
-100
-94
-93
-105
-112
-90
-43
0
13
-16
-61
-80
-78
-86
-88
-79
-89
-88
-64
-83
-121
-195
-279
356
2029
2912
1472
-458
-695
-99
-57
-209
-143
-131
-173
-139
-121
-134
-114
-95
-92
-76
-57
-45
-27
-4
18
44
76
111
153
199
245
286
320
347
361
342
276
183
87
-3
-86
-148
-183
-201
-209
-211
-212
-214
-210
-201
-191
-184
-175
-166
-159
-156
-153
-148
-144
-141
-137
-133
-131
-130
-128
-126
-125
-124
-121
-116
-111
-107
-102
-99
-106
-111
-96
-56
-8
16
-5
-50
-76
-76
-80
-80
-67
-74
-85
-59
-63
-102
-144
-246
98
1538
2813
1895
-242
-969
-335
-28
-170
-156
-107
-147
-133
-103
-109
-99
-80
-73
-56
-36
-24
-7
16
42
71
104
144
190
233
276
323
365
397
415
396
326
227
120
12
-86
-154
-192
-219
-239
-245
-244
-244
-241
-230
-213
-200
-196
-193
-185
-174
-165
-160
-157
-153
-148
-146
-145
-142
-138
-132
-129
-125
-118
-114
-122
-126
-111
-74
-25
9
-4
-52
-85
-87
-89
-95
-86
-90
-102
-80
-80
-123
-159
-250
-9
1305
2754
2174
36
-948
-393
-22
-177
-191
-126
-169
-163
-122
-130
-125
-99
-92
-80
-57
-40
-23
0
21
46
79
114
153
197
244
285
317
345
366
359
306
217
117
19
-70
-141
-187
-210
-218
-221
-222
-219
-211
-202
-195
-186
-177
-169
-163
-158
-153
-149
-146
-143
-140
-138
-140
-140
-133
-129
-136
-144
-137
-112
-66
-19
-11
-53
-99
-108
-104
-109
-102
-94
-108
-98
-77
-105
-138
-230
-267
578
2302
2805
1047
-698
-662
-85
-107
-221
-146
-150
-177
-138
-130
-134
-108
-94
-89
-68
-50
-38
-17
8
32
59
91
127
169
215
256
289
317
342
347
311
235
140
40
-54
-130
-181
-207
-219
-225
-227
-224
-219
-211
-201
-191
-183
-175
-169
-163
-157
-154
-151
-148
-148
-149
-143
-137
-145
-155
-147
-114
-66
-26
-27
-73
-116
-120
-116
-122
-113
-105
-117
-103
-90
-123
-153
-259
-221
823
2507
2566
538
-955
-635
-64
-125
-199
-126
-149
-162
-117
-115
-119
-95
-83
-73
-52
-37
-19
8
33
59
93
131
169
215
262
303
339
372
395
390
339
250
148
46
-52
-129
-177
-203
-221
-230
-230
-226
-222
-213
-203
-196
-192
-184
-175
-166
-161
-158
-155
-151
-145
-143
-149
-158
-153
-124
-77
-33
-23
-61
-108
-121
-115
-118
-112
-104
-117
-109
-85
-111
-147
-235
-294
475
2176
2765
1042
-790
-792
-136
-100
-221
-154
-153
-180
-139
-127
-135
-111
-91
-86
-71
-52
-33
-9
16
42
73
105
138
179
224
264
298
328
353
356
314
232
130
27
-65
-138
-191
-224
-237
-241
-244
-241
-230
-220
-214
-205
-193
-185
-178
-170
-165
-162
-159
-153
-146
-144
-150
-157
-148
-119
-72
-29
-21
-62
-107
-118
-116
-119
-108
-100
-117
-105
-82
-116
-157
-266
-291
642
2422
2821
956
-720
-593
-51
-122
-222
-142
-160
-185
-140
-132
-136
-111
-97
-89
-68
-50
-36
-14
10
33
61
95
133
174
214
252
287
316
340
340
296
213
117
23
-65
-133
-174
-195
-207
-213
-213
-210
-205
-199
-191
-184
-176
-169
-163
-159
-156
-153
-150
-148
-144
-137
-136
-144
-150
-141
-111
-64
-21
-15
-55
-101
-115
-114
-120
-114
-106
-119
-109
-91
-123
-164
-279
-322
597
2403
2860
1006
-721
-630
-75
-130
-235
-156
-171
-197
-154
-146
-150
-123
-109
-104
-84
-65
-50
-30
-5
23
54
85
120
162
202
239
272
302
328
333
295
216
122
27
-64
-136
-179
-199
-209
-215
-216
-213
-206
-197
-188
-180
-172
-165
-159
-152
-146
-142
-138
-134
-132
-130
-129
-127
-125
-121
-115
-114
-119
-128
-127
-98
-43
4
13
-20
-66
-86
-82
-85
-84
-75
-86
-82
-56
-77
-117
-204
-314
315
2041
2992
1547
-450
-730
-121
-54
-205
-147
-134
-173
-138
-120
-132
-113
-93
-89
-72
-51
-35
-16
5
26
54
85
118
155
194
232
268
299
328
347
331
264
171
76
-16
-96
-152
-184
-199
-205
-207
-205
-197
-187
-181
-175
-169
-163
-156
-152
-148
-143
-137
-134
-132
-129
-128
-129
-129
-129
-129
-127
-126
-126
-124
-122
-120
-115
-112
-122
-137
-134
-96
-37
6
3
-38
-77
-86
-87
-95
-89
-88
-106
-91
-77
-118
-162
-286
-269
795
2571
2732
741
-775
-520
-39
-161
-240
-161
-191
-207
-162
-160
-162
-137
-130
-124
-103
-88
-75
-54
-32
-9
17
44
78
118
151
189
257
336
393
418
404
347
266
181
99
26
-36
-87
-125
-144
-152
-157
-159
-158
-161
-159
-139
-108
-88
-80
-77
-76
-77
-82
-90
-93
-95
-103
-112
-116
-118
-122
-122
-123
-126
-126
-120
-114
-109
-110
-113
-99
-84
-95
-112
-101
-60
-13
16
1
-47
-74
-68
-74
-89
-86
-93
-105
-80
-79
-128
-194
-335
-61
1390
2890
2223
73
-835
-303
-25
-199
-197
-141
-187
-174
-136
-144
-133
-109
-104
-93
-71
-56
-40
-17
5
30
61
94
130
171
212
250
281
310
336
339
300
224
132
39
-49
-122
-169
-193
-204
-211
-211
-207
-199
-191
-184
-178
-171
-162
-155
-148
-141
-135
-132
-129
-126
-124
-122
-120
-119
-119
-117
-116
-115
-112
-107
-104
-103
-100
-94
-90
-88
-86
-84
-79
-75
-81
-92
-88
-55
-3
36
33
-14
-55
-60
-59
-67
-57
-54
-70
-51
-42
-90
-145
-266
-108
1161
2807
2529
417
-791
-367
8
-160
-197
-125
-166
-167
-125
-130
-126
-99
-91
-82
-62
-48
-31
-8
13
35
62
91
125
164
204
241
274
302
328
338
309
239
150
57
-35
-112
-163
-190
-203
-209
-214
-214
-208
-200
-193
-185
-178
-173
-168
-161
-153
-146
-141
-137
-134
-132
-131
-131
-130
-127
-126
-125
-123
-119
-114
-110
-108
-106
-102
-96
-90
-89
-98
-104
-87
-40
11
29
0
-47
-67
-66
-72
-73
-65
-74
-73
-51
-72
-113
-199
-296
334
2033
2967
1544
-425
-700
-103
-53
-210
-148
-135
-180
-143
-118
-128
-110
-92
-89
-71
-51
-40
-21
4
27
53
84
116
149
191
238
278
308
330
342
326
269
180
85
-8
-98
-167
-197
-205
-216
-232
-241
-234
-214
-196
-187
-181
-175
-169
-166
-160
-150
-140
-136
-131
-124
-129
-137
-131
-122
-124
-125
-121
-123
-119
-111
-111
-112
-111
-121
-130
-118
-82
-25
16
-8
-62
-77
-74
-96
-99
-65
-64
-94
-78
-61
-92
-146
-283
-122
1162
2788
2467
339
-851
-394
1
-172
-210
-128
-174
-189
-138
-128
-120
-96
-96
-89
-47
-21
-27
-9
29
46
64
110
151
178
221
265
292
330
369
356
296
225
137
32
-66
-139
-186
-207
-211
-212
-217
-224
-222
-206
-193
-192
-189
-174
-161
-157
-155
-148
-141
-140
-136
-130
-130
-132
-129
-123
-121
-124
-125
-114
-102
-112
-130
-120
-73
-21
-1
-24
-63
-84
-84
-87
-88
-81
-88
-86
-58
-73
-119
-163
-223
243
1749
2860
1724
-377
-921
-260
-37
-192
-149
-103
-150
-127
-96
-107
-95
-72
-70
-58
-35
-17
3
25
42
67
105
142
178
224
274
310
335
364
386
369
300
200
96
-7
-100
-166
-207
-228
-237
-241
-242
-240
-232
-221
-211
-207
-201
-185
-171
-168
-164
-157
-158
-156
-148
-148
-149
-142
-139
-143
-143
-138
-137
-131
-121
-125
-140
-139
-106
-52
-11
-12
-48
-82
-92
-93
-94
-80
-78
-96
-83
-68
-109
-149
-235
-159
899
2596
2700
715
-776
-499
-11
-141
-222
-136
-164
-185
-139
-135
-137
-113
-102
-91
-71
-58
-42
-19
3
25
54
84
119
160
197
231
267
298
321
331
301
227
133
40
-47
-120
-168
-196
-210
-215
-214
-208
-200
-193
-184
-174
-164
-156
-150
-145
-141
-138
-135
-133
-132
-131
-128
-123
-120
-119
-118
-115
-107
-98
-102
-114
-113
-83
-34
10
17
-19
-62
-75
-73
-76
-68
-64
-82
-74
-59
-94
-122
-199
-200
707
2424
2782
922
-734
-589
-38
-112
-212
-122
-139
-167
-117
-110
-121
-87
-65
-69
-57
-36
-26
-13
10
33
56
87
116
141
175
217
246
266
291
306
281
214
126
24
-68
-132
-188
-248
-271
-257
-257
-272
-265
-237
-214
-197
-182
-167
-151
-141
-139
-134
-122
-117
-121
-119
-109
-102
-104
-104
-96
-94
-107
-120
-119
-98
-59
-14
1
-37
-92
-114
-115
-122
-121
-117
-128
-119
-103
-127
-139
-205
-271
393
1898
2474
1053
-560
-685
-163
-70
-150
-111
-106
-123
-94
-80
-77
-57
-41
-33
-15
4
16
33
55
74
93
120
153
187
220
253
282
302
320
335
326
272
184
85
-7
-88
-149
-191
-214
-223
-227
-225
-217
-207
-196
-185
-174
-166
-158
-155
-154
-147
-136
-134
-140
-139
-135
-135
-135
-135
-142
-146
-127
-84
-38
-19
-49
-104
-129
-122
-124
-129
-122
-129
-129
-106
-120
-140
-171
-244
271
1808
2741
1388
-680
-1070
-346
-76
-170
-130
-105
-136
-109
-88
-93
-71
-48
-39
-22
-2
13
35
60
84
112
147
182
220
262
302
335
363
386
396
373
303
204
97
-8
-102
-170
-209
-230
-240
-243
-240
-231
-220
-210
-198
-188
-180
-169
-157
-152
-151
-146
-142
-144
-146
-144
-145
-155
-167
-165
-138
-91
-52
-56
-98
-138
-146
-145
-148
-136
-131
-146
-128
-108
-144
-187
-280
-169
973
2683
2673
611
-815
-477
-19
-179
-249
-158
-192
-205
-156
-156
-157
-127
-116
-110
-91
-75
-59
-37
-16
5
33
64
99
138
176
210
240
266
289
291
254
179
89
1
-80
-144
-186
-207
-216
-217
-214
-206
-197
-187
-179
-171
-163
-156
-152
-149
-143
-136
-132
-131
-124
-115
-118
-128
-130
-113
-75
-24
9
-9
-59
-93
-94
-96
-100
-89
-92
-102
-78
-76
-120
-179
-303
-20
1427
2935
2274
92
-849
-304
-8
-193
-195
-133
-179
-171
-131
-137
-128
-105
-99
-88
-68
-53
-37
-14
9
34
62
95
133
171
208
242
271
296
316
308
255
171
77
-16
-100
-163
-200
-217
-223
-225
-222
-216
-212
-207
-199
-191
-185
-179
-172
-166
-161
-157
-155
-153
-150
-148
-147
-139
-131
-134
-143
-144
-131
-97
-44
-8
-24
-72
-104
-103
-104
-110
-104
-109
-120
-95
-94
-138
-179
-292
-61
1312
2846
2272
75
-950
-401
-25
-172
-184
-124
-168
-159
-117
-123
-115
-91
-84
-71
-49
-33
-15
9
32
56
88
122
159
199
239
274
304
332
356
356
307
220
122
24
-69
-142
-186
-210
-223
-227
-225
-218
-208
-198
-190
-181
-169
-159
-154
-149
-142
-137
-136
-132
-128
-127
-126
-124
-124
-123
-117
-110
-114
-130
-133
-103
-49
-5
3
-29
-73
-88
-85
-89
-84
-74
-88
-82
-56
-82
-125
-211
-239
586
2343
2944
1196
-631
-623
-29
-75
-211
-130
-137
-172
-127
-117
-126
-100
-85
-79
-62
-52
-42
-13
14
28
44
64
91
134
179
203
221
253
281
279
247
194
118
21
-64
-111
-149
-211
-246
-232
-228
-253
-264
-261
-254
-230
-209
-210
-212
-193
-166
-154
-158
-160
-155
-151
-147
-142
-133
-123
-119
-111
-103
-119
-143
-131
-91
-47
3
21
-30
-87
-91
-90
-106
-100
-97
-111
-96
-98
-133
-153
-245
-119
921
2224
1991
387
-538
-290
-33
-129
-167
-125
-126
-119
-102
-98
-84
-64
-53
-43
-29
-10
6
19
43
74
102
143
184
178
156
190
248
256
236
237
231
183
110
37
-34
-94
-134
-156
-170
-180
-181
-175
-165
-152
-139
-130
-119
-104
-95
-83
-69
-73
-93
-95
-81
-81
-95
-100
-95
-94
-97
-105
-111
-95
-45
2
10
-22
-67
-91
-92
-94
-91
-78
-78
-81
-79
-87
-90
-169
-283
203
1463
2076
1030
-345
-592
-210
-75
-95
-61
-54
-63
-39
-19
-9
1
11
22
31
45
67
61
37
61
113
124
116
138
184
224
247
266
284
282
259
228
174
104
37
-32
-88
-102
-114
-161
-196
-193
-188
-192
-187
-178
-174
-171
-166
-168
-173
-171
-169
-169
-162
-154
-155
-157
-146
-118
-104
-137
-163
-117
-57
-61
-97
-131
-177
-207
-198
-192
-206
-216
-213
-199
-203
-218
-221
-314
-300
491
1776
1932
566
-600
-551
-152
-134
-242
-220
-161
-152
-166
-157
-128
-104
-81
-52
-31
-13
19
59
96
139
175
198
234
243
211
237
298
263
269
436
473
239
51
37
0
-80
-109
-126
-150
-146
-147
-154
-123
-91
-99
-98
-75
-82
-70
23
43
-70
-54
65
-62
-228
-28
