# session 0
43
304
625
1350
1665
670
-455
-415
51
96
59
150
168
151
173
178
175
165
123
122
187
213
186
208
262
252
215
231
269
287
319
356
347
343
400
443
447
490
539
516
485
469
386
268
194
129
41
-30
-82
-115
-114
-129
-180
-189
-154
-160
-183
-159
-142
-164
-160
-137
-155
-179
-166
-161
-177
-180
-180
-169
-133
-124
-168
-201
-189
-168
-159
-149
-139
-136
-137
-140
-145
-150
-152
-158
-151
-129
-129
-151
-150
-136
-139
-140
-129
-131
-131
-113
-118
-159
-170
-131
-103
-119
-137
-126
-111
-107
-101
-93
-103
-120
-120
-108
-103
-103
-98
-87
-81
-92
-111
-108
-79
-74
-100
-88
-51
-68
-61
50
84
-60
-158
-102
-39
-8
29
11
-48
-38
14
2
-45
-29
13
7
51
136
39
-120
-38
198
710
1623
1838
594
-617
-510
-3
37
-16
39
48
78
133
102
40
39
76
101
96
83
81
89
124
164
154
145
206
241
211
254
320
249
179
261
349
375
401
375
306
296
275
179
114
94
17
-90
-168
-236
-260
-207
-189
-232
-217
-168
-188
-234
-243
-221
-195
-196
-157
-54
-88
-270
-275
-118
-113
-186
-145
-142
-238
-245
-170
-168
-219
-211
-164
-184
-239
-186
-77
-93
-192
-185
-79
-56
-145
-201
-185
-140
-67
-33
-95
-145
-130
-109
-85
-95
-154
-128
-9
26
-41
-98
-119
-113
-101
-109
-85
-24
-23
-77
-74
-10
-12
-128
-172
1
366
975
1494
1057
-164
-787
-485
-146
-45
63
93
22
36
127
164
151
170
204
173
119
142
181
159
157
218
244
210
185
191
217
267
307
303
288
302
323
320
312
311
290
232
157
84
20
-27
-75
-140
-188
-189
-170
-161
-157
-168
-185
-160
-128
-154
-163
-98
-75
-142
-173
-137
-112
-105
-102
-120
-133
-120
-116
-136
-156
-152
-124
-107
-126
-149
-140
-130
-146
-143
-111
-100
-112
-113
-120
-131
-106
-84
-128
-168
-137
-97
-100
-117
-124
-111
-72
-44
-53
-75
-90
-96
-84
-75
-83
-72
-43
-55
-87
-64
-24
-46
-103
-98
-32
-8
-49
-50
-7
-18
-69
-85
-68
-15
16
-51
-75
81
440
1105
1584
914
-414
-862
-432
-149
-80
38
39
-6
79
144
124
126
139
122
119
155
201
205
163
160
233
281
231
184
232
300
320
329
335
332
363
377
313
299
383
373
259
209
163
24
-68
-67
-97
-149
-148
-125
-123
-151
-184
-169
-120
-109
-127
-126
-121
-106
-83
-101
-125
-94
-90
-153
-177
-156
-162
-169
-163
-178
-190
-187
-192
-196
-185
-177
-184
-190
-171
-146
-156
-181
-180
-162
-152
-162
-176
-163
-143
-159
-186
-182
-163
-139
-127
-155
-192
-179
-143
-162
-224
-230
-187
-198
-223
-165
-155
-232
-186
11
457
1285
1578
429
-927
-957
-341
-161
-158
-37
-7
-42
-14
22
40
55
64
87
112
110
111
141
184
221
228
210
225
273
298
320
370
389
372
389
438
476
490
456
389
344
287
179
93
55
-16
-102
-126
-125
-149
-157
-135
-112
-89
-76
-88
-79
-41
-42
-71
-55
-11
-2
-46
-121
-137
-32
31
-71
-161
-125
-105
-151
-157
-100
-38
-34
-103
-159
-144
-106
-92
-115
-149
-128
-96
-136
-171
-151
-147
-136
-85
-81
-103
-62
-33
-67
-65
-42
-84
-120
-103
-104
-103
-62
-81
-121
-75
-89
-165
-64
165
533
1180
1354
374
-666
-625
-166
-72
-71
17
12
-36
-18
26
53
41
-1
-13
21
56
64
55
55
80
118
135
124
121
149
194
227
230
225
270
358
394
361
351
367
324
226
147
79
-10
-78
-100
-128
-187
-240
-253
-231
-217
-239
-244
-205
-193
-218
-199
-153
-154
-175
-170
-158
-162
-179
-191
-173
-151
-170
-196
-186
-172
-179
-173
-142
-117
-100
-53
9
13
-13
7
-5
-115
-177
-132
-128
-168
-135
-98
-147
-183
-152
-125
-76
-48
-174
-272
-152
134
858
1849
1712
191
-819
-537
-173
-216
-147
47
84
-36
-141
-120
-65
-76
-66
-7
35
78
100
50
15
54
88
98
136
182
195
186
197
247
285
286
312
371
392
370
346
294
185
69
-10
-65
-103
-117
-129
-165
-196
-189
-171
-161
-131
-100
-112
-123
-96
-99
-130
-111
-71
-74
-92
-102
-125
-146
-134
-97
-63
-71
-135
-175
-152
-134
-138
-127
-139
-161
-101
-16
-39
-124
-145
-95
-58
-71
-78
-62
-89
-119
-75
-32
-39
-76
-145
-136
-33
142
830
1863
1767
291
-689
-426
-86
-147
-154
-88
-108
-95
-20
24
25
-3
-50
-43
34
73
36
15
59
112
113
86
113
176
195
200
216
198
191
264
345
358
342
338
323
259
145
24
-40
-47
-77
-150
-202
-209
-198
-179
-171
-181
-183
-178
-184
-181
-170
-181
-210
-213
-188
-180
-196
-192
-180
-190
-188
-176
-204
-224
-203
-230
-275
-232
-207
-276
-272
-180
-164
-167
-108
-118
-199
-194
-130
-126
-159
-156
-128
-111
-122
-124
-79
-77
-178
-193
-55
146
706
1513
1347
11
-799
-427
-42
-101
-89
14
3
-18
-4
9
42
65
67
90
99
89
124
172
165
151
163
165
172
199
211
219
254
296
332
364
363
356
394
439
426
342
210
110
100
79
-35
-119
-85
-60
-114
-133
-91
-85
-116
-125
-114
-104
-109
-134
-153
-142
-119
-112
-136
-182
-196
-153
-126
-157
-170
-138
-115
-97
-84
-125
-167
-147
-113
-96
-78
-60
-42
-48
-95
-118
-92
-81
-88
-89
-96
-86
-62
-58
-35
-13
-79
-125
-56
149
779
1592
1391
91
-716
-459
-140
-156
-149
-116
-137
-112
-64
-47
-30
-13
4
41
62
56
59
73
88
110
113
89
80
106
139
161
180
202
227
246
250
248
259
268
241
180
107
38
-13
-45
-68
-87
-100
-128
-180
-219
-211
-166
-112
-84
-94
-111
-145
-218
-244
-197
-214
-291
-257
-203
-291
-311
-144
-115
-286
-324
-258
-328
-384
-292
-227
-219
-160
-130
-176
-203
-216
-245
-218
-155
-169
-212
-175
-128
-121
-64
-24
-92
-91
75
476
1318
1889
1049
-382
-672
-150
-14
-109
-27
17
0
39
39
23
67
90
79
93
116
126
126
103
102
146
181
192
203
206
217
245
245
227
248
283
298
323
347
325
272
221
171
111
42
-10
-17
-1
-11
-41
-62
-81
-90
-62
-36
-58
-74
-47
-42
-74
-90
-85
-79
-85
-110
-121
-97
-100
-153
-174
-142
-137
-171
-181
-151
-119
-100
-84
-72
-79
-99
-108
-122
-155
-178
-174
-161
-151
-179
-241
-226
-163
-205
-246
-148
75
660
1409
1177
-122
-885
-531
-134
-135
-128
-70
-72
-48
-33
-73
-63
11
53
53
73
118
138
121
124
164
199
209
196
181
217
279
277
237
251
273
242
221
239
235
197
153
99
32
-26
-70
-108
-140
-161
-168
-170
-178
-191
-207
-219
-224
-223
-223
-231
-234
-224
-236
-275
-283
-258
-263
-290
-285
-256
-245
-250
-251
-236
-208
-174
-145
-123
-100
-91
-112
-131
-112
-88
-92
-96
-90
-82
-71
-66
-52
-26
-64
-118
-57
110
595
1469
1701
586
-554
-515
-72
-25
-56
13
17
18
56
54
43
54
51
52
78
97
104
122
141
151
174
207
214
209
229
256
259
267
298
313
300
303
322
320
298
269
217
146
88
38
-20
-68
-94
-113
-128
-129
-122
-119
-123
-125
-127
-129
-124
-118
-122
-126
-125
-138
-159
-165
-166
-175
-178
-168
-166
-176
-184
-179
-160
-127
-93
-96
-136
-156
-147
-148
-161
-165
-167
-159
-151
-167
-154
-125
-181
-219
-114
156
859
1700
1366
-171
-1018
-571
-117
-129
-106
-39
-66
-47
1
-6
-4
25
37
44
66
81
79
85
114
135
125
121
148
166
155
150
159
165
168
164
161
178
185
148
108
88
48
-16
-75
-128
-177
-206
-208
-200
-214
-250
-256
-213
-187
-207
-230
-228
-203
-179
-187
-210
-217
-227
-250
-249
-237
-248
-240
-191
-174
-217
-236
-189
-142
-142
-161
-167
-160
-163
-183
-186
-143
-104
-117
-113
-76
-109
-144
-61
172
858
1813
1699
238
-744
-424
8
30
113
210
167
180
220
191
207
252
228
199
222
239
234
244
272
290
296
308
322
329
331
316
269
229
237
260
256
242
246
250
217
154
103
74
39
-12
-56
-78
-81
-85
-109
-142
-155
-159
-180
-200
-198
-193
-198
-210
-220
-227
-238
-253
-261
-254
-255
-269
-262
-244
-258
-278
-271
-275
-271
-209
-163
-196
-231
-212
-170
-146
-178
-225
-189
-148
-198
-176
-55
-70
-172
-212
-116
599
1718
1563
-105
-1081
-582
-103
-162
-130
-48
-131
-132
-17
4
-39
-15
28
5
-23
13
51
40
31
61
88
80
71
99
129
118
90
87
97
88
73
98
143
117
62
103
148
43
-65
8
145
157
45
-52
-58
-89
-172
-97
98
56
-177
-168
25
-18
-164
-57
31
-140
-174
-9
-97
-286
-144
55
-50
-244
-267
-173
-77
-12
19
-21
-100
-88
-9
0
-25
-3
0
-4
42
32
-34
1
116
490
1365
1827
882
-370
-444
43
60
-81
-3
41
-36
-76
-39
13
19
3
4
-23
-34
44
77
21
38
92
53
13
39
53
66
96
78
46
76
103
83
90
118
102
76
74
58
34
17
-16
-45
-35
-33
-74
-100
-73
-54
-79
-110
-126
-149
-168
-153
-126
-122
-115
-88
-94
-139
-161
-153
-159
-171
-147
-90
-58
-81
-115
-127
-149
-178
-162
-128
-139
-158
-148
-163
-173
-132
-149
-220
-175
-14
392
1142
1348
274
-897
-883
-334
-160
-171
-145
-169
-169
-121
-112
-107
-71
-57
-63
-53
-19
42
87
74
44
49
79
109
119
125
148
154
140
169
204
180
159
183
204
200
182
164
161
134
78
58
68
50
34
32
3
-31
-45
-57
-56
-45
-57
-71
-66
-70
-83
-81
-86
-119
-158
-168
-153
-127
-86
-56
-74
-111
-108
-91
-102
-110
-91
-81
-92
-112
-112
-66
-47
-130
-178
-100
150
881
1744
1445
30
-747
-406
-79
-101
-62
-20
-70
-61
-17
-9
3
21
28
46
60
56
75
127
161
148
135
161
175
146
135
157
154
132
129
122
109
127
152
143
123
101
64
30
17
-3
-50
-83
-64
-40
-63
-102
-120
-128
-124
-103
-98
-114
-135
-165
-177
-153
-161
-222
-234
-173
-140
-150
-138
-129
-169
-201
-181
-160
-172
-185
-173
-161
-168
-158
-132
-179
-252
-202
-16
438
1175
1308
217
-907
-877
-369
-227
-213
-126
-114
-126
-102
-97
-78
-49
-62
-79
-58
-17
36
62
42
43
89
115
111
117
143
176
194
196
204
194
158
149
163
165
179
196
152
75
51
74
67
9
-29
-8
21
10
-13
-13
-13
-39
-50
-16
-2
-50
-94
-94
-85
-89
-108
-121
-93
-56
-54
-70
-85
-104
-120
-133
-133
-104
-78
-85
-115
-125
-74
-45
-103
-106
24
375
1092
1523
764
-442
-694
-250
-49
-58
-7
1
-19
10
22
13
40
75
82
81
86
90
95
109
124
128
130
145
151
127
118
148
155
126
117
129
136
142
129
89
66
54
16
-18
-24
-29
-44
-73
-115
-127
-111
-132
-177
-164
-116
-109
-125
-119
-122
-166
-213
-231
-250
-262
-220
-177
-205
-225
-173
-140
-183
-227
-220
-207
-196
-156
-142
-169
-150
-135
-205
-198
-25
288
855
1253
628
-552
-891
-412
-130
-146
-70
4
-44
-76
-41
-9
1
2
12
46
71
59
69
112
109
83
119
146
91
57
97
124
113
119
132
125
132
157
157
141
137
122
92
69
28
-12
18
70
48
4
5
5
-15
-16
-17
-33
-24
-6
-29
-67
-72
-66
-74
-90
-109
-109
-72
-33
-34
-52
-60
-71
-72
-58
-55
-59
-63
-79
-70
-56
-112
-141
-58
157
746
1440
1151
-104
-800
-460
-78
-70
-94
-51
-17
-27
-88
-80
21
28
-68
-66
38
90
52
-6
-15
33
64
73
141
206
150
77
94
111
113
165
183
130
130
169
124
30
-21
-35
-41
-54
-79
-96
-105
-108
-93
-95
-110
-72
-49
-138
-202
-157
-148
-187
-167
-157
-202
-200
-148
-124
-110
-96
-113
-143
-159
-177
-186
-152
-103
-113
-155
-131
-94
-159
-214
-139
101
695
1319
943
-309
-916
-506
-120
-104
-77
-23
-40
-44
-38
-46
-24
30
87
122
102
55
53
91
98
78
96
146
162
135
119
147
179
159
121
129
164
181
179
149
91
46
18
-15
-28
-25
-79
-157
-133
-54
-63
-132
-167
-186
-191
-151
-112
-132
-176
-188
-173
-171
-200
-221
-174
-81
-35
-66
-104
-111
-120
-134
-119
-90
-90
-119
-129
-75
-9
-38
-92
-22
152
562
1254
1393
412
-555
-477
-42
24
0
63
59
52
96
86
51
72
101
104
130
153
134
132
160
161
165
202
203
178
211
260
250
207
188
227
271
223
152
175
206
147
65
8
-39
-75
-91
-80
-70
-105
-125
-78
-61
-107
-118
-104
-128
-143
-131
-139
-148
-149
-174
-196
-207
-229
-214
-153
-120
-108
-96
-146
-207
-167
-120
-189
-228
-170
-215
-323
-259
-173
-251
-272
-86
369
1100
1338
428
-623
-672
-269
-193
-223
-156
-170
-223
-178
-101
-83
-138
-203
-160
-37
13
7
8
-63
-123
-19
75
9
-7
92
94
23
56
132
125
76
54
66
92
85
12
-62
-65
-50
-93
-145
-132
-89
-90
-120
-95
-33
-50
-101
-71
-43
-93
-85
13
35
-37
-59
10
85
99
53
6
23
72
100
129
162
138
110
158
210
209
210
202
184
249
354
354
293
288
420
892
1531
1454
408
-340
50
