# session 6
-15
-58
51
-69
-432
-474
-188
-78
-120
-54
-34
-125
-100
18
56
74
110
78
63
186
315
312
261
239
235
294
390
374
253
165
112
53
42
65
65
69
66
9
-13
94
210
194
136
168
242
238
133
60
138
253
219
44
-80
-6
112
220
791
1599
1272
-183
-928
-496
-127
-164
-109
-5
-37
-88
-118
-152
-134
-61
-18
-40
-58
-17
53
102
118
108
84
40
-14
15
103
-4
-331
-490
-369
-309
-382
-364
-332
-440
-496
-372
-275
-346
-465
-486
-400
-280
-136
33
65
-136
-317
-308
-287
-330
-353
-170
638
1651
1356
-248
-1156
-728
-226
-151
-117
-130
-207
-166
-97
-100
-68
-2
7
37
145
225
253
339
417
357
290
341
326
172
129
225
200
70
55
98
56
64
230
329
209
120
240
325
194
28
-13
-10
-27
-13
16
7
7
9
-68
-169
-199
-27
559
1107
643
-511
-966
-577
-266
-224
-162
-131
-165
-137
-79
-86
-108
-81
-34
-6
-23
-75
-31
123
115
-105
-155
49
99
-68
-107
-38
-88
-143
-132
-218
-325
-266
-167
-173
-177
-116
-77
-73
-67
-98
-163
-178
-139
-107
-129
-189
-193
-145
-149
-163
-120
147
959
1698
1062
-436
-929
-357
-5
15
181
281
160
128
255
333
364
429
431
354
345
404
452
527
585
486
307
230
217
141
79
123
131
31
-43
-92
-181
-185
-107
-144
-234
-190
-132
-197
-242
-198
-205
-248
-222
-237
-356
-384
-304
-335
-419
-386
-267
181
1016
1104
-182
-1290
-996
-341
-291
-393
-318
-277
-263
-178
-99
-58
11
98
106
41
23
71
101
124
192
237
189
123
107
83
22
-18
-17
-17
-51
-115
-177
-208
-189
-130
-75
-68
-80
-54
6
53
50
9
-23
-39
-61
-48
-21
-59
-64
0
102
709
1782
1820
351
-718
-410
37
-7
-33
3
-36
25
125
116
104
117
94
123
214
232
185
207
265
233
149
123
124
84
20
-41
-111
-241
-421
-434
-230
-211
-504
-592
-298
-176
-428
-523
-251
-86
-249
-417
-455
-488
-438
-252
-178
-284
-308
-223
47
950
1915
1410
-202
-881
-416
-126
-180
-162
-228
-312
-166
-26
-49
-72
-93
-91
76
264
297
289
299
243
203
264
300
244
222
233
148
32
22
37
-17
-54
-3
65
55
-25
-78
-53
9
61
66
6
-1
113
145
15
-18
106
148
58
-10
214
967
1598
1041
-234
-792
-514
-202
-91
-68
-33
83
99
-64
-154
-104
-69
-61
-50
-42
9
84
94
37
-6
-7
-24
-40
10
-2
-182
-306
-268
-309
-450
-483
-449
-435
-354
-243
-244
-273
-181
-88
-167
-308
-340
-260
-109
-13
-151
-391
-384
-199
-247
-189
757
1753
1108
-484
-965
-437
-168
-168
-84
-62
-61
22
51
42
101
173
202
212
251
361
444
381
284
294
348
393
439
408
284
187
128
36
-31
21
122
122
24
-4
77
151
165
97
-51
-112
-16
33
-38
-91
-73
-8
18
-117
-312
-317
63
769
1020
140
-971
-1075
-537
-239
-175
-130
-128
-119
-85
-97
-94
-15
22
-73
-143
-34
95
64
28
101
65
-116
-172
-104
-94
-113
-152
-239
-230
-148
-154
-129
-26
-69
-207
-175
-37
-13
-58
-14
58
-14
-166
-209
-156
-96
-17
39
3
-44
-18
170
705
1210
774
-398
-940
-543
-138
-49
42
93
28
88
259
250
123
156
264
271
352
585
681
516
346
336
378
375
336
272
219
193
122
24
-7
-11
-53
-66
-43
-60
-54
44
76
-50
-175
-212
-206
-195
-250
-363
-377
-271
-213
-248
-286
-297
-59
672
1130
263
-1074
-1228
-579
-343
-341
-162
-95
-127
-80
-106
-158
-97
-55
-7
146
182
11
-108
-39
116
217
161
-2
-117
-128
-95
-54
5
5
-163
-358
-342
-187
-89
-55
-52
-60
-23
21
-5
-47
-45
-43
-56
-62
-47
1
4
-68
-71
-44
4
650
1737
1658
168
-749
-385
-25
-89
-16
158
183
137
88
96
217
314
281
205
127
64
143
330
417
402
385
323
232
189
123
3
-69
-96
-138
-150
-132
-155
-185
-174
-169
-172
-157
-172
-226
-255
-284
-343
-346
-309
-357
-360
-162
-70
-369
-716
-495
460
1279
785
-567
-1156
-757
-363
-274
-262
-250
-141
-9
-69
-189
-139
1
99
150
152
138
153
159
151
199
263
232
150
126
130
95
42
-4
-42
-62
-90
-137
-151
-110
-25
80
114
86
132
160
31
-18
122
149
80
127
87
-57
-29
92
553
1677
2146
843
-563
-507
-27
-49
-68
54
13
-67
-32
23
29
21
56
81
29
14
68
51
6
35
4
-134
-189
-111
-67
-138
-231
-279
-313
-325
-278
-248
-273
-275
-284
-356
-362
-285
-299
-353
-289
-224
-262
-285
-241
-209
-280
-414
-416
-265
44
799
1535
1040
-331
-881
-507
-319
-339
-170
-89
-183
-158
-42
5
36
93
116
91
83
163
297
350
300
271
258
170
112
180
202
100
49
80
57
-28
-72
-13
66
29
-18
112
262
218
135
168
225
271
321
267
105
-6
-24
-19
-49
-42
442
1399
1538
241
-896
-737
-256
-185
-136
-54
-116
-133
-56
-41
-77
-89
-80
-47
5
47
62
51
19
-15
-11
25
-7
-100
-123
-109
-180
-260
-267
-245
-235
-311
-436
-350
-117
-114
-228
-119
19
-65
-199
-223
-136
-43
-144
-305
-248
-205
-330
-317
-100
433
1328
1434
88
-1027
-706
-119
-122
-182
-96
-79
-47
30
70
91
73
45
114
189
174
208
286
240
156
146
118
72
79
114
204
295
246
151
99
-43
-180
-94
60
95
93
89
68
127
230
187
25
-44
18
78
82
48
-12
-70
-106
47
579
956
363
-683
-959
-523
-220
-162
-89
-43
-77
-96
-58
-16
-17
-31
0
54
60
16
17
91
106
-4
-125
-149
-86
-26
-49
-121
-155
-170
-195
-176
-126
-159
-227
-182
-116
-166
-165
-18
23
-152
-295
-274
-214
-190
-142
-56
-43
-131
-199
-193
99
905
1400
531
-803
-1018
-450
-147
-48
102
134
87
113
171
232
307
357
389
430
456
443
410
412
438
376
234
198
269
243
122
70
83
79
81
85
21
-44
0
50
-20
-84
-30
19
-25
-84
-135
-197
-230
-223
-188
-163
-209
-288
-322
-125
525
1012
324
-911
-1157
-561
-219
-186
-134
-154
-179
-49
30
-81
-132
-17
37
9
85
204
159
-47
-154
11
142
-81
-291
-130
-6
-180
-254
-98
-43
-129
-165
-159
-156
-128
-87
-18
73
64
-44
-104
-130
-163
-112
-66
-158
-217
-172
-186
-208
-156
104
955
1817
1278
-223
-765
-239
47
-55
3
120
73
40
140
246
298
317
290
288
337
308
238
270
291
209
173
220
231
206
181
130
69
28
-22
-95
-141
-130
-92
-54
-23
-23
-66
-113
-140
-168
-197
-211
-248
-323
-333
-258
-262
-328
-264
-109
203
834
1053
84
-1111
-1234
-729
-447
-225
10
-118
-371
-263
-35
-35
-77
-44
-53
-8
136
158
74
117
194
121
32
37
35
19
48
38
-54
-118
-110
-102
-108
-84
-45
-36
-23
18
23
-7
-2
-5
-49
-43
6
30
72
84
3
-24
53
374
1284
2012
1189
-390
-794
-247
-47
-151
-48
147
209
131
57
93
120
81
103
158
157
174
235
243
179
103
50
2
-61
-100
-92
-102
-154
-187
-198
-232
-256
-225
-189
-206
-225
-206
-204
-195
-119
-115
-264
-352
-316
-323
-320
-282
-365
-455
-402
-124
807
1871
1356
-442
-1187
-599
-241
-292
-158
-56
-153
-183
-117
-83
-55
4
46
60
124
213
212
168
165
114
14
18
86
53
-31
-61
-76
-103
-106
-98
-105
-117
-118
-93
-22
70
100
67
79
102
36
22
119
106
14
39
77
47
-9
-25
523
1681
1934
613
-522
-404
-68
-77
-52
-37
-74
30
76
-68
-108
23
94
81
102
140
122
77
76
94
62
-4
-34
-26
-40
-110
-192
-244
-297
-353
-336
-262
-237
-270
-307
-305
-226
-134
-147
-206
-179
-150
-249
-359
-323
-258
-297
-286
-236
-306
80
1296
1828
549
-817
-747
-290
-317
-273
-57
-38
-77
-25
-4
-16
10
44
71
107
147
174
183
183
184
170
113
37
18
74
110
38
-55
-20
77
47
-55
-21
82
41
-47
13
113
107
75
82
88
83
66
32
-6
-40
-73
-153
-125
524
1515
1388
-37
-911
-516
-88
-145
-152
-73
-112
-125
-45
46
129
156
117
114
173
227
243
218
162
119
89
42
4
-7
-31
-71
-100
-126
-142
-141
-148
-135
-87
-104
-187
-194
-159
-193
-210
-201
-287
-352
-263
-207
-267
-297
-300
-321
-339
-307
152
1022
1088
-155
-1135
-851
-302
-204
-186
-127
-159
-161
-108
-100
-90
-42
-10
12
65
123
145
151
162
154
107
53
33
49
62
36
-1
-8
-11
-30
-33
-7
23
50
67
80
106
127
121
110
106
110
105
70
65
110
94
17
-58
-82
420
1527
1811
500
-706
-547
-45
6
13
82
52
56
98
83
92
136
137
144
197
228
217
210
202
148
74
32
9
-15
-25
-37
-73
-102
-105
-104
-109
-114
-109
-91
-85
-107
-127
-125
-116
-126
-166
-195
-201
-211
-193
-176
-259
-337
-311
-256
181
1107
1245
-48
-1112
-822
-262
-195
-174
-90
-123
-117
-44
-45
-56
-2
55
89
111
117
125
143
119
33
-60
-107
-118
-131
-160
-179
-169
-164
-186
-200
-189
-183
-169
-129
-117
-141
-138
-123
-121
-106
-110
-150
-149
-106
-95
-125
-171
-183
-190
-199
249
1230
1441
235
-801
-579
-100
-57
-19
92
67
51
104
103
94
160
229
235
238
291
326
271
173
107
66
6
-42
-24
21
14
-22
-13
33
64
53
20
22
58
52
3
-9
18
28
22
7
-9
-21
-52
-63
-29
-62
-170
-265
-323
75
1174
1710
634
-621
-560
-39
-7
-36
98
96
31
75
130
132
144
189
235
249
237
218
188
150
109
40
-40
-74
-78
-105
-124
-96
-73
-100
-122
-108
-112
-145
-159
-177
-223
-224
-166
-158
-219
-239
-212
-238
-295
-270
-201
-244
-376
-447
-440
-181
530
948
192
-879
-916
-343
-144
-189
-126
-77
-77
-49
-36
-23
53
126
126
118
151
173
149
114
89
61
22
-9
1
35
35
1
-9
12
23
15
4
-8
-26
-45
-46
-26
-15
-21
-24
-41
-77
-83
-74
-91
-81
-54
-95
-174
-250
-143
565
1444
1168
-130
-752
-344
-8
-19
27
82
53
67
101
111
149
197
217
231
242
240
235
214
165
106
50
8
0
9
3
4
17
9
-18
-37
-57
-84
-96
-108
-134
-138
-118
-103
-88
-80
-98
-100
-73
-58
-43
-38
-91
-159
-236
-144
608
1521
1112
-360
-944
-400
-49
-87
-16
40
-13
18
75
59
61
118
164
172
171
183
182
138
79
26
-43
-112
-131
-104
-63
-35
-38
-53
-46
-27
-45
-106
-126
-79
-66
-116
-137
-129
-158
-187
-174
-144
-105
-87
-117
-162
-215
-281
-360
-382
46
927
1096
3
-922
-683
-177
-80
-57
-18
-70
-56
26
39
41
96
143
165
178
174
158
136
78
-1
-51
-81
-109
-100
-56
-30
-19
-4
-6
-22
-30
-62
-125
-142
-95
-61
-60
-54
-56
-80
-101
-115
-126
-117
-88
-66
-87
-156
-228
-308
-265
358
1354
1429
294
-541
-345
-18
-20
-6
54
40
43
72
80
110
148
159
174
197
195
174
152
120
61
-17
-77
-91
-72
-46
-29
-30
-43
-49
-47
-64
-98
-112
-110
-124
-131
-96
-69
-74
-65
-62
-88
-91
-88
-110
-113
-115
-152
-228
-312
62
1170
1762
716
-591
-590
-74
-33
-74
30
31
9
45
51
91
161
149
128
181
211
165
108
51
-26
-95
-138
-167
-159
-102
-55
-48
-42
-38
-57
-64
-53
-81
-124
-121
-105
-115
-133
-140
-120
-87
-84
-87
-76
-86
-89
-70
-103
-213
-371
-238
655
1575
1091
-269
-702
-225
2
-58
1
49
18
25
36
36
71
113
135
154
160
137
95
37
-37
-110
-167
-216
-236
-195
-117
-63
-54
-61
-50
-24
-21
-54
-90
-112
-133
-153
-161
-161
-150
-133
-136
-143
-134
-142
-152
-127
-134
-221
-357
-365
198
1155
1168
-127
-1036
-642
-81
-46
-49
43
30
24
80
102
123
175
199
207
239
260
235
180
107
25
-46
-97
-116
-86
-25
21
36
33
24
17
11
-17
-63
-76
-62
-77
-103
-103
-105
-119
-116
-116
-124
-122
-133
-139
-107
-111
-185
-277
-306
88
913
1022
-129
-1035
-667
-56
31
39
130
112
107
187
231
240
261
279
296
315
323
314
281
211
117
32
-22
-42
-27
15
45
42
38
56
81
111
135
122
91
73
40
-6
-20
-14
-26
-53
-69
-52
-32
-60
-89
-60
-48
-155
-338
-254
469
1192
696
-578
-940
-310
70
-10
-15
83
118
106
93
136
229
267
251
270
309
293
228
165
103
16
-72
-116
-120
-87
-12
37
2
-41
-9
43
35
-22
-70
-84
-106
-161
-176
-134
-127
-145
-121
-124
-181
-181
-131
-133
-181
-228
-287
-372
-276
340
1016
636
-525
-905
-367
-70
-153
-82
35
-12
-58
-36
-18
13
54
66
80
105
89
31
-21
-70
-139
-207
-254
-274
-240
-156
-102
-108
-99
-74
-109
-162
-147
-115
-132
-175
-222
-243
-209
-168
-163
-178
-196
-192
-160
-141
-125
-115
-170
-281
-374
-196
576
1327
853
-400
-782
-250
58
18
56
105
97
131
169
179
213
271
324
347
333
330
349
329
247
147
65
37
85
154
181
202
246
275
278
271
242
206
178
140
