# session 28
-48
-48
-34
-99
-209
-230
-198
-202
-212
-204
-208
-213
-209
-214
-214
-196
-185
-190
-189
-181
-180
-178
-173
-178
-192
-194
-181
-158
-105
-47
-48
-96
-115
-101
-93
-94
-103
-98
-78
-95
-103
-54
-87
-170
-87
154
753
1798
1985
412
-1128
-1000
-300
-158
-133
2
-15
-54
7
37
37
67
91
104
126
146
167
191
212
237
273
304
327
358
398
429
446
456
461
461
453
425
371
294
202
109
28
-44
-104
-139
-148
-154
-165
-166
-153
-143
-140
-141
-146
-151
-152
-155
-155
-153
-162
-180
-193
-202
-213
-216
-212
-216
-225
-232
-235
-233
-231
-235
-238
-238
-250
-268
-273
-268
-239
-166
-98
-105
-152
-169
-164
-160
-153
-157
-153
-135
-153
-157
-102
-140
-234
-171
23
590
1715
2094
684
-845
-815
-207
-133
-178
-81
-82
-97
-43
-34
-41
-5
21
31
52
73
91
114
137
165
197
223
248
284
320
345
361
377
393
399
388
360
314
246
171
103
34
-33
-80
-103
-118
-124
-121
-120
-121
-115
-109
-109
-105
-98
-100
-107
-109
-111
-116
-121
-124
-129
-137
-143
-146
-152
-160
-163
-166
-174
-181
-183
-186
-198
-210
-205
-184
-154
-107
-73
-91
-126
-134
-128
-117
-115
-139
-142
-113
-126
-131
-89
-143
-211
-95
141
728
1725
1795
214
-1147
-899
-241
-150
-145
-44
-67
-79
-25
-25
-23
29
47
29
38
69
98
119
132
163
217
245
234
251
311
357
371
383
393
386
371
361
333
265
173
83
8
-49
-91
-123
-138
-138
-132
-122
-119
-119
-103
-86
-103
-130
-130
-113
-110
-116
-107
-101
-123
-142
-135
-140
-158
-155
-141
-143
-148
-152
-158
-160
-168
-190
-198
-179
-156
-123
-76
-55
-71
-99
-127
-129
-101
-101
-132
-129
-117
-120
-86
-100
-205
-186
-25
312
1228
2093
1362
-406
-1018
-414
-85
-170
-122
-68
-106
-76
-31
-42
-28
5
5
2
26
54
71
86
104
118
138
176
215
237
254
274
283
289
301
298
271
239
192
120
49
-14
-81
-131
-153
-177
-194
-182
-169
-177
-179
-152
-126
-132
-147
-143
-145
-163
-159
-141
-144
-150
-141
-143
-159
-161
-151
-148
-154
-157
-153
-147
-141
-137
-137
-147
-165
-171
-151
-119
-86
-45
-14
-28
-70
-87
-78
-68
-70
-79
-69
-55
-78
-73
-30
-89
-159
-56
199
842
1798
1763
255
-927
-674
-125
-76
-85
-8
-28
-44
-6
8
21
47
52
59
83
102
113
134
162
185
199
218
250
279
299
321
338
342
347
352
338
305
263
208
139
71
11
-43
-85
-104
-110
-113
-114
-113
-108
-101
-100
-102
-101
-103
-106
-103
-103
-116
-129
-128
-126
-134
-143
-146
-153
-160
-158
-159
-169
-171
-167
-169
-167
-163
-169
-174
-170
-179
-197
-187
-155
-127
-92
-61
-79
-127
-146
-137
-128
-125
-133
-131
-115
-130
-133
-91
-129
-211
-136
133
716
1491
1412
76
-1002
-789
-233
-127
-135
-71
-79
-88
-49
-33
-31
-14
1
15
35
56
72
87
106
131
156
182
204
220
235
255
270
274
276
275
263
247
221
177
125
77
24
-27
-59
-72
-80
-81
-76
-69
-60
-51
-44
-32
-20
-18
-16
-9
-10
-17
-20
-23
-29
-32
-37
-46
-51
-54
-60
-65
-69
-75
-78
-79
-87
-94
-92
-89
-91
-103
-125
-133
-106
-74
-50
-21
-17
-58
-94
-96
-90
-87
-92
-100
-91
-91
-109
-81
-72
-158
-164
12
408
1178
1675
802
-730
-1136
-524
-158
-142
-73
-42
-71
-38
-9
-18
0
27
36
50
68
79
95
117
138
161
185
208
229
251
271
284
293
298
298
293
285
267
229
172
107
49
-7
-65
-109
-130
-139
-142
-138
-133
-124
-115
-120
-130
-124
-117
-123
-128
-120
-118
-129
-142
-151
-156
-156
-154
-160
-167
-161
-154
-158
-163
-163
-164
-162
-153
-147
-149
-153
-162
-172
-163
-133
-100
-63
-39
-58
-97
-107
-99
-94
-92
-99
-100
-88
-100
-92
-48
-101
-182
-91
153
735
1624
1615
164
-1024
-783
-200
-103
-79
4
-26
-38
11
19
23
49
56
61
85
99
111
141
166
176
199
228
242
258
294
327
343
351
360
358
338
308
277
230
162
94
38
-16
-69
-107
-126
-133
-132
-126
-118
-106
-96
-94
-92
-86
-86
-87
-87
-91
-95
-92
-92
-107
-121
-119
-117
-129
-131
-120
-129
-147
-142
-132
-140
-151
-153
-151
-144
-136
-144
-164
-171
-153
-128
-98
-54
-32
-63
-106
-115
-103
-96
-100
-112
-107
-93
-105
-94
-65
-129
-200
-107
159
767
1555
1413
51
-937
-667
-163
-103
-107
-40
-45
-51
-27
-28
-19
9
17
21
42
71
92
94
87
108
155
187
201
227
254
264
271
277
277
279
275
248
207
169
129
74
10
-42
-79
-107
-120
-118
-118
-121
-114
-93
-76
-77
-79
-69
-69
-76
-69
-63
-65
-59
-56
-79
-104
-107
-98
-97
-106
-109
-104
-105
-109
-109
-103
-92
-87
-91
-97
-105
-108
-107
-128
-142
-104
-57
-40
-14
5
-32
-84
-93
-72
-55
-71
-95
-76
-69
-100
-58
-25
-142
-184
22
410
1063
1529
849
-487
-925
-452
-137
-111
-47
-24
-60
-41
-24
-42
-30
6
26
35
48
64
81
102
118
130
154
183
190
186
201
225
240
243
234
225
220
204
179
147
88
15
-32
-51
-74
-93
-94
-96
-103
-93
-80
-83
-86
-75
-61
-54
-54
-54
-45
-44
-61
-82
-95
-95
-84
-88
-110
-122
-115
-112
-122
-123
-105
-99
-119
-125
-105
-100
-117
-125
-112
-105
-108
-93
-57
-34
-21
-3
-14
-55
-82
-88
-85
-75
-76
-81
-72
-82
-97
-66
-79
-166
-135
109
586
1205
1246
222
-829
-816
-299
-111
-105
-52
-47
-58
-24
-4
2
25
37
39
50
68
85
105
125
142
161
185
208
224
238
253
267
276
281
284
282
273
258
232
195
152
105
55
8
-24
-36
-41
-46
-49
-47
-49
-54
-55
-54
-59
-73
-81
-77
-77
-89
-99
-99
-104
-120
-130
-136
-148
-152
-152
-164
-164
-148
-164
-198
-179
-135
-140
-173
-184
-186
-193
-180
-148
-119
-86
-61
-81
-117
-119
-106
-101
-97
-102
-98
-84
-95
-87
-55
-112
-159
-22
290
939
1688
1327
-255
-1208
-772
-213
-149
-109
-33
-63
-55
-5
-6
-3
26
37
47
66
75
91
125
150
166
194
220
245
286
315
314
315
329
336
343
349
328
286
236
172
108
50
-16
-72
-91
-96
-110
-113
-104
-104
-112
-111
-103
-104
-116
-120
-117
-125
-139
-142
-143
-148
-149
-153
-173
-186
-182
-177
-178
-173
-163
-163
-172
-180
-190
-202
-198
-174
-145
-104
-57
-53
-99
-133
-127
-113
-116
-135
-133
-108
-119
-131
-87
-112
-205
-157
18
482
1486
1981
794
-779
-917
-279
-107
-159
-76
-62
-92
-53
-35
-33
-1
11
8
33
61
75
99
129
148
167
202
240
274
304
327
341
357
372
376
368
346
304
246
173
96
27
-34
-86
-121
-137
-142
-144
-142
-139
-138
-136
-127
-118
-122
-131
-129
-123
-128
-136
-135
-134
-136
-139
-142
-148
-150
-146
-145
-148
-148
-145
-145
-152
-176
-206
-201
-165
-131
-96
-59
-67
-109
-124
-115
-116
-123
-130
-124
-109
-125
-129
-86
-121
-215
-166
39
592
1610
1958
692
-746
-778
-197
-86
-145
-79
-75
-92
-52
-35
-35
-14
-1
8
29
50
65
82
105
135
160
179
208
241
266
288
307
316
322
330
324
289
238
185
126
58
-3
-46
-78
-105
-120
-128
-130
-127
-124
-124
-123
-117
-112
-113
-117
-116
-113
-116
-125
-131
-129
-127
-134
-145
-143
-135
-134
-139
-139
-134
-130
-128
-131
-133
-132
-130
-138
-158
-170
-155
-121
-86
-52
-31
-49
-90
-111
-104
-91
-91
-104
-102
-98
-117
-103
-72
-138
-206
-114
167
850
1697
1488
32
-935
-609
-124
-100
-104
-39
-60
-64
-25
-22
-17
12
28
36
55
72
86
103
125
149
171
187
206
230
250
265
274
277
279
283
277
253
213
165
111
55
1
-45
-76
-90
-96
-98
-95
-86
-77
-71
-65
-58
-53
-51
-52
-53
-50
-51
-57
-63
-67
-74
-82
-88
-92
-96
-100
-104
-105
-104
-105
-108
-111
-114
-114
-111
-114
-121
-132
-146
-144
-120
-93
-63
-34
-45
-91
-112
-108
-111
-112
-111
-113
-105
-108
-114
-81
-92
-180
-172
22
505
1295
1534
444
-866
-961
-367
-126
-125
-64
-53
-67
-30
-14
-21
-5
13
24
41
57
70
88
109
131
155
175
192
214
238
255
267
275
279
282
280
267
247
217
169
111
57
8
-32
-60
-75
-79
-78
-75
-68
-62
-62
-64
-60
-58
-58
-59
-63
-72
-81
-89
-99
-109
-113
-115
-119
-123
-125
-126
-129
-131
-130
-130
-128
-126
-127
-126
-120
-115
-113
-111
-109
-110
-119
-136
-138
-111
-77
-46
-15
-18
-60
-87
-85
-81
-82
-89
-94
-76
-75
-94
-63
-59
-151
-159
20
460
1285
1723
746
-732
-1010
-410
-120
-113
-32
-11
-42
-10
13
8
27
42
44
62
81
90
105
128
150
173
195
212
231
253
274
290
299
304
308
309
298
275
244
197
140
84
28
-29
-71
-90
-99
-105
-100
-93
-92
-91
-84
-78
-79
-79
-77
-78
-85
-91
-95
-105
-116
-121
-124
-131
-141
-144
-143
-141
-142
-143
-145
-142
-139
-141
-143
-142
-146
-149
-143
-134
-138
-153
-166
-162
-141
-112
-74
-39
-48
-92
-115
-110
-105
-104
-112
-115
-96
-102
-118
-77
-89
-192
-175
6
443
1333
1801
739
-784
-1002
-380
-133
-144
-60
-44
-75
-36
-13
-19
2
21
26
43
66
81
99
123
147
174
202
231
260
288
311
332
347
356
357
354
341
314
268
204
135
70
9
-43
-79
-101
-111
-112
-107
-103
-94
-83
-78
-80
-75
-67
-65
-69
-70
-73
-79
-87
-94
-100
-104
-110
-118
-124
-124
-123
-121
-120
-122
-123
-119
-114
-117
-122
-123
-121
-120
-116
-108
-103
-104
-104
-100
-98
-99
-106
-120
-132
-128
-107
-78
-39
-11
-29
-71
-88
-86
-85
-81
-84
-85
-73
-84
-86
-43
-80
-171
-108
90
572
1490
1795
569
-807
-814
-229
-93
-113
-31
-34
-57
-17
-5
-12
7
19
25
44
65
82
102
124
147
173
196
221
250
278
305
332
349
356
363
364
346
317
274
206
126
56
-5
-62
-103
-130
-154
-170
-170
-163
-157
-150
-141
-133
-123
-116
-115
-113
-106
-105
-109
-111
-113
-123
-136
-144
-144
-145
-151
-153
-148
-147
-152
-155
-157
-157
-152
-144
-139
-139
-139
-137
-137
-135
-129
-128
-139
-155
-161
-154
-134
-88
-34
-24
-65
-98
-97
-93
-86
-84
-95
-89
-82
-103
-76
-48
-144
-175
-5
311
1083
1966
1465
-294
-1138
-584
-128
-152
-90
-12
-60
-51
-4
-2
12
35
40
56
82
94
110
139
165
187
217
254
283
311
347
384
404
411
416
418
407
377
326
257
176
94
19
-50
-116
-164
-184
-189
-191
-183
-169
-161
-157
-147
-135
-122
-109
-106
-106
-98
-97
-107
-110
-111
-124
-134
-132
-134
-143
-145
-143
-144
-145
-143
-143
-148
-151
-147
-145
-146
-142
-136
-135
-141
-156
-167
-160
-146
-122
-71
-30
-46
-86
-97
-94
-90
-87
-96
-96
-86
-107
-97
-54
-128
-208
-110
64
624
1716
1897
336
-1050
-829
-225
-176
-165
-50
-73
-89
-41
-39
-33
3
12
18
47
69
86
113
139
165
202
241
278
319
360
393
423
448
462
466
459
427
365
278
183
92
11
-58
-113
-159
-191
-200
-193
-192
-190
-177
-163
-155
-147
-136
-127
-122
-120
-121
-119
-112
-112
-122
-129
-133
-143
-152
-153
-156
-163
-162
-158
-159
-158
-155
-158
-163
-159
-151
-145
-145
-156
-175
-191
-195
-181
-139
-76
-39
-60
-96
-103
-97
-93
-93
-106
-105
-85
-100
-103
-57
-102
-193
-128
25
497
1593
2125
889
-661
-733
-138
-62
-147
-63
-56
-83
-35
-15
-21
1
17
28
54
73
80
99
129
156
178
206
242
283
324
354
371
386
403
407
392
356
301
233
150
62
-6
-56
-104
-140
-153
-158
-164
-163
-158
-154
-147
-139
-131
-124
-119
-121
-122
-121
-126
-129
-122
-120
-127
-130
-129
-133
-135
-129
-126
-130
-132
-132
-136
-141
-138
-135
-136
-139
-137
-132
-130
-128
-127
-126
-123
-117
-115
-120
-117
-98
-88
-107
-129
-135
-135
-129
-111
-80
-34
-1
-18
-59
-72
-67
-61
-58
-69
-74
-59
-73
-81
-37
-75
-169
-110
66
562
1615
2066
808
-689
-716
-122
-52
-128
-44
-45
-76
-30
-10
-9
17
19
14
43
73
83
99
123
147
169
192
224
262
285
296
314
336
356
371
370
350
316
264
197
129
59
-12
-66
-95
-113
-130
-139
-136
-128
-118
-119
-127
-121
-99
-85
-86
-93
-101
-102
-95
-89
-92
-91
-83
-77
-79
-85
-91
-93
-93
-91
-91
-92
-90
-89
-94
-101
-103
-99
-95
-95
-96
-99
-106
-105
-90
-87
-104
-116
-108
-97
-98
-108
-115
-113
-107
-104
-106
-106
-106
-114
-129
-141
-137
-119
-88
-41
-11
-33
-74
-86
-81
-79
-82
-95
-93
-77
-98
-103
-50
-91
-192
-121
114
675
1638
1822
397
-1012
-899
-253
-135
-150
-51
-57
-84
-44
-34
-38
-33
-49
-25
65
113
85
73
115
150
166
217
283
298
303
342
345
313
345
406
396
364
363
335
260
176
84
1
-49
-86
-123
-150
-161
-157
-149
-140
-114
-102
-126
-115
-79
-110
-134
-64
-30
-75
-84
-85
-115
-101
-108
-192
-197
-93
-70
-146
-165
-105
-70
-89
-109
-106
-101
-100
-95
-102
-128
-144
-111
-39
-3
-32
