# session 18
-57
-53
-68
-23
81
130
112
104
116
115
109
107
96
81
68
54
33
14
3
-9
-28
-44
-49
-53
-64
-75
-82
-85
-95
-121
-149
-163
-157
-118
-59
-32
-50
-68
-70
-62
-55
-67
-69
-49
-61
-65
-24
-76
-183
-174
-39
580
1805
2162
675
-838
-775
-197
-135
-149
-36
-34
-42
19
43
63
122
177
234
313
393
467
535
577
580
545
483
404
315
221
132
57
-5
-61
-109
-130
-128
-125
-127
-121
-111
-109
-113
-116
-118
-126
-137
-145
-157
-176
-198
-211
-214
-220
-234
-240
-235
-234
-238
-239
-241
-247
-244
-230
-229
-254
-277
-280
-276
-260
-209
-153
-141
-162
-173
-166
-153
-152
-148
-128
-137
-154
-102
-106
-215
-228
-132
277
1437
2304
1228
-687
-1114
-438
-180
-210
-69
-16
-67
-27
22
41
98
163
213
282
368
452
533
593
610
588
538
468
383
284
180
90
15
-55
-120
-167
-188
-186
-172
-156
-135
-111
-97
-94
-91
-92
-106
-124
-138
-149
-158
-168
-181
-188
-187
-188
-199
-207
-205
-204
-206
-202
-196
-202
-220
-249
-271
-268
-253
-230
-182
-136
-135
-157
-158
-140
-133
-146
-137
-115
-132
-124
-79
-138
-224
-203
-88
587
1892
2152
504
-973
-790
-207
-168
-152
-31
-47
-49
18
39
62
124
178
238
317
386
459
542
593
593
562
511
434
335
230
136
66
10
-49
-102
-127
-129
-124
-115
-100
-86
-81
-84
-89
-90
-93
-102
-111
-117
-125
-137
-151
-166
-177
-180
-177
-178
-185
-190
-185
-181
-184
-181
-172
-180
-214
-246
-252
-232
-183
-117
-83
-102
-127
-129
-118
-108
-118
-129
-108
-101
-116
-79
-86
-192
-213
-124
265
1370
2241
1297
-514
-988
-382
-128
-178
-84
-36
-58
-8
33
44
94
156
208
278
358
435
509
569
603
602
561
493
418
330
230
136
61
-3
-58
-99
-125
-134
-129
-119
-112
-106
-99
-96
-101
-109
-112
-113
-121
-137
-151
-163
-175
-191
-206
-217
-225
-229
-231
-229
-222
-217
-216
-213
-212
-217
-224
-222
-213
-208
-207
-201
-193
-188
-186
-194
-213
-231
-238
-235
-216
-164
-100
-80
-110
-141
-142
-132
-144
-144
-118
-130
-136
-78
-117
-237
-211
-84
406
1634
2290
922
-897
-1055
-381
-230
-242
-84
-59
-96
-39
-2
17
78
127
166
240
329
409
488
552
582
582
552
485
391
291
191
95
13
-55
-123
-180
-208
-212
-204
-184
-162
-147
-133
-122
-117
-109
-109
-128
-131
-144
-197
-175
-44
-6
-109
-125
-2
25
-160
-264
3
292
107
-286
-347
-185
-132
-150
-125
-89
-46
24
112
234
391
517
591
671
790
916
1012
1052
1010
882
697
486
283
109
-31
-135
-203
-251
-290
-310
-312
-307
-300
-291
-281
-269
-257
-246
-233
-220
-212
-207
-198
-193
-194
-193
-184
-179
-183
-181
-171
-171
-178
-176
-172
-171
-165
-155
-153
-152
-147
-145
-146
-142
-136
-131
-126
-125
-126
-121
-112
-107
-106
-107
-106
-104
-106
-107
-103
-96
-94
-96
-93
-86
-86
-90
-88
-86
-83
-76
-77
-84
-88
-96
-110
-114
-102
-84
-53
-11
0
-38
-72
-63
-59
-77
-64
-49
-77
-55
-29
-135
-187
-67
183
1010
2147
1868
50
-1022
-619
-202
-235
-169
-76
-113
-98
-46
-38
-5
55
93
137
203
271
345
421
483
527
548
536
497
442
375
301
223
138
62
4
-55
-107
-135
-140
-129
-114
-115
-114
-94
-92
-104
-95
-116
-153
-58
103
54
-203
-388
-448
-531
-519
-201
99
-69
-421
-433
-222
-134
-143
-122
-62
26
126
233
367
479
536
612
743
870
965
1035
1048
972
825
639
433
233
61
-76
-180
-252
-302
-342
-365
-366
-358
-356
-352
-339
-329
-320
-307
-295
-289
-283
-274
-268
-267
-266
-263
-259
-254
-248
-244
-240
-237
-234
-231
-225
-220
-216
-212
-208
-205
-196
-185
-181
-180
-173
-163
-159
-155
-148
-142
-138
-131
-125
-122
-116
-106
-101
-99
-93
-87
-88
-93
-91
-92
-108
-129
-125
-105
-96
-76
-25
4
-21
-44
-26
-22
-43
-28
-17
-41
-8
14
-102
-146
-23
259
1185
2351
1943
17
-1012
-553
-150
-191
-114
-29
-76
-56
0
4
30
81
120
177
247
308
382
470
538
576
594
590
559
506
439
357
266
184
118
58
2
-38
-64
-78
-84
-86
-84
-76
-79
-93
-99
-113
-140
-143
-153
-204
-179
-77
-143
-396
-507
-362
-263
-389
-410
-45
281
85
-294
-352
-227
-198
-201
-164
-129
-86
-19
42
106
189
279
378
497
624
742
838
892
890
831
719
566
391
214
47
-94
-199
-268
-306
-325
-339
-345
-338
-327
-319
-310
-301
-296
-290
-279
-270
-267
-270
-274
-272
-267
-268
-273
-272
-270
-266
-260
-255
-254
-253
-251
-246
-237
-229
-226
-224
-215
-202
-195
-194
-207
-233
-249
-241
-225
-205
-169
-131
-117
-124
-122
-110
-115
-114
-85
-90
-107
-55
-75
-188
-148
14
440
1560
2328
1170
-713
-1078
-421
-191
-203
-67
-37
-72
-12
26
32
85
141
180
243
322
403
494
581
646
688
696
672
629
562
467
361
258
160
72
2
-53
-94
-114
-113
-105
-98
-88
-76
-75
-80
-80
-92
-108
-108
-142
-197
-140
-8
-38
-263
-428
-412
-447
-625
-565
-138
96
-124
-309
-204
-94
-95
-84
-55
-37
-1
51
110
186
276
383
517
669
829
975
1073
1097
1051
939
768
558
339
140
-29
-160
-250
-299
-328
-351
-367
-368
-362
-358
-352
-344
-339
-335
-328
-320
-316
-313
-311
-311
-309
-305
-304
-307
-302
-293
-289
-288
-284
-280
-279
-276
-267
-259
-255
-250
-256
-278
-297
-294
-284
-262
-212
-167
-162
-171
-167
-152
-144
-150
-140
-121
-145
-142
-93
-154
-245
-172
3
619
1845
2181
630
-917
-849
-280
-224
-216
-94
-103
-113
-51
-32
-17
39
87
136
210
287
369
462
546
609
647
653
632
589
513
406
298
203
111
25
-47
-97
-120
-126
-126
-116
-101
-90
-78
-73
-84
-78
-77
-121
-94
54
62
-225
-506
-493
-362
-324
-157
257
430
71
-316
-312
-170
-144
-140
-91
-36
29
110
195
283
376
475
585
701
822
936
1014
1031
984
877
711
511
307
117
-48
-175
-258
-308
-341
-365
-378
-380
-374
-363
-351
-342
-331
-315
-303
-293
-283
-276
-273
-266
-265
-269
-266
-257
-251
-244
-238
-239
-244
-247
-240
-227
-223
-224
-218
-212
-214
-211
-203
-196
-189
-184
-185
-185
-179
-171
-164
-163
-161
-149
-138
-146
-169
-184
-184
-186
-181
-140
-81
-65
-90
-98
-80
-79
-88
-58
-43
-72
-45
-25
-134
-164
-38
215
1105
2268
1868
-72
-1108
-623
-193
-219
-129
-38
-84
-61
-3
3
32
85
123
172
236
300
376
465
544
604
633
626
597
550
475
372
269
179
98
27
-31
-79
-114
-127
-127
-122
-115
-108
-103
-101
-110
-118
-119
-139
-163
-167
-204
-262
-240
-228
-318
-270
74
413
385
29
-199
59
423
288
-154
-344
-293
-278
-287
-247
-208
-176
-129
-76
-17
56
139
238
362
499
634
754
834
857
822
735
604
445
275
103
-54
-171
-244
-283
-299
-304
-305
-300
-293
-286
-278
-269
-264
-257
-245
-239
-241
-239
-234
-234
-237
-237
-235
-236
-237
-234
-230
-224
-218
-212
-208
-206
-201
-193
-190
-187
-179
-172
-169
-166
-162
-157
-151
-144
-137
-133
-129
-134
-154
-175
-178
-167
-145
-102
-55
-43
-66
-83
-75
-63
-76
-77
-56
-74
-79
-19
-59
-172
-114
56
545
1673
2216
882
-817
-962
-351
-208
-211
-85
-80
-109
-58
-31
-11
48
93
129
187
253
327
413
494
558
612
642
640
612
562
485
383
270
166
79
2
-69
-125
-154
-160
-150
-134
-125
-121
-109
-108
-119
-111
-122
-164
-93
96
117
-158
-475
-627
-700
-710
-464
-96
-96
-444
-553
-284
-55
-16
4
53
93
150
237
330
430
545
669
800
923
1026
1099
1121
1072
954
783
575
357
162
1
-130
-230
-301
-350
-379
-389
-393
-393
-386
-374
-363
-354
-342
-331
-327
-325
-316
-301
-297
-298
-290
-281
-283
-285
-279
-274
-270
-264
-266
-270
-261
-246
-241
-239
-232
-225
-219
-212
-205
-201
-193
-183
-176
-170
-160
-152
-145
-141
-141
-140
-144
-166
-192
-194
-187
-181
-149
-96
-70
-81
-86
-66
-61
-74
-58
-51
-73
-39
-19
-122
-161
-62
213
1155
2286
1826
-50
-984
-506
-129
-172
-96
-23
-69
-44
11
16
41
88
126
178
246
316
401
498
581
637
667
677
664
621
546
453
355
255
158
72
-1
-59
-97
-114
-114
-108
-107
-103
-95
-101
-104
-102
-137
-155
-64
12
-73
-185
-161
-112
-216
-299
-30
339
189
-339
-547
-382
-263
-256
-229
-194
-158
-92
-21
45
126
217
307
407
520
640
751
829
855
821
725
581
410
230
64
-73
-179
-256
-306
-335
-354
-364
-364
-358
-351
-346
-339
-327
-314
-309
-306
-297
-287
-284
-280
-271
-271
-276
-270
-260
-261
-263
-256
-251
-248
-239
-233
-234
-228
-218
-213
-205
-196
-193
-189
-179
-181
-204
-229
-235
-231
-213
-167
-115
-96
-107
-114
-101
-95
-108
-98
-77
-100
-90
-38
-111
-202
-113
86
733
1916
2107
496
-934
-762
-208
-175
-161
-50
-72
-82
-21
-2
14
67
111
155
218
288
365
445
512
569
607
613
600
577
529
452
365
277
190
105
30
-26
-57
-62
-54
-55
-67
-63
-50
-64
-75
-67
-99
-128
-16
103
-69
-411
-522
-401
-313
-154
220
390
34
-385
-404
-246
-199
-195
-160
-126
-74
4
73
139
218
299
375
454
537
625
705
752
755
712
615
475
319
166
29
-84
-167
-227
-274
-309
-328
-331
-330
-328
-324
-316
-304
-293
-281
-272
-263
-252
-245
-243
-244
-240
-229
-218
-215
-217
-215
-211
-208
-204
-199
-196
-196
-195
-193
-194
-197
-196
-188
-189
-211
-232
-234
-229
-221
-188
-145
-129
-138
-142
-129
-112
-117
-120
-101
-111
-109
-52
-96
-201
-118
100
629
1710
2111
679
-967
-1002
-352
-214
-199
-57
-56
-82
-19
6
17
74
114
144
211
286
346
423
520
596
635
651
652
634
592
520
424
328
239
147
60
-9
-54
-68
-65
-72
-85
-84
-75
-78
-84
-84
-96
-108
-109
-153
-210
-125
42
-27
-403
-761
-905
-1012
-1147
-991
-506
-193
-247
-280
-123
-8
-12
-25
-22
-15
13
59
114
185
271
376
506
651
800
950
1075
1138
1135
1066
926
737
530
324
130
-28
-140
-211
-251
-269
-279
-286
-288
-287
-288
-289
-289
-288
-290
-290
-289
-290
-294
-294
-292
-290
-289
-286
-282
-278
-278
-280
-279
-286
-318
-349
-352
-342
-322
-273
-226
-210
-209
-203
-192
-183
-184
-179
-166
-181
-176
-129
-175
-269
-238
-81
518
1671
2003
584
-866
-801
-236
-181
-206
-100
-100
-114
-57
-31
-19
29
77
123
186
252
325
409
485
540
574
583
560
514
445
353
252
161
78
-4
-73
-115
-139
-153
-148
-139
-137
-127
-118
-127
-122
-127
-191
-208
-115
-76
-100
44
343
490
342
157
276
495
297
-198
-426
-357
-320
-344
-318
-269
-226
-164
-90
-15
70
165
269
386
513
643
765
849
865
814
709
558
378
192
22
-118
-223
-293
-334
-356
-372
-376
-369
-360
-354
-344
-329
-317
-310
-303
-290
-281
-280
-277
-271
-265
-262
-259
-259
-257
-254
-250
-245
-240
-236
-233
-244
-268
-285
-284
-268
-232
-186
-164
-166
-168
-165
-154
-147
-157
-148
-120
-136
-133
-79
-137
-237
-163
37
624
1698
1891
371
-1046
-905
-315
-224
-193
-73
-81
-88
-31
-18
-3
53
102
148
211
272
339
422
500
561
608
632
628
604
561
489
395
295
197
106
29
-28
-63
-75
-73
-67
-60
-58
-62
-54
-55
-81
-84
-83
-153
-155
34
90
-255
-636
-681
-603
-606
-442
-60
82
-187
-411
-310
-130
-69
-44
9
64
116
176
238
309
404
519
636
752
880
1014
1117
1154
1116
1014
855
648
431
230
51
-95
-198
-266
-310
-336
-352
-359
-357
-353
-345
-335
-329
-323
-315
-313
-312
-308
-306
-306
-300
-298
-305
-309
-302
-294
-290
-286
-287
-287
-282
-276
-272
-268
-263
-257
-253
-268
-297
-310
-303
-292
-265
-226
-207
-206
-200
-192
-185
-189
-193
-170
-164
-187
-147
-132
-240
-256
-129
188
1181
2218
1512
-463
-1255
-662
-279
-294
-176
-101
-147
-113
-63
-59
-22
30
66
118
186
255
334
417
496
561
597
603
591
557
493
403
303
208
126
51
-18
-68
-94
-104
-105
-100
-91
-84
-82
-83
-91
-101
-110
-140
-182
-202
-236
-269
-186
-84
-196
-386
-353
-186
-205
-401
-371
56
386
194
-165
-240
-155
-134
-131
-97
-69
-37
8
52
101
166
245
343
460
583
704
808
884
919
903
835
733
601
445
281
126
-9
-104
-152
-170
-174
-170
-163
-155
-148
-143
-141
-143
-144
-140
-138
-140
-140
-138
-140
-143
-143
-143
-143
-141
-138
-136
-134
-132
-130
-128
-129
-128
-120
-113
-112
-113
-128
-155
-167
-160
-142
-104
-60
-48
-58
-61
-61
-58
-56
-68
-62
-45
-71
-65
-25
-107
-191
-102
87
721
1830
1886
235
-1095
-848
-300
-261
-221
-107
-135
-147
-98
-92
-79
-35
-5
28
82
137
196
270
341
394
428
444
439
410
361
291
199
96
-5
-104
-193
-262
-312
-339
-348
-346
-338
-331
-327
-313
-312
-331
-327
-335
-394
-347
-155
-169
-547
-910
-988
-976
-971
-735
-307
-181
-470
-663
-513
-314
-252
-223
-170
-109
-30
61
155
262
379
500
634
772
898
1008
1087
1103
1049
930
760
560
361
182
29
-96
-182
-228
-249
-260
-255
-234
-210
-183
-151
-117
-88
-59
-25
11
41
68
101
