# session 35
-44
-52
-37
-8
-24
-84
-110
-93
-88
-95
-89
-84
-86
-89
-98
-115
-121
-109
-90
-60
-14
5
-31
-70
-71
-69
-75
-74
-80
-77
-59
-76
-82
-40
-83
-161
-57
188
716
1604
1710
296
-999
-805
-180
-92
-102
-3
-20
-44
3
11
10
39
50
53
72
86
91
105
121
136
156
174
186
200
217
228
239
251
258
256
256
256
248
231
207
170
114
55
6
-40
-84
-115
-129
-137
-139
-134
-124
-118
-115
-113
-112
-109
-103
-103
-110
-110
-107
-112
-121
-126
-131
-137
-140
-143
-146
-148
-149
-145
-140
-139
-138
-133
-130
-129
-126
-122
-123
-123
-121
-118
-115
-111
-106
-101
-98
-99
-97
-89
-84
-84
-83
-82
-83
-95
-113
-121
-108
-80
-31
14
8
-36
-56
-54
-57
-56
-57
-64
-49
-46
-68
-38
-30
-120
-114
30
343
1187
1969
1246
-420
-954
-349
-25
-83
-24
16
-26
0
31
21
39
62
64
75
91
101
116
132
143
158
178
194
208
227
248
264
275
285
294
298
301
293
269
233
187
127
61
3
-48
-94
-127
-140
-146
-153
-153
-144
-134
-128
-124
-120
-117
-115
-115
-116
-116
-113
-113
-118
-122
-126
-128
-132
-137
-140
-137
-137
-143
-143
-136
-134
-137
-136
-131
-125
-120
-118
-116
-110
-104
-104
-104
-100
-97
-96
-94
-93
-91
-90
-89
-88
-84
-83
-91
-107
-120
-116
-97
-63
-16
12
-13
-52
-59
-55
-57
-54
-58
-61
-45
-50
-59
-25
-54
-129
-67
110
553
1448
1799
645
-718
-736
-141
-13
-65
8
14
-12
24
38
34
57
73
75
87
99
108
121
135
147
161
179
197
213
231
250
267
283
294
303
306
303
291
269
234
183
118
51
-5
-51
-93
-123
-135
-138
-140
-139
-133
-127
-120
-112
-107
-108
-109
-108
-106
-108
-112
-115
-115
-117
-124
-135
-142
-142
-142
-145
-147
-147
-148
-146
-142
-141
-142
-141
-139
-138
-137
-137
-136
-134
-132
-128
-125
-127
-129
-126
-121
-121
-121
-120
-117
-112
-111
-116
-129
-137
-129
-104
-65
-18
-2
-37
-74
-75
-71
-70
-66
-70
-68
-53
-67
-62
-24
-76
-138
-43
180
760
1651
1611
169
-926
-621
-76
-42
-45
38
15
4
46
49
49
75
85
90
107
119
127
141
154
166
184
204
220
235
254
273
287
299
308
312
318
320
305
275
236
181
112
46
-9
-55
-93
-120
-133
-138
-139
-136
-128
-120
-114
-108
-103
-99
-96
-94
-94
-95
-96
-96
-99
-105
-113
-118
-121
-124
-126
-127
-129
-134
-135
-132
-132
-132
-130
-129
-127
-125
-124
-124
-122
-118
-114
-105
-98
-94
-92
-92
-92
-87
-83
-88
-99
-113
-121
-111
-88
-57
-16
2
-27
-65
-74
-74
-73
-67
-75
-78
-62
-71
-75
-40
-77
-153
-88
114
626
1484
1616
351
-849
-718
-152
-53
-72
5
-3
-25
11
20
16
36
47
49
60
72
80
93
105
115
130
151
168
184
206
227
240
254
270
277
277
276
267
239
196
142
78
14
-42
-90
-127
-149
-159
-163
-164
-160
-150
-138
-127
-118
-111
-103
-94
-91
-91
-85
-79
-77
-76
-78
-79
-80
-83
-90
-91
-89
-89
-89
-88
-88
-85
-80
-79
-77
-73
-70
-67
-62
-60
-59
-58
-59
-60
-58
-55
-53
-52
-51
-50
-49
-49
-48
-48
-52
-59
-70
-81
-74
-49
-21
8
27
3
-38
-50
-49
-57
-56
-57
-65
-56
-59
-77
-48
-50
-135
-126
36
420
1219
1693
758
-686
-925
-311
-61
-100
-36
-13
-46
-17
5
0
18
33
33
45
62
75
89
102
114
133
153
170
187
209
233
254
272
289
305
316
320
314
296
264
213
144
70
2
-56
-103
-135
-158
-170
-173
-169
-164
-158
-148
-135
-126
-123
-119
-116
-116
-113
-105
-104
-113
-118
-114
-112
-123
-137
-141
-140
-140
-138
-131
-126
-127
-128
-125
-122
-120
-118
-116
-114
-109
-105
-104
-104
-101
-101
-104
-112
-125
-133
-124
-101
-63
-16
-6
-45
-75
-75
-77
-79
-75
-85
-81
-70
-92
-79
-36
-107
-167
-38
218
858
1797
1638
0
-1113
-702
-128
-105
-77
21
-14
-23
25
22
21
48
57
62
81
94
106
125
141
157
177
198
220
245
272
297
322
343
358
371
379
375
353
313
251
170
83
5
-63
-118
-158
-187
-205
-210
-206
-197
-186
-176
-166
-155
-143
-132
-125
-121
-117
-114
-114
-117
-121
-125
-132
-139
-146
-149
-150
-150
-151
-151
-149
-143
-138
-139
-139
-135
-131
-130
-128
-122
-117
-114
-110
-104
-106
-117
-133
-143
-140
-117
-73
-25
-6
-33
-65
-70
-69
-70
-68
-77
-76
-60
-75
-79
-37
-77
-149
-82
66
545
1569
1931
627
-792
-739
-132
-42
-87
-3
-7
-29
13
20
16
43
56
58
72
84
91
105
121
136
155
174
195
220
247
273
296
320
342
356
364
364
350
317
263
187
101
23
-41
-95
-136
-163
-179
-184
-182
-179
-174
-168
-161
-153
-144
-136
-131
-127
-125
-124
-121
-118
-121
-123
-124
-128
-133
-134
-136
-141
-141
-136
-134
-138
-140
-135
-130
-130
-130
-127
-122
-119
-117
-116
-113
-109
-106
-106
-105
-103
-99
-97
-96
-94
-92
-97
-109
-123
-123
-103
-66
-21
5
-15
-55
-66
-62
-66
-65
-67
-76
-65
-63
-82
-48
-37
-125
-119
23
308
1109
1903
1267
-336
-898
-337
-24
-89
-39
5
-35
-14
18
13
29
50
54
69
86
93
105
121
134
151
170
187
208
232
254
275
297
319
336
349
358
357
342
309
255
184
109
39
-22
-72
-108
-129
-137
-138
-138
-135
-129
-124
-121
-115
-108
-104
-104
-106
-107
-105
-105
-107
-107
-107
-109
-114
-118
-121
-125
-128
-127
-125
-123
-123
-123
-122
-117
-112
-111
-112
-113
-112
-111
-109
-104
-101
-102
-101
-95
-93
-96
-98
-97
-94
-91
-90
-88
-87
-93
-107
-122
-126
-118
-98
-65
-24
-9
-40
-77
-85
-85
-85
-79
-87
-92
-76
-86
-92
-48
-82
-169
-98
94
567
1531
1892
617
-850
-844
-205
-77
-119
-28
-25
-50
-9
1
-6
21
37
40
55
69
78
96
117
130
145
165
189
213
235
256
280
304
323
339
352
359
359
346
312
256
185
107
31
-36
-95
-139
-160
-163
-161
-163
-163
-156
-146
-135
-124
-116
-115
-113
-110
-112
-111
-108
-110
-114
-116
-120
-126
-129
-131
-135
-137
-137
-137
-136
-135
-132
-127
-125
-127
-124
-119
-117
-117
-115
-112
-108
-105
-102
-102
-103
-101
-98
-101
-114
-127
-129
-118
-95
-52
-9
-12
-54
-76
-72
-74
-74
-69
-77
-72
-60
-79
-62
-24
-97
-146
-33
175
832
1874
1792
154
-982
-601
-72
-85
-75
13
-22
-22
25
18
18
46
52
56
75
84
93
115
134
146
163
185
205
226
249
273
294
315
332
343
350
353
341
307
252
181
102
27
-36
-88
-127
-152
-166
-173
-174
-172
-169
-164
-155
-149
-144
-135
-127
-124
-122
-120
-122
-122
-119
-118
-121
-125
-128
-133
-138
-140
-139
-140
-142
-138
-133
-131
-130
-129
-129
-126
-119
-114
-110
-107
-104
-103
-100
-97
-93
-90
-85
-82
-81
-81
-77
-74
-73
-73
-72
-71
-72
-73
-69
-65
-67
-77
-91
-102
-99
-77
-38
6
19
-13
-45
-47
-44
-45
-40
-48
-54
-37
-44
-53
-12
-39
-126
-78
72
485
1438
1940
852
-603
-721
-146
-21
-81
-3
5
-26
12
28
16
33
49
53
66
80
86
98
113
128
142
156
173
195
216
234
254
276
297
313
325
330
329
317
289
240
172
100
33
-25
-72
-107
-130
-144
-149
-147
-144
-142
-139
-133
-126
-122
-118
-114
-112
-111
-111
-108
-105
-107
-110
-109
-109
-113
-118
-120
-118
-117
-118
-116
-112
-107
-104
-102
-102
-100
-99
-98
-94
-87
-85
-88
-88
-84
-80
-79
-79
-78
-77
-78
-76
-73
-72
-75
-78
-77
-73
-70
-71
-74
-71
-64
-63
-67
-66
-62
-65
-67
-62
-60
-64
-65
-62
-64
-76
-89
-87
-72
-50
-12
21
6
-36
-47
-39
-45
-44
-43
-54
-42
-36
-54
-23
-19
-114
-103
57
366
1188
1964
1256
-398
-934
-342
-32
-92
-24
21
-28
-6
28
19
33
54
55
68
88
97
105
121
137
151
164
181
203
223
241
264
289
305
314
327
341
347
338
316
281
228
159
86
18
-45
-98
-133
-157
-173
-176
-168
-161
-157
-151
-141
-132
-128
-127
-123
-120
-119
-120
-122
-124
-126
-131
-136
-142
-145
-144
-142
-146
-150
-149
-145
-140
-134
-134
-135
-133
-130
-129
-125
-121
-119
-118
-115
-113
-113
-112
-108
-102
-99
-100
-99
-95
-92
-91
-91
-86
-79
-76
-79
-78
-76
-78
-77
-71
-68
-71
-77
-87
-98
-98
-85
-54
-4
26
-1
-41
-46
-43
-48
-45
-48
-51
-33
-37
-52
-10
-25
-123
-85
63
406
1333
2021
1077
-547
-855
-229
-15
-84
-7
16
-22
14
35
24
43
59
60
75
92
100
112
126
137
154
174
193
214
237
257
276
298
321
337
349
360
359
343
313
265
196
120
50
-14
-69
-111
-138
-152
-155
-155
-154
-149
-142
-137
-132
-125
-118
-114
-111
-109
-107
-106
-105
-106
-108
-112
-115
-117
-121
-124
-125
-128
-130
-125
-120
-122
-122
-119
-117
-116
-114
-108
-102
-99
-100
-98
-91
-85
-83
-81
-78
-77
-78
-79
-79
-78
-76
-75
-76
-74
-71
-70
-70
-69
-67
-65
-64
-63
-61
-61
-63
-62
-60
-60
-60
-57
-57
-56
-56
-57
-60
-70
-86
-87
-66
-39
-6
28
20
-24
-44
-36
-35
-33
-35
-49
-40
-30
-50
-29
-9
-89
-103
19
231
921
1834
1517
-33
-838
-386
-5
-63
-44
11
-28
-15
22
14
24
48
48
53
69
76
86
104
116
128
148
167
179
194
218
243
262
278
299
317
327
332
332
314
275
222
159
90
25
-35
-87
-120
-138
-150
-152
-147
-147
-150
-147
-140
-133
-126
-123
-124
-128
-129
-124
-117
-118
-126
-131
-131
-134
-136
-135
-139
-147
-149
-141
-126
-111
-110
-120
-129
-137
-140
-132
-118
-107
-99
-92
-83
-74
-70
-70
-67
-61
-58
-58
-61
-62
-58
-56
-63
-69
-67
-62
-64
-70
-70
-63
-62
-68
-67
-61
-59
-61
-63
-63
-61
-60
-63
-66
-77
-88
-87
-80
-60
-10
28
4
-37
-43
-43
-49
-44
-49
-53
-37
-47
-57
-14
-47
-128
-47
135
581
1568
2001
756
-737
-752
-131
-36
-89
3
-3
-32
20
29
15
40
54
53
70
85
88
102
123
135
146
166
189
210
232
256
280
302
323
342
355
362
361
347
316
265
196
120
45
-24
-81
-122
-150
-168
-179
-184
-183
-177
-167
-159
-152
-146
-143
-140
-133
-128
-127
-127
-127
-131
-133
-134
-140
-145
-148
-153
-158
-158
-155
-157
-160
-156
-152
-150
-151
-152
-150
-142
-134
-131
-128
-125
-126
-128
-124
-116
-109
-105
-105
-105
-101
-96
-93
-94
-96
-93
-87
-85
-84
-80
-78
-78
-82
-95
-110
-115
-105
-75
-22
16
-3
-47
-57
-51
-50
-44
-46
-54
-41
-43
-58
-23
-36
-125
-93
47
391
1331
2073
1188
-456
-831
-224
-3
-85
-15
14
-27
7
35
24
40
59
62
74
88
94
105
123
139
154
172
193
216
236
259
286
312
335
356
371
379
379
364
327
271
202
126
53
-9
-64
-108
-135
-146
-152
-155
-154
-149
-142
-133
-126
-120
-113
-107
-104
-104
-102
-100
-101
-100
-99
-102
-105
-107
-112
-117
-117
-116
-118
-118
-116
-115
-114
-112
-111
-109
-104
-102
-102
-96
-90
-90
-89
-86
-83
-82
-83
-84
-83
-81
-81
-83
-81
-80
-81
-82
-80
-79
-78
-74
-72
-74
-75
-72
-69
-68
-70
-70
-67
-65
-64
-62
-60
-60
-60
-60
-62
-61
-58
-57
-57
-56
-63
-81
-91
-80
-57
-24
15
24
-11
-41
-41
-41
-43
-42
-49
-44
-37
-63
-50
-8
-74
-129
-27
154
732
1732
1785
335
-791
-517
-35
-57
-76
2
-25
-33
10
11
14
39
44
47
65
76
84
99
112
120
134
153
168
183
204
228
251
273
295
315
328
335
336
327
301
261
204
132
58
-3
-52
-92
-118
-132
-138
-140
-140
-136
-128
-120
-118
-115
-108
-100
-97
-96
-94
-95
-97
-96
-92
-91
-91
-95
-102
-103
-98
-100
-109
-108
-102
-101
-102
-99
-95
-93
-88
-83
-81
-80
-76
-72
-70
-69
-68
-66
-63
-60
-60
-64
-67
-65
-61
-61
-63
-63
-62
-64
-63
-59
-57
-56
-53
-53
-55
-55
-53
-51
-50
-49
-50
-54
-54
-48
-41
-42
-48
-47
-42
-41
-43
-43
-42
-43
-42
-40
-45
-50
-51
-56
-65
-68
-59
-41
-2
37
24
-27
-48
-43
-49
-51
-52
-62
-51
-48
-74
-48
-31
-121
-116
57
344
1095
1901
1304
-379
-1041
-451
-72
-124
-62
-4
-52
-33
4
-10
-1
25
31
38
53
64
79
94
104
119
137
154
173
194
214
234
258
279
296
311
324
330
329
316
287
239
175
105
35
-30
-84
-124
-151
-169
-176
-176
-172
-166
-160
-153
-146
-140
-134
-127
-121
-117
-112
-108
-107
-106
-104
-106
-109
-110
-110
-110
-111
-113
-112
-110
-108
-105
-101
-97
-92
-88
-84
-81
-76
-70
-65
-63
-60
-54
-51
-50
-45
-38
-33
-28
-24
-26
-25
-16
-12
-13
-9
-4
-3
1
6
8
11
14
15
17
20
20
21
24
27
27
26
28
31
33
34
36
39
42
42
40
36
30
17
11
25
53
93
125
114
70
49
56
57
55
56
49
46
48
43
50
58
15
-25
17
