# session 11
46
-9
86
134
-222
-561
-306
-87
-425
-596
-443
-628
-915
-781
-573
-547
-474
-293
-97
-24
-170
-342
-282
356
1628
2151
785
-788
-730
-74
-69
-137
173
409
280
-28
-148
-67
-24
135
407
329
136
406
704
548
437
623
602
276
47
-37
-141
-216
-274
-383
-399
-285
-236
-244
-204
-203
-226
-139
-66
-150
-267
-350
-411
-397
-400
-389
-146
-58
-512
-707
-52
768
1281
1329
450
-689
-769
-204
-76
-178
-181
-337
-510
-434
-296
-281
-373
-416
-169
233
387
326
303
269
175
137
165
214
243
129
-37
-34
-13
-129
-139
-12
-29
-178
-281
-161
202
263
-93
-64
196
-77
-305
-123
-185
-178
221
192
-149
-80
-22
110
1177
2155
1355
-255
-801
-537
-344
-104
75
-154
-332
-124
-4
-136
-84
248
432
199
-121
-30
319
419
338
366
309
101
71
90
-163
-336
-157
-69
-252
-432
-609
-650
-185
399
363
-112
-365
-258
-80
-120
-370
-483
-326
-219
-286
-309
-235
-117
32
112
324
904
1075
130
-870
-806
-340
-255
-244
-86
7
17
44
59
60
132
259
289
203
206
372
478
372
241
257
291
237
192
202
202
146
52
-17
-61
-126
-146
-72
-17
-38
-63
-86
-98
-59
-90
-273
-341
-150
-49
-207
-304
-246
-223
-189
-143
12
785
1659
1094
-544
-1233
-769
-419
-404
-379
-378
-314
-105
-5
-99
-106
117
321
315
290
343
319
310
447
493
375
334
348
255
109
-44
-151
-105
-16
-42
-87
-84
-138
-208
-129
38
79
-17
-81
-59
-18
-27
-137
-231
-131
-32
-182
-332
-253
144
1033
1636
791
-603
-872
-423
-259
-177
-41
-85
-121
-53
-57
-57
-1
-8
-2
74
82
55
115
172
184
214
168
38
6
13
-125
-277
-292
-297
-344
-316
-235
-252
-343
-332
-223
-180
-178
-101
-35
-87
-150
-114
-63
-124
-254
-340
-355
-315
-175
229
899
1165
396
-678
-899
-490
-277
-196
50
199
70
-57
-9
70
118
210
299
327
375
397
256
145
309
497
468
432
407
197
65
223
334
259
195
105
9
92
189
100
48
124
110
27
24
29
12
38
51
8
-47
-127
-202
-206
-27
548
1084
535
-801
-1334
-845
-454
-412
-287
-138
-129
-136
-97
-63
-20
86
183
137
30
56
153
198
242
219
8
-173
-134
-124
-240
-159
75
-4
-322
-351
-88
52
-13
-101
-97
9
31
-146
-234
-111
-98
-239
-273
-211
-166
-143
-181
-235
-182
119
748
1108
394
-744
-1016
-627
-391
-286
-173
-132
-53
37
39
92
189
183
189
312
406
381
307
297
429
584
545
382
344
402
353
233
197
194
137
98
107
102
90
78
48
59
115
99
-2
-82
-92
-83
-113
-122
-41
-10
-128
-237
-189
189
865
985
-46
-1165
-1248
-777
-495
-367
-302
-308
-262
-164
-121
-158
-266
-355
-281
-47
139
102
-28
-28
30
59
165
201
-2
-130
-22
0
-111
-100
-30
-69
-110
-54
-10
-47
-68
-21
11
2
-1
-25
-77
-86
-64
-48
0
16
-52
-112
-69
426
1494
1881
574
-919
-928
-250
-40
-47
28
46
83
172
153
80
130
287
398
376
297
294
372
411
336
240
241
253
163
65
53
67
74
92
85
12
-96
-157
-123
-46
13
49
44
-32
-142
-218
-243
-251
-279
-320
-365
-392
-367
-350
-227
417
1129
598
-890
-1527
-1066
-694
-639
-535
-444
-331
-155
-166
-252
-90
67
-59
-136
65
268
265
182
161
106
-22
13
182
128
-68
-108
-140
-251
-181
6
3
-99
-66
28
63
89
110
62
-2
-11
-5
-16
-39
-74
-62
7
34
-2
-29
198
1072
2024
1596
-7
-796
-285
173
92
47
174
265
267
156
29
98
282
326
272
293
329
329
399
460
349
229
273
269
89
-56
-87
-93
-63
-80
-243
-366
-305
-230
-230
-205
-175
-216
-268
-284
-323
-375
-368
-361
-415
-430
-373
-392
-486
-160
939
1779
908
-888
-1487
-820
-404
-512
-399
-87
-82
-252
-223
-121
-128
-139
-107
-41
85
181
200
233
268
229
159
128
109
43
-8
31
35
-91
-205
-205
-132
-25
36
-4
-32
40
108
60
-23
27
130
37
-109
-5
74
-113
-126
115
267
816
1850
1800
220
-925
-641
-49
109
77
34
24
25
-7
68
215
182
109
212
233
89
101
223
181
72
31
-4
-40
-111
-238
-263
-194
-225
-307
-321
-314
-271
-196
-215
-296
-313
-300
-298
-251
-166
-159
-355
-597
-508
-226
-270
-503
-474
-90
798
1760
1409
-192
-1127
-826
-387
-248
-213
-268
-263
-145
-126
-154
-71
24
52
82
123
170
237
293
316
343
378
362
287
231
204
143
71
38
7
-14
36
112
144
142
138
165
213
227
225
238
220
177
148
116
62
-10
-48
-23
176
900
1731
1294
-273
-1047
-617
-260
-257
-164
-82
-88
-77
-139
-206
-123
-12
14
40
83
86
82
96
72
34
89
145
20
-190
-276
-261
-261
-288
-326
-350
-331
-313
-347
-339
-180
-29
-106
-255
-244
-213
-257
-202
-131
-196
-155
45
10
-317
-398
306
1334
1213
-253
-1246
-956
-501
-368
-144
24
-56
-102
-60
-58
1
105
83
33
158
328
327
230
207
268
318
308
251
172
107
84
68
34
52
114
124
118
179
238
249
286
345
324
224
133
112
150
180
147
44
-74
-119
-79
98
642
1245
913
-310
-1031
-767
-360
-178
-37
-38
-168
-188
-145
-153
-124
-80
-104
-100
-31
2
39
106
55
-50
27
175
82
-214
-333
-100
88
-159
-528
-575
-339
-29
66
-203
-357
-74
115
-44
-113
-82
-255
-402
-293
-169
-177
-243
-347
-438
-286
432
1377
1253
-203
-1240
-872
-218
-94
-129
-126
-157
-110
2
68
133
232
299
297
282
337
409
373
320
359
362
309
319
286
174
204
306
258
192
232
250
220
184
115
79
126
159
145
121
61
20
48
-12
-193
-284
-257
-238
-215
-43
486
1014
545
-780
-1413
-935
-412
-297
-300
-346
-329
-125
-23
-162
-207
-82
-16
16
36
-50
-52
81
36
-90
37
183
103
18
33
112
307
341
-43
-399
-307
-81
-51
-67
-14
7
-38
-83
-87
-51
-23
-60
-127
-118
-47
-49
-115
-107
17
391
1047
1221
267
-848
-901
-320
-33
-17
32
124
292
505
435
-11
-244
129
534
460
267
276
326
395
512
479
288
162
133
124
146
151
52
-69
-103
-105
-120
-101
-91
-143
-170
-148
-181
-277
-326
-291
-268
-335
-397
-363
-339
-392
-402
-187
433
1087
696
-771
-1671
-1255
-624
-428
-241
-72
-276
-552
-414
-51
82
-3
4
155
226
120
37
149
300
289
234
247
194
81
87
88
-83
-178
-24
104
61
30
68
106
192
300
250
55
-45
16
93
123
95
7
-18
18
-29
-93
-85
194
1187
2186
1563
-152
-760
-184
93
-43
15
127
40
-71
-15
104
114
87
118
106
65
131
231
211
127
119
176
156
11
-160
-258
-284
-282
-280
-267
-238
-248
-303
-312
-260
-254
-307
-326
-298
-272
-297
-416
-558
-568
-426
-296
-347
-562
-562
199
1437
1679
309
-1084
-1130
-555
-304
-200
-54
-82
-202
-131
26
32
40
167
154
18
81
254
273
235
268
291
281
268
207
109
63
34
-43
-90
-48
-6
-18
-51
-53
19
103
129
189
265
192
90
106
77
30
106
96
-43
-38
256
1048
1948
1582
-13
-880
-462
-67
-123
-115
-15
14
19
-12
-50
-13
14
-29
-17
65
88
61
67
84
64
32
4
-73
-217
-327
-328
-284
-277
-339
-435
-455
-361
-247
-210
-294
-358
-205
-49
-167
-330
-361
-373
-253
-66
-208
-457
-370
-218
66
1032
1788
927
-614
-1012
-545
-326
-321
-216
-155
-206
-229
-127
41
107
35
-21
49
225
415
479
362
236
282
395
375
274
235
209
111
20
4
-7
-51
-33
100
212
189
137
145
99
1
40
165
146
55
89
91
-60
-98
-28
32
656
1710
1491
-175
-1068
-574
-205
-286
-184
-100
-205
-194
-112
-140
-159
-108
-60
-25
5
17
34
40
0
2
91
45
-217
-339
-190
-178
-425
-511
-339
-288
-385
-299
-122
-152
-204
-58
-19
-273
-403
-42
373
150
-354
-225
196
52
-263
-240
-170
256
1208
1288
14
-830
-449
-40
-89
-67
33
11
32
123
112
36
19
73
205
324
262
133
174
270
218
143
187
224
149
58
26
38
100
153
101
52
137
217
175
112
89
76
51
-10
-35
34
34
-62
-39
6
-111
-172
-126
3
569
1064
292
-1073
-1322
-729
-457
-384
-191
-157
-256
-237
-159
-122
-105
-102
-106
-90
-17
112
134
-33
-116
57
131
-91
-146
90
28
-249
-130
-2
-268
-168
411
484
8
-229
-145
-68
-17
31
9
-40
-52
-75
-71
15
29
7
112
86
81
819
1587
874
-581
-983
-532
-211
4
162
66
11
182
258
165
138
176
198
252
310
350
426
434
280
138
137
165
122
71
110
190
141
-41
-130
-30
79
56
54
174
170
-58
-164
-59
-72
-199
-186
-162
-275
-309
-208
-200
-310
-355
-59
619
863
-25
-1110
-1188
-675
-422
-338
-209
-239
-375
-265
-5
-20
-244
-319
-280
-220
-11
174
77
-100
-95
25
99
33
-87
-75
-1
-24
-5
111
115
42
135
356
429
194
-143
-225
-77
3
-8
40
102
59
-28
-28
-1
-36
-61
-36
243
1014
1477
587
-747
-951
-391
-125
-40
109
65
-43
86
212
112
102
331
422
263
215
350
420
399
359
295
305
374
263
80
176
350
214
-18
-98
-206
-319
-206
-43
-97
-219
-212
-145
-120
-159
-243
-304
-307
-262
-234
-342
-483
-432
-175
439
1257
1082
-461
-1610
-1204
-363
-247
-485
-304
48
-118
-374
-8
390
276
193
263
90
-61
55
141
142
157
84
-8
1
-13
-50
-6
26
-10
-45
-113
-190
-145
-69
-110
-141
-67
-15
-2
-8
-98
-143
-35
16
-42
-46
-62
-125
-139
-101
409
1597
2077
839
-538
-556
-84
-52
-100
1
39
-5
-48
-31
38
67
75
124
183
245
255
185
231
325
162
12
184
198
-175
-371
-233
-155
-188
-170
-131
-104
-91
-115
-112
-84
-134
-220
-254
-289
-334
-343
-332
-316
-339
-365
-300
-248
96
1221
1926
706
-1027
-1199
-500
-219
-178
-143
-181
-139
-111
-211
-182
-10
41
25
90
145
144
181
246
257
225
186
131
79
63
47
-11
-72
-98
-120
-144
-98
15
54
-5
0
86
135
133
93
21
9
56
30
-57
-61
6
-32
41
835
1853
1495
-122
-974
-552
-135
-143
-136
-108
-119
-66
-51
-93
-23
86
67
16
52
96
115
150
145
79
61
90
47
-46
-108
-152
-185
-199
-225
-247
-262
-323
-349
-231
-142
-223
-260
-126
-48
-123
-204
-262
-308
-261
-179
-189
-284
-277
295
1344
1535
258
-926
-844
-357
-235
-174
-56
-48
-48
9
37
71
92
22
-7
101
230
355
472
446
313
243
208
150
122
101
41
-11
-37
-70
-90
-56
2
20
6
22
64
85
77
49
19
7
-5
-3
16
-62
-203
-225
-118
316
1257
1651
489
-915
-954
-339
-167
-170
-79
-105
-168
-134
-108
-107
-72
-33
-1
59
117
145
159
168
157
113
76
102
96
-59
-201
-199
-237
-324
-241
-140
-249
-343
-227
-78
-26
-40
-98
-151
-156
-157
-198
-262
-272
-233
-228
-212
-217
-236
355
1519
1563
6
-1075
-690
-150
-116
-65
91
92
-45
-140
-86
9
19
29
107
183
237
272
229
140
134
187
141
23
-7
13
-11
-3
42
22
-6
36
53
12
15
86
162
187
129
34
6
13
-57
-123
-67
-42
-156
-235
-141
296
1052
1199
95
-1026
-940
-376
-213
-176
-62
-59
-71
-11
-6
-8
81
148
130
143
210
223
180
160
139
85
44
23
-12
-39
-38
-45
-66
-66
-32
6
6
-24
-46
-42
-33
-45
-73
-103
-126
-128
-131
-136
-83
-52
-186
-336
-323
-131
460
1231
1051
-228
-1027
-661
-184
-138
-104
-17
-73
-129
-51
35
45
54
114
179
177
76
-30
-1
141
286
372
357
265
182
111
22
-34
-25
18
45
8
-31
51
169
147
37
-13
-4
-9
-41
-75
-117
-151
-108
-30
-84
-301
-438
-56
788
964
-179
-1303
-1133
-401
-112
-141
-179
-195
-133
-34
17
35
33
28
58
90
101
133
185
189
135
79
52
19
-29
-50
-56
-83
-88
-58
-81
-145
-120
-49
-88
-149
-65
34
-36
-141
-115
-66
-139
-263
-287
-212
-172
-181
-177
-91
371
1080
940
-299
-1103
-713
-181
-101
-66
3
-34
-36
30
43
43
93
149
192
238
268
273
272
249
185
121
91
71
60
89
154
195
175
132
135
168
194
223
245
214
166
177
221
202
143
136
160
146
95
28
-31
-132
-211
283
1386
1692
497
-622
-523
-126
-126
-134
-57
-84
-98
-49
-37
-29
20
68
99
122
134
146
159
143
92
51
57
87
91
56
13
-2
-1
-8
-16
-23
-39
-50
-41
-46
-89
-132
-142
-155
-190
-204
-203
-232
-259
-274
-325
-391
-403
-123
616
1014
141
-1108
-1240
-624
-338
-321
-243
-220
-239
-198
-176
-191
-168
-116
-70
-20
18
15
-13
-40
-90
-179
-246
-252
-234
-221
-203
-188
-177
-163
-161
-173
-179
-182
-181
-162
-157
-172
-169
-164
-167
-143
-132
-153
-131
-114
-181
-262
-299
14
978
1610
698
-694
-834
-214
-1
-17
78
112
120
189
207
211
296
368
370
386
435
450
418
383
354
309
266
249
247
250
265
284
289
285
275
249
232
249
