# session 1
-67
-67
-65
-64
-65
-62
-61
-64
-55
-44
-83
-166
-224
-235
-235
-245
-257
-256
-231
-197
-197
-242
-266
-239
-223
-235
-200
-152
-166
-154
-111
-189
-277
-221
-67
456
1272
1179
-102
-925
-574
-156
-160
-141
-77
-101
-88
-61
-81
-45
55
111
103
92
121
170
190
179
189
224
226
211
268
361
355
292
300
320
276
265
309
298
246
223
163
40
-18
26
46
-2
-38
-21
23
42
-22
-127
-154
-96
-56
-67
-84
-80
-62
-58
-87
-115
-102
-89
-108
-108
-76
-85
-152
-206
-205
-184
-169
-141
-106
-119
-177
-187
-133
-114
-149
-157
-145
-137
-91
-85
-173
-164
-54
97
766
1756
1570
64
-845
-488
-79
-92
-69
3
-55
-135
-141
-85
-26
-40
-70
1
84
34
-33
11
57
62
113
151
134
160
185
153
166
181
76
-4
71
173
194
175
146
91
12
-51
-49
26
57
-58
-170
-122
-49
-59
-23
60
21
-98
-121
-72
-89
-147
-129
-68
-47
-18
9
-97
-226
-168
-94
-206
-276
-162
-113
-208
-226
-132
-78
-86
-97
-102
-128
-179
-171
-54
-3
-115
-180
-100
-27
-25
-93
-186
-144
43
398
1035
1294
402
-738
-808
-268
-69
-61
18
-2
-78
-58
-12
-13
-28
-21
13
52
66
70
96
128
133
140
168
165
117
95
142
203
192
133
139
180
136
100
195
236
105
30
87
78
5
27
77
20
-73
-72
3
23
-31
-59
-33
-35
-58
-36
-13
-57
-107
-93
-48
-38
-77
-129
-143
-132
-133
-131
-108
-110
-129
-108
-96
-145
-164
-100
-60
-94
-108
-73
-74
-114
-116
-84
-90
-130
-153
-124
-56
-61
-148
-172
-106
240
1115
1701
938
-313
-564
-168
-58
-89
-15
0
-11
35
43
14
1
-8
16
72
85
70
93
120
98
69
87
131
142
117
104
108
99
85
87
96
96
87
76
64
45
21
-6
-43
-76
-85
-85
-97
-111
-111
-112
-130
-150
-145
-120
-105
-114
-131
-147
-157
-162
-180
-209
-208
-177
-180
-206
-188
-153
-164
-198
-209
-201
-185
-153
-113
-94
-93
-74
-42
-48
-104
-131
-84
-52
-72
-59
-61
-140
-164
-109
173
1082
1925
1263
-306
-826
-310
-31
-77
-30
11
4
39
54
43
65
82
73
72
89
113
131
134
139
166
203
216
202
200
210
192
162
161
174
166
140
125
130
127
95
54
26
-9
-47
-57
-59
-84
-93
-71
-62
-73
-78
-86
-103
-116
-134
-154
-151
-141
-160
-189
-203
-207
-195
-173
-182
-218
-212
-178
-197
-246
-240
-201
-167
-116
-87
-128
-166
-148
-134
-138
-112
-78
-97
-134
-94
-56
-118
-151
-97
153
992
1878
1396
-79
-669
-244
-17
-92
-44
-2
-35
-33
-47
-53
7
34
-11
-27
9
38
36
33
58
90
106
117
125
112
106
121
124
110
118
132
118
95
87
77
68
57
24
-18
-39
-41
-36
-23
-20
-37
-44
-31
-26
-30
-24
-18
-25
-26
-26
-53
-91
-104
-101
-104
-113
-122
-126
-130
-158
-192
-192
-174
-183
-207
-205
-186
-176
-161
-116
-39
13
-27
-111
-141
-109
-66
-83
-171
-189
-114
-121
-184
-153
82
767
1512
1166
-93
-636
-185
100
-26
-40
46
41
22
39
68
92
69
33
48
69
61
71
90
92
118
147
118
90
128
148
103
87
116
122
108
97
74
57
63
66
54
31
11
13
17
-1
-14
-15
-26
-35
-32
-36
-50
-53
-42
-38
-51
-70
-92
-111
-102
-77
-84
-112
-125
-131
-134
-120
-104
-107
-117
-121
-124
-131
-146
-153
-131
-94
-66
-50
-54
-76
-93
-91
-89
-98
-90
-72
-98
-124
-76
-73
-158
-146
27
429
1059
1158
183
-783
-691
-206
-98
-112
-45
-53
-72
-22
5
-7
-1
13
35
59
50
36
65
97
108
127
137
127
137
157
156
152
148
129
102
86
101
131
122
87
101
142
134
92
71
59
31
12
17
11
-26
-48
-21
1
-33
-83
-84
-59
-61
-80
-83
-88
-115
-120
-95
-99
-138
-145
-117
-108
-123
-127
-115
-113
-131
-154
-162
-158
-141
-95
-46
-55
-109
-134
-112
-92
-87
-76
-82
-119
-115
-80
-112
-138
-89
74
739
1706
1570
111
-815
-461
-46
-71
-54
16
2
16
20
-17
4
57
87
120
119
78
80
112
97
76
115
155
132
96
90
67
15
-8
-4
-26
-53
-44
-24
-20
-20
-7
16
38
39
3
-37
-42
-20
-8
-10
-11
-13
-25
-31
-24
-36
-66
-72
-62
-69
-73
-67
-86
-114
-114
-104
-101
-91
-89
-122
-146
-125
-109
-143
-198
-225
-183
-93
-56
-104
-140
-94
-33
-61
-137
-131
-76
-86
-97
-78
-140
-188
-122
-11
495
1464
1608
311
-773
-527
-19
-28
-88
-7
-1
-18
26
54
45
38
47
61
62
62
86
114
120
121
129
138
141
134
124
127
121
82
35
-5
-42
-42
-4
-9
-59
-52
6
5
-64
-106
-86
-48
-29
-26
-27
-34
-34
-21
-32
-68
-84
-78
-64
-38
-49
-111
-134
-111
-121
-144
-134
-132
-147
-142
-158
-215
-223
-159
-123
-133
-118
-100
-104
-81
-50
-73
-109
-99
-61
-37
-53
-64
-36
-22
-19
-3
-44
-87
-48
113
766
1780
1787
426
-544
-286
77
13
-25
12
3
31
37
-8
10
60
64
60
70
64
62
83
103
111
128
143
116
75
74
80
52
30
13
-35
-47
-5
-32
-121
-130
-80
-64
-59
-51
-58
-45
-25
-57
-101
-95
-78
-90
-92
-69
-62
-84
-109
-126
-135
-124
-110
-117
-116
-93
-93
-119
-123
-111
-117
-121
-119
-136
-141
-116
-126
-171
-171
-150
-171
-178
-124
-70
-63
-91
-131
-133
-92
-105
-167
-152
-92
-96
-104
-104
-169
-192
-101
170
904
1655
1228
-93
-657
-249
30
-26
-18
20
7
24
40
41
65
81
80
96
124
145
148
138
143
165
175
174
183
181
146
116
111
91
55
46
47
31
25
32
36
50
65
60
58
62
50
29
17
29
55
37
-31
-58
-30
-32
-58
-53
-35
-39
-59
-85
-98
-84
-76
-108
-139
-124
-89
-79
-92
-105
-105
-85
-63
-75
-110
-134
-143
-134
-120
-121
-91
-34
-48
-119
-135
-112
-124
-146
-130
-111
-119
-102
-66
-113
-196
-163
52
574
1199
1033
-71
-804
-532
-132
-88
-59
5
-18
-10
31
14
11
56
62
42
65
103
102
85
98
130
136
120
112
117
126
115
68
37
40
16
-19
3
23
-23
-48
-12
19
42
76
61
12
30
82
59
-10
-26
-4
-6
-19
-21
-36
-50
-46
-66
-102
-99
-89
-110
-104
-72
-84
-106
-90
-81
-91
-84
-74
-78
-77
-81
-93
-95
-102
-128
-125
-81
-37
-10
-5
-33
-63
-65
-62
-75
-83
-77
-84
-87
-51
-42
-96
-93
79
522
1114
1128
200
-651
-548
-93
31
21
61
52
40
72
87
90
106
111
113
121
121
131
161
168
144
133
143
138
119
105
93
75
56
31
3
-8
-6
-14
-26
-23
-4
17
25
11
-6
-7
-8
-21
-37
-44
-46
-48
-59
-73
-76
-80
-93
-102
-106
-114
-125
-126
-122
-122
-126
-126
-123
-123
-126
-127
-124
-122
-116
-114
-135
-159
-144
-99
-67
-51
-46
-71
-109
-110
-85
-85
-101
-85
-74
-93
-74
-46
-98
-120
-12
288
958
1485
846
-469
-869
-350
-41
-52
4
31
0
44
81
60
62
78
93
146
184
144
94
100
130
149
155
146
130
119
107
86
62
37
11
-12
-27
-33
-33
-27
-19
-16
-11
2
2
-21
-33
-29
-36
-43
-26
-26
-51
-59
-59
-71
-48
-12
-46
-124
-168
-174
-159
-132
-120
-122
-116
-113
-118
-114
-101
-95
-111
-151
-171
-141
-98
-71
-46
-34
-50
-68
-72
-71
-76
-74
-56
-62
-76
-49
-66
-151
-147
-24
348
1158
1601
721
-517
-654
-157
-4
-41
-2
-5
2
49
36
22
60
76
73
100
121
110
105
134
172
178
154
139
144
145
129
99
78
72
54
11
-24
-23
-3
-2
-26
-44
-42
-37
-29
-13
-18
-41
-37
-17
-26
-46
-47
-44
-55
-69
-76
-77
-84
-99
-107
-103
-104
-107
-104
-108
-122
-125
-115
-110
-108
-114
-142
-172
-173
-146
-103
-57
-43
-78
-116
-113
-93
-95
-106
-90
-80
-98
-84
-66
-124
-159
-105
60
640
1421
1255
46
-677
-367
-23
-41
-36
6
-28
-25
13
18
34
62
56
48
80
118
118
100
110
133
137
131
137
140
131
114
87
59
42
22
-10
-34
-34
-28
-38
-44
-36
-40
-60
-54
-31
-39
-63
-53
-35
-40
-48
-47
-51
-53
-50
-54
-66
-78
-86
-85
-80
-82
-87
-95
-104
-105
-99
-97
-94
-89
-90
-93
-92
-100
-119
-126
-118
-111
-90
-44
-19
-40
-67
-72
-66
-65
-73
-74
-75
-83
-63
-36
-87
-139
-95
61
589
1373
1342
210
-607
-381
-11
-8
-18
27
7
13
49
46
40
57
73
82
95
122
144
137
128
150
165
156
155
158
143
129
121
90
51
33
21
-4
-25
-36
-39
-34
-38
-59
-67
-50
-40
-52
-60
-53
-44
-39
-37
-40
-44
-49
-60
-73
-75
-66
-66
-76
-79
-82
-99
-111
-105
-100
-104
-101
-90
-89
-98
-101
-101
-109
-109
-93
-83
-92
-102
-103
-102
-102
-100
-107
-125
-134
-120
-93
-55
-18
-16
-53
-81
-76
-64
-68
-70
-52
-48
-68
-53
-43
-106
-134
-58
183
827
1468
1062
-124
-612
-228
25
-31
-14
26
3
18
42
35
50
75
71
71
93
110
116
125
136
140
148
155
143
126
117
106
83
57
34
16
-1
-20
-33
-37
-41
-48
-49
-45
-44
-47
-44
-35
-29
-29
-32
-35
-36
-34
-38
-37
-24
-29
-58
-72
-65
-63
-68
-66
-66
-69
-76
-84
-83
-75
-74
-75
-77
-81
-83
-78
-70
-58
-49
-61
-87
-97
-82
-67
-69
-76
-63
-38
-35
-63
-95
-110
-112
-107
-82
-33
17
28
-4
-61
-103
-87
-42
-41
-58
-47
-46
-39
-16
-64
-120
-67
114
694
1524
1412
93
-794
-465
-4
-2
-26
29
19
19
36
28
45
78
82
86
108
120
128
145
156
162
179
184
166
153
152
135
100
70
42
13
-10
-25
-39
-46
-48
-53
-58
-56
-53
-53
-45
-29
-20
-17
-16
-17
-20
-18
-20
-29
-46
-64
-70
-65
-73
-89
-91
-90
-97
-101
-95
-94
-99
-98
-98
-98
-98
-116
-137
-114
-67
-61
-88
-101
-88
-74
-86
-113
-112
-81
-66
-68
-52
-24
-39
-119
-187
-167
-116
-117
-130
-88
-32
-17
-22
-22
-37
-70
-87
-69
-53
-60
-81
-110
-95
-37
-79
-170
-132
2
425
1247
1409
217
-870
-672
-143
-82
-79
2
-27
-25
58
77
56
68
84
92
125
187
225
204
195
251
271
209
195
262
274
212
188
199
172
113
68
49
43
36
37
48
23
-18
-4
17
-28
-46
30
65
-9
-35
32
40
-10
10
33
-13
-17
21
-10
-43
-16
-39
-105
-93
-47
-65
-92
-76
-72
-106
-134
-148
-175
-191
-166
-138
-142
-134
-97
-105
-149
-116
-56
-99
-160
-145
-140
-138
-64
-6
-22
-49
-84
-119
-82
-25
-58
-124
-104
-62
-98
-99
-35
-75
-159
-69
319
987
1296
506
-632
-801
-285
-47
-58
2
53
50
33
13
53
108
88
65
99
125
124
134
146
145
146
156
149
134
145
162
137
97
95
107
91
42
-13
-32
-3
18
-17
-58
-41
-38
-112
-163
-129
-99
-97
-73
-52
-46
-21
-3
-21
-31
-17
-4
-1
-12
-36
-49
-50
-48
-41
-31
-36
-48
-51
-55
-73
-81
-68
-64
-79
-89
-85
-73
-55
-49
-69
-80
-69
-71
-89
-93
-89
-82
-71
-80
-103
-96
-62
-31
-15
-36
-72
-77
-74
-93
-93
-55
-26
-40
-68
-45
-16
-81
-133
-54
187
850
1643
1324
-119
-907
-491
-84
-94
-35
46
-16
-48
-16
6
41
68
57
61
83
83
93
136
167
165
167
180
177
162
157
156
141
115
92
84
80
57
31
30
29
7
-18
-49
-77
-61
-35
-61
-86
-64
-48
-49
-37
-33
-50
-58
-61
-65
-68
-82
-97
-90
-84
-102
-114
-100
-88
-102
-118
-113
-101
-99
-104
-114
-111
-88
-77
-94
-101
-81
-74
-94
-102
-86
-79
-92
-93
-76
-72
-85
-89
-74
-61
-55
-34
2
17
-7
-44
-56
-35
-19
-32
-38
-23
-32
-32
10
-13
-87
-47
142
593
1254
1264
217
-670
-521
-97
-18
-11
29
7
16
58
58
62
84
80
70
81
108
138
152
146
150
172
188
196
218
236
206
164
169
177
145
126
137
125
85
38
-11
-54
-88
-120
-147
-157
-151
-144
-149
-152
-134
-106
-86
-82
-99
-125
-127
-98
-86
-114
-135
-124
-115
-119
-120
-130
-143
-127
-103
-122
-151
-132
-102
-107
-117
-113
-109
-98
-87
-100
-106
-86
-86
-114
-111
-76
-67
-91
-102
-88
-77
-79
-76
-74
-93
-119
-118
-90
-67
-52
-32
-21
-40
-62
-54
-35
-45
-87
-110
-86
-72
-70
-29
-41
-124
-95
14
292
1123
1813
1068
-353
-667
-149
16
-57
14
36
-4
29
59
60
91
114
105
104
128
159
166
145
131
145
171
184
185
197
216
208
181
177
183
172
163
162
142
103
69
34
-11
-61
-101
-116
-107
-106
-122
-130
-123
-106
-87
-82
-91
-93
-79
-56
-44
-58
-73
-69
-60
-55
-55
-65
-68
-55
-61
-84
-85
-80
-91
-94
-84
-78
-69
-59
-63
-72
-70
-67
-69
-69
-70
-69
-71
-78
-77
-70
-80
-92
-79
-74
-101
-116
-107
-100
-82
-40
-4
