# session 30
324
302
291
301
297
255
213
185
149
117
109
114
132
160
159
110
60
40
24
12
1
-22
-30
-28
-64
-68
-38
-121
-197
-84
128
713
1696
1700
147
-1059
-759
-208
-200
-218
-145
-181
-198
-158
-162
-165
-140
-135
-132
-114
-101
-92
-76
-55
-32
-8
15
41
72
102
131
162
188
206
218
221
210
178
125
58
-14
-88
-157
-212
-252
-279
-291
-292
-287
-280
-271
-265
-259
-248
-240
-237
-231
-223
-219
-218
-215
-211
-210
-212
-213
-209
-206
-207
-208
-202
-198
-199
-198
-191
-182
-176
-171
-166
-160
-155
-149
-143
-136
-129
-121
-114
-104
-94
-93
-98
-95
-88
-91
-106
-113
-102
-74
-31
18
27
-11
-39
-36
-33
-30
-28
-41
-36
-17
-39
-30
12
-61
-118
23
293
950
1900
1742
104
-1010
-615
-58
-44
-38
38
6
11
64
62
61
89
99
102
118
135
152
171
192
214
239
263
285
310
340
371
394
412
425
431
429
420
393
346
280
199
115
38
-28
-78
-110
-129
-139
-139
-140
-144
-142
-133
-126
-123
-118
-114
-114
-115
-120
-127
-132
-132
-135
-143
-150
-154
-158
-164
-166
-165
-165
-167
-165
-162
-159
-156
-157
-158
-154
-151
-152
-149
-141
-137
-137
-133
-129
-125
-121
-125
-141
-155
-155
-145
-123
-74
-23
-25
-72
-97
-93
-93
-88
-88
-100
-88
-81
-103
-73
-59
-160
-167
2
315
1126
1958
1302
-453
-1115
-486
-86
-134
-71
-12
-59
-37
5
-3
6
30
37
49
70
86
103
120
140
165
192
218
247
278
308
334
356
375
388
391
386
369
335
279
210
135
62
-1
-49
-86
-114
-130
-134
-132
-127
-119
-112
-107
-100
-93
-93
-101
-104
-97
-93
-97
-100
-104
-113
-122
-124
-124
-129
-136
-142
-147
-149
-148
-148
-150
-151
-150
-148
-145
-140
-138
-139
-138
-134
-133
-132
-130
-129
-129
-127
-125
-126
-126
-124
-124
-129
-143
-161
-166
-147
-108
-55
-15
-30
-76
-92
-84
-80
-76
-81
-86
-67
-66
-81
-39
-45
-145
-108
78
426
1271
1929
1058
-555
-930
-296
-25
-95
-40
-9
-44
-14
13
9
29
49
52
64
80
94
111
129
147
172
198
219
241
271
302
325
343
362
380
387
382
365
332
279
212
140
72
11
-41
-78
-98
-110
-117
-117
-112
-105
-99
-96
-96
-95
-93
-92
-94
-96
-98
-100
-101
-104
-109
-114
-115
-117
-122
-126
-128
-128
-127
-128
-132
-132
-129
-128
-128
-127
-126
-125
-122
-121
-123
-121
-117
-115
-113
-109
-105
-103
-102
-102
-103
-105
-105
-103
-104
-113
-126
-128
-112
-83
-40
-3
-13
-59
-79
-73
-72
-68
-70
-84
-70
-61
-82
-52
-39
-137
-131
66
428
1215
1867
1062
-603
-1104
-456
-90
-118
-47
-5
-49
-21
13
4
20
43
48
64
81
88
102
125
145
167
190
211
235
265
294
314
327
339
349
355
356
350
324
278
216
146
75
11
-45
-94
-127
-144
-151
-151
-144
-139
-137
-129
-120
-117
-115
-114
-115
-117
-118
-119
-121
-128
-135
-139
-145
-155
-162
-163
-163
-163
-163
-163
-161
-159
-157
-156
-153
-152
-150
-146
-143
-142
-140
-134
-130
-127
-122
-125
-142
-154
-147
-128
-95
-40
-7
-33
-75
-82
-78
-75
-69
-77
-79
-60
-71
-77
-29
-67
-161
-87
120
612
1568
1860
510
-948
-886
-218
-76
-94
2
-6
-34
12
26
22
50
63
65
84
103
117
140
160
175
202
239
268
285
304
332
358
379
397
405
402
391
362
310
240
164
87
18
-43
-91
-117
-131
-148
-161
-158
-150
-145
-138
-127
-121
-117
-106
-101
-106
-110
-106
-105
-107
-110
-118
-128
-135
-138
-143
-147
-149
-153
-157
-156
-154
-154
-154
-155
-156
-151
-144
-142
-144
-142
-138
-133
-129
-127
-126
-123
-121
-120
-117
-121
-136
-151
-150
-133
-103
-55
-17
-34
-82
-102
-96
-91
-85
-93
-99
-81
-84
-97
-54
-68
-168
-127
61
450
1324
1875
865
-706
-952
-300
-60
-107
-31
-10
-47
-12
12
6
27
48
52
64
78
90
110
134
154
177
204
230
259
291
322
350
373
392
406
416
416
398
359
301
229
150
75
11
-41
-82
-110
-122
-122
-121
-119
-114
-106
-97
-90
-88
-87
-86
-86
-87
-88
-94
-100
-97
-92
-98
-110
-117
-124
-131
-135
-138
-141
-139
-139
-144
-148
-146
-144
-143
-139
-136
-137
-137
-136
-137
-138
-135
-133
-132
-128
-126
-132
-141
-154
-164
-154
-122
-79
-37
-30
-70
-103
-103
-101
-102
-102
-112
-106
-95
-117
-96
-63
-149
-184
-6
315
1020
1845
1397
-314
-1204
-665
-148
-140
-92
-22
-60
-40
6
-7
1
34
42
49
71
89
105
126
146
170
199
227
256
288
320
352
378
395
408
418
417
405
377
324
252
173
90
8
-60
-109
-143
-165
-179
-185
-179
-167
-156
-147
-138
-127
-117
-109
-105
-102
-101
-102
-103
-105
-107
-112
-118
-122
-126
-130
-133
-135
-140
-144
-143
-142
-141
-138
-135
-133
-132
-131
-129
-128
-129
-132
-141
-157
-164
-155
-135
-95
-43
-30
-68
-100
-103
-102
-97
-93
-103
-93
-80
-105
-90
-53
-133
-187
-58
189
874
1861
1646
-65
-1149
-695
-138
-132
-104
-15
-50
-47
1
-3
3
34
44
55
78
92
104
124
147
175
204
231
263
299
331
362
396
421
435
444
440
414
365
297
211
120
39
-33
-94
-138
-164
-184
-195
-190
-181
-176
-169
-156
-146
-141
-137
-130
-122
-116
-117
-121
-121
-120
-125
-131
-134
-135
-138
-144
-149
-150
-153
-156
-154
-152
-152
-149
-147
-148
-149
-147
-146
-141
-135
-133
-128
-118
-120
-136
-152
-158
-152
-127
-82
-35
-22
-54
-88
-95
-93
-89
-86
-96
-90
-73
-95
-96
-47
-98
-172
-67
137
645
1603
1795
397
-922
-746
-138
-72
-102
-13
-27
-46
1
10
7
35
49
53
69
84
95
113
133
151
174
204
234
263
295
331
362
387
405
417
419
408
378
326
254
173
89
10
-55
-99
-127
-143
-148
-148
-147
-145
-145
-144
-139
-134
-130
-121
-110
-101
-100
-104
-107
-103
-102
-108
-117
-118
-115
-117
-123
-126
-127
-129
-130
-129
-129
-126
-121
-121
-124
-117
-107
-104
-107
-107
-104
-101
-99
-103
-111
-109
-98
-96
-107
-122
-134
-135
-117
-85
-42
-9
-19
-60
-81
-80
-81
-76
-79
-94
-83
-78
-102
-72
-54
-153
-158
27
373
1190
1970
1260
-499
-1142
-509
-107
-147
-82
-25
-68
-40
-1
-18
-10
22
33
42
56
67
86
107
124
150
182
207
231
265
298
327
356
381
399
413
416
400
366
313
239
152
67
-9
-71
-119
-161
-189
-201
-204
-202
-191
-180
-176
-170
-155
-141
-134
-127
-119
-115
-113
-112
-111
-113
-116
-120
-124
-128
-133
-138
-141
-137
-135
-138
-138
-133
-131
-131
-128
-123
-118
-113
-111
-113
-113
-111
-111
-108
-102
-99
-102
-108
-119
-129
-128
-113
-75
-20
5
-27
-66
-72
-67
-65
-59
-68
-75
-55
-64
-78
-31
-54
-153
-99
64
458
1435
2013
869
-766
-932
-251
-59
-111
-16
-4
-43
0
25
17
37
53
57
76
94
103
119
142
164
184
208
236
266
294
323
355
383
403
418
422
410
384
340
269
178
88
13
-51
-102
-138
-163
-179
-183
-177
-173
-170
-163
-156
-149
-141
-133
-127
-123
-118
-114
-113
-113
-115
-119
-125
-130
-136
-141
-143
-144
-147
-148
-148
-149
-151
-148
-145
-144
-140
-135
-134
-134
-128
-120
-116
-117
-116
-109
-104
-101
-99
-97
-96
-96
-93
-88
-86
-86
-86
-82
-84
-99
-116
-113
-90
-59
-18
17
3
-40
-57
-53
-56
-53
-53
-65
-52
-45
-72
-42
-22
-118
-124
38
309
1060
1915
1393
-271
-976
-418
-39
-101
-58
1
-42
-25
12
1
12
38
40
45
63
75
87
106
123
143
167
192
218
250
281
306
332
362
382
394
401
394
367
322
257
174
89
15
-48
-100
-136
-155
-163
-165
-162
-159
-157
-151
-143
-140
-135
-124
-116
-113
-109
-103
-103
-104
-101
-100
-107
-116
-119
-121
-125
-130
-130
-128
-130
-134
-134
-127
-124
-125
-121
-115
-114
-112
-107
-104
-102
-99
-96
-97
-95
-93
-93
-94
-92
-90
-92
-92
-87
-85
-90
-102
-115
-119
-109
-87
-53
-8
10
-26
-66
-68
-63
-67
-68
-76
-75
-59
-82
-88
-37
-88
-179
-68
163
676
1653
1881
432
-1000
-853
-204
-116
-128
-20
-39
-65
-10
3
-3
20
33
43
65
76
85
108
130
149
177
209
238
264
291
322
352
380
404
422
430
426
402
356
291
212
128
47
-26
-84
-125
-154
-174
-185
-188
-187
-180
-171
-164
-154
-142
-133
-125
-118
-111
-105
-100
-102
-105
-108
-112
-118
-121
-125
-129
-131
-132
-135
-139
-140
-137
-133
-133
-136
-132
-126
-124
-124
-123
-118
-112
-110
-109
-105
-100
-99
-98
-94
-90
-89
-87
-83
-79
-78
-79
-88
-100
-109
-105
-84
-44
4
15
-22
-54
-57
-59
-60
-54
-59
-58
-47
-69
-67
-19
-78
-156
-45
140
613
1605
1883
495
-891
-748
-130
-65
-95
4
-11
-43
-4
7
6
27
32
33
52
68
82
100
117
134
156
181
208
236
266
295
323
349
371
388
395
385
360
320
257
178
101
28
-43
-101
-140
-164
-176
-179
-178
-173
-165
-158
-153
-146
-137
-130
-123
-117
-115
-115
-113
-113
-119
-124
-123
-125
-128
-130
-132
-133
-132
-133
-140
-143
-138
-132
-129
-128
-123
-117
-116
-119
-117
-111
-107
-106
-103
-98
-93
-91
-92
-93
-91
-89
-89
-87
-82
-76
-73
-76
-78
-85
-96
-93
-70
-41
-6
25
10
-36
-53
-47
-47
-46
-49
-56
-39
-36
-57
-25
-21
-118
-105
62
367
1151
1879
1174
-435
-948
-354
-34
-91
-40
-1
-40
-14
19
11
26
47
47
53
68
80
93
108
124
147
171
193
218
247
275
303
331
355
376
393
399
388
360
317
257
177
89
14
-45
-96
-134
-152
-162
-173
-172
-162
-160
-160
-152
-144
-140
-132
-127
-131
-131
-125
-121
-121
-125
-131
-137
-141
-145
-148
-149
-151
-154
-154
-151
-152
-153
-149
-145
-145
-146
-144
-140
-138
-138
-134
-127
-120
-116
-112
-111
-114
-119
-127
-136
-138
-128
-107
-70
-23
-14
-58
-91
-88
-85
-85
-82
-92
-84
-66
-88
-79
-40
-115
-163
-7
270
916
1825
1596
-85
-1167
-718
-147
-129
-94
3
-34
-37
14
10
13
46
53
54
71
88
106
130
149
166
190
222
251
278
310
345
377
403
422
431
435
428
397
343
271
186
98
20
-46
-103
-145
-170
-184
-190
-188
-180
-173
-168
-163
-157
-148
-140
-133
-129
-128
-127
-124
-123
-125
-127
-132
-141
-148
-150
-150
-152
-156
-160
-158
-153
-152
-153
-153
-152
-150
-144
-140
-138
-136
-135
-142
-153
-161
-159
-146
-110
-56
-26
-50
-87
-95
-94
-96
-93
-100
-98
-79
-94
-100
-53
-93
-181
-95
97
567
1567
1953
626
-898
-884
-216
-84
-127
-35
-38
-67
-19
-2
-11
11
26
32
51
71
83
101
125
149
172
199
232
268
300
333
368
401
426
441
448
441
413
362
289
199
104
20
-49
-105
-148
-172
-181
-183
-182
-176
-169
-166
-164
-156
-147
-145
-145
-140
-133
-131
-133
-133
-132
-135
-139
-141
-145
-151
-155
-158
-160
-159
-160
-161
-160
-157
-154
-150
-149
-152
-161
-175
-184
-178
-154
-111
-57
-39
-73
-105
-107
-107
-108
-106
-117
-111
-98
-121
-111
-74
-145
-190
-65
148
788
1810
1726
82
-1075
-688
-119
-112
-115
-33
-63
-66
-18
-17
-15
12
20
28
49
64
76
95
116
139
163
188
221
260
296
328
359
383
401
416
420
402
363
303
224
134
51
-21
-84
-133
-165
-181
-189
-190
-187
-178
-168
-161
-158
-155
-149
-140
-134
-134
-135
-133
-130
-131
-133
-135
-138
-139
-141
-145
-149
-152
-152
-150
-149
-153
-161
-172
-174
-156
-127
-89
-48
-45
-90
-119
-113
-112
-112
-107
-114
-109
-99
-121
-105
-71
-142
-183
-51
225
942
1858
1534
-144
-1119
-650
-128
-122
-99
-24
-58
-56
-14
-15
-11
15
26
41
63
73
81
103
129
151
173
198
229
263
297
331
358
379
401
419
416
395
360
301
213
121
38
-35
-91
-130
-162
-187
-196
-191
-186
-186
-189
-186
-176
-165
-163
-164
-156
-152
-156
-154
-148
-148
-151
-153
-160
-165
-162
-166
-170
-156
-141
-154
-175
-190
-207
-211
-185
-155
-122
-80
-76
-119
-141
-127
-122
-119
-112
-114
-101
-91
-112
-92
-72
-159
-174
-30
236
1030
1999
1503
-354
-1251
-657
-159
-174
-103
-19
-68
-52
-1
-10
0
36
46
51
65
81
104
129
149
174
203
230
263
304
341
373
406
435
451
460
456
430
379
301
204
106
24
-44
-96
-133
-156
-168
-173
-175
-170
-157
-148
-144
-138
-125
-119
-122
-125
-123
-123
-130
-136
-139
-144
-151
-160
-166
-171
-174
-172
-169
-173
-175
-168
-163
-161
-157
-157
-170
-187
-192
-180
-148
-95
-53
-63
-108
-128
-121
-120
-123
-129
-137
-121
-113
-132
-102
-88
-179
-185
-55
198
1014
1985
1499
-253
-1044
-478
-64
-133
-114
-59
-95
-78
-41
-44
-32
-9
-3
8
23
33
50
73
94
114
136
167
199
227
257
288
311
328
345
355
353
337
300
239
168
97
26
-39
-89
-119
-136
-143
-142
-137
-129
-121
-111
-105
-101
-93
-83
-80
-83
-83
-79
-76
-75
-73
-72
-72
-73
-74
-71
-70
-70
-67
-64
-71
-77
-66
-58
-66
-69
-57
-52
-58
-57
-50
-54
-65
-73
-73
-53
-11
