# session 2
-29
12
-99
-53
362
752
768
652
637
615
551
525
510
477
458
449
422
376
345
339
318
266
218
189
177
171
137
82
66
90
104
97
74
42
21
7
-7
-7
-9
-22
-16
-23
-47
-16
-14
-121
-136
-17
209
863
1549
1042
-308
-782
-281
18
-48
-62
-59
-75
-40
-25
-41
-17
21
19
-4
-9
9
25
38
55
61
73
111
147
158
162
159
148
156
176
179
165
137
87
40
6
-43
-102
-143
-174
-202
-210
-206
-204
-193
-178
-181
-192
-185
-163
-147
-133
-115
-115
-135
-132
-126
-183
-248
-230
-195
-216
-235
-213
-199
-224
-262
-247
-166
-121
-144
-137
-100
-120
-157
-138
-115
-116
-92
-56
-40
-20
-7
-21
-32
-34
-51
-62
-60
-59
-57
-68
-85
-59
-43
-91
-117
-28
343
1020
1250
412
-570
-612
-165
6
-17
-20
-15
10
37
49
89
126
116
99
106
131
158
173
181
199
223
239
247
253
267
279
265
239
231
242
247
236
214
187
142
80
28
-3
-43
-94
-121
-119
-111
-107
-107
-107
-109
-113
-116
-107
-95
-97
-106
-108
-107
-109
-109
-110
-117
-123
-120
-121
-127
-125
-116
-121
-135
-138
-131
-129
-130
-134
-145
-148
-128
-98
-65
-34
-38
-77
-96
-89
-89
-94
-99
-97
-82
-88
-98
-61
-59
-124
-127
-18
388
1197
1488
440
-784
-795
-218
-43
-58
15
23
1
30
45
46
67
85
99
114
115
128
167
193
197
217
245
245
241
261
275
263
250
248
249
240
218
196
178
133
52
-25
-69
-89
-106
-130
-153
-157
-143
-131
-126
-118
-103
-92
-98
-107
-100
-101
-124
-141
-138
-139
-152
-164
-164
-151
-154
-171
-167
-145
-143
-152
-156
-172
-189
-188
-190
-189
-162
-119
-89
-87
-108
-119
-113
-121
-143
-149
-124
-98
-119
-143
-100
-95
-167
-153
-19
417
1346
1785
707
-663
-729
-166
-48
-83
1
-14
-41
25
41
23
55
81
70
70
90
112
122
124
140
174
197
206
215
227
232
226
215
209
208
200
187
166
118
46
-11
-49
-88
-118
-121
-124
-139
-140
-128
-116
-92
-76
-98
-109
-72
-44
-67
-104
-114
-98
-85
-106
-139
-139
-115
-112
-135
-145
-128
-114
-117
-117
-107
-108
-131
-142
-119
-90
-83
-70
-50
-61
-90
-106
-107
-71
-19
-29
-101
-160
-143
-71
-72
-152
-154
-38
372
1203
1543
543
-664
-698
-167
-33
-73
-7
6
-17
5
6
-2
38
74
59
53
104
158
160
149
169
199
211
224
265
299
264
187
167
224
268
248
207
180
138
77
40
2
-83
-155
-148
-128
-139
-138
-129
-137
-120
-82
-95
-132
-121
-111
-121
-81
-42
-88
-137
-115
-91
-101
-110
-111
-106
-93
-91
-100
-100
-98
-111
-115
-105
-106
-114
-105
-100
-112
-109
-108
-132
-126
-72
-34
-27
-26
-43
-67
-74
-72
-70
-77
-97
-83
-38
-19
-35
-100
-169
-126
-6
342
1193
1735
860
-499
-714
-191
-24
-74
-17
-19
-56
-17
5
-6
6
14
14
40
70
85
114
149
154
140
135
135
144
171
190
192
206
219
200
196
235
217
101
-8
-53
-71
-85
-120
-176
-207
-218
-240
-228
-174
-154
-173
-174
-147
-131
-153
-175
-151
-120
-128
-136
-129
-140
-145
-118
-99
-109
-121
-124
-127
-122
-106
-96
-92
-91
-104
-114
-100
-92
-122
-156
-159
-129
-73
-27
-40
-80
-79
-63
-75
-90
-90
-79
-57
-69
-98
-65
-38
-68
-70
-13
406
1471
2119
1153
-284
-495
-31
21
-75
5
26
-9
24
42
27
33
49
76
126
155
153
160
176
176
173
182
191
197
200
195
193
204
212
206
185
154
120
77
19
-26
-50
-93
-132
-125
-128
-177
-188
-138
-125
-162
-166
-142
-140
-145
-137
-145
-161
-155
-151
-162
-140
-96
-101
-132
-125
-112
-128
-135
-130
-134
-114
-74
-69
-88
-89
-104
-136
-131
-107
-119
-134
-107
-80
-72
-56
-52
-74
-78
-64
-80
-114
-103
-49
-37
-92
-102
-56
-84
-141
-60
242
844
1344
897
-225
-694
-322
-23
-15
12
37
3
-15
-12
20
61
36
-3
31
70
61
59
75
78
91
110
109
123
171
185
146
122
146
177
186
180
167
144
111
67
13
-32
-56
-88
-134
-155
-143
-145
-166
-167
-147
-140
-152
-158
-134
-102
-104
-116
-98
-84
-86
-70
-50
-59
-60
-45
-48
-66
-76
-72
-66
-71
-90
-95
-86
-85
-85
-65
-47
-56
-77
-91
-91
-61
-7
18
-4
-29
-28
-23
-30
-45
-59
-55
-38
-28
-1
20
-54
-130
-60
82
481
1330
1656
582
-659
-679
-167
-47
-61
1
-4
4
46
20
2
43
73
85
85
69
88
144
161
136
134
159
184
199
191
165
165
201
212
178
154
156
154
144
106
14
-81
-118
-140
-186
-209
-180
-147
-136
-128
-114
-105
-102
-97
-78
-58
-66
-96
-107
-93
-92
-110
-121
-98
-51
-42
-94
-144
-145
-118
-99
-102
-113
-95
-53
-47
-95
-140
-139
-111
-83
-51
-14
-10
-53
-86
-81
-86
-99
-83
-77
-103
-123
-120
-100
-100
-151
-148
-31
239
834
1307
697
-555
-933
-410
-79
-83
-47
-22
-36
4
20
2
31
51
35
68
117
94
77
127
151
134
163
203
185
160
175
203
228
232
185
131
124
122
94
61
20
-23
-36
-65
-144
-171
-111
-84
-114
-105
-60
-53
-67
-31
15
-24
-95
-65
5
-25
-73
-34
-11
-47
-33
12
-16
-78
-81
-30
-7
-39
-65
-92
-152
-161
-106
-105
-135
-126
-156
-198
-145
-99
-102
-26
23
-109
-227
-166
-90
-124
-171
-136
-66
-61
-95
-63
-31
-110
-170
-81
187
781
1399
1146
74
-554
-315
-12
2
26
99
85
25
13
68
128
121
93
113
137
127
123
136
141
143
149
150
146
150
158
162
163
159
158
166
167
141
107
88
62
10
-33
-54
-76
-103
-113
-107
-105
-120
-137
-128
-102
-90
-101
-110
-107
-109
-110
-101
-100
-112
-109
-98
-107
-118
-108
-98
-95
-88
-84
-87
-78
-67
-79
-91
-78
-69
-89
-102
-84
-62
-37
-4
-6
-47
-67
-66
-71
-61
-46
-51
-59
-76
-91
-67
-85
-158
-134
1
343
1072
1439
530
-707
-832
-300
-107
-116
-50
-43
-60
-29
-30
-48
-31
-14
-3
24
40
35
42
71
99
108
105
117
155
182
173
159
165
161
145
144
130
69
21
29
18
-56
-113
-122
-141
-171
-172
-165
-152
-107
-79
-98
-85
-37
-69
-165
-171
-83
-48
-89
-103
-93
-117
-137
-116
-101
-118
-125
-91
-50
-47
-67
-76
-78
-87
-81
-46
-32
-64
-76
-25
24
30
38
53
35
4
6
24
29
23
11
-15
-32
0
47
31
-2
12
106
575
1384
1489
438
-456
-303
90
104
50
63
34
33
65
58
56
76
82
80
84
86
94
106
104
97
107
123
131
130
124
127
139
141
125
116
122
112
70
18
-34
-93
-150
-193
-217
-229
-238
-239
-226
-211
-202
-191
-176
-167
-163
-154
-142
-138
-140
-136
-127
-123
-128
-131
-127
-120
-120
-126
-130
-132
-132
-126
-117
-111
-114
-130
-150
-155
-148
-141
-113
-58
-34
-70
-107
-110
-102
-95
-97
-113
-111
-97
-96
-70
-52
-113
-127
-37
153
742
1441
1067
-263
-871
-414
-45
-56
-16
40
17
33
57
46
66
97
95
101
125
135
144
168
188
197
213
235
248
253
263
275
274
263
259
258
247
220
175
119
70
24
-38
-99
-126
-128
-132
-136
-129
-124
-120
-114
-115
-120
-108
-96
-112
-132
-123
-108
-104
-96
-88
-97
-103
-94
-86
-84
-80
-88
-110
-117
-107
-119
-144
-145
-131
-116
-77
-36
-42
-69
-74
-86
-105
-97
-92
-101
-91
-97
-114
-77
-76
-154
-166
-87
274
1179
1737
835
-512
-686
-173
-59
-134
-58
-35
-76
-61
-42
-35
-10
2
0
15
37
53
68
88
109
121
133
159
177
165
160
182
186
168
175
192
166
115
75
35
-18
-77
-130
-157
-166
-173
-165
-139
-126
-121
-107
-95
-89
-76
-67
-64
-49
-30
-33
-50
-58
-55
-55
-54
-47
-45
-52
-55
-50
-51
-56
-52
-49
-62
-88
-98
-84
-74
-66
-28
1
-38
-96
-100
-81
-84
-97
-107
-101
-92
-110
-109
-86
-131
-176
-123
24
544
1366
1360
175
-703
-473
-84
-77
-79
-31
-60
-53
-5
-7
-9
24
40
39
54
76
85
91
113
143
151
145
160
186
197
201
204
201
204
212
199
165
131
93
47
1
-45
-83
-103
-111
-121
-125
-120
-115
-113
-103
-91
-87
-91
-94
-94
-93
-97
-102
-102
-100
-103
-108
-112
-114
-112
-109
-110
-113
-114
-112
-112
-118
-135
-148
-137
-113
-95
-74
-52
-58
-82
-95
-98
-98
-100
-106
-99
-88
-96
-81
-58
-109
-148
-86
123
728
1438
1152
-90
-747
-386
-34
-40
-23
19
-9
1
36
34
40
62
74
83
96
110
128
143
154
169
179
179
182
192
195
194
196
193
181
169
161
144
114
79
36
-17
-68
-105
-130
-143
-141
-137
-137
-131
-120
-117
-118
-114
-111
-113
-116
-115
-112
-113
-122
-130
-126
-121
-125
-128
-122
-118
-118
-117
-116
-117
-117
-129
-137
-125
-118
-125
-97
-45
-42
-77
-86
-78
-77
-75
-76
-77
-69
-75
-75
-39
-57
-124
-100
3
360
1188
1612
682
-538
-616
-114
1
-46
14
12
-14
27
48
41
56
74
80
90
104
119
130
140
159
179
180
177
192
209
203
195
201
203
192
182
166
128
80
36
-7
-54
-92
-109
-113
-117
-120
-114
-102
-96
-98
-103
-112
-123
-112
-87
-90
-117
-132
-135
-140
-142
-147
-155
-157
-156
-154
-143
-141
-156
-149
-124
-140
-179
-171
-149
-191
-240
-215
-162
-117
-54
-61
-195
-272
-196
-161
-224
-219
-158
-158
-163
-129
-117
-114
-135
-202
-172
61
553
1258
1459
536
-558
-637
-177
-28
-43
-7
-55
-84
33
110
42
-24
0
50
73
117
247
373
355
270
253
259
297
449
589
542
398
379
490
481
279
175
329
529
568
401
137
59
165
70
-158
-70
136
38
-111
-65
-14
-13
-39
-156
-209
-195
-376
-535
-346
-183
-303
-363
-319
-297
-159
-147
-380
-262
76
-63
-268
-220
-498
-772
-494
-359
-569
-444
-226
-391
-498
-313
-203
-247
-274
-259
-247
-286
-343
-278
42
773
1564
1302
-146
-1108
-714
-128
-125
-151
93
350
462
347
112
62
191
243
195
188
210
119
23
261
606
371
-165
-66
465
591
422
382
321
180
184
316
379
308
163
73
78
36
-81
-95
-77
-243
-361
-147
120
129
42
35
-36
-255
-319
-74
-42
-448
-398
559
1196
436
-906
-1456
-1139
-699
-453
-327
-276
-258
-258
-279
-256
-167
16
303
441
241
14
69
222
224
178
269
415
463
464
422
258
240
565
740
387
-69
-218
-151
1
163
206
142
56
-44
-65
52
106
15
-7
60
50
18
7
-83
-155
-90
-30
-67
-129
-192
-206
-91
25
-14
-59
50
118
-9
-109
-86
-156
-296
-276
-194
-213
-146
29
-51
-307
-299
-165
-200
-160
-40
-188
-374
-247
-102
-160
-198
-197
-273
-316
-309
-348
-335
-158
326
1187
1575
545
-918
-1198
-620
-249
-86
6
-40
105
350
193
47
225
-185
-1040
-713
543
892
493
609
839
492
166
209
147
-27
30
172
192
241
355
355
231
129
73
14
-66
-145
-144
-48
32
24
-92
-250
-228
-92
-188
-376
-296
-144
-208
-405
-549
-433
-116
-55
-268
-229
21
172
805
2106
2431
932
-504
-531
-210
-277
-291
-239
-303
-253
-74
9
-41
-154
-233
-175
-68
-75
-140
-114
14
165
202
73
85
370
510
439
515
542
285
80
56
138
370
436
143
-48
15
-38
-192
-248
-287
-311
-247
-200
-157
-38
-81
-405
-607
-470
-340
-405
-435
-308
-243
-315
-239
-88
-253
-357
26
233
-106
-366
-299
-36
300
168
-350
-376
-19
152
314
232
-362
-512
106
359
6
-140
-40
-69
-130
-146
-179
-150
-89
-71
-19
2
-79
-79
112
589
1277
1301
204
-719
-505
-34
30
114
302
348
355
353
319
381
369
159
90
133
-24
-34
342
527
279
57
74
185
282
259
131
90
145
145
69
-30
-98
-87
-113
-259
-345
-292
-270
-298
-278
-276
-333
-339
-316
-393
-481
-433
-369
-388
-324
-126
-53
-294
-590
-471
-12
216
106
-14
-190
-530
-659
-329
85
142
-134
-370
-324
-158
-159
-277
-268
-169
-164
-204
-199
-13
705
1545
1215
-179
-889
-438
27
68
134
309
371
338
376
424
290
207
500
792
629
351
336
384
365
414
474
404
251
148
208
392
528
551
479
285
43
-66
-47
-80
-160
-155
-149
-205
-198
-243
-421
-348
-73
-185
-534
-609
-488
-223
65
-195
-749
-710
-293
-98
19
109
131
289
261
-170
-343
-172
-281
-466
-292
-128
-206
-197
-12
73
-22
-84
21
386
1157
1746
1127
-223
-745
-311
100
233
247
126
122
371
471
279
187
304
330
219
219
349
369
256
209
233
219
234
304
269
107
72
263
389
268
138
137
63
-120
-226
-263
-333
-385
-372
-359
-396
-440
-454
-478
-480
-424
-496
-688
-655
-517
-651
-720
-435
-336
-565
-583
-454
-530
-547
-353
-262
-343
-426
-453
-402
-369
-455
-495
-405
-377
-417
-391
-230
377
1330
1381
38
-1124
-997
-446
-239
-155
-53
64
237
260
115
181
448
518
432
403
288
175
415
725
607
303
242
363
501
587
608
637
575
343
280
521
636
483
351
289
220
214
192
108
152
253
170
