# session 7
-79
-73
-83
-14
85
78
38
81
124
99
83
102
95
66
51
32
-4
-27
-39
-60
-65
-42
-43
-73
-86
-82
-72
-59
-60
-60
-50
-77
-166
-289
-200
512
1364
1056
-241
-827
-370
-2
2
62
113
66
80
118
114
140
189
216
251
280
269
245
217
153
68
-2
-42
-43
-22
-19
-36
-43
-39
-35
-33
-38
-50
-62
-85
-112
-118
-111
-124
-148
-146
-128
-125
-121
-102
-107
-126
-95
-62
-107
-182
-231
-9
736
1231
441
-766
-821
-144
99
38
95
119
88
129
170
165
171
193
224
270
297
273
205
124
50
-43
-154
-207
-182
-154
-144
-109
-66
-63
-88
-101
-90
-87
-114
-129
-106
-112
-154
-152
-115
-111
-131
-148
-145
-100
-74
-110
-124
-115
-164
-265
-352
-61
893
1518
681
-566
-638
-81
37
-43
30
63
45
70
89
110
152
172
186
218
225
193
154
109
41
-27
-69
-88
-84
-51
-13
0
-5
-17
-42
-63
-56
-48
-70
-99
-110
-120
-127
-108
-96
-120
-136
-130
-137
-138
-127
-142
-138
-104
-142
-268
-399
-277
510
1456
1190
-130
-755
-341
-30
-78
-46
8
-31
-23
30
55
81
112
138
171
190
176
149
108
37
-49
-117
-148
-139
-111
-84
-57
-40
-53
-66
-58
-56
-73
-84
-95
-112
-125
-141
-151
-127
-99
-106
-114
-98
-85
-90
-100
-86
-61
-83
-152
-252
-198
502
1551
1480
92
-767
-363
63
-22
-80
-18
-3
42
101
112
135
181
218
249
258
245
220
154
65
16
-39
-139
-177
-121
-96
-126
-115
-64
-42
-46
-38
-19
-17
-46
-87
-117
-133
-138
-141
-144
-127
-104
-108
-110
-82
-91
-123
-79
-47
-147
-268
-339
-170
610
1343
737
-595
-881
-272
-4
-62
6
66
58
90
105
102
142
182
196
219
228
189
126
84
64
7
-100
-167
-146
-115
-127
-111
-42
-23
-66
-52
17
14
-54
-69
-39
-60
-113
-106
-76
-110
-154
-132
-100
-98
-85
-78
-88
-61
-48
-131
-263
-346
-54
851
1484
775
-427
-627
-150
13
-28
36
53
28
62
79
64
94
145
173
186
195
198
187
142
74
2
-60
-70
-16
20
-8
-49
-61
-53
-37
-29
-31
-22
-16
-39
-67
-78
-96
-112
-102
-88
-88
-90
-97
-100
-79
-77
-104
-90
-64
-105
-208
-289
26
925
1376
412
-817
-830
-221
-30
-55
27
62
38
47
67
93
134
170
198
220
232
233
206
139
56
-27
-106
-144
-119
-87
-97
-121
-139
-155
-155
-136
-124
-126
-132
-142
-139
-121
-118
-141
-159
-159
-155
-151
-129
-97
-116
-163
-132
-89
-141
-189
-253
-266
379
1450
1322
-140
-923
-437
-16
-51
-3
88
66
81
127
129
144
180
214
263
299
284
240
196
142
56
-54
-134
-139
-122
-147
-167
-136
-125
-137
-97
-53
-69
-67
-25
-28
-67
-72
-65
-80
-88
-70
-60
-85
-102
-86
-93
-117
-114
-145
-230
-354
-419
90
1234
1601
408
-719
-523
-14
-14
-45
69
71
49
104
142
156
190
223
252
286
298
270
212
136
59
-16
-89
-139
-158
-167
-160
-133
-130
-151
-136
-105
-111
-123
-118
-132
-151
-149
-155
-171
-157
-122
-104
-116
-124
-89
-59
-92
-104
-60
-87
-199
-320
-248
450
1414
1239
-113
-834
-379
33
-6
12
97
83
87
116
121
167
232
249
258
287
293
268
231
172
85
-4
-72
-96
-72
-43
-49
-65
-52
-22
-8
-3
-2
-27
-76
-95
-68
-64
-97
-103
-86
-95
-104
-98
-114
-128
-114
-122
-136
-102
-100
-213
-383
-339
294
1080
801
-417
-942
-421
-26
-79
-71
0
-27
-25
27
37
28
48
87
117
137
152
136
78
20
-20
-65
-95
-87
-66
-61
-62
-57
-53
-50
-49
-52
-50
-40
-47
-86
-124
-110
-47
5
7
-5
-22
-88
-193
-249
-234
-198
-144
-83
-99
-186
-302
-334
214
1348
1676
482
-624
-432
54
12
-82
-19
-39
-76
-18
82
187
224
182
198
253
205
132
134
112
27
-50
-118
-169
-155
-98
-65
-82
-108
-79
-19
-13
-50
-44
-16
-44
-97
-100
-84
-77
-44
-27
-60
-67
-62
-106
-101
-44
-59
-72
-31
-79
-170
-198
-47
686
1593
1203
-318
-952
-357
46
-14
34
95
38
53
101
103
139
195
212
230
252
231
171
103
37
-17
-57
-104
-153
-142
-66
-36
-93
-121
-71
-20
8
26
1
-41
-44
-44
-79
-106
-100
-78
-66
-72
-83
-101
-128
-122
-91
-99
-121
-119
-145
-243
-359
-165
610
1167
443
-774
-933
-319
-40
-62
5
42
17
57
100
99
116
145
162
197
243
250
225
186
116
39
-8
-47
-75
-58
-31
-35
-44
-42
-40
-41
-47
-55
-40
-33
-71
-101
-98
-102
-99
-86
-103
-112
-80
-98
-157
-143
-104
-129
-137
-99
-130
-232
-306
-154
483
1138
760
-404
-891
-457
-81
-45
-15
14
-12
-2
37
66
84
99
136
187
206
204
192
148
103
73
-5
-101
-110
-64
-52
-59
-57
-59
-45
-20
-28
-52
-52
-46
-50
-58
-82
-113
-102
-62
-56
-82
-87
-66
-64
-77
-64
-45
-46
-35
-41
-104
-179
-196
137
975
1367
401
-804
-786
-134
91
79
141
122
75
126
179
199
239
282
312
351
375
359
315
261
200
130
59
14
9
25
32
18
2
-5
-7
-4
-2
-17
-42
-52
-59
-74
-94
-125
-156
-156
-143
-148
-142
-123
-128
-136
-118
-116
-125
-112
-149
-256
-334
-271
216
1048
1125
-21
-942
-659
-124
-49
-58
-26
-83
-74
21
51
56
117
175
178
161
167
185
164
99
23
-66
-155
-189
-169
-152
-142
-108
-83
-111
-144
-119
-87
-96
-100
-75
-75
-120
-157
-153
-131
-125
-136
-151
-158
-161
-164
-159
-144
-143
-141
-106
-98
-154
-205
-214
40
769
1200
396
-750
-807
-219
-18
-39
65
109
70
101
157
178
197
231
266
294
310
318
297
228
153
107
63
13
5
32
35
12
4
16
30
39
43
39
33
27
14
-10
-38
-60
-71
-65
-55
-72
-97
-92
-87
-103
-95
-79
-105
-111
-76
-101
-173
-231
-182
390
1346
1360
78
-838
-546
-113
-105
-85
4
-12
-15
33
57
86
131
163
203
248
263
240
188
118
57
-1
-71
-116
-101
-74
-83
-103
-105
-94
-79
-69
-69
-71
-68
-63
-70
-108
-151
-163
-158
-159
-156
-160
-175
-174
-170
-177
-158
-130
-144
-147
-134
-177
-231
-243
-44
706
1420
819
-607
-1029
-424
-77
-93
-2
60
20
48
99
118
166
219
240
270
300
292
263
228
174
100
15
-58
-92
-87
-71
-64
-71
-80
-82
-70
-40
-9
-4
-12
-8
-21
-70
-104
-98
-99
-123
-137
-136
-127
-107
-100
-113
-119
-138
-151
-87
-42
-115
-185
-206
-4
796
1506
844
-509
-808
-259
-23
-50
26
56
35
65
79
97
165
207
215
249
280
259
217
168
94
17
-38
-97
-148
-134
-88
-85
-100
-75
-49
-60
-66
-42
-31
-53
-74
-81
-96
-118
-131
-132
-122
-108
-105
-113
-124
-136
-128
-102
-108
-123
-92
-97
-180
-251
-205
239
1111
1389
383
-687
-632
-148
-61
-92
-19
-10
-23
25
60
71
101
143
181
215
234
229
195
151
107
50
-12
-41
-33
-24
-35
-54
-65
-63
-51
-41
-43
-47
-43
-42
-63
-94
-111
-118
-131
-138
-122
-105
-112
-126
-134
-143
-139
-119
-122
-132
-97
-86
-162
-252
-248
141
1031
1455
516
-710
-790
-239
-54
-75
-8
12
1
43
71
86
129
172
201
229
250
259
241
181
101
32
-24
-61
-66
-55
-55
-63
-72
-76
-70
-68
-75
-78
-75
-81
-90
-99
-118
-145
-167
-177
-169
-150
-141
-137
-131
-136
-130
-104
-111
-124
-84
-82
-159
-225
-216
219
1237
1653
513
-778
-726
-137
-16
-35
55
59
42
79
100
131
178
191
214
266
287
266
230
164
74
-8
-64
-90
-89
-81
-83
-86
-85
-81
-76
-65
-47
-34
-35
-43
-51
-69
-100
-128
-145
-152
-142
-133
-140
-136
-114
-113
-121
-112
-116
-112
-72
-89
-176
-258
-248
292
1411
1719
425
-793
-610
-64
-45
-79
35
41
9
45
73
96
141
177
203
231
243
226
182
115
33
-51
-123
-163
-158
-138
-143
-150
-128
-105
-99
-89
-78
-89
-110
-106
-96
-116
-153
-180
-194
-190
-168
-162
-170
-154
-138
-138
-120
-108
-139
-142
-110
-136
-214
-306
-204
620
1784
1696
233
-680
-367
-24
-82
-66
10
-12
-7
34
53
89
131
146
167
201
218
194
125
38
-33
-91
-142
-168
-165
-149
-116
-90
-116
-145
-108
-60
-64
-65
-45
-39
-51
-100
-206
-285
-267
-200
-152
-126
-111
-110
-129
-143
-121
-97
-105
-99
-83
-121
-171
-236
-198
484
1609
1651
289
-645
-352
15
-38
-30
39
4
8
58
61
70
114
163
202
229
251
250
197
129
81
30
-22
-32
-17
-20
-31
-24
-17
-25
-37
-38
-33
-32
-44
-54
-66
-90
-112
-124
-141
-140
-104
-86
-105
-125
-137
-149
-140
-120
-133
-143
-103
-89
-163
-267
-268
155
999
1216
131
-979
-859
-236
-49
-52
25
32
12
65
112
121
141
184
233
271
285
280
256
201
128
66
20
-17
-29
-16
-18
-44
-56
-47
-38
-34
-34
-38
-45
-58
-70
-75
-94
-130
-155
-170
-174
-153
-137
-146
-149
-146
-155
-152
-143
-141
-109
-92
-149
-211
-243
-30
826
1607
916
-605
-992
-342
-31
-83
10
81
46
76
125
140
169
201
225
264
300
318
306
243
149
65
-3
-65
-105
-109
-86
-69
-71
-82
-89
-72
-49
-62
-75
-44
-40
-95
-129
-120
-110
-102
-110
-144
-156
-139
-129
-130
-142
-144
-118
-112
-122
-88
-89
-176
-263
-260
195
1217
1592
425
-821
-720
-158
-79
-77
42
23
-4
61
82
95
154
180
195
255
292
274
236
173
88
25
-19
-78
-122
-121
-111
-129
-138
-111
-90
-89
-65
-23
-14
-42
-77
-99
-102
-101
-125
-158
-159
-135
-124
-129
-128
-128
-141
-142
-135
-149
-115
-5
3
-162
-338
-322
244
1268
1492
310
-755
-575
-85
-37
-18
90
51
1
63
107
115
156
200
218
241
275
283
250
201
154
87
17
4
21
-15
-88
-116
-88
-57
-66
-94
-96
-79
-77
-78
-66
-71
-106
-139
-156
-157
-135
-110
-118
-140
-138
-137
-157
-164
-147
-142
-121
-89
-138
-233
-274
-192
325
1216
1316
114
-905
-689
-154
-66
-79
-6
16
35
74
81
103
171
228
244
256
293
320
304
262
203
129
79
53
10
-33
-57
-99
-156
-174
-155
-138
-129
-118
-104
-88
-78
-93
-131
-157
-150
-147
-164
-149
-106
-109
-146
-149
-133
-130
-136
-145
-117
-67
-108
-202
-266
-243
348
1533
1782
346
-905
-660
-105
-97
-97
34
22
-5
62
97
89
109
172
245
279
268
254
255
234
162
60
-32
-86
-103
-126
-159
-162
-160
-192
-197
-155
-139
-154
-141
-110
-106
-128
-150
-146
-124
-116
-122
-127
-128
-125
-115
-111
-121
-122
-115
-128
-111
-67
-128
-233
-255
-236
217
1372
1901
720
-633
-593
-55
-9
-48
50
24
-28
28
65
81
184
289
274
231
272
306
257
188
129
73
44
23
-20
-50
-51
-68
-114
-142
-113
-74
-83
-108
-89
-44
-38
-87
-137
-139
-135
-173
-200
-153
-84
-75
-115
-145
-151
-155
-169
-187
-178
-139
-140
-219
-318
-237
336
1146
1120
-12
-895
-683
-190
-97
-115
-52
-28
-16
23
40
61
113
160
194
228
269
302
293
250
219
187
124
80
86
83
24
-53
-91
-88
-84
-90
-87
-74
-68
-70
-68
-57
-58
-96
-155
-183
-170
-132
-97
-101
-129
-123
-97
-108
-124
-108
-110
-119
-92
-97
-161
-206
-122
409
1276
1302
30
-992
-722
-144
-39
-27
60
54
50
106
125
131
169
203
244
302
332
331
324
290
212
136
99
84
61
23
-29
-70
-81
-97
-121
-109
-81
-76
-69
-61
-76
-68
-48
-90
-149
-145
-142
-170
-155
-122
-140
-150
-118
-117
-154
-173
-165
-125
-93
-160
-243
-263
-199
377
1460
1610
199
-959
-684
-130
-97
-93
16
-6
-44
-7
22
49
105
164
205
227
244
246
201
124
58
0
-62
-103
-115
-133
-161
-174
-176
-179
-171
-149
-137
-136
-127
-115
-116
-122
-135
-165
-192
-204
-219
-220
-178
-144
-161
-174
-142
-120
-135
-158
-177
-161
-106
-126
-218
-278
-229
333
1465
1802
526
-713
-566
-43
-32
-70
41
62
62
104
107
124
180
206
220
267
307
303
268
216
156
91
24
-20
-25
-26
-55
-89
-96
-78
-59
-49
-36
-16
-10
-26
-42
-46
-53
-76
-112
-139
-148
-140
-110
-75
-79
-108
-105
-92
-108
-115
-104
-102
-77
-52
-105
-190
-220
18
800
1511
972
-369
-841
-343
-11
-28
14
59
43
81
120
121
162
223
249
272
307
332
341
326
277
215
171
137
95
56
30
5
-21
-32
-34
-35
-25
-9
-5
-9
-8
-13
-32
-57
-88
-122
-148
-163
-159
-124
-88
-98
-127
-125
-119
-131
-124
-116
-130
-118
-113
-181
-254
-244
100
989
1556
685
-716
-949
-350
-107
-143
-63
-27
-62
-38
-4
16
58
93
120
163
188
181
162
120
51
-26
-99
-158
-192
-209
-227
-246
-264
-270
-254
-242
-258
-263
-230
-207
-223
-247
-261
-278
-292
-302
-326
-351
-345
-308
-281
-280
-274
-255
-255
-256
-228
-217
-225
-194
-190
-251
-294
-269
167
1206
1658
498
-849
-785
-140
-11
-39
72
96
90
153
188
207
263
315
359
411
447
452
433
390
327
254
188
150
140
142
145
144
147
158
172
187
211
233
237
