# session 19
6
42
-34
81
437
575
345
95
-25
-137
-241
-282
-303
-324
-327
-320
-316
-308
-296
-284
-276
-268
-259
-256
-253
-243
-234
-231
-230
-228
-227
-225
-220
-215
-211
-205
-199
-196
-192
-185
-177
-171
-167
-161
-152
-146
-141
-132
-123
-118
-113
-107
-104
-103
-100
-92
-88
-88
-86
-93
-119
-139
-137
-132
-120
-83
-44
-38
-52
-56
-42
-43
-56
-41
-32
-60
-28
-1
-113
-150
-13
229
1039
2153
1823
-32
-1075
-622
-182
-203
-128
-43
-90
-70
-13
-12
9
58
91
133
192
248
314
396
476
543
593
622
628
615
581
521
440
349
256
164
81
9
-50
-91
-108
-112
-110
-103
-97
-99
-98
-98
-116
-121
-120
-164
-163
-35
-24
-337
-689
-721
-593
-597
-524
-104
243
31
-375
-417
-228
-141
-127
-87
-43
9
82
155
229
314
406
509
622
739
855
961
1033
1049
1004
908
768
592
398
209
36
-114
-230
-303
-342
-366
-378
-379
-373
-365
-358
-352
-344
-333
-322
-311
-299
-294
-298
-301
-298
-297
-296
-293
-288
-287
-284
-278
-272
-263
-254
-253
-256
-253
-241
-227
-215
-211
-210
-204
-195
-192
-192
-186
-174
-165
-159
-155
-150
-152
-170
-192
-192
-182
-181
-161
-109
-73
-85
-109
-101
-80
-89
-95
-69
-77
-84
-36
-83
-186
-90
120
615
1730
2240
823
-943
-1055
-377
-215
-205
-52
-36
-64
-7
13
16
65
106
138
197
258
319
397
479
555
625
672
687
682
660
614
544
454
352
255
170
93
27
-22
-52
-65
-67
-66
-64
-63
-66
-70
-80
-99
-112
-124
-157
-177
-186
-249
-282
-188
-162
-323
-405
-268
-183
-364
-610
-505
-16
296
110
-175
-216
-163
-159
-145
-113
-92
-62
-26
6
50
113
190
282
389
507
629
740
824
872
872
820
723
592
438
274
107
-45
-159
-227
-259
-267
-266
-262
-255
-250
-250
-252
-247
-243
-244
-245
-242
-241
-245
-248
-248
-249
-252
-251
-249
-251
-253
-249
-241
-238
-238
-236
-233
-231
-227
-220
-216
-213
-204
-194
-192
-198
-211
-231
-240
-234
-213
-169
-120
-109
-125
-133
-132
-125
-123
-130
-118
-107
-133
-110
-73
-166
-224
-108
107
826
1928
1785
45
-1115
-748
-249
-238
-185
-88
-117
-106
-52
-44
-20
30
63
102
162
230
301
376
454
535
603
640
651
640
603
536
441
334
231
132
34
-55
-117
-151
-173
-187
-181
-164
-156
-141
-118
-114
-107
-91
-126
-131
26
124
-148
-576
-744
-709
-682
-485
-48
139
-181
-496
-410
-181
-78
-30
32
84
142
220
308
403
499
599
714
835
944
1046
1130
1165
1138
1051
907
719
508
300
117
-29
-145
-234
-298
-336
-356
-362
-364
-366
-358
-339
-327
-325
-323
-315
-302
-288
-283
-283
-277
-266
-258
-255
-258
-263
-263
-255
-246
-239
-235
-232
-227
-223
-218
-215
-212
-209
-202
-193
-188
-188
-181
-171
-168
-168
-165
-160
-159
-155
-150
-146
-143
-143
-146
-148
-155
-177
-194
-193
-193
-189
-151
-101
-88
-103
-105
-94
-97
-100
-79
-82
-109
-70
-54
-167
-193
-71
226
1218
2383
1852
-141
-1109
-605
-217
-250
-151
-67
-111
-82
-31
-31
-3
42
68
113
178
238
306
394
483
563
629
674
692
682
644
576
484
376
266
165
77
-5
-74
-120
-145
-155
-153
-142
-131
-125
-118
-114
-123
-127
-126
-152
-184
-199
-254
-312
-265
-248
-345
-233
226
629
629
262
-159
-166
229
379
51
-271
-327
-316
-326
-302
-268
-245
-208
-165
-127
-78
-16
54
137
240
357
476
587
676
735
748
708
626
513
373
212
46
-106
-219
-283
-309
-312
-307
-301
-296
-286
-276
-270
-265
-259
-255
-252
-247
-243
-246
-248
-248
-250
-252
-246
-243
-249
-250
-244
-242
-241
-233
-226
-220
-213
-207
-207
-216
-242
-264
-258
-241
-218
-170
-128
-126
-135
-133
-126
-118
-123
-127
-106
-113
-133
-86
-103
-220
-205
-65
339
1441
2274
1242
-614
-1059
-441
-208
-251
-142
-104
-139
-91
-54
-52
-13
35
72
124
186
254
334
420
503
577
628
652
653
634
588
508
404
295
189
87
-2
-70
-120
-152
-164
-156
-143
-134
-118
-105
-111
-102
-87
-128
-122
50
161
-49
-367
-496
-527
-553
-331
115
237
-142
-465
-391
-203
-131
-100
-56
-13
46
119
193
276
363
446
540
644
741
833
917
964
958
905
800
647
476
314
161
18
-100
-185
-249
-302
-334
-344
-350
-355
-345
-328
-324
-324
-316
-303
-293
-285
-279
-272
-269
-271
-270
-265
-263
-265
-263
-253
-241
-235
-236
-232
-225
-223
-222
-214
-210
-210
-202
-185
-179
-185
-186
-177
-169
-162
-156
-154
-153
-148
-140
-139
-146
-147
-147
-161
-177
-176
-172
-163
-127
-86
-80
-96
-95
-78
-82
-95
-77
-73
-98
-58
-43
-158
-172
-17
309
1290
2370
1727
-275
-1146
-586
-214
-248
-132
-52
-105
-72
-18
-24
-1
46
74
114
171
229
295
373
453
528
590
628
641
634
611
562
482
387
296
205
116
42
-16
-60
-86
-94
-95
-91
-85
-86
-88
-90
-102
-113
-119
-145
-171
-175
-227
-290
-227
-176
-310
-371
-142
85
-4
-297
-387
-45
346
262
-109
-268
-225
-211
-213
-180
-150
-122
-81
-39
5
60
124
205
308
425
545
664
765
829
848
819
743
629
488
330
161
1
-130
-221
-275
-296
-297
-295
-294
-288
-281
-275
-268
-264
-262
-259
-254
-251
-250
-250
-251
-251
-252
-252
-248
-245
-246
-244
-237
-233
-232
-228
-222
-216
-209
-202
-197
-194
-189
-178
-167
-166
-168
-161
-149
-145
-147
-160
-185
-203
-198
-185
-162
-113
-69
-72
-96
-108
-101
-87
-91
-95
-72
-80
-101
-52
-67
-188
-164
3
415
1482
2274
1216
-660
-1112
-478
-218
-239
-118
-81
-120
-73
-36
-36
-1
44
83
134
185
245
325
404
475
555
623
655
673
681
649
574
480
379
272
164
59
-37
-114
-165
-179
-171
-166
-163
-148
-130
-116
-105
-111
-114
-104
-139
-167
-41
121
9
-359
-642
-720
-773
-750
-415
-35
-117
-445
-447
-191
-58
-41
2
47
83
141
212
286
372
469
578
700
829
958
1077
1161
1190
1155
1049
886
686
470
259
75
-77
-193
-273
-322
-355
-375
-386
-387
-379
-368
-360
-351
-341
-333
-329
-321
-310
-303
-299
-295
-292
-288
-284
-284
-283
-277
-272
-269
-262
-256
-253
-246
-236
-229
-224
-217
-213
-210
-204
-196
-188
-182
-175
-169
-165
-162
-160
-157
-151
-145
-143
-143
-139
-145
-171
-193
-193
-184
-167
-120
-70
-63
-82
-93
-86
-76
-83
-84
-64
-75
-83
-31
-69
-182
-130
25
458
1594
2326
1145
-663
-971
-364
-192
-223
-106
-87
-117
-64
-39
-40
1
42
74
124
180
239
312
394
474
551
611
647
661
655
627
573
492
392
287
185
90
8
-57
-105
-135
-149
-145
-133
-125
-114
-101
-107
-110
-103
-135
-151
-35
58
-122
-444
-584
-553
-554
-452
-32
311
57
-462
-587
-376
-228
-178
-122
-74
-25
54
134
204
285
374
467
576
698
811
913
998
1042
1028
951
818
646
455
257
77
-74
-198
-281
-313
-339
-390
-424
-416
-402
-396
-381
-358
-344
-338
-330
-317
-304
-292
-282
-277
-272
-266
-260
-255
-251
-245
-240
-239
-237
-234
-230
-225
-219
-213
-205
-199
-198
-196
-190
-185
-178
-170
-165
-163
-157
-151
-150
-154
-168
-183
-184
-182
-182
-157
-108
-83
-94
-106
-98
-88
-98
-95
-69
-88
-104
-46
-75
-193
-137
45
491
1624
2369
1169
-715
-1064
-426
-223
-237
-99
-78
-122
-68
-33
-36
3
47
76
124
185
243
312
396
483
561
619
654
665
657
627
563
470
367
266
167
75
-8
-76
-118
-136
-146
-148
-138
-124
-120
-118
-115
-122
-129
-132
-152
-168
-174
-232
-283
-207
-159
-284
-325
-119
55
-55
-319
-350
28
377
227
-147
-272
-219
-209
-209
-172
-140
-112
-70
-25
21
77
145
229
332
445
563
676
773
840
863
837
767
659
524
372
209
49
-87
-188
-253
-282
-287
-284
-278
-269
-264
-264
-260
-254
-249
-245
-243
-241
-236
-234
-238
-241
-240
-239
-241
-244
-244
-241
-237
-233
-229
-225
-222
-221
-219
-214
-206
-202
-200
-195
-190
-185
-180
-178
-192
-218
-231
-227
-214
-179
-128
-108
-120
-129
-129
-122
-113
-121
-122
-106
-123
-119
-72
-140
-238
-154
32
618
1809
2161
626
-958
-917
-327
-249
-242
-118
-121
-133
-78
-63
-53
-9
21
53
109
169
234
310
387
464
536
591
628
647
637
599
537
448
340
230
126
24
-64
-128
-167
-189
-192
-180
-172
-162
-134
-122
-131
-110
-104
-155
-94
122
152
-184
-552
-700
-760
-735
-412
-4
-43
-445
-596
-370
-142
-54
0
53
104
179
262
336
419
516
620
727
829
926
1020
1097
1130
1104
1014
871
699
516
331
165
30
-85
-184
-254
-296
-323
-343
-351
-347
-339
-333
-324
-308
-297
-293
-286
-273
-262
-258
-255
-253
-253
-252
-247
-243
-243
-241
-236
-233
-233
-229
-223
-218
-214
-211
-209
-205
-198
-194
-190
-184
-176
-172
-170
-165
-162
-163
-158
-148
-145
-145
-140
-136
-135
-133
-128
-123
-125
-147
-172
-176
-172
-171
-144
-97
-80
-94
-104
-98
-92
-102
-106
-81
-86
-109
-65
-76
-197
-179
-21
348
1413
2367
1481
-465
-1095
-506
-226
-267
-155
-107
-153
-115
-79
-85
-52
-7
19
62
119
173
238
317
397
472
538
585
610
617
602
564
500
411
311
216
127
41
-34
-92
-135
-156
-156
-151
-145
-134
-129
-130
-127
-137
-152
-145
-162
-204
-146
-48
-149
-395
-481
-376
-358
-473
-356
92
310
-24
-393
-372
-215
-174
-164
-124
-85
-34
30
92
162
246
330
420
527
646
767
880
969
1016
1008
948
839
692
519
339
166
14
-107
-195
-251
-278
-287
-288
-284
-275
-266
-258
-249
-239
-230
-221
-212
-205
-201
-200
-200
-196
-193
-194
-196
-193
-188
-185
-182
-177
-169
-164
-162
-157
-146
-138
-134
-127
-121
-118
-112
-102
-95
-90
-85
-81
-79
-77
-71
-69
-69
-66
-60
-55
-55
-57
-56
-53
-53
-52
-45
-41
-46
-46
-41
-43
-49
-49
-47
-47
-46
-47
-49
-50
-50
-50
-50
-52
-55
-56
-52
-52
-56
-58
-56
-54
-55
-56
-58
-68
-86
-102
-110
-110
-93
-51
-8
-3
-34
-67
-77
-66
-68
-79
-64
-68
-97
-59
-57
-181
-180
-7
342
1351
2391
1655
-351
-1148
-574
-239
-289
-183
-114
-162
-131
-88
-91
-62
-22
1
40
89
134
190
254
319
393
461
508
537
551
548
531
496
438
363
286
207
128
58
-6
-60
-94
-114
-128
-133
-128
-126
-125
-125
-135
-143
-147
-168
-186
-187
-228
-263
-176
-118
-272
-430
-362
-261
-398
-650
-593
-154
114
-129
-433
-387
-215
-174
-187
-167
-140
-108
-64
-20
40
142
271
400
533
677
821
960
1078
1150
1159
1100
974
797
598
393
196
21
-120
-221
-285
-315
-322
-315
-305
-294
-283
-275
-272
-266
-255
-247
-243
-237
-229
-223
-220
-216
-214
-214
-214
-211
-210
-209
-205
-198
-191
-186
-183
-179
-172
-165
-161
-155
-149
-142
-135
-129
-124
-119
-113
-104
-95
-91
-91
-88
-80
-74
-71
-67
-64
-60
-59
-59
-57
-52
-45
-41
-41
-40
-35
-30
-31
-32
-30
-29
-32
-32
-29
-30
-32
-30
-28
-29
-28
-28
-31
-36
-46
-62
-73
-69
-51
-21
19
43
27
-17
-39
-25
-23
-42
-34
-31
-64
-38
-21
-142
-178
-26
239
1065
2161
1809
-34
-1064
-638
-240
-275
-197
-111
-158
-145
-98
-98
-75
-33
-11
22
71
115
167
231
299
373
444
501
543
563
561
547
518
459
377
292
201
103
10
-71
-133
-171
-193
-204
-198
-180
-169
-159
-143
-146
-155
-141
-161
-202
-100
74
-36
-471
-823
-896
-890
-790
-384
5
-167
-635
-736
-488
-278
-153
-41
43
132
239
320
414
549
644
684
754
878
1010
1129
1225
1272
1251
1160
1002
794
566
351
166
13
-107
-199
-272
-326
-357
-374
-380
-378
-375
-372
-361
-345
-331
-321
-313
-303
-289
-278
-273
-270
-264
-259
-256
-254
-252
-250
-249
-249
-247
-243
-238
-231
-225
-218
-211
-204
-199
-194
-189
-184
-179
-172
-164
-159
-156
-150
-146
-144
-141
-136
-131
-127
-121
-117
-115
-114
-111
-108
-102
-98
-97
-96
-94
-94
-93
-92
-92
-97
-104
-114
-123
-126
-120
-95
-50
-16
-25
-62
-86
-80
-74
-89
-84
-71
-103
-97
-44
-124
-222
-117
91
724
1962
2267
644
-937
-861
-301
-260
-247
-124
-143
-155
-94
-81
-73
-29
1
31
84
137
193
263
342
423
502
567
619
654
663
651
619
560
476
382
286
190
96
12
-56
-105
-133
-143
-144
-137
-122
-112
-108
-100
-102
-114
-103
-106
-152
-120
0
-40
-309
-521
-511
-456
-502
-428
-49
232
9
-350
-358
-173
-68
-3
41
23
28
96
162
219
301
400
503
615
737
867
998
1102
1158
1159
1099
975
804
605
397
203
35
-104
-208
-278
-319
-340
-346
-347
-346
-339
-325
-312
-302
-290
-276
-265
-259
-253
-246
-240
-237
-237
-238
-237
-240
-243
-240
-235
-235
-235
-232
-228
-224
-222
-221
-221
-221
-217
-214
-210
-209
-211
-211
-208
-209
-213
-211
-207
-209
-212
-207
-200
-203
-210
-213
-210
-208
-208
-208
-209
-211
-213
-218
-232
-248
-253
-252
-242
-200
-148
-141
-174
-196
-189
-178
-188
-193
-170
-178
-195
-145
-168
-287
-238
-53
377
1512
2362
1262
-688
-1148
-511
-277
-302
-163
-121
-157
-98
-56
-52
-8
38
70
125
186
245
322
411
500
593
682
752
800
827
834
817
771
699
612
520
430
346
272
209
164
140
135
144
160
