# session 16
-10
-19
-4
51
58
22
45
20
-122
-147
6
54
-89
-149
7
82
-117
-264
-119
16
-118
-311
-268
-67
169
726
1405
1090
-217
-938
-617
-281
-218
-37
103
-9
-91
47
191
158
118
231
309
233
238
422
531
427
299
302
314
154
-92
-200
-146
-116
-227
-383
-394
-248
-119
-72
-72
-181
-336
-311
-155
-122
-166
-115
-70
-144
-201
-154
-128
-231
-371
-340
-167
-158
-295
-256
-122
105
886
1614
866
-761
-1289
-709
-326
-269
-125
-18
-29
-18
22
65
116
147
178
240
329
448
549
570
529
470
413
353
209
-24
-151
-79
-19
-145
-335
-408
-363
-225
34
192
11
-185
-75
-11
-144
-64
107
-44
-177
-15
-3
-208
-217
-84
-3
-3
-217
-425
-291
-71
420
1538
1859
316
-1101
-779
-124
-255
-381
-112
33
-80
-150
-41
128
229
295
363
373
330
331
368
345
270
231
251
249
112
-122
-208
-114
-152
-396
-509
-347
-183
-219
-256
-135
-125
-291
-231
1
-60
-219
-89
20
-145
-281
-254
-218
-178
-82
-18
-116
-277
-292
-238
-27
800
1595
969
-465
-897
-450
-237
-234
-159
-146
-119
-15
25
40
100
121
109
148
257
376
396
371
480
570
330
14
56
214
74
-157
-160
-122
-236
-289
-194
-183
-229
-131
-60
-159
-157
9
47
-85
-165
-98
27
55
55
179
115
-320
-512
-243
-172
-335
-277
-185
170
1397
2218
1024
-769
-1102
-580
-302
-106
-19
-180
-163
23
-7
-91
-22
73
191
328
368
399
497
487
383
392
384
116
-174
-138
-4
-110
-255
-249
-269
-254
-71
-72
-315
-291
-92
-197
-320
-163
-118
-233
-181
-114
-184
-189
-147
-172
-159
-127
-174
-191
-91
-32
-210
-357
262
1483
1725
446
-645
-521
-242
-398
-356
-61
-11
-139
-115
-14
-78
-188
-5
294
265
209
523
608
158
24
412
481
182
113
160
1
-187
-230
-224
-263
-287
-179
-34
-60
-156
-117
-43
-72
-97
-39
4
-55
-201
-312
-256
-114
-92
-204
-328
-324
-143
-48
-180
-200
-81
24
727
1849
1612
-104
-1065
-600
-99
-103
-185
-194
-123
-69
-147
-134
52
146
179
296
361
419
652
802
571
257
279
478
415
83
-134
-61
40
-114
-366
-374
-238
-243
-271
-145
-66
-179
-249
-142
-61
-114
-194
-261
-263
-158
-118
-173
-109
-116
-448
-597
-222
-36
-331
-371
-82
173
883
1680
1027
-568
-1107
-668
-434
-342
-139
-104
-185
-161
-53
58
97
122
227
265
254
414
557
468
386
393
328
251
229
210
156
-18
-198
-159
-70
-126
-157
-129
-111
-34
-9
-120
-176
-126
-64
-73
-220
-268
-126
-197
-351
-180
-154
-423
-243
205
119
-218
-238
-128
-174
-79
702
1585
1050
-523
-1078
-542
-320
-319
-53
-25
-194
-40
93
-69
-27
257
325
266
342
421
466
598
684
595
493
508
507
290
-77
-241
-105
-7
-90
-162
-220
-322
-266
-32
64
-85
-248
-259
-188
-207
-341
-384
-166
26
-247
-644
-456
-11
-68
-304
-154
-28
-245
-349
-305
-279
462
1780
1661
-158
-1205
-713
-257
-197
-22
-141
-492
-296
165
170
-2
86
206
189
244
447
587
528
440
508
542
346
150
126
94
20
8
-91
-316
-353
-165
-139
-352
-424
-241
-112
-175
-222
-127
-39
-115
-280
-313
-137
26
-18
-136
-175
-208
-218
-147
-161
-212
-87
15
186
925
1477
627
-681
-782
-173
-56
-215
-138
-28
-55
-74
-16
54
114
167
217
313
426
450
478
571
490
276
288
396
247
30
-39
-135
-251
-220
-177
-200
-140
-109
-275
-428
-396
-258
-109
-123
-318
-323
-128
-161
-280
-108
9
-179
-185
61
25
-187
-204
-303
-471
-322
-81
372
1437
1803
340
-1196
-1118
-344
-20
-33
-58
-76
-218
-317
24
481
436
230
351
406
237
336
597
549
437
504
423
179
74
28
-71
-72
2
-29
-176
-351
-440
-300
-25
60
-123
-339
-405
-255
10
55
-192
-321
-160
-45
-163
-303
-278
-187
-197
-234
-217
-229
-285
-301
4
957
1778
1110
-437
-1028
-634
-358
-294
-175
-114
-77
1
-4
-16
118
269
295
307
415
536
578
571
559
514
408
279
170
73
-34
-145
-237
-288
-285
-260
-260
-276
-237
-163
-178
-268
-297
-305
-378
-410
-371
-376
-357
-194
-84
-163
-155
11
-42
-292
-278
-40
-17
-271
-239
721
1875
1465
-223
-1006
-543
-200
-188
-64
46
121
196
80
-23
110
166
78
165
371
508
615
600
413
317
350
236
20
-32
22
-46
-208
-253
-142
-83
-168
-197
-96
-49
-73
-62
-78
-134
-127
-96
-100
-78
-69
-160
-260
-237
-165
-206
-273
-185
-126
-246
-269
-96
282
1098
1600
590
-917
-1051
-358
-190
-250
-71
-16
-110
-99
-61
33
276
367
213
221
439
495
402
402
416
325
254
280
285
189
56
-47
-109
-148
-190
-227
-202
-134
-130
-183
-187
-170
-225
-253
-146
-85
-203
-294
-234
-197
-244
-239
-179
-193
-253
-218
-155
-218
-324
-215
363
1192
1202
-51
-1113
-859
-237
-168
-252
-166
-110
-140
-180
-136
21
106
36
52
251
370
266
183
293
388
277
97
35
121
228
124
-178
-283
-56
78
-152
-403
-292
-17
-10
-222
-271
-130
-55
-71
-15
111
105
-81
-179
-50
45
-75
-203
-120
40
45
-36
-76
-23
587
1806
2159
792
-621
-679
-276
-232
-156
37
23
-64
16
109
47
2
163
380
456
447
455
432
317
180
173
286
321
194
35
-22
31
53
-75
-216
-200
-150
-214
-269
-214
-207
-333
-386
-280
-228
-296
-350
-398
-426
-341
-296
-400
-425
-303
-202
-136
-96
-186
-302
41
986
1387
150
-1486
-1635
-766
-357
-445
-334
92
460
448
198
102
173
156
107
264
524
572
406
331
493
630
415
39
-7
195
198
81
130
185
84
14
78
179
189
34
-80
21
-17
-280
-191
130
-68
-434
-212
71
-147
-310
-285
-487
-475
-67
-131
-567
-440
81
582
1116
962
-294
-1295
-979
-225
-98
-323
-286
-147
-112
55
177
-4
-70
30
-45
119
571
479
73
226
512
326
104
152
238
170
-52
-93
127
51
-238
-159
-51
-188
-65
158
47
-56
-77
-260
-248
9
20
-94
-58
-98
-158
-56
-82
-240
-134
89
1
-237
34
1135
2012
1194
-550
-1147
-609
-244
-202
-172
-149
-7
73
-120
-68
349
362
-26
-7
364
536
545
499
374
367
394
215
106
185
54
-231
-263
-139
-103
-135
-191
-170
-52
-70
-202
-163
-73
-143
-187
-138
-185
-236
-152
-98
-139
-195
-311
-389
-290
-253
-381
-354
-42
526
1181
1082
-142
-1197
-1051
-481
-301
-239
-100
-131
-291
-261
-28
94
25
31
223
473
667
631
330
161
291
288
98
184
399
238
-74
-108
-50
-103
-113
-68
-71
-56
0
5
-36
-66
-70
-60
-97
-172
-182
-152
-192
-227
-190
-193
-216
-169
-184
-258
-191
7
526
1454
1600
180
-1172
-1053
-439
-268
-190
-62
-53
-55
-35
0
134
254
236
225
337
492
583
565
503
486
450
312
141
34
-4
-12
-62
-185
-270
-224
-173
-207
-207
-136
-91
-77
-89
-149
-174
-147
-174
-219
-190
-178
-232
-272
-289
-285
-262
-304
-333
-267
-155
416
1544
1788
376
-942
-882
-447
-401
-333
-157
-109
-96
-12
60
53
4
-10
43
183
393
504
431
358
355
243
94
117
82
-142
-159
-33
-208
-288
44
28
-413
-368
-79
-274
-347
64
144
-138
-123
-116
-407
-411
-113
-137
-322
-152
122
49
-189
-233
-206
-97
690
1780
1539
26
-737
-342
-103
-198
-73
36
-75
-103
-3
56
107
199
291
366
376
310
347
564
678
514
327
285
231
127
77
37
-16
-13
5
16
65
43
-118
-262
-278
-218
-173
-223
-288
-245
-242
-425
-541
-380
-241
-384
-459
-237
-179
-392
-375
-244
-120
610
1306
466
-989
-1089
-328
-81
-196
-221
-223
-158
-53
-71
-82
50
171
190
191
221
253
260
225
164
120
94
54
15
18
34
17
5
8
-13
-15
23
7
-64
-93
-95
-119
-127
-109
-78
-11
24
-50
-124
-87
-37
-70
-88
-40
-61
-161
-224
-238
148
1252
1904
809
-764
-923
-252
-42
-99
-23
-3
-29
26
68
89
156
211
240
314
405
447
435
386
319
264
217
168
136
115
89
77
77
47
-4
-30
-34
-32
-34
-73
-146
-201
-225
-230
-212
-212
-249
-258
-233
-241
-256
-248
-252
-245
-244
-289
-277
-169
142
863
1236
161
-1380
-1545
-733
-314
-237
-72
3
-29
13
88
136
186
232
275
341
422
468
442
379
332
299
258
205
137
61
9
-8
-9
-27
-71
-100
-79
-57
-90
-146
-167
-163
-179
-197
-195
-217
-256
-234
-177
-173
-184
-179
-196
-180
-119
-140
-152
-40
55
332
860
610
-733
-1522
-965
-290
-136
-14
122
90
80
153
188
226
309
377
422
473
516
538
527
466
380
311
245
156
73
41
45
46
42
40
28
11
7
-5
-50
-95
-112
-126
-167
-212
-213
-166
-130
-137
-139
-113
-126
-169
-139
-108
-205
-283
-271
-217
265
1049
843
-463
-1085
-511
-40
-58
2
108
62
42
94
129
187
274
328
372
455
513
467
366
285
202
85
-17
-56
-56
-53
-54
-48
-44
-54
-70
-75
-80
-109
-147
-165
-183
-223
-246
-226
-211
-225
-218
-176
-161
-173
-165
-160
-162
-166
-226
-276
-265
-231
208
1093
1136
-172
-1093
-634
-36
-38
-77
3
-19
-15
69
93
93
157
244
310
346
343
311
261
185
94
13
-42
-68
-66
-42
-7
0
-40
-68
-49
-33
-47
-68
-105
-158
-184
-195
-221
-220
-181
-161
-163
-161
-163
-154
-147
-174
-168
-140
-222
-329
-333
-124
644
1501
1035
-462
-996
-354
27
-68
-41
36
16
44
102
120
155
211
258
303
337
334
298
241
181
141
120
113
119
130
132
126
117
105
89
75
58
34
2
-32
-58
-68
-80
-93
-92
-99
-128
-138
-127
-136
-140
-125
-137
-142
-110
-147
-239
-229
13
654
1263
682
-908
-1629
-971
-303
-168
-75
22
1
26
102
133
165
230
291
348
411
456
465
451
432
409
371
322
275
218
150
91
50
18
-7
-32
-67
-101
-130
-164
-196
-216
-242
-273
-283
-286
-293
-288
-278
-284
-281
-276
-294
-281
-250
-278
-239
-40
188
495
671
-42
-1332
-1693
-954
-346
-202
-67
50
49
86
167
210
250
303
358
434
513
562
595
619
605
554
490
404
291
178
96
43
4
-28
-54
-74
-87
-99
-121
-154
-180
-194
-217
-246
-251
-246
-258
-256
-230
-232
-237
-211
-217
-228
-175
-201
-332
-387
-319
140
1107
1358
37
-1232
-996
-285
-125
-107
6
12
11
79
114
147
221
290
352
424
475
489
472
424
361
308
267
234
207
179
150
136
134
126
113
101
79
51
18
-22
-62
-97
-131
-143
-133
-147
-180
-183
-178
-188
-178
-182
-217
-192
-168
-270
-352
-295
35
897
1525
598
-1044
-1366
-594
-190
-179
-76
-29
-72
-37
23
70
145
218
286
366
426
461
477
437
349
266
192
119
58
3
-57
-96
-103
-103
-112
-120
-119
-121
-138
-162
-181
-203
-237
-265
-267
-260
-267
-266
-254
-260
-264
-258
-263
-239
-212
-274
-325
-316
-224
360
1150
742
-761
-1378
-717
-189
-145
-50
42
13
39
110
151
207
281
355
449
537
584
598
576
505
409
317
233
154
86
38
1
-36
-55
-37
-5
8
3
-12
-38
-62
-79
-111
-147
-153
-146
-158
-162
-154
-165
-166
-154
-173
-167
-127
-185
-296
-354
-348
136
1143
1267
-107
-1158
-757
-128
-65
-55
45
35
40
105
135
174
253
324
395
478
533
543
509
430
327
224
126
42
-22
-63
-85
-93
-89
-76
-62
-59
-66
-78
-103
-132
-152
-178
-214
-218
-185
-170
-185
-193
-199
-201
-186
-194
-207
-165
-186
-322
-412
-388
-2
920
1315
207
-1052
-914
-213
-75
-135
-46
-27
-42
17
59
85
153
229
298
372
424
440
424
367
277
184
104
45
1
-36
-61
-67
-62
-57
-51
-48
-49
-54
-70
-99
-131
-152
-171
-181
-155
-120
-132
-168
-179
-189
-199
-181
-184
-203
-160
-167
-321
-469
-456
53
1177
1644
360
-1146
-1086
-319
-110
-135
-29
-7
-14
58
99
128
207
278
328
403
472
493
476
433
364
289
222
164
112
66
30
6
-13
-32
-46
-51
-58
-71
-87
-106
-132
-159
-181
-199
-201
-174
-159
-187
-212
-212
-226
-228
-200
-213
-227
-178
-208
-322
-335
-206
306
1174
1124
-405
-1563
-1125
-352
-178
-113
12
-4
-3
83
125
160
242
319
382
449
501
520
505
453
377
302
242
194
144
91
51
29
24
24
22
27
42
42
21
1
-19
-53
-76
-88
-116
-138
-129
-128
-142
-129
-121
-138
-135
-134
-148
-107
-92
-169
-176
-112
86
737
1159
206
-1192
-1262
-463
-100
-49
97
145
108
158
221
249
300
366
430
503
567
597
586
534
453
359
268
194
139
83
22
-24
-47
-57
-62
-64
-59
-55
-64
-81
-107
-144
-176
-193
-218
-245
-247
-241
-252
-253
-249
-268
-269
-252
-275
-271
-223
-290
-400
-409
-366
100
1076
1154
-306
-1411
-992
-332
-245
-205
-93
-109
-108
-42
-13
28
106
176
252
337
397
420
405
344
255
163
79
11
-43
-87
-114
-119
-113
-105
-97
-93
-92
-95
-102
-114
-144
-188
-217
-231
-249
-248
-213
-198
-221
-229
-223
-236
-232
-214
-232
-213
-162
-238
-350
-338
-165
585
1739
1630
-123
-1280
-799
-165
-120
-76
37
20
43
130
169
218
309
392
481
587
666
691
679
644
578
493
416
347
271
206
168
