# session 26
-6
-27
14
46
-44
-173
-213
-216
-199
-172
-240
-293
-192
67
839
1886
1656
-44
-1088
-656
-163
-200
-193
-102
-131
-136
-79
-69
-76
-44
-5
5
7
42
93
116
128
162
205
241
285
340
389
415
423
437
454
431
367
297
230
151
72
-1
-73
-126
-148
-159
-171
-178
-175
-163
-152
-153
-160
-160
-155
-151
-149
-149
-149
-147
-149
-152
-150
-155
-168
-164
-154
-161
-165
-151
-153
-178
-181
-157
-142
-151
-163
-168
-176
-190
-189
-159
-122
-85
-41
-34
-77
-112
-108
-89
-80
-99
-121
-99
-87
-115
-94
-82
-180
-203
-59
271
1082
1832
1147
-496
-1079
-495
-126
-150
-90
-52
-96
-68
-27
-29
-13
14
27
41
55
79
118
144
157
183
218
248
285
328
365
389
403
415
425
412
372
321
264
197
129
68
17
-22
-54
-70
-63
-57
-67
-65
-47
-48
-60
-54
-48
-59
-69
-67
-69
-84
-94
-87
-91
-124
-145
-130
-120
-127
-129
-130
-140
-148
-150
-149
-146
-145
-145
-139
-135
-144
-162
-171
-158
-130
-99
-62
-37
-61
-109
-122
-115
-115
-116
-125
-131
-115
-119
-124
-83
-110
-218
-189
27
519
1337
1564
410
-889
-913
-327
-146
-160
-93
-83
-90
-48
-33
-33
-12
-2
6
34
60
76
102
132
154
175
205
236
264
291
315
331
341
349
351
342
316
268
208
147
84
24
-18
-47
-78
-96
-93
-86
-85
-82
-81
-84
-86
-88
-90
-90
-91
-95
-106
-117
-122
-125
-133
-139
-139
-144
-152
-154
-153
-155
-156
-152
-145
-140
-139
-143
-155
-173
-173
-145
-108
-65
-30
-45
-90
-99
-91
-99
-101
-103
-106
-86
-89
-105
-67
-95
-195
-118
124
598
1542
1949
620
-1064
-1166
-446
-246
-238
-72
-50
-98
-42
-9
-17
8
26
28
53
85
111
139
153
164
207
266
300
325
370
409
426
445
461
450
426
395
337
256
177
104
27
-47
-92
-108
-123
-142
-150
-146
-142
-134
-128
-132
-131
-126
-136
-149
-146
-145
-160
-179
-196
-212
-212
-198
-196
-213
-214
-190
-187
-214
-225
-222
-245
-270
-248
-208
-176
-127
-92
-119
-161
-165
-153
-142
-135
-144
-140
-130
-151
-136
-101
-172
-223
-137
83
880
2054
1917
142
-1043
-667
-156
-169
-157
-77
-108
-108
-71
-73
-51
-11
-3
7
37
61
84
118
153
187
228
272
312
349
387
416
430
434
437
426
387
329
258
175
93
27
-32
-89
-124
-134
-142
-150
-147
-137
-135
-140
-137
-125
-119
-120
-122
-128
-132
-131
-130
-131
-132
-137
-144
-141
-138
-147
-156
-156
-156
-169
-194
-217
-219
-201
-175
-133
-81
-70
-112
-145
-143
-138
-140
-143
-141
-123
-120
-131
-107
-130
-231
-218
-92
209
1132
2045
1343
-442
-1084
-478
-121
-180
-128
-82
-119
-84
-39
-43
-29
-5
10
33
51
61
87
132
181
207
217
256
312
335
347
358
354
374
377
276
201
272
308
202
102
53
-12
-67
-83
-99
-115
-108
-97
-99
-90
-74
-76
-81
-75
-75
-80
-76
-87
-110
-107
-91
-99
-115
-113
-111
-130
-152
-148
-132
-136
-152
-157
-153
-162
-194
-224
-207
-144
-82
-50
-54
-91
-127
-143
-146
-132
-119
-139
-148
-130
-142
-138
-99
-163
-254
-176
57
659
1572
1551
108
-1033
-784
-238
-165
-159
-94
-110
-104
-77
-92
-60
0
-1
-10
22
49
63
91
122
151
184
212
237
279
322
336
335
346
355
349
334
301
247
194
143
79
25
0
-28
-64
-67
-53
-62
-62
-35
-29
-49
-51
-43
-47
-37
-26
-54
-84
-82
-88
-108
-100
-81
-87
-96
-97
-103
-110
-118
-133
-140
-133
-128
-127
-128
-138
-153
-155
-138
-120
-105
-64
-25
-59
-117
-113
-95
-109
-102
-87
-109
-109
-94
-106
-84
-73
-164
-189
-24
349
1063
1544
766
-655
-1069
-531
-191
-172
-110
-78
-102
-77
-52
-54
-34
-14
-7
13
35
51
77
104
121
138
166
197
225
248
266
282
293
299
307
309
295
272
245
198
138
90
54
18
-5
-14
-24
-33
-27
-18
-18
-20
-16
-14
-19
-23
-21
-21
-33
-48
-54
-59
-68
-79
-86
-92
-101
-111
-116
-116
-113
-105
-99
-109
-134
-140
-125
-120
-127
-126
-135
-159
-155
-119
-89
-61
-27
-25
-69
-125
-150
-127
-96
-104
-108
-73
-82
-130
-103
-95
-192
-191
-21
369
1207
1743
764
-842
-1190
-559
-240
-215
-117
-93
-120
-83
-61
-57
-38
-41
-40
-4
23
37
64
91
115
152
189
224
259
282
303
336
352
342
344
359
337
278
222
176
121
52
-11
-35
-36
-57
-90
-94
-78
-71
-69
-65
-61
-61
-65
-71
-77
-81
-84
-92
-103
-113
-123
-134
-135
-127
-136
-157
-158
-143
-139
-143
-142
-137
-138
-143
-149
-155
-168
-178
-163
-118
-63
-20
-24
-69
-91
-81
-79
-77
-71
-80
-72
-58
-84
-90
-79
-148
-188
-94
165
925
1841
1476
-143
-1012
-555
-113
-146
-135
-64
-85
-76
-37
-38
-34
-7
12
24
39
59
89
121
148
169
196
229
257
284
322
346
347
358
372
355
327
302
242
149
84
48
-3
-65
-98
-105
-107
-108
-103
-97
-90
-90
-109
-124
-104
-81
-94
-116
-110
-96
-104
-126
-137
-127
-121
-134
-150
-146
-134
-139
-154
-152
-138
-137
-140
-131
-128
-145
-152
-141
-137
-147
-156
-165
-173
-153
-111
-78
-54
-39
-64
-114
-129
-106
-93
-108
-116
-92
-87
-123
-109
-62
-124
-197
-111
143
782
1597
1376
-56
-969
-615
-151
-138
-129
-65
-91
-86
-43
-49
-51
-24
-12
0
26
43
55
85
121
147
175
207
235
267
299
317
328
345
355
345
329
308
271
220
168
121
79
46
22
8
3
3
3
5
15
20
8
-6
-4
0
-7
-12
-7
-10
-32
-51
-59
-62
-62
-68
-88
-101
-106
-119
-124
-108
-103
-120
-138
-144
-138
-130
-130
-132
-133
-130
-126
-127
-129
-122
-128
-164
-186
-162
-122
-87
-47
-41
-98
-150
-148
-136
-138
-130
-124
-125
-129
-140
-128
-121
-181
-206
-108
167
880
1603
1096
-419
-1125
-642
-199
-165
-109
-41
-71
-79
-50
-41
-40
-30
-14
2
18
46
83
107
116
132
165
202
225
245
280
311
318
314
316
317
305
281
250
210
158
104
56
15
-11
-22
-28
-36
-39
-34
-29
-30
-33
-39
-43
-37
-29
-35
-49
-60
-67
-71
-74
-81
-93
-99
-100
-99
-99
-103
-107
-105
-98
-99
-101
-90
-79
-85
-94
-88
-77
-76
-75
-68
-62
-65
-76
-97
-112
-97
-65
-34
2
25
-6
-52
-62
-57
-57
-59
-79
-95
-89
-111
-115
-57
-94
-213
-169
47
528
1360
1544
281
-1034
-961
-328
-168
-178
-84
-72
-94
-59
-33
-32
-35
-30
-1
27
33
47
85
122
151
174
198
234
275
297
304
328
361
366
348
351
354
304
224
166
118
56
-1
-39
-65
-80
-85
-88
-84
-68
-63
-77
-89
-90
-88
-75
-54
-55
-82
-98
-87
-82
-101
-120
-124
-127
-128
-123
-126
-135
-131
-130
-144
-153
-149
-139
-132
-137
-148
-144
-132
-130
-131
-131
-133
-131
-135
-159
-170
-138
-92
-54
-22
-25
-64
-85
-76
-73
-75
-78
-83
-80
-89
-95
-58
-78
-167
-144
5
405
1285
1781
782
-690
-928
-359
-135
-149
-75
-63
-90
-51
-25
-34
-30
-17
-4
15
41
79
109
116
134
183
223
233
251
290
323
338
348
354
353
342
318
283
237
179
119
65
14
-29
-54
-62
-66
-71
-69
-60
-60
-66
-69
-70
-69
-64
-61
-65
-69
-68
-67
-73
-87
-104
-114
-114
-111
-114
-120
-122
-120
-122
-123
-119
-118
-119
-117
-110
-106
-104
-99
-96
-97
-99
-98
-93
-94
-109
-122
-109
-81
-57
-27
-2
-23
-68
-88
-87
-89
-88
-91
-93
-80
-91
-104
-64
-87
-192
-160
49
492
1264
1534
452
-867
-949
-361
-151
-152
-74
-62
-81
-45
-29
-35
-14
4
9
25
45
65
91
119
146
176
207
235
261
286
308
327
339
343
339
327
307
278
237
183
124
68
17
-24
-49
-63
-70
-71
-74
-79
-77
-73
-77
-78
-66
-66
-87
-104
-106
-108
-110
-115
-125
-134
-138
-144
-146
-141
-140
-145
-146
-143
-141
-141
-137
-130
-126
-126
-123
-116
-110
-107
-106
-103
-96
-90
-85
-81
-81
-83
-86
-99
-114
-106
-78
-44
-8
10
-19
-56
-66
-69
-72
-70
-81
-77
-60
-81
-82
-40
-105
-187
-84
163
764
1687
1644
120
-1068
-790
-226
-164
-138
-42
-65
-74
-30
-27
-20
11
20
32
59
78
101
140
172
189
213
255
299
337
372
405
427
437
445
448
437
412
366
295
215
138
64
-5
-60
-99
-119
-122
-120
-120
-117
-109
-106
-109
-105
-96
-94
-102
-108
-110
-113
-120
-130
-138
-145
-153
-165
-175
-176
-176
-180
-183
-183
-183
-186
-194
-198
-194
-192
-194
-189
-178
-171
-170
-168
-164
-162
-167
-183
-197
-191
-172
-140
-83
-42
-68
-117
-124
-112
-109
-112
-123
-120
-99
-120
-125
-68
-117
-228
-159
31
532
1593
1998
633
-921
-920
-272
-141
-159
-60
-65
-82
-27
-19
-26
6
25
35
65
88
101
129
165
197
234
275
316
359
406
447
473
490
504
510
495
457
403
333
245
158
87
22
-38
-74
-91
-103
-107
-102
-102
-106
-101
-95
-95
-98
-99
-99
-99
-104
-115
-122
-126
-133
-143
-150
-155
-162
-168
-170
-172
-172
-171
-173
-176
-175
-171
-167
-163
-159
-160
-159
-150
-143
-142
-140
-135
-135
-134
-125
-120
-120
-118
-124
-143
-156
-148
-128
-99
-50
-11
-28
-74
-89
-85
-89
-92
-99
-101
-76
-81
-107
-63
-63
-175
-158
15
359
1237
1972
1140
-533
-999
-399
-111
-155
-83
-48
-83
-50
-19
-27
-10
14
24
40
59
83
115
146
173
205
243
281
320
364
406
438
465
486
496
490
467
424
360
282
199
121
49
-15
-60
-85
-100
-112
-118
-118
-115
-109
-102
-97
-96
-94
-92
-95
-102
-105
-109
-117
-123
-124
-133
-150
-160
-165
-168
-167
-165
-170
-175
-172
-166
-167
-168
-166
-167
-171
-168
-160
-152
-148
-146
-144
-140
-138
-135
-131
-130
-131
-129
-126
-127
-125
-114
-111
-120
-127
-134
-147
-148
-132
-108
-69
-20
-9
-50
-80
-82
-84
-78
-71
-87
-81
-62
-79
-62
-32
-121
-168
-28
231
945
1922
1645
-67
-1089
-642
-144
-147
-102
-20
-62
-55
-1
-2
4
31
39
54
88
112
133
164
200
234
267
301
343
391
428
448
472
502
517
509
495
471
417
336
251
167
81
3
-61
-109
-132
-135
-137
-143
-142
-134
-127
-121
-115
-110
-103
-95
-97
-107
-113
-113
-114
-119
-131
-143
-150
-152
-154
-161
-171
-177
-177
-181
-184
-183
-181
-182
-181
-177
-175
-175
-174
-168
-157
-152
-154
-155
-151
-149
-147
-142
-140
-139
-134
-132
-137
-147
-160
-167
-159
-136
-98
-52
-37
-72
-105
-103
-96
-100
-105
-104
-79
-67
-103
-88
-35
-123
-202
-80
116
717
1828
1940
324
-1000
-725
-155
-142
-138
-32
-55
-64
-11
-5
-8
18
36
48
64
83
111
142
170
200
237
277
321
367
417
458
479
498
520
520
495
460
404
321
229
139
59
-10
-71
-123
-148
-150
-154
-161
-153
-140
-135
-130
-119
-109
-109
-115
-120
-120
-119
-122
-129
-135
-137
-139
-142
-147
-154
-161
-163
-162
-159
-157
-158
-160
-154
-148
-152
-155
-149
-144
-144
-138
-129
-125
-120
-116
-115
-112
-106
-105
-107
-104
-100
-98
-97
-94
-88
-87
-95
-101
-107
-119
-120
-96
-60
-18
15
1
-46
-66
-57
-55
-56
-59
-65
-50
-50
-76
-43
-22
-124
-146
2
267
1004
1888
1466
-161
-965
-494
-99
-130
-90
-31
-67
-52
-13
-17
-7
13
15
32
62
79
97
127
155
182
215
250
284
322
362
397
428
450
458
457
447
415
354
279
200
123
51
-12
-65
-103
-123
-130
-135
-135
-130
-125
-122
-117
-112
-108
-103
-98
-99
-100
-98
-97
-101
-106
-110
-118
-126
-129
-133
-140
-143
-141
-137
-135
-134
-135
-138
-139
-134
-130
-131
-132
-130
-128
-127
-124
-120
-118
-115
-114
-113
-109
-105
-104
-103
-101
-99
-97
-97
-100
-100
-95
-93
-93
-89
-85
-86
-85
-78
-76
-81
-83
-83
-92
-102
-101
-91
-80
-57
-11
25
5
-37
-49
-48
-52
-48
-53
-58
-37
-43
-62
-19
-42
-154
-92
119
512
1433
2037
974
-699
-984
-341
-116
-150
-50
-28
-62
-17
9
6
31
43
44
71
99
113
133
161
191
225
261
298
336
374
408
442
475
503
516
511
491
456
407
341
257
166
86
10
-64
-115
-139
-156
-164
-153
-143
-150
-152
-137
-124
-125
-125
-114
-107
-115
-127
-131
-134
-147
-156
-149
-149
-176
-199
-193
-184
-193
-198
-193
-193
-199
-199
-193
-190
-189
-183
-176
-172
-170
-167
-164
-159
-152
-146
-144
-143
-141
-141
-141
-137
-144
-172
-196
-191
-161
-112
-58
-43
-78
-114
-127
-126
-111
-110
-135
-125
-99
-129
-130
-77
-146
-223
-112
66
626
1748
1984
441
-976
-788
-191
-153
-169
-71
-94
-102
-42
-41
-49
-13
6
10
35
59
77
105
139
174
216
260
303
352
406
454
489
519
545
548
518
471
409
324
225
129
41
-30
-78
-119
-155
-172
-173
-169
-161
-149
-139
-132
-125
-118
-109
-101
-101
-102
-98
-94
-93
-96
-101
-107
-109
-108
-108
-110
-112
-111
-106
-100
-96
-94
-94
-90
-80
-68
-64
-64
-63
-59
-54
-46
-40
-37
-32
-25
-21
-19
-18
-13
-11
-22
-41
-49
-34
-6
33
77
92
64
28
16
15
14
16
19
