# session 31
61
55
30
99
222
240
189
184
188
157
125
106
97
111
138
171
190
162
110
86
79
68
61
47
38
48
23
-6
35
10
-96
-50
118
513
1461
2000
838
-809
-990
-304
-86
-127
-40
-31
-70
-34
-21
-33
-16
-8
-8
12
24
27
45
67
80
97
120
140
161
190
218
235
250
264
274
283
279
245
199
151
78
-13
-80
-126
-175
-215
-230
-234
-238
-238
-231
-219
-207
-204
-200
-190
-184
-187
-181
-167
-167
-172
-170
-170
-176
-177
-181
-195
-199
-190
-185
-180
-174
-173
-174
-172
-169
-164
-160
-162
-160
-148
-140
-146
-162
-170
-154
-118
-71
-27
-18
-53
-87
-95
-96
-92
-88
-94
-88
-79
-97
-82
-50
-111
-145
-28
204
814
1633
1402
-62
-960
-546
-53
-64
-79
-12
-32
-27
16
14
16
32
24
32
67
79
86
126
154
147
147
174
203
228
252
271
284
295
299
298
303
302
272
227
183
119
46
-1
-38
-73
-78
-89
-128
-136
-119
-131
-128
-92
-87
-93
-69
-67
-96
-91
-72
-87
-93
-62
-55
-83
-93
-83
-91
-108
-115
-110
-95
-91
-109
-99
-47
-38
-96
-135
-121
-96
-63
-14
22
50
106
156
116
-34
-163
-136
-48
-65
-125
-125
-97
-50
-23
-99
-136
52
467
1062
1355
631
-593
-983
-512
-141
-83
-43
-19
-46
-42
-3
23
17
-8
-15
1
20
40
48
35
34
59
78
91
117
132
126
135
159
166
173
186
176
150
135
120
91
49
1
-39
-69
-89
-99
-111
-128
-126
-95
-71
-76
-83
-72
-58
-53
-49
-44
-44
-47
-51
-52
-45
-45
-61
-70
-63
-60
-60
-51
-53
-69
-73
-67
-79
-87
-61
-34
-32
-13
23
9
-50
-83
-85
-89
-84
-84
-105
-106
-94
-109
-99
-76
-140
-179
-35
311
965
1519
926
-554
-1213
-698
-213
-153
-100
-42
-71
-65
-27
-20
-15
-2
6
19
33
45
69
91
97
108
137
166
186
206
227
248
278
305
309
302
301
294
271
230
171
105
43
-15
-67
-103
-126
-135
-130
-124
-121
-113
-103
-96
-91
-89
-88
-85
-84
-89
-95
-96
-97
-101
-108
-120
-129
-130
-129
-130
-131
-130
-127
-131
-150
-172
-163
-131
-103
-71
-40
-53
-97
-114
-109
-109
-108
-115
-124
-109
-112
-120
-78
-97
-179
-108
91
517
1434
1874
650
-970
-1103
-393
-151
-161
-56
-41
-73
-31
-14
-19
7
20
23
45
63
69
88
118
139
157
183
216
241
260
287
314
332
345
354
352
339
321
280
205
120
46
-21
-82
-130
-164
-182
-186
-184
-178
-171
-165
-157
-148
-142
-133
-120
-116
-122
-123
-117
-114
-117
-123
-129
-130
-134
-140
-143
-143
-144
-144
-148
-161
-173
-167
-146
-115
-68
-37
-66
-110
-112
-107
-115
-106
-103
-110
-92
-94
-114
-81
-94
-183
-140
18
388
1336
1981
936
-754
-1047
-369
-109
-141
-47
-26
-66
-24
2
-11
8
30
36
51
67
80
103
127
142
161
187
217
247
275
301
329
353
368
377
380
366
333
282
212
129
45
-32
-92
-139
-179
-201
-204
-201
-200
-196
-190
-180
-168
-160
-157
-149
-142
-146
-146
-136
-132
-143
-153
-156
-156
-155
-157
-166
-170
-159
-152
-164
-169
-153
-137
-135
-138
-143
-143
-127
-100
-68
-25
-4
-36
-68
-66
-78
-102
-95
-85
-91
-80
-86
-98
-55
-76
-169
-119
38
410
1325
1870
793
-765
-935
-278
-68
-103
-11
0
-44
-5
21
14
29
42
46
64
78
87
101
118
141
169
187
202
227
253
274
296
318
337
351
355
345
326
291
226
143
66
-2
-65
-113
-137
-149
-153
-154
-154
-149
-140
-136
-132
-124
-117
-112
-106
-104
-104
-100
-96
-99
-104
-106
-108
-111
-118
-123
-123
-124
-129
-132
-128
-124
-122
-120
-121
-122
-118
-115
-115
-111
-102
-100
-103
-109
-120
-130
-121
-94
-66
-37
-15
-27
-68
-90
-87
-86
-90
-96
-102
-87
-83
-105
-80
-61
-138
-148
-15
259
954
1647
1086
-392
-956
-422
-63
-98
-58
-12
-47
-32
0
-6
7
31
35
41
55
66
82
98
111
125
148
172
194
214
236
258
277
291
304
314
318
312
291
252
195
129
66
11
-37
-70
-87
-97
-102
-99
-95
-97
-96
-89
-86
-87
-81
-73
-67
-60
-55
-56
-58
-55
-55
-60
-67
-72
-76
-78
-79
-83
-85
-84
-82
-84
-87
-87
-86
-87
-84
-82
-79
-75
-75
-80
-82
-78
-76
-76
-74
-74
-76
-76
-76
-79
-79
-76
-77
-81
-89
-104
-110
-93
-67
-40
-10
-5
-44
-78
-81
-84
-87
-79
-88
-94
-78
-91
-101
-53
-82
-176
-118
73
537
1445
1749
493
-914
-890
-257
-114
-133
-37
-38
-71
-32
-14
-18
5
19
21
35
53
68
87
108
126
143
163
184
206
232
254
269
288
307
316
322
330
329
307
263
203
135
69
7
-51
-94
-115
-129
-142
-145
-138
-129
-122
-118
-112
-99
-90
-86
-82
-76
-75
-80
-80
-78
-85
-98
-105
-108
-114
-118
-121
-122
-120
-118
-120
-123
-122
-118
-114
-112
-112
-111
-108
-103
-98
-97
-99
-98
-93
-88
-87
-90
-89
-87
-88
-89
-85
-90
-109
-119
-105
-73
-31
8
7
-37
-69
-69
-69
-71
-68
-73
-68
-54
-77
-77
-30
-83
-161
-72
107
597
1551
1764
414
-874
-718
-135
-66
-89
-8
-25
-42
4
9
6
29
36
36
56
72
79
94
116
136
155
175
194
217
243
272
297
316
331
344
350
346
329
296
243
175
101
29
-31
-79
-117
-140
-149
-150
-147
-141
-136
-134
-131
-122
-110
-101
-98
-96
-90
-86
-83
-81
-85
-89
-90
-95
-102
-103
-104
-108
-109
-105
-105
-107
-107
-105
-98
-94
-98
-101
-95
-90
-89
-86
-85
-85
-83
-81
-81
-82
-82
-79
-74
-73
-78
-77
-72
-70
-72
-75
-71
-60
-59
-75
-93
-97
-78
-49
-27
-4
17
0
-44
-62
-61
-65
-61
-62
-73
-61
-57
-84
-58
-40
-124
-129
26
325
1031
1665
1014
-452
-933
-386
-64
-96
-47
-13
-49
-26
2
-4
8
24
25
31
40
48
67
89
105
122
142
157
173
199
224
240
257
277
289
290
288
285
270
237
189
134
71
12
-34
-72
-104
-122
-125
-123
-119
-114
-108
-101
-91
-81
-76
-73
-68
-60
-54
-55
-57
-55
-54
-59
-66
-71
-75
-79
-81
-82
-83
-85
-88
-87
-82
-80
-82
-82
-77
-72
-70
-71
-75
-74
-67
-64
-65
-63
-63
-70
-76
-74
-70
-71
-73
-74
-88
-107
-96
-60
-36
-18
3
-13
-57
-75
-75
-85
-82
-80
-94
-85
-75
-96
-81
-72
-145
-140
13
326
1040
1634
920
-569
-1026
-446
-99
-113
-51
-14
-54
-32
0
-8
-4
11
22
38
47
51
71
89
95
112
136
154
177
205
226
246
265
277
289
302
303
293
279
248
199
141
79
16
-36
-74
-102
-120
-129
-131
-125
-118
-114
-105
-94
-93
-92
-80
-73
-79
-80
-69
-67
-77
-80
-82
-96
-106
-98
-94
-105
-110
-101
-95
-99
-101
-97
-93
-89
-89
-91
-88
-84
-85
-84
-80
-79
-84
-86
-81
-77
-78
-77
-73
-76
-91
-101
-86
-58
-33
-2
16
-14
-65
-78
-71
-75
-78
-79
-78
-68
-81
-89
-46
-66
-151
-92
143
589
1279
1415
337
-810
-780
-230
-69
-77
-15
-20
-38
1
13
5
19
29
34
49
61
67
79
94
110
129
146
164
187
208
227
245
259
265
269
276
281
271
242
204
159
101
44
-2
-42
-75
-97
-107
-107
-107
-108
-105
-96
-90
-87
-81
-74
-72
-73
-74
-72
-70
-70
-73
-77
-82
-87
-92
-97
-99
-97
-97
-98
-100
-103
-104
-100
-95
-94
-95
-95
-94
-94
-93
-91
-90
-93
-93
-89
-95
-111
-108
-79
-54
-34
-7
-10
-50
-77
-79
-84
-84
-82
-91
-83
-74
-93
-73
-50
-126
-154
-4
318
991
1589
986
-481
-1060
-534
-130
-114
-63
-20
-54
-33
1
-8
2
24
25
32
52
66
76
92
110
131
154
176
198
224
251
273
293
313
327
334
336
329
304
262
201
131
64
4
-51
-96
-126
-143
-148
-146
-142
-137
-128
-121
-118
-112
-104
-100
-99
-99
-99
-98
-100
-105
-109
-110
-116
-128
-134
-135
-135
-135
-136
-138
-137
-135
-131
-126
-122
-125
-126
-122
-120
-121
-122
-131
-142
-131
-101
-69
-35
-22
-53
-90
-93
-89
-89
-86
-94
-92
-77
-94
-90
-47
-104
-175
-68
169
738
1626
1586
86
-1088
-792
-197
-118
-92
2
-25
-36
11
15
14
38
45
52
75
89
95
111
131
150
172
199
227
252
276
304
331
347
359
372
377
369
348
308
243
163
83
14
-44
-90
-123
-142
-152
-154
-153
-147
-141
-135
-128
-117
-108
-107
-108
-109
-108
-108
-109
-111
-114
-116
-121
-127
-130
-132
-136
-139
-139
-138
-137
-137
-135
-131
-128
-127
-125
-121
-118
-117
-115
-114
-119
-133
-146
-138
-111
-78
-42
-25
-52
-90
-101
-99
-98
-99
-111
-110
-97
-115
-106
-64
-126
-190
-77
139
682
1579
1579
123
-1028
-737
-160
-101
-96
-12
-35
-44
1
1
-3
22
35
42
59
74
85
98
114
138
166
190
215
244
273
303
332
354
370
385
393
386
363
322
257
176
97
27
-37
-91
-124
-140
-150
-153
-149
-145
-142
-134
-126
-120
-112
-104
-98
-95
-94
-95
-96
-99
-104
-106
-107
-110
-115
-119
-122
-122
-121
-120
-120
-121
-119
-115
-113
-116
-116
-111
-107
-107
-105
-104
-103
-100
-98
-99
-104
-118
-127
-113
-84
-51
-17
-13
-50
-81
-87
-91
-91
-87
-95
-89
-83
-102
-81
-64
-154
-175
-18
295
1055
1857
1295
-388
-1131
-579
-151
-174
-130
-61
-77
-49
-17
-34
-30
-3
10
23
46
70
97
119
137
158
180
201
228
261
289
309
328
351
374
391
394
379
351
308
246
170
89
14
-46
-91
-124
-143
-154
-161
-160
-153
-149
-145
-135
-125
-118
-111
-108
-108
-105
-103
-104
-102
-103
-113
-122
-122
-126
-139
-143
-132
-126
-131
-134
-132
-130
-127
-122
-124
-126
-119
-111
-110
-111
-108
-103
-100
-99
-100
-110
-128
-142
-137
-113
-72
-23
-4
-30
-63
-72
-72
-60
-49
-62
-65
-47
-62
-62
-24
-82
-158
-56
186
805
1807
1855
304
-1000
-768
-172
-109
-119
-40
-66
-82
-38
-31
-31
-11
-1
7
8
12
53
100
110
110
129
154
179
218
271
316
333
339
362
393
400
383
358
325
264
177
93
23
-43
-101
-136
-157
-177
-189
-186
-177
-169
-161
-155
-151
-143
-136
-131
-124
-125
-131
-131
-125
-128
-133
-131
-131
-137
-145
-149
-146
-142
-145
-147
-142
-139
-140
-138
-135
-134
-126
-119
-125
-131
-128
-123
-116
-107
-105
-117
-134
-149
-157
-143
-97
-36
-5
-27
-63
-76
-75
-73
-71
-79
-78
-60
-74
-85
-40
-70
-159
-105
47
482
1519
2086
919
-683
-837
-200
-42
-111
-36
-25
-53
-14
-2
-12
13
33
36
48
60
73
92
111
129
152
176
204
235
266
299
328
352
374
390
395
385
356
309
250
174
92
20
-41
-93
-125
-144
-160
-166
-162
-159
-156
-147
-141
-136
-129
-121
-113
-106
-106
-108
-106
-102
-101
-103
-109
-115
-120
-126
-129
-128
-128
-129
-130
-132
-130
-127
-127
-131
-132
-132
-127
-117
-114
-117
-116
-111
-107
-108
-110
-107
-103
-103
-105
-106
-104
-107
-122
-139
-145
-136
-112
-65
-16
-13
-53
-80
-80
-79
-77
-77
-84
-71
-67
-94
-66
-43
-134
-146
0
248
1016
2005
1626
-84
-941
-424
-17
-102
-85
-18
-61
-53
-13
-23
-11
22
24
25
45
60
69
89
112
128
147
175
203
229
258
285
306
327
350
363
363
353
328
283
224
155
76
7
-43
-86
-123
-134
-132
-136
-138
-127
-114
-109
-107
-101
-94
-90
-89
-89
-89
-89
-89
-91
-98
-101
-99
-100
-108
-120
-125
-121
-119
-122
-121
-115
-114
-120
-123
-116
-110
-110
-111
-108
-108
-109
-108
-107
-104
-102
-104
-104
-97
-96
-101
-100
-96
-95
-90
-85
-87
-92
-98
-110
-120
-112
-86
-50
-9
13
-15
-61
-73
-63
-60
-63
-73
-70
-55
-73
-80
-36
-77
-166
-90
116
613
1563
1865
594
-786
-742
-142
-44
-98
-26
-31
-50
-4
4
-12
8
26
26
35
48
60
76
94
114
134
146
162
193
228
255
281
301
314
328
338
335
319
290
241
177
111
46
-17
-69
-104
-123
-135
-142
-142
-134
-125
-118
-109
-102
-101
-102
-97
-87
-84
-87
-86
-80
-80
-82
-82
-84
-95
-101
-95
-97
-111
-115
-108
-102
-99
-96
-99
-103
-102
-97
-94
-93
-90
-87
-90
-91
-88
-87
-87
-84
-83
-83
-78
-77
-85
-87
-83
-82
-93
-111
-113
-92
-66
-34
6
10
-32
-62
-62
-62
-62
-66
-81
-73
-62
-81
-63
-39
-116
-152
-16
294
979
1654
1144
-325
-978
-476
-55
-85
-104
-59
-48
-15
7
-6
-4
12
24
37
49
60
66
65
79
108
116
110
141
208
248
233
223
256
287
288
282
273
251
222
175
106
51
16
-34
-101
-132
-121
-119
-135
-124
-101
-114
-135
-108
-60
-51
-68
-75
-73
-70
-62
-66
-84
-80
-56
-70
-109
-104
-73
-74
-88
-77
-67
-79
-88
-78
-65
-60
-62
-62
-58
-64
-74
-65
-56
-71
-72
-52
-52
-55
-40
-43
-64
-69
-68
-64
-41
1
45
57
12
-36
-35
-27
-43
-47
-33
-29
-48
-61
-24
-5
-85
-115
35
367
1000
1548
1018
-333
-934
-483
-66
-41
-31
18
21
22
29
29
