# session 5
-25
7
-98
64
598
940
852
704
684
665
627
610
582
546
536
533
501
451
418
398
361
310
276
261
258
259
238
202
189
178
143
121
112
93
107
121
46
-50
-97
59
811
1679
1259
-236
-898
-387
3
-38
-9
56
26
28
61
67
89
136
168
183
199
226
251
244
197
133
74
17
-42
-87
-110
-128
-154
-192
-229
-238
-224
-223
-226
-217
-211
-207
-193
-204
-236
-244
-253
-299
-331
-313
-284
-264
-248
-252
-278
-298
-288
-243
-211
-220
-218
-208
-236
-276
-342
-163
771
1741
1208
-307
-823
-307
-60
-151
-85
2
-13
-2
16
9
35
89
124
125
105
117
193
245
201
120
35
-68
-124
-146
-239
-306
-198
-82
-120
-174
-140
-102
-94
-89
-86
-69
-48
-60
-85
-92
-107
-131
-143
-156
-163
-138
-104
-97
-114
-106
-57
-46
-110
-128
-75
-92
-172
-214
-163
333
1302
1539
368
-718
-536
-22
16
3
101
84
83
176
191
150
191
258
259
258
323
384
359
290
231
155
56
-16
-54
-85
-79
-28
3
-15
-34
-38
-37
-24
-13
-24
-30
-20
-33
-65
-64
-43
-75
-150
-189
-179
-147
-105
-84
-107
-132
-135
-142
-140
-110
-95
-109
-125
-153
-196
-227
-50
674
1448
1043
-282
-831
-347
-4
-50
-16
47
15
14
51
77
126
176
192
207
231
254
272
259
201
128
66
1
-70
-112
-107
-88
-82
-75
-54
-42
-57
-72
-61
-38
-35
-59
-78
-73
-66
-86
-134
-183
-208
-217
-215
-178
-141
-165
-217
-227
-206
-181
-162
-169
-175
-162
-207
-312
-376
-255
363
1287
1329
136
-790
-583
-153
-84
-59
-22
-50
-11
55
44
44
97
143
172
188
199
214
216
188
163
142
78
-2
-14
22
26
12
11
-3
-28
-41
-61
-78
-58
-25
-27
-63
-95
-94
-72
-77
-111
-123
-107
-104
-107
-77
-51
-78
-107
-82
-53
-70
-88
-77
-50
-31
-58
-119
-156
-72
460
1351
1436
203
-865
-678
-143
-48
-42
44
32
17
75
105
119
171
214
225
248
288
305
293
265
215
147
89
48
15
2
12
7
-24
-49
-58
-67
-74
-71
-66
-67
-74
-88
-99
-99
-107
-133
-157
-171
-194
-229
-241
-204
-144
-121
-145
-172
-179
-176
-168
-174
-185
-154
-134
-178
-196
-166
54
755
1278
507
-828
-1050
-411
-112
-89
53
92
-5
0
73
103
124
156
180
201
242
298
323
291
250
221
165
74
-2
-41
-58
-63
-62
-79
-105
-96
-73
-78
-81
-59
-62
-84
-65
-24
-32
-92
-139
-152
-173
-197
-165
-114
-130
-154
-124
-120
-168
-172
-123
-109
-110
-51
-31
-126
-173
-171
-91
632
1711
1510
2
-752
-284
34
-50
25
96
1
-3
84
108
117
174
241
262
247
255
280
272
233
178
109
58
17
-51
-109
-110
-95
-100
-105
-93
-83
-100
-119
-80
-9
-11
-76
-92
-54
-47
-95
-152
-193
-213
-204
-166
-125
-123
-160
-182
-173
-168
-171
-172
-179
-160
-134
-173
-212
-221
-157
408
1333
1276
-34
-868
-486
-44
-63
-60
23
9
9
57
79
84
97
126
174
219
250
270
276
271
242
175
112
78
20
-57
-75
-62
-103
-162
-166
-142
-143
-155
-133
-91
-87
-119
-120
-90
-89
-116
-147
-180
-193
-180
-173
-159
-129
-140
-174
-150
-115
-142
-147
-95
-98
-150
-169
-189
-216
-255
-157
592
1667
1519
63
-751
-342
7
-65
-20
77
41
38
87
100
123
160
186
242
316
334
286
238
238
255
217
126
53
-3
-54
-62
-51
-83
-123
-120
-104
-97
-94
-99
-102
-86
-65
-63
-80
-100
-114
-138
-174
-188
-180
-168
-132
-89
-112
-172
-176
-138
-123
-132
-142
-118
-80
-102
-153
-196
-226
158
1079
1354
251
-821
-671
-149
-56
-56
25
23
22
62
71
97
150
171
191
241
281
304
315
308
288
252
199
151
116
84
52
14
-38
-83
-102
-109
-118
-108
-77
-77
-111
-104
-56
-54
-101
-125
-131
-157
-179
-164
-133
-111
-109
-131
-152
-140
-131
-163
-168
-124
-129
-167
-130
-95
-169
-248
-158
294
958
956
-68
-936
-769
-272
-112
-59
17
8
1
44
63
78
121
158
188
231
275
301
307
302
291
266
231
203
181
155
132
99
44
-8
-45
-76
-86
-63
-44
-52
-68
-69
-51
-41
-65
-96
-97
-102
-136
-154
-131
-101
-94
-111
-139
-151
-138
-128
-127
-130
-149
-148
-114
-130
-177
-175
-80
415
1230
1165
-188
-1180
-837
-251
-144
-85
33
29
23
68
87
105
137
168
219
271
293
310
337
349
326
276
217
169
123
70
9
-51
-105
-161
-216
-244
-241
-233
-220
-188
-153
-132
-129
-132
-119
-103
-128
-184
-215
-209
-184
-139
-96
-123
-210
-225
-172
-177
-158
-47
-41
-149
-177
-161
-187
-197
39
888
1739
1166
-394
-966
-434
-90
-52
65
101
85
175
245
277
318
278
276
433
534
494
504
533
457
402
420
409
420
435
260
25
50
147
-16
-219
-191
-166
-337
-414
-184
37
-5
-36
81
73
-64
-104
-93
-95
-54
-69
-181
-253
-291
-331
-261
-205
-363
-454
-239
-102
-210
-138
83
-59
-335
50
902
846
-626
-1964
-1799
-909
-479
-396
-290
-249
-237
-144
-120
-213
-231
-150
-93
-44
14
25
56
189
345
412
358
265
255
305
354
381
301
241
338
168
-313
-332
-61
-275
-390
28
93
-47
484
908
504
241
464
425
269
420
390
51
6
269
387
298
112
-40
40
126
-121
-326
-126
242
836
1485
1039
-432
-1027
-347
24
-262
-287
-129
-189
-81
182
1
-491
-693
-556
-346
-223
-228
-229
-147
-104
-160
-237
-283
-258
-200
-247
-369
-364
-289
-388
-570
-541
-286
14
212
242
200
184
157
170
258
252
188
299
407
175
-184
-219
90
361
285
38
77
308
241
27
119
264
130
1
120
554
1354
1731
807
-475
-683
-229
-82
-86
63
133
48
18
90
157
180
159
113
184
330
273
189
348
263
-160
-67
372
91
-503
-454
-227
-342
-435
-491
-680
-722
-611
-581
-542
-455
-441
-446
-416
-366
-308
-335
-432
-455
-463
-525
-441
-153
78
79
-10
-4
27
-28
-26
35
-66
-177
-12
476
1369
2142
1574
-43
-795
-219
278
99
-26
206
308
136
115
295
335
319
483
569
402
281
310
342
417
462
276
48
42
78
-30
-163
-205
-145
-57
-144
-429
-581
-449
-354
-429
-404
-329
-415
-375
-108
-33
-157
-260
-455
-578
-363
-173
-328
-541
-548
-425
-365
-460
-523
-350
-113
-53
-72
165
757
1034
295
-757
-948
-537
-353
-323
-155
-5
67
219
421
491
403
380
552
571
287
259
564
602
599
996
1189
907
736
642
318
109
189
245
136
-84
-285
-303
-227
-206
-180
-141
-121
-83
-75
-121
-111
-52
-31
-111
-335
-478
-348
-279
-365
-129
218
-50
-540
-400
-82
-288
-420
-100
114
575
1538
1375
-290
-1254
-839
-468
-458
-312
-188
-168
-80
-11
-4
15
-30
-159
-173
68
340
351
260
338
397
358
526
672
305
-86
137
418
166
-156
-227
-305
-259
54
174
13
32
167
101
17
86
137
144
168
92
-67
-125
-111
-149
-194
-218
-259
-287
-297
-330
-304
-165
-101
-260
-170
705
1365
282
-1452
-1476
-326
-36
-444
-434
-201
-221
-210
43
227
162
20
-101
-142
-9
158
229
282
307
307
380
393
231
92
-9
-243
-431
-352
-190
-123
-105
-114
-106
-23
70
142
203
211
217
236
198
193
201
74
93
379
292
-288
-434
114
414
30
-302
-96
145
62
-57
-13
458
1497
1902
626
-880
-969
-426
-323
-303
-122
-71
-37
20
-196
-321
127
383
-162
-502
-33
279
84
82
171
-20
-30
132
-71
-290
-214
-351
-647
-628
-519
-531
-467
-399
-437
-419
-334
-294
-259
-194
-122
-55
-27
-53
-106
-172
-196
-96
78
175
176
174
186
224
313
319
220
268
364
385
1044
2311
2378
786
-365
-135
215
118
62
143
254
364
324
176
128
164
191
200
186
185
206
170
122
181
241
196
169
164
61
-129
-400
-564
-362
-217
-540
-757
-593
-558
-665
-718
-860
-790
-300
-77
-430
-715
-607
-483
-559
-622
-555
-505
-501
-434
-416
-487
-390
-217
-282
-361
-235
60
868
1793
1373
-123
-713
-230
40
84
362
447
169
80
309
420
353
444
583
441
258
370
578
626
489
246
145
352
639
644
363
176
254
313
170
-59
-247
-290
-223
-261
-375
-388
-387
-394
-240
-96
-232
-381
-242
-120
-298
-493
-469
-464
-582
-567
-485
-596
-624
-341
-114
-61
-35
-37
491
1640
1696
39
-1189
-931
-559
-623
-486
-247
-221
-190
-67
35
99
85
54
173
350
394
403
515
602
593
627
663
532
412
518
569
352
196
251
264
281
414
354
55
-31
147
219
190
242
224
91
131
311
280
81
41
139
133
-51
-304
-435
-354
-283
-404
-454
-316
-224
200
1197
1385
-47
-1349
-1242
-772
-752
-768
-600
-421
-394
-558
-620
-382
-196
-281
-240
127
380
190
-185
-381
-328
-122
45
-16
-98
83
155
-252
-570
-312
-53
-259
-440
-281
-174
-220
-75
205
245
40
-86
35
241
309
230
136
125
214
348
417
357
318
445
461
215
209
537
603
717
1543
2029
1084
-51
-98
165
36
-38
56
42
17
52
32
3
25
49
46
15
3
32
0
-18
115
92
-222
-261
18
-103
-556
-686
-614
-703
-777
-710
-680
-772
-807
-603
-439
-609
-702
-478
-478
-755
-720
-479
-497
-599
-498
-354
-316
-289
-244
-236
-178
-44
-20
-69
-11
142
712
1834
2207
996
-263
-302
77
243
415
450
301
336
532
648
695
678
565
482
531
635
697
710
693
686
714
680
523
394
358
232
-16
-165
-203
-307
-409
-376
-361
-443
-416
-243
-171
-319
-507
-441
-171
-158
-477
-682
-685
-698
-653
-541
-553
-642
-644
-572
-422
-119
97
-210
-588
130
1493
1495
32
-904
-716
-426
-343
-203
-120
-111
-37
25
9
2
42
120
202
243
283
330
325
368
553
658
543
468
539
473
222
19
-92
-31
285
410
77
-144
44
193
130
55
-8
-49
-2
46
17
-9
14
1
-91
-141
-120
-193
-331
-337
-290
-310
-272
-251
-160
569
1389
807
-655
-1126
-695
-496
-452
-323
-340
-327
-206
-287
-410
-279
-146
-180
-159
14
224
247
7
-136
17
83
-53
-22
158
158
34
-22
-81
-155
-127
-78
-108
-124
-89
-71
-43
-13
-43
-68
-18
21
6
12
63
110
92
0
-27
95
174
106
96
163
131
182
682
1561
2135
1651
414
-342
-254
-35
29
133
197
157
153
158
110
120
178
133
21
11
104
181
190
185
235
281
205
59
-70
-204
-225
-101
-206
-492
-413
-268
-676
-1084
-869
-528
-490
-499
-405
-325
-318
-294
-181
-116
-226
-356
-378
-419
-539
-515
-276
-242
-560
-676
-433
-132
565
1524
1293
-235
-1109
-657
-187
-302
-373
-81
186
135
-2
41
143
175
225
316
389
446
453
425
491
662
698
457
223
287
408
350
339
352
74
-324
-405
-50
442
597
405
259
173
6
-73
36
192
221
54
-116
-108
-53
-96
-194
-220
-53
114
-62
-403
-492
-200
564
1370
1073
-230
-967
-758
-448
-150
74
-215
-470
-166
-70
-367
-278
-60
-250
-267
86
165
-28
-84
-42
41
153
111
-52
-122
-91
-15
64
-11
-157
-74
18
-237
-432
-207
-5
-36
-51
-99
-147
-13
43
-58
6
34
-240
-354
-58
165
69
-46
-39
-30
-37
-135
-226
385
1602
1736
265
-907
-706
-160
0
-31
-90
-36
74
-18
-104
46
100
-34
-10
181
285
239
133
111
209
240
112
13
66
114
-2
-183
-253
-197
-99
-71
-197
-313
-194
-28
-98
-228
-198
-161
-198
-167
-82
-33
-33
-137
-265
-203
-85
-181
-283
-176
-124
-195
-155
-112
145
1253
2318
1618
-71
-639
-238
-112
-181
-67
-2
-34
11
78
72
56
80
104
150
270
342
263
184
226
302
342
352
321
270
213
101
-79
-231
-257
-221
-280
-402
-440
-430
-421
-328
-251
-359
-480
-381
-223
-257
-427
-510
-441
-358
-367
-357
-231
-154
-219
-291
-309
29
1135
2067
1287
-453
-1043
-449
-68
-131
-163
-182
-175
45
214
93
51
228
206
7
17
125
132
214
371
390
302
267
315
349
245
54
-38
-24
-19
-7
37
60
72
130
191
166
77
34
29
-30
-88
-66
-44
-58
-51
-38
-46
-40
-44
-113
-196
-218
-187
64
747
1234
584
-638
-1022
-578
-257
-265
-294
-269
-223
-169
-148
-176
-202
-149
-70
-68
-58
20
26
-21
30
80
34
23
47
23
24
29
-70
-176
-188
-194
-200
-154
-136
-152
-97
-46
-78
-75
-35
-85
-156
-149
-137
-148
-131
-95
-90
-123
-89
20
18
-62
3
192
591
1165
1026
-137
-948
-609
-65
63
130
243
238
205
236
265
285
360
461
480
415
381
468
626
680
599
544
543
492
409
330
220
117
61
2
-55
-45
4
10
-53
-135
-156
-109
-103
-177
-201
-142
-154
-272
-339
-301
-285
-360
-401
-326
-279
-321
-336
-299
16
790
1102
60
-1207
-1270
-661
-389
-379
-331
-268
-229
-231
-217
-107
2
0
-43
-31
69
185
182
102
122
192
157
69
28
-7
-54
-64
-45
-67
-155
-235
-236
-218
-251
-270
-235
-219
-234
-212
-137
-65
-76
-147
-163
-122
-106
-121
-129
-87
-34
-120
-249
-178
11
427
1342
1865
952
-332
-473
-9
63
-34
9
26
16
62
99
99
106
139
176
197
214
228
214
178
154
146
145
136
102
