# session 20
-94
-112
-65
-81
-255
-423
-432
-374
-342
-299
-263
-278
-311
-313
-292
-286
-295
-277
-261
-284
-255
-218
-319
-364
-222
20
810
2012
1873
39
-1181
-826
-360
-375
-312
-209
-248
-237
-178
-172
-151
-101
-67
-26
27
74
131
206
285
370
457
532
592
634
654
653
628
571
489
394
295
194
98
13
-62
-119
-150
-164
-172
-168
-152
-139
-128
-121
-132
-132
-119
-147
-154
-37
29
-185
-522
-673
-651
-643
-550
-168
188
29
-404
-520
-325
-170
-104
-36
26
94
195
270
294
337
428
530
634
759
896
1025
1140
1221
1237
1181
1061
889
687
478
275
93
-56
-171
-255
-310
-342
-357
-357
-353
-351
-346
-332
-320
-309
-292
-275
-268
-260
-246
-238
-233
-224
-220
-221
-217
-208
-202
-200
-201
-200
-196
-197
-197
-190
-184
-185
-184
-179
-176
-175
-171
-166
-159
-153
-153
-151
-141
-133
-131
-126
-121
-123
-121
-112
-107
-108
-106
-104
-106
-107
-104
-104
-105
-105
-103
-101
-98
-93
-89
-91
-100
-113
-122
-122
-120
-103
-59
-18
-24
-68
-101
-97
-86
-99
-95
-73
-98
-100
-44
-111
-221
-124
90
690
1944
2397
833
-903
-944
-344
-269
-270
-136
-145
-169
-108
-93
-91
-47
-14
13
62
114
166
229
300
377
457
531
593
638
661
666
651
605
530
437
339
240
146
59
-22
-89
-133
-156
-164
-162
-157
-152
-143
-139
-142
-142
-150
-169
-170
-182
-232
-206
-114
-189
-420
-514
-432
-424
-593
-673
-365
57
36
-316
-434
-258
-107
-66
-66
-75
-54
2
57
113
185
269
362
473
596
724
853
968
1052
1091
1077
1010
899
750
578
396
219
58
-82
-195
-271
-314
-336
-340
-334
-330
-325
-312
-297
-286
-279
-274
-267
-256
-248
-247
-247
-241
-235
-232
-232
-233
-235
-237
-234
-231
-228
-221
-212
-207
-201
-193
-193
-192
-182
-175
-176
-172
-167
-168
-162
-153
-150
-149
-142
-136
-133
-129
-120
-113
-113
-114
-109
-100
-95
-96
-95
-91
-86
-80
-79
-81
-79
-76
-84
-96
-98
-95
-98
-79
-25
16
3
-39
-62
-51
-37
-52
-54
-35
-60
-72
-18
-73
-181
-91
102
635
1840
2345
841
-924
-986
-344
-239
-235
-88
-98
-133
-72
-54
-59
-16
19
43
86
132
176
240
315
390
468
546
611
657
685
693
674
623
545
445
335
223
116
20
-61
-126
-175
-204
-213
-208
-202
-198
-188
-179
-181
-180
-178
-195
-205
-206
-248
-268
-191
-178
-294
-285
-69
74
-77
-402
-489
-152
117
-122
-476
-457
-239
-142
-151
-164
-151
-107
-54
-5
57
133
219
321
442
572
704
835
955
1039
1069
1042
966
839
670
480
288
107
-55
-189
-283
-340
-370
-381
-379
-371
-358
-343
-328
-314
-300
-287
-277
-267
-254
-245
-242
-238
-233
-229
-229
-231
-231
-225
-218
-214
-211
-206
-202
-193
-182
-178
-174
-163
-153
-150
-148
-141
-136
-130
-122
-116
-111
-107
-102
-99
-98
-94
-85
-79
-79
-81
-80
-77
-73
-72
-72
-70
-65
-65
-65
-62
-60
-61
-67
-86
-107
-113
-113
-111
-75
-12
11
-21
-58
-64
-51
-54
-70
-61
-59
-89
-63
-43
-154
-202
-90
161
1030
2199
1885
9
-1070
-641
-215
-251
-185
-99
-143
-127
-78
-84
-64
-18
5
35
82
128
183
254
329
409
493
566
621
657
673
668
641
586
502
399
288
178
72
-25
-103
-157
-193
-216
-217
-208
-204
-193
-180
-180
-173
-167
-200
-192
-75
0
-90
-211
-241
-292
-440
-426
-59
214
-92
-599
-707
-516
-364
-270
-192
-155
-112
-29
56
143
263
379
440
482
568
684
800
907
989
1018
989
900
758
581
396
223
70
-55
-156
-232
-284
-320
-345
-359
-361
-358
-350
-339
-328
-317
-302
-289
-280
-271
-259
-248
-239
-229
-220
-217
-216
-211
-206
-202
-198
-192
-187
-183
-180
-174
-167
-158
-151
-146
-140
-135
-129
-122
-113
-107
-103
-96
-92
-88
-83
-76
-73
-68
-63
-60
-58
-55
-52
-50
-50
-50
-50
-47
-42
-38
-36
-36
-41
-46
-46
-45
-44
-40
-36
-34
-39
-49
-63
-74
-73
-62
-42
-6
29
27
-13
-48
-49
-42
-61
-67
-43
-64
-82
-28
-68
-188
-109
113
624
1752
2313
953
-834
-1028
-405
-258
-264
-132
-131
-163
-101
-78
-84
-47
-12
6
40
86
138
199
256
312
385
466
534
580
609
629
635
614
561
488
403
304
197
97
5
-76
-137
-171
-184
-186
-187
-189
-186
-181
-172
-162
-178
-199
-190
-210
-253
-170
-26
-129
-502
-810
-903
-973
-1067
-878
-403
-193
-413
-524
-280
-38
7
-3
16
43
82
136
198
274
367
473
590
719
858
1000
1135
1239
1294
1288
1216
1082
895
678
456
245
59
-94
-213
-301
-357
-382
-386
-384
-378
-369
-358
-350
-339
-327
-317
-306
-294
-286
-279
-271
-268
-267
-265
-262
-263
-261
-256
-252
-249
-243
-237
-234
-229
-221
-215
-211
-205
-195
-188
-185
-181
-175
-173
-171
-165
-158
-155
-155
-150
-142
-138
-140
-136
-127
-121
-121
-134
-160
-174
-168
-162
-142
-97
-67
-72
-84
-84
-74
-73
-87
-80
-66
-93
-77
-33
-128
-209
-95
100
769
1978
2083
366
-1031
-790
-255
-242
-208
-91
-120
-126
-73
-69
-56
-14
11
39
88
134
187
253
323
401
487
562
623
670
697
700
678
628
547
446
341
236
133
40
-38
-99
-136
-157
-168
-164
-149
-146
-148
-135
-132
-144
-138
-151
-191
-128
1
-81
-405
-666
-713
-712
-717
-471
15
169
-226
-572
-475
-250
-161
-124
-78
-42
10
76
136
204
283
362
453
561
672
785
905
1018
1096
1122
1095
1012
876
700
503
308
133
-18
-152
-256
-320
-356
-376
-381
-377
-373
-367
-352
-332
-320
-313
-302
-289
-275
-263
-253
-248
-244
-239
-236
-238
-242
-239
-229
-227
-230
-223
-210
-207
-210
-207
-200
-195
-189
-183
-178
-174
-168
-163
-156
-151
-151
-149
-142
-138
-137
-131
-125
-126
-128
-123
-118
-115
-116
-132
-155
-159
-151
-152
-129
-74
-45
-63
-86
-90
-84
-90
-101
-83
-79
-110
-79
-62
-176
-196
-45
242
1155
2265
1747
-230
-1193
-664
-252
-280
-177
-94
-144
-113
-58
-68
-49
-3
19
46
97
152
210
274
346
431
516
592
655
695
712
711
691
635
541
433
329
222
117
27
-48
-106
-140
-155
-162
-159
-150
-147
-146
-141
-147
-162
-161
-165
-191
-201
-217
-283
-292
-233
-305
-411
-226
131
219
-76
-450
-459
-36
268
84
-224
-288
-241
-239
-233
-202
-174
-141
-96
-53
-9
41
102
178
268
374
492
611
721
816
879
903
881
809
693
553
400
235
70
-72
-177
-249
-289
-296
-288
-281
-273
-261
-251
-244
-239
-235
-228
-218
-214
-212
-206
-200
-199
-204
-207
-208
-212
-215
-213
-212
-212
-209
-205
-199
-192
-187
-181
-178
-178
-175
-167
-162
-160
-155
-149
-147
-147
-143
-138
-133
-129
-126
-125
-122
-116
-112
-118
-135
-154
-161
-149
-124
-81
-43
-44
-71
-85
-79
-67
-75
-93
-76
-61
-96
-81
-44
-140
-194
-58
179
927
2053
1878
67
-1126
-754
-267
-266
-197
-94
-137
-131
-74
-72
-61
-18
9
33
74
121
176
240
305
375
451
523
583
630
662
669
651
613
545
444
331
220
110
7
-78
-141
-182
-200
-201
-189
-174
-165
-152
-134
-139
-143
-123
-137
-158
-42
110
-17
-417
-744
-868
-922
-816
-383
-12
-211
-665
-741
-493
-279
-121
46
147
176
200
243
299
376
468
563
658
763
880
996
1096
1165
1186
1144
1039
888
708
514
325
159
20
-94
-185
-252
-303
-338
-354
-361
-366
-363
-355
-348
-339
-325
-315
-309
-299
-288
-282
-277
-271
-268
-267
-264
-262
-263
-262
-258
-253
-247
-242
-237
-228
-219
-213
-208
-201
-193
-188
-183
-178
-173
-168
-164
-158
-152
-147
-143
-140
-139
-138
-132
-124
-119
-114
-110
-110
-109
-106
-104
-105
-111
-132
-153
-151
-143
-133
-98
-53
-44
-61
-71
-66
-55
-61
-66
-48
-57
-74
-26
-51
-174
-133
33
401
1446
2300
1319
-556
-1049
-442
-202
-240
-125
-89
-134
-92
-59
-64
-32
4
23
59
106
151
205
270
341
417
492
559
613
652
677
681
658
606
528
431
326
220
118
28
-44
-100
-139
-159
-164
-159
-150
-144
-137
-130
-141
-150
-140
-165
-191
-100
-8
-161
-481
-667
-692
-746
-754
-443
4
33
-336
-523
-371
-200
-135
-91
-57
-30
21
84
145
215
293
374
461
558
665
776
886
986
1059
1080
1045
959
822
644
454
272
104
-44
-163
-251
-309
-341
-356
-360
-357
-351
-345
-334
-318
-304
-295
-286
-271
-258
-251
-245
-238
-231
-231
-235
-234
-227
-226
-228
-223
-216
-215
-213
-205
-200
-197
-192
-186
-183
-179
-173
-166
-160
-157
-157
-156
-154
-150
-147
-144
-139
-133
-130
-123
-112
-107
-109
-105
-98
-97
-98
-97
-96
-93
-89
-98
-116
-120
-116
-117
-92
-38
-12
-34
-58
-60
-51
-56
-71
-58
-51
-82
-56
-27
-140
-187
-38
222
1041
2240
2031
127
-1097
-715
-245
-270
-208
-105
-143
-134
-82
-87
-74
-34
-13
18
68
112
161
226
294
368
447
517
576
624
648
652
647
618
551
464
371
270
167
77
-1
-68
-114
-141
-154
-153
-146
-143
-142
-142
-148
-148
-151
-173
-181
-182
-228
-235
-149
-170
-354
-426
-314
-280
-462
-655
-503
-33
190
-91
-384
-337
-201
-180
-178
-144
-115
-78
-21
34
91
161
237
317
413
519
628
740
847
927
967
964
918
829
701
545
378
214
60
-74
-179
-254
-301
-319
-317
-308
-301
-292
-281
-273
-263
-255
-247
-236
-228
-226
-220
-211
-209
-210
-208
-205
-206
-207
-207
-204
-197
-190
-186
-180
-174
-170
-166
-160
-154
-149
-145
-141
-135
-126
-118
-116
-114
-110
-107
-105
-102
-99
-98
-97
-94
-90
-87
-85
-83
-81
-81
-80
-77
-76
-79
-87
-106
-127
-132
-118
-95
-58
-23
-25
-56
-78
-80
-70
-75
-85
-66
-65
-95
-61
-58
-176
-176
-11
301
1203
2145
1462
-399
-1142
-597
-257
-281
-181
-126
-172
-136
-96
-106
-82
-42
-19
16
58
99
153
211
270
339
411
474
529
575
607
625
622
592
535
458
368
267
162
64
-21
-90
-132
-145
-146
-147
-142
-136
-127
-113
-119
-134
-118
-129
-167
-72
101
0
-419
-764
-861
-895
-827
-436
-35
-178
-637
-762
-533
-304
-132
31
136
195
232
250
289
366
447
528
625
732
844
961
1065
1142
1181
1162
1076
938
764
572
376
199
50
-70
-167
-242
-294
-327
-343
-350
-356
-359
-352
-342
-334
-326
-317
-305
-293
-285
-282
-273
-264
-262
-261
-258
-253
-249
-245
-241
-235
-232
-234
-231
-225
-223
-221
-211
-204
-204
-199
-189
-185
-185
-179
-171
-167
-164
-156
-150
-149
-147
-141
-135
-130
-126
-124
-120
-116
-114
-112
-110
-107
-109
-126
-150
-159
-157
-156
-134
-87
-60
-69
-84
-84
-73
-74
-86
-70
-63
-90
-60
-37
-152
-189
-41
221
1066
2222
1909
14
-1087
-660
-226
-252
-177
-86
-132
-120
-70
-73
-57
-20
0
35
83
124
171
234
300
375
453
523
581
632
663
673
668
641
581
496
399
295
191
92
6
-62
-111
-142
-154
-154
-152
-149
-144
-143
-136
-134
-150
-149
-144
-188
-190
-79
-71
-314
-570
-618
-589
-673
-696
-349
120
130
-233
-381
-242
-149
-148
-124
-88
-60
-11
48
102
164
235
311
399
497
606
728
852
956
1025
1052
1029
952
826
665
485
302
127
-26
-151
-245
-307
-337
-348
-349
-345
-339
-332
-325
-315
-306
-299
-290
-280
-271
-265
-259
-252
-247
-248
-250
-251
-254
-255
-253
-249
-242
-234
-226
-219
-213
-206
-199
-194
-191
-187
-181
-172
-163
-157
-153
-145
-135
-132
-132
-126
-120
-122
-122
-114
-107
-102
-93
-88
-91
-98
-115
-135
-139
-132
-117
-73
-26
-23
-48
-60
-55
-47
-53
-63
-45
-44
-74
-37
-27
-149
-153
31
356
1262
2248
1604
-313
-1133
-583
-218
-248
-144
-73
-121
-92
-53
-68
-45
-2
15
45
92
132
180
245
310
374
445
518
578
624
653
661
650
622
565
474
368
260
146
34
-57
-124
-171
-198
-202
-196
-191
-184
-175
-172
-168
-167
-177
-173
-175
-224
-213
-68
-13
-248
-593
-790
-872
-974
-928
-527
-130
-223
-530
-499
-231
-90
-66
-30
5
32
78
134
191
262
348
442
544
659
784
912
1035
1137
1196
1197
1141
1027
860
663
459
259
79
-68
-182
-269
-325
-352
-362
-367
-364
-354
-343
-330
-315
-305
-297
-283
-269
-259
-250
-242
-239
-236
-231
-229
-228
-225
-223
-222
-219
-212
-204
-198
-196
-191
-182
-175
-169
-163
-156
-149
-143
-137
-130
-120
-113
-111
-108
-104
-99
-95
-92
-89
-86
-83
-79
-75
-73
-73
-71
-69
-67
-70
-88
-112
-122
-117
-108
-77
-28
-9
-30
-49
-50
-43
-45
-59
-50
-37
-67
-53
-12
-103
-175
-56
137
790
1977
2082
385
-1004
-777
-251
-242
-213
-107
-143
-149
-93
-93
-87
-47
-25
1
46
87
131
189
251
319
395
468
529
578
613
633
634
608
552
470
371
263
157
56
-38
-117
-174
-207
-226
-232
-228
-224
-219
-206
-208
-219
-206
-211
-257
-207
-61
-97
-411
-715
-799
-805
-798
-530
-45
60
-396
-777
-702
-467
-293
-143
-54
-41
-13
47
102
159
235
319
410
511
618
728
841
948
1029
1065
1045
968
837
666
475
290
126
-12
-122
-207
-268
-306
-326
-339
-347
-344
-333
-320
-307
-292
-274
-258
-244
-229
-215
-204
-193
-184
-180
-178
-170
-158
-149
-141
-131
-121
-118
-116
-103
-89
-81
-74
-68
-62
-48
-33
-30
-27
-15
-3
4
8
12
