# session 39
-11
-18
9
-41
-196
-297
-269
-237
-267
-250
-190
-252
-327
-212
61
731
1737
1742
216
-998
-738
-190
-163
-174
-92
-117
-121
-65
-59
-63
-34
-15
-4
15
32
45
61
76
97
127
152
168
189
219
252
282
310
339
366
385
397
401
395
371
316
233
142
53
-33
-100
-143
-170
-185
-185
-176
-164
-152
-140
-130
-121
-119
-120
-115
-108
-109
-113
-109
-106
-108
-110
-113
-122
-125
-120
-119
-123
-123
-122
-122
-120
-120
-122
-118
-109
-108
-114
-113
-105
-102
-105
-104
-99
-96
-95
-94
-93
-90
-88
-88
-86
-83
-82
-80
-75
-74
-79
-81
-78
-76
-78
-79
-77
-77
-83
-94
-105
-102
-82
-50
-8
19
-3
-43
-53
-53
-59
-53
-53
-62
-50
-54
-76
-37
-30
-130
-133
38
459
1389
2059
1166
-453
-850
-260
-14
-81
-19
7
-35
-9
14
4
22
41
43
57
75
84
96
111
128
149
169
187
208
232
256
281
308
333
353
372
390
405
406
391
358
299
215
125
42
-33
-95
-138
-163
-172
-168
-168
-171
-161
-145
-138
-136
-135
-133
-127
-124
-128
-125
-119
-126
-137
-140
-139
-141
-145
-145
-143
-144
-149
-150
-145
-142
-143
-142
-140
-143
-142
-137
-138
-145
-129
-103
-120
-157
-141
-105
-125
-163
-150
-112
-107
-116
-103
-83
-82
-83
-77
-73
-58
-31
-15
-2
2
-30
-64
-52
-38
-50
-41
1
9
-34
-57
-26
-3
-18
-35
-41
-46
-41
-49
-79
-70
-5
44
51
46
76
157
151
-3
-61
43
30
-64
11
80
-64
-148
-45
-57
-189
-114
185
755
1645
1851
575
-789
-787
-212
-65
-48
51
27
-35
-16
20
39
39
53
93
80
56
113
137
78
103
172
128
73
116
147
141
173
198
191
225
277
263
230
246
258
225
189
155
85
-1
-56
-99
-138
-135
-109
-130
-175
-174
-146
-136
-124
-108
-119
-140
-138
-123
-121
-130
-134
-138
-148
-144
-134
-140
-148
-145
-145
-136
-116
-122
-141
-137
-126
-131
-128
-115
-118
-127
-121
-108
-100
-98
-99
-102
-100
-95
-87
-77
-76
-84
-85
-82
-86
-85
-78
-85
-86
-60
-36
-25
-4
10
-20
-60
-71
-68
-71
-70
-68
-75
-64
-48
-67
-70
-37
-79
-147
-38
331
998
1587
1144
-261
-1070
-695
-188
-92
-46
23
12
19
49
48
56
78
84
96
115
117
119
135
150
158
168
182
198
218
237
252
265
281
298
309
315
318
316
303
279
241
183
110
44
-5
-48
-89
-115
-124
-126
-125
-116
-110
-111
-102
-84
-79
-82
-80
-77
-78
-80
-85
-87
-87
-97
-115
-119
-114
-116
-119
-116
-116
-118
-112
-107
-116
-122
-116
-114
-117
-113
-108
-110
-108
-102
-101
-104
-102
-88
-76
-88
-107
-103
-92
-98
-106
-104
-104
-105
-98
-97
-93
-53
3
14
-9
-24
-34
-59
-87
-95
-83
-75
-83
-87
-84
-74
-53
-61
-83
-53
-60
-146
-102
146
592
1270
1489
495
-760
-885
-326
-94
-80
5
25
-5
17
40
49
64
65
71
96
104
96
100
109
126
150
159
169
202
215
208
213
195
172
241
364
418
402
378
343
265
175
143
129
41
-68
-123
-159
-168
-128
-120
-161
-165
-143
-157
-156
-110
-71
-62
-72
-104
-123
-95
-81
-113
-118
-63
-38
-92
-141
-129
-111
-132
-139
-102
-88
-116
-114
-94
-124
-142
-93
-76
-120
-120
-81
-113
-165
-118
-45
-75
-148
-145
-88
-61
-71
-82
-100
-121
-101
-61
-72
-91
-48
3
0
-30
-56
-69
-63
-61
-69
-59
-52
-68
-75
-83
-94
-56
-52
-127
-97
121
594
1376
1665
649
-626
-753
-239
-68
-80
-13
-17
-50
-10
17
9
16
25
29
41
50
60
84
104
113
126
146
162
181
208
240
274
308
332
354
384
408
408
394
377
335
253
156
64
-25
-102
-152
-181
-203
-216
-218
-213
-207
-202
-197
-190
-181
-174
-170
-167
-165
-163
-159
-152
-147
-147
-150
-151
-152
-158
-162
-157
-148
-147
-145
-138
-136
-138
-134
-132
-136
-132
-117
-107
-105
-108
-114
-110
-101
-129
-173
-153
-93
-97
-144
-129
-73
-48
-33
4
7
-44
-82
-79
-75
-76
-78
-96
-103
-87
-74
-34
-22
-116
-138
5
334
1249
2293
1775
-139
-1076
-534
-114
-179
-103
-2
-61
-71
-31
-30
-11
15
10
14
42
62
68
76
98
129
156
184
215
247
286
324
351
388
447
499
526
544
541
498
430
327
187
73
11
-61
-153
-211
-236
-257
-265
-254
-245
-236
-216
-200
-202
-202
-185
-175
-176
-167
-158
-166
-177
-181
-188
-194
-193
-190
-193
-197
-200
-201
-198
-197
-199
-197
-190
-185
-180
-174
-167
-161
-155
-154
-153
-144
-129
-125
-136
-147
-148
-147
-136
-98
-44
-18
-45
-90
-101
-95
-102
-102
-102
-112
-95
-78
-108
-100
-75
-157
-184
-37
251
1058
2097
1765
-13
-1020
-554
-78
-103
-76
-12
-52
-36
6
-11
-8
26
40
51
69
80
94
120
141
156
180
214
247
278
312
352
390
426
463
500
526
539
541
514
451
362
255
136
34
-41
-106
-159
-189
-203
-207
-197
-188
-188
-176
-159
-166
-175
-164
-153
-159
-162
-157
-157
-161
-163
-163
-164
-167
-167
-166
-165
-164
-161
-157
-160
-166
-161
-147
-143
-151
-155
-148
-144
-145
-143
-141
-141
-130
-113
-110
-122
-135
-138
-132
-126
-127
-130
-129
-126
-130
-142
-146
-127
-89
-45
-21
-47
-93
-101
-93
-108
-107
-85
-92
-96
-78
-94
-85
-34
-101
-172
-42
187
786
1849
1965
404
-911
-664
-101
-87
-96
-1
-30
-42
10
11
6
35
49
50
66
85
101
112
125
147
175
196
213
237
269
304
341
378
410
438
467
494
505
494
459
399
314
214
111
16
-60
-117
-158
-179
-181
-182
-186
-181
-172
-166
-161
-155
-147
-143
-148
-153
-152
-155
-159
-157
-154
-162
-165
-157
-158
-169
-171
-164
-160
-158
-155
-155
-157
-153
-147
-150
-156
-153
-142
-139
-143
-138
-127
-126
-134
-136
-123
-111
-113
-121
-119
-109
-103
-105
-108
-105
-98
-94
-95
-97
-96
-90
-85
-92
-109
-119
-113
-91
-55
-12
6
-23
-62
-71
-70
-72
-59
-57
-76
-63
-46
-70
-48
-18
-107
-128
12
262
1056
2127
1815
55
-912
-442
-20
-85
-62
1
-49
-36
15
6
3
27
41
54
68
78
92
105
114
135
166
191
209
232
263
296
325
353
377
401
430
460
475
466
433
374
294
200
104
14
-62
-115
-145
-162
-173
-175
-172
-174
-173
-166
-162
-160
-154
-152
-158
-161
-158
-157
-157
-158
-166
-175
-174
-175
-180
-179
-177
-182
-178
-163
-161
-168
-165
-157
-156
-159
-156
-148
-143
-144
-140
-131
-128
-129
-129
-125
-120
-118
-123
-124
-115
-109
-110
-109
-104
-100
-96
-92
-95
-99
-96
-89
-85
-84
-81
-79
-84
-97
-107
-103
-82
-47
-3
18
-8
-45
-55
-55
-57
-45
-45
-60
-44
-33
-56
-28
-20
-120
-113
45
335
1198
2166
1614
-150
-893
-341
8
-77
-39
16
-26
-7
27
13
19
43
48
55
65
74
92
112
126
144
167
187
206
229
255
280
307
337
364
385
408
432
444
434
403
353
283
194
100
15
-54
-104
-138
-162
-174
-175
-177
-176
-164
-154
-158
-163
-157
-152
-155
-160
-159
-159
-167
-173
-169
-168
-175
-180
-178
-176
-175
-175
-176
-171
-166
-164
-163
-158
-155
-155
-155
-150
-143
-139
-135
-131
-131
-128
-122
-117
-114
-109
-110
-115
-113
-106
-104
-107
-106
-103
-100
-98
-98
-95
-88
-85
-90
-93
-95
-103
-106
-95
-74
-36
7
4
-45
-70
-65
-68
-65
-56
-71
-72
-52
-72
-67
-23
-94
-160
-19
238
872
1916
1946
337
-937
-644
-80
-76
-84
12
-14
-28
14
12
13
42
48
47
64
84
103
122
137
152
170
188
209
233
254
277
306
332
352
378
410
433
442
441
422
375
304
220
130
41
-37
-96
-138
-169
-186
-188
-184
-180
-177
-174
-168
-165
-169
-163
-151
-155
-172
-178
-177
-179
-183
-188
-190
-183
-178
-176
-169
-165
-170
-167
-148
-138
-147
-148
-133
-120
-120
-129
-128
-114
-104
-110
-125
-132
-115
-94
-96
-108
-108
-105
-106
-109
-107
-100
-109
-133
-134
-109
-85
-53
-15
-20
-64
-89
-89
-87
-84
-84
-81
-68
-84
-99
-42
-38
-153
-135
85
518
1413
2033
1052
-676
-1083
-392
-63
-113
-34
24
-19
-22
-4
6
24
37
53
75
77
84
120
145
139
147
170
182
209
251
262
266
306
343
350
368
393
389
372
361
327
259
174
81
-8
-82
-140
-187
-209
-210
-219
-235
-226
-207
-200
-186
-162
-158
-161
-142
-125
-135
-154
-153
-134
-131
-142
-139
-133
-140
-135
-121
-124
-130
-111
-93
-105
-123
-109
-81
-84
-108
-112
-92
-72
-70
-89
-109
-100
-65
-45
-65
-104
-122
-109
-96
-107
-94
-32
-7
-62
-92
-58
-54
-84
-90
-95
-101
-86
-101
-122
-72
-71
-152
-135
-6
459
1551
2181
1044
-616
-860
-254
-87
-155
-83
-71
-87
-27
-14
-40
-17
7
4
4
11
36
77
93
92
110
138
157
175
196
228
269
297
310
336
377
407
414
410
391
333
239
143
58
-29
-104
-146
-167
-181
-185
-182
-177
-163
-153
-161
-167
-152
-139
-147
-163
-168
-158
-148
-152
-158
-158
-168
-185
-183
-175
-181
-185
-176
-167
-163
-165
-170
-167
-153
-143
-139
-131
-124
-122
-124
-128
-121
-94
-70
-55
-37
-42
-84
-113
-107
-108
-116
-110
-110
-113
-104
-110
-96
-53
-104
-181
-84
169
755
1698
1796
343
-996
-848
-236
-115
-94
10
-3
-18
28
29
22
49
64
70
88
100
111
129
145
161
185
205
220
241
267
296
327
347
358
377
399
409
411
402
366
299
213
121
31
-58
-134
-180
-202
-213
-216
-213
-211
-204
-189
-176
-174
-177
-171
-159
-158
-169
-170
-167
-178
-190
-187
-183
-189
-197
-196
-188
-183
-187
-191
-187
-180
-171
-161
-161
-171
-174
-172
-182
-188
-161
-115
-79
-60
-68
-104
-129
-127
-126
-127
-124
-134
-129
-104
-120
-126
-79
-121
-199
-91
168
759
1752
1885
364
-1048
-882
-239
-131
-107
16
3
-17
36
42
35
62
73
79
99
111
121
140
153
168
196
217
226
247
282
315
346
375
394
415
444
460
454
432
389
314
222
130
38
-45
-104
-146
-175
-184
-182
-187
-186
-170
-158
-158
-156
-147
-140
-137
-140
-144
-145
-143
-145
-154
-160
-161
-164
-169
-168
-164
-167
-171
-171
-167
-164
-164
-164
-160
-154
-155
-156
-147
-140
-150
-160
-160
-164
-162
-133
-92
-63
-55
-79
-116
-127
-123
-126
-122
-120
-129
-113
-100
-125
-106
-76
-154
-173
-35
215
949
1911
1575
-106
-1024
-558
-113
-128
-75
-3
-49
-39
4
-3
5
31
42
56
67
68
86
114
125
134
157
186
212
235
258
287
319
345
368
393
413
426
431
413
361
284
194
99
13
-53
-105
-144
-165
-170
-171
-171
-167
-163
-162
-157
-147
-141
-141
-142
-143
-143
-142
-143
-142
-143
-149
-153
-148
-144
-148
-151
-152
-152
-149
-143
-141
-143
-143
-139
-134
-128
-124
-128
-129
-119
-114
-118
-118
-117
-123
-128
-134
-139
-123
-83
-43
-25
-42
-81
-100
-93
-90
-91
-88
-97
-96
-79
-94
-98
-48
-84
-163
-65
136
599
1588
1996
715
-804
-834
-208
-81
-107
-2
-4
-39
6
23
18
42
50
49
73
94
95
103
126
145
163
188
211
223
239
270
303
331
360
385
400
414
431
433
402
340
253
152
55
-24
-90
-145
-180
-191
-199
-213
-219
-210
-202
-198
-193
-186
-178
-172
-176
-186
-187
-180
-180
-184
-186
-191
-196
-194
-192
-198
-199
-189
-182
-185
-183
-180
-187
-185
-168
-161
-168
-166
-153
-148
-152
-154
-151
-149
-156
-158
-137
-102
-67
-42
-53
-96
-117
-105
-104
-111
-102
-104
-108
-88
-95
-104
-56
-78
-164
-90
90
499
1506
2113
967
-698
-902
-251
-67
-107
-5
2
-37
16
42
28
46
64
71
90
107
114
127
146
169
194
211
222
242
272
303
334
363
389
414
434
450
463
457
413
341
256
164
76
0
-66
-114
-139
-157
-170
-169
-159
-155
-153
-148
-143
-138
-132
-127
-126
-129
-135
-136
-131
-130
-138
-144
-140
-137
-144
-152
-150
-144
-142
-144
-143
-138
-133
-134
-138
-133
-125
-125
-127
-126
-125
-125
-123
-118
-114
-110
-112
-115
-110
-105
-108
-107
-98
-93
-95
-96
-93
-90
-91
-91
-90
-86
-82
-83
-85
-81
-79
-82
-85
-90
-100
-97
-71
-36
-5
7
-16
-50
-58
-57
-66
-60
-52
-64
-56
-44
-70
-53
-11
-84
-124
-13
153
791
1906
1935
346
-827
-524
-56
-87
-73
13
-26
-28
18
9
8
35
40
42
63
80
88
99
113
132
153
172
190
210
232
257
287
319
349
376
400
419
437
439
415
368
299
207
109
27
-34
-79
-114
-140
-154
-156
-154
-154
-152
-148
-142
-133
-125
-125
-128
-128
-130
-135
-137
-137
-142
-145
-142
-143
-143
-135
-135
-149
-154
-142
-134
-135
-137
-140
-136
-123
-121
-128
-126
-119
-121
-121
-113
-110
-116
-116
-110
-108
-111
-109
-105
-106
-106
-101
-95
-96
-100
-100
-93
-88
-87
-86
-89
-102
-103
-80
-51
-17
10
-7
-52
-67
-63
-74
-75
-65
-77
-78
-62
-84
-80
-32
-98
-168
-46
166
752
1834
1992
440
-915
-708
-157
-141
-145
-50
-83
-99
-52
-52
-56
-44
-51
-47
-27
-25
-20
-2
5
4
15
32
39
42
50
66
90
113
128
134
139
145
143
122
