# session 10
-15
-8
-6
-45
-75
-91
-148
-210
-239
32
879
1389
453
-853
-882
-221
-28
-57
37
51
21
71
102
109
151
193
235
288
293
240
175
100
4
-79
-123
-124
-99
-91
-119
-131
-99
-73
-79
-82
-73
-63
-52
-54
-73
-74
-67
-83
-85
-56
-58
-80
-62
-48
-55
-27
-29
-113
-216
-295
9
1016
1658
706
-681
-773
-155
9
-35
61
79
49
98
122
107
139
190
225
253
264
248
203
112
-5
-92
-132
-141
-136
-125
-113
-99
-85
-76
-63
-46
-45
-57
-55
-59
-95
-111
-83
-61
-62
-66
-80
-88
-68
-72
-89
-78
-107
-210
-347
-378
181
1238
1381
103
-863
-520
-19
-27
-20
84
46
19
84
111
120
175
232
255
266
276
261
193
83
-18
-88
-136
-150
-132
-122
-133
-117
-72
-69
-116
-133
-108
-102
-132
-157
-158
-144
-128
-122
-121
-122
-137
-153
-147
-140
-133
-118
-150
-265
-421
-351
402
1421
1266
-136
-966
-565
-108
-92
-61
21
-1
-7
37
59
88
136
170
201
241
257
230
171
100
30
-34
-75
-76
-59
-65
-84
-79
-64
-68
-73
-75
-91
-95
-81
-98
-110
-76
-93
-174
-154
-56
-65
-122
-107
-98
-112
-103
-153
-292
-373
-36
945
1671
907
-548
-884
-280
3
-56
27
123
79
17
15
72
139
180
231
285
275
224
194
151
55
-44
-95
-113
-123
-113
-90
-75
-74
-86
-90
-63
-48
-82
-107
-97
-97
-86
-54
-61
-97
-113
-123
-119
-88
-86
-80
-44
-90
-186
-219
-203
271
1403
1807
496
-837
-662
-43
-17
-83
30
41
7
49
98
137
161
164
207
254
236
211
211
136
-17
-126
-161
-177
-172
-136
-118
-134
-129
-94
-71
-68
-75
-86
-86
-80
-76
-71
-84
-105
-82
-48
-77
-113
-97
-105
-128
-110
-142
-258
-381
-386
175
1279
1518
222
-886
-599
-36
-30
-55
64
44
-4
55
102
115
147
185
236
299
309
258
203
142
38
-76
-128
-127
-134
-155
-162
-155
-124
-73
-72
-121
-141
-130
-135
-148
-160
-172
-159
-137
-153
-179
-179
-167
-162
-166
-161
-125
-138
-260
-411
-450
-25
921
1269
211
-926
-798
-187
-49
-59
42
52
18
54
90
109
156
218
256
263
274
293
259
159
68
41
43
21
-15
-34
-47
-41
4
20
-33
-55
-11
-5
-50
-69
-54
-42
-43
-54
-63
-63
-81
-109
-102
-84
-89
-73
-48
-116
-277
-424
-210
750
1709
1241
-203
-761
-290
5
-36
15
63
41
76
110
110
161
239
276
296
329
349
327
252
151
67
17
-7
-19
-36
-62
-84
-88
-87
-90
-80
-69
-93
-132
-141
-152
-173
-153
-124
-148
-179
-175
-174
-181
-185
-203
-195
-161
-200
-308
-412
-307
459
1475
1225
-316
-1149
-647
-149
-142
-93
4
-25
-25
30
51
79
135
175
205
240
256
233
178
103
19
-51
-87
-94
-96
-103
-110
-110
-99
-86
-72
-55
-48
-57
-60
-65
-86
-97
-85
-86
-99
-103
-109
-109
-96
-112
-126
-82
-81
-184
-302
-301
201
1217
1457
169
-1016
-752
-93
-12
-27
98
93
62
123
149
149
199
261
300
325
331
311
252
156
54
-33
-94
-121
-129
-139
-147
-143
-120
-94
-85
-84
-78
-78
-79
-79
-97
-111
-99
-96
-100
-82
-71
-80
-69
-68
-89
-65
-51
-133
-267
-367
-82
895
1568
686
-723
-866
-203
7
-66
16
61
31
57
89
109
161
209
245
290
320
305
252
173
83
-2
-69
-101
-101
-99
-106
-103
-84
-63
-50
-43
-39
-49
-71
-85
-98
-117
-115
-98
-94
-85
-78
-101
-115
-111
-132
-135
-120
-179
-319
-468
-297
655
1669
1210
-304
-887
-373
-66
-133
-87
-24
-52
-33
11
29
69
122
158
192
217
219
188
119
32
-42
-94
-122
-126
-119
-115
-108
-92
-73
-68
-72
-75
-87
-114
-131
-140
-153
-142
-104
-92
-107
-99
-86
-98
-114
-125
-112
-82
-113
-229
-384
-383
312
1561
1812
458
-711
-523
-49
-51
-73
17
3
-7
52
77
89
140
197
236
256
251
230
185
110
32
-19
-55
-77
-74
-71
-88
-95
-75
-60
-59
-55
-58
-80
-97
-103
-121
-138
-128
-118
-129
-131
-127
-138
-142
-140
-143
-121
-121
-203
-304
-342
23
1058
1697
685
-829
-981
-291
-51
-82
16
41
8
56
88
96
153
205
229
270
295
266
218
165
81
-15
-74
-91
-91
-88
-89
-97
-102
-93
-73
-61
-63
-65
-64
-68
-83
-108
-128
-130
-129
-128
-116
-107
-108
-111
-117
-100
-86
-142
-216
-275
-208
453
1428
1225
-272
-1075
-532
-37
-75
-44
63
36
30
76
85
110
167
206
240
274
274
237
172
81
-8
-70
-110
-126
-113
-104
-115
-120
-102
-78
-61
-47
-37
-35
-40
-53
-73
-82
-75
-77
-88
-77
-64
-72
-72
-68
-79
-65
-56
-125
-242
-348
-129
832
1725
1093
-415
-842
-261
7
-70
-7
50
18
40
73
83
118
160
194
237
259
242
201
132
35
-63
-133
-161
-155
-145
-145
-143
-130
-110
-95
-90
-88
-90
-104
-124
-136
-147
-156
-149
-134
-120
-113
-123
-129
-114
-122
-140
-118
-124
-213
-350
-445
-19
1170
1846
832
-553
-651
-130
-54
-118
-25
-2
-25
13
41
60
107
149
186
227
245
229
188
120
37
-35
-79
-95
-96
-99
-104
-103
-95
-82
-73
-67
-62
-76
-108
-126
-132
-146
-140
-106
-96
-109
-115
-122
-129
-119
-126
-136
-109
-119
-216
-360
-412
118
1310
1813
702
-569
-577
-102
-52
-96
-12
1
-8
42
68
86
133
174
205
239
254
235
191
125
51
-12
-52
-72
-82
-88
-93
-98
-100
-93
-86
-91
-101
-108
-124
-146
-159
-158
-141
-120
-112
-116
-117
-122
-128
-139
-167
-156
-87
-88
-206
-351
-360
213
1366
1726
477
-788
-679
-130
-79
-119
-23
-16
-24
32
51
63
121
169
197
235
259
243
192
123
49
-13
-48
-58
-65
-82
-93
-93
-93
-89
-77
-65
-62
-74
-88
-92
-102
-128
-138
-125
-119
-112
-101
-110
-118
-106
-118
-127
-83
-86
-191
-308
-273
344
1464
1649
232
-993
-732
-114
-52
-62
49
43
28
80
92
110
179
226
243
274
292
262
200
125
40
-32
-63
-70
-82
-97
-111
-128
-132
-114
-101
-97
-87
-86
-104
-118
-128
-149
-156
-144
-151
-162
-135
-114
-126
-126
-121
-128
-108
-101
-173
-278
-334
34
1103
1795
848
-625
-808
-192
-9
-76
9
46
17
49
78
86
128
177
212
250
271
253
203
133
53
-22
-72
-87
-87
-98
-112
-111
-101
-89
-70
-55
-54
-62
-76
-96
-114
-133
-152
-151
-133
-127
-124
-117
-126
-135
-130
-143
-148
-115
-143
-262
-397
-384
267
1468
1722
384
-776
-570
-85
-96
-117
-14
-25
-39
14
41
62
110
150
186
221
228
205
160
87
3
-63
-96
-103
-103
-105
-107
-104
-95
-89
-88
-81
-70
-77
-106
-132
-142
-145
-131
-97
-96
-141
-149
-102
-85
-87
-71
-123
-204
-174
-140
-234
-371
-393
139
1347
1898
769
-570
-587
-91
-60
-115
-12
1
-26
24
67
86
119
152
192
236
254
247
216
155
84
28
-8
-23
-22
-26
-46
-61
-57
-44
-33
-21
-8
-14
-41
-70
-91
-107
-117
-110
-88
-82
-102
-114
-114
-119
-118
-115
-129
-117
-90
-144
-270
-378
-178
740
1733
1307
-237
-913
-406
-42
-98
-54
22
-14
-7
40
56
93
152
195
231
260
256
218
150
67
1
-45
-78
-88
-86
-108
-142
-149
-137
-137
-140
-122
-102
-112
-130
-134
-144
-175
-200
-200
-189
-185
-177
-160
-159
-178
-173
-156
-165
-151
-121
-168
-260
-301
-60
798
1589
920
-664
-1144
-454
-35
-57
22
95
60
86
133
141
183
248
287
322
358
365
336
280
202
113
41
7
-6
-24
-48
-72
-93
-100
-85
-55
-28
-15
-12
-9
-12
-31
-58
-78
-87
-94
-105
-110
-95
-85
-102
-106
-90
-103
-105
-72
-112
-209
-280
-219
423
1496
1486
-14
-1034
-611
-68
-79
-67
44
25
11
53
65
88
138
172
209
252
264
240
183
101
14
-59
-105
-124
-130
-132
-129
-136
-150
-145
-119
-99
-98
-102
-95
-98
-131
-165
-174
-182
-186
-167
-151
-153
-151
-150
-151
-141
-151
-170
-141
-137
-231
-356
-387
60
1164
1778
799
-582
-729
-196
-62
-112
-24
10
-9
21
47
75
134
177
207
251
284
289
274
232
167
109
77
61
36
-5
-42
-65
-76
-78
-72
-63
-56
-50
-45
-49
-69
-95
-110
-117
-113
-90
-74
-92
-115
-117
-123
-131
-120
-119
-128
-99
-99
-193
-299
-271
210
1174
1518
422
-819
-799
-217
-59
-73
8
17
9
67
97
106
153
205
246
296
335
344
327
282
213
148
102
58
12
-30
-77
-126
-153
-156
-150
-135
-114
-108
-119
-118
-108
-115
-139
-164
-184
-181
-157
-148
-158
-158
-155
-156
-144
-147
-167
-137
-115
-193
-285
-297
32
976
1645
763
-764
-1043
-376
-84
-115
-25
23
-3
36
77
93
135
182
224
277
321
341
330
277
204
134
64
0
-38
-62
-101
-144
-171
-181
-172
-144
-112
-97
-92
-82
-75
-89
-114
-135
-156
-168
-159
-149
-153
-145
-132
-141
-140
-127
-140
-128
-90
-142
-243
-295
-202
467
1524
1475
-5
-978
-568
-71
-85
-59
46
25
26
76
86
112
173
218
260
309
335
328
294
232
151
69
2
-39
-64
-87
-109
-128
-145
-149
-136
-116
-100
-85
-71
-74
-107
-136
-132
-142
-187
-196
-152
-138
-159
-150
-128
-127
-118
-109
-102
-37
-7
-158
-319
-333
-227
375
1466
1660
351
-773
-610
-165
-124
-105
-37
-46
-2
64
51
54
123
219
320
360
335
340
348
278
204
207
201
132
77
58
26
-4
2
39
95
144
159
157
159
164
165
128
63
19
-59
-177
-149
8
19
-79
-13
162
190
97
40
-24
-108
-66
1
-118
-249
-137
305
995
1135
44
-1208
-1262
-647
-369
-327
-219
-122
-162
-417
-594
-286
176
290
229
198
117
79
112
68
-53
-164
-73
154
10
-264
-68
-44
-460
-330
-46
-563
-807
-332
-910
-2757
-3868
-3656
-3265
-3076
-2563
-1811
-1476
-1492
-1147
-357
350
804
1106
1212
1204
1267
1456
1885
2567
3086
3178
3167
3261
3238
3018
2677
2243
1953
1772
1156
324
151
439
432
265
231
166
79
64
29
-16
-20
-28
-59
-152
-303
-342
-228
-242
-476
-531
-258
-129
-256
-214
-126
-346
-531
-497
-594
-707
-664
-790
-876
-503
-263
-636
-906
-597
-336
-583
-895
-819
-614
-631
-711
-697
-735
-780
-493
347
1270
1078
-437
-1605
-1365
-712
-531
-487
-329
-201
-43
170
240
164
175
284
303
291
417
558
583
610
577
265
-59
76
421
322
-121
-215
189
565
534
269
117
126
148
193
290
287
137
32
105
211
123
-183
-566
-949
-1236
-1282
-1134
-937
-725
-556
-370
-43
145
21
20
248
398
651
943
636
114
252
567
423
339
550
652
733
914
831
543
514
614
434
123
2
-12
-86
-156
-136
-111
-162
-167
-65
-61
-201
-251
-223
-299
-334
-161
-19
-135
-315
-285
-121
-91
-230
-272
-40
214
155
-16
38
104
-33
-86
-27
-98
-41
315
580
798
1091
730
-329
-842
-539
-331
-355
-219
-96
-134
-115
-51
-52
35
183
108
-75
-16
160
209
252
278
68
-179
-143
-42
-205
-465
-489
-313
-232
-316
-373
-357
-392
-468
-456
-374
-326
-271
-151
-88
-152
-217
-212
-207
-239
-270
-279
-281
-259
-153
-55
-97
-84
128
398
1070
2171
2159
445
-831
-490
23
14
108
180
61
251
560
407
130
193
347
404
465
502
590
773
712
358
150
138
72
52
108
6
-175
-171
-64
-65
-145
-145
-27
18
-157
-355
-349
-232
-130
-49
-48
-198
-478
-721
-666
-392
-328
-452
-369
-226
-367
-596
-660
-278
848
1635
609
-1094
-1405
-769
-483
-423
-303
-298
-333
-299
-242
-161
-111
-42
202
452
471
435
560
725
785
723
569
438
366
212
11
1
152
217
72
-204
-317
-118
82
59
-5
-1
47
152
170
60
84
213
169
53
-14
-202
-395
-364
-296
-307
-249
-67
478
1326
1284
-184
-1414
-1094
-295
-242
-464
-327
-142
-101
-27
-91
-265
-144
117
205
277
345
392
508
320
-177
-258
1
-40
-190
-169
-249
-344
-160
86
144
-26
-417
-658
-450
-189
-141
-39
92
91
120
142
26
35
203
199
76
21
-50
-45
133
180
-27
-2
846
2145
2272
631
-848
-705
-34
89
61
129
60
2
132
217
136
104
196
240
199
200
258
305
362
432
394
197
-7
-59
-12
-101
-430
-726
-641
-336
-306
-562
-688
-674
-631
-285
123
-1
-144
129
-119
-941
-1063
-559
-419
-537
-472
-281
-120
-195
-497
-626
-193
779
1372
591
-753
-1087
-548
-135
41
168
149
65
109
233
337
431
448
299
163
290
574
698
584
418
338
301
264
238
170
54
37
172
320
328
182
34
18
42
1
-55
-67
-50
-38
-56
-69
-98
-233
-356
-272
-132
-104
-90
-176
-441
-552
-432
-135
765
1708
1100
-586
-1211
-692
-451
-509
-254
-24
-135
-271
-347
-503
-563
-416
-223
-55
40
49
197
437
404
222
226
202
-28
-158
-80
-24
-62
-158
-240
-142
53
119
146
120
-97
-93
234
122
-197
286
870
475
49
385
530
132
-120
-190
-209
70
312
331
988
2133
1947
170
-1158
-1081
-594
-365
-246
-129
54
211
71
-112
114
376
205
30
155
199
145
226
157
-76
-41
28
-196
-180
134
-48
-469
-260
32
-341
-740
-685
-612
-615
-516
-447
-408
-283
-194
-219
-255
-234
-205
-234
-237
-107
