# session 34
-28
-30
-13
-78
-199
-228
-187
-181
-192
-179
-170
-171
-166
-158
-156
-154
-149
-144
-142
-141
-137
-133
-131
-128
-122
-118
-116
-114
-121
-134
-128
-97
-61
-26
-2
-21
-65
-78
-70
-74
-75
-74
-80
-66
-58
-75
-47
-34
-117
-112
37
293
992
1740
1193
-343
-938
-387
-27
-74
-32
20
-16
1
30
20
31
55
60
67
79
83
97
118
129
138
155
176
198
221
243
260
281
304
319
329
337
338
324
292
241
176
105
36
-26
-78
-112
-130
-141
-149
-150
-147
-145
-143
-137
-132
-129
-124
-118
-116
-118
-119
-119
-119
-122
-127
-128
-126
-127
-132
-135
-132
-131
-131
-130
-130
-130
-126
-117
-114
-119
-124
-126
-123
-116
-112
-112
-110
-105
-100
-95
-94
-98
-97
-91
-89
-89
-84
-79
-78
-78
-76
-75
-74
-74
-78
-86
-88
-79
-59
-22
20
23
-20
-49
-46
-45
-47
-47
-57
-48
-27
-49
-49
-1
-59
-128
2
246
797
1710
1721
206
-1016
-722
-121
-71
-64
35
4
-14
35
37
32
54
61
64
82
95
107
124
138
151
172
196
216
236
260
287
310
332
352
364
366
365
355
325
273
207
133
57
-10
-67
-113
-145
-165
-172
-175
-180
-183
-178
-164
-151
-142
-136
-130
-124
-117
-112
-112
-114
-117
-120
-124
-126
-132
-140
-145
-144
-146
-149
-149
-148
-150
-149
-145
-142
-140
-135
-130
-128
-129
-128
-124
-123
-124
-121
-117
-115
-111
-108
-106
-103
-101
-101
-98
-95
-96
-102
-112
-124
-122
-101
-64
-19
0
-32
-71
-75
-69
-72
-67
-71
-77
-59
-61
-79
-36
-40
-135
-93
72
379
1215
1891
1022
-581
-925
-280
-20
-80
-6
23
-19
15
42
31
48
67
68
79
97
108
120
134
147
165
186
206
228
254
278
300
320
339
354
367
373
364
338
296
235
160
85
20
-36
-84
-117
-134
-142
-146
-145
-138
-133
-127
-120
-115
-112
-104
-97
-93
-91
-87
-85
-84
-84
-86
-87
-88
-92
-96
-97
-98
-100
-101
-102
-102
-102
-100
-98
-96
-93
-90
-87
-86
-83
-77
-72
-69
-65
-61
-60
-58
-57
-58
-56
-54
-57
-56
-52
-51
-53
-51
-50
-53
-53
-50
-50
-50
-48
-47
-48
-46
-44
-43
-43
-42
-41
-40
-39
-40
-40
-39
-37
-34
-35
-37
-37
-34
-31
-29
-29
-31
-34
-33
-31
-32
-41
-58
-69
-54
-17
24
48
34
-6
-25
-22
-27
-30
-28
-39
-37
-24
-44
-35
3
-62
-112
7
190
703
1607
1635
233
-859
-575
-69
-60
-69
5
-25
-35
7
6
4
24
28
32
48
55
63
81
94
104
121
140
157
175
197
216
235
255
274
291
304
311
311
301
277
230
164
94
33
-23
-73
-113
-139
-148
-147
-148
-155
-156
-147
-135
-128
-122
-118
-113
-109
-104
-107
-115
-118
-115
-118
-125
-123
-120
-123
-128
-130
-132
-136
-135
-128
-124
-124
-120
-113
-110
-110
-106
-100
-100
-103
-103
-98
-95
-92
-88
-87
-87
-81
-77
-84
-86
-77
-72
-77
-77
-73
-70
-66
-62
-61
-62
-58
-54
-54
-54
-52
-55
-55
-51
-48
-51
-55
-61
-71
-73
-60
-33
11
46
30
-18
-36
-29
-34
-35
-36
-44
-29
-24
-52
-23
-2
-96
-88
100
376
1090
1894
1334
-341
-1029
-445
-46
-86
-25
34
-14
1
38
27
37
59
59
70
92
104
115
132
144
157
177
199
220
241
265
287
308
325
339
349
351
347
331
302
258
199
128
57
-5
-60
-104
-133
-149
-158
-161
-160
-156
-150
-144
-140
-133
-125
-121
-120
-118
-118
-121
-124
-125
-127
-130
-132
-137
-143
-148
-150
-150
-152
-152
-150
-148
-148
-147
-145
-142
-139
-136
-132
-129
-129
-129
-125
-118
-112
-110
-108
-104
-102
-102
-99
-94
-92
-92
-90
-85
-82
-84
-86
-83
-81
-81
-82
-81
-86
-100
-109
-93
-65
-30
11
21
-19
-53
-52
-50
-52
-50
-58
-54
-38
-56
-53
-13
-75
-136
-11
206
725
1604
1632
225
-900
-619
-75
-46
-52
30
6
-3
42
46
47
69
72
76
93
104
111
126
142
157
174
192
214
237
256
278
304
325
339
351
361
364
352
320
272
215
147
73
5
-50
-93
-124
-141
-149
-153
-153
-151
-148
-142
-132
-125
-121
-116
-111
-109
-106
-102
-101
-100
-98
-97
-100
-103
-104
-105
-107
-111
-114
-113
-112
-113
-114
-115
-115
-115
-113
-111
-111
-111
-109
-107
-105
-104
-106
-107
-105
-102
-103
-104
-101
-98
-98
-98
-97
-97
-94
-91
-88
-86
-85
-87
-97
-110
-110
-91
-62
-23
9
-5
-48
-65
-63
-71
-69
-66
-74
-64
-57
-79
-51
-33
-126
-127
56
360
1069
1798
1207
-400
-1031
-450
-55
-88
-33
23
-19
1
37
24
31
53
55
64
83
94
108
126
139
153
173
193
216
241
265
290
315
335
351
363
371
372
360
326
274
209
131
51
-15
-71
-118
-146
-160
-171
-176
-173
-167
-161
-154
-147
-141
-136
-132
-130
-128
-125
-121
-121
-123
-125
-128
-134
-140
-145
-150
-153
-153
-153
-153
-154
-155
-154
-150
-144
-140
-139
-139
-136
-130
-125
-121
-119
-117
-114
-110
-107
-103
-101
-102
-110
-122
-125
-109
-80
-36
4
-7
-54
-73
-67
-71
-71
-68
-78
-69
-58
-81
-61
-31
-113
-130
35
298
971
1818
1409
-255
-1096
-554
-73
-86
-39
34
-9
0
41
32
39
65
70
78
96
105
113
128
144
162
183
203
225
253
280
304
325
348
369
381
384
376
354
314
253
175
92
17
-43
-91
-127
-153
-170
-176
-178
-179
-173
-158
-145
-138
-135
-131
-124
-116
-111
-109
-108
-105
-103
-102
-102
-105
-107
-105
-106
-112
-116
-113
-109
-107
-107
-108
-106
-102
-101
-101
-99
-97
-96
-92
-90
-91
-91
-91
-89
-84
-80
-81
-82
-80
-77
-73
-73
-75
-76
-74
-70
-64
-61
-63
-65
-65
-65
-75
-89
-85
-59
-26
8
29
3
-44
-56
-51
-58
-58
-58
-68
-55
-49
-72
-46
-29
-117
-117
46
309
981
1717
1191
-344
-964
-419
-47
-84
-33
18
-25
-9
26
17
26
48
52
58
72
80
90
104
119
136
153
171
192
213
234
257
281
302
320
335
346
348
338
311
266
204
135
65
1
-52
-90
-117
-134
-139
-136
-134
-131
-127
-121
-116
-114
-110
-103
-98
-97
-98
-95
-92
-91
-92
-94
-96
-98
-99
-102
-108
-112
-112
-113
-118
-121
-121
-119
-118
-115
-110
-110
-112
-109
-106
-107
-108
-105
-100
-95
-93
-95
-98
-97
-89
-83
-86
-88
-84
-78
-79
-83
-81
-78
-78
-78
-79
-76
-70
-67
-72
-81
-88
-85
-67
-41
-9
25
20
-26
-50
-41
-45
-49
-42
-52
-54
-37
-55
-55
-14
-75
-139
-2
250
801
1687
1675
182
-1010
-719
-133
-84
-81
12
-12
-21
30
32
24
44
53
60
76
88
96
109
124
142
160
176
195
222
247
266
287
309
328
343
356
362
355
335
300
244
169
91
23
-40
-92
-128
-149
-162
-170
-171
-168
-162
-153
-144
-136
-129
-122
-116
-110
-107
-107
-107
-106
-109
-114
-116
-122
-130
-133
-133
-135
-135
-133
-135
-137
-135
-131
-127
-122
-120
-121
-119
-115
-112
-111
-108
-104
-102
-100
-96
-92
-87
-83
-83
-84
-80
-77
-81
-76
-62
-64
-79
-83
-86
-90
-73
-45
-14
39
64
-7
-94
-103
-83
-80
-73
-87
-103
-63
-36
-59
-55
-95
-180
-117
46
414
1332
1881
772
-823
-979
-283
-78
-141
-56
-31
-65
-29
-11
-24
-4
18
24
41
61
63
67
105
147
156
168
210
233
233
271
338
372
378
387
399
405
397
357
308
273
225
156
100
44
-28
-72
-70
-73
-92
-101
-108
-120
-118
-106
-100
-105
-117
-121
-102
-82
-88
-104
-113
-116
-121
-129
-132
-130
-132
-126
-107
-112
-138
-148
-154
-158
-122
-83
-98
-123
-117
-117
-132
-129
-114
-105
-102
-102
-102
-97
-101
-111
-112
-109
-119
-124
-104
-77
-64
-48
-31
-47
-81
-91
-87
-90
-92
-97
-98
-70
-62
-94
-77
-55
-126
-127
74
476
1152
1540
715
-658
-999
-443
-126
-113
-35
1
-34
-10
20
13
15
22
28
52
71
68
71
87
92
99
128
155
164
176
203
227
249
275
291
293
293
287
265
237
203
148
78
23
-19
-57
-85
-101
-117
-124
-115
-110
-115
-109
-91
-81
-79
-71
-64
-62
-58
-54
-56
-62
-68
-68
-62
-70
-86
-88
-81
-87
-97
-96
-96
-101
-103
-97
-89
-89
-98
-105
-103
-103
-106
-91
-62
-38
-15
-2
-27
-69
-83
-80
-82
-82
-84
-92
-82
-79
-104
-85
-50
-115
-148
22
391
1032
1526
897
-519
-1101
-612
-195
-137
-54
12
-8
2
23
22
39
49
42
51
66
83
106
110
99
111
135
145
158
188
212
221
226
244
269
280
275
274
267
224
157
88
23
-28
-63
-106
-141
-143
-139
-152
-173
-190
-188
-162
-151
-167
-156
-112
-106
-142
-163
-165
-164
-148
-133
-157
-188
-174
-141
-144
-185
-211
-198
-161
-106
-60
-95
-177
-173
-112
-132
-185
-156
-106
-99
-55
23
21
-38
-43
-8
11
21
23
8
16
56
62
30
18
10
4
37
53
299
1218
2040
1333
-299
-906
-390
-11
-29
-27
31
41
21
-20
-67
-41
48
56
-31
-38
43
63
22
0
10
70
159
199
190
179
174
213
283
291
273
284
253
209
232
208
67
-40
-56
-94
-163
-188
-205
-237
-230
-207
-218
-223
-188
-163
-191
-230
-211
-147
-133
-175
-179
-135
-140
-194
-193
-134
-119
-162
-193
-197
-189
-154
-121
-138
-151
-119
-104
-145
-172
-124
-33
21
-3
-62
-94
-95
-94
-94
-97
-118
-125
-96
-99
-122
-80
-86
-178
-151
11
495
1644
2383
1230
-631
-1047
-456
-223
-221
-100
-76
-101
-50
-35
-45
-16
-7
-11
28
60
46
43
74
113
191
301
320
221
151
188
252
287
319
354
364
344
322
299
252
182
99
9
-66
-103
-115
-134
-173
-209
-212
-188
-165
-156
-150
-134
-113
-100
-85
-65
-78
-125
-152
-143
-126
-113
-107
-118
-125
-121
-124
-131
-124
-119
-130
-139
-140
-141
-135
-122
-120
-126
-137
-147
-131
-90
-51
-14
-3
-43
-53
8
37
1
-28
-61
-111
-115
-109
-129
-91
-57
-126
-126
-13
197
895
1709
1240
-292
-958
-454
-83
-108
-56
-5
-50
-36
10
17
24
26
14
25
48
57
71
94
111
128
148
166
192
233
256
246
246
277
308
325
340
341
320
283
229
155
79
8
-58
-105
-131
-149
-153
-144
-149
-162
-160
-149
-146
-144
-135
-128
-128
-129
-128
-129
-127
-119
-119
-133
-144
-146
-143
-141
-143
-146
-145
-139
-136
-138
-143
-143
-134
-127
-131
-137
-136
-133
-129
-134
-150
-159
-144
-113
-76
-38
-34
-68
-90
-89
-94
-95
-94
-109
-100
-70
-87
-91
-55
-118
-182
-86
85
634
1679
1858
397
-901
-696
-130
-94
-106
-11
-37
-62
-14
0
-1
19
29
39
64
80
90
105
122
139
160
187
211
225
233
256
293
318
326
338
358
368
361
339
297
236
168
90
6
-59
-96
-120
-136
-141
-143
-144
-139
-133
-130
-126
-118
-112
-113
-117
-118
-117
-112
-106
-110
-129
-142
-138
-132
-134
-136
-135
-136
-133
-127
-129
-130
-119
-113
-122
-127
-119
-110
-111
-118
-130
-145
-150
-136
-102
-51
-20
-46
-88
-93
-86
-91
-91
-95
-106
-91
-89
-112
-77
-69
-164
-164
-43
222
1084
2009
1402
-327
-994
-426
-83
-145
-92
-45
-87
-63
-29
-41
-31
-8
2
15
26
31
43
62
76
91
109
128
147
167
192
215
226
233
244
252
256
255
239
200
145
78
9
-49
-98
-140
-165
-175
-186
-190
-177
-166
-163
-158
-151
-146
-139
-138
-140
-135
-132
-138
-141
-138
-139
-136
-130
-131
-135
-128
-120
-121
-127
-126
-118
-107
-106
-111
-109
-98
-93
-95
-89
-79
-76
-77
-72
-65
-59
-58
-57
-51
-43
-39
-42
-53
-66
-63
-34
13
60
76
46
11
8
14
12
12
7
9
25
15
5
46
27
-54
-11
141
526
1408
1908
922
-481
-641
-83
66
3
68
83
57
87
100
92
111
124
126
139
149
157
174
188
193
205
224
244
260
272
282
294
302
308
318
324
323
320
308
279
241
193
132
70
24
-11
-40
-60
-71
-76
-79
-81
-81
-77
-74
-78
-85
-89
-89
-91
-99
-108
-113
-116
-123
-132
-140
-145
-151
-159
-166
-169
-174
-179
-181
-183
-187
-192
-194
-195
-198
-202
-206
-206
-205
-205
-209
-218
-226
-228
-230
-236
-243
-248
-252
-256
-261
-266
-273
-288
-309
-319
-306
-279
-244
-209
-214
-260
-291
-293
-294
-294
-297
-311
-304
-294
-315
-292
-263
-343
-374
-238
33
733
1568
1186
-367
-1160
-687
-268
-299
-270
-204
-241
-234
-189
-184
-171
-145
-134
-118
-91
-69
-47
-22
0
23
51
73
95
123
148
164
184
210
230
244
258
272
277
270
255
230
195
155
115
78
51
39
43
52
60
75
95
114
130
146
155
162
176
190
197
205
216
225
230
237
245
249
256
270
283
290
298
309
317
323
334
342
350
360
370
374
376
380
384
389
392
387
381
381
382
380
375
365
345
320
306
305
317
349
380
359
298
260
246
225
207
184
151
142
124
77
78
64
-52
-82
29
279
1038
1826
1189
-483
-1128
-583
-265
-360
-347
-328
-401
-419
-426
-471
-492
-505
-538
-562
-577
-599
-619
-640
-663
-678
-684
-694
-708
-717
-723
-727
-731
-740
-753
-762
