# session 9
-21
-22
-10
34
46
-40
-136
-126
-66
-60
-88
-102
-111
-123
-142
-183
-219
-273
-392
-484
-457
-233
376
922
378
-929
-1412
-867
-412
-289
-138
-75
-149
-147
-111
-121
-116
-130
-101
91
188
30
-3
167
117
-98
-108
15
67
18
-125
-143
74
135
-110
-196
-10
43
-13
153
338
144
-185
-182
19
49
-5
59
65
-93
-170
-131
-175
-239
-154
269
1122
1538
559
-770
-829
-150
25
-116
-65
3
-12
46
155
178
124
149
273
335
333
374
390
335
310
290
212
179
200
171
161
212
174
81
119
195
177
184
217
123
-24
-61
8
94
71
-80
-172
-133
-128
-172
-170
-197
-290
-298
-56
520
952
339
-977
-1458
-913
-518
-464
-248
-91
-157
-115
-89
-315
-392
-116
62
54
216
369
149
-119
-69
43
-6
-60
1
76
22
-100
-121
-131
-247
-271
-138
-88
-125
-89
-62
-100
-70
-7
-54
-124
-121
-125
-130
-31
71
-16
-152
-116
-3
432
1545
2199
1085
-514
-747
-183
81
178
185
40
131
363
211
-72
33
287
380
462
436
152
37
253
304
101
46
160
171
47
-81
-175
-266
-309
-295
-320
-348
-264
-146
-101
-122
-195
-231
-177
-160
-173
-110
-153
-336
-318
-199
-317
-417
-296
-14
724
1405
666
-906
-1290
-594
-321
-504
-457
-322
-362
-365
-210
-98
-113
-113
-75
-61
18
131
82
-32
14
76
18
55
200
173
76
206
325
133
-66
4
116
111
88
62
36
91
193
233
206
148
57
-26
-21
49
44
-22
7
45
213
1063
2013
1496
-56
-632
-185
2
-68
34
27
-122
-90
65
132
126
132
164
180
186
242
287
216
113
78
27
-65
-84
-55
-110
-228
-297
-306
-292
-267
-249
-249
-247
-245
-222
-139
-84
-187
-309
-253
-191
-279
-295
-221
-338
-470
-355
-184
328
1466
1814
305
-1243
-1137
-431
-285
-297
-125
-12
-47
-138
-201
-181
-101
-24
46
130
168
94
19
80
173
147
59
19
0
-54
-112
-133
-154
-203
-217
-169
-124
-96
-42
12
4
-28
-15
1
-18
4
34
-44
-107
-17
33
-62
-151
-149
349
1599
2256
1062
-508
-617
-5
80
-86
-33
65
55
13
31
140
245
208
86
89
201
172
12
-20
63
47
-38
-54
-21
-2
-15
-73
-137
-151
-140
-136
-116
-81
-58
-54
-58
-59
-77
-145
-226
-275
-320
-299
-165
-137
-289
-333
-285
-259
332
1458
1508
8
-1120
-886
-428
-355
-275
-173
-155
-107
-100
-146
-88
14
20
9
77
168
210
208
189
159
128
114
122
111
26
-84
-95
-51
-110
-214
-210
-142
-52
40
-5
-46
224
403
46
-176
201
309
-197
-392
-65
58
-85
-153
-50
655
1800
1807
308
-748
-487
-112
-125
-40
38
-75
-77
30
-6
-40
89
182
156
167
209
185
138
84
-6
-49
-5
37
28
-12
-75
-154
-221
-209
-101
-36
-122
-226
-217
-169
-166
-182
-183
-175
-165
-148
-142
-163
-165
-173
-247
-276
-236
-166
358
1232
1080
-339
-1189
-760
-301
-296
-230
-111
-112
-103
-109
-159
-108
0
25
54
152
177
114
137
214
143
-13
-45
3
34
70
46
-50
-49
8
-71
-157
-59
76
103
108
120
92
57
37
7
-21
-43
-65
-58
-53
-101
-144
-143
62
755
1393
888
-355
-822
-413
-129
-136
-102
-76
-83
-11
45
12
3
55
107
159
217
244
239
231
213
182
159
153
148
131
107
81
49
16
-20
-59
-88
-104
-123
-119
-78
-65
-103
-133
-139
-131
-104
-113
-144
-121
-126
-220
-290
-269
130
1052
1394
265
-945
-820
-217
-104
-90
46
44
0
50
74
56
92
159
185
185
216
263
262
212
158
108
66
49
41
24
6
-7
-18
-31
-52
-62
-51
-62
-92
-84
-57
-69
-91
-105
-138
-155
-139
-144
-169
-202
-263
-308
-331
-186
459
1076
504
-768
-1078
-481
-164
-150
-22
30
-41
-17
43
39
51
108
159
179
193
220
211
160
148
114
-72
-250
-208
-65
-16
-29
-2
52
59
27
23
2
-95
-133
-37
-14
-158
-234
-158
-111
-155
-210
-222
-155
-102
-201
-395
-493
-128
760
1134
242
-733
-630
-156
-80
-100
-31
-22
-14
49
82
74
92
153
190
204
259
285
213
159
153
109
95
154
154
100
120
162
142
133
146
105
53
57
68
48
30
34
39
16
-6
1
-20
-78
-73
-39
-99
-241
-382
-210
630
1405
907
-295
-677
-345
-205
-187
-63
-49
-101
-63
-23
3
51
39
1
42
101
93
57
20
-32
-77
-87
-46
17
41
26
27
43
51
54
37
-12
-59
-81
-86
-79
-67
-67
-75
-75
-75
-98
-110
-68
-44
-102
-210
-339
-205
596
1389
856
-522
-980
-437
-75
-65
-4
38
-1
11
62
98
117
127
165
211
198
155
137
98
18
-48
-93
-116
-86
-28
-11
-29
-37
-29
-25
-44
-75
-87
-89
-114
-150
-167
-161
-156
-170
-173
-151
-158
-178
-150
-152
-219
-272
-295
1
792
1065
27
-996
-752
-135
-42
-54
60
60
16
55
100
123
157
202
235
224
182
153
116
56
1
-58
-132
-152
-88
-14
14
25
52
72
53
17
21
29
-17
-55
-24
5
-18
-55
-63
-37
-22
-32
-27
-44
-118
-214
-305
-33
932
1570
681
-644
-736
-149
-14
-83
2
10
-60
-47
2
46
85
88
92
138
170
142
89
36
-30
-96
-135
-135
-80
7
56
47
32
30
20
-3
-20
-33
-56
-68
-61
-68
-91
-91
-73
-73
-108
-135
-96
-61
-130
-272
-462
-422
460
1669
1511
47
-729
-353
-58
-129
-91
-19
-51
-48
-10
1
32
77
95
109
124
104
59
27
0
-56
-117
-122
-77
-37
-14
10
29
32
10
-34
-66
-72
-74
-73
-61
-60
-66
-69
-85
-110
-123
-132
-120
-85
-108
-238
-424
-355
410
1353
1101
-245
-925
-472
-57
-85
-73
11
7
17
60
66
77
109
132
158
183
169
129
82
20
-45
-76
-60
-18
28
64
77
60
35
20
2
-16
-32
-71
-124
-139
-123
-115
-111
-107
-111
-112
-118
-113
-86
-108
-189
-261
-282
84
966
1237
80
-1086
-889
-201
-17
4
105
90
56
105
134
153
198
223
243
274
278
244
195
135
61
-14
-56
-45
-11
16
39
47
32
30
41
22
-5
-3
-8
-33
-48
-60
-77
-78
-67
-65
-89
-112
-75
-48
-108
-169
-234
-192
381
1037
517
-768
-1066
-378
6
-36
-5
42
27
38
33
24
77
139
155
151
153
160
136
64
-17
-86
-151
-184
-150
-82
-39
-21
0
15
-7
-33
-25
-23
-67
-99
-71
-52
-85
-116
-118
-104
-91
-113
-149
-152
-160
-207
-323
-403
118
1236
1482
231
-808
-554
-70
-45
-43
29
5
-2
21
14
64
141
139
137
199
211
141
95
71
0
-81
-98
-66
-35
-24
-4
37
55
27
-19
-48
-49
-48
-73
-81
-49
-45
-89
-118
-112
-103
-112
-118
-89
-82
-174
-348
-465
-115
878
1492
718
-444
-570
-114
16
-1
73
62
27
78
105
96
126
162
184
228
258
233
185
133
60
0
-10
4
16
38
57
41
9
-11
-27
-39
-43
-49
-49
-40
-46
-55
-54
-91
-153
-152
-119
-134
-146
-128
-165
-279
-383
-154
619
1095
270
-963
-1054
-359
-34
-48
-2
28
16
47
81
106
147
184
214
238
242
240
216
143
60
7
-42
-71
-39
14
27
13
-2
-17
-29
-34
-38
-54
-88
-109
-101
-92
-89
-87
-101
-113
-119
-143
-134
-89
-126
-245
-348
-236
405
1087
607
-698
-1090
-427
-3
-30
26
96
37
16
47
58
106
189
209
178
171
188
182
134
46
-50
-101
-100
-86
-69
-35
7
31
24
-5
-32
-40
-46
-69
-74
-48
-44
-81
-107
-103
-99
-119
-135
-113
-116
-187
-263
-334
-149
713
1521
915
-455
-768
-195
10
-91
-14
52
10
18
53
69
104
139
154
187
224
210
146
75
10
-55
-106
-118
-81
-24
7
3
-14
-29
-39
-56
-93
-132
-129
-91
-73
-77
-68
-74
-109
-121
-119
-146
-140
-101
-153
-324
-506
-322
622
1574
1165
-143
-625
-199
53
14
46
67
32
47
90
124
157
172
177
198
218
208
159
91
34
-3
-18
-9
19
52
75
81
82
82
60
20
-13
-36
-43
-16
11
2
-21
-47
-86
-108
-104
-109
-114
-114
-161
-298
-401
-38
861
1201
179
-986
-945
-332
-120
-114
-37
-30
-60
-28
3
25
68
98
117
152
174
154
103
36
-36
-96
-126
-114
-77
-52
-48
-47
-53
-72
-88
-95
-108
-130
-148
-148
-142
-143
-144
-145
-149
-141
-134
-142
-124
-105
-158
-256
-322
-79
705
1214
388
-902
-1020
-306
31
21
86
118
85
114
160
179
211
250
280
302
300
274
241
180
78
-13
-46
-52
-54
-21
36
63
54
36
12
0
19
19
-22
-45
-39
-48
-50
-39
-46
-48
-52
-79
-67
-47
-123
-248
-334
-120
680
1273
529
-705
-813
-194
3
-65
10
49
9
14
39
84
153
177
169
187
204
171
104
25
-60
-131
-151
-124
-95
-77
-50
-24
-20
-30
-39
-44
-60
-95
-123
-115
-88
-74
-72
-78
-84
-85
-99
-107
-73
-74
-169
-310
-410
-83
910
1546
764
-432
-579
-127
-10
-62
-9
8
-4
20
30
51
104
131
140
165
175
148
103
56
6
-39
-50
-21
2
5
24
40
21
4
6
-13
-55
-75
-64
-47
-49
-72
-88
-94
-112
-129
-130
-133
-126
-118
-165
-294
-434
-227
623
1309
698
-519
-774
-241
-8
-76
-37
17
17
40
46
35
70
118
142
165
185
177
131
60
-10
-55
-68
-56
-20
19
26
7
4
10
-14
-52
-64
-78
-112
-118
-87
-76
-89
-98
-109
-113
-109
-114
-101
-78
-109
-189
-261
-98
584
1162
483
-904
-1250
-528
-46
-26
24
95
73
61
94
141
178
203
249
298
289
238
193
144
75
8
-25
-22
-9
3
26
34
11
2
23
24
-1
-21
-45
-63
-57
-55
-54
-57
-109
-147
-96
-69
-106
-86
-71
-151
-237
-237
148
961
1095
-68
-1041
-719
-120
-35
-11
104
91
54
78
99
130
168
186
211
229
206
168
115
23
-64
-107
-127
-131
-104
-68
-44
-28
-16
-14
-28
-49
-55
-60
-76
-73
-47
-41
-60
-84
-107
-109
-121
-158
-146
-102
-153
-288
-410
-242
567
1349
840
-445
-803
-267
-2
-58
0
41
-7
22
91
104
101
132
194
249
256
226
189
143
81
15
-31
-17
39
65
48
41
44
30
17
12
-11
-38
-47
-41
-29
-27
-46
-70
-93
-109
-107
-108
-117
-103
-102
-177
-318
-417
-76
862
1372
534
-588
-639
-151
-28
-61
8
15
-14
15
41
58
91
114
134
158
160
130
77
6
-63
-117
-148
-144
-120
-100
-88
-83
-88
-89
-97
-117
-124
-128
-158
-163
-115
-95
-125
-142
-134
-127
-128
-138
-122
-87
-116
-208
-310
-214
460
1231
819
-518
-1014
-428
-5
-6
45
97
63
94
145
140
158
209
248
284
311
293
236
166
88
10
-34
-39
-39
-30
6
34
30
24
32
31
12
-4
-15
-28
-33
-36
-57
-67
-49
-43
-52
-65
-87
-81
-61
-111
-212
-282
-102
578
1111
437
-793
-977
-303
32
9
75
122
92
115
150
158
187
219
237
267
290
267
199
105
4
-80
-127
-139
-135
-115
-73
-36
-30
-28
-16
-25
-45
-49
-69
-103
-88
-53
-67
-91
-90
-91
-92
-94
-104
-84
-65
-118
-236
-354
-160
584
1050
278
-833
-861
-242
-9
-45
-3
19
22
61
68
68
115
147
148
178
213
187
122
66
7
-55
-75
-48
-23
-11
2
5
-3
-5
-8
-33
-73
-107
-134
-130
-87
-57
-62
-63
-70
-98
-104
-109
-138
-129
-106
-171
-333
-476
-184
765
1370
604
-540
-635
-156
-45
-105
-32
16
15
28
30
70
152
179
174
209
223
186
154
102
-5
-81
-70
-37
-15
11
10
-7
5
15
-11
-28
-33
-64
-89
-73
-53
-53
-65
-79
-90
-95
-106
-118
-115
-94
-88
-128
-213
-329
-240
422
1189
897
-271
-792
-361
-2
8
48
99
69
87
148
173
188
219
255
300
329
317
278
231
174
120
85
70
82
112
118
92
75
79
79
57
26
8
5
4
16
32
10
-41
-69
-74
-79
-81
-86
-93
-81
-88
-151
-284
-315
239
1204
1244
-6
-914
-594
-91
-58
-81
-21
-23
-18
17
28
51
94
125
148
155
132
85
13
-69
-128
-150
-145
-128
-119
-125
-129
-131
-145
-159
-162
-177
-196
-202
-223
-249
-230
-205
-221
-232
-231
-232
-213
-211
-253
-261
-252
-300
-395
-473
-144
859
1446
497
-796
-824
-236
-131
-207
-115
-76
-77
-26
-24
-26
54
105
87
87
92
46
-14
-70
-145
-206
-209
-185
-166
-140
-111
-107
-119
-118
-102
-107
-129
-127
-115
-151
-191
-167
-134
-140
-135
-110
-104
-105
-114
-115
-71
-54
-133
-236
-280
30
865
1258
325
-776
-665
-32
129
97
178
196
183
245
302
325
354
396
456
504
498
450
381
302
238
193
157
163
211
239
238
253
266
250
238
244
234
205
183
180
188
201
204
190
165
156
179
207
182
149
183
192
80
-75
-120
247
1032
1228
193
-800
-578
57
195
159
238
244
186
187
210
209
202
222
263
289
283
253
190
98
0
-75
-99
-97
-135
-208
-258
-281
-305
-327
-354
-405
-467
-512
-546
-589
-637
-676
-714
-765
-820
-868
-920
-976
-1024
-1088
-1174
-1219
-1288
-1513
-1645
-1300
-678
-178
