# session 13
19
3
62
-80
-344
-300
-34
68
42
74
112
111
127
165
203
247
294
329
347
329
264
171
83
22
-9
-26
-35
-25
-7
-3
-3
7
13
-5
-35
-46
-40
-64
-104
-110
-105
-123
-135
-136
-142
-138
-139
-158
-159
-185
-282
-393
-345
222
1113
1080
-215
-1115
-717
-146
-94
-79
40
44
8
21
39
68
113
154
195
225
207
157
117
65
-37
-121
-95
-38
-69
-124
-93
-34
-40
-75
-83
-91
-117
-122
-97
-92
-101
-99
-111
-134
-132
-130
-140
-134
-128
-121
-79
-95
-224
-364
-354
189
1294
1712
577
-676
-631
-101
-42
-93
7
29
9
50
84
114
169
205
231
288
333
310
243
183
131
84
54
35
14
0
-5
-11
-19
-16
0
10
-14
-50
-61
-69
-79
-64
-43
-50
-63
-74
-90
-100
-111
-99
-61
-93
-183
-264
-292
178
1269
1577
222
-1070
-841
-175
-82
-91
32
35
13
69
101
129
183
216
253
313
328
286
227
159
82
13
-43
-75
-86
-106
-126
-122
-119
-142
-158
-143
-139
-164
-181
-179
-189
-208
-206
-187
-178
-191
-200
-178
-166
-190
-180
-153
-210
-311
-380
-212
503
1130
469
-869
-1123
-421
-53
-58
39
91
36
55
104
121
168
238
298
351
375
358
320
258
161
64
-1
-45
-75
-81
-69
-65
-79
-96
-93
-64
-30
-14
-11
-21
-57
-92
-95
-77
-74
-99
-127
-120
-111
-131
-112
-86
-172
-308
-382
-212
505
1192
617
-716
-1022
-340
-2
-87
-28
80
62
50
99
161
203
230
291
370
393
376
352
283
181
106
50
6
-1
-2
-27
-26
15
29
8
-3
-15
-37
-45
-53
-72
-59
-23
-24
-53
-76
-89
-79
-80
-133
-145
-77
-93
-246
-426
-395
341
1524
1580
127
-908
-575
-99
-100
-92
-35
-47
34
116
72
60
123
171
238
327
352
312
254
188
131
91
49
21
-2
-54
-100
-97
-70
-48
-50
-81
-99
-87
-94
-120
-110
-69
-55
-89
-145
-185
-187
-172
-174
-163
-126
-171
-311
-419
-400
20
864
1074
-17
-1061
-856
-250
-136
-159
-59
-23
-15
30
35
29
74
135
186
237
270
269
229
166
117
87
51
9
-24
-59
-93
-108
-102
-100
-107
-111
-121
-144
-150
-125
-93
-66
-57
-92
-141
-163
-170
-161
-136
-140
-145
-114
-142
-275
-382
-212
453
1093
663
-543
-1012
-507
-70
0
55
96
77
124
198
192
185
259
336
398
490
489
356
324
376
255
73
57
87
40
1
-12
-20
-3
2
-22
-11
20
0
-36
-17
31
50
29
-13
-52
-74
-77
-66
-72
-94
-84
-78
-158
-303
-358
28
898
1234
233
-971
-994
-380
-131
-119
-48
-22
-19
31
47
24
36
90
152
211
265
296
286
243
185
138
128
119
60
-8
-39
-69
-115
-134
-130
-128
-119
-102
-104
-122
-135
-128
-112
-112
-121
-122
-140
-176
-194
-198
-181
-128
-128
-213
-274
-250
99
892
1134
-6
-1223
-1084
-374
-145
-92
47
66
50
111
142
163
228
285
340
423
476
473
450
407
333
250
176
117
76
30
-37
-106
-141
-133
-103
-78
-65
-54
-39
-41
-75
-91
-61
-50
-98
-144
-150
-143
-137
-149
-171
-136
-111
-203
-296
-314
-166
503
1228
684
-772
-1254
-618
-192
-154
-40
32
-5
28
86
99
128
183
250
321
365
386
396
363
291
212
134
72
34
-3
-50
-88
-105
-108
-102
-90
-81
-77
-70
-68
-85
-88
-52
-32
-60
-83
-89
-121
-149
-144
-156
-166
-131
-150
-243
-303
-269
136
929
1050
-79
-1073
-858
-305
-162
-106
-18
-34
-21
49
62
68
112
158
221
300
348
371
377
343
287
245
212
166
102
29
-32
-70
-101
-122
-119
-104
-98
-96
-85
-81
-84
-69
-38
-29
-60
-96
-109
-123
-138
-129
-127
-146
-137
-138
-203
-262
-225
140
904
1187
223
-921
-925
-337
-108
-78
14
34
24
75
107
121
176
245
301
358
416
465
486
460
409
367
321
249
167
92
23
-39
-89
-127
-146
-148
-152
-153
-136
-128
-145
-160
-164
-158
-138
-130
-155
-185
-198
-199
-206
-223
-196
-145
-201
-301
-315
-289
139
1181
1535
227
-1131
-1016
-378
-215
-158
-30
-45
-69
-12
19
49
121
186
245
317
386
434
442
409
358
290
202
125
60
-18
-104
-180
-235
-246
-220
-213
-233
-219
-171
-152
-165
-180
-189
-186
-175
-185
-196
-179
-173
-198
-213
-227
-230
-185
-191
-267
-291
-314
-53
976
1736
738
-874
-1075
-400
-180
-190
-46
4
-25
18
53
75
122
149
187
285
392
461
483
455
402
303
153
67
55
-25
-141
-188
-221
-226
-137
-108
-179
-122
16
-8
-63
22
35
-85
-88
-19
-88
-126
39
205
233
202
119
71
144
56
-235
-304
-155
205
1162
1863
991
-408
-602
-130
-55
-119
-62
-88
-88
57
163
152
89
47
167
401
437
260
167
182
120
-48
-196
-214
-270
-550
-650
-180
232
-71
-494
-331
-86
-331
-616
-508
-349
-409
-445
-318
-227
-281
-336
-302
-303
-367
-330
-214
-214
-274
-304
-382
-412
-310
-90
693
1897
1891
270
-849
-443
104
64
83
269
225
80
170
368
318
64
64
410
606
473
383
413
343
270
320
339
294
242
42
-239
-242
-60
-88
-212
-209
-185
-81
76
-81
-331
-167
21
-105
-30
203
-22
-406
-468
-448
-315
-50
-246
-649
-396
117
191
72
144
614
1084
467
-949
-1482
-939
-478
-354
-220
-126
-124
-94
-15
67
98
77
89
157
226
273
316
395
506
510
418
429
435
251
183
283
38
-299
-50
204
-116
-189
188
116
-156
114
390
194
12
-4
-150
-321
-305
-224
-179
-145
-196
-327
-383
-393
-404
-293
-48
450
1184
1185
-36
-1022
-752
-242
-273
-382
-251
-49
-80
-420
-509
-20
379
255
67
134
312
353
130
94
621
895
267
-349
-256
-118
-304
-336
-183
-209
-323
-308
-249
-214
-182
-178
-162
-105
-92
-119
-101
-40
-3
-55
-142
-59
153
242
346
610
565
107
-71
74
195
1031
2491
2366
335
-862
-389
-11
-96
71
170
-12
5
165
91
-39
38
163
222
294
294
182
172
292
303
162
19
-121
-312
-410
-330
-305
-462
-580
-571
-639
-790
-685
-275
-132
-471
-635
-394
-359
-542
-400
-220
-467
-665
-517
-488
-586
-547
-466
168
1523
1767
57
-1329
-1043
-512
-481
-336
-114
-70
9
147
298
521
636
612
718
860
755
611
690
746
539
353
492
627
362
88
173
69
-385
-336
214
261
-142
-195
16
82
84
70
-39
-148
-189
-196
-161
-134
-198
-253
-202
-206
-309
-235
-45
-130
-354
-354
-306
-375
-349
28
923
1726
1180
-411
-1280
-1034
-637
-402
-221
-237
-347
-304
-256
-390
-452
-239
-35
10
136
311
346
435
595
485
241
223
238
113
17
-86
-194
-123
-50
-83
74
268
133
-14
172
453
516
241
-130
-101
202
211
54
159
271
58
-164
-60
127
72
-51
14
181
605
1437
1667
441
-944
-1008
-389
-124
-95
-69
-127
-94
105
122
-92
-153
-74
-77
34
260
230
60
55
-4
-242
-287
-54
-26
-329
-441
-264
-310
-580
-644
-566
-566
-512
-384
-356
-350
-238
-141
-88
-49
-186
-407
-420
-384
-421
-225
90
101
-78
-186
-175
15
211
566
1762
2881
1962
-101
-847
-509
-386
-250
-9
-46
15
312
331
133
90
131
196
391
583
627
562
373
112
17
107
122
-33
-206
-271
-267
-301
-336
-236
-106
-171
-318
-315
-292
-390
-341
-57
11
-221
-278
-195
-307
-305
-46
-137
-632
-813
-614
-567
-671
-636
-380
350
1420
1562
201
-1074
-948
-303
-193
-270
-113
0
11
189
399
378
287
341
491
661
808
828
700
601
659
710
634
610
619
372
61
147
340
97
-255
-197
24
65
86
167
97
-81
-81
40
-26
-229
-287
-210
-178
-228
-282
-230
-184
-390
-571
-348
-9
488
1392
1420
-221
-1546
-1272
-721
-558
-444
-658
-873
-490
-222
-382
-213
117
17
-137
-97
-151
-139
133
306
261
285
300
124
32
80
-109
-413
-459
-431
-450
-258
0
24
-15
4
6
142
377
376
224
201
196
174
253
197
-9
109
383
152
-220
-45
230
467
1479
2365
1265
-630
-907
-173
-9
-143
-151
-281
-351
-200
-129
-170
-108
20
113
209
302
314
311
421
464
235
51
128
38
-319
-466
-486
-719
-832
-658
-484
-266
-138
-398
-501
-198
-324
-857
-884
-554
-480
-489
-379
-317
-321
-302
-219
-71
-7
-48
-37
36
429
1470
2176
1290
-197
-560
-141
56
169
355
336
175
69
42
136
294
400
518
676
715
621
583
646
681
621
515
457
433
294
115
100
49
-195
-315
-317
-496
-559
-261
-73
-172
-182
-82
-110
-209
-273
-322
-295
-166
-194
-538
-729
-412
-197
-478
-715
-565
202
1568
1873
240
-1100
-949
-888
-1138
-776
-498
-760
-739
-401
-318
-345
-194
-15
29
67
251
387
299
240
332
318
230
302
389
286
150
119
115
105
59
-88
-197
-89
51
2
-58
35
115
117
124
75
16
128
255
138
-14
72
159
23
-91
38
530
1459
2012
1159
-282
-742
-415
-234
-199
-121
-111
-149
-136
-24
72
-23
-96
46
164
180
195
153
123
99
-58
-209
-303
-377
-155
133
-3
-10
402
205
-691
-1050
-747
-570
-538
-454
-439
-370
-192
-165
-257
-261
-237
-237
-216
-228
-214
-136
-203
-325
-203
172
1061
2336
2340
497
-880
-499
19
-179
-167
201
332
265
116
-150
-142
276
525
381
268
352
461
527
517
415
321
230
81
5
36
-58
-314
-477
-466
-419
-393
-353
-293
-241
-226
-265
-296
-214
-136
-289
-444
-228
-3
-302
-727
-669
-384
-332
-426
-485
-214
966
2418
2208
400
-705
-614
-664
-847
-611
-438
-502
-416
-272
-240
-205
-151
-64
93
208
271
362
394
347
362
410
399
410
400
245
142
248
300
148
13
23
35
-52
-88
76
232
170
100
200
246
79
-83
-51
19
-20
-98
-168
-219
-204
96
1049
2001
1400
-384
-1184
-720
-403
-432
-301
-176
-203
-201
-74
71
3
-142
20
287
359
480
560
263
-35
-54
-154
-333
-375
-469
-527
-306
-236
-530
-545
-259
-399
-698
-468
-205
-430
-603
-437
-330
-326
-204
-152
-341
-480
-340
-102
-22
-186
-395
-362
-188
180
1155
1926
1073
-516
-865
-243
9
-63
71
221
155
91
183
250
246
365
554
600
584
641
660
590
546
560
572
535
428
299
239
275
321
254
102
32
51
24
-10
58
119
36
-97
-160
-192
-230
-234
-238
-270
-245
-254
-446
-482
-161
45
282
1125
1533
338
-1120
-1329
-960
-772
-547
-389
-419
-272
-22
-82
-293
-284
-94
48
39
-9
96
265
262
158
120
90
-4
-113
-187
-216
-241
-326
-456
-545
-546
-513
-487
-394
-202
-47
-45
-98
-77
-49
-102
-136
-112
-100
-28
39
-115
-287
-228
80
1044
2267
1920
51
-851
-297
34
-67
86
201
106
178
318
244
169
299
434
420
401
462
499
477
451
406
321
250
192
116
58
-14
-170
-309
-318
-261
-187
-114
-154
-268
-255
-155
-157
-216
-246
-298
-291
-202
-259
-411
-397
-413
-635
-712
-262
850
2001
1713
-38
-1175
-928
-603
-663
-583
-448
-431
-390
-384
-323
4
283
234
178
275
305
274
315
435
625
698
415
33
44
332
211
-334
-173
937
1356
403
-453
-496
-514
-653
-387
93
108
-248
-213
123
-6
-363
-334
-203
-262
-339
-339
144
1188
1413
40
-1313
-1275
-673
-401
-257
-145
-125
30
161
-52
-206
41
239
162
140
203
214
262
283
179
124
113
0
-48
54
39
-55
44
131
14
49
231
87
-202
-155
49
99
72
50
-26
-169
-256
-164
10
70
-42
-205
-234
-196
-4
960
2172
1768
-52
-940
-497
-215
-326
-229
-85
-154
-220
-142
-65
-65
-2
166
230
152
174
317
316
166
142
270
323
225
84
-38
-131
-170
-165
-186
-264
-292
-212
-177
-209
-107
36
-70
-292
-386
-442
-490
-438
-414
-496
-535
-477
-442
-334
265
1097
863
-586
-1434
-893
-226
-109
-93
-90
-147
-29
153
145
89
131
202
332
492
477
338
329
379
338
348
459
487
369
100
-227
-191
279
423
-75
-355
63
463
378
220
241
238
172
153
106
-21
-48
95
146
-25
-178
-209
-16
831
1783
1285
-366
-1105
-633
-276
-274
-180
-124
-181
-153
-84
-99
-150
-144
-57
42
80
89
121
145
121
109
161
150
30
-6
-13
-248
-509
-460
-292
-254
-268
-328
-405
-274
-91
-241
-401
-181
-37
-208
-301
-356
-456
-351
-319
-510
-427
-54
543
1433
1443
-72
-1194
-756
-227
-383
-373
-67
39
37
87
57
-36
-44
40
143
221
282
327
318
259
211
202
186
122
58
69
112
98
59
58
65
58
87
161
212
174
123
180
255
227
200
194
91
-11
-25
-91
-199
-150
289
1125
1479
533
-728
-936
-434
-51
142
111
-126
-227
-160
-151
-152
-88
-43
-31
-2
38
68
90
112
131
130
80
-52
-175
-117
-25
-208
-465
-425
-309
-370
-365
-243
-241
-228
-49
79
54
-23
-119
-170
-177
-229
-254
-276
-416
-514
-379
185
1206
1585
374
-1052
-1086
-436
-153
-52
-15
-158
-166
69
209
158
115
122
90
93
241
402
432
439
493
457
321
255
255
166
55
87
140
76
34
82
108
113
126
135
202
279
217
163
286
318
128
8
-77
-322
-468
-351
41
813
1185
299
-804
-882
-522
-351
-146
-90
-297
-295
-89
-69
-162
-196
-209
-147
-15
17
-27
33
130
52
-150
-241
-185
-104
