# session 32
-7
-31
42
42
-185
-427
-444
-358
-335
-316
-259
-218
-188
-146
-105
-68
-26
12
41
65
87
101
98
77
40
-13
-75
-132
-173
-205
-232
-248
-246
-231
-216
-208
-200
-181
-160
-145
-134
-123
-116
-111
-98
-88
-84
-79
-72
-70
-70
-69
-66
-63
-63
-62
-57
-53
-51
-44
-37
-34
-31
-27
-27
-32
-43
-47
-23
13
36
61
80
56
12
1
3
-6
-9
-10
-12
-1
-9
-21
10
-10
-93
-57
147
609
1374
1566
427
-843
-849
-241
-40
-45
25
26
-1
32
46
40
54
64
67
80
94
103
114
129
145
164
182
199
219
241
260
276
289
297
302
304
298
280
249
202
142
78
18
-37
-83
-116
-135
-141
-141
-138
-131
-124
-120
-115
-110
-107
-103
-98
-97
-99
-98
-97
-101
-108
-114
-119
-120
-122
-127
-130
-131
-134
-137
-137
-135
-134
-135
-135
-133
-131
-132
-134
-138
-149
-157
-139
-105
-68
-33
-32
-75
-109
-109
-111
-113
-109
-118
-117
-105
-124
-116
-81
-147
-198
-56
261
956
1780
1418
-244
-1230
-771
-217
-169
-115
-25
-57
-55
-10
-15
-12
20
32
34
49
68
87
104
123
145
165
186
211
234
252
273
297
313
320
325
326
320
304
266
204
134
68
3
-57
-102
-133
-152
-156
-154
-150
-139
-124
-113
-104
-95
-89
-87
-82
-78
-78
-83
-90
-95
-101
-111
-125
-136
-141
-140
-142
-152
-158
-156
-153
-156
-155
-152
-152
-156
-165
-179
-190
-188
-175
-149
-105
-59
-57
-93
-114
-109
-107
-104
-107
-114
-98
-97
-116
-81
-71
-159
-164
-53
248
1172
2086
1393
-390
-1036
-434
-74
-122
-59
-11
-57
-32
4
-5
11
38
43
54
76
93
107
124
145
169
194
224
258
289
318
349
377
397
411
415
403
376
328
253
166
82
8
-60
-115
-153
-176
-192
-198
-193
-182
-172
-165
-158
-149
-139
-130
-121
-116
-114
-109
-104
-107
-111
-111
-115
-120
-123
-124
-128
-129
-128
-128
-130
-132
-134
-131
-129
-135
-139
-132
-120
-118
-122
-119
-111
-108
-118
-136
-146
-138
-124
-104
-62
-23
-36
-81
-99
-96
-98
-98
-102
-106
-87
-91
-110
-68
-73
-173
-143
4
327
1262
2059
1188
-545
-979
-325
-49
-121
-50
-17
-60
-27
2
-10
9
32
35
46
59
69
88
110
130
153
179
203
230
261
292
320
343
364
382
390
383
358
318
261
181
93
19
-40
-93
-131
-151
-161
-166
-162
-154
-150
-146
-138
-129
-123
-117
-109
-101
-99
-102
-101
-96
-97
-103
-109
-113
-118
-121
-123
-125
-129
-132
-132
-131
-130
-130
-130
-129
-127
-124
-125
-127
-125
-121
-121
-120
-117
-114
-116
-116
-112
-108
-108
-107
-105
-112
-125
-131
-131
-120
-92
-47
-7
-2
-36
-65
-71
-72
-67
-62
-74
-69
-51
-69
-64
-22
-82
-153
-64
128
719
1773
1919
441
-843
-638
-89
-65
-91
-10
-31
-42
2
3
4
30
35
36
55
70
77
92
111
128
147
170
195
221
247
272
296
320
339
352
360
360
344
306
247
174
98
26
-39
-89
-121
-139
-150
-155
-153
-147
-146
-145
-138
-130
-124
-114
-103
-100
-96
-87
-95
-111
-104
-82
-78
-86
-88
-87
-95
-103
-106
-106
-103
-101
-102
-104
-103
-100
-101
-101
-101
-103
-101
-97
-95
-98
-98
-93
-89
-89
-89
-88
-85
-83
-82
-78
-75
-76
-79
-77
-74
-72
-70
-70
-74
-75
-73
-71
-72
-72
-78
-83
-68
-41
-14
14
27
-4
-42
-45
-41
-47
-44
-49
-55
-38
-46
-64
-22
-31
-127
-86
104
510
1399
1916
855
-709
-922
-279
-63
-102
-11
6
-34
3
22
9
32
54
52
58
72
83
98
112
128
149
168
183
206
233
251
265
285
308
324
337
344
339
322
291
238
166
88
13
-49
-95
-133
-164
-178
-178
-179
-181
-178
-171
-166
-158
-146
-133
-125
-121
-120
-118
-113
-108
-109
-114
-122
-130
-136
-137
-141
-148
-151
-149
-151
-154
-153
-152
-155
-158
-154
-151
-151
-147
-138
-136
-139
-137
-130
-125
-126
-128
-135
-148
-153
-143
-116
-70
-27
-31
-71
-91
-87
-91
-91
-87
-92
-78
-69
-92
-67
-38
-125
-161
-54
169
942
1999
1691
-78
-1060
-560
-78
-107
-68
10
-33
-22
25
16
20
47
52
61
82
93
101
121
146
168
189
213
243
275
310
351
384
405
425
442
441
420
384
326
242
146
54
-24
-87
-134
-164
-183
-193
-191
-185
-184
-179
-165
-154
-146
-138
-126
-117
-113
-114
-114
-109
-109
-115
-119
-122
-126
-130
-134
-137
-136
-133
-135
-140
-142
-139
-134
-132
-134
-134
-130
-125
-121
-115
-109
-109
-112
-112
-112
-114
-111
-108
-117
-135
-150
-151
-136
-98
-46
-16
-29
-59
-73
-74
-71
-63
-71
-81
-66
-70
-83
-45
-63
-154
-106
48
398
1343
2055
1111
-542
-869
-231
-17
-106
-40
-16
-61
-32
-4
-11
4
19
23
37
49
56
75
95
110
132
158
184
210
240
272
301
326
348
367
380
381
362
319
257
187
115
41
-28
-85
-127
-154
-166
-166
-164
-164
-158
-147
-142
-145
-142
-131
-125
-126
-121
-113
-114
-117
-113
-110
-114
-118
-118
-121
-126
-131
-132
-133
-135
-136
-134
-131
-130
-128
-121
-116
-116
-117
-114
-110
-108
-107
-105
-103
-99
-98
-103
-104
-96
-94
-106
-123
-133
-126
-101
-62
-18
0
-27
-67
-80
-80
-82
-80
-85
-80
-67
-88
-86
-37
-84
-164
-72
133
654
1629
1862
505
-833
-707
-113
-46
-93
-16
-25
-44
-1
8
2
20
31
37
52
64
77
95
113
132
152
171
192
217
240
264
289
312
330
343
352
353
342
310
256
187
115
43
-23
-74
-107
-131
-144
-145
-142
-141
-141
-136
-131
-126
-120
-114
-110
-108
-106
-105
-106
-105
-104
-108
-112
-112
-114
-120
-120
-119
-124
-128
-124
-119
-117
-117
-115
-111
-108
-105
-101
-101
-103
-102
-97
-96
-98
-96
-91
-91
-97
-105
-115
-120
-104
-73
-35
1
0
-41
-71
-77
-78
-74
-75
-88
-74
-63
-91
-71
-39
-129
-164
15
386
1152
1871
1217
-491
-1196
-597
-139
-138
-70
-7
-54
-42
-4
-11
3
31
35
41
56
64
77
97
116
133
153
177
200
223
246
270
289
301
316
330
333
327
313
281
226
158
88
16
-48
-94
-125
-149
-161
-160
-154
-151
-145
-133
-123
-121
-120
-117
-116
-117
-119
-122
-126
-130
-135
-142
-147
-151
-156
-160
-161
-161
-159
-157
-154
-148
-143
-139
-134
-131
-132
-128
-119
-117
-118
-114
-110
-122
-142
-148
-131
-97
-48
-8
-13
-53
-76
-75
-72
-68
-75
-81
-63
-65
-81
-41
-49
-143
-108
53
393
1305
2036
1122
-601
-1014
-347
-46
-94
-20
8
-36
-4
25
17
35
55
57
68
81
89
109
130
143
159
185
211
237
265
291
316
336
350
362
376
378
357
318
264
194
115
38
-31
-88
-122
-143
-164
-172
-165
-163
-163
-154
-142
-137
-132
-129
-125
-119
-119
-124
-123
-121
-127
-134
-134
-133
-136
-141
-148
-153
-150
-145
-146
-147
-142
-141
-141
-136
-133
-133
-124
-118
-121
-120
-115
-118
-126
-135
-145
-143
-122
-91
-50
-21
-38
-80
-101
-103
-101
-98
-107
-107
-89
-102
-109
-64
-100
-185
-104
84
515
1440
1816
583
-867
-860
-205
-62
-108
-28
-31
-58
-13
3
-5
15
29
34
54
69
73
86
111
133
150
169
193
217
242
269
294
313
327
341
349
348
334
302
247
178
106
36
-30
-81
-115
-136
-147
-151
-150
-145
-138
-134
-130
-125
-122
-120
-118
-116
-116
-116
-116
-115
-114
-113
-115
-120
-124
-125
-125
-124
-119
-115
-115
-112
-107
-107
-109
-105
-99
-98
-98
-95
-91
-88
-86
-88
-94
-104
-109
-94
-63
-28
7
15
-20
-56
-61
-60
-61
-60
-67
-64
-49
-67
-62
-20
-76
-153
-52
210
806
1657
1564
97
-1014
-715
-142
-74
-71
0
-23
-29
12
8
1
21
29
34
48
57
68
85
99
111
130
150
167
188
210
233
257
277
284
284
288
287
275
246
196
130
64
0
-60
-105
-132
-150
-160
-158
-149
-143
-135
-125
-120
-120
-118
-116
-118
-117
-112
-114
-121
-124
-122
-122
-126
-131
-138
-146
-149
-144
-141
-141
-139
-135
-132
-133
-132
-130
-129
-126
-125
-136
-156
-158
-135
-98
-56
-25
-40
-84
-103
-98
-95
-90
-95
-107
-93
-89
-107
-71
-63
-157
-149
14
354
1193
1901
1084
-600
-1084
-433
-82
-115
-43
-3
-46
-17
16
4
19
44
48
58
76
88
104
122
137
155
176
200
224
249
274
300
324
341
352
357
356
340
307
258
193
114
38
-20
-67
-109
-134
-140
-140
-140
-133
-123
-118
-113
-106
-100
-97
-100
-103
-103
-102
-105
-106
-105
-112
-123
-128
-128
-129
-132
-132
-128
-126
-126
-126
-124
-120
-118
-118
-118
-116
-115
-112
-110
-111
-109
-101
-100
-109
-123
-141
-145
-123
-85
-42
-9
-18
-60
-83
-82
-80
-78
-83
-88
-71
-76
-101
-66
-59
-150
-136
23
339
1128
1794
1029
-529
-959
-351
-42
-89
-36
-7
-45
-16
12
2
16
32
31
47
65
65
72
92
111
130
152
169
190
221
240
248
267
294
305
305
308
306
283
243
187
116
48
-7
-56
-98
-123
-135
-141
-142
-137
-134
-128
-123
-123
-118
-105
-97
-96
-92
-87
-89
-92
-91
-94
-98
-100
-101
-105
-110
-112
-114
-110
-104
-103
-107
-109
-107
-104
-104
-104
-100
-98
-99
-97
-92
-91
-93
-98
-111
-113
-84
-49
-23
0
-3
-40
-67
-68
-70
-72
-73
-81
-74
-68
-87
-71
-46
-118
-158
-28
273
921
1560
1073
-354
-1010
-526
-93
-76
-43
7
-20
-12
15
10
18
36
39
45
58
70
82
94
105
120
137
154
173
193
211
228
245
256
263
268
268
259
242
214
172
120
61
5
-40
-77
-105
-119
-122
-124
-124
-118
-114
-112
-107
-97
-91
-89
-88
-88
-89
-88
-87
-92
-97
-97
-97
-100
-103
-104
-103
-103
-103
-100
-96
-93
-96
-98
-96
-91
-90
-90
-89
-88
-88
-90
-88
-82
-79
-85
-98
-111
-104
-74
-41
-8
15
-8
-58
-76
-70
-71
-69
-69
-74
-58
-56
-78
-48
-40
-128
-128
47
439
1234
1736
803
-750
-1089
-442
-113
-110
-23
6
-34
-1
27
17
35
56
56
65
80
90
104
120
133
150
170
188
210
233
249
264
280
291
299
305
305
299
287
251
190
122
59
1
-53
-100
-134
-150
-153
-154
-150
-141
-134
-127
-116
-109
-112
-111
-105
-103
-107
-109
-110
-115
-124
-130
-132
-133
-141
-148
-147
-144
-142
-141
-141
-141
-134
-126
-128
-131
-125
-121
-124
-119
-111
-110
-114
-117
-125
-136
-133
-113
-83
-40
-8
-29
-78
-95
-92
-96
-90
-88
-96
-81
-82
-102
-62
-58
-159
-143
20
352
1213
1929
1062
-647
-1091
-421
-89
-116
-28
6
-41
-3
33
19
33
55
57
70
89
98
113
134
150
169
192
216
240
266
289
312
336
353
360
365
365
350
317
268
199
118
46
-13
-67
-107
-130
-147
-161
-158
-145
-140
-139
-132
-120
-112
-106
-98
-92
-91
-93
-93
-93
-97
-103
-108
-114
-120
-123
-127
-130
-132
-131
-130
-129
-128
-126
-125
-126
-125
-121
-117
-115
-115
-114
-110
-107
-108
-107
-103
-103
-103
-98
-101
-118
-136
-136
-113
-78
-36
-3
-7
-45
-71
-75
-76
-73
-75
-88
-76
-65
-88
-68
-43
-126
-146
-25
181
871
1811
1492
-127
-976
-475
-31
-78
-62
1
-38
-31
9
0
3
31
43
48
57
68
85
101
114
130
149
167
192
225
255
273
292
313
328
338
348
343
316
273
215
144
73
11
-46
-94
-127
-144
-147
-145
-147
-148
-140
-132
-130
-124
-116
-109
-100
-95
-97
-97
-94
-97
-99
-96
-100
-106
-105
-103
-107
-109
-109
-113
-113
-107
-108
-111
-105
-99
-98
-96
-95
-96
-95
-90
-90
-95
-97
-94
-92
-89
-87
-88
-91
-91
-91
-90
-87
-86
-87
-93
-107
-118
-107
-78
-44
-4
14
-19
-60
-64
-60
-66
-64
-67
-70
-57
-66
-70
-25
-52
-141
-88
78
483
1369
1789
681
-725
-788
-177
-30
-85
-18
-13
-38
0
11
4
28
40
38
53
69
77
91
107
121
139
159
178
199
220
241
266
289
304
316
328
331
320
294
252
193
122
50
-11
-57
-92
-117
-131
-134
-132
-130
-126
-123
-123
-118
-109
-103
-99
-91
-84
-80
-76
-73
-73
-76
-79
-80
-82
-85
-86
-86
-87
-87
-80
-75
-77
-81
-82
-82
-80
-75
-75
-77
-75
-72
-75
-76
-75
-76
-77
-77
-78
-78
-76
-79
-86
-89
-88
-91
-95
-92
-93
-104
-114
-125
-128
-107
-74
-44
-13
-14
-58
-85
-80
-83
-87
-84
-98
-98
-81
-104
-101
-53
-112
-180
-59
194
778
1633
1491
-48
-1133
-761
-183
-125
-94
-7
-42
-42
13
9
2
30
45
48
58
71
88
105
119
136
157
174
193
218
238
253
271
291
304
310
314
314
301
274
230
168
99
36
-20
-67
-102
-125
-138
-140
-137
-134
-126
-116
-110
-101
-90
-89
-90
-80
-71
-72
-73
-69
-68
-71
-77
-83
-85
-82
-82
-83
-78
-74
-76
-77
-70
-63
-63
-62
-56
-51
-50
-49
-47
-49
-49
-46
-43
-39
-35
-37
-41
-42
-38
-37
-39
-37
-31
-31
-37
-51
-62
-50
-18
11
39
56
26
-22
-37
-36
-42
-37
-38
-48
-39
-43
-58
-19
-25
-116
-92
80
448
1226
1679
742
-668
-883
-287
-48
-76
-16
-2
-32
-8
15
12
