# session 40
-12
-25
2
45
-21
-161
-189
-152
-174
-152
-121
-221
-229
-36
272
1090
2076
1591
-244
-1124
-574
-150
-191
-118
-44
-102
-84
-31
-37
-25
0
-2
5
29
41
54
78
94
107
138
170
189
211
243
272
296
325
357
387
414
432
432
416
378
306
203
103
19
-58
-127
-173
-198
-215
-224
-222
-214
-211
-210
-200
-183
-178
-185
-188
-179
-161
-147
-149
-155
-157
-154
-131
-111
-144
-196
-201
-177
-163
-162
-169
-174
-172
-166
-148
-128
-126
-121
-113
-134
-153
-121
-86
-97
-111
-109
-129
-158
-155
-122
-85
-56
-48
-61
-65
-61
-80
-101
-85
-74
-99
-91
-58
-78
-70
-34
-115
-175
-77
123
872
2107
2129
414
-856
-558
-70
-97
-87
7
-28
-49
-11
-1
2
14
26
45
56
53
62
89
92
69
92
161
193
205
236
229
218
300
397
410
394
395
400
387
305
183
130
109
21
-75
-126
-181
-224
-217
-216
-233
-226
-229
-252
-219
-151
-139
-168
-182
-167
-141
-165
-218
-184
-103
-119
-168
-134
-95
-116
-137
-140
-146
-129
-106
-120
-132
-112
-108
-122
-112
-96
-101
-93
-75
-85
-102
-85
-60
-65
-84
-87
-80
-80
-90
-105
-106
-69
-12
10
-14
-48
-72
-91
-85
-60
-64
-93
-81
-55
-86
-96
-58
-105
-154
-64
105
700
1793
1952
462
-818
-607
-76
-70
-107
-39
-50
-32
15
-1
-7
22
25
22
45
66
61
64
107
149
152
157
181
193
209
241
262
281
320
347
360
391
416
394
346
290
209
109
21
-51
-118
-162
-174
-177
-188
-199
-206
-203
-187
-183
-196
-194
-174
-167
-167
-153
-157
-181
-183
-169
-171
-175
-168
-178
-194
-169
-123
-125
-168
-186
-167
-161
-168
-157
-146
-159
-158
-130
-122
-145
-167
-164
-140
-116
-98
-67
-45
-72
-120
-132
-110
-97
-103
-117
-110
-77
-79
-117
-93
-79
-172
-167
8
276
1027
1978
1565
-198
-1113
-583
-95
-107
-65
3
-42
-35
15
21
3
-5
39
101
92
69
114
146
119
136
198
181
121
181
319
357
320
346
407
403
379
405
434
413
353
256
136
57
26
-29
-111
-160
-169
-183
-214
-219
-173
-132
-130
-126
-113
-125
-131
-102
-79
-90
-113
-132
-130
-103
-99
-134
-141
-109
-106
-134
-146
-136
-125
-121
-125
-134
-150
-154
-127
-108
-126
-137
-133
-138
-128
-130
-171
-148
-69
-109
-202
-159
-83
-84
-42
10
-65
-155
-126
-83
-98
-96
-66
-71
-90
-91
-120
-148
-127
-135
-178
-151
186
1183
2165
1538
-303
-1039
-379
-22
-245
-208
-4
-23
-83
-48
-6
25
16
-37
-39
-10
-17
9
80
89
56
78
153
224
244
228
252
314
365
408
417
401
426
449
403
348
293
189
88
32
-11
-47
-73
-107
-132
-129
-127
-152
-179
-178
-153
-112
-94
-137
-166
-117
-83
-115
-137
-141
-162
-159
-141
-162
-168
-120
-100
-128
-137
-125
-132
-141
-135
-133
-139
-133
-122
-124
-126
-116
-104
-107
-110
-107
-115
-134
-147
-149
-149
-143
-133
-103
-51
-35
-77
-104
-108
-130
-122
-81
-88
-105
-84
-96
-104
-76
-140
-197
-70
152
760
1865
2047
492
-911
-731
-153
-115
-121
-21
-49
-69
-20
-11
-11
3
0
17
54
63
64
82
98
113
140
165
178
198
235
273
300
320
338
361
395
419
413
389
361
311
220
109
10
-61
-108
-143
-182
-216
-225
-216
-211
-208
-196
-182
-172
-157
-150
-158
-158
-141
-130
-131
-131
-132
-138
-142
-143
-149
-154
-148
-134
-131
-138
-141
-138
-142
-146
-138
-128
-129
-129
-122
-120
-123
-124
-124
-124
-122
-118
-123
-140
-140
-110
-69
-37
-21
-39
-77
-93
-84
-81
-81
-79
-88
-81
-67
-91
-84
-43
-112
-174
-55
172
786
1780
1785
277
-884
-606
-90
-72
-74
-1
-30
-31
16
10
2
22
29
35
50
60
70
88
103
115
135
164
192
213
236
268
297
317
341
368
386
399
404
375
318
269
221
143
42
-46
-101
-128
-141
-152
-161
-163
-158
-152
-146
-135
-124
-123
-131
-131
-125
-130
-137
-131
-121
-126
-133
-127
-130
-144
-147
-147
-157
-156
-144
-148
-158
-154
-143
-144
-154
-155
-147
-147
-149
-138
-130
-134
-128
-117
-119
-121
-116
-126
-146
-146
-134
-119
-81
-32
-32
-74
-92
-87
-95
-100
-92
-100
-104
-82
-92
-108
-66
-96
-192
-116
77
498
1499
2096
955
-692
-877
-222
-52
-113
-22
-14
-54
-9
10
-7
15
40
45
56
69
76
90
108
124
142
165
189
209
231
256
282
308
332
353
375
393
397
391
369
314
237
158
74
-10
-79
-125
-152
-166
-175
-178
-174
-171
-170
-165
-158
-154
-154
-155
-158
-159
-163
-167
-168
-169
-173
-176
-178
-178
-173
-171
-173
-171
-163
-159
-159
-159
-159
-155
-147
-140
-135
-132
-132
-128
-117
-109
-116
-133
-143
-142
-134
-110
-63
-25
-39
-78
-90
-84
-85
-81
-83
-95
-84
-78
-105
-77
-43
-132
-181
-91
143
996
2173
1948
181
-871
-460
-43
-110
-91
-21
-66
-60
-17
-28
-29
-8
-1
7
22
38
65
88
87
82
97
121
146
179
220
248
263
286
316
335
347
357
350
327
288
224
143
68
-3
-70
-117
-143
-156
-160
-161
-158
-150
-142
-136
-127
-120
-117
-113
-114
-121
-121
-112
-115
-126
-129
-128
-133
-135
-134
-136
-140
-137
-135
-141
-144
-138
-135
-140
-139
-134
-135
-141
-141
-135
-130
-130
-131
-128
-124
-124
-132
-149
-164
-159
-130
-89
-48
-31
-58
-93
-98
-91
-91
-85
-89
-94
-76
-78
-91
-56
-76
-167
-131
8
388
1400
2155
1214
-448
-809
-227
-35
-112
-41
-20
-60
-26
-1
-9
9
23
23
39
59
67
76
93
114
133
150
170
194
216
239
266
291
315
333
347
362
374
368
339
294
229
149
66
-6
-61
-102
-130
-145
-152
-157
-157
-152
-146
-141
-138
-139
-139
-136
-133
-137
-139
-137
-138
-142
-144
-144
-146
-148
-148
-147
-145
-145
-147
-148
-146
-146
-147
-145
-142
-139
-135
-129
-126
-126
-125
-124
-123
-122
-117
-109
-108
-117
-124
-130
-139
-139
-113
-69
-29
-26
-63
-94
-93
-89
-93
-92
-99
-97
-76
-90
-101
-54
-83
-173
-100
97
566
1578
2061
834
-732
-824
-190
-53
-105
-11
-5
-40
-2
12
3
27
45
48
63
78
86
101
122
141
156
171
189
210
231
250
268
289
311
325
334
348
357
349
325
286
229
153
72
-1
-60
-106
-136
-153
-160
-163
-161
-157
-154
-151
-153
-155
-155
-155
-157
-159
-163
-168
-170
-172
-175
-176
-178
-184
-187
-184
-180
-179
-176
-172
-171
-169
-162
-158
-159
-158
-150
-142
-138
-137
-135
-136
-146
-160
-159
-144
-124
-86
-40
-33
-72
-97
-91
-93
-94
-87
-95
-93
-73
-90
-92
-46
-98
-179
-89
108
684
1787
2044
544
-901
-756
-143
-79
-94
6
-15
-35
17
22
17
47
60
59
77
96
107
120
135
151
169
189
209
229
250
273
296
313
328
342
356
365
363
347
312
257
181
98
23
-37
-81
-114
-138
-151
-152
-150
-145
-139
-135
-135
-131
-129
-133
-137
-136
-135
-141
-148
-151
-152
-153
-155
-157
-161
-162
-159
-158
-160
-160
-159
-159
-156
-150
-147
-149
-148
-146
-142
-135
-130
-129
-128
-125
-122
-121
-119
-115
-112
-113
-121
-137
-145
-131
-101
-62
-24
-23
-61
-88
-84
-83
-85
-84
-93
-86
-72
-97
-88
-43
-109
-171
-69
117
721
1804
1924
409
-841
-595
-67
-67
-83
4
-22
-34
9
8
9
37
43
44
62
77
89
106
124
139
156
176
195
216
237
258
278
297
314
328
341
354
359
347
318
268
201
124
48
-22
-75
-110
-132
-143
-146
-144
-143
-137
-131
-130
-133
-134
-131
-131
-133
-134
-136
-138
-138
-138
-141
-143
-141
-140
-141
-140
-136
-135
-136
-137
-137
-135
-132
-130
-128
-124
-121
-121
-121
-119
-114
-112
-110
-110
-112
-112
-107
-104
-104
-103
-100
-97
-95
-97
-102
-113
-126
-123
-101
-68
-30
-6
-28
-68
-78
-75
-79
-72
-72
-85
-74
-70
-81
-41
-44
-150
-134
39
397
1297
2069
1266
-413
-892
-288
-14
-81
-12
21
-26
5
39
28
42
61
61
73
91
102
114
127
141
160
178
190
205
224
243
261
276
292
306
318
327
334
334
318
285
232
163
84
9
-53
-102
-139
-162
-172
-172
-170
-165
-158
-155
-153
-150
-148
-152
-153
-151
-154
-157
-156
-158
-164
-169
-172
-174
-174
-171
-168
-168
-172
-171
-166
-160
-158
-156
-153
-150
-145
-140
-136
-132
-126
-124
-127
-128
-123
-117
-115
-112
-105
-100
-103
-108
-116
-125
-120
-97
-66
-30
-7
-30
-72
-81
-73
-77
-73
-70
-80
-68
-61
-83
-54
-39
-127
-127
18
298
1121
2015
1429
-296
-981
-398
-29
-82
-21
33
-12
13
45
28
41
67
69
78
94
103
117
135
148
164
186
207
226
245
265
286
307
327
344
358
368
370
363
342
299
235
160
83
11
-50
-97
-128
-143
-148
-154
-152
-143
-136
-132
-126
-120
-119
-120
-118
-115
-114
-117
-121
-124
-127
-131
-136
-138
-136
-133
-135
-139
-138
-134
-131
-131
-128
-125
-125
-127
-125
-117
-110
-109
-110
-109
-105
-103
-102
-100
-98
-97
-94
-94
-95
-95
-93
-89
-85
-82
-84
-88
-85
-78
-77
-83
-84
-80
-80
-86
-93
-103
-105
-90
-60
-23
7
0
-50
-97
-105
-81
-61
-76
-99
-68
-34
-56
-37
7
-77
-141
-35
166
831
1915
1891
283
-871
-536
-42
-73
-78
2
-31
-34
6
-3
0
28
22
13
32
59
87
116
135
147
160
176
198
204
190
204
266
328
353
353
356
370
377
363
334
284
209
128
50
-26
-83
-108
-126
-149
-160
-163
-163
-149
-130
-133
-144
-136
-124
-122
-124
-127
-127
-122
-124
-134
-132
-121
-128
-141
-137
-127
-131
-144
-144
-130
-125
-128
-126
-124
-134
-135
-119
-106
-110
-116
-115
-114
-118
-115
-103
-100
-103
-99
-97
-100
-98
-93
-93
-89
-84
-91
-97
-86
-73
-81
-87
-72
-58
-65
-72
-67
-64
-69
-75
-82
-89
-81
-57
-29
4
22
-4
-43
-50
-47
-55
-53
-52
-60
-46
-42
-68
-41
-27
-120
-128
13
322
1213
2168
1586
-177
-909
-366
-21
-84
-26
24
-25
-6
28
19
35
57
54
60
75
84
98
118
133
148
169
192
211
226
246
270
297
319
334
347
362
376
374
356
322
270
194
105
24
-44
-104
-152
-183
-199
-205
-202
-198
-191
-180
-170
-163
-156
-151
-148
-148
-150
-152
-151
-151
-153
-156
-160
-168
-172
-169
-169
-172
-169
-165
-167
-168
-165
-163
-162
-158
-150
-145
-144
-144
-140
-135
-129
-128
-130
-131
-129
-127
-125
-120
-118
-121
-121
-115
-110
-108
-103
-97
-97
-102
-105
-107
-108
-101
-80
-42
-3
-3
-42
-66
-60
-61
-64
-60
-66
-59
-40
-61
-59
-10
-68
-154
-66
123
709
1864
2176
682
-786
-666
-86
-55
-80
20
-5
-30
18
21
14
41
50
53
74
87
91
108
131
146
160
182
209
233
254
280
311
342
368
388
409
425
428
411
372
310
227
137
52
-21
-81
-131
-165
-176
-177
-179
-179
-175
-165
-154
-145
-138
-130
-123
-118
-116
-118
-119
-119
-120
-125
-129
-134
-137
-138
-136
-134
-136
-137
-136
-134
-132
-130
-131
-131
-127
-128
-130
-127
-124
-124
-123
-118
-114
-115
-117
-114
-112
-115
-117
-113
-108
-106
-107
-109
-110
-108
-107
-106
-105
-102
-98
-96
-97
-97
-92
-89
-87
-85
-84
-87
-99
-111
-104
-81
-52
-17
2
-23
-58
-58
-52
-58
-50
-46
-61
-50
-42
-62
-31
-15
-112
-126
8
289
1157
2166
1696
-22
-809
-326
-2
-81
-39
14
-31
-12
23
11
23
46
46
55
72
79
92
112
124
135
155
180
203
224
248
276
305
333
358
378
398
414
418
404
368
308
227
138
56
-16
-75
-118
-144
-156
-161
-160
-156
-153
-150
-144
-136
-130
-126
-124
-122
-119
-116
-118
-121
-123
-125
-126
-127
-127
-124
-124
-128
-131
-129
-126
-125
-122
-121
-123
-122
-118
-117
-121
-122
-116
-114
-116
-114
-111
-113
-114
-109
-106
-110
-113
-112
-111
-110
-106
-105
-109
-109
-108
-109
-107
-101
-100
-102
-101
-99
-100
-102
-99
-93
-91
-91
-89
-87
-86
-86
-87
-84
-79
-79
-79
-73
-69
-74
-80
-87
-97
-90
-58
-16
9
0
-39
-64
-60
-58
-61
-61
-71
-69
-46
-64
-75
-24
-67
-165
-73
142
663
1762
2223
869
-723
-755
-148
-72
-111
-2
-11
-41
14
24
12
39
53
55
77
96
103
118
141
162
179
197
217
241
268
296
324
353
382
408
431
454
470
471
452
410
342
255
164
81
7
-53
-97
-127
-146
-154
-150
-142
-133
-121
-110
-102
-95
-89
-85
-80
-76
-76
-79
-82
-87
-92
-95
-97
-100
-103
-104
-103
-104
-105
-106
-107
-109
-107
-99
-95
-101
-106
-103
-100
-101
-99
-94
-87
-79
-71
-69
-80
-93
-91
-81
-81
-85
-81
-75
-77
-84
-88
-88
-86
-87
-92
-95
-91
-86
-86
-87
-89
-88
-78
-70
-84
-107
-115
-119
-130
-129
-112
-92
-65
-49
-79
-127
-141
-138
-148
-154
-161
-179
-172
-170
-199
-172
-148
-247
-278
-136
141
936
1920
1545
-137
-1006
-556
-183
-238
-197
-136
-179
-166
-129
-136
-123
-98
-95
-87
-69
-56
-38
-19
-3
19
45
68
93
124
161
199
236
271
306
340
374
403
418
413
386
332
259
178
101
39
-5
-37
-61
-68
-57
-42
-31
-16
6
28
48
68
