# session 24
72
5
138
99
-398
-819
-658
-290
-157
-134
-94
-93
-96
-74
-65
-61
-37
-7
20
42
63
93
132
168
206
252
303
350
395
437
477
511
536
553
556
536
490
419
331
233
137
50
-27
-90
-135
-162
-169
-166
-167
-169
-166
-166
-172
-168
-174
-191
-183
-194
-246
-186
-49
-195
-665
-1010
-1028
-997
-1027
-819
-301
38
-101
-328
-276
-115
-59
-55
-38
-16
16
56
94
139
192
248
305
368
444
537
635
737
846
949
1030
1079
1080
1025
922
777
606
430
252
78
-67
-173
-253
-313
-344
-353
-352
-343
-331
-321
-312
-300
-286
-273
-263
-256
-246
-234
-228
-226
-218
-207
-205
-209
-204
-198
-200
-198
-185
-179
-185
-186
-177
-168
-166
-167
-165
-162
-160
-154
-144
-140
-141
-133
-122
-123
-129
-126
-117
-113
-112
-109
-106
-107
-108
-102
-97
-101
-116
-129
-127
-126
-132
-102
-41
-24
-59
-85
-79
-63
-63
-78
-67
-63
-89
-57
-40
-156
-157
49
349
1162
2160
1643
-273
-1206
-658
-220
-238
-138
-52
-104
-82
-34
-49
-39
-6
6
28
63
87
113
151
190
227
271
323
376
425
471
511
545
572
587
583
557
502
423
334
242
144
49
-31
-91
-133
-152
-155
-159
-166
-164
-156
-157
-163
-163
-160
-166
-181
-192
-200
-225
-236
-230
-283
-328
-244
-203
-330
-337
-99
35
-196
-640
-849
-492
92
258
22
-144
-138
-129
-137
-129
-120
-105
-74
-44
-15
21
60
103
158
222
288
363
450
539
622
703
782
835
853
839
789
702
588
453
298
139
-5
-123
-210
-259
-273
-270
-262
-252
-240
-232
-226
-221
-218
-216
-213
-209
-206
-203
-200
-202
-204
-202
-197
-196
-195
-194
-194
-193
-187
-180
-179
-181
-179
-172
-167
-164
-160
-154
-150
-148
-146
-145
-144
-140
-135
-129
-124
-120
-118
-120
-133
-159
-178
-174
-159
-131
-73
-29
-50
-87
-87
-82
-89
-94
-104
-100
-89
-107
-95
-65
-150
-223
-145
36
734
1931
1999
319
-1000
-726
-197
-212
-223
-130
-153
-162
-118
-113
-105
-76
-61
-38
2
32
57
92
132
174
220
274
328
376
418
457
489
512
523
518
487
429
348
256
163
73
-6
-67
-114
-148
-164
-173
-176
-165
-159
-158
-139
-152
-187
-87
91
44
-230
-438
-569
-782
-842
-419
119
99
-354
-580
-449
-272
-157
-69
-26
-3
35
77
113
143
189
279
390
482
563
630
663
695
761
836
880
889
862
792
682
547
400
253
116
-1
-98
-177
-234
-268
-286
-296
-301
-298
-292
-287
-277
-262
-252
-248
-240
-229
-223
-217
-209
-205
-204
-202
-199
-196
-193
-192
-191
-186
-180
-176
-172
-165
-157
-152
-148
-144
-138
-131
-125
-120
-115
-106
-100
-95
-90
-85
-79
-73
-68
-65
-60
-55
-51
-49
-47
-43
-39
-36
-37
-38
-34
-29
-29
-31
-28
-22
-21
-24
-24
-22
-22
-21
-18
-18
-17
-17
-18
-19
-18
-17
-18
-16
-15
-15
-19
-31
-45
-42
-25
-7
22
53
46
1
-31
-29
-21
-34
-45
-30
-41
-70
-30
-35
-155
-133
50
365
1241
2097
1353
-439
-1071
-504
-192
-229
-139
-99
-153
-128
-97
-108
-89
-58
-43
-20
7
30
58
90
119
153
191
229
263
300
338
372
401
429
455
471
477
467
433
377
302
220
144
75
14
-31
-67
-94
-106
-114
-122
-124
-140
-154
-140
-165
-204
-73
76
-234
-934
-1401
-1443
-1341
-1074
-554
-222
-413
-690
-601
-330
-151
-39
44
63
62
87
114
138
189
275
363
428
493
578
661
734
814
901
972
1012
1010
954
852
719
561
394
238
98
-22
-115
-186
-238
-269
-284
-293
-296
-289
-277
-269
-262
-254
-245
-237
-231
-222
-215
-211
-206
-199
-194
-192
-188
-184
-178
-168
-161
-158
-154
-147
-140
-138
-137
-130
-120
-114
-113
-107
-98
-90
-84
-78
-74
-71
-66
-61
-55
-49
-46
-44
-39
-34
-34
-33
-29
-24
-23
-22
-22
-22
-19
-17
-18
-18
-15
-13
-13
-13
-13
-12
-12
-13
-13
-12
-14
-20
-23
-27
-41
-51
-45
-30
-10
24
43
17
-29
-50
-41
-40
-61
-59
-43
-73
-72
-23
-107
-205
-76
160
729
1786
1958
395
-1029
-867
-297
-247
-223
-110
-144
-165
-112
-112
-117
-82
-62
-50
-19
10
32
61
93
129
167
205
243
284
322
357
393
424
450
470
484
482
457
412
351
278
202
128
59
2
-42
-73
-95
-109
-121
-130
-137
-148
-154
-159
-179
-185
-182
-234
-241
-101
-103
-528
-1042
-1198
-1131
-1153
-1103
-689
-187
-106
-331
-381
-209
-83
-67
-60
-17
43
95
142
183
196
203
252
325
390
466
564
665
770
879
974
1037
1059
1028
945
824
676
506
331
166
23
-94
-180
-240
-277
-296
-297
-288
-277
-268
-258
-248
-237
-226
-217
-210
-202
-191
-183
-178
-171
-164
-158
-155
-156
-155
-152
-150
-149
-146
-143
-139
-135
-133
-130
-125
-121
-119
-117
-114
-108
-103
-102
-100
-96
-93
-91
-88
-84
-81
-78
-75
-72
-70
-68
-65
-60
-58
-57
-56
-54
-54
-54
-55
-56
-57
-57
-52
-49
-51
-54
-59
-71
-77
-60
-34
-7
25
32
-5
-45
-50
-37
-42
-62
-52
-40
-73
-62
-24
-118
-178
-21
229
851
1814
1688
57
-1083
-744
-237
-214
-166
-75
-119
-126
-77
-78
-73
-41
-26
-9
23
49
73
104
134
164
198
233
271
313
351
385
415
443
465
481
483
465
427
370
297
216
136
62
-1
-51
-83
-101
-115
-127
-134
-142
-147
-141
-148
-162
-147
-165
-210
-104
41
-215
-842
-1260
-1271
-1189
-1060
-656
-200
-190
-505
-597
-383
-164
-41
46
108
165
213
215
210
253
314
368
431
507
586
673
769
865
954
1032
1085
1095
1051
957
818
645
457
274
109
-32
-144
-227
-285
-323
-346
-359
-363
-357
-349
-342
-328
-311
-300
-291
-280
-265
-253
-246
-239
-225
-213
-215
-221
-215
-205
-201
-197
-192
-191
-189
-178
-170
-174
-175
-167
-161
-161
-154
-142
-136
-132
-123
-118
-116
-108
-104
-104
-98
-91
-91
-88
-78
-74
-77
-77
-73
-71
-70
-67
-65
-63
-60
-60
-62
-65
-81
-100
-103
-102
-101
-72
-29
-17
-39
-55
-47
-41
-58
-53
-27
-52
-64
-20
-82
-172
-53
161
684
1765
2101
620
-943
-900
-291
-196
-173
-40
-62
-92
-36
-27
-36
-7
12
25
58
88
116
156
196
231
274
323
371
416
459
498
532
560
581
591
584
555
504
434
351
261
173
93
23
-36
-78
-102
-116
-125
-135
-145
-151
-154
-161
-172
-182
-192
-205
-220
-237
-256
-272
-300
-338
-355
-353
-360
-349
-294
-260
-284
-304
-292
-285
-284
-279
-278
-263
-255
-272
-247
-230
-310
-327
-220
20
833
1853
1462
-278
-1164
-645
-196
-240
-207
-127
-152
-133
-87
-89
-75
-38
-18
8
52
94
128
165
212
269
328
387
444
486
510
526
529
510
469
406
319
224
137
59
-11
-68
-111
-140
-157
-165
-167
-163
-158
-155
-154
-155
-158
-158
-155
-157
-162
-164
-165
-170
-176
-183
-191
-193
-196
-222
-253
-257
-252
-252
-209
-140
-131
-167
-169
-155
-157
-151
-144
-149
-132
-128
-151
-117
-105
-210
-227
-93
204
1086
2036
1446
-328
-1050
-470
-97
-170
-131
-71
-103
-75
-35
-41
-24
7
20
46
84
113
148
191
236
283
335
389
439
478
511
538
547
531
499
448
372
282
194
109
28
-36
-81
-113
-134
-144
-149
-149
-145
-142
-140
-140
-141
-143
-144
-146
-153
-159
-163
-172
-185
-192
-197
-207
-215
-214
-214
-218
-222
-222
-218
-212
-213
-217
-227
-253
-277
-277
-259
-220
-154
-116
-141
-167
-154
-148
-154
-147
-150
-150
-130
-144
-151
-102
-146
-264
-232
-68
453
1593
2120
797
-846
-919
-261
-136
-199
-105
-92
-112
-60
-40
-45
-14
15
35
68
104
139
178
217
258
304
348
392
438
477
501
515
523
519
496
455
394
320
244
171
104
53
15
-16
-35
-40
-40
-37
-34
-35
-38
-41
-45
-51
-54
-57
-65
-75
-82
-88
-99
-113
-118
-118
-127
-138
-144
-152
-157
-154
-152
-159
-165
-163
-161
-163
-161
-153
-146
-147
-146
-139
-134
-131
-127
-120
-113
-109
-105
-98
-91
-86
-81
-77
-71
-64
-62
-64
-56
-43
-40
-41
-37
-31
-29
-25
-23
-25
-22
-18
-20
-24
-24
-23
-27
-28
-26
-26
-30
-34
-34
-31
-30
-33
-33
-27
-24
-25
-28
-35
-38
-16
21
36
19
-6
-8
8
2
-13
3
-2
-28
10
2
-129
-140
25
374
1232
1941
1107
-564
-1038
-441
-147
-182
-101
-68
-111
-84
-66
-81
-57
-31
-24
4
40
57
75
102
128
155
191
225
253
283
311
328
338
349
357
358
343
311
267
209
136
63
5
-47
-97
-131
-141
-148
-157
-157
-159
-164
-154
-153
-165
-148
-150
-197
-109
96
-11
-568
-1125
-1391
-1476
-1360
-921
-469
-434
-630
-580
-280
-39
61
108
131
144
170
204
231
258
298
351
394
426
471
534
599
668
752
828
871
895
920
918
853
739
606
462
306
159
38
-60
-141
-195
-222
-238
-247
-244
-237
-233
-226
-216
-204
-193
-185
-183
-179
-170
-160
-152
-148
-147
-146
-142
-137
-132
-131
-133
-130
-126
-128
-128
-122
-120
-120
-114
-108
-107
-104
-98
-96
-92
-85
-81
-79
-70
-61
-56
-49
-44
-42
-38
-30
-26
-25
-19
-11
-12
-14
-9
-6
-8
-6
0
3
1
-1
2
6
5
6
10
9
9
11
13
10
7
3
1
4
8
7
2
0
1
2
2
3
3
2
1
4
7
5
4
8
10
8
6
5
4
5
5
3
0
-3
-7
-14
-30
-44
-33
-10
12
36
45
18
-27
-44
-35
-43
-63
-51
-46
-79
-56
-36
-145
-173
2
286
988
1829
1393
-243
-1063
-607
-224
-248
-186
-122
-168
-157
-121
-132
-123
-93
-74
-50
-22
-4
20
52
81
108
140
174
202
230
264
296
318
337
357
373
384
387
369
330
278
214
144
79
20
-34
-74
-105
-135
-151
-157
-165
-161
-160
-178
-169
-159
-211
-163
51
-22
-663
-1390
-1704
-1698
-1497
-1014
-516
-460
-711
-750
-501
-236
-46
99
170
183
215
288
355
394
456
550
602
603
632
706
779
848
930
1014
1079
1112
1099
1036
929
788
624
452
291
146
18
-87
-163
-216
-252
-274
-282
-281
-279
-276
-268
-257
-248
-241
-232
-222
-216
-213
-208
-202
-198
-193
-189
-189
-189
-184
-177
-173
-174
-173
-167
-162
-159
-156
-150
-146
-143
-138
-132
-128
-123
-114
-106
-103
-100
-97
-92
-89
-87
-88
-95
-105
-106
-93
-80
-65
-47
-41
-49
-54
-53
-54
-57
-58
-57
-57
-59
-60
-58
-57
-60
-68
-78
-78
-63
-40
-5
31
24
-21
-51
-54
-50
-57
-63
-42
-41
-73
-42
-27
-149
-164
22
303
1082
2041
1564
-231
-1100
-590
-193
-224
-147
-80
-134
-119
-80
-93
-78
-47
-36
-12
19
31
53
97
137
166
201
244
283
319
356
388
417
443
459
461
468
474
449
386
310
232
150
71
1
-52
-88
-116
-142
-157
-157
-150
-152
-165
-168
-169
-190
-193
-179
-222
-230
-88
-80
-508
-1065
-1278
-1224
-1207
-1122
-712
-224
-124
-302
-299
-101
18
30
41
56
70
98
133
167
209
260
320
388
454
520
597
684
777
874
970
1047
1084
1074
1018
918
773
597
414
235
70
-68
-168
-238
-287
-315
-323
-323
-317
-307
-297
-289
-278
-265
-256
-244
-227
-216
-214
-208
-194
-184
-183
-182
-180
-181
-184
-181
-175
-174
-175
-172
-169
-171
-173
-170
-163
-158
-155
-154
-152
-147
-142
-137
-128
-122
-122
-120
-115
-115
-117
-114
-108
-104
-102
-103
-102
-98
-102
-121
-136
-136
-133
-118
-74
-37
-41
-63
-71
-66
-60
-71
-74
-55
-70
-81
-29
-72
-185
-92
127
540
1504
2020
782
-890
-1042
-377
-190
-195
-69
-63
-102
-54
-39
-50
-19
2
10
38
67
88
116
151
185
221
258
298
343
385
420
452
484
511
529
534
521
486
425
343
254
167
84
8
-52
-93
-117
-131
-139
-144
-148
-154
-157
-160
-168
-168
-171
-194
-197
-194
-241
-230
-97
-127
-500
-894
-1006
-998
-1099
-1111
-703
-111
70
-155
-259
-121
-14
-6
-1
13
26
52
83
114
156
205
254
307
365
432
514
603
695
792
889
967
1012
1020
982
896
768
614
448
280
119
-23
-136
-219
-274
-303
-314
-311
-298
-282
-273
-269
-262
-251
-242
-233
-222
-216
-213
-201
-190
-189
-185
-174
-184
-201
-188
-168
-175
-184
-176
-177
-181
-176
-176
-176
-156
-135
-131
-125
-112
-110
-117
-113
-100
-90
-81
-75
-80
-86
-76
-62
-63
-68
-64
-57
-60
-65
-64
-58
-51
-44
-36
-32
-36
-39
-34
-37
-53
-59
-46
-30
-2
36
42
5
-28
-32
-22
-25
-44
-37
-23
-54
-43
-9
-110
-176
-29
199
839
1907
1873
200
-1034
-719
-203
-201
-175
-88
-126
-124
-79
-91
-88
-55
-44
-29
3
28
53
84
108
141
185
223
256
294
334
373
406
431
457
477
475
449
404
338
254
167
81
1
-63
-110
-143
-164
-179
-190
-191
-189
-198
-206
-210
-209
-198
-222
-260
-167
-37
-228
-714
-1016
-977
-886
-788
-434
-1
-3
-376
-558
-426
-269
-174
-79
-20
16
82
122
101
101
152
206
257
316
375
437
507
578
650
721
775
800
790
744
661
545
407
272
150
34
-66
-140
-194
-235
-262
-276
-278
-269
-261
-260
-250
-229
-213
-210
-203
-186
-170
-159
-147
-137
-130
-118
-100
-93
-93
-90
-87
-84
-72
-58
-53
-50
-43
-39
-37
-36
-28
-15
