# session 37
7
22
-4
-13
75
195
233
223
242
261
261
271
291
310
333
351
353
353
359
366
369
357
328
289
242
189
131
67
15
-10
-31
-64
-88
-92
-85
-70
-59
-66
-74
-70
-67
-67
-70
-80
-85
-82
-90
-104
-105
-101
-104
-111
-115
-115
-111
-109
-112
-114
-112
-112
-111
-105
-102
-106
-110
-115
-111
-99
-105
-133
-139
-105
-66
-38
-12
-10
-51
-84
-77
-69
-75
-73
-77
-86
-68
-64
-94
-71
-47
-123
-139
16
345
1016
1528
809
-615
-1042
-478
-128
-107
-15
32
-5
23
53
32
36
63
70
75
86
94
104
113
120
140
164
176
184
201
226
257
283
289
288
300
312
310
300
286
248
180
102
38
-13
-68
-118
-143
-149
-155
-156
-146
-137
-133
-128
-118
-110
-109
-109
-107
-107
-113
-114
-113
-124
-136
-132
-127
-132
-141
-142
-139
-138
-141
-141
-135
-133
-136
-136
-130
-125
-122
-122
-123
-125
-130
-140
-138
-110
-74
-44
-29
-54
-94
-98
-83
-91
-94
-85
-90
-85
-74
-88
-74
-56
-123
-142
-13
240
840
1469
997
-381
-969
-479
-97
-90
-27
28
-9
2
33
27
37
55
56
67
83
91
103
116
127
148
170
181
198
226
243
253
278
311
328
334
344
355
352
327
278
209
130
52
-16
-72
-116
-145
-158
-163
-160
-147
-135
-136
-133
-120
-112
-113
-108
-99
-100
-110
-114
-111
-112
-117
-121
-125
-127
-124
-121
-124
-132
-135
-132
-130
-130
-125
-116
-116
-122
-127
-135
-140
-129
-106
-70
-24
-13
-60
-99
-91
-85
-100
-101
-96
-97
-85
-81
-94
-69
-61
-128
-120
16
295
920
1392
708
-584
-923
-385
-75
-72
-6
28
-7
7
34
38
49
55
54
65
79
87
98
111
121
136
158
179
191
204
227
253
274
293
311
325
336
339
324
294
245
176
101
35
-23
-77
-117
-136
-141
-146
-151
-148
-140
-134
-130
-122
-116
-113
-112
-111
-110
-109
-110
-115
-118
-117
-119
-123
-122
-117
-118
-124
-125
-121
-116
-113
-111
-110
-106
-100
-97
-99
-97
-91
-87
-86
-83
-79
-81
-85
-84
-89
-102
-100
-75
-47
-18
4
-13
-55
-68
-57
-61
-70
-64
-65
-68
-55
-65
-83
-47
-48
-122
-92
83
427
1046
1295
412
-716
-788
-257
-59
-58
11
16
-6
31
48
39
50
60
61
70
81
92
103
112
125
142
155
166
180
200
222
236
247
266
283
293
302
309
303
281
247
195
130
65
11
-32
-65
-90
-105
-109
-106
-102
-96
-91
-89
-87
-82
-78
-77
-79
-81
-78
-78
-85
-91
-91
-92
-99
-104
-103
-100
-99
-95
-91
-88
-85
-83
-79
-75
-72
-70
-67
-67
-70
-67
-62
-62
-61
-58
-55
-54
-54
-55
-55
-55
-56
-54
-49
-50
-56
-59
-56
-55
-55
-54
-53
-50
-43
-42
-53
-60
-49
-37
-38
-43
-42
-41
-43
-44
-43
-41
-39
-39
-41
-41
-44
-56
-60
-40
-14
7
33
37
0
-35
-31
-23
-30
-32
-35
-40
-26
-22
-41
-15
-2
-82
-93
55
331
896
1363
797
-405
-787
-322
-40
-49
4
37
5
22
44
34
42
58
58
62
75
81
82
92
107
119
126
135
148
161
174
189
205
219
232
247
255
260
267
269
255
225
182
130
72
14
-34
-65
-87
-106
-116
-117
-115
-111
-107
-107
-107
-101
-98
-104
-107
-104
-102
-108
-116
-119
-119
-121
-125
-131
-137
-137
-129
-126
-131
-133
-127
-121
-123
-125
-121
-120
-120
-117
-115
-118
-115
-107
-102
-104
-106
-106
-102
-94
-86
-86
-91
-92
-87
-86
-87
-86
-84
-84
-82
-78
-83
-95
-88
-59
-26
6
17
-16
-55
-57
-48
-54
-53
-51
-61
-52
-39
-54
-33
-8
-81
-107
37
328
933
1501
979
-365
-904
-425
-71
-67
-1
53
14
23
54
50
61
78
78
86
101
106
113
131
145
156
168
183
197
215
235
252
267
284
299
304
310
318
319
302
270
223
164
99
40
-13
-59
-90
-106
-116
-121
-119
-114
-108
-105
-104
-102
-98
-99
-102
-102
-102
-107
-112
-112
-110
-115
-123
-124
-125
-129
-129
-123
-120
-120
-117
-113
-112
-111
-110
-109
-108
-108
-106
-104
-102
-100
-99
-99
-98
-95
-90
-87
-87
-91
-94
-92
-87
-87
-88
-86
-82
-83
-82
-84
-100
-111
-89
-54
-27
1
5
-34
-68
-63
-57
-62
-56
-57
-66
-54
-54
-70
-40
-41
-117
-91
82
404
1022
1376
592
-601
-794
-274
-47
-58
8
29
4
31
47
40
57
70
67
76
92
100
106
115
127
141
153
168
187
206
223
242
261
277
289
298
307
313
309
293
260
209
145
80
23
-26
-67
-96
-111
-116
-116
-114
-111
-107
-102
-97
-91
-90
-93
-93
-90
-89
-90
-91
-96
-101
-102
-103
-106
-107
-108
-110
-111
-109
-109
-105
-99
-100
-103
-102
-99
-99
-97
-93
-90
-91
-91
-88
-82
-78
-77
-78
-81
-82
-77
-73
-73
-72
-69
-71
-74
-72
-67
-64
-61
-62
-67
-73
-83
-83
-65
-41
-14
16
12
-33
-60
-51
-46
-52
-51
-58
-62
-43
-47
-61
-30
-42
-115
-70
115
467
1081
1290
385
-694
-720
-208
-40
-43
20
17
-8
29
47
41
55
67
68
76
87
96
105
113
124
138
149
158
173
195
215
232
248
262
275
287
295
296
290
269
231
181
127
66
6
-44
-83
-109
-122
-127
-131
-128
-116
-108
-109
-107
-98
-93
-93
-92
-88
-88
-91
-93
-94
-95
-97
-101
-105
-107
-109
-111
-111
-108
-102
-98
-98
-100
-101
-99
-95
-92
-92
-90
-86
-82
-80
-81
-80
-76
-71
-71
-73
-72
-70
-68
-68
-68
-68
-67
-67
-66
-67
-69
-71
-81
-90
-76
-48
-22
5
17
-11
-46
-50
-48
-59
-57
-52
-63
-59
-52
-68
-52
-35
-103
-121
31
334
917
1411
857
-425
-906
-430
-83
-74
-17
30
1
12
32
21
33
56
63
71
81
89
103
118
125
135
151
163
176
198
222
237
249
265
283
300
315
321
316
302
279
235
170
96
26
-36
-84
-118
-140
-149
-148
-145
-139
-132
-124
-120
-118
-115
-115
-117
-114
-111
-114
-116
-115
-120
-128
-134
-137
-136
-136
-137
-136
-134
-133
-132
-130
-131
-133
-131
-127
-124
-125
-127
-127
-123
-120
-121
-122
-121
-126
-141
-142
-113
-74
-39
-18
-37
-77
-90
-82
-86
-85
-81
-88
-78
-66
-87
-75
-45
-111
-149
-15
268
898
1587
1164
-294
-1014
-544
-113
-95
-32
34
-7
3
46
40
43
64
69
79
99
111
120
134
148
160
176
196
214
232
255
279
301
322
343
360
370
372
365
342
294
223
142
61
-11
-70
-116
-149
-167
-170
-168
-165
-160
-151
-141
-132
-126
-121
-114
-111
-112
-111
-109
-111
-116
-120
-120
-123
-126
-128
-128
-130
-133
-134
-134
-136
-133
-125
-117
-118
-121
-120
-121
-123
-119
-113
-110
-109
-108
-108
-109
-107
-109
-120
-129
-120
-94
-58
-23
-18
-54
-85
-83
-82
-88
-82
-82
-90
-75
-71
-84
-54
-53
-129
-109
44
345
990
1413
656
-582
-810
-280
-44
-59
8
28
-2
26
48
40
54
69
72
85
99
104
114
128
139
153
172
190
206
226
249
273
294
316
339
356
364
364
358
335
280
203
125
55
-10
-63
-101
-127
-141
-149
-150
-145
-138
-132
-124
-114
-105
-98
-93
-93
-97
-94
-86
-85
-89
-89
-90
-97
-104
-105
-106
-113
-118
-116
-113
-113
-113
-109
-102
-101
-104
-106
-103
-101
-99
-99
-96
-94
-98
-100
-93
-88
-93
-91
-85
-86
-86
-82
-83
-89
-98
-104
-93
-67
-40
-12
3
-26
-67
-70
-58
-68
-73
-65
-69
-69
-60
-71
-61
-30
-77
-123
-22
194
656
1264
1092
-68
-831
-524
-92
-50
-31
27
5
3
36
37
42
61
65
67
78
90
106
117
115
120
140
156
167
188
211
226
243
264
284
299
312
323
326
310
271
217
156
88
21
-34
-76
-107
-127
-137
-143
-147
-145
-136
-126
-121
-113
-102
-98
-100
-98
-94
-93
-92
-90
-90
-93
-98
-101
-101
-101
-101
-99
-98
-96
-88
-82
-86
-90
-87
-82
-77
-74
-73
-68
-63
-66
-70
-70
-71
-70
-63
-59
-59
-59
-58
-57
-56
-56
-56
-54
-53
-53
-52
-54
-57
-57
-58
-58
-57
-63
-75
-69
-42
-16
11
34
17
-34
-58
-46
-46
-53
-49
-55
-64
-48
-49
-64
-29
-33
-117
-89
106
484
1136
1406
504
-682
-795
-266
-65
-69
5
16
-12
19
38
31
42
53
54
62
72
81
93
105
117
134
152
168
181
196
218
237
250
270
296
313
324
338
341
322
287
235
161
79
6
-51
-95
-127
-148
-160
-164
-159
-149
-140
-133
-125
-119
-117
-115
-109
-104
-106
-110
-108
-104
-105
-112
-119
-127
-132
-133
-136
-142
-144
-141
-139
-139
-139
-136
-133
-133
-133
-131
-130
-132
-130
-121
-113
-109
-109
-108
-106
-102
-101
-101
-102
-102
-101
-104
-110
-105
-84
-52
-11
7
-25
-68
-72
-62
-71
-75
-66
-72
-72
-58
-68
-61
-28
-81
-141
-36
203
728
1471
1364
44
-919
-624
-127
-77
-50
36
14
7
46
46
48
69
72
76
97
109
112
123
138
154
173
193
208
222
245
272
296
317
341
363
377
383
386
375
334
268
188
104
27
-36
-87
-128
-152
-166
-174
-176
-169
-159
-148
-135
-123
-115
-109
-102
-97
-96
-94
-89
-89
-94
-98
-100
-104
-108
-111
-115
-116
-114
-114
-111
-106
-107
-113
-113
-106
-102
-103
-102
-98
-95
-95
-93
-90
-92
-93
-90
-91
-100
-110
-109
-93
-76
-71
-75
-76
-74
-72
-72
-71
-70
-68
-63
-64
-67
-67
-71
-87
-96
-79
-45
-7
23
16
-23
-46
-38
-38
-46
-42
-49
-60
-42
-38
-54
-23
-28
-103
-56
91
340
1002
1528
807
-480
-739
-225
-23
-56
9
21
-8
32
48
27
39
55
53
62
75
81
90
101
111
131
159
177
183
199
233
266
286
304
332
361
377
380
375
352
305
242
161
70
-6
-65
-129
-177
-188
-186
-189
-183
-172
-166
-148
-131
-140
-150
-125
-96
-102
-117
-114
-107
-109
-112
-114
-117
-120
-123
-128
-130
-129
-130
-126
-117
-114
-112
-105
-108
-121
-120
-106
-106
-115
-113
-105
-102
-100
-97
-101
-108
-104
-96
-92
-93
-96
-95
-86
-78
-78
-75
-69
-70
-72
-59
-58
-82
-95
-75
-47
-18
11
9
-30
-55
-45
-36
-40
-38
-42
-54
-43
-34
-43
-21
-22
-94
-74
62
290
890
1475
951
-319
-750
-277
4
-33
7
45
16
23
40
36
47
57
55
62
73
77
85
101
117
130
143
160
176
188
206
232
254
271
293
317
332
336
332
310
271
219
145
60
4
-39
-96
-110
-67
-74
-144
-164
-138
-147
-172
-169
-153
-138
-124
-117
-114
-106
-98
-97
-97
-96
-95
-93
-93
-99
-103
-100
-91
-86
-91
-98
-97
-90
-83
-84
-92
-94
-86
-86
-90
-81
-71
-76
-80
-75
-74
-76
-72
-67
-73
-79
-73
-65
-71
-82
-80
-69
-67
-76
-79
-74
-74
-77
-76
-77
-82
-67
-36
-12
7
17
-8
-50
-63
-53
-55
-62
-62
-63
-52
-40
-63
-67
-20
-48
-116
-28
205
607
1137
1062
35
-797
-602
-135
-38
-28
31
19
11
45
51
48
64
69
66
73
83
94
104
111
124
144
158
167
179
198
220
241
262
284
302
313
324
331
322
298
263
208
135
62
-1
-51
-87
-113
-133
-140
-135
-127
-123
-121
-118
-112
-102
-98
-101
-98
-90
-88
-93
-99
-106
-111
-109
-106
-109
-111
-111
-111
-111
-105
-98
-100
-111
-111
-100
-95
-97
-98
-96
-98
-102
-98
-94
-101
-107
-101
-92
-85
-84
-94
-105
-112
-117
-102
-66
-48
-54
-47
-34
-59
-97
-97
-85
-91
-95
-96
-103
-95
-98
-122
-93
-73
-151
-151
41
401
1047
1462
689
-648
-966
-406
-102
-90
-4
25
-18
14
53
44
48
64
68
76
90
100
114
130
140
153
172
190
211
237
255
271
296
317
328
347
368
376
369
346
299
234
158
80
12
-42
-82
-108
-127
-142
-145
-141
-135
-127
-120
-113
-103
-102
-106
-99
-91
-97
-103
-101
-104
-109
-107
-105
-107
-106
-106
-109
-108
-105
-105
-108
-109
-107
-105
-105
-105
-101
-97
-99
-105
-107
-104
-101
-102
-106
-108
-106
-104
-104
-105
-117
-141
-149
-119
-73
-36
-16
-30
-68
-85
-81
-85
-87
-79
-84
-82
-68
-80
-77
-47
-95
-149
-49
159
600
1237
1161
30
-818
-570
-114
-51
-44
11
-7
-12
17
17
21
39
39
48
74
80
73
85
103
113
126
143
161
182
208
230
249
270
291
308
324
335
335
320
292
243
176
102
33
-29
-78
-108
-124
-133
-135
-131
-128
-126
-120
-109
-97
-92
-95
-97
-95
-94
-92
-85
-86
-94
-92
-87
-94
-97
-91
-90
-92
-86
-81
-82
-78
-72
-75
-75
-65
-58
-66
-72
-62
-51
-55
-60
-56
-52
-53
-54
-52
-49
-52
-55
-50
-44
-46
-48
-53
-72
-81
-59
-26
1
27
29
-11
-44
-40
-39
-52
-52
-49
-50
-44
-55
-68
-32
-32
-108
-82
92
415
997
1274
481
-628
-764
-262
-52
-61
-9
-6
-36
-11
7
1
11
19
19
28
37
41
45
53
65
82
96
102
113
131
150
166
186
204
218
231
241
242
236
219
187
136
69
1
-57
-103
-137
-161
-176
-179
-177
-176
-169
-157
-151
-145
-137
-135
-136
-132
-126
-122
-120
-119
-118
-113
-107
-103
-93
