# session 25
-10
-26
5
38
-20
-125
-162
-150
-140
-138
-162
-150
-111
-186
-249
-147
57
758
1931
1935
184
-1150
-834
-252
-219
-184
-74
-100
-98
-38
-34
-32
1
19
37
72
100
123
154
192
234
281
328
372
413
449
476
490
487
466
425
360
273
178
87
1
-76
-138
-179
-201
-212
-219
-221
-216
-207
-199
-194
-190
-188
-188
-189
-192
-197
-201
-206
-212
-220
-229
-236
-240
-243
-244
-243
-250
-269
-291
-300
-295
-269
-213
-167
-176
-205
-201
-189
-190
-182
-177
-185
-169
-161
-184
-152
-134
-242
-280
-169
102
1000
2090
1628
-229
-1132
-595
-169
-216
-161
-89
-131
-108
-58
-61
-48
-13
6
30
63
88
118
158
201
251
306
361
417
470
517
553
577
587
578
544
482
398
302
205
116
40
-20
-60
-81
-91
-94
-90
-85
-81
-76
-70
-67
-64
-60
-58
-59
-60
-60
-64
-69
-74
-79
-85
-92
-98
-101
-104
-106
-106
-105
-106
-107
-104
-101
-100
-100
-97
-92
-87
-84
-80
-76
-72
-67
-61
-54
-50
-48
-46
-44
-43
-40
-35
-29
-26
-25
-23
-20
-16
-13
-11
-8
-6
-2
0
0
-2
-3
-1
-1
-1
0
-1
-3
-3
-2
-4
-5
-6
-7
-8
-6
-4
-3
-3
-3
-4
-4
-3
-4
-4
-2
0
1
0
-3
-5
-8
-12
-14
-15
-18
-23
-25
-27
-31
-35
-36
-39
-42
-44
-48
-59
-74
-77
-55
-18
-2
-21
-50
-63
-55
-50
-70
-72
-54
-79
-86
-33
-95
-215
-145
25
498
1577
2035
707
-838
-867
-288
-207
-235
-137
-150
-173
-127
-128
-144
-118
-100
-92
-70
-50
-28
2
29
56
90
128
167
205
238
273
308
331
347
364
372
361
335
291
226
154
81
9
-54
-103
-140
-164
-177
-182
-178
-172
-170
-157
-146
-151
-134
-123
-161
-104
78
-21
-613
-1196
-1329
-1228
-1064
-618
-47
63
-280
-489
-382
-215
-85
30
88
102
130
165
195
233
280
332
390
451
515
573
620
672
751
843
926
995
1033
1006
916
795
659
502
332
173
37
-76
-167
-236
-281
-306
-320
-325
-322
-314
-304
-292
-279
-262
-247
-238
-231
-221
-213
-209
-203
-193
-188
-186
-181
-175
-169
-161
-155
-153
-150
-144
-140
-138
-134
-132
-129
-120
-113
-111
-106
-98
-92
-84
-76
-72
-67
-59
-53
-48
-42
-36
-32
-27
-23
-20
-15
-9
-5
-1
6
10
11
11
13
18
21
21
21
23
29
35
34
33
37
42
44
44
48
50
46
45
49
50
46
44
47
49
46
43
44
45
44
43
45
47
47
43
37
35
37
38
34
31
31
27
20
17
18
14
8
7
8
4
-3
-8
-10
-13
-18
-21
-23
-28
-33
-36
-37
-44
-52
-65
-83
-90
-76
-50
-18
9
-1
-45
-79
-81
-70
-81
-97
-82
-88
-117
-79
-81
-196
-174
-3
284
1147
2043
1366
-398
-1049
-509
-220
-276
-196
-155
-207
-181
-150
-163
-149
-124
-111
-88
-63
-45
-18
12
38
67
100
135
171
205
238
274
311
339
362
383
399
401
386
356
311
249
177
102
37
-19
-68
-104
-121
-131
-139
-138
-142
-148
-143
-148
-159
-144
-158
-195
-92
43
-218
-858
-1317
-1366
-1268
-1061
-575
-109
-129
-442
-513
-312
-124
-22
41
73
95
111
113
130
182
236
276
319
369
423
496
604
726
833
926
1006
1056
1057
1008
910
763
583
398
227
75
-52
-146
-213
-264
-296
-303
-300
-298
-295
-289
-280
-268
-256
-246
-235
-222
-213
-207
-198
-190
-187
-183
-177
-173
-168
-162
-159
-158
-156
-152
-149
-148
-145
-138
-130
-124
-118
-106
-95
-90
-87
-79
-70
-61
-55
-51
-48
-43
-33
-23
-17
-13
-8
-4
1
6
8
9
14
21
24
24
25
28
30
33
34
37
41
43
42
43
44
45
47
46
42
41
43
43
41
39
34
33
37
37
31
27
27
25
21
21
22
18
14
10
2
-4
-3
-4
-11
-17
-18
-19
-20
-25
-39
-53
-46
-29
-16
-1
11
-4
-38
-61
-58
-48
-62
-68
-53
-72
-74
-27
-93
-195
-86
114
564
1567
1974
668
-860
-926
-359
-227
-218
-128
-151
-189
-173
-185
-184
-148
-133
-127
-98
-66
-43
-18
13
48
80
108
140
179
215
248
282
313
337
357
373
381
374
351
311
258
194
125
61
3
-49
-88
-109
-123
-135
-137
-136
-140
-137
-136
-147
-137
-135
-183
-134
26
-133
-804
-1441
-1546
-1324
-1071
-683
-218
-103
-369
-521
-368
-167
-49
42
86
80
89
125
151
171
214
285
356
416
487
570
645
718
806
898
974
1022
1037
1006
927
807
660
499
334
180
48
-58
-139
-198
-238
-259
-265
-263
-255
-246
-237
-228
-217
-208
-203
-197
-187
-181
-175
-166
-158
-154
-151
-147
-146
-148
-151
-149
-145
-145
-145
-141
-139
-140
-137
-127
-121
-121
-118
-112
-107
-105
-102
-99
-93
-87
-82
-76
-68
-63
-61
-59
-55
-54
-53
-51
-49
-46
-42
-38
-35
-31
-29
-30
-30
-29
-28
-29
-30
-30
-28
-26
-27
-29
-28
-27
-27
-26
-28
-33
-39
-49
-61
-59
-42
-20
10
34
18
-28
-57
-51
-42
-59
-66
-48
-69
-89
-42
-83
-195
-102
117
519
1456
1992
851
-759
-962
-370
-212
-239
-137
-136
-175
-134
-122
-132
-103
-79
-69
-45
-21
-1
27
54
80
112
145
178
217
258
293
327
363
394
418
437
447
438
408
360
297
225
151
81
18
-33
-71
-97
-111
-119
-127
-127
-121
-128
-132
-127
-141
-149
-135
-172
-196
-61
-13
-431
-1063
-1336
-1230
-1101
-943
-532
-91
-47
-273
-317
-146
-16
14
28
64
120
176
222
257
265
267
303
362
417
478
553
634
722
818
911
993
1044
1047
1002
913
779
615
443
271
105
-38
-149
-231
-285
-315
-328
-330
-322
-312
-302
-290
-277
-267
-259
-250
-241
-229
-218
-212
-206
-197
-191
-188
-187
-186
-183
-179
-182
-188
-185
-174
-168
-167
-163
-161
-160
-154
-145
-141
-138
-130
-123
-119
-116
-117
-114
-106
-100
-101
-100
-91
-82
-79
-78
-75
-71
-74
-80
-75
-67
-64
-61
-58
-60
-61
-60
-57
-51
-50
-52
-52
-50
-52
-58
-70
-79
-73
-62
-46
-11
28
26
-16
-52
-55
-41
-47
-61
-47
-55
-84
-40
-39
-170
-142
108
458
1281
2123
1420
-424
-1152
-579
-217
-232
-120
-64
-119
-82
-43
-65
-47
-15
-14
3
33
43
58
83
102
131
182
229
261
300
344
379
411
438
456
474
481
464
434
398
343
273
200
118
34
-31
-79
-117
-135
-137
-139
-144
-149
-156
-158
-159
-169
-174
-182
-207
-210
-208
-259
-246
-121
-146
-376
-467
-364
-398
-695
-989
-874
-331
70
-25
-227
-168
-26
-12
-59
-75
-63
-43
-21
5
35
68
108
161
219
274
340
424
511
597
690
781
853
896
902
870
799
689
549
399
249
102
-31
-138
-214
-261
-282
-285
-276
-263
-249
-237
-228
-219
-209
-204
-202
-195
-189
-188
-186
-182
-178
-175
-175
-181
-186
-183
-177
-175
-174
-170
-165
-163
-160
-155
-149
-145
-143
-141
-134
-126
-121
-116
-113
-112
-112
-110
-105
-99
-96
-95
-92
-88
-84
-83
-79
-78
-81
-81
-78
-79
-80
-74
-69
-72
-82
-98
-109
-99
-76
-46
-7
16
-4
-45
-70
-68
-61
-74
-80
-58
-67
-80
-28
-55
-172
-109
94
495
1481
2146
1069
-648
-956
-332
-128
-166
-65
-54
-103
-66
-51
-70
-52
-31
-22
-1
21
38
64
91
116
147
184
221
260
299
336
371
404
431
454
471
475
456
412
348
272
191
109
36
-24
-68
-100
-121
-125
-120
-121
-117
-112
-127
-131
-116
-154
-161
11
104
-274
-904
-1253
-1284
-1191
-846
-283
-51
-345
-619
-528
-314
-162
-29
56
71
100
168
221
248
303
386
430
433
458
515
573
633
704
780
849
902
928
915
854
750
621
476
322
177
55
-51
-149
-222
-261
-281
-297
-311
-316
-310
-300
-289
-276
-266
-261
-255
-246
-240
-237
-234
-230
-223
-219
-220
-220
-217
-215
-215
-211
-200
-190
-189
-186
-176
-169
-167
-162
-156
-153
-144
-129
-119
-117
-107
-94
-93
-91
-81
-80
-80
-63
-50
-56
-51
-35
-37
-45
-36
-32
-45
-53
-50
-51
-53
-55
-61
-64
-57
-56
-65
-66
-56
-52
-58
-64
-60
-61
-66
-55
-43
-46
-26
19
25
-9
-35
-47
-42
-26
-30
-37
-47
-61
-17
-3
-128
-148
52
392
1251
2245
1702
-226
-1162
-620
-194
-232
-143
-60
-128
-120
-61
-59
-56
-36
-31
-22
5
35
58
84
124
158
178
229
303
337
340
384
453
483
488
517
552
547
512
475
425
351
273
197
116
43
-4
-35
-63
-87
-101
-102
-92
-100
-128
-146
-149
-160
-175
-181
-200
-228
-235
-231
-245
-254
-245
-249
-277
-304
-320
-324
-318
-309
-276
-223
-217
-251
-257
-245
-236
-210
-208
-240
-233
-225
-258
-238
-219
-299
-314
-205
135
1088
1939
1163
-594
-1169
-561
-212
-237
-168
-124
-133
-81
-60
-67
-27
-7
-11
31
72
81
118
174
189
206
280
358
394
431
482
503
503
517
503
436
358
295
220
126
41
-10
-51
-104
-145
-155
-154
-154
-154
-152
-136
-108
-105
-132
-146
-134
-122
-128
-147
-166
-167
-164
-171
-179
-192
-211
-207
-188
-196
-219
-231
-241
-248
-251
-259
-237
-166
-116
-134
-154
-137
-119
-113
-117
-133
-120
-94
-124
-135
-86
-128
-205
-150
-8
555
1687
1964
464
-980
-821
-194
-135
-134
11
-27
-112
-49
7
-28
-51
-23
21
59
92
135
192
238
264
293
345
404
460
514
552
559
557
558
543
508
450
343
225
149
82
-9
-81
-121
-153
-161
-155
-176
-186
-149
-135
-176
-197
-182
-177
-172
-154
-152
-166
-171
-173
-175
-176
-184
-190
-190
-201
-201
-174
-174
-207
-203
-176
-182
-188
-193
-236
-254
-208
-193
-209
-151
-73
-101
-175
-187
-174
-175
-167
-164
-162
-141
-150
-157
-95
-116
-232
-208
-41
466
1555
2045
737
-878
-931
-256
-134
-193
-60
-36
-92
-51
-14
-27
-20
5
37
72
88
110
158
192
215
259
300
337
407
459
451
459
509
523
484
434
388
334
264
172
79
13
-33
-79
-104
-93
-90
-122
-135
-109
-89
-88
-88
-99
-98
-64
-54
-82
-81
-51
-36
-6
1
-113
-253
-272
-230
-212
-193
-181
-197
-188
-160
-170
-194
-191
-185
-178
-167
-177
-178
-137
-121
-155
-167
-140
-135
-145
-132
-110
-118
-144
-156
-157
-155
-138
-113
-92
-59
-34
-49
-80
-98
-97
-75
-71
-94
-74
-45
-85
-81
-49
-140
-180
-56
182
969
2045
1731
-66
-1082
-624
-159
-164
-120
-75
-124
-81
-19
-47
-40
15
17
3
49
105
113
114
147
191
231
272
310
352
399
418
423
448
456
430
414
405
350
255
171
104
31
-36
-75
-98
-113
-110
-98
-99
-96
-79
-73
-85
-85
-68
-64
-81
-80
-69
-93
-143
-162
-152
-154
-171
-184
-194
-199
-191
-194
-210
-192
-157
-171
-210
-207
-178
-168
-166
-158
-148
-134
-120
-114
-107
-91
-81
-85
-91
-91
-90
-79
-51
-21
9
40
34
-13
-47
-57
-63
-59
-64
-76
-61
-59
-82
-47
-47
-168
-178
-15
336
1216
1975
1154
-591
-1136
-516
-169
-185
-96
-49
-96
-73
-38
-45
-33
-5
12
29
52
78
101
121
150
185
217
253
293
327
359
388
415
435
432
408
386
357
296
215
139
63
-10
-69
-110
-136
-150
-153
-147
-143
-141
-127
-108
-103
-101
-89
-94
-122
-135
-123
-129
-153
-162
-162
-169
-174
-170
-169
-169
-166
-160
-151
-153
-173
-178
-157
-143
-154
-167
-176
-185
-186
-187
-188
-175
-163
-186
-207
-181
-146
-122
-75
-43
-73
-115
-122
-113
-99
-93
-96
-80
-84
-116
-75
-42
-155
-197
-52
233
1055
2066
1623
-203
-1142
-637
-175
-172
-110
-44
-76
-51
-13
-16
11
40
33
44
85
118
141
167
196
222
254
309
369
405
429
463
503
528
520
484
443
399
330
239
146
61
-7
-62
-109
-143
-151
-138
-118
-93
-82
-100
-121
-107
-84
-84
-84
-76
-85
-104
-117
-130
-136
-134
-142
-159
-166
-156
-145
-157
-185
-187
-166
-157
-162
-167
-174
-168
-155
-169
-189
-173
-159
-173
-171
-150
-152
-169
-168
-171
-188
-184
-144
-89
-43
-38
-78
-112
-106
-89
-86
-100
-117
-103
-91
-112
-83
-53
-150
-197
-67
180
907
1907
1651
-21
-1025
-616
-155
-159
-124
-63
-111
-95
-37
-43
-44
-6
10
11
37
80
107
120
147
192
235
269
312
364
408
436
464
486
480
454
436
403
323
237
182
102
-18
-99
-123
-147
-171
-168
-151
-137
-127
-117
-100
-83
-85
-88
-73
-71
-90
-101
-94
-86
-85
-93
-109
-125
-127
-123
-127
-140
-150
-151
-148
-154
-161
-140
-113
-126
-150
-144
-134
-122
-96
-90
-112
-107
-79
-82
-111
-117
-99
-92
-104
-111
-115
-123
-116
-93
-65
-27
-2
-25
-60
-71
-93
-105
-70
-69
-109
-97
-84
-103
-71
-83
-181
-143
44
407
1200
1695
771
-674
-927
-349
-115
-148
-89
-73
-94
-44
-3
-26
-64
-62
-10
33
42
70
107
116
131
168
188
212
267
318
338
350
368
382
379
362
349
329
271
188
114
55
-7
-70
-114
-118
-98
-96
-111
-104
-88
-93
-92
-76
-74
-71
-62
-78
-91
-68
-55
-78
-95
-97
-96
-83
-75
-90
-95
-85
-90
-96
-82
-80
-93
-83
-66
-67
-70
-64
-59
-56
-51
-45
-40
-37
-29
-24
-40
-54
-36
-8
-5
-17
-30
-41
-30
0
17
37
82
84
5
-55
-20
29
15
