# session 29
-48
-55
-15
-97
-304
-410
-381
-370
-389
-376
-357
-349
-336
-323
-311
-295
-287
-288
-297
-312
-308
-276
-232
-178
-134
-145
-185
-190
-176
-173
-165
-164
-166
-144
-144
-159
-117
-125
-211
-156
48
478
1368
1813
659
-903
-1035
-334
-99
-128
-37
-21
-55
-13
13
11
36
55
60
82
106
122
145
172
194
219
249
280
311
343
371
392
408
423
431
426
411
387
344
279
199
118
44
-15
-58
-91
-110
-111
-106
-105
-104
-96
-87
-82
-80
-79
-80
-82
-84
-86
-87
-95
-105
-110
-111
-115
-122
-129
-134
-136
-136
-138
-145
-150
-148
-144
-144
-146
-142
-136
-136
-137
-129
-120
-121
-122
-118
-113
-109
-105
-109
-122
-135
-133
-118
-94
-50
-2
-6
-55
-81
-78
-77
-73
-80
-91
-77
-78
-95
-57
-65
-168
-127
94
514
1363
1844
748
-887
-1120
-394
-97
-123
-37
-13
-49
-10
17
11
34
55
57
72
92
106
126
148
169
192
218
245
273
302
328
349
369
387
394
389
377
349
301
237
163
86
15
-45
-92
-123
-141
-148
-148
-143
-134
-126
-123
-123
-118
-114
-114
-116
-114
-112
-115
-121
-124
-125
-130
-137
-142
-145
-149
-150
-150
-150
-148
-147
-149
-149
-145
-144
-141
-136
-134
-133
-128
-124
-126
-124
-118
-114
-110
-104
-105
-119
-139
-147
-133
-102
-58
-15
-8
-46
-81
-87
-84
-79
-84
-96
-80
-72
-98
-72
-51
-144
-159
2
301
1053
1844
1253
-425
-1103
-499
-72
-110
-67
-8
-46
-29
13
12
25
44
49
65
87
99
116
140
161
185
210
235
264
297
326
348
369
389
402
405
398
375
331
268
193
114
42
-20
-73
-111
-131
-138
-138
-133
-128
-122
-116
-113
-110
-106
-103
-104
-104
-104
-106
-109
-111
-113
-118
-125
-129
-131
-132
-133
-136
-140
-140
-139
-141
-142
-140
-138
-135
-130
-126
-127
-127
-125
-125
-123
-120
-117
-114
-109
-106
-109
-124
-143
-140
-112
-77
-37
-9
-28
-68
-83
-84
-87
-87
-94
-92
-71
-86
-95
-46
-87
-185
-100
137
650
1560
1748
347
-1050
-911
-231
-102
-122
-25
-33
-59
-16
-2
4
35
39
37
64
87
100
122
148
168
195
227
253
277
303
328
354
376
391
394
389
374
345
296
228
148
71
3
-56
-105
-137
-152
-159
-162
-151
-136
-131
-133
-129
-120
-113
-114
-122
-125
-121
-118
-120
-124
-130
-135
-137
-139
-146
-151
-152
-152
-153
-151
-147
-146
-144
-141
-136
-130
-128
-132
-137
-136
-140
-158
-167
-146
-114
-79
-38
-32
-74
-107
-106
-100
-97
-102
-107
-85
-81
-115
-88
-66
-159
-162
21
355
1151
1922
1218
-544
-1197
-548
-117
-138
-69
-12
-56
-26
18
5
18
49
52
61
86
105
125
146
158
170
201
241
272
302
351
398
409
392
389
403
395
354
298
229
150
71
-4
-73
-118
-142
-161
-172
-167
-157
-154
-149
-143
-143
-147
-138
-119
-107
-113
-120
-114
-109
-119
-132
-137
-139
-140
-141
-144
-153
-161
-162
-160
-161
-163
-161
-157
-154
-150
-146
-147
-144
-133
-128
-137
-153
-168
-177
-168
-129
-70
-25
-30
-69
-97
-98
-85
-72
-83
-93
-68
-62
-81
-45
-51
-152
-131
46
436
1343
1978
1014
-628
-957
-300
-42
-115
-54
-23
-60
-32
-9
-13
5
22
33
57
72
83
106
127
146
180
210
228
255
292
320
347
373
382
384
392
381
336
273
200
121
49
-14
-73
-121
-148
-158
-161
-164
-168
-166
-155
-143
-131
-123
-123
-126
-127
-129
-128
-122
-116
-118
-122
-125
-128
-133
-138
-141
-141
-139
-139
-138
-136
-135
-137
-141
-139
-127
-120
-124
-126
-121
-119
-121
-127
-136
-131
-104
-69
-32
-1
-8
-51
-80
-84
-80
-74
-75
-79
-67
-71
-86
-53
-58
-157
-149
32
423
1211
1699
796
-670
-964
-353
-71
-100
-37
-13
-51
-24
5
0
14
33
35
47
68
81
95
118
143
158
176
207
236
254
277
304
314
314
322
327
311
277
228
167
99
33
-25
-73
-110
-133
-144
-146
-143
-140
-139
-134
-123
-112
-105
-100
-95
-92
-90
-87
-87
-91
-93
-90
-90
-94
-97
-97
-98
-101
-102
-101
-97
-98
-100
-93
-86
-87
-85
-79
-77
-79
-80
-81
-80
-85
-104
-113
-85
-45
-21
0
10
-21
-60
-69
-68
-71
-73
-83
-82
-70
-88
-88
-50
-97
-175
-94
160
719
1452
1291
-84
-1079
-764
-197
-103
-87
-17
-34
-37
5
7
6
27
39
47
65
77
88
105
123
142
165
190
216
241
263
282
301
317
326
327
321
304
272
220
156
90
26
-35
-83
-116
-134
-139
-139
-138
-134
-122
-110
-101
-93
-87
-85
-83
-82
-82
-82
-84
-90
-99
-104
-107
-112
-118
-120
-120
-122
-124
-120
-116
-116
-117
-114
-111
-112
-112
-111
-114
-114
-109
-107
-109
-113
-125
-140
-132
-100
-67
-31
-10
-37
-84
-97
-90
-89
-88
-97
-99
-82
-92
-99
-53
-83
-175
-111
111
606
1470
1658
328
-1048
-958
-281
-107
-109
-14
-14
-38
4
18
20
48
62
62
79
99
113
132
153
175
197
223
253
279
302
328
353
369
377
382
379
362
327
272
200
123
50
-16
-74
-119
-146
-157
-158
-154
-146
-136
-129
-122
-113
-105
-103
-102
-100
-97
-99
-101
-102
-104
-112
-118
-124
-132
-137
-138
-138
-137
-136
-138
-137
-133
-131
-133
-132
-128
-124
-121
-119
-117
-115
-112
-113
-117
-126
-138
-137
-114
-80
-40
-14
-30
-70
-85
-82
-82
-78
-82
-91
-78
-81
-98
-59
-65
-160
-133
40
416
1263
1799
808
-752
-1008
-347
-79
-114
-41
-25
-65
-28
-2
-13
8
34
39
52
70
80
97
120
139
160
189
219
252
291
322
337
356
377
379
367
358
337
288
224
152
72
-3
-61
-103
-132
-149
-158
-161
-156
-146
-134
-126
-120
-111
-101
-94
-93
-98
-102
-97
-90
-91
-98
-100
-103
-111
-117
-113
-108
-116
-126
-120
-106
-107
-112
-105
-101
-105
-99
-98
-115
-120
-95
-82
-96
-103
-94
-87
-88
-92
-97
-102
-112
-122
-110
-80
-46
-10
7
-23
-66
-75
-71
-73
-76
-82
-77
-69
-90
-80
-27
-79
-162
-73
155
684
1525
1553
204
-930
-703
-146
-80
-97
-25
-41
-55
-15
-6
-5
13
19
24
43
59
71
88
107
125
147
172
196
228
263
285
294
309
327
335
330
312
278
230
171
104
39
-17
-64
-100
-121
-134
-140
-135
-127
-125
-122
-111
-100
-93
-86
-81
-76
-71
-69
-72
-72
-71
-73
-76
-78
-84
-90
-93
-96
-99
-101
-102
-102
-101
-100
-98
-95
-94
-97
-98
-97
-92
-88
-90
-93
-88
-81
-85
-98
-114
-122
-106
-75
-44
-15
-6
-37
-73
-80
-81
-82
-81
-93
-94
-80
-98
-96
-53
-108
-191
-93
158
722
1556
1505
85
-1037
-768
-193
-115
-114
-39
-57
-63
-23
-20
-20
5
19
28
44
58
75
96
116
136
160
186
214
243
271
296
318
337
351
358
358
342
308
254
185
111
41
-24
-81
-121
-145
-158
-161
-159
-155
-147
-137
-128
-120
-113
-110
-109
-106
-104
-106
-108
-107
-105
-107
-114
-118
-121
-126
-128
-127
-128
-132
-130
-122
-121
-123
-118
-111
-110
-108
-104
-102
-101
-97
-93
-94
-91
-84
-82
-90
-106
-113
-99
-69
-30
8
13
-24
-54
-55
-53
-51
-52
-65
-57
-43
-65
-51
-18
-98
-154
-28
247
934
1803
1490
-107
-1026
-577
-91
-93
-71
-5
-40
-35
5
-2
1
24
30
41
61
72
84
106
128
150
174
199
227
259
291
319
343
360
371
376
372
350
309
247
171
91
15
-52
-105
-141
-163
-173
-175
-171
-165
-158
-151
-145
-138
-132
-127
-121
-120
-122
-121
-119
-120
-122
-125
-130
-134
-139
-143
-145
-146
-147
-145
-141
-141
-141
-139
-136
-136
-136
-133
-129
-128
-126
-123
-118
-112
-110
-111
-110
-107
-106
-105
-103
-108
-124
-131
-113
-83
-49
-11
2
-32
-66
-68
-66
-67
-65
-73
-68
-53
-72
-66
-25
-88
-157
-44
194
769
1657
1616
160
-956
-665
-123
-82
-80
1
-20
-27
17
17
16
40
50
56
77
94
106
124
145
168
193
218
242
270
302
329
350
368
382
388
385
372
343
294
228
152
76
10
-43
-88
-125
-139
-137
-135
-135
-129
-122
-116
-111
-109
-108
-103
-100
-106
-111
-109
-109
-115
-118
-119
-124
-128
-131
-136
-141
-143
-142
-140
-136
-135
-136
-134
-130
-130
-133
-131
-127
-126
-127
-127
-125
-124
-123
-117
-110
-106
-105
-108
-119
-135
-132
-108
-79
-41
-8
-23
-70
-90
-88
-91
-85
-85
-93
-80
-82
-101
-60
-58
-159
-131
86
495
1321
1849
866
-744
-1066
-402
-105
-132
-43
-8
-49
-22
4
-1
19
37
38
53
74
89
110
134
154
178
206
234
262
291
317
342
363
379
392
395
382
359
323
265
190
112
37
-28
-82
-123
-149
-159
-160
-159
-155
-145
-134
-124
-117
-113
-112
-109
-107
-108
-109
-111
-117
-122
-125
-129
-137
-142
-143
-145
-149
-151
-148
-147
-150
-151
-147
-144
-144
-144
-142
-139
-137
-133
-128
-124
-121
-120
-123
-132
-143
-143
-127
-96
-50
-10
-20
-65
-86
-82
-81
-77
-79
-88
-74
-72
-95
-63
-50
-150
-155
5
322
1147
1944
1251
-455
-1060
-455
-86
-123
-60
-14
-56
-30
5
-6
7
32
38
51
70
82
100
124
145
170
201
232
265
298
329
360
388
406
415
417
406
380
335
267
183
102
30
-37
-92
-129
-150
-159
-159
-153
-147
-142
-136
-128
-121
-117
-112
-106
-104
-103
-101
-100
-102
-105
-107
-110
-116
-121
-125
-128
-131
-135
-137
-137
-135
-135
-137
-136
-132
-132
-134
-133
-128
-122
-120
-120
-117
-111
-108
-106
-107
-108
-101
-89
-87
-94
-100
-110
-126
-121
-92
-54
-16
3
-22
-60
-69
-68
-68
-61
-67
-75
-59
-68
-84
-39
-54
-153
-106
86
483
1335
1809
771
-715
-895
-274
-66
-104
-27
-14
-46
-10
8
0
19
35
38
54
71
83
100
123
146
170
191
217
247
275
302
331
359
376
386
392
388
367
325
266
192
110
32
-31
-79
-115
-136
-144
-148
-150
-148
-144
-141
-139
-133
-124
-115
-111
-110
-106
-102
-103
-108
-111
-115
-120
-125
-127
-131
-135
-137
-139
-140
-139
-139
-139
-136
-132
-129
-129
-128
-127
-126
-127
-128
-125
-121
-118
-118
-119
-122
-128
-138
-146
-135
-106
-72
-37
-14
-37
-79
-90
-82
-84
-84
-87
-88
-69
-75
-93
-50
-61
-166
-127
63
426
1278
1853
852
-770
-1048
-367
-93
-125
-38
-16
-56
-17
11
4
26
47
52
68
86
98
117
142
164
187
214
242
275
312
345
371
391
408
422
426
416
387
338
268
185
103
29
-36
-92
-137
-158
-160
-159
-159
-150
-137
-128
-122
-112
-100
-95
-98
-101
-98
-93
-91
-90
-93
-99
-105
-110
-115
-123
-131
-134
-135
-138
-142
-143
-145
-145
-144
-141
-139
-138
-138
-136
-132
-127
-122
-121
-119
-113
-108
-106
-104
-105
-113
-128
-149
-162
-147
-107
-60
-19
-17
-57
-87
-86
-87
-87
-89
-101
-90
-76
-101
-87
-57
-146
-195
-63
214
989
2009
1728
16
-984
-550
-99
-136
-111
-41
-82
-74
-30
-37
-29
-1
4
15
34
44
62
90
114
141
172
196
226
272
314
347
383
415
432
442
445
422
368
295
210
121
39
-33
-95
-138
-163
-182
-191
-185
-178
-176
-168
-152
-140
-133
-123
-112
-112
-114
-108
-105
-110
-109
-106
-113
-121
-122
-128
-138
-139
-140
-148
-149
-139
-135
-143
-144
-132
-130
-144
-151
-141
-133
-132
-134
-144
-166
-182
-183
-171
-133
-73
-45
-74
-106
-110
-110
-107
-102
-108
-101
-93
-114
-96
-58
-142
-217
-105
221
1099
2232
1986
154
-1022
-641
-149
-167
-140
-59
-100
-95
-41
-41
-41
-19
-7
7
30
47
66
92
116
143
175
208
249
299
342
377
417
456
477
485
481
454
391
295
184
79
-18
-103
-162
-195
-221
-241
-249
-250
-245
-233
-222
-211
-196
-181
-170
-158
-148
-141
-137
-142
-146
-140
-135
-140
-149
-152
-153
-158
-166
-171
-170
-165
-161
-160
-163
-163
-158
-157
-159
-156
-151
-146
-140
-134
-133
-140
-154
-165
-162
-152
-131
-77
-24
-32
-73
-86
-80
-75
-70
-76
-76
-66
-85
-86
-39
-91
-195
-142
79
763
2005
2362
832
-769
-754
-166
-103
-137
-40
-55
-80
-30
-17
-14
21
39
43
62
80
97
120
145
173
205
237
272
314
358
400
442
476
501
518
522
499
447
368
267
162
69
-8
-70
-118
-151
-167
-170
-179
-184
-167
-145
-140
-138
-130
-122
-115
-107
-110
-116
-112
-115
-126
-121
-117
-143
-171
-176
-173
-170
-159
-143
-153
-199
-210
-174
-199
-269
-248
-176
-163
-191
-222
-234
-214
-237
-297
-274
-229
-289
-328
-259
-249
-302
-265
-208
-167
-84
-165
-378
-292
-20
-7
-140
-242
-306
-146
49
-122
-327
-236
-162
-194
-77
558
1925
2690
1277
-733
-904
-97
-4
-179
-51
-9
-110
-96
-2
47
33
24
61
70
42
87
180
201
182
222
280
277
279
359
437
460
509
581
590
561
537
486
395
289
197
130
49
-54
-127
-167
-205
-216
-192
-187
-212
-212
-178
-180
-215
-188
-116
-105
-138
-141
-135
-146
-145
-137
-152
-167
-147
-117
-115
-138
-149
-140
-131
-128
-119
-117
-122
-112
-89
-85
-94
-90
-77
-69
-64
-59
-55
-49
-39
-30
-24
-23
-25
-32
-36
-30
-12
29
85
111
89
61
55
57
64
72
72
76
83
79
88
100
53
1
34
