# session 41
-30
-56
6
17
-183
-431
-467
-381
-385
-409
-355
-324
-361
-371
-346
-314
-264
-296
-392
-346
-102
535
1600
1859
447
-989
-907
-312
-239
-236
-115
-128
-125
-50
-59
-53
19
21
-22
-21
1
58
127
121
88
115
157
162
155
182
259
324
320
311
353
399
402
371
368
421
420
268
68
-22
3
17
-70
-170
-168
-111
-110
-160
-155
-62
-10
-79
-138
-89
-23
-23
-51
-55
-47
-69
-109
-101
-64
-71
-88
-62
-53
-89
-99
-81
-89
-104
-105
-111
-104
-73
-76
-121
-138
-96
-51
-84
-158
-188
-201
-168
-22
58
-32
-59
0
-82
-174
-75
-55
-283
-343
-38
128
-52
-135
-95
-247
-296
189
1045
1666
1303
17
-878
-619
-74
-107
-302
-108
24
-190
-111
170
-94
-383
-10
332
153
-63
-54
30
64
114
271
267
62
148
392
245
10
122
295
286
236
239
254
283
394
468
238
-143
-206
-12
-92
-423
-383
17
10
-501
-749
-440
-12
179
92
-104
-125
9
-8
-167
-194
-105
-77
-96
-110
-147
-174
-139
-80
-57
-69
-88
-109
-121
-128
-164
-200
-169
-114
-111
-129
-111
-88
-72
-23
4
-74
-139
-90
-60
-78
5
86
19
18
147
92
-111
-86
64
-13
-112
53
136
-79
-128
151
272
94
-11
181
708
1381
1412
389
-572
-445
-8
-48
-22
164
-14
-156
53
57
-40
169
298
244
162
-153
-249
219
362
-9
14
303
112
-252
-68
419
375
-68
-26
384
416
228
237
210
70
137
293
146
-169
-259
-122
32
72
-65
-225
-200
-158
-265
-225
2
-72
-324
-142
101
-272
-623
-256
92
-161
-368
-189
-91
-133
13
119
-212
-553
-307
56
-122
-365
-184
-61
-235
-304
-197
-79
22
-22
-181
-165
-42
-118
-286
-251
-50
51
-84
-213
-40
205
119
-127
-155
-96
-197
-204
8
2
-146
104
301
-107
-375
-90
14
-157
48
748
1487
1448
313
-652
-449
-80
-247
-130
290
148
-177
80
339
4
-253
-7
111
-40
112
348
186
73
175
-6
-141
190
358
165
142
190
79
112
271
247
210
360
375
155
122
244
79
-174
-102
39
-46
-151
-99
-12
-21
-121
-213
-185
-34
50
-80
-212
-104
40
-43
-189
-145
-1
-9
-144
-155
-50
-46
-89
-59
-76
-149
-114
-34
-71
-158
-146
-48
7
-49
-128
-135
-101
-62
-35
-72
-125
-106
-89
-99
-59
-25
-47
-28
4
-50
-104
-74
-29
-45
-111
-135
-61
0
-57
-132
-101
-39
-58
-96
-71
39
501
1329
1528
478
-615
-621
-193
-103
-114
-35
-26
-48
-13
3
-21
-9
28
16
-21
1
59
78
69
73
78
81
118
175
196
196
214
222
217
252
297
286
264
260
222
177
162
115
35
-7
-30
-62
-76
-102
-151
-155
-122
-110
-95
-78
-119
-174
-139
-72
-84
-121
-103
-93
-121
-134
-139
-157
-152
-133
-136
-140
-139
-156
-144
-89
-87
-150
-172
-141
-131
-142
-134
-125
-120
-105
-98
-104
-89
-82
-135
-185
-158
-107
-94
-71
-5
14
-63
-140
-134
-99
-89
-92
-93
-79
-70
-111
-127
-43
-41
-142
-58
163
483
1239
1752
812
-654
-867
-287
-101
-91
45
36
-30
12
2
-41
27
112
105
72
65
67
77
93
118
178
239
219
179
227
262
191
183
288
305
257
331
407
323
239
250
202
95
56
40
-32
-95
-94
-83
-124
-169
-134
-80
-113
-167
-160
-144
-129
-82
-82
-149
-151
-81
-73
-123
-147
-149
-142
-111
-95
-137
-173
-126
-82
-134
-176
-134
-103
-103
-118
-181
-162
-20
-15
-156
-167
-111
-147
-110
15
0
-92
-82
-75
-153
-193
-166
-135
-86
-37
-66
-145
-166
-120
-123
-173
-114
-13
69
604
1519
1486
205
-704
-523
-179
-81
5
5
-47
4
27
-16
4
47
49
31
13
52
120
99
55
109
158
118
92
144
215
246
242
232
225
231
272
309
298
276
257
205
149
99
-6
-95
-66
-30
-99
-165
-138
-111
-134
-136
-107
-103
-106
-94
-97
-112
-110
-101
-97
-115
-155
-148
-85
-84
-151
-145
-73
-65
-120
-147
-137
-128
-145
-146
-94
-72
-114
-114
-89
-121
-118
-62
-93
-146
-101
-80
-131
-116
-58
-39
-15
-23
-105
-127
-50
-42
-111
-113
-48
-19
-59
-128
-125
-53
-90
-167
-40
193
561
1254
1472
436
-680
-628
-168
-138
-134
49
102
37
26
80
99
4
-67
1
34
-9
50
136
91
47
106
194
247
201
117
191
337
307
229
321
404
295
190
200
167
154
257
217
15
-10
13
-181
-307
-183
-105
-157
-159
-124
-143
-171
-155
-110
-89
-108
-118
-93
-80
-106
-128
-109
-84
-100
-124
-119
-129
-141
-103
-88
-131
-122
-80
-119
-152
-94
-62
-106
-111
-60
-63
-140
-190
-166
-124
-97
-61
-24
-22
-62
-114
-128
-90
-62
-101
-167
-167
-113
-133
-183
-112
-51
-125
-114
45
360
1105
1651
826
-615
-929
-368
-118
-126
-41
-42
-121
-90
-17
-26
-69
-41
49
89
65
70
118
155
172
168
130
109
172
260
278
289
344
349
303
315
355
345
332
341
305
236
186
119
56
66
73
-8
-76
-63
-45
-45
-32
-26
-35
-51
-89
-123
-98
-46
-39
-85
-130
-113
-60
-79
-175
-221
-184
-154
-153
-145
-147
-166
-175
-176
-180
-172
-167
-184
-198
-182
-148
-118
-119
-174
-250
-243
-147
-115
-154
-104
-39
-117
-195
-154
-135
-188
-211
-171
-110
-113
-201
-189
-72
-148
-322
-208
59
442
1346
1938
866
-783
-1014
-324
-89
-145
-55
-12
-37
-21
-3
28
51
6
-11
54
90
87
119
140
122
144
206
237
245
253
251
266
315
352
357
362
384
396
378
344
307
250
166
95
61
7
-94
-153
-127
-108
-139
-150
-108
-78
-101
-134
-130
-105
-96
-116
-153
-172
-152
-129
-137
-147
-135
-128
-151
-173
-172
-165
-162
-152
-145
-141
-119
-104
-137
-173
-160
-144
-173
-191
-137
-56
-33
-63
-90
-93
-91
-95
-110
-131
-136
-102
-79
-127
-153
-84
-102
-213
-176
12
519
1571
2043
787
-776
-850
-208
-60
-109
-38
-41
-44
15
5
-24
3
16
20
53
57
41
67
106
117
136
162
168
194
254
273
233
216
256
297
302
298
305
302
271
220
158
84
11
-46
-91
-125
-150
-170
-186
-192
-194
-193
-188
-188
-190
-189
-190
-194
-186
-176
-184
-199
-195
-176
-170
-174
-174
-171
-171
-168
-160
-156
-155
-146
-135
-132
-135
-136
-137
-148
-165
-167
-144
-108
-71
-48
-66
-103
-110
-102
-107
-103
-95
-103
-90
-71
-88
-71
-54
-139
-151
5
277
1002
1875
1440
-218
-1022
-489
-38
-62
-27
28
-19
0
52
39
29
54
74
87
100
113
129
149
170
184
192
205
227
252
272
286
300
316
332
348
359
357
353
340
295
225
165
115
50
-18
-64
-88
-104
-117
-124
-122
-119
-124
-132
-136
-139
-140
-139
-145
-158
-166
-174
-183
-185
-190
-205
-211
-202
-198
-209
-217
-215
-208
-202
-207
-222
-229
-217
-191
-155
-114
-94
-120
-159
-164
-157
-161
-151
-143
-155
-148
-137
-158
-136
-107
-192
-217
-49
256
1000
1870
1386
-380
-1247
-675
-174
-166
-83
-1
-56
-41
18
12
14
44
57
69
87
104
122
135
144
167
193
202
214
246
272
279
289
312
333
344
347
350
353
334
282
215
147
71
-3
-58
-99
-130
-147
-156
-162
-159
-153
-153
-155
-155
-157
-159
-160
-166
-173
-176
-183
-190
-190
-187
-187
-190
-187
-178
-173
-177
-181
-184
-192
-198
-189
-171
-135
-78
-56
-98
-133
-124
-119
-126
-123
-127
-124
-102
-116
-126
-75
-101
-189
-131
37
511
1542
1972
665
-885
-907
-248
-99
-110
3
-1
-31
22
38
25
47
64
68
82
98
114
134
148
160
180
202
217
233
253
270
285
302
319
328
335
342
338
320
287
235
159
77
12
-37
-81
-116
-135
-148
-155
-152
-147
-153
-160
-162
-164
-169
-172
-173
-178
-188
-196
-195
-195
-199
-201
-200
-198
-197
-199
-201
-198
-206
-230
-242
-227
-195
-148
-103
-102
-135
-145
-137
-143
-143
-135
-144
-137
-117
-134
-127
-89
-149
-205
-122
45
661
1755
1847
294
-948
-655
-91
-81
-97
-8
-32
-42
5
7
8
35
44
49
67
80
93
112
128
141
163
184
197
213
235
254
267
278
290
298
301
299
287
261
219
161
93
29
-23
-62
-93
-115
-129
-136
-138
-140
-138
-135
-137
-141
-140
-140
-147
-155
-158
-159
-162
-167
-169
-170
-170
-170
-168
-167
-166
-162
-160
-161
-166
-180
-196
-191
-161
-124
-82
-56
-78
-118
-124
-116
-120
-112
-109
-124
-112
-98
-123
-106
-76
-155
-187
-76
138
846
1811
1510
-142
-1041
-531
-47
-78
-59
14
-22
-17
26
21
23
46
55
64
82
95
108
124
138
152
169
188
205
219
232
249
267
282
293
302
312
317
306
276
233
180
113
40
-19
-58
-86
-108
-122
-131
-134
-132
-129
-127
-126
-129
-134
-136
-134
-136
-143
-148
-150
-148
-150
-157
-160
-157
-158
-160
-155
-149
-150
-148
-142
-141
-141
-138
-138
-142
-146
-156
-169
-163
-135
-99
-58
-31
-52
-94
-103
-97
-99
-97
-102
-112
-94
-94
-118
-82
-71
-165
-160
-6
316
1156
1911
1143
-540
-1044
-395
-47
-99
-38
7
-33
-6
26
15
31
59
66
77
93
105
119
132
144
162
181
194
203
215
232
251
267
275
282
293
301
304
300
282
245
191
125
54
-8
-58
-95
-118
-131
-138
-139
-140
-143
-141
-139
-139
-137
-134
-140
-148
-151
-153
-158
-165
-169
-170
-172
-175
-173
-168
-165
-167
-166
-163
-162
-160
-155
-148
-141
-138
-137
-134
-129
-128
-134
-144
-153
-151
-132
-99
-53
-20
-39
-84
-95
-87
-90
-89
-90
-100
-85
-78
-99
-67
-56
-147
-141
13
323
1156
1933
1178
-549
-1092
-429
-54
-90
-11
40
-6
20
57
47
59
82
85
95
115
131
144
157
173
191
203
217
235
250
261
275
287
293
296
297
299
302
300
281
245
191
124
55
-1
-41
-77
-107
-121
-122
-120
-114
-107
-107
-112
-114
-113
-112
-113
-118
-125
-130
-136
-142
-147
-153
-158
-156
-153
-154
-160
-162
-157
-153
-154
-153
-147
-145
-146
-143
-139
-138
-139
-137
-133
-128
-126
-127
-125
-120
-118
-118
-115
-111
-112
-119
-133
-137
-122
-90
-47
-9
-18
-61
-80
-76
-79
-76
-74
-86
-76
-67
-91
-67
-38
-121
-146
-20
200
901
1829
1472
-173
-1000
-467
-20
-62
-29
38
-3
10
53
45
49
71
75
86
108
119
129
145
162
178
194
209
224
240
257
273
284
292
303
312
317
322
321
307
278
234
172
102
39
-15
-57
-83
-100
-111
-116
-116
-114
-109
-106
-108
-112
-110
-108
-112
-120
-123
-124
-129
-137
-143
-146
-146
-147
-151
-151
-145
-142
-146
-148
-144
-140
-138
-137
-137
-138
-136
-133
-132
-131
-129
-126
-123
-121
-118
-118
-120
-122
-118
-113
-112
-112
-109
-106
-103
-103
-104
-101
-97
-97
-98
-101
-112
-123
-116
-88
-50
-9
4
-30
-65
-62
-61
-71
-63
-63
-71
-56
-62
-73
-27
-46
-142
-92
67
425
1334
1920
894
-652
-835
-189
2
-55
27
40
7
50
71
60
84
101
98
110
129
137
147
164
183
197
208
223
243
261
276
291
305
313
320
329
337
340
336
321
291
245
184
113
44
-10
-50
-78
-97
-106
-109
-111
-114
-114
-111
-109
-109
-109
-108
-110
-115
-117
-116
-123
-136
-141
-143
-149
-156
-158
-159
-158
-156
-154
-153
-154
-155
-153
-152
-151
-148
-146
-146
-144
-139
-138
-138
-134
-131
-133
-136
-135
-133
-129
-128
-129
-127
-123
-123
-121
-119
-121
-124
-121
-117
-117
-115
-113
-116
-116
-109
-103
-100
-98
-100
-108
-121
-131
-122
-92
-57
-22
-8
-35
-71
-74
-73
-82
-79
-77
-78
-58
-65
-80
-30
-42
-145
-95
96
474
1374
1966
936
-674
-911
-248
-22
-66
25
45
10
49
70
63
88
108
109
124
143
158
172
183
201
227
246
259
275
293
310
327
342
353
362
368
376
386
389
380
357
317
259
194
127
63
15
-17
-42
-57
-59
-57
-55
-49
-42
-40
-41
-37
-30
-31
-39
-43
-44
-48
-55
-59
-63
-71
-76
-76
-78
-83
-84
-82
-79
-78
-77
-76
-75
-75
-77
-78
-77
-77
-77
-76
-74
-74
-74
-74
-77
-82
-84
-84
-85
-86
-90
-92
-92
-98
-107
-108
-105
-108
-112
-116
-120
-123
-126
-130
-136
-143
-147
-152
-163
-179
-186
-175
-154
-122
-91
-102
-154
-181
-177
-182
-191
-194
-202
-192
-191
-222
-202
-180
-276
-300
-155
78
764
1658
1278
-356
-1163
-635
-206
-250
-212
-144
-184
-175
-138
-147
-136
-110
-105
-98
-77
-62
-50
-38
-22
-4
15
37
61
81
97
118
141
161
178
192
204
218
224
212
187
153
99
31
-30
-82
-129
-161
-173
-176
-175
-167
-151
-138
-130
-118
-102
-88
-78
-69
-61
-48
-32
-25
-29
-27
-16
-8
-3
4
14
27
40
51
58
70
88
102
110
119
132
145
156
168
180
190
198
207
218
227
234
242
247
251
256
260
265
271
275
279
284
284
284
290
295
294
289
281
282
292
288
272
274
280
264
239
227
232
246
256
262
274
263
204
148
130
121
104
87
86
106
83
17
23
19
-83
-79
41
292
1066
1746
929
-678
-1087
-502
-271
-344
-287
-281
-339
-339
-366
-405
-401
-428
-474
-471
-464
-491
-507
-503
-519
-545
-549
-541
-536
-530
-531
-545
-554
-548
-537
