# session 15
-8
11
-34
-37
121
307
336
294
319
359
370
392
427
449
457
439
379
288
188
103
58
69
105
123
137
168
175
139
111
103
73
47
55
61
52
41
19
-1
-12
-34
-32
-17
-86
-228
-363
-273
405
1139
659
-659
-1048
-410
-27
-60
1
61
17
40
101
116
149
214
267
295
286
261
238
160
30
-48
-54
-55
-47
-8
21
20
5
-10
-13
-21
-59
-83
-65
-57
-69
-70
-82
-98
-64
-43
-131
-212
-175
-200
-353
-118
751
1199
272
-1000
-1166
-564
-178
-68
-26
-47
-35
23
43
88
160
148
134
245
342
291
202
133
35
-18
26
59
43
52
74
56
17
10
16
-41
-120
-89
-2
-28
-133
-169
-144
-130
-136
-144
-121
-100
-172
-323
-427
-211
490
939
211
-910
-986
-357
-97
-105
7
62
10
4
9
-7
33
104
136
146
164
161
114
63
34
7
-10
6
37
74
95
29
-81
-86
-27
-53
-98
-53
-7
-13
-24
-62
-114
-102
-77
-106
-114
-100
-157
-298
-403
-82
781
1179
315
-707
-661
-154
-37
-68
1
15
-9
22
56
74
101
134
169
198
203
175
121
67
37
26
21
39
82
111
107
84
58
42
42
48
57
68
61
37
21
9
-2
-11
-34
-44
-27
-53
-149
-288
-242
457
1444
1295
-80
-881
-487
-77
-99
-74
2
-34
-37
24
57
83
125
161
186
188
156
98
34
-20
-49
-52
-47
-52
-59
-45
-30
-47
-78
-89
-94
-115
-135
-137
-128
-123
-128
-126
-116
-129
-145
-108
-91
-149
-201
-247
-73
743
1488
793
-668
-1004
-359
-44
-89
-34
13
19
72
78
56
98
141
153
178
190
161
116
56
-16
-56
-52
-49
-62
-59
-40
-45
-68
-61
-43
-73
-127
-136
-118
-127
-145
-150
-151
-135
-128
-143
-124
-115
-199
-311
-401
-254
476
1093
408
-841
-971
-296
-36
-76
19
45
-25
17
107
135
144
166
207
255
248
173
105
61
-2
-53
-39
1
18
30
46
58
67
68
47
3
-31
-19
8
4
-14
-21
-31
-43
-60
-81
-64
-43
-125
-292
-375
-62
693
1012
154
-890
-848
-228
12
13
76
90
75
112
132
142
196
256
290
313
322
303
254
182
112
76
66
59
50
43
36
21
-6
-27
-34
-53
-82
-74
-49
-63
-85
-81
-86
-106
-120
-113
-90
-105
-179
-274
-277
163
965
971
-277
-1232
-847
-156
-2
4
85
82
71
111
129
150
209
267
308
317
264
182
125
80
25
-22
-43
-54
-66
-63
-42
-39
-63
-63
-57
-113
-172
-152
-133
-165
-169
-151
-157
-151
-144
-158
-141
-139
-210
-307
-332
82
985
1203
36
-1018
-731
-94
-17
-45
71
84
46
82
105
101
140
215
273
290
275
231
139
18
-68
-83
-70
-75
-78
-50
-18
-24
-44
-33
-13
-34
-64
-57
-34
-28
-36
-54
-67
-83
-110
-97
-67
-128
-278
-451
-393
329
1205
863
-444
-926
-364
6
-24
22
60
-10
-22
36
102
172
222
260
295
294
266
229
158
59
-33
-89
-74
-10
29
24
12
7
3
7
9
-22
-37
17
39
-44
-110
-93
-71
-74
-91
-102
-80
-100
-238
-428
-385
298
1222
1044
-313
-1092
-638
-123
-85
-75
-19
-40
-18
45
64
89
143
184
218
256
261
216
153
103
68
45
36
33
28
19
11
-7
-45
-70
-61
-61
-81
-89
-99
-125
-127
-115
-132
-173
-205
-199
-163
-173
-272
-412
-288
511
1352
820
-717
-1280
-618
-136
-145
-74
51
40
28
77
114
141
183
219
225
225
229
200
131
60
-7
-62
-57
-8
-3
-52
-87
-90
-71
-39
-59
-139
-156
-82
-46
-77
-92
-69
-48
-62
-96
-76
-48
-118
-232
-345
-232
600
1584
1189
-261
-801
-263
37
-36
32
112
76
74
120
173
223
236
254
299
306
260
199
106
-14
-96
-124
-136
-143
-133
-98
-66
-74
-101
-94
-75
-97
-130
-115
-70
-48
-54
-51
-38
-59
-93
-95
-123
-195
-311
-478
-197
908
1602
633
-706
-725
-120
-4
-63
33
57
38
90
126
140
187
238
278
288
235
153
82
3
-77
-119
-140
-147
-115
-75
-62
-46
-40
-84
-118
-108
-121
-151
-143
-125
-118
-105
-104
-116
-127
-129
-97
-85
-177
-341
-464
-213
648
1209
365
-916
-992
-309
-50
-75
-2
2
-24
57
118
119
157
220
266
307
316
260
169
73
-26
-100
-106
-67
-47
-34
-3
-4
-40
-46
-39
-77
-116
-108
-90
-98
-112
-122
-121
-111
-117
-131
-123
-143
-226
-349
-460
-157
848
1494
635
-653
-768
-201
4
-8
25
-15
-39
28
71
100
153
186
216
263
278
252
206
126
34
-8
7
31
33
34
50
48
0
-55
-63
-46
-47
-39
-12
-21
-60
-78
-80
-84
-95
-117
-113
-101
-153
-254
-348
-110
836
1637
909
-597
-969
-374
-105
-140
-36
15
-35
-2
57
73
112
175
220
248
243
198
136
64
-4
-24
-5
-7
-31
-39
-34
-36
-44
-56
-61
-51
-56
-82
-88
-67
-55
-63
-71
-67
-81
-107
-87
-68
-138
-234
-311
-203
473
1184
634
-746
-1140
-482
-63
-42
51
130
97
85
108
141
189
215
238
283
315
302
233
110
-13
-74
-70
-40
-23
-17
-14
-31
-63
-79
-73
-58
-72
-121
-143
-115
-83
-56
-51
-90
-125
-154
-184
-140
-95
-205
-393
-442
-75
667
824
-185
-1108
-842
-193
-24
-28
53
68
41
64
103
145
201
255
283
302
334
326
236
145
119
96
46
26
42
43
36
38
24
2
-7
-34
-66
-46
-15
-33
-56
-69
-110
-131
-110
-117
-135
-116
-152
-331
-491
-208
629
1099
298
-890
-1006
-343
8
3
40
76
53
72
121
147
179
230
278
325
356
326
241
171
127
78
44
45
38
1
-23
-15
-16
-35
-42
-50
-87
-98
-50
-34
-79
-85
-64
-99
-130
-99
-67
-71
-109
-196
-330
-313
289
1187
1037
-365
-1228
-738
-133
-79
-52
67
62
43
91
127
155
196
241
300
345
339
290
209
112
44
21
20
9
-36
-77
-57
-36
-69
-74
-36
-64
-139
-139
-91
-81
-98
-109
-116
-125
-153
-152
-91
-116
-257
-333
-323
-60
743
1227
272
-1055
-1053
-300
-49
-75
46
94
51
77
109
114
158
220
262
291
300
277
217
121
37
5
-14
-34
-28
-20
-30
-23
-10
-14
-15
-36
-96
-121
-80
-49
-56
-78
-108
-115
-97
-109
-129
-108
-104
-177
-339
-419
71
968
946
-310
-1130
-693
-114
-27
-6
64
54
54
77
91
163
250
274
297
349
341
261
205
190
157
127
137
147
118
76
42
17
-3
-20
-28
-25
-16
-21
-39
-38
-26
-66
-127
-123
-106
-163
-191
-124
-155
-346
-433
-167
398
691
71
-952
-1162
-565
-134
-81
-42
7
-6
1
37
70
123
186
218
234
266
297
286
226
157
127
132
133
113
87
68
43
-8
-45
-17
24
-1
-38
-21
-8
-40
-58
-48
-41
-28
-32
-72
-75
-52
-117
-261
-334
-27
779
1169
199
-1083
-1088
-318
1
-15
61
91
55
87
141
182
229
263
302
339
321
289
286
227
106
56
80
61
18
18
2
-52
-57
-26
-32
-53
-63
-80
-88
-100
-136
-152
-152
-170
-170
-159
-158
-130
-138
-245
-368
-386
41
948
1148
-101
-1257
-986
-282
-131
-114
3
-8
-34
43
92
109
169
232
270
298
297
248
177
109
44
-6
-27
-31
-32
-44
-74
-106
-119
-123
-127
-136
-151
-146
-119
-116
-133
-132
-136
-145
-126
-101
-83
-60
-93
-180
-278
-321
124
1110
1320
60
-1028
-717
-74
17
11
122
138
138
187
197
215
289
346
365
391
404
366
295
214
131
78
68
76
83
72
39
18
15
3
-3
-5
-36
-63
-45
-30
-40
-60
-97
-121
-116
-144
-168
-131
-175
-379
-540
-337
352
866
257
-936
-1208
-570
-136
-88
-32
23
21
34
49
75
135
183
216
267
299
280
242
197
138
99
94
79
44
26
25
17
-6
-36
-57
-58
-53
-48
-30
-18
-36
-62
-78
-101
-116
-121
-140
-134
-104
-160
-322
-419
-157
530
888
129
-969
-1059
-409
-52
-30
12
33
20
58
89
101
146
196
236
287
313
295
265
231
182
139
124
116
89
53
34
31
29
24
15
2
-7
-2
10
4
-24
-52
-69
-78
-81
-103
-126
-101
-102
-197
-312
-334
54
938
1236
100
-1124
-975
-258
-69
-97
4
30
2
41
88
129
192
237
261
287
311
312
253
139
52
18
-14
-57
-80
-75
-58
-45
-46
-66
-106
-148
-169
-157
-124
-98
-96
-108
-133
-162
-173
-179
-169
-127
-142
-240
-340
-332
168
1174
1376
53
-1120
-816
-141
-72
-98
46
72
35
75
114
139
195
253
301
347
359
303
218
158
97
23
11
34
-4
-9
82
68
-86
-127
-43
-49
-129
-132
-82
-77
-97
-105
-133
-166
-154
-160
-204
-188
-169
-274
-462
-551
-91
1004
1465
347
-903
-785
-148
-37
-89
4
24
12
73
115
128
167
211
258
320
346
299
211
136
92
66
43
28
30
31
31
33
-5
-75
-84
-37
-30
-48
-34
-34
-68
-77
-74
-97
-121
-141
-160
-139
-123
-214
-394
-514
-215
641
1126
302
-878
-964
-361
-112
-124
-46
2
-10
24
66
87
123
177
228
271
292
281
243
192
146
117
100
82
54
25
8
0
-6
-18
-32
-37
-40
-46
-37
-22
-35
-71
-95
-91
-75
-80
-112
-115
-85
-119
-251
-393
-283
424
1217
798
-646
-1281
-676
-125
-77
-37
45
34
47
98
129
171
220
260
315
357
340
290
233
158
90
61
47
20
-6
-20
-29
-28
-33
-56
-70
-72
-97
-122
-107
-98
-124
-143
-147
-154
-149
-150
-156
-128
-134
-239
-368
-377
81
990
1156
-117
-1279
-991
-241
-52
-34
81
85
65
124
153
171
239
304
346
384
390
344
267
186
115
63
28
6
-7
-20
-40
-50
-41
-31
-33
-43
-62
-82
-88
-95
-106
-100
-90
-97
-95
-96
-118
-100
-72
-138
-247
-333
-225
486
1296
808
-654
-1149
-485
-52
-72
1
77
38
64
132
147
173
238
299
340
354
333
269
176
91
26
-31
-70
-80
-76
-65
-45
-38
-54
-73
-70
-61
-92
-142
-144
-116
-117
-132
-146
-164
-148
-128
-150
-147
-135
-209
-339
-452
-220
745
1530
723
-793
-1047
-342
-53
-110
-30
21
-7
35
84
104
154
214
259
314
346
316
245
166
96
43
5
-17
-23
-20
-6
22
31
6
-20
-24
-36
-70
-81
-45
-35
-84
-113
-100
-112
-152
-180
-191
-164
-145
-234
-422
-594
-361
655
1539
852
-645
-1004
-377
-77
-112
-37
-2
-47
-11
60
100
141
186
238
295
320
304
257
183
112
72
48
24
-6
-41
-59
-52
-47
-55
-66
-81
-96
-95
-77
-54
-49
-71
-100
-122
-145
-156
-157
-174
-167
-131
-181
-345
-522
-433
345
1336
1093
-334
-1058
-546
-77
-86
-58
25
10
32
96
119
151
219
271
313
350
354
327
285
221
157
127
101
52
9
-3
-6
-5
10
16
-7
-31
-36
-44
-44
-15
-10
-53
-87
-95
-102
-112
-134
-146
-105
-100
-206
-346
-395
13
1018
1456
291
-1100
-1044
-303
-86
-105
1
18
-7
52
90
110
178
236
264
314
353
318
231
141
69
24
4
-10
-33
-53
-61
-64
-62
-54
-60
-82
-96
-107
-137
-154
-141
-144
-158
-152
-160
-176
-157
-154
-162
-126
-142
-254
-346
-331
148
1140
1340
3
-1178
-874
-189
-74
-64
52
51
37
95
123
146
209
266
307
347
368
340
257
155
76
16
-34
-60
-60
-60
-65
-58
-46
-40
-41
-52
-80
-119
-150
-147
-137
-163
-184
-163
-162
-195
-209
-221
-224
-175
-189
-351
-553
-556
86
1209
1345
-45
-1139
-799
-201
-149
-147
-41
-37
-33
17
34
70
139
197
264
316
305
259
201
144
129
117
40
-29
-2
48
40
12
20
41
33
2
-13
-14
-26
-23
7
5
-41
-57
-44
-51
-54
-51
-70
-55
-8
-65
-257
-408
-100
861
1531
787
-539
-825
-285
-15
-28
34
68
44
77
122
141
179
233
284
342
393
395
349
297
253
209
184
181
161
121
92
77
71
77
82
70
52
31
13
14
37
49
15
-36
-59
-64
-72
-73
-74
-75
-58
-75
-180
-311
-250
306
1028
790
-513
-1312
-871
-241
-78
-27
42
35
49
88
90
115
187
255
305
331
327
311
283
223
147
92
52
10
-25
-63
-109
-99
-36
-48
-152
-226
-235
-234
-239
-251
-262
-263
-277
-303
-319
-332
-334
-335
-360
-347
-298
-355
-474
-528
-457
114
1050
935
-558
-1497
-1014
-447
-394
-294
-163
-225
-251
-178
-143
-108
-35
37
100
133
116
93
60
-24
-120
-158
-158
-175
-216
-245
-233
-207
-203
-202
-193
-195
-194
-182
-180
-179
-176
-210
-242
-207
-176
-203
-207
-178
-177
-147
-100
-176
-289
-335
-251
383
1329
1140
-300
-1061
-514
24
62
110
209
222
256
309
338
399
488
560
619
663
675
655
610
557
510
454
391
353
342
337
345
369
394
416
414
384
382
416
416
397
420
436
396
372
379
345
303
315
312
285
310
302
189
95
158
588
1301
1316
173
-781
-514
124
288
241
263
286
283
251
202
221
309
372
387
418
457
431
348
250
136
59
48
-41
-251
-386
-393
-423
-475
-465
-476
-570
-656
-706
-787
-887
-946
-973
-1016
-1084
-1166
-1252
-1338
-1416
-1470
-1527
-1614
-1674
-1690
-1816
-2095
-2178
-1760
-1040
-341
