# session 35
-55
-66
-35
-82
-241
-345
-330
-310
-320
-317
-311
-318
-313
-304
-307
-305
-289
-275
-270
-268
-262
-251
-238
-235
-251
-269
-263
-246
-228
-182
-124
-110
-127
-141
-168
-192
-183
-174
-177
-165
-167
-167
-140
-174
-243
-85
570
1764
2719
2167
447
-529
-290
-46
-162
-169
-111
-140
-129
-92
-94
-76
-45
-37
-18
15
48
94
139
167
207
265
318
362
405
440
462
472
478
474
441
375
300
218
117
11
-80
-158
-214
-243
-262
-282
-284
-273
-272
-272
-250
-226
-226
-237
-237
-222
-215
-228
-236
-223
-218
-230
-231
-221
-217
-215
-210
-206
-206
-213
-215
-195
-181
-189
-186
-178
-190
-191
-166
-155
-169
-176
-176
-169
-136
-91
-63
-56
-66
-93
-117
-131
-142
-138
-108
-98
-128
-123
-91
-137
-188
14
753
2044
2880
1960
71
-690
-243
-9
-159
-139
-75
-120
-100
-45
-52
-45
-5
3
11
54
90
114
162
215
246
284
339
386
422
457
472
471
476
471
424
346
255
148
34
-52
-111
-175
-240
-273
-275
-273
-280
-287
-284
-265
-255
-260
-250
-228
-226
-234
-224
-212
-220
-235
-243
-236
-222
-225
-240
-237
-222
-225
-234
-222
-201
-201
-216
-215
-196
-185
-188
-191
-186
-179
-171
-166
-170
-177
-185
-197
-189
-139
-76
-46
-57
-84
-100
-105
-111
-125
-134
-123
-119
-134
-114
-95
-174
-214
79
913
2156
2791
1793
98
-499
-146
-27
-155
-131
-111
-141
-97
-67
-72
-34
-5
-10
18
63
77
99
153
200
227
262
324
394
443
471
493
506
503
486
448
372
267
163
74
-19
-117
-193
-231
-258
-290
-301
-285
-277
-283
-275
-256
-246
-240
-231
-234
-237
-231
-233
-239
-232
-225
-233
-237
-233
-231
-227
-219
-215
-218
-221
-217
-208
-204
-201
-203
-214
-208
-178
-165
-174
-169
-156
-160
-165
-163
-170
-179
-155
-102
-65
-63
-71
-75
-92
-112
-108
-107
-115
-109
-114
-124
-96
-106
-188
-124
378
1464
2601
2475
884
-401
-352
-9
-99
-176
-100
-97
-105
-69
-64
-62
-36
-18
6
46
74
96
137
183
219
254
303
358
405
448
483
491
491
498
471
399
321
234
122
18
-61
-134
-199
-245
-272
-278
-274
-277
-284
-284
-273
-261
-260
-252
-231
-220
-225
-226
-224
-223
-225
-236
-247
-237
-217
-217
-232
-239
-227
-209
-205
-206
-200
-200
-207
-200
-184
-179
-179
-174
-172
-174
-168
-165
-171
-170
-167
-180
-179
-127
-61
-37
-44
-58
-90
-119
-114
-104
-122
-135
-131
-124
-101
-104
-176
-165
175
1060
2297
2726
1495
-127
-499
-105
-46
-164
-131
-125
-139
-82
-58
-62
-30
-8
-5
24
59
84
122
158
172
203
276
339
379
431
480
491
488
495
484
437
366
277
174
62
-50
-138
-193
-228
-256
-282
-300
-297
-281
-270
-264
-261
-264
-267
-264
-250
-240
-256
-279
-269
-239
-226
-231
-240
-247
-242
-231
-227
-232
-233
-226
-224
-226
-212
-195
-196
-192
-178
-184
-197
-191
-189
-198
-180
-125
-79
-68
-74
-87
-127
-176
-174
-132
-112
-125
-143
-127
-101
-145
-194
-41
564
1790
2863
2279
337
-745
-388
-36
-153
-159
-80
-118
-115
-68
-66
-50
-17
-9
11
52
80
99
128
174
239
299
339
380
427
459
479
489
477
454
427
361
254
163
95
2
-106
-181
-223
-256
-282
-294
-290
-282
-281
-280
-267
-248
-236
-231
-224
-219
-221
-220
-216
-221
-229
-225
-220
-227
-234
-231
-227
-226
-218
-212
-217
-214
-195
-186
-194
-194
-183
-180
-184
-188
-196
-206
-197
-159
-108
-75
-72
-84
-101
-121
-135
-140
-138
-123
-121
-146
-137
-108
-171
-230
8
775
2012
2789
1950
207
-539
-195
-24
-170
-152
-99
-141
-123
-74
-78
-77
-42
-11
6
23
56
107
148
172
207
269
336
383
424
463
482
487
498
488
432
360
280
173
62
-32
-119
-196
-242
-266
-285
-297
-299
-294
-295
-297
-279
-256
-251
-249
-240
-236
-235
-235
-235
-232
-234
-243
-241
-230
-232
-241
-235
-225
-225
-223
-214
-213
-208
-192
-186
-193
-190
-184
-195
-211
-209
-195
-170
-117
-59
-50
-85
-119
-132
-137
-148
-145
-127
-139
-157
-118
-122
-219
-177
286
1313
2487
2550
1071
-335
-419
-48
-86
-177
-112
-111
-131
-87
-67
-74
-46
-1
24
39
63
96
130
161
198
247
310
372
407
421
456
503
516
497
473
427
342
235
122
16
-74
-150
-209
-251
-284
-297
-275
-251
-256
-268
-264
-253
-241
-237
-240
-234
-225
-229
-229
-223
-233
-242
-226
-211
-215
-219
-218
-219
-214
-209
-211
-209
-201
-202
-201
-193
-203
-218
-192
-151
-148
-164
-168
-175
-192
-191
-154
-99
-59
-53
-76
-112
-133
-121
-107
-121
-125
-110
-123
-127
-99
-139
-204
-26
628
1787
2695
2114
402
-525
-237
8
-137
-151
-86
-123
-118
-77
-74
-49
-24
-38
-15
47
72
88
140
188
218
264
321
369
412
447
466
478
491
492
456
382
304
224
113
-9
-88
-144
-211
-261
-271
-277
-292
-290
-276
-283
-289
-266
-249
-253
-245
-231
-240
-249
-241
-238
-245
-244
-237
-240
-250
-249
-240
-239
-235
-220
-208
-206
-203
-201
-202
-197
-191
-193
-195
-196
-199
-199
-178
-126
-73
-63
-91
-123
-146
-153
-142
-135
-135
-150
-175
-153
-122
-169
-192
69
918
2268
2884
1653
-193
-691
-207
-76
-211
-153
-104
-138
-106
-68
-69
-51
-27
-10
25
60
81
109
148
192
245
297
335
378
434
473
483
492
504
489
443
379
286
165
48
-54
-146
-208
-240
-276
-313
-313
-288
-285
-301
-297
-275
-265
-269
-256
-237
-245
-257
-246
-235
-238
-242
-252
-262
-249
-227
-225
-236
-235
-225
-222
-225
-216
-202
-204
-212
-212
-212
-199
-151
-99
-81
-98
-135
-163
-161
-160
-175
-166
-150
-163
-150
-123
-179
-208
63
927
2302
2963
1718
-215
-760
-246
-83
-210
-149
-102
-136
-101
-76
-91
-61
-18
1
24
54
85
126
170
208
251
303
356
407
447
476
496
507
507
481
416
326
233
131
15
-87
-161
-219
-265
-290
-306
-316
-307
-296
-296
-286
-266
-258
-256
-244
-238
-242
-239
-231
-238
-248
-245
-243
-248
-243
-230
-231
-238
-234
-226
-226
-227
-223
-216
-206
-201
-201
-194
-192
-210
-224
-207
-169
-128
-91
-76
-93
-121
-134
-137
-146
-143
-126
-142
-155
-109
-121
-223
-156
343
1417
2669
2756
1171
-337
-414
-34
-109
-204
-118
-120
-141
-94
-80
-80
-48
-23
-5
19
40
72
118
159
206
259
303
357
428
471
490
517
534
524
499
441
339
223
114
6
-91
-166
-231
-283
-299
-294
-308
-332
-317
-281
-271
-274
-263
-252
-250
-240
-232
-241
-250
-243
-232
-230
-232
-239
-248
-243
-231
-232
-238
-237
-231
-219
-210
-210
-205
-197
-199
-198
-192
-194
-193
-180
-174
-186
-195
-177
-130
-82
-57
-57
-82
-121
-131
-124
-139
-136
-104
-116
-131
-87
-114
-207
-73
509
1582
2627
2410
813
-398
-315
-12
-117
-169
-90
-101
-115
-80
-70
-55
-20
-4
9
39
73
103
135
174
216
252
301
375
437
473
502
517
513
512
497
423
314
223
133
11
-100
-160
-197
-237
-267
-281
-287
-286
-283
-277
-261
-249
-247
-246
-247
-250
-239
-219
-219
-236
-237
-221
-221
-238
-237
-222
-226
-233
-222
-219
-229
-226
-222
-221
-196
-169
-179
-193
-186
-181
-178
-166
-162
-166
-157
-150
-164
-170
-156
-153
-163
-146
-92
-40
-21
-32
-59
-90
-102
-93
-96
-105
-97
-110
-137
-95
-58
-136
-139
227
1123
2298
2656
1443
-99
-431
-55
-26
-166
-123
-79
-92
-74
-62
-52
-17
-1
0
30
71
98
127
162
191
231
295
355
390
418
460
504
520
509
493
465
399
292
172
64
-26
-110
-184
-229
-249
-266
-282
-290
-287
-274
-255
-245
-249
-253
-247
-240
-236
-235
-235
-232
-224
-221
-228
-233
-233
-237
-233
-219
-216
-222
-219
-213
-212
-207
-197
-197
-205
-208
-201
-188
-177
-166
-159
-165
-173
-163
-147
-155
-172
-174
-169
-167
-152
-111
-60
-30
-35
-63
-95
-116
-125
-125
-119
-115
-133
-134
-90
-99
-176
-130
262
1248
2557
2792
1240
-392
-539
-84
-92
-193
-101
-83
-121
-87
-56
-51
-29
-8
6
29
61
99
139
174
201
236
296
360
402
442
501
541
535
519
515
480
394
287
180
75
-25
-120
-196
-247
-283
-307
-314
-312
-307
-299
-295
-297
-291
-273
-255
-245
-247
-258
-262
-252
-242
-244
-252
-264
-270
-256
-236
-235
-246
-247
-237
-224
-217
-224
-226
-217
-223
-237
-224
-197
-199
-212
-194
-155
-127
-107
-89
-99
-151
-185
-173
-167
-173
-159
-157
-155
-124
-157
-219
-68
554
1799
2939
2427
446
-735
-403
-40
-174
-190
-104
-143
-134
-71
-70
-65
-29
-12
10
51
78
104
150
197
239
291
342
396
464
520
542
549
552
545
504
413
300
196
81
-41
-127
-188
-254
-296
-303
-304
-306
-305
-304
-295
-281
-277
-272
-255
-237
-233
-242
-251
-240
-213
-206
-226
-244
-240
-230
-229
-229
-221
-217
-223
-221
-210
-210
-215
-199
-181
-186
-191
-179
-174
-185
-200
-207
-185
-130
-84
-76
-82
-86
-106
-133
-139
-140
-145
-134
-135
-145
-111
-117
-220
-178
299
1354
2617
2803
1314
-245
-425
-49
-88
-192
-124
-125
-152
-110
-94
-96
-65
-40
-29
2
44
76
107
143
184
235
292
343
397
452
486
500
519
533
510
445
358
252
128
8
-91
-179
-255
-293
-299
-313
-334
-328
-308
-310
-314
-294
-274
-274
-271
-256
-258
-274
-273
-254
-244
-241
-238
-242
-251
-245
-239
-248
-250
-235
-231
-241
-236
-218
-212
-208
-203
-213
-227
-219
-193
-152
-99
-72
-87
-116
-139
-153
-154
-159
-157
-129
-127
-149
-125
-125
-211
-164
295
1299
2453
2541
1101
-308
-416
-51
-87
-172
-107
-118
-139
-78
-53
-63
-38
-10
3
29
60
81
115
173
227
262
302
359
416
459
489
502
503
508
502
447
346
234
130
25
-78
-158
-211
-256
-290
-297
-291
-295
-290
-272
-264
-266
-261
-253
-247
-244
-246
-249
-245
-240
-239
-234
-230
-235
-237
-237
-239
-236
-228
-221
-219
-230
-234
-211
-190
-194
-202
-208
-217
-209
-170
-119
-86
-84
-108
-143
-165
-159
-148
-143
-138
-157
-179
-156
-153
-212
-153
319
1421
2636
2542
869
-501
-444
-68
-152
-214
-120
-132
-148
-91
-77
-84
-53
-24
-5
16
32
60
108
151
198
252
293
337
404
457
476
489
500
498
482
435
340
227
119
2
-105
-169
-215
-268
-305
-314
-313
-314
-317
-312
-293
-276
-275
-278
-272
-269
-272
-267
-254
-251
-257
-260
-266
-270
-258
-246
-254
-261
-253
-241
-234
-239
-245
-230
-195
-161
-131
-111
-119
-148
-174
-186
-189
-182
-170
-182
-187
-147
-153
-221
-161
282
1398
2799
2867
1026
-641
-628
-129
-169
-227
-108
-124
-160
-100
-80
-83
-42
-16
-13
19
65
97
132
172
208
253
312
367
419
473
514
531
528
511
475
402
294
181
71
-58
-169
-217
-245
-288
-320
-329
-332
-330
-322
-312
-296
-283
-285
-291
-285
-268
-253
-248
-254
-257
-256
-257
-258
-259
-265
-265
-255
-246
-244
-247
-255
-264
-262
-235
-187
-143
-122
-123
-147
-180
-188
-179
-190
-195
-180
-194
-191
-132
-162
-272
-164
421
1604
2841
2671
876
-515
-415
-50
-158
-213
-127
-156
-178
-134
-124
-109
-65
-51
-47
-12
34
70
108
155
206
253
298
353
415
455
476
508
541
535
481
398
291
170
50
-67
-166
-223
-256
-291
-319
-330
-337
-338
-326
-314
-305
-289
-267
-258
-262
-256
-245
-253
-268
-257
-241
-249
-258
-253
-254
-256
-248
-250
-270
-276
-261
-245
-219
-178
-149
-145
-161
-187
-192
-178
-188
-196
-176
-182
-183
-139
-176
-274
-122
551
1788
2871
2438
632
-536
-336
-34
-167
-205
-125
-148
-150
-106
-104
-92
-62
-52
-23
18
26
53
130
186
209
254
319
370
413
456
484
504
520
501
440
360
266
151
38
-64
-162
-235
-264
-283
-303
-306
-299
-298
-296
-288
-276
-261
-255
-261
-253
-229
-219
-224
-227
-229
-229
-222
-221
-228
-232
-231
-221
-214
-224
-225
-198
-184
-199
-206
-194
-188
-189
-192
-194
-193
-188
-173
-131
-82
-74
-102
-121
-123
-134
-136
-120
-130
-142
-98
-97
-191
-153
279
1280
2535
2745
1255
-318
-479
-70
-100
-200
-112
-99
-128
-93
-77
-76
-42
-20
-11
27
70
85
102
140
180
225
295
366
409
444
481
499
503
507
495
446
365
263
145
29
-68
-148
-214
-259
-286
-308
-316
-307
-301
-303
-300
-292
-287
-290
-289
-274
-265
-274
-281
-278
-277
-278
-283
-291
-283
-266
-273
-296
-287
-257
-251
-271
-285
-278
-261
-237
-201
-166
-164
-188
-202
-209
-227
-227
-196
-189
-218
-201
-171
-237
-271
5
853
2229
2990
1875
-55
-695
-242
-102
-255
-205
-153
-187
-166
-155
-159
-96
-43
-48
-29
21
49
75
121
163
207
272
330
358
401
471
516
518
509
487
427
330
219
108
-2
-105
-184
-236
-271
-295
-307
-304
-297
-296
-294
-278
-259
-248
-239
-236
-239
-226
-209
-215
-229
-223
-209
-208
-211
-204
-197
-207
-216
-197
-174
-176
-183
-183
-192
-203
-196
-186
-178
-140
-81
-52
-65
-94
-115
-115
-118
-125
-107
-106
-134
-105
-78
-168
-179
210
1168
2437
2863
1601
-58
-440
-64
-53
-182
-110
-91
-132
-90
-69
-91
-60
-15
-7
9
43
73
104
140
177
223
274
325
373
404
421
446
479
485
450
386
294
183
68
-40
-138
-216
-281
-337
-356
-340
-335
-350
-350
-332
-324
-324
-318
-309
-302
-289
-278
-282
-286
-275
-265
-268
-264
-251
-252
-253
-227
