# session 17
21
9
26
73
59
-23
-47
6
51
92
163
244
333
458
614
777
919
1002
1006
939
826
693
558
433
329
242
155
65
-17
-83
-126
-140
-134
-129
-129
-130
-133
-143
-158
-172
-187
-205
-221
-233
-242
-248
-254
-263
-271
-272
-270
-268
-264
-259
-256
-255
-251
-243
-236
-231
-227
-223
-220
-218
-213
-205
-199
-202
-213
-227
-233
-224
-196
-150
-103
-84
-97
-118
-145
-175
-162
-138
-170
-166
-110
-192
-302
-51
747
2098
3257
2691
562
-826
-658
-334
-421
-399
-294
-298
-264
-201
-173
-96
17
107
223
394
572
715
801
826
796
714
600
483
375
277
192
113
20
-85
-164
-190
-191
-195
-197
-192
-206
-237
-257
-262
-271
-277
-279
-296
-316
-316
-319
-344
-348
-325
-328
-346
-335
-315
-314
-308
-291
-288
-299
-300
-287
-272
-263
-256
-252
-256
-262
-250
-233
-224
-202
-161
-133
-135
-152
-177
-191
-168
-159
-183
-140
-109
-238
-286
97
1093
2642
3519
2216
-142
-1044
-578
-357
-444
-334
-263
-296
-230
-149
-120
-51
48
152
301
483
654
790
863
852
770
647
510
380
259
158
103
63
-13
-108
-174
-199
-197
-186
-185
-179
-154
-132
-137
-162
-199
-248
-289
-308
-311
-310
-316
-317
-294
-267
-266
-288
-302
-286
-270
-301
-320
-274
-242
-256
-243
-228
-258
-272
-252
-255
-255
-210
-152
-115
-106
-124
-147
-152
-143
-165
-236
-239
-152
-209
-375
-210
547
1933
3377
3239
1105
-720
-765
-385
-511
-510
-335
-368
-380
-272
-242
-205
-97
-11
120
306
453
612
766
789
745
696
563
400
281
163
93
69
-52
-187
-188
-219
-322
-279
-183
-235
-266
-207
-250
-326
-282
-252
-283
-249
-234
-313
-322
-260
-296
-350
-291
-245
-289
-281
-194
-178
-254
-278
-209
-173
-219
-226
-172
-187
-244
-198
-111
-93
-68
-22
-59
-120
-108
-91
-112
-131
-131
-91
-77
-196
-270
32
955
2420
3262
2145
45
-853
-535
-336
-391
-327
-286
-283
-202
-141
-106
-48
-3
94
264
391
493
651
767
763
715
649
524
378
281
211
105
-9
-72
-130
-217
-245
-205
-216
-255
-224
-194
-228
-245
-245
-287
-302
-258
-254
-315
-337
-292
-272
-308
-324
-298
-292
-313
-309
-276
-269
-279
-247
-223
-284
-328
-255
-203
-240
-217
-140
-157
-197
-165
-181
-239
-173
-100
-203
-264
-153
-173
-314
-112
733
2203
3396
2691
382
-1046
-774
-333
-389
-411
-355
-361
-295
-207
-191
-108
54
138
171
311
545
725
799
818
800
723
602
479
358
231
119
32
-53
-127
-166
-193
-238
-264
-252
-252
-283
-293
-288
-317
-352
-347
-339
-362
-382
-391
-395
-383
-372
-381
-373
-340
-335
-356
-348
-320
-307
-291
-266
-242
-211
-190
-192
-198
-211
-224
-213
-214
-211
-163
-192
-301
-181
459
1724
2988
2689
610
-1014
-903
-377
-373
-376
-237
-228
-238
-173
-122
-68
21
123
254
423
610
788
907
939
900
801
653
487
334
205
98
7
-71
-141
-200
-231
-226
-206
-195
-202
-219
-228
-224
-223
-229
-243
-268
-290
-301
-308
-315
-317
-317
-313
-310
-317
-314
-294
-299
-329
-328
-295
-268
-238
-198
-187
-202
-210
-227
-236
-215
-222
-225
-168
-215
-368
-252
407
1730
3247
3273
1192
-750
-875
-411
-453
-496
-361
-351
-349
-260
-208
-165
-80
11
128
297
482
655
784
826
784
691
566
424
293
183
86
-3
-83
-159
-230
-274
-279
-267
-259
-258
-257
-256
-261
-274
-290
-299
-306
-318
-330
-334
-336
-342
-341
-339
-346
-348
-335
-335
-351
-348
-323
-298
-263
-215
-196
-207
-215
-230
-240
-219
-225
-245
-194
-204
-354
-300
290
1492
2915
3172
1471
-466
-844
-430
-396
-459
-345
-316
-324
-248
-192
-150
-61
37
142
288
455
611
735
792
772
701
602
483
355
243
149
56
-33
-104
-161
-208
-229
-231
-231
-227
-220
-224
-227
-223
-229
-246
-256
-259
-264
-268
-269
-271
-277
-282
-279
-271
-265
-259
-253
-254
-263
-271
-266
-253
-230
-186
-137
-127
-149
-162
-171
-176
-160
-168
-185
-145
-167
-301
-242
317
1485
2813
2905
1192
-544
-781
-393
-388
-440
-339
-319
-322
-252
-205
-165
-75
21
111
236
398
554
660
696
682
635
550
437
321
222
139
57
-28
-102
-173
-223
-226
-216
-239
-262
-250
-240
-255
-268
-265
-266
-283
-308
-317
-306
-295
-299
-310
-319
-324
-306
-283
-300
-333
-317
-277
-275
-268
-214
-169
-169
-181
-200
-215
-189
-176
-212
-182
-137
-251
-327
-38
822
2341
3456
2454
76
-1056
-656
-379
-491
-409
-298
-318
-276
-212
-197
-136
-22
87
211
374
553
706
791
799
751
668
558
425
302
220
151
53
-48
-109
-140
-169
-189
-194
-204
-225
-242
-247
-260
-287
-312
-321
-326
-343
-364
-368
-359
-348
-344
-352
-362
-363
-360
-348
-329
-328
-323
-275
-225
-227
-249
-260
-258
-233
-226
-251
-218
-195
-314
-362
-13
990
2604
3500
2165
-168
-1025
-582
-409
-512
-404
-332
-360
-297
-223
-197
-133
-44
48
184
359
526
658
730
726
662
567
459
341
223
127
50
-28
-104
-161
-196
-211
-205
-195
-194
-204
-220
-234
-240
-248
-262
-272
-281
-294
-301
-306
-319
-333
-343
-349
-343
-321
-298
-265
-220
-202
-226
-243
-240
-230
-214
-225
-243
-198
-200
-342
-361
98
1256
2817
3311
1717
-348
-877
-462
-391
-477
-375
-326
-338
-277
-216
-172
-95
-9
94
237
396
545
668
727
714
654
561
443
324
222
131
48
-32
-112
-178
-209
-210
-209
-217
-217
-213
-221
-240
-252
-259
-270
-281
-284
-287
-292
-297
-299
-298
-298
-297
-290
-279
-277
-283
-287
-291
-290
-272
-239
-199
-161
-151
-168
-181
-187
-185
-170
-181
-196
-147
-150
-295
-312
136
1228
2652
3050
1531
-373
-831
-430
-356
-425
-328
-289
-299
-236
-183
-146
-67
23
114
239
384
525
641
706
706
658
576
473
365
262
168
93
26
-57
-137
-173
-180
-187
-191
-197
-207
-205
-198
-210
-233
-248
-260
-268
-261
-264
-287
-296
-284
-284
-295
-292
-281
-275
-268
-258
-251
-245
-249
-265
-267
-246
-234
-223
-185
-149
-155
-170
-168
-163
-158
-161
-184
-162
-130
-224
-311
-84
673
2043
3161
2457
323
-900
-636
-326
-411
-373
-279
-294
-258
-184
-151
-89
1
72
168
319
479
613
709
740
707
646
572
482
385
294
216
145
59
-32
-87
-99
-100
-109
-125
-138
-150
-166
-181
-201
-232
-249
-241
-246
-276
-293
-288
-285
-289
-291
-291
-291
-287
-280
-269
-264
-266
-260
-244
-238
-242
-239
-228
-220
-218
-214
-208
-204
-203
-202
-204
-206
-200
-184
-157
-112
-74
-81
-113
-137
-149
-138
-127
-143
-128
-103
-181
-240
-7
775
2235
3377
2533
285
-894
-589
-324
-424
-355
-258
-284
-245
-172
-147
-95
-16
61
170
308
444
577
681
721
702
636
535
427
326
236
167
111
43
-34
-91
-122
-137
-141
-143
-151
-161
-166
-170
-179
-196
-217
-232
-241
-252
-269
-280
-281
-282
-292
-297
-295
-290
-284
-275
-268
-263
-256
-246
-234
-229
-233
-230
-219
-210
-207
-205
-204
-206
-217
-232
-226
-196
-160
-121
-87
-80
-96
-114
-134
-140
-122
-129
-144
-102
-119
-242
-200
283
1373
2762
3065
1464
-394
-768
-369
-324
-385
-286
-254
-257
-193
-148
-113
-38
42
129
252
396
542
675
759
776
737
659
558
446
339
249
177
108
30
-51
-120
-158
-171
-173
-175
-178
-182
-188
-195
-203
-214
-224
-233
-241
-252
-266
-275
-277
-279
-284
-287
-287
-285
-279
-272
-266
-259
-249
-247
-248
-239
-226
-220
-218
-215
-213
-212
-213
-213
-203
-187
-188
-198
-200
-207
-215
-199
-164
-128
-89
-68
-86
-114
-128
-142
-139
-132
-147
-125
-95
-182
-241
34
859
2248
3215
2309
209
-830
-531
-301
-398
-336
-253
-278
-233
-151
-125
-83
0
81
169
288
436
590
703
756
759
707
610
512
424
331
249
185
115
31
-44
-99
-125
-130
-142
-165
-182
-192
-201
-202
-207
-222
-237
-247
-262
-275
-283
-290
-295
-293
-291
-291
-287
-281
-285
-286
-266
-251
-262
-268
-247
-231
-230
-221
-211
-217
-223
-212
-198
-196
-201
-204
-205
-199
-176
-138
-98
-72
-75
-97
-117
-134
-140
-125
-133
-153
-112
-101
-201
-204
160
1160
2675
3293
1798
-315
-899
-448
-332
-404
-291
-242
-259
-190
-136
-122
-63
19
101
210
344
486
625
732
773
744
672
576
462
345
250
175
106
38
-31
-94
-129
-137
-147
-161
-164
-165
-171
-177
-187
-207
-226
-236
-244
-257
-274
-285
-288
-293
-301
-302
-299
-298
-294
-282
-274
-273
-267
-259
-253
-247
-242
-237
-228
-221
-220
-215
-203
-197
-204
-220
-236
-240
-217
-172
-128
-97
-88
-104
-125
-143
-158
-151
-140
-161
-149
-113
-195
-289
-69
686
2027
3146
2534
464
-817
-623
-321
-406
-373
-267
-281
-258
-188
-157
-110
-31
43
136
267
414
567
702
782
790
742
661
555
436
324
230
144
65
-7
-82
-153
-192
-202
-206
-205
-200
-200
-205
-211
-219
-231
-245
-255
-260
-268
-282
-292
-292
-289
-291
-293
-289
-279
-271
-264
-255
-249
-248
-244
-234
-224
-219
-213
-205
-196
-190
-188
-187
-193
-203
-198
-159
-104
-65
-52
-63
-83
-97
-109
-111
-94
-99
-115
-81
-85
-190
-159
295
1354
2704
3003
1464
-348
-734
-345
-285
-343
-248
-214
-216
-152
-108
-84
-18
59
139
249
387
537
675
775
822
808
736
636
525
405
292
203
126
45
-39
-116
-172
-199
-205
-206
-205
-207
-215
-224
-235
-248
-255
-262
-282
-301
-309
-314
-323
-329
-332
-336
-340
-339
-334
-330
-328
-323
-322
-323
-316
-305
-304
-306
-295
-279
-276
-279
-274
-260
-255
-271
-294
-295
-261
-209
-158
-128
-129
-153
-174
-184
-183
-163
-157
-181
-163
-136
-224
-285
-15
822
2226
3171
2235
144
-871
-568
-341
-428
-348
-251
-275
-241
-166
-133
-83
-1
82
178
296
439
599
730
808
842
819
731
615
515
426
333
244
163
80
-1
-66
-107
-127
-133
-136
-139
-150
-170
-180
-164
-159
-200
-241
-243
-241
-255
-262
-260
-262
-264
-262
-259
-261
-262
-258
-250
-239
-228
-222
-221
-216
-209
-205
-197
-186
-186
-200
-211
-199
-170
-142
-109
-81
-91
-119
-128
-141
-156
-142
-146
-170
-131
-128
-238
-218
214
1299
2839
3312
1606
-526
-975
-476
-394
-459
-324
-289
-325
-261
-202
-174
-107
-31
40
147
288
442
595
714
762
745
688
595
468
341
240
150
65
-9
-78
-142
-184
-203
-214
-219
-218
-219
-223
-226
-228
-234
-248
-268
-280
-280
-286
-299
-306
-309
-316
-321
-315
-308
-306
-302
-296
-288
-274
-263
-262
-260
-247
-236
-233
-230
-219
-208
-210
-220
-229
-236
-228
-190
-143
-107
-82
-79
-106
-131
-139
-143
-131
-125
-145
-124
-102
-203
-240
125
1081
2487
3227
2073
18
-816
-468
-291
-387
-316
-242
-257
-214
-157
-126
-65
11
84
185
314
459
621
764
842
854
816
735
624
502
385
283
195
107
19
-57
-119
-166
-194
-195
-184
-183
-188
-191
-191
-191
-190
-197
-217
-231
-236
-247
-261
-263
-262
-268
-272
-268
-258
-253
-251
-244
-237
-238
-239
-231
-223
-221
-216
-209
-206
-201
-198
-200
-197
-184
-179
-182
-181
-174
-169
-161
-154
-155
-165
-177
-186
-182
-157
-115
-71
-48
-57
-79
-94
-114
-136
-125
-114
-136
-119
-95
-188
-233
83
935
2252
3091
2186
213
-766
-508
-297
-386
-337
-257
-272
-237
-170
-140
-100
-36
38
137
254
382
536
685
774
795
770
704
605
494
391
306
234
159
76
-8
-87
-156
-193
-199
-201
-216
-220
-206
-204
-219
-229
-233
-248
-262
-266
-267
-267
-278
-302
-307
-290
-288
-295
-284
-270
-271
-277
-275
-258
-232
-222
-234
-237
-217
-204
-209
-216
-212
-204
-193
-180
-171
-169
-166
-175
-200
-203
-162
-114
-82
-56
-50
-78
-111
-125
-119
-114
-141
-150
-89
-102
-225
-164
349
1519
3051
3360
1511
-562
-894
-407
-369
-406
-255
-255
-309
-228
-163
-149
-83
12
93
186
307
457
624
766
852
875
828
725
619
518
394
268
175
94
0
-82
-147
-195
-214
-218
-229
-227
-208
-210
-237
-258
-276
-299
-310
-313
-326
-342
-346
-346
-353
-361
-366
-365
-359
-354
-355
-353
-345
-340
-340
-334
-317
-302
-298
-299
-298
-303
-314
-312
-284
-247
-218
-190
-172
-180
-202
-221
-239
-229
-205
-226
-228
-178
-240
-352
-158
577
1965
3325
2948
736
-878
-769
-380
-464
-454
-326
-339
-325
-245
-216
-185
-106
-29
54
171
316
484
653
782
844
837
772
665
540
411
287
175
81
0
-73
-142
-202
-237
-240
-231
-222
-213
-208
-207
-198
-191
-202
-216
-221
-224
-227
-229
-237
-244
-237
-229
-227
-222
-211
-203
-198
-186
-171
-163
-157
-146
-133
-123
-117
-109
-100
-96
-91
-77
-70
-79
-91
-98
-87
-41
15
47
55
49
26
5
-6
-13
-5
-6
-14
19
17
-95
-92
332
1310
2595
3061
1788
-47
-652
-315
-199
-272
-196
-147
-163
-120
-73
-48
5
70
133
225
345
483
632
764
847
872
842
768
664
547
428
314
207
109
22
-62
-146
-210
-244
-263
-276
-275
-266
-264
-275
-292
-303
-310
-328
-353
-360
-353
-365
-394
-406
-398
-402
-420
-427
-419
-420
-436
-438
-426
-428
-438
-434
-424
-421
-422
-428
-434
-423
-408
-418
-433
-427
-418
-426
-438
-443
-444
-433
-403
-365
-339
-333
-341
-350
-356
-373
-378
-365
-385
-386
-323
-360
-479
-339
287
1573
3092
3117
1027
-888
-967
-489
-543
-582
-411
-375
-388
-313
-244
-185
-111
-47
41
186
347
515
708
878
964
991
999
952
839
716
622
544
462
376
301
242
185
136
123
144
163
173
192
220
239
247
