# session 26
-53
-48
-63
-4
83
41
-83
-147
-169
-200
-217
-216
-217
-215
-209
-203
-199
-195
-192
-191
-191
-195
-197
-199
-202
-207
-211
-210
-209
-213
-218
-214
-206
-210
-224
-233
-226
-214
-194
-159
-121
-102
-111
-135
-145
-135
-138
-145
-129
-136
-150
-104
-122
-247
-168
401
1555
2870
2981
1314
-354
-527
-136
-178
-267
-183
-183
-205
-156
-136
-133
-98
-73
-56
-22
16
54
103
157
216
286
352
405
448
478
487
479
459
421
358
278
193
106
16
-68
-136
-186
-222
-245
-255
-255
-253
-252
-249
-243
-234
-227
-223
-222
-221
-221
-222
-221
-220
-222
-228
-231
-230
-229
-229
-227
-223
-218
-213
-209
-205
-200
-194
-191
-190
-199
-214
-221
-211
-190
-156
-115
-87
-90
-119
-136
-132
-135
-140
-125
-133
-150
-109
-121
-236
-161
381
1446
2643
2759
1239
-332
-524
-147
-171
-261
-185
-182
-205
-157
-137
-137
-104
-76
-58
-26
9
44
87
133
187
254
312
357
398
428
435
425
412
388
342
273
193
111
29
-44
-110
-172
-219
-239
-242
-250
-258
-250
-236
-231
-234
-236
-235
-232
-233
-232
-232
-238
-244
-241
-241
-252
-257
-250
-248
-252
-248
-237
-233
-233
-222
-216
-233
-248
-236
-218
-204
-172
-126
-104
-121
-151
-162
-155
-151
-139
-137
-168
-155
-102
-162
-244
-30
699
1987
3019
2350
365
-724
-405
-107
-236
-231
-151
-189
-183
-133
-131
-119
-83
-60
-34
3
34
68
115
171
234
292
338
380
421
447
451
439
416
384
337
264
178
99
24
-62
-146
-200
-217
-221
-234
-250
-248
-233
-224
-225
-227
-224
-219
-213
-209
-218
-237
-244
-237
-240
-251
-250
-248
-256
-256
-247
-252
-257
-247
-241
-228
-190
-156
-156
-176
-188
-189
-198
-201
-181
-178
-192
-165
-174
-255
-196
256
1343
2783
3038
1268
-616
-792
-251
-235
-330
-218
-204
-243
-191
-155
-157
-131
-101
-75
-37
4
41
80
124
177
246
319
371
401
419
426
416
393
358
302
230
148
62
-20
-95
-165
-217
-245
-258
-263
-262
-259
-257
-250
-239
-234
-234
-229
-225
-230
-237
-237
-237
-243
-247
-246
-248
-252
-259
-268
-267
-255
-248
-235
-198
-158
-149
-173
-197
-193
-185
-193
-185
-175
-198
-180
-137
-213
-282
-27
791
2201
3205
2313
218
-754
-370
-142
-297
-265
-194
-239
-219
-163
-162
-148
-112
-92
-64
-24
13
55
105
159
225
297
361
410
443
458
457
442
409
355
280
196
109
17
-74
-148
-203
-243
-267
-276
-277
-273
-266
-261
-255
-248
-242
-238
-234
-231
-235
-240
-241
-240
-244
-249
-254
-268
-282
-279
-268
-251
-212
-170
-162
-184
-208
-214
-208
-210
-207
-192
-210
-212
-161
-201
-318
-190
455
1720
3009
2831
966
-531
-511
-164
-265
-319
-229
-247
-263
-213
-199
-189
-151
-126
-100
-57
-16
24
72
124
188
260
323
376
419
440
439
431
410
363
293
212
126
38
-52
-129
-186
-229
-260
-274
-275
-272
-267
-260
-256
-252
-244
-236
-235
-236
-234
-234
-238
-243
-245
-245
-245
-246
-246
-252
-266
-274
-265
-248
-219
-176
-141
-138
-163
-186
-186
-183
-192
-180
-165
-184
-169
-134
-219
-302
-32
832
2206
3091
2205
262
-649
-334
-139
-280
-261
-198
-232
-212
-167
-168
-149
-111
-92
-69
-30
7
48
99
154
214
277
338
389
421
429
424
415
387
333
267
198
120
31
-54
-124
-179
-217
-239
-252
-258
-259
-256
-248
-235
-226
-225
-223
-217
-216
-225
-231
-228
-226
-237
-244
-239
-234
-231
-231
-242
-256
-248
-232
-226
-210
-170
-138
-135
-154
-173
-184
-189
-176
-156
-173
-184
-136
-155
-272
-214
298
1442
2807
2914
1186
-479
-586
-166
-220
-302
-201
-201
-228
-179
-161
-153
-107
-81
-74
-42
-5
27
78
137
184
234
299
358
391
410
419
413
398
379
333
252
166
84
-6
-86
-141
-190
-239
-261
-257
-248
-247
-256
-260
-246
-228
-227
-230
-226
-226
-232
-233
-233
-240
-247
-246
-245
-253
-257
-249
-240
-240
-247
-249
-244
-242
-228
-184
-137
-130
-156
-179
-182
-181
-180
-165
-170
-188
-151
-137
-227
-219
166
1181
2636
3115
1570
-383
-758
-252
-194
-307
-209
-183
-225
-181
-148
-150
-119
-87
-70
-36
2
35
80
136
190
249
309
363
405
432
440
429
410
382
330
253
170
90
9
-71
-137
-185
-216
-238
-250
-252
-250
-246
-234
-223
-219
-216
-212
-212
-216
-217
-219
-225
-227
-228
-233
-238
-236
-236
-240
-240
-243
-256
-262
-252
-235
-205
-161
-132
-141
-172
-186
-178
-181
-185
-167
-173
-189
-144
-149
-270
-236
262
1372
2732
2984
1410
-323
-585
-180
-190
-290
-206
-194
-224
-181
-158
-156
-122
-92
-74
-41
-1
38
82
131
186
252
321
378
418
442
452
447
427
388
327
252
168
81
-4
-82
-149
-198
-232
-256
-271
-272
-265
-257
-248
-241
-236
-230
-222
-218
-216
-213
-213
-217
-221
-222
-225
-224
-220
-221
-225
-224
-221
-220
-213
-203
-199
-199
-195
-191
-198
-214
-221
-208
-183
-149
-107
-78
-89
-124
-139
-130
-132
-131
-116
-132
-136
-90
-132
-236
-74
586
1748
2826
2536
801
-498
-418
-95
-193
-238
-156
-173
-181
-131
-120
-117
-85
-62
-40
-4
30
66
112
163
218
280
342
395
432
450
454
448
430
394
341
271
192
110
28
-49
-117
-169
-204
-222
-231
-236
-237
-232
-228
-227
-225
-222
-218
-215
-215
-216
-215
-217
-218
-217
-220
-226
-228
-228
-226
-225
-226
-224
-215
-208
-206
-202
-194
-191
-190
-185
-180
-174
-166
-168
-188
-202
-192
-173
-155
-124
-87
-71
-87
-112
-118
-117
-122
-113
-112
-136
-110
-78
-166
-208
118
990
2277
2961
1914
67
-623
-253
-117
-246
-195
-153
-196
-157
-117
-133
-108
-63
-56
-42
0
40
74
114
164
225
285
335
380
420
439
435
425
412
383
331
262
184
101
20
-58
-128
-183
-216
-232
-240
-246
-247
-237
-230
-233
-233
-225
-224
-227
-222
-220
-228
-230
-228
-239
-252
-252
-242
-232
-230
-235
-236
-231
-227
-224
-221
-219
-219
-225
-224
-206
-196
-196
-168
-121
-109
-133
-147
-141
-146
-150
-139
-153
-167
-126
-141
-230
-142
375
1534
2918
2934
1040
-663
-670
-186
-230
-283
-160
-172
-206
-145
-121
-127
-98
-66
-42
-12
21
63
110
151
204
271
326
370
414
448
458
446
417
374
320
253
172
86
0
-79
-146
-199
-240
-264
-272
-273
-273
-269
-257
-246
-246
-245
-238
-234
-234
-229
-224
-227
-233
-237
-241
-246
-250
-247
-237
-237
-246
-248
-246
-252
-256
-247
-230
-201
-158
-128
-132
-160
-179
-175
-176
-178
-157
-158
-182
-148
-143
-254
-239
214
1276
2664
3053
1560
-265
-626
-201
-178
-287
-205
-189
-225
-179
-146
-146
-120
-94
-76
-38
3
36
76
131
191
254
321
386
436
466
478
477
460
422
361
282
194
101
7
-79
-150
-204
-243
-269
-281
-285
-286
-281
-272
-263
-256
-248
-244
-244
-242
-238
-237
-240
-243
-246
-250
-250
-249
-252
-262
-275
-281
-273
-256
-228
-187
-152
-146
-168
-194
-199
-196
-203
-192
-174
-192
-183
-143
-213
-301
-70
728
2057
3011
2265
348
-655
-374
-140
-272
-265
-198
-232
-217
-169
-166
-149
-111
-91
-67
-29
8
49
99
152
211
276
337
388
427
446
446
434
411
366
295
211
126
39
-47
-120
-177
-215
-239
-255
-261
-258
-253
-249
-241
-231
-225
-219
-214
-214
-220
-218
-211
-209
-216
-223
-225
-224
-226
-228
-221
-211
-214
-230
-236
-229
-220
-198
-155
-122
-119
-138
-156
-162
-165
-167
-157
-158
-175
-145
-134
-233
-251
130
1121
2490
2990
1662
-160
-634
-226
-160
-282
-218
-193
-227
-181
-146
-156
-133
-95
-79
-57
-13
33
69
108
168
233
284
326
372
410
427
422
412
402
368
297
216
138
48
-47
-123
-176
-217
-245
-264
-274
-266
-248
-247
-256
-252
-243
-247
-255
-261
-264
-265
-265
-268
-273
-272
-266
-266
-278
-289
-285
-272
-264
-244
-200
-166
-173
-197
-205
-198
-207
-221
-204
-190
-213
-201
-178
-238
-233
108
1044
2476
3128
1770
-280
-856
-351
-210
-327
-234
-185
-238
-212
-169
-160
-130
-99
-75
-35
4
37
77
122
175
244
314
373
417
444
459
466
454
415
357
293
219
136
48
-42
-130
-194
-224
-239
-258
-270
-266
-255
-245
-241
-240
-237
-229
-228
-236
-236
-228
-231
-242
-245
-247
-265
-276
-263
-257
-257
-225
-174
-157
-179
-204
-212
-217
-226
-207
-186
-210
-208
-168
-220
-271
-39
697
2044
3145
2409
260
-886
-508
-176
-311
-296
-207
-244
-235
-183
-182
-168
-128
-103
-74
-37
-4
37
87
137
193
256
319
377
413
420
412
400
376
328
258
176
93
7
-81
-156
-213
-254
-278
-287
-287
-283
-275
-268
-261
-251
-243
-243
-245
-244
-242
-241
-246
-255
-262
-271
-284
-290
-282
-273
-252
-210
-175
-173
-200
-224
-224
-223
-229
-212
-202
-220
-193
-175
-275
-290
95
1076
2499
3157
1900
-54
-672
-274
-187
-325
-261
-218
-254
-219
-182
-180
-153
-119
-97
-59
-18
14
56
110
169
235
306
369
417
444
452
448
435
400
340
263
175
83
-6
-89
-155
-202
-234
-258
-268
-268
-263
-256
-251
-244
-234
-226
-220
-212
-208
-212
-214
-214
-219
-227
-239
-255
-259
-249
-237
-210
-164
-138
-151
-183
-202
-199
-199
-206
-194
-193
-209
-178
-170
-278
-285
147
1215
2635
3105
1703
-147
-626
-253
-215
-338
-276
-252
-283
-245
-216
-212
-180
-146
-128
-96
-57
-21
21
73
132
194
255
309
348
367
376
378
364
328
272
201
122
37
-51
-132
-193
-235
-265
-284
-289
-286
-282
-278
-270
-260
-256
-254
-245
-235
-234
-237
-234
-233
-240
-244
-243
-241
-241
-240
-235
-231
-238
-245
-242
-230
-203
-154
-113
-118
-152
-165
-154
-159
-165
-140
-138
-163
-135
-126
-233
-230
220
1307
2689
3037
1560
-210
-574
-179
-155
-260
-186
-171
-208
-172
-142
-136
-101
-75
-67
-35
8
35
69
126
185
238
292
339
371
397
413
413
403
385
349
289
207
120
39
-42
-118
-170
-199
-222
-237
-237
-230
-226
-227
-233
-239
-229
-211
-208
-219
-223
-222
-230
-237
-234
-232
-237
-243
-242
-231
-227
-231
-232
-236
-248
-239
-214
-211
-205
-160
-119
-122
-144
-157
-165
-172
-162
-149
-169
-166
-123
-173
-262
-110
527
1810
3074
2689
637
-769
-555
-154
-254
-279
-188
-218
-215
-155
-152
-148
-108
-86
-67
-27
13
51
91
134
187
253
316
364
390
399
401
401
390
355
294
221
145
66
-16
-91
-152
-196
-227
-247
-250
-245
-243
-242
-234
-226
-220
-213
-212
-216
-217
-217
-219
-219
-221
-228
-233
-236
-241
-244
-240
-233
-232
-232
-228
-226
-236
-248
-243
-228
-212
-181
-134
-112
-130
-157
-161
-161
-170
-157
-144
-169
-153
-112
-196
-266
28
889
2243
3122
2214
235
-668
-319
-117
-261
-233
-169
-210
-194
-149
-148
-129
-92
-73
-49
-10
29
68
110
163
227
291
351
403
438
452
452
441
417
371
305
229
150
64
-28
-107
-162
-202
-234
-252
-258
-258
-256
-249
-241
-236
-231
-223
-220
-218
-216
-216
-219
-220
-222
-230
-236
-234
-231
-236
-241
-235
-226
-223
-220
-214
-209
-201
-196
-204
-219
-223
-212
-192
-157
-113
-83
-85
-116
-136
-132
-134
-136
-121
-133
-139
-92
-126
-237
-98
530
1658
2757
2568
889
-474
-453
-112
-189
-242
-159
-172
-184
-136
-122
-114
-82
-61
-35
7
35
60
104
157
210
270
331
383
421
444
452
448
433
403
349
278
203
122
37
-40
-104
-157
-194
-214
-225
-232
-231
-227
-223
-217
-210
-207
-207
-206
-206
-209
-207
-203
-203
-208
-211
-210
-213
-221
-221
-212
-206
-210
-212
-204
-191
-184
-182
-181
-181
-179
-172
-162
-157
-155
-150
-146
-146
-150
-159
-167
-161
-135
-94
-50
-18
-26
-69
-96
-90
-94
-104
-88
-91
-106
-69
-82
-183
-106
395
1437
2682
2817
1231
-373
-523
-127
-166
-251
-161
-156
-181
-141
-130
-133
-102
-75
-53
-20
8
39
83
124
165
221
280
329
374
409
424
423
411
393
373
325
237
143
66
-7
-80
-149
-206
-239
-253
-262
-271
-274
-267
-259
-250
-241
-237
-247
-257
-257
-260
-265
-263
-267
-280
-279
-270
-279
-290
-284
-274
-276
-275
-268
-266
-273
-279
-274
-249
-207
-169
-150
-151
-167
-186
-200
-217
-217
-192
-201
-216
-172
-178
-276
-210
289
1422
2802
2889
1062
-676
-742
-245
-258
-320
-206
-203
-226
-175
-159
-158
-118
-84
-58
-24
6
43
95
150
204
263
322
379
425
452
463
462
445
406
345
269
186
105
27
-47
-114
-164
-198
-218
-223
-223
-225
-220
-204
-189
-183
-178
-174
-170
-164
-157
-158
-163
-168
-170
-168
-165
-168
-172
-170
-163
-158
-159
-165
-170
-169
-157
-130
-90
-53
-42
-63
-87
-90
-91
-102
-89
-79
-103
-82
-52
-145
-190
142
1035
2383
3148
2097
149
-614
-238
-84
-224
-180
-127
-168
-148
-112
-112
-90
-63
-54
-28
8
38
75
122
173
233
300
362
413
448
461
454
440
412
356
274
185
93
-5
-100
-180
-241
-286
-320
-342
-352
-350
-348
-348
-347
-342
-341
-341
-338
-336
-339
-342
-345
-353
-364
-370
-371
-375
-380
-383
-385
-396
-412
-415
-406
-390
-359
-317
-297
-309
-336
-348
-348
-354
-351
-330
-339
-346
-298
-322
-434
-336
248
1408
2629
2546
841
-626
-645
-270
-328
-381
-287
-291
-301
-245
-222
-212
-171
-135
-103
-61
-17
30
86
146
210
282
358
426
478
513
535
545
545
524
475
411
345
274
200
132
79
43
27
26
31
40
58
82
102
118
136
