# session 40
-24
-8
-57
88
402
504
365
249
184
86
-7
-71
-133
-175
-189
-200
-207
-204
-199
-196
-189
-185
-190
-196
-197
-194
-192
-194
-201
-201
-196
-199
-207
-199
-183
-180
-188
-191
-186
-174
-167
-170
-172
-164
-156
-155
-152
-145
-141
-142
-137
-133
-140
-151
-152
-132
-94
-49
-20
-23
-49
-78
-93
-93
-97
-105
-96
-95
-100
-72
-75
-152
-119
283
1285
2573
2791
1280
-302
-449
-26
-54
-159
-75
-65
-91
-49
-38
-44
-7
26
40
69
105
134
163
198
239
279
318
361
401
425
440
449
449
437
413
362
283
190
94
-5
-97
-173
-230
-270
-292
-301
-306
-304
-295
-288
-282
-275
-273
-272
-267
-264
-267
-266
-264
-266
-269
-269
-268
-269
-269
-265
-257
-252
-249
-244
-240
-239
-231
-223
-219
-213
-204
-204
-213
-216
-217
-216
-191
-141
-100
-84
-88
-111
-141
-150
-150
-161
-158
-142
-155
-151
-118
-168
-235
-40
677
1944
2893
2198
370
-544
-217
11
-143
-146
-82
-119
-105
-59
-62
-50
-12
8
31
64
93
127
163
199
246
298
339
376
414
441
454
456
448
430
396
331
234
127
26
-67
-146
-205
-247
-276
-295
-300
-293
-280
-269
-266
-264
-256
-247
-242
-241
-239
-240
-242
-242
-240
-240
-246
-249
-245
-240
-237
-235
-229
-224
-223
-221
-213
-206
-203
-196
-189
-188
-184
-177
-180
-195
-206
-194
-154
-103
-68
-57
-66
-96
-126
-131
-129
-139
-133
-124
-142
-129
-96
-160
-216
31
798
2016
2773
1937
222
-497
-150
12
-137
-122
-72
-108
-86
-43
-47
-34
-2
18
44
77
103
136
174
210
253
302
344
381
415
442
454
455
453
439
399
331
242
139
34
-58
-135
-197
-243
-271
-283
-287
-286
-280
-271
-264
-258
-254
-253
-252
-248
-244
-244
-244
-246
-248
-250
-251
-249
-245
-241
-241
-240
-235
-226
-221
-220
-215
-208
-205
-205
-201
-193
-190
-194
-204
-217
-216
-178
-118
-77
-69
-80
-104
-132
-142
-141
-150
-148
-136
-151
-148
-117
-163
-227
-20
710
1918
2727
1980
276
-515
-192
5
-140
-138
-77
-111
-100
-58
-57
-42
-7
11
30
64
97
130
169
206
240
278
325
374
405
422
440
449
441
427
402
340
245
141
40
-55
-138
-200
-244
-273
-288
-289
-288
-285
-277
-267
-263
-258
-254
-257
-258
-251
-249
-255
-256
-251
-247
-249
-254
-255
-244
-231
-233
-239
-230
-213
-208
-209
-205
-203
-201
-195
-201
-218
-209
-161
-113
-86
-77
-90
-124
-147
-140
-139
-150
-143
-141
-158
-138
-123
-191
-195
154
1123
2443
2779
1340
-321
-556
-94
-63
-170
-94
-84
-123
-79
-48
-49
-22
3
15
45
82
111
143
179
215
258
304
343
376
406
423
423
417
409
385
333
256
165
71
-16
-96
-170
-228
-261
-277
-287
-287
-277
-268
-262
-257
-252
-247
-240
-239
-241
-237
-234
-238
-241
-242
-245
-246
-245
-242
-237
-231
-225
-220
-215
-212
-210
-207
-203
-200
-199
-202
-213
-221
-208
-167
-117
-82
-73
-94
-129
-149
-149
-152
-153
-138
-144
-157
-129
-131
-206
-164
275
1318
2539
2594
1058
-356
-397
-14
-71
-163
-87
-89
-114
-77
-60
-53
-18
6
18
48
84
111
143
185
227
266
308
353
390
417
435
441
439
432
406
352
274
179
75
-24
-107
-174
-225
-259
-277
-281
-278
-273
-267
-260
-254
-249
-244
-242
-241
-238
-238
-242
-246
-246
-247
-249
-243
-237
-239
-242
-235
-227
-225
-221
-215
-211
-206
-200
-198
-195
-185
-179
-186
-199
-211
-213
-190
-139
-87
-63
-72
-98
-123
-131
-134
-144
-138
-124
-138
-136
-102
-143
-213
-51
605
1791
2717
2127
412
-511
-230
14
-122
-136
-73
-106
-104
-61
-55
-38
-5
13
36
70
97
128
167
201
237
282
331
373
402
422
438
447
444
429
397
337
251
155
58
-36
-120
-182
-226
-260
-277
-276
-271
-270
-267
-261
-256
-251
-248
-246
-243
-241
-243
-246
-246
-247
-250
-250
-246
-247
-250
-244
-235
-233
-230
-220
-212
-209
-206
-203
-200
-193
-186
-182
-183
-197
-213
-202
-155
-103
-69
-63
-84
-118
-137
-136
-141
-150
-139
-134
-145
-123
-115
-192
-195
160
1083
2307
2647
1366
-187
-467
-63
-33
-154
-99
-81
-109
-72
-51
-56
-28
6
22
45
74
105
141
177
216
261
305
344
379
408
429
440
440
431
412
372
304
214
116
17
-79
-160
-216
-247
-265
-275
-276
-273
-273
-269
-261
-258
-257
-248
-239
-240
-245
-248
-246
-246
-252
-256
-250
-240
-238
-240
-236
-228
-220
-215
-214
-212
-206
-201
-200
-200
-194
-184
-183
-197
-211
-202
-172
-129
-87
-66
-71
-96
-126
-141
-141
-140
-134
-128
-143
-136
-112
-160
-205
0
742
2028
2849
1947
119
-616
-206
0
-145
-128
-69
-102
-87
-46
-46
-29
2
18
43
77
103
135
180
217
249
290
339
381
409
423
428
430
425
407
374
314
222
120
29
-54
-131
-192
-238
-267
-278
-279
-277
-272
-266
-262
-260
-254
-245
-242
-248
-253
-251
-251
-256
-257
-256
-259
-260
-256
-254
-252
-246
-240
-236
-231
-227
-223
-218
-212
-207
-203
-199
-200
-209
-217
-202
-156
-105
-74
-67
-88
-126
-145
-136
-138
-144
-131
-133
-144
-116
-119
-198
-164
269
1315
2554
2628
1087
-350
-401
-12
-65
-154
-81
-88
-111
-65
-49
-49
-15
12
25
54
88
118
152
189
228
270
313
355
393
422
438
441
438
432
408
354
275
183
83
-15
-100
-171
-226
-259
-275
-284
-285
-278
-269
-264
-259
-250
-243
-243
-243
-240
-239
-244
-247
-245
-243
-244
-247
-250
-245
-239
-239
-239
-230
-222
-222
-219
-211
-205
-203
-201
-200
-196
-194
-203
-216
-208
-178
-134
-87
-60
-71
-110
-141
-140
-132
-141
-140
-130
-144
-136
-101
-146
-211
-12
714
1933
2735
1958
248
-518
-185
10
-129
-124
-71
-105
-94
-55
-53
-35
-3
13
38
71
95
126
168
205
239
285
335
376
409
434
445
446
444
432
396
331
243
143
46
-42
-119
-185
-234
-265
-279
-281
-277
-272
-265
-255
-251
-248
-242
-243
-249
-246
-239
-241
-242
-237
-237
-243
-245
-242
-241
-240
-237
-231
-223
-217
-215
-211
-203
-197
-193
-190
-188
-184
-179
-177
-180
-191
-196
-174
-125
-77
-54
-59
-85
-117
-128
-123
-129
-136
-127
-133
-144
-111
-112
-192
-150
306
1359
2526
2493
956
-372
-367
-2
-67
-147
-73
-81
-105
-61
-42
-40
-11
14
32
60
91
121
156
192
232
274
316
362
406
430
439
448
455
449
424
373
295
204
110
15
-72
-143
-199
-238
-259
-267
-266
-265
-265
-258
-246
-242
-240
-234
-231
-235
-234
-231
-236
-240
-236
-234
-238
-238
-235
-235
-232
-227
-222
-215
-208
-205
-203
-198
-191
-188
-188
-185
-179
-175
-170
-162
-159
-163
-166
-170
-177
-179
-156
-103
-52
-35
-52
-82
-111
-123
-122
-128
-128
-111
-118
-126
-97
-118
-190
-89
460
1590
2673
2371
699
-458
-295
19
-96
-146
-76
-103
-105
-53
-49
-48
-14
9
27
57
81
106
147
187
221
263
312
359
392
410
425
434
430
424
415
368
279
188
103
5
-94
-165
-217
-265
-294
-295
-288
-288
-288
-284
-278
-269
-261
-261
-262
-259
-263
-268
-257
-243
-248
-264
-267
-262
-258
-252
-241
-236
-234
-224
-217
-221
-220
-214
-216
-215
-209
-211
-210
-179
-132
-103
-96
-107
-132
-152
-156
-162
-171
-160
-154
-175
-157
-122
-168
-202
40
864
2228
2940
1770
-158
-751
-243
-51
-175
-123
-76
-117
-90
-49
-43
-16
11
23
53
91
121
156
199
236
273
320
370
406
428
445
455
451
441
420
367
283
191
102
11
-78
-159
-225
-270
-288
-292
-295
-295
-287
-276
-269
-263
-255
-250
-249
-248
-246
-245
-243
-245
-251
-257
-257
-254
-254
-253
-248
-244
-243
-241
-237
-233
-229
-221
-214
-211
-215
-223
-227
-208
-164
-115
-84
-83
-104
-133
-148
-145
-148
-149
-138
-148
-156
-116
-128
-222
-161
342
1452
2681
2651
1020
-391
-385
-9
-87
-168
-90
-103
-125
-80
-66
-61
-23
0
16
49
81
106
141
183
227
274
322
367
410
443
463
471
470
457
423
365
277
170
65
-28
-114
-193
-246
-274
-295
-311
-311
-300
-290
-283
-275
-266
-262
-258
-254
-251
-249
-248
-250
-254
-255
-253
-254
-254
-250
-246
-245
-243
-238
-231
-225
-223
-220
-215
-208
-203
-205
-212
-224
-228
-203
-147
-96
-78
-85
-106
-132
-144
-145
-153
-149
-131
-143
-147
-109
-146
-232
-94
519
1667
2687
2298
619
-471
-277
16
-110
-155
-85
-107
-112
-66
-56
-45
-14
4
23
58
87
115
156
199
241
287
336
380
417
446
465
472
473
461
424
357
269
169
65
-35
-122
-189
-232
-262
-285
-293
-286
-280
-276
-271
-263
-251
-241
-241
-242
-235
-232
-237
-240
-239
-238
-238
-239
-240
-236
-230
-229
-226
-220
-215
-211
-209
-206
-198
-190
-187
-184
-180
-178
-172
-164
-166
-176
-187
-187
-156
-100
-55
-42
-54
-81
-107
-117
-119
-127
-121
-107
-123
-124
-88
-124
-195
-34
599
1729
2651
2151
493
-475
-232
30
-103
-134
-68
-98
-101
-56
-46
-34
-6
12
35
67
93
122
160
198
238
284
329
372
410
437
454
463
465
454
419
361
284
186
78
-21
-103
-170
-220
-252
-272
-282
-281
-274
-268
-265
-260
-251
-243
-241
-242
-239
-236
-236
-234
-229
-229
-235
-237
-235
-233
-232
-230
-225
-220
-214
-208
-204
-202
-198
-192
-187
-185
-183
-179
-174
-169
-165
-162
-159
-153
-150
-160
-176
-170
-128
-73
-41
-45
-67
-95
-119
-121
-116
-123
-120
-115
-128
-115
-96
-156
-174
131
1000
2258
2764
1600
-57
-495
-98
-20
-150
-109
-88
-123
-84
-46
-49
-31
-7
4
29
65
92
125
168
209
245
286
335
381
416
439
455
463
460
443
408
348
261
152
43
-53
-137
-205
-245
-270
-294
-310
-311
-304
-290
-279
-281
-280
-270
-260
-254
-252
-257
-263
-264
-266
-266
-259
-253
-254
-249
-241
-239
-237
-232
-234
-235
-223
-210
-209
-201
-190
-194
-200
-192
-199
-215
-196
-143
-101
-82
-77
-97
-133
-147
-139
-142
-147
-135
-143
-157
-125
-121
-181
-125
303
1355
2670
2776
1086
-531
-574
-76
-85
-171
-76
-71
-97
-50
-31
-28
2
24
44
82
117
150
188
225
268
314
349
385
437
477
485
484
489
484
446
367
270
185
106
11
-91
-179
-240
-269
-272
-277
-298
-309
-287
-271
-281
-267
-233
-244
-272
-253
-239
-259
-247
-217
-244
-273
-251
-246
-260
-237
-221
-253
-272
-244
-218
-221
-227
-219
-204
-195
-204
-225
-216
-173
-165
-197
-194
-154
-145
-186
-222
-209
-161
-123
-104
-79
-54
-55
-77
-107
-139
-148
-115
-90
-126
-169
-132
-92
-161
-190
123
1045
2410
3038
1906
146
-420
-78
-21
-179
-126
-61
-104
-99
-53
-65
-94
-41
44
35
8
88
163
163
201
262
272
315
414
459
459
479
485
479
502
469
334
224
169
56
-85
-150
-201
-294
-336
-299
-279
-308
-318
-288
-287
-332
-325
-245
-200
-228
-254
-243
-234
-277
-313
-261
-209
-238
-243
-218
-253
-272
-226
-217
-234
-202
-187
-236
-257
-192
-150
-219
-258
-166
-128
-216
-223
-143
-169
-227
-153
-73
-111
-122
-49
-51
-134
-148
-127
-147
-142
-135
-177
-139
-61
-146
-208
172
1138
2306
2608
1388
-146
-481
-51
41
-133
-155
-97
-68
-69
-97
-63
27
21
-42
6
113
140
141
179
204
242
329
377
364
393
474
512
481
457
485
447
275
156
152
63
-86
-140
-199
-298
-295
-249
-275
-312
-312
-287
-253
-245
-238
-240
-307
-333
-236
-181
-237
-257
-236
-272
-297
-233
-184
-239
-300
-261
-203
-219
-238
-203
-199
-242
-251
-219
-212
-238
-238
-177
-99
-75
-102
-129
-151
-187
-198
-156
-131
-161
-174
-135
-117
-171
-228
-138
363
1497
2630
2365
679
-563
-446
-35
-60
-152
-120
-109
-112
-90
-62
-50
-56
-16
77
101
39
44
150
222
221
251
347
426
427
417
477
535
495
427
420
406
305
168
68
-30
-145
-192
-192
-269
-343
-308
-312
-374
-317
-223
-265
-318
-272
-246
-282
-291
-259
-247
-272
-282
-257
-254
-277
-270
-247
-244
-249
-252
-256
-244
-239
-261
-242
-156
-106
-138
-167
-164
-170
-188
-217
-235
-209
-179
-175
-169
-202
-255
-155
282
1306
2617
2723
991
-645
-637
-87
-103
-227
-155
-150
-162
-98
-89
-115
-60
19
28
21
61
100
113
163
229
255
299
387
444
463
477
465
454
477
451
336
230
149
6
-139
-188
-213
-269
-301
-311
-324
-324
-330
-338
-319
-316
-310
-243
-220
-282
-272
-217
-257
-288
-236
-247
-292
-241
-210
-264
-252
-205
-264
-306
-226
-197
-253
-224
-141
-126
-123
-116
-170
-202
-162
-166
-207
-186
-138
-120
-141
-212
-218
62
885
2212
2932
1880
93
-500
-130
-37
-151
-96
-96
-146
-91
-76
-115
-52
38
29
2
41
91
118
168
232
264
297
366
432
460
474
491
496
487
467
420
325
196
84
0
-105
-215
-252
-248
-308
-372
-340
-291
-311
-333
-303
-266
-264
-293
-288
-237
-252
-323
-306
-239
-256
-286
-279
-309
-317
-253
-253
-326
-321
-277
-295
-275
-174
-141
-212
-250
-233
-262
-303
-258
-207
-236
-241
-214
-292
-372
-144
637
1949
2834
2017
185
-634
-292
-112
-259
-250
-214
-233
-183
-175
-196
-126
-91
-125
-77
-14
-26
13
98
112
142
236
281
312
394
411
369
430
510
413
260
248
224
43
-79
-66
-161
-320
-292
-208
-257
-289
-247
-268
-286
-205
-156
-206
-224
-159
-95
-92
-100
-54
-19
-73
