# session 13
57
63
53
-62
-182
-179
-126
-104
-153
-269
-252
210
1320
2539
2486
891
-581
-826
-480
-386
-662
-449
996
2217
1409
-244
-541
394
1025
729
189
114
259
216
135
112
23
-71
-96
-127
-183
-231
-270
-287
-286
-301
-324
-326
-325
-351
-384
-391
-389
-403
-407
-387
-377
-379
-344
-295
-303
-345
-331
-298
-318
-314
-282
-367
-460
-243
528
1936
3087
2402
304
-871
-609
-349
-459
-403
-299
-317
-267
-167
-124
-59
58
171
279
354
354
307
247
170
103
77
61
23
-14
-32
-50
-75
-97
-116
-137
-154
-171
-202
-237
-255
-269
-295
-302
-287
-286
-283
-245
-214
-232
-272
-278
-252
-270
-292
-238
-255
-373
-260
275
1280
2448
2469
785
-745
-731
-293
-345
-361
-213
-216
-231
-140
-74
-18
81
183
283
378
413
382
330
271
199
138
105
69
6
-48
-62
-66
-87
-109
-119
-130
-156
-181
-188
-189
-206
-225
-224
-219
-230
-238
-223
-195
-175
-181
-219
-250
-243
-251
-259
-212
-231
-357
-288
241
1228
2190
2025
526
-720
-692
-312
-308
-325
-241
-241
-231
-156
-112
-66
24
107
173
247
289
269
226
191
136
54
-6
-36
-67
-93
-102
-110
-121
-124
-125
-139
-169
-200
-219
-230
-241
-243
-242
-260
-277
-263
-239
-246
-254
-211
-143
-135
-193
-218
-189
-195
-197
-140
-179
-319
-232
339
1495
2746
2662
887
-637
-664
-283
-314
-325
-216
-219
-204
-108
-49
10
114
210
295
389
457
462
416
354
299
251
216
183
131
70
32
19
19
8
-44
-104
-125
-144
-202
-249
-244
-232
-241
-251
-258
-271
-260
-218
-203
-226
-225
-188
-177
-219
-249
-237
-245
-253
-214
-239
-318
-193
355
1475
2658
2408
493
-957
-802
-362
-426
-427
-290
-304
-310
-210
-143
-90
19
135
242
371
462
451
390
328
240
148
92
25
-62
-102
-107
-147
-206
-235
-241
-253
-280
-325
-366
-394
-433
-464
-456
-450
-462
-436
-398
-409
-422
-396
-371
-364
-364
-360
-344
-344
-347
-307
-284
-280
-77
555
1536
2090
1276
-327
-1020
-603
-254
-275
-232
-154
-145
-88
-6
51
134
235
359
517
615
648
655
537
383
472
604
397
79
0
18
-22
-34
-24
-43
-54
-56
-74
-86
-83
-94
-114
-129
-147
-163
-158
-156
-177
-186
-166
-154
-185
-232
-234
-218
-247
-237
-170
-230
-324
-68
745
1996
2789
1903
-1
-849
-454
-213
-334
-287
-200
-219
-179
-109
-71
6
116
215
319
408
431
389
316
232
153
92
48
6
-42
-84
-108
-119
-131
-150
-167
-182
-205
-226
-238
-255
-276
-284
-300
-325
-324
-312
-326
-329
-283
-245
-268
-311
-304
-274
-296
-303
-237
-264
-386
-273
305
1432
2632
2493
701
-766
-721
-334
-392
-401
-276
-276
-266
-175
-118
-69
19
113
212
311
366
362
320
251
170
104
52
-7
-73
-123
-157
-187
-204
-212
-230
-247
-249
-256
-278
-295
-307
-321
-327
-333
-351
-362
-352
-343
-340
-310
-263
-245
-273
-303
-294
-279
-281
-240
-204
-297
-359
-77
771
2091
2795
1710
-168
-854
-489
-338
-406
-305
-245
-265
-188
-89
-39
37
147
264
377
456
487
469
404
327
272
230
184
132
86
53
18
-25
-53
-58
-73
-112
-147
-156
-166
-209
-240
-210
-178
-211
-261
-247
-188
-162
-184
-185
-135
-116
-168
-207
-202
-199
-179
-169
-222
-201
94
871
2152
2852
1657
-385
-1058
-503
-220
-303
-242
-169
-167
-121
-93
-69
45
175
281
423
497
452
504
656
627
423
224
47
-5
67
-31
-209
-133
-27
-113
-118
-46
-140
-230
-195
-229
-286
-233
-189
-210
-206
-192
-184
-121
-18
5
-72
-89
-40
-140
-296
-241
-198
-451
-757
-615
579
2566
3270
1485
-715
-1321
-1107
-997
-763
-613
-839
-975
-783
-615
-629
-667
-592
-364
-79
61
0
-88
-132
-265
-452
-485
-390
-293
-87
282
535
381
-41
-310
-300
-196
-141
-219
-248
56
213
-251
-570
-199
162
170
242
433
504
435
347
233
27
-30
120
33
-90
355
1231
2530
3795
2958
112
-1284
-509
-172
-404
96
348
-285
-658
-524
-351
-10
298
239
151
213
164
-32
-120
-133
-436
-685
-505
-945
-1441
551
3004
1576
-1445
-1732
-724
-604
-537
-94
614
1573
1550
-14
-1398
-1190
-414
-720
-1345
-363
1229
1062
-138
-463
-179
49
308
233
-225
-428
-199
828
2691
3121
825
-1248
-939
1
253
-23
-861
-1210
-510
-374
-842
-474
5
4
412
724
429
480
727
444
129
11
-285
-728
-1194
-1305
-911
-927
-1255
-832
-752
-1280
448
3307
2517
-450
-1010
-201
129
1510
3190
2063
-1183
-2817
-1950
-1190
-1875
-2436
-1859
-1029
-480
-59
79
503
2126
3459
2171
-478
-1495
-1014
-813
-792
-465
-504
-552
691
2249
2323
1824
1834
1423
447
-133
394
2275
3482
1945
-54
-105
171
-341
-594
-631
-884
-817
-569
-764
-1119
-1342
-1684
-1963
-1842
-1594
-1506
-1460
-1231
-610
32
-97
-301
1054
2918
2442
92
-1230
-1218
-1366
-1691
-1261
420
2195
1672
-625
-1532
-919
-776
-915
-881
-1107
-971
-547
-716
-174
1436
1482
400
1215
2726
2609
2335
2573
1399
-759
-1000
1806
5424
6015
2710
-481
-705
-120
-580
-921
-723
-747
-871
-941
-1202
-1345
-1172
-1132
-1297
-1259
-1204
-1514
-1595
-1177
-1336
-1832
-689
1768
2970
2210
784
-54
471
1612
1228
-890
-2290
-1754
-826
-815
-1119
-947
-562
-360
-203
-118
-354
-538
-130
470
544
225
18
-55
-88
161
1052
2439
3002
1575
-479
-1053
-587
-429
-658
-1111
-1336
-636
181
80
-165
40
5
-305
-325
-289
-531
-756
-712
-531
-449
-506
-537
-598
-735
-421
443
1070
1450
2157
2735
2773
2505
1509
-47
-757
-699
-926
-994
-765
-1083
-1247
-441
212
264
613
1022
861
609
491
140
-246
-339
-401
-588
-611
-432
-360
-388
-398
-592
-558
786
2823
3159
1379
-337
-961
-1233
-1296
-1042
-862
-576
47
389
226
129
206
95
-113
-108
147
841
1856
1867
220
-1403
-1588
-1059
-749
-620
-471
-375
-317
-3
219
-427
-1092
-448
545
612
367
362
240
-125
-570
-632
-4
436
0
-413
-220
-153
-442
-576
-559
-592
-469
-198
-237
-503
-319
-100
-747
-845
1113
2788
1833
115
-382
-470
-823
-1034
-1002
-595
766
2995
4239
2707
62
-650
27
-148
-796
-716
-359
-331
-401
-378
-440
-632
-575
-172
122
368
808
730
-77
-441
108
653
436
-263
-466
-166
-522
-1143
-652
129
84
205
789
705
188
84
10
-230
-244
-252
-316
-185
-301
-550
-345
-679
-1513
-313
2252
2735
2211
3081
2797
-1
-1633
-939
-626
-897
-418
-73
-384
-323
-133
-525
-670
-216
-118
-397
-328
-112
-188
-352
-410
-432
-444
-418
-356
-370
-536
-647
-683
-653
92
1266
1045
-350
-643
-122
-463
-902
-581
-400
-423
-16
367
346
265
184
4
-168
-311
-465
-313
865
2713
3130
1363
-695
-1676
-1124
1219
3032
1853
-200
-555
-367
-574
-561
-666
-923
-481
258
590
779
666
7
-426
-235
-54
-210
-373
-244
75
166
-168
-540
-497
-214
-195
-312
-194
-283
-423
848
2752
2298
29
-808
-480
-950
-1375
-958
-795
-888
-536
74
1306
2931
2648
208
-1327
-992
-662
-756
-599
-535
-636
-446
-263
-349
-590
-1326
-2079
-1169
1315
2986
2600
1276
324
-37
-158
-310
-424
-273
106
488
757
804
569
235
-17
-93
0
-51
-381
-542
-313
-157
-391
-689
-675
-534
-539
-520
-539
-883
-863
367
2061
2771
1942
205
-987
-975
-710
-849
-897
-747
-902
-1256
-1169
-663
-423
-474
-289
-89
-221
-201
75
-7
-356
-423
-285
-273
-446
-455
-37
-10
-713
-336
1695
2766
1659
342
-20
-119
-296
-438
-612
-725
-621
-295
247
768
1008
1148
1211
903
479
435
1059
2575
3835
2856
508
-510
-200
-71
-148
-168
-210
-167
-434
-863
-301
754
706
35
17
380
500
435
330
262
196
-146
-801
-1288
-1220
-885
-829
-1041
-1139
-1112
-1125
-1067
-940
-994
-1206
-1327
-1315
-1253
-1087
-888
-997
-1046
121
2111
2717
1539
593
771
1436
2339
2680
1330
-545
-1053
-721
-615
-439
-114
103
518
929
653
83
26
284
406
496
671
812
773
565
453
404
119
-28
70
-457
-845
766
2732
1980
-186
-818
-382
-302
-347
-453
-867
-1054
-864
-869
-1101
-1363
-1781
-2039
-1823
-1679
-1874
-1786
-975
569
1965
1327
-1139
-2557
-2259
-2004
-1766
-1286
-1499
-1110
1002
1983
567
-346
157
411
340
513
628
660
694
526
298
174
37
-56
-40
-23
112
462
691
620
594
815
1049
1070
903
775
786
663
384
315
323
275
617
812
61
-149
1197
2065
1803
2245
2759
1425
-467
-930
-604
-623
-896
-1111
-1201
-1163
-1110
-1145
-1149
-964
-724
-609
-419
-26
245
243
205
173
12
-174
-198
-141
-259
-498
-491
-254
105
1034
2204
2119
779
-87
-89
-182
-429
-393
-277
-321
-394
-418
-412
-398
-417
-356
66
1020
2111
2168
631
-1069
-1386
-841
-460
-185
16
-126
-290
-127
92
167
230
283
308
427
609
694
669
675
1086
2113
2828
1999
251
-703
-694
-675
-829
-910
-944
-886
-768
-819
-959
-1014
-1120
-1235
-1181
-1206
-1475
-1534
-1289
-1297
-1424
-1084
-476
517
2218
2794
730
-1576
-1821
-1203
-1025
-1132
-1050
133
2092
2713
1667
673
207
-134
-73
322
460
325
266
280
183
-20
-178
-265
-349
-369
-258
-143
-173
-313
-403
-404
-438
-470
-432
-532
-669
-432
-188
-468
-684
-370
-176
-407
-584
-669
-853
-430
1421
3640
3842
1574
-845
-1197
304
1814
2574
2797
1221
-1581
-908
3028
3324
-410
-1891
-770
-590
-845
-443
-382
-656
-640
-611
-677
-728
-959
-1308
-1486
-1429
-1178
-884
-738
-654
-512
-435
-430
-333
-198
-250
-518
-664
-528
-743
-1413
-847
1609
3262
2355
1211
1246
859
627
2630
5432
6503
5234
1822
-1605
-2440
-1795
-1716
-1634
-1207
-1211
-1338
-1055
-794
-731
-510
-257
-364
-613
-543
-379
-710
-1258
-871
734
2281
2737
2565
2570
2630
2389
2315
2519
1684
-463
-2020
-2159
-1941
-1875
-1881
-1821
-1517
-1744
-2037
550
5125
5970
2127
-1257
-1763
-1302
-1232
-1358
-1378
-1275
-1203
-1174
-1081
-973
-860
-647
-411
-253
-53
226
391
337
191
63
-77
-238
-343
-383
-441
-539
-622
-649
-594
-498
-467
-526
-612
-694
-740
-731
-687
-625
-604
-624
-549
-495
-676
-733
-272
625
1861
2670
1738
-213
-993
-572
-407
-579
-548
-472
-522
-545
-434
-315
-340
-237
72
24
40
1300
2779
2298
466
-362
10
-25
-475
-123
42
-707
931
5330
6070
1452
-1732
-598
679
-9
-815
-781
-582
-556
-536
-539
-648
-774
-825
-712
-269
576
1493
1520
54
-1317
-833
-367
-1264
254
4709
5383
941
-1918
-1258
-765
-1295
-1308
-209
1482
2579
2835
2588
1184
-833
-1598
-1518
-1809
-1849
-1615
-1698
-1049
280
205
-1066
-1536
-1273
-1212
-1260
-1145
-827
-773
-1105
-806
-673
-1879
-792
3827
4856
556
-1020
1386
1507
-53
1207
3348
2213
-679
-582
3280
6672
5855
1557
-2312
-3183
-2381
-2041
-2000
-1599
-1259
-1218
-1197
-1195
-1342
-1458
-1393
-1318
-1330
-1351
-1408
-1478
-1437
-1402
-1473
-1448
-1347
-1386
-1334
-997
-698
-442
-109
-208
-611
-138
1587
3531
3731
1527
511
3399
6258
6241
6068
5338
1544
-2097
-2493
-1875
-1924
-2211
-2171
-566
1959
2871
2549
2408
1313
-633
-1251
-781
-892
-1271
-1204
-1219
-1552
-1674
-1518
-1628
-1957
-1868
-1623
-1659
-1205
-686
-1342
-696
2799
3589
-437
-1586
2265
3201
35
-603
1507
2213
2092
2658
2261
271
-1346
-1569
-1395
-1508
-1583
-1621
-1825
-1825
-1444
-1200
-1326
-1405
-1229
-1059
-921
-601
-245
-101
-61
3
12
-76
-224
-311
-250
-141
31
341
469
458
1350
3327
4333
2741
147
-955
-692
-533
-681
-699
-641
-683
-768
-619
-62
983
2664
3882
2747
217
-796
-365
-408
-734
-613
-633
-896
-841
-631
-543
-406
-278
-261
-129
123
256
359
544
514
258
149
2
-328
-353
-607
-1511
-731
2418
3637
1175
-831
-443
-40
-387
-434
-359
-589
-810
-868
-908
-1002
-1029
-786
-156
1085
2464
2212
25
-1629
-1524
-1143
-1146
-895
-597
-633
-645
-505
-389
-254
-178
-203
-32
174
127
347
657
224
295
1873
2562
1581
1933
3596
3137
731
-554
-368
-274
-468
-459
-430
-590
-758
-787
-692
-562
-501
-525
-575
-599
-543
-32
1516
3289
3006
529
-1323
-1334
-1094
-1327
-1369
-1176
-1008
-811
-708
-772
-759
-623
-522
-399
-157
79
257
406
326
89
515
1944
3244
3112
1662
181
-374
-311
-337
-491
-612
-765
-807
-673
-694
-858
-844
-822
-998
-1105
-1030
-959
-772
190
2151
3390
2001
-488
-1236
-667
-568
-772
-755
-750
-761
-806
-813
-528
-506
-591
782
2654
2514
1823
2647
2659
656
-567
-199
-84
-395
-399
-363
-463
-521
-603
-669
-600
-547
-581
-528
-406
-466
-716
-885
-810
-640
-698
-983
-1032
-610
302
1787
2789
1692
-570
-1507
-1111
-949
-1044
-959
-1066
-1066
-568
-524
-949
-407
621
1029
1843
2797
1957
440
334
655
374
219
244
-28
-387
-585
-567
-380
-288
-316
-325
-427
-535
-408
-272
-362
-457
-453
-477
-475
-445
-479
-437
-32
1069
2649
3136
1452
-696
-1151
-534
-491
-579
376
1247
467
-207
1523
3653
3012
610
-649
-437
-53
57
61
59
116
121
-4
-77
-64
-58
7
76
48
98
244
172
-149
-397
-463
-517
-608
-672
-756
-816
-730
-680
-758
-625
-78
1047
2479
2441
306
-1212
-931
-948
-741
1560
3153
1441
-588
-546
-132
-340
-361
-118
53
204
306
242
57
-27
84
91
-168
-439
-636
-796
-712
-433
-372
-551
-633
-599
-646
-740
-764
-771
-838
-928
-973
-959
-923
-878
-828
-797
-394
1022
2798
3397
3167
3318
2762
582
-1118
-973
-526
-678
-707
-521
-518
-570
-556
-558
-455
-158
57
26
26
131
8
-288
-398
-413
-555
-740
-928
-1093
-1080
-982
-997
-1018
-942
-887
-902
-910
-917
-940
-865
-673
-630
-784
-764
-263
991
2769
3350
1705
-77
-87
452
318
169
268
175
54
112
152
168
203
140
138
347
454
320
226
195
121
156
244
201
217
393
530
