# session 39
-10
-3
-35
91
339
436
406
441
506
523
534
559
566
554
539
517
473
400
309
212
116
27
-52
-116
-155
-173
-187
-194
-189
-182
-180
-180
-183
-182
-176
-177
-185
-187
-195
-210
-206
-189
-190
-201
-199
-195
-198
-197
-192
-190
-189
-186
-193
-207
-214
-210
-197
-164
-118
-87
-87
-109
-131
-140
-145
-148
-136
-134
-153
-134
-114
-188
-221
74
907
2111
2645
1586
-24
-495
-119
-34
-166
-123
-89
-125
-100
-70
-71
-43
-11
-1
23
59
86
118
157
193
230
273
313
344
369
389
398
397
389
371
336
274
185
91
5
-84
-168
-221
-246
-266
-277
-275
-274
-274
-265
-258
-260
-262
-259
-258
-258
-258
-262
-263
-257
-262
-275
-274
-261
-254
-250
-243
-243
-246
-236
-229
-239
-251
-250
-243
-229
-199
-158
-125
-123
-152
-174
-166
-160
-166
-159
-158
-164
-139
-141
-215
-196
194
1208
2493
2680
1182
-336
-457
-54
-85
-180
-105
-112
-142
-91
-68
-71
-37
-5
8
33
65
99
132
164
204
249
286
320
357
383
395
405
407
395
374
337
268
180
92
-3
-104
-181
-220
-242
-262
-277
-286
-287
-277
-266
-266
-266
-261
-257
-258
-264
-274
-277
-272
-269
-273
-277
-275
-266
-251
-243
-251
-254
-240
-240
-257
-257
-239
-213
-169
-131
-140
-174
-184
-176
-186
-190
-171
-179
-192
-160
-167
-229
-159
278
1379
2744
2757
926
-646
-567
-84
-148
-210
-96
-109
-137
-80
-61
-63
-29
0
16
43
81
124
162
194
233
274
313
359
394
407
420
432
420
400
383
336
251
154
53
-49
-134
-195
-242
-276
-291
-288
-285
-289
-284
-269
-262
-266
-267
-255
-244
-253
-269
-271
-265
-264
-261
-263
-272
-269
-255
-255
-268
-273
-268
-258
-244
-218
-177
-148
-159
-193
-208
-204
-211
-209
-191
-201
-201
-165
-200
-268
-126
498
1793
2988
2460
435
-738
-389
-44
-199
-210
-113
-149
-151
-98
-91
-78
-39
-16
9
47
81
114
148
180
223
278
325
356
385
414
427
422
418
407
360
277
181
83
-15
-103
-179
-242
-285
-303
-307
-308
-307
-297
-282
-276
-275
-270
-267
-267
-262
-258
-266
-271
-262
-260
-268
-266
-257
-258
-261
-256
-261
-273
-267
-247
-229
-198
-159
-147
-172
-196
-193
-188
-192
-181
-178
-199
-170
-138
-230
-284
24
915
2281
3007
1922
73
-552
-159
-58
-209
-162
-120
-162
-134
-97
-98
-76
-47
-32
-2
35
64
100
145
187
231
284
335
371
401
429
442
440
434
413
355
263
161
56
-49
-140
-208
-259
-297
-319
-325
-317
-306
-300
-289
-275
-270
-270
-265
-260
-260
-260
-258
-261
-263
-262
-259
-255
-252
-251
-246
-237
-235
-238
-242
-251
-258
-251
-232
-203
-156
-118
-124
-155
-168
-161
-165
-173
-158
-155
-174
-144
-127
-221
-232
148
1104
2403
2874
1628
-54
-461
-81
-52
-187
-130
-100
-130
-99
-73
-70
-41
-15
1
31
67
96
130
172
218
265
310
354
394
425
443
451
452
444
416
363
284
184
78
-20
-104
-174
-228
-263
-280
-283
-279
-278
-276
-267
-256
-248
-245
-243
-241
-238
-237
-241
-244
-241
-239
-242
-242
-239
-234
-232
-230
-227
-222
-217
-212
-206
-200
-198
-197
-192
-183
-177
-175
-171
-164
-160
-157
-152
-149
-156
-173
-185
-171
-127
-74
-41
-39
-62
-93
-104
-100
-108
-107
-93
-111
-114
-72
-112
-192
-18
615
1726
2703
2319
676
-389
-214
34
-106
-136
-63
-94
-98
-51
-46
-38
-7
13
36
67
91
121
161
196
232
275
316
351
385
410
421
425
432
428
404
356
286
196
101
10
-74
-145
-196
-230
-250
-258
-259
-262
-264
-260
-255
-253
-249
-246
-246
-245
-245
-250
-255
-255
-253
-254
-255
-254
-251
-244
-238
-236
-234
-228
-225
-223
-217
-211
-208
-203
-196
-192
-190
-186
-181
-175
-170
-168
-170
-178
-187
-185
-163
-121
-74
-47
-54
-84
-112
-117
-117
-122
-114
-108
-123
-107
-86
-154
-178
121
940
2132
2692
1677
66
-442
-82
1
-142
-108
-70
-104
-80
-47
-43
-20
3
12
37
72
103
139
176
209
246
283
318
358
391
408
413
416
413
401
373
318
241
155
59
-45
-130
-181
-219
-253
-271
-269
-264
-266
-266
-261
-257
-255
-254
-259
-265
-261
-255
-261
-263
-256
-252
-253
-248
-247
-254
-250
-234
-226
-229
-228
-222
-219
-216
-207
-197
-197
-208
-217
-218
-210
-184
-138
-96
-82
-97
-127
-144
-149
-162
-163
-146
-157
-164
-126
-143
-211
-118
395
1556
2781
2523
684
-612
-407
-29
-145
-180
-84
-117
-134
-76
-61
-58
-24
1
19
52
84
112
146
187
231
274
311
347
382
408
417
417
420
418
391
341
271
173
63
-32
-114
-189
-240
-261
-273
-284
-291
-289
-272
-257
-263
-268
-257
-251
-260
-269
-275
-275
-271
-267
-262
-257
-263
-267
-257
-252
-257
-250
-230
-223
-239
-254
-245
-218
-187
-149
-115
-114
-149
-177
-175
-176
-192
-186
-177
-191
-170
-138
-186
-210
58
935
2343
2992
1684
-263
-759
-225
-82
-208
-133
-91
-133
-98
-63
-66
-35
-2
11
39
78
114
150
184
224
274
317
352
390
419
426
428
429
418
391
341
257
155
54
-41
-124
-188
-242
-286
-302
-300
-299
-293
-279
-271
-271
-265
-255
-256
-258
-255
-255
-263
-264
-263
-267
-267
-262
-264
-265
-258
-253
-252
-250
-249
-253
-259
-259
-238
-195
-151
-126
-129
-158
-185
-185
-181
-188
-176
-166
-184
-165
-141
-221
-263
43
934
2287
2961
1840
27
-544
-142
-50
-201
-156
-117
-156
-125
-88
-91
-69
-38
-19
11
44
69
102
147
191
237
288
339
382
416
437
446
450
447
419
359
272
167
60
-39
-125
-200
-258
-295
-315
-325
-324
-310
-300
-296
-289
-279
-271
-265
-263
-265
-264
-262
-264
-264
-263
-264
-266
-264
-261
-261
-266
-278
-282
-267
-240
-206
-167
-144
-154
-186
-201
-196
-198
-198
-182
-191
-199
-157
-177
-278
-191
386
1573
2760
2555
847
-449
-360
-32
-142
-205
-128
-143
-153
-109
-98
-89
-56
-32
-5
29
54
83
126
169
212
260
310
356
392
414
425
432
429
409
366
295
201
96
-6
-94
-168
-230
-278
-299
-302
-305
-311
-304
-288
-278
-270
-261
-255
-256
-253
-246
-247
-250
-245
-244
-251
-251
-244
-243
-245
-241
-237
-237
-238
-245
-254
-246
-221
-187
-145
-114
-120
-151
-169
-166
-168
-174
-160
-158
-169
-141
-134
-217
-208
192
1196
2447
2669
1257
-254
-441
-59
-74
-176
-111
-106
-129
-87
-68
-67
-33
-7
5
35
70
101
136
176
217
260
304
346
380
406
425
434
431
420
395
342
258
157
56
-33
-112
-180
-227
-255
-271
-276
-275
-272
-264
-251
-242
-242
-246
-249
-247
-240
-234
-235
-243
-248
-244
-239
-239
-240
-236
-230
-223
-220
-222
-217
-205
-200
-204
-204
-199
-195
-194
-202
-215
-208
-174
-130
-91
-72
-90
-127
-144
-134
-137
-151
-138
-129
-147
-131
-121
-190
-189
172
1133
2411
2741
1388
-193
-454
-63
-59
-171
-107
-102
-135
-89
-65
-71
-40
-10
-1
26
65
98
134
173
199
229
282
336
365
382
401
417
421
415
398
364
301
208
107
13
-81
-167
-222
-251
-273
-289
-295
-291
-281
-276
-277
-274
-268
-272
-278
-274
-270
-280
-286
-277
-268
-271
-275
-265
-250
-249
-259
-256
-237
-229
-239
-246
-241
-240
-237
-215
-176
-135
-110
-125
-167
-187
-177
-178
-184
-173
-182
-195
-157
-149
-225
-203
193
1264
2686
2905
1204
-507
-598
-98
-116
-218
-126
-117
-138
-84
-56
-54
-30
-9
12
50
91
124
149
183
238
293
328
363
407
436
439
441
454
452
411
340
256
162
65
-27
-117
-196
-251
-283
-301
-306
-301
-293
-281
-271
-268
-264
-256
-252
-253
-252
-251
-255
-260
-261
-261
-264
-266
-264
-262
-261
-253
-241
-238
-238
-232
-232
-245
-249
-236
-224
-207
-165
-122
-117
-149
-175
-174
-171
-172
-158
-158
-174
-143
-136
-224
-215
164
1166
2582
3022
1534
-277
-571
-95
-77
-201
-119
-109
-149
-100
-70
-74
-42
-13
-4
23
62
95
127
166
210
259
304
348
391
424
441
450
451
439
409
350
259
154
49
-51
-140
-210
-263
-298
-316
-319
-315
-307
-300
-293
-286
-278
-269
-262
-258
-255
-256
-262
-262
-256
-257
-267
-271
-268
-263
-255
-251
-250
-243
-236
-230
-227
-239
-258
-252
-230
-214
-182
-132
-112
-136
-161
-162
-160
-172
-166
-150
-168
-163
-118
-173
-263
-66
651
1896
2901
2344
545
-483
-237
-5
-158
-173
-103
-136
-130
-89
-89
-72
-32
-14
7
45
76
107
148
192
235
287
341
386
420
445
463
470
465
446
403
324
223
120
16
-85
-163
-212
-250
-281
-293
-292
-288
-284
-274
-261
-247
-236
-234
-235
-232
-227
-226
-227
-225
-224
-229
-233
-231
-226
-221
-218
-216
-212
-204
-199
-199
-197
-190
-188
-190
-185
-177
-172
-165
-157
-154
-156
-161
-173
-185
-178
-142
-95
-56
-39
-53
-87
-111
-110
-112
-117
-105
-106
-123
-94
-82
-175
-169
228
1153
2344
2718
1512
-42
-394
-41
-25
-152
-101
-85
-119
-83
-56
-58
-32
-3
12
37
70
103
136
171
207
247
290
335
376
407
429
440
440
438
429
389
314
222
126
25
-69
-146
-205
-247
-273
-284
-283
-280
-279
-275
-268
-264
-263
-260
-257
-257
-258
-259
-259
-258
-258
-262
-264
-261
-259
-259
-256
-248
-239
-234
-231
-229
-224
-218
-213
-207
-205
-204
-198
-189
-186
-181
-173
-174
-189
-200
-185
-146
-98
-62
-47
-61
-96
-123
-120
-116
-120
-113
-120
-132
-100
-101
-192
-160
279
1270
2457
2641
1262
-196
-371
-15
-49
-153
-88
-87
-114
-71
-48
-48
-17
9
20
48
86
118
149
180
212
255
307
351
385
412
428
432
433
435
421
376
306
222
124
23
-68
-144
-206
-247
-265
-272
-275
-276
-274
-272
-269
-265
-261
-261
-262
-260
-256
-257
-257
-254
-256
-261
-260
-255
-254
-260
-258
-246
-241
-249
-244
-223
-212
-215
-216
-218
-221
-224
-227
-211
-161
-107
-89
-102
-126
-148
-158
-166
-177
-167
-154
-167
-155
-130
-184
-226
-15
724
2048
2939
2028
99
-690
-257
-34
-178
-153
-94
-128
-104
-68
-74
-48
-8
9
36
71
98
131
169
205
247
289
330
379
420
429
427
437
443
422
374
307
229
141
39
-67
-151
-208
-258
-291
-292
-285
-293
-294
-280
-272
-270
-263
-258
-261
-266
-265
-262
-262
-268
-273
-267
-260
-261
-262
-255
-250
-251
-248
-240
-234
-235
-243
-247
-234
-206
-168
-132
-116
-131
-157
-168
-172
-186
-188
-169
-177
-198
-162
-151
-226
-195
222
1300
2692
2874
1180
-487
-561
-86
-119
-206
-106
-111
-143
-89
-61
-57
-25
-2
15
52
85
112
151
195
236
279
326
372
405
424
438
447
440
421
387
327
239
138
36
-59
-139
-205
-256
-287
-298
-302
-301
-295
-289
-283
-274
-265
-262
-261
-261
-261
-261
-260
-258
-260
-267
-269
-266
-264
-259
-253
-255
-255
-245
-238
-243
-254
-260
-250
-218
-170
-128
-116
-139
-173
-183
-172
-177
-185
-169
-172
-186
-149
-154
-254
-210
268
1343
2626
2779
1242
-291
-416
-40
-105
-208
-128
-129
-157
-110
-90
-89
-57
-32
-19
10
45
79
119
156
195
245
299
347
385
412
424
433
440
430
394
333
244
138
36
-59
-145
-212
-259
-290
-302
-299
-299
-299
-288
-275
-271
-268
-263
-261
-260
-258
-257
-259
-260
-259
-259
-263
-263
-255
-252
-255
-255
-257
-269
-274
-257
-230
-194
-150
-129
-150
-184
-190
-181
-188
-188
-171
-179
-180
-140
-176
-269
-141
494
1715
2800
2387
636
-483
-288
-12
-147
-182
-112
-143
-144
-96
-91
-79
-39
-16
0
31
64
95
132
174
220
267
310
350
385
409
420
423
418
402
360
284
186
90
-4
-101
-181
-234
-269
-292
-301
-300
-295
-288
-282
-274
-267
-262
-259
-253
-250
-254
-256
-254
-256
-257
-256
-256
-257
-253
-248
-244
-242
-247
-257
-262
-253
-231
-194
-150
-125
-138
-171
-186
-180
-182
-183
-170
-174
-176
-142
-167
-259
-181
346
1475
2649
2503
862
-428
-360
-27
-126
-187
-108
-128
-146
-97
-84
-82
-49
-23
-5
25
55
84
125
168
206
245
289
331
363
384
396
401
399
387
352
286
201
110
14
-82
-160
-216
-257
-282
-288
-287
-286
-280
-271
-269
-266
-256
-251
-254
-256
-252
-249
-250
-251
-250
-249
-248
-250
-250
-247
-241
-235
-230
-226
-225
-233
-247
-248
-228
-199
-160
-118
-104
-129
-158
-160
-155
-165
-161
-142
-151
-148
-113
-153
-231
-73
602
1826
2767
2154
420
-501
-219
16
-124
-134
-67
-100
-99
-56
-47
-31
-2
17
42
72
98
133
173
207
247
290
329
366
400
420
427
426
424
416
382
310
221
133
45
-42
-118
-181
-222
-243
-251
-255
-256
-251
-245
-246
-248
-241
-236
-241
-240
-235
-240
-250
-249
-242
-240
-242
-244
-244
-241
-239
-238
-234
-237
-247
-246
-232
-208
-175
-140
-130
-153
-186
-195
-190
-196
-196
-196
-210
-191
-166
-224
-264
-12
845
2211
2860
1667
-173
-704
-248
-108
-228
-183
-155
-196
-165
-125
-121
-104
-87
-73
-36
8
39
64
94
132
180
230
269
295
317
336
344
348
347
322
268
200
116
13
-86
-163
-230
-290
-328
-330
-320
-322
-327
-314
-296
-293
-295
-288
-282
-284
-281
-269
-262
-265
-265
-256
-246
-242
-241
-236
-221
-213
-222
-222
-202
-183
-157
-109
-71
-70
-87
-95
-95
-99
-93
-74
-75
-75
-30
-30
-99
-41
403
1525
2930
3008
1208
-403
-371
104
45
-22
85
76
50
92
114
143
