# session 2
-48
-57
-26
-67
-223
-348
-356
-333
-343
-354
-347
-341
-343
-346
-349
-349
-344
-342
-348
-351
-349
-345
-336
-328
-331
-341
-341
-324
-290
-237
-178
-150
-167
-184
-174
-171
-169
-154
-170
-195
-164
-174
-262
-230
172
1166
2345
2353
855
-416
-406
-105
-186
-231
-154
-159
-151
-94
-82
-70
-28
0
19
51
82
107
142
184
213
221
227
236
226
202
182
158
145
160
153
100
53
25
-20
-79
-127
-148
-132
-108
-108
-112
-101
-98
-105
-106
-112
-130
-133
-120
-118
-127
-134
-142
-145
-140
-147
-167
-178
-173
-158
-130
-90
-64
-78
-120
-155
-172
-176
-168
-174
-199
-182
-156
-214
-232
25
708
1700
2137
1203
-195
-555
-154
-37
-143
-101
-64
-89
-64
-30
-18
16
54
76
111
156
201
246
288
319
339
348
346
336
315
286
257
228
190
142
85
18
-52
-117
-176
-216
-232
-238
-244
-244
-235
-229
-230
-236
-245
-258
-273
-283
-289
-305
-324
-318
-295
-286
-291
-287
-272
-256
-249
-256
-265
-263
-254
-234
-192
-152
-157
-192
-205
-201
-203
-194
-190
-201
-171
-148
-226
-267
-44
671
1889
2619
1727
111
-454
-142
-68
-190
-154
-139
-175
-130
-80
-68
-38
-4
19
54
94
133
177
215
241
264
277
270
260
247
224
204
187
154
115
90
53
-10
-62
-79
-82
-93
-105
-114
-120
-122
-126
-129
-125
-128
-144
-156
-164
-175
-185
-190
-196
-199
-201
-204
-203
-201
-206
-207
-196
-176
-144
-115
-122
-154
-173
-174
-174
-172
-189
-202
-168
-170
-239
-192
182
1012
1981
2004
701
-479
-454
-68
-89
-153
-77
-77
-93
-41
-9
0
30
61
90
120
141
161
192
222
240
247
247
240
223
191
142
95
67
45
6
-40
-86
-131
-165
-186
-202
-203
-193
-194
-200
-199
-200
-208
-210
-212
-222
-229
-231
-237
-241
-232
-221
-226
-244
-253
-243
-228
-217
-191
-149
-136
-167
-192
-195
-204
-210
-198
-197
-192
-173
-211
-256
-110
422
1454
2447
2186
674
-404
-321
-82
-187
-230
-170
-182
-173
-120
-99
-77
-35
-7
23
66
101
134
177
216
244
266
281
287
284
272
252
230
207
174
121
54
-11
-67
-109
-138
-157
-166
-166
-166
-173
-184
-190
-190
-194
-206
-217
-227
-240
-250
-253
-253
-256
-264
-264
-257
-257
-245
-187
-136
-156
-202
-213
-218
-228
-220
-227
-240
-205
-223
-313
-230
227
1210
2422
2524
948
-517
-510
-89
-159
-235
-141
-155
-177
-119
-101
-99
-59
-27
-1
45
90
126
167
210
249
280
299
303
294
276
255
234
208
162
101
38
-27
-94
-150
-190
-215
-223
-222
-222
-225
-226
-229
-231
-229
-234
-245
-252
-256
-261
-267
-274
-279
-271
-260
-255
-225
-174
-166
-204
-224
-223
-228
-216
-217
-241
-211
-196
-291
-278
88
918
2100
2593
1408
-256
-612
-158
-107
-244
-175
-145
-179
-138
-101
-95
-60
-22
5
47
90
127
169
213
253
287
306
307
298
288
275
254
221
174
114
42
-32
-101
-157
-195
-215
-223
-227
-228
-228
-228
-228
-231
-236
-242
-246
-250
-256
-260
-261
-266
-274
-272
-265
-259
-231
-188
-187
-223
-240
-243
-240
-221
-224
-237
-193
-190
-278
-217
217
1193
2467
2701
1160
-445
-546
-90
-129
-231
-141
-140
-171
-121
-98
-92
-50
-15
10
52
96
136
180
224
259
285
297
295
283
264
243
218
185
135
72
4
-64
-128
-180
-215
-235
-242
-243
-242
-241
-240
-237
-234
-234
-238
-240
-242
-247
-251
-256
-268
-278
-273
-261
-240
-195
-165
-185
-214
-221
-228
-226
-214
-234
-228
-186
-238
-294
-67
610
1753
2643
2021
288
-598
-281
-51
-191
-190
-131
-170
-155
-105
-97
-76
-39
-16
21
67
99
127
161
188
210
227
231
222
205
185
165
146
122
85
33
-29
-93
-150
-194
-217
-228
-233
-235
-236
-235
-227
-215
-210
-211
-214
-213
-207
-202
-204
-216
-230
-235
-227
-216
-197
-157
-125
-137
-164
-170
-170
-163
-149
-164
-164
-126
-160
-223
-60
524
1557
2399
1913
363
-516
-277
-43
-158
-168
-107
-137
-130
-83
-74
-61
-26
1
28
63
94
125
161
194
220
235
234
223
207
193
179
162
136
98
49
-6
-66
-122
-161
-184
-196
-202
-203
-202
-196
-192
-196
-201
-203
-210
-222
-228
-226
-226
-229
-236
-254
-268
-268
-270
-264
-222
-182
-199
-239
-251
-243
-219
-194
-208
-217
-182
-205
-279
-159
393
1453
2415
2080
544
-461
-301
-46
-154
-190
-132
-150
-142
-95
-82
-63
-24
7
43
84
116
148
185
221
253
276
279
270
260
252
240
216
181
138
85
23
-42
-101
-147
-179
-198
-208
-214
-219
-223
-227
-230
-231
-234
-238
-238
-239
-247
-252
-248
-253
-268
-267
-249
-235
-208
-164
-153
-182
-204
-212
-214
-197
-197
-211
-179
-175
-256
-224
168
1056
2153
2339
1044
-330
-469
-94
-100
-186
-119
-114
-130
-83
-62
-59
-22
9
28
63
98
125
159
194
220
239
245
235
219
204
187
169
147
115
72
19
-39
-91
-132
-167
-192
-201
-202
-206
-212
-213
-212
-214
-218
-220
-221
-222
-223
-222
-219
-217
-227
-244
-243
-230
-217
-185
-137
-131
-166
-186
-191
-194
-182
-182
-192
-163
-166
-244
-190
222
1094
2092
2154
865
-378
-438
-84
-108
-186
-124
-121
-135
-93
-72
-64
-31
-3
19
53
86
115
153
190
215
233
244
243
231
217
203
186
164
134
91
37
-23
-79
-124
-152
-168
-177
-181
-185
-192
-196
-194
-194
-197
-200
-200
-199
-201
-206
-209
-207
-208
-220
-234
-234
-218
-195
-157
-119
-119
-151
-173
-182
-186
-176
-178
-195
-175
-165
-233
-222
110
910
1942
2197
1063
-272
-487
-120
-85
-179
-129
-113
-133
-95
-67
-62
-33
-1
22
54
90
122
156
189
215
234
241
236
227
212
192
174
160
140
104
56
1
-54
-102
-134
-154
-168
-175
-179
-183
-187
-193
-197
-198
-203
-209
-214
-216
-218
-219
-219
-220
-218
-218
-226
-237
-231
-206
-173
-132
-105
-120
-155
-175
-185
-181
-166
-175
-176
-143
-164
-223
-107
381
1301
2125
1781
367
-527
-320
-32
-111
-140
-82
-98
-95
-56
-47
-32
2
25
50
83
113
145
180
207
227
244
248
239
226
212
192
171
153
129
90
39
-16
-68
-111
-138
-152
-160
-167
-171
-174
-177
-178
-179
-184
-190
-195
-199
-205
-211
-214
-214
-215
-216
-221
-233
-241
-228
-197
-162
-125
-108
-134
-167
-178
-181
-177
-170
-182
-174
-143
-183
-228
-41
539
1489
2149
1551
126
-546
-245
-33
-135
-134
-83
-105
-93
-54
-45
-24
9
29
58
95
126
157
190
215
236
250
251
241
226
206
188
172
152
120
76
25
-29
-86
-129
-152
-165
-179
-188
-192
-200
-207
-207
-207
-210
-212
-214
-222
-230
-229
-224
-228
-238
-238
-226
-221
-232
-238
-226
-203
-166
-120
-109
-140
-168
-178
-177
-163
-163
-182
-161
-142
-208
-211
80
804
1847
2316
1344
-133
-540
-150
-47
-169
-139
-110
-132
-90
-53
-59
-37
6
31
56
94
133
165
195
222
244
260
266
255
236
220
200
175
149
119
79
23
-48
-111
-146
-167
-183
-190
-195
-204
-210
-210
-210
-214
-223
-233
-236
-237
-239
-243
-247
-244
-240
-248
-259
-252
-233
-215
-179
-136
-137
-175
-198
-208
-205
-186
-195
-207
-171
-181
-251
-169
268
1264
2478
2507
875
-553
-501
-75
-140
-208
-119
-133
-151
-96
-78
-73
-36
-5
21
60
98
134
174
208
238
259
262
252
236
216
191
166
139
104
57
2
-55
-111
-157
-186
-199
-206
-208
-206
-203
-203
-205
-208
-210
-212
-216
-223
-228
-232
-236
-239
-236
-234
-246
-256
-247
-230
-212
-174
-140
-157
-193
-201
-206
-210
-192
-199
-212
-170
-187
-274
-149
375
1344
2378
2301
805
-433
-366
-23
-120
-191
-117
-130
-140
-89
-75
-66
-27
-2
21
61
97
128
167
205
233
251
261
259
243
220
205
184
145
109
74
18
-54
-117
-160
-191
-211
-221
-223
-223
-219
-208
-205
-209
-213
-215
-218
-224
-231
-230
-218
-215
-221
-226
-235
-248
-245
-227
-203
-153
-99
-102
-148
-170
-174
-182
-169
-164
-187
-175
-160
-216
-191
173
1010
1993
2104
905
-325
-435
-80
-71
-144
-85
-81
-100
-58
-32
-25
0
23
50
85
105
126
170
205
220
235
248
242
227
216
197
168
147
134
105
54
0
-52
-103
-140
-156
-167
-179
-178
-169
-167
-173
-175
-174
-177
-180
-182
-183
-189
-195
-191
-186
-191
-206
-215
-208
-191
-168
-130
-95
-109
-152
-171
-176
-185
-183
-181
-186
-167
-160
-202
-179
104
825
1758
1921
808
-394
-519
-145
-97
-168
-119
-107
-122
-87
-63
-55
-25
7
34
68
95
115
145
183
210
223
230
232
225
208
187
169
157
137
96
43
-7
-55
-105
-142
-158
-167
-181
-195
-199
-200
-203
-203
-201
-202
-201
-201
-208
-215
-211
-204
-203
-205
-210
-215
-206
-183
-149
-108
-91
-124
-164
-173
-172
-165
-153
-166
-159
-119
-157
-216
-61
491
1545
2497
2047
370
-607
-318
-28
-153
-167
-91
-119
-118
-71
-62
-50
-14
11
37
71
100
130
166
197
223
246
254
235
203
182
165
140
110
77
32
-26
-87
-136
-178
-223
-253
-251
-240
-241
-249
-251
-247
-246
-252
-256
-256
-254
-249
-247
-255
-262
-264
-264
-265
-267
-263
-242
-214
-182
-153
-156
-190
-211
-210
-204
-199
-212
-213
-167
-170
-232
-165
216
1169
2485
2712
1091
-546
-601
-93
-106
-193
-105
-116
-138
-67
-42
-53
-15
34
67
107
154
196
225
252
286
313
323
318
292
247
211
193
170
127
76
30
-21
-89
-144
-172
-210
-255
-245
-220
-252
-272
-235
-242
-285
-250
-191
-198
-217
-233
-260
-233
-208
-295
-331
-199
-130
-212
-255
-253
-316
-354
-266
-115
-21
-32
-59
-40
-84
-185
-177
-118
-122
-39
102
57
-30
141
806
2197
3376
2605
481
-513
-158
-120
-527
-557
-380
-313
-116
166
171
-64
-218
-233
-255
-253
-96
197
477
584
561
661
786
538
141
149
300
111
-92
46
220
205
145
70
-174
-572
-694
-159
554
597
4
-569
-926
-1231
-1378
-1262
-1161
-1204
-1008
-479
-213
-456
-680
-630
-587
-534
-265
19
150
313
423
255
108
250
377
345
384
493
468
195
-323
-792
-859
-738
-873
-1089
-891
-375
-73
-155
-332
-290
-36
55
-205
-441
-463
-556
-606
-189
504
970
1104
965
626
423
647
1162
1673
1959
1858
1438
976
604
370
419
687
804
612
362
351
704
1203
1346
1089
711
-38
-1004
-1184
-757
-737
-728
-334
-366
-616
-197
254
-7
-345
-294
-206
-301
-469
-532
-440
-361
-342
-267
-188
-140
-107
-324
-914
-1542
-1775
-1466
-937
-459
485
1819
1816
-57
-1553
-1214
-322
-46
42
207
73
-100
205
608
662
680
733
400
-200
-532
-527
-419
-231
69
292
286
217
271
432
731
986
613
-163
-103
889
1457
1215
984
833
309
-161
47
506
427
-21
-241
-427
-794
-684
26
438
357
199
-154
-584
-564
-302
-228
-146
46
128
149
122
-37
49
273
-447
-1743
-1774
-1064
-1595
-2156
-548
1493
1171
-747
-1929
-1636
-581
61
-4
50
214
-57
-144
221
210
-150
-293
-331
-352
-266
-179
-60
93
93
-12
-21
139
404
575
749
1428
2222
1719
48
-726
-1
631
373
-178
-471
-159
466
527
125
-117
-348
-525
-333
-168
-198
-114
-160
-432
-392
-91
12
99
350
382
80
-265
-513
-455
-99
-258
-701
498
2753
2463
-516
-2351
-1874
-1090
-983
-1245
-1219
-394
475
699
910
1086
618
239
581
938
1004
1052
930
798
1061
1339
1244
1068
888
521
128
-120
-242
-270
-282
-90
596
1319
1367
796
106
-182
166
546
309
-146
-195
28
-63
-834
-1739
-1820
-1304
-1136
-1139
-706
-299
-476
-845
-948
-894
-829
-666
-405
-200
-92
-38
-93
-212
-143
113
247
372
918
1622
1830
1414
347
-1157
-2001
-1739
-1416
-1415
-986
-126
374
261
77
248
352
68
-82
-67
-434
-809
-590
-165
91
365
563
443
229
155
76
96
608
1362
1858
2237
2305
1397
226
142
734
845
586
463
239
-367
-1016
-1317
-1388
-1350
-1016
-623
-642
-836
-710
-385
-206
-224
-282
-262
-291
-412
-248
141
44
-318
-213
-305
-776
45
2060
3133
2967
2040
-54
-1992
-1941
-1084
-1220
-1764
-1698
-1321
-1026
-479
302
618
370
-7
-473
-805
-689
-607
-796
-670
-258
-92
-30
202
452
642
746
671
621
963
1846
2901
2985
1496
-75
-144
546
725
466
122
-139
-134
-221
-718
-1209
-1410
-1349
-963
-553
-398
-177
57
-138
-389
-229
-129
-381
-517
-342
-174
-341
-708
-684
-537
-832
3
2763
4204
3001
2396
2555
643
-1732
-1643
-743
-1128
-1785
-1579
-734
202
682
637
583
649
504
101
-325
-539
-452
-264
-132
99
519
925
1031
755
348
139
126
-1
-268
-148
271
58
-198
1026
2394
1738
505
540
575
-174
-463
-167
-227
-635
-1076
-1547
-1755
-1637
-1612
-1548
-1049
-536
-498
-623
-587
-552
-642
-707
-560
5
1262
2765
3016
1351
-770
-1603
-1217
-738
-74
1436
2147
216
-2218
-2367
-1439
-1489
-1944
-1696
-909
-154
326
627
955
1352
1645
1531
967
468
444
555
355
68
166
586
840
758
518
142
-238
-109
592
1268
1551
1249
63
-1415
-1815
-950
-22
207
16
-178
-430
-921
-1211
-814
-360
-485
-619
-442
-377
-224
185
169
-340
-466
296
1711
2616
1581
-609
-1454
-857
-1010
-1861
-1205
897
2058
1294
-300
-1427
-1566
-1143
-821
-625
-505
-666
-805
-477
36
341
549
750
758
524
340
464
627
419
94
195
604
702
288
-132
-100
196
461
785
1214
1517
1359
469
-739
-1204
-657
249
