# session 25
-54
-22
-103
1
357
549
434
295
232
131
14
-52
-92
-122
-138
-144
-142
-142
-146
-145
-144
-151
-153
-147
-151
-167
-181
-183
-185
-196
-208
-216
-228
-236
-226
-216
-210
-183
-143
-135
-164
-189
-186
-182
-187
-173
-165
-183
-158
-136
-214
-214
150
1113
2557
3190
1797
-264
-830
-332
-207
-330
-250
-213
-258
-218
-177
-179
-148
-107
-84
-57
-26
11
65
125
187
259
333
399
453
488
506
505
478
431
372
297
204
111
24
-65
-146
-203
-239
-262
-271
-273
-272
-262
-245
-238
-239
-235
-231
-235
-239
-237
-238
-247
-256
-260
-259
-260
-265
-277
-286
-285
-279
-267
-234
-189
-163
-170
-195
-204
-197
-201
-205
-189
-198
-207
-163
-188
-307
-234
307
1477
2850
2950
1214
-467
-606
-209
-258
-334
-239
-242
-267
-214
-193
-192
-158
-130
-108
-70
-30
10
62
123
189
263
336
400
450
480
489
483
461
418
355
278
193
104
10
-78
-145
-190
-226
-251
-258
-254
-250
-247
-241
-239
-238
-232
-226
-224
-223
-222
-223
-229
-232
-234
-236
-242
-246
-244
-241
-241
-239
-236
-241
-254
-257
-246
-229
-199
-153
-117
-119
-148
-165
-160
-161
-166
-150
-152
-167
-131
-137
-253
-218
271
1338
2627
2870
1379
-304
-595
-204
-191
-285
-211
-200
-227
-184
-162
-163
-130
-96
-75
-42
-2
35
78
129
186
250
318
382
432
461
471
468
456
428
372
297
221
146
59
-35
-114
-168
-202
-223
-236
-241
-238
-233
-230
-223
-216
-221
-231
-227
-223
-226
-226
-220
-226
-241
-248
-244
-241
-241
-241
-245
-246
-239
-228
-227
-234
-243
-245
-238
-223
-193
-148
-118
-131
-160
-164
-160
-175
-163
-133
-163
-183
-126
-153
-264
-135
487
1688
2895
2653
793
-627
-528
-151
-247
-291
-196
-216
-231
-175
-151
-136
-102
-83
-62
-27
4
42
92
143
200
269
336
391
432
455
464
463
448
415
366
304
230
152
72
-18
-102
-159
-198
-225
-233
-230
-232
-231
-223
-217
-212
-215
-224
-221
-210
-213
-229
-239
-241
-242
-241
-243
-249
-250
-245
-247
-256
-249
-233
-240
-259
-249
-225
-227
-224
-178
-128
-127
-159
-174
-167
-174
-182
-164
-168
-189
-146
-138
-247
-224
227
1299
2729
3089
1437
-502
-805
-276
-218
-319
-223
-206
-242
-190
-156
-154
-119
-86
-70
-38
1
38
85
139
196
256
320
377
425
463
476
458
431
403
357
287
210
130
46
-35
-104
-159
-204
-236
-248
-247
-244
-238
-226
-216
-214
-214
-211
-211
-216
-218
-218
-221
-232
-239
-238
-234
-237
-244
-246
-242
-239
-236
-232
-237
-253
-257
-244
-231
-212
-173
-134
-126
-147
-163
-159
-161
-175
-165
-156
-177
-150
-118
-218
-262
86
998
2359
3109
2019
48
-703
-312
-160
-298
-249
-196
-234
-203
-157
-156
-133
-101
-85
-57
-17
21
66
118
172
237
311
382
441
479
495
496
485
452
394
324
245
156
65
-23
-103
-165
-208
-237
-253
-259
-260
-256
-248
-242
-241
-239
-237
-234
-231
-231
-236
-239
-239
-241
-243
-245
-248
-250
-248
-249
-248
-243
-238
-237
-236
-239
-248
-252
-241
-221
-190
-147
-115
-118
-146
-159
-150
-155
-160
-139
-141
-160
-119
-122
-239
-193
311
1367
2629
2865
1381
-297
-584
-193
-187
-283
-204
-189
-215
-171
-146
-143
-109
-81
-66
-33
5
42
89
140
196
261
328
390
438
467
476
473
456
419
364
295
218
137
54
-30
-106
-162
-199
-224
-239
-243
-240
-239
-238
-233
-224
-219
-220
-221
-218
-219
-222
-221
-222
-227
-230
-228
-229
-229
-228
-226
-225
-225
-225
-220
-212
-205
-200
-194
-198
-218
-231
-222
-203
-179
-140
-101
-92
-112
-134
-137
-133
-137
-132
-133
-155
-129
-91
-181
-239
73
912
2164
2927
2037
193
-638
-315
-123
-248
-223
-166
-205
-190
-144
-142
-131
-96
-64
-34
-6
26
69
110
153
213
276
333
388
434
456
456
443
423
393
344
277
201
119
32
-48
-114
-174
-223
-240
-237
-241
-245
-237
-223
-216
-220
-233
-239
-233
-231
-238
-243
-246
-254
-254
-246
-248
-260
-265
-263
-260
-251
-247
-252
-253
-248
-244
-234
-201
-157
-135
-155
-192
-194
-169
-171
-183
-173
-182
-186
-157
-201
-270
-105
515
1767
3025
2646
570
-854
-620
-202
-296
-297
-189
-227
-232
-167
-162
-159
-115
-84
-56
-10
37
71
101
146
215
292
357
409
453
484
490
476
455
416
355
280
196
96
0
-73
-132
-185
-221
-244
-262
-261
-244
-239
-244
-241
-231
-223
-227
-239
-243
-237
-235
-242
-249
-257
-269
-269
-260
-264
-273
-269
-266
-265
-240
-191
-160
-172
-205
-209
-197
-209
-216
-199
-213
-210
-161
-207
-280
-66
627
1904
3110
2628
485
-910
-623
-206
-322
-321
-205
-240
-238
-170
-166
-157
-106
-77
-63
-33
8
56
110
172
242
310
372
429
477
497
487
468
440
385
308
227
142
53
-31
-113
-190
-241
-267
-279
-279
-273
-269
-257
-239
-227
-230
-236
-236
-233
-237
-245
-252
-253
-254
-259
-264
-269
-282
-295
-291
-276
-269
-254
-217
-181
-176
-198
-214
-214
-222
-227
-202
-199
-216
-174
-176
-296
-267
191
1279
2784
3242
1616
-366
-723
-256
-252
-366
-260
-242
-280
-228
-198
-203
-168
-132
-113
-76
-32
5
52
115
179
248
326
396
449
485
502
493
466
427
366
281
189
96
-2
-94
-163
-214
-256
-280
-283
-280
-279
-272
-262
-258
-254
-251
-250
-247
-241
-244
-252
-254
-253
-258
-270
-285
-293
-287
-279
-265
-224
-181
-174
-197
-221
-226
-219
-222
-217
-196
-207
-210
-158
-204
-339
-211
457
1749
3101
2991
1097
-505
-536
-178
-277
-340
-248
-260
-270
-216
-203
-196
-158
-134
-112
-69
-30
7
59
120
184
256
330
392
432
456
467
457
426
377
311
228
139
49
-42
-125
-187
-229
-259
-278
-282
-279
-277
-271
-263
-257
-252
-247
-243
-242
-238
-235
-238
-244
-246
-248
-252
-253
-252
-249
-248
-256
-268
-266
-254
-242
-214
-164
-130
-138
-168
-183
-179
-178
-179
-162
-163
-178
-137
-137
-263
-246
239
1318
2656
2992
1532
-235
-606
-214
-191
-297
-219
-201
-233
-191
-161
-160
-130
-95
-72
-42
-9
27
75
126
182
248
317
377
422
450
461
459
445
412
356
285
207
125
41
-37
-108
-166
-201
-217
-229
-235
-234
-231
-224
-211
-204
-211
-218
-219
-221
-225
-224
-224
-229
-232
-237
-245
-243
-234
-234
-238
-233
-236
-254
-262
-253
-241
-224
-186
-146
-135
-154
-176
-178
-176
-190
-188
-170
-179
-172
-134
-198
-301
-122
576
1842
2967
2525
624
-643
-477
-163
-271
-291
-208
-229
-228
-184
-175
-154
-114
-97
-74
-32
3
39
91
144
192
250
321
382
419
438
442
433
411
374
324
265
190
103
19
-53
-116
-172
-209
-223
-226
-235
-243
-239
-232
-226
-221
-217
-218
-228
-238
-238
-233
-241
-251
-250
-246
-247
-248
-247
-242
-237
-233
-234
-248
-261
-249
-228
-228
-217
-168
-130
-137
-156
-162
-164
-176
-182
-170
-175
-184
-142
-149
-254
-212
237
1303
2745
3114
1461
-470
-771
-262
-218
-311
-210
-199
-237
-185
-156
-153
-112
-77
-60
-27
14
51
92
138
191
249
309
378
439
464
463
462
452
414
354
286
210
134
64
-15
-107
-177
-208
-222
-235
-240
-239
-236
-229
-219
-218
-224
-222
-214
-217
-230
-239
-241
-241
-246
-254
-259
-259
-264
-279
-285
-272
-263
-263
-239
-191
-159
-167
-200
-216
-204
-202
-203
-185
-195
-214
-173
-189
-287
-195
358
1570
2978
2961
1027
-666
-661
-208
-283
-344
-227
-238
-261
-199
-180
-184
-149
-114
-89
-57
-18
29
79
128
183
251
321
383
423
440
442
435
414
371
305
228
153
72
-22
-105
-166
-212
-244
-259
-265
-265
-256
-243
-236
-233
-227
-222
-222
-227
-233
-235
-236
-242
-249
-250
-246
-249
-258
-261
-261
-269
-273
-264
-249
-225
-186
-155
-150
-169
-193
-197
-195
-200
-183
-171
-195
-171
-138
-240
-292
57
999
2425
3229
2117
79
-703
-312
-169
-316
-259
-200
-243
-215
-171
-170
-147
-112
-95
-64
-20
16
55
109
171
239
309
374
425
457
468
463
446
415
360
285
203
116
26
-58
-129
-186
-227
-250
-258
-263
-268
-264
-256
-251
-250
-246
-239
-233
-231
-233
-235
-235
-234
-237
-242
-246
-246
-244
-240
-236
-237
-246
-257
-255
-242
-224
-194
-151
-124
-133
-162
-178
-170
-170
-176
-158
-161
-181
-141
-141
-267
-246
251
1350
2698
3004
1504
-256
-597
-204
-192
-297
-219
-200
-228
-188
-162
-159
-125
-95
-78
-47
-7
33
79
130
184
249
319
377
421
449
456
444
425
391
334
263
186
101
14
-68
-137
-190
-225
-249
-261
-258
-251
-250
-247
-239
-234
-236
-233
-226
-226
-230
-230
-228
-227
-227
-229
-231
-231
-230
-228
-224
-220
-219
-217
-212
-209
-213
-221
-233
-234
-214
-184
-152
-117
-94
-107
-141
-151
-140
-144
-143
-126
-141
-146
-100
-144
-259
-115
524
1684
2810
2591
861
-504
-463
-123
-207
-253
-167
-183
-197
-151
-135
-123
-89
-70
-46
-6
26
59
109
161
213
274
333
381
415
435
441
433
416
388
340
273
203
125
34
-50
-109
-152
-190
-218
-232
-235
-230
-224
-219
-212
-208
-211
-218
-216
-214
-219
-225
-223
-222
-230
-240
-244
-241
-234
-228
-225
-220
-214
-214
-220
-219
-212
-211
-206
-199
-207
-222
-216
-198
-183
-156
-120
-101
-111
-132
-141
-140
-149
-144
-126
-141
-143
-102
-145
-228
-62
607
1882
3046
2570
575
-707
-472
-127
-251
-262
-165
-203
-213
-157
-146
-134
-92
-74
-62
-24
21
57
97
144
197
256
323
382
412
420
427
435
424
383
326
267
203
122
32
-54
-124
-173
-210
-239
-250
-250
-246
-236
-224
-226
-234
-235
-232
-231
-230
-233
-238
-242
-248
-251
-249
-253
-265
-270
-263
-262
-273
-276
-262
-250
-236
-198
-157
-151
-174
-190
-192
-201
-212
-194
-183
-208
-187
-156
-234
-266
50
952
2380
3149
1936
-141
-842
-359
-185
-322
-253
-192
-234
-203
-160
-159
-132
-96
-78
-47
-4
35
78
130
185
247
313
374
421
448
455
446
424
389
337
268
187
100
13
-70
-138
-187
-224
-248
-256
-256
-254
-248
-240
-234
-230
-224
-223
-223
-221
-221
-227
-233
-238
-242
-244
-243
-243
-244
-243
-248
-262
-267
-256
-238
-209
-165
-132
-133
-159
-180
-178
-175
-180
-166
-160
-183
-158
-129
-226
-278
61
1000
2382
3089
1968
46
-660
-287
-154
-287
-241
-193
-230
-203
-164
-162
-136
-101
-81
-51
-11
26
69
118
170
232
301
361
408
438
449
445
426
393
339
266
186
107
23
-62
-132
-182
-220
-249
-261
-260
-255
-250
-244
-240
-240
-238
-233
-229
-230
-233
-236
-239
-242
-244
-245
-247
-249
-249
-247
-244
-245
-256
-269
-268
-254
-237
-207
-162
-132
-138
-165
-182
-181
-181
-180
-161
-165
-185
-147
-139
-247
-232
223
1267
2568
2876
1444
-256
-590
-196
-169
-273
-202
-183
-214
-173
-141
-135
-107
-85
-69
-30
12
39
75
127
182
240
301
355
390
409
418
410
386
358
319
258
183
109
27
-58
-119
-161
-200
-226
-232
-235
-240
-234
-222
-215
-214
-212
-209
-209
-215
-222
-229
-233
-229
-225
-231
-234
-228
-225
-231
-236
-238
-246
-252
-241
-222
-198
-161
-124
-119
-150
-183
-184
-179
-184
-168
-160
-184
-162
-137
-227
-255
82
984
2356
3044
1828
-153
-782
-315
-168
-303
-236
-187
-240
-214
-163
-154
-134
-103
-79
-48
-16
23
75
116
154
214
280
332
380
419
431
421
405
384
343
281
209
130
43
-33
-88
-151
-219
-248
-247
-256
-262
-243
-226
-228
-230
-225
-221
-222
-227
-238
-243
-236
-238
-252
-253
-242
-248
-275
-283
-262
-247
-243
-219
-181
-162
-180
-209
-214
-205
-211
-200
-185
-209
-198
-151
-210
-273
-41
721
2102
3182
2370
196
-900
-497
-185
-320
-284
-191
-236
-226
-173
-176
-164
-117
-88
-61
-20
21
66
115
165
222
290
355
404
440
456
444
419
393
347
275
197
115
25
-57
-120
-173
-216
-238
-248
-259
-261
-248
-236
-235
-234
-226
-223
-228
-229
-226
-231
-244
-254
-255
-254
-256
-257
-256
-266
-282
-277
-260
-255
-236
-192
-161
-172
-202
-213
-209
-214
-207
-181
-194
-211
-159
-178
-298
-224
307
1481
2916
3048
1229
-524
-628
-190
-252
-333
-230
-236
-261
-207
-192
-192
-154
-126
-105
-66
-29
8
60
116
175
246
318
378
420
443
447
442
426
386
322
247
163
71
-18
-97
-162
-211
-245
-263
-268
-264
-259
-254
-248
-241
-236
-232
-230
-226
-222
-219
-222
-226
-229
-229
-230
-231
-238
-255
-263
-252
-238
-218
-177
-136
-128
-149
-173
-177
-166
-170
-167
-147
-163
-173
-123
-160
-291
-177
474
1753
3061
2906
1041
-485
-484
-134
-233
-293
-202
-217
-231
-180
-167
-163
-125
-97
-75
-39
-1
38
86
143
204
269
334
389
426
443
445
435
411
366
301
221
135
50
-34
-112
-177
-221
-250
-267
-274
-275
-271
-261
-254
-253
-248
-241
-243
-247
-247
-247
-251
-253
-255
-256
-258
-260
-260
-258
-258
-258
-254
-248
-244
-239
-239
-252
-265
-260
-244
-223
-185
-142
-125
-143
-171
-177
-172
-180
-179
-161
-177
-182
-141
-191
-292
-110
580
1772
2826
2445
671
-565
-441
-140
-246
-277
-199
-222
-221
-171
-166
-158
-119
-95
-72
-33
3
40
88
142
200
264
324
376
416
435
433
424
413
387
338
271
199
126
48
-27
-85
-130
-163
-178
-181
-178
-172
-165
-160
-152
-142
-135
-132
-129
-129
-132
-132
-129
-124
-122
-124
-121
-111
-108
-111
-108
-99
-90
-79
-70
-65
-66
-73
-73
-57
-29
