# session 0
-41
-7
46
90
97
105
152
212
247
276
321
364
384
400
424
439
417
346
243
132
14
-85
-138
-179
-232
-255
-245
-259
-283
-270
-253
-256
-239
-214
-219
-220
-191
-188
-219
-229
-214
-221
-243
-236
-201
-174
-153
-128
-130
-150
-142
-131
-138
-131
-132
-133
-94
-144
-284
-163
542
1899
3246
3064
1186
-256
-167
123
-112
-218
-108
-134
-165
-115
-123
-122
-57
-31
-26
4
6
19
82
98
102
176
201
157
184
213
170
230
361
329
209
160
63
-124
-234
-248
-261
-285
-330
-373
-330
-260
-292
-356
-356
-354
-351
-274
-196
-226
-324
-401
-410
-370
-342
-353
-381
-376
-312
-262
-283
-302
-283
-300
-350
-354
-297
-194
-133
-240
-369
-217
417
1729
3057
2672
572
-800
-510
-91
-171
-162
-115
-194
-140
-29
-50
-59
-18
-18
27
101
18
-126
-75
97
186
218
250
239
231
269
247
133
58
67
80
58
19
3
20
-9
-83
-80
-27
-56
-128
-153
-165
-196
-239
-290
-324
-329
-340
-359
-351
-300
-230
-206
-249
-258
-168
-78
-72
-102
-147
-190
-145
-78
-164
-288
-240
-171
-248
-294
-51
797
2189
2813
1595
-129
-575
-212
-126
-171
-100
-108
-135
-75
-51
-57
-22
-24
-44
51
187
247
352
537
586
490
464
476
374
242
196
185
150
75
-18
-49
-44
-121
-228
-263
-256
-249
-272
-353
-391
-309
-207
-172
-211
-294
-342
-338
-340
-360
-380
-403
-427
-457
-458
-363
-232
-221
-287
-271
-225
-281
-343
-301
-256
-246
-197
-168
-196
-67
585
1880
2872
2099
86
-923
-493
-118
-242
-269
-197
-244
-271
-195
-82
13
61
80
89
74
78
126
154
151
177
243
287
245
155
116
113
63
-28
-66
37
226
277
92
-113
-156
-134
-169
-227
-234
-206
-218
-269
-279
-271
-325
-370
-312
-234
-228
-210
-119
-86
-166
-204
-135
-70
-43
-29
-60
-102
-109
-143
-234
-331
-439
-522
-462
-56
1081
2629
2955
1392
-197
-353
-23
-117
-230
-168
-203
-268
-201
-89
-62
-108
-111
-48
-25
-23
47
104
88
115
193
210
238
349
377
277
240
290
304
289
272
208
107
-17
-167
-260
-222
-153
-183
-244
-212
-145
-152
-202
-244
-267
-229
-178
-206
-249
-203
-126
-101
-129
-178
-203
-214
-268
-279
-175
-166
-336
-402
-349
-442
-510
-232
456
1503
2149
1306
-309
-857
-348
-24
-41
-51
-135
-219
-142
-70
-78
-30
18
-67
-169
-121
-6
50
113
208
215
138
127
183
197
214
331
467
488
400
261
109
-5
-98
-227
-345
-391
-395
-357
-285
-285
-381
-465
-511
-560
-537
-400
-273
-232
-200
-148
-138
-155
-135
-107
-127
-159
-161
-158
-176
-183
-147
-130
-180
-193
-35
582
1977
3198
2483
339
-798
-503
-240
-317
-229
-114
-103
-29
28
-25
-54
-3
43
47
56
101
125
107
141
208
203
198
256
246
161
142
153
120
129
208
240
156
-16
-173
-239
-278
-334
-326
-265
-246
-261
-291
-354
-402
-400
-390
-399
-392
-346
-294
-250
-176
-109
-95
-81
-103
-229
-309
-263
-220
-204
-202
-283
-304
110
1294
2792
2949
1151
-538
-577
-171
-324
-412
-248
-259
-330
-280
-258
-276
-235
-152
-65
12
45
55
103
172
192
176
195
246
290
335
383
413
433
442
419
377
336
263
117
-99
-343
-561
-689
-659
-489
-324
-269
-278
-305
-393
-507
-521
-434
-366
-341
-308
-275
-267
-256
-243
-238
-197
-151
-178
-195
-174
-253
-324
-63
691
1878
2710
2005
287
-537
-239
-76
-237
-222
-160
-198
-168
-112
-142
-181
-172
-141
-103
-69
-39
3
52
87
109
125
133
137
143
165
204
239
236
194
128
51
-23
-91
-164
-222
-234
-226
-217
-180
-147
-174
-201
-156
-110
-141
-194
-207
-218
-251
-253
-207
-178
-214
-273
-283
-234
-207
-223
-204
-194
-272
-266
92
972
2136
2482
1266
-255
-557
-158
-94
-202
-170
-153
-158
-116
-85
-46
16
32
17
26
44
59
74
81
89
122
165
180
165
165
197
209
177
160
168
145
90
25
-63
-154
-201
-212
-211
-194
-172
-162
-165
-171
-173
-174
-194
-234
-274
-301
-309
-288
-257
-257
-272
-235
-161
-146
-183
-188
-233
-374
-402
-105
621
1649
2052
1020
-385
-637
-151
1
-80
-69
-111
-183
-162
-128
-113
-62
-11
18
49
68
65
59
64
84
119
158
187
207
221
225
224
231
238
223
181
121
57
-7
-74
-141
-193
-221
-231
-235
-234
-235
-242
-241
-237
-246
-265
-287
-313
-317
-286
-261
-271
-309
-359
-377
-361
-371
-378
-362
-438
-555
-432
218
1532
2743
2366
596
-512
-339
-122
-267
-292
-251
-305
-294
-226
-200
-165
-110
-75
-35
21
64
101
150
206
262
316
364
412
457
483
482
460
423
371
304
229
154
84
20
-44
-113
-181
-220
-228
-227
-234
-244
-248
-247
-246
-247
-251
-261
-273
-281
-280
-255
-211
-180
-182
-214
-250
-255
-245
-266
-269
-215
-205
-217
-38
456
1292
2061
1735
288
-682
-458
-104
-173
-207
-142
-187
-236
-223
-211
-180
-117
-59
-8
38
64
84
106
128
151
170
187
212
230
226
225
252
291
312
295
237
160
85
12
-59
-118
-159
-185
-205
-223
-237
-250
-264
-273
-282
-294
-299
-295
-300
-314
-328
-345
-355
-348
-327
-289
-236
-193
-179
-196
-218
-207
-204
-226
-204
-193
-290
-323
-26
814
2121
2799
1749
18
-579
-296
-270
-413
-352
-283
-284
-234
-167
-117
-57
-11
15
40
59
76
105
135
156
179
203
228
257
284
297
300
300
295
280
253
206
138
58
-24
-98
-159
-196
-207
-205
-202
-189
-167
-163
-181
-201
-216
-230
-246
-260
-266
-278
-297
-297
-285
-283
-259
-201
-158
-152
-162
-184
-195
-193
-197
-165
-139
-228
-255
61
824
1943
2533
1503
-268
-844
-380
-216
-340
-259
-177
-198
-164
-122
-108
-54
6
42
85
125
146
170
205
244
283
314
324
323
328
343
359
375
386
374
333
264
167
55
-50
-139
-213
-262
-289
-308
-317
-320
-324
-324
-314
-315
-332
-338
-333
-342
-352
-342
-321
-306
-296
-284
-275
-280
-297
-309
-304
-279
-247
-220
-201
-220
-280
-299
-288
-334
-349
-296
-369
-491
-323
309
1613
3106
3024
1014
-552
-434
-63
-225
-279
-158
-191
-231
-184
-176
-176
-114
-45
-6
33
95
172
237
268
278
304
352
396
431
450
438
427
446
468
451
404
338
238
106
-15
-102
-165
-216
-256
-283
-286
-266
-250
-240
-224
-226
-259
-290
-311
-333
-341
-338
-350
-370
-371
-364
-371
-363
-328
-328
-371
-353
-243
-159
-180
-251
-280
-273
-305
-333
-267
-252
-366
-287
297
1429
2627
2601
931
-597
-631
-164
-152
-202
-115
-121
-138
-87
-76
-88
-68
-45
-26
8
44
75
109
142
162
182
223
263
279
302
342
346
326
337
348
333
299
212
75
-23
-58
-80
-139
-222
-250
-225
-245
-300
-311
-303
-301
-277
-241
-224
-228
-249
-278
-296
-311
-328
-347
-371
-385
-386
-389
-390
-378
-380
-395
-375
-320
-259
-198
-156
-134
-83
-33
-42
-53
-48
-73
-52
-18
-142
-203
150
930
2061
2867
2140
369
-473
-163
3
-155
-142
-92
-131
-109
-57
-41
-15
25
68
120
156
171
187
207
228
250
274
303
328
333
326
325
329
328
321
310
294
267
224
159
77
8
-27
-55
-110
-174
-210
-230
-266
-313
-344
-360
-368
-356
-334
-334
-340
-306
-250
-219
-208
-198
-196
-187
-138
-64
-7
16
0
-53
-91
-74
-56
-96
-153
-182
-204
-230
-240
-236
-231
-221
-204
-181
-156
-134
-123
-119
-119
-125
-133
-139
-142
-138
-130
-127
-128
-128
-128
-125
-113
-103
-104
-105
-105
-116
-119
-98
-69
-48
-32
-24
-39
-60
-52
-46
-76
-74
-64
-172
-259
-58
597
1815
2891
2410
652
-385
-226
-75
-212
-177
-91
-115
-93
-45
-57
-72
-70
-74
-63
-35
-16
-4
8
14
19
25
36
71
127
156
147
157
216
283
335
375
390
369
327
281
236
184
122
61
18
-16
-54
-90
-119
-148
-180
-208
-226
-245
-271
-298
-318
-338
-348
-316
-226
-129
-79
-77
-96
-125
-145
-145
-136
-132
-139
-163
-202
-242
-275
-289
-299
-342
-390
-376
-306
-241
-218
-230
-232
-209
-202
-200
-161
-104
-43
-10
-57
-55
184
765
1757
2505
1821
162
-616
-284
-68
-179
-156
-101
-133
-116
-83
-89
-74
-40
-15
14
35
45
73
112
138
169
201
220
251
296
301
284
307
328
290
251
250
233
171
96
20
-47
-91
-149
-242
-321
-353
-369
-377
-360
-330
-307
-294
-293
-303
-312
-318
-327
-336
-344
-342
-325
-309
-304
-292
-275
-268
-262
-242
-227
-237
-245
-229
-209
-182
-124
-71
-64
-79
-95
-109
-95
-92
-117
-94
-74
-162
-186
104
853
2000
2617
1677
87
-440
-106
-13
-115
-64
-35
-66
-37
-9
-5
27
62
82
107
130
150
176
190
189
198
225
248
256
253
250
240
209
168
152
167
181
182
175
147
92
35
-9
-41
-64
-89
-121
-147
-162
-183
-223
-273
-325
-380
-431
-463
-470
-479
-495
-464
-361
-269
-256
-272
-250
-205
-170
-151
-137
-124
-114
-109
-98
-68
-43
-58
-101
-131
-141
-134
-118
-139
-164
-138
-179
-286
-200
243
1167
2357
2577
1173
-280
-406
-65
-130
-214
-139
-141
-155
-108
-93
-83
-47
-30
-18
13
37
57
93
124
142
165
200
230
246
250
245
231
208
179
152
128
93
40
-19
-68
-112
-159
-203
-232
-241
-245
-256
-268
-278
-290
-298
-293
-288
-282
-264
-246
-243
-244
-239
-234
-250
-293
-336
-347
-332
-307
-263
-187
-107
-68
-70
-82
-97
-101
-90
-103
-114
-82
-114
-214
-137
310
1213
2185
2064
602
-560
-453
-81
-122
-152
-71
-85
-94
-49
-41
-39
-9
10
23
45
65
84
107
128
149
170
184
192
198
194
181
166
150
134
133
140
137
128
123
115
102
85
56
14
-33
-76
-108
-135
-166
-195
-214
-219
-219
-230
-248
-243
-215
-199
-198
-197
-194
-182
-163
-170
-195
-179
-133
-130
-159
-173
-189
-208
-205
-221
-262
-250
-239
-312
-307
19
855
2059
2546
1428
-148
-580
-259
-213
-309
-250
-224
-243
-200
-157
-144
-117
-90
-65
-26
7
29
50
73
97
124
143
155
168
170
154
137
130
125
116
112
119
128
125
101
69
31
-23
-79
-118
-150
-187
-214
-228
-243
-256
-259
-257
-245
-223
-205
-190
-167
-148
-158
-190
-214
-219
-220
-216
-194
-179
-197
-221
-241
-262
-254
-238
-251
-217
-179
-289
-370
-75
791
2169
3006
1979
13
-724
-305
-148
-287
-230
-178
-218
-181
-135
-136
-105
-61
-40
-10
32
63
90
122
155
190
220
226
221
225
231
222
205
193
186
185
184
170
140
107
72
36
-6
-57
-107
-144
-177
-210
-228
-234
-245
-261
-269
-268
-275
-294
-317
-336
-340
-320
-302
-292
-261
-236
-268
-315
-327
-337
-331
-287
-272
-259
-183
-192
-274
-115
422
1357
2348
2200
622
-608
-464
-83
-168
-214
-135
-163
-174
-122
-112
-100
-58
-38
-24
6
29
51
87
116
135
167
203
219
219
213
202
186
170
155
146
141
123
93
69
43
-2
-53
-92
-127
-160
-183
-208
-239
-259
-266
-278
-293
-295
-286
-278
-275
-279
-286
-279
-255
-234
-208
-150
-94
-91
-115
-125
-132
-125
-111
-135
-139
-103
-171
-278
-136
449
1611
2775
2492
735
-487
-368
-114
-239
-258
-187
-216
-209
-159
-155
-142
-106
-93
-77
-45
-32
-29
-7
27
55
81
107
119
112
93
81
81
83
83
95
114
120
120
123
99
36
-16
-42
-78
-120
-145
-167
-195
-209
-211
-218
-226
-228
-231
-236
-237
-244
-255
-252
-244
-245
-226
-182
-169
-189
-193
-194
-200
-178
-179
-209
-172
-164
-271
-223
188
987
2027
2313
1050
-451
-637
-199
-198
-305
-210
-169
-161
-71
-8
8
38
56
53
60
83
107
120
127
143
166
184
197
193
161
128
109
88
63
49
44
40
40
40
35
14
-29
-78
-113
-142
-177
-206
-222
-235
-254
-267
-270
-271
-273
-278
-298
-317
-314
-302
-293
-260
-208
-191
-205
-207
-200
-187
-160
-156
-153
-119
-160
-269
-215
229
1301
2634
2741
1123
-356
-417
-100
-201
-270
-185
-200
-220
-179
-167
-155
-121
-115
-111
-81
-55
-30
4
30
47
69
81
76
70
66
52
31
11
-2
-3
2
11
31
61
72
52
21
-8
-41
-78
-113
-149
-177
-189
-198
-213
-224
-221
-217
-222
-229
-227
-215
-204
-181
-142
-121
-141
-171
-187
-186
-169
-163
-172
-154
-147
-189
-145
172
912
1869
2053
901
-360
-491
-107
-67
-126
-49
-26
-41
-6
7
3
25
41
51
80
110
125
135
146
154
155
147
130
100
51
-12
-71
-112
-137
-158
-169
-151
-101
-52
-23
0
22
23
0
-27
-54
-87
-118
-139
-153
-161
-160
-155
-151
-153
-159
-159
-151
-146
-133
-95
-62
-65
-87
-105
-115
-105
-103
-136
-143
-138
-217
-270
-88
490
1575
2458
1868
228
-593
-318
-128
-231
-193
-133
-171
-158
-136
-160
-130
-67
-64
-64
-7
19
-44
-77
7
98
103
93
116
116
80
47
30
26
28
35
59
98
122
117
93
60
19
-28
-76
-116
-161
-217
-240
-219
-231
-278
-270
-218
-220
-267
-293
-301
-312
-298
-256
-231
-249
-279
-310
-336
-322
-318
-375
-377
-312
-367
-461
-306
296
1503
2618
2118
265
-749
-417
-160
-313
-286
-200
-273
-276
-179
-154
-160
-110
-72
-81
-51
23
56
66
119
173
176
164
164
155
113
65
71
112
116
101
119
144
149
160
171
146
106
88
80
76
87
86
53
31
45
72
