# session 30
-74
-101
-30
1
-210
-506
-586
-526
-528
-543
-505
-469
-444
-410
-371
-345
-351
-369
-361
-359
-368
-334
-302
-315
-292
-275
-371
-369
96
1168
2419
2614
1173
-400
-625
-221
-209
-299
-218
-212
-245
-190
-147
-132
-91
-66
-59
-24
18
50
88
135
186
235
287
340
372
388
421
460
463
433
395
345
271
183
104
32
-58
-136
-161
-165
-190
-214
-210
-195
-188
-185
-177
-174
-178
-176
-171
-176
-189
-203
-210
-199
-184
-196
-216
-201
-169
-171
-191
-189
-178
-189
-213
-215
-180
-137
-113
-95
-88
-119
-151
-140
-134
-146
-138
-136
-144
-115
-126
-207
-152
322
1447
2736
2688
924
-600
-601
-171
-183
-215
-126
-145
-166
-120
-109
-105
-69
-46
-41
-26
14
65
103
141
193
240
278
325
365
383
390
395
389
365
312
244
185
125
35
-67
-135
-178
-232
-268
-264
-267
-284
-270
-244
-248
-259
-259
-254
-243
-243
-267
-277
-261
-260
-272
-265
-256
-262
-261
-256
-273
-288
-273
-254
-245
-208
-155
-144
-176
-208
-215
-210
-210
-203
-194
-210
-203
-163
-199
-263
-88
613
1929
2977
2291
317
-738
-424
-146
-256
-226
-156
-201
-186
-133
-131
-115
-80
-68
-46
-3
35
65
106
157
208
258
312
362
396
414
421
420
410
378
309
219
139
58
-39
-121
-171
-210
-241
-253
-255
-252
-246
-245
-241
-235
-238
-240
-227
-217
-221
-227
-223
-220
-225
-233
-241
-249
-248
-246
-256
-258
-250
-246
-224
-172
-132
-129
-158
-197
-202
-186
-197
-197
-165
-171
-178
-147
-206
-296
-96
656
1959
2946
2260
363
-636
-334
-92
-240
-233
-154
-195
-194
-141
-130
-120
-91
-68
-45
-9
29
61
100
161
215
252
309
371
400
415
429
417
393
372
317
213
113
46
-19
-99
-167
-214
-250
-269
-269
-259
-250
-253
-266
-258
-236
-231
-233
-229
-231
-230
-217
-224
-249
-249
-229
-227
-244
-251
-246
-249
-260
-263
-258
-233
-166
-103
-108
-155
-185
-181
-176
-189
-179
-158
-181
-193
-161
-195
-240
6
843
2171
2913
1929
114
-613
-278
-122
-239
-201
-152
-183
-163
-130
-133
-119
-97
-70
-22
13
32
75
126
160
206
267
312
347
379
391
392
398
400
370
299
208
124
45
-41
-123
-189
-235
-243
-233
-248
-273
-267
-244
-241
-248
-237
-216
-214
-231
-237
-227
-221
-231
-239
-232
-224
-237
-254
-243
-218
-213
-225
-234
-240
-245
-237
-208
-163
-125
-121
-148
-168
-160
-150
-156
-152
-141
-167
-175
-116
-139
-263
-177
389
1515
2703
2617
957
-451
-454
-101
-181
-246
-156
-164
-198
-162
-130
-127
-110
-62
-11
8
20
56
99
133
171
214
263
319
366
392
406
412
404
382
340
265
177
103
33
-59
-145
-191
-223
-261
-278
-258
-239
-238
-237
-235
-239
-238
-228
-224
-233
-236
-230
-239
-255
-251
-234
-231
-232
-223
-219
-227
-231
-224
-220
-227
-235
-239
-225
-179
-130
-116
-128
-141
-149
-154
-164
-166
-154
-158
-164
-140
-161
-225
-135
369
1524
2821
2704
865
-624
-539
-108
-183
-241
-141
-155
-172
-119
-113
-113
-71
-51
-41
5
52
78
110
161
216
256
291
345
396
403
392
404
423
412
356
271
190
120
36
-51
-119
-184
-243
-253
-234
-242
-264
-256
-235
-236
-248
-249
-244
-235
-219
-211
-221
-233
-241
-246
-239
-241
-263
-264
-232
-218
-227
-223
-209
-212
-225
-230
-225
-222
-232
-236
-210
-164
-119
-91
-104
-143
-153
-143
-150
-148
-136
-157
-161
-129
-173
-222
33
881
2246
3053
2057
130
-651
-269
-98
-245
-209
-148
-177
-144
-107
-120
-99
-58
-44
-32
-6
39
95
128
153
205
270
326
377
411
423
433
438
420
374
312
241
158
60
-42
-126
-181
-215
-242
-264
-271
-266
-256
-253
-260
-260
-238
-219
-229
-242
-234
-226
-237
-250
-246
-231
-227
-238
-246
-245
-238
-232
-232
-232
-222
-221
-230
-228
-220
-227
-244
-232
-179
-131
-116
-112
-114
-134
-153
-161
-159
-138
-130
-154
-137
-115
-199
-230
120
1041
2320
2870
1737
1
-559
-203
-105
-211
-147
-118
-173
-142
-84
-74
-60
-36
-20
-3
27
74
120
148
182
247
323
377
406
435
464
463
448
441
403
323
255
196
94
-17
-83
-137
-196
-223
-226
-242
-247
-229
-219
-222
-215
-207
-212
-223
-226
-222
-215
-205
-197
-199
-209
-217
-219
-216
-215
-216
-219
-228
-234
-213
-181
-181
-201
-203
-191
-183
-176
-171
-170
-166
-163
-163
-169
-176
-176
-178
-187
-173
-122
-72
-47
-43
-58
-91
-126
-140
-132
-117
-113
-123
-108
-72
-122
-209
-68
515
1613
2703
2495
829
-465
-387
-44
-149
-224
-137
-127
-138
-112
-100
-80
-64
-66
-35
17
39
67
121
151
168
229
310
357
384
411
427
432
436
428
399
330
232
154
86
-19
-113
-153
-189
-233
-244
-241
-259
-268
-254
-247
-248
-242
-242
-250
-248
-236
-231
-241
-253
-257
-253
-238
-229
-243
-254
-238
-222
-224
-220
-218
-234
-234
-208
-202
-212
-201
-197
-225
-230
-188
-138
-95
-69
-94
-142
-152
-141
-145
-142
-123
-141
-167
-122
-95
-181
-191
161
1113
2480
2956
1533
-335
-721
-196
-92
-223
-153
-112
-157
-132
-94
-92
-68
-22
11
34
57
82
117
167
215
246
290
360
412
427
444
469
471
445
404
344
266
180
80
-32
-126
-180
-212
-249
-278
-278
-268
-272
-273
-264
-260
-258
-251
-253
-254
-236
-232
-259
-271
-253
-251
-264
-262
-254
-260
-258
-245
-251
-262
-246
-234
-266
-291
-257
-204
-175
-145
-114
-125
-169
-189
-178
-186
-206
-195
-184
-179
-146
-171
-261
-186
313
1453
2810
2844
1047
-573
-589
-141
-188
-251
-153
-165
-185
-131
-121
-121
-76
-47
-44
-24
19
72
124
163
205
270
335
383
431
465
463
452
451
431
374
297
206
111
23
-67
-160
-227
-261
-278
-283
-277
-269
-265
-262
-255
-255
-269
-262
-220
-201
-228
-242
-224
-220
-237
-236
-226
-244
-264
-246
-223
-227
-228
-225
-240
-250
-241
-225
-192
-153
-139
-142
-147
-163
-172
-169
-161
-150
-168
-186
-144
-155
-259
-177
367
1474
2689
2696
1073
-421
-486
-93
-144
-232
-155
-161
-188
-139
-112
-117
-97
-63
-25
8
29
60
107
144
189
256
307
345
405
452
450
449
465
444
380
302
204
92
-4
-73
-144
-225
-276
-274
-257
-261
-271
-265
-258
-259
-254
-247
-256
-255
-219
-198
-223
-238
-220
-220
-242
-241
-217
-211
-238
-261
-241
-204
-204
-237
-255
-239
-222
-227
-222
-186
-144
-115
-107
-132
-160
-160
-163
-168
-149
-148
-160
-128
-135
-228
-177
284
1288
2480
2631
1177
-342
-520
-131
-139
-232
-150
-130
-155
-127
-118
-114
-68
-41
-46
-18
37
74
94
131
193
257
305
344
393
434
451
455
452
421
360
291
223
140
40
-52
-118
-168
-212
-243
-260
-269
-276
-275
-265
-267
-279
-267
-237
-229
-229
-216
-214
-231
-239
-233
-234
-245
-252
-247
-236
-240
-251
-240
-222
-232
-249
-235
-208
-186
-150
-119
-134
-171
-182
-176
-186
-186
-166
-179
-194
-149
-147
-227
-166
336
1496
2781
2661
848
-613
-537
-133
-208
-244
-138
-168
-200
-147
-126
-116
-71
-36
-20
2
33
64
89
137
210
250
270
345
440
469
453
448
449
434
389
309
223
134
12
-100
-147
-182
-251
-291
-266
-248
-270
-283
-263
-246
-256
-266
-248
-226
-229
-249
-256
-241
-231
-248
-268
-259
-234
-225
-229
-226
-224
-235
-248
-250
-241
-228
-208
-175
-138
-122
-144
-176
-170
-156
-177
-184
-162
-165
-153
-122
-182
-236
-4
789
2164
3067
2081
37
-797
-340
-103
-243
-198
-123
-170
-160
-116
-110
-95
-68
-44
-1
43
65
90
138
199
246
289
354
416
441
451
470
476
454
412
340
241
147
64
-26
-110
-167
-220
-272
-285
-272
-281
-285
-257
-248
-268
-260
-230
-218
-216
-217
-236
-252
-240
-223
-234
-261
-267
-251
-244
-247
-235
-219
-223
-236
-244
-250
-252
-246
-234
-216
-186
-146
-122
-133
-159
-163
-162
-180
-181
-162
-170
-162
-137
-214
-282
4
847
2121
2914
2074
254
-605
-295
-88
-220
-212
-154
-194
-186
-134
-128
-119
-74
-38
-22
2
40
81
122
163
209
266
341
414
450
445
442
459
461
419
348
271
177
55
-56
-119
-153
-192
-235
-267
-279
-275
-275
-275
-255
-239
-249
-242
-199
-180
-205
-215
-199
-209
-232
-220
-189
-185
-210
-227
-211
-189
-198
-207
-182
-165
-179
-180
-168
-179
-177
-134
-121
-154
-147
-106
-108
-128
-125
-146
-181
-156
-95
-49
-6
22
-7
-56
-64
-66
-109
-122
-49
-10
-64
-69
-36
-116
-132
235
1104
2264
2751
1689
64
-475
-153
-42
-149
-145
-118
-100
-61
-57
-57
-25
-11
-11
13
44
63
93
147
200
239
288
351
397
420
440
452
448
448
427
351
263
202
121
16
-65
-133
-205
-250
-269
-288
-289
-275
-287
-304
-281
-249
-259
-283
-277
-262
-277
-290
-267
-256
-288
-303
-280
-272
-295
-308
-293
-275
-271
-273
-268
-266
-265
-257
-257
-272
-274
-248
-221
-215
-234
-258
-259
-239
-230
-216
-156
-101
-114
-154
-165
-173
-193
-193
-168
-161
-182
-162
-116
-159
-217
-49
603
1882
2965
2328
343
-734
-393
-87
-210
-188
-106
-146
-123
-59
-71
-72
-15
27
39
57
93
144
189
218
261
344
422
448
461
513
569
575
548
520
481
403
294
188
103
14
-80
-140
-165
-191
-217
-231
-240
-241
-224
-214
-222
-222
-205
-196
-198
-198
-201
-202
-198
-218
-251
-244
-209
-210
-241
-242
-217
-213
-226
-224
-226
-261
-281
-245
-204
-189
-154
-102
-97
-143
-179
-182
-185
-203
-200
-198
-233
-215
-133
-169
-272
-129
507
1806
3078
2648
547
-819
-540
-154
-287
-277
-147
-184
-195
-136
-130
-124
-99
-92
-48
26
49
49
96
158
200
254
333
399
442
478
502
500
467
413
358
293
182
54
-40
-115
-197
-268
-309
-319
-323
-343
-353
-320
-291
-299
-298
-269
-263
-285
-280
-250
-247
-262
-255
-246
-271
-289
-263
-236
-244
-255
-249
-247
-247
-236
-228
-234
-242
-246
-242
-215
-170
-132
-103
-91
-126
-176
-166
-125
-147
-182
-155
-138
-139
-102
-149
-275
-136
520
1718
2923
2788
1025
-463
-472
-92
-157
-219
-137
-158
-182
-126
-100
-101
-68
-33
-25
-11
30
80
120
161
215
280
351
413
459
494
509
504
510
506
442
336
236
130
14
-84
-154
-209
-262
-302
-312
-303
-309
-311
-287
-271
-274
-261
-245
-252
-258
-245
-238
-244
-246
-237
-230
-243
-270
-262
-225
-224
-256
-252
-232
-252
-274
-254
-217
-179
-141
-135
-153
-165
-179
-198
-199
-178
-164
-182
-184
-138
-161
-274
-192
382
1540
2734
2637
963
-479
-497
-112
-167
-243
-169
-180
-198
-145
-118
-106
-76
-58
-41
-14
3
40
109
152
167
230
334
397
411
434
470
472
443
419
381
297
194
97
-4
-88
-141
-193
-252
-283
-289
-293
-290
-284
-285
-275
-258
-266
-271
-235
-214
-246
-261
-233
-226
-246
-253
-248
-248
-241
-227
-223
-236
-248
-249
-254
-259
-231
-191
-175
-154
-115
-110
-149
-174
-170
-171
-182
-187
-193
-182
-129
-127
-220
-203
197
1212
2556
2863
1353
-371
-648
-211
-165
-236
-152
-147
-172
-121
-104
-115
-89
-65
-52
-20
21
62
101
135
168
210
269
350
417
437
436
446
455
446
409
338
252
163
61
-43
-123
-182
-229
-255
-267
-280
-281
-276
-290
-300
-279
-260
-263
-263
-258
-254
-243
-241
-263
-274
-260
-257
-267
-268
-269
-271
-262
-252
-245
-217
-169
-143
-158
-197
-219
-213
-199
-187
-194
-214
-184
-160
-237
-251
53
893
2306
3185
2063
-85
-877
-364
-140
-286
-225
-158
-207
-168
-109
-123
-118
-73
-47
-37
-5
55
107
129
161
233
303
347
393
435
447
455
472
458
399
326
239
132
33
-56
-150
-220
-254
-290
-323
-312
-289
-299
-311
-292
-275
-282
-280
-255
-249
-268
-268
-248
-253
-273
-272
-264
-266
-277
-299
-307
-275
-242
-231
-201
-158
-157
-191
-213
-209
-203
-217
-232
-229
-214
-172
-158
-249
-290
-6
847
2264
3160
2140
90
-751
-350
-150
-270
-214
-163
-215
-189
-146
-150
-123
-83
-72
-51
-12
18
61
124
175
212
270
344
400
430
450
463
465
453
418
338
230
138
53
-51
-142
-198
-256
-308
-314
-295
-290
-292
-292
-291
-279
-263
-261
-270
-275
-267
-254
-253
-264
-268
-269
-286
-308
-311
-305
-294
-261
-219
-194
-180
-175
-199
-227
-229
-233
-245
-215
-182
-211
-211
-181
-266
-333
-36
852
2252
3138
2199
225
-647
-309
-144
-294
-253
-189
-227
-196
-142
-140
-125
-108
-101
-52
4
15
42
117
181
216
266
335
391
420
442
463
468
449
397
313
225
144
50
-49
-123
-173
-217
-252
-261
-254
-257
-262
-250
-224
-213
-225
-228
-202
-182
-195
-212
-209
-203
-210
-216
-210
-198
-191
-195
-203
-205
-213
-222
-215
-192
-156
-109
-86
-112
-146
-145
-125
-129
-145
-131
-120
-144
-134
-111
-186
-224
98
1008
2318
2910
1790
35
-551
-205
-110
-225
-164
-122
-160
-148
-136
-132
-84
-48
-48
-35
1
44
83
105
139
204
266
309
351
380
382
384
395
379
321
250
193
127
26
-84
-158
-209
-265
-310
-314
-293
-302
-335
-325
-279
-271
-298
-304
-289
-293
-306
-303
-298
-312
-325
-312
-293
-290
-297
-304
-297
-280
-289
-319
-322
-298
-294
-303
-271
-203
-158
-163
-196
-218
-215
-226
-249
-216
-173
-215
-238
-180
-214
-292
-88
625
1868
2872
2268
392
-665
-390
-121
-246
-236
-170
-222
-210
-141
-128
-119
-91
-75
-57
-38
-15
30
58
62
119
197
207
