# session 38
-24
-36
-7
-12
-131
-270
-296
-245
-212
-194
-174
-176
-203
-225
-236
-240
-224
-201
-210
-216
-189
-213
-273
-171
365
1528
2647
2269
485
-653
-404
-73
-197
-215
-120
-150
-153
-100
-105
-105
-60
-32
-17
18
48
58
80
128
184
233
269
296
325
353
362
363
367
364
339
293
231
157
70
-18
-87
-142
-194
-231
-246
-255
-263
-260
-254
-247
-233
-235
-265
-272
-231
-204
-224
-246
-243
-241
-249
-245
-232
-236
-255
-252
-227
-214
-210
-201
-201
-208
-206
-207
-216
-212
-202
-189
-154
-105
-84
-99
-129
-148
-147
-145
-148
-133
-124
-136
-117
-104
-178
-208
91
975
2240
2690
1470
-143
-498
-92
-39
-159
-107
-97
-132
-83
-49
-60
-37
-5
5
26
63
96
120
145
183
228
273
320
361
385
397
404
408
405
385
343
285
202
98
7
-57
-119
-179
-219
-241
-256
-262
-259
-253
-251
-253
-252
-248
-255
-261
-249
-237
-241
-245
-241
-242
-247
-249
-249
-249
-248
-241
-233
-243
-257
-241
-213
-220
-240
-233
-215
-206
-182
-134
-102
-115
-151
-164
-160
-173
-180
-157
-144
-138
-110
-136
-223
-158
330
1406
2532
2378
782
-464
-385
-25
-80
-144
-98
-118
-114
-64
-57
-50
-24
-22
-4
48
71
79
131
193
221
246
284
324
364
393
395
394
408
403
365
316
256
171
74
-11
-86
-157
-208
-235
-254
-265
-257
-250
-258
-258
-240
-233
-240
-239
-230
-227
-237
-252
-250
-233
-229
-242
-249
-244
-234
-228
-226
-217
-206
-208
-215
-208
-208
-221
-222
-222
-234
-215
-147
-99
-101
-119
-132
-141
-144
-144
-138
-134
-156
-153
-117
-157
-223
-57
603
1781
2632
1945
260
-540
-212
-3
-149
-147
-77
-109
-105
-63
-58
-49
-23
0
20
30
51
107
163
186
209
254
300
332
357
382
391
376
372
386
362
290
223
157
63
-35
-107
-166
-218
-244
-251
-268
-284
-262
-230
-239
-265
-253
-224
-223
-238
-241
-235
-235
-242
-244
-244
-259
-272
-254
-228
-223
-231
-234
-222
-213
-232
-257
-246
-213
-194
-174
-132
-110
-140
-172
-166
-166
-185
-166
-133
-147
-155
-137
-183
-233
-43
658
1879
2683
1882
166
-577
-236
-39
-158
-136
-80
-116
-107
-67
-63
-49
-20
1
25
50
76
111
144
174
210
244
280
335
377
384
387
402
402
378
336
277
210
136
41
-58
-131
-186
-236
-260
-259
-255
-261
-267
-260
-253
-268
-274
-247
-232
-247
-252
-245
-249
-251
-248
-251
-250
-250
-260
-256
-237
-240
-256
-246
-230
-231
-225
-193
-152
-126
-132
-161
-180
-191
-202
-179
-151
-189
-218
-171
-166
-213
-94
485
1712
2805
2238
313
-753
-398
-62
-183
-182
-104
-145
-132
-69
-65
-54
-24
-17
7
48
71
99
145
177
201
251
316
358
373
380
394
409
410
388
357
314
235
123
21
-54
-131
-206
-252
-276
-287
-279
-268
-273
-282
-273
-252
-243
-251
-251
-247
-254
-261
-258
-264
-275
-267
-244
-238
-245
-242
-244
-265
-262
-232
-221
-216
-175
-132
-137
-172
-197
-203
-201
-188
-174
-190
-197
-161
-175
-235
-137
393
1601
2862
2542
578
-750
-479
-71
-196
-214
-95
-125
-144
-101
-97
-73
-23
-10
6
47
78
104
130
153
197
265
316
344
380
420
436
433
424
401
355
288
198
95
-2
-100
-192
-241
-253
-270
-287
-290
-294
-298
-287
-275
-269
-260
-257
-269
-276
-266
-252
-246
-250
-260
-266
-264
-261
-269
-279
-277
-269
-272
-256
-202
-156
-160
-186
-208
-215
-210
-206
-200
-198
-215
-202
-170
-232
-286
-24
837
2208
2956
1890
41
-581
-180
-83
-238
-173
-124
-177
-154
-114
-116
-96
-73
-58
-24
5
37
97
148
174
212
265
312
355
389
411
427
434
426
397
331
228
131
52
-40
-142
-216
-258
-293
-317
-323
-321
-316
-300
-290
-300
-307
-286
-251
-233
-239
-253
-255
-249
-254
-258
-256
-263
-279
-281
-278
-281
-271
-238
-192
-152
-136
-158
-197
-211
-201
-197
-190
-175
-192
-198
-155
-184
-277
-147
514
1782
2892
2453
662
-472
-288
-26
-164
-197
-125
-148
-143
-98
-92
-81
-47
-23
8
44
63
84
126
179
234
281
317
357
401
432
441
436
436
438
395
292
185
107
17
-89
-171
-220
-257
-286
-296
-286
-281
-287
-275
-253
-256
-260
-234
-215
-227
-235
-230
-233
-233
-231
-242
-249
-245
-247
-246
-233
-230
-225
-203
-195
-209
-211
-205
-206
-200
-188
-194
-214
-224
-215
-187
-144
-99
-71
-77
-104
-126
-130
-134
-144
-134
-125
-141
-127
-105
-183
-229
52
837
2017
2694
1827
181
-470
-137
-6
-153
-127
-72
-104
-86
-50
-52
-39
-13
11
51
84
101
132
174
209
242
282
329
374
406
423
433
447
465
459
418
352
264
157
56
-28
-108
-177
-218
-241
-263
-276
-275
-264
-247
-235
-241
-246
-236
-229
-234
-236
-235
-236
-241
-254
-257
-242
-236
-253
-255
-234
-222
-223
-220
-215
-216
-216
-211
-204
-201
-202
-198
-197
-205
-195
-164
-150
-162
-172
-179
-187
-176
-132
-82
-54
-51
-77
-121
-138
-119
-115
-121
-107
-111
-117
-83
-107
-191
-91
442
1547
2692
2510
843
-422
-317
10
-93
-134
-60
-101
-117
-65
-60
-53
-14
-1
9
45
74
97
134
171
201
244
304
358
391
410
433
455
459
446
422
382
307
194
82
4
-68
-156
-222
-252
-276
-298
-303
-298
-295
-289
-283
-278
-272
-277
-284
-275
-262
-261
-258
-257
-270
-280
-276
-269
-260
-249
-247
-253
-257
-262
-259
-236
-215
-212
-213
-207
-202
-207
-216
-213
-189
-149
-110
-96
-110
-133
-142
-139
-144
-162
-157
-137
-147
-144
-117
-163
-206
8
744
2052
2949
2053
103
-712
-260
-9
-151
-131
-74
-114
-88
-41
-49
-41
-12
11
55
99
119
145
190
236
280
324
369
414
449
466
473
477
479
469
422
334
229
134
48
-42
-130
-202
-249
-275
-289
-298
-301
-297
-280
-254
-244
-252
-243
-221
-218
-228
-229
-229
-231
-229
-234
-244
-245
-242
-240
-232
-217
-207
-213
-228
-225
-207
-202
-203
-193
-183
-180
-185
-195
-184
-163
-165
-171
-157
-154
-169
-174
-176
-168
-128
-77
-56
-59
-70
-92
-116
-123
-122
-114
-97
-109
-131
-94
-94
-197
-151
332
1373
2598
2776
1335
-177
-359
-3
-56
-173
-110
-103
-122
-80
-63
-64
-43
-31
-16
34
77
97
127
177
223
262
308
359
405
444
470
481
484
482
457
411
354
268
143
19
-75
-149
-213
-261
-296
-316
-319
-318
-324
-323
-296
-260
-243
-246
-248
-245
-249
-254
-252
-254
-260
-260
-266
-284
-278
-244
-232
-242
-236
-225
-235
-241
-227
-220
-220
-210
-203
-207
-196
-189
-208
-206
-167
-153
-177
-188
-183
-170
-126
-67
-48
-61
-78
-118
-157
-146
-115
-104
-101
-120
-128
-88
-113
-204
-77
510
1606
2649
2382
742
-437
-283
41
-87
-144
-62
-88
-102
-43
-28
-31
-6
16
37
56
66
105
174
217
241
287
342
384
424
463
489
497
499
496
466
394
298
205
117
22
-77
-160
-219
-263
-293
-303
-300
-301
-305
-294
-272
-271
-286
-272
-234
-223
-241
-251
-247
-245
-249
-254
-252
-251
-260
-258
-244
-253
-273
-250
-209
-207
-222
-218
-213
-216
-211
-203
-201
-199
-191
-187
-208
-242
-237
-169
-89
-55
-66
-91
-117
-136
-138
-139
-148
-138
-125
-149
-155
-123
-157
-189
56
820
2039
2783
1928
205
-513
-164
-4
-156
-137
-86
-139
-117
-45
-35
-39
-16
13
40
66
90
127
172
209
243
289
341
386
421
456
493
521
527
510
473
411
313
194
82
-20
-119
-194
-238
-283
-322
-318
-290
-285
-291
-284
-274
-270
-269
-267
-263
-261
-264
-269
-274
-279
-270
-252
-252
-260
-249
-233
-238
-246
-239
-232
-232
-229
-219
-208
-210
-224
-227
-216
-212
-203
-164
-116
-89
-86
-104
-139
-164
-168
-167
-161
-159
-186
-182
-123
-135
-204
-90
466
1648
2827
2483
595
-684
-441
-42
-165
-213
-94
-90
-106
-68
-55
-49
-21
2
26
64
97
120
149
190
229
261
312
386
440
468
491
497
485
474
453
392
297
180
49
-59
-120
-168
-229
-283
-309
-313
-308
-306
-310
-299
-273
-257
-269
-280
-266
-242
-240
-262
-279
-268
-250
-251
-259
-256
-251
-250
-243
-238
-238
-233
-234
-247
-239
-206
-188
-199
-212
-222
-225
-203
-154
-110
-87
-87
-123
-166
-166
-143
-144
-140
-129
-153
-150
-106
-160
-240
-39
671
1897
2839
2200
398
-554
-246
1
-144
-150
-83
-123
-116
-70
-73
-59
-16
0
13
50
78
96
134
190
240
290
344
392
433
469
490
500
502
491
456
395
302
181
57
-40
-115
-184
-248
-290
-305
-306
-304
-297
-293
-291
-277
-271
-287
-291
-264
-245
-254
-265
-265
-259
-258
-264
-265
-257
-257
-262
-262
-261
-256
-241
-230
-227
-220
-218
-235
-252
-249
-221
-171
-126
-111
-115
-135
-166
-173
-160
-163
-163
-153
-167
-157
-131
-194
-242
20
806
2021
2719
1818
126
-530
-176
-31
-167
-140
-92
-127
-108
-74
-75
-51
-15
-6
7
42
81
122
165
203
241
285
331
381
428
457
471
485
487
459
416
364
282
173
62
-41
-126
-193
-247
-278
-285
-288
-288
-284
-291
-294
-271
-251
-251
-251
-249
-255
-256
-253
-258
-265
-265
-259
-254
-253
-258
-256
-244
-233
-232
-233
-227
-223
-229
-242
-248
-229
-181
-128
-101
-109
-142
-180
-192
-174
-160
-155
-151
-168
-165
-130
-178
-259
-91
576
1769
2715
2144
405
-560
-282
-14
-138
-153
-94
-135
-135
-87
-76
-63
-32
-15
-2
26
70
116
145
170
213
262
309
358
400
430
448
456
459
460
439
382
293
182
69
-27
-106
-180
-245
-282
-290
-291
-294
-288
-281
-285
-285
-273
-264
-263
-268
-273
-268
-266
-278
-284
-273
-266
-271
-270
-260
-256
-259
-254
-254
-267
-260
-219
-176
-146
-136
-158
-192
-199
-193
-201
-198
-178
-192
-207
-163
-161
-246
-224
171
1212
2566
2753
1121
-500
-583
-114
-128
-209
-116
-122
-157
-104
-79
-86
-54
-16
-2
13
49
93
123
153
203
256
299
344
387
416
435
446
446
441
419
366
287
193
81
-31
-117
-182
-238
-273
-287
-296
-307
-309
-301
-292
-286
-280
-275
-273
-270
-269
-273
-274
-270
-268
-272
-273
-268
-263
-263
-267
-276
-279
-268
-256
-236
-184
-135
-152
-203
-211
-186
-188
-200
-186
-186
-201
-171
-162
-238
-233
116
1070
2410
2803
1400
-271
-533
-105
-102
-217
-135
-118
-154
-117
-96
-97
-63
-36
-25
5
44
82
123
158
193
238
285
330
373
404
424
442
444
428
414
376
282
173
89
4
-93
-172
-224
-260
-276
-279
-284
-284
-273
-272
-280
-268
-248
-248
-258
-256
-256
-266
-269
-263
-264
-271
-275
-285
-299
-293
-271
-257
-232
-187
-165
-181
-203
-211
-212
-218
-223
-208
-207
-225
-195
-174
-259
-280
71
1028
2350
2777
1459
-197
-524
-129
-115
-236
-175
-174
-206
-144
-111
-124
-99
-66
-52
-24
15
47
81
117
153
193
245
304
351
379
397
411
416
405
378
331
256
159
59
-33
-121
-201
-257
-278
-276
-273
-281
-286
-275
-263
-263
-264
-260
-264
-268
-256
-244
-254
-266
-257
-243
-243
-247
-247
-254
-266
-263
-247
-231
-202
-157
-130
-140
-166
-182
-180
-179
-183
-174
-172
-175
-144
-149
-245
-240
172
1221
2511
2681
1183
-321
-446
-57
-96
-198
-126
-125
-151
-106
-83
-87
-64
-36
-13
20
49
69
102
147
191
233
278
322
358
385
398
402
401
393
371
323
239
145
62
-22
-109
-176
-219
-251
-270
-273
-273
-272
-266
-259
-260
-264
-260
-255
-262
-271
-261
-245
-247
-257
-256
-256
-259
-255
-248
-252
-258
-260
-260
-256
-240
-213
-181
-154
-149
-172
-194
-188
-185
-194
-185
-184
-192
-163
-168
-254
-218
227
1293
2563
2653
1092
-370
-431
-60
-127
-210
-127
-137
-168
-130
-112
-96
-57
-40
-25
11
40
64
101
139
178
225
270
300
325
353
378
395
397
387
369
333
263
167
72
-16
-106
-185
-236
-263
-276
-278
-280
-283
-275
-266
-272
-274
-262
-261
-274
-272
-263
-278
-295
-284
-272
-280
-275
-254
-254
-269
-267
-256
-252
-230
-178
-143
-158
-199
-213
-198
-195
-199
-187
-190
-195
-170
-188
-243
-135
413
1632
2853
2489
566
-697
-436
-53
-173
-205
-109
-137
-148
-100
-91
-78
-43
-28
-10
25
58
95
137
169
202
248
293
331
362
384
389
386
385
373
336
276
203
116
21
-65
-137
-197
-238
-259
-268
-271
-270
-265
-255
-249
-250
-246
-235
-236
-245
-243
-240
-245
-248
-246
-248
-251
-252
-249
-238
-239
-255
-258
-243
-226
-193
-148
-131
-150
-173
-179
-177
-183
-181
-166
-171
-169
-140
-180
-256
-126
468
1666
2808
2465
692
-495
-320
-26
-153
-187
-116
-144
-142
-99
-102
-90
-53
-37
-12
31
58
80
119
158
192
238
288
320
342
369
387
381
376
379
351
279
193
109
19
-71
-150
-212
-251
-274
-289
-290
-284
-282
-281
-276
-272
-266
-263
-264
-266
-270
-276
-282
-282
-278
-279
-287
-292
-285
-273
-263
-261
-270
-283
-289
-281
-254
-212
-173
-161
-178
-208
-220
-213
-215
-216
-195
-194
-199
-171
-200
-280
-154
463
1653
2695
2266
547
-530
-321
-47
-183
-209
-121
-144
-156
-113
-102
-90
-54
-32
-11
21
53
88
121
154
203
259
302
337
374
399
410
415
412
401
377
324
244
158
68
-24
-94
-131
-160
-189
-200
-196
-196
-195
-185
-175
-170
-165
-157
-154
-161
-162
-150
-143
-143
-137
-133
-137
-137
-127
-120
-113
-101
-96
-99
-92
-75
-70
-70
-56
-38
-34
