# session 1
56
78
22
49
321
1075
2235
2583
1265
-283
-497
-103
-161
-334
-277
-249
-291
-260
-172
-95
-83
-117
-106
-36
27
27
-21
-13
57
77
89
170
185
94
77
128
94
28
29
42
31
48
84
88
73
57
21
-21
-33
-47
-91
-121
-135
-182
-228
-213
-178
-176
-203
-233
-227
-192
-200
-218
-167
-135
-203
-267
-296
-351
-410
-460
-505
-483
-466
-528
-495
-122
803
2027
2272
851
-717
-962
-592
-576
-623
-448
-330
-345
-290
-181
-163
-145
-26
25
-25
31
142
134
133
240
269
176
172
294
357
314
290
317
319
316
361
371
293
247
276
264
194
116
32
-42
-90
-140
-179
-197
-218
-226
-232
-279
-326
-341
-389
-445
-423
-357
-294
-251
-306
-407
-380
-250
-184
-216
-221
-139
-141
-272
-240
157
1126
2623
3190
1623
-336
-620
-136
-224
-386
-251
-258
-380
-358
-303
-270
-194
-167
-211
-186
-101
-77
-63
15
59
29
43
94
73
29
9
-55
-69
16
8
-7
91
-56
-131
769
2017
2403
2348
2174
1124
-251
-639
-442
-543
-654
-525
-500
-603
-624
-616
-627
-593
-579
-621
-583
-474
-436
-432
-383
-380
-449
-454
-394
-390
-381
-321
-369
-450
-282
277
1437
2754
2609
761
-592
-439
-130
-278
-305
-237
-305
-302
-206
-182
-177
-114
-50
-25
10
93
175
200
183
162
165
167
113
61
95
118
52
1
3
-12
-19
-11
-50
-68
3
39
-18
-48
-49
-108
-165
-154
-146
-175
-195
-212
-264
-357
-453
-490
-502
-582
-671
-671
-648
-646
-594
-527
-531
-520
-429
-374
-390
-363
-269
-153
-37
-17
-89
-40
302
1162
2481
3038
1861
270
-107
159
95
-17
59
79
79
119
104
92
119
104
91
124
145
151
154
141
159
226
265
254
240
227
177
103
57
47
23
-6
8
22
-18
-65
-94
-135
-171
-176
-183
-199
-205
-206
-214
-215
-207
-208
-224
-240
-252
-277
-298
-279
-238
-195
-133
-82
-93
-130
-156
-217
-309
-369
-412
-437
-398
-356
-345
-284
-257
-344
-320
68
1083
2621
3273
1923
112
-280
78
35
-98
-34
-50
-110
-91
-102
-122
-83
-73
-129
-168
-165
-149
-116
-52
24
84
119
139
137
107
65
29
2
-28
-64
-82
-74
-74
-99
-132
-167
-190
-194
-209
-241
-254
-252
-271
-303
-320
-318
-309
-299
-290
-280
-275
-279
-276
-257
-241
-239
-224
-180
-136
-109
-70
-32
-39
-75
-107
-130
-129
-132
-161
-142
-108
-189
-244
7
791
2141
3007
1989
1
-731
-271
-79
-202
-133
-74
-132
-139
-125
-117
-68
-26
-8
34
93
136
173
216
253
275
283
279
266
242
205
167
143
129
113
95
69
28
-14
-37
-59
-99
-126
-131
-145
-179
-208
-222
-234
-259
-283
-284
-274
-273
-277
-273
-267
-263
-253
-248
-269
-298
-304
-298
-304
-291
-240
-206
-218
-237
-249
-251
-218
-205
-232
-202
-171
-260
-290
58
1074
2611
3256
1848
-106
-571
-132
-99
-230
-146
-128
-179
-133
-90
-92
-58
-13
4
28
76
121
161
195
207
211
232
241
211
173
146
116
93
82
60
11
-52
-107
-146
-178
-213
-238
-243
-237
-236
-246
-249
-244
-248
-266
-281
-299
-324
-340
-336
-328
-321
-308
-294
-298
-304
-282
-247
-231
-224
-200
-164
-147
-155
-172
-188
-186
-171
-208
-260
-192
-104
-169
-190
182
1180
2551
2951
1458
-351
-644
-146
-90
-185
-98
-104
-161
-107
-53
-38
7
65
104
119
124
149
201
260
321
370
382
369
365
368
332
256
200
177
131
55
2
-23
-58
-114
-167
-203
-219
-221
-224
-228
-230
-242
-259
-267
-289
-340
-374
-360
-324
-297
-281
-275
-275
-275
-278
-283
-276
-258
-253
-251
-231
-237
-298
-337
-326
-306
-258
-199
-202
-189
-159
-272
-363
-49
827
2196
3156
2345
390
-531
-200
-32
-211
-198
-146
-197
-178
-131
-132
-113
-75
-48
-3
56
106
160
220
277
327
361
367
356
332
300
273
246
206
161
118
63
-10
-84
-146
-200
-248
-281
-300
-309
-304
-291
-290
-303
-321
-333
-327
-312
-308
-316
-317
-313
-306
-282
-242
-206
-184
-177
-184
-191
-183
-171
-174
-198
-225
-235
-241
-247
-226
-189
-182
-190
-185
-187
-172
-120
-103
-91
-21
-56
-176
-17
558
1538
2620
2580
972
-413
-362
8
-110
-200
-119
-140
-171
-134
-124
-118
-67
1
62
103
141
200
257
292
323
350
357
352
342
313
271
235
209
191
178
160
129
87
41
-7
-48
-83
-118
-150
-172
-189
-210
-231
-252
-269
-274
-270
-273
-287
-306
-311
-301
-297
-296
-266
-219
-186
-164
-145
-143
-155
-166
-181
-197
-201
-204
-219
-231
-232
-233
-237
-233
-228
-226
-215
-186
-144
-88
-35
-17
-23
-33
-56
-66
-48
-58
-72
-37
-71
-174
-85
358
1252
2325
2400
1006
-295
-340
-17
-66
-99
-7
-15
-32
7
12
11
39
57
73
105
135
160
184
201
213
226
230
219
203
181
143
103
80
67
49
22
-18
-76
-128
-158
-176
-191
-197
-201
-210
-214
-209
-207
-209
-213
-226
-241
-249
-257
-266
-260
-243
-230
-218
-205
-194
-187
-186
-182
-178
-179
-183
-179
-169
-160
-158
-158
-155
-158
-169
-171
-149
-113
-90
-104
-136
-150
-146
-136
-120
-125
-130
-94
-102
-170
-94
296
1097
2070
2161
863
-414
-452
-38
-36
-115
-49
-41
-54
-5
19
20
47
66
83
135
186
205
228
263
284
304
326
324
296
259
222
188
151
111
88
80
59
29
7
-13
-43
-81
-116
-140
-150
-157
-171
-192
-211
-223
-230
-235
-233
-225
-232
-255
-272
-282
-302
-315
-303
-285
-277
-267
-251
-241
-248
-267
-270
-258
-242
-203
-154
-155
-196
-212
-210
-209
-197
-198
-189
-148
-188
-263
-130
386
1516
2851
2782
922
-563
-455
-66
-177
-217
-116
-135
-133
-80
-87
-81
-34
-10
27
96
141
155
179
220
268
311
336
341
331
304
272
248
226
194
162
118
37
-58
-127
-166
-194
-224
-248
-251
-249
-270
-288
-275
-261
-271
-293
-313
-320
-306
-292
-306
-322
-307
-286
-281
-273
-263
-266
-258
-235
-230
-238
-223
-200
-203
-213
-210
-230
-266
-263
-249
-270
-260
-223
-272
-309
-28
807
2037
2617
1530
-225
-786
-311
-89
-179
-125
-73
-100
-50
11
6
14
44
75
128
173
190
230
294
328
359
426
466
439
418
425
388
322
298
261
150
48
7
-47
-130
-186
-228
-260
-249
-223
-228
-237
-222
-207
-206
-215
-239
-265
-268
-253
-243
-238
-234
-242
-254
-247
-228
-225
-240
-229
-190
-185
-216
-210
-172
-163
-166
-164
-172
-156
-156
-204
-14
783
1899
2220
1094
-391
-769
-303
-67
-115
-65
4
3
12
18
23
68
115
143
190
249
306
373
432
473
514
550
565
564
538
491
455
426
376
303
173
-33
-242
-387
-492
-565
-567
-495
-399
-329
-289
-252
-224
-228
-253
-298
-370
-426
-424
-394
-372
-346
-306
-266
-244
-268
-333
-393
-430
-462
-484
-492
-497
-486
-464
-469
-493
-499
-500
-486
-430
-378
-338
-263
-250
-341
-249
375
1576
2632
2280
604
-545
-366
3
-48
-57
47
49
51
100
108
112
154
191
220
268
323
372
427
492
542
566
573
575
575
565
535
482
421
360
289
200
111
39
-25
-87
-129
-144
-155
-179
-205
-214
-215
-227
-242
-251
-263
-276
-283
-286
-290
-293
-295
-293
-288
-290
-292
-286
-282
-295
-305
-293
-280
-283
-271
-237
-228
-247
-252
-251
-257
-238
-231
-259
-222
-196
-312
-302
157
1108
2330
2789
1540
-206
-625
-186
-129
-260
-185
-151
-181
-137
-106
-107
-68
-26
3
47
93
133
184
235
276
316
351
362
353
334
302
261
226
193
144
85
27
-39
-100
-141
-180
-221
-236
-234
-250
-272
-277
-278
-286
-289
-289
-290
-288
-284
-282
-279
-273
-265
-248
-220
-205
-206
-192
-169
-175
-210
-230
-229
-238
-253
-233
-183
-166
-187
-191
-181
-180
-174
-176
-180
-129
-135
-277
-260
165
1018
2234
2896
1887
147
-453
-126
-79
-231
-185
-149
-177
-132
-90
-88
-58
-15
17
57
95
117
141
170
196
213
218
220
222
219
205
185
164
140
110
73
26
-23
-72
-125
-173
-200
-203
-201
-226
-261
-251
-219
-224
-234
-212
-200
-208
-194
-168
-160
-157
-143
-128
-111
-93
-88
-92
-89
-84
-103
-141
-156
-138
-128
-125
-102
-95
-141
-187
-198
-211
-217
-206
-217
-209
-170
-209
-262
-71
535
1509
2160
1512
66
-565
-232
-29
-126
-110
-65
-84
-54
-30
-34
13
58
49
62
112
140
148
169
206
239
255
263
280
289
277
264
253
229
208
187
140
65
-2
-48
-82
-117
-140
-147
-166
-201
-214
-205
-212
-228
-222
-213
-222
-237
-238
-233
-236
-247
-267
-285
-285
-276
-282
-297
-297
-287
-280
-264
-227
-206
-234
-256
-222
-190
-190
-181
-144
-94
-99
-198
-231
-22
560
1643
2471
1732
7
-683
-239
-44
-197
-132
-41
-87
-72
-24
-30
-14
24
41
79
137
170
198
238
263
267
274
288
291
269
232
199
172
146
129
111
64
-5
-56
-86
-117
-150
-168
-172
-183
-202
-209
-206
-215
-235
-246
-243
-238
-243
-253
-253
-250
-262
-271
-262
-260
-286
-309
-302
-287
-279
-250
-200
-182
-200
-194
-161
-148
-144
-133
-130
-86
-40
-127
-217
-40
587
1804
2881
2304
405
-605
-281
-60
-243
-243
-177
-228
-206
-130
-110
-71
3
41
47
71
120
175
217
245
273
302
310
291
262
234
206
183
156
123
100
84
43
-7
-38
-56
-71
-88
-118
-147
-154
-162
-186
-199
-200
-215
-234
-241
-247
-251
-251
-262
-277
-274
-277
-295
-292
-271
-278
-286
-248
-218
-248
-279
-278
-288
-280
-247
-255
-262
-246
-323
-357
-67
574
1509
2179
1509
-100
-810
-379
-114
-240
-208
-135
-183
-166
-89
-69
-54
-11
23
58
102
136
166
216
280
335
360
358
356
349
310
266
246
227
195
155
92
18
-36
-80
-133
-179
-213
-235
-243
-254
-268
-267
-270
-293
-292
-266
-274
-304
-299
-273
-258
-255
-265
-283
-282
-266
-259
-247
-209
-178
-187
-203
-205
-209
-197
-176
-189
-188
-148
-186
-257
-149
353
1517
2794
2566
751
-486
-293
4
-132
-152
-78
-112
-104
-50
-38
0
61
93
131
194
252
301
346
384
413
421
407
396
391
366
320
282
263
240
196
135
74
29
11
-3
-38
-69
-69
-63
-73
-78
-82
-94
-103
-116
-146
-162
-157
-171
-195
-194
-190
-204
-219
-226
-222
-200
-186
-174
-130
-100
-135
-167
-159
-165
-181
-192
-226
-219
-172
-234
-313
-120
452
1397
2145
1579
-3
-790
-422
-162
-311
-324
-256
-294
-294
-260
-277
-279
-248
-237
-231
-207
-180
-156
-141
-131
-114
-99
-108
-134
-159
-189
-222
-250
-278
-318
-367
-422
-492
-560
-611
-660
-694
-711
-760
-781
-608
-274
11
196
363
486
518
521
501
369
137
-77
-227
-345
-457
-550
-602
-639
-695
-705
-588
-387
-195
-56
33
118
217
265
291
383
426
369
431
811
1714
2935
3134
1591
-23
-247
14
-157
-335
-327
-395
-456
-417
-385
-338
-247
-173
-105
-17
48
93
155
216
250
281
318
339
346
362
377
381
394
415
416
383
330
287
247
190
153
164
183
203
279
385
438
438
437
442
434
413
412
452
492
498
496
503
488
433
359
308
310
308
189
-36
-242
-370
-453
-536
-604
-621
-672
-792
-780
-378
570
1641
1591
92
-1179
-1120
-727
-776
-834
-749
-750
-754
-692
-653
-607
-541
-512
-485
-434
-395
-341
-255
-214
-218
-178
-126
-134
-153
-147
-157
-167
-144
-131
-160
-198
-225
-256
-290
-307
-307
-312
-328
-339
-335
-328
-332
-341
-337
-322
-321
-333
-314
-280
-286
-295
-253
-216
-223
-205
-143
-125
-159
-171
-164
-169
-161
-151
-150
-114
-93
-138
-89
250
1133
2483
2986
1590
-203
-508
-15
18
-105
-15
0
-52
-8
35
41
85
139
179
233
292
338
378
416
440
448
437
406
368
332
298
269
251
238
216
176
127
83
46
20
6
-8
-30
-47
-59
-70
-75
-80
-96
-112
-117
-125
-138
-141
-143
-160
-177
-172
-161
-158
-135
-97
-94
-120
-129
-130
-124
-104
-117
-139
-105
-125
-224
-161
268
1286
2639
2857
1240
-354
-429
-29
-108
-193
-105
-116
-128
-67
-51
-45
-1
28
43
78
118
148
172
197
215
220
219
215
193
168
161
150
116
78
42
-13
-86
-155
-199
-213
-217
-229
-236
-242
-281
-328
-331
-316
-323
-329
-326
-337
-352
-355
-365
-388
-397
-385
-371
-372
-370
-337
-304
-318
-351
-363
-378
-390
-378
-389
-401
-355
-370
-467
-380
79
1016
2127
2156
637
-703
-652
-259
-339
-411
-330
-354
-376
-319
-297
-292
-254
-222
-197
-159
-126
-100
-73
-46
-25
-11
-13
-31
-59
-87
-112
-137
-168
-201
-235
-275
-324
-377
-420
-441
-454
-470
-475
-464
-435
-335
-148
62
293
555
697
594
384
244
163
100
60
15
-39
-58
-38
0
58
82
21
-48
-61
-50
10
157
298
412
556
619
556
594
954
1826
2909
2922
1404
15
-81
169
18
-106
-78
-132
-177
-152
-160
-175
-152
-132
-114
-77
-39
-7
30
68
101
124
137
136
124
110
93
68
39
19
-5
-50
-105
-150
-183
-208
-216
-207
-198
-192
-179
-162
-151
-138
-122
-114
-120
-130
-136
-148
-172
-190
-195
-201
-201
-197
-212
-236
-232
-220
-226
-220
-191
-158
-114
-87
-116
-151
-140
-129
-135
-126
-126
-134
-104
-112
-189
-122
281
1110
2103
2219
954
-329
-430
-88
-124
-233
-210
-239
-274
-251
-250
-257
-240
-229
-223
-208
-196
-185
-167
-151
-139
-132
-134
-141
-155
-187
-226
-245
-251
-267
