# session 23
-39
-1
-96
8
433
726
662
526
466
379
271
192
109
31
-9
-32
-55
-67
-72
-71
-69
-77
-88
-82
-77
-91
-102
-104
-115
-130
-136
-138
-140
-143
-155
-169
-174
-177
-181
-180
-163
-127
-89
-85
-118
-145
-133
-127
-148
-141
-124
-154
-155
-119
-180
-225
23
786
2168
3238
2390
184
-918
-513
-204
-342
-319
-238
-276
-244
-183
-192
-173
-122
-114
-96
-33
26
72
128
190
266
359
433
480
520
536
511
477
433
356
269
188
88
-18
-100
-167
-228
-267
-289
-309
-316
-310
-304
-306
-309
-305
-296
-297
-308
-314
-307
-307
-319
-322
-318
-328
-334
-319
-316
-338
-344
-327
-312
-286
-246
-217
-216
-237
-256
-248
-239
-239
-226
-231
-238
-198
-216
-300
-183
375
1579
3002
3007
1037
-730
-753
-272
-320
-372
-254
-265
-282
-212
-190
-187
-145
-112
-85
-37
11
59
124
197
271
351
435
510
560
575
565
542
501
431
346
262
176
79
-18
-98
-157
-198
-220
-228
-231
-235
-234
-226
-214
-205
-202
-207
-211
-211
-211
-220
-228
-231
-237
-245
-252
-264
-277
-278
-274
-266
-237
-194
-169
-176
-202
-217
-209
-208
-212
-191
-196
-224
-179
-165
-293
-296
151
1217
2691
3256
1826
-165
-709
-307
-257
-387
-308
-268
-300
-265
-233
-227
-191
-152
-127
-88
-40
6
59
125
206
297
382
451
501
528
531
513
473
410
329
241
148
48
-53
-139
-202
-246
-279
-302
-308
-304
-304
-302
-294
-285
-280
-276
-273
-274
-273
-272
-275
-280
-280
-276
-274
-277
-279
-279
-289
-302
-298
-278
-255
-218
-173
-152
-165
-189
-200
-196
-199
-201
-181
-184
-201
-155
-156
-292
-277
230
1350
2732
3088
1600
-232
-651
-264
-227
-326
-248
-229
-255
-202
-169
-169
-134
-98
-80
-43
8
53
105
174
250
326
403
473
522
542
543
532
502
442
363
282
198
104
10
-68
-129
-178
-211
-226
-231
-233
-233
-230
-229
-226
-220
-213
-215
-221
-223
-222
-224
-230
-234
-236
-238
-237
-239
-242
-240
-236
-238
-240
-234
-226
-222
-216
-206
-201
-208
-222
-226
-216
-192
-153
-111
-87
-95
-124
-142
-140
-143
-142
-122
-132
-152
-111
-127
-248
-173
374
1455
2666
2766
1210
-378
-570
-192
-214
-299
-217
-208
-229
-186
-166
-153
-109
-84
-73
-34
12
52
102
162
227
300
373
435
484
511
511
495
476
437
370
296
224
142
49
-39
-108
-155
-189
-215
-227
-227
-225
-224
-221
-221
-226
-225
-215
-216
-230
-241
-240
-237
-239
-243
-250
-261
-263
-254
-249
-252
-252
-248
-244
-236
-222
-226
-244
-249
-238
-229
-212
-170
-129
-122
-139
-149
-145
-161
-190
-169
-137
-163
-162
-127
-198
-248
43
890
2262
3134
2116
25
-869
-455
-217
-329
-271
-204
-246
-223
-179
-178
-148
-102
-84
-60
-14
30
79
141
205
274
350
418
475
523
544
522
487
453
399
324
242
156
67
-20
-104
-172
-209
-225
-234
-242
-254
-257
-242
-228
-232
-237
-235
-234
-234
-232
-239
-250
-255
-257
-261
-268
-277
-274
-262
-261
-272
-278
-274
-267
-262
-241
-197
-160
-158
-182
-199
-193
-192
-201
-185
-175
-201
-185
-163
-256
-291
49
1004
2467
3206
1947
-118
-800
-356
-223
-358
-285
-230
-268
-232
-188
-185
-156
-121
-100
-60
-11
31
78
140
214
299
382
456
511
542
546
528
492
440
364
275
186
99
8
-75
-142
-195
-232
-250
-255
-255
-251
-245
-241
-241
-239
-233
-231
-234
-237
-236
-237
-244
-251
-254
-256
-256
-255
-258
-262
-270
-281
-279
-264
-248
-221
-174
-137
-138
-170
-196
-191
-185
-193
-182
-177
-196
-167
-153
-265
-297
92
1092
2488
3087
1831
-78
-697
-322
-221
-341
-279
-235
-266
-229
-191
-189
-161
-122
-98
-64
-20
27
80
140
210
290
369
441
497
523
518
500
471
421
352
273
188
101
14
-70
-140
-185
-220
-246
-255
-250
-246
-243
-240
-236
-231
-230
-229
-224
-221
-229
-238
-239
-241
-242
-242
-243
-245
-242
-239
-235
-228
-225
-228
-236
-242
-242
-231
-211
-177
-133
-106
-111
-138
-157
-154
-155
-158
-143
-146
-158
-121
-135
-248
-197
315
1414
2677
2792
1214
-393
-589
-209
-223
-301
-216
-208
-233
-191
-170
-165
-128
-97
-78
-44
-2
41
93
158
229
299
363
421
467
490
488
467
437
393
326
245
172
98
11
-81
-155
-204
-231
-245
-250
-250
-253
-256
-248
-233
-230
-238
-241
-237
-236
-241
-249
-257
-263
-270
-272
-264
-252
-253
-266
-282
-285
-268
-254
-242
-204
-155
-148
-177
-197
-193
-189
-200
-198
-184
-193
-182
-152
-213
-274
-56
678
1994
3036
2325
292
-812
-497
-205
-319
-289
-207
-259
-251
-182
-167
-160
-128
-100
-59
-6
35
75
127
194
280
366
424
463
507
539
530
497
459
404
335
259
163
58
-23
-87
-148
-192
-215
-235
-249
-240
-225
-223
-223
-220
-220
-220
-220
-225
-227
-229
-241
-249
-248
-252
-260
-254
-250
-262
-280
-285
-281
-274
-258
-224
-186
-165
-172
-201
-218
-209
-209
-209
-198
-212
-210
-163
-203
-295
-154
459
1717
3036
2767
723
-797
-644
-223
-322
-351
-234
-249
-257
-202
-193
-181
-137
-115
-92
-46
1
48
107
170
237
315
395
456
490
500
493
472
430
367
291
209
125
39
-52
-131
-184
-219
-246
-261
-263
-259
-253
-242
-232
-229
-232
-233
-232
-236
-243
-247
-250
-256
-261
-264
-268
-271
-275
-284
-290
-284
-280
-270
-231
-183
-166
-182
-207
-216
-205
-204
-206
-191
-197
-204
-161
-185
-302
-224
335
1510
2839
2892
1176
-455
-588
-204
-249
-324
-237
-234
-247
-191
-166
-159
-125
-97
-70
-25
19
66
130
198
264
340
421
489
530
547
540
518
482
427
354
277
194
101
12
-61
-118
-161
-188
-205
-213
-213
-211
-210
-205
-200
-201
-204
-201
-198
-201
-207
-208
-208
-215
-224
-225
-224
-229
-235
-234
-230
-230
-228
-225
-231
-246
-253
-245
-231
-205
-161
-126
-130
-161
-185
-183
-180
-187
-176
-172
-195
-171
-148
-252
-299
53
965
2257
2895
1814
-24
-717
-367
-223
-339
-296
-250
-279
-250
-213
-209
-181
-145
-127
-94
-47
-4
45
104
167
240
317
383
433
466
478
467
442
404
346
274
201
127
43
-40
-109
-165
-204
-221
-230
-239
-238
-233
-232
-228
-216
-208
-210
-212
-213
-215
-217
-220
-222
-221
-223
-227
-227
-226
-229
-232
-230
-231
-244
-252
-240
-222
-194
-148
-111
-114
-146
-169
-165
-159
-167
-160
-150
-162
-142
-125
-221
-275
37
935
2293
3029
1971
65
-686
-331
-176
-296
-248
-198
-238
-210
-164
-161
-131
-89
-74
-49
-1
41
81
138
207
273
341
415
472
492
494
490
470
430
375
304
228
151
63
-26
-93
-143
-186
-212
-220
-223
-220
-213
-216
-222
-218
-209
-207
-217
-231
-235
-229
-227
-236
-246
-253
-258
-260
-260
-255
-247
-250
-257
-250
-251
-268
-267
-245
-227
-192
-142
-134
-171
-186
-174
-183
-200
-183
-172
-195
-173
-145
-228
-271
5
818
2210
3151
2155
7
-928
-483
-216
-350
-311
-227
-256
-238
-198
-191
-154
-111
-100
-77
-25
29
79
129
188
262
344
412
452
475
493
493
467
430
383
310
225
145
64
-23
-97
-149
-185
-211
-229
-238
-235
-228
-223
-226
-225
-216
-211
-215
-219
-221
-229
-235
-237
-246
-260
-264
-262
-267
-278
-288
-290
-279
-261
-236
-199
-171
-175
-203
-218
-207
-201
-208
-196
-190
-207
-178
-154
-245
-272
65
997
2433
3156
1906
-125
-784
-344
-217
-351
-279
-229
-271
-235
-190
-191
-168
-129
-101
-65
-22
19
70
134
202
279
361
433
485
518
524
500
459
408
342
262
175
86
-3
-83
-150
-201
-234
-250
-257
-258
-256
-251
-243
-234
-229
-231
-232
-231
-236
-242
-242
-241
-245
-249
-251
-251
-253
-257
-270
-280
-276
-262
-240
-201
-160
-149
-170
-194
-196
-192
-202
-198
-178
-191
-191
-145
-193
-299
-145
528
1785
2955
2603
730
-611
-509
-191
-288
-309
-222
-246
-250
-192
-174
-166
-135
-109
-78
-34
6
51
110
175
249
329
404
462
497
510
506
482
436
376
303
223
138
49
-37
-110
-164
-205
-236
-250
-249
-242
-241
-240
-234
-227
-221
-217
-218
-222
-224
-226
-227
-228
-231
-235
-237
-236
-235
-236
-235
-231
-228
-230
-240
-253
-253
-237
-212
-179
-137
-109
-114
-142
-162
-163
-166
-163
-145
-155
-162
-117
-146
-262
-165
416
1557
2736
2625
934
-518
-550
-187
-242
-300
-215
-222
-233
-184
-169
-162
-123
-97
-78
-40
6
51
102
159
227
301
365
418
458
477
478
465
430
375
312
247
171
80
-13
-91
-148
-187
-211
-226
-232
-232
-236
-243
-241
-229
-222
-225
-224
-225
-227
-224
-219
-226
-244
-256
-248
-231
-234
-255
-263
-256
-265
-278
-267
-242
-214
-173
-136
-134
-166
-191
-189
-189
-199
-185
-174
-194
-166
-127
-218
-286
-11
817
2171
3052
2093
73
-800
-406
-197
-338
-288
-207
-244
-223
-174
-172
-156
-124
-98
-53
-10
17
61
125
187
257
334
394
439
483
512
504
465
416
368
311
234
142
52
-26
-96
-154
-198
-230
-247
-245
-233
-229
-230
-229
-224
-216
-209
-213
-223
-231
-234
-236
-242
-249
-253
-255
-255
-255
-263
-273
-270
-261
-257
-235
-191
-161
-172
-204
-217
-211
-217
-215
-194
-205
-213
-165
-188
-284
-179
372
1562
2925
2851
904
-749
-711
-245
-300
-342
-222
-237
-263
-204
-184
-179
-132
-92
-70
-40
-2
46
110
174
237
308
384
445
487
506
498
471
433
381
305
215
128
48
-34
-112
-173
-213
-238
-250
-254
-255
-253
-245
-236
-230
-225
-218
-215
-219
-225
-227
-230
-237
-243
-245
-249
-255
-257
-259
-270
-278
-271
-254
-232
-199
-164
-150
-166
-188
-192
-190
-201
-195
-176
-194
-192
-143
-199
-308
-138
551
1819
3008
2657
751
-614
-504
-182
-290
-316
-224
-246
-252
-196
-180
-167
-128
-104
-80
-37
8
50
103
170
246
324
396
458
496
509
505
485
442
378
307
230
139
42
-44
-113
-168
-210
-238
-252
-254
-252
-251
-246
-236
-229
-231
-233
-230
-226
-226
-228
-231
-235
-237
-241
-244
-242
-240
-243
-243
-235
-232
-234
-236
-244
-252
-245
-226
-201
-164
-125
-111
-127
-152
-159
-153
-157
-155
-146
-163
-154
-114
-181
-269
-37
722
1964
2925
2329
483
-623
-415
-146
-258
-266
-192
-218
-210
-158
-150
-140
-103
-76
-50
-8
34
75
124
183
250
319
385
443
479
490
482
462
428
377
307
230
151
61
-28
-96
-147
-196
-234
-245
-245
-247
-247
-241
-237
-236
-231
-226
-227
-229
-224
-221
-229
-240
-245
-244
-245
-246
-245
-243
-243
-241
-235
-231
-232
-233
-238
-248
-251
-239
-219
-183
-135
-110
-127
-156
-165
-159
-162
-161
-147
-160
-174
-136
-153
-264
-195
341
1457
2722
2801
1180
-422
-588
-202
-226
-307
-229
-221
-230
-176
-159
-162
-128
-95
-73
-39
0
44
101
158
211
276
348
409
453
480
486
473
449
410
354
286
203
117
43
-35
-122
-185
-211
-227
-242
-247
-247
-237
-219
-218
-232
-235
-233
-232
-224
-223
-240
-248
-241
-240
-257
-274
-263
-241
-242
-250
-242
-248
-269
-269
-250
-226
-181
-130
-124
-167
-196
-179
-169
-190
-187
-171
-170
-140
-146
-237
-207
194
1207
2674
3169
1580
-457
-863
-320
-225
-334
-244
-214
-242
-190
-164
-167
-115
-67
-57
-28
18
52
93
163
243
320
390
452
498
524
536
530
498
446
379
296
205
118
32
-61
-140
-186
-215
-245
-262
-258
-248
-243
-247
-251
-243
-240
-255
-261
-250
-253
-267
-268
-266
-276
-294
-307
-310
-316
-315
-291
-274
-286
-286
-252
-225
-228
-247
-258
-251
-242
-242
-265
-296
-255
-199
-277
-318
13
880
2256
3167
2146
-66
-1053
-593
-297
-409
-345
-275
-334
-304
-237
-239
-218
-171
-146
-110
-61
-22
28
100
182
264
343
416
488
537
537
513
493
451
362
255
157
61
-39
-133
-209
-261
-291
-305
-309
-307
-308
-310
-300
-279
-266
-269
-272
-265
-255
-253
-257
-262
-265
-270
-271
-261
-261
-278
-278
-255
-244
-235
-192
-146
-139
-161
-173
-166
-163
-162
-136
-123
-136
-95
-76
-192
-199
211
1198
2698
3502
2207
-1
-752
-273
-115
-250
-171
-117
-158
-117
-71
-68
-38
-1
26
71
114
152
212
282
357
447
534
599
652
691
698
678
647
597
517
423
331
232
124
23
-53
-105
-142
-171
-187
-193
-193
-189
-185
-185
-186
-183
-182
-186
-193
-199
-209
-222
-232
-238
-247
-256
-272
-297
-308
-295
-289
-288
-259
-224
-224
-253
-281
-291
-297
-308
-297
-293
-331
-318
-278
-388
-487
-191
687
2133
3220
2403
213
-947
-641
-401
-564
-544
-462
-506
-497
-449
-450
-434
-400
-387
-364
-318
-277
-234
-173
-102
-25
58
137
199
236
246
237
212
165
89
-3
-99
-199
-302
-396
-470
-523
-558
-577
-589
-594
-590
-581
-572
-558
-540
-529
-523
-514
-506
-499
-488
-476
-470
-466
-458
-449
-440
-428
-412
-399
-387
-381
-378
-363
-334
-301
-256
-197
-152
-139
-149
-150
-125
-107
-95
-60
-46
-49
11
23
-91
-25
535
1676
3060
3398
1874
57
-297
119
149
62
162
200
191
252
294
316
370
416
449
502
559
613
679
752
830
921
1016
1096
1154
1193
1207
1195
1168
1122
1050
966
881
786
681
590
518
458
415
393
374
353
341
335
324
308
292
274
254
232
206
177
144
109
73
35
-5
-44
-82
-126
-175
-222
-266
-313
-362
-410
-460
-514
-568
-624
-684
-744
-805
-880
-970
-1053
-1117
-1174
-1227
-1266
-1306
-1380
-1493
-1605
-1690
-1770
-1868
-1954
-2036
-2151
-2234
-2292
-2490
-2639
-2223
-1291
-310
