# session 15
-41
-47
-23
-28
-95
-169
-193
-144
-15
111
140
106
81
60
52
68
25
-102
-181
-172
-190
-240
-233
-230
-291
-298
-253
-297
-328
-224
-177
-263
-285
-249
-278
-307
-289
-264
-272
-352
-394
-211
421
1692
2702
1875
-140
-1010
-596
-387
-454
-295
-236
-331
-235
-72
-34
31
153
203
236
340
393
314
231
213
177
98
30
-9
-33
-87
-152
-129
-66
-109
-192
-187
-178
-243
-275
-203
-128
-158
-199
-158
-168
-231
-157
-95
-244
-312
63
1043
2309
2486
884
-734
-833
-386
-399
-438
-294
-257
-250
-182
-153
-72
123
252
252
261
309
316
275
224
189
165
78
-68
-137
-129
-168
-186
-87
-44
-150
-187
-131
-201
-296
-221
-156
-237
-281
-244
-279
-370
-379
-320
-321
-350
-257
110
1012
2108
2016
417
-866
-752
-314
-327
-366
-259
-229
-237
-176
-89
-13
69
170
257
305
339
369
384
361
260
135
105
138
98
-2
-56
-68
-111
-175
-211
-200
-167
-176
-253
-311
-273
-223
-254
-316
-349
-378
-378
-354
-420
-500
-379
107
1304
2804
2746
667
-998
-879
-433
-541
-561
-391
-363
-343
-217
-112
-66
-20
105
306
442
432
377
351
302
206
110
21
-79
-145
-132
-94
-90
-105
-123
-144
-148
-157
-208
-255
-242
-212
-221
-268
-310
-313
-267
-213
-270
-400
-387
-124
674
2200
3129
1895
-226
-929
-563
-481
-535
-410
-382
-392
-304
-241
-174
-63
-3
59
181
229
172
114
56
-23
-81
-122
-158
-167
-175
-183
-121
-37
-60
-145
-175
-170
-192
-243
-270
-217
-158
-201
-235
-178
-192
-274
-267
-277
-380
-349
129
1371
2853
2836
954
-642
-724
-446
-533
-536
-415
-402
-390
-323
-257
-168
-87
1
167
279
185
40
10
4
-54
-76
-53
-77
-128
-121
-89
-89
-81
-41
-64
-189
-298
-310
-284
-263
-222
-197
-223
-224
-195
-195
-162
-141
-268
-303
173
1320
2749
3122
1569
-381
-864
-456
-369
-429
-339
-313
-306
-191
-78
-6
73
173
324
481
506
418
358
326
264
210
162
56
-51
-61
-21
-28
-89
-158
-193
-193
-200
-230
-263
-295
-315
-306
-305
-333
-353
-396
-461
-419
-287
-259
-295
3
981
2152
2110
498
-944
-987
-542
-471
-463
-362
-339
-284
-154
-86
-43
62
177
261
332
355
268
132
70
47
-14
-35
-16
-113
-258
-256
-201
-217
-184
-114
-167
-261
-258
-275
-350
-317
-228
-271
-339
-304
-293
-298
-256
-328
-435
-260
312
1483
2806
2594
629
-777
-632
-353
-503
-476
-337
-351
-323
-219
-160
-92
23
129
191
191
132
61
3
-35
-40
-32
-54
-81
-70
-64
-107
-132
-78
-19
-52
-130
-139
-92
-92
-133
-117
-60
-71
-137
-179
-215
-226
-171
-176
-264
-192
260
1301
2607
2718
1056
-527
-655
-323
-384
-422
-314
-308
-305
-230
-175
-101
19
119
189
239
231
168
100
56
23
-15
-48
-64
-80
-100
-85
-54
-88
-168
-199
-191
-205
-232
-246
-227
-163
-123
-162
-206
-208
-210
-192
-182
-299
-405
-189
582
1936
2921
2106
117
-863
-582
-394
-504
-445
-368
-370
-289
-196
-142
-38
85
206
355
416
319
215
172
109
57
48
0
-49
3
30
-85
-184
-175
-186
-246
-266
-251
-245
-261
-299
-312
-315
-399
-506
-489
-367
-227
-150
-239
-373
-240
359
1458
2358
1724
-167
-1224
-866
-486
-558
-511
-366
-348
-300
-189
-120
-40
89
207
283
310
277
195
98
23
-13
-32
-51
-59
-42
-18
-16
-31
-49
-70
-92
-101
-112
-154
-200
-188
-138
-152
-232
-270
-258
-253
-212
-191
-318
-416
-164
698
2156
3033
1956
-41
-820
-541
-480
-567
-439
-375
-414
-380
-329
-260
-95
77
168
228
274
238
147
91
38
-23
-7
-57
-210
156
1306
2155
1661
411
-352
-393
-298
-343
-384
-361
-331
-307
-298
-313
-341
-381
-373
-322
-375
-486
-385
85
987
1849
1516
0
-1008
-858
-577
-585
-531
-477
-487
-382
-243
-189
-140
-41
98
179
195
300
285
57
497
1741
2061
829
-228
-215
-32
-108
-138
-144
-210
-232
-249
-311
-363
-403
-426
-412
-417
-441
-414
-398
-425
-369
-334
-514
-634
-236
891
2499
3218
1806
-357
-1049
-638
-530
-630
-537
-491
-484
-351
-221
-165
-68
88
209
263
290
267
174
124
139
70
-62
-101
-80
-108
-147
-153
-162
-203
-263
-292
-276
-284
-350
-386
-342
-285
-278
-293
-290
-300
-304
-255
-265
-383
-354
85
1103
2397
2593
964
-757
-947
-500
-484
-529
-410
-394
-368
-202
-73
-10
103
239
328
372
373
312
212
125
61
3
-53
-88
-60
35
109
74
-35
-106
-76
11
29
-49
-111
-104
-106
-156
-197
-195
-190
-194
-151
-133
-248
-288
7
747
1986
2887
2089
222
-641
-365
-245
-384
-330
-267
-293
-247
-183
-159
-104
4
150
293
341
283
212
156
77
-3
-12
24
3
-93
-157
-109
-58
-129
-211
-211
-251
-328
-324
-332
-371
-287
-165
-180
-272
-346
-356
-341
-429
-551
-487
71
1475
2903
2513
495
-803
-726
-595
-755
-687
-538
-521
-419
-264
-266
-266
-80
96
132
158
174
134
147
174
95
-5
-55
-87
-70
-19
4
17
-12
-159
-298
-258
-148
-141
-223
-310
-306
-195
-143
-181
-183
-257
-399
-330
-210
-356
-371
356
1772
2849
2223
258
-942
-742
-439
-477
-361
-225
-270
-247
-169
-168
-71
147
284
374
494
490
349
268
225
103
17
27
-21
-120
-108
-43
-53
-85
-120
-186
-212
-196
-225
-257
-256
-278
-285
-266
-303
-337
-281
-237
-309
-466
-579
-396
432
1874
2782
1854
-83
-948
-607
-373
-449
-406
-354
-337
-228
-159
-124
38
192
241
334
399
289
177
184
177
109
45
10
-12
-41
-28
12
-31
-79
-51
-105
-200
-156
-129
-215
-203
-136
-250
-408
-395
-363
-379
-273
-181
-288
-203
545
1790
2568
1790
8
-880
-567
-334
-440
-377
-246
-204
-163
-148
-149
-143
-108
129
454
481
290
222
242
163
-4
-107
-23
97
29
-87
-39
4
-114
-201
-160
-168
-256
-289
-257
-203
-202
-366
-487
-289
-85
-186
-281
-266
-426
-552
-184
883
2453
3149
1708
-360
-874
-479
-493
-517
-293
-281
-340
-241
-186
-147
-41
-7
60
306
468
359
189
113
79
40
0
-35
-53
-60
-71
-99
-140
-170
-198
-243
-259
-232
-236
-275
-258
-208
-241
-310
-297
-287
-315
-267
-280
-474
-475
16
942
2003
2194
913
-466
-629
-349
-427
-450
-314
-326
-349
-260
-194
-132
-19
72
126
167
153
90
43
37
32
2
-28
-28
-21
-26
-40
-94
-187
-228
-198
-205
-242
-214
-177
-211
-232
-178
-150
-182
-179
-149
-160
-173
-194
-296
-394
-225
578
1870
2341
1123
-403
-699
-351
-299
-317
-221
-227
-240
-141
-67
-48
14
125
222
271
272
242
206
183
158
121
99
116
141
127
79
38
10
-12
-9
0
-26
-52
-50
-58
-71
-46
-9
-17
-65
-93
-90
-93
-83
-77
-165
-258
-90
676
2056
2874
1803
-148
-879
-508
-357
-431
-302
-245
-355
-325
-160
-62
-17
57
148
236
301
293
215
146
118
74
8
-15
-7
-24
-58
-96
-144
-165
-187
-278
-369
-376
-369
-392
-389
-386
-426
-442
-419
-444
-499
-485
-439
-466
-522
-471
-199
643
2094
2733
1272
-802
-1281
-690
-549
-673
-464
-278
-360
-359
-190
-129
-141
12
230
321
343
337
246
131
67
3
-80
-122
-99
-56
-34
-33
-59
-121
-190
-225
-220
-202
-215
-255
-261
-244
-278
-327
-295
-232
-231
-217
-154
-207
-374
-401
-23
1204
3054
3563
1603
-597
-919
-422
-393
-414
-275
-292
-299
-166
-96
-49
89
225
355
509
536
396
269
225
189
111
21
1
8
-89
-185
-126
-56
-80
-83
-96
-191
-243
-201
-186
-207
-219
-262
-312
-284
-234
-247
-262
-295
-395
-335
216
1418
2776
2838
1074
-641
-812
-422
-462
-536
-404
-307
-299
-316
-232
-28
65
39
137
306
319
225
200
212
134
9
-47
-84
-164
-204
-181
-185
-213
-208
-227
-282
-278
-255
-323
-378
-301
-214
-244
-300
-266
-220
-262
-324
-397
-524
-496
10
1177
2570
2749
1098
-599
-832
-469
-407
-389
-402
-529
-463
-270
-214
-161
-25
59
123
229
263
180
101
81
43
-36
-90
-73
-28
-69
-208
-276
-221
-211
-277
-286
-258
-280
-279
-205
-163
-180
-180
-189
-223
-209
-206
-235
-174
-167
-388
-495
-90
918
2234
2634
1260
-428
-714
-292
-296
-406
-311
-287
-272
-130
-34
-8
106
276
361
372
403
408
304
197
189
212
220
211
151
108
150
126
-19
-86
-57
-120
-230
-230
-185
-190
-199
-178
-147
-114
-131
-233
-334
-348
-298
-277
-312
-272
-43
520
1576
2306
1341
-590
-1296
-733
-386
-398
-304
-271
-273
-123
-27
-29
73
227
314
387
474
510
423
222
66
52
54
13
7
4
-50
-86
-97
-160
-213
-179
-182
-283
-306
-222
-244
-346
-300
-203
-273
-364
-332
-329
-349
-266
-273
-445
-390
206
1276
2142
1663
12
-1008
-744
-346
-369
-388
-303
-244
-180
-125
-62
69
177
196
236
349
406
325
222
202
180
67
-42
-24
36
-5
-65
-28
-46
-185
-228
-160
-161
-181
-170
-227
-270
-214
-225
-297
-253
-213
-270
-221
-175
-373
-453
82
1242
2459
2479
876
-619
-658
-280
-398
-446
-241
-234
-324
-212
-25
78
148
197
203
238
281
228
187
259
274
165
72
-9
-89
-49
28
-12
-71
-88
-169
-264
-266
-228
-198
-180
-179
-130
-39
-54
-180
-280
-334
-325
-238
-232
-396
-524
-160
1172
2843
2921
1016
-618
-692
-380
-453
-493
-437
-448
-401
-262
-108
-4
-22
-71
3
145
194
96
-10
27
60
-79
-163
-65
-69
-215
-215
-109
-141
-288
-398
-389
-283
-223
-266
-271
-194
-179
-250
-260
-188
-186
-301
-356
-269
-236
-355
-446
-259
655
2263
2909
1362
-582
-907
-490
-519
-487
-190
-180
-334
-238
-58
-65
-118
-2
150
157
189
333
327
161
159
289
229
64
106
224
108
-81
-51
67
37
-116
-240
-211
-113
-194
-362
-313
-158
-128
-174
-281
-383
-269
-114
-223
-365
-326
-197
327
1502
2378
1696
-67
-1146
-927
-377
-214
-246
-207
-122
-64
-14
94
239
356
488
657
741
672
538
458
438
362
200
110
105
-1
-126
-105
-157
-238
225
1247
2070
2001
938
-314
-773
-650
-659
-751
-741
-766
-790
-772
-799
-778
-664
-602
-513
-36
874
1338
449
-1012
-1475
-993
-661
-640
-546
-424
-375
-309
-243
-203
-80
162
379
476
518
555
489
304
187
189
125
-6
-47
-54
-147
-252
-275
-221
-125
-77
-138
-215
-201
-127
-91
-166
-287
-297
-243
-303
-366
-268
-196
-274
-320
-283
-248
54
1100
2463
2540
820
-794
-853
-339
-293
-351
-210
-155
-238
-205
6
183
256
407
605
630
572
609
590
394
206
138
98
63
43
-25
-130
-167
-105
-31
-48
-136
-187
-200
-238
-280
-286
-288
-309
-317
-292
-288
-326
-308
-293
-446
-557
-217
801
2373
3306
2164
-62
-1012
-672
-503
-590
-505
-474
-471
-303
-211
-259
-158
49
133
193
333
368
219
86
63
13
-121
-210
-210
-203
-207
-191
-180
-193
-211
-223
-231
-246
-265
-254
-215
-217
-248
-238
-217
-245
-295
-326
-302
-257
-331
-469
-399
172
1533
3062
2929
860
-787
-774
-425
-506
-488
-337
-321
-323
-275
-218
-106
24
152
322
432
390
314
274
204
139
123
52
-86
-158
-152
-164
-179
-156
-146
-183
-212
-215
-234
-265
-256
-221
-206
-203
-207
-236
-266
-290
-311
-276
-250
-357
-456
-222
719
2332
3243
2045
-78
-900
-580
-451
-527
-433
-369
-373
-297
-211
-153
-55
67
178
276
330
316
260
201
147
90
31
-20
-61
-99
-125
-133
-135
-144
-151
-163
-192
-219
-223
-224
-236
-233
-201
-178
-199
-236
-243
-250
-274
-248
-223
-328
-440
-249
555
1952
2804
1817
-88
-873
-555
-392
-468
-388
-316
-318
-250
-166
-114
-22
108
233
333
381
368
318
248
172
109
58
9
-38
-80
-105
-106
-107
-130
-155
-175
-209
-239
-239
-238
-252
-246
-217
-218
-268
-300
-288
-303
-323
-286
-325
-481
-474
41
1325
2837
2855
914
-798
-853
-452
-507
-529
-397
-379
-351
-248
-183
-109
22
151
261
350
382
349
279
212
175
149
101
40
-5
-26
-40
-66
-100
-128
-157
-201
-239
-251
-258
-280
-303
-312
-296
-277
-302
-327
-304
-311
-339
-291
-301
-439
-410
68
1208
2681
2895
1068
-791
-945
-458
-451
-483
-340
-319
-315
-207
-123
-47
93
250
389
484
498
455
389
300
219
166
100
25
-12
-28
-53
-74
-88
-111
-132
-161
-220
-268
-272
-277
-310
-328
-301
-283
-322
-350
-326
-334
-350
-288
-312
-467
-413
151
1379
2786
2754
809
-875
-875
-442
-494
-506
-370
-364
-341
-229
-161
-89
43
179
296
380
386
323
235
147
78
34
-1
-37
-70
-91
-94
-90
-100
-118
-136
-167
-202
-222
-238
-261
-274
-269
-253
-257
-295
-310
-296
-321
-322
-263
-336
-507
-399
293
1716
3117
2750
608
-881
-741
-419
-533
-510
-383
-387
-345
-237
-169
-81
55
187
305
382
377
317
245
178
120
68
15
-40
-90
-121
-131
-139
-161
-188
-209
-237
-272
-287
-283
-288
-298
-283
-247
-231
-261
-299
-292
-289
-313
-278
-260
-406
-508
-186
862
2461
3173
1772
-302
-915
-517
-439
-526
-414
-357
-360
-272
-187
-122
-1
134
250
353
406
381
311
235
171
121
71
16
-30
-59
-72
-84
-104
-128
-150
-170
-194
-226
-251
-253
-252
-256
-240
-205
-187
-212
-255
-258
-251
-276
-254
-210
-319
-472
-320
479
2045
3272
2432
200
-923
-615
-393
-507
-439
-343
-345
-280
-192
-128
-15
113
212
318
398
392
323
252
207
187
177
152
108
75
68
63
36
-6
-38
-48
-59
-90
