# session 16
-66
-49
-63
-59
7
66
31
-49
-94
-125
-178
-229
-263
-288
-306
-312
-324
-352
-379
-391
-404
-424
-446
-470
-488
-491
-494
-500
-485
-459
-457
-468
-451
-408
-375
-364
-359
-354
-368
-368
-312
-289
-346
-320
30
1090
2714
3230
1491
-623
-1014
-510
-438
-487
-338
-275
-260
-166
-97
-42
84
246
398
533
616
608
538
468
397
304
224
164
97
50
46
30
-12
-39
-57
-86
-115
-143
-176
-208
-236
-260
-275
-279
-265
-248
-260
-279
-265
-236
-242
-265
-251
-232
-264
-264
-217
-254
-291
-40
749
2090
2985
2025
-61
-1022
-636
-348
-413
-339
-252
-262
-200
-106
-44
60
202
347
499
602
604
544
454
339
230
154
99
38
-27
-68
-77
-81
-101
-117
-120
-132
-162
-199
-233
-262
-279
-297
-327
-344
-328
-318
-336
-336
-300
-271
-285
-319
-315
-295
-316
-309
-257
-320
-429
-252
491
1949
3267
2676
411
-987
-744
-414
-524
-482
-362
-375
-331
-227
-168
-77
67
213
361
480
512
469
387
289
193
112
41
-27
-89
-141
-170
-176
-173
-175
-184
-196
-215
-238
-261
-279
-295
-307
-321
-343
-358
-352
-343
-337
-311
-270
-250
-269
-301
-296
-272
-288
-283
-237
-298
-421
-290
430
1919
3296
2777
553
-890
-715
-393
-489
-455
-335
-338
-295
-199
-141
-53
82
217
357
479
532
513
448
361
272
187
106
35
-24
-80
-121
-135
-137
-149
-166
-175
-183
-202
-225
-241
-249
-259
-272
-282
-292
-308
-318
-308
-296
-287
-256
-207
-186
-215
-252
-240
-216
-243
-251
-197
-231
-357
-297
311
1722
3181
2890
762
-827
-759
-379
-443
-452
-341
-335
-305
-201
-124
-40
89
226
354
463
526
531
488
417
349
286
213
135
68
2
-66
-108
-117
-127
-163
-201
-210
-209
-234
-271
-289
-303
-328
-338
-322
-303
-309
-345
-367
-345
-309
-292
-281
-270
-261
-244
-233
-231
-234
-262
-274
-212
-188
-272
-277
45
1040
2625
3234
1594
-583
-1062
-514
-385
-441
-305
-265
-285
-186
-90
-34
73
217
374
540
656
681
630
531
413
298
194
115
54
-14
-74
-94
-97
-118
-143
-155
-169
-195
-222
-244
-270
-300
-322
-333
-341
-347
-355
-368
-371
-358
-349
-346
-322
-282
-261
-278
-301
-287
-273
-295
-276
-239
-315
-389
-173
659
2246
3406
2400
64
-1010
-625
-388
-496
-410
-319
-339
-275
-180
-124
-28
103
235
384
509
549
513
437
342
243
151
71
4
-56
-105
-137
-148
-146
-146
-156
-167
-177
-196
-220
-240
-258
-273
-280
-284
-294
-312
-327
-322
-308
-297
-272
-228
-198
-202
-227
-241
-225
-222
-235
-202
-190
-295
-358
-49
993
2595
3254
1793
-276
-873
-471
-373
-447
-340
-283
-290
-213
-125
-57
49
178
313
451
553
584
548
467
372
279
189
103
30
-33
-91
-130
-141
-142
-159
-182
-195
-205
-223
-240
-252
-262
-270
-278
-294
-309
-316
-320
-322
-325
-330
-330
-319
-292
-241
-190
-181
-214
-257
-264
-236
-240
-254
-212
-219
-339
-339
136
1400
2944
3010
1047
-749
-834
-396
-439
-467
-316
-295
-295
-203
-134
-76
40
190
339
468
561
602
564
469
391
336
259
173
102
31
-34
-62
-67
-96
-145
-175
-181
-192
-216
-244
-271
-291
-304
-314
-315
-311
-322
-340
-339
-332
-333
-323
-312
-306
-275
-227
-213
-248
-277
-248
-224
-267
-253
-170
-237
-359
-174
547
1944
3194
2514
184
-1148
-760
-351
-452
-400
-269
-281
-229
-128
-94
-20
141
319
492
638
713
709
643
538
421
301
192
106
32
-36
-77
-96
-115
-132
-150
-168
-185
-213
-247
-263
-273
-302
-329
-337
-340
-345
-350
-357
-354
-337
-323
-316
-303
-283
-262
-259
-281
-284
-259
-267
-267
-217
-251
-346
-220
413
1788
3200
2821
584
-977
-787
-383
-474
-448
-312
-319
-288
-189
-132
-50
85
224
381
535
621
621
552
439
319
210
114
38
-21
-80
-130
-152
-156
-152
-146
-145
-154
-168
-185
-209
-236
-259
-277
-290
-300
-311
-316
-320
-332
-338
-327
-315
-305
-273
-232
-216
-225
-246
-256
-235
-233
-256
-223
-210
-332
-390
-31
1093
2793
3471
1881
-321
-918
-486
-408
-492
-374
-320
-325
-242
-163
-103
5
133
272
429
554
605
585
511
413
314
215
121
40
-31
-96
-150
-184
-193
-189
-194
-205
-213
-221
-239
-258
-271
-286
-301
-308
-308
-312
-313
-312
-315
-316
-315
-326
-336
-323
-300
-266
-215
-179
-180
-195
-212
-215
-201
-210
-217
-174
-196
-324
-300
231
1507
2924
2851
954
-683
-751
-359
-376
-387
-268
-253
-237
-146
-79
-8
110
237
369
511
617
654
623
545
447
349
255
170
99
37
-23
-77
-109
-116
-111
-113
-128
-144
-159
-173
-187
-203
-220
-226
-228
-237
-248
-250
-251
-251
-249
-244
-237
-235
-246
-256
-247
-226
-193
-148
-122
-127
-147
-171
-169
-149
-167
-177
-141
-191
-307
-206
429
1803
3136
2703
568
-881
-709
-333
-406
-396
-288
-284
-242
-157
-115
-43
72
186
335
498
588
589
549
486
395
296
210
136
76
16
-65
-138
-166
-179
-200
-209
-219
-257
-296
-318
-337
-364
-390
-397
-388
-388
-408
-428
-430
-428
-427
-412
-397
-404
-411
-397
-385
-369
-327
-289
-284
-303
-323
-307
-278
-291
-275
-221
-295
-410
-266
342
1710
3270
3038
716
-1035
-891
-421
-466
-418
-276
-311
-304
-185
-97
-22
93
240
406
570
706
767
714
607
512
417
319
239
159
77
19
-16
-33
-23
-21
-56
-86
-89
-109
-146
-167
-177
-200
-230
-248
-248
-242
-252
-280
-290
-262
-234
-244
-251
-216
-186
-192
-201
-206
-216
-223
-232
-211
-154
-189
-291
-159
543
1895
3004
2333
215
-1034
-733
-336
-393
-365
-262
-275
-245
-151
-87
-3
120
265
448
623
722
744
699
588
446
312
189
82
-3
-74
-143
-192
-209
-216
-223
-222
-224
-241
-260
-277
-307
-342
-359
-362
-368
-383
-398
-403
-396
-384
-375
-370
-357
-334
-321
-318
-315
-322
-313
-294
-319
-316
-255
-319
-452
-272
505
1980
3331
2800
511
-987
-768
-391
-496
-477
-353
-362
-328
-228
-169
-87
48
197
367
532
628
641
590
496
382
270
172
90
20
-45
-107
-157
-185
-189
-181
-180
-187
-198
-214
-235
-253
-266
-280
-292
-299
-304
-305
-304
-306
-300
-282
-279
-287
-273
-252
-246
-221
-172
-151
-163
-181
-198
-190
-180
-207
-189
-146
-247
-355
-93
820
2359
3388
2376
142
-898
-546
-315
-423
-352
-264
-282
-225
-138
-91
-9
113
246
402
552
640
656
611
522
416
314
220
134
55
-16
-80
-132
-161
-161
-155
-157
-161
-167
-182
-201
-218
-234
-249
-261
-270
-275
-277
-280
-285
-285
-277
-269
-269
-269
-265
-257
-252
-255
-268
-269
-256
-244
-223
-177
-140
-137
-155
-175
-171
-152
-166
-163
-124
-187
-296
-132
573
1888
3025
2486
487
-784
-600
-287
-364
-338
-239
-253
-222
-129
-73
-4
105
225
372
532
634
653
621
556
463
363
273
196
138
85
13
-66
-109
-117
-121
-131
-147
-165
-172
-176
-198
-226
-230
-230
-251
-272
-274
-274
-281
-290
-293
-285
-277
-277
-270
-250
-242
-242
-229
-226
-250
-258
-224
-196
-199
-206
-200
-194
-202
-212
-198
-164
-148
-170
-205
-213
-187
-156
-142
-122
-83
-63
-91
-125
-101
-71
-102
-101
-61
-137
-201
76
935
2403
3411
2374
75
-978
-557
-268
-358
-276
-189
-220
-167
-79
-38
42
157
273
426
594
699
725
686
596
483
370
264
183
131
84
24
-35
-68
-73
-79
-98
-109
-114
-134
-164
-187
-211
-237
-261
-287
-312
-323
-327
-335
-339
-340
-346
-350
-339
-327
-324
-321
-313
-305
-299
-292
-289
-297
-310
-309
-291
-263
-228
-192
-168
-163
-183
-212
-202
-184
-212
-199
-154
-245
-343
-101
746
2262
3420
2549
256
-942
-626
-354
-456
-388
-289
-312
-267
-181
-139
-64
54
179
332
500
626
681
660
576
464
351
243
148
75
19
-38
-103
-155
-174
-164
-149
-140
-140
-150
-165
-182
-199
-214
-229
-245
-258
-265
-270
-275
-278
-278
-277
-272
-266
-261
-254
-246
-241
-235
-233
-245
-257
-244
-217
-181
-139
-112
-113
-130
-154
-162
-145
-155
-164
-118
-145
-275
-222
302
1476
2854
2926
1140
-578
-738
-338
-346
-378
-261
-244
-239
-159
-103
-46
58
171
301
463
607
691
707
660
566
455
342
237
147
71
2
-67
-130
-167
-174
-170
-174
-184
-192
-200
-207
-218
-233
-248
-263
-277
-287
-295
-305
-309
-302
-292
-293
-298
-293
-285
-284
-283
-270
-256
-252
-255
-263
-270
-263
-247
-222
-180
-143
-134
-139
-162
-194
-185
-169
-192
-170
-139
-240
-303
-7
870
2313
3207
2106
-53
-944
-539
-326
-425
-341
-258
-274
-215
-135
-93
-13
98
219
385
564
688
741
726
654
557
453
349
257
183
112
37
-35
-89
-119
-136
-143
-142
-152
-184
-212
-217
-226
-262
-294
-293
-286
-303
-325
-329
-325
-326
-322
-316
-312
-307
-300
-293
-284
-278
-278
-276
-279
-284
-273
-251
-217
-168
-143
-157
-170
-182
-198
-192
-198
-203
-153
-179
-304
-238
274
1483
3080
3312
1308
-733
-918
-411
-416
-451
-302
-292
-298
-201
-145
-102
8
132
264
431
592
693
712
656
553
435
316
203
113
51
-2
-62
-112
-135
-139
-141
-145
-148
-153
-163
-178
-194
-209
-226
-242
-255
-265
-275
-283
-284
-286
-288
-284
-277
-273
-266
-254
-245
-238
-230
-230
-243
-249
-235
-211
-176
-129
-99
-102
-119
-143
-155
-137
-138
-160
-124
-120
-243
-254
164
1228
2729
3275
1768
-281
-832
-415
-329
-406
-299
-253
-265
-194
-130
-86
6
116
235
395
562
680
729
704
621
511
393
273
168
89
22
-52
-126
-183
-213
-217
-212
-211
-212
-218
-227
-237
-250
-266
-283
-299
-313
-322
-327
-332
-335
-337
-335
-332
-326
-320
-314
-309
-303
-294
-289
-284
-283
-293
-304
-295
-265
-221
-172
-144
-152
-173
-192
-199
-186
-189
-205
-169
-160
-270
-285
112
1126
2488
2920
1511
-343
-837
-447
-342
-400
-301
-249
-253
-187
-116
-62
27
133
251
406
572
701
757
728
653
564
456
340
245
171
97
27
-37
-96
-134
-142
-133
-124
-121
-135
-154
-156
-160
-184
-206
-211
-218
-232
-241
-241
-238
-238
-243
-243
-238
-237
-234
-222
-219
-225
-222
-215
-212
-204
-192
-202
-225
-226
-207
-190
-160
-114
-93
-113
-146
-159
-139
-134
-180
-173
-114
-198
-311
-123
538
1880
3298
2953
696
-926
-774
-364
-433
-403
-284
-316
-305
-214
-153
-74
42
155
289
457
619
731
761
726
652
527
379
273
199
117
50
-2
-78
-152
-173
-166
-175
-188
-189
-193
-219
-257
-280
-288
-307
-333
-344
-346
-347
-346
-355
-369
-360
-344
-347
-351
-337
-318
-310
-307
-301
-303
-313
-301
-269
-249
-220
-176
-158
-169
-186
-207
-202
-186
-221
-223
-149
-194
-322
-164
540
1924
3321
2968
710
-957
-813
-351
-404
-392
-266
-277
-256
-164
-115
-49
57
160
305
505
683
796
831
780
669
535
391
255
157
90
24
-53
-127
-172
-180
-173
-173
-176
-178
-186
-198
-215
-238
-257
-268
-284
-302
-306
-307
-323
-337
-337
-328
-317
-310
-306
-301
-292
-288
-285
-276
-266
-260
-266
-277
-268
-234
-195
-160
-135
-136
-149
-161
-176
-167
-155
-184
-170
-126
-228
-328
-40
847
2328
3456
2635
366
-889
-610
-324
-428
-376
-274
-292
-252
-169
-123
-46
66
179
328
511
676
780
799
741
640
517
386
265
166
81
3
-71
-141
-196
-224
-225
-214
-205
-204
-207
-210
-216
-228
-245
-260
-272
-278
-283
-289
-295
-298
-298
-296
-290
-282
-274
-273
-270
-261
-250
-241
-236
-232
-228
-222
-218
-223
-236
-245
-231
-191
-144
-109
-102
-115
-129
-147
-160
-150
-149
-169
-137
-121
-231
-257
130
1109
2497
3117
1856
-129
-825
-454
-304
-380
-291
-225
-235
-178
-110
-63
21
125
236
385
555
696
777
786
733
641
525
403
292
197
114
39
-30
-94
-146
-179
-186
-178
-173
-178
-183
-187
-198
-213
-225
-235
-248
-260
-269
-276
-279
-280
-283
-282
-276
-273
-272
-265
-256
-251
-245
-237
-234
-233
-229
-223
-219
-211
-202
-195
-195
-201
-208
-214
-212
-187
-137
-88
-69
-77
-90
-109
-133
-132
-121
-140
-138
-105
-164
-249
-62
626
1833
2807
2246
405
-759
-606
-309
-357
-329
-236
-239
-212
-139
-93
-30
66
165
287
448
602
709
750
719
633
529
424
314
213
136
74
8
-67
-132
-170
-182
-191
-197
-186
-173
-182
-206
-229
-250
-263
-261
-268
-288
-294
-281
-273
-278
-283
-291
-298
-295
-286
-281
-269
-251
-242
-247
-252
-246
-233
-224
-226
-233
-234
-225
-215
-206
-173
-114
-88
-108
-134
-157
-172
-157
-161
-175
-130
-137
-254
-218
254
1415
2989
3353
1514
-583
-927
-428
-392
-453
-306
-267
-282
-200
-141
-113
-25
99
234
401
580
729
816
825
769
675
555
423
310
219
130
46
-20
-76
-121
-147
-165
-180
-174
-161
-181
-228
-270
-279
-266
-272
-308
-336
-344
-345
-333
-327
-342
-344
-324
-317
-320
-317
-313
-316
-331
-336
-305
-265
-250
-230
-191
-181
-205
-226
-225
-203
-198
-227
-211
-181
-266
-311
36
1016
2447
3082
1730
-395
-1097
-587
-336
-404
-323
-245
-233
-165
-113
-85
0
115
243
424
632
804
912
936
863
732
591
440
288
175
96
9
-79
-140
-175
-191
-192
-187
-176
-170
-186
-209
-221
-236
-255
-268
-278
-289
-298
-316
-334
-329
-322
-335
-343
-332
-325
-326
-322
-317
-322
-327
-314
-291
-266
-234
-213
-221
-240
-263
-276
-257
-261
-302
-272
-251
-390
-438
-11
1089
2680
3411
1953
-339
-1113
-672
-529
-635
-536
-477
-506
-451
-393
-368
-300
-203
-89
75
261
417
510
518
447
327
181
