# session 32
-29
-42
-27
44
72
4
-37
-20
-53
-117
-123
-103
-104
-107
-130
-166
-123
-72
-174
-262
48
1032
2528
3323
2202
223
-545
-215
-104
-252
-217
-171
-210
-187
-144
-138
-125
-102
-74
-36
-4
23
62
108
157
216
275
324
366
400
420
428
413
379
333
253
132
22
-62
-146
-227
-287
-326
-338
-334
-341
-340
-316
-303
-314
-311
-288
-279
-286
-287
-280
-277
-280
-285
-285
-280
-287
-304
-308
-294
-278
-250
-202
-164
-169
-206
-231
-227
-224
-230
-222
-227
-245
-204
-166
-246
-292
16
970
2410
3053
1816
-35
-588
-212
-141
-267
-210
-194
-249
-200
-139
-143
-128
-82
-51
-29
2
38
77
122
176
235
285
320
343
372
419
454
439
392
343
274
176
75
-21
-116
-184
-221
-254
-275
-280
-291
-289
-252
-229
-240
-239
-224
-225
-225
-218
-224
-229
-229
-233
-232
-230
-235
-231
-212
-209
-217
-212
-201
-200
-207
-222
-231
-217
-186
-155
-120
-87
-100
-144
-145
-114
-119
-136
-128
-135
-136
-107
-152
-252
-148
449
1678
2860
2552
775
-473
-345
-44
-155
-185
-108
-139
-141
-92
-94
-83
-38
-23
-11
25
45
72
145
206
225
264
332
374
388
405
416
410
397
372
318
253
189
92
-30
-103
-124
-164
-217
-233
-233
-244
-246
-235
-231
-225
-222
-236
-238
-213
-201
-214
-220
-221
-233
-239
-235
-237
-233
-223
-232
-246
-229
-202
-194
-194
-198
-210
-213
-198
-184
-184
-185
-177
-172
-176
-178
-180
-199
-213
-179
-106
-51
-37
-50
-84
-116
-116
-110
-125
-125
-114
-140
-140
-90
-125
-190
25
803
2093
2913
2041
212
-579
-226
-45
-197
-176
-113
-148
-124
-73
-82
-73
-27
-10
-8
29
78
100
128
183
225
253
309
359
374
390
412
410
394
376
333
265
194
117
18
-76
-126
-164
-226
-265
-255
-246
-251
-242
-233
-238
-237
-237
-243
-237
-226
-236
-249
-245
-251
-275
-274
-242
-221
-222
-230
-237
-234
-227
-239
-253
-241
-218
-209
-206
-206
-217
-221
-196
-148
-109
-94
-102
-129
-158
-168
-169
-166
-160
-169
-162
-120
-148
-233
-151
385
1635
3003
2792
782
-719
-531
-76
-179
-221
-118
-170
-191
-105
-81
-75
-28
-15
-10
39
78
90
123
172
219
288
356
380
386
418
448
443
423
398
348
268
178
83
-14
-95
-158
-217
-262
-285
-299
-297
-270
-256
-267
-265
-253
-264
-271
-249
-233
-240
-245
-244
-252
-260
-257
-259
-266
-256
-239
-239
-251
-256
-259
-256
-238
-223
-233
-251
-246
-223
-196
-159
-115
-96
-130
-185
-186
-161
-184
-193
-148
-145
-162
-148
-205
-253
19
933
2488
3440
2269
55
-746
-250
-84
-255
-184
-138
-220
-177
-103
-124
-120
-60
-23
-1
33
61
95
151
211
270
342
413
457
480
493
501
506
493
441
349
238
126
18
-81
-157
-212
-255
-285
-311
-338
-337
-310
-301
-303
-283
-267
-269
-261
-250
-253
-250
-239
-239
-247
-263
-279
-268
-254
-265
-267
-246
-238
-248
-251
-249
-245
-238
-246
-265
-252
-213
-180
-145
-109
-116
-162
-179
-164
-171
-183
-165
-178
-201
-140
-126
-256
-240
229
1345
2864
3310
1676
-277
-597
-122
-136
-273
-186
-170
-196
-142
-123
-133
-104
-68
-35
6
24
39
95
172
224
265
329
407
455
464
477
496
487
453
406
323
209
102
0
-110
-196
-236
-261
-300
-335
-336
-324
-323
-313
-284
-264
-258
-255
-251
-242
-240
-250
-243
-228
-247
-267
-244
-230
-256
-266
-237
-225
-246
-255
-234
-219
-222
-222
-218
-218
-218
-225
-233
-205
-152
-117
-102
-94
-113
-146
-160
-160
-152
-121
-125
-178
-155
-100
-189
-254
76
1008
2431
3253
2207
239
-535
-182
-74
-236
-180
-124
-175
-148
-103
-116
-104
-63
-33
-6
20
47
96
154
205
266
330
378
427
480
507
513
514
495
439
349
239
127
16
-82
-151
-205
-260
-294
-307
-323
-328
-310
-297
-296
-284
-264
-258
-257
-243
-234
-241
-246
-242
-239
-236
-235
-241
-253
-262
-256
-235
-224
-227
-224
-219
-226
-225
-212
-210
-209
-190
-175
-181
-186
-175
-169
-192
-222
-207
-156
-118
-87
-56
-59
-96
-116
-110
-119
-138
-117
-99
-138
-130
-67
-140
-234
37
831
2055
2972
2360
561
-464
-234
-10
-155
-165
-97
-138
-138
-88
-76
-61
-30
-13
14
51
75
100
152
215
264
309
371
438
482
494
497
506
495
452
389
300
188
92
13
-77
-163
-213
-239
-262
-276
-271
-267
-280
-276
-246
-228
-232
-231
-225
-222
-218
-222
-228
-219
-219
-236
-236
-215
-211
-215
-207
-203
-206
-203
-195
-190
-193
-198
-194
-191
-194
-174
-149
-165
-192
-171
-139
-142
-151
-144
-140
-140
-136
-133
-134
-126
-116
-124
-137
-128
-122
-141
-150
-119
-71
-32
-10
-12
-36
-68
-85
-91
-102
-97
-83
-101
-98
-53
-98
-196
-50
576
1765
2919
2669
944
-342
-281
-8
-131
-181
-109
-133
-142
-90
-69
-60
-38
-25
-1
38
66
92
127
158
205
284
348
373
408
454
471
465
457
440
396
315
217
140
67
-38
-133
-177
-205
-246
-273
-275
-275
-280
-277
-267
-265
-263
-241
-220
-225
-239
-237
-230
-232
-237
-235
-231
-236
-245
-234
-220
-238
-256
-230
-197
-205
-223
-216
-205
-206
-200
-187
-180
-186
-194
-187
-170
-168
-167
-153
-156
-171
-163
-147
-147
-155
-163
-166
-138
-91
-60
-49
-52
-68
-86
-95
-108
-121
-102
-85
-107
-102
-74
-146
-209
48
845
2123
2952
2120
307
-508
-182
-17
-173
-146
-84
-132
-116
-54
-50
-50
-23
8
41
65
74
104
168
227
265
313
365
397
431
477
493
474
457
434
382
303
202
93
-2
-78
-153
-222
-261
-267
-265
-273
-277
-268
-265
-267
-255
-247
-254
-248
-230
-236
-251
-243
-237
-243
-232
-223
-238
-245
-230
-228
-240
-236
-228
-228
-223
-219
-222
-211
-188
-185
-196
-193
-183
-182
-181
-177
-180
-189
-199
-195
-155
-97
-72
-76
-73
-80
-109
-123
-122
-125
-117
-118
-148
-136
-102
-158
-198
60
899
2264
3015
1938
57
-599
-188
-51
-198
-154
-100
-132
-98
-63
-81
-69
-29
5
38
59
73
118
179
220
263
320
371
419
462
474
471
473
455
408
350
272
170
70
-24
-109
-166
-212
-263
-291
-276
-258
-269
-282
-265
-242
-236
-240
-237
-229
-227
-238
-244
-231
-224
-235
-241
-236
-236
-240
-237
-232
-230
-229
-234
-235
-223
-216
-218
-212
-207
-211
-205
-189
-185
-192
-203
-205
-170
-115
-81
-68
-71
-107
-144
-137
-134
-160
-152
-122
-131
-126
-111
-180
-215
96
1018
2350
2892
1683
-62
-547
-149
-67
-189
-129
-103
-153
-125
-85
-83
-60
-29
-14
7
47
89
120
158
216
273
313
362
423
463
472
472
471
450
402
333
241
132
37
-40
-126
-202
-230
-242
-270
-286
-281
-282
-282
-265
-253
-254
-246
-235
-240
-247
-235
-219
-221
-228
-228
-230
-233
-231
-226
-226
-237
-244
-227
-207
-212
-217
-202
-191
-194
-190
-188
-197
-208
-220
-212
-156
-86
-62
-77
-100
-121
-129
-134
-147
-139
-124
-145
-142
-92
-133
-230
-105
507
1720
2841
2444
642
-537
-353
-51
-155
-177
-118
-154
-145
-85
-73
-70
-51
-32
-1
36
69
107
146
182
222
269
329
399
449
466
467
461
446
417
368
287
177
66
-24
-96
-152
-194
-235
-270
-281
-278
-281
-284
-279
-276
-268
-249
-237
-239
-243
-241
-237
-235
-238
-244
-248
-252
-255
-255
-251
-242
-233
-230
-231
-231
-225
-216
-211
-217
-224
-216
-214
-233
-231
-177
-112
-83
-83
-97
-118
-133
-139
-149
-142
-120
-132
-145
-110
-128
-223
-162
365
1544
2776
2605
868
-483
-406
-42
-121
-181
-110
-127
-137
-90
-75
-66
-36
-16
9
46
75
104
138
178
232
290
330
367
417
460
478
471
452
427
381
297
195
103
11
-87
-161
-204
-239
-264
-270
-277
-286
-277
-257
-251
-259
-260
-237
-217
-234
-256
-242
-219
-218
-231
-237
-233
-231
-241
-245
-233
-228
-233
-229
-221
-222
-216
-198
-193
-209
-228
-237
-229
-189
-128
-84
-88
-125
-153
-146
-136
-158
-173
-148
-141
-160
-138
-139
-220
-199
212
1268
2600
2778
1204
-373
-499
-93
-129
-218
-134
-133
-159
-120
-106
-99
-62
-42
-20
21
39
54
109
173
213
254
316
378
410
426
452
464
441
413
385
315
210
118
37
-58
-151
-212
-244
-260
-268
-281
-292
-278
-248
-239
-247
-247
-240
-235
-231
-228
-228
-235
-239
-230
-222
-233
-238
-219
-206
-218
-226
-216
-215
-220
-206
-188
-193
-207
-213
-218
-208
-160
-98
-78
-92
-105
-126
-151
-152
-148
-147
-145
-158
-149
-114
-168
-259
-109
571
1874
2945
2321
391
-663
-336
-45
-189
-193
-110
-156
-165
-105
-81
-69
-46
-28
2
37
62
99
152
194
232
291
350
380
401
437
467
462
431
389
339
267
168
67
-14
-100
-186
-227
-235
-256
-279
-277
-271
-271
-272
-274
-265
-241
-224
-228
-232
-228
-226
-227
-228
-232
-237
-240
-242
-233
-224
-230
-234
-216
-201
-204
-210
-209
-204
-199
-199
-214
-232
-226
-191
-146
-108
-87
-94
-128
-157
-152
-140
-152
-155
-141
-152
-153
-137
-184
-209
88
1027
2411
2948
1655
-136
-581
-145
-73
-212
-157
-131
-172
-129
-89
-94
-73
-45
-24
10
35
54
104
162
199
245
307
357
395
433
450
444
445
454
422
334
240
163
76
-30
-126
-187
-224
-265
-293
-291
-291
-304
-289
-258
-254
-259
-250
-251
-256
-240
-229
-247
-257
-239
-222
-221
-230
-241
-239
-221
-215
-224
-226
-221
-221
-220
-210
-208
-224
-230
-203
-164
-133
-100
-83
-108
-145
-154
-161
-181
-165
-131
-148
-167
-154
-182
-206
-18
705
2103
3135
2262
186
-763
-347
-77
-215
-203
-137
-158
-127
-99
-114
-77
-22
-16
-1
42
72
100
148
202
254
308
359
396
423
457
487
480
444
405
347
254
151
49
-48
-124
-185
-248
-286
-286
-282
-286
-281
-274
-276
-270
-260
-255
-247
-239
-238
-231
-221
-222
-228
-228
-227
-232
-241
-245
-236
-237
-254
-250
-221
-206
-212
-212
-208
-204
-199
-202
-209
-209
-217
-229
-190
-106
-58
-76
-113
-136
-139
-135
-142
-142
-129
-145
-148
-106
-139
-234
-118
487
1730
2978
2729
893
-457
-350
-31
-154
-204
-126
-147
-149
-109
-113
-104
-64
-43
-13
36
66
86
128
181
234
291
344
393
445
485
497
495
496
479
414
314
215
112
-2
-98
-164
-222
-267
-283
-293
-313
-315
-290
-273
-274
-274
-266
-254
-245
-245
-247
-241
-236
-235
-236
-238
-240
-235
-230
-232
-235
-234
-234
-231
-227
-220
-206
-198
-203
-200
-187
-180
-184
-186
-177
-167
-172
-186
-199
-204
-177
-115
-67
-54
-55
-74
-106
-113
-106
-126
-130
-94
-105
-137
-93
-96
-202
-125
423
1555
2794
2791
1153
-321
-378
-29
-119
-198
-107
-119
-148
-97
-77
-81
-52
-25
-10
14
54
107
152
180
217
280
348
401
439
473
506
514
488
461
438
373
264
150
48
-41
-117
-187
-241
-263
-276
-297
-303
-285
-268
-270
-275
-259
-234
-225
-230
-233
-226
-221
-224
-231
-232
-236
-244
-235
-219
-217
-219
-212
-209
-211
-209
-208
-206
-200
-193
-192
-196
-199
-191
-171
-157
-157
-158
-156
-154
-152
-146
-140
-136
-133
-134
-140
-159
-177
-155
-93
-46
-31
-22
-28
-62
-89
-91
-94
-98
-82
-76
-105
-98
-70
-132
-180
78
885
2178
2983
2119
327
-465
-161
-10
-158
-141
-91
-137
-124
-74
-75
-74
-35
3
26
49
84
123
162
206
253
299
354
405
431
450
484
505
498
474
423
336
238
141
39
-54
-129
-188
-226
-255
-289
-302
-273
-241
-243
-255
-249
-237
-233
-228
-220
-228
-244
-232
-211
-218
-231
-224
-225
-235
-228
-221
-228
-224
-207
-206
-209
-204
-202
-200
-189
-187
-200
-196
-177
-174
-176
-164
-155
-153
-145
-145
-157
-151
-132
-131
-136
-129
-132
-143
-137
-135
-154
-150
-96
-38
-16
-20
-39
-70
-95
-95
-93
-102
-102
-107
-118
-84
-62
-144
-171
165
1101
2419
2919
1685
-27
-475
-90
-41
-176
-119
-95
-146
-119
-76
-66
-36
-12
-7
24
64
84
115
169
205
236
300
370
406
429
465
491
491
477
448
396
316
218
121
24
-76
-148
-187
-233
-282
-281
-247
-244
-265
-267
-249
-237
-240
-239
-226
-221
-228
-223
-215
-234
-251
-231
-208
-215
-224
-219
-213
-211
-212
-213
-209
-208
-210
-199
-192
-212
-223
-185
-143
-144
-160
-160
-155
-150
-142
-140
-143
-142
-139
-141
-142
-140
-149
-157
-135
-92
-52
-22
-15
-41
-73
-88
-102
-117
-105
-77
-85
-107
-75
-55
-142
-180
124
1012
2323
2906
1756
13
-507
-109
-15
-160
-122
-86
-128
-104
-69
-74
-52
-11
11
29
57
91
134
177
214
255
305
356
408
448
470
482
491
484
453
401
328
225
107
9
-73
-160
-229
-254
-266
-286
-297
-299
-296
-280
-264
-268
-270
-259
-257
-265
-262
-247
-243
-253
-258
-253
-259
-272
-263
-248
-258
-268
-251
-236
-238
-234
-229
-232
-229
-220
-218
-218
-216
-217
-212
-196
-192
-210
-222
-205
-165
-125
-95
-85
-109
-149
-163
-149
-151
-167
-161
-157
-165
-139
-130
-204
-210
143
1138
2514
2895
1426
-332
-625
-151
-109
-229
-147
-128
-179
-139
-90
-81
-59
-29
-2
32
59
81
120
166
206
260
320
357
394
460
512
518
509
491
445
376
292
190
88
1
-75
-153
-222
-244
-223
-213
-233
-239
-222
-215
-211
-194
-180
-177
-171
-160
-155
-161
-158
-142
-134
-136
-136
-136
-136
-128
-124
-127
-121
-109
-102
-102
-100
-91
-74
-62
-64
-69
-67
-60
-62
-72
-59
-10
