# session 18
-46
-54
-44
26
51
-50
-141
-145
-153
-184
-188
-192
-216
-235
-239
-240
-244
-250
-251
-249
-245
-237
-231
-233
-235
-227
-216
-212
-211
-204
-195
-191
-189
-185
-184
-185
-184
-179
-176
-171
-162
-156
-154
-155
-164
-174
-163
-131
-97
-64
-37
-40
-66
-84
-100
-112
-96
-102
-133
-94
-83
-217
-216
248
1328
2870
3569
2133
-98
-849
-444
-328
-433
-337
-281
-309
-258
-201
-175
-122
-62
-6
84
203
337
496
667
807
884
894
848
757
633
496
368
252
146
52
-33
-115
-187
-239
-269
-279
-274
-264
-259
-260
-258
-252
-252
-258
-265
-271
-278
-279
-278
-287
-298
-294
-286
-288
-287
-277
-274
-275
-266
-252
-245
-243
-238
-229
-220
-219
-216
-205
-198
-196
-190
-185
-185
-182
-175
-173
-173
-168
-165
-166
-171
-182
-186
-165
-124
-83
-55
-52
-75
-91
-96
-113
-116
-97
-115
-126
-80
-132
-247
-68
621
1835
3039
2851
998
-573
-647
-300
-347
-375
-273
-269
-267
-206
-174
-142
-78
-18
51
150
266
396
547
699
814
865
852
793
700
581
451
333
235
147
52
-45
-127
-188
-234
-261
-264
-258
-261
-262
-250
-246
-259
-265
-256
-256
-271
-282
-285
-285
-283
-283
-288
-286
-284
-291
-297
-288
-272
-264
-267
-266
-254
-241
-233
-233
-236
-231
-210
-196
-201
-210
-210
-203
-187
-172
-172
-185
-199
-205
-187
-146
-107
-79
-63
-81
-107
-112
-128
-143
-130
-139
-133
-89
-156
-257
-52
668
2025
3370
2997
794
-816
-710
-322
-397
-390
-284
-308
-294
-225
-207
-166
-85
-27
40
142
263
407
568
718
837
902
898
840
743
615
486
378
283
186
78
-35
-120
-175
-226
-269
-270
-248
-245
-257
-260
-264
-273
-278
-281
-292
-297
-299
-315
-328
-325
-329
-342
-338
-328
-335
-340
-328
-322
-321
-304
-288
-294
-297
-278
-263
-264
-260
-247
-240
-239
-239
-243
-238
-215
-182
-145
-107
-99
-131
-156
-155
-161
-160
-144
-165
-168
-125
-194
-298
-85
645
1996
3348
3011
820
-821
-731
-334
-412
-404
-275
-287
-281
-213
-186
-151
-89
-39
33
143
263
406
579
736
847
903
894
819
710
587
455
329
228
136
39
-53
-129
-185
-221
-235
-237
-234
-226
-215
-210
-212
-214
-218
-223
-227
-233
-243
-250
-255
-261
-263
-258
-256
-262
-262
-255
-249
-247
-241
-231
-221
-213
-205
-201
-199
-192
-181
-173
-174
-178
-175
-168
-163
-160
-156
-153
-148
-142
-139
-135
-128
-130
-143
-154
-157
-146
-114
-71
-38
-29
-41
-62
-79
-94
-96
-81
-95
-113
-68
-83
-212
-160
353
1428
2795
3191
1703
-215
-731
-367
-301
-377
-291
-260
-273
-214
-174
-163
-108
-39
17
92
193
313
458
613
743
821
842
810
734
634
519
395
284
193
99
4
-78
-151
-219
-264
-278
-273
-270
-271
-264
-255
-264
-285
-294
-292
-291
-294
-302
-311
-314
-310
-311
-318
-323
-325
-323
-315
-314
-316
-304
-283
-272
-270
-270
-270
-258
-245
-245
-242
-229
-226
-228
-217
-210
-213
-205
-189
-187
-195
-198
-199
-199
-191
-175
-153
-106
-49
-40
-86
-118
-116
-124
-129
-119
-139
-132
-70
-121
-242
-93
550
1857
3330
3252
1153
-673
-735
-312
-377
-409
-267
-258
-276
-216
-177
-140
-76
-22
41
141
255
388
559
725
839
915
956
930
835
717
598
473
360
267
171
64
-37
-129
-194
-214
-219
-241
-252
-233
-221
-232
-243
-247
-257
-265
-270
-289
-312
-313
-308
-326
-337
-326
-332
-355
-355
-337
-329
-330
-331
-328
-320
-314
-309
-294
-283
-292
-305
-302
-293
-261
-192
-150
-185
-225
-208
-198
-239
-247
-216
-227
-223
-185
-254
-307
13
863
2159
3039
2136
-32
-1164
-779
-385
-435
-374
-251
-259
-251
-201
-178
-141
-62
30
112
198
329
510
707
884
1002
1038
1000
912
786
636
480
326
193
82
-24
-123
-206
-274
-312
-302
-292
-314
-323
-293
-269
-266
-264
-262
-268
-281
-294
-298
-302
-313
-317
-309
-305
-308
-319
-333
-333
-319
-309
-296
-275
-264
-267
-271
-268
-262
-261
-259
-230
-184
-161
-151
-138
-143
-156
-160
-180
-189
-163
-166
-169
-130
-202
-308
-62
731
2073
3294
2835
653
-901
-749
-332
-407
-402
-274
-282
-275
-212
-191
-149
-64
-3
53
150
288
460
644
805
927
997
996
925
804
663
521
386
259
143
36
-60
-144
-214
-264
-290
-290
-279
-280
-281
-262
-247
-256
-267
-268
-274
-286
-296
-306
-316
-320
-323
-326
-329
-333
-333
-326
-317
-316
-313
-301
-293
-292
-284
-270
-266
-264
-254
-245
-242
-243
-249
-254
-250
-238
-211
-170
-131
-111
-119
-143
-155
-161
-173
-161
-158
-186
-151
-124
-259
-295
143
1142
2594
3485
2399
165
-858
-519
-317
-441
-379
-299
-324
-284
-222
-203
-153
-83
-26
51
159
284
438
615
772
870
906
889
825
725
604
477
358
249
140
32
-62
-139
-204
-251
-273
-282
-282
-273
-265
-264
-263
-263
-265
-263
-262
-267
-276
-284
-287
-286
-287
-293
-299
-296
-288
-284
-283
-279
-269
-261
-255
-246
-232
-228
-230
-225
-214
-211
-211
-214
-228
-240
-229
-189
-137
-101
-90
-97
-113
-127
-144
-162
-149
-131
-157
-145
-97
-187
-274
23
839
2117
3143
2536
519
-755
-584
-295
-393
-372
-275
-301
-290
-220
-190
-154
-90
-34
35
131
242
375
528
673
786
848
847
796
712
599
471
349
242
139
32
-64
-141
-205
-256
-283
-291
-292
-289
-284
-283
-286
-286
-284
-286
-293
-301
-304
-300
-301
-313
-318
-301
-292
-306
-315
-305
-301
-303
-291
-276
-271
-264
-253
-242
-230
-224
-233
-240
-228
-212
-216
-235
-244
-218
-170
-136
-115
-97
-110
-138
-137
-133
-146
-145
-161
-180
-130
-137
-266
-206
331
1484
2951
3271
1529
-487
-860
-406
-365
-425
-302
-281
-296
-215
-177
-181
-122
-38
26
100
204
332
482
636
775
872
907
891
846
762
633
500
403
313
197
80
-11
-88
-155
-193
-210
-219
-216
-210
-215
-223
-221
-227
-247
-262
-261
-263
-277
-290
-296
-304
-312
-315
-317
-321
-321
-316
-314
-313
-309
-300
-290
-287
-282
-263
-244
-249
-271
-283
-276
-252
-226
-202
-173
-141
-139
-168
-184
-187
-201
-193
-177
-204
-197
-154
-236
-321
-65
753
2206
3384
2622
348
-939
-657
-366
-486
-440
-332
-354
-325
-261
-247
-205
-136
-89
-20
85
201
331
482
634
757
822
819
767
681
565
436
323
227
130
33
-53
-128
-191
-233
-247
-245
-240
-233
-222
-218
-226
-230
-226
-229
-236
-240
-249
-260
-265
-268
-268
-264
-263
-264
-256
-245
-246
-248
-237
-226
-220
-213
-202
-194
-189
-180
-171
-167
-164
-156
-149
-151
-163
-177
-183
-166
-125
-78
-45
-33
-49
-80
-95
-98
-99
-84
-88
-122
-98
-75
-184
-218
158
1096
2473
3227
2111
61
-796
-461
-290
-396
-334
-265
-284
-245
-193
-175
-130
-71
-21
49
145
257
392
543
682
781
829
827
778
687
571
452
347
252
154
51
-47
-130
-195
-238
-264
-275
-270
-262
-266
-273
-274
-272
-271
-277
-289
-299
-301
-306
-319
-327
-323
-318
-321
-326
-328
-325
-313
-302
-298
-294
-288
-286
-280
-270
-268
-262
-245
-237
-241
-239
-228
-222
-225
-238
-253
-242
-192
-134
-94
-83
-107
-144
-154
-150
-151
-138
-137
-152
-115
-115
-237
-232
190
1183
2606
3236
1887
-176
-844
-436
-305
-390
-292
-239
-261
-208
-165
-152
-93
-27
22
96
187
285
418
576
716
815
868
870
827
750
647
536
433
342
247
146
46
-47
-124
-166
-178
-181
-185
-192
-198
-204
-214
-226
-235
-245
-262
-273
-275
-281
-298
-309
-305
-305
-318
-325
-319
-319
-325
-323
-316
-309
-300
-290
-285
-278
-267
-262
-253
-241
-241
-255
-265
-270
-266
-237
-191
-157
-136
-129
-154
-183
-189
-192
-187
-175
-195
-191
-144
-200
-295
-118
558
1883
3201
2841
720
-814
-693
-317
-405
-399
-274
-290
-292
-223
-191
-160
-95
-39
22
109
208
321
458
603
729
807
822
786
717
620
504
387
284
192
103
16
-68
-142
-186
-196
-198
-214
-227
-222
-215
-219
-225
-226
-236
-254
-262
-259
-262
-274
-282
-284
-286
-288
-285
-283
-286
-283
-273
-268
-266
-257
-244
-237
-229
-219
-213
-210
-203
-199
-206
-219
-223
-209
-176
-131
-90
-72
-80
-101
-112
-122
-141
-135
-121
-146
-143
-100
-172
-273
-62
663
1944
3080
2601
605
-743
-605
-292
-381
-369
-265
-277
-260
-198
-185
-158
-90
-34
25
108
208
328
470
614
736
811
828
790
711
610
498
385
279
182
89
-1
-88
-161
-211
-237
-248
-249
-247
-251
-258
-264
-267
-268
-273
-279
-283
-288
-298
-307
-311
-309
-307
-310
-317
-320
-313
-305
-299
-292
-287
-282
-269
-258
-259
-253
-234
-223
-235
-252
-264
-263
-235
-181
-133
-108
-99
-117
-152
-165
-157
-153
-144
-156
-179
-146
-136
-243
-243
160
1150
2559
3153
1804
-205
-837
-437
-323
-416
-319
-265
-288
-234
-182
-173
-128
-67
-16
61
161
263
383
523
653
759
824
829
783
710
618
511
408
311
213
115
24
-59
-122
-159
-186
-211
-222
-215
-210
-215
-220
-223
-237
-256
-262
-263
-273
-284
-289
-290
-289
-295
-308
-309
-298
-295
-297
-291
-288
-291
-284
-262
-250
-260
-276
-277
-265
-241
-207
-173
-146
-133
-150
-177
-186
-197
-209
-192
-189
-202
-163
-170
-289
-266
184
1281
2779
3186
1511
-510
-913
-446
-385
-452
-332
-298
-320
-261
-219
-200
-143
-86
-37
40
135
240
369
514
642
731
772
761
704
615
506
390
280
181
92
6
-77
-150
-198
-219
-228
-235
-239
-235
-232
-238
-251
-256
-255
-259
-266
-270
-276
-286
-291
-290
-293
-299
-300
-295
-288
-282
-278
-269
-256
-250
-248
-241
-230
-226
-233
-243
-240
-211
-165
-124
-99
-95
-115
-137
-142
-150
-152
-128
-132
-156
-120
-124
-241
-208
286
1386
2736
2989
1405
-392
-735
-343
-306
-368
-268
-243
-254
-191
-149
-138
-90
-27
33
106
193
302
434
574
702
792
827
815
764
677
566
452
346
243
140
45
-42
-123
-185
-218
-229
-235
-241
-242
-241
-242
-246
-249
-253
-264
-276
-283
-284
-287
-298
-308
-308
-307
-312
-312
-306
-303
-304
-301
-297
-293
-285
-278
-278
-282
-292
-304
-295
-250
-194
-164
-156
-162
-185
-204
-207
-214
-212
-196
-212
-220
-189
-248
-346
-177
502
1797
3017
2617
602
-828
-719
-372
-441
-429
-318
-335
-333
-264
-226
-189
-129
-80
-24
61
165
282
410
550
680
760
782
766
719
642
540
431
339
259
158
42
-52
-118
-171
-205
-220
-225
-214
-202
-210
-224
-225
-223
-232
-244
-250
-252
-259
-269
-271
-267
-271
-280
-282
-283
-284
-273
-258
-253
-250
-239
-233
-235
-236
-237
-229
-195
-153
-122
-97
-96
-128
-149
-146
-153
-155
-140
-158
-155
-111
-173
-275
-109
550
1875
3211
2835
664
-882
-720
-313
-398
-396
-273
-285
-281
-216
-189
-157
-101
-59
0
91
187
294
427
568
685
756
776
748
682
589
480
367
261
164
71
-19
-101
-161
-198
-216
-225
-233
-233
-225
-227
-241
-247
-249
-264
-282
-287
-289
-299
-310
-315
-318
-319
-321
-322
-320
-317
-316
-309
-297
-292
-290
-282
-271
-262
-256
-263
-282
-283
-247
-198
-160
-135
-129
-152
-174
-176
-184
-184
-162
-175
-199
-158
-173
-294
-229
314
1457
2794
2935
1249
-510
-765
-361
-341
-396
-298
-276
-282
-223
-183
-155
-105
-58
0
81
169
277
411
547
673
771
811
798
755
674
558
441
340
243
146
51
-40
-119
-174
-209
-230
-232
-225
-228
-236
-237
-232
-229
-232
-238
-246
-255
-262
-265
-265
-269
-271
-270
-272
-275
-267
-254
-254
-259
-249
-234
-230
-232
-227
-219
-216
-216
-225
-240
-238
-199
-138
-92
-80
-91
-113
-135
-151
-164
-159
-138
-149
-165
-122
-139
-264
-215
291
1376
2683
2897
1324
-426
-747
-359
-326
-394
-302
-272
-283
-235
-195
-166
-118
-78
-28
54
146
248
371
499
616
707
752
748
704
633
544
442
339
245
156
70
-16
-111
-190
-223
-231
-244
-250
-242
-232
-235
-252
-265
-264
-265
-272
-275
-280
-288
-286
-284
-298
-309
-301
-293
-293
-286
-281
-287
-289
-279
-265
-250
-241
-244
-242
-231
-229
-242
-250
-229
-183
-138
-111
-103
-111
-136
-160
-179
-182
-156
-148
-168
-139
-130
-225
-209
193
1201
2686
3299
1813
-330
-940
-466
-329
-412
-303
-247
-277
-235
-187
-163
-110
-58
-8
72
160
249
369
511
639
737
795
802
762
689
599
500
392
286
195
109
13
-79
-145
-188
-210
-211
-208
-219
-236
-242
-243
-248
-254
-261
-274
-287
-292
-299
-311
-317
-319
-323
-326
-325
-326
-324
-314
-308
-312
-307
-291
-281
-282
-275
-261
-254
-256
-263
-272
-270
-243
-203
-167
-136
-122
-139
-167
-176
-181
-192
-181
-176
-199
-169
-137
-241
-295
45
981
2425
3260
2147
25
-869
-507
-318
-427
-354
-279
-307
-261
-198
-190
-153
-87
-37
21
109
210
326
463
601
711
780
802
773
705
618
514
397
285
192
106
17
-70
-142
-191
-215
-223
-227
-223
-214
-210
-215
-219
-218
-217
-221
-231
-238
-239
-242
-250
-253
-254
-259
-259
-251
-249
-251
-242
-231
-230
-226
-212
-197
-193
-192
-181
-167
-165
-164
-156
-151
-152
-158
-172
-182
-167
-131
-92
-56
-31
-36
-71
-99
-99
-103
-110
-100
-109
-116
-81
-120
-232
-116
469
1617
2881
2873
1124
-523
-670
-296
-330
-384
-278
-264
-277
-226
-198
-178
-130
-84
-31
41
121
215
335
466
585
673
719
721
678
604
513
407
292
189
97
6
-87
-172
-239
-285
-313
-324
-320
-317
-319
-319
-316
-312
-308
-309
-309
-310
-313
-308
-303
-309
-313
-298
-278
-270
-263
-247
