# session 19
151
155
140
88
145
661
1857
2984
2560
662
-681
-607
-293
-363
-372
-275
-281
-279
-223
-194
-170
-125
-81
-26
49
129
227
350
481
607
707
753
741
693
618
521
414
306
193
85
-11
-102
-188
-251
-291
-319
-337
-339
-329
-320
-321
-322
-317
-318
-326
-327
-325
-329
-335
-334
-334
-341
-346
-345
-339
-329
-326
-330
-329
-314
-301
-300
-295
-279
-265
-265
-266
-256
-246
-253
-262
-253
-241
-232
-201
-153
-127
-123
-125
-141
-160
-167
-176
-174
-154
-173
-184
-134
-166
-268
-131
506
1795
3148
2918
850
-783
-728
-318
-395
-404
-263
-274
-291
-220
-197
-193
-120
-32
11
47
132
258
392
529
662
768
829
845
831
788
694
571
472
388
269
139
44
-40
-131
-195
-218
-222
-220
-221
-237
-244
-234
-232
-241
-241
-245
-261
-273
-279
-289
-295
-290
-289
-289
-292
-302
-311
-304
-297
-297
-292
-279
-268
-271
-283
-282
-263
-247
-237
-217
-184
-144
-114
-135
-184
-196
-187
-202
-193
-169
-194
-189
-149
-237
-311
-24
820
2256
3355
2496
203
-1010
-654
-332
-432
-371
-272
-313
-283
-205
-185
-157
-108
-65
6
96
174
268
402
555
687
770
798
791
746
659
545
430
323
226
132
37
-58
-139
-197
-229
-243
-244
-238
-232
-232
-232
-233
-234
-234
-235
-243
-249
-247
-247
-260
-274
-278
-275
-274
-282
-287
-281
-275
-271
-260
-247
-248
-253
-248
-236
-227
-219
-210
-204
-203
-199
-188
-187
-205
-224
-222
-198
-158
-112
-75
-65
-85
-111
-115
-119
-141
-134
-114
-139
-128
-87
-186
-277
33
907
2258
3243
2482
413
-760
-527
-266
-372
-338
-254
-287
-262
-188
-170
-150
-98
-49
4
75
166
279
404
535
666
769
822
826
787
710
611
502
393
290
187
79
-23
-106
-171
-225
-263
-279
-276
-272
-273
-268
-255
-252
-258
-258
-253
-254
-262
-273
-279
-279
-278
-285
-292
-291
-287
-288
-287
-277
-269
-271
-270
-251
-235
-238
-242
-234
-223
-217
-213
-208
-202
-198
-203
-217
-231
-230
-200
-149
-107
-86
-81
-103
-137
-145
-143
-156
-150
-142
-164
-146
-122
-223
-253
129
1045
2318
2981
1938
42
-764
-458
-290
-382
-325
-266
-288
-248
-196
-185
-145
-88
-46
8
87
174
277
401
529
641
730
786
791
752
681
587
488
389
288
186
85
-11
-86
-144
-199
-238
-245
-242
-245
-238
-225
-226
-232
-227
-222
-231
-245
-241
-229
-237
-261
-266
-251
-246
-257
-262
-252
-238
-238
-252
-255
-235
-217
-220
-220
-204
-199
-204
-189
-178
-190
-190
-175
-181
-202
-202
-180
-147
-107
-77
-70
-85
-109
-126
-137
-146
-136
-131
-152
-129
-101
-200
-253
47
889
2336
3412
2493
202
-962
-611
-318
-424
-374
-280
-302
-279
-226
-207
-167
-113
-72
-16
61
147
256
392
527
646
759
842
851
807
751
662
527
395
297
213
112
-9
-120
-194
-241
-270
-278
-276
-275
-272
-277
-285
-280
-275
-281
-286
-294
-314
-328
-328
-326
-332
-346
-355
-350
-348
-356
-357
-350
-348
-344
-328
-318
-323
-321
-312
-313
-307
-278
-244
-217
-187
-168
-185
-218
-227
-222
-221
-213
-222
-235
-189
-182
-305
-271
238
1319
2715
3155
1582
-526
-1048
-504
-346
-433
-329
-283
-315
-252
-191
-179
-134
-75
-35
20
113
230
358
498
653
792
878
914
907
853
750
611
470
357
251
129
12
-80
-160
-217
-242
-260
-280
-285
-272
-249
-229
-229
-236
-232
-227
-230
-232
-236
-252
-263
-260
-254
-254
-263
-276
-277
-257
-248
-259
-256
-231
-220
-230
-228
-212
-205
-201
-197
-208
-211
-178
-137
-116
-100
-87
-102
-125
-129
-139
-149
-131
-136
-157
-108
-118
-267
-213
341
1473
2961
3465
1855
-308
-870
-411
-331
-433
-334
-299
-325
-267
-225
-214
-169
-123
-81
-12
67
155
276
424
578
714
807
846
834
779
689
573
441
315
203
89
-31
-134
-216
-284
-336
-359
-356
-353
-354
-347
-336
-331
-334
-335
-332
-331
-335
-340
-343
-348
-357
-362
-359
-360
-365
-363
-349
-338
-333
-328
-318
-306
-294
-283
-274
-266
-260
-263
-272
-278
-262
-220
-169
-133
-118
-123
-146
-162
-162
-167
-166
-145
-156
-165
-112
-152
-289
-152
491
1656
2969
3073
1322
-470
-696
-289
-307
-374
-271
-259
-267
-201
-173
-159
-101
-49
-8
58
140
233
350
490
634
758
840
874
860
802
711
594
469
354
246
131
17
-79
-156
-219
-265
-287
-288
-287
-287
-281
-274
-272
-266
-255
-255
-265
-268
-266
-267
-269
-270
-273
-276
-273
-274
-278
-274
-260
-251
-252
-249
-238
-226
-217
-207
-200
-198
-196
-193
-188
-186
-189
-200
-212
-207
-165
-108
-77
-73
-80
-101
-121
-123
-127
-130
-112
-126
-152
-106
-118
-247
-162
408
1505
2780
2978
1394
-371
-687
-302
-293
-373
-275
-244
-261
-214
-179
-163
-117
-69
-24
37
112
202
314
437
563
679
763
802
796
746
665
570
466
356
248
137
21
-79
-155
-216
-258
-278
-291
-301
-297
-285
-279
-283
-289
-287
-284
-292
-302
-299
-295
-300
-307
-310
-307
-303
-304
-305
-295
-288
-297
-303
-288
-272
-261
-251
-251
-259
-253
-238
-232
-224
-211
-214
-220
-216
-225
-241
-220
-170
-132
-106
-85
-94
-130
-147
-153
-170
-159
-139
-155
-136
-108
-211
-266
57
909
2287
3273
2376
210
-874
-539
-288
-405
-350
-264
-294
-258
-191
-173
-136
-92
-67
-7
82
164
254
368
498
635
744
798
818
823
788
695
581
481
391
289
174
60
-38
-115
-175
-215
-234
-234
-230
-233
-235
-229
-226
-238
-248
-248
-256
-269
-273
-279
-290
-292
-294
-304
-306
-302
-306
-306
-297
-291
-291
-288
-281
-277
-275
-270
-256
-248
-255
-262
-258
-241
-208
-165
-131
-111
-118
-152
-171
-170
-176
-172
-160
-181
-170
-130
-214
-303
-73
680
2055
3271
2677
482
-879
-633
-290
-401
-385
-281
-300
-277
-210
-196
-172
-116
-69
-19
47
124
218
328
456
592
704
769
792
776
720
627
512
394
289
195
99
-3
-100
-173
-219
-244
-254
-252
-253
-255
-251
-249
-252
-255
-254
-256
-263
-273
-282
-285
-287
-293
-301
-301
-292
-286
-285
-287
-285
-277
-269
-262
-252
-242
-236
-229
-221
-217
-218
-218
-223
-235
-236
-207
-157
-111
-85
-85
-110
-132
-133
-140
-153
-138
-136
-159
-126
-120
-242
-239
204
1205
2558
3113
1810
-139
-764
-382
-276
-379
-294
-242
-274
-231
-178
-170
-136
-77
-29
24
93
175
274
395
530
654
747
800
810
775
702
606
499
387
280
184
84
-22
-115
-181
-230
-261
-269
-265
-265
-271
-273
-265
-254
-253
-262
-270
-274
-279
-281
-284
-292
-297
-297
-297
-301
-302
-299
-295
-289
-278
-267
-264
-266
-264
-255
-246
-239
-234
-226
-210
-205
-224
-246
-242
-213
-175
-139
-107
-89
-103
-132
-143
-148
-159
-146
-141
-168
-147
-122
-222
-254
110
1049
2435
3164
2009
-16
-802
-433
-268
-369
-305
-259
-291
-242
-189
-184
-143
-82
-46
2
84
172
255
353
484
623
722
771
786
771
719
634
532
436
348
253
142
28
-74
-148
-194
-224
-244
-249
-242
-238
-238
-240
-244
-247
-245
-248
-259
-262
-262
-271
-279
-278
-281
-290
-291
-291
-292
-281
-273
-280
-283
-268
-256
-252
-245
-235
-231
-228
-220
-218
-230
-238
-220
-185
-149
-118
-98
-110
-141
-154
-155
-168
-165
-154
-173
-158
-122
-198
-265
-27
725
2082
3194
2476
317
-895
-591
-280
-392
-351
-245
-274
-255
-194
-184
-155
-97
-61
-13
59
128
208
317
442
564
665
729
750
734
684
606
505
396
296
203
109
14
-79
-154
-201
-222
-229
-233
-242
-248
-246
-246
-251
-252
-254
-260
-267
-270
-275
-285
-294
-296
-295
-298
-304
-304
-299
-296
-292
-287
-285
-279
-261
-243
-242
-245
-235
-222
-219
-215
-204
-208
-229
-237
-210
-166
-128
-98
-75
-82
-117
-132
-129
-139
-134
-119
-145
-141
-93
-165
-267
-48
693
1976
3090
2589
606
-708
-555
-238
-327
-322
-229
-245
-230
-167
-152
-132
-79
-34
16
85
159
243
349
470
596
707
780
806
791
745
672
572
459
352
254
154
55
-39
-124
-190
-230
-246
-247
-246
-249
-250
-249
-251
-253
-251
-250
-258
-270
-280
-282
-282
-284
-292
-299
-298
-300
-306
-306
-294
-286
-284
-279
-267
-260
-259
-254
-246
-243
-246
-254
-267
-268
-236
-185
-143
-118
-109
-133
-172
-186
-183
-186
-175
-172
-193
-174
-169
-275
-287
108
1075
2428
3024
1782
-149
-801
-423
-303
-412
-338
-279
-299
-254
-207
-196
-152
-94
-53
3
74
145
237
355
480
599
699
756
765
737
680
595
493
386
285
187
86
-13
-100
-168
-216
-244
-251
-249
-252
-254
-247
-240
-245
-245
-238
-241
-251
-253
-251
-258
-272
-279
-276
-271
-269
-271
-278
-280
-263
-241
-239
-250
-248
-232
-220
-222
-229
-227
-225
-234
-231
-195
-148
-115
-94
-91
-120
-147
-152
-159
-163
-149
-151
-150
-115
-161
-268
-159
404
1592
2945
2921
1055
-627
-709
-301
-339
-381
-270
-266
-279
-219
-183
-164
-122
-80
-31
32
97
172
269
389
524
638
709
751
767
745
681
583
478
390
307
199
83
-17
-105
-178
-219
-236
-243
-245
-250
-259
-264
-261
-260
-261
-265
-274
-285
-290
-289
-290
-300
-310
-314
-315
-319
-314
-308
-314
-315
-301
-296
-308
-315
-309
-305
-297
-268
-222
-181
-157
-153
-170
-191
-200
-210
-210
-186
-190
-211
-171
-171
-283
-260
191
1297
2798
3194
1507
-500
-870
-389
-340
-418
-297
-265
-293
-236
-194
-181
-135
-89
-49
11
81
157
256
379
510
628
714
759
760
722
659
571
459
345
240
133
31
-51
-124
-191
-234
-254
-258
-252
-247
-248
-245
-240
-243
-247
-248
-251
-255
-262
-271
-273
-274
-282
-293
-295
-291
-283
-278
-282
-284
-273
-263
-263
-262
-255
-256
-267
-267
-238
-193
-156
-130
-115
-127
-162
-178
-172
-179
-176
-161
-174
-163
-128
-210
-309
-80
690
1998
3068
2484
494
-758
-573
-273
-370
-359
-259
-274
-264
-206
-185
-159
-112
-73
-22
49
125
212
317
440
569
682
759
792
779
729
653
554
438
327
228
123
14
-78
-149
-211
-258
-273
-272
-271
-268
-261
-255
-255
-258
-260
-262
-270
-276
-274
-274
-281
-285
-285
-286
-284
-283
-284
-279
-271
-272
-274
-263
-251
-244
-235
-231
-240
-249
-255
-251
-213
-154
-118
-107
-100
-120
-156
-163
-158
-165
-151
-146
-177
-157
-135
-248
-289
95
1060
2418
3061
1880
-67
-784
-423
-281
-390
-325
-263
-282
-240
-193
-187
-148
-84
-41
-3
52
127
226
347
477
592
677
736
765
748
689
613
526
429
322
208
99
6
-78
-154
-204
-230
-253
-266
-257
-247
-252
-254
-244
-244
-258
-260
-253
-260
-276
-277
-272
-271
-274
-282
-293
-290
-273
-266
-273
-279
-274
-260
-248
-249
-251
-238
-225
-223
-225
-228
-241
-249
-225
-174
-128
-104
-98
-114
-145
-160
-162
-174
-163
-140
-162
-164
-117
-173
-264
-72
631
1969
3215
2717
560
-862
-650
-280
-377
-356
-239
-267
-262
-194
-179
-159
-109
-72
-21
48
109
191
303
414
529
650
733
765
770
745
679
592
497
385
274
179
80
-24
-110
-178
-226
-243
-247
-260
-267
-255
-246
-250
-257
-260
-264
-268
-273
-281
-290
-294
-299
-306
-310
-310
-311
-309
-305
-301
-292
-284
-285
-286
-274
-261
-253
-248
-241
-235
-230
-228
-235
-243
-233
-194
-146
-111
-91
-86
-109
-137
-140
-141
-152
-143
-138
-159
-130
-106
-205
-242
91
1000
2441
3304
2206
77
-818
-446
-251
-366
-307
-242
-274
-234
-175
-166
-137
-88
-50
5
77
147
228
336
465
591
688
754
788
779
728
649
554
450
343
236
135
40
-55
-142
-204
-234
-248
-259
-266
-261
-251
-244
-241
-244
-251
-251
-246
-246
-253
-264
-271
-267
-261
-268
-279
-283
-279
-274
-270
-270
-265
-256
-251
-244
-236
-235
-233
-221
-212
-210
-206
-198
-191
-189
-188
-179
-168
-170
-182
-187
-189
-185
-157
-108
-67
-48
-49
-72
-101
-108
-110
-123
-112
-103
-131
-118
-93
-190
-245
89
989
2335
3142
2180
208
-713
-430
-244
-351
-309
-244
-268
-235
-186
-179
-150
-100
-61
-12
48
114
201
309
425
540
649
733
769
754
712
654
568
464
362
266
167
66
-27
-105
-171
-227
-262
-271
-269
-268
-265
-262
-261
-256
-252
-260
-267
-260
-258
-270
-279
-280
-282
-279
-273
-274
-279
-278
-270
-264
-257
-250
-246
-244
-240
-231
-220
-208
-194
-189
-193
-193
-179
-166
-166
-169
-169
-169
-175
-181
-167
-125
-78
-55
-49
-51
-71
-97
-108
-112
-104
-83
-103
-134
-92
-90
-205
-174
300
1374
2765
3125
1574
-313
-723
-317
-281
-362
-251
-222
-260
-214
-172
-163
-121
-71
-32
20
85
158
245
340
443
555
661
746
793
787
737
667
581
475
363
263
172
72
-36
-130
-196
-239
-263
-270
-269
-272
-279
-285
-286
-284
-286
-288
-287
-291
-304
-320
-324
-315
-317
-335
-347
-342
-336
-334
-331
-324
-317
-316
-323
-320
-301
-289
-293
-293
-281
-269
-264
-266
-268
-260
-233
-196
-167
-149
-133
-141
-179
-202
-197
-192
-183
-185
-207
-178
-149
-243
-276
57
955
2391
3257
2117
-79
-972
-541
-314
-422
-343
-267
-302
-263
-202
-185
-145
-98
-68
-16
52
118
204
313
429
554
674
761
794
778
736
677
589
474
361
264
173
79
-10
-92
-155
-190
-200
-200
-200
-199
-190
-175
-168
-168
-167
-166
-165
-168
-174
-174
-172
-178
-181
-174
-170
-171
-166
-156
-152
-147
-137
-131
-130
-124
-113
-99
-81
-70
-71
-68
-54
-47
-54
-59
-65
-68
-40
16
60
80
86
72
44
31
34
38
42
45
46
56
57
24
