# session 28
14
-5
28
85
30
-108
-137
-83
-82
-84
-45
-25
-13
24
55
89
144
198
247
304
356
395
421
432
440
441
407
345
285
223
141
49
-37
-106
-158
-202
-237
-242
-228
-233
-247
-235
-215
-214
-213
-206
-203
-195
-189
-201
-214
-215
-211
-204
-209
-229
-225
-199
-200
-228
-239
-223
-210
-214
-205
-154
-98
-93
-128
-161
-162
-137
-129
-148
-156
-148
-124
-107
-181
-267
-78
634
1921
3007
2480
585
-582
-375
-103
-225
-219
-135
-178
-176
-122
-124
-113
-64
-55
-52
1
58
78
100
159
232
293
340
375
399
417
418
395
370
346
291
205
117
38
-42
-118
-175
-216
-247
-262
-256
-248
-251
-249
-237
-234
-236
-224
-205
-198
-205
-219
-228
-226
-218
-216
-230
-241
-228
-215
-219
-214
-201
-217
-233
-209
-188
-208
-215
-180
-161
-176
-175
-157
-169
-205
-212
-177
-148
-142
-111
-54
-51
-108
-120
-83
-91
-122
-103
-89
-110
-100
-109
-187
-131
306
1267
2466
2729
1360
-233
-512
-123
-109
-206
-123
-117
-167
-119
-83
-104
-83
-34
-12
8
45
81
118
163
202
241
298
347
368
389
414
413
391
366
330
279
217
135
43
-31
-87
-136
-170
-203
-235
-235
-215
-217
-227
-218
-212
-216
-212
-203
-200
-200
-213
-238
-235
-199
-191
-226
-250
-235
-205
-193
-207
-224
-223
-219
-217
-203
-194
-199
-187
-163
-164
-171
-166
-178
-200
-203
-199
-192
-173
-141
-90
-42
-50
-107
-129
-108
-111
-130
-122
-116
-110
-89
-140
-209
-26
624
1796
2832
2389
591
-571
-378
-87
-201
-208
-128
-165
-160
-101
-97
-89
-54
-38
-18
13
33
66
124
168
199
260
335
377
388
400
414
409
386
359
314
241
171
111
36
-45
-106
-163
-214
-237
-243
-251
-257
-261
-254
-227
-209
-224
-236
-223
-220
-237
-241
-238
-248
-245
-228
-239
-256
-238
-226
-245
-246
-226
-230
-233
-206
-189
-199
-211
-218
-220
-209
-206
-202
-159
-97
-82
-116
-141
-130
-134
-161
-142
-112
-142
-144
-103
-159
-209
57
913
2305
3082
1936
-92
-804
-323
-109
-224
-180
-143
-181
-147
-118
-120
-70
-22
-20
-1
44
77
106
147
194
246
291
333
388
435
445
432
414
384
340
276
197
125
54
-39
-127
-172
-199
-239
-277
-290
-271
-245
-240
-255
-258
-242
-226
-224
-241
-255
-245
-230
-237
-248
-245
-246
-249
-242
-248
-270
-262
-230
-229
-249
-247
-232
-231
-223
-173
-122
-120
-145
-154
-156
-176
-186
-157
-148
-191
-170
-99
-170
-277
-72
674
2005
3073
2385
360
-727
-390
-99
-237
-230
-159
-206
-196
-143
-142
-119
-67
-49
-38
0
36
62
104
160
215
282
361
410
427
439
440
419
393
353
276
191
119
36
-65
-149
-199
-232
-255
-265
-272
-280
-274
-261
-265
-264
-236
-216
-227
-233
-220
-219
-235
-239
-237
-247
-249
-232
-228
-242
-249
-248
-258
-266
-251
-224
-197
-161
-126
-126
-157
-179
-180
-180
-184
-176
-171
-172
-147
-146
-234
-258
56
965
2338
2989
1822
-25
-633
-249
-134
-266
-223
-178
-211
-181
-135
-122
-102
-83
-66
-27
13
35
64
118
178
235
301
366
402
415
429
442
429
388
327
260
195
117
11
-87
-138
-176
-225
-250
-245
-244
-255
-267
-266
-244
-221
-217
-219
-215
-211
-207
-203
-211
-233
-242
-231
-233
-245
-229
-203
-204
-217
-220
-223
-228
-228
-230
-240
-230
-174
-108
-88
-112
-143
-159
-163
-176
-174
-140
-139
-158
-123
-136
-240
-167
350
1417
2599
2618
1048
-421
-512
-135
-165
-237
-156
-153
-180
-148
-125
-107
-67
-45
-42
-21
15
48
96
156
203
244
297
349
388
410
409
399
394
365
298
232
170
84
-2
-59
-119
-187
-219
-224
-242
-254
-239
-228
-236
-236
-219
-210
-213
-205
-192
-209
-239
-233
-211
-227
-251
-233
-207
-213
-228
-229
-228
-226
-220
-225
-241
-248
-233
-202
-156
-118
-113
-131
-147
-154
-152
-153
-156
-152
-161
-168
-147
-167
-223
-107
483
1700
2824
2440
643
-577
-431
-111
-198
-227
-155
-175
-177
-138
-127
-103
-68
-62
-47
-8
25
53
98
151
193
233
283
324
361
407
433
413
379
347
302
235
153
62
-18
-88
-163
-218
-225
-226
-252
-269
-260
-260
-261
-236
-221
-237
-244
-244
-260
-253
-220
-217
-240
-249
-244
-235
-228
-243
-262
-253
-243
-249
-241
-225
-222
-196
-139
-107
-135
-186
-199
-177
-164
-166
-177
-195
-166
-138
-215
-243
68
942
2310
3048
1876
-154
-849
-350
-145
-283
-232
-167
-196
-165
-126
-116
-81
-61
-61
-24
27
56
90
140
190
239
296
360
417
440
434
433
437
415
353
273
205
135
30
-80
-140
-166
-205
-254
-277
-266
-251
-255
-255
-237
-226
-235
-240
-229
-225
-238
-248
-245
-247
-249
-234
-228
-248
-263
-268
-275
-262
-233
-225
-216
-167
-129
-161
-209
-213
-207
-210
-199
-207
-222
-175
-160
-258
-240
175
1205
2644
3082
1498
-445
-772
-255
-223
-329
-202
-178
-232
-178
-145
-162
-134
-92
-68
-42
-13
24
73
123
183
249
305
359
406
421
420
416
392
355
309
234
139
57
-19
-110
-190
-231
-251
-277
-304
-296
-259
-239
-246
-245
-231
-230
-235
-224
-215
-231
-245
-231
-217
-223
-234
-235
-232
-241
-262
-269
-255
-245
-234
-191
-139
-129
-158
-187
-192
-187
-194
-187
-171
-193
-194
-142
-195
-302
-119
619
1958
3111
2587
602
-635
-416
-121
-251
-266
-193
-222
-206
-169
-184
-155
-103
-102
-84
-21
23
53
106
158
205
272
344
391
412
424
434
436
415
365
298
215
114
9
-78
-138
-188
-242
-283
-292
-284
-281
-285
-286
-269
-248
-242
-242
-233
-221
-216
-224
-241
-246
-227
-216
-236
-252
-239
-222
-222
-223
-230
-246
-241
-224
-227
-225
-184
-129
-97
-100
-133
-158
-152
-161
-182
-151
-116
-141
-128
-103
-205
-246
132
1107
2441
2988
1768
-30
-559
-181
-128
-263
-177
-143
-212
-168
-93
-99
-101
-70
-49
-24
11
47
96
143
172
225
317
392
414
418
434
457
448
391
337
304
234
118
19
-44
-101
-165
-216
-241
-247
-244
-233
-222
-226
-232
-223
-215
-214
-199
-185
-204
-225
-219
-205
-204
-209
-215
-220
-219
-213
-208
-210
-207
-199
-205
-219
-204
-172
-170
-195
-200
-175
-160
-169
-169
-152
-149
-161
-162
-146
-130
-134
-160
-179
-172
-145
-103
-70
-56
-39
-38
-77
-101
-90
-96
-105
-88
-102
-112
-68
-107
-197
-31
589
1717
2841
2630
911
-420
-364
-56
-165
-209
-118
-130
-140
-100
-103
-98
-53
-31
-27
1
45
84
111
147
211
272
303
343
403
430
419
420
430
413
370
310
236
161
82
-6
-81
-129
-177
-227
-242
-229
-231
-239
-227
-227
-252
-251
-215
-202
-220
-231
-236
-246
-243
-234
-230
-231
-253
-284
-259
-197
-192
-232
-241
-223
-220
-225
-225
-222
-217
-201
-178
-171
-184
-182
-163
-162
-178
-191
-197
-184
-147
-126
-112
-63
-37
-90
-138
-120
-112
-136
-136
-132
-145
-113
-97
-177
-164
220
1181
2549
3063
1657
-275
-729
-225
-127
-252
-165
-122
-157
-118
-93
-96
-57
-27
-25
1
48
91
124
152
195
255
316
369
409
433
450
450
428
408
379
305
212
147
87
-1
-96
-161
-199
-226
-251
-271
-272
-258
-258
-262
-241
-227
-243
-235
-210
-235
-267
-240
-213
-232
-248
-247
-249
-245
-238
-239
-244
-257
-261
-229
-205
-225
-234
-211
-202
-205
-193
-192
-205
-204
-197
-196
-180
-144
-100
-64
-63
-95
-121
-126
-129
-136
-124
-119
-147
-128
-75
-148
-233
41
887
2202
3059
2201
263
-660
-305
-61
-210
-208
-125
-144
-145
-112
-102
-85
-61
-42
-17
18
66
113
143
190
262
320
365
425
472
480
467
455
445
421
359
268
177
95
9
-82
-160
-214
-245
-253
-246
-251
-267
-263
-249
-250
-242
-224
-231
-245
-229
-215
-226
-233
-232
-238
-243
-243
-241
-235
-230
-230
-232
-229
-223
-216
-213
-214
-209
-196
-189
-192
-189
-179
-190
-220
-221
-178
-135
-106
-77
-60
-87
-141
-157
-130
-128
-145
-135
-143
-153
-118
-156
-239
-40
704
1947
2893
2284
455
-607
-362
-81
-204
-218
-143
-177
-171
-111
-117
-127
-74
-25
-13
1
40
88
126
166
229
291
329
379
451
483
464
450
446
415
351
269
178
98
30
-43
-125
-195
-229
-232
-242
-268
-268
-233
-220
-234
-228
-211
-214
-218
-216
-225
-226
-215
-214
-214
-207
-217
-230
-223
-225
-238
-223
-193
-194
-206
-200
-196
-199
-189
-191
-204
-184
-155
-176
-213
-203
-160
-118
-87
-70
-71
-91
-118
-125
-115
-123
-129
-118
-130
-134
-107
-155
-225
-35
631
1803
2792
2307
538
-564
-359
-84
-204
-203
-117
-157
-162
-107
-100
-91
-55
-39
-25
10
49
79
109
155
213
274
340
395
417
424
440
446
425
390
340
273
202
123
30
-64
-148
-205
-222
-229
-252
-262
-255
-265
-272
-247
-233
-242
-238
-229
-234
-232
-224
-227
-234
-245
-254
-244
-234
-249
-256
-235
-217
-214
-213
-214
-220
-214
-202
-206
-218
-220
-224
-226
-189
-123
-88
-88
-89
-106
-147
-173
-163
-138
-127
-158
-186
-130
-94
-188
-200
154
1076
2436
3007
1673
-255
-764
-278
-145
-256
-183
-132
-162
-142
-116
-105
-76
-48
-20
4
11
51
133
173
173
231
329
378
402
447
477
475
466
433
375
331
275
176
77
-2
-83
-154
-200
-238
-262
-266
-266
-263
-253
-245
-240
-233
-237
-241
-228
-222
-241
-255
-242
-227
-237
-255
-250
-237
-247
-262
-256
-247
-255
-259
-255
-250
-235
-204
-163
-120
-106
-149
-206
-210
-189
-191
-185
-169
-187
-183
-143
-202
-283
-98
582
1880
3036
2471
415
-796
-473
-127
-261
-258
-159
-198
-198
-146
-150
-136
-83
-58
-43
-12
21
62
118
162
199
268
359
415
424
441
470
461
418
379
320
218
131
67
-22
-113
-174
-237
-281
-271
-272
-300
-284
-246
-248
-251
-232
-227
-239
-238
-231
-232
-233
-230
-235
-239
-228
-222
-239
-252
-237
-220
-225
-238
-242
-239
-228
-212
-193
-158
-113
-102
-147
-185
-175
-163
-169
-161
-166
-181
-141
-135
-242
-218
264
1372
2696
2868
1272
-381
-562
-140
-159
-261
-179
-164
-185
-143
-128
-133
-107
-85
-64
-18
26
56
97
152
203
253
317
382
422
440
459
467
442
401
358
294
201
95
-8
-89
-141
-187
-238
-267
-269
-264
-260
-270
-280
-256
-227
-237
-247
-229
-218
-220
-220
-233
-243
-223
-210
-232
-250
-242
-226
-218
-232
-259
-261
-241
-237
-228
-173
-119
-119
-147
-167
-175
-173
-171
-167
-159
-171
-176
-143
-182
-288
-169
465
1681
2809
2490
717
-563
-455
-138
-242
-262
-149
-173
-201
-151
-139
-142
-105
-85
-80
-32
36
69
89
130
188
251
303
340
386
436
447
424
400
361
296
229
149
42
-55
-114
-162
-208
-237
-263
-286
-283
-261
-260
-272
-260
-241
-243
-246
-228
-216
-226
-237
-233
-230
-241
-243
-233
-236
-246
-236
-231
-251
-265
-254
-242
-234
-204
-154
-127
-143
-170
-180
-179
-183
-185
-176
-175
-168
-129
-155
-258
-193
331
1473
2756
2763
1066
-478
-526
-110
-162
-253
-182
-190
-196
-137
-126
-122
-83
-70
-63
-13
41
72
105
148
201
264
326
374
420
467
476
438
410
409
380
304
212
120
34
-43
-121
-188
-227
-255
-279
-264
-229
-228
-240
-227
-217
-230
-227
-205
-202
-218
-228
-237
-244
-230
-213
-218
-223
-219
-215
-220
-239
-251
-226
-210
-225
-194
-122
-110
-148
-160
-159
-175
-187
-178
-179
-204
-182
-137
-197
-257
-40
706
2088
3161
2329
158
-904
-467
-148
-296
-274
-174
-202
-197
-163
-164
-134
-97
-91
-72
-34
-4
39
98
142
175
232
310
367
390
399
393
379
368
331
246
157
92
16
-87
-182
-237
-266
-305
-345
-346
-318
-306
-313
-308
-286
-271
-272
-274
-275
-274
-261
-254
-271
-280
-267
-263
-272
-275
-274
-262
-251
-273
-301
-284
-253
-254
-239
-181
-144
-162
-182
-171
-171
-199
-198
-163
-174
-190
-138
-154
-264
-177
376
1556
2898
2883
1067
-519
-518
-106
-185
-241
-129
-145
-175
-114
-83
-78
-47
-20
-3
22
58
111
166
206
248
312
384
444
493
528
530
512
508
496
417
304
231
178
81
-28
-93
-127
-159
-190
-209
-207
-187
-166
-155
-156
-159
-157
-150
-132
-114
-133
-163
-146
-120
-140
-157
-141
-148
-180
-174
-141
-137
-157
-175
-188
-184
-166
-142
-109
-82
-83
-104
-114
-114
-129
-147
-124
-93
-135
-168
-129
-160
-236
-37
703
1992
2994
2355
455
-637
-412
-155
-259
-256
-208
-256
-241
-190
-204
-206
-167
-142
-132
-102
-56
-18
11
53
117
176
216
256
307
337
327
304
289
260
187
83
-12
-95
-187
-270
-323
-375
-436
-459
-439
-428
-441
-444
-432
-427
-429
-418
-405
-405
-402
-399
-412
-414
-392
-394
-423
-422
-398
-399
-406
-385
-370
-378
-382
-380
-374
-349
-323
-321
-320
-306
-294
-286
-288
-300
-309
-305
-281
-228
-168
-133
-122
-133
-154
-153
-150
-155
-122
-90
-111
-97
-61
-123
-120
253
1155
2378
2873
1741
80
-408
-37
49
-73
-10
58
42
63
104
134
169
199
223
256
297
342
393
437
484
556
643
710
749
778
799
809
814
801
768
726
663
572
477
394
324
267
221
189
162
142
151
170
158
138
141
142
134
139
139
120
105
100
92
73
39
6
-2
0
-19
-43
-53
-73
-110
-126
-126
-160
-206
-212
-215
-265
-314
-321
-326
-366
-416
-461
-509
-547
-579
-610
-604
-575
-607
-696
-765
-810
-859
-921
-980
-1020
-1070
-1127
-1150
-1213
-1362
-1372
-938
96
1303
1391
-158
