# session 11
703
635
608
878
1815
3322
3162
-50
-1866
849
2654
97
-2093
-1496
-283
1188
2678
2769
2267
2531
2576
1310
-283
-831
-707
-823
-919
-972
-1400
-1427
-1182
-1831
-967
3488
6243
2917
-1511
-2041
-872
-701
-939
-971
-1100
-1370
-1555
-1597
-1700
-1904
-1861
-1160
352
1815
1577
-274
-1555
-1437
-1166
-1301
-1382
-1365
-1429
-1482
-1341
-1043
-963
-1063
-837
-692
-1026
-205
3086
6598
6657
2886
-1093
-2354
-2016
-2062
-2324
-2382
-2520
-2508
-2183
-1977
-1858
-1577
-1500
-1674
-1503
-1140
-1057
-914
-849
-1174
-543
1134
1121
-780
-1559
-609
723
1971
2017
191
-1526
-1622
-1125
-1162
-1407
-1093
-884
-1580
-1041
2350
5924
7371
6594
3422
392
1012
3167
3073
1630
399
-1262
-1811
1479
5452
4085
-1044
-3101
-1099
368
-752
-2375
-2371
-1500
-1801
-1928
861
3384
1620
32
2294
2894
-920
-3903
-3122
-852
210
149
1880
5301
6459
5840
6235
4886
239
-2833
-2511
-2083
-1736
369
2615
2350
2
-1812
-1885
-1555
-1774
-1848
-1644
-1701
-1757
-1539
-1471
-1651
-1640
-1268
-782
-547
-717
-954
-937
-970
-1336
-1709
-1811
-1740
-1592
-1486
-1416
-1134
-726
-156
1228
2931
3324
2783
3211
4077
3009
174
-1728
-1780
-1497
-1503
-1226
-914
-973
-912
-506
-223
-220
-262
-317
-426
-413
-173
86
198
254
267
192
157
26
-481
-1034
-1208
-982
-327
111
-267
-155
398
-749
-893
3447
6089
1579
-3134
-2180
152
561
518
308
-239
-44
994
1847
1623
270
-903
-834
-369
-510
-827
-760
-525
-385
-298
-238
-282
-381
-321
-58
148
136
91
122
56
-87
-80
-10
-47
-56
4
26
114
242
199
74
32
107
349
486
464
1120
2707
4133
4314
2804
400
-958
-891
-865
-1075
-521
935
2514
2804
1130
-707
-966
-602
-787
-1119
-1312
-1502
-1476
-1223
-1027
-883
-719
-617
-525
-395
-336
-336
-333
-409
-548
-632
-646
-546
-344
-252
-256
-90
109
38
-59
113
309
311
281
309
288
188
46
-164
-446
-677
-735
-581
-315
-14
732
2062
2525
953
-1044
-1486
-950
-735
-877
-943
-733
-401
-370
-613
-683
-485
-254
-119
-61
5
92
135
157
167
168
230
239
382
1525
3338
3542
1401
-677
-966
-462
-262
-253
-298
-392
-309
-71
37
-33
-126
-181
-196
-150
-40
358
1527
2905
2560
270
-1378
-1175
-775
-957
-907
-647
-604
-480
-280
-385
-554
-435
-269
-253
-188
-31
-36
-171
-117
26
109
709
1801
1903
595
-398
-153
328
351
212
106
-3
-92
-229
-416
-474
-467
-713
-1045
-961
-705
-897
-1169
-554
1117
2700
2528
548
-1108
-1188
-799
-801
-766
-558
-466
-443
-398
-407
-361
-84
117
14
393
1719
2956
3436
3339
2174
226
-709
-419
-384
-778
-864
-732
-641
-487
-306
-264
-374
-451
-341
-221
-240
-218
-172
-301
-401
-336
-471
-800
-747
-4
1274
2259
1681
-100
-1080
-841
-666
-798
-788
-783
-858
-1024
-1282
-1292
-1280
-1205
233
2217
1911
130
-135
559
478
236
392
398
190
-38
-322
-507
-473
-394
-396
-398
-371
-448
-608
-628
-546
-578
-675
-721
-696
-528
-332
-286
-253
-48
745
2460
3566
2188
-160
-921
-563
-277
-140
-551
-744
883
3030
3698
3528
2685
557
-1096
-868
-229
-198
-140
104
217
216
131
-49
-231
-319
-262
-137
-89
-68
14
-25
-328
-584
-462
-200
-236
-526
-761
-913
-1035
-1033
-967
-941
-762
-108
1244
2716
2552
386
-1188
-873
-679
-945
48
1071
413
-83
420
60
-839
-691
-242
-320
-221
117
40
-237
-242
-241
-430
-421
-239
-380
-764
-916
-773
-492
-226
-195
-429
-685
-764
-672
-550
-472
-392
-363
-486
-644
-695
-658
-447
243
1565
2974
3410
2841
2733
3491
3255
1181
-782
-1177
-919
-895
-852
-677
-568
-502
-422
-294
-135
-50
54
276
399
385
415
360
186
159
164
-54
-249
-215
-204
-379
-523
-419
-170
-37
-129
-439
-880
-1199
-1189
-923
-711
-719
-562
163
1293
2591
3362
2346
146
-886
-491
-263
-446
-527
-666
-828
-762
-636
-566
-491
-456
-391
-268
-270
-349
-394
-491
-339
189
235
-460
-788
-394
-106
-123
-69
-50
-210
-312
-243
-144
-125
-211
-294
-172
76
250
689
1893
3254
3292
1897
1164
2151
2576
741
-1214
-1307
-744
-665
-564
-417
-569
-632
-462
-431
-485
-384
-228
-166
-210
-254
-181
-138
-271
-351
-279
-261
-278
-253
-334
-444
-406
-390
-472
-479
-470
-511
-496
-505
-471
-287
-696
-1573
-567
2357
3270
1542
1008
2024
2177
2111
2246
834
-1145
-1397
-763
-672
-781
-801
-891
-987
-1050
-1006
-868
-875
-935
-831
-681
-314
432
838
471
79
146
266
143
-84
-213
-280
-429
-540
-542
-539
-286
188
353
748
2090
2967
1974
251
-758
-1134
-1247
-1112
-772
-178
1026
2524
2574
540
-1234
-1055
-297
-223
-337
-242
-200
-350
-518
-415
-135
-117
-347
-471
-380
20
481
297
-239
-422
-658
-727
-257
-657
-914
1792
4089
1617
-1561
-1429
-698
-465
1182
3037
2947
1587
409
-182
-419
-590
-737
-814
-723
-128
1040
1800
932
-953
-1952
-1761
-1486
-1373
-1177
-1069
-971
-674
-424
-434
-531
-489
-284
-110
-120
-203
-243
-278
-271
-197
-176
-105
207
452
484
1050
2411
3248
2409
683
-419
-685
-845
-1137
-1250
-1031
-705
-589
-653
-689
-731
-770
-599
183
2081
4005
3408
555
-1332
-1273
-800
-658
-824
-785
366
2174
3217
2767
1087
-320
-368
-58
-224
-717
-1489
-1269
508
1050
-674
-1585
-819
-703
-1441
-1093
789
2712
3180
2073
574
-177
-253
-325
-463
-472
-528
-680
-739
-810
-1016
-1142
-1018
-433
768
1558
649
-1057
-1724
-1444
-1202
-1024
-742
-533
-425
-423
-543
-630
-660
-731
-775
-710
-442
12
241
242
687
1670
2793
3368
2024
-489
-953
358
127
-1204
-1261
-731
-780
-848
-706
-625
-543
-482
-459
-359
-305
-372
-388
-131
883
2648
3471
1970
-339
-1299
-1054
-745
-896
-1290
-1071
-440
-555
-389
1526
3066
1785
-715
-956
2327
6020
5403
1103
-1425
-308
1655
2664
2503
1081
-322
-420
-176
-513
-757
-735
-943
-1122
-1026
-1045
-1201
-1253
-1371
-1563
-1541
-1407
-1320
-1141
-712
440
2150
2350
191
-1621
-1278
-504
-592
-814
-870
-1016
-1058
-917
-713
-338
38
120
456
1739
3158
3046
1287
-427
-983
-898
-788
-617
-443
-392
-319
-209
-201
-204
-103
24
134
183
12
-338
-535
-508
-528
-631
-652
-629
-590
-405
181
1493
2804
2367
263
-1258
-1236
-827
-982
-1198
-401
957
1097
40
-377
98
-183
-1285
-725
1943
3107
1224
-514
-363
20
-92
-75
13
-28
-5
119
179
8
-292
-386
-345
-501
-690
-631
-467
-352
-346
-489
-544
-427
-437
-513
-290
511
2045
3191
2125
-308
-1388
-846
-320
-174
182
968
2165
3367
3436
1681
-628
-1628
-1361
-956
-675
-406
-282
-208
-13
216
348
320
162
6
-111
-209
-160
88
275
184
-34
-167
-291
-507
-650
-620
-616
-730
-757
-685
-720
-766
-486
349
1646
2322
1046
-1061
-1455
-786
-1213
-1070
1368
2716
724
-1231
-940
-245
-145
-92
-155
-329
-305
-246
-281
-276
-311
-409
-389
-362
-575
-795
-679
-467
-519
-645
-591
-538
-637
-670
-503
-364
-415
-457
-417
-478
-513
-391
-440
-629
-544
0
1456
3226
3274
2591
3361
2578
-727
-311
3474
2667
-1445
-2088
-831
-1117
-1255
-543
-433
-714
-692
-568
-458
-342
-231
-90
-125
-478
-839
-911
-759
-689
-849
-684
545
2300
3003
2421
2279
2852
1961
-20
430
3758
6495
5609
1313
-2194
-2187
-1354
-447
2282
3134
34
-918
1913
2500
-95
-1792
-1935
-1823
-1566
-1425
-1606
-1624
-1436
-1437
-1629
-1811
-1862
-1745
-1666
-1829
-2001
-1874
-1588
-1420
-1369
-1341
-1317
-1272
-1238
-1273
-1315
-1303
-1276
-1241
-1225
-1314
-1363
-1159
-916
-749
40
1939
3653
3168
1368
2082
5757
7061
3138
-1455
-2546
-1879
-1781
-1765
-1457
-1328
-1349
-1289
-1104
-1084
-1249
-432
1499
2489
2373
2828
2649
563
-922
-902
-1224
-622
1741
1805
-1004
-1578
388
581
-1219
-2332
-1151
2667
6355
6579
5420
6133
6142
2409
-1920
-2743
-845
1222
2507
2312
238
-2098
-2800
-2333
-2094
-2143
-2005
-1860
-1913
-1872
-1735
-1811
-1587
-614
-79
-754
-1394
-1251
-1034
-988
-871
-847
-962
-1014
-1018
-1048
-1050
-1022
-990
-920
-904
-1039
-1087
-976
-1016
-909
71
1993
4048
4038
826
-1271
2333
7443
6891
2298
334
1266
547
-1550
-1712
-1264
-2050
-1358
1004
922
-1332
-2054
-1465
-1425
-1601
-1616
-1639
-1406
-1051
-870
-746
-804
-1033
-1077
-1185
-1492
-969
1261
3953
3933
804
-117
3907
7234
6536
6124
6680
3846
-827
-1920
448
2614
2674
544
-1981
-2554
-1511
-563
-47
-194
-1373
-2432
-2361
-2017
-2107
-2176
-2131
-2237
-2286
-2162
-2108
-2073
-1836
-1552
-1453
-1435
-1306
-1109
-963
-833
-697
-693
-786
-784
-833
-1022
-1010
-922
-1051
-579
1152
3203
4045
2544
-645
-2633
-2198
-1438
-1531
-1494
-1136
-1081
-1159
-972
-575
274
1809
2648
1368
-531
-1076
-946
-997
-963
-1063
-814
860
2884
3506
3074
2955
3428
2827
304
-1395
-1141
-1682
-1689
2112
5936
6486
6591
5474
1762
972
3180
1201
-2601
-1110
2305
2431
1905
2448
1430
-913
-1945
-1813
-1928
-2129
-2110
-2187
-2228
-1959
-1282
-37
819
-243
-2252
-2840
-2187
-1868
-1873
-1695
-1595
-1632
-1516
-1247
-1010
-869
-748
-645
-564
-390
-303
-484
-467
-371
-790
-344
1955
3509
3235
3486
3204
165
-1292
2805
7518
6792
2104
-1441
-1986
-1426
-1397
-1520
-1410
-1407
-1459
-1404
-1295
-712
613
1596
947
-764
-1761
-1555
-1156
-1130
-1170
-1160
-1207
-1226
-1231
-1289
-1240
-1089
-1033
-960
-747
-526
-312
-211
-370
-331
-69
-357
-505
906
3038
4309
4245
2576
497
39
275
-513
-1195
-887
-650
-776
-814
-858
-898
-805
-753
-752
-650
-179
1063
2302
1764
-239
-1360
-1071
-765
-790
-680
-564
-514
-326
-159
-117
3
136
179
404
627
275
111
1671
4125
4503
2080
-385
-892
-499
-451
-477
-355
-337
-323
-182
-124
-219
-269
-190
-101
-108
-217
-321
-239
-58
-63
-138
24
588
1898
3370
2977
589
-1080
-982
-754
-989
-1048
-1002
-968
-840
-854
-711
-172
-205
-762
-637
-657
-1222
75
2328
1690
27
929
1759
363
-488
-12
-24
-321
-206
-171
-255
-225
-237
-181
70
170
-91
-438
-541
-396
-325
-531
-746
-665
-178
1029
2572
2621
609
-1181
-1283
-999
-1190
-1177
-961
-959
-776
-435
-495
-314
1055
2986
4059
3262
879
-974
-976
-485
-627
-758
-626
-625
-641
-549
-479
-358
-203
-223
-366
-412
-307
-130
-38
-163
-337
-325
-259
-310
-355
-437
-569
-427
-31
834
2484
2763
145
-1252
1109
2240
-226
-1906
-1585
-1639
-1609
-1168
-1458
-943
1547
3613
3820
2804
871
-699
-569
-18
-293
-554
-394
-372
-461
-425
-410
-448
-434
-409
-433
-468
-489
-524
-560
-535
-512
-624
-779
-780
-679
-669
-749
-750
-457
503
2089
2925
1693
-451
-1263
-698
-461
-954
-865
434
2388
4072
3182
-655
-1442
3770
6912
3004
-1083
-912
-246
-729
-692
-433
-615
-687
-628
-706
-748
-672
-573
-578
-746
-890
-963
-1125
-1180
-1010
-1006
-1170
-1116
-995
-1010
-946
-907
-1077
-1073
-489
873
2511
2592
457
-1426
-1269
-700
-1016
-753
1025
2856
3633
3534
2316
361
-582
-272
-176
-515
-574
-443
-389
-291
-188
-248
-383
-360
-188
-173
-428
-702
-792
-733
-627
-552
-534
-525
-463
-404
-463
-587
-661
-705
-689
-608
-638
-689
-566
-123
1303
3024
2322
163
1123
3792
3163
1694
3076
3210
57
-1663
-906
-751
-1125
-941
-896
-980
-695
-441
-408
-358
-343
-413
-473
-486
-380
-191
-111
-130
-100
-94
-205
-306
-305
-289
-306
-269
-179
-161
-239
-362
-488
-502
-450
-594
-766
-366
708
1817
2439
2925
3493
2944
719
-1142
-1155
-620
-629
-674
-582
-605
-562
-388
-264
-168
-86
-108
-204
-300
-396
-446
-383
-203
0
35
-165
-402
-508
-546
-569
-546
-535
-574
-597
-583
-548
-511
-603
-753
-658
-549
-738
-365
1324
3193
3546
2215
906
1982
5314
6899
3955
-446
-2091
-1626
-1541
-1792
-1642
-1466
-1439
-1309
-1100
-914
-755
-642
-601
-659
-783
-870
-878
-840
-839
-944
-1060
-1103
-1166
-1180
-1108
-1257
-1147
445
2687
2936
1056
-678
-1608
-1713
104
2211
1307
-764
-136
1425
919
-42
247
968
2264
4749
6585
5103
895
-2205
-2375
-1752
-1846
-1839
-1510
-1437
-1516
-1514
-1507
-1486
-1428
-1381
-1337
-1289
-1258
-1267
-1320
-1358
-1334
-1296
-1249
-1103
-884
-814
-924
-908
-782
-879
-884
-608
-860
-972
957
3109
2503
1753
3115
2569
-15
1325
5368
6369
5991
6139
3252
-1408
-2773
-1981
-2079
-2251
-1967
-1834
-1613
-1638
-1671
-187
1999
2813
2671
2484
2432
2911
2446
52
-572
2955
6681
6495
2830
-1156
-2705
-2281
-2112
-2356
-2212
-2065
-2112
-1987
-1830
-1821
-1767
-1666
-1601
-1468
-1340
-1385
-1424
-1160
-295
1294
2384
1327
-861
-1699
-1232
-1000
-1041
-858
-724
-736
-668
-555
-469
-339
-184
-90
-25
64
111
64
16
23
19
1
10
12
-10
-24
-24
-35
-64
-80
-67
-81
-109
-54
34
20
-33
-11
-19
-103
-91
-19
-104
-194
143
1165
2520
2898
1455
-353
-723
-242
-151
-227
-125
-124
-111
129
272
169
143
297
437
517
603
663
644
586
518
437
374
325
253
218
236
199
135
144
130
55
21
-34
-171
-233
-202
-238
-330
-389
-410
-360
-317
-452
-515
78
1301
2050
1283
-331
-1129
-851
-554
-615
-638
-532
-485
-536
-537
-407
-311
-310
-211
-16
89
70
-21
-97
-71
-68
-208
-334
-336
-330
-330
-254
-197
-250
-330
-358
-346
-343
-405
-503
-547
-548
-570
-616
-630
-532
-383
-414
-634
-651
1
1306
2280
1719
70
-898
-699
-408
-527
-596
-451
-363
-385
-355
-247
-131
6
139
184
197
286
338
220
103
142
189
145
99
65
59
135
179
107
47
60
59
11
-41
-3
119
142
41
-6
12
45
95
28
-132
3
790
2141
3005
2132
311
-436
-65
132
31
20
3
60
270
359
334
428
551
598
672
716
626
532
499
438
391
411
396
350
378
401
300
175
160
189
136
43
4
-5
-34
-64
-61
-56
-132
-210
-133
-77
-252
-373
-145
544
1745
2499
1551
-186
-820
-526
-470
-638
-655
-667
-746
-765
-745
-718
-617
-476
-438
-500
-539
-532
-538
-602
-707
-714
-595
-563
-635
-597
-540
-655
-775
-765
-742
