# session 24
-47
-53
-59
61
186
115
1
7
26
1
-10
-12
-24
-28
-31
-41
-52
-66
-81
-93
-102
-111
-130
-154
-155
-148
-168
-191
-179
-165
-173
-163
-122
-97
-112
-142
-152
-150
-166
-170
-145
-159
-170
-122
-174
-290
-116
573
1887
3240
2968
851
-740
-611
-208
-326
-353
-242
-281
-303
-239
-217
-207
-175
-154
-124
-77
-32
19
80
145
218
302
383
447
496
525
524
499
461
400
315
226
135
26
-85
-168
-228
-280
-318
-331
-326
-320
-318
-315
-312
-309
-305
-299
-297
-296
-293
-291
-292
-296
-300
-299
-298
-301
-304
-303
-310
-324
-322
-303
-290
-279
-243
-196
-175
-191
-215
-217
-213
-221
-206
-190
-214
-191
-145
-248
-324
3
897
2322
3344
2473
315
-759
-413
-177
-332
-300
-218
-260
-244
-187
-179
-161
-127
-103
-66
-19
26
80
140
208
289
378
458
524
565
577
572
554
510
439
348
248
145
43
-51
-130
-191
-234
-263
-281
-287
-284
-275
-268
-265
-260
-253
-248
-245
-241
-239
-239
-240
-247
-253
-250
-246
-249
-253
-254
-251
-250
-260
-269
-264
-251
-233
-197
-156
-138
-149
-175
-187
-180
-182
-183
-163
-178
-192
-137
-170
-313
-199
448
1663
2965
2964
1192
-457
-571
-192
-257
-330
-236
-241
-255
-200
-185
-184
-146
-116
-92
-49
-8
29
83
152
224
300
377
448
501
530
535
519
491
441
359
265
173
75
-25
-108
-174
-227
-258
-271
-280
-286
-280
-272
-271
-268
-261
-257
-253
-248
-244
-243
-245
-246
-248
-250
-249
-247
-248
-250
-247
-243
-242
-239
-234
-229
-224
-215
-211
-223
-238
-235
-216
-192
-159
-119
-97
-110
-136
-142
-137
-142
-133
-113
-134
-134
-92
-157
-255
-30
716
1947
2970
2486
651
-550
-399
-120
-232
-251
-176
-200
-196
-148
-143
-130
-90
-65
-41
0
38
79
133
192
253
324
393
450
494
516
512
493
467
420
350
272
190
100
10
-69
-131
-178
-210
-232
-238
-235
-234
-233
-227
-221
-220
-220
-220
-222
-225
-229
-235
-239
-242
-246
-250
-248
-248
-253
-256
-253
-247
-243
-241
-237
-231
-225
-218
-211
-208
-208
-200
-188
-188
-199
-211
-215
-208
-190
-157
-115
-87
-91
-115
-127
-122
-124
-120
-110
-130
-131
-81
-119
-219
-67
555
1694
2823
2623
898
-478
-449
-113
-195
-241
-158
-176
-191
-140
-121
-112
-81
-64
-41
4
42
74
122
182
237
293
362
431
474
492
500
502
486
447
384
308
236
164
77
-15
-93
-150
-187
-207
-223
-231
-229
-225
-221
-213
-209
-215
-220
-222
-229
-235
-235
-237
-248
-256
-253
-250
-251
-248
-245
-251
-252
-239
-230
-235
-234
-228
-226
-222
-218
-229
-237
-226
-216
-213
-186
-139
-111
-121
-152
-170
-165
-163
-159
-155
-172
-158
-122
-191
-260
-12
780
2123
3107
2284
202
-847
-476
-181
-303
-272
-191
-231
-209
-150
-160
-151
-100
-74
-61
-25
27
82
132
178
233
305
382
447
486
499
496
483
458
413
344
260
175
92
13
-58
-131
-196
-229
-238
-250
-256
-242
-226
-228
-236
-236
-230
-224
-222
-226
-230
-236
-250
-262
-261
-258
-263
-268
-264
-261
-264
-266
-266
-270
-265
-247
-228
-206
-172
-153
-170
-199
-198
-182
-187
-187
-179
-198
-190
-157
-225
-276
-15
774
2177
3276
2448
214
-928
-527
-202
-328
-294
-207
-251
-233
-173
-167
-146
-99
-69
-44
-15
22
78
141
204
283
369
435
481
522
550
553
530
492
433
346
246
152
54
-48
-125
-172
-213
-251
-269
-263
-261
-271
-266
-240
-228
-240
-247
-239
-235
-243
-249
-244
-248
-266
-269
-257
-265
-284
-281
-272
-272
-269
-268
-277
-271
-248
-228
-209
-175
-151
-170
-200
-201
-203
-210
-191
-192
-210
-164
-158
-277
-253
211
1314
2823
3271
1611
-423
-797
-292
-252
-361
-257
-234
-269
-214
-182
-188
-152
-107
-80
-49
-12
37
96
149
212
303
392
455
505
547
563
556
532
477
395
313
228
122
11
-80
-150
-203
-241
-266
-283
-292
-291
-276
-262
-258
-254
-250
-255
-254
-244
-246
-259
-263
-265
-273
-274
-273
-278
-282
-286
-300
-303
-285
-279
-278
-244
-196
-186
-209
-227
-224
-230
-245
-222
-201
-230
-210
-169
-274
-345
-24
869
2326
3343
2382
176
-838
-442
-213
-366
-324
-250
-291
-269
-220
-214
-185
-145
-125
-97
-58
-12
49
113
178
257
343
421
485
532
557
557
532
484
415
328
234
139
42
-54
-137
-203
-249
-271
-278
-281
-282
-276
-267
-260
-253
-243
-238
-236
-229
-221
-222
-229
-230
-229
-231
-232
-228
-227
-230
-234
-240
-245
-241
-232
-216
-182
-139
-117
-124
-146
-158
-153
-159
-161
-135
-140
-156
-111
-142
-288
-200
403
1596
2987
3157
1422
-375
-593
-185
-230
-324
-231
-232
-257
-205
-184
-182
-147
-119
-98
-60
-21
23
83
143
205
285
372
447
502
534
541
530
502
446
363
273
179
72
-41
-136
-205
-257
-294
-315
-325
-329
-330
-327
-320
-311
-308
-308
-304
-300
-301
-304
-306
-311
-316
-314
-310
-310
-313
-314
-313
-307
-302
-302
-303
-296
-284
-283
-296
-301
-289
-268
-235
-188
-153
-146
-160
-176
-175
-167
-165
-150
-143
-159
-124
-93
-203
-241
148
1087
2403
3108
2070
167
-608
-268
-118
-248
-205
-152
-188
-155
-109
-111
-87
-42
-21
4
47
90
135
192
259
334
410
478
538
582
596
588
571
537
474
394
309
218
123
31
-48
-110
-155
-184
-200
-210
-214
-214
-209
-200
-191
-187
-188
-187
-187
-190
-191
-196
-208
-215
-212
-213
-219
-220
-215
-212
-213
-214
-212
-210
-209
-204
-198
-198
-200
-196
-190
-185
-178
-173
-173
-171
-166
-165
-167
-161
-155
-161
-171
-176
-180
-176
-149
-103
-66
-54
-67
-97
-116
-115
-121
-131
-119
-129
-147
-104
-116
-232
-158
366
1432
2720
2945
1397
-304
-566
-185
-208
-305
-219
-207
-236
-193
-166
-159
-131
-110
-87
-41
0
30
73
133
194
254
322
391
447
477
493
500
492
469
431
376
297
204
111
25
-57
-126
-173
-202
-225
-236
-234
-234
-240
-241
-234
-226
-225
-227
-221
-212
-217
-239
-260
-263
-258
-257
-263
-269
-264
-255
-263
-272
-263
-252
-258
-258
-238
-221
-220
-217
-208
-208
-213
-212
-212
-216
-203
-167
-126
-97
-86
-105
-138
-146
-138
-142
-135
-125
-151
-138
-94
-163
-228
22
781
2124
3210
2462
300
-858
-484
-151
-277
-253
-162
-197
-178
-121
-125
-111
-62
-37
-19
17
61
107
155
211
278
352
428
494
532
543
545
535
500
442
373
291
203
118
33
-57
-128
-171
-210
-246
-259
-251
-245
-246
-240
-231
-225
-220
-213
-216
-224
-226
-223
-228
-237
-239
-239
-247
-258
-260
-254
-248
-247
-248
-244
-239
-236
-230
-218
-211
-218
-226
-227
-229
-221
-188
-141
-105
-97
-118
-152
-162
-160
-173
-172
-153
-175
-177
-126
-185
-288
-95
599
1870
3084
2703
695
-697
-520
-169
-293
-310
-207
-240
-251
-196
-183
-169
-130
-108
-83
-42
-6
35
92
154
222
298
376
449
506
537
542
529
500
451
373
277
185
92
-9
-103
-172
-223
-263
-287
-295
-296
-294
-286
-277
-270
-267
-262
-256
-252
-252
-251
-251
-254
-256
-255
-260
-263
-261
-262
-267
-266
-258
-259
-269
-276
-269
-254
-229
-188
-150
-140
-155
-175
-175
-169
-178
-171
-154
-172
-161
-113
-187
-285
-50
737
2050
3079
2452
507
-634
-400
-124
-247
-252
-176
-199
-186
-138
-134
-116
-76
-53
-26
15
52
97
156
214
280
361
439
499
541
562
563
548
512
449
368
279
185
90
-2
-86
-152
-194
-226
-251
-260
-257
-254
-252
-248
-245
-246
-242
-235
-233
-238
-239
-238
-242
-250
-259
-261
-257
-257
-265
-270
-269
-268
-269
-277
-294
-298
-286
-274
-254
-212
-177
-181
-209
-227
-224
-224
-224
-209
-216
-237
-201
-199
-316
-307
147
1193
2502
2825
1393
-338
-697
-293
-249
-349
-274
-248
-273
-231
-199
-191
-156
-122
-98
-60
-16
27
74
129
194
270
345
415
475
515
532
530
509
469
411
337
253
161
66
-22
-92
-144
-178
-196
-205
-212
-214
-210
-209
-214
-213
-201
-188
-186
-197
-206
-203
-199
-203
-207
-208
-213
-220
-225
-227
-229
-235
-242
-235
-212
-182
-146
-118
-120
-149
-174
-175
-168
-169
-159
-152
-172
-160
-136
-219
-277
-5
822
2177
3053
2104
95
-786
-400
-180
-316
-282
-216
-256
-234
-187
-186
-162
-118
-92
-60
-24
4
46
102
159
224
296
357
409
455
482
479
456
417
364
304
234
139
34
-57
-133
-198
-237
-259
-278
-289
-284
-269
-260
-264
-269
-258
-244
-248
-260
-266
-266
-264
-261
-262
-266
-270
-279
-292
-301
-298
-287
-280
-266
-226
-179
-166
-193
-217
-217
-217
-224
-205
-189
-201
-184
-169
-231
-209
151
1095
2530
3165
1762
-330
-911
-381
-224
-344
-253
-197
-244
-213
-170
-163
-128
-91
-69
-26
22
51
86
143
208
277
347
412
469
507
513
499
476
433
363
283
207
127
36
-54
-126
-180
-223
-249
-255
-252
-251
-251
-246
-233
-224
-224
-226
-226
-228
-231
-236
-242
-250
-257
-261
-264
-277
-293
-290
-279
-268
-234
-188
-170
-191
-220
-228
-220
-224
-223
-211
-226
-218
-176
-232
-311
-114
584
1885
3051
2536
520
-736
-500
-188
-317
-319
-230
-263
-256
-202
-201
-189
-146
-121
-92
-47
-8
34
90
152
222
303
382
443
483
499
495
475
438
380
302
213
121
29
-58
-134
-195
-237
-260
-270
-274
-274
-270
-261
-249
-243
-240
-234
-228
-227
-226
-228
-232
-236
-237
-240
-242
-245
-254
-268
-276
-271
-260
-242
-206
-161
-141
-162
-193
-200
-190
-195
-192
-174
-191
-196
-145
-186
-312
-196
434
1656
2910
2771
974
-524
-540
-184
-258
-312
-229
-244
-252
-197
-183
-179
-140
-112
-90
-52
-10
31
84
147
214
282
350
413
459
481
486
475
445
396
330
254
170
79
-13
-94
-155
-200
-234
-252
-253
-249
-248
-244
-237
-232
-229
-226
-222
-217
-215
-218
-221
-220
-225
-235
-239
-236
-233
-235
-237
-237
-236
-242
-256
-260
-244
-220
-190
-150
-121
-126
-154
-170
-170
-176
-171
-153
-170
-174
-122
-158
-276
-153
485
1709
2925
2721
913
-533
-510
-159
-242
-293
-204
-217
-233
-187
-166
-151
-119
-102
-81
-39
2
43
94
146
201
268
342
406
445
462
465
456
438
410
356
277
197
113
12
-79
-137
-185
-232
-254
-253
-256
-266
-267
-254
-246
-249
-250
-247
-252
-256
-255
-261
-269
-269
-267
-271
-274
-276
-276
-270
-266
-267
-269
-275
-284
-278
-256
-231
-202
-176
-170
-183
-193
-196
-210
-215
-192
-193
-214
-180
-174
-266
-231
209
1284
2743
3113
1452
-480
-778
-274
-237
-332
-230
-213
-241
-184
-164
-170
-121
-77
-70
-44
6
53
98
161
236
299
361
435
491
514
533
541
520
483
430
343
252
174
89
-6
-83
-138
-184
-218
-234
-234
-222
-202
-189
-194
-206
-208
-205
-202
-200
-201
-202
-206
-220
-240
-245
-236
-231
-238
-243
-239
-238
-240
-240
-241
-247
-244
-228
-201
-168
-142
-141
-163
-180
-181
-181
-180
-163
-170
-192
-159
-165
-268
-224
257
1394
2894
3216
1444
-538
-804
-287
-273
-370
-251
-231
-264
-213
-193
-201
-172
-143
-110
-56
-16
18
74
132
189
255
324
399
472
509
511
505
483
428
358
280
189
95
2
-94
-179
-230
-262
-295
-318
-318
-311
-310
-301
-285
-278
-277
-273
-270
-263
-258
-274
-295
-291
-280
-286
-294
-295
-295
-289
-280
-279
-281
-280
-276
-262
-254
-254
-225
-166
-138
-164
-194
-191
-181
-184
-169
-156
-181
-164
-125
-216
-279
23
878
2306
3354
2469
276
-797
-419
-156
-293
-257
-185
-227
-201
-145
-145
-127
-91
-70
-36
7
47
99
161
222
288
367
447
512
549
566
575
569
532
465
382
294
201
102
1
-90
-157
-199
-233
-259
-267
-267
-271
-265
-251
-245
-243
-229
-219
-225
-231
-231
-233
-237
-239
-243
-246
-247
-248
-252
-250
-244
-240
-239
-235
-228
-224
-234
-251
-253
-238
-220
-196
-160
-130
-130
-155
-170
-166
-171
-168
-146
-165
-178
-123
-155
-281
-146
474
1631
2934
2977
1204
-473
-577
-176
-245
-322
-222
-228
-251
-202
-185
-180
-141
-114
-91
-50
-10
30
83
145
214
291
370
444
505
542
554
547
522
473
400
313
217
111
5
-88
-163
-220
-261
-288
-301
-307
-307
-301
-296
-291
-278
-264
-261
-263
-259
-256
-255
-253
-254
-256
-255
-253
-254
-255
-252
-247
-241
-236
-230
-222
-214
-212
-209
-201
-193
-188
-180
-172
-170
-169
-162
-152
-146
-141
-136
-129
-121
-118
-127
-140
-141
-130
-105
-62
-17
4
-3
-31
-53
-52
-54
-59
-43
-49
-68
-27
-37
-158
-85
442
1469
2719
3034
1628
-87
-460
-105
-104
-209
-133
-122
-157
-113
-82
-82
-53
-18
2
30
65
102
150
203
256
320
395
469
526
558
576
583
572
542
491
417
328
245
159
58
-38
-107
-156
-197
-226
-239
-244
-248
-249
-244
-242
-245
-252
-261
-268
-268
-265
-268
-278
-285
-289
-297
-307
-312
-315
-320
-321
-316
-317
-322
-321
-317
-314
-309
-307
-305
-298
-293
-295
-290
-285
-296
-312
-309
-286
-252
-214
-183
-174
-192
-217
-227
-232
-245
-229
-197
-214
-220
-184
-245
-323
-94
615
1840
2942
2487
554
-710
-504
-182
-299
-306
-220
-255
-246
-176
-162
-147
-102
-78
-51
-5
32
66
121
185
252
334
419
478
514
555
596
604
575
541
504
430
327
228
134
36
-45
-95
-136
-174
-183
-172
-176
-183
-174
-166
-162
-144
-128
-129
-129
-124
-128
-129
-125
-129
-135
-132
-128
-123
-113
-112
-117
-105
-85
-80
-83
-83
-80
-72
