# session 27
-45
-19
-86
-24
247
411
311
166
103
40
-27
-58
-75
-94
-101
-99
-97
-97
-100
-106
-109
-111
-115
-120
-125
-132
-143
-154
-159
-161
-164
-172
-179
-185
-199
-212
-208
-192
-174
-145
-106
-89
-109
-139
-151
-155
-160
-148
-143
-169
-149
-105
-187
-269
-3
839
2179
3044
2159
228
-668
-340
-135
-262
-236
-188
-240
-219
-162
-160
-148
-111
-90
-70
-40
-3
37
72
113
176
244
294
333
364
378
379
379
374
343
285
220
151
65
-30
-105
-162
-210
-238
-244
-247
-250
-244
-244
-253
-250
-236
-233
-238
-232
-226
-241
-258
-258
-257
-262
-259
-259
-275
-279
-260
-247
-235
-193
-151
-158
-198
-215
-210
-218
-216
-189
-193
-198
-162
-191
-263
-130
442
1663
2980
2742
726
-780
-617
-187
-277
-298
-188
-221
-232
-165
-157
-155
-110
-83
-67
-33
2
37
83
132
186
245
300
345
380
396
393
384
366
330
278
210
129
49
-25
-97
-160
-206
-236
-250
-254
-257
-254
-241
-229
-227
-226
-221
-216
-214
-214
-218
-222
-223
-225
-234
-239
-238
-237
-243
-251
-256
-253
-245
-227
-192
-149
-129
-148
-179
-186
-181
-189
-179
-162
-186
-183
-133
-195
-297
-105
623
1942
3063
2497
506
-686
-430
-132
-263
-267
-185
-220
-210
-157
-161
-154
-114
-91
-70
-33
1
38
86
138
192
251
314
366
398
412
417
409
383
341
283
210
131
48
-35
-108
-165
-208
-239
-256
-259
-254
-247
-241
-234
-225
-221
-222
-219
-217
-220
-224
-225
-229
-236
-241
-242
-241
-239
-244
-256
-266
-264
-252
-231
-195
-153
-132
-147
-176
-184
-175
-179
-178
-162
-173
-173
-127
-174
-291
-151
523
1778
2925
2563
721
-580
-454
-128
-229
-265
-185
-204
-202
-153
-147
-138
-100
-78
-58
-21
16
53
96
143
198
258
314
357
387
405
410
399
376
343
291
221
145
64
-17
-86
-143
-193
-226
-239
-243
-243
-237
-231
-227
-222
-217
-216
-215
-214
-216
-218
-220
-223
-229
-232
-233
-236
-237
-233
-230
-227
-222
-220
-217
-211
-216
-233
-239
-230
-218
-190
-141
-102
-102
-133
-154
-150
-149
-148
-131
-140
-159
-125
-135
-232
-155
372
1457
2664
2693
1093
-420
-519
-137
-180
-257
-169
-168
-194
-149
-128
-124
-91
-66
-53
-19
20
46
77
128
184
229
276
328
364
377
386
391
383
363
331
280
207
126
52
-21
-99
-164
-205
-231
-241
-232
-226
-229
-227
-223
-228
-228
-215
-213
-223
-225
-224
-232
-238
-233
-226
-228
-236
-232
-219
-221
-230
-228
-225
-231
-228
-214
-199
-175
-139
-117
-128
-159
-175
-164
-153
-145
-150
-172
-156
-129
-199
-242
19
828
2210
3113
2097
2
-860
-402
-154
-281
-226
-153
-194
-171
-127
-132
-111
-73
-61
-36
7
37
66
111
161
212
267
319
353
378
394
391
373
349
311
256
194
124
42
-38
-105
-157
-200
-235
-255
-258
-254
-246
-235
-228
-227
-226
-220
-220
-228
-230
-228
-232
-240
-247
-250
-248
-247
-248
-246
-240
-232
-228
-234
-246
-243
-226
-204
-170
-128
-113
-135
-162
-166
-167
-175
-171
-172
-191
-154
-111
-207
-271
29
867
2186
3038
2108
138
-707
-321
-152
-318
-239
-126
-175
-174
-136
-152
-134
-87
-85
-69
6
49
38
72
162
224
270
338
379
380
398
422
420
408
359
264
191
145
54
-55
-117
-157
-207
-233
-233
-238
-235
-212
-211
-247
-257
-213
-185
-206
-215
-196
-204
-240
-245
-228
-235
-251
-248
-240
-242
-250
-252
-242
-233
-230
-226
-226
-203
-143
-113
-151
-187
-172
-142
-149
-175
-171
-162
-158
-131
-175
-287
-114
704
2062
3001
2299
413
-672
-402
-60
-193
-273
-184
-178
-221
-188
-118
-92
-106
-88
-38
-11
8
59
115
149
195
250
291
340
386
384
375
404
391
305
241
203
109
12
-21
-62
-148
-202
-215
-251
-282
-258
-232
-232
-223
-229
-255
-220
-151
-156
-197
-199
-212
-251
-251
-218
-194
-181
-204
-255
-248
-205
-219
-220
-155
-168
-264
-264
-194
-203
-235
-188
-134
-126
-110
-97
-123
-139
-151
-188
-167
-101
-107
-124
-113
-181
-193
169
1090
2357
2828
1546
-242
-686
-214
-117
-272
-195
-114
-189
-213
-120
-53
-67
-85
-79
-72
-15
88
134
114
127
185
251
336
411
394
345
378
408
346
298
295
230
128
70
16
-64
-135
-189
-242
-276
-253
-195
-188
-228
-228
-209
-225
-231
-224
-259
-282
-238
-208
-226
-242
-261
-280
-272
-264
-264
-252
-246
-240
-217
-210
-203
-165
-147
-176
-202
-200
-186
-214
-260
-195
-100
-187
-279
-55
631
1919
3071
2440
294
-926
-548
-150
-278
-305
-195
-177
-183
-182
-158
-94
-96
-130
-57
34
30
47
131
181
210
269
319
357
417
453
420
365
343
344
305
199
91
29
-37
-137
-215
-243
-256
-270
-269
-260
-262
-267
-259
-249
-253
-261
-254
-239
-235
-244
-252
-255
-262
-272
-276
-281
-287
-278
-266
-257
-220
-169
-153
-186
-232
-244
-226
-217
-204
-196
-225
-210
-157
-237
-329
-73
743
2113
3152
2386
309
-777
-440
-165
-296
-266
-190
-243
-232
-174
-170
-157
-130
-111
-57
-4
10
42
105
153
206
283
341
371
410
451
452
418
395
366
283
174
94
29
-48
-129
-211
-259
-255
-266
-302
-287
-237
-225
-242
-249
-243
-239
-244
-242
-229
-232
-241
-240
-260
-297
-289
-250
-251
-263
-215
-147
-144
-195
-233
-239
-231
-207
-185
-224
-263
-195
-167
-296
-281
244
1412
2794
3003
1387
-338
-587
-201
-229
-314
-220
-229
-269
-207
-169
-170
-147
-131
-108
-42
7
15
50
121
179
227
287
336
373
418
437
407
370
343
293
211
121
37
-36
-110
-185
-233
-247
-263
-292
-300
-271
-238
-235
-251
-255
-240
-229
-232
-232
-228
-233
-244
-249
-241
-226
-240
-283
-292
-257
-250
-269
-238
-167
-133
-143
-158
-173
-191
-202
-201
-177
-159
-183
-183
-158
-226
-282
-2
862
2224
3039
2072
155
-659
-313
-144
-274
-231
-189
-245
-201
-131
-151
-157
-104
-67
-56
-30
18
68
113
161
210
257
308
348
367
379
392
384
359
324
259
176
110
47
-37
-119
-180
-220
-242
-251
-256
-249
-232
-220
-223
-236
-240
-225
-207
-215
-240
-251
-242
-236
-238
-241
-239
-240
-256
-274
-264
-237
-226
-217
-186
-148
-133
-163
-209
-214
-191
-187
-171
-150
-185
-196
-141
-194
-300
-120
585
1869
2992
2482
534
-676
-441
-127
-255
-280
-200
-227
-228
-164
-128
-112
-95
-81
-61
-37
2
53
100
144
195
247
300
354
379
360
347
377
395
352
291
233
155
72
-1
-87
-165
-196
-209
-228
-236
-233
-234
-231
-217
-208
-212
-220
-225
-226
-222
-223
-241
-270
-275
-243
-227
-249
-258
-248
-254
-252
-227
-218
-210
-166
-124
-138
-191
-213
-191
-179
-182
-174
-179
-167
-133
-193
-272
-85
619
1956
3083
2419
327
-829
-487
-174
-307
-275
-172
-219
-221
-161
-148
-136
-106
-84
-51
-6
24
40
76
147
212
243
285
347
375
365
362
359
327
276
227
175
105
21
-50
-105
-164
-219
-247
-248
-241
-238
-237
-244
-242
-220
-205
-212
-221
-225
-230
-229
-231
-242
-250
-255
-252
-247
-255
-272
-272
-252
-223
-192
-163
-153
-169
-191
-195
-201
-213
-192
-173
-191
-176
-164
-252
-270
77
1027
2445
3098
1853
-57
-646
-250
-165
-302
-236
-188
-230
-209
-167
-154
-125
-108
-107
-58
10
27
36
102
188
241
276
322
368
394
398
390
378
353
302
233
158
77
-11
-86
-139
-187
-235
-269
-268
-239
-223
-236
-243
-233
-232
-233
-223
-212
-210
-215
-230
-249
-256
-244
-229
-226
-229
-232
-242
-260
-263
-250
-233
-196
-148
-131
-138
-142
-163
-191
-191
-169
-159
-179
-185
-131
-130
-250
-237
228
1289
2600
2889
1428
-270
-588
-197
-180
-280
-205
-196
-229
-176
-144
-153
-123
-77
-57
-36
-2
25
56
117
187
226
258
314
361
377
387
396
376
327
273
228
167
70
-23
-73
-115
-178
-229
-238
-229
-231
-239
-228
-207
-211
-229
-227
-218
-221
-218
-211
-222
-232
-225
-228
-242
-240
-231
-235
-236
-222
-214
-223
-243
-257
-245
-220
-198
-166
-123
-101
-121
-160
-169
-153
-159
-169
-157
-154
-145
-145
-221
-247
71
976
2309
2949
1833
13
-623
-269
-146
-247
-190
-170
-213
-168
-141
-159
-110
-55
-61
-49
8
51
76
113
165
217
253
281
326
376
393
377
360
348
315
264
217
143
28
-49
-68
-117
-197
-223
-211
-220
-235
-232
-227
-226
-222
-218
-210
-205
-215
-231
-241
-249
-245
-231
-233
-245
-241
-233
-237
-233
-220
-228
-242
-231
-218
-227
-215
-158
-113
-121
-156
-181
-182
-165
-151
-157
-180
-166
-121
-165
-246
-108
522
1829
3066
2572
478
-818
-499
-117
-267
-278
-149
-175
-193
-137
-121
-116
-85
-55
-29
-2
24
52
83
137
215
276
311
342
358
355
357
362
347
295
226
179
141
60
-40
-103
-141
-186
-229
-249
-242
-230
-228
-227
-220
-215
-216
-216
-219
-231
-246
-244
-222
-211
-233
-254
-242
-237
-256
-257
-244
-256
-272
-254
-224
-202
-174
-141
-134
-174
-209
-188
-166
-185
-192
-187
-187
-148
-155
-272
-258
205
1315
2722
3011
1420
-355
-624
-195
-196
-301
-209
-192
-233
-192
-158
-164
-142
-95
-62
-39
-8
33
69
100
160
244
300
330
366
392
387
378
373
336
268
202
142
71
-14
-103
-177
-216
-233
-242
-242
-243
-255
-253
-230
-217
-223
-222
-211
-212
-220
-232
-250
-247
-225
-224
-242
-239
-235
-257
-272
-259
-247
-231
-176
-122
-134
-175
-184
-179
-193
-201
-179
-170
-198
-185
-137
-198
-282
-47
785
2147
3040
2189
277
-647
-352
-137
-250
-233
-177
-207
-200
-170
-154
-116
-90
-84
-57
-21
11
59
113
157
202
252
305
357
390
389
372
360
346
309
241
163
88
7
-66
-117
-171
-235
-263
-253
-247
-244
-232
-231
-232
-217
-214
-217
-205
-215
-248
-234
-196
-216
-251
-235
-215
-230
-236
-220
-222
-241
-243
-237
-248
-251
-211
-151
-118
-118
-141
-169
-173
-162
-168
-169
-159
-162
-139
-116
-208
-279
-5
828
2146
2985
2095
198
-653
-311
-109
-241
-234
-197
-224
-182
-141
-147
-120
-89
-78
-40
6
23
45
94
148
200
252
294
324
355
376
367
347
329
285
223
180
122
26
-47
-86
-142
-202
-234
-248
-244
-225
-232
-251
-233
-205
-207
-219
-223
-232
-231
-216
-216
-235
-248
-249
-242
-233
-232
-246
-252
-238
-225
-223
-201
-153
-125
-137
-155
-167
-193
-216
-189
-149
-176
-206
-159
-153
-240
-197
245
1354
2781
2957
1185
-577
-691
-203
-211
-280
-177
-193
-229
-158
-122
-131
-103
-75
-65
-35
15
56
88
129
184
240
292
342
370
369
364
372
370
338
283
226
162
79
-12
-84
-141
-198
-232
-233
-240
-260
-249
-222
-224
-232
-221
-219
-230
-234
-230
-226
-229
-241
-244
-240
-250
-250
-235
-254
-287
-265
-230
-240
-234
-178
-144
-148
-161
-183
-196
-190
-189
-187
-188
-191
-156
-159
-265
-254
164
1200
2616
3042
1536
-318
-675
-233
-196
-290
-205
-198
-225
-176
-171
-177
-120
-85
-88
-63
-15
32
71
98
151
238
298
318
347
379
378
352
335
320
278
210
130
44
-36
-99
-149
-195
-236
-262
-260
-245
-241
-244
-237
-224
-212
-204
-215
-242
-246
-218
-210
-233
-235
-217
-229
-248
-239
-233
-248
-258
-256
-250
-222
-167
-124
-127
-165
-188
-183
-187
-201
-173
-143
-166
-162
-134
-219
-287
12
923
2300
3031
1974
104
-617
-281
-142
-252
-208
-172
-208
-180
-145
-143
-120
-88
-57
-21
1
25
79
132
175
226
272
312
368
408
402
382
371
354
314
236
148
95
47
-50
-141
-172
-191
-224
-233
-224
-228
-228
-211
-201
-203
-204
-196
-185
-186
-203
-210
-199
-197
-209
-210
-208
-217
-213
-200
-204
-200
-177
-178
-194
-191
-202
-234
-230
-191
-163
-130
-85
-72
-105
-139
-144
-143
-147
-124
-107
-138
-136
-99
-174
-256
-1
801
2047
2832
2005
214
-624
-316
-110
-225
-209
-164
-202
-176
-128
-132
-119
-84
-68
-48
-14
20
56
98
149
205
251
289
328
350
353
359
362
335
282
232
186
116
30
-48
-120
-182
-214
-231
-252
-262
-257
-246
-238
-245
-252
-239
-223
-233
-249
-243
-236
-250
-259
-242
-232
-248
-267
-267
-252
-239
-239
-243
-251
-263
-259
-247
-249
-241
-194
-142
-129
-155
-190
-193
-173
-172
-172
-162
-183
-186
-151
-207
-284
-84
631
1921
2964
2303
328
-745
-416
-120
-249
-239
-167
-212
-193
-124
-123
-121
-79
-48
-25
7
36
71
121
173
223
277
320
354
391
411
405
403
396
355
299
242
165
85
31
-23
-97
-162
-190
-181
-170
-186
-195
-177
-164
-161
-148
-146
-158
-154
-146
-156
-165
-159
-150
-146
-150
-163
-164
-154
-162
-172
-153
-142
-164
-166
-130
-98
-69
-35
-39
-88
-122
-116
-110
-107
-93
-98
-98
-64
-97
-188
-90
452
1642
2952
2799
876
-660
-557
-109
-187
-239
-131
-151
-186
-141
-119
-106
-74
-59
-50
-21
23
69
96
117
169
231
270
302
342
360
340
306
279
250
201
132
48
-47
-131
-189
-237
-285
-323
-351
-368
-362
-344
-347
-360
-346
-320
-325
-350
-356
-345
-346
-359
-363
-356
-360
-381
-392
-381
-371
-381
-403
-410
-388
-367
-366
-349
-301
-276
-289
-297
-292
-305
-327
-315
-287
-307
-322
-252
-236
-360
-362
55
1070
2452
2919
1529
-274
-674
-255
-206
-303
-222
-206
-229
-168
-134
-133
-94
-51
-13
39
79
113
162
217
286
371
442
503
564
595
595
602
609
584
545
504
441
364
293
229
176
145
129
121
124
