# session 4
31
-48
139
196
-380
-1100
-1191
-933
-908
-985
-944
-884
-837
-766
-700
-638
-572
-517
-460
-394
-344
-298
-239
-209
-252
-333
-391
-396
-337
-227
-118
-45
-15
-46
-121
-178
-205
-233
-258
-283
-333
-384
-407
-428
-438
-404
-370
-361
-317
-248
-179
-59
29
-57
-160
48
842
2024
2388
1150
-341
-589
-203
-157
-198
-76
-36
-85
-87
-83
-94
-81
-46
-21
-10
21
97
163
148
80
44
47
45
56
105
154
194
238
239
172
96
46
0
-39
-54
-64
-80
-89
-98
-109
-89
-61
-78
-114
-142
-189
-195
-165
-237
-318
-101
630
1852
2648
1760
-80
-818
-404
-220
-349
-262
-177
-245
-218
-101
-37
11
81
117
106
81
55
47
74
89
49
15
28
54
88
138
150
109
79
73
34
-38
-84
-105
-144
-168
-140
-132
-181
-214
-204
-209
-241
-270
-288
-309
-334
-345
-360
-408
-356
137
1203
2072
1572
37
-824
-568
-266
-291
-258
-212
-273
-276
-217
-169
-78
22
68
128
234
310
332
339
334
295
236
182
145
127
113
73
22
-2
-21
-67
-114
-143
-177
-216
-244
-253
-258
-278
-297
-274
-233
-233
-267
-287
-299
-323
-322
-316
-378
-415
-146
684
1819
2135
922
-594
-906
-463
-317
-368
-281
-215
-233
-233
-219
-191
-129
-64
-8
53
113
167
211
220
186
134
92
64
41
29
27
10
-11
-5
-2
-36
-62
-68
-102
-148
-149
-131
-139
-145
-115
-78
-84
-126
-146
-154
-181
-150
-79
-128
-204
-19
652
1887
2830
2060
111
-857
-551
-343
-470
-432
-360
-382
-325
-218
-137
-54
12
52
106
156
178
191
187
145
84
23
-32
-62
-66
-79
-109
-127
-125
-132
-159
-193
-227
-266
-305
-331
-348
-366
-378
-362
-333
-344
-395
-412
-391
-388
-347
-262
-298
-413
-304
341
1729
3074
2697
748
-496
-334
-129
-302
-294
-193
-212
-176
-84
-45
1
67
95
121
173
211
212
175
112
63
38
19
18
43
53
29
-2
-15
-20
-37
-65
-79
-85
-103
-126
-134
-129
-112
-81
-50
-46
-86
-144
-175
-200
-240
-245
-261
-379
-443
-217
379
1237
1671
917
-343
-736
-383
-219
-261
-190
-126
-132
-110
-67
-37
-9
12
29
32
26
42
71
77
72
65
36
5
5
16
5
-25
-62
-105
-137
-132
-94
-68
-76
-102
-133
-159
-156
-132
-125
-130
-138
-184
-238
-228
-220
-253
-222
-198
-330
-410
-146
607
1793
2436
1447
-180
-656
-279
-207
-326
-262
-219
-237
-195
-158
-135
-76
-21
17
71
122
139
126
97
61
17
-33
-60
-42
0
25
30
35
33
-1
-49
-87
-115
-149
-197
-245
-265
-260
-252
-229
-170
-108
-103
-134
-131
-121
-138
-120
-119
-230
-297
-71
734
2148
2966
1849
-73
-709
-330
-232
-325
-238
-204
-234
-182
-137
-117
-63
-15
25
88
141
160
156
117
51
-16
-80
-137
-166
-163
-127
-70
-36
-36
-30
-23
-47
-85
-114
-146
-171
-164
-150
-156
-160
-138
-136
-193
-240
-235
-264
-302
-261
-297
-452
-395
47
879
1870
1950
612
-615
-565
-199
-280
-334
-227
-212
-189
-109
-102
-128
-109
-80
-48
-13
10
31
50
41
11
-15
-27
-19
1
14
24
37
41
30
3
-42
-82
-110
-150
-202
-228
-232
-241
-243
-216
-177
-171
-201
-208
-185
-203
-222
-189
-240
-390
-385
98
1335
2720
2616
856
-488
-444
-182
-281
-289
-223
-266
-257
-182
-155
-128
-69
-19
32
92
143
185
210
205
194
192
176
145
128
124
103
70
40
10
-21
-50
-88
-129
-160
-189
-217
-233
-248
-254
-217
-152
-124
-148
-172
-171
-182
-191
-155
-172
-294
-320
-12
838
2021
2314
968
-544
-706
-263
-241
-317
-214
-188
-218
-167
-118
-96
-48
6
45
78
116
158
178
147
85
30
-21
-62
-72
-72
-87
-103
-110
-120
-124
-128
-154
-192
-220
-245
-274
-280
-248
-231
-260
-273
-231
-209
-252
-284
-294
-342
-367
-341
-377
-409
-199
476
1704
2618
1813
-117
-988
-557
-260
-344
-286
-192
-192
-146
-94
-77
-18
47
66
90
136
162
175
192
180
124
72
45
23
13
22
16
-21
-55
-66
-81
-109
-134
-163
-209
-235
-226
-224
-243
-256
-254
-230
-212
-244
-281
-281
-296
-294
-209
-195
-312
-240
406
1702
2865
2472
644
-579
-409
-81
-157
-159
-85
-121
-106
-23
7
25
70
109
148
198
251
298
316
288
218
140
89
56
22
-12
-48
-82
-94
-99
-120
-129
-112
-119
-179
-239
-253
-237
-234
-257
-280
-270
-251
-276
-315
-313
-317
-347
-330
-328
-415
-397
-4
937
2106
2232
724
-784
-862
-398
-377
-433
-351
-366
-377
-276
-191
-129
-41
29
87
164
233
279
304
284
209
110
23
-33
-55
-62
-70
-83
-97
-110
-125
-145
-164
-176
-201
-245
-270
-256
-245
-260
-267
-236
-200
-211
-236
-224
-228
-259
-224
-210
-342
-405
-72
936
2502
3240
1913
-67
-639
-290
-279
-396
-309
-297
-344
-293
-237
-211
-161
-101
-34
32
64
82
104
86
34
-7
-39
-76
-98
-93
-86
-91
-99
-102
-99
-95
-91
-86
-86
-94
-94
-87
-97
-131
-154
-143
-118
-130
-183
-198
-173
-190
-193
-143
-191
-299
-160
505
1834
3055
2595
640
-595
-427
-188
-324
-326
-247
-269
-248
-189
-164
-121
-61
-19
27
83
125
143
132
97
51
1
-39
-52
-51
-60
-78
-92
-110
-132
-147
-162
-180
-191
-198
-218
-243
-245
-231
-223
-214
-191
-161
-149
-178
-218
-244
-276
-277
-240
-294
-397
-289
224
1230
2170
1799
201
-809
-597
-301
-365
-337
-229
-217
-182
-106
-49
25
95
123
148
169
164
173
214
224
167
82
29
39
61
26
-32
-42
-38
-73
-111
-121
-136
-165
-189
-221
-263
-285
-277
-266
-264
-248
-197
-155
-178
-219
-211
-205
-222
-196
-221
-368
-406
-43
978
2411
2817
1323
-397
-658
-281
-319
-397
-274
-241
-250
-180
-125
-88
-21
51
117
177
225
254
246
203
153
107
69
62
85
114
135
133
109
75
33
-22
-77
-124
-159
-191
-235
-276
-288
-289
-305
-314
-286
-246
-247
-272
-273
-283
-318
-299
-273
-359
-389
-91
690
1853
2395
1277
-437
-901
-433
-276
-352
-271
-224
-232
-165
-108
-81
-15
52
96
148
198
219
213
184
137
76
24
4
10
12
12
18
15
-6
-34
-56
-61
-50
-49
-77
-118
-139
-128
-118
-133
-145
-124
-104
-130
-149
-116
-120
-166
-144
-160
-306
-311
61
898
2043
2389
1101
-431
-631
-216
-229
-336
-253
-235
-252
-190
-135
-91
-24
24
55
96
119
106
71
21
-38
-92
-122
-126
-114
-102
-98
-99
-104
-111
-116
-125
-154
-199
-230
-242
-265
-294
-301
-294
-285
-251
-202
-192
-229
-248
-228
-228
-237
-193
-191
-305
-368
-143
615
1807
2314
1244
-228
-573
-241
-197
-268
-184
-138
-136
-73
-13
29
83
128
162
207
246
262
246
202
153
118
95
85
79
78
90
102
89
61
34
0
-37
-69
-107
-148
-175
-190
-205
-214
-218
-221
-210
-183
-190
-241
-263
-252
-264
-250
-218
-296
-379
-178
482
1544
2214
1446
-119
-748
-387
-186
-258
-199
-131
-130
-75
-31
-38
-4
64
109
143
187
225
233
203
144
71
5
-20
-11
-13
-26
-20
-14
-47
-100
-139
-168
-198
-220
-231
-242
-253
-248
-235
-235
-242
-224
-187
-198
-255
-261
-226
-243
-246
-190
-230
-320
-174
395
1460
2407
1936
241
-741
-466
-181
-286
-297
-238
-248
-205
-136
-116
-75
-2
54
92
117
110
88
80
68
15
-65
-113
-104
-72
-57
-60
-61
-61
-75
-101
-125
-146
-167
-183
-201
-225
-234
-227
-224
-218
-192
-166
-177
-215
-227
-217
-239
-234
-186
-255
-395
-321
211
1393
2625
2373
615
-570
-390
-100
-192
-173
-74
-78
-47
16
38
83
143
169
195
230
238
226
198
140
72
26
6
-1
1
5
1
-12
-24
-33
-48
-67
-89
-120
-152
-181
-204
-207
-202
-221
-236
-197
-143
-147
-198
-226
-220
-229
-227
-187
-224
-332
-264
210
1134
1965
1647
269
-619
-450
-203
-276
-266
-184
-196
-193
-156
-152
-130
-70
-13
40
92
126
146
147
112
58
10
-33
-68
-84
-96
-125
-163
-192
-221
-255
-275
-270
-250
-224
-200
-187
-169
-142
-130
-128
-105
-71
-72
-109
-136
-136
-152
-164
-130
-159
-288
-299
53
959
2102
2240
890
-405
-485
-185
-234
-268
-178
-187
-200
-141
-110
-92
-36
18
65
126
168
164
135
103
60
2
-46
-52
-19
4
-12
-34
-30
-23
-46
-85
-114
-134
-167
-207
-233
-249
-265
-269
-266
-255
-204
-132
-124
-162
-155
-132
-147
-129
-94
-170
-258
-118
524
1868
3009
2333
326
-734
-450
-208
-310
-272
-194
-209
-179
-122
-80
-16
32
55
115
189
225
234
223
172
93
31
-1
-14
-6
9
-2
-37
-67
-88
-115
-152
-182
-189
-196
-235
-277
-280
-271
-274
-277
-268
-245
-236
-268
-291
-282
-304
-315
-273
-317
-417
-260
353
1422
2331
1847
129
-887
-583
-241
-325
-299
-188
-204
-196
-139
-124
-102
-60
-39
-24
-11
-11
-2
17
13
-18
-51
-62
-53
-40
-35
-35
-34
-28
-28
-41
-69
-106
-135
-148
-162
-189
-208
-211
-218
-226
-207
-165
-150
-181
-206
-201
-214
-215
-166
-205
-366
-373
143
1489
3088
3155
1251
-428
-519
-213
-329
-361
-241
-253
-251
-163
-132
-126
-79
-36
2
57
103
129
148
151
136
118
106
104
92
54
16
-2
-15
-24
-23
-28
-45
-68
-96
-121
-139
-166
-189
-195
-201
-205
-175
-133
-132
-175
-213
-226
-239
-243
-221
-256
-366
-345
90
1084
2110
1960
526
-582
-528
-238
-275
-276
-196
-213
-211
-148
-120
-97
-40
15
60
110
147
165
173
163
128
88
61
38
4
-40
-87
-124
-144
-159
-170
-167
-155
-148
-145
-143
-148
-167
-187
-189
-181
-187
-194
-180
-165
-197
-269
-313
-324
-361
-387
-366
-403
-459
-300
263
1337
2334
1940
265
-770
-512
-174
-230
-208
-112
-110
-83
-38
-45
-23
46
96
135
182
214
232
247
233
176
110
69
59
53
21
-17
-31
-33
-53
-86
-117
-141
-162
-178
-181
-180
-196
-212
-215
-227
-246
-248
-234
-225
-233
-252
-245
-229
-251
-241
-189
-243
-325
-125
602
1949
3064
2419
426
-660
-379
-144
-273
-237
-154
-182
-145
-82
-72
-28
44
84
126
185
223
229
205
148
76
10
-40
-62
-70
-89
-112
-123
-134
-147
-153
-163
-180
-193
-205
-215
-219
-239
-275
-291
-286
-289
-286
-260
-233
-247
-293
-308
-300
-322
-313
-269
-333
-404
-187
471
1599
2488
1842
73
-785
-397
-125
-247
-227
-159
-189
-158
-92
-74
-42
1
34
98
171
203
212
216
191
136
79
35
0
-33
-64
-85
-98
-115
-134
-145
-158
-173
-186
-195
-204
-216
-238
-259
-260
-250
-242
-222
-190
-167
-169
-196
-212
-197
-204
-217
-173
-190
-338
-378
31
1169
2647
2923
1334
-313
-520
-182
-227
-300
-229
-233
-244
-207
-187
-134
-48
6
60
142
212
263
298
291
244
191
146
109
73
33
-15
-67
-104
-117
-133
-157
-166
-164
-169
-179
-188
-195
-206
-230
-260
-281
-292
-295
-271
-225
-188
-186
-218
-251
-250
-247
-263
-237
-218
-309
-354
-71
726
1873
2347
1271
-288
-712
-333
-219
-286
-213
-177
-195
-142
-86
-59
-5
52
93
151
219
258
264
251
215
168
125
86
51
36
25
-9
-44
-58
-70
-92
-103
-104
-120
-149
-176
-193
-202
-213
-228
-237
-235
-231
-228
-220
-201
-174
-174
-209
-220
-208
-238
-248
-216
-284
-380
-221
392
1606
2751
2269
319
-841
-544
-230
-346
-314
-211
-245
-233
-166
-135
-76
15
71
119
191
255
286
283
245
193
149
113
90
82
59
15
-20
-37
-59
-85
-109
-134
-159
-182
-209
-231
-238
-245
-267
-293
-297
-283
-276
-279
-261
-222
-209
-237
-259
-240
-233
-262
-245
-222
-314
-368
-111
704
2131
3061
2041
21
-738
-320
-171
-313
-250
-186
-213
-178
-130
-104
-46
17
69
130
180
209
223
208
160
105
62
28
6
-5
-24
-61
-95
-113
-127
-143
-156
-169
-185
-202
-220
-241
-258
-265
-273
-290
-290
-272
-270
-270
-239
-201
-199
-234
-255
-241
-246
-253
-206
-223
-339
-289
187
1249
2475
2472
828
-599
-578
-193
-258
-301
-201
-209
-212
-139
-105
-77
-11
45
98
170
237
282
298
278
237
197
159
123
91
51
-6
-68
-114
-138
-151
-162
-175
-186
-194
-204
-220
-230
-229
-228
-229
-230
-235
-239
-235
-223
-200
-162
-133
-143
-189
-216
-207
-220
-236
-201
-215
-318
-295
142
1181
2331
2264
738
-512
-479
-147
-193
-222
-133
-130
-132
-78
-44
-10
44
88
134
191
234
255
256
231
186
136
95
69
59
52
24
-20
-50
-58
-66
-83
-100
-117
-136
-150
-158
-172
-191
-204
-205
-208
-229
-252
-247
-226
-210
-189
-155
-142
-177
-213
-202
-194
-225
-208
-164
-232
-292
-75
616
1849
2779
2049
223
-648
-342
-157
-278
-237
-176
-209
-175
-113
-86
-34
32
76
125
182
225
244
233
193
141
94
61
41
28
14
-11
-57
-105
-131
-156
-195
-226
-242
-258
-274
-281
-286
-294
-296
-295
-302
-316
-324
-321
-319
-316
-296
-257
-221
-221
-259
-278
-269
-290
-297
-253
-286
-373
-273
210
1318
2626
2528
666
-793
-652
-227
-312
-344
-232
-239
-229
-151
-123
-89
-7
55
94
158
229
255
240
217
184
124
67
43
43
46
33
0
-31
-40
-55
-89
-118
-130
-145
-168
-187
-201
-219
-234
-232
-225
-229
-232
-213
-190
-177
-153
-119
-122
-159
-164
-130
-127
-125
-75
-90
-167
-71
378
1407
2756
2934
1241
-416
-494
-38
-54
-109
9
34
16
81
