# session 14
38
14
74
-84
-543
-841
-770
-745
-982
-1136
-1025
-880
-789
-651
-565
-568
-414
-146
-91
-156
-140
-216
-227
12
-162
-518
567
2484
2452
571
-471
-187
101
202
355
267
22
-82
-247
-570
-676
-572
-683
-847
-643
-135
887
2240
2098
-79
-1688
-1331
-652
-569
-463
-292
-301
-342
-378
-414
-372
-243
-30
146
310
654
775
569
985
2003
2790
3247
2192
-585
-877
2328
3109
144
-1279
-416
-333
-729
-521
-476
-705
-723
-674
-637
-590
-685
-807
-664
29
1300
1990
772
-1258
-1893
-1273
-938
-1044
-989
-859
-898
-931
-779
-570
-488
-466
-370
-219
-26
253
458
239
-425
-950
-821
-351
-122
-41
208
424
382
302
319
274
171
129
55
-99
-183
-267
-490
-615
-497
-375
-334
-69
1030
2933
3754
2035
-267
-762
-266
-278
-492
-457
-440
-511
-541
-557
-523
-299
-75
-144
170
1685
3073
2361
444
-439
-262
-188
-311
-304
-216
-128
-130
-267
-358
-304
-195
-74
-20
-138
-282
-331
-420
-531
-539
-584
-729
-707
-76
1479
2988
2482
195
-1254
-1084
-812
-899
-831
-739
-685
-560
-572
-477
-208
-472
-480
1249
2914
2003
204
8
503
371
163
264
291
167
79
87
75
-82
-263
-337
-400
-472
-530
-691
-875
-836
-647
-500
-412
-433
-547
-361
689
2425
3197
1703
-532
-1237
-749
-460
-409
-138
291
386
29
438
2223
3220
1801
-94
-480
-149
-115
-124
-84
-189
-269
-247
-288
-351
-326
-325
-422
-467
-373
-313
-420
-528
-497
-513
-696
-834
-816
-755
-658
-594
-721
-852
-642
183
1643
2532
1383
-697
-1402
-948
-806
-890
-694
-492
-371
-163
-52
-139
-182
-49
177
410
576
651
666
582
429
362
312
100
-106
-111
-86
-136
-183
-312
-482
-448
-348
-460
-558
-435
-323
-323
-266
-154
-157
-319
-515
-460
462
2378
3515
2056
-386
-949
-276
-415
-232
1807
3425
2272
175
-491
-345
-428
-421
-214
-125
-98
-31
-4
-30
-133
-302
-355
-249
-207
-287
-342
-406
-500
-400
-150
-80
-170
-235
-382
-610
-671
-585
-563
-605
-646
-684
-654
-312
763
2259
2595
1047
-749
-1196
-748
-592
-751
-143
1100
1158
-43
-516
-4
297
398
616
587
332
236
299
322
234
64
-142
-351
-553
-697
-649
-391
-182
-203
-328
-451
-552
-501
-231
40
-17
-432
-756
-650
-472
-553
-601
-303
733
2551
3264
1509
-54
1077
2989
3411
2510
828
-725
-1076
-789
-753
-688
-453
-288
-94
115
192
219
151
-10
52
229
67
-260
-382
-474
-627
-623
-569
-683
-841
-918
-956
-952
-907
-841
-738
-633
-577
-619
-757
-841
-773
-314
785
1323
63
-900
380
1274
-39
-975
-347
184
279
387
126
-317
-352
-133
59
268
447
445
318
242
118
-256
-569
-441
-230
-327
-438
-329
-205
-117
27
63
-118
-309
-352
-332
-325
-297
-300
-360
-307
-261
-447
-139
1320
2862
3492
3688
3224
1423
-357
-671
-388
-427
-393
-177
-91
-72
-4
60
112
179
301
431
424
298
174
56
-62
-171
-276
-342
-410
-544
-624
-579
-601
-774
-904
-861
-724
-546
-328
-268
-524
-788
-791
-762
-780
-478
475
2015
3133
2446
533
-480
-209
78
37
46
49
-24
-112
-229
-255
-214
-312
-332
-54
98
-160
-434
-436
-332
-290
-361
-574
-796
-778
-504
-193
34
156
83
-138
-278
-289
-296
-296
-278
-222
-19
-4
-431
-114
1807
3423
3075
2418
2646
1965
-96
-1305
-1028
-723
-817
-827
-772
-729
-610
-511
-446
-343
-317
-357
-187
188
384
248
46
-7
-5
-92
-204
-266
-364
-509
-575
-552
-513
-541
-697
-793
-703
-651
-567
-367
-606
-821
618
2884
3001
992
-55
1066
2472
2156
327
-1059
-1012
-539
-482
-502
-430
-528
-680
-622
-498
-521
-604
-633
-582
-346
-15
46
-205
-389
-349
-288
-300
-210
97
424
520
365
79
-145
-208
-256
-210
12
-285
-968
-260
1768
2795
2592
2269
1219
-351
-369
1361
2674
2044
109
-1176
-1039
-620
-633
-651
-543
-503
-482
-480
-524
-517
-502
-553
-541
-442
-463
-610
-652
-570
-539
-574
-582
-569
-566
-516
-379
-288
-306
-239
-151
-223
-81
182
-176
-260
1185
2370
1390
-117
-374
-62
329
1352
2445
2051
227
-1070
-1006
-673
-636
-565
-501
-489
-411
-448
-556
-472
-351
-319
-190
14
126
163
208
303
321
107
-104
-47
72
53
-20
-78
-37
124
158
44
38
114
311
1024
2173
2879
2298
660
-671
-834
-466
-67
1006
2505
2489
478
-1211
-1178
-693
-742
-851
-729
-535
-365
-337
-425
-475
-504
-503
-384
-251
-191
-112
-61
-170
-337
-401
-420
-455
-416
-323
-290
-235
-131
-203
-395
-440
-557
-877
-845
-379
-195
-383
-370
-148
-127
-251
-56
747
1843
2255
1278
-308
-1010
-670
-332
-438
-601
-616
-592
-585
-586
-562
-457
-318
-227
-109
89
201
153
102
96
38
-58
-90
55
417
671
468
216
484
930
1008
933
921
736
405
211
99
-51
-123
-160
-303
-356
3
1029
2651
3547
2244
-135
-1185
-911
-769
-850
-738
-726
-850
-762
-589
-601
-654
-594
-500
-388
-231
-97
-9
79
131
94
-36
-264
-503
-516
-256
-53
-104
-83
254
483
241
-48
56
241
116
-131
-183
-112
-173
-288
-174
270
1271
2633
2767
955
-715
-750
-460
-726
-826
-644
-556
-392
-155
-148
-268
-272
-190
-85
48
166
276
445
559
437
214
46
-99
268
1505
2339
1562
250
-271
-367
-511
-489
-380
-412
-446
-377
-343
-392
-429
-478
-621
-620
123
1735
2895
1993
-232
-1445
-1185
-826
-906
-978
-920
-894
-934
-965
-868
-672
-526
-359
-134
-100
-100
134
100
-21
861
1766
796
-807
-905
-212
-10
-23
7
-101
-209
-196
-183
-210
-226
-216
-238
-318
-370
-428
-534
-431
59
964
2177
2573
1102
-810
-1214
-729
-655
-769
-687
-610
-562
-452
-326
-255
-247
-118
157
311
455
698
770
1252
2293
1888
165
481
2186
1417
-703
-916
-228
-254
-279
-150
-315
-385
-241
-265
-422
-465
-388
-369
-501
-587
-397
304
1672
2663
1735
-325
-1294
-1083
-983
-1083
-1014
-935
-919
-916
-843
-622
-596
-666
122
1536
2183
2089
1991
1477
516
81
214
212
98
104
28
-176
-302
-358
-452
-529
-524
-446
-301
-160
-156
-266
-333
-334
-416
-569
-520
-102
761
2045
2739
1595
-394
-1113
-705
-560
-673
-562
-446
-430
-345
-233
-134
6
146
259
394
505
480
323
148
23
-50
-80
-106
-169
-237
-280
-314
-330
-295
-233
-188
-153
-95
-36
-36
-81
-123
-175
-217
-242
-343
-482
-432
-1
994
2145
2081
477
-845
-766
-345
-370
-416
-330
-326
-333
-298
-304
-319
-281
-199
-80
40
103
117
106
63
19
6
-19
-81
-125
-139
-161
-184
-175
-153
-157
-181
-185
-173
-183
-192
-179
-199
-208
-135
-149
-286
-201
387
1554
2787
2654
823
-729
-764
-392
-398
-347
-197
-201
-204
-131
-106
-89
-32
20
88
157
138
78
93
128
104
73
64
21
-43
-76
-91
-109
-104
-74
-60
-58
-29
-10
-52
-92
-95
-128
-144
-84
-118
-276
-270
102
973
2083
2178
705
-706
-809
-501
-546
-544
-402
-370
-346
-231
-134
-83
-44
-3
55
115
149
154
133
113
134
156
114
57
59
50
-46
-143
-151
-146
-221
-300
-268
-181
-179
-218
-204
-234
-318
-292
-257
-401
-496
-89
1125
2617
2717
901
-775
-868
-478
-508
-516
-388
-375
-356
-253
-176
-107
-12
89
191
267
288
262
208
153
106
64
46
33
-8
-38
-36
-69
-137
-168
-182
-238
-298
-296
-278
-299
-318
-323
-358
-362
-297
-314
-423
-253
549
1598
1742
517
-807
-976
-513
-350
-374
-309
-264
-212
-93
-33
-12
108
276
383
441
481
488
430
321
238
202
139
60
31
12
-14
3
3
-58
-75
-64
-133
-169
-93
-95
-215
-251
-221
-258
-260
-188
-224
-236
248
1176
1591
786
-459
-870
-503
-238
-244
-218
-152
-120
-85
-42
3
56
130
242
352
390
367
319
237
142
91
86
76
49
34
33
12
-37
-81
-102
-127
-170
-191
-172
-171
-205
-215
-218
-253
-248
-238
-364
-480
-222
605
1604
1700
487
-698
-734
-359
-377
-443
-323
-282
-314
-261
-172
-106
-31
58
135
172
158
110
54
10
-3
15
32
40
55
45
-13
-45
-59
-137
-82
294
575
317
-147
-299
-237
-279
-360
-297
-275
-468
-560
-184
767
1956
2171
792
-628
-698
-289
-314
-368
-262
-253
-252
-167
-117
-85
-9
65
108
124
104
63
22
1
15
52
80
88
74
33
-22
-70
-102
-116
-131
-143
-113
-69
-90
-139
-139
-143
-165
-126
-129
-283
-376
-76
816
1902
1959
609
-589
-567
-230
-283
-319
-218
-210
-209
-136
-84
-35
45
109
158
198
185
127
85
74
79
97
112
98
65
28
-29
-105
-155
-162
-166
-193
-197
-154
-126
-146
-159
-159
-179
-166
-130
-215
-405
-375
289
1477
2052
1116
-302
-704
-397
-323
-393
-326
-282
-285
-228
-166
-125
-67
-10
34
74
84
55
21
8
14
37
61
69
57
25
-24
-76
-122
-155
-172
-180
-188
-172
-138
-140
-174
-192
-207
-224
-201
-193
-285
-404
-272
450
1478
1617
444
-654
-660
-323
-318
-334
-232
-202
-190
-119
-67
-34
31
102
153
193
204
170
124
111
129
152
159
150
132
107
71
28
-17
-57
-84
-94
-92
-71
-48
-61
-98
-125
-135
-110
-96
-198
-341
-233
430
1524
2013
1053
-348
-698
-330
-237
-314
-247
-207
-222
-166
-95
-53
9
88
160
209
211
181
157
141
145
185
209
174
126
93
43
-21
-70
-101
-117
-133
-156
-168
-163
-169
-186
-208
-253
-276
-232
-243
-335
-285
156
1073
1868
1389
-162
-1018
-679
-321
-364
-350
-272
-254
-187
-122
-114
-37
105
206
265
285
235
170
152
157
159
152
131
112
100
62
-13
-87
-129
-143
-167
-219
-252
-234
-228
-267
-285
-284
-315
-305
-263
-336
-410
-151
561
1419
1548
437
-813
-928
-447
-325
-354
-242
-198
-211
-130
-30
31
109
208
287
329
325
261
157
87
77
77
67
64
55
41
34
2
-44
-54
-67
-130
-162
-133
-145
-198
-202
-228
-294
-245
-215
-401
-454
-100
514
1307
1682
789
-532
-782
-369
-321
-413
-314
-265
-279
-214
-136
-75
33
141
168
141
116
74
13
-23
-44
-49
-17
-35
-86
-56
-121
-260
142
1119
1733
1536
909
173
-385
-503
-410
-444
-492
-408
-384
-523
-583
-244
724
1908
1972
531
-738
-725
-383
-431
-453
-350
-359
-364
-276
-201
-131
-35
49
129
203
209
145
87
83
119
137
95
35
21
23
-20
-86
-116
-124
-163
-224
-239
-209
-201
-222
-230
-260
-319
-294
-201
-244
-398
-278
477
1641
2091
974
-630
-1051
-544
-300
-360
-293
-194
-151
-76
-11
28
120
258
391
494
512
440
377
342
268
176
136
138
118
61
28
35
0
-77
-118
-144
-196
-211
-187
-217
-280
-285
-294
-355
-344
-286
-346
-324
205
1134
1635
969
-374
-1044
-734
-380
-382
-368
-273
-242
-187
-105
-85
-41
85
200
270
313
292
199
111
66
32
-4
-33
-60
-80
-80
-77
-102
-136
-145
-154
-205
-249
-235
-226
-263
-287
-303
-326
-303
-309
-426
-512
-302
665
2296
2877
1273
-624
-884
-442
-471
-550
-424
-392
-384
-295
-228
-160
-43
63
137
186
191
161
122
87
63
55
51
27
-2
10
47
42
-13
-59
-66
-76
-112
-126
-103
-109
-148
-170
-190
-185
-155
-240
-412
-379
238
1696
3091
2584
432
-868
-629
-346
-467
-441
-340
-339
-290
-194
-124
-53
41
181
324
370
346
324
290
234
160
77
33
23
-15
-42
-18
-39
-148
-224
-206
-189
-216
-215
-182
-207
-290
-348
-328
-260
-268
-393
-520
-534
55
1729
3176
2365
170
-853
-618
-511
-596
-539
-533
-531
-423
-345
-275
-168
-117
-57
92
171
92
2
-21
-66
-142
-154
-158
-239
-264
-179
-192
-289
-222
-107
-174
-194
-39
-56
-236
-208
-139
-317
-385
-164
-110
-304
-358
-233
125
1026
1809
1228
-230
-846
-470
-211
-268
-229
-143
-130
-99
-41
8
54
120
243
359
392
432
483
426
309
189
81
303
1073
1819
1694
725
-162
-394
-313
-296
-298
-278
-264
-243
-259
-293
-306
-387
-453
-338
-280
-448
-501
-291
193
1274
2261
1540
-358
-1169
-734
-497
-580
-475
-358
-340
-312
-314
-269
-109
-11
-13
61
219
285
210
134
126
71
-70
-140
-112
-159
-269
-268
-208
-226
-211
-101
-92
-203
-211
-133
-156
-219
-224
-273
-351
-329
-312
-390
-413
-183
617
1844
2142
756
-732
-859
-411
-368
-450
-369
-303
-269
-188
-134
-110
-12
111
135
154
287
361
241
143
179
146
32
36
115
97
15
-14
52
156
160
65
39
55
-17
-74
-27
-7
-53
-69
-61
-82
-128
-174
-146
247
1314
2411
2113
474
-682
-629
-356
-367
-352
-299
-333
-349
-286
-214
-155
-67
43
133
214
255
208
153
108
31
27
55
-74
-194
-113
-73
-174
-181
-119
-135
-108
-17
-45
-152
-153
-105
-157
-284
-354
-301
-229
-290
-388
-343
-26
909
2209
2305
637
-838
-776
-326
-403
-448
-242
-182
-241
-197
-123
-94
-12
121
182
176
195
241
246
152
23
0
6
-76
-111
-73
-141
-218
-171
-148
-148
-97
-173
-312
-234
-100
-130
-136
-74
-119
-144
-44
-44
-156
-127
89
646
1643
2104
1055
-442
-793
-379
-272
-358
-272
-237
-334
-311
-142
-24
3
70
218
310
259
207
259
259
129
31
-34
-166
-242
-191
-195
-298
-353
-328
-302
-310
-338
-365
-391
-406
-390
-382
-409
-431
-451
-449
-385
-406
-546
-461
78
1095
2230
2206
564
-859
-830
-468
-501
-435
-318
-389
-341
-182
-196
-218
-42
165
270
340
402
414
369
331
336
310
224
184
191
144
79
82
96
74
92
138
75
-15
65
160
71
7
80
64
7
135
