# session 41
-22
-48
8
46
-114
-362
-431
-385
-406
-404
-298
-228
-248
-269
-273
-291
-290
-276
-300
-303
-248
-249
-284
-241
-242
-312
-155
470
1611
2673
2356
688
-437
-288
-56
-217
-238
-140
-171
-185
-128
-127
-151
-103
-25
5
13
46
84
106
143
194
241
288
327
345
375
428
454
449
465
489
464
387
294
196
100
21
-57
-153
-224
-228
-211
-224
-239
-227
-210
-208
-211
-215
-215
-204
-210
-243
-243
-201
-190
-217
-221
-209
-214
-218
-209
-215
-232
-221
-190
-181
-194
-198
-191
-182
-171
-163
-160
-164
-176
-173
-144
-127
-148
-159
-132
-110
-121
-136
-131
-116
-100
-96
-110
-121
-110
-93
-91
-100
-100
-86
-81
-96
-109
-93
-48
2
8
-20
-19
-9
-50
-94
-87
-83
-87
-59
-54
-71
-57
-95
-169
-29
551
1681
2781
2499
815
-359
-224
34
-108
-132
-40
-71
-86
-46
-44
-41
-11
18
37
37
49
113
178
198
216
260
310
355
392
419
435
440
454
477
449
371
317
285
196
61
-55
-145
-211
-243
-270
-304
-309
-296
-316
-336
-299
-255
-266
-287
-273
-261
-269
-276
-289
-303
-286
-261
-263
-267
-266
-283
-283
-251
-239
-253
-257
-252
-242
-222
-215
-224
-221
-209
-209
-212
-205
-190
-178
-185
-209
-207
-166
-136
-154
-191
-191
-149
-102
-73
-57
-61
-86
-109
-111
-106
-117
-129
-125
-131
-129
-86
-97
-180
-112
374
1459
2679
2638
986
-417
-380
7
-69
-139
-66
-91
-102
-38
-20
-19
7
14
28
77
115
130
163
207
226
244
318
407
440
439
463
498
505
487
459
419
336
209
99
37
-23
-115
-214
-273
-280
-269
-269
-275
-282
-285
-267
-240
-230
-235
-241
-238
-234
-242
-255
-254
-239
-232
-232
-228
-228
-235
-232
-218
-214
-217
-218
-220
-218
-208
-196
-191
-192
-199
-196
-171
-159
-172
-174
-157
-155
-159
-152
-155
-175
-184
-162
-120
-80
-54
-45
-57
-82
-101
-108
-118
-118
-100
-109
-129
-92
-95
-198
-156
307
1299
2469
2623
1213
-235
-371
0
-41
-143
-93
-117
-126
-46
-27
-43
-9
14
15
50
93
117
147
176
202
248
305
350
390
431
460
470
473
474
462
419
341
243
139
37
-59
-135
-193
-254
-296
-291
-277
-295
-307
-284
-259
-256
-257
-254
-252
-249
-249
-254
-262
-273
-281
-265
-232
-223
-243
-252
-244
-241
-239
-228
-222
-224
-228
-235
-232
-209
-187
-184
-185
-181
-174
-171
-173
-168
-156
-167
-195
-192
-144
-95
-67
-47
-53
-100
-139
-123
-101
-114
-119
-113
-125
-112
-86
-141
-188
30
743
1927
2698
1914
227
-516
-172
39
-94
-119
-85
-92
-54
-34
-52
-22
22
23
31
67
90
112
171
239
266
283
335
392
422
446
466
454
440
459
455
377
274
194
106
-6
-103
-168
-223
-269
-282
-274
-278
-288
-287
-281
-270
-254
-253
-263
-261
-253
-259
-263
-248
-237
-249
-261
-254
-242
-240
-240
-240
-243
-247
-244
-235
-221
-209
-203
-199
-191
-188
-194
-202
-204
-207
-217
-213
-157
-82
-67
-104
-124
-124
-130
-139
-147
-146
-133
-143
-153
-127
-148
-209
-84
485
1597
2606
2222
559
-502
-282
14
-112
-144
-65
-96
-104
-61
-64
-56
-9
8
20
72
121
140
166
208
237
261
308
367
415
444
447
433
447
478
452
369
286
204
104
3
-87
-170
-229
-253
-268
-286
-290
-286
-294
-300
-283
-256
-242
-244
-248
-246
-245
-249
-255
-264
-260
-242
-256
-296
-279
-219
-208
-231
-228
-226
-234
-217
-196
-195
-192
-206
-243
-240
-194
-160
-132
-93
-79
-93
-114
-146
-177
-171
-140
-128
-152
-168
-128
-117
-199
-205
153
1111
2369
2655
1265
-324
-559
-117
-71
-167
-94
-80
-121
-84
-45
-43
-33
-10
14
37
66
107
141
169
221
274
300
327
373
409
420
422
424
422
407
367
293
203
122
39
-62
-152
-205
-230
-250
-272
-286
-281
-266
-262
-264
-257
-249
-245
-236
-222
-221
-237
-247
-236
-226
-239
-253
-247
-237
-244
-250
-228
-206
-219
-239
-225
-198
-196
-202
-201
-211
-222
-207
-175
-136
-94
-81
-106
-136
-157
-159
-141
-130
-133
-144
-157
-135
-123
-195
-203
133
1034
2261
2641
1389
-181
-485
-77
-37
-159
-106
-85
-114
-76
-47
-61
-50
-8
33
50
62
92
128
162
205
242
272
329
393
415
417
439
457
442
412
382
318
199
81
19
-36
-125
-199
-239
-267
-272
-267
-286
-301
-273
-242
-248
-261
-251
-231
-231
-248
-252
-238
-240
-260
-254
-229
-224
-233
-238
-243
-241
-230
-221
-222
-230
-229
-199
-172
-180
-194
-189
-190
-204
-207
-198
-188
-153
-89
-48
-65
-109
-136
-131
-127
-146
-152
-133
-131
-124
-105
-150
-182
59
828
2036
2686
1737
73
-521
-144
2
-133
-108
-66
-106
-90
-52
-50
-32
3
21
30
48
93
145
171
197
251
299
331
374
415
432
448
458
438
414
404
364
271
167
77
-20
-120
-186
-214
-238
-268
-281
-273
-266
-272
-268
-248
-242
-255
-246
-223
-233
-255
-248
-226
-226
-249
-264
-246
-224
-244
-265
-236
-211
-235
-239
-203
-191
-208
-209
-198
-193
-189
-187
-182
-174
-187
-220
-222
-172
-113
-77
-60
-64
-100
-138
-140
-125
-129
-132
-126
-138
-138
-113
-154
-219
-57
595
1767
2662
2058
375
-511
-222
16
-120
-134
-78
-114
-91
-33
-52
-60
-10
22
37
66
90
116
171
219
244
278
322
356
387
409
422
439
449
435
420
392
309
194
89
-10
-93
-142
-195
-266
-292
-256
-233
-246
-251
-248
-257
-255
-230
-216
-224
-234
-237
-239
-242
-245
-238
-226
-232
-246
-234
-213
-215
-221
-208
-203
-211
-214
-206
-195
-193
-206
-205
-173
-151
-157
-162
-167
-174
-168
-164
-181
-181
-147
-110
-73
-37
-37
-79
-118
-127
-122
-118
-113
-113
-119
-98
-81
-142
-189
2
653
1807
2667
2021
341
-504
-200
28
-110
-114
-41
-72
-75
-44
-60
-52
7
36
30
55
104
133
158
199
239
278
316
338
370
426
449
427
422
439
426
365
285
205
114
6
-87
-142
-189
-247
-286
-287
-273
-268
-265
-251
-249
-270
-263
-226
-228
-257
-247
-225
-239
-255
-252
-249
-245
-243
-254
-246
-216
-212
-231
-220
-196
-208
-226
-199
-166
-180
-199
-180
-169
-195
-198
-157
-137
-161
-171
-156
-161
-177
-157
-106
-66
-46
-47
-72
-99
-106
-110
-127
-126
-109
-115
-118
-91
-114
-174
-78
427
1524
2624
2347
664
-511
-334
17
-77
-128
-59
-78
-90
-48
-32
-23
3
29
57
83
106
135
159
184
229
278
311
342
386
429
455
456
444
431
410
370
313
236
130
25
-48
-106
-165
-211
-245
-266
-262
-248
-257
-268
-246
-215
-211
-225
-235
-230
-225
-235
-238
-231
-237
-250
-239
-224
-227
-226
-220
-227
-228
-212
-207
-214
-209
-200
-197
-189
-187
-195
-183
-160
-168
-181
-164
-152
-158
-148
-133
-145
-161
-158
-157
-160
-144
-100
-55
-47
-69
-78
-77
-91
-97
-99
-109
-105
-103
-116
-96
-90
-160
-123
345
1416
2556
2475
937
-349
-321
23
-68
-145
-53
-61
-109
-81
-39
-6
10
1
22
74
96
107
151
196
218
254
306
351
388
416
427
445
465
455
429
406
347
240
141
61
-30
-115
-174
-225
-259
-267
-279
-297
-288
-271
-268
-251
-226
-229
-240
-236
-239
-256
-260
-250
-243
-244
-247
-248
-247
-239
-226
-222
-235
-248
-240
-213
-194
-194
-203
-203
-195
-193
-201
-194
-168
-154
-165
-173
-159
-141
-140
-145
-152
-174
-192
-162
-97
-54
-47
-53
-60
-75
-94
-106
-111
-105
-91
-99
-118
-98
-96
-164
-135
268
1246
2424
2546
1126
-275
-373
2
-39
-143
-78
-71
-87
-39
-26
-47
-24
26
57
68
85
118
153
176
201
254
317
358
389
431
459
465
470
472
457
421
356
260
156
59
-35
-117
-166
-197
-232
-262
-272
-271
-268
-256
-250
-257
-251
-230
-234
-262
-261
-233
-223
-231
-231
-236
-251
-248
-228
-220
-225
-238
-245
-233
-221
-217
-208
-210
-223
-200
-166
-177
-200
-192
-177
-170
-164
-168
-178
-171
-151
-151
-167
-164
-149
-142
-117
-60
-24
-50
-93
-107
-105
-113
-125
-117
-98
-115
-133
-96
-97
-175
-111
385
1454
2552
2388
812
-413
-335
10
-58
-130
-88
-100
-90
-52
-50
-27
12
16
28
63
88
120
164
184
198
254
325
359
381
426
468
477
465
461
462
425
330
225
149
67
-42
-139
-203
-246
-262
-265
-284
-299
-281
-262
-271
-277
-261
-241
-236
-260
-293
-281
-238
-233
-254
-253
-242
-246
-245
-233
-231
-248
-258
-239
-218
-219
-222
-214
-208
-204
-195
-190
-196
-193
-183
-190
-201
-191
-165
-133
-96
-73
-78
-111
-150
-157
-139
-137
-140
-133
-143
-139
-119
-155
-179
63
864
2147
2788
1689
-98
-656
-194
-22
-143
-99
-62
-107
-70
-28
-43
-23
17
10
16
84
144
158
182
232
270
304
349
382
416
465
493
479
460
445
413
355
272
169
65
-35
-126
-191
-223
-248
-277
-297
-296
-285
-276
-266
-254
-250
-256
-260
-249
-232
-233
-246
-244
-240
-251
-257
-245
-239
-246
-252
-251
-243
-232
-226
-224
-221
-222
-218
-199
-192
-207
-200
-173
-179
-202
-199
-200
-196
-132
-59
-62
-102
-117
-118
-122
-132
-150
-144
-132
-156
-146
-94
-146
-237
-35
710
1927
2739
1994
275
-530
-197
11
-133
-121
-59
-117
-125
-66
-34
-8
16
17
27
57
92
132
177
210
231
270
339
397
427
462
495
495
486
485
454
385
300
193
72
-19
-83
-154
-217
-256
-285
-296
-286
-291
-300
-282
-271
-275
-250
-219
-227
-241
-238
-238
-241
-248
-259
-259
-258
-263
-244
-212
-218
-235
-224
-214
-215
-210
-210
-222
-216
-193
-185
-193
-191
-174
-159
-160
-180
-200
-197
-167
-117
-67
-51
-76
-109
-126
-124
-119
-133
-141
-126
-142
-159
-118
-127
-192
-33
616
1748
2627
2077
410
-524
-241
34
-105
-139
-73
-96
-86
-42
-52
-50
-10
24
56
85
95
110
154
207
250
289
321
354
410
471
488
469
468
483
464
405
325
216
98
6
-83
-180
-233
-240
-254
-280
-288
-285
-284
-282
-274
-264
-261
-258
-240
-229
-241
-243
-226
-234
-260
-257
-242
-255
-256
-219
-202
-234
-252
-229
-214
-214
-209
-208
-213
-207
-210
-222
-205
-171
-171
-194
-201
-187
-152
-106
-84
-88
-90
-109
-156
-175
-147
-124
-117
-122
-139
-124
-115
-186
-190
147
1028
2237
2653
1454
-134
-494
-91
-27
-149
-102
-82
-123
-91
-52
-52
-40
-10
24
50
58
88
146
180
202
255
302
331
386
447
463
471
499
504
470
435
380
266
140
51
-35
-138
-211
-242
-269
-298
-312
-314
-308
-302
-311
-322
-306
-273
-250
-253
-272
-279
-269
-267
-277
-281
-277
-265
-259
-266
-257
-237
-252
-277
-256
-220
-220
-231
-225
-220
-232
-248
-244
-203
-146
-103
-90
-109
-150
-180
-181
-174
-171
-152
-141
-160
-154
-143
-194
-191
104
970
2319
2889
1569
-304
-740
-210
-61
-160
-93
-75
-116
-75
-38
-29
1
20
30
60
102
136
157
193
266
330
365
404
454
498
535
555
558
560
548
483
382
293
199
56
-90
-169
-210
-261
-295
-302
-321
-336
-310
-275
-278
-297
-298
-289
-286
-271
-237
-212
-217
-245
-282
-301
-266
-214
-213
-242
-257
-266
-270
-260
-256
-252
-229
-208
-211
-209
-187
-183
-215
-242
-231
-192
-126
-58
-60
-122
-159
-163
-183
-195
-159
-141
-188
-193
-143
-195
-256
1
808
2113
2978
2117
201
-672
-278
4
-113
-138
-114
-128
-90
-81
-108
-71
-26
-23
13
69
89
102
130
173
234
282
317
389
469
494
492
505
514
483
414
341
259
138
17
-74
-184
-296
-324
-315
-364
-413
-389
-348
-341
-351
-347
-321
-298
-298
-306
-312
-310
-286
-274
-290
-280
-269
-311
-323
-262
-251
-303
-297
-246
-238
-246
-237
-236
-227
-218
-259
-283
-220
-175
-222
-258
-213
-148
-123
-124
-105
-84
-117
-178
-189
-159
-121
-102
-132
-141
-84
-129
-265
-119
572
1741
2721
2339
689
-416
-245
38
-102
-137
-19
-7
-24
-6
4
22
19
18
99
187
189
187
233
270
293
349
419
474
516
561
603
604
562
557
592
547
406
292
237
136
-20
-98
-86
-130
-216
-201
-150
-178
-198
-166
-171
-173
-124
-120
-167
-165
-138
-136
-129
-123
-147
-177
-183
-176
-177
-179
-156
-138
-164
-197
-194
-162
-131
-143
-184
-185
-162
-154
-129
-134
-214
-215
-112
-122
-218
-190
-119
-122
-82
-8
-66
-188
-198
-148
-170
-200
-146
-113
-177
-217
-199
-218
-194
148
1054
2219
2458
1167
-287
-517
-135
-117
-271
-276
-262
-262
-244
-235
-180
-107
-143
-202
-153
-125
-152
-53
65
-1
-26
124
176
125
216
341
298
226
262
268
179
141
149
31
-182
-303
-343
-424
-500
-506
-543
-624
-594
-492
-516
-581
-514
-450
-517
-548
-461
-411
-442
-463
-466
-472
-467
-460
-429
-379
-381
-417
-383
-319
-312
-324
-315
-317
-322
-319
-314
-273
-216
-211
-225
-187
-129
-95
-78
-65
-62
-64
-64
-71
-58
-11
-12
-48
14
91
47
65
500
1610
2937
2986
1283
-242
-214
261
221
147
261
286
287
359
388
377
391
428
488
534
547
600
696
739
747
797
864
907
941
983
1044
1111
1121
1073
1024
970
879
759
625
489
384
303
211
113
61
69
66
17
-10
1
0
-14
-40
-84
-102
-95
-120
-169
-217
-254
-255
-271
-370
-445
-422
-430
-527
-592
-591
-612
-685
-774
-834
-856
-893
-969
-1028
-1028
-1020
-1075
-1185
-1287
-1349
-1403
-1491
-1583
-1637
-1690
-1769
-1814
-1870
-2039
-2072
-1477
-232
