# session 36
-71
-81
-57
-57
-146
-268
-324
-321
-307
-295
-296
-302
-288
-274
-280
-280
-264
-259
-267
-269
-274
-283
-271
-228
-168
-126
-125
-152
-178
-192
-195
-195
-188
-177
-192
-201
-163
-174
-258
-183
317
1378
2516
2436
870
-438
-402
-43
-124
-206
-133
-135
-148
-110
-96
-86
-51
-26
-1
34
59
77
111
157
199
237
281
337
392
422
431
443
461
469
449
386
296
215
132
23
-80
-148
-199
-246
-270
-271
-272
-273
-265
-256
-247
-236
-232
-231
-225
-224
-229
-224
-217
-227
-234
-221
-218
-234
-236
-218
-209
-206
-200
-197
-196
-195
-200
-201
-182
-164
-170
-181
-176
-171
-184
-199
-191
-155
-105
-64
-51
-68
-97
-118
-126
-136
-138
-121
-123
-147
-125
-97
-167
-207
45
818
2041
2720
1774
83
-531
-169
-36
-159
-113
-72
-125
-110
-66
-68
-61
-34
-5
28
53
70
101
149
196
232
265
306
355
396
421
433
436
436
434
417
368
284
181
78
-20
-105
-173
-228
-264
-279
-293
-302
-279
-244
-238
-253
-255
-244
-236
-242
-250
-250
-245
-243
-244
-251
-266
-260
-229
-212
-224
-232
-226
-225
-223
-210
-201
-202
-203
-202
-205
-217
-227
-214
-170
-118
-78
-61
-82
-134
-163
-150
-140
-155
-158
-149
-149
-131
-119
-171
-191
64
907
2233
2809
1585
-190
-648
-189
-70
-185
-126
-94
-133
-102
-69
-71
-48
-17
-1
11
35
84
131
154
180
225
271
313
354
390
412
414
411
412
390
347
305
236
126
27
-43
-116
-191
-238
-261
-275
-281
-274
-264
-263
-257
-239
-226
-226
-225
-218
-220
-228
-229
-229
-230
-224
-225
-245
-250
-222
-204
-219
-228
-212
-200
-207
-207
-196
-195
-201
-210
-222
-218
-182
-130
-88
-72
-93
-129
-140
-133
-145
-161
-143
-134
-151
-129
-116
-196
-200
177
1157
2397
2635
1251
-258
-460
-77
-81
-180
-112
-103
-137
-106
-84
-77
-48
-25
-7
25
51
72
106
140
176
232
287
325
360
397
420
424
417
417
419
376
278
181
104
19
-70
-142
-204
-249
-270
-281
-290
-284
-268
-260
-260
-262
-259
-243
-225
-231
-250
-248
-231
-230
-242
-246
-247
-247
-236
-226
-231
-238
-229
-213
-206
-212
-216
-220
-226
-225
-206
-167
-123
-95
-96
-118
-145
-154
-147
-152
-153
-138
-146
-152
-121
-149
-239
-165
325
1394
2546
2430
825
-442
-361
-33
-138
-185
-93
-119
-141
-91
-77
-73
-42
-26
-7
31
62
88
126
161
189
233
290
337
366
391
416
427
421
408
392
354
273
164
68
-10
-90
-161
-207
-238
-260
-268
-272
-276
-263
-247
-247
-249
-240
-231
-228
-225
-222
-227
-231
-226
-227
-240
-240
-226
-226
-232
-227
-226
-221
-198
-192
-215
-228
-220
-220
-218
-187
-139
-98
-82
-106
-151
-164
-153
-160
-165
-143
-143
-163
-137
-133
-216
-213
168
1166
2412
2580
1130
-328
-445
-59
-91
-193
-127
-123
-145
-102
-77
-73
-63
-58
-34
16
55
79
102
127
170
227
268
303
346
382
403
414
410
401
387
333
245
170
106
16
-83
-157
-213
-254
-273
-276
-279
-279
-267
-256
-261
-267
-258
-240
-228
-223
-229
-242
-244
-238
-237
-237
-238
-243
-235
-226
-245
-256
-219
-187
-206
-229
-224
-214
-203
-170
-122
-100
-120
-146
-159
-177
-189
-163
-134
-148
-150
-119
-147
-209
-107
450
1668
2785
2291
426
-669
-373
-50
-165
-159
-68
-110
-120
-74
-70
-61
-25
-7
8
43
74
94
124
167
217
262
296
331
374
404
411
410
407
394
363
301
214
126
41
-43
-117
-175
-219
-249
-261
-263
-265
-263
-254
-248
-251
-248
-239
-234
-229
-220
-218
-225
-229
-228
-224
-224
-233
-237
-233
-239
-246
-229
-205
-204
-213
-214
-222
-231
-228
-213
-181
-136
-106
-111
-145
-180
-180
-158
-146
-145
-159
-169
-139
-143
-223
-195
216
1243
2497
2604
1070
-380
-434
-45
-106
-198
-122
-133
-160
-114
-100
-98
-58
-33
-28
1
33
57
95
143
174
203
257
319
355
373
391
404
402
390
370
325
241
149
70
-15
-109
-183
-228
-258
-280
-292
-285
-272
-275
-276
-257
-243
-247
-247
-244
-245
-236
-227
-239
-248
-240
-238
-235
-213
-201
-214
-217
-199
-191
-207
-223
-224
-216
-202
-184
-155
-108
-79
-94
-116
-127
-137
-130
-110
-117
-139
-142
-118
-93
-130
-196
-121
328
1367
2534
2495
988
-299
-348
-53
-83
-122
-79
-107
-127
-101
-87
-65
-35
-26
-12
23
52
76
116
150
172
234
312
327
338
410
433
375
360
375
342
300
259
174
84
10
-88
-186
-246
-279
-274
-247
-252
-266
-249
-241
-261
-261
-238
-231
-237
-229
-226
-248
-270
-268
-264
-264
-259
-251
-242
-248
-265
-244
-209
-237
-275
-255
-247
-286
-289
-236
-196
-195
-179
-119
-105
-181
-216
-164
-157
-201
-183
-139
-154
-192
-202
-202
-155
241
1360
2618
2477
801
-455
-326
14
-119
-188
-90
-123
-170
-111
-63
-35
-8
-34
-42
34
77
62
110
194
225
239
277
309
345
413
461
423
370
403
438
371
280
197
70
-31
-78
-165
-245
-226
-214
-267
-266
-226
-276
-322
-228
-156
-230
-262
-186
-199
-285
-251
-181
-236
-290
-220
-164
-217
-261
-219
-198
-259
-271
-191
-175
-236
-222
-163
-176
-172
-97
-103
-196
-183
-89
-112
-208
-197
-119
-121
-180
-194
-168
-131
199
1291
2637
2580
845
-556
-508
-115
-136
-185
-145
-150
-115
-69
-71
-45
-21
-46
-41
13
63
110
154
178
204
242
269
287
319
374
424
433
385
322
322
328
218
66
19
-2
-113
-214
-222
-234
-290
-298
-260
-260
-269
-239
-241
-294
-278
-187
-176
-251
-267
-216
-219
-265
-252
-199
-199
-251
-282
-256
-218
-227
-260
-255
-233
-232
-211
-141
-95
-128
-168
-160
-168
-201
-194
-179
-191
-163
-114
-152
-233
-212
69
924
2221
2661
1402
-176
-528
-174
-72
-143
-166
-145
-96
-146
-208
-68
56
-30
-63
27
29
20
121
177
161
204
263
300
368
384
351
416
468
391
368
377
242
129
89
-91
-222
-109
-97
-279
-297
-227
-319
-341
-211
-242
-343
-241
-157
-246
-262
-224
-287
-264
-159
-213
-280
-211
-231
-314
-246
-200
-290
-284
-210
-265
-293
-145
-40
-128
-246
-231
-155
-145
-174
-194
-238
-229
-131
-138
-254
-135
526
1774
2762
2105
269
-604
-190
21
-240
-250
-76
-78
-169
-168
-83
-49
-89
-49
44
33
16
111
163
122
166
280
302
302
376
392
349
417
494
401
290
294
262
110
-37
-97
-126
-198
-287
-302
-271
-274
-274
-239
-238
-274
-259
-227
-260
-285
-239
-231
-280
-258
-198
-208
-226
-214
-244
-275
-243
-227
-258
-247
-203
-201
-214
-179
-126
-132
-188
-209
-181
-170
-178
-168
-169
-180
-160
-169
-223
-163
260
1322
2590
2568
864
-584
-528
-91
-145
-216
-129
-135
-150
-104
-108
-121
-62
3
19
17
37
80
116
137
188
274
330
341
361
405
431
424
415
421
406
347
254
141
23
-76
-156
-224
-273
-295
-291
-289
-316
-328
-289
-257
-264
-264
-257
-276
-284
-252
-238
-272
-286
-263
-252
-251
-242
-258
-288
-283
-254
-243
-244
-208
-149
-141
-181
-192
-184
-212
-231
-192
-166
-195
-206
-196
-233
-235
0
798
2195
2978
1853
-50
-640
-189
-81
-247
-195
-144
-178
-137
-98
-115
-97
-60
-50
-25
27
73
107
136
165
219
284
321
352
407
443
431
427
448
419
315
217
150
63
-46
-146
-237
-287
-292
-320
-350
-306
-254
-278
-305
-278
-261
-274
-268
-250
-248
-244
-240
-247
-246
-237
-240
-253
-260
-261
-265
-287
-296
-233
-140
-122
-168
-192
-183
-192
-225
-234
-200
-181
-184
-151
-156
-266
-280
85
1048
2398
2891
1614
-81
-481
-117
-108
-240
-174
-144
-182
-162
-132
-113
-80
-59
-39
-3
22
42
91
129
130
170
276
348
355
381
432
447
430
412
385
328
238
138
35
-86
-190
-225
-222
-252
-307
-326
-298
-266
-264
-283
-292
-275
-245
-226
-221
-224
-232
-246
-253
-244
-230
-221
-220
-242
-269
-251
-204
-190
-211
-228
-237
-247
-237
-201
-181
-180
-142
-84
-94
-148
-165
-163
-170
-153
-134
-147
-133
-117
-192
-217
119
1049
2302
2698
1464
-102
-438
-80
-65
-176
-116
-106
-133
-94
-88
-92
-35
0
-10
10
58
91
111
145
196
241
275
328
393
424
428
438
445
432
408
370
297
172
41
-38
-80
-133
-195
-236
-258
-269
-271
-273
-277
-272
-253
-236
-238
-248
-244
-235
-232
-225
-221
-242
-260
-248
-225
-219
-228
-237
-238
-233
-220
-206
-208
-211
-204
-213
-230
-209
-176
-174
-186
-191
-206
-213
-176
-110
-67
-61
-83
-121
-144
-131
-117
-126
-132
-140
-144
-108
-109
-194
-157
273
1268
2478
2647
1216
-260
-416
-54
-89
-180
-107
-104
-119
-67
-57
-74
-44
-6
12
30
48
75
133
178
174
190
278
359
381
395
423
432
433
440
418
360
291
208
99
-8
-85
-141
-196
-237
-257
-265
-273
-275
-268
-266
-278
-271
-241
-238
-266
-265
-235
-229
-241
-244
-249
-253
-245
-240
-239
-228
-229
-249
-243
-210
-205
-223
-210
-182
-184
-191
-182
-182
-189
-179
-181
-205
-202
-163
-125
-86
-54
-67
-108
-123
-122
-133
-130
-112
-126
-142
-109
-113
-184
-129
313
1377
2636
2641
986
-449
-411
0
-78
-167
-83
-84
-101
-62
-56
-50
-12
11
33
74
88
80
118
199
254
278
313
360
399
423
435
449
450
422
387
354
285
182
89
9
-73
-148
-209
-251
-263
-254
-258
-280
-282
-249
-231
-248
-250
-218
-200
-214
-228
-238
-241
-221
-210
-230
-237
-222
-224
-228
-213
-212
-230
-230
-212
-194
-185
-192
-205
-196
-176
-167
-167
-164
-158
-160
-170
-167
-149
-149
-160
-144
-124
-131
-139
-144
-152
-126
-62
-25
-31
-47
-72
-99
-101
-95
-99
-90
-89
-100
-70
-69
-157
-147
239
1190
2421
2713
1375
-150
-373
11
-16
-152
-90
-75
-113
-76
-51
-64
-38
6
24
33
51
86
136
178
204
242
293
336
378
416
433
445
463
461
428
389
338
243
128
45
-21
-107
-187
-232
-259
-277
-278
-281
-293
-282
-251
-239
-249
-259
-258
-242
-228
-233
-243
-248
-251
-243
-230
-231
-239
-234
-234
-248
-246
-226
-222
-232
-222
-198
-192
-199
-201
-199
-193
-179
-168
-171
-179
-174
-163
-167
-174
-158
-146
-167
-177
-138
-78
-37
-36
-62
-86
-97
-101
-108
-113
-105
-106
-123
-109
-92
-151
-170
98
875
2083
2720
1747
90
-469
-99
-2
-152
-102
-56
-118
-95
-31
-34
-32
11
33
40
72
114
138
167
215
247
265
318
391
421
431
464
488
478
460
431
367
271
165
63
-33
-124
-184
-211
-253
-299
-290
-258
-261
-275
-263
-249
-246
-242
-240
-244
-240
-230
-235
-248
-248
-240
-236
-240
-249
-245
-222
-212
-227
-233
-223
-213
-206
-202
-208
-208
-193
-188
-193
-186
-175
-180
-179
-169
-173
-186
-187
-166
-122
-72
-46
-59
-89
-112
-126
-141
-145
-119
-98
-121
-129
-102
-143
-202
-31
607
1763
2679
2106
411
-516
-249
4
-110
-132
-88
-112
-93
-51
-49
-44
-26
-4
35
64
79
110
148
173
206
266
330
379
412
434
452
461
459
450
428
374
288
187
85
-15
-107
-184
-243
-277
-279
-269
-277
-289
-281
-265
-262
-256
-248
-255
-263
-257
-261
-275
-264
-241
-246
-259
-251
-238
-235
-238
-240
-235
-228
-226
-220
-217
-226
-219
-190
-188
-212
-213
-196
-202
-203
-155
-92
-68
-81
-112
-141
-146
-136
-141
-148
-145
-155
-149
-127
-164
-209
-45
615
1884
2858
2116
217
-688
-296
-25
-157
-143
-83
-129
-114
-69
-67
-36
10
18
25
58
95
130
164
202
247
288
322
367
420
455
468
474
477
463
425
363
271
162
55
-42
-125
-186
-234
-271
-296
-316
-315
-291
-274
-271
-275
-292
-289
-250
-231
-255
-269
-258
-254
-260
-262
-266
-276
-274
-258
-250
-251
-244
-231
-224
-231
-245
-251
-243
-225
-194
-146
-109
-107
-133
-167
-189
-192
-180
-160
-154
-178
-179
-142
-175
-247
-116
510
1758
2827
2270
403
-646
-327
-19
-158
-177
-106
-144
-135
-80
-79
-74
-42
-22
4
36
55
92
149
183
206
258
327
373
401
431
457
466
457
432
396
339
233
109
19
-58
-153
-227
-262
-290
-309
-305
-300
-300
-289
-278
-284
-291
-274
-242
-236
-256
-260
-241
-235
-244
-250
-254
-256
-260
-267
-258
-231
-223
-237
-234
-220
-229
-248
-241
-213
-176
-127
-96
-118
-159
-173
-174
-184
-182
-156
-148
-152
-126
-140
-229
-200
218
1230
2479
2645
1161
-337
-449
-40
-76
-186
-108
-96
-130
-94
-69
-68
-45
-24
-4
38
72
85
113
165
212
254
311
366
401
432
468
489
483
470
452
397
297
197
101
-14
-111
-167
-223
-272
-270
-257
-274
-282
-262
-250
-256
-255
-244
-237
-235
-234
-232
-237
-242
-241
-233
-229
-229
-231
-226
-220
-221
-227
-226
-228
-238
-247
-252
-235
-173
-104
-91
-123
-150
-160
-171
-186
-184
-166
-177
-195
-157
-142
-226
-239
128
1132
2411
2619
1175
-317
-468
-90
-118
-212
-139
-133
-158
-132
-130
-117
-63
-40
-37
-7
26
53
91
130
165
209
252
293
341
381
391
392
404
413
395
337
243
134
32
-58
-141
-212
-262
-297
-321
-324
-314
-319
-330
-315
-287
-272
-259
-249
-254
-263
-261
-257
-254
-250
-250
-260
-270
-262
-241
-222
-209
-204
-209
-210
-202
-191
-185
-191
-204
-193
-155
-119
-79
-39
-41
-82
-103
-91
-82
-79
-63
-63
-80
-52
-33
-103
-111
220
1114
2353
2759
1520
-54
-364
42
84
-32
23
39
6
43
77
90
114
118
