# session 8
-110
-105
-114
-77
90
363
486
240
-89
-187
-293
-447
-360
-325
-404
176
1134
1101
87
-726
-970
-1042
-1177
-1245
-1030
-616
-205
145
226
-34
-197
-125
-238
-490
-442
-228
-191
-175
-34
38
36
125
206
30
-437
-755
-329
701
1714
2321
1899
287
-951
-607
143
58
-137
282
487
15
-188
137
215
150
327
337
150
171
242
222
275
293
189
96
-21
-186
-326
-468
-409
-93
-132
-335
338
1097
453
-476
-369
-288
-612
-424
-216
-539
-594
-303
-84
406
920
791
373
85
-173
-198
50
122
-49
-172
-168
-112
119
1083
2620
2861
980
-999
-1668
-1514
-437
1093
1090
-268
-770
-346
-258
-246
101
120
-137
205
833
830
634
803
534
-332
-600
-158
-9
-180
-206
-285
-549
-730
-765
-711
-591
-638
-824
-556
149
312
-341
-930
-824
-223
156
-137
-506
-475
-636
-999
-788
-368
-510
-754
-594
-370
-243
-83
286
1519
3397
3656
1303
-991
-1123
-525
-599
-716
-511
-417
-503
-675
-609
445
2067
2310
719
-667
-701
-392
-267
57
338
508
1057
1461
1012
486
464
228
-298
-349
-120
-266
-513
-417
-165
-70
-331
-870
-1010
-514
-208
-226
251
819
515
2
50
36
-233
-202
-144
-483
-675
-316
161
743
1794
2284
1000
-732
-1094
-668
-436
-177
15
-217
-514
-546
-435
-293
-188
-100
60
140
67
98
161
-37
-95
535
1584
2335
2009
467
-906
-949
-524
-525
-540
-433
-323
226
863
589
-178
-412
-344
-435
-444
-416
-592
-655
-436
-345
-526
-696
-774
-783
-631
-524
-632
-492
170
1135
2324
2734
994
-1260
-1460
-780
-848
-515
220
59
-304
-348
-707
-627
287
646
399
602
775
474
424
524
172
-206
-244
-242
-185
-13
47
-25
-303
-673
-287
991
2033
2267
1813
680
-527
-949
-775
-664
-585
-154
468
744
614
272
-256
-632
-597
-563
-707
-789
-913
-1052
-589
913
2611
2582
508
-1252
-1362
-1093
-1059
-612
25
395
500
-90
-1247
-1649
-845
359
1377
1648
866
112
277
462
41
-142
194
301
128
188
315
145
-130
-257
-368
-607
-768
-610
-269
-76
-163
-306
-266
-468
-1249
-1520
-268
1478
2206
1729
592
-523
-1022
-978
-852
-733
-327
789
2785
4353
3479
892
-605
-631
-573
-477
-299
-612
-917
-665
-486
-598
-506
-284
-160
-12
59
51
322
719
716
168
-792
-1438
-903
70
142
-335
-532
-542
-427
-256
-385
-546
-320
-31
105
260
296
111
-2
10
-90
-275
-386
-467
-557
-547
-401
-230
-228
-497
-642
-31
1353
2652
2535
579
-1422
-1555
-681
-550
-821
-455
174
425
823
1581
1497
340
-261
73
178
135
407
267
-288
-297
47
23
-229
-445
-524
-293
-97
-138
316
1155
1016
88
-165
111
119
109
10
-430
-658
-621
-619
-261
49
-464
-847
-380
-61
-76
183
176
-346
-452
389
1974
3219
2348
-170
-1398
-646
-163
-618
-673
-558
-1313
-1456
619
2590
1847
135
-149
186
103
164
383
310
301
530
682
757
675
283
-36
-145
-440
-749
-660
-515
-591
-478
-199
-316
-651
-651
-513
-572
-578
-258
140
-111
-1161
-1707
-996
-336
-575
-681
-212
29
357
1788
3036
1877
-609
-1556
-858
-231
-143
-191
-179
-112
-167
-379
-497
-402
-184
30
182
279
187
31
161
-98
-1319
-1577
557
2488
1818
213
-319
-237
-301
-387
-296
-63
170
459
874
1026
745
507
447
211
-222
-543
-582
-492
-530
-580
-389
-196
-350
-654
-698
-301
663
2005
2701
1717
-403
-1519
-178
1914
1775
-39
-599
-45
-299
-787
-495
-294
-432
-133
205
-37
-255
-52
142
196
295
393
419
314
37
-268
-561
-829
-696
-138
151
39
11
-122
-698
-1193
-1069
-473
65
23
-423
-598
-440
-258
-132
-197
-349
-199
259
798
1231
1689
2693
3332
1682
-1002
-1505
-322
-99
-683
-737
-517
-431
-274
-206
-289
-182
-51
-40
264
532
380
971
2307
2050
231
-432
187
183
-303
-309
-162
-237
-355
-487
-734
-1082
-1172
-633
-54
-199
-466
-118
158
-192
-452
-305
-396
-840
-1117
-1042
-754
-678
-1095
-1205
-514
3
375
1617
2426
1221
-345
-539
-272
-499
-865
-881
-510
-282
-527
-673
-336
121
462
671
766
926
1038
922
985
1305
1196
625
329
391
288
9
-28
119
114
133
237
93
38
82
-857
-1840
-376
2325
2773
1036
-380
-712
-660
-553
-359
-326
-634
-803
-365
620
1830
2100
392
-1654
-1764
-882
-879
-1165
-823
-538
-675
-688
-587
-634
-574
-404
-274
52
143
-456
-317
1389
2491
1592
404
241
284
-258
-907
-873
-377
-282
-541
-505
-253
-203
-299
-326
-212
-38
-28
-187
-212
-80
-12
75
207
127
-103
-279
-425
-345
359
1868
3638
3803
1505
-741
-1006
-942
-1219
-119
1909
2629
1715
333
-505
-483
-237
-204
15
348
296
55
-105
-420
-874
-1097
-886
-341
71
-71
-442
-482
-317
-352
-493
-427
-267
-263
-170
73
-304
-1045
-257
1860
2394
857
-194
-83
-188
-563
-477
-173
-142
-389
-395
592
2049
2103
460
-938
-1100
-890
-854
-766
-517
-118
211
80
-303
-400
-294
-245
-134
18
162
442
505
277
840
2056
1888
203
-834
-712
-607
-695
-612
-590
-714
-707
-540
-421
-521
-831
-1076
-1026
-865
-898
-1063
-1068
-877
-687
-560
-512
-671
-962
-1099
-862
61
1472
1943
717
-208
1205
2868
1554
-217
2103
5286
3449
-658
-1612
-817
-1075
-1379
-926
-608
-638
-587
-364
-133
-33
-86
-223
-353
-501
-740
-832
-805
-1348
-1890
-546
1745
1467
-592
525
4377
4814
1115
-1284
-1020
-1096
-1859
-1923
-1721
-1798
-1664
-1440
-1553
-1572
-1270
-876
156
1569
1576
193
-1123
-1924
-976
1520
1688
-513
-1147
-885
-728
1961
5374
5637
4751
4861
4750
4764
4745
2279
-1408
-2338
-632
714
894
850
877
805
781
814
672
653
854
147
-1778
-3125
-2920
-2458
-2536
-2424
-2113
-2421
-2621
-1317
697
1637
1189
-51
-1152
-1146
-185
1243
2592
1803
-1222
-1571
2839
5791
2630
-2170
-3098
-1110
609
1319
1064
-372
-1909
-2233
-1833
-1641
-1526
-1317
-1238
-1244
-1186
-1132
-1141
-1188
-1231
-1241
-1273
-1358
-1408
-1382
-1385
-1422
-1360
-1286
-1353
-1353
-1232
-1245
-1148
-889
-1271
-1978
-1634
-714
-664
-1103
-1041
-656
-64
1259
2524
1737
-372
-441
1644
2713
2274
2144
2334
2155
2064
2171
2013
1916
2090
1522
-44
-1010
-668
-273
-337
-225
-149
-280
-49
-190
-985
194
3670
5679
5621
5399
3527
-279
-2308
-1829
-1486
-1779
-1798
-1611
-1628
-1734
-997
771
1942
1835
1630
1689
1706
1789
1618
1523
1905
542
-2532
-1942
2835
5502
5196
5075
3130
-1334
-3635
-2962
-2632
-2879
-2580
-2231
-1989
-1551
-1098
-706
-430
-386
-393
-481
-830
-1081
-969
-880
-990
-1037
-1002
-1018
-1033
-1027
-1014
-1016
-1157
-1358
-1312
-1095
-1059
-1173
-1199
-1189
-1293
-1392
-1317
-1223
-1248
-1122
-563
688
2719
4026
2595
-192
-746
1328
3154
2963
1652
767
279
-604
-1292
-999
-472
-346
-204
-16
-110
-129
198
316
143
229
91
-474
236
2104
2045
-92
-1092
-666
-813
-957
-366
-630
-1088
649
2356
890
-1128
-912
-380
-811
-1002
-793
-742
-699
-637
-597
-78
1298
2840
3268
2602
2001
1412
209
-732
-712
-622
-876
-853
-530
-396
-472
-465
-301
-156
-163
-259
-265
-57
157
10
-333
-361
-119
-20
-43
-14
-66
-246
-326
-233
-175
-295
-446
-457
-431
-346
-87
-99
-365
290
1852
2821
2986
2627
1062
-807
-1014
-41
960
2276
2910
1332
-773
-1125
-615
-607
-695
-591
-552
-400
-110
-73
-349
-605
-611
-421
-173
125
421
518
383
220
113
-127
-522
-553
70
588
295
-227
-284
-229
-332
-213
-17
-214
-429
-265
-166
-273
-230
-236
-520
-646
-449
-382
-579
-664
-351
480
1589
1867
513
-1241
-1752
-1338
-1000
-778
-547
-455
-433
-385
-360
-357
-341
-237
-12
198
328
467
600
624
544
435
380
482
880
1786
2939
3055
1338
-710
-1259
-833
-701
-796
-767
-703
-536
-326
-405
-704
-861
-809
-646
-371
-101
-95
-332
-271
721
2254
2644
1110
-671
-1131
-956
-1037
-1075
-931
-852
-803
-689
-458
-228
-126
183
380
-184
-98
1498
2186
1402
1482
1805
828
255
699
420
-369
-499
-366
-395
-399
-443
-534
-552
-557
-577
-648
-766
-670
-362
-346
-772
-1143
-1100
-830
-620
-512
-132
1236
3178
3423
1105
-1171
-1401
-882
-892
-915
-710
-604
-349
122
302
396
1201
2481
3030
2222
735
-192
-195
35
67
90
75
-132
-278
-191
-136
-223
-229
-184
-301
-455
-445
-416
-459
-357
-199
-367
-672
-722
-739
-687
-350
-465
-798
-10
774
664
2145
4342
2748
-1026
-1996
-931
-456
-35
610
647
320
99
-17
-47
-201
-212
544
1303
909
46
-202
-96
-212
-621
-963
-738
-236
-194
-434
-397
-206
-142
-199
-316
-412
-454
-485
-487
-482
-527
-545
-512
-490
-476
-515
-587
-594
-729
-850
-173
1186
2330
3147
3108
1213
-1020
-1310
-619
-688
-941
-705
-442
-329
-277
-366
-420
-258
-48
118
332
510
488
311
229
334
310
119
202
174
-346
90
1758
1937
169
-646
-105
-103
-492
-511
-673
-963
-939
-840
-643
-329
-396
-123
1471
2730
2079
1334
1912
2008
572
-714
-817
-619
-673
-698
-686
-746
-779
-820
-853
-725
-622
-767
-891
-700
-309
8
84
-13
-78
-70
-64
-59
-116
-296
-491
-624
-719
-683
-470
-209
96
354
116
-168
922
2706
2384
-34
-1454
-1078
-725
-835
-737
-595
-504
-55
978
2491
3236
1748
-530
-1097
-727
-821
-593
-537
-1300
-518
1349
693
-426
927
1014
-863
-202
1433
392
-879
-618
-174
422
455
108
2604
5971
4207
-444
-1740
-825
-842
-396
985
1239
834
1560
2219
1047
-638
-1035
-863
-1163
-1361
-1128
-1170
-1506
-1402
-637
637
1748
1220
-896
-2231
-1813
-1215
-1281
-1424
-1422
-1401
-1308
-1162
-968
-717
-573
-593
-681
-766
-662
-307
-7
143
263
182
323
1584
2843
1862
-481
-1380
-822
-547
-644
-553
-525
-597
-459
-294
-439
-702
-692
-499
-429
-444
-420
-352
-246
-161
606
2803
4195
2068
-693
132
2192
2052
1946
2747
1163
-716
2297
6290
4395
-282
-1686
-955
-994
-1229
-924
-778
-1000
-733
542
1924
2269
1516
287
-582
-624
-366
-402
-555
-627
-719
-835
-958
-1086
-1097
-1035
-1122
-1278
-1231
-1035
-965
-1072
-1155
-1094
-735
443
2120
2310
312
-1453
-1379
-873
-929
-916
-698
-593
-527
-464
-382
-319
-436
-127
1289
2643
2028
-261
-1612
-490
1063
602
-674
-731
-304
-420
-551
-441
-349
-234
-210
-376
-376
-89
124
75
-140
-375
-431
-360
-461
-534
-328
-423
-767
-1
1799
2637
2241
2260
2045
-187
-1531
1733
5226
3178
-736
-1428
-791
-255
1261
1702
-92
-1067
-274
203
104
194
99
-266
-406
-383
-463
-579
-612
-623
-760
-1008
-1185
-1242
-1240
-1085
-742
-468
-468
-599
-657
-670
-715
-770
-839
-887
-862
-868
-904
-765
-238
996
2553
2744
993
-791
-722
1264
2809
1074
-1152
1395
5105
3169
-1083
-1692
-697
-951
-999
-417
-425
-550
-97
-56
-563
-80
844
532
506
1681
1269
-824
-1359
-576
-721
-1192
-931
-843
-1145
-540
817
1527
1721
1322
-312
-275
3250
4744
1069
-1999
-1002
744
1238
1276
1310
1439
1146
79
-630
-452
-346
-573
-668
-719
-899
-1084
-1160
-1036
-793
-684
-716
-763
-848
-939
-986
-1004
-873
-610
-535
-638
-555
-319
-238
-309
-370
-389
-376
-396
-509
-597
-619
-708
-641
-193
122
228
1068
2247
1846
-58
-1074
-31
1712
2023
471
-1050
-1120
-621
-540
-628
-585
-421
-212
-129
-79
134
284
230
239
341
331
233
95
-70
-74
104
190
112
77
147
171
43
-181
-355
-334
-163
-112
-199
-117
-84
-447
-383
898
2246
2215
1332
790
581
314
250
698
1497
2013
1370
-180
-1074
-846
-575
-650
-718
-868
-993
-697
-345
-427
-535
-288
-89
-169
-167
1
26
-62
-51
-40
-95
-71
-29
-119
-177
-46
111
163
260
680
1495
2071
1452
-43
-912
-779
-611
-715
-704
-596
-469
-274
-226
-348
-288
278
1636
3093
2719
482
-894
-448
-121
-555
-642
-426
-580
-770
-627
-479
-514
-567
-528
-384
-209
-103
-57
-75
-167
-172
-73
-78
-143
-122
-1
266
249
-467
-694
694
2033
1420
-3
-437
-216
-223
-330
-300
-305
-369
-408
-609
-979
-1049
-566
366
1505
1800
347
-1480
-1753
-1000
-665
-681
-481
-217
-184
-319
-469
-600
-633
-463
-234
-125
-41
36
4
112
627
1342
1896
1874
998
-144
-664
-621
-525
-438
-316
-274
-279
-212
-133
-165
-206
-36
247
370
386
449
388
134
33
346
1255
2791
3707
2474
170
-835
-547
-374
-437
-347
-318
-420
-377
-170
-17
-54
-225
-275
-166
-221
-186
527
1230
952
390
368
384
201
240
333
118
-151
-200
-201
-351
-622
-831
-748
-451
-335
-483
-618
-730
-883
-851
-683
-681
-710
-461
306
1802
3051
2360
302
-825
-627
-393
-590
-734
-496
-268
-314
171
1186
1322
747
647
365
-569
-897
-441
-240
-293
-179
-98
-147
-150
-113
-146
-203
-106
147
361
486
555
496
329
117
-147
-323
-329
-406
-668
-869
-843
-730
-668
-603
-339
499
1918
2626
1364
-720
-1451
-837
-475
-638
-217
449
-435
-1968
-1088
1326
1616
143
-325
85
165
201
289
50
-165
-88
-102
-306
-433
-472
-536
-523
-392
-333
-422
-500
-507
-513
-515
-495
-469
-419
-384
-404
-399
-419
-584
-683
-599
-617
-431
656
1921
2058
1732
2007
1673
-122
-1457
-1101
-458
-448
-461
-330
-309
-221
-63
-129
-241
-27
304
404
436
526
447
261
236
197
-36
-127
14
-67
-390
-459
-292
-279
-347
-253
-92
3
70
129
130
61
22
47
23
127
608
887
535
729
2023
2388
767
-662
-548
-224
-325
-123
216
119
-59
50
155
76
38
151
277
288
186
78
43
54
70
100
161
251
321
346
396
481
513
502
485
361
107
-35
107
292
286
377
861
1510
1958
1800
747
-517
-987
-753
-100
1274
2552
2040
162
-980
-933
-767
-833
-829
-705
-596
-610
-707
-773
-822
-868
-828
-684
-570
-674
-946
-1091
-1062
-1065
-1072
-940
-791
-768
-785
-781
-808
-802
-680
