# session 29
-48
-53
-58
28
121
75
-11
-21
-16
-34
-37
-38
-59
-83
-92
-87
-77
-78
-99
-118
-116
-110
-115
-120
-131
-156
-171
-165
-160
-150
-117
-76
-49
-55
-97
-123
-119
-140
-163
-136
-131
-149
-116
-151
-258
-93
615
1837
2871
2428
607
-610
-423
-99
-236
-273
-154
-162
-192
-157
-142
-138
-114
-87
-58
-33
-5
40
80
113
178
252
299
339
381
407
414
404
390
380
333
237
142
67
-19
-106
-177
-239
-280
-294
-311
-322
-310
-308
-315
-289
-257
-263
-275
-269
-269
-278
-278
-271
-272
-281
-288
-291
-289
-273
-253
-248
-257
-268
-268
-254
-243
-236
-209
-173
-156
-163
-183
-196
-196
-203
-202
-188
-187
-166
-142
-215
-263
0
833
2232
3098
2029
-51
-853
-373
-135
-259
-204
-144
-191
-165
-119
-114
-87
-68
-61
-11
48
74
101
149
203
255
301
354
420
461
456
451
466
459
400
312
231
157
65
-37
-125
-191
-228
-235
-244
-259
-257
-255
-257
-248
-242
-241
-226
-219
-232
-221
-195
-200
-219
-226
-231
-235
-236
-240
-234
-226
-234
-243
-235
-226
-225
-216
-191
-155
-130
-131
-147
-164
-177
-177
-160
-142
-159
-183
-148
-143
-242
-240
162
1210
2643
3044
1506
-329
-643
-194
-179
-277
-178
-173
-214
-157
-130
-147
-121
-88
-65
-25
18
54
92
127
171
235
298
354
410
444
454
463
460
418
344
259
179
98
8
-81
-155
-212
-249
-270
-292
-308
-297
-272
-266
-271
-265
-246
-236
-235
-234
-242
-257
-253
-240
-248
-255
-243
-238
-246
-249
-250
-263
-276
-274
-257
-233
-193
-154
-145
-157
-175
-193
-196
-194
-194
-171
-166
-193
-168
-157
-260
-242
238
1343
2668
2869
1310
-339
-553
-166
-187
-268
-179
-177
-211
-167
-133
-126
-121
-108
-53
4
13
28
83
138
184
241
301
360
412
440
443
440
432
406
355
274
169
74
8
-65
-160
-220
-227
-238
-269
-283
-273
-257
-250
-252
-244
-226
-223
-233
-232
-223
-222
-224
-220
-219
-224
-222
-212
-213
-227
-234
-225
-211
-199
-200
-214
-217
-203
-203
-211
-194
-159
-133
-106
-79
-89
-130
-147
-140
-134
-116
-108
-123
-111
-120
-200
-161
257
1223
2468
2790
1433
-208
-543
-162
-116
-195
-128
-126
-169
-140
-110
-94
-57
-43
-53
-27
37
85
104
139
204
253
293
354
404
417
426
431
413
401
389
323
216
131
58
-38
-129
-190
-235
-255
-257
-288
-315
-281
-248
-264
-261
-234
-243
-261
-246
-241
-259
-255
-241
-259
-273
-254
-239
-248
-257
-257
-256
-245
-236
-252
-271
-264
-245
-226
-188
-138
-124
-161
-192
-181
-175
-192
-183
-174
-199
-179
-155
-238
-262
95
1079
2493
3033
1631
-307
-778
-282
-169
-285
-217
-196
-233
-173
-128
-137
-109
-70
-51
-20
10
30
73
134
183
227
279
340
404
446
458
457
448
428
392
332
242
137
46
-22
-94
-171
-223
-250
-267
-263
-247
-257
-278
-260
-222
-220
-236
-231
-221
-221
-217
-218
-233
-246
-249
-248
-235
-217
-228
-248
-226
-193
-206
-234
-233
-224
-215
-179
-129
-114
-134
-151
-157
-173
-187
-164
-146
-185
-184
-104
-132
-257
-154
462
1726
3004
2727
781
-643
-503
-120
-208
-230
-138
-175
-191
-135
-116
-106
-79
-59
-38
-17
10
74
139
169
210
279
337
379
424
458
455
430
422
406
330
225
146
70
-28
-120
-185
-232
-271
-300
-303
-289
-295
-305
-285
-259
-256
-262
-263
-257
-243
-235
-241
-247
-247
-248
-254
-257
-252
-247
-256
-266
-251
-224
-221
-238
-250
-259
-258
-225
-177
-149
-133
-128
-155
-178
-161
-154
-170
-155
-142
-157
-125
-117
-230
-231
202
1218
2538
2941
1568
-183
-571
-162
-119
-232
-167
-152
-181
-139
-123
-128
-80
-33
-14
9
32
53
101
168
218
254
313
393
452
478
496
498
472
440
402
322
217
143
73
-29
-112
-153
-201
-244
-247
-247
-266
-257
-220
-208
-222
-223
-212
-208
-212
-227
-238
-221
-198
-203
-217
-217
-218
-223
-219
-208
-202
-214
-231
-219
-189
-179
-185
-187
-184
-175
-169
-172
-169
-156
-160
-172
-166
-149
-137
-130
-134
-150
-162
-164
-147
-107
-65
-39
-21
-30
-83
-125
-112
-90
-81
-73
-96
-109
-63
-101
-205
-37
610
1725
2773
2504
802
-473
-368
-33
-144
-204
-124
-149
-166
-111
-90
-87
-57
-37
-35
-12
47
107
135
154
202
272
333
379
418
446
459
467
464
436
394
342
259
158
71
-1
-76
-144
-189
-216
-242
-261
-253
-240
-238
-228
-217
-224
-229
-219
-214
-217
-223
-229
-227
-230
-245
-244
-226
-222
-237
-243
-230
-228
-244
-240
-213
-215
-236
-226
-200
-196
-204
-198
-179
-169
-177
-181
-174
-176
-197
-212
-196
-149
-101
-77
-68
-64
-90
-126
-124
-120
-147
-141
-112
-124
-108
-82
-187
-241
112
1008
2268
2897
1826
10
-622
-214
-69
-213
-190
-150
-167
-130
-107
-110
-70
-35
-26
-2
22
47
99
146
171
222
304
374
415
440
460
473
469
452
427
367
277
210
153
49
-66
-126
-167
-223
-251
-250
-257
-262
-250
-248
-261
-259
-233
-212
-217
-236
-237
-225
-227
-238
-233
-231
-249
-253
-230
-224
-243
-246
-229
-214
-200
-199
-213
-213
-200
-200
-196
-172
-166
-187
-204
-210
-198
-140
-71
-47
-60
-89
-136
-160
-139
-122
-126
-142
-157
-128
-99
-161
-177
102
894
2227
3075
2037
-25
-825
-334
-105
-257
-190
-107
-172
-156
-82
-75
-74
-37
-9
7
27
62
113
163
208
257
303
340
386
449
493
485
447
422
406
368
290
184
77
-8
-81
-142
-188
-230
-261
-268
-272
-278
-266
-251
-246
-232
-216
-224
-235
-226
-222
-230
-227
-222
-234
-236
-218
-214
-231
-245
-249
-239
-224
-216
-214
-218
-227
-219
-196
-185
-187
-186
-183
-192
-209
-209
-191
-173
-136
-82
-58
-74
-105
-131
-134
-130
-145
-150
-137
-137
-119
-115
-207
-222
130
1008
2293
2977
1924
52
-649
-253
-96
-233
-182
-123
-172
-149
-93
-90
-84
-55
-31
-5
22
52
94
142
190
244
307
372
429
464
485
503
503
473
426
368
291
202
111
12
-87
-156
-201
-243
-272
-285
-284
-272
-263
-263
-255
-239
-240
-253
-247
-230
-230
-237
-237
-241
-244
-234
-229
-241
-247
-238
-228
-223
-231
-244
-230
-204
-208
-222
-210
-201
-217
-217
-199
-205
-214
-174
-114
-80
-68
-80
-128
-154
-125
-120
-156
-149
-119
-135
-123
-99
-192
-242
87
972
2240
2874
1816
17
-623
-231
-84
-213
-170
-129
-170
-146
-118
-118
-73
-40
-47
-19
33
63
104
160
200
243
307
365
412
459
492
498
479
455
433
385
293
187
90
-2
-83
-149
-222
-281
-276
-243
-255
-284
-273
-246
-244
-248
-238
-229
-229
-236
-251
-254
-230
-215
-231
-242
-226
-214
-224
-239
-242
-233
-231
-239
-230
-207
-200
-202
-193
-195
-213
-222
-221
-207
-156
-104
-103
-113
-98
-103
-133
-147
-158
-158
-131
-140
-169
-125
-121
-229
-163
395
1533
2713
2605
924
-498
-481
-95
-166
-233
-135
-144
-189
-152
-109
-84
-60
-43
-20
14
44
76
115
161
214
267
310
360
426
474
482
476
475
461
419
349
255
154
60
-33
-120
-176
-216
-258
-276
-264
-262
-273
-266
-239
-229
-250
-271
-258
-226
-218
-235
-244
-235
-228
-235
-240
-232
-231
-242
-243
-242
-250
-242
-219
-212
-209
-199
-200
-208
-207
-209
-210
-199
-168
-122
-86
-82
-105
-144
-173
-167
-146
-144
-162
-163
-116
-113
-209
-213
168
1191
2605
3012
1476
-411
-759
-237
-143
-247
-166
-146
-189
-134
-88
-108
-97
-43
-7
6
30
71
116
165
209
246
302
380
433
453
478
503
491
455
411
342
250
154
58
-29
-98
-169
-234
-259
-262
-273
-282
-291
-289
-256
-238
-265
-268
-226
-208
-228
-238
-238
-244
-246
-251
-253
-240
-233
-246
-253
-246
-237
-230
-230
-235
-234
-243
-267
-261
-207
-148
-111
-97
-105
-137
-176
-192
-185
-179
-166
-159
-177
-156
-117
-192
-258
-6
800
2155
3068
2151
143
-731
-311
-83
-245
-221
-146
-189
-177
-135
-133
-101
-67
-66
-34
13
26
60
131
183
223
290
360
416
464
489
497
505
488
423
348
275
174
62
-24
-104
-186
-232
-246
-269
-292
-291
-284
-277
-266
-266
-274
-264
-242
-229
-226
-227
-226
-229
-238
-240
-231
-231
-242
-237
-222
-226
-245
-242
-220
-219
-247
-261
-240
-213
-195
-160
-109
-95
-134
-168
-166
-165
-175
-158
-144
-179
-176
-117
-165
-266
-81
648
1916
2912
2308
452
-615
-360
-91
-223
-226
-137
-164
-170
-129
-116
-96
-67
-48
-18
19
41
65
107
159
226
301
348
380
438
494
501
487
477
437
359
271
179
84
0
-82
-159
-209
-237
-266
-289
-290
-273
-258
-258
-260
-257
-256
-251
-229
-218
-235
-244
-230
-229
-240
-234
-226
-233
-241
-242
-234
-224
-229
-245
-239
-213
-210
-235
-242
-228
-221
-206
-164
-125
-109
-114
-144
-169
-158
-152
-156
-139
-148
-167
-120
-121
-230
-165
373
1486
2698
2686
1052
-443
-513
-126
-160
-218
-134
-154
-186
-133
-112
-114
-89
-80
-66
1
60
74
103
161
209
257
318
370
414
460
479
471
474
475
432
360
280
173
40
-68
-128
-173
-241
-303
-301
-260
-253
-278
-284
-275
-272
-264
-257
-263
-253
-235
-241
-254
-248
-247
-260
-263
-256
-241
-232
-251
-266
-235
-214
-243
-256
-238
-250
-265
-217
-151
-129
-130
-139
-162
-178
-182
-187
-176
-158
-174
-174
-127
-154
-235
-122
450
1702
3006
2688
649
-782
-562
-140
-241
-251
-124
-158
-204
-151
-99
-75
-60
-43
-13
17
49
94
139
175
218
282
362
431
481
518
532
523
504
471
408
325
228
112
-9
-106
-160
-189
-230
-280
-298
-290
-290
-288
-278
-282
-283
-262
-248
-245
-232
-233
-250
-242
-233
-260
-274
-247
-236
-257
-266
-253
-249
-259
-265
-265
-269
-274
-262
-229
-192
-171
-161
-155
-167
-188
-194
-203
-206
-180
-177
-177
-136
-181
-299
-178
434
1665
2991
2856
940
-595
-514
-128
-238
-268
-155
-189
-206
-147
-141
-145
-115
-88
-52
-17
6
44
91
138
205
276
338
415
484
505
506
517
506
458
404
328
199
76
2
-72
-171
-241
-265
-283
-309
-323
-313
-297
-293
-289
-266
-247
-253
-262
-248
-228
-224
-234
-249
-253
-237
-224
-236
-251
-242
-235
-251
-254
-244
-267
-285
-245
-202
-185
-150
-115
-127
-165
-185
-175
-161
-160
-158
-176
-201
-151
-114
-222
-246
173
1205
2542
2937
1544
-216
-596
-176
-127
-234
-163
-138
-152
-113
-119
-138
-99
-65
-44
3
35
46
89
153
209
271
339
388
424
470
507
501
477
474
442
340
238
167
75
-30
-122
-208
-245
-234
-261
-308
-298
-268
-263
-253
-240
-234
-223
-220
-221
-217
-231
-233
-204
-207
-242
-233
-204
-217
-241
-242
-241
-239
-231
-235
-239
-217
-202
-211
-204
-189
-218
-250
-226
-191
-198
-197
-151
-96
-79
-108
-145
-138
-121
-141
-154
-144
-134
-103
-107
-202
-203
153
1032
2272
2779
1595
-128
-623
-231
-119
-203
-133
-112
-161
-129
-83
-79
-76
-65
-22
38
55
63
113
163
191
232
298
370
426
459
478
480
468
465
448
384
295
213
127
20
-81
-138
-169
-214
-248
-246
-252
-271
-257
-233
-248
-269
-245
-214
-228
-258
-251
-226
-223
-238
-243
-234
-241
-267
-271
-257
-256
-254
-238
-229
-235
-250
-265
-254
-225
-219
-210
-168
-133
-135
-160
-179
-177
-169
-172
-177
-188
-180
-132
-142
-239
-206
218
1271
2651
2892
1211
-592
-765
-222
-193
-294
-170
-129
-172
-135
-104
-111
-90
-52
-22
4
32
78
115
124
165
255
317
341
395
463
489
482
475
446
377
303
245
180
88
-11
-100
-172
-225
-257
-263
-265
-289
-303
-268
-225
-228
-248
-252
-246
-234
-225
-243
-270
-259
-229
-228
-254
-270
-261
-245
-246
-267
-277
-261
-249
-251
-231
-178
-137
-146
-187
-215
-215
-210
-197
-176
-191
-207
-168
-197
-303
-204
307
1374
2689
2818
1081
-617
-683
-190
-217
-282
-161
-176
-216
-129
-78
-97
-88
-56
-23
21
52
65
99
157
206
258
340
418
459
484
505
500
471
438
396
322
219
117
39
-35
-121
-190
-212
-219
-238
-262
-277
-268
-231
-205
-215
-226
-208
-186
-183
-189
-196
-205
-214
-225
-235
-235
-220
-205
-196
-194
-211
-240
-249
-230
-214
-203
-170
-125
-105
-120
-145
-164
-184
-194
-165
-125
-142
-175
-148
-161
-252
-187
275
1298
2571
2780
1255
-366
-563
-162
-172
-259
-189
-187
-201
-163
-161
-151
-104
-86
-70
-28
-3
17
60
106
149
205
271
341
399
427
435
436
423
399
362
288
189
89
-21
-136
-211
-243
-271
-303
-317
-318
-324
-326
-317
-330
-352
-327
-281
-278
-294
-290
-291
-304
-302
-304
-327
-331
-305
-293
-301
-296
-284
-287
-286
-274
-279
-293
-294
-310
-328
-272
-169
-127
-148
-168
-191
-213
-207
-191
-173
-157
-174
-182
-157
-205
-255
-26
668
1841
2812
2295
510
-572
-343
-59
-189
-218
-130
-122
-105
-71
-70
-48
-8
10
36
75
103
136
195
248
290
349
409
456
511
563
577
563
545
524
495
437
338
238
157
68
-18
-59
-72
-106
-128
-112
-105
-118
-111
-88
-81
-83
-97
-111
-94
-69
-84
-112
-109
-107
-126
-130
-110
-98
-107
-121
-116
-104
-113
-133
-127
-104
-105
-128
-149
-154
-150
-153
-155
-126
-82
-74
-99
-123
-137
-159
-182
-177
-171
-202
-208
-187
-266
-346
-134
583
1830
2776
2051
118
-889
-562
-301
-443
-440
-386
-465
-478
-411
-402
-419
-410
-396
-379
-356
-342
-333
-308
-275
-250
-215
-170
-127
-77
-40
-59
-97
-93
