# session 7
-14
-59
57
35
-385
-829
-885
-762
-750
-779
-772
-772
-775
-740
-675
-685
-791
-794
-482
323
1464
1786
507
-980
-1146
-674
-591
-619
-497
-452
-447
-364
-286
-225
-141
-58
22
103
150
148
109
37
-43
-91
-102
-101
-101
-93
-79
-67
-65
-70
-78
-89
-109
-123
-120
-110
-115
-131
-128
-99
-104
-166
-201
-193
-219
-209
-140
-209
-338
-184
393
1375
2171
1633
62
-728
-375
-97
-176
-141
-64
-78
-41
19
45
105
187
242
294
343
347
310
255
197
147
120
108
87
51
21
12
7
-10
-34
-56
-78
-103
-127
-139
-141
-135
-109
-70
-48
-65
-96
-101
-105
-123
-102
-95
-229
-399
-276
560
2061
2891
1804
-19
-625
-298
-217
-303
-223
-181
-204
-166
-121
-84
-14
63
137
211
256
269
257
213
160
126
91
44
7
-25
-73
-120
-146
-171
-206
-232
-250
-273
-296
-310
-313
-316
-329
-333
-298
-273
-312
-348
-329
-338
-367
-329
-346
-480
-446
13
951
1912
1729
213
-936
-775
-372
-399
-402
-301
-317
-314
-224
-160
-101
-3
87
150
212
270
284
228
139
72
33
8
-17
-54
-104
-143
-169
-195
-204
-190
-204
-233
-243
-312
-366
-266
-314
-500
199
1775
2233
867
-422
-536
-366
-382
-342
-406
-550
-356
404
1733
2709
1885
-42
-852
-468
-321
-485
-431
-349
-365
-303
-190
-107
-33
27
99
201
242
198
151
101
22
-19
-14
-33
-66
-83
-109
-133
-129
-130
-148
-161
-193
-254
-289
-283
-271
-267
-252
-223
-194
-194
-226
-234
-217
-233
-222
-177
-270
-459
-418
228
1719
3155
2702
573
-761
-572
-327
-469
-430
-311
-324
-282
-183
-125
-47
63
147
214
273
293
259
189
121
67
23
0
-6
-32
-69
-83
-91
-107
-115
-121
-130
-133
-151
-182
-175
-155
-171
-172
-116
-77
-121
-189
-211
-217
-246
-228
-192
-293
-416
-226
474
1597
2296
1496
-140
-823
-485
-287
-341
-257
-194
-221
-172
-101
-72
-14
73
147
219
273
276
239
177
94
16
-22
-24
-26
-56
-99
-122
-133
-152
-163
-160
-159
-159
-159
-174
-191
-185
-171
-167
-155
-132
-138
-192
-231
-230
-250
-262
-219
-257
-396
-378
80
1247
2673
2733
977
-550
-578
-249
-347
-388
-286
-290
-288
-206
-138
-80
-18
39
109
166
185
181
147
79
28
22
26
5
-20
-28
-40
-78
-110
-122
-150
-197
-227
-238
-255
-273
-276
-268
-270
-289
-292
-264
-257
-292
-302
-289
-318
-321
-277
-324
-401
-222
479
1760
2689
1869
-64
-939
-534
-266
-359
-299
-214
-216
-136
-37
9
89
178
226
299
392
424
392
337
251
150
90
78
62
19
-15
-32
-62
-101
-118
-125
-149
-183
-212
-232
-230
-215
-222
-242
-238
-224
-242
-287
-307
-286
-274
-280
-243
-214
-284
-301
25
879
1956
2127
792
-645
-760
-275
-214
-284
-182
-144
-159
-102
-42
14
112
204
277
356
411
403
347
269
180
101
55
31
6
-22
-44
-61
-73
-81
-91
-104
-116
-123
-143
-177
-184
-163
-168
-201
-208
-188
-201
-267
-308
-296
-315
-337
-289
-325
-458
-344
221
1243
2293
2136
529
-708
-575
-235
-353
-390
-277
-276
-266
-184
-131
-79
10
95
170
230
247
218
158
82
27
5
-10
-32
-47
-57
-70
-79
-92
-117
-147
-173
-209
-248
-269
-271
-268
-266
-261
-251
-235
-204
-182
-218
-272
-265
-259
-283
-247
-244
-404
-482
-86
1008
2390
2645
1134
-446
-624
-267
-311
-378
-273
-257
-264
-184
-114
-61
26
129
237
337
398
398
352
294
235
177
143
124
60
-18
-28
-11
-53
-106
-115
-128
-161
-165
-151
-162
-187
-196
-187
-184
-186
-164
-127
-139
-205
-250
-253
-260
-256
-210
-219
-332
-357
2
903
1865
1767
462
-601
-583
-278
-267
-264
-186
-166
-130
-66
-44
-16
65
156
238
307
338
330
296
237
172
135
124
105
71
36
12
-2
-16
-38
-60
-85
-118
-146
-156
-170
-206
-240
-248
-248
-269
-282
-239
-182
-188
-218
-208
-215
-254
-247
-261
-359
-356
-41
769
1909
2196
860
-654
-822
-375
-328
-372
-254
-211
-197
-109
-41
9
81
144
207
268
279
251
214
152
66
14
28
63
53
9
-11
-4
-14
-44
-73
-109
-151
-178
-189
-197
-213
-234
-244
-245
-257
-265
-234
-192
-200
-242
-245
-228
-246
-235
-184
-225
-306
-171
443
1655
2650
2005
147
-816
-499
-248
-351
-291
-181
-180
-124
-37
7
72
152
209
272
323
312
250
180
112
46
5
-4
-17
-54
-79
-78
-78
-96
-120
-141
-155
-171
-194
-214
-228
-244
-256
-260
-266
-266
-246
-233
-249
-270
-267
-268
-313
-326
-256
-259
-347
-238
219
1108
2167
2156
581
-799
-724
-275
-305
-332
-212
-200
-188
-99
-41
11
95
181
267
342
374
362
308
228
159
105
51
3
-37
-79
-113
-124
-120
-118
-121
-131
-151
-173
-192
-217
-237
-236
-229
-234
-234
-208
-174
-176
-221
-246
-244
-265
-253
-201
-262
-354
-186
390
1475
2532
2184
449
-686
-492
-216
-332
-333
-247
-268
-240
-148
-95
-39
40
110
191
274
307
284
229
169
126
104
74
23
-34
-78
-106
-122
-126
-126
-132
-138
-139
-145
-164
-190
-223
-253
-259
-251
-247
-223
-167
-129
-149
-188
-190
-175
-188
-173
-126
-187
-312
-212
413
1628
2595
2003
261
-710
-501
-281
-368
-337
-252
-255
-216
-144
-107
-45
53
134
202
268
307
306
276
227
163
96
43
11
-11
-39
-74
-100
-105
-108
-134
-170
-199
-223
-225
-213
-236
-279
-284
-268
-281
-296
-282
-255
-252
-277
-281
-269
-300
-311
-274
-340
-433
-249
369
1467
2421
1885
77
-933
-581
-245
-349
-328
-220
-232
-212
-128
-65
-4
72
146
213
265
303
321
298
242
178
119
88
86
60
3
-29
-45
-83
-109
-102
-110
-142
-165
-188
-216
-226
-233
-247
-244
-240
-265
-268
-207
-158
-186
-235
-261
-268
-231
-194
-267
-343
-160
535
1771
2607
1755
-83
-884
-501
-240
-308
-254
-179
-190
-155
-87
-37
34
125
236
365
470
535
561
521
435
354
279
201
130
47
-44
-102
-119
-130
-144
-140
-127
-145
-187
-201
-195
-224
-267
-267
-249
-266
-297
-288
-256
-258
-286
-294
-297
-315
-303
-273
-313
-339
-28
854
1870
1882
541
-757
-853
-418
-304
-317
-242
-223
-214
-136
-71
-28
54
158
262
366
452
486
457
383
288
190
101
24
-45
-105
-146
-164
-171
-167
-150
-144
-164
-190
-199
-201
-212
-224
-226
-229
-251
-279
-277
-256
-270
-316
-310
-277
-305
-310
-245
-303
-431
-253
428
1582
2551
2054
282
-769
-493
-191
-303
-299
-217
-239
-209
-131
-99
-41
60
152
235
306
340
328
277
214
162
111
58
14
-31
-79
-113
-128
-134
-138
-153
-170
-177
-186
-205
-219
-233
-257
-274
-272
-266
-256
-229
-188
-165
-193
-224
-202
-197
-224
-177
-158
-308
-363
57
1178
2700
3163
1613
-287
-675
-289
-297
-390
-290
-269
-284
-212
-152
-106
-19
71
156
243
296
301
276
230
173
124
83
34
-23
-74
-116
-145
-153
-154
-168
-180
-185
-199
-219
-227
-221
-221
-240
-257
-254
-250
-260
-256
-224
-190
-192
-225
-238
-222
-233
-240
-204
-227
-317
-250
208
1151
2047
1757
302
-699
-562
-265
-294
-275
-192
-194
-169
-99
-54
1
79
150
227
305
354
368
349
302
249
203
160
121
86
46
-6
-58
-92
-116
-140
-162
-183
-202
-213
-214
-219
-233
-243
-252
-267
-275
-273
-271
-253
-208
-178
-197
-239
-247
-224
-230
-237
-196
-212
-301
-256
148
1145
2415
2551
1000
-498
-616
-270
-296
-328
-238
-240
-238
-159
-102
-55
24
106
177
239
286
309
289
225
160
121
92
59
26
-8
-48
-80
-99
-116
-138
-155
-162
-164
-171
-193
-219
-231
-246
-274
-292
-288
-284
-281
-260
-226
-214
-241
-263
-248
-251
-288
-262
-216
-290
-351
-109
701
2109
3024
2009
-48
-892
-487
-274
-369
-289
-217
-250
-204
-118
-67
1
89
174
259
335
382
373
311
230
163
133
123
77
-3
-48
-56
-73
-92
-99
-129
-176
-188
-182
-223
-284
-293
-260
-251
-266
-263
-254
-264
-263
-231
-205
-229
-270
-271
-258
-263
-249
-245
-296
-242
172
1104
2186
2215
697
-789
-863
-355
-275
-318
-208
-167
-179
-115
-26
28
73
161
306
430
490
522
524
456
349
251
153
58
-3
-45
-99
-144
-162
-169
-176
-174
-173
-196
-239
-271
-274
-271
-282
-292
-296
-302
-306
-297
-287
-293
-307
-309
-298
-304
-326
-315
-280
-290
-305
-133
531
1677
2285
1307
-335
-885
-476
-266
-315
-247
-192
-198
-137
-62
-17
55
149
253
378
484
530
535
518
459
360
261
177
92
3
-66
-113
-141
-151
-151
-155
-158
-153
-153
-168
-190
-208
-224
-246
-261
-261
-265
-278
-273
-242
-226
-249
-258
-238
-248
-251
-205
-237
-349
-263
317
1557
2795
2469
535
-823
-642
-258
-342
-358
-260
-266
-237
-151
-108
-45
69
172
267
366
439
468
448
372
263
167
99
37
-30
-94
-148
-185
-202
-203
-200
-201
-206
-212
-225
-245
-263
-279
-296
-307
-306
-301
-300
-300
-284
-252
-243
-280
-301
-280
-295
-315
-264
-294
-418
-323
179
1251
2626
2768
955
-769
-804
-328
-375
-421
-290
-285
-280
-177
-107
-48
53
149
239
334
394
406
378
318
252
193
129
60
-1
-60
-124
-175
-192
-192
-204
-218
-221
-222
-232
-243
-254
-263
-265
-274
-292
-297
-289
-289
-280
-243
-204
-188
-197
-208
-191
-183
-208
-196
-189
-287
-352
-96
794
2265
3054
1904
-20
-683
-331
-223
-311
-225
-176
-196
-143
-84
-45
22
92
170
274
353
380
371
332
288
250
199
148
115
72
4
-52
-81
-104
-127
-145
-160
-178
-195
-204
-211
-226
-244
-257
-263
-273
-287
-291
-283
-275
-265
-238
-202
-191
-216
-253
-256
-246
-261
-244
-207
-272
-327
-124
452
1427
2165
1516
-126
-919
-546
-241
-298
-253
-168
-176
-139
-69
-36
18
111
208
301
379
424
432
392
319
246
181
126
88
49
-1
-32
-33
-44
-74
-92
-100
-122
-149
-160
-156
-158
-186
-225
-247
-260
-281
-284
-262
-251
-256
-246
-222
-218
-248
-273
-256
-253
-285
-266
-243
-313
-316
-36
780
2200
3034
1859
-193
-886
-456
-317
-417
-327
-279
-303
-227
-151
-126
-55
54
157
265
356
391
372
317
234
141
61
2
-34
-58
-86
-105
-105
-104
-113
-114
-111
-124
-142
-147
-154
-178
-207
-219
-230
-257
-281
-283
-269
-247
-214
-181
-185
-228
-243
-224
-238
-239
-199
-264
-372
-234
315
1417
2605
2390
565
-785
-637
-265
-342
-345
-237
-245
-225
-143
-102
-48
47
136
229
328
383
382
360
326
262
175
103
62
23
-26
-73
-105
-122
-133
-141
-145
-152
-166
-180
-185
-188
-196
-197
-199
-214
-226
-221
-217
-215
-195
-167
-171
-213
-240
-230
-242
-263
-228
-235
-333
-284
150
1050
2053
2045
639
-664
-702
-308
-294
-331
-236
-210
-199
-132
-80
-27
56
134
208
289
346
365
355
313
247
191
154
120
73
15
-37
-68
-86
-106
-126
-146
-172
-188
-184
-181
-197
-219
-227
-238
-258
-259
-239
-234
-242
-227
-193
-178
-203
-227
-211
-213
-247
-205
-166
-277
-325
27
964
2302
2831
1520
-302
-749
-326
-264
-355
-250
-208
-233
-175
-122
-86
5
104
183
272
349
381
372
331
268
205
159
123
85
40
-6
-46
-67
-80
-105
-133
-148
-170
-208
-241
-260
-270
-275
-289
-313
-313
-295
-298
-309
-289
-257
-252
-281
-299
-281
-284
-302
-259
-250
-350
-342
20
963
2314
2697
1186
-566
-795
-321
-297
-374
-265
-242
-256
-189
-138
-96
-14
65
139
221
273
278
254
204
139
82
45
17
-16
-59
-99
-120
-126
-134
-147
-163
-182
-199
-214
-227
-238
-251
-272
-291
-291
-290
-297
-282
-238
-207
-224
-262
-268
-251
-266
-265
-216
-263
-397
-310
286
1450
2504
2146
466
-671
-539
-252
-316
-309
-228
-238
-210
-128
-76
-14
70
147
235
326
381
392
367
312
252
204
165
122
69
12
-36
-65
-78
-84
-93
-106
-119
-131
-142
-151
-152
-153
-173
-204
-211
-192
-179
-174
-151
-116
-105
-136
-172
-178
-180
-182
-142
-142
-251
-281
66
993
2186
2433
1102
-388
-634
-280
-242
-282
-193
-173
-169
-90
-38
-6
78
177
257
339
410
436
417
386
354
302
234
186
154
102
44
6
-14
-31
-50
-72
-93
-106
-116
-136
-167
-189
-199
-216
-233
-235
-230
-222
-199
-171
-188
-255
-284
-260
-278
-304
-263
-303
-427
-308
293
1399
2412
2021
246
-930
-688
-295
-356
-361
-265
-265
-241
-167
-114
-34
61
124
196
298
367
369
325
254
159
72
31
10
-49
-140
-202
-222
-241
-266
-277
-286
-307
-339
-374
-408
-428
-434
-446
-460
-458
-458
-470
-468
-450
-448
-476
-496
-481
-484
-502
-461
-448
-544
-525
-145
735
1934
2289
927
-743
-1008
-523
-457
-535
-421
-375
-387
-312
-236
-188
-104
3
112
217
297
332
322
271
193
109
36
-17
-58
-103
-146
-174
-186
-187
-180
-170
-164
-160
-162
-169
-171
-170
-178
-178
-163
-161
-172
-156
-113
-92
-113
-129
-97
-78
-101
-60
-16
-137
-205
156
1081
2386
3028
1900
53
-525
-72
74
-42
35
101
88
152
230
280
368
471
569
684
784
826
816
769
696
618
546
477
408
341
278
227
191
165
149
142
134
116
95
75
56
40
19
-13
-34
-42
-59
-71
-55
-39
-59
-111
-157
-163
-174
-222
-213
-202
-350
-456
-157
710
2048
2836
1801
-173
-972
-626
-499
-652
-619
-579
-619
-583
-531
-512
-460
-389
-328
-252
-183
-158
-172
-209
-267
-334
-396
-453
-520
-594
-662
-714
-748
-760
-758
