# session 37
-11
17
-52
30
356
580
508
350
255
166
63
-19
-79
-123
-147
-162
-170
-169
-173
-183
-173
-144
-136
-151
-151
-140
-143
-153
-156
-156
-157
-165
-169
-165
-175
-191
-176
-148
-147
-161
-162
-156
-153
-150
-147
-146
-145
-148
-152
-143
-125
-116
-120
-122
-121
-116
-107
-102
-105
-108
-111
-119
-130
-120
-78
-33
-8
-1
-16
-49
-69
-69
-79
-88
-76
-81
-98
-69
-67
-148
-130
246
1182
2396
2657
1310
-179
-377
-3
-24
-137
-78
-73
-100
-58
-41
-47
-15
12
12
29
67
101
132
164
198
238
290
339
377
410
436
447
453
454
434
392
339
270
172
58
-46
-125
-182
-229
-268
-289
-289
-283
-281
-282
-277
-268
-263
-262
-261
-254
-247
-246
-251
-258
-264
-260
-248
-244
-248
-248
-249
-252
-247
-237
-237
-239
-226
-213
-215
-219
-210
-200
-197
-195
-190
-190
-186
-175
-173
-190
-206
-202
-173
-123
-73
-56
-71
-94
-115
-125
-125
-134
-136
-123
-132
-133
-98
-127
-203
-83
482
1593
2626
2286
634
-467
-284
13
-106
-144
-72
-104
-114
-62
-51
-42
-5
15
26
56
91
120
147
184
232
282
320
359
408
446
463
477
490
484
460
413
327
217
119
30
-63
-149
-216
-261
-278
-278
-282
-284
-274
-267
-271
-270
-258
-250
-250
-247
-243
-246
-250
-248
-243
-242
-243
-244
-246
-249
-240
-225
-219
-219
-216
-213
-212
-204
-196
-198
-194
-178
-174
-189
-196
-192
-190
-173
-125
-76
-59
-73
-101
-122
-124
-126
-144
-151
-139
-140
-129
-104
-139
-183
-24
614
1857
2851
2163
259
-698
-317
-26
-158
-140
-65
-117
-108
-45
-44
-42
-9
13
36
67
94
130
172
199
229
279
325
360
403
443
463
471
470
451
413
358
278
175
64
-38
-114
-174
-234
-277
-289
-292
-293
-280
-271
-275
-270
-258
-257
-258
-247
-237
-243
-253
-249
-237
-239
-251
-252
-243
-240
-247
-249
-238
-225
-223
-227
-223
-216
-213
-206
-196
-194
-204
-216
-220
-207
-166
-116
-86
-81
-91
-120
-151
-158
-157
-156
-138
-134
-147
-122
-122
-206
-182
231
1224
2451
2643
1203
-302
-449
-45
-68
-177
-106
-97
-123
-86
-70
-69
-37
-15
-2
32
64
83
115
159
201
245
302
362
409
439
462
481
489
487
467
417
338
240
127
14
-81
-155
-215
-256
-279
-294
-297
-288
-282
-281
-271
-257
-254
-257
-254
-252
-253
-247
-239
-244
-252
-249
-246
-250
-250
-244
-244
-245
-240
-231
-225
-228
-232
-221
-204
-202
-219
-236
-235
-206
-158
-112
-85
-87
-119
-150
-153
-148
-155
-149
-143
-163
-148
-102
-148
-224
-55
621
1821
2696
2016
299
-542
-232
-19
-152
-142
-86
-131
-116
-64
-66
-52
-12
2
17
53
81
106
143
187
230
274
318
368
422
458
471
477
478
468
441
382
287
176
68
-32
-115
-182
-234
-269
-283
-282
-277
-275
-277
-271
-257
-248
-247
-246
-241
-237
-240
-251
-253
-240
-230
-238
-242
-238
-238
-239
-233
-226
-222
-220
-217
-207
-203
-210
-208
-194
-189
-198
-206
-209
-193
-144
-89
-67
-82
-111
-136
-143
-143
-146
-137
-130
-145
-131
-107
-169
-212
43
844
2067
2672
1663
15
-524
-145
-23
-151
-122
-91
-126
-97
-61
-60
-36
-7
8
34
63
86
119
159
198
246
292
325
366
418
453
464
474
483
470
426
356
267
165
62
-33
-112
-178
-234
-269
-278
-278
-278
-269
-256
-254
-260
-256
-241
-233
-236
-241
-244
-246
-243
-237
-233
-235
-242
-244
-237
-230
-227
-229
-229
-219
-210
-210
-204
-192
-193
-197
-189
-181
-188
-194
-192
-196
-200
-175
-124
-84
-66
-65
-90
-126
-138
-131
-134
-133
-136
-157
-144
-108
-149
-187
38
803
2065
2778
1788
19
-602
-190
-36
-169
-124
-77
-121
-98
-58
-65
-46
-9
4
22
62
97
113
137
184
237
284
330
370
406
446
469
467
469
475
447
384
297
189
77
-22
-117
-199
-247
-270
-290
-306
-306
-293
-277
-272
-274
-271
-272
-278
-271
-256
-258
-264
-261
-257
-254
-250
-256
-269
-263
-241
-230
-237
-239
-231
-226
-222
-216
-218
-227
-231
-219
-189
-150
-113
-92
-103
-142
-172
-171
-169
-173
-161
-156
-160
-137
-142
-208
-175
213
1236
2570
2751
1118
-511
-590
-101
-105
-191
-99
-99
-133
-85
-55
-52
-28
-5
14
43
79
121
154
178
220
277
331
382
426
452
470
487
493
477
439
387
311
206
95
-2
-90
-170
-228
-269
-294
-300
-299
-299
-289
-270
-262
-261
-252
-241
-238
-237
-233
-233
-236
-236
-233
-236
-240
-238
-239
-241
-237
-232
-228
-225
-225
-224
-214
-201
-199
-203
-199
-187
-189
-204
-210
-204
-190
-151
-97
-69
-76
-98
-121
-130
-129
-138
-140
-128
-139
-143
-109
-140
-218
-86
501
1629
2693
2385
708
-453
-292
8
-122
-166
-88
-121
-130
-71
-64
-68
-31
-1
13
38
65
91
128
174
221
268
313
360
411
452
472
483
494
490
462
405
317
211
96
-14
-101
-168
-225
-266
-288
-299
-299
-296
-298
-292
-273
-260
-258
-256
-252
-242
-232
-238
-245
-238
-238
-256
-260
-243
-238
-249
-252
-242
-233
-226
-217
-214
-217
-212
-198
-197
-204
-202
-207
-226
-224
-191
-146
-102
-72
-76
-102
-133
-151
-142
-136
-143
-140
-146
-152
-118
-128
-212
-136
375
1444
2557
2440
866
-412
-353
0
-92
-172
-97
-104
-119
-83
-75
-56
-11
1
5
43
80
104
138
179
216
261
316
368
408
438
466
494
504
492
468
416
325
214
110
13
-84
-168
-226
-259
-284
-304
-306
-289
-277
-276
-270
-258
-257
-253
-238
-237
-247
-244
-232
-235
-243
-239
-236
-241
-240
-233
-233
-232
-221
-213
-216
-214
-202
-194
-198
-203
-201
-190
-178
-180
-199
-212
-204
-175
-127
-74
-52
-72
-106
-127
-130
-134
-143
-138
-134
-155
-139
-96
-152
-221
-8
706
1879
2676
1953
275
-512
-201
-7
-142
-131
-78
-128
-124
-68
-53
-40
-8
12
27
56
88
116
149
188
229
275
325
366
405
456
494
499
495
493
464
395
300
195
88
-15
-108
-179
-231
-271
-292
-297
-301
-306
-293
-270
-265
-276
-267
-248
-247
-255
-251
-246
-247
-249
-252
-256
-252
-242
-239
-238
-233
-229
-227
-224
-220
-212
-200
-198
-211
-214
-198
-188
-197
-211
-214
-199
-163
-120
-86
-69
-80
-115
-141
-144
-155
-165
-138
-124
-154
-141
-111
-171
-192
105
979
2296
2858
1617
-177
-636
-171
-51
-165
-122
-107
-134
-85
-51
-55
-33
-11
5
35
68
101
142
180
213
249
295
349
402
444
478
499
506
512
509
468
383
274
164
60
-41
-133
-200
-246
-285
-316
-322
-308
-298
-298
-295
-286
-276
-267
-258
-256
-260
-262
-265
-272
-271
-263
-261
-267
-269
-265
-263
-259
-246
-239
-240
-235
-229
-229
-225
-216
-214
-221
-231
-231
-203
-156
-117
-96
-90
-107
-143
-163
-158
-159
-158
-145
-159
-164
-121
-140
-215
-107
450
1632
2816
2503
660
-607
-395
-23
-138
-179
-87
-106
-110
-60
-59
-58
-21
0
12
48
85
115
152
197
239
285
339
389
433
473
499
505
506
502
473
402
301
195
89
-15
-106
-180
-238
-274
-291
-302
-310
-308
-297
-283
-272
-263
-252
-243
-244
-245
-240
-240
-248
-247
-242
-241
-238
-237
-248
-252
-237
-224
-227
-230
-228
-225
-214
-200
-200
-203
-195
-191
-196
-203
-213
-209
-175
-127
-89
-74
-88
-114
-121
-120
-148
-175
-141
-103
-136
-144
-115
-180
-221
99
985
2210
2730
1650
1
-516
-138
-24
-157
-119
-78
-138
-130
-65
-58
-72
-38
7
17
40
97
126
128
170
241
290
330
384
425
447
475
507
516
494
440
361
270
162
43
-47
-113
-186
-257
-303
-310
-288
-290
-309
-286
-262
-290
-293
-238
-220
-252
-248
-222
-242
-265
-235
-216
-250
-261
-232
-248
-293
-264
-200
-200
-226
-223
-220
-223
-218
-216
-212
-216
-231
-208
-148
-117
-109
-83
-85
-140
-176
-151
-132
-153
-161
-153
-153
-123
-119
-197
-161
291
1292
2364
2327
903
-354
-376
-36
-89
-168
-104
-104
-110
-63
-54
-53
-28
-30
-19
36
69
87
139
181
200
248
303
344
398
438
438
455
492
491
459
412
328
222
123
16
-93
-168
-215
-254
-278
-280
-275
-284
-293
-277
-256
-253
-252
-250
-260
-269
-257
-240
-236
-235
-229
-228
-242
-257
-256
-248
-245
-236
-219
-208
-213
-228
-234
-238
-250
-238
-180
-112
-92
-122
-154
-160
-174
-193
-172
-139
-155
-187
-170
-150
-205
-257
-111
488
1691
2731
2217
444
-589
-336
-45
-165
-221
-168
-133
-70
-47
-87
-81
-34
-14
-12
8
50
90
124
171
221
253
296
365
419
435
439
454
481
493
456
382
290
175
53
-39
-110
-178
-241
-288
-311
-312
-309
-311
-317
-325
-318
-282
-250
-252
-263
-266
-268
-263
-259
-274
-286
-269
-259
-271
-264
-244
-251
-266
-255
-234
-219
-194
-150
-124
-143
-174
-183
-188
-203
-202
-188
-193
-204
-178
-175
-228
-196
165
1172
2560
2828
1185
-557
-693
-164
-141
-232
-132
-124
-158
-109
-90
-92
-65
-54
-32
30
76
100
138
180
216
262
313
364
415
454
482
500
498
479
453
401
298
168
50
-48
-139
-217
-268
-303
-330
-340
-331
-320
-315
-307
-296
-288
-279
-268
-266
-275
-278
-264
-251
-260
-279
-281
-265
-255
-265
-284
-289
-274
-256
-244
-218
-178
-155
-172
-207
-217
-206
-204
-203
-202
-217
-196
-154
-217
-302
-114
623
1961
2987
2290
399
-553
-247
-47
-207
-197
-137
-181
-165
-115
-113
-106
-86
-61
-12
25
41
75
115
152
212
275
312
356
422
469
483
494
498
479
432
341
210
81
-24
-115
-194
-255
-296
-317
-328
-335
-334
-332
-324
-303
-292
-304
-296
-266
-262
-276
-270
-257
-262
-270
-269
-263
-262
-268
-272
-278
-287
-281
-257
-222
-183
-157
-160
-184
-206
-211
-207
-201
-193
-204
-220
-184
-162
-249
-292
21
975
2373
2945
1720
-25
-517
-163
-99
-213
-171
-157
-185
-147
-118
-114
-87
-61
-43
-16
13
45
82
121
172
227
269
312
375
432
461
464
460
460
456
418
324
192
84
18
-69
-178
-225
-224
-255
-298
-298
-284
-276
-251
-224
-228
-238
-232
-235
-242
-225
-212
-228
-240
-230
-234
-255
-258
-241
-221
-214
-223
-228
-210
-195
-215
-245
-247
-230
-206
-163
-109
-88
-124
-167
-164
-148
-164
-173
-164
-177
-166
-116
-149
-239
-144
410
1581
2678
2296
578
-512
-314
-42
-164
-180
-99
-127
-137
-97
-85
-67
-43
-37
-10
32
50
73
126
175
203
242
298
346
385
422
447
456
458
453
426
376
298
185
69
-18
-88
-172
-246
-274
-279
-295
-304
-285
-265
-270
-283
-273
-251
-256
-270
-255
-235
-246
-260
-254
-253
-266
-268
-252
-240
-237
-237
-239
-234
-218
-214
-225
-231
-227
-214
-200
-183
-146
-104
-106
-144
-166
-174
-179
-164
-152
-168
-155
-121
-167
-215
-43
602
1837
2790
2049
159
-740
-346
-64
-177
-160
-112
-155
-109
-46
-79
-83
-18
24
37
62
82
91
130
198
240
252
296
374
425
434
440
455
464
453
416
355
274
168
48
-52
-123
-183
-240
-279
-298
-303
-299
-292
-286
-280
-276
-282
-284
-265
-249
-265
-285
-277
-263
-263
-268
-271
-268
-261
-276
-300
-285
-250
-248
-255
-228
-183
-157
-165
-198
-219
-214
-215
-216
-195
-193
-211
-186
-184
-261
-234
158
1176
2564
2872
1268
-486
-649
-139
-151
-265
-145
-113
-158
-129
-107
-94
-47
-26
-28
6
57
92
123
158
195
247
306
349
385
429
471
487
478
464
442
387
286
160
45
-48
-130
-204
-253
-284
-309
-321
-322
-320
-309
-290
-274
-264
-254
-248
-247
-249
-245
-244
-260
-266
-241
-228
-250
-255
-233
-235
-257
-263
-258
-252
-227
-187
-161
-143
-134
-159
-195
-188
-170
-179
-189
-192
-176
-131
-162
-259
-146
446
1608
2744
2503
801
-454
-342
-26
-144
-208
-136
-146
-156
-129
-116
-79
-37
-35
-27
14
55
79
100
143
208
259
293
342
399
437
461
470
462
454
433
359
249
134
23
-76
-157
-228
-280
-307
-317
-312
-310
-323
-319
-290
-282
-292
-277
-267
-290
-299
-272
-262
-275
-276
-278
-293
-294
-276
-269
-276
-284
-292
-291
-283
-281
-272
-234
-183
-157
-167
-198
-223
-220
-218
-220
-202
-204
-235
-211
-180
-243
-223
210
1240
2459
2597
1140
-335
-473
-93
-133
-252
-183
-149
-152
-118
-110
-109
-79
-52
-35
-11
14
57
115
155
186
229
273
321
381
410
401
421
470
483
448
381
279
167
78
-3
-99
-185
-229
-244
-262
-275
-263
-253
-261
-262
-246
-227
-218
-226
-236
-217
-192
-203
-225
-220
-204
-196
-198
-212
-217
-194
-177
-183
-175
-158
-170
-188
-179
-165
-152
-121
-86
-60
-51
-81
-118
-108
-82
-74
-74
-99
-115
-58
-51
-158
-111
368
1382
2558
2683
1239
-214
-358
-11
-37
-100
-35
-56
-76
-28
-17
-17
14
37
51
67
82
118
170
202
218
258
325
369
381
412
463
476
463
465
448
388
310
217
97
-14
-98
-180
-258
-301
-306
-302
-311
-326
-328
-324
-324
-327
-330
-333
-331
-335
-355
-366
-363
-372
-383
-373
-360
-363
-364
-357
-350
-346
-353
-367
-365
-358
-373
-395
-392
-367
-330
-286
-260
-276
-309
-315
-307
-318
-323
-315
-332
-328
-286
-328
-401
-224
445
1664
2646
2019
165
-813
-456
-163
-304
-302
-214
-236
-212
-158
-172
-169
-117
-76
-44
-10
17
56
115
164
199
251
324
384
418
447
475
496
507
509
494
448
369
281
209
147
83
28
-5
-19
-20
-9
9
27
46
70
94
110
