# session 29
3
30
-86
92
650
992
925
819
783
726
724
738
647
572
600
559
430
431
551
571
466
399
403
365
297
311
333
256
205
224
207
172
130
256
932
1589
1037
-202
-544
-102
44
-53
29
98
41
7
1
0
22
4
-51
-52
-22
-25
-26
-8
-26
-48
-5
37
27
44
100
126
133
132
106
110
146
104
-18
-102
-146
-225
-298
-307
-308
-335
-337
-323
-343
-358
-337
-312
-271
-210
-217
-282
-270
-196
-166
-158
-144
-179
-217
-183
-132
-117
-116
-116
-105
-77
-63
-66
-56
-50
-68
-81
-73
-76
-83
-73
-55
-34
-59
-64
330
1055
1142
237
-566
-500
-134
-38
-66
-34
10
6
-38
-59
-26
-3
-31
-54
-35
-4
9
15
31
51
51
40
58
117
173
191
189
209
246
255
229
203
164
86
7
-40
-87
-132
-161
-186
-199
-193
-190
-187
-172
-158
-148
-148
-163
-156
-126
-122
-127
-109
-100
-109
-105
-93
-99
-110
-103
-81
-59
-42
-16
4
-17
-49
-53
-44
-44
-33
-15
-31
-54
-17
-14
-29
353
1067
1100
160
-573
-426
-75
-12
-24
-1
-4
0
13
9
14
23
17
21
44
50
43
60
85
93
113
158
185
192
226
280
309
321
346
355
321
280
246
189
116
56
9
-25
-27
-19
-52
-109
-125
-113
-111
-96
-71
-86
-113
-106
-103
-115
-97
-76
-95
-110
-101
-115
-145
-138
-110
-97
-89
-72
-59
-69
-109
-141
-122
-105
-133
-139
-107
-97
-87
-107
-162
135
882
1120
288
-586
-599
-256
-143
-139
-110
-96
-75
-59
-76
-84
-78
-74
-53
-26
-19
-11
-4
-5
20
66
90
102
130
171
211
236
251
273
283
270
254
218
150
92
44
-23
-77
-101
-124
-135
-123
-124
-132
-125
-125
-134
-123
-99
-85
-81
-91
-104
-96
-83
-88
-99
-111
-121
-99
-56
-47
-58
-50
-55
-88
-103
-95
-107
-114
-81
-79
-127
-104
-81
-121
243
1085
1261
228
-722
-636
-212
-112
-129
-93
-83
-74
-39
-21
-27
-32
-27
-6
10
8
17
49
62
61
91
136
161
190
233
269
294
309
321
345
355
308
229
161
90
25
-13
-63
-125
-134
-118
-141
-152
-121
-118
-140
-130
-107
-102
-97
-95
-107
-110
-94
-86
-89
-99
-115
-108
-76
-71
-84
-65
-36
-44
-83
-111
-96
-70
-79
-94
-98
-102
-86
-113
-71
490
1283
1100
-71
-739
-443
-113
-114
-107
-63
-72
-69
-58
-69
-62
-45
-47
-46
-34
-21
-5
10
21
42
76
107
135
171
212
253
286
306
309
301
288
259
195
110
32
-29
-72
-101
-127
-146
-145
-141
-147
-145
-130
-123
-125
-118
-107
-106
-107
-99
-89
-84
-84
-89
-95
-95
-89
-78
-60
-44
-37
-34
-37
-64
-92
-88
-86
-101
-87
-75
-104
-105
-122
-75
474
1234
1002
-163
-743
-381
-81
-122
-109
-58
-83
-78
-46
-53
-57
-37
-27
-25
-22
-18
-4
14
27
46
77
107
138
176
212
244
275
298
301
296
286
248
177
103
43
-10
-59
-96
-113
-118
-125
-133
-130
-125
-126
-122
-114
-117
-120
-111
-104
-103
-101
-101
-107
-110
-109
-112
-120
-122
-111
-90
-70
-55
-48
-53
-72
-86
-81
-80
-94
-80
-61
-84
-85
-82
-83
302
1044
1084
90
-640
-420
-68
-65
-81
-32
-42
-48
-23
-20
-20
-10
-6
0
11
16
27
50
67
79
99
128
157
187
224
266
301
318
328
332
309
256
198
130
51
-6
-37
-75
-111
-120
-123
-137
-144
-144
-138
-125
-120
-126
-123
-111
-98
-91
-99
-109
-99
-86
-93
-104
-107
-107
-110
-107
-90
-68
-60
-58
-57
-74
-94
-100
-108
-102
-69
-79
-127
-103
-93
-67
420
1159
1008
-82
-729
-476
-158
-114
-78
-49
-83
-85
-55
-37
-23
-31
-56
-47
-8
8
-2
5
32
50
64
97
139
169
191
220
259
294
311
299
274
253
216
141
56
-5
-50
-97
-129
-131
-119
-126
-142
-131
-108
-113
-133
-123
-88
-74
-89
-95
-79
-71
-89
-104
-88
-71
-93
-124
-110
-74
-66
-67
-47
-37
-64
-90
-80
-75
-104
-107
-72
-86
-101
-82
-92
207
1057
1439
464
-714
-768
-263
-102
-119
-63
-50
-70
-57
-45
-40
-27
-17
-4
6
7
22
53
66
70
99
136
157
187
234
280
322
354
361
354
346
323
273
194
93
7
-37
-73
-131
-169
-164
-156
-164
-165
-155
-145
-135
-128
-125
-126
-123
-116
-108
-108
-112
-113
-119
-131
-138
-133
-124
-120
-111
-87
-69
-72
-87
-104
-109
-99
-108
-120
-105
-107
-119
-110
-132
114
934
1434
590
-634
-777
-268
-97
-139
-82
-57
-79
-66
-64
-74
-60
-42
-29
-11
1
11
25
26
32
69
110
141
186
237
273
309
344
355
352
347
319
251
163
86
19
-50
-109
-128
-129
-151
-175
-167
-148
-146
-145
-128
-117
-121
-123
-111
-99
-98
-99
-98
-100
-100
-101
-109
-117
-116
-116
-114
-93
-60
-41
-38
-45
-67
-88
-83
-75
-76
-66
-78
-100
-73
-90
14
691
1402
920
-320
-727
-279
-38
-100
-80
-43
-62
-52
-36
-39
-27
-19
-21
-14
-2
12
28
38
53
84
111
128
164
220
269
308
343
359
352
340
316
264
192
115
41
-19
-67
-107
-128
-132
-129
-130
-137
-138
-132
-138
-146
-137
-120
-117
-124
-121
-112
-119
-136
-135
-117
-104
-102
-114
-139
-156
-150
-137
-126
-100
-66
-50
-54
-77
-107
-105
-81
-95
-113
-89
-86
-96
-93
-102
209
984
1230
297
-617
-495
-83
-68
-113
-49
-62
-89
-49
-31
-42
-28
-12
-16
-20
-7
22
51
55
51
73
106
136
182
233
258
279
313
331
321
301
272
216
144
83
24
-41
-83
-95
-116
-134
-113
-94
-118
-142
-135
-125
-117
-103
-99
-108
-111
-105
-100
-101
-104
-98
-88
-90
-99
-90
-78
-95
-123
-126
-115
-119
-124
-105
-68
-37
-30
-36
-43
-63
-83
-71
-63
-76
-58
-33
-45
-62
-91
60
672
1157
612
-374
-566
-167
-14
-63
-33
-18
-38
-17
-1
-12
-10
0
6
11
16
27
42
48
54
75
102
129
155
188
227
250
268
307
331
300
261
240
188
107
49
11
-34
-78
-98
-95
-95
-116
-126
-115
-104
-98
-90
-93
-102
-94
-80
-89
-108
-102
-83
-96
-119
-104
-82
-98
-118
-112
-110
-118
-115
-110
-116
-118
-106
-89
-72
-53
-43
-59
-86
-89
-87
-104
-95
-70
-88
-85
-63
-84
217
1004
1260
305
-695
-659
-213
-89
-90
-41
-47
-59
-20
-5
-17
-9
9
17
24
34
37
45
69
93
106
130
159
181
210
256
301
319
319
326
327
297
247
195
127
49
-14
-67
-110
-129
-135
-150
-164
-158
-138
-125
-126
-131
-131
-128
-126
-130
-129
-119
-110
-113
-122
-126
-125
-121
-118
-120
-127
-132
-131
-131
-122
-88
-63
-69
-67
-61
-93
-119
-99
-91
-98
-81
-94
-110
-87
-120
75
879
1459
693
-590
-858
-370
-137
-137
-70
-46
-73
-44
-27
-51
-37
-2
-6
-8
29
53
43
55
98
116
128
174
222
241
263
308
358
391
391
378
372
334
239
140
76
28
-24
-70
-98
-104
-106
-117
-128
-118
-99
-93
-96
-92
-88
-88
-82
-77
-93
-109
-99
-84
-91
-103
-99
-98
-117
-130
-120
-115
-128
-128
-104
-84
-76
-66
-58
-69
-88
-88
-88
-105
-99
-77
-93
-99
-99
-119
228
1050
1276
280
-684
-577
-140
-89
-125
-60
-61
-89
-66
-52
-54
-36
-22
-34
-37
-15
2
6
22
50
70
94
132
164
191
241
291
303
303
319
320
283
226
167
92
9
-52
-93
-127
-137
-130
-146
-166
-149
-116
-113
-131
-145
-142
-118
-101
-108
-110
-90
-83
-106
-111
-87
-76
-90
-95
-90
-85
-86
-96
-104
-91
-70
-56
-35
-5
3
-23
-49
-46
-37
-50
-46
-23
-40
-59
-60
-90
163
893
1212
407
-516
-503
-106
-41
-92
-50
-41
-61
-43
-26
-30
-31
-23
-15
-18
-18
6
27
23
25
54
88
116
151
190
223
255
286
305
304
290
273
232
156
81
28
-25
-74
-105
-129
-142
-136
-131
-136
-137
-134
-128
-112
-102
-113
-117
-99
-87
-97
-109
-106
-97
-92
-91
-96
-97
-87
-88
-107
-112
-103
-113
-122
-94
-57
-47
-43
-33
-40
-55
-59
-56
-63
-59
-41
-47
-60
-46
-74
24
585
1124
711
-253
-554
-208
-15
-52
-46
-28
-39
-25
-5
7
12
2
-1
16
19
14
27
46
61
81
99
117
145
175
206
250
287
304
314
310
291
262
203
114
44
7
-33
-80
-116
-130
-125
-126
-148
-158
-133
-114
-127
-138
-124
-114
-119
-117
-117
-129
-120
-95
-104
-132
-131
-122
-129
-128
-117
-116
-126
-135
-138
-130
-105
-71
-49
-61
-90
-89
-65
-77
-114
-104
-75
-90
-86
-75
-65
321
1072
1151
159
-668
-536
-155
-72
-52
-6
-31
-43
-3
8
-9
-7
-1
2
21
43
45
45
63
85
107
133
155
184
238
293
319
335
356
363
350
322
268
198
132
55
-29
-83
-105
-123
-134
-132
-134
-133
-122
-116
-123
-125
-114
-96
-87
-102
-117
-107
-98
-109
-112
-104
-112
-118
-106
-112
-138
-136
-119
-138
-156
-120
-82
-91
-96
-76
-86
-115
-111
-111
-122
-100
-97
-124
-112
-124
27
766
1460
870
-467
-890
-400
-99
-116
-75
-43
-75
-61
-38
-44
-35
-26
-29
-12
4
-2
8
38
59
83
119
145
176
231
279
310
344
361
353
371
416
393
275
153
84
27
-64
-165
-199
-161
-130
-129
-122
-119
-123
-102
-79
-87
-90
-63
-40
-36
-24
-18
-50
-90
-93
-79
-83
-95
-91
-87
-103
-122
-133
-144
-115
-33
-9
-76
-116
-106
-118
-133
-120
-112
-99
-98
-137
-142
-137
-81
459
1307
1214
-24
-845
-563
-152
-124
-129
-73
-75
-96
-99
-88
-65
-54
-52
-44
-32
-19
-22
-24
12
63
93
112
132
153
187
238
292
326
321
303
301
283
213
117
47
13
-25
-90
-140
-137
-110
-108
-134
-145
-122
-97
-86
-77
-67
-58
-39
-17
-17
-35
-35
-16
-16
-40
-54
-50
-59
-85
-97
-88
-93
-108
-99
-75
-73
-95
-124
-133
-129
-144
-146
-108
-110
-141
-129
-130
124
937
1398
504
-682
-719
-197
-102
-172
-96
-73
-93
-50
-18
-21
-11
3
16
31
39
58
93
116
127
150
180
214
255
301
347
389
417
433
438
419
374
308
225
135
58
-1
-49
-87
-116
-136
-148
-152
-153
-155
-164
-170
-166
-165
-172
-173
-167
-168
-175
-190
-206
-208
-205
-207
-199
-184
-179
-175
-161
-152
-150
-140
-118
-91
-65
-64
-87
-97
-87
-92
-93
-68
-71
-81
-63
-72
171
971
1470
638
-622
-824
-308
-83
-98
-41
-23
-56
-38
-21
-34
-31
-20
-17
-11
-5
1
14
28
39
63
96
125
151
186
237
294
331
344
354
358
331
273
197
107
15
-61
-117
-150
-174
-197
-203
-185
-173
-175
-170
-155
-143
-134
-127
-122
-115
-109
-107
-102
-96
-103
-110
-105
-100
-104
-107
-101
-84
-63
-48
-47
-61
-79
-81
-87
-105
-83
-54
-95
-102
-62
-41
443
1530
1769
305
-1116
-999
-316
-121
-112
-41
-53
-73
-33
-18
-22
-7
6
12
19
32
59
82
93
115
150
178
216
271
324
373
423
453
458
450
426
370
286
182
61
-50
-124
-167
-196
-210
-214
-222
-224
-210
-200
-195
-187
-182
-176
-165
-165
-174
-167
-152
-151
-161
-164
-157
-153
-152
-146
-149
-153
-123
-80
-76
-94
-114
-129
-112
-91
-101
-103
-105
-116
-88
-74
196
1158
1883
894
-877
-1273
-504
-98
-141
-89
-41
-83
-73
-46
-45
-23
-9
-20
3
47
54
47
73
115
139
163
212
271
315
363
424
459
461
468
464
410
312
198
90
-2
-87
-155
-192
-214
-222
-207
-207
-232
-223
-185
-174
-176
-150
-126
-131
-143
-133
-116
-118
-137
-148
-143
-136
-134
-138
-149
-156
-138
-99
-76
-96
-132
-141
-131
-125
-110
-101
-126
-116
-94
-30
569
1603
1541
-136
-1424
-1028
-215
-57
-103
-33
-35
-59
-15
4
-8
5
27
36
43
49
64
91
110
124
151
192
240
290
334
378
421
439
435
425
390
307
203
108
17
-75
-152
-196
-216
-232
-246
-247
-235
-216
-199
-192
-187
-170
-156
-157
-159
-153
-144
-140
-146
-158
-151
-132
-132
-138
-132
-136
-137
-102
-70
-83
-106
-101
-91
-106
-107
-71
-81
-126
-92
-58
137
968
1718
903
-795
-1236
-460
-16
-78
-53
-8
-51
-33
10
2
11
40
43
40
55
75
88
100
125
158
187
221
261
295
331
376
410
416
407
390
347
269
174
82
2
-67
-123
-156
-165
-170
-174
-167
-163
-167
-157
-135
-129
-132
-124
-119
-124
-125
-123
-124
-119
-112
-115
-119
-118
-118
-118
-113
-106
-92
-68
-45
-40
-61
-80
-73
-72
-83
-64
-57
-81
-57
-48
93
861
1673
1042
-573
-1114
-439
-9
-76
-69
-15
-41
-27
2
-15
-14
14
22
20
29
44
62
79
91
108
136
167
200
240
278
311
338
351
342
324
292
227
136
48
-30
-98
-147
-180
-203
-212
-208
-204
-201
-196
-193
-191
-182
-176
-182
-188
-184
-179
-180
-182
-183
-182
-177
-173
-177
-182
-181
-179
-181
-186
-184
-174
-161
-142
-118
-101
-106
-128
-137
-122
-122
-128
-105
-107
-128
-101
-106
92
935
1608
780
-706
-981
-317
-31
-108
-68
-29
-55
-27
1
-4
13
35
41
51
66
80
101
124
146
171
198
229
271
318
358
394
428
448
446
436
420
376
303
223
159
111
71
