# session 9
18
48
-84
-14
478
929
971
876
903
927
865
809
814
791
725
775
851
823
1293
2402
2604
1159
-130
18
583
687
664
723
724
707
733
745
721
718
751
752
728
748
779
833
911
836
797
1027
770
-312
-843
-250
173
-15
-74
1
-84
-125
-95
-138
-167
-152
-179
-202
-175
-164
-193
-209
-227
-266
-269
-274
-362
-413
-433
-463
95
1295
1473
-80
-1379
-1137
-541
-458
-435
-322
-354
-447
-484
-481
-420
-336
-284
-223
-153
-146
-153
-90
-27
-37
-54
-34
-58
-167
-286
-377
-469
-550
-577
-553
-513
-491
-488
-478
-467
-461
-430
-395
-399
-403
-377
-349
-324
-309
-301
-260
-226
-202
-148
-205
-143
694
1672
1231
-165
-646
-193
22
-50
-7
19
-32
-14
33
27
7
16
46
71
96
140
209
303
382
383
353
382
430
414
343
256
178
138
139
153
166
173
168
163
170
175
166
153
145
140
135
115
53
-13
-27
-40
-86
-110
-172
-132
445
1119
704
-511
-973
-525
-236
-300
-280
-198
-194
-182
-147
-141
-141
-119
-77
-7
75
131
172
239
319
353
338
319
305
266
193
105
27
-33
-79
-100
-98
-105
-121
-120
-118
-130
-138
-131
-111
-88
-72
-61
-86
-145
-156
-144
-183
-188
-222
-303
218
1325
1358
-190
-1307
-938
-340
-283
-296
-208
-193
-193
-149
-104
-71
-39
11
82
138
196
288
379
445
492
493
445
399
353
266
158
76
19
-18
-30
-42
-61
-57
-44
-58
-85
-110
-125
-98
-50
-43
-73
-99
-114
-111
-119
-156
-148
-179
-306
103
1255
1601
236
-1050
-846
-232
-161
-180
-69
-58
-71
-27
-11
13
74
109
132
168
190
233
317
369
369
373
365
317
262
197
101
18
-29
-71
-95
-85
-92
-122
-117
-98
-120
-154
-158
-151
-144
-133
-137
-172
-215
-215
-194
-228
-254
-239
-296
-94
729
1208
302
-902
-945
-399
-257
-306
-240
-204
-200
-175
-172
-152
-113
-94
-57
4
53
113
169
179
187
213
209
186
171
133
64
5
-30
-50
-62
-70
-76
-80
-88
-94
-85
-76
-74
-54
-23
-16
-16
-17
-53
-80
-50
-54
-94
-99
-183
-124
588
1298
756
-439
-733
-300
-151
-238
-199
-164
-191
-172
-132
-108
-75
-41
-19
11
72
152
220
261
298
324
318
302
301
271
185
102
63
27
-17
-30
-19
-30
-56
-65
-70
-90
-103
-90
-65
-42
-28
-37
-68
-83
-63
-77
-114
-114
-229
-287
407
1389
1040
-424
-1033
-503
-124
-167
-157
-106
-109
-82
-58
-54
-22
12
32
91
176
246
317
375
380
361
368
379
349
269
163
78
30
-8
-44
-66
-93
-122
-120
-107
-124
-140
-134
-151
-170
-134
-84
-88
-123
-132
-115
-129
-142
-101
-182
-289
274
1261
1092
-356
-1172
-701
-161
-112
-136
-99
-84
-74
-80
-84
-53
-22
0
34
75
139
226
297
343
369
358
320
281
223
146
85
42
-4
-37
-38
-36
-54
-80
-103
-122
-133
-153
-179
-173
-138
-113
-103
-115
-147
-154
-147
-176
-194
-247
-386
-124
774
1154
179
-869
-771
-269
-197
-242
-165
-144
-156
-118
-98
-100
-72
-34
3
61
130
187
230
267
296
310
297
273
251
208
140
92
78
63
42
30
16
-7
-16
-13
-20
-34
-34
-25
-24
-25
-18
-25
-61
-75
-52
-60
-82
-119
-238
-105
608
1078
400
-560
-601
-182
-103
-167
-119
-107
-134
-121
-110
-109
-88
-69
-51
-14
28
72
134
189
203
194
196
202
182
134
81
31
-13
-43
-65
-83
-92
-99
-116
-131
-133
-136
-139
-124
-95
-76
-67
-67
-95
-121
-101
-97
-121
-132
-250
-266
427
1289
858
-502
-970
-438
-114
-160
-129
-84
-110
-91
-53
-49
-26
21
53
83
137
200
254
304
347
367
361
346
316
251
167
97
44
1
-21
-32
-50
-73
-92
-104
-108
-113
-129
-141
-131
-114
-99
-93
-114
-136
-118
-123
-159
-141
-213
-321
225
1241
1117
-346
-1193
-724
-218
-195
-167
-93
-108
-92
-57
-55
-22
25
45
94
173
229
287
369
417
408
399
413
388
302
207
123
38
-33
-73
-97
-103
-100
-115
-136
-130
-108
-101
-121
-142
-125
-86
-72
-94
-123
-115
-91
-108
-112
-140
-286
-26
981
1431
266
-1014
-879
-219
-102
-167
-101
-95
-109
-57
-34
-41
-22
10
50
107
166
224
280
322
345
344
326
302
261
186
100
30
-15
-39
-52
-71
-92
-104
-123
-153
-169
-169
-188
-215
-204
-165
-144
-154
-185
-190
-165
-177
-198
-203
-317
-237
545
1257
649
-553
-775
-284
-118
-191
-145
-114
-134
-100
-68
-67
-44
-1
36
71
114
178
247
285
289
279
265
250
229
187
131
87
52
14
-14
-25
-37
-56
-77
-98
-111
-117
-125
-126
-105
-81
-68
-72
-99
-120
-109
-108
-124
-146
-270
-276
292
930
540
-479
-761
-336
-120
-167
-139
-107
-128
-112
-84
-77
-52
-15
16
53
108
175
233
270
294
306
309
311
298
244
169
111
68
29
3
-14
-32
-46
-57
-83
-108
-111
-109
-115
-105
-77
-62
-59
-75
-110
-112
-87
-102
-124
-201
-320
67
1012
1164
-32
-979
-687
-171
-129
-148
-76
-78
-86
-46
-19
2
28
51
94
150
199
262
333
372
380
385
384
359
304
219
120
44
5
-22
-63
-99
-106
-111
-138
-154
-143
-139
-161
-178
-166
-136
-111
-116
-152
-159
-130
-147
-165
-163
-297
-195
698
1391
484
-983
-1135
-423
-146
-194
-132
-96
-116
-86
-57
-43
-7
27
61
115
181
254
328
382
406
405
390
360
299
215
129
53
-8
-45
-71
-92
-102
-111
-129
-146
-150
-149
-160
-174
-164
-141
-133
-136
-151
-174
-160
-144
-168
-185
-284
-367
183
1137
1002
-321
-1012
-540
-125
-168
-161
-83
-94
-85
-42
-27
-4
39
74
113
170
234
294
341
364
358
334
312
287
240
176
120
79
49
27
13
6
-4
-25
-42
-49
-59
-77
-83
-65
-39
-22
-14
-31
-65
-67
-53
-66
-86
-181
-294
87
909
968
-59
-752
-449
-88
-122
-141
-78
-92
-99
-70
-66
-56
-21
7
32
71
120
172
217
240
242
228
204
176
142
88
20
-37
-69
-92
-118
-144
-165
-182
-192
-199
-207
-216
-222
-212
-186
-165
-150
-141
-160
-180
-173
-175
-178
-222
-376
-208
636
1133
266
-866
-855
-286
-136
-189
-124
-92
-107
-81
-57
-40
-2
34
67
115
169
222
283
337
363
360
346
328
294
224
127
47
9
-17
-56
-86
-93
-98
-115
-128
-126
-121
-135
-155
-131
-85
-70
-74
-88
-119
-114
-76
-72
-83
-189
-285
278
1303
1167
-354
-1223
-676
-92
-74
-70
-1
-29
-13
50
57
69
115
150
201
277
343
413
494
533
516
498
495
461
365
248
161
98
40
-5
-30
-40
-46
-64
-80
-75
-73
-100
-127
-129
-114
-98
-82
-84
-118
-134
-111
-121
-146
-162
-310
-305
465
1281
659
-777
-1118
-467
-137
-197
-165
-131
-158
-126
-91
-92
-65
-21
13
57
112
174
237
275
279
265
240
210
179
122
40
-25
-55
-80
-109
-122
-126
-143
-167
-182
-189
-198
-209
-214
-200
-167
-138
-128
-143
-169
-164
-146
-164
-176
-248
-397
-97
799
1072
79
-792
-566
-129
-125
-155
-82
-86
-94
-53
-43
-33
9
46
77
121
173
227
275
296
289
272
252
228
194
141
83
36
0
-31
-51
-65
-80
-95
-106
-118
-133
-153
-167
-154
-116
-93
-89
-88
-104
-127
-117
-103
-107
-115
-243
-321
237
1081
845
-374
-901
-414
-50
-95
-89
-28
-38
-26
6
14
41
84
112
147
210
282
336
366
389
406
396
367
334
285
200
105
46
21
-8
-39
-52
-57
-78
-103
-112
-111
-121
-138
-134
-108
-88
-74
-64
-89
-118
-100
-92
-107
-121
-267
-271
524
1414
777
-806
-1229
-498
-88
-140
-94
-32
-69
-52
-4
0
17
70
119
163
239
334
404
449
482
487
468
439
376
264
134
29
-33
-64
-88
-114
-144
-181
-194
-174
-160
-173
-191
-213
-227
-210
-181
-167
-168
-191
-202
-179
-191
-204
-175
-277
-245
520
1229
422
-1086
-1320
-539
-156
-184
-124
-85
-108
-66
-44
-60
-14
57
91
137
220
298
364
424
460
451
422
397
344
234
107
20
-32
-79
-114
-129
-143
-154
-157
-166
-176
-171
-174
-199
-203
-171
-146
-138
-133
-154
-176
-156
-151
-168
-198
-351
-263
603
1317
478
-949
-1087
-361
-99
-178
-113
-58
-80
-54
-20
-4
33
75
113
168
235
310
384
431
431
398
365
348
308
215
114
55
19
-15
-36
-42
-48
-63
-76
-81
-88
-91
-90
-99
-106
-84
-44
-28
-55
-88
-72
-51
-74
-86
-189
-343
123
1170
1227
-118
-989
-538
-31
-69
-96
-19
-36
-36
6
0
6
58
95
123
178
247
307
348
353
324
285
248
223
197
119
2
-47
-31
-60
-113
-103
-96
-147
-174
-160
-170
-188
-180
-174
-174
-155
-124
-105
-119
-146
-144
-140
-150
-188
-364
-397
288
1100
698
-494
-845
-347
-75
-117
-97
-76
-91
-56
-34
-44
-6
62
97
120
173
236
272
288
302
305
300
287
246
181
117
60
7
-27
-46
-70
-90
-85
-77
-98
-133
-150
-149
-143
-132
-113
-97
-85
-86
-124
-156
-140
-137
-158
-193
-362
-384
287
1024
578
-533
-789
-311
-113
-185
-150
-104
-116
-109
-110
-107
-56
-8
15
64
137
207
274
329
351
347
337
321
282
213
133
62
15
-7
-24
-57
-82
-80
-87
-118
-138
-141
-157
-168
-148
-115
-100
-94
-98
-132
-161
-137
-117
-134
-172
-296
-207
577
1300
643
-704
-989
-383
-88
-121
-59
-20
-54
-28
18
32
57
98
144
198
248
304
381
444
452
429
427
425
355
234
145
91
19
-46
-74
-97
-111
-96
-94
-120
-126
-117
-130
-151
-142
-111
-88
-79
-90
-130
-152
-126
-132
-154
-145
-271
-272
541
1447
806
-773
-1198
-510
-130
-170
-119
-75
-111
-76
-20
-12
10
54
84
125
203
301
384
437
458
450
420
375
310
217
108
8
-65
-108
-129
-145
-162
-169
-165
-155
-143
-150
-180
-191
-158
-115
-101
-113
-142
-181
-203
-193
-188
-188
-186
-317
-351
380
1370
963
-629
-1291
-648
-162
-208
-190
-97
-102
-86
-52
-52
-23
26
53
99
176
251
322
386
413
393
356
321
275
191
86
3
-51
-89
-114
-128
-128
-127
-141
-150
-144
-148
-159
-152
-142
-133
-109
-99
-118
-144
-160
-152
-150
-165
-158
-244
-355
150
1152
1144
-155
-944
-522
-85
-124
-129
-50
-66
-68
-30
-18
14
76
116
147
207
287
363
410
427
423
390
336
285
224
137
64
20
-19
-46
-52
-56
-58
-57
-78
-103
-97
-86
-95
-91
-67
-53
-48
-44
-71
-108
-96
-83
-113
-131
-217
-292
195
1056
979
-139
-740
-376
-84
-155
-152
-95
-121
-119
-82
-76
-61
-23
14
55
111
175
240
285
297
284
253
213
173
126
59
-10
-58
-85
-101
-112
-128
-143
-140
-138
-161
-183
-182
-178
-176
-155
-124
-105
-96
-113
-150
-147
-124
-143
-164
-232
-314
122
1083
1202
-46
-1014
-699
-159
-127
-154
-67
-66
-77
-26
-10
-13
30
89
131
181
250
323
398
456
459
409
357
315
253
163
71
-13
-79
-109
-114
-125
-143
-144
-139
-151
-170
-172
-168
-184
-205
-197
-168
-155
-167
-182
-178
-169
-191
-209
-210
-310
-226
609
1451
739
-915
-1382
-626
-157
-176
-113
-46
-97
-81
-8
9
12
49
116
212
293
338
416
529
567
523
485
453
380
268
138
50
27
-18
-74
-46
-29
-103
-113
-44
-54
-90
-58
-55
-98
-100
-91
-98
-75
-68
-90
-75
-96
-155
-80
-84
-292
99
1182
1226
-324
-1408
-930
-204
-91
-103
-20
-18
-35
-4
19
46
81
102
144
213
277
352
438
487
489
470
432
370
284
174
60
-27
-76
-106
-132
-135
-129
-150
-167
-148
-138
-161
-181
-186
-185
-175
-167
-162
-148
-154
-179
-177
-178
-189
-182
-311
-401
244
1201
863
-605
-1207
-599
-143
-178
-167
-105
-136
-142
-104
-83
-59
-27
2
48
108
169
228
272
287
281
263
231
181
110
24
-57
-112
-138
-152
-164
-168
-167
-171
-173
-171
-172
-172
-171
-186
-193
-156
-106
-92
-112
-139
-135
-107
-116
-131
-162
-321
-192
731
1435
621
-671
-758
-157
-1
-66
15
40
6
28
35
28
72
120
153
204
278
372
463
496
476
452
433
399
346
272
190
121
78
59
51
42
29
17
-1
-26
-43
-44
-53
-88
-124
-122
-88
-60
-57
-80
-116
-120
-105
-123
-140
-213
-335
10
911
1119
33
-884
-629
-135
-104
-132
-50
-46
-57
-26
-23
-22
16
57
102
162
223
284
343
367
347
317
298
268
205
123
53
-2
-49
-75
-84
-104
-135
-151
-158
-175
-200
-223
-238
-243
-235
-224
-220
-225
-221
-228
-259
-263
-227
-210
-203
-233
-340
-122
643
998
191
-721
-665
-238
-166
-212
-172
-179
-208
-189
-166
-147
-114
-83
-56
-16
42
112
185
241
265
266
265
250
193
113
44
-19
-69
-93
-107
-118
-108
-93
-105
-118
-107
-101
-104
-94
-86
-78
-36
8
2
-12
-9
-21
-21
-12
-29
-27
-101
-233
217
1249
1330
-21
-977
-605
-83
-61
-62
22
14
9
55
82
106
138
171
226
299
376
462
525
543
546
548
530
485
399
267
139
46
-22
-60
-76
-107
-137
-136
-143
-183
-204
-192
-191
-204
-210
-206
-185
-158
-153
-154
-163
-190
-185
-172
-194
-176
-232
-332
235
1329
1211
-406
-1372
-849
-263
-247
-239
-162
-193
-187
-122
-111
-104
-59
-19
