# session 28
-9
-8
-5
-4
-4
0
1
-1
11
17
-15
-50
-35
9
51
99
155
209
264
312
338
346
345
330
282
198
101
14
-58
-116
-154
-174
-186
-190
-184
-173
-165
-157
-152
-146
-132
-117
-114
-113
-98
-87
-95
-101
-94
-85
-81
-78
-78
-79
-76
-71
-71
-74
-73
-72
-77
-78
-72
-72
-75
-66
-48
-23
3
14
-1
-31
-46
-37
-37
-45
-26
-25
-47
-29
-44
66
773
1550
1042
-397
-955
-423
-35
-63
-49
-3
-31
-26
2
2
10
22
20
30
52
61
66
80
101
122
146
173
206
243
286
334
374
395
403
400
379
330
254
167
85
12
-51
-98
-125
-143
-153
-154
-149
-146
-142
-136
-128
-121
-117
-116
-117
-116
-115
-117
-120
-119
-118
-119
-122
-126
-129
-131
-134
-134
-134
-134
-134
-135
-136
-141
-149
-151
-137
-116
-96
-75
-61
-65
-87
-107
-106
-100
-111
-109
-90
-104
-108
-98
-109
241
1089
1340
291
-748
-629
-137
-75
-126
-70
-72
-88
-57
-48
-52
-32
-21
-19
-4
10
18
35
57
73
90
117
153
189
231
281
328
358
371
377
373
344
283
206
128
54
-8
-52
-82
-104
-117
-120
-119
-116
-112
-107
-101
-95
-91
-88
-83
-78
-76
-78
-81
-79
-76
-77
-81
-82
-82
-82
-82
-84
-86
-84
-82
-83
-81
-77
-80
-87
-93
-97
-98
-87
-67
-45
-23
-11
-18
-39
-59
-61
-55
-66
-65
-48
-61
-64
-57
-79
235
1058
1352
363
-696
-632
-133
-41
-95
-47
-43
-62
-38
-29
-30
-10
1
0
8
16
24
40
58
73
90
116
145
174
212
258
302
337
358
360
348
322
275
207
128
49
-21
-78
-115
-132
-145
-159
-162
-151
-145
-145
-140
-132
-133
-133
-125
-119
-119
-121
-117
-110
-110
-117
-120
-113
-109
-114
-117
-112
-107
-107
-107
-105
-103
-105
-109
-111
-109
-106
-102
-88
-64
-41
-31
-32
-48
-73
-75
-66
-80
-79
-52
-69
-80
-45
-62
199
1064
1527
532
-796
-904
-308
-80
-102
-49
-36
-60
-32
-14
-17
-2
10
12
26
41
49
60
79
102
126
148
177
219
266
307
348
385
407
413
408
384
330
250
159
71
-7
-66
-107
-140
-159
-161
-158
-155
-146
-140
-138
-132
-124
-124
-121
-111
-107
-111
-112
-110
-107
-104
-103
-103
-103
-106
-109
-104
-100
-102
-105
-104
-100
-92
-87
-94
-101
-102
-103
-101
-93
-79
-58
-31
-16
-26
-56
-77
-71
-66
-75
-62
-56
-83
-72
-72
-40
506
1386
1264
-70
-927
-574
-97
-73
-88
-32
-49
-57
-28
-24
-23
-8
-3
1
17
32
44
57
73
91
112
138
171
210
251
294
336
366
379
381
371
338
275
192
106
30
-32
-79
-112
-133
-145
-145
-144
-143
-140
-136
-134
-128
-120
-120
-122
-116
-110
-111
-113
-111
-111
-113
-112
-110
-112
-115
-112
-111
-112
-113
-109
-106
-103
-103
-102
-100
-100
-103
-105
-109
-112
-102
-79
-55
-34
-20
-24
-47
-68
-66
-60
-70
-65
-48
-66
-68
-60
-64
310
1144
1329
258
-728
-580
-103
-46
-91
-38
-39
-56
-27
-17
-21
-8
3
8
18
29
38
52
70
89
110
137
169
204
243
287
328
357
376
383
375
347
296
223
139
62
-3
-54
-91
-114
-125
-130
-130
-129
-128
-127
-123
-116
-108
-103
-101
-99
-95
-94
-99
-100
-96
-96
-99
-100
-100
-101
-99
-96
-95
-94
-93
-95
-97
-98
-97
-91
-86
-88
-87
-86
-94
-103
-99
-80
-57
-35
-16
-10
-28
-62
-71
-58
-67
-74
-52
-60
-80
-59
-78
95
841
1429
735
-530
-817
-303
-50
-95
-71
-47
-70
-51
-27
-34
-34
-22
-13
-1
13
25
35
47
62
85
112
135
162
201
250
297
334
354
360
358
349
317
251
168
85
10
-52
-101
-137
-155
-159
-159
-157
-152
-151
-150
-140
-124
-118
-118
-118
-117
-113
-110
-112
-115
-111
-107
-106
-108
-112
-114
-113
-109
-106
-107
-107
-105
-104
-103
-101
-99
-99
-99
-95
-80
-52
-28
-20
-26
-48
-71
-65
-56
-69
-59
-45
-74
-64
-54
-37
490
1441
1410
11
-1008
-701
-153
-76
-82
-26
-38
-42
-8
-6
-8
10
21
27
38
48
62
81
100
120
140
164
200
242
286
337
389
423
433
432
423
392
325
229
132
45
-30
-90
-128
-151
-166
-175
-175
-170
-165
-162
-156
-148
-143
-140
-136
-133
-128
-126
-126
-126
-120
-119
-125
-128
-126
-123
-122
-123
-123
-123
-120
-116
-117
-121
-124
-127
-128
-118
-101
-82
-60
-41
-36
-54
-82
-89
-79
-88
-91
-69
-81
-95
-77
-97
163
1016
1506
579
-717
-842
-267
-64
-115
-68
-47
-72
-51
-33
-33
-17
-6
-6
5
20
29
39
56
78
102
127
156
191
231
275
321
358
381
390
386
362
311
234
145
65
0
-58
-102
-127
-140
-149
-149
-141
-138
-137
-130
-119
-112
-108
-104
-99
-97
-100
-102
-97
-95
-99
-102
-99
-98
-99
-97
-95
-96
-98
-100
-100
-95
-91
-94
-99
-104
-109
-105
-88
-70
-51
-28
-16
-30
-60
-77
-70
-68
-76
-63
-60
-80
-70
-84
-4
600
1358
1039
-211
-793
-379
-41
-82
-81
-33
-56
-55
-28
-30
-25
-6
-2
2
17
30
39
49
69
92
113
135
166
206
250
296
334
361
378
381
366
328
265
187
108
36
-24
-69
-98
-116
-124
-129
-132
-131
-127
-123
-118
-112
-109
-105
-104
-107
-108
-103
-101
-105
-107
-107
-108
-108
-103
-100
-104
-109
-108
-106
-105
-102
-98
-97
-101
-103
-104
-104
-93
-72
-51
-31
-16
-20
-42
-63
-64
-63
-77
-73
-52
-69
-73
-65
-94
214
1039
1335
350
-696
-632
-147
-58
-103
-58
-62
-82
-55
-47
-50
-34
-27
-27
-14
-3
3
17
35
48
62
84
120
163
199
234
276
314
335
345
344
323
276
200
114
43
-19
-81
-124
-137
-143
-155
-159
-150
-144
-143
-134
-123
-120
-121
-121
-117
-104
-93
-99
-108
-103
-95
-94
-97
-100
-97
-89
-86
-90
-90
-87
-91
-94
-92
-92
-93
-83
-65
-43
-22
-10
-12
-29
-53
-55
-44
-52
-53
-37
-52
-48
-30
-55
291
1217
1560
427
-850
-851
-256
-63
-82
-29
-23
-42
-17
-5
-7
5
12
16
34
49
57
66
82
103
121
138
174
226
271
310
359
399
415
419
418
396
336
247
154
65
-22
-95
-135
-154
-172
-188
-191
-188
-182
-171
-162
-161
-157
-149
-146
-147
-142
-139
-140
-141
-139
-140
-143
-141
-137
-138
-141
-143
-144
-142
-137
-137
-144
-147
-145
-145
-141
-126
-103
-79
-63
-62
-81
-104
-103
-93
-104
-98
-74
-92
-96
-74
-88
259
1186
1531
393
-875
-839
-230
-69
-114
-58
-46
-65
-35
-21
-27
-12
0
7
24
38
44
56
74
94
120
150
179
214
261
311
357
391
412
422
415
384
330
254
163
75
2
-56
-99
-124
-137
-143
-143
-138
-131
-126
-120
-110
-103
-100
-96
-93
-93
-91
-87
-88
-90
-90
-92
-94
-94
-94
-95
-99
-104
-102
-95
-97
-101
-102
-107
-113
-102
-81
-62
-39
-23
-31
-57
-76
-72
-64
-71
-66
-56
-77
-74
-67
-77
323
1205
1389
257
-770
-609
-115
-58
-101
-46
-51
-67
-34
-25
-31
-18
-10
-6
6
17
27
41
59
77
96
119
152
190
230
272
312
343
360
363
355
327
269
182
93
19
-40
-90
-128
-153
-168
-175
-175
-171
-167
-165
-164
-156
-146
-142
-144
-143
-140
-140
-140
-139
-142
-145
-145
-140
-136
-138
-142
-142
-140
-137
-134
-135
-137
-139
-143
-146
-139
-122
-99
-71
-52
-53
-68
-89
-98
-91
-95
-102
-81
-80
-97
-83
-101
34
716
1359
816
-422
-786
-255
41
-78
-81
82
126
-10
-138
-120
-29
-3
-36
-34
29
82
91
107
152
188
208
234
259
276
304
358
420
444
430
418
417
392
314
206
158
160
64
-121
-191
-109
-43
-53
-80
-99
-102
-87
-85
-96
-91
-81
-86
-89
-81
-77
-83
-84
-75
-76
-104
-118
-89
-69
-95
-111
-97
-106
-135
-139
-131
-133
-130
-117
-103
-89
-81
-88
-107
-132
-143
-139
-148
-155
-131
-131
-146
-116
-149
-72
599
1329
859
-417
-888
-439
-111
-104
-77
-50
-70
-60
-42
-41
-26
-11
-8
-2
7
18
39
60
74
92
114
141
180
229
273
311
349
381
402
411
392
341
274
196
109
30
-38
-95
-134
-149
-152
-156
-165
-166
-158
-151
-150
-150
-145
-134
-123
-121
-125
-127
-125
-125
-131
-135
-129
-124
-130
-140
-137
-128
-129
-135
-126
-105
-86
-74
-73
-87
-109
-119
-110
-111
-120
-106
-110
-134
-97
-94
-43
594
1495
1217
-244
-1060
-655
-181
-128
-117
-80
-97
-85
-61
-63
-44
-22
-24
-16
5
15
29
55
73
90
120
152
188
241
296
343
387
421
432
428
414
373
298
202
106
23
-46
-98
-132
-150
-157
-157
-153
-146
-137
-130
-124
-111
-98
-93
-92
-84
-78
-80
-80
-71
-70
-79
-81
-74
-71
-77
-85
-86
-78
-63
-41
-17
-5
-15
-38
-54
-49
-44
-57
-49
-29
-48
-48
-35
-49
324
1228
1484
359
-758
-665
-151
-48
-87
-46
-49
-81
-73
-25
15
-3
-2
56
37
-48
-52
3
22
40
88
136
174
206
237
288
341
370
387
385
338
292
263
185
68
-14
-67
-127
-171
-184
-187
-201
-221
-227
-209
-185
-177
-196
-216
-198
-163
-165
-207
-255
-265
-212
-162
-187
-218
-190
-191
-244
-256
-237
-249
-247
-204
-175
-155
-135
-170
-223
-205
-188
-228
-184
-77
-117
-188
-119
-111
-3
686
1275
626
-554
-766
-253
-31
-49
46
60
-95
-139
22
149
95
16
56
120
111
80
88
119
131
122
147
235
334
374
351
335
392
457
441
415
427
377
280
265
280
203
90
48
40
-23
-94
-60
14
-12
-57
-26
-13
-28
10
22
-32
-19
54
36
-41
-38
15
-11
-111
-161
-109
-61
-96
-136
-114
-86
-119
-190
-224
-204
-218
-270
-219
-119
-170
-226
-132
-93
125
919
1349
394
-836
-881
-305
-114
-145
-110
-146
-188
-110
-51
-90
-109
-68
-58
-93
-108
-95
-77
-45
-10
-6
-5
26
54
86
165
249
277
285
297
279
235
198
154
78
-24
-104
-125
-126
-160
-203
-209
-188
-176
-180
-170
-130
-107
-126
-129
-96
-86
-110
-118
-86
-55
-62
-85
-94
-85
-51
-15
-29
-43
2
22
-29
-58
-41
-32
-31
-38
-48
-42
-35
-8
-1
2
448
1346
1460
243
-840
-729
-227
-73
-50
1
-3
-25
-21
-4
22
35
35
39
32
34
76
115
116
118
142
168
191
219
259
310
358
393
409
396
368
351
313
209
77
-8
-51
-105
-165
-186
-180
-177
-165
-153
-169
-177
-151
-143
-168
-173
-156
-144
-125
-110
-135
-176
-175
-140
-130
-147
-150
-134
-117
-102
-93
-91
-104
-138
-161
-149
-144
-160
-143
-123
-143
-125
-116
-127
316
1196
1253
47
-897
-668
-190
-125
-147
-99
-93
-95
-89
-97
-84
-57
-42
-23
-1
15
19
4
10
63
106
112
143
205
251
282
314
336
356
381
379
322
239
163
93
15
-56
-100
-120
-124
-124
-128
-132
-138
-151
-144
-115
-101
-104
-98
-91
-88
-88
-101
-107
-91
-87
-97
-88
-81
-90
-78
-52
-45
-38
-17
-27
-68
-80
-70
-83
-102
-81
-46
-59
-78
-68
-105
94
893
1476
723
-544
-761
-235
-44
-116
-66
-30
-69
-63
-40
-37
-22
-5
-6
-8
5
23
25
19
44
99
132
139
167
217
250
278
321
354
362
359
326
260
184
94
4
-50
-82
-124
-152
-154
-156
-169
-176
-169
-154
-145
-154
-161
-147
-132
-131
-133
-147
-162
-146
-125
-133
-137
-127
-137
-147
-132
-119
-108
-77
-59
-70
-78
-80
-97
-115
-122
-128
-119
-89
-90
-103
-91
-123
33
759
1371
747
-468
-757
-279
-62
-122
-102
-83
-92
-50
-22
-33
-21
-7
-9
3
16
13
24
54
77
106
136
151
183
246
286
294
319
357
370
366
358
308
196
83
40
51
34
-39
-107
-115
-101
-111
-110
-86
-88
-105
-89
-65
-67
-66
-48
-53
-81
-80
-45
-38
-66
-69
-49
-55
-84
-107
-118
-100
-59
-38
-42
-37
-41
-79
-102
-87
-73
-78
-103
-122
-94
-80
-114
-120
-127
26
707
1325
751
-480
-832
-358
-100
-146
-128
-89
-87
-68
-64
-70
-54
-53
-63
-41
-10
-7
-7
22
57
67
75
112
155
188
232
282
308
319
335
340
312
266
215
145
63
-1
-53
-118
-171
-191
-184
-143
-101
-144
-232
-221
-133
-101
-121
-131
-135
-124
-96
-97
-120
-119
-115
-132
-137
-127
-126
-128
-117
-91
-79
-101
-105
-56
-34
-82
-115
-97
-82
-95
-112
-108
-104
-107
-75
-78
-58
482
1377
1283
-51
-940
-608
-130
-102
-106
-26
-31
-55
-34
-8
4
-9
-27
-5
39
61
62
57
64
94
124
142
174
218
248
272
313
356
378
374
356
327
253
136
45
7
-37
-98
-136
-147
-162
-183
-195
-189
-167
-149
-137
-126
-129
-149
-149
-122
-111
-118
-106
-85
-99
-134
-127
-85
-76
-105
-112
-83
-57
-53
-51
-29
2
3
-35
-59
-47
-54
-85
-62
-12
-39
-58
-12
-43
139
958
1548
742
-576
-806
-258
-22
-70
-35
-1
-33
-45
-25
-3
9
18
34
33
15
33
80
86
65
83
122
143
171
225
273
303
328
339
340
342
317
255
182
98
9
-53
-96
-157
-205
-203
-192
-208
-214
-185
-172
-189
-195
-189
-183
-159
-141
-156
-164
-145
-141
-154
-146
-126
-137
-174
-182
-142
