# session 13
-14
-24
2
-18
-127
-217
-209
-172
-161
-147
-118
-88
-50
0
55
115
182
247
292
305
290
267
237
183
101
20
-41
-82
-105
-114
-121
-127
-129
-129
-130
-130
-133
-137
-140
-141
-137
-134
-122
-86
-47
-48
-75
-97
-111
-101
-84
-96
-94
-164
-312
59
1030
1178
-101
-1082
-694
-86
-48
-89
-8
-7
-12
42
65
69
100
142
192
258
328
393
447
478
473
439
403
359
276
164
75
19
-30
-74
-96
-100
-105
-119
-123
-108
-109
-142
-158
-146
-140
-145
-149
-151
-132
-101
-100
-119
-137
-150
-130
-113
-131
-140
-240
-255
472
1427
903
-803
-1426
-655
-100
-130
-105
-25
-54
-48
2
23
44
78
122
193
268
335
423
510
538
510
476
437
360
248
127
16
-63
-106
-133
-142
-138
-146
-153
-133
-122
-139
-152
-158
-164
-148
-133
-158
-172
-132
-101
-119
-148
-170
-169
-143
-150
-160
-158
-289
-211
650
1368
474
-1067
-1235
-409
-59
-140
-100
-46
-49
-10
5
-2
44
95
124
181
265
341
407
448
443
410
375
323
244
152
63
-17
-78
-110
-118
-124
-134
-138
-133
-129
-135
-145
-150
-150
-153
-158
-165
-164
-138
-105
-98
-111
-128
-142
-126
-105
-128
-139
-203
-351
-2
1002
1264
63
-955
-640
-78
-77
-131
-38
-38
-56
-8
15
22
61
102
141
205
277
335
382
407
390
344
297
249
180
94
19
-32
-62
-77
-82
-90
-101
-103
-100
-106
-112
-112
-119
-132
-137
-142
-149
-138
-104
-73
-62
-64
-82
-108
-109
-90
-98
-102
-142
-282
-110
660
1068
246
-755
-710
-198
-77
-127
-74
-57
-70
-41
-25
-21
11
49
90
155
227
297
371
426
440
425
399
348
268
176
86
2
-62
-92
-99
-98
-102
-114
-121
-119
-120
-125
-132
-138
-137
-132
-140
-155
-154
-130
-95
-76
-84
-100
-121
-136
-121
-120
-136
-124
-208
-218
475
1381
910
-669
-1297
-660
-158
-142
-104
-44
-67
-50
-7
8
45
98
131
175
253
350
442
516
562
566
533
482
400
279
158
63
-20
-85
-122
-140
-142
-134
-133
-133
-132
-147
-158
-151
-162
-184
-180
-181
-222
-247
-214
-174
-160
-155
-176
-214
-196
-161
-196
-198
-179
-274
23
1041
1414
68
-1366
-1207
-394
-158
-182
-91
-75
-105
-56
-6
6
31
83
146
215
303
415
515
571
587
564
503
422
321
198
83
-5
-74
-122
-146
-154
-148
-140
-141
-138
-129
-133
-136
-128
-135
-155
-159
-159
-175
-172
-131
-103
-111
-121
-132
-143
-122
-110
-130
-139
-227
-185
568
1437
892
-633
-1126
-466
-56
-109
-73
-3
-28
-13
30
39
62
108
154
213
286
367
458
533
557
529
470
396
313
224
134
55
-9
-55
-79
-84
-85
-85
-82
-80
-80
-79
-84
-101
-118
-131
-146
-161
-165
-160
-142
-116
-104
-114
-133
-157
-156
-129
-138
-162
-196
-291
-53
819
1270
307
-876
-845
-265
-139
-198
-128
-107
-125
-86
-60
-56
-24
16
59
120
192
271
354
408
414
385
333
259
173
90
16
-50
-104
-139
-153
-156
-154
-156
-165
-167
-161
-158
-162
-168
-179
-190
-195
-202
-208
-204
-185
-146
-104
-98
-115
-125
-142
-152
-134
-133
-131
-144
-218
87
1028
1399
228
-1057
-940
-251
-94
-149
-68
-38
-53
-20
-2
17
72
117
155
229
317
392
477
555
575
537
489
437
347
221
104
17
-54
-105
-123
-129
-147
-156
-140
-128
-139
-151
-151
-149
-159
-179
-177
-160
-177
-210
-205
-169
-136
-119
-123
-142
-163
-158
-136
-156
-160
-133
-225
-33
972
1641
505
-1170
-1313
-491
-146
-160
-81
-46
-54
-22
-27
-8
86
130
142
240
359
431
524
628
659
647
613
508
378
289
196
95
27
-14
-21
-28
-119
-204
-148
-37
20
-2
-123
-231
-187
-124
-188
-221
-126
-102
-242
-367
-339
-225
-165
-198
-193
-69
0
-95
-106
20
-8
164
1022
1500
495
-766
-812
-283
-104
-83
-25
-20
13
37
-89
-204
-84
125
196
271
548
839
940
916
812
581
280
88
143
263
120
-212
-386
-318
-209
-280
-465
-459
-290
-249
-289
-234
-196
-244
-278
-321
-394
-375
-291
-309
-400
-446
-495
-552
-503
-408
-381
-387
-394
-341
-224
-227
-36
806
1284
306
-867
-844
-416
-325
-122
126
12
-166
-126
-72
-101
-104
-60
13
133
252
337
496
682
639
448
473
603
467
200
96
63
22
55
21
-146
-114
115
-15
-453
-413
94
198
-181
-335
-165
-91
-131
-78
16
32
12
27
39
21
18
-13
-74
-42
-98
-225
408
1627
1517
-189
-1276
-930
-422
-207
82
153
-159
-307
-132
-121
-278
-20
551
671
341
270
527
645
585
573
593
550
458
347
231
99
-31
-92
-92
-86
-72
-74
-120
-72
108
163
51
19
0
-125
-87
-27
-366
-621
-306
3
-58
-241
-459
-396
96
241
-218
-513
-290
388
1208
1124
-54
-851
-619
-280
-235
-149
-98
-249
-383
-370
-325
-300
-270
-232
-155
-35
89
273
511
577
475
476
474
264
142
242
186
-81
-233
-215
-162
-132
-151
-187
-161
-97
-81
-120
-153
-179
-246
-290
-216
-141
-209
-314
-351
-434
-571
-553
-353
-191
-131
-71
-37
165
936
1647
1006
-513
-1107
-624
-287
-305
-174
5
-16
-61
13
96
105
93
121
158
163
224
421
615
640
577
547
472
306
171
99
6
-96
-152
-189
-207
-141
-30
-4
-62
-103
-96
-42
4
-28
-4
119
21
-243
-149
173
173
-3
-14
0
-62
-86
-77
-153
-299
0
1084
1803
839
-814
-1278
-688
-301
-290
-155
32
-47
-220
-196
-120
-152
-105
83
187
145
120
195
303
377
450
549
551
379
169
44
-24
-68
-100
-136
-170
-221
-286
-271
-175
-171
-280
-327
-329
-416
-442
-288
-188
-269
-336
-323
-333
-340
-289
-257
-315
-349
-230
-171
-295
63
1188
1730
679
-707
-933
-353
49
75
-26
-48
33
70
28
19
27
31
128
240
249
286
368
310
229
340
478
489
431
278
94
79
117
13
-81
-124
-269
-359
-260
-180
-129
13
61
-5
49
106
-19
-132
-118
-98
-73
-56
-131
-166
-74
-74
-179
-224
-350
-229
825
1801
955
-793
-1247
-594
-171
-22
127
110
40
69
102
209
390
392
261
249
313
345
397
485
618
822
943
794
480
238
98
-39
-159
-218
-260
-297
-300
-340
-401
-298
-103
-152
-377
-391
-221
-147
-125
-39
-45
-215
-328
-275
-220
-272
-367
-437
-413
-338
-417
-310
599
1506
955
-433
-932
-553
-274
-216
-183
-230
-267
-220
-199
-223
-260
-364
-461
-385
-197
-75
-4
101
209
261
245
189
144
83
-61
-199
-198
-100
41
146
49
-70
75
172
-29
-95
128
218
112
76
96
62
13
-15
-41
-79
-131
-183
-230
-295
-365
-404
-469
-398
343
1404
1272
-223
-1215
-881
-336
-218
-189
-117
-38
55
40
-43
-12
71
119
215
343
393
457
673
855
758
558
516
510
366
167
17
-82
-129
-137
-153
-178
-212
-277
-292
-218
-175
-152
-38
17
-90
-129
-33
-20
-106
-138
-136
-197
-233
-71
158
192
167
182
129
620
1891
2188
563
-934
-809
-208
-42
41
112
50
25
13
-51
3
131
136
87
101
161
301
481
572
643
761
744
538
330
142
-81
-226
-267
-281
-202
-91
-183
-371
-344
-192
-195
-300
-292
-199
-180
-235
-249
-255
-325
-370
-341
-372
-467
-495
-553
-724
-775
-712
-675
-163
843
936
-334
-1307
-1081
-600
-452
-353
-268
-288
-204
42
135
1
15
182
118
26
283
571
627
681
738
680
616
549
392
239
142
8
-168
-256
-169
-66
-192
-438
-500
-399
-311
-205
-72
-40
-95
-143
-204
-232
-114
-6
-135
-346
-383
-338
-335
-277
-203
-279
-102
940
2017
1452
-358
-1271
-796
-227
-130
-101
10
35
-25
-49
-33
-41
-39
-18
-29
-6
122
282
444
632
766
806
779
602
295
122
176
222
126
30
44
85
52
-29
-35
89
225
259
241
195
104
57
74
52
27
55
-4
-123
-88
-20
-75
-21
31
-140
288
1560
1796
180
-1167
-974
-461
-335
-173
-53
-133
-139
-90
-143
-155
-77
-25
-2
27
103
268
372
297
214
269
382
401
226
-31
-175
-252
-358
-465
-595
-714
-666
-522
-477
-503
-516
-557
-614
-565
-412
-318
-299
-200
-59
7
81
144
44
-99
-195
-360
-414
-210
13
480
1386
1614
463
-678
-677
-261
-151
-153
-139
-184
-209
-151
-75
-63
-126
-162
-84
74
244
369
444
558
736
843
809
699
529
317
138
0
-92
-105
-136
-269
-355
-264
-124
-77
-94
-119
-161
-215
-260
-296
-294
-245
-237
-265
-250
-279
-400
-464
-432
-403
-440
-442
106
1232
1482
89
-1193
-965
-312
-252
-292
-71
135
155
53
60
248
329
332
594
910
891
757
855
1076
1163
1068
930
818
653
480
420
318
37
-154
-87
-39
-152
-219
-183
-167
-172
-142
-111
-162
-306
-406
-393
-417
-476
-404
-320
-351
-313
-226
-241
-219
-236
-358
126
1172
1147
-281
-1224
-897
-449
-445
-455
-360
-314
-314
-315
-278
-241
-340
-479
-408
-191
-78
-73
-55
-3
65
111
107
75
16
-82
-182
-247
-232
-132
-24
61
109
39
-28
91
214
173
192
326
330
221
182
163
107
92
67
-21
-28
13
-106
-217
-165
-99
293
1105
1100
-212
-1188
-909
-382
-198
-82
-76
-194
-171
-61
-53
-58
18
63
28
66
246
434
596
774
860
784
654
512
358
241
145
45
-31
-92
-137
-127
-121
-149
-132
-152
-289
-305
-120
-44
-165
-261
-280
-277
-238
-227
-265
-204
-82
-113
-154
-60
-130
-60
905
1794
987
-556
-889
-327
-35
31
150
176
137
174
258
304
293
275
290
331
385
431
499
656
782
767
723
575
167
-136
-52
15
-139
-213
-177
-224
-296
-308
-317
-344
-362
-377
-395
-380
-320
-303
-318
-234
-156
-295
-527
-582
-226
581
1071
416
-660
-960
-717
-619
-588
-538
-591
-592
-449
-351
-359
-384
-384
-330
-244
-215
-238
-211
-107
10
90
113
80
34
-12
-105
-212
-232
-192
-189
-192
-139
-67
-19
39
141
246
286
248
162
120
221
378
418
367
358
399
435
464
478
402
212
39
-48
-114
-108
-50
-121
-100
199
125
-581
-958
-588
-177
19
250
373
266
179
202
214
218
264
310
327
360
446
553
646
735
794
751
632
570
548
421
245
169
126
24
-65
-101
-118
-117
-75
18
87
55
10
-24
-139
-208
-106
-14
4
40
-61
-306
-381
-305
-289
-313
-344
-94
706
1117
212
-913
-960
-515
-391
-384
-354
-411
-408
-293
-216
-154
-82
-92
-116
-23
102
156
207
313
410
418
332
205
119
80
0
-114
-132
-103
-187
-284
-262
-243
-270
-249
-248
-309
-314
-299
-369
-417
-388
-377
-367
-333
-379
-463
-470
-479
-496
-420
-374
-166
729
1516
670
-1036
-1444
-683
-306
-373
-271
-159
-160
-59
63
71
77
142
224
308
355
415
595
780
802
783
843
821
618
402
321
311
240
109
20
11
36
55
77
121
154
130
105
148
191
152
100
97
103
94
69
29
-3
-40
-60
-44
-98
7
816
1723
1228
-345
-1048
-547
-112
-99
-39
44
-8
-40
-30
-102
-196
-193
-99
45
169
214
269
403
502
504
470
396
271
111
-88
-246
-286
-295
-345
-408
-460
-433
-285
-185
-270
-379
-336
-230
-191
-165
-111
-112
-173
-203
-226
-295
-356
-386
-427
-505
-623
-527
111
729
319
-694
-989
-589
-396
-450
-364
-235
-213
-199
-146
-135
-194
-199
-39
162
226
221
287
433
603
712
694
602
529
452
316
168
82
47
9
-33
-55
-57
-71
-111
-133
-89
-23
-17
-83
-151
-154
-123
-142
-181
-151
-106
-171
-242
-186
-220
-157
798
2009
1532
-308
-1155
-667
-257
-192
-81
-55
-92
6
74
-4
-60
-7
105
222
296
351
459
592
670
696
647
500
409
432
329
36
-173
-194
-184
-204
-192
-150
-114
-114
-187
-257
-197
-129
-218
-266
-140
-102
-228
-230
-52
71
52
-33
-78
-50
-74
36
770
1524
965
-418
-888
-443
-213
-251
-190
-165
-156
-44
-42
-207
-307
-292
-236
-123
31
168
296
440
558
561
456
349
263
116
-73
-188
-195
-162
-136
-114
-109
-135
-152
-123
-95
-117
-159
-156
-88
-37
-93
-201
-264
-301
-316
-281
-279
-341
-407
-532
-529
66
796
457
-717
-1248
-941
-719
-711
-566
-397
-310
-217
-164
-130
-7
98
94
124
247
393
562
728
809
836
864
858
796
668
484
364
350
303
191
130
122
96
86
110
80
-19
-52
29
58
-49
-157
-192
-253
-333
-265
-82
-32
-112
-163
-134
379
1485
1763
265
-1284
-1247
-580
-427
-433
-295
-269
-323
-270
-212
-295
-401
-342
-182
-70
16
117
215
354
506
543
495
457
380
258
150
-2
-125
-12
151
15
-250
-318
-283
-284
-266
-227
-204
-185
-189
-208
-190
-162
-174
-191
-169
-155
-178
-144
-89
-133
187
1230
1757
618
-809
-856
-217
-2
4
83
90
75
92
80
81
96
90
131
265
436
516
374
138
148
440
686
687
531
352
191
24
-125
-204
-256
-331
-385
-420
-439
-346
-202
-185
-195
-76
-4
-75
-85
-39
-133
-261
-227
-161
-194
-222
-276
-325
153
1083
1185
76
-802
-647
-289
-265
-311
-388
-469
-302
-101
-240
-448
-438
-457
-558
-483
-303
-185
-24
171
251
301
396
386
319
388
449
331
213
224
261
268
240
166
147
218
249
213
194
158
91
87
117
66
-22
-23
32
16
-57
-170
-363
-219
661
1255
368
-975
-1148
-575
-344
-342
-215
-121
-111
-51
