# session 8
-3
-1
-36
93
311
321
184
143
183
101
-57
234
1050
1300
349
-720
-911
-612
-381
-234
-143
-109
-67
-68
-210
-327
-176
26
-67
-185
46
309
269
293
651
874
630
381
498
605
401
179
141
105
-3
-78
-108
-96
-24
-6
-102
-156
-124
-104
-70
-44
-112
-153
-95
-55
-39
-100
-284
-293
-126
-260
-557
-514
-310
-165
3
8
218
1271
1951
790
-840
-1074
-520
-222
-68
-20
-164
-204
-83
-37
-47
-7
71
177
257
266
327
481
559
599
643
308
-263
-143
532
614
200
196
317
-43
-349
-93
162
18
-121
-89
-132
-195
-158
-167
-218
-160
-78
-144
-265
-237
-114
-119
-240
-308
-333
-406
-450
-411
-424
-554
-422
424
1371
988
-651
-1605
-1076
-341
-204
-207
-167
-247
-280
-188
-134
-96
-27
-33
-104
-133
-105
-24
71
92
82
109
75
-37
-67
-31
-80
-158
-151
-122
-114
-89
-67
-4
153
201
67
64
141
-48
-177
121
349
213
128
135
22
-7
60
221
985
1865
1340
-215
-863
-413
-30
-2
-102
-271
-332
-238
-125
18
154
172
167
212
220
217
285
384
452
431
340
362
508
526
400
312
198
-21
-160
-165
-187
-231
-213
-149
-80
-109
-292
-382
-220
-88
-134
-123
-17
20
18
14
-40
-23
80
-6
-285
-406
-328
-330
-352
-97
257
268
67
0
-12
280
1249
1808
718
-828
-1058
-478
-271
-281
-132
-52
-92
-48
37
17
-88
-165
-149
-61
39
125
228
393
565
596
474
352
270
134
-17
-99
-177
-261
-262
-268
-372
-425
-362
-324
-347
-370
-353
-300
-298
-318
-291
-373
-424
-29
390
117
-400
-458
-345
-422
-465
-357
-274
-355
-584
-420
664
1713
1263
-79
-618
-306
-46
24
63
43
43
98
107
77
69
92
120
141
193
286
330
332
394
494
520
431
265
142
129
91
-56
-151
-115
-128
-254
-329
-321
-340
-329
-245
-237
-289
-193
0
-3
-226
-356
-265
-167
-149
-128
-175
-283
-252
-180
-238
-255
-279
-369
211
1455
1555
-17
-1135
-703
-56
9
65
225
94
-102
54
289
170
-105
-116
146
444
631
719
834
1006
1089
1035
951
874
759
579
332
91
-23
-47
-104
-129
-32
7
-127
-204
-138
-129
-135
-27
-19
-209
-335
-298
-229
-201
-298
-481
-518
-426
-444
-466
-261
-145
-447
-440
583
1406
555
-915
-1234
-741
-470
-374
-241
-215
-261
-278
-311
-352
-330
-246
-158
-98
-52
9
115
288
468
533
463
382
365
310
137
-12
5
79
57
-38
-122
-181
-142
63
254
237
148
146
118
10
-56
-52
-50
-89
-174
-215
-177
-193
-100
437
828
138
-1070
-1499
-1134
-728
-462
-224
-85
-72
-92
-126
-149
-72
30
6
-14
165
411
536
585
660
777
881
907
830
666
442
197
-6
-147
-290
-454
-517
-438
-358
-333
-284
-214
-184
-202
-212
-107
32
-47
-223
-190
-86
-60
114
326
238
85
149
211
197
199
129
111
213
228
656
1777
2013
477
-875
-654
-90
-107
-164
-67
-58
-41
7
-68
-162
-112
-4
10
-62
-90
-5
114
180
241
362
446
369
202
88
21
-70
-167
-199
-183
-207
-255
-238
-210
-244
-256
-221
-226
-255
-281
-362
-428
-354
-222
-207
-279
-297
-292
-371
-451
-428
-356
-293
-300
-258
339
1294
1301
115
-729
-477
-74
-157
-297
-141
60
49
-17
43
114
122
149
190
211
271
372
455
496
479
429
397
341
215
85
-6
-94
-184
-253
-311
-352
-349
-324
-332
-344
-290
-182
-128
-245
-433
-366
-42
139
135
230
243
-131
-552
-597
-449
-353
-263
-268
-243
471
1513
1233
-384
-1280
-805
-277
-247
-235
-156
-151
-110
-12
9
-48
-46
44
130
242
471
687
743
756
828
867
865
905
912
762
516
304
140
30
23
58
31
6
51
40
-78
-170
-182
-170
-180
-246
-330
-354
-329
-257
-147
-132
-224
-274
-298
-313
-247
-179
126
999
1488
528
-752
-883
-476
-383
-320
-212
-237
-184
-92
-173
-223
-135
-110
-127
-71
-12
49
145
188
191
297
472
525
400
199
10
-155
-265
-279
-239
-223
-218
-189
-179
-142
32
203
149
11
32
58
-105
-201
-18
163
115
-12
-75
-71
-62
-102
-107
-128
-250
165
1366
1775
432
-946
-954
-472
-367
-422
-471
-496
-399
-265
-182
-106
-71
-106
-122
-68
8
81
174
291
387
417
361
233
123
94
42
-105
-218
-221
-200
-202
-226
-265
-279
-274
-282
-259
-188
-134
-121
-156
-278
-369
-182
180
299
86
-140
-201
-204
-244
-229
-181
-264
-24
1038
1789
924
-401
-498
77
207
96
144
196
187
229
296
303
286
303
275
198
254
445
571
623
676
663
595
569
528
396
216
18
-151
-235
-280
-288
-210
-202
-366
-497
-477
-429
-383
-296
-243
-275
-279
-204
-195
-292
-313
-274
-320
-267
-111
-272
-542
-248
320
469
417
440
78
-721
-1143
-799
-296
-229
-429
-477
-331
-178
-158
-219
17
730
1251
904
247
208
573
672
629
745
775
562
347
233
102
-46
-121
-128
-107
-65
-58
-118
-110
19
42
-135
-252
-187
-107
-84
-64
-78
-172
-251
-188
-136
-350
-578
-495
-420
-462
-134
412
665
716
420
-419
-951
-669
-325
-292
-259
-233
-284
-286
-194
-32
-56
-251
137
1008
1026
187
-203
-25
181
495
695
437
203
403
704
578
-144
-723
-360
165
-154
-623
-518
-388
-477
-403
-266
-289
-305
-280
-315
-298
-189
-139
-173
-192
-164
-137
-159
-159
-129
-182
91
1110
1717
586
-1039
-1149
-128
616
770
455
-66
-215
-144
-273
28
846
867
39
-229
155
318
301
434
593
679
664
535
455
436
282
43
-97
-185
-255
-248
-248
-299
-275
-203
-202
-196
-131
-116
-170
-207
-199
-160
-132
-155
-199
-234
-267
-309
-349
-307
-243
-271
44
1000
1445
417
-788
-799
-305
-157
-120
-82
-145
-87
80
104
62
101
130
145
230
313
307
314
418
524
550
539
494
410
359
298
134
-20
-101
-208
-239
-197
-335
-356
189
652
325
-202
-293
-268
-355
-362
-331
-384
-427
-428
-436
-417
-391
-407
-385
-356
-312
180
1026
1055
-21
-816
-639
-297
-257
-238
-185
-200
-212
-204
-212
-188
-131
-123
-155
-127
-33
30
58
139
239
234
151
139
200
173
19
-100
-124
-151
-164
-98
-66
-112
-88
28
102
67
-54
-135
-25
212
333
254
107
36
36
29
19
32
68
101
23
60
804
1760
1363
-238
-1065
-644
-228
-227
-208
-180
-227
-183
-96
-76
-43
-21
-77
-63
94
227
288
397
549
623
629
645
603
409
176
62
14
-102
-247
-300
-273
-273
-311
-311
-274
-247
-206
-147
-171
-256
-236
-163
-206
-233
-188
-262
-273
-144
-335
-421
374
1054
849
949
1228
197
-1153
-1087
-462
-387
-388
-236
-218
-214
-168
-197
-138
42
110
104
187
259
250
316
499
636
637
584
551
517
445
352
256
142
33
-19
-85
-148
-49
-2
-193
-23
641
722
0
-432
-325
-286
-348
-327
-358
-438
-440
-417
-449
-460
-432
-487
-340
507
1352
879
-405
-889
-520
-237
-195
-181
-201
-202
-177
-185
-150
-61
-44
-68
-20
62
102
134
197
256
279
293
266
123
-43
-96
-127
-242
-346
-368
-380
-410
-408
-366
-307
-247
-208
-180
-125
-107
-137
-50
134
163
65
41
31
-30
-34
54
113
13
77
885
1773
1234
-300
-923
-461
-101
-73
-46
-49
-53
17
37
-18
-74
-102
-35
75
85
112
328
563
623
614
635
650
641
534
276
50
-13
-60
-146
-173
-205
-302
-307
-155
4
52
-38
-205
-273
-208
-189
-228
-197
-152
-164
-172
-195
-203
-126
-186
-358
-72
661
1197
1335
955
-38
-799
-680
-378
-408
-408
-297
-292
-309
-248
-188
-177
-154
-62
25
86
227
383
434
521
643
589
462
432
369
233
161
130
67
16
-10
-52
-103
-112
-101
-154
-159
-31
-56
-193
33
320
20
-457
-504
-401
-419
-375
-310
-450
-541
42
1000
924
-390
-1266
-959
-496
-438
-399
-288
-286
-331
-293
-195
-165
-214
-188
-76
-37
-51
17
118
155
194
260
240
168
142
32
-134
-180
-368
-621
-103
833
692
-285
-609
-316
-228
-226
-100
-73
-87
-4
42
63
179
249
223
272
351
335
306
237
320
1102
1969
1391
-177
-768
-246
121
120
155
188
166
179
207
213
198
203
252
286
314
388
425
432
540
643
589
556
627
536
215
-52
-144
-209
-302
-343
-334
-347
-370
-380
-411
-456
-458
-423
-413
-434
-448
-450
-463
-501
-545
-546
-493
-387
-293
-395
-461
240
1324
1154
-303
-1133
-759
-346
-326
-299
-255
-307
-349
-346
-337
-345
-373
-343
-239
-147
-60
77
218
328
433
515
531
494
433
353
270
211
181
159
138
159
229
249
186
163
208
186
126
165
221
177
129
111
47
23
93
61
-95
-191
-278
-202
462
1118
577
-677
-1100
-691
-433
-407
-310
-270
-318
-305
-270
-246
-168
-91
-75
-35
66
138
164
227
355
435
364
248
251
314
275
147
27
-58
-129
-175
-162
-125
-157
-242
-281
-278
-299
-318
-300
-288
-304
-296
-262
-257
-241
-157
-106
-120
-74
-60
27
785
1735
1289
-268
-915
-377
53
90
140
157
89
85
145
186
203
233
271
286
320
413
490
531
596
644
628
600
553
433
255
43
-130
-180
-170
-174
-170
-203
-291
-328
-318
-326
-319
-301
-293
-232
-188
-269
-370
-391
-384
-370
-373
-381
-369
-461
-313
703
1628
792
-914
-1318
-618
-246
-265
-210
-152
-121
-66
-77
-104
-53
-11
-20
-22
-18
-11
47
147
258
375
462
477
431
347
224
93
22
-18
-111
-159
-47
71
62
73
175
211
138
82
96
126
170
230
208
84
16
49
51
24
-14
-98
109
834
1227
467
-595
-685
-73
192
-79
-354
-385
-345
-351
-349
-322
-310
-306
-275
-225
-175
-119
-39
78
206
277
307
350
288
62
-105
-130
-200
-303
-284
-224
-235
-242
-193
-150
-155
-176
-176
-166
-175
-212
-249
-254
-289
-390
-434
-407
-450
-491
-484
-502
-51
1058
1412
196
-930
-714
-166
-100
-104
-1
42
80
114
112
166
241
239
243
322
402
470
574
686
761
779
741
702
670
572
422
300
183
63
31
69
71
51
18
-90
-184
-139
-47
-17
-7
-7
-62
-139
-209
-240
-192
-173
-218
-174
-198
-258
435
1582
1340
-289
-1159
-778
-376
-260
-168
-217
-300
-239
-138
-28
61
17
-37
24
103
176
266
294
278
290
287
251
207
103
-58
-168
-222
-290
-346
-357
-349
-322
-270
-233
-219
-191
-173
-178
-146
-93
-95
-97
-37
10
44
113
119
57
54
40
151
794
1408
864
-325
-674
-253
-53
-119
-97
-84
-162
-203
-176
-143
-151
-207
-266
-262
-194
-130
-83
9
128
179
161
137
136
139
61
-127
-251
-210
-177
-249
-261
-163
-148
-246
-262
-191
-210
-267
-199
-110
-147
-209
-205
-199
-199
-196
-220
-192
-201
-379
-96
1035
1532
252
-1149
-1074
-510
-485
-520
-370
-331
-310
-185
-118
-112
-46
52
148
245
310
405
627
813
787
764
943
1105
1034
822
623
495
407
304
234
252
276
239
205
199
152
65
37
89
109
50
4
-9
-65
-114
-79
-20
39
26
-162
51
1205
1990
869
-897
-1251
-637
-352
-355
-319
-308
-235
-107
-141
-247
-201
-79
-31
-31
-2
85
193
263
321
378
336
210
167
188
97
-89
-216
-264
-303
-344
-376
-403
-440
-490
-533
-545
-524
-488
-463
-451
-419
-370
-352
-385
-396
-348
-343
-363
-280
-275
-294
382
1471
1378
74
-603
-192
140
60
46
103
58
34
97
118
63
46
98
140
178
199
161
257
548
611
296
46
50
61
3
-60
-155
-264
-321
-333
-323
-305
-296
-296
-316
-321
-242
-161
-215
-300
-259
-159
-144
-222
-272
-247
-262
-288
-254
-356
-256
756
1711
910
-753
-1167
-564
-283
-292
-182
-150
-228
-217
-197
-257
-272
-221
-175
-75
101
234
316
436
581
687
749
758
706
635
570
475
345
237
181
136
82
78
146
189
194
257
313
255
207
256
277
231
173
120
100
114
139
169
81
81
742
1653
1646
850
204
-243
-577
-472
-181
-169
-268
-247
-229
-269
-290
-270
-252
-289
-311
-194
-47
-30
18
219
307
153
57
131
118
-43
-143
-147
-163
-184
-184
-187
-196
-223
-246
-209
-185
-215
-206
-253
-355
-161
126
-117
-574
-618
-574
-721
-737
-716
-635
180
1183
781
-588
-1039
-555
-325
-356
-202
-65
-61
4
91
88
80
110
121
139
212
296
330
340
411
507
501
407
343
323
261
116
2
-2
-109
-298
-80
387
297
-260
-511
-415
-328
-278
-258
-326
-390
-376
-349
-372
-377
-312
-295
-309
-231
-258
-146
860
1878
1055
-788
-1297
-604
-246
-327
-347
-352
-349
-259
-183
-133
-60
-25
-25
29
123
200
285
378
414
383
344
316
283
208
60
-89
-117
-46
-4
-18
-23
31
104
101
40
54
114
96
59
78
78
73
95
59
6
37
78
102
83
12
427
1471
1734
429
-822
-722
-155
21
46
49
-6
75
227
184
32
-10
9
9
74
199
257
273
356
456
498
500
460
373
291
214
115
44
22
-18
-86
-119
-96
-58
-62
-106
-145
-170
-169
-122
-89
-117
-145
-133
-100
-73
-108
-157
-130
-148
-107
381
878
445
-510
-815
-550
-451
-512
-516
-562
-601
-513
-418
-383
-308
-210
-163
-117
-27
66
147
248
355
432
476
485
446
374
309
262
191
86
4
-23
-39
-66
-88
-127
-200
-258
-290
-359
-430
-416
-404
-519
-624
-589
-592
-755
-910
-978
-979
-705
-45
