# session 23
-44
-88
29
39
-331
-758
-829
-719
-707
-715
-673
-649
-635
-608
-594
-583
-564
-547
-524
-489
-446
-399
-357
-344
-353
-351
-329
-316
-308
-277
-262
-264
-243
-254
-97
623
1308
774
-504
-923
-439
-143
-185
-160
-108
-115
-94
-65
-63
-46
-20
-6
9
29
51
79
109
139
173
214
264
326
384
428
459
473
464
442
413
360
284
206
139
79
31
0
-15
-20
-19
-16
-15
-10
-3
2
-1
-4
-5
-10
-20
-26
-28
-33
-40
-45
-49
-51
-55
-66
-74
-79
-88
-94
-86
-73
-53
-21
-3
-23
-53
-55
-50
-68
-71
-52
-62
-70
-60
-97
132
923
1401
588
-596
-747
-248
-68
-122
-88
-73
-97
-76
-58
-63
-53
-37
-30
-20
-7
6
28
51
72
104
151
202
248
293
331
352
359
355
334
295
239
168
93
27
-28
-74
-103
-115
-121
-124
-119
-115
-116
-113
-108
-106
-107
-109
-112
-114
-113
-115
-119
-120
-120
-121
-121
-124
-130
-132
-134
-136
-129
-111
-90
-68
-53
-61
-92
-110
-105
-109
-117
-103
-106
-122
-109
-148
-54
608
1307
844
-406
-867
-417
-110
-143
-129
-87
-107
-101
-76
-77
-71
-56
-45
-29
-9
5
19
41
72
110
146
184
235
297
348
374
383
385
377
348
291
212
129
57
-4
-56
-91
-110
-120
-122
-119
-120
-116
-107
-105
-107
-104
-104
-110
-114
-122
-130
-128
-124
-128
-130
-130
-136
-148
-160
-160
-145
-123
-99
-76
-71
-98
-125
-121
-114
-123
-108
-94
-124
-111
-89
-103
338
1309
1462
123
-1097
-947
-330
-147
-137
-85
-93
-96
-55
-46
-48
-26
-11
-3
15
35
54
81
111
145
188
238
289
348
409
452
470
477
472
442
382
304
220
133
51
-18
-68
-97
-111
-117
-119
-118
-112
-103
-98
-99
-99
-95
-92
-94
-97
-101
-107
-113
-117
-123
-129
-132
-135
-140
-145
-140
-120
-92
-72
-81
-112
-128
-115
-113
-124
-107
-104
-123
-115
-153
-65
641
1454
1004
-426
-1038
-538
-129
-144
-137
-89
-106
-97
-70
-70
-62
-46
-39
-27
-9
5
23
49
78
112
154
201
254
308
355
386
398
394
377
342
280
201
125
57
-7
-59
-91
-109
-119
-123
-121
-116
-112
-109
-107
-106
-104
-105
-108
-110
-110
-111
-114
-117
-122
-131
-139
-143
-148
-149
-141
-124
-101
-78
-73
-95
-120
-120
-115
-126
-118
-100
-115
-118
-128
-149
243
1114
1312
226
-784
-650
-171
-108
-151
-96
-95
-110
-82
-71
-72
-55
-44
-38
-23
-6
10
32
59
90
130
176
227
281
331
368
390
394
383
357
310
240
160
86
25
-26
-64
-87
-97
-99
-98
-98
-96
-92
-89
-89
-89
-89
-89
-90
-92
-94
-96
-98
-102
-106
-110
-115
-119
-125
-130
-121
-102
-84
-65
-47
-50
-76
-96
-93
-96
-103
-87
-84
-104
-88
-114
-88
481
1313
1117
-151
-875
-516
-113
-112
-130
-91
-103
-96
-70
-74
-72
-52
-42
-31
-17
-9
4
33
64
95
135
180
229
284
332
363
378
385
374
336
279
212
137
58
-13
-67
-103
-123
-130
-129
-129
-132
-127
-117
-112
-111
-108
-106
-111
-115
-114
-112
-115
-121
-127
-127
-123
-124
-133
-141
-142
-138
-134
-126
-108
-82
-59
-59
-87
-107
-98
-96
-102
-84
-80
-93
-72
-101
2
742
1567
1058
-462
-1108
-581
-134
-127
-114
-62
-80
-73
-41
-39
-34
-15
-1
14
31
43
63
92
115
146
196
249
299
356
409
438
446
444
429
390
324
247
163
75
-1
-52
-89
-119
-136
-139
-134
-127
-123
-124
-121
-113
-107
-103
-98
-96
-100
-104
-109
-114
-117
-119
-119
-116
-120
-133
-142
-142
-141
-141
-134
-117
-93
-70
-64
-83
-103
-100
-99
-113
-101
-83
-106
-105
-102
-66
470
1403
1364
-51
-1098
-773
-192
-137
-173
-107
-119
-133
-89
-84
-96
-69
-41
-34
-25
-11
0
17
42
77
126
183
230
272
324
368
382
373
351
320
276
200
100
23
-27
-79
-123
-139
-150
-162
-158
-156
-157
-135
-105
-104
-112
-103
-93
-107
-123
-113
-94
-92
-97
-95
-92
-94
-100
-103
-98
-99
-113
-129
-140
-126
-81
-42
-32
-23
-6
-4
-35
-66
-52
-25
-35
-41
-32
-41
-40
-52
28
598
1351
1093
-135
-776
-401
-49
-82
-90
-41
-61
-56
-24
-35
-46
-20
2
8
17
34
54
79
100
118
147
196
255
317
376
416
422
412
401
363
282
201
149
95
30
-30
-85
-122
-123
-120
-130
-111
-78
-91
-116
-101
-91
-115
-123
-103
-100
-116
-117
-102
-94
-109
-133
-135
-118
-120
-134
-129
-118
-122
-135
-150
-145
-115
-100
-108
-90
-49
-46
-80
-99
-95
-103
-107
-77
-74
-113
-97
-86
-23
592
1499
1270
-231
-1171
-779
-220
-148
-152
-90
-100
-113
-81
-65
-73
-72
-48
-19
-5
7
34
60
84
119
160
203
259
327
379
410
439
458
447
415
362
265
156
68
-13
-85
-128
-154
-177
-185
-183
-186
-186
-174
-168
-173
-171
-157
-148
-154
-161
-163
-167
-179
-183
-167
-166
-196
-208
-183
-179
-197
-192
-186
-204
-211
-195
-177
-143
-94
-85
-125
-148
-134
-136
-142
-108
-101
-139
-102
-61
3
610
1501
1228
-274
-1103
-622
-105
-92
-90
-27
-49
-38
9
5
13
59
76
76
95
116
139
174
202
228
282
343
386
440
513
559
569
571
556
509
448
375
284
193
115
51
12
-11
-36
-49
-34
-23
-33
-43
-40
-45
-65
-66
-51
-63
-88
-82
-69
-86
-106
-112
-118
-128
-135
-144
-152
-158
-166
-177
-176
-153
-127
-124
-131
-130
-139
-154
-163
-171
-165
-148
-169
-180
-168
-161
203
1055
1305
229
-870
-786
-268
-174
-220
-167
-176
-198
-150
-120
-120
-102
-91
-95
-79
-52
-37
-23
4
38
76
126
187
248
300
343
370
374
364
350
313
233
140
62
-5
-69
-112
-136
-153
-164
-157
-143
-135
-129
-123
-125
-128
-125
-127
-133
-122
-108
-118
-132
-124
-117
-132
-144
-134
-126
-137
-142
-133
-132
-138
-133
-113
-85
-60
-49
-57
-79
-94
-84
-75
-84
-75
-66
-85
-71
-77
-41
493
1302
1122
-144
-885
-514
-89
-86
-102
-53
-56
-42
-14
-20
-11
18
21
17
37
59
68
83
111
143
183
237
293
348
402
440
453
457
463
447
388
302
215
137
67
8
-31
-51
-68
-84
-84
-70
-66
-72
-74
-73
-72
-70
-67
-73
-84
-84
-81
-92
-101
-98
-105
-116
-111
-108
-123
-133
-128
-126
-127
-116
-94
-79
-67
-58
-71
-105
-112
-95
-103
-108
-91
-104
-109
-95
-121
172
1014
1377
370
-847
-899
-338
-135
-156
-111
-99
-115
-89
-78
-85
-60
-31
-29
-26
-7
12
22
40
79
123
157
202
264
327
377
411
423
419
407
373
304
215
124
35
-41
-93
-128
-153
-161
-159
-161
-160
-154
-147
-133
-123
-132
-143
-141
-139
-140
-130
-117
-120
-139
-155
-153
-149
-158
-162
-154
-156
-161
-154
-141
-126
-99
-76
-86
-122
-138
-122
-118
-120
-105
-116
-124
-96
-110
132
1024
1649
731
-811
-1136
-489
-145
-160
-112
-82
-105
-68
-33
-42
-32
-12
-13
0
30
48
68
96
122
159
214
268
320
384
439
468
483
492
477
422
342
258
173
84
3
-51
-81
-100
-116
-121
-117
-120
-120
-105
-92
-94
-94
-87
-86
-87
-93
-106
-106
-96
-105
-122
-119
-109
-115
-129
-138
-139
-133
-128
-117
-89
-61
-64
-95
-114
-102
-101
-115
-100
-91
-114
-101
-107
-19
641
1482
1125
-307
-1008
-543
-122
-139
-130
-78
-113
-111
-58
-43
-49
-44
-35
-26
-10
10
30
48
76
116
155
199
259
322
372
407
428
429
414
379
308
213
129
65
-2
-64
-103
-123
-134
-135
-135
-131
-120
-114
-118
-112
-102
-106
-112
-111
-111
-118
-121
-122
-130
-136
-136
-143
-151
-150
-152
-162
-159
-142
-124
-103
-86
-96
-126
-138
-122
-121
-137
-124
-111
-132
-124
-128
-81
467
1296
1129
-154
-914
-542
-126
-148
-166
-107
-123
-126
-93
-94
-92
-69
-58
-51
-33
-11
11
34
57
87
128
175
232
289
333
372
411
423
406
373
312
227
145
68
-6
-49
-61
-78
-97
-102
-99
-94
-90
-90
-84
-71
-61
-57
-58
-64
-71
-72
-70
-75
-79
-69
-54
-53
-64
-74
-78
-83
-92
-94
-72
-41
-24
-12
-5
-25
-55
-57
-53
-68
-61
-46
-68
-66
-64
-54
391
1223
1235
45
-844
-581
-123
-96
-114
-52
-73
-91
-48
-33
-41
-31
-24
-20
-7
6
17
41
74
103
124
153
201
256
302
345
374
370
347
326
287
207
112
35
-30
-88
-127
-157
-183
-188
-175
-170
-168
-155
-145
-152
-175
-204
-214
-199
-187
-184
-174
-172
-193
-203
-181
-166
-180
-187
-168
-148
-139
-124
-102
-72
-19
29
23
-25
-46
-19
-6
-33
-33
-16
-42
-31
3
-23
323
1211
1454
289
-898
-845
-288
-110
-112
-66
-68
-72
-35
-29
-50
-47
-32
-15
2
1
-3
22
66
94
111
143
193
256
329
380
392
402
412
392
354
308
228
133
68
12
-49
-79
-83
-104
-130
-130
-118
-115
-111
-102
-95
-93
-85
-79
-93
-113
-114
-108
-112
-112
-105
-104
-107
-117
-130
-125
-112
-112
-101
-65
-57
-88
-101
-88
-103
-149
-155
-125
-123
-112
-94
-131
152
1018
1431
426
-854
-948
-371
-138
-154
-117
-100
-92
-55
-53
-65
-61
-79
-79
-26
-2
-13
24
79
81
86
141
198
242
295
341
361
374
395
392
336
255
182
106
34
-13
-52
-93
-111
-117
-126
-124
-101
-82
-90
-115
-115
-84
-85
-124
-129
-97
-87
-105
-105
-99
-122
-135
-107
-90
-100
-87
-70
-73
-63
-51
-73
-83
-73
-88
-92
-65
-88
-115
-71
-107
-53
617
1369
919
-359
-850
-422
-111
-119
-101
-71
-78
-46
-33
-76
-74
-6
31
16
12
31
41
42
68
119
167
200
220
248
311
378
396
383
367
329
255
180
121
56
-24
-85
-104
-105
-118
-132
-128
-110
-110
-126
-117
-96
-109
-122
-96
-89
-121
-116
-68
-59
-104
-140
-137
-122
-120
-116
-91
-68
-70
-77
-64
-55
-77
-100
-100
-94
-98
-112
-113
-70
-77
-129
223
998
1116
117
-736
-577
-150
-86
-120
-84
-88
-100
-71
-49
-41
-35
-40
-39
-20
-1
8
20
42
75
112
149
192
232
271
316
342
330
312
309
279
203
112
34
-34
-92
-132
-157
-173
-173
-170
-180
-189
-184
-176
-166
-156
-153
-155
-148
-138
-134
-130
-126
-127
-133
-131
-125
-120
-114
-101
-82
-55
-33
-27
-38
-57
-66
-57
-55
-51
-32
-41
-52
-37
-75
110
898
1502
787
-501
-804
-309
-60
-98
-67
-33
-53
-46
-29
-20
1
12
11
26
50
64
78
106
140
173
210
259
313
363
406
439
450
438
414
374
303
211
124
47
-20
-71
-105
-129
-140
-139
-142
-148
-140
-123
-125
-133
-124
-112
-113
-121
-125
-122
-116
-123
-140
-151
-157
-162
-163
-158
-149
-135
-113
-99
-113
-150
-159
-140
-143
-153
-137
-142
-155
-136
-157
64
930
1593
787
-691
-1067
-494
-171
-190
-160
-137
-162
-143
-119
-121
-110
-96
-90
-77
-59
-42
-18
8
37
77
123
171
224
283
335
368
381
371
342
300
233
140
50
-19
-79
-130
-159
-170
-178
-183
-179
-171
-168
-164
-156
-149
-145
-137
-129
-130
-131
-125
-120
-123
-126
-127
-131
-133
-127
-119
-106
-77
-43
-31
-44
-62
-60
-48
-49
-35
-12
-29
-33
-19
-28
348
1283
1608
490
-709
-657
-109
1
-49
9
17
-2
27
40
38
56
67
67
75
91
108
128
150
179
214
255
303
358
407
442
461
463
448
414
352
266
175
94
25
-33
-76
-105
-119
-125
-132
-135
-130
-124
-125
-127
-131
-137
-144
-148
-151
-154
-160
-166
-170
-175
-184
-193
-202
-210
-212
-208
-196
-175
-151
-140
-153
-177
-183
-173
-180
-182
-160
-168
-179
-165
-193
57
902
1412
552
-678
-809
-301
-153
-219
-175
-156
-176
-148
-130
-135
-121
-106
-97
-81
-62
-45
-23
2
33
74
119
166
220
276
322
348
357
356
340
296
228
151
76
10
-37
-69
-92
-107
-110
-108
-104
-100
-95
-92
-91
-92
-89
-81
-79
-83
-86
-89
-92
-90
-87
-90
-94
-95
-100
-105
-111
-118
-122
-113
-96
-72
-45
-32
-44
-68
-75
-66
-74
-79
-59
-64
-77
-62
-90
102
871
1434
711
-500
-715
-228
-48
-114
-82
-61
-84
-62
-43
-46
-33
-20
-16
-6
8
22
45
72
97
129
169
212
259
308
349
375
385
384
370
333
272
199
129
66
12
-29
-54
-67
-72
-71
-70
-68
-65
-62
-63
-64
-64
-63
-64
-66
-68
-66
-66
-68
-70
-72
-71
-68
-69
-70
-69
-73
-82
-90
-95
-103
-102
-82
-55
-33
-14
-9
-31
-56
-53
-51
-69
-60
-43
-64
-56
-52
-67
343
1202
1308
159
-802
-614
-143
-81
-110
-65
-73
-81
-53
-51
-49
-28
-24
-23
-7
5
12
35
65
89
115
155
207
260
304
332
348
358
357
333
286
225
157
84
11
-52
-98
-124
-138
-149
-155
-147
-140
-143
-152
-155
-150
-147
-151
-158
-163
-170
-176
-178
-184
-192
-190
-187
-196
-201
-200
-208
-218
-217
-217
-224
-223
-211
-189
-163
-148
-159
-182
-186
-176
-178
-171
-156
-182
-190
-154
-153
161
1072
1523
460
-944
-1074
-444
-185
-206
-154
-129
-142
-111
-88
-88
-67
-44
-36
-19
7
31
58
92
131
171
221
275
328
385
439
471
479
480
470
436
380
308
230
164
112
68
40
34
42
54
65
72
81
94
107
