# session 7
81
115
0
159
677
987
926
842
825
781
638
442
767
1720
1910
706
-242
62
517
457
393
450
411
372
391
379
363
381
399
407
422
445
474
499
499
472
435
395
350
290
212
127
58
12
-25
-58
-82
-102
-122
-143
-165
-187
-200
-200
-193
-181
-170
-167
-182
-224
-262
-259
-255
-270
-285
-412
-514
-20
796
636
-470
-954
-501
-194
-278
-286
-240
-272
-274
-248
-248
-232
-195
-168
-136
-92
-45
4
44
66
68
50
26
8
-20
-76
-138
-182
-214
-243
-253
-251
-258
-265
-266
-273
-275
-257
-241
-229
-199
-162
-146
-149
-167
-179
-155
-145
-161
-161
-281
-390
184
1145
957
-375
-989
-455
-47
-101
-84
-9
-36
-23
41
60
63
90
132
182
227
276
350
418
437
423
407
400
384
327
229
134
59
4
-16
-18
-33
-49
-55
-64
-74
-69
-63
-60
-48
-35
-38
-25
8
-5
-49
-33
-17
-49
-46
-131
-205
416
1389
1064
-471
-1130
-485
22
-14
-11
68
63
63
82
92
120
148
180
238
291
333
399
457
478
490
487
446
391
324
210
84
11
-23
-67
-105
-110
-114
-134
-140
-135
-138
-142
-157
-187
-185
-155
-143
-146
-165
-200
-194
-175
-200
-218
-308
-396
149
1129
977
-485
-1296
-751
-187
-191
-218
-149
-152
-146
-112
-102
-73
-31
-14
22
97
164
213
263
303
311
294
266
220
151
63
-36
-122
-166
-186
-215
-236
-230
-228
-245
-250
-234
-225
-239
-261
-255
-210
-180
-187
-205
-230
-240
-222
-225
-244
-331
-448
-45
911
1053
-148
-1025
-635
-103
-94
-107
-8
0
6
54
66
83
137
181
221
277
333
389
442
471
461
427
387
346
303
244
165
96
62
46
27
17
17
8
-10
-24
-35
-45
-56
-64
-50
-13
11
10
-14
-47
-49
-37
-52
-63
-161
-315
67
1012
1186
99
-730
-455
-39
-44
-68
-9
-12
-6
16
3
20
71
99
130
188
244
288
329
353
351
336
308
257
194
124
42
-38
-93
-121
-133
-139
-149
-162
-172
-181
-201
-220
-218
-208
-201
-184
-161
-155
-170
-185
-174
-161
-185
-202
-236
-364
-250
416
848
197
-722
-754
-299
-162
-215
-180
-153
-162
-144
-123
-113
-101
-77
-29
22
59
112
187
251
287
291
264
236
218
173
91
3
-67
-109
-124
-125
-130
-136
-135
-132
-134
-135
-120
-103
-99
-80
-42
-30
-46
-65
-88
-87
-72
-98
-106
-135
-254
52
1008
1328
191
-905
-712
-137
-48
-82
-12
-10
-27
14
38
43
71
112
149
183
241
329
400
429
449
452
411
356
317
257
157
55
-5
-28
-51
-78
-83
-69
-65
-76
-99
-122
-124
-112
-113
-108
-78
-56
-65
-100
-129
-111
-98
-126
-123
-209
-330
224
1314
1258
-240
-1149
-674
-148
-150
-144
-69
-90
-80
-39
-42
-13
41
60
100
185
252
295
340
377
397
379
315
251
218
153
18
-123
-202
-244
-274
-266
-239
-243
-244
-218
-220
-251
-252
-249
-272
-277
-253
-238
-221
-213
-220
-194
-175
-197
-178
-225
-281
318
1320
1111
-364
-1113
-601
-153
-182
-167
-102
-117
-80
-26
-46
-49
5
54
101
175
251
315
377
426
448
441
411
364
291
193
99
29
-29
-73
-86
-85
-97
-103
-92
-93
-112
-123
-123
-129
-124
-94
-70
-72
-76
-90
-117
-108
-86
-97
-99
-158
-168
417
1317
1117
-195
-840
-357
41
-4
-1
54
24
22
47
44
56
80
94
132
182
221
275
340
370
364
336
287
233
176
96
10
-49
-86
-109
-115
-121
-134
-141
-147
-160
-173
-181
-188
-191
-182
-158
-132
-120
-123
-146
-169
-157
-144
-166
-174
-235
-293
138
906
825
-233
-821
-464
-138
-181
-177
-117
-137
-134
-94
-84
-64
-15
23
51
98
161
226
291
343
356
330
296
266
220
148
61
-19
-68
-87
-106
-133
-142
-137
-155
-185
-186
-171
-172
-178
-170
-158
-143
-125
-114
-117
-146
-161
-127
-120
-145
-146
-258
-249
535
1446
897
-594
-1034
-413
-79
-145
-110
-50
-60
-41
-18
-8
31
71
101
156
232
295
350
414
465
462
423
394
351
258
148
53
-35
-102
-126
-136
-152
-155
-154
-167
-177
-177
-174
-176
-188
-206
-201
-175
-162
-155
-141
-158
-181
-165
-166
-166
-165
-297
-123
881
1551
470
-1084
-1161
-387
-125
-172
-85
-54
-83
-29
17
12
41
96
142
201
279
361
448
525
565
557
517
473
420
313
170
62
-4
-60
-103
-118
-119
-124
-133
-135
-133
-139
-151
-161
-173
-181
-161
-123
-103
-106
-124
-150
-144
-125
-147
-150
-187
-303
84
1149
1422
109
-1042
-758
-143
-86
-125
-50
-58
-70
-23
-7
3
47
84
117
168
231
300
376
433
445
416
367
315
259
186
86
-14
-79
-105
-114
-120
-120
-120
-128
-140
-144
-142
-148
-160
-168
-162
-134
-109
-109
-123
-146
-169
-154
-134
-155
-167
-233
-274
252
1139
1020
-194
-828
-410
-79
-150
-147
-104
-152
-150
-119
-122
-85
-35
-28
4
81
138
177
228
270
272
236
188
149
107
29
-76
-157
-197
-220
-244
-264
-273
-269
-267
-282
-297
-299
-299
-299
-289
-268
-236
-205
-191
-194
-213
-222
-174
-137
-161
-147
-184
-241
326
1373
1323
-61
-876
-427
33
7
1
74
69
78
113
119
137
177
215
260
308
369
460
539
575
591
588
541
469
387
273
143
48
-16
-71
-105
-111
-116
-133
-150
-165
-172
-164
-161
-176
-194
-189
-154
-125
-125
-120
-115
-138
-142
-138
-171
-159
-199
-349
98
1323
1619
97
-1268
-1010
-315
-196
-201
-104
-118
-137
-85
-72
-63
-2
45
80
154
249
332
413
481
512
509
481
425
341
228
91
-32
-98
-129
-160
-174
-161
-151
-154
-160
-172
-185
-171
-140
-140
-170
-165
-129
-118
-128
-143
-182
-192
-159
-183
-217
-216
-320
-123
895
1589
559
-956
-1062
-368
-161
-224
-144
-115
-143
-100
-68
-67
-36
7
50
115
190
261
333
395
423
405
353
297
247
181
89
2
-59
-100
-128
-137
-134
-130
-132
-141
-143
-141
-151
-164
-159
-149
-139
-117
-100
-108
-124
-146
-160
-136
-127
-151
-148
-220
-204
477
1349
972
-375
-887
-385
-78
-145
-117
-58
-76
-61
-29
-19
13
54
84
126
181
238
299
356
390
392
367
325
279
221
146
61
-9
-53
-72
-80
-85
-92
-100
-105
-108
-118
-134
-146
-147
-139
-129
-116
-101
-102
-118
-136
-159
-162
-142
-155
-174
-176
-265
-132
663
1286
561
-657
-803
-261
-103
-182
-120
-78
-96
-64
-31
-18
22
67
95
129
182
253
326
387
427
429
386
339
299
223
116
29
-25
-67
-104
-124
-130
-134
-142
-158
-178
-187
-190
-210
-222
-204
-190
-187
-165
-142
-150
-174
-201
-193
-148
-165
-213
-197
-281
-228
632
1550
892
-677
-1090
-447
-124
-180
-136
-91
-106
-75
-46
-38
0
44
84
142
209
278
349
412
454
455
419
382
330
235
133
49
-37
-108
-129
-125
-129
-138
-137
-137
-144
-149
-150
-153
-154
-148
-150
-149
-116
-83
-87
-96
-102
-113
-98
-97
-119
-95
-161
-185
527
1550
1170
-452
-1154
-544
-80
-112
-83
-28
-73
-47
17
11
19
76
122
158
218
293
366
426
463
467
439
392
334
259
160
49
-44
-100
-126
-140
-151
-155
-156
-161
-164
-168
-179
-190
-191
-192
-195
-186
-161
-139
-138
-140
-148
-173
-167
-146
-171
-173
-202
-305
108
1184
1435
137
-957
-682
-151
-144
-180
-99
-107
-116
-72
-59
-43
6
48
84
137
200
270
341
395
412
387
338
291
237
154
57
-22
-73
-104
-119
-122
-123
-127
-131
-138
-146
-150
-153
-160
-167
-162
-152
-135
-101
-74
-82
-102
-120
-130
-110
-107
-129
-124
-206
-220
440
1352
1044
-284
-833
-364
-68
-143
-123
-68
-93
-81
-50
-43
-13
30
58
96
149
202
257
313
344
337
302
261
215
154
78
-2
-72
-116
-136
-148
-163
-170
-170
-173
-183
-194
-201
-207
-214
-222
-221
-210
-192
-165
-133
-124
-141
-167
-194
-189
-163
-182
-190
-195
-307
-89
835
1350
380
-834
-804
-222
-105
-177
-114
-87
-93
-56
-38
-25
27
77
106
147
210
282
359
426
452
434
409
385
329
246
160
69
-10
-41
-52
-83
-105
-95
-91
-108
-111
-94
-99
-124
-127
-109
-102
-105
-96
-71
-34
-16
-23
-26
-35
-52
-28
-14
-44
-37
-101
-104
635
1662
1231
-453
-1163
-527
-42
-48
3
52
-10
5
68
78
90
132
182
234
280
335
420
504
546
544
515
472
417
333
217
91
-15
-77
-105
-137
-173
-176
-164
-178
-200
-205
-208
-220
-230
-236
-241
-241
-252
-267
-250
-217
-220
-238
-245
-261
-260
-239
-264
-269
-258
-366
-114
908
1412
232
-1138
-1040
-347
-209
-273
-195
-180
-200
-153
-125
-115
-76
-35
6
71
142
212
284
342
364
350
313
267
213
140
51
-32
-97
-138
-152
-151
-151
-156
-158
-151
-143
-145
-151
-151
-151
-159
-163
-153
-138
-109
-62
-42
-61
-82
-95
-85
-53
-63
-80
-78
-168
-15
820
1429
642
-573
-672
-135
-2
-76
-9
21
-6
19
43
53
92
132
164
211
266
319
381
435
456
441
401
351
307
248
158
67
7
-30
-54
-67
-77
-85
-85
-87
-95
-97
-99
-115
-136
-146
-153
-162
-163
-150
-127
-100
-81
-86
-105
-130
-147
-134
-132
-165
-156
-180
-248
138
974
1028
-85
-883
-585
-151
-143
-162
-95
-96
-98
-61
-47
-27
21
59
91
145
206
267
340
406
430
417
391
361
314
234
123
17
-48
-84
-117
-138
-136
-138
-158
-168
-160
-164
-176
-177
-176
-183
-188
-187
-188
-191
-186
-159
-130
-128
-129
-125
-150
-163
-133
-141
-156
-150
-258
-91
889
1615
644
-909
-1099
-401
-128
-157
-79
-61
-96
-48
-10
-17
15
69
106
152
219
294
371
442
484
487
464
432
376
275
160
60
-31
-94
-109
-117
-140
-143
-134
-144
-150
-138
-134
-143
-152
-153
-145
-150
-161
-151
-145
-159
-144
-101
-84
-88
-98
-119
-109
-91
-122
-104
-91
-188
199
1292
1541
74
-1237
-943
-218
-105
-135
-38
-41
-62
-5
11
8
61
113
138
187
264
343
415
474
505
504
469
407
335
250
131
-1
-88
-123
-150
-175
-172
-160
-166
-174
-170
-166
-171
-177
-182
-189
-196
-203
-208
-205
-204
-200
-174
-141
-136
-149
-169
-180
-152
-144
-169
-147
-197
-201
484
1459
1110
-411
-1075
-510
-88
-141
-127
-56
-76
-64
-23
-10
20
64
96
139
200
266
338
409
455
458
424
374
320
252
161
63
-19
-77
-107
-118
-125
-130
-127
-125
-130
-135
-139
-144
-145
-142
-145
-152
-154
-157
-164
-164
-154
-130
-90
-65
-75
-93
-109
-119
-98
-87
-112
-96
-125
-152
375
1266
1137
-145
-869
-468
-77
-116
-123
-61
-79
-76
-39
-31
-11
31
60
91
139
189
248
313
360
372
356
324
284
230
153
63
-19
-75
-104
-120
-129
-131
-134
-138
-137
-137
-141
-145
-151
-152
-148
-144
-137
-128
-134
-148
-149
-148
-154
-148
-129
-105
-69
-44
-53
-71
-88
-96
-66
-58
-88
-69
-96
-64
612
1516
1106
-430
-1094
-520
-69
-93
-66
6
-22
-19
23
33
49
98
143
177
222
285
356
425
483
511
507
485
441
368
270
148
25
-56
-98
-130
-149
-154
-168
-179
-180
-192
-203
-197
-199
-212
-213
-209
-207
-199
-197
-204
-212
-220
-219
-196
-187
-195
-171
-132
-130
-145
-157
-162
-136
-136
-162
-112
-140
-169
514
1547
1165
-574
-1415
-780
-181
-146
-118
-43
-63
-53
-7
8
27
57
94
166
235
281
365
467
526
562
580
542
484
432
328
172
47
-31
-98
-140
-140
-130
-136
-142
-140
-141
-144
-135
-121
-125
-144
-151
-140
-139
-149
-156
-160
-161
-160
-156
-141
-116
-100
-96
-103
-113
-95
-85
-125
-111
-92
-149
264
1271
1391
-55
-1211
-854
-180
-91
-112
-29
-36
-45
1
12
19
62
101
136
189
256
330
411
482
521
520
487
431
353
254
141
28
-63
-122
-153
-167
-178
-190
-193
-187
-185
-187
-191
-198
-199
-191
-191
-200
-203
-205
-209
-207
-197
-175
-134
-101
-103
-112
-113
-124
-112
-84
-103
-109
-104
-177
90
964
1329
309
-808
-729
-191
-82
-118
-54
-46
-58
-21
-1
7
42
79
108
149
206
274
349
421
471
482
459
419
363
283
185
84
-2
-59
-91
-111
-121
-123
-123
-121
-120
-125
-135
-141
-142
-144
-151
-163
-180
-191
-193
-191
-180
-152
-122
-101
-96
-105
-120
-138
-140
-113
-114
-134
-101
-133
-97
545
1334
896
-477
-1012
-495
-115
-132
-107
-51
-63
-48
-16
-13
5
46
82
124
182
252
335
426
496
519
506
476
418
324
217
104
-16
-116
-170
-201
-226
-232
-219
-211
-211
-208
-206
-209
-211
-219
-235
-243
-238
-239
-246
-249
-255
-258
-226
-179
-168
-180
-179
-200
-213
-164
-152
-196
-173
-206
-144
689
1701
1137
-614
-1296
-657
-182
-169
-117
-70
-98
-61
-20
-15
29
81
104
150
229
317
428
545
624
655
646
590
499
396
281
155
39
-47
-107
-144
-158
-152
-132
-106
-94
-101
-97
-75
-75
-103
-112
-101
-113
-134
-133
-127
-132
-133
-114
-89
-71
-72
-99
-114
-74
-56
-96
-76
-85
-121
471
1569
1471
-160
-1201
-727
-119
-83
-92
-25
-35
-22
18
17
38
86
114
153
220
291
375
475
551
583
577
532
451
349
232
104
-7
-91
-156
-200
-216
-216
-210
-198
-187
-181
-178
-182
-191
-199
-208
-218
-231
-246
-257
-260
-262
-259
-233
-193
-175
-183
-193
-193
-187
-181
