# session 37
-25
-60
26
58
-181
-488
-546
-473
-486
-499
-454
-444
-446
-399
-382
-391
-358
-341
-114
632
1133
401
-730
-858
-356
-194
-253
-202
-175
-192
-156
-127
-126
-107
-85
-78
-63
-41
-23
-3
19
39
63
93
124
157
196
241
290
335
372
397
411
411
392
347
277
191
109
41
-10
-47
-71
-81
-81
-75
-71
-71
-68
-59
-48
-45
-46
-45
-42
-40
-40
-38
-34
-33
-37
-42
-42
-41
-40
-40
-37
-39
-42
-39
-31
-32
-40
-41
-35
-33
-36
-36
-36
-37
-38
-42
-48
-50
-51
-54
-60
-62
-58
-56
-66
-76
-75
-72
-74
-74
-70
-68
-64
-57
-50
-42
-36
-34
-31
-19
0
14
27
47
59
39
10
5
4
-9
2
6
-22
-8
-9
42
642
1505
1248
-160
-935
-518
-84
-95
-102
-46
-63
-66
-43
-45
-37
-21
-20
-12
5
11
16
35
59
78
92
111
145
184
216
249
292
331
357
378
391
384
361
323
249
144
48
-25
-90
-144
-178
-195
-200
-194
-194
-199
-196
-182
-173
-170
-166
-163
-163
-159
-153
-155
-158
-150
-142
-147
-153
-147
-141
-145
-148
-145
-139
-134
-133
-134
-130
-122
-119
-119
-111
-104
-107
-116
-118
-111
-103
-93
-75
-50
-33
-32
-48
-67
-65
-57
-63
-50
-28
-51
-50
-31
-6
454
1350
1405
99
-959
-697
-118
-24
-45
13
5
-6
27
32
31
48
49
47
61
68
70
82
99
116
137
159
186
228
267
295
331
382
422
438
442
435
405
340
246
142
47
-34
-98
-141
-166
-181
-190
-190
-184
-179
-174
-165
-156
-152
-150
-146
-141
-138
-135
-134
-136
-138
-138
-138
-136
-134
-135
-135
-131
-128
-130
-129
-123
-120
-125
-131
-139
-146
-143
-127
-103
-76
-53
-45
-55
-75
-88
-81
-82
-90
-70
-62
-89
-77
-61
88
732
1351
812
-416
-766
-263
-10
-87
-70
-31
-56
-44
-19
-24
-17
-3
0
9
23
30
40
56
70
87
111
138
167
204
246
291
332
366
389
401
399
375
322
237
141
50
-26
-83
-120
-148
-169
-176
-173
-167
-161
-157
-154
-148
-141
-137
-137
-136
-132
-126
-123
-123
-122
-121
-119
-118
-116
-118
-123
-129
-135
-138
-128
-107
-82
-60
-43
-40
-53
-70
-78
-73
-77
-91
-78
-63
-82
-76
-71
-39
424
1182
1075
-93
-821
-468
-44
-50
-73
-16
-30
-36
-5
-8
-16
4
16
12
15
27
40
51
62
77
101
127
155
187
227
273
318
352
376
389
393
381
339
262
169
78
-3
-67
-106
-134
-155
-163
-160
-154
-148
-144
-141
-135
-128
-128
-127
-121
-118
-119
-121
-120
-119
-117
-118
-122
-120
-114
-117
-127
-130
-134
-138
-122
-92
-70
-56
-45
-50
-72
-88
-85
-80
-92
-89
-69
-83
-86
-67
-74
201
908
1137
241
-683
-594
-132
-44
-91
-51
-50
-65
-38
-28
-36
-26
-16
-15
-7
2
8
19
35
51
69
89
115
146
179
213
253
291
321
341
352
348
321
266
185
93
13
-48
-95
-127
-140
-143
-148
-146
-139
-133
-124
-114
-110
-111
-106
-101
-101
-105
-105
-104
-105
-108
-108
-106
-107
-107
-110
-115
-114
-109
-115
-123
-109
-79
-55
-41
-31
-25
-40
-65
-55
-14
0
-14
-35
-68
-63
-34
-35
241
910
1090
225
-619
-516
-92
-15
-56
-22
-26
-45
-28
-21
-22
-12
-7
-4
6
12
15
21
31
48
71
92
116
152
187
212
240
277
308
322
328
326
301
247
176
97
18
-43
-81
-109
-127
-128
-121
-118
-116
-113
-109
-104
-101
-100
-95
-90
-93
-101
-101
-95
-94
-96
-98
-93
-85
-82
-86
-89
-92
-97
-101
-107
-111
-96
-71
-55
-46
-37
-42
-67
-88
-86
-86
-99
-88
-70
-91
-85
-61
-66
238
926
1040
108
-699
-536
-122
-67
-97
-53
-53
-60
-31
-22
-27
-21
-19
-18
-2
15
24
33
45
57
75
103
132
155
182
219
258
292
317
327
331
329
308
257
183
102
28
-33
-83
-118
-131
-131
-131
-129
-123
-121
-120
-115
-113
-115
-109
-101
-103
-109
-107
-104
-106
-110
-107
-98
-95
-104
-108
-100
-97
-105
-112
-117
-115
-99
-75
-54
-39
-31
-39
-59
-68
-63
-72
-79
-61
-69
-87
-57
-69
24
624
1220
728
-419
-779
-337
-63
-87
-73
-51
-72
-60
-41
-43
-36
-26
-23
-9
4
12
27
47
62
82
111
137
162
194
233
267
295
321
344
356
358
343
299
232
156
76
3
-48
-80
-105
-120
-118
-109
-107
-108
-105
-100
-96
-95
-96
-95
-92
-92
-94
-92
-93
-101
-106
-101
-99
-104
-107
-110
-116
-117
-120
-127
-121
-95
-74
-59
-43
-41
-60
-81
-86
-82
-89
-88
-71
-83
-93
-69
-84
96
727
1095
405
-546
-615
-182
-40
-79
-48
-39
-54
-33
-25
-35
-24
-13
-11
-2
11
12
18
37
57
70
86
111
141
176
211
242
275
300
305
304
314
306
257
182
105
33
-31
-79
-108
-123
-136
-145
-139
-127
-124
-125
-120
-112
-108
-107
-109
-108
-105
-106
-109
-106
-98
-98
-104
-109
-105
-99
-102
-108
-109
-114
-117
-99
-71
-52
-36
-22
-26
-49
-66
-60
-50
-55
-52
-47
-65
-55
-46
-45
283
932
979
88
-609
-426
-68
-38
-68
-37
-46
-57
-39
-34
-33
-23
-20
-14
2
14
26
42
58
78
104
128
149
178
214
246
275
301
320
330
331
320
290
238
165
87
18
-39
-84
-113
-127
-136
-138
-136
-135
-135
-129
-122
-117
-113
-109
-106
-101
-98
-98
-96
-94
-96
-97
-96
-98
-98
-99
-108
-115
-116
-123
-129
-112
-79
-60
-54
-45
-48
-74
-88
-79
-85
-94
-70
-65
-83
-60
-79
-4
597
1264
839
-356
-809
-374
-61
-81
-71
-39
-61
-55
-32
-36
-40
-32
-27
-21
-10
2
15
25
39
60
82
106
139
179
219
258
294
321
339
353
358
337
288
215
126
36
-38
-98
-148
-177
-185
-185
-187
-187
-178
-163
-152
-149
-144
-134
-129
-133
-131
-126
-125
-124
-123
-130
-135
-131
-134
-142
-135
-112
-90
-70
-54
-50
-60
-80
-91
-82
-81
-93
-75
-66
-96
-74
-57
-5
575
1456
1256
-153
-997
-600
-107
-67
-65
-11
-29
-30
-2
-4
-1
19
25
30
45
56
67
85
101
119
145
178
209
242
282
327
368
398
415
420
412
382
320
230
128
31
-50
-112
-154
-179
-193
-199
-197
-189
-182
-175
-169
-162
-160
-160
-154
-147
-145
-143
-140
-143
-148
-147
-148
-153
-158
-162
-169
-171
-163
-142
-115
-90
-79
-86
-108
-125
-119
-113
-122
-111
-100
-122
-115
-116
-92
395
1209
1135
-48
-806
-481
-80
-97
-118
-60
-73
-76
-45
-43
-40
-19
-12
-11
1
13
25
43
63
82
104
129
161
201
243
283
320
351
370
376
372
352
304
227
138
56
-8
-55
-91
-114
-126
-130
-126
-121
-120
-112
-100
-102
-111
-96
-68
-57
-64
-70
-74
-76
-75
-75
-79
-84
-92
-102
-111
-123
-140
-139
-115
-90
-71
-54
-51
-68
-91
-97
-85
-88
-97
-82
-85
-98
-81
-92
84
774
1296
643
-490
-698
-221
-29
-83
-50
-31
-60
-46
-33
-41
-28
-12
-13
-5
10
19
27
39
52
72
98
122
145
180
224
259
286
313
334
337
322
282
216
134
52
-21
-80
-122
-144
-154
-161
-161
-153
-147
-145
-141
-135
-128
-119
-113
-112
-110
-106
-103
-103
-102
-104
-107
-108
-110
-108
-104
-110
-122
-125
-129
-139
-128
-92
-63
-52
-43
-40
-58
-80
-79
-70
-80
-77
-62
-80
-82
-69
-82
213
947
1165
250
-656
-547
-101
-31
-74
-28
-28
-45
-21
-14
-21
-11
1
13
27
31
32
42
63
80
78
85
134
195
225
242
276
312
331
340
348
341
304
243
167
84
9
-45
-88
-123
-141
-151
-155
-148
-136
-134
-136
-132
-121
-114
-116
-114
-104
-95
-92
-93
-98
-98
-92
-90
-95
-97
-95
-86
-79
-86
-91
-79
-72
-83
-84
-77
-79
-76
-70
-88
-98
-58
-12
-12
-14
10
8
-27
-37
-30
-33
-23
-18
-34
-13
-10
7
424
1091
995
15
-593
-336
-14
-15
-34
2
-12
-20
-1
1
-3
4
13
22
31
38
49
60
70
83
102
124
145
164
185
219
256
280
292
298
297
283
252
200
124
42
-25
-77
-124
-162
-178
-184
-188
-184
-174
-168
-162
-149
-141
-138
-133
-128
-130
-131
-124
-114
-110
-110
-109
-106
-103
-101
-100
-97
-91
-87
-88
-88
-92
-98
-92
-71
-50
-40
-37
-39
-52
-76
-91
-83
-85
-96
-80
-79
-108
-91
-95
-63
416
1070
798
-326
-879
-508
-147
-124
-111
-71
-86
-85
-65
-67
-65
-54
-50
-44
-31
-17
-5
6
20
38
59
80
108
145
185
223
259
291
317
335
345
340
310
255
184
108
36
-24
-62
-80
-90
-93
-88
-79
-72
-67
-62
-54
-47
-48
-49
-43
-37
-40
-43
-39
-38
-45
-45
-42
-46
-49
-47
-51
-52
-31
-4
14
29
38
26
-1
-14
-10
-17
-28
-8
0
-35
-19
-1
1
453
1305
1288
32
-893
-625
-132
-58
-64
-18
-37
-43
-14
-16
-22
-7
-9
-18
-10
7
22
33
41
55
79
104
128
161
201
242
279
312
331
334
328
313
269
183
75
-21
-102
-169
-214
-240
-257
-268
-269
-265
-260
-253
-243
-230
-214
-202
-199
-199
-197
-192
-188
-187
-188
-188
-187
-190
-197
-199
-186
-161
-132
-107
-95
-98
-112
-127
-128
-117
-118
-118
-101
-109
-122
-102
-124
58
814
1402
721
-485
-708
-209
-22
-97
-64
-34
-51
-25
-3
-9
0
10
11
25
44
52
58
72
88
108
131
159
191
225
266
315
355
368
368
375
370
326
253
168
77
-1
-55
-95
-124
-139
-147
-150
-146
-137
-131
-125
-117
-106
-95
-94
-91
-83
-80
-88
-90
-83
-83
-92
-99
-102
-107
-113
-109
-89
-61
-35
-24
-34
-56
-71
-65
-60
-72
-68
-53
-74
-78
-66
-62
293
1067
1213
204
-681
-510
-76
-44
-88
-39
-45
-63
-39
-33
-36
-24
-14
-7
4
7
15
38
52
60
85
116
139
171
220
261
290
314
329
337
338
314
256
178
97
15
-57
-108
-138
-159
-174
-177
-172
-169
-168
-161
-152
-146
-142
-136
-131
-126
-125
-125
-123
-120
-119
-121
-120
-117
-117
-125
-136
-146
-150
-137
-115
-94
-74
-56
-53
-71
-93
-98
-87
-90
-95
-77
-79
-92
-73
-88
52
685
1216
652
-431
-672
-220
-15
-73
-54
-25
-40
-28
-14
-17
-5
7
10
19
29
34
44
61
78
96
116
144
177
210
243
278
311
332
341
344
338
308
248
170
92
20
-39
-82
-110
-127
-136
-136
-130
-127
-127
-123
-117
-113
-111
-108
-105
-104
-101
-99
-101
-103
-105
-108
-110
-110
-113
-113
-111
-114
-114
-109
-110
-117
-122
-129
-133
-120
-93
-68
-50
-43
-51
-71
-85
-81
-78
-84
-72
-63
-82
-68
-70
-62
369
1118
1067
-21
-754
-474
-70
-47
-65
-19
-30
-37
-12
-8
-8
7
14
18
36
48
45
50
71
92
109
133
164
195
228
267
303
327
344
359
366
354
316
254
176
89
14
-35
-68
-98
-116
-117
-119
-122
-114
-103
-101
-102
-98
-91
-85
-81
-86
-94
-77
-39
-30
-72
-118
-130
-127
-128
-125
-118
-117
-116
-111
-105
-98
-93
-96
-102
-106
-104
-103
-110
-115
-99
-71
-52
-43
-40
-53
-77
-83
-76
-82
-82
-59
-65
-82
-68
-81
93
741
1187
544
-475
-624
-190
-34
-87
-54
-31
-53
-38
-23
-31
-25
-11
-10
-11
-4
12
28
39
52
74
100
126
154
183
216
252
280
300
319
329
324
301
256
188
112
45
-12
-57
-89
-110
-121
-121
-117
-111
-100
-91
-90
-90
-89
-89
-88
-85
-85
-86
-86
-91
-96
-89
-81
-85
-93
-93
-92
-93
-94
-92
-85
-81
-82
-81
-80
-87
-90
-81
-77
-86
-99
-100
-86
-59
-36
-22
-12
-13
-36
-54
-49
-52
-69
-55
-43
-64
-56
-57
-1
479
1116
872
-181
-694
-345
-37
-56
-55
-13
-30
-30
-3
0
1
17
28
29
29
41
56
66
80
101
119
140
169
195
222
261
295
309
320
333
336
324
287
222
146
73
4
-53
-93
-120
-136
-137
-132
-130
-129
-126
-121
-116
-111
-105
-102
-106
-111
-108
-105
-107
-107
-106
-111
-117
-118
-117
-115
-110
-109
-111
-110
-108
-107
-105
-101
-100
-100
-98
-94
-93
-92
-92
-94
-98
-105
-102
-81
-52
-33
-21
-13
-26
-53
-56
-45
-52
-51
-35
-46
-46
-33
-38
240
898
1077
252
-558
-474
-80
-6
-42
-6
-4
-22
-9
0
3
15
20
23
34
39
38
50
69
80
94
116
142
173
207
237
268
302
323
330
338
338
312
263
197
116
42
-11
-53
-88
-106
-112
-114
-113
-113
-116
-115
-106
-102
-106
-103
-97
-99
-102
-97
-92
-92
-94
-97
-101
-101
-99
-101
-103
-99
-95
-94
-91
-87
-88
-90
-89
-92
-98
-99
-92
-91
-98
-101
-104
-112
-104
-77
-56
-47
-33
-25
-44
-72
-75
-69
-77
-72
-61
-82
-83
-72
-72
226
873
993
150
-599
-471
-98
-43
-74
-38
-38
-46
-29
-24
-22
-10
-4
0
11
19
28
43
56
68
83
104
132
168
205
239
271
304
330
342
341
339
326
282
208
130
60
-5
-56
-83
-97
-106
-106
-99
-94
-93
-90
-88
-88
-88
-85
-82
-80
-79
-80
-82
-85
-87
-85
-80
-80
-84
-87
-85
-82
-80
-75
-71
-72
-72
-65
-63
-69
-75
-79
-83
-79
-55
-29
-17
