# session 39
-27
-55
17
39
-182
-466
-523
-444
-429
-435
-404
-389
-385
-364
-345
-336
-327
-316
-302
-286
-276
-270
-261
-250
-239
-230
-225
-223
-221
-218
-212
-202
-186
-161
-130
-104
-92
-93
-105
-120
-114
-101
-108
-103
-76
-92
-97
-68
-89
221
1157
1597
523
-774
-769
-158
-12
-79
-22
-6
-27
5
22
16
32
50
58
73
89
102
118
137
160
184
208
238
276
318
364
414
455
480
497
503
481
423
340
239
126
25
-49
-105
-145
-164
-170
-176
-178
-172
-164
-157
-148
-139
-136
-136
-134
-127
-124
-125
-120
-114
-118
-130
-131
-123
-119
-121
-126
-132
-141
-141
-123
-96
-69
-53
-53
-67
-89
-100
-87
-82
-95
-80
-72
-103
-89
-88
-58
523
1444
1272
-139
-965
-540
-70
-85
-106
-50
-72
-76
-44
-42
-38
-16
-8
-2
10
20
30
46
65
86
111
140
173
213
260
310
358
399
425
436
435
413
352
251
136
29
-59
-125
-168
-197
-215
-223
-222
-216
-210
-205
-197
-184
-174
-169
-165
-161
-161
-163
-163
-162
-161
-164
-171
-175
-169
-170
-177
-171
-155
-138
-110
-78
-75
-105
-133
-125
-94
-101
-134
-109
-77
-109
-109
-108
-64
532
1449
1238
-204
-999
-521
-48
-79
-88
-19
-45
-51
-23
-36
-39
-3
31
51
63
68
73
84
114
163
188
184
203
267
331
361
380
422
452
439
423
417
362
251
143
50
-41
-109
-146
-177
-201
-199
-188
-188
-189
-181
-167
-148
-135
-137
-141
-144
-156
-161
-138
-121
-138
-154
-145
-141
-150
-145
-135
-129
-102
-62
-46
-56
-81
-107
-100
-76
-86
-98
-81
-96
-107
-74
-55
221
955
1250
343
-690
-650
-146
-44
-111
-59
-38
-62
-49
-47
-55
-35
-28
-44
-46
-33
-24
-18
-18
-14
16
58
86
113
160
217
263
293
317
338
349
342
302
223
127
41
-30
-86
-126
-151
-165
-162
-150
-142
-136
-126
-116
-108
-102
-100
-97
-89
-81
-77
-73
-70
-72
-74
-72
-73
-81
-80
-59
-34
-17
-2
8
1
-19
-36
-34
-30
-43
-41
-23
-42
-52
-45
-61
259
1052
1270
242
-773
-664
-178
-97
-138
-93
-102
-119
-91
-87
-87
-63
-50
-39
-14
4
8
17
33
46
60
90
136
179
208
242
290
332
350
359
369
356
303
225
131
23
-74
-139
-183
-210
-216
-211
-206
-198
-187
-179
-174
-170
-167
-155
-134
-116
-118
-134
-139
-128
-119
-121
-124
-116
-110
-113
-108
-83
-57
-44
-33
-30
-44
-63
-73
-70
-68
-71
-57
-52
-83
-65
-30
-33
402
1382
1579
269
-948
-795
-196
-62
-77
-15
-22
-40
-10
-6
-15
-1
12
22
35
39
46
65
84
104
125
142
167
208
257
303
343
377
404
418
418
402
361
281
170
59
-30
-96
-150
-193
-215
-220
-223
-227
-221
-212
-207
-205
-200
-197
-197
-196
-190
-184
-183
-185
-187
-190
-190
-190
-199
-211
-204
-181
-163
-145
-127
-127
-144
-157
-156
-144
-145
-157
-138
-125
-148
-131
-132
-98
475
1360
1189
-149
-921
-525
-96
-98
-97
-41
-61
-59
-26
-24
-17
3
11
21
39
51
64
83
106
131
159
187
224
271
316
357
397
431
453
462
456
425
362
269
170
83
13
-42
-78
-102
-116
-117
-113
-113
-110
-101
-97
-99
-97
-93
-91
-92
-93
-94
-96
-98
-100
-100
-103
-109
-110
-106
-108
-118
-125
-129
-136
-137
-124
-102
-76
-53
-48
-60
-79
-93
-89
-84
-96
-90
-74
-99
-107
-90
-59
345
1107
1135
57
-734
-465
-62
-79
-114
-56
-70
-83
-50
-45
-49
-35
-27
-23
-12
-1
10
26
40
55
78
108
141
176
213
250
287
321
345
357
359
343
296
221
137
55
-17
-70
-106
-132
-147
-148
-148
-149
-146
-141
-139
-133
-125
-123
-120
-114
-108
-106
-105
-103
-100
-98
-99
-98
-97
-97
-96
-94
-92
-89
-86
-85
-81
-77
-74
-71
-65
-63
-66
-66
-61
-60
-62
-63
-58
-50
-49
-56
-60
-56
-49
-47
-47
-44
-40
-41
-43
-42
-46
-53
-53
-39
-21
-5
9
24
30
9
-15
-12
-8
-21
-11
1
-23
-16
-1
50
504
1182
1031
-20
-612
-297
17
-19
-35
5
-11
-12
8
2
6
22
21
21
35
43
46
58
75
92
110
128
145
172
207
240
269
298
322
335
343
346
329
282
212
136
64
5
-44
-85
-109
-118
-124
-127
-119
-110
-111
-113
-109
-106
-109
-108
-103
-103
-106
-108
-108
-106
-103
-106
-109
-105
-104
-110
-111
-105
-103
-101
-94
-91
-96
-95
-85
-83
-87
-87
-80
-76
-76
-77
-78
-77
-75
-74
-76
-74
-70
-70
-70
-66
-63
-63
-66
-67
-63
-60
-63
-63
-56
-49
-49
-52
-52
-47
-46
-51
-49
-42
-49
-56
-35
1
19
18
19
19
1
-28
-36
-26
-39
-53
-30
-31
-61
-42
-39
115
857
1590
1006
-423
-927
-408
-56
-73
-47
-13
-36
-17
7
-7
-3
15
22
32
48
55
62
76
95
118
139
158
184
220
259
300
335
363
389
405
403
392
368
315
233
139
45
-37
-97
-133
-157
-175
-186
-185
-179
-173
-170
-171
-169
-159
-152
-153
-148
-140
-140
-141
-134
-130
-133
-134
-130
-129
-130
-129
-127
-122
-119
-119
-120
-120
-115
-108
-109
-114
-108
-100
-102
-102
-96
-97
-105
-105
-103
-100
-76
-37
-15
-19
-24
-18
-18
-37
-63
-64
-59
-73
-64
-40
-68
-79
-62
-48
367
1260
1431
255
-804
-634
-119
-44
-77
-24
-29
-37
-4
-2
-6
13
21
22
36
51
60
73
88
106
127
152
182
218
254
292
339
386
419
437
444
438
407
340
244
139
46
-31
-92
-130
-154
-173
-184
-182
-178
-175
-169
-159
-154
-150
-142
-132
-129
-126
-120
-118
-120
-121
-121
-121
-119
-117
-118
-122
-122
-117
-115
-117
-115
-111
-108
-106
-103
-101
-100
-97
-94
-92
-90
-87
-82
-80
-78
-74
-72
-72
-67
-62
-63
-67
-69
-72
-69
-40
-1
12
2
-2
3
-1
-20
-37
-37
-42
-55
-40
-30
-57
-52
-42
38
567
1263
1012
-116
-663
-293
2
-53
-57
-13
-34
-28
3
-1
-1
15
22
25
34
43
55
69
84
99
118
141
168
199
234
273
313
348
373
390
397
388
355
292
209
121
41
-23
-71
-109
-138
-153
-158
-158
-157
-154
-149
-142
-136
-130
-125
-120
-114
-110
-109
-108
-108
-107
-103
-101
-102
-102
-102
-104
-102
-97
-97
-99
-97
-93
-89
-87
-86
-84
-81
-80
-80
-79
-78
-76
-71
-69
-72
-73
-71
-71
-71
-67
-61
-55
-54
-57
-60
-61
-62
-66
-67
-54
-23
6
9
-2
-2
3
-12
-41
-47
-39
-52
-53
-34
-48
-58
-45
-42
281
1056
1294
339
-633
-549
-93
-23
-77
-34
-27
-39
-18
-14
-16
-1
5
2
12
28
40
52
69
90
108
126
154
189
222
257
302
347
381
404
425
432
413
362
282
186
94
12
-56
-103
-135
-164
-180
-176
-171
-172
-167
-161
-159
-154
-145
-138
-131
-126
-127
-124
-121
-123
-124
-121
-121
-121
-121
-121
-121
-119
-117
-115
-116
-119
-118
-117
-116
-113
-109
-110
-111
-107
-104
-106
-110
-115
-119
-112
-94
-74
-59
-43
-29
-33
-61
-79
-72
-75
-80
-57
-61
-81
-57
-62
133
928
1571
832
-572
-928
-367
-56
-78
-42
-14
-42
-27
-5
-9
0
14
18
27
38
45
57
74
90
108
131
158
189
223
264
314
363
403
431
452
460
444
396
312
207
99
4
-70
-120
-154
-179
-191
-191
-188
-184
-181
-174
-164
-157
-152
-146
-140
-138
-135
-132
-132
-133
-131
-127
-127
-127
-124
-123
-126
-126
-122
-120
-118
-114
-113
-117
-119
-122
-130
-130
-113
-90
-68
-46
-36
-46
-69
-79
-68
-69
-79
-63
-57
-76
-65
-69
57
692
1346
889
-306
-715
-266
-5
-68
-54
-17
-45
-35
-11
-18
-11
7
10
15
29
38
45
57
75
95
117
141
170
204
243
288
334
372
398
413
415
396
345
264
166
71
-9
-70
-115
-146
-163
-170
-172
-170
-165
-160
-155
-148
-140
-136
-133
-129
-127
-127
-127
-128
-129
-129
-127
-125
-123
-122
-122
-122
-119
-117
-116
-111
-107
-107
-105
-102
-104
-108
-112
-121
-119
-97
-71
-51
-34
-26
-40
-67
-73
-63
-71
-76
-54
-58
-75
-56
-60
128
807
1281
598
-503
-672
-197
-16
-71
-39
-18
-41
-23
-6
-14
-6
10
13
20
30
38
46
60
76
95
117
143
172
205
246
292
333
365
391
409
410
389
344
271
178
85
7
-52
-97
-126
-141
-150
-155
-153
-146
-141
-139
-134
-127
-123
-122
-123
-119
-114
-111
-111
-112
-114
-116
-114
-111
-110
-110
-111
-113
-112
-108
-106
-109
-109
-103
-97
-100
-103
-103
-112
-119
-106
-83
-66
-50
-33
-35
-60
-77
-70
-68
-80
-70
-64
-89
-74
-68
-50
435
1271
1204
-32
-871
-564
-103
-63
-75
-27
-43
-49
-24
-24
-23
-9
-3
3
17
25
33
49
68
86
104
127
160
198
234
273
319
364
400
420
428
427
404
341
241
132
37
-39
-102
-152
-179
-188
-189
-191
-194
-188
-174
-167
-169
-164
-153
-148
-147
-142
-135
-130
-130
-131
-128
-124
-124
-124
-121
-116
-114
-115
-115
-113
-113
-118
-118
-106
-85
-58
-37
-34
-49
-72
-84
-75
-71
-85
-73
-58
-84
-74
-58
-50
418
1326
1366
76
-928
-669
-140
-60
-73
-19
-31
-42
-14
-10
-10
5
12
19
28
34
48
69
84
99
120
144
174
213
253
295
341
384
417
437
445
436
398
325
226
121
25
-51
-107
-149
-175
-184
-187
-188
-184
-174
-165
-161
-158
-158
-158
-152
-145
-142
-141
-140
-139
-138
-138
-138
-136
-135
-138
-137
-132
-129
-130
-130
-126
-121
-118
-121
-126
-131
-137
-141
-130
-107
-84
-63
-46
-46
-66
-86
-83
-73
-82
-76
-55
-73
-80
-65
-68
263
1077
1339
348
-666
-578
-105
-35
-84
-33
-32
-48
-19
-10
-14
0
8
11
25
35
42
54
70
87
109
134
160
191
229
269
309
348
379
398
407
404
377
321
241
149
63
-5
-59
-100
-124
-135
-138
-139
-137
-134
-129
-121
-115
-112
-112
-111
-109
-107
-106
-106
-106
-107
-107
-107
-108
-109
-109
-110
-113
-113
-111
-110
-109
-106
-104
-104
-104
-102
-100
-100
-103
-111
-119
-121
-112
-91
-67
-44
-30
-29
-44
-66
-70
-61
-68
-71
-52
-60
-73
-53
-50
186
888
1260
478
-544
-589
-128
-12
-70
-29
-19
-42
-22
-11
-18
-4
7
8
18
31
38
48
63
78
97
121
146
175
210
250
289
328
360
381
393
396
379
331
256
168
83
10
-48
-91
-118
-136
-148
-150
-146
-143
-141
-136
-130
-127
-123
-118
-115
-114
-115
-115
-113
-110
-108
-108
-107
-104
-103
-106
-108
-108
-108
-105
-102
-101
-100
-96
-94
-95
-92
-89
-89
-87
-82
-80
-83
-85
-82
-79
-78
-78
-83
-94
-93
-73
-50
-35
-19
-6
-16
-44
-55
-48
-57
-63
-44
-52
-68
-48
-60
113
804
1325
663
-485
-708
-228
-17
-67
-39
-15
-39
-28
-9
-10
-6
2
5
10
18
28
41
55
73
92
111
136
164
191
224
270
318
354
377
392
397
393
365
300
205
107
25
-43
-100
-137
-152
-161
-169
-168
-160
-155
-153
-146
-138
-134
-130
-122
-115
-113
-113
-112
-111
-111
-112
-110
-108
-108
-107
-107
-110
-107
-99
-100
-107
-101
-89
-89
-94
-90
-85
-91
-97
-97
-94
-90
-79
-61
-40
-23
-17
-27
-49
-60
-53
-57
-58
-34
-41
-64
-40
-48
110
868
1565
918
-499
-932
-380
-38
-62
-31
7
-21
-8
21
15
14
26
34
45
57
63
73
90
107
124
140
163
197
235
273
314
359
399
424
434
435
423
382
301
193
86
-6
-79
-136
-177
-202
-213
-217
-217
-211
-203
-196
-193
-192
-188
-179
-172
-171
-170
-167
-166
-166
-161
-162
-167
-166
-162
-164
-165
-161
-157
-156
-152
-147
-142
-137
-133
-131
-128
-123
-122
-124
-125
-127
-132
-127
-105
-81
-60
-39
-30
-43
-67
-74
-59
-59
-65
-45
-44
-66
-50
-53
99
794
1441
878
-377
-744
-254
8
-51
-33
0
-24
-10
9
1
10
24
25
34
47
53
63
78
92
108
131
156
184
219
261
303
342
378
406
422
425
409
363
287
192
99
18
-48
-98
-131
-151
-162
-167
-169
-166
-158
-151
-145
-140
-134
-130
-128
-126
-123
-121
-121
-120
-120
-122
-123
-122
-120
-120
-119
-116
-113
-112
-110
-106
-104
-102
-100
-96
-92
-90
-90
-87
-82
-82
-88
-95
-104
-107
-89
-64
-44
-26
-12
-17
-38
-52
-46
-42
-50
-39
-23
-41
-37
-21
15
432
1173
1173
113
-652
-395
2
4
-27
24
11
1
27
30
30
47
54
57
69
79
88
100
113
127
146
169
195
225
260
299
339
376
405
426
437
431
402
345
264
172
85
13
-43
-81
-105
-122
-131
-134
-134
-131
-125
-121
-117
-114
-113
-112
-110
-108
-112
-118
-122
-122
-123
-127
-130
-130
-130
-134
-138
-139
-140
-141
-141
-141
-145
-147
-147
-147
-148
-150
-149
-148
-147
-149
-150
-150
-149
-149
-154
-160
-167
-175
-174
-159
-139
-121
-104
-95
-106
-132
-144
-139
-143
-153
-135
-129
-153
-138
-130
-63
450
1115
840
-273
-796
-416
-94
-119
-118
-80
-100
-94
-67
-69
-64
-43
-35
-28
-10
6
15
28
48
72
98
128
162
198
240
288
336
381
418
442
457
467
456
409
337
259
184
117
70
44
31
25
31
44
53
65
86
