# session 16
57
54
17
140
306
248
149
94
-10
405
1432
1524
108
-925
-539
42
94
89
143
117
142
204
195
193
244
296
366
478
577
651
735
775
715
635
593
503
340
198
104
34
8
10
-26
-78
-83
-72
-95
-120
-125
-134
-150
-153
-135
-102
-88
-128
-190
-183
-127
-141
-182
-176
-262
-160
675
1400
571
-970
-1248
-502
-131
-176
-118
-53
-85
-83
-37
-4
21
55
117
207
313
422
504
523
492
448
390
291
162
36
-60
-110
-125
-150
-192
-205
-174
-159
-210
-271
-280
-270
-269
-260
-244
-230
-217
-234
-287
-308
-276
-266
-285
-286
-381
-433
130
979
728
-542
-1087
-569
-205
-280
-283
-216
-222
-218
-203
-172
-81
6
56
118
190
265
345
385
360
323
307
292
248
175
103
54
27
10
-10
-17
-9
-12
-39
-64
-75
-83
-93
-90
-75
-69
-78
-94
-122
-155
-150
-127
-153
-197
-255
-365
-172
566
932
119
-856
-819
-335
-218
-240
-157
-152
-211
-180
-118
-96
-51
5
35
118
236
279
334
464
493
406
393
393
260
126
101
73
18
21
39
-5
-63
-72
-50
-46
-61
-84
-127
-147
-76
-9
-44
-78
-56
-60
-59
-31
-57
-97
-193
-310
184
1241
1270
-202
-1235
-797
-122
-17
-42
11
13
19
50
72
128
197
234
289
400
521
608
658
685
682
633
551
462
351
231
152
102
41
-5
-20
-39
-41
-10
-10
-58
-84
-80
-104
-144
-143
-119
-122
-145
-177
-208
-200
-195
-227
-247
-358
-462
63
971
784
-544
-1180
-645
-209
-255
-252
-186
-212
-208
-164
-146
-111
-58
-23
26
109
201
269
306
325
327
307
271
213
127
45
-17
-64
-88
-99
-124
-142
-136
-137
-162
-182
-183
-185
-198
-191
-163
-152
-158
-163
-185
-204
-189
-191
-201
-198
-320
-328
291
929
403
-704
-881
-328
-113
-186
-126
-75
-110
-88
-39
-31
-13
31
71
124
204
299
390
450
455
425
394
353
275
177
92
31
-7
-33
-60
-76
-68
-75
-117
-148
-143
-137
-133
-113
-90
-65
-45
-70
-143
-188
-156
-103
-98
-96
-115
-285
-260
511
1247
576
-810
-1103
-446
-98
-125
-86
-71
-101
-36
16
-6
25
104
147
198
304
418
509
568
587
585
572
512
387
237
107
29
3
-25
-79
-103
-83
-87
-112
-106
-102
-125
-134
-134
-147
-139
-107
-98
-122
-155
-156
-124
-130
-145
-132
-227
-136
667
1344
517
-958
-1197
-473
-117
-142
-82
-41
-68
-40
-4
5
43
102
158
232
330
435
518
552
527
463
385
303
209
107
14
-53
-92
-112
-126
-139
-147
-153
-162
-170
-177
-191
-211
-224
-215
-194
-181
-174
-171
-192
-215
-191
-178
-205
-205
-285
-341
237
1148
932
-379
-994
-512
-125
-154
-127
-61
-80
-65
-20
-12
11
61
106
161
245
341
428
483
489
456
409
350
271
179
99
39
-3
-24
-31
-38
-43
-45
-54
-67
-82
-99
-114
-117
-110
-103
-105
-114
-125
-155
-186
-176
-169
-194
-204
-289
-361
119
946
835
-299
-909
-531
-195
-237
-230
-168
-187
-184
-148
-135
-109
-61
-14
43
121
213
311
380
389
362
322
263
183
102
31
-34
-84
-104
-104
-106
-109
-112
-122
-133
-142
-153
-166
-171
-166
-146
-117
-100
-102
-118
-151
-160
-137
-149
-161
-169
-285
-85
864
1437
427
-916
-938
-304
-132
-167
-85
-70
-93
-43
-6
3
41
98
165
245
335
446
555
601
579
530
456
356
251
144
45
-26
-69
-90
-89
-84
-92
-101
-99
-97
-108
-121
-126
-138
-158
-149
-116
-105
-117
-134
-156
-148
-127
-160
-171
-179
-268
104
1169
1468
100
-1178
-934
-257
-149
-173
-80
-79
-92
-29
1
7
56
120
182
277
397
514
603
636
600
527
439
329
208
101
17
-46
-83
-97
-102
-105
-97
-88
-96
-114
-124
-129
-140
-158
-174
-164
-142
-142
-152
-167
-198
-200
-171
-195
-218
-241
-354
-47
984
1400
214
-1012
-851
-259
-195
-247
-167
-166
-183
-141
-124
-108
-59
-13
41
125
221
316
394
427
411
363
291
205
116
33
-34
-79
-107
-117
-109
-100
-100
-101
-102
-110
-128
-145
-157
-167
-172
-160
-131
-111
-114
-128
-152
-173
-156
-142
-168
-169
-212
-268
192
1076
1055
-151
-910
-538
-122
-151
-160
-88
-102
-100
-50
-28
-7
39
85
142
219
305
394
462
483
457
406
342
265
175
90
24
-26
-56
-66
-73
-84
-92
-95
-103
-115
-129
-145
-159
-174
-189
-188
-167
-140
-123
-119
-119
-129
-150
-144
-123
-143
-149
-172
-263
68
997
1255
100
-954
-735
-199
-142
-156
-73
-85
-93
-35
-19
-12
39
88
136
221
327
423
500
548
547
498
439
373
267
136
37
-22
-63
-84
-93
-106
-116
-115
-120
-136
-153
-165
-172
-174
-182
-199
-207
-201
-175
-139
-128
-143
-160
-174
-162
-149
-177
-162
-159
-226
222
1267
1348
-159
-1307
-928
-264
-158
-144
-61
-68
-64
-26
-23
7
84
146
207
300
409
523
622
662
633
565
474
362
239
126
32
-46
-99
-119
-122
-131
-136
-132
-135
-141
-145
-154
-165
-178
-201
-220
-222
-210
-187
-169
-170
-164
-165
-200
-209
-183
-187
-180
-218
-273
256
1286
1221
-319
-1310
-819
-209
-183
-186
-95
-103
-100
-53
-46
-25
35
91
156
248
354
466
554
578
544
487
417
326
215
109
23
-42
-77
-84
-84
-91
-93
-90
-93
-103
-113
-124
-135
-145
-156
-168
-181
-188
-171
-138
-125
-133
-147
-171
-166
-138
-164
-177
-174
-279
-28
961
1439
307
-978
-868
-238
-140
-189
-94
-81
-102
-58
-33
-19
28
71
117
197
294
391
477
523
511
461
393
319
234
141
59
-3
-43
-60
-61
-63
-67
-67
-72
-83
-90
-101
-119
-137
-151
-165
-178
-181
-171
-146
-124
-124
-132
-142
-165
-166
-148
-166
-175
-182
-266
-22
821
1186
199
-886
-790
-253
-160
-207
-137
-127
-145
-109
-87
-79
-42
1
46
107
182
272
360
410
412
383
335
271
190
94
4
-60
-93
-108
-119
-126
-130
-139
-152
-160
-160
-166
-179
-187
-194
-210
-221
-211
-198
-193
-167
-119
-101
-126
-148
-136
-102
-103
-129
-85
-78
-104
436
1423
1308
-215
-1181
-719
-116
-49
-30
54
42
40
87
112
136
182
245
327
412
501
616
721
766
750
694
609
501
360
208
91
17
-35
-70
-87
-98
-103
-107
-118
-130
-131
-133
-155
-176
-184
-201
-220
-220
-214
-209
-188
-171
-172
-183
-209
-211
-183
-204
-219
-189
-266
-70
876
1439
322
-1165
-1194
-456
-218
-245
-156
-139
-165
-120
-97
-97
-53
2
56
140
242
344
445
513
514
463
388
298
200
101
4
-77
-126
-147
-154
-157
-159
-159
-157
-159
-163
-172
-189
-206
-215
-225
-235
-240
-245
-234
-201
-179
-179
-186
-208
-213
-180
-188
-203
-186
-272
-105
814
1452
489
-922
-988
-309
-118
-181
-97
-64
-91
-50
-16
-8
34
89
141
214
310
416
516
573
573
526
456
377
289
193
105
38
-5
-23
-28
-31
-34
-34
-41
-52
-59
-67
-84
-104
-118
-128
-136
-143
-141
-119
-89
-80
-89
-102
-124
-124
-100
-112
-124
-128
-223
-20
868
1383
423
-822
-816
-216
-79
-137
-63
-47
-74
-37
-12
-6
34
80
124
195
289
386
471
522
527
495
436
363
281
186
94
28
-10
-32
-41
-43
-55
-71
-80
-84
-92
-106
-127
-147
-158
-169
-188
-202
-196
-172
-145
-137
-150
-162
-180
-194
-173
-164
-191
-187
-241
-283
220
1039
858
-368
-999
-571
-186
-211
-202
-137
-154
-154
-123
-112
-84
-39
-5
47
129
220
310
390
431
426
397
361
297
195
88
5
-44
-70
-89
-109
-117
-114
-117
-129
-146
-160
-160
-158
-174
-190
-185
-179
-188
-186
-155
-116
-104
-113
-117
-130
-147
-120
-102
-135
-124
-161
-212
349
1339
1175
-332
-1198
-708
-174
-149
-122
-37
-61
-62
-11
13
38
84
121
176
268
376
493
596
643
631
588
522
427
310
181
62
-17
-57
-80
-94
-104
-113
-113
-107
-113
-125
-135
-151
-168
-174
-185
-198
-194
-188
-185
-162
-141
-148
-162
-177
-172
-133
-138
-170
-142
-186
-90
735
1554
796
-867
-1316
-591
-158
-176
-125
-65
-78
-49
-16
-3
40
89
136
221
328
440
565
667
690
642
563
466
342
208
95
4
-64
-100
-118
-131
-130
-126
-132
-137
-136
-140
-152
-167
-180
-192
-204
-213
-219
-221
-201
-174
-170
-181
-194
-218
-212
-183
-209
-218
-217
-296
37
1040
1370
132
-1063
-854
-246
-176
-215
-124
-116
-128
-81
-60
-46
-2
45
99
181
276
380
482
549
556
513
446
363
262
159
82
23
-28
-52
-47
-41
-41
-37
-32
-34
-39
-48
-66
-86
-102
-118
-133
-141
-139
-124
-101
-83
-86
-102
-124
-145
-137
-117
-137
-146
-157
-212
109
934
1120
28
-941
-722
-207
-153
-187
-114
-111
-124
-96
-87
-81
-46
-4
46
111
187
289
397
458
460
428
370
289
191
86
-10
-77
-120
-150
-162
-161
-170
-182
-178
-170
-177
-184
-185
-195
-215
-225
-223
-214
-211
-214
-203
-168
-142
-142
-140
-139
-162
-161
-133
-154
-163
-144
-206
94
1081
1479
235
-1122
-1008
-318
-152
-168
-72
-63
-81
-32
-8
4
56
112
175
271
375
485
611
707
726
696
636
527
389
269
164
54
-31
-62
-69
-81
-83
-74
-74
-80
-72
-64
-79
-105
-119
-120
-123
-130
-133
-137
-149
-142
-106
-81
-84
-100
-127
-129
-91
-109
-145
-109
-144
13
898
1584
612
-1004
-1233
-468
-137
-172
-90
-49
-85
-48
-5
-1
32
83
135
218
320
428
550
647
672
629
547
444
327
202
83
-12
-82
-131
-158
-163
-161
-163
-163
-161
-160
-167
-180
-190
-202
-218
-233
-245
-260
-267
-264
-259
-239
-208
-201
-214
-226
-241
-230
-204
-227
-232
-225
-307
-17
945
1327
165
-1069
-936
-313
-196
-234
-149
-136
-153
-112
-85
-71
-27
24
79
151
240
350
463
542
566
542
481
396
297
197
108
32
-23
-49
-57
-61
-56
-44
-40
-43
-45
-53
-70
-81
-87
-103
-122
-130
-139
-156
-165
-151
-126
-98
-79
-84
-99
-112
-131
-130
-112
-130
-134
-125
-178
84
878
1145
117
-924
-779
-229
-129
-164
-94
-85
-100
-67
-55
-54
-19
20
63
133
223
321
423
502
532
517
475
400
292
179
89
19
-42
-83
-98
-102
-109
-114
-116
-119
-121
-122
-127
-136
-144
-148
-148
-154
-163
-159
-151
-163
-176
-164
-139
-112
-80
-68
-82
-93
-104
-105
-78
-85
-105
-64
-98
-6
788
1584
849
-775
-1218
-513
-99
-126
-79
-25
-47
-12
37
40
61
114
166
229
329
454
573
675
747
748
680
595
498
355
200
88
8
-65
-111
-123
-126
-131
-129
-125
-125
-129
-135
-148
-166
-178
-186
-197
-209
-217
-224
-232
-237
-234
-226
-213
-193
-178
-176
-186
-219
-234
-191
-180
-213
-183
-208
-139
636
1507
843
-854
-1393
-671
-210
-230
-172
-101
-133
-115
-67
-54
-24
27
71
132
230
352
477
584
642
635
579
491
377
253
136
36
-41
-97
-131
-142
-140
-140
-138
-134
-132
-134
-138
-145
-150
-159
-175
-186
-188
-195
-207
-211
-216
-225
-221
-208
-189
-156
-132
-140
-151
-158
-164
-139
-131
-162
-141
-156
-158
419
1301
1016
-412
-1095
-571
-126
-146
-124
-52
-72
-64
-24
-13
14
62
103
159
241
338
451
563
637
654
621
555
465
356
243
149
76
18
-19
-32
-32
-30
-28
-28
-27
-30
-38
-47
-55
-68
-85
-98
-105
-111
-117
-122
-125
-125
-125
-126
-126
-126
-124
-120
-125
-136
-141
-146
-151
-136
-101
-66
-40
-39
-61
-75
-83
-89
-69
-65
-84
-69
-110
-66
540
1233
765
-495
-907
-388
-72
-113
-81
-29
-53
-43
-13
-5
19
62
99
143
208
294
397
495
563
589
571
519
444
350
245
148
70
6
-41
-65
-74
-82
-86
-82
-86
-97
-102
-104
-116
-134
-149
-161
-173
-181
-186
-192
-198
-204
-209
-213
-220
-227
-238
-257
-264
-244
-217
-198
-181
-178
-193
-206
-224
-232
-205
-204
-223
-201
-240
-163
491
1111
484
-786
-1058
-469
-173
-211
-159
-102
-118
-96
-58
-41
-11
33
83
150
238
344
460
573
658
691
668
610
526
412
287
168
68
2
-37
-62
-73
-79
-91
-95
-83
-79
-89
-95
-96
-103
-112
-116
-114
-106
-107
-120
-125
-113
-106
-117
-127
-128
-128
-126
-114
-90
-59
-44
-52
-55
-53
-65
-53
-39
-77
-61
-31
-83
342
1396
1545
30
-1253
-968
-275
-118
-95
-16
-32
-32
26
41
45
85
130
181
258
359
486
626
736
783
772
715
614
478
328
184
64
-29
-97
-141
-165
-173
-172
-175
-179
-174
-169
-175
-187
-197
-211
-226
-233
-240
-258
-268
-260
-260
-276
-278
-267
-261
-237
-203
-202
-216
-223
-238
-224
-199
-229
-224
-201
-239
189
1208
1343
-95
-1268
-947
-304
-216
-221
-130
-131
-136
-89
-74
-59
-12
28
75
155
255
368
493
599
651
639
575
476
354
228
120
33
-34
-81
-103
-105
-100
-96
-92
-88
-85
-81
-82
-94
-106
-117
-129
-135
-140
-155
-172
-177
-184
-197
-198
-180
-155
-121
-98
-105
-119
-124
-136
-127
-102
-120
-124
-115
-172
111
958
1232
147
-924
-758
-202
-114
-144
-63
-56
-75
-41
-23
-13
24
63
105
170
253
354
472
578
640
642
596
519
419
301
185
95
30
-23
-62
-77
-75
-73
-70
-67
-68
-70
-70
-74
-86
-99
-109
-116
-122
-128
-132
-139
-149
-158
-166
-169
-157
-127
-96
-74
-63
-66
-80
-87
-83
-75
-65
-54
-44
