# session 17
-4
72
-123
17
822
1498
1480
1243
1149
1025
863
781
706
615
577
564
531
501
487
466
441
434
429
380
319
324
354
301
209
194
208
161
112
117
107
58
25
12
5
7
-2
-24
-29
-44
-82
-98
-93
-102
-81
-22
-4
-41
-89
-129
-125
-96
-113
-110
-107
-142
308
1330
1443
-74
-1388
-1136
-402
-198
-190
-127
-123
-122
-98
-100
-76
-23
10
55
142
240
331
445
593
714
741
685
595
484
336
175
48
-52
-153
-225
-248
-250
-256
-268
-274
-261
-249
-267
-280
-263
-255
-277
-290
-289
-301
-324
-343
-350
-339
-331
-334
-326
-319
-330
-337
-336
-340
-327
-291
-260
-240
-221
-211
-235
-260
-217
-174
-225
-230
-168
-160
221
1122
1208
-179
-1279
-882
-185
-120
-166
-57
-40
-67
-31
-1
16
58
116
174
234
324
456
579
664
742
795
763
661
549
434
309
193
108
50
7
-9
-3
-11
-33
-37
-29
-34
-36
-26
-25
-44
-65
-76
-83
-92
-90
-78
-89
-117
-118
-107
-129
-143
-116
-107
-124
-92
-42
-56
-95
-101
-89
-66
-72
-119
-100
-64
-18
464
1167
823
-554
-1179
-582
-74
-108
-116
-29
-34
-32
4
5
19
69
111
154
224
312
411
517
605
645
637
593
514
409
295
180
73
0
-40
-69
-86
-97
-115
-133
-136
-134
-140
-146
-153
-177
-205
-198
-173
-182
-209
-205
-200
-217
-229
-229
-227
-216
-216
-237
-235
-210
-200
-182
-156
-165
-191
-200
-187
-145
-142
-194
-175
-144
-62
536
1268
746
-787
-1368
-676
-143
-169
-172
-96
-103
-84
-26
-7
8
45
76
122
202
284
380
512
616
640
637
632
580
476
360
242
134
56
9
-17
-29
-39
-56
-70
-85
-103
-117
-126
-139
-139
-119
-112
-133
-155
-159
-158
-162
-172
-176
-158
-138
-147
-165
-155
-140
-143
-128
-92
-85
-94
-87
-97
-113
-83
-66
-91
-75
-73
25
660
1380
860
-620
-1198
-573
-83
-97
-77
-8
-43
-35
36
50
42
78
127
171
222
288
385
512
626
688
700
674
601
491
372
256
146
56
-8
-52
-90
-122
-129
-128
-155
-184
-184
-188
-214
-226
-223
-243
-263
-248
-231
-250
-266
-250
-241
-255
-257
-240
-241
-249
-236
-220
-200
-161
-140
-155
-160
-153
-157
-143
-131
-148
-128
-128
-124
351
1156
1020
-264
-1063
-669
-164
-119
-118
-47
-54
-57
-21
-10
1
33
62
104
172
246
325
424
536
626
672
681
653
568
442
315
195
88
13
-31
-65
-89
-102
-115
-134
-159
-180
-188
-193
-204
-210
-211
-214
-217
-222
-231
-228
-218
-231
-249
-244
-227
-218
-216
-206
-175
-152
-168
-175
-156
-167
-183
-162
-164
-157
-125
-142
192
1129
1474
257
-1125
-1121
-439
-180
-162
-76
-51
-63
-14
25
31
56
98
144
207
290
393
511
628
733
807
831
804
725
588
421
264
141
53
-10
-59
-92
-102
-106
-110
-104
-104
-120
-130
-126
-128
-137
-146
-167
-187
-180
-164
-169
-183
-183
-176
-173
-164
-130
-100
-112
-134
-136
-143
-137
-115
-138
-146
-110
-155
105
1065
1562
378
-1152
-1228
-491
-201
-201
-122
-105
-132
-94
-63
-59
-31
13
56
105
175
283
425
571
677
716
697
632
516
373
236
98
-28
-114
-172
-215
-225
-215
-219
-227
-217
-206
-208
-206
-204
-215
-229
-238
-251
-272
-278
-265
-261
-267
-262
-256
-250
-213
-182
-203
-217
-199
-205
-199
-168
-190
-207
-209
-219
242
1214
1283
-137
-1253
-919
-287
-203
-212
-124
-132
-146
-96
-76
-70
-34
10
71
167
266
361
492
637
717
732
730
681
550
395
275
154
27
-36
-37
-74
-133
-116
-47
-23
-40
-49
-40
-24
-11
-12
-17
-21
-29
-36
-36
-54
-81
-76
-50
-33
-20
-10
-13
-29
-66
-81
-64
-83
-101
-104
-154
175
1120
1439
188
-1139
-1032
-348
-176
-218
-143
-116
-132
-109
-93
-78
-44
-5
44
103
175
294
453
594
691
745
739
659
533
392
241
98
-13
-92
-152
-198
-228
-242
-234
-215
-203
-197
-189
-180
-174
-176
-192
-212
-226
-239
-249
-249
-246
-242
-212
-169
-165
-197
-218
-228
-232
-208
-204
-226
-214
-260
-204
469
1244
745
-664
-1165
-599
-209
-229
-196
-133
-139
-115
-81
-78
-50
-2
33
78
152
249
362
491
613
685
688
643
563
446
312
188
83
0
-57
-97
-125
-133
-125
-115
-109
-103
-100
-104
-107
-107
-110
-121
-133
-141
-145
-149
-153
-147
-129
-111
-116
-148
-166
-160
-159
-153
-148
-174
-167
-170
-230
106
957
1133
-4
-1022
-834
-300
-190
-181
-97
-98
-110
-64
-32
1
55
77
77
119
214
343
486
611
696
750
760
696
581
457
323
191
101
29
-59
-117
-117
-104
-105
-111
-117
-112
-104
-107
-106
-89
-94
-135
-162
-145
-129
-154
-188
-190
-172
-148
-110
-99
-154
-192
-158
-123
-113
-121
-138
-113
-141
-136
509
1477
1146
-484
-1306
-738
-206
-207
-192
-123
-142
-127
-104
-122
-76
14
37
41
105
197
290
411
546
625
617
564
490
367
208
77
-6
-80
-153
-200
-222
-235
-231
-216
-203
-191
-179
-176
-175
-176
-178
-173
-172
-191
-207
-199
-195
-204
-199
-184
-179
-157
-112
-96
-119
-143
-151
-134
-116
-138
-142
-150
-221
111
1053
1358
176
-1028
-905
-294
-147
-170
-101
-86
-96
-69
-51
-19
39
83
117
169
247
351
468
585
690
746
729
660
553
414
275
166
76
-6
-68
-101
-115
-116
-112
-109
-101
-82
-69
-77
-85
-84
-89
-105
-114
-112
-110
-114
-125
-139
-155
-170
-171
-156
-135
-108
-80
-73
-86
-87
-87
-111
-109
-83
-106
-119
-117
-194
62
914
1254
225
-866
-752
-210
-117
-157
-84
-74
-95
-66
-47
-41
-11
23
66
128
192
268
378
500
593
636
632
593
514
397
272
169
81
5
-48
-87
-114
-111
-88
-80
-84
-80
-78
-87
-91
-96
-125
-153
-139
-113
-120
-142
-150
-154
-161
-163
-167
-175
-176
-173
-172
-171
-170
-173
-170
-158
-150
-151
-147
-139
-140
-144
-144
-142
-139
-137
-138
-139
-141
-142
-140
-137
-139
-142
-137
-133
-134
-133
-127
-116
-107
-107
-114
-106
-90
-86
-89
-77
-61
-51
-47
-47
-42
-32
-28
-25
-11
6
19
43
79
93
81
70
50
33
59
70
48
68
41
121
840
1648
1108
-371
-905
-360
5
-13
27
68
35
43
67
74
107
145
172
213
261
311
392
510
629
728
793
800
753
684
602
497
387
280
174
83
16
-29
-57
-79
-105
-120
-118
-109
-104
-106
-112
-124
-150
-175
-179
-180
-200
-217
-223
-230
-236
-234
-241
-256
-255
-247
-251
-265
-268
-253
-243
-246
-244
-234
-233
-242
-242
-232
-219
-211
-213
-214
-211
-207
-203
-198
-193
-183
-186
-213
-225
-199
-174
-165
-149
-118
-94
-92
-106
-134
-157
-126
-98
-135
-121
-94
-101
453
1563
1577
-39
-1232
-879
-265
-177
-152
-73
-95
-91
-42
-31
-12
27
51
93
167
238
315
424
559
698
808
855
830
740
600
455
335
218
102
17
-38
-85
-119
-131
-127
-121
-126
-129
-104
-78
-88
-106
-115
-138
-158
-152
-152
-163
-160
-161
-179
-191
-191
-189
-194
-213
-225
-202
-176
-182
-169
-115
-92
-114
-130
-147
-149
-123
-152
-188
-155
-186
46
1024
1685
653
-908
-1086
-402
-154
-196
-121
-90
-112
-83
-60
-45
-19
-12
22
114
201
275
394
550
699
813
860
832
754
630
460
289
152
38
-60
-130
-171
-198
-222
-231
-203
-167
-154
-159
-164
-163
-158
-159
-161
-161
-174
-195
-202
-202
-212
-220
-220
-222
-227
-219
-188
-147
-143
-171
-180
-189
-211
-187
-163
-193
-177
-186
-173
484
1509
1232
-410
-1280
-743
-224
-223
-190
-105
-128
-120
-73
-72
-64
-24
19
72
143
225
332
469
619
746
812
822
793
694
520
339
196
72
-29
-86
-121
-161
-182
-177
-175
-180
-174
-162
-157
-163
-171
-161
-145
-155
-182
-195
-204
-218
-222
-220
-230
-215
-152
-109
-136
-169
-174
-187
-181
-158
-180
-187
-185
-219
202
1206
1398
39
-1162
-921
-296
-201
-224
-141
-142
-156
-112
-100
-102
-66
-21
12
61
138
233
351
500
644
727
737
692
598
460
303
160
52
-24
-82
-121
-138
-146
-147
-141
-133
-127
-117
-115
-131
-140
-129
-131
-158
-180
-191
-203
-205
-188
-169
-150
-128
-131
-153
-153
-147
-154
-136
-128
-154
-153
-187
-117
555
1354
894
-523
-1064
-515
-138
-177
-149
-91
-121
-110
-60
-47
-36
-5
33
82
144
221
325
453
580
679
728
719
656
548
417
283
168
77
2
-56
-90
-107
-116
-113
-105
-108
-112
-107
-105
-112
-119
-123
-135
-155
-169
-175
-183
-189
-175
-145
-125
-121
-132
-153
-168
-177
-182
-164
-158
-182
-171
-203
-214
313
1160
986
-321
-1062
-649
-204
-200
-194
-126
-140
-140
-101
-94
-86
-51
-23
6
61
139
231
336
451
549
607
615
578
499
389
268
155
60
-11
-60
-96
-118
-123
-122
-122
-115
-109
-120
-127
-121
-122
-137
-152
-167
-181
-186
-187
-197
-210
-210
-196
-169
-140
-120
-117
-135
-154
-159
-164
-155
-136
-151
-146
-137
-199
84
969
1320
225
-997
-940
-331
-162
-182
-102
-85
-113
-83
-48
-31
-4
22
55
116
193
269
368
508
652
734
750
734
685
579
431
282
162
69
-14
-82
-113
-114
-121
-134
-132
-122
-118
-115
-115
-133
-152
-153
-156
-171
-172
-175
-201
-216
-205
-213
-237
-223
-190
-182
-172
-142
-142
-169
-173
-173
-175
-159
-174
-179
-137
-177
47
1022
1683
618
-1030
-1279
-562
-219
-213
-138
-103
-119
-83
-50
-37
-6
32
69
119
181
270
394
536
669
766
800
772
700
587
434
273
143
48
-34
-103
-150
-171
-169
-158
-154
-150
-139
-131
-133
-137
-140
-148
-158
-165
-175
-188
-197
-203
-211
-219
-229
-236
-233
-222
-208
-188
-163
-152
-169
-183
-178
-189
-190
-166
-191
-209
-181
-237
5
977
1545
461
-998
-1068
-395
-186
-224
-142
-117
-139
-96
-64
-61
-32
4
36
87
158
242
351
483
612
701
730
708
645
543
414
284
173
92
37
-9
-46
-62
-58
-49
-39
-29
-21
-15
-10
-7
-7
-15
-29
-39
-45
-54
-64
-73
-74
-74
-76
-77
-78
-83
-86
-82
-80
-82
-78
-70
-68
-71
-69
-63
-59
-57
-55
-50
-47
-46
-47
-44
-42
-41
-37
-33
-36
-36
-28
-28
-34
-33
-27
-29
-34
-33
-28
-26
-25
-22
-19
-24
-29
-26
-24
-29
-29
-23
-25
-31
-32
-29
-27
-28
-33
-38
-40
-39
-40
-44
-48
-51
-54
-58
-63
-64
-69
-79
-79
-71
-77
-95
-96
-73
-54
-53
-45
-28
-37
-60
-70
-90
-106
-87
-98
-128
-112
-142
20
801
1418
672
-622
-844
-318
-140
-204
-136
-98
-128
-102
-72
-74
-54
-17
16
61
115
170
242
341
451
551
630
673
670
634
578
501
400
296
208
132
67
15
-34
-80
-102
-90
-75
-85
-95
-85
-77
-88
-102
-107
-109
-111
-119
-132
-140
-144
-148
-151
-155
-158
-160
-161
-161
-160
-159
-155
-148
-149
-157
-153
-134
-126
-140
-143
-128
-127
-134
-118
-105
-118
-118
-96
-95
-109
-99
-88
-104
-111
-92
-88
-100
-86
-60
-45
-27
-11
-18
-41
-62
-52
-38
-76
-75
-43
-80
333
1458
1820
375
-1142
-1071
-358
-150
-144
-53
-44
-66
-32
-14
-10
23
58
85
126
184
257
355
482
625
766
871
900
854
761
636
480
308
151
31
-52
-116
-168
-205
-222
-221
-215
-212
-209
-203
-191
-176
-170
-178
-188
-192
-194
-203
-215
-222
-226
-235
-243
-246
-249
-252
-245
-235
-237
-253
-263
-251
-231
-223
-211
-173
-142
-156
-174
-165
-174
-187
-161
-165
-184
-155
-197
-5
936
1662
714
-899
-1181
-493
-189
-215
-138
-102
-129
-93
-64
-63
-33
2
24
69
133
197
284
417
576
723
828
874
852
761
616
441
276
139
23
-70
-123
-149
-176
-200
-204
-193
-180
-164
-143
-135
-138
-136
-126
-123
-130
-141
-151
-158
-159
-162
-170
-176
-178
-178
-175
-173
-176
-181
-181
-184
-196
-199
-179
-152
-136
-109
-79
-88
-112
-111
-118
-128
-98
-94
-119
-108
-142
41
888
1542
715
-693
-919
-315
-89
-152
-91
-50
-74
-45
-16
-19
-1
35
67
105
156
223
310
420
548
685
796
845
825
752
635
485
335
212
121
52
-4
-48
-72
-81
-86
-87
-75
-62
-58
-48
-33
-30
-37
-40
-43
-48
-52
-63
-77
-78
-74
-81
-92
-95
-96
-99
-100
-102
-103
-105
-106
-101
-90
-86
-90
-93
-93
-91
-88
-89
-92
-90
-88
-90
-93
-90
-84
-80
-80
-81
-81
-82
-85
-83
-80
-86
-94
-89
-76
-66
-69
-76
-74
-66
-67
-72
-69
-63
-65
-66
-61
-59
-61
-61
-60
-62
-65
-66
-66
-68
-69
-64
-57
-59
-67
-71
-69
-69
-78
-82
-73
-70
-80
-85
-83
-84
-92
-93
-82
-75
-85
-100
-103
-104
-107
-106
-91
-65
-46
-45
-41
-38
-49
-53
-48
-76
-90
-68
-95
-112
-71
-107
201
1279
1849
620
-963
-1054
-377
-167
-189
-97
-75
-94
-48
-26
-36
-7
45
85
122
171
237
316
412
534
670
798
886
914
877
796
691
563
419
291
192
109
41
-10
-55
-88
-100
-107
-106
-91
-79
-78
-71
-63
-69
-71
-67
-78
-100
-107
-108
-120
-138
-148
-152
-157
-168
-175
-171
-172
-181
-177
-164
-165
-171
-162
-151
-153
-154
-145
-138
-139
-138
-130
-121
-119
-117
-112
-110
-105
-96
-94
-95
-84
-73
-73
-74
-64
-53
-49
-46
-43
-40
-32
-23
-20
-20
-16
-9
-2
4
6
5
9
17
23
25
28
