# session 5
-15
12
-77
-24
303
573
571
482
451
458
454
397
371
362
274
640
1729
2068
664
-738
-597
68
193
138
178
162
144
171
170
156
156
159
186
243
292
316
346
408
490
556
598
613
592
536
466
375
252
122
16
-60
-105
-129
-147
-161
-162
-165
-179
-189
-191
-197
-211
-231
-246
-247
-242
-230
-206
-193
-210
-225
-228
-240
-230
-217
-251
-243
-225
-314
20
1065
1426
157
-1088
-893
-286
-224
-257
-159
-174
-218
-177
-148
-145
-112
-53
-9
-4
5
58
141
228
300
333
338
337
316
264
189
91
-26
-135
-208
-252
-277
-284
-276
-273
-270
-251
-234
-246
-262
-242
-209
-212
-238
-240
-215
-174
-129
-120
-142
-132
-114
-130
-124
-104
-108
-86
-129
-120
541
1496
1236
-150
-818
-394
-64
-101
-57
16
-3
8
42
44
59
96
129
156
180
217
274
337
406
476
510
505
492
462
392
300
196
78
-22
-79
-110
-132
-134
-122
-122
-120
-96
-83
-101
-111
-107
-117
-129
-135
-153
-158
-128
-120
-152
-172
-184
-211
-207
-195
-219
-223
-250
-259
201
1000
950
-158
-869
-565
-175
-159
-170
-133
-136
-110
-74
-91
-94
-50
-1
34
68
104
152
212
275
334
384
406
396
369
326
255
153
44
-47
-116
-162
-182
-183
-182
-181
-177
-173
-169
-167
-171
-182
-189
-191
-194
-187
-158
-117
-84
-76
-84
-83
-90
-105
-81
-64
-94
-85
-106
-111
454
1360
1166
-207
-946
-492
-52
-71
-76
-15
-24
-21
2
5
24
47
59
95
146
192
261
343
404
465
536
573
567
542
483
377
244
102
-21
-93
-142
-200
-229
-217
-208
-208
-200
-204
-218
-206
-197
-227
-255
-252
-250
-241
-196
-166
-187
-201
-188
-205
-211
-170
-185
-215
-179
-227
-7
1047
1813
734
-988
-1218
-456
-160
-210
-126
-78
-98
-55
-22
-31
-12
35
84
128
165
222
303
385
467
548
592
586
553
494
389
249
108
-18
-126
-205
-252
-277
-278
-261
-246
-227
-201
-194
-202
-196
-188
-196
-206
-220
-239
-222
-169
-149
-166
-169
-178
-190
-159
-148
-177
-156
-188
-105
702
1643
1096
-523
-1101
-471
-79
-157
-134
-54
-68
-62
-38
-40
-18
22
39
60
111
169
222
285
361
432
480
492
462
405
334
244
129
11
-85
-151
-187
-198
-196
-191
-181
-170
-169
-169
-165
-167
-173
-177
-187
-201
-198
-170
-137
-125
-136
-145
-161
-182
-164
-146
-176
-173
-193
-214
345
1363
1314
-107
-1004
-585
-107
-139
-155
-76
-90
-91
-52
-48
-41
-9
15
42
85
132
185
247
316
388
438
453
447
417
352
261
153
44
-41
-97
-143
-166
-153
-135
-140
-148
-136
-118
-121
-141
-153
-149
-145
-152
-154
-141
-114
-80
-69
-86
-96
-97
-95
-83
-89
-96
-74
-115
-15
621
1180
590
-546
-772
-257
-18
-59
-18
15
-9
6
25
24
46
70
84
108
144
185
237
296
358
417
457
473
470
446
400
323
218
110
18
-51
-94
-111
-118
-122
-120
-119
-127
-129
-123
-126
-139
-150
-171
-195
-196
-186
-186
-174
-151
-154
-176
-197
-219
-216
-204
-235
-243
-250
-275
170
1143
1278
-48
-1166
-918
-332
-247
-271
-198
-200
-214
-178
-167
-161
-125
-91
-55
-11
30
86
171
256
328
395
435
419
377
348
295
175
42
-59
-152
-225
-232
-216
-226
-228
-203
-194
-207
-202
-180
-174
-186
-187
-168
-166
-194
-197
-146
-98
-97
-103
-100
-112
-111
-94
-110
-93
-66
-122
259
1350
1718
331
-1097
-929
-172
-6
-61
19
45
35
71
81
79
116
156
184
225
279
337
404
483
556
605
629
621
582
523
439
323
192
74
-19
-77
-105
-116
-121
-122
-120
-116
-112
-112
-120
-132
-141
-151
-163
-178
-192
-188
-150
-119
-129
-149
-160
-175
-162
-144
-173
-175
-199
-234
275
1272
1295
-64
-1008
-648
-147
-146
-166
-91
-100
-101
-63
-63
-57
-17
11
37
81
126
173
240
314
373
413
424
407
370
311
226
125
21
-76
-147
-182
-195
-204
-210
-211
-208
-206
-204
-208
-219
-230
-238
-249
-258
-255
-237
-200
-158
-156
-185
-181
-166
-190
-190
-161
-188
-227
-272
-263
226
1025
916
-255
-945
-584
-209
-243
-253
-193
-215
-228
-196
-174
-166
-168
-150
-91
-47
-24
21
53
71
151
243
249
237
267
249
160
72
-17
-107
-168
-235
-277
-192
-63
-59
-145
-202
-169
-48
32
-20
-55
25
91
134
240
297
251
215
202
181
171
123
87
160
204
170
170
111
201
862
1378
709
-377
-544
-116
44
53
260
625
985
1048
717
405
243
-160
-583
-395
131
396
533
655
482
226
322
501
351
149
232
332
155
-80
-135
-170
-336
-489
-499
-442
-460
-590
-721
-863
-1071
-1041
-678
-433
-202
400
580
-301
-1138
-984
-436
-138
-41
-42
-68
2
99
76
-14
-11
87
143
161
256
380
431
499
640
743
764
710
591
512
410
86
-243
-231
-40
71
155
177
-7
-219
-149
130
203
-259
-920
-945
-444
-485
-1000
-963
-546
-507
-590
-455
-412
-495
-426
-309
-349
-425
-391
-338
-361
-355
-271
-266
-350
-325
-224
-208
-178
-136
-259
-162
653
1436
1002
-243
-876
-551
-115
-114
-158
108
268
111
146
428
456
285
274
332
307
311
424
528
492
416
493
627
630
623
757
862
784
694
778
857
674
502
661
611
-4
-324
31
174
-139
-301
-289
-361
-375
-267
-207
-199
-99
-30
-194
-39
927
1522
562
-751
-934
-587
-551
-539
-431
-470
-502
-401
-314
-246
-240
-373
-371
-130
-29
-95
-12
141
251
432
576
629
748
761
513
292
230
127
-88
-289
-320
-189
-115
-162
-210
-247
-232
-142
-158
-231
-139
-77
-168
-123
10
-28
-76
-46
-139
-234
-203
-272
-120
806
1544
688
-926
-1465
-927
-389
-236
-364
-508
-357
-109
-130
-231
-133
-5
-13
-49
-49
-24
42
89
48
4
63
203
303
277
192
117
-13
-143
-157
-218
-367
-300
-92
-88
-183
-240
-258
-66
25
-413
-664
-120
410
327
112
86
93
81
88
95
55
-36
-78
-24
58
136
179
111
-7
-31
1
5
46
10
-172
208
1368
1689
294
-1040
-1033
-619
-465
-345
-383
-495
-247
90
77
-26
19
66
126
238
247
215
325
442
426
430
512
505
381
307
332
297
130
30
98
124
17
-57
-64
-75
-55
-42
-132
-182
38
365
379
112
53
308
499
436
259
151
126
57
-20
5
22
-19
-53
-73
304
1268
1677
605
-785
-1079
-649
-364
-288
-250
-210
-150
-160
-231
-178
-112
-269
-424
-339
-253
-250
-100
113
181
216
311
388
435
410
255
88
21
-13
-95
-230
-365
-443
-503
-579
-577
-488
-461
-505
-494
-400
-305
-360
-531
-474
-215
-239
-435
-310
-68
-66
-151
-248
-343
-215
-28
68
655
1550
1314
-41
-734
-381
-113
-130
-19
20
-81
-6
136
108
48
73
152
279
353
345
380
422
376
367
481
571
451
180
44
116
145
-6
-199
-291
-265
-205
-219
-293
-336
-301
-254
-291
-277
-176
-304
-425
-94
-213
-1282
-1585
-481
200
-41
-45
184
216
257
125
0
776
1782
1379
163
-157
129
-2
-160
111
328
374
560
624
387
280
356
285
219
293
272
341
572
471
494
1065
499
-1512
-1928
-146
806
293
47
99
-103
-156
-98
-257
-370
-299
-261
-268
-253
-279
-297
-176
-17
-26
-112
-87
-51
-115
-172
-163
-136
-118
-151
-183
-214
-289
146
1193
1082
-891
-2122
-1160
-113
-216
-392
-242
-163
-130
-144
-168
0
149
56
37
261
345
108
7
292
540
616
852
1062
918
725
646
438
254
253
102
-133
-126
-184
-256
76
-77
-1207
-1568
-494
226
1
-146
-101
-201
-196
-29
-3
-205
-433
-451
-340
-340
-336
-269
-358
-99
1044
1739
638
-857
-1008
-511
-413
-419
-282
-219
-211
-202
-219
-215
-241
-317
-262
-90
-21
8
191
390
473
652
908
904
789
903
858
245
-435
-503
-27
378
346
145
149
298
402
448
448
387
306
236
167
133
103
-44
-170
77
803
1653
1594
-223
-2335
-2257
-571
176
-152
-182
11
-105
-218
-151
-154
-215
-202
-168
-137
-121
-202
-245
-49
234
374
362
231
76
34
34
-40
-117
-142
-175
-230
-261
-250
-252
-360
-549
-624
-472
-264
-202
-237
-254
-243
-215
-212
-218
-141
-123
-213
-50
204
-29
-274
86
293
-126
-293
97
326
203
86
266
1045
1940
1619
177
-630
-342
-83
-113
24
121
-32
-117
-29
32
15
-17
-11
62
130
123
131
238
345
391
394
275
37
-143
-181
-108
38
111
-11
-192
-250
-247
-287
-249
-76
-27
-208
-318
-222
-158
-200
-202
-226
-365
-421
-264
-122
-168
-249
-200
-114
-89
-57
-96
-153
432
1572
1728
475
-597
-685
-447
-234
-63
-1
178
461
499
374
354
363
314
306
369
389
371
498
609
435
491
749
-363
-2582
-2865
-766
644
364
23
28
-160
-288
-195
-190
-210
-84
-25
-131
-171
-103
-102
-140
-105
-80
-105
-79
-48
-122
-196
-172
-153
-159
-165
-228
0
836
1325
453
-776
-948
-489
-291
-259
-190
-185
-178
-120
-104
-95
-11
73
85
101
225
412
532
553
582
694
792
785
809
951
947
620
307
324
450
373
176
51
12
-10
-58
-64
-51
-212
-273
14
-268
-1364
-1585
-542
28
-224
-260
-106
-174
-240
-241
-392
-412
383
1593
1501
-174
-1368
-1028
-386
-272
-227
-75
-111
-256
-211
-27
19
-127
-198
-47
61
56
204
257
87
373
534
-799
-2029
-919
730
643
-8
-20
-18
-143
-61
-30
-111
-30
105
102
129
293
408
370
269
180
163
204
195
186
272
328
246
102
0
-8
-39
-164
70
897
1400
693
-582
-980
-231
73
-1054
-1822
-812
288
192
28
282
239
11
64
213
264
330
450
478
339
256
354
315
102
183
435
219
-260
-319
-114
-148
-316
-364
-367
-404
-401
-322
-263
-307
-279
-109
-154
-313
-95
-148
-1065
-1491
-610
137
-20
-195
-75
-106
-128
542
1646
1650
188
-873
-521
57
71
-18
21
24
-14
-1
103
237
312
402
594
784
788
610
549
788
1042
1020
867
848
876
659
400
338
-305
-1783
-2355
-1169
-8
-19
-298
-281
-265
-277
-253
-257
-259
-264
-267
-202
-156
-272
-563
-822
-642
-41
344
225
-101
-447
-674
-602
-408
-356
-369
-310
-192
-88
-65
-83
-70
-57
1
212
438
465
358
268
209
257
527
854
893
615
341
268
270
185
24
-95
-90
-12
24
7
-14
-41
-51
-18
1
-10
5
24
22
43
36
-38
11
177
143
-5
2
-33
-95
-47
-464
-1117
-631
530
659
148
16
-205
-563
-408
-93
-117
-148
-32
2
-31
-14
48
127
159
158
228
283
210
191
352
455
363
276
281
258
191
136
108
81
-35
-179
-80
137
37
-276
-372
-269
-203
-211
-221
-169
-90
-69
-50
19
19
-74
-96
4
78
62
79
108
10
193
1043
1556
678
-496
-545
-90
-65
-101
86
139
-10
-125
-95
-16
-95
-141
117
27
-881
-1661
-1753
-1660
-1159
-13
751
679
523
505
343
166
117
102
62
-48
-188
-213
-141
-108
-127
-153
-181
-183
-146
-121
-121
-98
-66
-93
-142
-141
-163
-244
-266
-290
-411
-296
180
427
264
171
63
-317
-466
-192
-42
-72
32
125
77
62
114
193
288
266
160
226
438
548
573
667
785
816
771
714
658
583
471
325
207
172
150
69
-5
-27
-59
-68
18
87
26
-67
-74
-22
14
7
-12
-40
-118
-203
-233
-256
-271
-280
-365
-200
618
1282
634
-639
-1018
-579
-263
-210
-182
-186
-199
-171
-164
-186
-156
-69
-7
-9
-10
33
66
80
132
194
184
128
98
87
24
-99
-206
-265
-334
-413
-432
-404
-392
-379
-347
-329
-322
-317
-344
-345
-233
-92
-56
-73
-35
39
90
85
27
29
89
17
150
1034
1776
999
-462
-839
-360
-119
-101
-17
25
46
75
0
-99
-93
-45
4
83
151
192
273
389
465
516
570
587
557
495
392
282
174
10
-158
-220
-202
-200
-254
-313
-299
-265
-260
-216
-161
-194
-232
-182
-138
-167
-225
-246
-196
-184
-309
-385
-377
-458
-130
913
1261
-35
-1328
-1197
-593
-445
-396
-278
-286
-268
-150
-162
-259
-167
66
239
331
322
227
249
455
634
684
727
794
755
598
468
400
309
181
52
-32
-3
71
44
-23
-18
-24
-96
-143
-131
-96
-44
-13
-61
-160
-255
-300
-272
-256
-304
-325
-357
-303
363
1305
1100
-200
-866
-535
-260
-260
-229
-257
-298
-228
-204
-251
-233
-182
-148
-99
-60
-41
16
109
194
258
286
278
261
212
90
-65
-185
-262
-325
-367
-367
-334
-285
-218
-139
-78
-27
47
116
171
262
344
328
300
340
347
312
319
311
293
298
186
349
1374
2158
1172
-477
-830
-256
69
77
76
212
209
-349
-776
-307
200
34
-45
291
407
215
171
326
454
523
587
606
558
488
395
250
72
-100
-234
-314
-363
-387
-361
-343
-421
-565
-643
-540
-302
-210
-382
-448
-196
-34
-203
-333
-238
-200
-259
-248
-313
-302
414
1282
768
-785
-1452
-986
-615
-605
-532
-458
-492
-481
-414
-365
-283
-158
-81
-51
23
131
217
303
395
447
469
478
456
445
472
413
199
16
0
-3
-83
-123
-143
-197
-167
-117
-117
-3
-216
-1329
-2264
-1637
-311
204
91
0
-94
-170
-113
-84
-180
-119
557
1458
1254
-89
-843
-420
46
42
-33
-40
-11
64
83
48
70
115
128
156
216
271
331
423
524
616
705
759
742
706
687
639
549
463
378
289
247
252
251
