# session 36
-16
-34
15
48
-79
-290
-373
-349
-354
-372
-356
-339
-333
-320
-304
-289
-276
-267
-257
-242
-228
-222
-217
-207
-197
-191
-186
-176
-167
-161
-155
-149
-146
-139
-130
-128
-125
-114
-102
-97
-93
-88
-83
-80
-79
-79
-82
-87
-86
-69
-42
-18
1
17
19
0
-19
-13
-7
-15
-3
12
-11
-5
15
55
483
1206
1147
70
-642
-350
31
19
-6
44
30
18
39
40
42
54
54
55
66
76
84
97
111
123
139
161
187
216
249
289
332
371
401
421
428
415
378
317
229
131
45
-21
-73
-108
-129
-143
-151
-153
-151
-145
-137
-131
-129
-127
-125
-124
-119
-113
-114
-119
-120
-117
-118
-120
-121
-120
-118
-118
-120
-122
-123
-123
-118
-114
-114
-112
-110
-113
-112
-109
-115
-125
-121
-108
-95
-77
-56
-45
-47
-63
-83
-81
-69
-81
-84
-62
-80
-93
-59
-57
212
1037
1464
502
-769
-858
-269
-52
-90
-49
-36
-56
-32
-21
-28
-11
7
10
15
24
34
52
68
80
99
125
150
179
217
261
309
357
397
422
434
430
405
351
269
165
60
-25
-92
-148
-186
-199
-199
-201
-199
-191
-185
-183
-177
-164
-158
-162
-164
-153
-140
-142
-151
-147
-136
-134
-141
-144
-138
-131
-130
-130
-123
-119
-122
-125
-126
-127
-123
-111
-91
-65
-38
-28
-38
-61
-79
-71
-62
-75
-68
-51
-73
-71
-59
-52
399
1316
1410
130
-926
-680
-120
-40
-70
-12
-19
-30
1
4
1
21
32
35
45
56
66
80
97
114
132
155
187
225
264
305
350
395
427
443
445
431
386
313
220
118
20
-56
-106
-142
-166
-175
-176
-176
-174
-169
-163
-158
-153
-149
-146
-144
-141
-136
-132
-133
-135
-137
-137
-135
-135
-137
-139
-135
-132
-133
-132
-129
-124
-121
-125
-131
-137
-143
-141
-124
-99
-75
-52
-37
-44
-66
-84
-79
-73
-85
-79
-65
-84
-80
-67
-34
413
1207
1192
42
-767
-474
-48
-53
-84
-25
-39
-51
-21
-14
-17
-4
2
7
21
32
39
50
65
83
103
125
151
185
224
265
307
346
373
386
389
377
338
268
180
92
15
-48
-95
-127
-146
-153
-151
-148
-145
-140
-134
-126
-118
-115
-112
-109
-106
-105
-105
-105
-104
-102
-102
-101
-99
-99
-99
-98
-96
-96
-96
-93
-91
-91
-88
-85
-89
-94
-100
-110
-111
-91
-65
-44
-26
-18
-29
-50
-61
-55
-56
-67
-56
-46
-69
-60
-44
10
483
1192
1024
-100
-726
-368
-15
-50
-68
-23
-42
-42
-14
-17
-18
-3
2
8
20
25
31
47
61
73
92
119
147
179
218
261
299
330
356
373
376
361
321
253
166
78
4
-55
-99
-129
-146
-156
-158
-156
-153
-151
-145
-140
-137
-131
-125
-122
-122
-120
-118
-117
-114
-111
-108
-107
-107
-105
-102
-99
-99
-99
-98
-97
-97
-93
-87
-86
-89
-88
-83
-81
-80
-80
-82
-89
-98
-102
-94
-75
-55
-35
-19
-12
-20
-41
-51
-44
-51
-59
-38
-42
-64
-45
-48
119
801
1333
678
-488
-718
-225
-12
-66
-35
-11
-38
-21
-2
-10
-1
13
11
17
34
45
53
62
74
93
118
143
168
199
239
286
331
364
383
395
399
386
346
276
183
87
7
-58
-108
-140
-157
-166
-166
-158
-157
-163
-159
-146
-140
-139
-130
-121
-123
-129
-127
-123
-125
-127
-128
-126
-121
-119
-122
-124
-122
-122
-120
-114
-113
-119
-122
-117
-118
-125
-121
-102
-77
-57
-45
-43
-59
-81
-84
-75
-82
-83
-63
-81
-95
-61
-69
179
1020
1514
568
-773
-905
-288
-47
-82
-35
-21
-51
-27
-6
-7
7
20
21
31
45
56
65
76
95
122
149
176
209
249
292
336
377
411
435
445
438
412
357
266
155
52
-32
-96
-137
-165
-183
-187
-185
-186
-182
-170
-165
-165
-159
-151
-146
-144
-142
-142
-138
-134
-136
-144
-143
-136
-135
-138
-135
-131
-131
-131
-126
-122
-124
-126
-129
-134
-134
-118
-95
-74
-54
-42
-50
-73
-88
-81
-77
-89
-78
-60
-83
-83
-70
-46
411
1261
1275
52
-850
-554
-69
-48
-82
-26
-39
-48
-14
-9
-10
6
13
13
23
34
47
61
74
88
108
132
161
196
234
276
319
357
382
395
397
384
341
264
169
81
7
-54
-103
-135
-152
-159
-161
-160
-155
-146
-136
-129
-124
-119
-113
-111
-110
-106
-104
-106
-105
-102
-102
-104
-104
-104
-104
-103
-102
-104
-103
-99
-96
-95
-92
-92
-96
-101
-107
-116
-115
-95
-67
-45
-26
-15
-22
-45
-62
-55
-52
-64
-51
-33
-58
-57
-37
9
456
1199
1118
-5
-719
-394
-7
-33
-60
-8
-24
-31
-2
-2
-3
13
19
22
33
42
50
62
75
91
112
134
159
192
230
269
308
343
367
380
383
371
332
262
172
82
7
-52
-98
-132
-152
-160
-162
-160
-156
-153
-150
-146
-142
-140
-139
-137
-136
-135
-135
-134
-132
-132
-134
-135
-134
-133
-134
-135
-134
-132
-129
-128
-127
-126
-127
-126
-122
-119
-118
-119
-119
-121
-124
-132
-142
-140
-117
-91
-71
-55
-40
-45
-71
-85
-75
-74
-83
-64
-59
-82
-63
-52
40
598
1249
881
-270
-721
-288
5
-46
-41
0
-21
-14
11
8
12
30
36
40
53
66
78
90
103
120
142
165
191
225
265
305
342
377
403
416
416
401
362
293
206
120
45
-17
-62
-89
-105
-116
-120
-117
-111
-109
-103
-95
-95
-95
-89
-85
-90
-94
-90
-90
-97
-99
-96
-97
-100
-99
-101
-109
-109
-103
-101
-104
-104
-100
-96
-94
-93
-93
-95
-96
-94
-94
-102
-110
-105
-88
-71
-59
-41
-22
-30
-62
-74
-60
-73
-93
-68
-59
-86
-67
-66
29
665
1397
948
-402
-949
-452
-70
-87
-73
-29
-57
-55
-30
-33
-27
-7
0
3
8
8
20
44
57
69
97
128
154
185
225
267
309
349
378
393
398
387
347
273
180
88
1
-74
-129
-166
-187
-192
-189
-187
-188
-185
-175
-163
-155
-148
-145
-147
-144
-136
-134
-132
-124
-121
-127
-127
-118
-115
-118
-116
-113
-114
-111
-102
-96
-99
-102
-105
-109
-106
-89
-67
-49
-34
-24
-27
-46
-62
-53
-44
-62
-61
-35
-50
-59
-40
-57
251
1116
1461
402
-801
-767
-181
-21
-63
-13
-6
-22
8
17
4
13
26
33
42
50
56
68
83
102
120
137
162
197
234
273
316
355
385
403
409
398
365
302
212
113
23
-49
-102
-139
-165
-182
-186
-182
-175
-168
-162
-156
-148
-141
-138
-135
-130
-126
-123
-121
-118
-116
-118
-118
-115
-114
-115
-112
-106
-105
-107
-104
-98
-94
-93
-93
-90
-90
-98
-104
-108
-114
-112
-88
-60
-41
-25
-13
-20
-44
-61
-54
-55
-69
-53
-43
-67
-55
-46
31
598
1343
1048
-185
-760
-339
-9
-67
-70
-19
-41
-40
-17
-24
-24
-12
-10
-4
9
18
26
37
50
69
92
118
147
182
220
260
301
337
361
373
374
360
319
249
160
71
-3
-65
-111
-140
-154
-159
-156
-153
-152
-146
-137
-130
-125
-119
-112
-106
-104
-105
-104
-104
-105
-104
-103
-105
-107
-105
-102
-101
-101
-105
-111
-111
-109
-109
-112
-115
-120
-128
-136
-128
-102
-76
-61
-49
-41
-53
-82
-94
-83
-84
-88
-68
-73
-92
-68
-70
101
791
1326
666
-493
-702
-208
-16
-85
-54
-28
-55
-43
-26
-28
-19
-9
-4
7
18
26
39
51
63
85
109
135
167
202
238
279
325
359
377
387
389
366
312
233
142
59
-8
-66
-109
-132
-145
-153
-152
-147
-144
-140
-134
-129
-125
-121
-114
-109
-109
-108
-104
-101
-100
-100
-100
-98
-98
-100
-98
-90
-87
-91
-89
-79
-71
-69
-73
-76
-78
-87
-92
-75
-45
-20
-4
10
9
-17
-44
-38
-26
-44
-44
-22
-40
-47
-37
-36
333
1123
1243
182
-714
-520
-80
-47
-78
-22
-36
-55
-27
-30
-43
-26
-15
-16
-7
5
15
28
38
49
69
95
122
153
197
242
279
317
354
373
375
369
345
282
191
95
6
-68
-124
-164
-194
-210
-210
-203
-201
-205
-200
-188
-181
-180
-178
-175
-170
-161
-153
-152
-155
-157
-155
-149
-145
-147
-150
-147
-141
-138
-140
-145
-142
-125
-108
-94
-74
-61
-67
-83
-97
-97
-94
-111
-114
-87
-96
-104
-71
-84
171
1045
1563
595
-795
-958
-337
-75
-95
-43
-21
-42
-17
0
-6
10
27
32
50
74
82
85
101
125
152
184
213
244
290
342
386
432
478
504
508
504
475
401
295
187
86
-4
-73
-117
-143
-163
-173
-170
-162
-157
-152
-149
-149
-144
-129
-121
-126
-128
-123
-121
-123
-126
-129
-130
-131
-133
-130
-129
-136
-138
-135
-142
-145
-127
-102
-84
-70
-68
-79
-98
-117
-110
-95
-109
-112
-90
-105
-105
-94
-112
299
1264
1483
223
-951
-783
-202
-98
-128
-64
-64
-76
-46
-42
-47
-29
-24
-25
-12
4
13
25
39
55
80
110
140
171
210
257
304
344
372
386
389
374
331
255
156
57
-27
-94
-146
-181
-197
-204
-207
-202
-195
-193
-188
-174
-161
-155
-151
-145
-140
-137
-133
-129
-127
-125
-121
-117
-118
-117
-113
-111
-110
-104
-99
-97
-93
-94
-100
-104
-107
-108
-96
-75
-52
-27
-8
-8
-26
-45
-44
-32
-36
-34
-10
-21
-36
-16
-16
255
1051
1453
558
-575
-600
-85
32
-35
14
27
4
30
44
35
46
56
58
69
82
87
92
104
123
142
160
188
223
251
281
327
374
403
417
420
406
370
307
223
137
58
-16
-73
-102
-121
-142
-151
-151
-153
-157
-160
-161
-159
-157
-160
-157
-151
-156
-166
-165
-164
-173
-174
-163
-164
-179
-182
-179
-187
-192
-183
-174
-178
-180
-173
-172
-179
-175
-158
-151
-159
-164
-161
-164
-179
-181
-150
-105
-77
-61
-49
-53
-78
-96
-87
-77
-87
-84
-67
-74
-65
-47
-50
284
1058
1244
251
-669
-517
-70
-22
-50
15
10
-16
-1
-4
-11
11
33
45
54
62
78
93
96
104
119
130
158
221
273
291
314
351
376
397
424
420
384
341
272
168
77
18
-32
-69
-71
-69
-101
-125
-101
-87
-107
-100
-68
-63
-65
-57
-69
-78
-65
-65
-71
-59
-52
-58
-60
-72
-88
-78
-61
-70
-80
-69
-66
-81
-79
-64
-67
-85
-92
-85
-72
-72
-87
-89
-77
-80
-92
-86
-69
-68
-81
-88
-88
-74
-60
-74
-87
-80
-101
-138
-120
-68
-38
-25
-18
-26
-34
-48
-66
-70
-70
-60
-36
-54
-75
-43
-56
133
934
1543
750
-621
-884
-300
-25
-68
-57
-47
-44
-12
-16
-21
4
4
1
26
30
32
67
81
64
81
124
146
169
218
261
293
341
389
396
385
403
422
382
295
197
95
13
-30
-73
-134
-171
-185
-201
-197
-168
-155
-158
-160
-174
-182
-151
-122
-126
-135
-134
-139
-144
-132
-116
-123
-146
-150
-134
-133
-148
-149
-126
-113
-129
-138
-127
-127
-138
-134
-123
-126
-138
-142
-127
-107
-96
-77
-48
-47
-77
-94
-84
-90
-111
-87
-61
-94
-92
-78
-41
512
1456
1365
-53
-979
-596
-101
-99
-95
-7
-28
-43
-3
0
-15
-13
5
38
60
57
58
68
77
95
130
172
206
235
280
330
364
401
451
475
467
454
422
340
226
126
51
-23
-98
-139
-140
-144
-163
-170
-168
-158
-132
-117
-124
-125
-114
-114
-121
-118
-104
-90
-88
-97
-105
-100
-93
-101
-105
-96
-100
-112
-104
-99
-107
-93
-79
-95
-103
-94
-105
-119
-105
-89
-90
-93
-99
-118
-129
-101
-55
-28
-18
-16
-38
-69
-81
-82
-72
-41
-45
-84
-66
-61
-9
549
1351
1123
-150
-815
-392
-24
-95
-94
-3
-35
-63
-19
-12
-32
-16
16
21
8
18
52
63
52
73
112
132
158
202
235
266
316
367
401
411
399
393
373
293
186
114
50
-36
-105
-128
-133
-148
-163
-158
-140
-133
-142
-147
-136
-122
-115
-109
-103
-110
-121
-112
-98
-107
-117
-107
-102
-114
-113
-107
-111
-110
-99
-96
-104
-111
-106
-94
-98
-109
-101
-88
-94
-97
-87
-92
-112
-118
-115
-116
-101
-66
-39
-30
-36
-57
-71
-66
-62
-71
-69
-57
-75
-89
-77
-79
187
937
1312
460
-632
-664
-157
-39
-102
-50
-54
-92
-48
-22
-48
-41
-10
-7
-18
-9
17
29
25
43
75
89
106
158
209
223
245
309
368
383
384
380
356
318
257
150
41
-19
-58
-115
-158
-157
-145
-152
-154
-144
-148
-152
-129
-109
-116
-119
-109
-104
-102
-94
-83
-75
-85
-95
-81
-69
-74
-70
-67
-77
-73
-60
-60
-59
-51
-56
-60
-50
-49
-50
-37
-32
-39
-39
-37
-34
-31
-51
-71
-53
-35
-29
8
39
28
31
32
-13
-31
7
14
-1
1
-11
-5
5
24
434
1204
1214
103
-705
-429
-2
11
-12
26
-10
-12
37
42
36
47
39
34
55
71
75
79
85
108
138
149
165
205
239
268
314
354
380
406
417
400
375
322
223
128
66
-2
-77
-123
-144
-157
-164
-179
-194
-181
-160
-157
-153
-143
-146
-162
-173
-172
-159
-149
-151
-158
-162
-163
-171
-182
-184
-180
-178
-176
-171
-174
-195
-206
-189
-182
-197
-194
-180
-189
-197
-190
-190
-194
-201
-220
-226
-201
-176
-162
-125
-88
-115
-170
-168
-139
-158
-179
-146
-140
-171
-141
-126
-60
518
1285
965
-346
-977
-526
-117
-121
-116
-75
-99
-74
-18
-25
-40
-10
17
6
-2
37
85
97
107
145
180
199
226
272
322
370
425
489
545
575
585
582
557
500
418
320
228
166
123
93
92
104
102
97
