# session 25
45
85
-43
56
576
999
990
875
886
888
841
819
804
780
767
752
737
739
741
738
747
774
805
835
861
875
874
862
831
764
663
546
427
320
232
157
96
52
20
-3
-14
-24
-38
-48
-52
-57
-63
-72
-84
-94
-98
-104
-116
-127
-138
-151
-160
-165
-176
-190
-201
-205
-206
-215
-230
-234
-233
-244
-257
-253
-242
-231
-210
-188
-186
-209
-235
-236
-227
-238
-236
-218
-234
-234
-218
-210
194
1084
1268
64
-1080
-945
-364
-228
-256
-203
-200
-208
-173
-164
-165
-141
-124
-119
-106
-89
-72
-49
-23
5
40
81
128
182
241
296
340
367
375
365
332
269
184
95
16
-53
-107
-144
-164
-172
-174
-170
-163
-157
-151
-142
-132
-123
-114
-107
-104
-101
-96
-95
-97
-94
-88
-87
-88
-85
-84
-86
-85
-84
-87
-90
-92
-100
-101
-89
-71
-50
-22
0
-2
-24
-42
-39
-35
-43
-30
-17
-39
-35
-31
-8
438
1231
1226
95
-729
-476
-53
-33
-62
-13
-19
-22
7
9
9
24
32
39
52
61
75
94
112
131
158
193
236
286
337
382
416
437
443
430
389
318
228
137
59
-4
-52
-83
-106
-123
-129
-124
-122
-122
-117
-110
-110
-109
-103
-101
-104
-107
-110
-110
-109
-110
-111
-112
-116
-118
-115
-113
-115
-117
-121
-127
-128
-131
-139
-137
-119
-98
-74
-49
-43
-67
-99
-102
-92
-101
-99
-80
-94
-101
-88
-105
174
951
1280
365
-712
-720
-220
-78
-118
-76
-68
-86
-65
-54
-54
-35
-23
-22
-12
0
12
29
48
70
100
135
172
220
276
328
364
388
400
394
367
315
236
147
68
3
-51
-91
-112
-123
-131
-133
-129
-122
-116
-110
-107
-109
-109
-104
-101
-102
-103
-101
-103
-107
-108
-106
-107
-108
-106
-105
-107
-107
-104
-101
-105
-115
-121
-122
-119
-109
-90
-67
-46
-30
-32
-58
-81
-79
-76
-83
-69
-62
-80
-64
-72
-44
460
1217
1043
-130
-809
-477
-97
-91
-97
-51
-61
-59
-34
-34
-30
-15
-10
-6
7
20
33
48
70
98
126
158
202
252
299
342
378
400
408
398
360
293
211
129
54
-11
-65
-106
-131
-141
-139
-133
-130
-133
-130
-120
-115
-116
-111
-102
-100
-107
-112
-107
-104
-112
-118
-115
-112
-114
-118
-121
-115
-114
-128
-136
-129
-128
-131
-119
-103
-93
-76
-49
-39
-66
-93
-84
-76
-86
-72
-63
-91
-73
-64
-16
567
1463
1278
-152
-1052
-683
-169
-108
-101
-46
-66
-70
-30
-20
-23
-12
-3
11
31
45
58
77
98
124
160
201
243
291
351
407
444
462
467
450
404
330
238
142
54
-17
-69
-106
-132
-145
-148
-147
-145
-141
-136
-129
-122
-118
-112
-102
-97
-101
-101
-98
-101
-107
-108
-108
-108
-106
-107
-112
-114
-114
-114
-116
-120
-127
-133
-134
-125
-106
-81
-56
-45
-62
-93
-100
-88
-98
-103
-79
-88
-106
-90
-104
131
926
1411
555
-703
-863
-312
-98
-146
-111
-92
-112
-86
-70
-76
-58
-36
-34
-29
-17
-3
16
37
57
82
119
166
214
264
316
357
382
394
395
367
306
224
138
57
-13
-68
-106
-130
-146
-151
-146
-140
-137
-132
-122
-111
-100
-95
-94
-91
-87
-84
-83
-83
-84
-84
-83
-82
-81
-81
-82
-80
-82
-91
-97
-95
-98
-105
-100
-83
-60
-31
-11
-17
-43
-60
-52
-47
-60
-51
-39
-60
-58
-62
-33
451
1254
1181
5
-769
-465
-62
-70
-96
-44
-57
-63
-35
-34
-30
-8
-1
1
14
28
42
61
81
103
132
169
214
267
321
365
396
412
413
394
350
280
195
111
36
-25
-69
-96
-114
-125
-130
-132
-130
-126
-125
-124
-116
-109
-108
-107
-105
-105
-104
-102
-102
-105
-111
-116
-117
-116
-115
-113
-115
-118
-118
-122
-131
-137
-141
-144
-139
-126
-107
-81
-59
-60
-83
-101
-98
-96
-114
-111
-96
-114
-108
-99
-109
266
1092
1247
177
-775
-619
-165
-117
-158
-106
-108
-123
-96
-91
-98
-81
-62
-58
-53
-38
-17
3
21
45
71
101
145
203
259
307
347
374
382
371
341
292
220
129
48
-8
-47
-83
-114
-125
-117
-108
-107
-106
-93
-76
-66
-61
-55
-46
-41
-47
-51
-39
-28
-31
-35
-31
-30
-29
-25
-23
-23
-17
-12
-20
-26
-23
-25
-35
-40
-45
-50
-45
-36
-28
-10
19
30
9
-19
-22
-27
-50
-39
-23
-58
-57
-41
-25
499
1518
1586
133
-1077
-860
-254
-139
-159
-93
-95
-115
-86
-75
-81
-67
-54
-52
-42
-25
-13
4
31
56
85
132
189
245
309
379
425
434
425
406
363
287
185
78
-15
-91
-154
-193
-204
-211
-227
-238
-230
-210
-198
-191
-179
-168
-165
-161
-153
-146
-137
-134
-139
-134
-123
-122
-128
-122
-117
-126
-134
-133
-122
-114
-120
-129
-126
-123
-125
-118
-110
-108
-89
-54
-40
-62
-83
-68
-59
-76
-66
-50
-73
-60
-51
-7
588
1563
1454
-36
-1066
-726
-159
-80
-94
-39
-46
-51
-21
-11
-5
8
14
23
39
56
74
90
108
137
171
211
260
312
364
416
458
476
474
453
400
315
219
130
49
-26
-86
-120
-133
-138
-140
-138
-132
-126
-119
-109
-102
-101
-96
-86
-85
-86
-84
-85
-94
-100
-99
-97
-99
-104
-105
-104
-109
-115
-112
-111
-114
-112
-107
-111
-120
-120
-120
-130
-135
-125
-109
-85
-55
-43
-60
-84
-86
-75
-83
-90
-70
-79
-96
-82
-118
108
999
1638
796
-603
-858
-299
-77
-142
-107
-81
-104
-83
-62
-66
-54
-40
-35
-21
-7
0
16
41
67
93
125
166
216
267
315
362
395
402
392
368
318
241
155
78
11
-45
-85
-105
-116
-124
-128
-124
-116
-107
-100
-96
-93
-88
-84
-84
-86
-87
-87
-88
-88
-89
-91
-95
-94
-92
-93
-97
-99
-101
-101
-100
-102
-105
-105
-103
-101
-98
-93
-90
-91
-93
-97
-107
-114
-106
-90
-67
-34
-14
-25
-48
-58
-51
-54
-64
-45
-36
-62
-52
-63
-17
596
1510
1335
-13
-801
-441
-55
-88
-102
-51
-72
-74
-43
-42
-40
-26
-21
-14
-1
8
23
46
66
86
113
148
189
236
282
325
359
375
375
365
334
274
197
121
53
-6
-52
-82
-99
-110
-118
-118
-112
-110
-110
-102
-94
-91
-92
-91
-89
-88
-89
-90
-90
-89
-92
-98
-102
-101
-97
-96
-99
-102
-102
-103
-104
-102
-100
-101
-100
-98
-100
-101
-98
-94
-94
-96
-97
-99
-105
-115
-118
-109
-92
-70
-39
-18
-25
-52
-65
-56
-59
-68
-47
-43
-71
-59
-76
-3
658
1505
1178
-171
-810
-392
-55
-105
-106
-60
-86
-83
-54
-53
-45
-28
-26
-22
-6
9
24
42
61
82
110
145
185
230
275
318
352
370
370
359
333
282
208
129
60
5
-40
-72
-89
-98
-102
-100
-95
-93
-91
-86
-83
-81
-77
-78
-84
-86
-87
-89
-87
-86
-92
-94
-93
-96
-101
-99
-97
-98
-100
-101
-100
-95
-91
-87
-86
-86
-84
-79
-78
-78
-77
-81
-78
-64
-59
-70
-77
-76
-75
-76
-74
-59
-24
9
10
-18
-37
-31
-33
-43
-30
-32
-51
-26
-33
93
812
1580
1065
-382
-987
-509
-109
-90
-67
-35
-56
-40
-16
-26
-19
9
22
25
29
39
57
76
100
127
156
191
234
274
320
377
420
435
435
428
396
326
233
145
70
-3
-71
-119
-144
-152
-159
-166
-161
-152
-153
-154
-143
-138
-142
-140
-132
-129
-134
-143
-147
-142
-141
-146
-146
-145
-152
-154
-151
-155
-156
-153
-151
-146
-140
-141
-147
-146
-137
-128
-131
-137
-137
-140
-146
-141
-124
-106
-78
-50
-56
-89
-95
-75
-83
-96
-71
-72
-92
-64
-60
137
961
1680
953
-596
-1114
-551
-135
-104
-73
-41
-55
-33
-10
-12
0
18
25
39
58
71
88
112
132
154
192
243
290
334
391
448
481
497
506
491
437
357
266
167
79
11
-45
-90
-109
-115
-124
-128
-120
-114
-111
-106
-100
-99
-99
-92
-82
-84
-94
-94
-91
-97
-102
-99
-100
-107
-107
-103
-106
-113
-114
-109
-107
-113
-113
-102
-98
-107
-114
-117
-124
-127
-117
-107
-94
-63
-34
-42
-75
-87
-74
-75
-85
-72
-77
-91
-71
-92
71
850
1567
939
-485
-962
-445
-101
-118
-96
-64
-89
-73
-47
-51
-42
-23
-20
-13
4
20
35
51
71
98
129
164
209
264
320
368
404
422
420
404
364
293
201
113
39
-26
-76
-108
-124
-133
-136
-134
-127
-120
-117
-116
-113
-108
-104
-103
-103
-101
-102
-104
-104
-106
-111
-116
-120
-124
-124
-122
-125
-131
-129
-125
-126
-124
-121
-123
-127
-130
-136
-145
-143
-131
-112
-86
-59
-51
-68
-90
-91
-82
-90
-87
-69
-85
-89
-84
-112
241
1154
1480
419
-709
-655
-162
-87
-141
-87
-83
-99
-70
-60
-62
-43
-32
-30
-16
-2
9
26
48
70
94
126
166
213
266
320
363
389
401
396
371
321
248
166
90
26
-24
-64
-91
-105
-105
-101
-101
-99
-93
-88
-82
-77
-74
-72
-68
-66
-66
-64
-64
-70
-70
-64
-63
-66
-66
-66
-69
-70
-69
-70
-68
-66
-72
-80
-83
-89
-96
-90
-75
-57
-30
-11
-16
-36
-47
-46
-53
-64
-50
-45
-68
-56
-70
-50
496
1384
1290
5
-836
-529
-103
-97
-115
-62
-75
-84
-60
-56
-52
-37
-32
-28
-17
-5
11
32
53
75
101
133
176
224
274
327
374
394
390
379
355
295
202
110
36
-31
-94
-138
-160
-177
-183
-175
-169
-169
-163
-152
-144
-141
-144
-141
-133
-132
-139
-138
-132
-135
-138
-134
-136
-144
-144
-141
-145
-146
-139
-137
-144
-146
-145
-148
-149
-141
-126
-106
-85
-68
-70
-92
-103
-92
-95
-96
-74
-87
-98
-62
-67
195
1114
1731
787
-757
-1096
-483
-133
-115
-69
-52
-74
-45
-20
-28
-20
0
15
26
37
54
76
96
118
148
184
226
280
339
396
441
477
497
493
465
416
337
232
131
46
-33
-94
-123
-138
-156
-162
-150
-142
-146
-145
-132
-121
-117
-115
-112
-105
-100
-102
-104
-105
-109
-112
-110
-110
-111
-110
-111
-116
-118
-118
-124
-129
-123
-120
-130
-136
-131
-117
-93
-63
-51
-66
-87
-90
-87
-98
-90
-68
-87
-87
-73
-87
296
1235
1534
375
-859
-823
-253
-96
-126
-76
-71
-83
-53
-44
-52
-34
-17
-12
0
17
33
50
68
92
123
156
193
243
302
358
400
423
433
432
404
345
265
174
84
10
-45
-88
-118
-131
-136
-138
-135
-129
-124
-123
-122
-114
-105
-104
-103
-98
-93
-94
-98
-100
-98
-99
-104
-104
-98
-95
-97
-96
-96
-98
-100
-101
-103
-107
-115
-122
-120
-108
-88
-60
-39
-39
-57
-74
-72
-71
-83
-74
-57
-76
-76
-83
-84
388
1322
1434
220
-781
-584
-122
-90
-127
-75
-84
-93
-63
-59
-61
-43
-33
-29
-19
-8
4
21
40
61
90
126
166
212
260
306
344
369
376
364
332
277
201
112
30
-35
-88
-129
-152
-161
-167
-169
-163
-156
-156
-157
-154
-148
-145
-144
-142
-140
-140
-140
-140
-140
-141
-145
-147
-145
-141
-139
-138
-137
-135
-137
-140
-138
-132
-130
-134
-137
-143
-146
-135
-115
-93
-68
-43
-41
-64
-80
-69
-62
-69
-55
-43
-60
-47
-61
-38
516
1410
1321
53
-763
-444
-28
-27
-42
10
-3
-2
32
39
44
60
66
74
92
105
116
130
151
177
206
237
277
328
377
421
459
484
490
480
450
394
313
227
149
83
29
-11
-40
-57
-65
-68
-70
-71
-72
-73
-74
-73
-73
-76
-80
-85
-93
-102
-104
-104
-113
-126
-130
-133
-143
-151
-155
-162
-168
-170
-176
-185
-186
-183
-190
-202
-209
-215
-224
-224
-209
-187
-162
-141
-140
-164
-188
-185
-181
-185
-164
-158
-187
-172
-175
-130
470
1361
1157
-240
-1076
-702
-227
-184
-180
-125
-136
-135
-106
-100
-91
-70
-61
-51
-32
-11
9
29
53
84
119
158
206
258
313
371
421
451
459
454
434
382
301
216
140
63
-7
-55
-83
-100
-103
-97
-95
-96
-90
-86
-83
-70
-55
-57
-58
-51
-53
-58
-44
-36
-48
-54
-54
-65
-67
-54
-50
-57
-55
-52
-62
-74
-73
-65
-64
-67
-69
-61
-37
-5
6
-22
-54
-46
-36
-60
-50
-17
-49
-61
-26
-7
439
1451
1691
326
-1039
-958
-298
-92
-101
-59
-69
-77
-40
-34
-45
-33
-23
-22
-21
-13
9
32
48
75
113
142
176
234
304
367
424
473
490
473
445
403
318
205
102
15
-61
-116
-149
-166
-179
-191
-195
-187
-182
-187
-180
-161
-154
-157
-150
-141
-147
-151
-146
-150
-156
-156
-159
-164
-161
-168
-180
-170
-154
-163
-178
-180
-185
-193
-187
-169
-152
-139
-122
-104
-103
-127
-141
-127
-131
-147
-125
-114
-127
-107
-124
66
934
1690
917
-659
-1076
-438
-110
-181
-145
-89
-112
-92
-57
-54
-39
-25
-30
-23
-2
16
33
63
103
143
177
210
251
304
369
440
495
512
503
474
409
316
226
133
32
-40
-82
-129
-165
-163
-159
-172
-159
-135
-149
-162
-121
-81
-96
-110
-96
-95
-108
-109
-106
-90
-63
-61
-77
-85
-91
-96
-93
-92
-93
-94
-104
-101
-65
-31
-21
-19
-41
-63
-34
-16
-60
-56
-10
-41
-51
-25
-17
479
1484
1541
135
-926
-612
-66
-28
-66
-31
-63
-73
-40
-28
-5
21
9
-5
1
13
37
78
117
132
137
170
227
267
318
417
488
470
437
436
395
275
150
68
-11
-113
-193
-218
-231
-264
-272
-250
-252
-264
-242
-222
-239
-253
-242
-222
-205
-199
-209
-226
-222
-189
-175
-202
-217
-197
-176
