# session 31
-18
-63
100
-12
-640
-1138
-1074
-859
-814
-780
-696
-652
-629
-614
-658
-735
-787
-824
-851
-832
-797
-800
-804
-763
-726
-699
-644
-598
-597
-582
-532
-501
-486
-456
-428
-416
-399
-372
-350
-330
-294
-249
-221
-197
-154
-117
-113
-123
-123
-116
-115
-97
-37
-8
-44
-30
-19
-18
500
1492
1571
277
-735
-493
2
46
13
70
70
54
74
94
113
129
138
150
153
149
169
204
231
248
263
283
317
360
406
459
502
508
490
478
470
434
366
288
202
125
79
37
-8
-14
-2
-18
-27
-13
-29
-51
-25
-5
-31
-39
-20
-30
-62
-62
-25
-9
-44
-71
-59
-50
-33
9
17
-20
-26
-4
-8
-11
4
-4
-10
31
40
-9
5
10
5
518
1410
1311
6
-828
-510
-92
-72
-77
-47
-78
-88
-83
-103
-85
-46
-52
-69
-57
-40
-38
-35
-21
1
32
66
92
112
140
183
226
251
254
247
231
196
132
46
-31
-83
-131
-184
-220
-230
-219
-197
-183
-191
-197
-182
-162
-155
-160
-168
-156
-132
-137
-152
-137
-126
-143
-156
-159
-160
-148
-137
-139
-125
-99
-108
-140
-149
-130
-131
-153
-128
-98
-134
-140
-135
-139
366
1335
1333
-44
-1014
-680
-179
-161
-188
-131
-130
-119
-84
-75
-64
-55
-59
-47
-22
-11
-3
9
27
56
90
121
159
204
249
293
334
356
356
351
331
281
204
114
25
-45
-89
-119
-139
-144
-137
-126
-112
-96
-74
-49
-32
-29
-35
-36
-22
-7
-11
-25
-29
-30
-42
-51
-51
-55
-61
-56
-54
-64
-78
-90
-101
-97
-77
-50
-18
4
-4
-34
-53
-46
-46
-67
-60
-41
-60
-55
-44
-15
478
1359
1336
62
-817
-482
-25
-48
-84
-21
-45
-62
-27
-22
-24
-3
6
5
16
32
41
52
71
95
119
148
180
213
250
293
323
334
339
344
332
289
221
142
63
-8
-68
-112
-137
-149
-157
-161
-156
-148
-148
-151
-151
-149
-148
-146
-147
-150
-154
-155
-154
-153
-155
-156
-151
-151
-157
-159
-158
-165
-171
-171
-169
-159
-130
-97
-75
-63
-64
-88
-107
-100
-101
-111
-91
-86
-107
-86
-109
-29
669
1480
1012
-401
-935
-399
-40
-95
-85
-39
-65
-54
-25
-30
-21
2
6
12
29
40
49
63
81
108
143
174
208
247
285
317
344
359
362
357
337
291
220
142
66
-2
-56
-92
-115
-128
-129
-127
-125
-119
-109
-107
-109
-106
-104
-105
-106
-106
-106
-102
-101
-105
-106
-102
-103
-111
-114
-116
-128
-133
-108
-75
-63
-59
-50
-58
-86
-95
-80
-89
-104
-81
-85
-107
-67
-74
30
739
1449
840
-548
-956
-392
-63
-102
-76
-37
-65
-55
-28
-26
-18
-10
-8
1
12
18
32
51
70
90
114
143
180
222
263
300
331
349
354
350
334
296
226
136
51
-17
-73
-117
-143
-155
-158
-154
-151
-147
-138
-130
-130
-129
-128
-130
-128
-126
-129
-131
-129
-130
-131
-129
-130
-136
-143
-154
-157
-133
-101
-87
-81
-71
-79
-109
-122
-108
-111
-120
-98
-101
-124
-90
-98
-25
625
1387
935
-421
-948
-446
-85
-111
-91
-47
-72
-60
-27
-30
-27
-9
0
10
25
35
45
64
85
101
123
152
183
213
248
284
311
325
332
331
318
286
230
160
91
30
-17
-46
-66
-78
-79
-76
-76
-71
-61
-62
-72
-73
-67
-66
-66
-59
-56
-60
-59
-52
-50
-52
-52
-51
-56
-64
-58
-36
-16
-5
4
5
-20
-50
-44
-35
-51
-52
-59
-94
-82
-86
-66
486
1388
1258
-113
-1004
-680
-209
-164
-160
-102
-122
-136
-109
-105
-112
-104
-96
-94
-90
-78
-51
-21
-1
18
49
83
115
152
200
249
281
292
294
296
289
259
194
103
9
-71
-132
-175
-207
-224
-220
-215
-224
-225
-209
-200
-201
-192
-179
-178
-177
-164
-149
-143
-143
-143
-141
-142
-145
-140
-123
-99
-70
-50
-47
-56
-72
-78
-69
-67
-57
-41
-63
-59
-23
-24
358
1355
1721
488
-900
-902
-271
-76
-86
-17
-13
-35
-1
13
7
26
42
46
56
70
86
104
123
147
174
200
233
276
322
365
399
417
423
423
403
347
259
160
70
-4
-66
-119
-154
-169
-174
-176
-177
-173
-168
-162
-159
-156
-154
-156
-155
-150
-149
-153
-158
-166
-173
-177
-178
-175
-170
-159
-139
-116
-105
-114
-138
-143
-126
-131
-139
-113
-116
-139
-115
-116
104
940
1566
759
-643
-920
-342
-88
-143
-103
-70
-93
-71
-49
-53
-40
-22
-14
0
14
23
41
66
87
107
137
178
220
260
303
341
364
373
370
351
309
242
158
73
2
-52
-92
-118
-128
-131
-132
-128
-118
-108
-101
-95
-89
-89
-91
-90
-86
-87
-91
-93
-96
-103
-109
-116
-125
-133
-134
-132
-118
-87
-61
-60
-81
-106
-111
-108
-122
-115
-87
-108
-121
-95
-99
221
1073
1383
356
-728
-644
-146
-73
-126
-71
-68
-84
-57
-47
-46
-31
-26
-22
-7
1
7
23
37
50
74
106
137
173
211
247
283
306
304
286
267
232
166
86
11
-49
-93
-123
-146
-161
-164
-162
-166
-178
-179
-152
-123
-122
-136
-132
-113
-102
-102
-107
-108
-98
-87
-91
-101
-100
-95
-96
-103
-115
-122
-112
-85
-59
-41
-22
-14
-39
-58
-32
-15
-38
-45
-50
-67
-50
-75
40
741
1456
961
-287
-703
-266
-22
-79
-60
-25
-45
-31
-10
-20
-14
4
10
16
29
40
53
69
86
105
129
156
188
224
255
283
306
316
315
311
292
244
178
113
51
-5
-49
-82
-104
-114
-117
-115
-108
-104
-103
-104
-105
-107
-110
-111
-114
-118
-120
-118
-119
-123
-126
-123
-119
-118
-120
-121
-115
-107
-104
-102
-94
-90
-90
-86
-76
-71
-73
-75
-76
-80
-86
-84
-64
-35
-12
-2
-9
-32
-47
-45
-52
-56
-34
-39
-60
-38
-47
106
823
1448
803
-490
-816
-287
-17
-66
-39
-12
-43
-25
0
-11
-9
10
15
16
29
42
48
59
82
100
118
150
183
205
235
275
299
303
306
301
282
248
185
95
10
-55
-110
-157
-185
-196
-201
-204
-205
-201
-193
-188
-184
-174
-164
-160
-160
-158
-156
-155
-159
-162
-154
-156
-170
-167
-152
-158
-174
-166
-147
-151
-163
-161
-156
-151
-141
-147
-159
-130
-79
-70
-91
-103
-105
-90
-74
-75
-57
-36
-48
-28
-45
-10
673
1750
1618
52
-975
-611
-59
17
16
61
40
38
76
85
83
96
105
108
113
126
142
151
155
169
189
208
238
278
316
352
383
400
401
386
343
275
191
101
16
-51
-101
-135
-151
-157
-162
-161
-154
-145
-135
-125
-121
-119
-112
-104
-103
-102
-94
-92
-99
-99
-93
-95
-99
-96
-92
-85
-73
-68
-72
-75
-82
-93
-93
-87
-81
-64
-46
-50
-68
-86
-99
-108
-122
-127
-122
-146
-150
-126
-121
223
1058
1274
136
-972
-806
-227
-145
-209
-142
-130
-148
-114
-98
-91
-59
-38
-30
-13
0
11
33
55
70
97
130
158
193
237
278
311
331
334
324
307
271
212
137
60
-5
-53
-88
-109
-114
-112
-112
-108
-95
-85
-82
-81
-81
-85
-85
-79
-74
-73
-74
-74
-75
-79
-83
-85
-84
-84
-88
-90
-83
-78
-81
-82
-78
-76
-79
-82
-85
-87
-93
-104
-107
-93
-71
-46
-22
-14
-33
-55
-52
-47
-57
-47
-38
-57
-44
-47
1
566
1399
1177
-172
-932
-510
-51
-52
-68
-17
-34
-33
-3
-5
-5
9
11
19
35
44
52
66
84
107
134
162
193
230
269
303
327
341
348
343
322
283
224
149
73
11
-39
-78
-100
-109
-113
-113
-109
-104
-99
-95
-93
-92
-89
-88
-90
-91
-90
-91
-95
-99
-103
-106
-108
-110
-111
-110
-109
-108
-108
-109
-108
-107
-106
-103
-105
-112
-120
-128
-136
-131
-110
-83
-56
-37
-38
-58
-72
-65
-64
-74
-61
-51
-69
-60
-64
-1
549
1296
1046
-170
-788
-386
-17
-50
-61
-13
-33
-36
-9
-8
-3
14
19
25
40
50
58
73
90
108
130
157
186
218
255
290
313
324
327
320
298
256
195
121
46
-19
-69
-105
-127
-140
-145
-143
-139
-136
-132
-127
-124
-120
-115
-115
-119
-121
-122
-123
-124
-125
-127
-126
-125
-126
-127
-126
-126
-126
-124
-121
-120
-120
-119
-117
-115
-112
-110
-106
-102
-103
-108
-112
-120
-128
-117
-91
-65
-44
-26
-29
-55
-67
-57
-61
-66
-45
-49
-65
-45
-66
83
772
1342
704
-500
-767
-253
-3
-51
-26
1
-23
-7
16
14
23
36
39
48
60
71
85
100
115
137
164
192
223
260
298
333
359
372
374
371
357
321
260
185
112
50
1
-34
-56
-67
-72
-72
-68
-65
-68
-67
-61
-61
-63
-61
-60
-62
-65
-68
-74
-79
-82
-87
-94
-97
-97
-96
-96
-97
-100
-101
-99
-97
-97
-97
-99
-105
-107
-105
-105
-110
-115
-120
-129
-131
-112
-85
-64
-51
-51
-71
-91
-88
-89
-102
-89
-81
-101
-82
-90
-62
481
1290
1061
-257
-986
-570
-118
-102
-101
-48
-68
-70
-38
-31
-25
-12
-16
-11
11
27
38
56
73
89
113
146
177
212
256
298
328
349
358
355
344
314
255
179
99
19
-49
-96
-129
-150
-159
-157
-149
-145
-143
-137
-129
-124
-119
-117
-114
-108
-105
-110
-114
-112
-109
-109
-110
-108
-107
-105
-100
-101
-107
-104
-91
-93
-106
-104
-95
-100
-106
-91
-68
-52
-39
-28
-34
-54
-60
-57
-68
-63
-43
-62
-59
-30
-40
310
1222
1529
360
-918
-888
-266
-61
-74
-22
-16
-31
-2
9
5
19
29
33
46
59
75
95
108
123
151
181
206
244
295
340
374
405
422
418
405
378
316
222
120
30
-42
-96
-137
-165
-177
-179
-177
-175
-168
-158
-150
-147
-144
-139
-134
-129
-127
-127
-128
-128
-129
-131
-130
-130
-134
-133
-126
-124
-130
-131
-127
-127
-131
-132
-135
-141
-140
-122
-98
-72
-51
-46
-63
-86
-87
-79
-90
-86
-67
-82
-78
-65
-81
290
1181
1412
267
-839
-699
-147
-45
-83
-28
-30
-47
-17
-8
-11
5
14
16
27
37
47
64
82
99
122
149
181
220
262
306
346
375
388
388
375
337
268
179
90
10
-56
-104
-132
-149
-160
-163
-160
-155
-150
-143
-134
-124
-116
-111
-108
-106
-104
-102
-102
-103
-104
-106
-107
-109
-109
-107
-107
-110
-111
-111
-108
-105
-108
-114
-116
-122
-130
-124
-101
-72
-48
-31
-31
-53
-75
-70
-65
-76
-64
-50
-72
-68
-64
-13
492
1261
1106
-88
-786
-421
-27
-52
-74
-22
-39
-44
-16
-13
-10
9
15
16
26
39
52
68
83
102
128
160
195
231
273
317
351
370
380
378
357
310
239
151
65
-6
-62
-104
-131
-145
-155
-159
-155
-149
-144
-138
-131
-125
-120
-115
-110
-107
-107
-108
-107
-108
-110
-110
-110
-111
-111
-110
-110
-108
-106
-104
-103
-102
-100
-95
-95
-101
-106
-113
-121
-117
-94
-66
-44
-26
-23
-44
-67
-64
-60
-73
-63
-48
-71
-66
-59
-38
402
1180
1133
-20
-799
-482
-47
-42
-68
-16
-31
-39
-8
-5
-5
12
20
21
31
42
51
63
78
98
120
144
175
213
253
296
333
358
371
373
360
325
261
178
93
18
-43
-87
-116
-135
-147
-148
-145
-142
-139
-131
-123
-118
-113
-106
-102
-101
-100
-99
-100
-102
-102
-100
-98
-100
-103
-104
-103
-104
-104
-102
-101
-101
-99
-95
-93
-92
-88
-84
-83
-79
-76
-78
-81
-84
-92
-96
-79
-50
-29
-15
-3
-13
-41
-48
-39
-49
-47
-31
-51
-55
-36
-43
280
1079
1301
260
-766
-638
-116
-19
-67
-21
-22
-38
-10
-2
-7
7
15
18
33
46
52
66
86
102
119
146
180
216
257
303
343
370
391
399
391
364
313
234
142
57
-17
-76
-116
-143
-159
-163
-163
-164
-162
-152
-146
-146
-142
-132
-125
-122
-119
-116
-115
-114
-115
-118
-121
-123
-122
-114
-111
-116
-116
-112
-115
-118
-115
-112
-107
-98
-97
-101
-101
-99
-102
-110
-117
-113
-92
-68
-52
-40
-31
-44
-70
-71
-60
-69
-68
-60
-80
-63
-50
-38
453
1363
1340
-21
-1024
-713
-152
-71
-82
-21
-30
-39
-11
-5
1
19
18
20
40
52
59
77
100
121
144
171
203
247
300
345
382
421
450
452
436
406
342
240
128
36
-33
-87
-136
-172
-182
-177
-175
-176
-174
-167
-159
-153
-148
-141
-133
-128
-125
-120
-114
-111
-113
-115
-116
-115
-114
-115
-120
-119
-113
-111
-113
-111
-104
-100
-100
-103
-106
-105
-108
-116
-113
-95
-75
-53
-32
-24
-40
-64
-65
-58
-69
-65
-49
-68
-61
-46
-64
335
1268
1466
222
-927
-743
-149
-42
-79
-17
-18
-36
-6
1
-3
16
27
29
42
54
64
78
96
118
145
172
204
247
296
345
391
427
445
446
435
398
324
223
121
32
-40
-95
-133
-157
-170
-179
-183
-180
-172
-165
-158
-149
-139
-132
-126
-120
-114
-111
-110
-110
-112
-114
-115
-117
-118
-119
-120
-121
-122
-122
-121
-120
-118
-116
-113
-111
-109
-106
-104
-103
-101
-103
-109
-116
-124
-126
-115
-93
-68
-45
-28
-33
-59
-75
-67
-69
-80
-60
-55
-82
-69
-59
72
716
1379
884
-369
-781
-294
-16
-82
-67
-29
-58
-48
-22
-27
-20
-3
2
9
21
30
41
55
70
90
117
147
182
225
272
319
361
391
405
405
388
342
266
173
83
6
-55
-97
-124
-139
-147
-152
-154
-151
-144
-136
-127
-117
-107
-99
-91
-85
-79
-75
-73
-73
-71
-69
-68
-66
-63
-59
-56
-55
-54
-51
-48
-46
-44
-40
