# session 18
9
-13
47
104
-26
-266
-355
-309
-299
-306
-278
-258
-248
-229
-217
-209
-199
-195
-193
-191
-196
-203
-201
-196
-198
-198
-196
-196
-195
-190
-187
-183
-171
-160
-157
-155
-144
-135
-135
-135
-125
-113
-109
-105
-97
-89
-83
-77
-72
-69
-67
-62
-55
-48
-44
-41
-32
-23
-25
-31
-27
-18
-12
-9
-4
-2
1
8
10
4
5
13
18
17
18
19
21
24
24
24
28
27
21
21
26
22
11
7
6
-6
-12
10
42
55
51
54
64
58
43
33
13
-3
15
5
-27
-15
-38
125
887
1513
819
-454
-725
-248
-77
-139
-83
-53
-83
-59
-34
-41
-28
-6
7
31
73
120
171
239
335
450
571
689
774
800
775
708
594
451
317
201
103
28
-29
-79
-115
-139
-151
-152
-155
-164
-163
-147
-134
-139
-147
-144
-143
-150
-152
-149
-155
-163
-160
-159
-174
-191
-194
-197
-205
-204
-198
-202
-208
-207
-207
-207
-199
-193
-195
-196
-196
-197
-193
-182
-175
-178
-180
-177
-176
-172
-164
-158
-156
-155
-155
-152
-147
-143
-135
-128
-132
-140
-135
-128
-130
-117
-77
-50
-52
-53
-42
-44
-52
-55
-79
-101
-69
-60
-95
-72
-80
28
859
1860
1327
-459
-1275
-707
-198
-166
-119
-54
-71
-45
-7
-11
6
40
54
81
132
179
232
314
424
555
708
872
1006
1065
1039
949
801
604
406
248
123
18
-60
-113
-147
-166
-176
-179
-178
-173
-161
-152
-147
-131
-113
-113
-117
-109
-110
-123
-127
-122
-126
-135
-144
-149
-151
-153
-154
-153
-156
-162
-161
-152
-146
-149
-151
-142
-133
-133
-133
-127
-121
-119
-115
-109
-108
-109
-104
-98
-96
-94
-90
-87
-84
-82
-81
-79
-75
-69
-65
-62
-60
-59
-57
-53
-48
-46
-46
-47
-46
-43
-40
-40
-37
-35
-36
-37
-33
-32
-34
-35
-33
-30
-33
-44
-56
-62
-60
-35
5
22
13
15
25
17
7
-4
-34
-33
-8
-43
-59
-34
-46
349
1334
1607
381
-779
-639
-149
-119
-150
-71
-77
-92
-54
-46
-47
-23
-5
11
41
75
117
177
252
346
461
589
707
784
802
767
688
573
437
305
194
103
30
-27
-67
-94
-113
-129
-138
-137
-133
-129
-126
-123
-122
-121
-122
-125
-127
-128
-132
-141
-149
-157
-163
-166
-169
-176
-181
-183
-187
-187
-183
-183
-185
-183
-182
-182
-178
-174
-173
-170
-164
-166
-165
-157
-153
-158
-155
-143
-138
-140
-140
-140
-138
-129
-121
-122
-123
-115
-106
-106
-112
-115
-111
-100
-90
-86
-84
-83
-81
-79
-82
-82
-68
-54
-55
-60
-64
-69
-69
-63
-57
-50
-42
-41
-55
-68
-60
-35
-1
28
30
20
32
41
25
18
11
-12
3
14
-19
-2
-3
91
877
1888
1437
-295
-1136
-617
-132
-101
-59
2
-10
14
45
40
50
73
94
131
171
205
260
333
415
524
670
831
971
1051
1059
1010
907
743
552
376
232
118
25
-53
-104
-130
-152
-168
-170
-167
-166
-163
-158
-150
-142
-145
-151
-148
-143
-150
-166
-178
-180
-185
-196
-205
-212
-220
-225
-227
-229
-230
-228
-228
-233
-233
-227
-225
-228
-226
-220
-216
-213
-210
-209
-206
-201
-200
-201
-197
-193
-192
-189
-184
-185
-184
-177
-173
-173
-170
-166
-163
-155
-150
-152
-151
-143
-138
-136
-127
-118
-118
-121
-115
-105
-100
-97
-97
-97
-90
-85
-89
-91
-84
-64
-27
1
-4
-11
4
7
-5
-15
-41
-49
-21
-46
-82
-45
-56
185
1147
1823
858
-669
-908
-313
-105
-144
-56
-23
-54
-32
-17
-12
33
66
67
89
140
192
252
329
430
564
721
874
1004
1095
1109
1036
901
731
549
380
234
106
6
-61
-104
-129
-144
-161
-175
-171
-160
-153
-146
-135
-131
-130
-123
-118
-122
-126
-130
-142
-154
-161
-168
-176
-182
-189
-197
-202
-206
-210
-210
-207
-207
-209
-208
-205
-206
-208
-202
-194
-193
-192
-186
-183
-184
-183
-180
-179
-174
-164
-159
-161
-160
-153
-148
-144
-140
-139
-142
-140
-139
-140
-121
-78
-52
-57
-53
-37
-43
-54
-63
-89
-82
-47
-79
-105
-81
-74
371
1420
1683
337
-931
-776
-212
-147
-175
-91
-92
-105
-63
-51
-49
-23
-5
12
48
89
137
199
276
372
499
648
787
885
924
900
812
673
509
353
221
110
15
-55
-99
-128
-148
-159
-162
-161
-160
-158
-154
-147
-143
-138
-136
-140
-148
-151
-153
-159
-169
-178
-180
-184
-194
-199
-196
-200
-207
-209
-212
-214
-210
-208
-210
-204
-198
-202
-210
-217
-226
-233
-225
-199
-174
-159
-132
-100
-103
-126
-132
-145
-144
-114
-133
-162
-129
-122
179
1129
1642
549
-899
-992
-355
-170
-221
-141
-108
-131
-102
-79
-78
-53
-27
-9
19
58
104
163
239
342
471
620
769
875
908
875
793
656
491
337
207
94
4
-60
-102
-127
-142
-152
-151
-143
-140
-136
-125
-118
-117
-115
-114
-115
-117
-126
-135
-135
-137
-147
-154
-153
-154
-160
-161
-163
-170
-179
-184
-188
-193
-192
-175
-144
-110
-88
-92
-116
-123
-121
-136
-127
-107
-132
-131
-123
-83
448
1322
1182
-206
-1083
-693
-201
-188
-187
-106
-115
-120
-81
-73
-75
-56
-34
-11
20
53
95
159
245
350
480
623
742
804
808
762
662
517
362
226
117
27
-43
-92
-124
-143
-150
-149
-144
-133
-127
-128
-128
-124
-128
-134
-138
-138
-143
-151
-159
-162
-164
-171
-179
-182
-180
-181
-187
-190
-185
-186
-195
-199
-200
-211
-215
-193
-161
-139
-114
-95
-111
-140
-145
-147
-150
-127
-129
-154
-135
-142
23
760
1366
639
-732
-1053
-472
-166
-198
-152
-109
-128
-103
-70
-75
-68
-46
-24
7
47
93
149
225
323
443
576
704
799
842
830
765
648
501
357
232
117
14
-59
-101
-124
-139
-146
-146
-139
-129
-122
-123
-127
-130
-130
-125
-122
-129
-138
-146
-157
-160
-154
-155
-166
-167
-161
-166
-174
-177
-180
-180
-169
-164
-177
-182
-165
-147
-133
-108
-82
-86
-104
-105
-119
-130
-102
-109
-138
-99
-107
75
986
1773
887
-855
-1330
-652
-238
-223
-157
-109
-125
-96
-73
-79
-60
-31
-12
21
63
108
168
245
343
470
613
750
850
886
860
788
666
503
343
209
88
-18
-84
-119
-151
-172
-167
-159
-162
-159
-150
-152
-157
-153
-150
-155
-160
-167
-179
-187
-190
-199
-212
-213
-207
-211
-220
-218
-214
-216
-222
-225
-227
-227
-219
-200
-175
-148
-120
-115
-139
-148
-144
-156
-145
-121
-151
-154
-138
-152
298
1294
1435
66
-1094
-858
-276
-190
-200
-117
-114
-122
-87
-76
-69
-42
-26
-5
31
65
106
173
260
363
489
624
736
796
799
757
673
549
409
281
174
89
26
-19
-51
-72
-81
-80
-75
-71
-65
-57
-52
-51
-53
-57
-64
-71
-77
-83
-92
-102
-109
-114
-121
-130
-134
-133
-134
-136
-135
-132
-132
-131
-126
-120
-118
-116
-114
-111
-109
-108
-108
-105
-101
-102
-103
-97
-90
-91
-94
-92
-88
-88
-89
-86
-83
-84
-83
-79
-78
-78
-78
-76
-77
-81
-81
-76
-78
-88
-89
-74
-55
-45
-35
-16
-19
-47
-62
-73
-89
-69
-62
-94
-90
-89
37
707
1409
890
-449
-923
-438
-140
-187
-156
-107
-130
-113
-83
-89
-80
-54
-39
-20
15
57
105
166
242
334
437
544
640
701
714
689
637
549
436
330
240
154
79
21
-24
-53
-61
-61
-64
-66
-68
-70
-64
-56
-55
-56
-51
-54
-67
-77
-80
-85
-88
-86
-87
-93
-95
-95
-101
-105
-100
-96
-91
-81
-75
-78
-76
-68
-69
-70
-55
-44
-51
-52
-39
-38
-47
-43
-34
-41
-47
-37
-33
-44
-48
-37
-35
-44
-48
-44
-46
-53
-54
-54
-55
-52
-43
-46
-63
-65
-55
-59
-71
-66
-60
-69
-72
-67
-72
-81
-81
-82
-84
-81
-81
-89
-92
-89
-91
-97
-98
-99
-96
-77
-51
-40
-32
-21
-32
-59
-70
-90
-118
-89
-65
-111
-104
-85
-51
581
1643
1492
-155
-1240
-857
-288
-211
-180
-101
-115
-115
-78
-73
-69
-44
-26
-9
23
65
112
168
238
324
422
538
658
749
791
789
741
651
535
415
297
193
110
39
-27
-74
-93
-98
-102
-104
-107
-106
-98
-89
-90
-94
-92
-96
-109
-121
-129
-137
-143
-149
-158
-167
-173
-180
-181
-178
-179
-182
-181
-180
-177
-169
-163
-163
-162
-156
-151
-152
-153
-151
-147
-144
-143
-141
-138
-132
-127
-126
-126
-125
-126
-131
-134
-136
-141
-141
-124
-97
-72
-46
-33
-51
-67
-74
-89
-78
-58
-90
-96
-82
-48
474
1407
1375
7
-962
-652
-171
-150
-153
-79
-89
-90
-51
-50
-51
-30
-15
2
33
65
103
158
226
314
428
558
683
780
828
817
759
660
526
381
254
152
68
1
-51
-88
-111
-120
-120
-116
-114
-108
-99
-97
-102
-104
-104
-111
-118
-121
-128
-140
-148
-154
-161
-168
-173
-178
-180
-179
-176
-174
-172
-172
-172
-171
-172
-177
-183
-193
-198
-180
-143
-118
-103
-90
-98
-121
-128
-134
-136
-114
-121
-146
-130
-138
54
806
1356
587
-707
-942
-394
-158
-199
-149
-114
-132
-107
-86
-89
-75
-58
-49
-23
10
43
91
155
232
329
457
596
709
771
782
745
658
529
384
252
140
48
-24
-79
-118
-136
-144
-158
-165
-153
-138
-135
-137
-138
-141
-143
-141
-149
-163
-161
-153
-163
-177
-175
-175
-187
-192
-188
-187
-192
-195
-191
-184
-188
-193
-188
-191
-205
-197
-165
-142
-126
-102
-101
-125
-127
-129
-144
-125
-111
-141
-124
-118
-17
696
1563
1079
-517
-1232
-697
-227
-201
-162
-104
-119
-100
-63
-60
-47
-24
-6
30
74
108
163
257
349
432
554
718
857
931
959
946
862
715
554
392
232
101
9
-62
-122
-161
-176
-172
-166
-165
-159
-148
-140
-133
-121
-115
-119
-121
-124
-135
-145
-151
-162
-175
-178
-178
-188
-203
-214
-215
-213
-215
-217
-202
-180
-164
-143
-121
-131
-157
-163
-174
-186
-156
-153
-191
-173
-188
-71
726
1578
948
-689
-1287
-691
-262
-253
-204
-151
-174
-154
-122
-124
-115
-96
-86
-62
-26
11
60
129
213
318
450
592
711
780
788
744
655
524
375
238
125
33
-38
-91
-127
-145
-148
-148
-144
-135
-128
-124
-119
-115
-113
-114
-121
-129
-131
-135
-146
-156
-159
-161
-167
-173
-176
-180
-185
-186
-180
-176
-176
-180
-180
-179
-184
-183
-159
-123
-97
-78
-65
-83
-106
-104
-108
-115
-94
-101
-125
-113
-128
90
898
1444
597
-724
-911
-344
-132
-180
-117
-80
-102
-75
-50
-53
-39
-19
-7
19
55
90
135
199
280
382
504
627
720
771
784
754
675
558
429
307
202
118
52
1
-35
-56
-68
-73
-69
-64
-62
-62
-59
-54
-52
-54
-58
-62
-67
-73
-80
-89
-97
-105
-113
-118
-117
-117
-118
-117
-116
-117
-117
-115
-113
-113
-113
-111
-110
-111
-110
-106
-103
-103
-102
-101
-102
-100
-96
-95
-96
-94
-93
-94
-97
-99
-99
-96
-93
-92
-95
-95
-92
-94
-96
-90
-83
-86
-88
-83
-76
-75
-77
-78
-79
-79
-77
-78
-78
-73
-66
-62
-64
-67
-64
-54
-52
-59
-58
-53
-62
-69
-52
-30
-22
-21
-7
14
6
-22
-28
-34
-46
-27
-32
-66
-50
-49
150
979
1662
876
-612
-978
-404
-121
-155
-95
-56
-94
-78
-40
-33
-27
-14
8
44
76
107
159
229
302
379
475
589
702
790
832
822
783
716
612
486
365
254
160
87
25
-31
-74
-98
-101
-93
-95
-103
-97
-86
-83
-87
-88
-89
-94
-103
-116
-134
-148
-149
-146
-154
-169
-178
-177
-176
-177
-180
-183
-182
-175
-169
-169
-172
-173
-170
-166
-165
-163
-158
-155
-155
-156
-155
-152
-145
-143
-148
-145
-136
-135
-140
-140
-136
-133
-129
-124
-121
-117
-111
-108
-107
-106
-102
-98
-95
-94
-93
-93
-93
-92
-90
-87
-84
-85
-84
-83
-84
-86
-89
-93
-97
-93
-73
-42
-23
-29
-32
-23
-33
-58
-67
-79
-91
-68
-74
-106
-90
-101
94
950
1670
910
-564
-939
-398
-141
-178
-118
-81
-105
-79
-54
-58
-43
-23
-12
14
47
79
123
180
246
325
424
540
660
754
801
802
767
695
591
472
360
266
186
121
74
38
9
-9
-13
-7
-1
3
8
18
22
21
23
26
21
16
12
4
-5
-10
-18
-30
-39
-44
-51
-58
-62
-66
-68
-69
-70
-72
-75
-76
-79
-83
-86
-87
-87
-91
-96
-97
-99
-102
-103
-105
-110
-113
-114
-117
-122
-126
-129
-131
-133
-137
-138
-138
-141
-144
-146
-146
-147
-151
-156
-159
-159
-161
-165
-168
-167
-165
-162
-162
-162
-160
-158
-157
-157
-158
-161
-168
-172
-159
-128
-101
-97
-100
-89
-83
-98
-113
-124
-138
-125
-118
-154
-149
-131
-76
465
1308
1153
-144
-923
-578
-192
-209
-194
-116
-128
-132
-98
-89
-82
-62
-42
-18
8
40
86
134
181
253
353
468
598
716
788
814
804
748
650
536
415
297
193
104
23
-43
-82
-99
-110
-117
-114
-102
-92
-92
-99
-99
-92
-87
-88
-89
-92
-97
-105
-114
-120
-119
-121
-129
-131
-125
-123
-132
-141
-138
-128
-123
-120
-115
-112
-109
-103
-103
-107
-99
-82
-76
-82
-86
-83
-78
-76
-76
-72
-67
-74
-80
-61
-36
-30
-16
14
13
-13
-17
-27
-41
-19
-29
-60
-32
-26
235
1192
1875
874
-811
-1176
-510
-162
-159
-89
-53
-80
-60
-38
-37
-24
-14
-7
16
47
80
118
163
228
321
434
562
699
814
876
877
820
707
552
378
208
61
-52
-141
-211
-257
-283
-301
-307
-300
-296
-298
-295
-286
-283
-287
-289
-286
-281
-280
-284
-290
-294
-295
-299
-301
-297
-292
-290
-287
