# session 24
-15
0
-14
-11
59
136
133
76
15
-55
-133
-191
-238
-280
-298
-295
-294
-291
-279
-265
-255
-250
-243
-230
-223
-224
-220
-211
-210
-214
-210
-205
-202
-199
-198
-200
-201
-203
-208
-204
-190
-172
-141
-106
-92
-106
-120
-113
-105
-107
-90
-77
-94
-80
-79
-68
403
1264
1304
155
-714
-483
-69
-59
-86
-27
-35
-45
-13
-4
-3
15
25
33
47
60
76
99
121
146
178
219
263
306
347
380
395
391
383
364
321
258
188
120
63
20
-13
-36
-45
-45
-43
-43
-40
-37
-36
-36
-39
-40
-38
-36
-40
-45
-48
-53
-59
-61
-62
-65
-70
-74
-80
-88
-96
-97
-83
-58
-34
-20
-21
-45
-71
-71
-69
-83
-76
-64
-77
-67
-91
-91
392
1189
1098
-62
-808
-512
-116
-103
-117
-76
-97
-104
-74
-69
-68
-58
-51
-40
-25
-19
-8
16
40
64
96
130
167
217
270
298
305
314
318
296
242
174
106
40
-23
-72
-103
-127
-148
-149
-138
-137
-139
-129
-123
-128
-127
-118
-119
-128
-135
-139
-139
-136
-140
-143
-139
-142
-153
-156
-152
-150
-150
-145
-124
-92
-71
-78
-103
-114
-103
-107
-111
-87
-90
-113
-85
-102
1
717
1494
975
-472
-1064
-567
-148
-123
-103
-62
-76
-68
-46
-42
-27
-9
-8
0
24
45
62
86
114
141
174
224
281
330
372
407
421
415
403
379
323
239
155
82
15
-43
-84
-106
-114
-117
-115
-112
-111
-108
-98
-91
-92
-89
-84
-88
-93
-91
-90
-95
-98
-100
-107
-115
-120
-125
-129
-128
-121
-105
-80
-56
-54
-80
-104
-101
-98
-106
-90
-86
-110
-94
-107
-57
545
1393
1144
-221
-991
-599
-143
-117
-125
-76
-86
-86
-58
-55
-52
-34
-25
-21
-9
4
21
44
71
100
134
174
220
270
316
349
366
367
356
329
273
194
117
51
-13
-66
-100
-120
-128
-128
-125
-121
-117
-114
-108
-100
-96
-98
-99
-98
-99
-102
-107
-108
-107
-108
-117
-127
-131
-134
-141
-142
-128
-102
-73
-58
-71
-97
-106
-99
-106
-109
-86
-87
-104
-92
-116
40
758
1384
780
-457
-786
-308
-74
-136
-110
-74
-98
-85
-62
-63
-52
-35
-26
-16
-5
9
33
58
80
111
151
193
240
291
334
360
372
371
353
313
253
179
106
44
-13
-58
-81
-94
-104
-107
-104
-99
-93
-89
-89
-86
-80
-78
-83
-86
-88
-89
-88
-89
-96
-100
-96
-94
-99
-105
-111
-119
-121
-108
-89
-68
-45
-38
-57
-83
-84
-75
-84
-79
-59
-76
-84
-71
-109
141
939
1339
453
-666
-711
-214
-80
-134
-90
-76
-97
-76
-63
-66
-53
-42
-38
-26
-16
-7
11
32
54
86
125
165
210
259
299
320
328
328
310
274
217
140
58
-8
-61
-108
-140
-153
-157
-156
-150
-146
-143
-138
-136
-138
-134
-133
-136
-134
-132
-139
-141
-135
-133
-133
-129
-130
-140
-144
-141
-142
-147
-138
-108
-72
-45
-40
-64
-93
-85
-70
-79
-70
-45
-55
-44
-46
-58
406
1362
1484
194
-931
-759
-198
-64
-67
-12
-16
-19
21
26
15
31
50
63
75
86
105
128
145
167
208
254
297
344
396
442
462
453
436
416
367
286
198
116
41
-21
-70
-114
-139
-138
-134
-140
-142
-130
-119
-118
-120
-117
-118
-126
-129
-124
-127
-139
-146
-147
-153
-160
-161
-167
-176
-177
-179
-186
-186
-173
-155
-131
-106
-106
-135
-150
-138
-142
-157
-136
-131
-157
-132
-127
-33
632
1434
1010
-432
-1089
-597
-163
-164
-154
-98
-113
-111
-84
-80
-70
-50
-43
-33
-17
-2
18
43
68
100
143
191
242
295
344
381
400
400
385
357
307
230
145
73
13
-40
-77
-95
-104
-106
-103
-98
-93
-88
-80
-74
-71
-73
-76
-78
-78
-79
-81
-84
-86
-86
-89
-91
-91
-95
-100
-101
-106
-114
-111
-97
-77
-50
-27
-28
-54
-78
-75
-67
-77
-70
-57
-77
-74
-75
-66
388
1233
1256
69
-827
-573
-116
-89
-118
-60
-69
-79
-45
-36
-39
-24
-14
-10
2
15
28
48
73
100
134
173
218
269
319
356
375
381
378
356
302
228
150
75
7
-46
-84
-110
-122
-123
-124
-126
-123
-117
-114
-112
-113
-116
-113
-110
-111
-116
-121
-126
-128
-127
-127
-127
-124
-123
-124
-125
-129
-134
-141
-148
-142
-122
-100
-76
-52
-49
-75
-101
-98
-90
-102
-96
-76
-95
-99
-90
-107
226
1038
1271
257
-750
-647
-161
-76
-118
-68
-65
-79
-49
-38
-40
-24
-14
-9
8
20
29
50
77
102
133
170
213
265
317
357
385
399
396
375
337
275
194
114
50
-3
-48
-78
-88
-91
-97
-98
-90
-84
-83
-79
-76
-80
-83
-79
-83
-91
-90
-86
-88
-92
-95
-101
-101
-99
-104
-112
-111
-108
-112
-113
-109
-110
-119
-125
-124
-114
-96
-71
-44
-27
-36
-70
-85
-69
-72
-83
-68
-75
-83
-53
-72
103
858
1433
688
-638
-948
-405
-98
-110
-81
-53
-72
-58
-39
-40
-33
-19
-8
4
15
24
41
66
90
118
156
200
247
300
350
383
404
411
399
363
306
233
150
67
-2
-59
-109
-146
-158
-157
-159
-154
-144
-143
-143
-132
-127
-131
-129
-123
-126
-131
-131
-132
-139
-142
-137
-139
-150
-155
-148
-143
-145
-148
-151
-153
-152
-151
-150
-139
-112
-78
-56
-60
-85
-100
-86
-82
-94
-77
-65
-84
-65
-63
17
660
1509
1175
-285
-1054
-598
-111
-81
-77
-22
-31
-23
7
4
6
32
48
54
65
78
97
122
149
178
213
256
309
368
419
455
480
485
468
436
381
297
204
123
49
-19
-64
-88
-104
-117
-123
-122
-116
-107
-103
-103
-103
-101
-100
-99
-101
-109
-115
-114
-115
-122
-130
-129
-132
-142
-146
-144
-153
-164
-166
-170
-178
-172
-156
-139
-114
-92
-97
-124
-140
-129
-122
-135
-128
-114
-131
-122
-119
-100
371
1215
1208
-2
-892
-622
-158
-127
-153
-98
-105
-112
-82
-73
-68
-50
-43
-37
-21
-6
10
31
53
82
120
162
210
265
322
368
393
400
394
371
322
248
164
84
17
-37
-78
-106
-123
-127
-123
-119
-118
-111
-102
-101
-101
-95
-91
-90
-90
-89
-92
-94
-93
-94
-96
-96
-93
-93
-95
-94
-95
-104
-111
-115
-122
-121
-103
-80
-58
-33
-22
-41
-70
-73
-62
-70
-73
-54
-64
-73
-56
-81
141
898
1341
538
-583
-679
-189
-43
-100
-58
-40
-63
-42
-25
-27
-16
-5
0
11
24
38
59
83
105
130
165
208
259
312
356
389
407
406
387
351
293
216
133
58
-1
-47
-78
-94
-103
-111
-116
-113
-112
-114
-110
-107
-110
-110
-102
-103
-110
-109
-111
-120
-120
-115
-120
-123
-116
-114
-124
-127
-123
-126
-136
-145
-150
-145
-129
-106
-82
-63
-58
-77
-105
-105
-90
-97
-100
-87
-102
-101
-93
-111
243
1110
1371
279
-871
-831
-282
-113
-130
-83
-72
-78
-53
-50
-56
-39
-21
-11
0
13
33
59
79
100
129
171
226
283
333
377
411
425
424
414
380
314
230
143
60
-12
-70
-113
-135
-142
-142
-136
-134
-138
-137
-126
-120
-119
-115
-112
-113
-110
-105
-109
-116
-118
-117
-118
-120
-122
-121
-118
-126
-137
-134
-131
-137
-138
-127
-109
-82
-55
-49
-72
-97
-93
-83
-89
-82
-74
-97
-82
-69
-42
473
1387
1357
-11
-1033
-747
-192
-103
-116
-60
-67
-72
-38
-30
-32
-17
-5
4
16
30
47
71
97
125
155
191
242
305
362
403
430
441
439
420
371
287
194
110
34
-29
-73
-103
-124
-134
-136
-132
-124
-115
-109
-108
-107
-101
-97
-98
-100
-98
-98
-101
-105
-109
-112
-112
-111
-113
-115
-115
-120
-127
-130
-136
-144
-136
-115
-90
-65
-51
-60
-84
-98
-90
-92
-103
-88
-85
-105
-90
-98
-10
612
1352
969
-325
-897
-452
-92
-119
-117
-72
-91
-84
-56
-58
-54
-36
-30
-20
-3
9
23
47
71
96
133
177
225
281
335
373
396
406
397
367
313
235
149
75
10
-48
-82
-96
-112
-124
-120
-114
-114
-112
-107
-107
-107
-100
-97
-99
-100
-100
-103
-107
-108
-108
-110
-112
-111
-111
-111
-109
-110
-116
-120
-122
-131
-139
-131
-111
-86
-58
-39
-44
-67
-86
-82
-77
-86
-77
-61
-79
-78
-76
-82
305
1107
1208
136
-752
-553
-109
-71
-105
-50
-54
-65
-38
-31
-31
-16
-7
-2
10
21
34
55
76
100
133
171
211
257
309
355
386
399
395
375
338
275
193
111
43
-15
-62
-88
-101
-111
-116
-112
-108
-110
-109
-104
-101
-103
-106
-105
-104
-107
-112
-112
-111
-113
-116
-115
-112
-110
-111
-110
-110
-113
-113
-111
-112
-117
-122
-128
-127
-107
-77
-52
-34
-26
-45
-77
-82
-70
-78
-78
-58
-70
-76
-62
-96
129
873
1266
446
-632
-700
-213
-54
-98
-63
-50
-64
-40
-26
-30
-16
-4
-5
3
20
34
50
70
94
121
153
191
237
286
332
367
389
396
387
357
302
227
149
80
16
-39
-76
-96
-109
-111
-107
-106
-107
-102
-98
-99
-96
-94
-98
-103
-102
-103
-106
-106
-110
-119
-119
-111
-109
-118
-123
-118
-115
-118
-119
-121
-127
-129
-125
-126
-131
-125
-104
-81
-64
-50
-45
-64
-90
-92
-90
-102
-87
-73
-102
-89
-75
-58
428
1287
1225
-77
-1006
-720
-202
-108
-112
-66
-70
-69
-43
-40
-35
-13
4
15
25
35
51
71
94
125
159
197
247
299
348
399
443
458
447
432
405
339
240
145
70
7
-48
-87
-109
-116
-116
-117
-119
-117
-109
-101
-100
-103
-104
-98
-93
-98
-106
-102
-96
-103
-115
-122
-120
-115
-117
-124
-124
-125
-131
-132
-128
-132
-134
-124
-108
-91
-69
-52
-60
-87
-97
-84
-88
-95
-76
-80
-90
-68
-88
128
950
1528
689
-712
-1000
-414
-109
-127
-91
-66
-86
-66
-47
-52
-37
-18
-13
-4
11
25
45
69
96
129
164
204
257
320
375
413
433
435
415
377
319
235
139
53
-19
-78
-118
-140
-157
-165
-162
-157
-155
-149
-139
-130
-126
-123
-121
-118
-115
-114
-115
-116
-116
-117
-117
-117
-118
-120
-119
-118
-126
-133
-133
-134
-135
-126
-108
-83
-56
-42
-56
-82
-91
-81
-81
-85
-65
-65
-86
-72
-83
46
709
1371
871
-375
-804
-345
-56
-100
-90
-54
-71
-57
-34
-36
-25
-9
-7
1
18
31
44
65
91
120
153
192
243
300
351
388
411
419
408
373
313
236
152
72
3
-51
-90
-113
-125
-131
-129
-124
-123
-122
-117
-109
-104
-102
-102
-103
-103
-103
-104
-107
-109
-108
-108
-109
-108
-107
-108
-107
-110
-116
-120
-125
-133
-131
-112
-90
-68
-47
-41
-61
-91
-99
-90
-94
-94
-75
-83
-92
-75
-100
85
802
1296
582
-555
-728
-246
-64
-118
-83
-61
-82
-60
-40
-43
-30
-16
-14
-3
14
27
39
57
79
109
147
190
239
293
344
378
396
405
398
360
297
221
140
66
3
-52
-90
-107
-116
-125
-129
-125
-121
-117
-112
-111
-112
-109
-106
-107
-108
-107
-105
-103
-103
-108
-113
-115
-114
-111
-111
-118
-124
-122
-123
-128
-128
-125
-123
-118
-104
-77
-49
-40
-53
-76
-87
-85
-86
-81
-64
-81
-96
-58
-73
64
794
1457
820
-550
-981
-462
-110
-105
-82
-52
-66
-49
-32
-37
-28
-12
-1
15
29
38
56
79
98
125
167
217
268
319
369
411
442
457
448
418
370
297
202
103
20
-44
-88
-119
-140
-146
-140
-137
-142
-142
-136
-134
-132
-121
-110
-109
-110
-109
-108
-111
-118
-123
-122
-119
-123
-127
-124
-122
-127
-132
-134
-140
-145
-139
-124
-103
-78
-58
-56
-78
-101
-94
-83
-95
-89
-77
-95
-79
-74
-28
541
1430
1262
-156
-1064
-695
-172
-113
-117
-67
-83
-82
-47
-45
-43
-22
-14
-9
9
25
40
61
83
109
148
193
239
294
357
410
437
442
439
420
366
281
186
98
21
-44
-96
-128
-138
-142
-148
-150
-144
-133
-125
-119
-116
-113
-110
-105
-104
-106
-105
-104
-107
-107
-106
-111
-117
-116
-113
-117
-125
-127
-125
-131
-142
-142
-129
-111
-86
-55
-41
-60
-89
-95
-83
-88
-94
-75
-78
-91
-79
-101
94
842
1386
671
-548
-785
-283
-68
-124
-91
-62
-86
-71
-50
-50
-38
-26
-25
-13
5
17
32
52
74
101
139
182
230
285
339
377
397
404
398
367
305
220
130
53
-8
-58
-94
-114
-126
-134
-137
-135
-133
-129
-124
-119
-113
-108
-108
-105
-97
-96
-99
-100
-102
-105
-102
-99
-101
-101
-97
-97
-100
-102
-103
-105
-110
-117
-118
-101
-73
-47
-26
-14
-26
-53
-61
-52
-60
-68
-44
-39
-58
-46
-65
39
662
1299
829
-346
-734
-290
-29
-81
-64
-32
-61
-47
-15
-16
-12
2
7
14
26
35
50
72
94
118
145
179
228
289
340
375
401
411
401
381
338
263
174
93
23
-34
-73
-99
-116
-125
-129
-123
-115
-116
-119
-114
-111
-110
-104
-102
-108
-110
-110
-116
-118
-119
-126
-128
-123
-127
-136
-131
-117
-118
-132
-136
-128
-128
-137
-139
-138
-142
-141
-134
-120
-95
-67
-56
-72
-102
-116
-105
-108
-115
-96
-100
-117
-92
-109
32
778
1477
842
-584
-1051
-509
-139
-145
-122
-84
-103
-91
-64
-62
-54
-40
-33
-19
-3
7
27
55
78
105
146
190
232
285
344
393
426
443
436
412
371
303
209
112
29
-35
-77
-106
-130
-141
-134
-121
-112
-105
-100
-95
-84
-73
-68
-62
-54
-51
-49
-41
-34
-36
-41
-45
-43
-38
-36
-34
-28
-24
-24
-21
-15
-9
-3
0
-3
-8
