# session 4
-76
-45
-154
-41
404
720
720
666
644
576
504
486
495
456
355
317
380
422
420
414
366
313
315
287
209
226
256
67
46
784
1550
1112
37
-268
55
153
74
80
57
17
60
95
85
97
104
82
86
126
150
156
179
218
249
266
274
271
262
257
240
191
125
69
23
-19
-51
-68
-83
-97
-98
-102
-124
-138
-140
-150
-134
-72
-40
-72
-111
-142
-164
-157
-163
-183
-217
-360
-298
414
1036
472
-565
-713
-290
-185
-268
-240
-226
-246
-226
-218
-220
-190
-164
-171
-175
-147
-97
-55
-18
31
66
87
131
174
165
144
159
162
111
40
-15
-61
-100
-118
-119
-123
-134
-138
-139
-147
-145
-123
-97
-80
-73
-77
-86
-103
-111
-98
-97
-92
-98
-237
-229
410
1036
504
-619
-869
-357
-76
-92
-67
-39
-45
-20
-1
-2
15
41
62
88
110
128
157
194
236
286
334
358
363
363
358
348
317
240
143
66
10
-36
-66
-89
-104
-107
-113
-129
-137
-140
-145
-128
-91
-77
-83
-89
-108
-121
-105
-110
-131
-136
-244
-271
297
1012
676
-425
-823
-402
-125
-149
-131
-100
-115
-94
-78
-97
-84
-37
-9
3
30
63
87
120
175
230
273
307
320
315
316
316
280
207
129
66
9
-47
-79
-94
-125
-157
-159
-159
-179
-192
-189
-173
-130
-98
-114
-133
-130
-137
-135
-119
-112
-122
-239
-250
445
1372
1035
-363
-973
-489
-113
-127
-98
-53
-78
-51
-14
-32
-27
10
21
50
123
156
145
190
268
290
286
314
339
328
301
278
234
150
54
-16
-71
-110
-111
-105
-131
-162
-167
-165
-163
-159
-169
-167
-127
-100
-110
-113
-119
-137
-119
-109
-135
-161
-266
-185
610
1399
783
-607
-963
-391
-112
-171
-127
-83
-112
-90
-54
-62
-56
-13
24
37
49
83
135
183
226
266
289
282
272
272
249
192
132
74
1
-54
-72
-81
-91
-96
-114
-141
-151
-158
-175
-182
-167
-135
-99
-77
-81
-112
-138
-122
-114
-158
-159
-171
-275
20
906
1184
172
-740
-538
-101
-92
-127
-69
-78
-73
-29
-38
-60
-35
3
32
60
89
119
147
178
223
266
283
269
245
226
209
172
110
53
16
-20
-63
-92
-99
-102
-110
-118
-133
-151
-152
-138
-123
-100
-68
-54
-61
-81
-98
-87
-74
-91
-108
-188
-252
173
918
835
-178
-721
-366
-63
-114
-111
-51
-73
-79
-47
-38
-30
-10
6
26
51
78
118
163
201
237
267
280
282
270
245
231
219
168
89
28
-9
-44
-73
-92
-112
-127
-136
-151
-160
-151
-155
-165
-141
-107
-110
-133
-155
-161
-143
-144
-156
-177
-309
-245
507
1191
542
-728
-968
-397
-139
-178
-122
-83
-108
-94
-74
-73
-50
-25
-12
16
64
104
130
169
231
279
289
290
298
289
269
257
208
107
28
-7
-65
-117
-86
-63
-119
-144
-101
-71
-59
-78
-136
-120
-26
-4
-46
-50
-35
-26
-30
-64
-56
-69
-176
174
1187
1469
140
-1150
-936
-197
-46
-123
-56
-36
-76
-55
-26
-34
-30
6
40
55
82
137
187
229
281
328
353
363
360
345
318
261
169
66
-24
-87
-122
-136
-141
-150
-162
-163
-161
-165
-160
-164
-186
-174
-128
-115
-136
-156
-164
-143
-137
-165
-155
-206
-268
280
1262
1136
-315
-1173
-695
-147
-125
-136
-64
-70
-78
-54
-44
-22
6
22
55
97
124
161
216
260
298
335
339
317
311
306
261
181
90
6
-59
-102
-136
-157
-160
-160
-161
-158
-167
-183
-182
-164
-150
-137
-131
-138
-151
-156
-150
-148
-159
-131
-142
-363
-326
559
1299
519
-805
-927
-295
-97
-174
-118
-89
-122
-100
-65
-51
-35
-18
15
53
69
91
140
185
216
252
282
279
260
260
257
214
143
80
29
-8
-32
-63
-98
-104
-92
-99
-118
-122
-122
-136
-137
-103
-66
-57
-65
-81
-85
-58
-58
-89
-100
-210
-234
441
1322
930
-417
-869
-303
11
-75
-47
17
-11
-5
17
7
23
56
70
94
138
170
192
231
280
309
316
317
312
288
246
196
134
56
-17
-67
-99
-119
-125
-129
-145
-163
-168
-171
-176
-177
-174
-156
-121
-97
-101
-123
-139
-123
-114
-143
-152
-224
-354
48
1020
1168
-15
-890
-556
-90
-102
-118
-30
-42
-58
-21
-11
0
45
77
92
119
155
189
227
269
305
323
324
318
309
281
234
181
129
74
19
-27
-57
-74
-87
-102
-120
-138
-146
-146
-154
-163
-148
-113
-101
-118
-136
-149
-161
-169
-173
-164
-238
-408
-179
628
920
7
-876
-687
-192
-128
-176
-122
-119
-140
-120
-114
-108
-61
-20
-19
-14
13
43
88
145
180
194
198
182
167
178
175
127
63
6
-39
-71
-108
-150
-157
-149
-167
-180
-162
-157
-168
-150
-113
-90
-74
-59
-63
-92
-95
-58
-64
-96
-95
-192
-191
463
1207
715
-530
-843
-281
-11
-83
-42
13
-8
15
51
47
55
81
106
136
168
209
258
278
280
314
363
373
362
366
365
326
248
160
85
23
-27
-58
-79
-101
-106
-99
-116
-134
-127
-130
-135
-102
-69
-79
-97
-115
-123
-98
-96
-122
-119
-210
-202
544
1482
1014
-539
-1141
-528
-71
-82
-47
24
0
5
47
48
34
45
82
123
147
174
221
268
309
346
354
328
300
284
255
188
80
-38
-124
-177
-225
-261
-270
-268
-272
-271
-264
-260
-257
-260
-257
-220
-183
-186
-195
-206
-233
-223
-196
-211
-221
-296
-345
234
1202
1034
-373
-1117
-614
-149
-173
-163
-91
-124
-128
-80
-67
-59
-29
1
31
61
93
142
208
274
324
346
342
333
328
306
254
186
109
33
-26
-61
-84
-97
-106
-116
-124
-131
-136
-137
-137
-134
-112
-86
-86
-98
-112
-132
-125
-109
-130
-141
-211
-315
132
1132
1260
48
-824
-494
-60
-98
-124
-50
-63
-65
-27
-23
-13
25
50
72
111
152
193
236
277
313
336
334
312
287
267
234
175
99
29
-19
-48
-67
-80
-87
-94
-106
-117
-122
-120
-117
-108
-85
-59
-51
-60
-81
-107
-103
-87
-104
-117
-178
-278
65
907
1078
79
-719
-474
-77
-99
-134
-66
-74
-90
-62
-56
-52
-24
-4
13
39
64
92
131
170
204
230
237
221
195
169
143
99
37
-25
-73
-105
-117
-127
-144
-154
-156
-164
-175
-174
-165
-153
-133
-110
-102
-112
-130
-150
-151
-134
-142
-157
-191
-331
-227
566
1204
507
-683
-813
-258
-86
-161
-105
-74
-104
-75
-40
-35
-12
22
48
81
120
157
201
249
288
313
330
335
317
281
250
213
139
43
-36
-80
-103
-120
-133
-141
-149
-163
-173
-168
-154
-146
-144
-132
-108
-93
-101
-122
-136
-118
-104
-126
-128
-184
-263
234
1256
1278
-140
-1104
-661
-79
-71
-93
-1
-16
-38
12
41
44
60
90
133
170
189
222
279
332
373
407
414
394
376
362
308
209
109
26
-47
-93
-114
-130
-143
-152
-162
-171
-178
-182
-178
-177
-180
-160
-133
-133
-149
-169
-181
-163
-161
-186
-188
-279
-308
333
1234
903
-478
-1028
-469
-94
-163
-148
-82
-105
-95
-59
-54
-35
1
28
62
99
131
172
221
269
310
331
323
298
271
245
203
132
46
-21
-60
-90
-111
-115
-113
-119
-129
-134
-137
-139
-133
-124
-107
-78
-57
-58
-74
-101
-116
-98
-99
-117
-133
-247
-212
484
1218
721
-471
-755
-252
-52
-140
-104
-61
-86
-68
-43
-45
-28
-4
11
38
69
96
130
170
208
237
251
243
220
198
173
134
79
16
-42
-83
-106
-124
-139
-148
-153
-160
-172
-183
-187
-179
-165
-145
-119
-103
-107
-119
-139
-157
-143
-129
-144
-148
-227
-299
181
1041
969
-177
-798
-383
-22
-81
-84
-17
-36
-26
23
30
33
62
89
112
142
182
230
271
306
348
375
362
334
321
308
263
185
103
31
-35
-85
-104
-116
-138
-151
-150
-166
-192
-192
-174
-172
-172
-151
-122
-109
-113
-131
-163
-163
-127
-143
-171
-163
-273
-210
619
1409
684
-782
-1062
-384
-86
-150
-92
-53
-94
-59
-9
-18
-9
29
55
85
132
177
225
283
330
369
407
414
389
374
348
272
168
74
-4
-60
-97
-124
-135
-134
-139
-143
-144
-153
-162
-153
-146
-156
-154
-125
-105
-105
-114
-135
-143
-128
-140
-141
-138
-256
-113
775
1406
474
-953
-1057
-326
-63
-140
-89
-53
-80
-51
-19
-14
12
40
55
90
139
187
239
290
332
365
381
380
368
338
287
216
123
19
-62
-110
-136
-152
-166
-179
-186
-187
-186
-188
-193
-193
-190
-194
-187
-153
-126
-131
-146
-166
-179
-156
-153
-180
-176
-250
-255
402
1273
892
-463
-940
-376
-50
-136
-114
-55
-82
-68
-33
-31
-9
27
47
74
112
148
190
243
293
329
343
338
321
297
267
224
153
68
-2
-45
-69
-82
-93
-101
-102
-105
-117
-127
-131
-136
-139
-129
-115
-94
-61
-45
-62
-85
-105
-104
-88
-101
-114
-128
-240
-104
678
1227
495
-585
-638
-157
-59
-128
-73
-61
-85
-54
-36
-40
-17
11
29
59
92
122
159
201
237
264
277
269
247
222
192
142
66
-15
-78
-115
-135
-152
-167
-174
-177
-183
-188
-192
-198
-207
-205
-189
-169
-147
-117
-98
-99
-106
-120
-136
-120
-108
-125
-125
-202
-248
311
1209
1028
-266
-914
-441
-44
-93
-86
-19
-52
-51
-2
-2
1
50
91
105
125
170
221
259
299
353
393
396
382
370
347
298
216
122
39
-27
-79
-110
-123
-128
-130
-134
-146
-163
-172
-173
-169
-160
-157
-164
-156
-128
-116
-121
-117
-125
-139
-129
-142
-162
-141
-220
-147
678
1500
778
-790
-1155
-431
-58
-130
-101
-46
-72
-57
-16
-5
10
39
70
106
146
194
243
289
345
399
417
414
421
408
352
272
171
54
-40
-96
-137
-162
-169
-176
-185
-184
-181
-182
-183
-184
-183
-176
-179
-190
-173
-130
-113
-121
-126
-149
-162
-128
-129
-156
-148
-224
-103
733
1413
574
-842
-996
-306
-69
-153
-93
-55
-90
-63
-30
-33
-13
22
49
80
119
158
202
252
301
335
347
342
327
306
269
202
106
10
-63
-111
-138
-153
-162
-170
-173
-172
-172
-176
-181
-184
-185
-181
-180
-178
-149
-106
-100
-118
-134
-152
-145
-124
-144
-150
-170
-277
16
972
1344
260
-831
-648
-101
-68
-136
-55
-42
-59
-21
-2
5
38
68
94
131
169
210
260
309
349
379
389
372
344
316
274
200
110
29
-30
-68
-89
-100
-109
-114
-116
-118
-124
-132
-137
-141
-146
-144
-135
-125
-102
-67
-54
-71
-90
-105
-109
-93
-102
-113
-119
-225
-133
604
1220
580
-551
-702
-202
-52
-130
-86
-61
-90
-72
-53
-54
-32
-3
15
38
69
106
147
189
231
271
291
290
284
275
245
188
110
26
-41
-83
-113
-134
-144
-148
-156
-162
-159
-157
-167
-178
-177
-175
-177
-170
-155
-133
-109
-101
-109
-129
-157
-150
-113
-125
-148
-146
-250
-122
742
1406
558
-807
-926
-267
-64
-155
-93
-44
-65
-42
-15
-4
22
42
58
97
149
196
245
295
337
371
401
413
399
381
349
265
145
47
-28
-96
-132
-139
-154
-168
-167
-166
-169
-167
-168
-169
-162
-154
-154
-151
-149
-145
-117
-86
-83
-93
-107
-119
-98
-89
-119
-103
-141
-172
438
1427
1164
-410
-1205
-614
-74
-99
-104
-30
-53
-56
-16
-9
-1
32
66
97
127
165
212
260
312
364
397
403
391
369
339
282
186
73
-20
-84
-125
-153
-169
-174
-175
-178
-179
-179
-183
-187
-185
-185
-188
-190
-189
-176
-143
-117
-120
-137
-158
-173
-150
-135
-156
-145
-196
-253
286
1237
1116
-224
-949
-477
-57
-117
-120
-40
-58
-59
-17
-6
7
40
65
93
132
172
213
260
314
361
385
382
361
337
304
247
163
72
-6
-60
-91
-106
-114
-120
-124
-127
-127
-128
-131
-133
-134
-137
-139
-132
-120
-99
-64
-39
-52
-79
-102
-118
-106
-95
-118
-120
-166
-242
168
1037
1095
-28
-804
-486
-83
-115
-142
-74
-86
-93
-58
-51
-44
-14
8
29
60
94
130
173
219
266
305
317
298
273
249
210
143
54
-38
-99
-124
-140
-163
-177
-178
-174
-179
-187
-188
-187
-195
-198
-194
-193
-186
-167
-146
-120
-99
-102
-118
-137
-148
-129
-124
-149
-132
-178
-228
311
1222
1054
-286
-981
-495
-62
-104
-110
-48
-65
-50
-10
-15
-7
33
65
96
133
164
205
264
319
359
390
406
398
377
347
284
178
66
-20
-82
-128
-150
-160
-177
-190
-189
-182
-183
-185
-182
-182
-186
-188
-174
-153
-158
-175
-148
-93
-84
-100
-99
-109
-116
-102
-109
-93
-107
-168
302
1352
1432
-59
-1176
-749
-71
-26
-77
10
16
-1
40
69
82
104
126
162
212
255
292
349
421
477
506
523
525
505
472
413
310
185
66
-26
-71
-90
-111
-130
-134
-127
-123
-127
-134
-139
-148
-154
-151
-148
-155
-166
-164
-138
-110
-107
-120
-140
-166
-158
-127
-144
-152
-147
-237
25
985
1418
264
-1026
-893
-212
-97
-179
-104
-86
-111
-78
-61
-64
-36
-4
18
50
90
132
177
224
270
304
314
303
279
247
196
113
4
-99
-171
-213
-239
-253
-259
-260
-257
-260
-265
-264
-263
-268
-270
-268
-270
-270
-264
-255
-228
-189
-180
-196
-204
-215
-215
-193
-200
-208
-198
-286
-147
688
1335
564
-698
-826
-255
-93
-174
-111
-73
-96
-66
-34
-23
7
40
68
109
151
190
241
300
352
396
422
423
411
393
359
302
227
144
79
47
35
33
39
46
52
59
65
70
77
83
85
86
93
