# session 1
49
11
49
184
94
-225
-222
114
257
193
198
227
200
189
195
187
186
189
185
187
193
194
195
201
213
228
239
253
275
296
313
335
348
339
326
322
313
287
242
167
83
23
-24
-69
-94
-108
-127
-136
-138
-155
-166
-150
-144
-162
-168
-159
-157
-165
-176
-189
-185
-175
-183
-193
-186
-174
-159
-132
-104
-106
-140
-163
-163
-170
-159
-135
-154
-145
-123
-156
240
1246
1527
285
-897
-738
-180
-101
-142
-88
-98
-118
-93
-82
-72
-59
-62
-54
-31
-20
-3
23
35
48
81
108
121
143
183
219
233
239
258
271
256
230
211
170
98
25
-36
-93
-137
-154
-153
-158
-172
-179
-176
-169
-165
-160
-154
-152
-153
-150
-146
-149
-152
-144
-140
-154
-166
-160
-145
-125
-95
-69
-74
-103
-114
-104
-111
-105
-76
-94
-109
-87
-120
181
1132
1604
571
-682
-681
-136
-37
-101
-42
-36
-59
-28
-17
-22
-4
4
2
19
39
46
58
79
97
113
132
156
183
213
241
263
277
280
277
270
256
228
180
116
51
-5
-49
-81
-102
-112
-117
-120
-121
-120
-119
-118
-115
-112
-114
-115
-111
-111
-115
-117
-121
-131
-140
-146
-147
-135
-115
-94
-69
-57
-81
-109
-103
-101
-111
-91
-83
-112
-98
-111
-59
563
1404
1137
-114
-690
-291
-18
-102
-101
-54
-81
-74
-46
-54
-48
-28
-26
-19
-2
7
15
30
43
61
85
106
127
156
189
211
223
230
234
231
221
203
171
124
71
17
-37
-76
-94
-106
-117
-119
-117
-119
-121
-119
-117
-116
-115
-114
-115
-114
-113
-116
-119
-116
-118
-126
-133
-136
-142
-140
-120
-88
-60
-46
-59
-88
-98
-95
-103
-94
-74
-90
-91
-88
-110
246
1074
1279
282
-625
-476
-62
-47
-103
-58
-63
-77
-47
-38
-44
-32
-20
-13
-1
10
23
40
56
71
91
110
129
153
178
202
221
229
230
232
233
224
200
162
111
58
9
-30
-55
-69
-82
-94
-100
-103
-102
-102
-103
-105
-106
-106
-107
-105
-106
-111
-112
-108
-107
-111
-114
-112
-111
-117
-131
-137
-121
-97
-75
-49
-38
-64
-91
-83
-86
-101
-78
-68
-99
-88
-101
-44
553
1331
1037
-179
-735
-340
-33
-75
-75
-40
-62
-55
-40
-45
-28
-15
-30
-23
6
18
25
46
63
73
92
115
134
159
194
217
220
224
232
232
226
216
186
142
95
43
-14
-59
-82
-93
-108
-115
-108
-108
-122
-129
-127
-131
-132
-124
-118
-120
-120
-114
-114
-123
-127
-127
-125
-119
-119
-132
-137
-128
-121
-109
-83
-53
-39
-56
-81
-87
-89
-85
-60
-72
-104
-67
-74
6
718
1561
1095
-358
-930
-401
-27
-71
-65
-22
-43
-28
3
-5
-6
8
14
25
41
49
56
67
79
95
120
143
161
188
222
245
260
272
264
243
247
255
212
138
78
23
-42
-93
-116
-131
-145
-151
-152
-151
-149
-152
-156
-141
-123
-137
-157
-143
-125
-132
-140
-135
-134
-139
-139
-134
-136
-143
-146
-141
-130
-111
-77
-48
-55
-85
-92
-89
-97
-81
-66
-93
-80
-76
-73
476
1465
1414
2
-923
-534
-45
-64
-91
-26
-43
-51
-21
-22
-23
-7
-1
10
25
27
35
62
80
84
99
129
150
167
195
227
244
250
252
247
232
210
182
143
85
18
-36
-69
-97
-123
-135
-134
-129
-124
-123
-125
-121
-111
-113
-125
-125
-113
-113
-124
-124
-118
-120
-120
-115
-118
-128
-131
-133
-139
-135
-117
-96
-72
-46
-47
-77
-85
-72
-85
-94
-70
-79
-92
-73
-102
139
998
1534
680
-541
-646
-137
-19
-101
-54
-36
-64
-41
-28
-35
-19
-1
-3
1
16
32
46
54
62
80
106
128
150
181
204
214
224
235
232
218
201
183
158
114
48
-13
-46
-65
-87
-107
-117
-114
-110
-115
-119
-115
-109
-110
-114
-114
-110
-107
-108
-111
-112
-111
-110
-106
-101
-105
-115
-118
-117
-123
-133
-134
-122
-100
-73
-48
-32
-43
-69
-77
-78
-88
-76
-66
-92
-84
-82
-64
423
1263
1223
67
-684
-379
-12
-47
-73
-23
-45
-53
-22
-21
-22
-6
0
1
12
22
35
51
62
76
95
109
127
154
178
197
221
238
232
217
211
203
181
144
95
40
-7
-41
-68
-87
-95
-98
-99
-98
-101
-105
-104
-101
-101
-103
-104
-106
-107
-104
-101
-104
-110
-113
-112
-110
-109
-108
-110
-110
-103
-99
-101
-100
-98
-104
-115
-123
-124
-110
-81
-55
-33
-23
-41
-65
-64
-70
-81
-60
-59
-84
-62
-83
-18
617
1376
999
-236
-717
-272
12
-60
-61
-14
-30
-23
-3
-11
-5
18
27
27
34
47
61
75
85
99
120
146
173
200
220
233
241
246
250
250
235
217
204
177
124
61
5
-34
-53
-62
-74
-86
-88
-84
-86
-91
-88
-85
-98
-110
-103
-95
-100
-101
-99
-104
-109
-109
-109
-107
-102
-107
-116
-104
-92
-111
-134
-129
-123
-125
-118
-102
-69
-30
-36
-84
-101
-87
-99
-101
-73
-93
-114
-80
-106
135
1045
1605
617
-789
-910
-276
-71
-138
-84
-59
-88
-69
-52
-60
-52
-39
-33
-27
-24
-9
19
28
21
41
79
110
135
162
183
201
218
232
237
231
222
208
173
107
25
-46
-95
-132
-163
-180
-175
-167
-169
-167
-154
-135
-122
-126
-129
-112
-102
-114
-120
-111
-101
-92
-91
-100
-103
-93
-86
-83
-86
-96
-93
-69
-39
-12
2
-13
-32
-27
-31
-44
-19
-16
-43
-13
-20
83
852
1740
1218
-358
-966
-376
28
-31
-19
39
10
13
42
37
38
49
56
73
88
89
96
115
130
139
153
177
208
235
255
271
289
297
289
270
249
225
186
125
49
-24
-78
-116
-146
-168
-174
-170
-166
-170
-174
-168
-158
-159
-166
-168
-165
-162
-160
-163
-169
-173
-173
-173
-174
-176
-183
-189
-183
-168
-147
-118
-93
-100
-129
-136
-130
-141
-133
-113
-139
-138
-117
-135
263
1226
1484
301
-808
-642
-123
-83
-142
-84
-89
-105
-71
-62
-63
-44
-36
-32
-17
-3
12
33
51
65
84
109
133
158
187
214
234
246
248
239
229
214
180
133
78
13
-45
-79
-99
-115
-120
-120
-120
-118
-115
-113
-109
-107
-106
-100
-93
-97
-108
-111
-106
-99
-95
-98
-102
-107
-118
-129
-124
-100
-74
-49
-25
-23
-53
-74
-66
-68
-69
-46
-53
-66
-41
-67
119
911
1512
794
-431
-635
-141
20
-64
-30
-6
-33
-12
11
7
13
24
29
40
49
57
68
81
96
112
126
144
169
192
211
230
242
247
243
230
211
188
151
92
27
-26
-63
-89
-105
-114
-121
-125
-123
-120
-118
-117
-115
-116
-119
-122
-126
-129
-129
-130
-134
-139
-141
-141
-145
-155
-163
-167
-168
-156
-131
-106
-85
-71
-88
-119
-120
-117
-131
-121
-111
-132
-114
-123
-107
456
1354
1217
-81
-833
-451
-55
-96
-116
-63
-89
-94
-57
-51
-51
-33
-25
-21
-6
11
26
42
63
85
103
120
146
179
208
232
250
257
255
250
239
221
193
149
88
25
-25
-55
-70
-81
-93
-101
-94
-81
-75
-78
-83
-82
-73
-63
-64
-73
-75
-68
-60
-56
-56
-62
-70
-73
-72
-71
-73
-78
-85
-86
-80
-72
-51
-12
-2
-37
-56
-43
-62
-82
-50
-54
-87
-56
-75
80
924
1685
942
-579
-966
-341
-11
-61
-34
2
-23
-10
5
-2
7
17
19
30
39
41
48
43
24
17
23
23
25
35
47
68
101
116
106
97
97
96
80
43
-10
-64
-101
-122
-138
-153
-161
-162
-162
-158
-149
-139
-128
-114
-101
-100
-105
-99
-91
-92
-90
-86
-91
-96
-91
-81
-72
-73
-85
-94
-96
-98
-93
-78
-59
-34
-5
-7
-41
-53
-46
-59
-52
-24
-52
-61
-27
-64
255
1251
1684
503
-839
-774
-133
-8
-73
-9
-6
-29
8
13
1
23
33
28
46
65
71
84
101
113
133
157
177
205
240
261
273
286
290
281
271
254
224
177
112
35
-31
-71
-98
-123
-136
-132
-129
-134
-133
-126
-118
-113
-112
-116
-117
-114
-115
-122
-125
-124
-126
-131
-133
-130
-128
-128
-129
-131
-136
-140
-145
-152
-152
-136
-113
-87
-61
-57
-83
-101
-95
-100
-102
-77
-86
-105
-84
-114
87
936
1574
794
-518
-721
-179
-13
-109
-69
-41
-73
-55
-34
-39
-29
-16
-11
0
15
27
42
57
72
91
112
133
159
188
213
233
245
248
246
236
216
187
147
90
24
-33
-75
-101
-115
-123
-127
-123
-113
-108
-107
-103
-98
-97
-96
-94
-95
-96
-95
-97
-100
-99
-100
-105
-103
-99
-101
-102
-98
-97
-102
-102
-100
-102
-106
-109
-115
-114
-102
-80
-50
-20
-13
-40
-65
-59
-58
-68
-52
-46
-67
-51
-66
5
625
1394
1066
-156
-676
-264
14
-57
-57
-17
-48
-45
-17
-20
-17
-2
2
7
21
33
41
55
70
84
102
125
150
174
199
223
240
247
247
239
223
203
176
129
67
7
-39
-71
-94
-110
-116
-115
-118
-121
-113
-104
-106
-112
-110
-107
-105
-102
-100
-103
-106
-105
-103
-99
-96
-94
-92
-91
-89
-87
-85
-85
-81
-76
-75
-72
-65
-59
-58
-60
-58
-51
-44
-43
-49
-59
-66
-63
-43
-16
10
32
40
16
-11
-9
-14
-24
0
-2
-29
-1
-20
75
799
1567
1010
-381
-808
-264
27
-48
-26
12
-23
-16
10
5
8
14
12
23
42
46
48
60
74
88
108
130
150
174
202
225
241
249
245
234
217
191
163
129
66
-12
-71
-112
-145
-165
-172
-178
-184
-181
-173
-166
-161
-156
-151
-152
-155
-153
-147
-148
-153
-151
-150
-157
-159
-149
-146
-151
-148
-138
-131
-127
-128
-132
-130
-122
-117
-116
-114
-110
-106
-109
-122
-131
-123
-104
-83
-51
-18
-17
-48
-60
-57
-69
-58
-29
-53
-58
-30
-70
259
1273
1714
520
-843
-784
-129
4
-70
-6
9
-17
8
17
14
35
48
47
61
75
83
96
119
143
164
185
205
230
263
296
318
333
342
337
316
294
268
222
157
85
12
-51
-92
-114
-129
-136
-135
-132
-127
-121
-117
-113
-107
-101
-99
-102
-105
-108
-109
-111
-115
-114
-111
-113
-118
-117
-115
-114
-112
-110
-109
-109
-109
-109
-108
-109
-112
-117
-127
-133
-122
-100
-77
-48
-27
-40
-71
-75
-67
-79
-72
-55
-77
-73
-68
-71
390
1331
1458
263
-693
-454
-10
-29
-89
-32
-40
-52
-20
-13
-15
2
10
13
25
40
52
66
82
96
111
132
156
182
206
228
251
266
260
248
243
229
194
149
77
-11
-68
-96
-137
-172
-166
-159
-177
-185
-167
-148
-145
-152
-159
-144
-116
-120
-138
-126
-124
-140
-119
-105
-153
-166
-110
-102
-134
-120
-105
-126
-134
-134
-129
-100
-103
-149
-159
-145
-139
-88
-26
-25
-39
-44
-64
-65
-58
-77
-63
-32
-44
-21
-3
17
472
1224
1143
98
-531
-239
84
43
8
66
77
69
65
28
12
61
111
110
89
86
108
127
110
87
107
154
179
181
201
240
258
247
238
240
243
229
190
132
65
-9
-81
-143
-182
-198
-205
-220
-231
-224
-225
-250
-266
-258
-257
-267
-261
-250
-264
-288
-289
-269
-261
-272
-271
-263
-267
-261
-240
-227
-211
-174
-134
-91
-33
19
56
83
89
84
100
110
91
97
111
80
80
71
56
564
1545
1581
221
-847
-644
-150
-59
-59
-6
-4
-3
21
15
0
11
31
39
42
54
65
69
71
66
79
139
210
242
255
291
341
380
401
403
388
367
332
257
147
51
-19
-93
-162
-199
-222
-236
-217
-179
-162
-166
-166
-158
-149
-151
-161
-151
-131
-144
-184
-198
-187
-186
-189
-179
-168
-170
-163
-129
-99
-108
-154
-184
-165
-152
-176
-168
-149
-169
-136
-111
-80
556
1637
1536
-54
-1126
-783
-248
-159
-115
-72
-123
-105
-39
-47
-69
-54
-33
-18
-7
6
38
70
82
101
138
170
195
232
288
348
379
384
406
426
393
339
293
217
115
30
-57
-154
-201
-190
-191
-224
-229
-199
-192
-203
-185
-162
-171
-184
-176
-166
-163
-163
-170
-173
-173
-191
-199
-164
-139
-152
-148
-116
-98
-96
-107
-131
-149
-155
-131
-95
-122
-139
-57
-75
1
809
1674
1060
-489
-1031
-515
-164
-126
-38
-13
-60
-20
19
-13
-12
18
16
27
69
83
73
88
117
127
147
207
257
274
320
393
403
381
409
437
411
367
304
205
112
29
-79
-169
-190
-193
-217
-218
-189
-177
-186
-175
-155
-153
-155
-148
-139
-142
-165
-168
-129
-128
-181
-185
-143
-147
-170
-153
-143
-164
-153
-112
-106
-125
-105
-67
-76
-105
-105
-107
-116
-80
-62
-98
-63
-48
-78
485
1557
1517
17
-969
-593
-108
-95
-69
20
-6
-33
0
30
38
23
23
55
68
65
96
125
123
135
174
217
263
313
348
377
419
459
475
469
456
436
387
297
204
131
33
-80
-136
-139
-153
-172
-160
-135
-125
-124
-120
-117
-118
-120
-119
-118
-110
-103
-117
-141
-143
-135
-145
-161
-152
-132
-138
-157
-147
-127
-138
-157
-145
-124
-123
-132
-133
-125
-121
-125
-129
-130
-125
-114
-107
-120
-138
-134
-132
-147
-142
-102
-73
-72
-82
-102
-118
-123
-141
-146
-107
-120
-162
-119
-138
-63
727
1624
1073
-457
-1002
-479
-156
-183
-138
-108
-148
-124
-90
-103
-100
-71
-54
-56
-52
-29
-3
14
35
64
92
127
172
207
238
290
346
373
390
418
419
375
332
296
222
110
21
-35
-95
-153
-163
-146
-155
-169
-143
-108
-100
-86
-54
-47
-60
-47
-19
-8
-5
4
