# session 6
12
-5
-16
158
317
272
351
632
743
666
648
686
671
617
588
599
591
528
465
431
401
375
368
356
341
388
491
521
447
394
376
284
156
92
47
1
29
85
78
97
188
211
135
105
146
154
111
80
84
86
42
-24
-13
39
-17
-92
-96
-134
241
1207
1054
-1038
-2388
-1324
-114
-243
-438
-183
-123
-208
-206
-235
-240
-182
-186
-207
-157
-103
-62
27
141
217
260
272
198
56
-20
2
5
-66
-164
-262
-328
-306
-249
-250
-272
-250
-226
-234
-229
-228
-280
-332
-348
-397
-452
-464
-509
-560
-578
-615
-177
1086
1764
578
-917
-899
-207
0
100
295
258
209
313
346
373
383
122
-67
221
562
623
699
842
848
805
833
852
810
748
682
550
380
304
209
93
357
412
-1043
-2917
-2621
-658
330
87
-5
141
74
-22
-40
-84
-91
-98
-171
-194
-233
-193
530
1531
1226
-242
-914
-473
-213
-324
-268
-206
-305
-327
-257
-233
-214
-155
-90
-64
-80
-22
100
107
139
284
182
76
316
-213
-1777
-2124
-663
246
-113
-347
-231
-286
-327
-233
-171
-131
-80
8
199
379
422
404
406
399
382
355
305
281
228
166
661
1745
1917
512
-690
-482
47
99
135
223
132
125
198
92
198
395
-586
-2350
-2414
-568
666
553
471
712
719
640
662
622
540
458
335
276
253
146
113
176
75
-53
-8
-132
-531
-785
-746
-531
-207
13
0
-56
-24
4
-44
-48
25
-29
150
1087
1640
575
-645
-679
-1026
-2341
-2650
-1350
-198
-26
-119
-67
-33
-42
-1
74
118
113
126
223
331
364
389
466
501
478
502
515
410
290
256
240
201
154
111
118
138
88
67
115
67
51
201
121
-43
256
28
-1444
-2091
-794
224
-7
252
1276
1385
216
-825
-829
-359
-168
-196
-183
-151
-116
-78
-87
-68
19
57
34
26
3
-17
56
146
155
171
234
245
204
206
237
194
81
4
-54
-123
-75
-57
-234
-137
50
-802
-1986
-1578
-286
-21
-355
-263
-137
-218
-169
-114
-170
-80
9
-11
568
1673
1675
268
-642
-255
267
303
230
225
261
367
442
373
290
366
462
384
331
430
487
571
654
464
578
1050
120
-1898
-1884
72
850
303
192
336
180
111
129
41
40
77
-10
-37
43
24
-39
-3
-14
-81
-50
-167
-571
-784
-736
-729
-115
1310
1732
266
-1076
-858
-202
-97
-135
-31
-12
-45
21
22
-58
86
119
-680
-1973
-2689
-2285
-998
199
478
290
361
495
422
320
249
165
99
19
-49
-32
-10
-6
93
207
204
190
242
267
238
202
195
225
235
192
137
87
85
83
-8
237
1058
1356
458
-406
-431
-164
169
39
-1233
-2139
-1174
50
38
-182
14
15
-133
-82
-8
24
128
223
257
286
302
330
405
417
303
216
228
212
111
8
-54
-82
-74
-42
-21
-42
-73
-28
51
31
-20
-7
-56
-101
7
-33
-188
-25
-123
-696
-195
1142
798
-813
-1101
-368
-212
-302
-113
-28
-74
-15
53
75
118
169
220
287
356
435
511
578
677
681
470
336
508
674
611
517
459
331
227
227
225
208
210
171
157
177
60
45
342
50
-1502
-2978
-2704
-1105
77
199
60
109
20
248
1331
1843
512
-1018
-984
-296
-163
-265
-219
-162
-117
-79
-122
-208
-258
-233
-134
-37
8
59
159
254
270
230
234
275
269
218
143
68
35
-63
-196
-70
-115
-1227
-2628
-2447
-948
-67
-186
-316
-250
-297
-310
-171
-107
-158
-130
-54
-67
-52
-16
-56
389
1461
1683
408
-614
-339
143
175
179
238
220
230
262
259
280
316
320
328
361
377
380
446
573
627
568
499
450
392
351
308
200
70
-9
-55
-81
-80
-88
-111
-99
-55
-38
-60
-67
-38
-14
-18
-45
-107
-157
-149
-172
-214
-205
-300
-170
846
1809
1025
-692
-1207
-612
-230
-177
-97
-84
-131
-86
-24
-43
-93
-118
-129
-137
-124
-79
-17
64
154
201
195
195
215
194
117
16
-101
-199
-217
-201
-226
-216
-102
9
43
44
43
68
130
138
65
22
13
-11
-1
6
-20
12
-20
-38
595
1483
1093
-304
-839
-388
-18
68
-385
-1366
-1538
-604
-56
-263
-358
-241
-150
-32
-16
-116
-69
105
200
212
205
181
147
142
205
237
119
-33
-57
-34
-56
-58
-18
-4
-1
13
-32
-133
-166
-122
-119
-180
-222
-200
-182
-246
-301
-274
-350
-393
215
1101
849
-476
-1185
-848
-508
-498
-446
-355
-321
-257
-189
-155
-92
-6
81
191
272
297
376
543
672
731
798
839
785
712
688
629
488
367
337
336
296
243
235
254
237
171
102
79
100
137
176
143
-68
-317
-367
-291
-241
-182
-235
-252
497
1589
1240
-480
-1388
-916
-439
-432
-396
-287
-275
-282
-249
-211
-194
-169
-76
45
104
140
213
259
256
280
314
290
246
238
244
211
88
-98
-162
-68
-51
-114
-86
-108
-179
-111
-367
-1163
-1433
-719
-143
-225
-346
-328
-346
-304
-227
-203
-244
-285
247
1361
1477
17
-1078
-727
-162
-116
-104
-5
4
41
160
246
256
260
319
370
357
365
447
531
575
600
644
680
609
514
530
472
258
171
172
67
77
-8
-719
-1351
-928
-177
-101
-270
-162
-100
-230
-275
-209
-190
-197
-181
-228
-288
-262
-316
-267
509
1410
932
-493
-1016
-546
-263
-262
-65
199
297
300
279
257
269
249
117
-32
-89
-88
-64
-4
79
141
132
117
175
31
-593
-1245
-1237
-685
-275
-269
-373
-363
-307
-273
-222
-144
-82
-49
-31
-29
-41
-52
-97
-153
-139
-127
-160
-110
-103
-109
581
1695
1510
-38
-869
-391
69
36
20
111
155
165
146
125
150
188
227
297
354
374
432
535
601
626
645
627
549
454
377
292
142
-32
-95
-52
-45
-89
-89
-57
-54
-65
-72
-89
-105
-101
-85
-76
-120
-185
-175
-166
-233
-230
-232
-274
376
1630
1588
-196
-1415
-1004
-398
-325
-285
-226
-273
-254
-202
-220
-205
-138
-97
-58
-11
40
135
247
299
316
351
357
309
251
186
92
-8
-88
-147
-175
-175
-180
-186
-182
-192
-213
-215
-207
-203
-188
-172
-174
-205
-253
-262
-242
-268
-271
-267
-333
50
1080
1351
65
-1069
-814
-280
-287
-318
-211
-218
-217
-133
-110
-113
-61
-15
-2
29
89
147
200
258
313
339
334
312
282
234
166
102
56
14
-16
-16
-11
-36
-52
-36
-40
-66
-50
-7
6
0
5
-9
-40
-36
-24
-68
-85
-94
-207
15
869
1264
366
-591
-488
-90
-99
-134
-41
-38
-58
-10
27
44
75
102
122
153
193
237
279
328
376
376
337
317
312
275
212
142
73
21
-11
-39
-64
-78
-91
-112
-130
-138
-138
-132
-123
-125
-137
-159
-193
-196
-174
-200
-226
-230
-301
-19
953
1440
342
-1018
-1053
-449
-280
-309
-234
-211
-214
-177
-175
-171
-122
-93
-81
-33
35
98
159
220
272
292
271
254
250
205
113
29
-34
-93
-137
-146
-139
-137
-134
-129
-136
-147
-150
-142
-135
-136
-150
-174
-189
-164
-130
-165
-190
-163
-268
-179
747
1612
813
-825
-1206
-513
-160
-188
-124
-93
-132
-86
-42
-56
-23
60
108
134
197
274
325
385
471
513
486
457
450
403
298
199
122
52
24
32
10
-26
-32
-42
-58
-50
-64
-90
-50
-8
-50
-86
-82
-103
-97
-79
-128
-173
-258
-303
340
1418
1262
-249
-1076
-603
-165
-206
-196
-125
-148
-140
-92
-67
-42
-24
-9
38
75
90
155
248
275
249
240
240
214
173
127
62
-15
-71
-98
-110
-111
-108
-119
-137
-138
-137
-155
-156
-123
-102
-117
-129
-131
-136
-129
-136
-185
-192
-203
-286
34
929
1182
103
-878
-678
-209
-200
-234
-139
-134
-152
-109
-89
-81
-41
-11
6
46
94
144
209
272
304
312
307
292
268
230
170
98
35
-3
-20
-35
-52
-62
-79
-113
-126
-104
-92
-104
-102
-77
-69
-95
-140
-163
-153
-158
-171
-177
-261
-164
524
1116
526
-563
-721
-228
-70
-141
-84
-54
-97
-81
-44
-32
-7
21
37
68
119
169
215
258
290
300
287
272
270
254
190
104
41
-7
-52
-77
-88
-107
-131
-150
-162
-169
-174
-166
-137
-110
-110
-122
-154
-183
-143
-104
-146
-165
-241
-365
146
1220
1235
-162
-1036
-597
-121
-156
-164
-84
-103
-102
-51
-38
-24
20
52
80
129
185
245
319
379
402
406
400
372
340
303
226
125
50
0
-35
-41
-36
-54
-76
-79
-83
-99
-108
-112
-113
-95
-63
-72
-126
-133
-96
-121
-145
-161
-315
-146
819
1398
354
-997
-966
-291
-137
-197
-108
-85
-112
-71
-50
-49
-8
33
65
114
161
215
296
354
358
347
329
296
270
242
170
75
8
-34
-72
-102
-120
-134
-145
-161
-180
-190
-203
-219
-206
-181
-180
-187
-200
-226
-216
-201
-235
-255
-332
-392
186
1179
1033
-362
-1088
-592
-179
-244
-226
-141
-173
-173
-124
-114
-91
-32
5
35
88
138
178
232
281
295
287
285
277
243
183
115
57
16
-7
-21
-28
-32
-49
-79
-98
-90
-84
-96
-94
-65
-42
-37
-48
-77
-77
-49
-66
-82
-113
-254
-21
938
1394
317
-889
-768
-163
-66
-109
-11
8
-17
24
53
61
92
125
154
198
247
292
338
369
376
365
341
312
287
244
166
80
25
-6
-41
-77
-90
-90
-103
-117
-115
-131
-165
-165
-130
-113
-121
-131
-151
-171
-153
-147
-177
-176
-262
-381
144
1172
1124
-256
-1063
-608
-165
-221
-225
-145
-166
-162
-111
-102
-91
-52
-21
7
50
101
162
225
262
265
248
223
202
175
122
53
6
-24
-58
-83
-93
-103
-112
-112
-113
-122
-130
-132
-118
-85
-62
-69
-100
-134
-128
-99
-118
-135
-184
-339
-92
849
1270
307
-682
-536
-110
-121
-167
-99
-108
-117
-84
-87
-85
-48
-18
12
54
102
160
208
226
229
228
219
207
193
162
109
52
16
6
4
1
1
-3
-13
-21
-33
-40
-31
-22
-25
-21
-14
-33
-80
-110
-111
-126
-142
-169
-312
-304
294
881
425
-533
-711
-289
-124
-172
-132
-106
-128
-107
-78
-61
-26
10
37
82
138
184
223
268
305
313
311
319
322
290
220
139
79
42
13
-7
-18
-36
-61
-72
-77
-90
-93
-77
-62
-54
-39
-26
-56
-93
-64
-46
-95
-107
-170
-254
260
1217
1120
-232
-1039
-628
-145
-119
-141
-92
-50
-3
-17
-68
-36
32
51
81
150
202
242
301
354
363
341
311
271
226
172
77
-48
-140
-179
-198
-201
-190
-201
-225
-221
-207
-226
-253
-247
-229
-216
-198
-214
-273
-273
-222
-244
-257
-240
-346
-88
960
1473
252
-1196
-1153
-426
-202
-217
-135
-121
-127
-65
-43
-43
14
57
80
163
246
284
358
462
516
517
481
448
432
337
164
72
55
-6
-69
-75
-80
-80
-64
-87
-119
-92
-74
-105
-115
-89
-69
-67
-97
-128
-118
-126
-131
-109
-244
-210
661
1482
653
-944
-1222
-475
-133
-145
-40
-13
-69
-21
11
-8
49
114
120
167
245
277
329
428
482
466
437
394
331
267
180
50
-57
-88
-90
-114
-136
-135
-133
-148
-167
-185
-205
-222
-217
-202
-190
-180
-187
-207
-199
-203
-237
-226
-287
-372
159
1126
1010
-326
-1039
-569
-161
-221
-228
-154
-153
-124
-81
-90
-78
-16
43
80
122
179
240
292
330
342
325
302
281
234
161
87
24
-16
-27
-40
-66
-73
-65
-77
-104
-123
-129
-120
-104
-81
-47
-34
-76
-112
-85
-65
-89
-108
-201
-246
249
972
738
-333
-765
-323
-27
-83
-65
-4
-21
-9
29
33
46
84
117
149
195
248
302
351
386
391
364
333
310
271
204
131
76
38
7
-16
-32
-52
-81
-108
-128
-142
-151
-150
-131
-106
-97
-114
-152
-185
-181
-178
-202
-219
-308
-390
15
751
660
-385
-955
-559
-175
-200
-213
-148
-152
-154
-117
-96
-78
-45
-15
17
66
129
188
237
279
299
286
260
246
221
163
90
23
-33
-65
-75
-87
-110
-130
-142
-147
-145
-140
-130
-114
-101
-92
-82
-94
-127
-116
-87
-115
-124
-167
-322
-12
983
1259
17
-1086
-792
-155
-76
-111
-20
-13
-35
2
21
23
54
107
167
214
247
314
395
424
423
434
429
404
367
284
168
81
19
-38
-67
-68
-80
-105
-133
-150
-138
-122
-140
-157
-131
-106
-108
-115
-136
-153
-136
-141
-163
-171
-294
-296
418
1246
723
-697
-1125
-497
-122
-180
-165
-110
-121
-99
-67
-59
-30
12
50
99
157
213
269
317
345
342
313
293
284
239
149
65
8
-41
-75
-85
-89
-97
-103
-113
-124
-124
-124
-131
-123
-95
-75
-74
-92
-123
-125
-109
-126
-141
-221
-374
-26
952
1199
46
-919
-630
-117
-104
-136
-56
-62
-64
-15
-13
-19
30
85
122
167
219
270
321
362
373
350
309
271
233
179
115
55
4
-27
-34
-40
-60
-75
-83
-92
-98
-101
-103
-86
-59
-47
-44
-52
-83
-97
-85
-101
-123
-183
-340
-163
649
1080
270
-661
-566
-134
-117
-179
-111
-110
-132
-99
-86
-86
-56
-28
-9
27
75
121
160
188
200
189
156
124
104
69
8
-53
-90
-110
-127
-144
-155
-163
-173
-182
-181
-176
-169
-154
-131
-109
-95
-93
-117
-140
-123
-106
-115
-137
-274
-337
267
1126
840
-414
-907
-394
-52
-109
-95
-43
-60
-42
-7
-5
17
61
96
134
180
229
287
341
362
356
349
335
300
256
202
115
29
-11
-26
-47
-54
-51
-68
-83
-67
-62
-77
-67
-41
-25
-2
13
-1
-2
14
18
32
31
-37
