# session 41
-26
-47
30
-46
-362
-576
-516
-403
-355
-296
-236
-210
-184
-169
-206
-265
-312
-358
-404
-434
-444
-438
-420
-402
-391
-373
-340
-311
-292
-274
-250
-222
-198
-186
-172
-149
-137
-131
-112
-93
-82
-69
-60
-58
-47
-30
-20
-15
-9
-3
7
19
19
19
30
30
20
24
28
25
37
65
86
96
103
110
106
84
66
68
67
65
77
71
63
76
53
196
761
1153
603
-276
-424
-72
70
36
49
48
36
56
57
39
46
54
47
50
63
70
75
79
83
98
119
134
151
176
200
225
262
301
328
348
361
353
327
284
206
109
38
-11
-63
-103
-116
-128
-140
-138
-134
-135
-127
-120
-124
-127
-124
-121
-118
-120
-124
-118
-112
-121
-126
-118
-118
-127
-127
-123
-129
-136
-133
-126
-124
-121
-116
-116
-121
-119
-99
-71
-59
-70
-83
-93
-104
-104
-97
-103
-93
-70
-84
-92
-78
-85
141
721
920
230
-499
-467
-136
-55
-80
-56
-54
-65
-57
-53
-47
-33
-29
-27
-19
-12
-3
10
21
34
51
68
88
114
144
174
211
251
286
315
332
335
330
308
253
169
83
11
-44
-81
-109
-132
-139
-129
-119
-118
-117
-115
-116
-118
-121
-121
-118
-119
-122
-122
-124
-129
-128
-121
-122
-128
-132
-133
-136
-138
-140
-147
-151
-137
-109
-88
-80
-72
-67
-80
-104
-109
-95
-98
-105
-86
-85
-102
-77
-88
-16
548
1188
817
-294
-744
-361
-60
-60
-47
-14
-22
-10
8
4
9
24
32
45
62
75
85
98
116
140
164
185
211
245
281
324
371
412
445
474
489
481
451
392
298
195
105
31
-27
-69
-97
-116
-125
-124
-118
-122
-130
-122
-107
-105
-110
-109
-107
-107
-108
-108
-108
-109
-118
-128
-129
-137
-153
-146
-118
-103
-100
-93
-100
-122
-138
-142
-140
-143
-150
-140
-147
-171
-151
-160
-94
507
1289
999
-254
-875
-493
-148
-165
-159
-118
-140
-137
-111
-116
-111
-94
-93
-89
-72
-57
-45
-29
-15
0
24
55
89
122
160
206
254
293
319
336
344
337
304
237
139
43
-25
-77
-133
-174
-180
-177
-184
-187
-180
-169
-159
-152
-145
-128
-117
-120
-112
-97
-98
-103
-93
-91
-101
-96
-88
-101
-116
-117
-114
-99
-65
-34
-24
-28
-42
-66
-75
-56
-46
-58
-47
-30
-43
-34
-44
-28
442
1230
1175
70
-648
-362
-4
-22
-39
8
-18
-26
6
5
-1
20
32
33
42
52
57
68
87
106
124
146
175
205
238
277
318
350
367
372
377
379
352
287
202
110
24
-44
-94
-128
-146
-157
-163
-159
-149
-144
-147
-149
-139
-127
-120
-116
-114
-113
-110
-110
-112
-110
-107
-106
-103
-107
-118
-123
-126
-126
-111
-86
-66
-54
-53
-70
-95
-106
-99
-102
-113
-107
-114
-132
-99
-104
-92
382
1102
929
-187
-823
-500
-126
-96
-95
-70
-93
-83
-57
-66
-65
-49
-52
-53
-34
-19
-17
-10
12
40
55
67
106
155
183
200
233
278
317
338
340
333
314
262
178
83
-9
-83
-131
-166
-193
-198
-196
-207
-206
-186
-183
-188
-170
-151
-155
-153
-139
-139
-145
-138
-136
-148
-152
-139
-129
-140
-147
-128
-96
-78
-68
-60
-55
-56
-73
-91
-76
-64
-76
-57
-50
-82
-45
-19
11
568
1445
1278
-60
-886
-555
-90
-23
-29
6
-1
-3
31
65
78
82
74
61
89
157
187
180
199
226
238
260
286
314
368
416
421
448
512
526
485
465
442
346
215
111
30
-57
-151
-221
-256
-279
-293
-283
-275
-292
-302
-278
-253
-250
-243
-225
-222
-223
-202
-189
-206
-210
-178
-153
-163
-183
-184
-158
-136
-137
-143
-136
-124
-122
-134
-134
-116
-123
-145
-106
-72
-126
-135
-90
-80
330
1239
1393
170
-925
-777
-242
-112
-112
-51
-42
-41
-9
-3
-14
-9
7
29
44
44
45
54
58
69
99
129
145
165
200
242
288
323
335
346
365
363
329
276
200
110
26
-54
-130
-177
-202
-230
-240
-226
-222
-229
-216
-204
-215
-213
-187
-173
-178
-173
-160
-158
-162
-160
-156
-157
-159
-161
-161
-149
-131
-115
-97
-81
-78
-80
-89
-113
-117
-89
-88
-109
-106
-109
-109
-105
-125
181
1000
1320
316
-837
-837
-299
-144
-178
-135
-140
-169
-147
-135
-138
-123
-111
-99
-77
-60
-49
-27
-4
15
47
90
124
158
212
270
318
366
417
452
464
467
458
408
314
223
153
82
19
-13
-25
-12
54
126
159
197
256
289
313
374
439
461
459
456
451
447
440
426
416
411
395
383
390
395
381
363
344
320
307
310
318
327
321
282
230
179
119
66
25
-13
-44
-91
-144
-166
-174
54
701
955
-31
-1267
-1359
-823
-713
-870
-907
-950
-1031
-1061
-1097
-1146
-1152
-1141
-1135
-1111
-1073
-1035
-988
-924
-853
-784
-708
-618
-523
-426
-319
-207
-119
-66
-19
44
100
119
111
97
82
65
43
25
33
57
84
126
174
206
234
259
260
244
239
246
251
248
242
229
211
204
214
219
210
212
223
226
225
228
223
215
219
223
212
201
198
186
169
172
193
213
228
240
240
224
201
197
206
192
185
206
193
176
193
179
433
1221
1609
722
-349
-333
147
220
148
195
194
161
181
188
175
179
185
188
192
189
187
194
202
216
239
261
277
299
327
345
353
365
381
387
377
349
305
250
175
68
-50
-142
-204
-264
-330
-380
-404
-419
-440
-460
-468
-465
-467
-474
-469
-458
-464
-475
-477
-478
-472
-463
-467
-464
-446
-444
-449
-428
-409
-411
-407
-394
-386
-382
-376
-370
-362
-359
-356
-336
-301
-273
-256
-239
-231
-246
-259
-239
-220
-224
-205
-182
-193
-160
-133
-105
431
1382
1356
-8
-979
-664
-136
-54
-37
29
15
16
62
75
77
97
114
126
143
163
185
208
230
250
271
297
328
363
406
449
490
530
565
584
588
584
562
504
416
319
224
136
71
34
10
-8
-16
-15
-13
-12
-8
0
6
4
2
4
4
0
-2
-8
-21
-34
-43
-48
-51
-56
-67
-77
-80
-81
-84
-90
-103
-121
-134
-131
-121
-113
-102
-91
-94
-111
-130
-135
-125
-133
-142
-112
-109
-140
-135
-169
-24
778
1538
937
-395
-756
-270
-55
-115
-75
-58
-103
-94
-82
-94
-84
-71
-73
-65
-54
-50
-40
-21
-2
17
36
60
95
135
173
212
255
289
311
324
322
296
244
166
75
-13
-84
-138
-173
-196
-210
-216
-215
-211
-205
-197
-190
-184
-177
-169
-161
-153
-149
-148
-149
-147
-141
-137
-136
-133
-129
-130
-131
-130
-126
-119
-119
-126
-133
-140
-150
-147
-124
-101
-79
-48
-27
-32
-52
-62
-50
-44
-58
-45
-28
-56
-53
-52
-51
438
1369
1439
276
-565
-326
8
-52
-85
-28
-44
-49
-17
-16
-16
4
11
14
27
37
47
60
75
91
112
135
161
194
231
269
304
337
365
382
385
370
329
261
175
85
5
-56
-98
-129
-148
-156
-158
-159
-157
-154
-150
-144
-137
-134
-133
-130
-126
-125
-123
-119
-115
-115
-115
-113
-113
-114
-114
-113
-109
-104
-100
-97
-94
-97
-106
-116
-128
-136
-129
-111
-89
-59
-33
-33
-53
-71
-68
-61
-73
-72
-46
-62
-82
-65
-98
142
998
1531
723
-417
-514
-86
-24
-105
-58
-50
-74
-49
-37
-43
-28
-17
-14
-1
9
15
25
39
53
72
93
117
147
181
214
250
285
312
326
331
328
305
255
181
97
16
-49
-99
-136
-156
-165
-170
-170
-165
-159
-157
-154
-150
-146
-143
-141
-139
-136
-131
-127
-124
-123
-121
-118
-115
-114
-112
-108
-105
-104
-103
-102
-101
-100
-101
-107
-113
-122
-134
-128
-107
-86
-63
-36
-27
-43
-63
-64
-52
-57
-61
-35
-35
-57
-43
-75
64
826
1542
968
-294
-633
-177
4
-82
-53
-25
-54
-36
-15
-22
-12
2
4
14
27
33
46
65
80
96
117
140
166
195
227
260
291
313
327
336
335
315
271
203
120
38
-32
-85
-122
-146
-158
-160
-157
-154
-149
-143
-140
-141
-140
-136
-135
-134
-133
-132
-130
-126
-124
-123
-122
-120
-116
-114
-114
-114
-110
-107
-107
-107
-105
-103
-102
-100
-92
-88
-93
-102
-111
-122
-122
-103
-81
-58
-28
-10
-18
-41
-50
-40
-42
-48
-27
-31
-55
-39
-61
76
826
1550
987
-308
-679
-201
19
-61
-39
-10
-37
-19
3
-6
1
11
6
12
30
40
47
57
69
85
107
129
151
177
210
240
265
289
310
322
322
306
272
214
137
52
-27
-89
-129
-153
-168
-172
-168
-165
-161
-154
-148
-145
-142
-140
-139
-134
-127
-126
-128
-130
-126
-122
-120
-121
-121
-118
-114
-112
-111
-108
-105
-106
-107
-105
-100
-95
-93
-95
-98
-100
-108
-118
-110
-88
-64
-41
-19
-17
-38
-58
-54
-49
-60
-49
-36
-58
-47
-56
-80
385
1320
1402
172
-775
-519
-54
-34
-65
-9
-23
-36
-6
-3
-6
9
15
19
32
42
50
65
80
97
116
138
163
192
223
256
289
316
335
347
351
346
325
277
201
112
29
-42
-93
-124
-142
-151
-153
-150
-149
-147
-141
-135
-133
-131
-126
-123
-120
-116
-115
-118
-118
-115
-116
-118
-116
-112
-111
-113
-114
-113
-112
-110
-107
-104
-104
-102
-97
-94
-92
-88
-88
-95
-104
-111
-116
-108
-87
-62
-40
-23
-20
-39
-61
-57
-51
-61
-52
-41
-65
-58
-67
-93
351
1267
1381
217
-715
-495
-54
-35
-70
-20
-32
-43
-16
-15
-19
-2
5
6
15
27
39
55
72
87
103
119
141
168
199
230
260
289
312
327
331
324
306
267
200
115
31
-40
-93
-126
-144
-158
-165
-165
-161
-155
-150
-148
-147
-139
-131
-134
-140
-136
-129
-132
-136
-135
-132
-126
-119
-122
-127
-121
-114
-115
-111
-107
-111
-112
-105
-100
-103
-107
-103
-80
-49
-34
-28
-21
-38
-63
-52
-40
-59
-50
-33
-63
-47
-19
28
587
1503
1365
-76
-1031
-683
-142
-47
-34
14
-7
-9
18
14
16
42
54
55
65
75
84
98
110
125
153
181
206
234
266
303
351
397
420
425
431
432
402
331
232
116
1
-93
-157
-202
-238
-258
-258
-260
-270
-264
-241
-234
-248
-251
-240
-239
-239
-229
-227
-240
-242
-224
-212
-210
-209
-212
-223
-228
-223
-215
-196
-157
-114
-89
-87
-92
-112
-141
-138
-111
-102
-97
-108
-146
-120
-106
-103
448
1475
1507
124
-901
-616
-107
-56
-65
-8
-29
-26
27
26
9
31
43
40
56
58
38
56
106
130
136
155
182
211
252
305
350
372
390
428
453
437
387
304
193
91
7
-68
-121
-143
-154
-168
-173
-158
-149
-159
-159
-137
-124
-133
-138
-117
-93
-96
-115
-115
-95
-87
-103
-121
-111
-90
-98
-127
-139
-145
-163
-168
-140
-101
-74
-52
-37
-57
-100
-98
-66
-75
-86
-62
-59
-57
-77
-93
360
1282
1416
257
-702
-507
-71
-54
-87
-29
-53
-83
-45
-23
-29
-16
6
15
21
31
37
37
51
96
143
151
145
177
234
269
291
326
361
378
366
326
282
233
144
32
-48
-95
-139
-178
-202
-214
-213
-201
-198
-208
-212
-205
-201
-192
-172
-163
-180
-190
-164
-144
-161
-161
-130
-124
-140
-142
-151
-180
-192
-175
-164
-176
-158
-78
-19
-51
-94
-83
-68
-71
-73
-80
-78
-70
-71
-61
-90
16
708
1487
1077
-192
-651
-195
27
-99
-90
-46
-86
-62
-15
-27
-19
1
-19
-21
13
30
42
58
42
25
60
113
148
179
205
226
264
295
296
308
326
296
237
182
91
-26
-99
-133
-175
-207
-210
-211
-219
-213
-194
-191
-201
-203
-188
-176
-190
-211
-202
-181
-184
-194
-195
-204
-201
-176
-188
-231
-233
-221
-232
-211
-145
-98
-66
5
91
114
78
69
92
89
85
104
82
74
133
111
224
937
1569
936
-309
-597
-90
157
116
144
164
136
142
143
125
135
147
123
94
96
107
91
77
105
141
140
136
158
187
210
241
275
294
299
305
310
291
236
165
88
4
-70
-129
-182
-214
-210
-204
-208
-198
-190
-198
-198
-183
-172
-173
-188
-205
-201
-190
-201
-219
-225
-226
-222
-213
-211
-218
-227
-242
-253
-239
-216
-216
-220
-199
-184
-206
-229
-222
-216
-227
-211
-201
-241
-236
-194
-177
172
930
1059
41
-875
-748
-284
-150
-137
-93
-94
-83
-45
-48
-56
-33
-16
-7
20
44
42
46
79
109
117
130
168
209
231
253
295
340
362
377
396
399
376
340
279
192
114
53
-8
-45
-52
-65
-75
-57
-48
-60
-44
-3
7
-14
-24
-11
4
-8
-34
-27
1
2
-19
-26
-23
-29
-35
-32
-25
-20
-20
-22
-13
10
30
28
19
20
12
-4
-5
-8
-12
5
-6
-25
5
-8
105
734
1310
763
-396
-747
-327
-70
-77
-48
-25
-43
-29
-13
-19
-12
0
2
2
9
22
36
47
62
81
95
111
134
156
179
211
248
283
304
306
308
311
282
210
123
37
-41
-95
-130
-168
-201
-208
-211
-218
-206
-185
-186
-193
-196
-201
-194
-177
-192
-235
-248
-233
-238
-247
-220
-195
-213
-236
-243
-254
-244
-201
-166
-144
-119
-112
-137
-165
-168
-152
-154
-165
-145
-128
-131
-123
-162
-68
581
1275
858
-327
-799
-412
-101
-69
-31
-9
-28
-3
12
-25
-47
-30
-5
16
35
47
51
53
62
78
91
106
131
158
185
214
248
286
309
306
303
307
283
224
157
88
17
-40
-67
-75
-84
-97
-95
-84
-85
-80
-54
-35
-32
-22
-5
2
5
12
15
