# session 33
-22
-17
-36
76
250
238
91
-1
-53
-122
-170
-191
-209
-218
-216
-212
-204
-198
-190
-173
-153
-145
-145
-141
-130
-120
-118
-116
-109
-107
-114
-116
-114
-117
-114
-102
-98
-103
-100
-93
-94
-98
-95
-93
-97
-93
-69
-41
-24
-13
-4
-19
-48
-48
-36
-50
-47
-24
-43
-46
-19
-25
337
1258
1542
354
-873
-778
-172
-22
-49
13
17
-3
21
28
26
46
57
58
67
79
93
111
123
136
161
188
219
262
307
352
396
432
455
468
469
450
397
307
202
108
28
-42
-95
-129
-150
-160
-165
-167
-164
-157
-148
-144
-141
-135
-128
-122
-121
-123
-124
-120
-116
-118
-122
-123
-127
-132
-133
-129
-129
-131
-131
-131
-131
-126
-120
-124
-131
-133
-140
-148
-140
-116
-95
-78
-62
-59
-80
-102
-100
-97
-111
-99
-79
-101
-97
-91
-70
427
1332
1319
12
-921
-599
-100
-77
-104
-45
-60
-66
-31
-30
-32
-14
-7
-4
9
20
28
43
63
84
106
129
160
203
249
294
340
379
400
409
405
376
315
231
133
42
-29
-83
-126
-152
-166
-173
-175
-171
-164
-156
-145
-135
-130
-124
-114
-107
-105
-103
-101
-101
-102
-104
-104
-103
-103
-106
-106
-104
-102
-101
-99
-97
-95
-93
-89
-86
-84
-81
-79
-79
-76
-72
-74
-79
-84
-90
-92
-80
-58
-35
-13
3
3
-18
-40
-39
-35
-49
-43
-26
-48
-52
-38
16
492
1259
1165
6
-724
-396
-12
-42
-66
-12
-30
-36
-4
-3
-6
8
13
16
28
38
46
60
75
94
116
142
173
210
251
296
340
375
397
410
410
388
337
257
165
79
8
-46
-85
-111
-127
-136
-140
-140
-136
-128
-121
-116
-110
-102
-96
-93
-90
-89
-91
-91
-90
-90
-93
-97
-99
-99
-99
-100
-99
-97
-96
-96
-96
-95
-93
-92
-90
-88
-86
-84
-81
-77
-76
-76
-76
-74
-72
-70
-69
-66
-63
-62
-60
-56
-53
-52
-48
-45
-46
-46
-43
-42
-41
-40
-39
-38
-38
-37
-37
-36
-36
-37
-38
-39
-44
-51
-55
-53
-39
-16
5
21
23
1
-20
-18
-22
-29
-12
-16
-37
-21
-20
152
808
1309
679
-419
-622
-166
8
-55
-23
-1
-28
-14
1
-6
3
14
12
16
25
33
44
57
70
86
108
135
164
195
232
274
315
347
369
381
383
368
328
263
185
105
31
-26
-65
-95
-117
-124
-122
-121
-121
-119
-117
-116
-114
-108
-102
-101
-101
-98
-97
-101
-101
-96
-94
-100
-102
-100
-101
-100
-98
-99
-101
-98
-93
-92
-91
-87
-83
-81
-81
-83
-82
-80
-79
-77
-74
-68
-63
-65
-73
-73
-67
-65
-63
-57
-55
-60
-62
-58
-54
-57
-63
-64
-56
-51
-55
-60
-59
-56
-57
-58
-56
-54
-55
-60
-64
-54
-25
5
16
14
12
11
-3
-27
-34
-31
-41
-37
-21
-42
-41
-18
-19
368
1269
1490
308
-839
-719
-160
-39
-63
-5
-8
-26
2
6
0
17
26
28
39
49
57
71
82
95
118
144
169
201
243
287
330
374
411
433
439
430
404
349
265
168
75
-4
-68
-114
-143
-161
-169
-168
-163
-159
-156
-150
-145
-141
-136
-132
-130
-127
-124
-124
-124
-124
-125
-128
-127
-126
-128
-130
-128
-127
-126
-126
-123
-121
-120
-118
-114
-111
-109
-107
-107
-105
-102
-101
-99
-94
-91
-91
-89
-85
-84
-85
-86
-92
-102
-93
-63
-37
-25
-12
-5
-18
-45
-52
-44
-52
-54
-35
-48
-64
-47
-36
267
1040
1341
408
-633
-587
-100
-15
-75
-27
-21
-41
-14
-2
-7
7
17
19
30
42
52
65
77
90
110
134
161
195
235
278
327
375
411
432
441
431
393
325
231
130
41
-29
-84
-122
-144
-159
-168
-171
-170
-168
-163
-155
-147
-139
-132
-128
-123
-117
-115
-117
-118
-119
-120
-120
-120
-121
-121
-119
-119
-119
-117
-116
-115
-112
-110
-110
-107
-105
-105
-105
-104
-103
-104
-107
-116
-122
-110
-86
-63
-44
-27
-25
-47
-70
-66
-61
-71
-59
-51
-73
-62
-57
9
543
1279
1037
-171
-796
-400
-27
-51
-60
-11
-31
-33
-4
-3
-3
12
22
29
38
44
56
72
85
100
121
147
177
213
256
305
353
394
425
441
442
423
373
290
190
95
14
-49
-94
-125
-146
-157
-159
-157
-153
-146
-139
-133
-126
-120
-116
-112
-110
-110
-107
-105
-107
-109
-108
-110
-112
-113
-114
-116
-116
-115
-116
-117
-117
-117
-115
-111
-111
-112
-110
-110
-114
-118
-125
-132
-123
-98
-73
-57
-41
-36
-58
-83
-81
-75
-86
-73
-58
-80
-74
-62
-39
397
1172
1138
0
-790
-496
-60
-42
-66
-15
-27
-36
-8
-7
-9
9
16
17
29
40
48
59
73
89
111
140
171
202
239
286
334
374
405
425
431
417
377
304
206
110
29
-39
-95
-130
-152
-166
-169
-163
-161
-161
-154
-145
-142
-140
-133
-127
-123
-118
-111
-111
-117
-118
-115
-115
-115
-112
-112
-113
-111
-112
-115
-112
-111
-115
-115
-109
-109
-117
-124
-122
-103
-76
-56
-44
-39
-55
-82
-87
-79
-84
-73
-61
-89
-81
-57
-52
392
1314
1403
80
-1029
-795
-200
-81
-89
-23
-31
-52
-28
-18
-11
5
7
13
33
41
46
62
82
100
120
147
182
221
263
316
374
419
449
474
486
472
430
349
235
119
23
-61
-126
-162
-185
-204
-208
-200
-196
-193
-186
-176
-166
-160
-160
-160
-158
-151
-143
-145
-149
-140
-131
-137
-140
-135
-137
-144
-144
-140
-141
-146
-142
-116
-81
-60
-59
-68
-87
-111
-112
-98
-102
-95
-82
-108
-99
-68
-69
351
1316
1516
214
-1000
-836
-220
-80
-100
-38
-40
-54
-23
-18
-24
-5
10
15
25
38
51
66
83
101
121
148
183
223
268
319
372
419
454
473
477
460
408
315
203
95
1
-74
-124
-160
-183
-192
-191
-190
-186
-178
-170
-163
-157
-152
-147
-141
-135
-131
-129
-128
-127
-126
-127
-127
-129
-133
-135
-131
-128
-127
-127
-129
-134
-138
-142
-143
-134
-113
-88
-64
-46
-48
-71
-92
-87
-77
-89
-83
-61
-82
-87
-74
-64
344
1212
1354
198
-792
-580
-87
-51
-95
-35
-42
-57
-24
-15
-20
-6
2
6
18
28
36
48
63
81
103
128
158
195
235
278
325
367
396
412
415
397
349
270
175
83
5
-56
-101
-129
-146
-154
-159
-160
-156
-150
-146
-140
-133
-129
-125
-118
-116
-116
-114
-111
-112
-112
-109
-107
-108
-110
-110
-108
-105
-105
-106
-104
-103
-102
-100
-98
-102
-109
-114
-119
-121
-110
-84
-56
-35
-26
-31
-51
-70
-67
-61
-73
-64
-46
-67
-67
-49
-9
428
1190
1149
12
-761
-452
-33
-44
-74
-22
-37
-43
-11
-11
-14
3
9
11
22
32
40
54
69
85
106
131
158
193
236
279
319
354
381
398
402
384
339
270
183
95
20
-38
-82
-110
-127
-134
-135
-134
-132
-128
-123
-118
-115
-111
-104
-99
-99
-98
-93
-91
-92
-93
-91
-90
-89
-89
-89
-90
-89
-89
-88
-86
-84
-82
-82
-79
-76
-73
-73
-71
-70
-68
-67
-70
-71
-68
-65
-66
-67
-67
-67
-66
-68
-74
-79
-85
-90
-84
-65
-44
-27
-12
-2
-17
-47
-58
-50
-59
-62
-43
-56
-69
-47
-51
192
941
1325
456
-658
-691
-170
-30
-85
-40
-33
-59
-36
-24
-27
-11
-4
-6
7
22
30
41
55
71
91
117
146
176
208
250
302
346
376
403
422
424
403
355
277
184
91
7
-57
-100
-127
-146
-157
-161
-156
-149
-146
-143
-133
-123
-119
-119
-116
-111
-108
-106
-101
-98
-100
-102
-103
-109
-112
-105
-100
-104
-112
-115
-110
-104
-105
-104
-94
-91
-99
-103
-98
-101
-110
-109
-91
-68
-49
-34
-27
-46
-74
-74
-62
-76
-73
-50
-74
-85
-66
-58
350
1314
1580
314
-977
-877
-240
-78
-104
-38
-39
-64
-31
-19
-30
-16
-4
-4
7
20
28
37
52
71
99
128
154
183
223
276
334
380
410
435
448
433
386
314
215
98
-5
-80
-134
-176
-203
-215
-218
-219
-213
-199
-188
-182
-173
-164
-158
-150
-139
-133
-130
-123
-118
-117
-115
-113
-112
-112
-110
-104
-98
-95
-93
-91
-87
-83
-80
-77
-73
-69
-68
-69
-73
-82
-85
-73
-55
-36
-12
6
4
-14
-31
-30
-27
-40
-32
-12
-34
-38
-20
-17
380
1280
1476
285
-817
-645
-98
-23
-69
-11
-15
-31
-1
2
-6
11
22
22
29
36
43
57
70
84
103
124
150
186
229
273
319
366
401
419
422
407
363
288
192
94
6
-64
-114
-147
-167
-177
-182
-182
-180
-175
-169
-159
-153
-150
-143
-133
-128
-128
-126
-123
-124
-126
-127
-129
-130
-130
-130
-130
-130
-129
-127
-125
-123
-122
-120
-116
-113
-112
-111
-108
-105
-103
-101
-98
-95
-93
-95
-99
-102
-109
-112
-100
-79
-58
-36
-17
-11
-26
-50
-52
-42
-52
-49
-31
-51
-61
-38
-16
350
1151
1319
267
-679
-504
-46
-19
-68
-11
-16
-32
-3
3
0
16
22
22
31
40
47
60
73
86
106
130
154
187
228
272
315
356
386
403
409
401
367
300
215
128
50
-15
-64
-100
-123
-133
-135
-135
-133
-129
-125
-120
-117
-113
-109
-105
-104
-103
-100
-95
-95
-97
-100
-102
-101
-100
-99
-99
-99
-99
-95
-91
-92
-94
-91
-87
-84
-82
-81
-82
-82
-80
-78
-77
-76
-74
-73
-73
-71
-68
-68
-67
-65
-65
-68
-74
-81
-82
-69
-47
-27
-10
6
6
-18
-39
-34
-35
-45
-29
-26
-51
-37
-29
74
651
1299
900
-275
-723
-287
1
-52
-44
-4
-29
-23
2
-1
1
13
17
24
33
37
45
58
71
85
105
128
156
186
220
263
305
338
363
380
384
370
330
265
183
98
21
-43
-89
-118
-137
-150
-156
-153
-148
-145
-143
-139
-137
-132
-126
-124
-125
-121
-113
-110
-112
-114
-114
-116
-118
-115
-111
-113
-115
-113
-110
-109
-108
-109
-111
-109
-106
-103
-99
-96
-94
-90
-90
-92
-91
-88
-86
-84
-81
-79
-73
-68
-72
-80
-84
-84
-78
-63
-43
-24
-4
8
-4
-31
-40
-33
-46
-47
-22
-37
-55
-27
-27
230
1051
1511
577
-719
-842
-249
-21
-57
-9
10
-18
0
19
16
23
29
31
44
58
61
61
72
99
125
143
165
197
232
272
320
367
405
430
441
443
430
387
303
199
102
20
-53
-111
-145
-163
-180
-188
-180
-171
-173
-175
-167
-156
-154
-153
-147
-142
-143
-144
-142
-139
-137
-140
-142
-139
-135
-139
-144
-138
-129
-133
-138
-130
-123
-126
-131
-131
-126
-124
-126
-126
-113
-86
-55
-37
-41
-63
-85
-83
-72
-84
-82
-57
-74
-85
-61
-65
278
1218
1609
463
-892
-912
-271
-59
-84
-28
-20
-40
-9
4
-2
12
21
21
33
47
57
68
80
95
116
139
166
204
246
287
335
386
424
444
452
446
412
342
243
137
40
-40
-103
-147
-173
-188
-194
-194
-190
-184
-177
-168
-160
-156
-154
-149
-142
-137
-135
-135
-137
-137
-134
-129
-128
-132
-137
-138
-134
-131
-127
-123
-120
-119
-117
-113
-113
-117
-118
-121
-127
-125
-108
-85
-60
-38
-28
-39
-63
-72
-62
-68
-73
-49
-52
-76
-55
-53
137
889
1496
798
-496
-774
-241
-12
-79
-46
-15
-44
-28
-9
-15
-2
11
11
19
30
35
46
63
78
94
117
146
176
212
257
306
350
385
407
418
413
385
326
239
143
55
-18
-73
-112
-137
-150
-156
-157
-154
-149
-145
-138
-130
-126
-125
-122
-117
-115
-114
-115
-115
-113
-115
-118
-119
-118
-118
-119
-119
-118
-118
-117
-116
-114
-112
-110
-106
-102
-103
-108
-114
-117
-115
-103
-84
-58
-32
-18
-23
-42
-58
-54
-52
-61
-46
-32
-57
-54
-42
7
492
1262
1143
-34
-757
-416
-22
-41
-62
-12
-31
-36
-8
-10
-9
9
16
20
32
38
44
59
77
92
106
127
156
193
235
277
319
356
383
398
398
382
341
272
184
93
15
-44
-88
-118
-137
-148
-152
-150
-146
-142
-140
-137
-134
-129
-124
-121
-122
-121
-119
-120
-123
-126
-128
-129
-131
-132
-133
-133
-133
-132
-135
-138
-135
-130
-132
-133
-130
-130
-136
-139
-144
-152
-150
-128
-102
-82
-64
-54
-67
-92
-98
-87
-93
-96
-76
-82
-99
-78
-84
97
785
1280
592
-546
-732
-237
-37
-89
-57
-37
-61
-39
-18
-25
-17
-1
5
12
22
32
48
66
83
101
122
147
179
215
259
305
344
378
407
423
419
397
348
272
185
103
32
-23
-60
-88
-106
-112
-110
-106
-98
-90
-89
-89
-81
-70
-69
-70
-65
-60
-63
-68
-68
-66
-64
-64
-68
-74
-74
-68
-68
-71
-71
-69
-70
-69
-66
-63
-61
-60
-66
-72
-74
-78
-85
-78
-56
-33
-19
-13
-20
-43
-55
-47
-52
-60
-42
-48
-68
-43
-52
113
870
1519
819
-583
-960
-389
-59
-89
-58
-21
-47
-39
-20
-23
-12
0
-2
2
11
16
24
39
58
79
97
119
150
184
224
275
325
360
384
396
388
366
325
250
148
48
-36
-109
-163
-196
-218
-233
-234
-225
-223
-227
-221
-208
-204
-203
-195
-191
-195
-195
-185
-176
-172
-166
-160
-164
-176
-179
-168
-164
-169
-165
-158
-166
-167
-140
-111
-96
-81
-71
-80
-101
-107
-100
-106
-122
-101
-83
-112
-98
-77
-64
430
1377
1403
26
-1047
-768
-184
-82
-98
-43
-52
-64
-38
-29
-18
6
17
26
43
53
63
87
119
141
154
182
227
270
310
363
422
475
517
538
540
527
486
411
316
220
137
70
