# session 12
95
88
84
87
72
63
84
59
37
92
74
265
1163
1825
948
-413
-527
67
202
110
159
154
103
120
131
131
159
176
189
246
331
407
464
492
475
427
381
339
278
202
125
51
-4
-21
-28
-64
-107
-118
-123
-151
-181
-196
-209
-216
-208
-197
-197
-218
-253
-261
-239
-250
-299
-413
-565
-269
636
998
73
-872
-755
-324
-279
-306
-245
-245
-246
-208
-195
-177
-133
-102
-67
-5
61
119
169
198
201
191
178
158
114
46
-19
-58
-79
-99
-118
-133
-149
-166
-186
-210
-225
-221
-214
-211
-195
-160
-138
-158
-193
-182
-157
-169
-165
-240
-429
-108
909
1226
106
-868
-604
-119
-131
-168
-77
-75
-85
-44
-29
-8
48
93
138
205
273
335
385
411
424
426
401
356
295
207
123
81
52
5
-35
-55
-71
-85
-88
-88
-89
-89
-93
-91
-68
-27
1
-23
-72
-68
-45
-69
-63
-112
-282
76
1152
1391
-7
-1186
-841
-167
-93
-111
-11
-36
-74
-12
33
47
81
119
165
237
320
406
482
519
520
511
488
432
340
227
127
56
6
-23
-39
-61
-79
-77
-90
-121
-126
-123
-149
-164
-142
-119
-107
-107
-145
-166
-139
-149
-179
-215
-367
-235
654
1242
274
-1069
-1077
-384
-191
-258
-188
-165
-192
-156
-129
-128
-91
-45
-12
38
111
188
247
275
276
261
235
203
155
81
2
-53
-80
-94
-105
-119
-135
-148
-159
-160
-155
-166
-179
-160
-121
-102
-97
-97
-122
-139
-120
-116
-125
-172
-325
-167
683
1222
400
-703
-685
-158
-68
-136
-69
-55
-73
-30
-12
-17
25
80
110
146
214
292
348
368
363
343
314
290
260
199
123
77
57
33
3
-14
-21
-38
-65
-79
-79
-86
-97
-90
-69
-51
-44
-61
-100
-113
-102
-116
-128
-178
-344
-227
508
946
186
-782
-740
-250
-154
-212
-152
-136
-152
-111
-82
-80
-46
3
40
86
150
218
286
332
339
334
340
326
269
200
140
83
35
4
-19
-38
-49
-61
-79
-101
-112
-111
-108
-105
-85
-61
-56
-82
-120
-120
-91
-98
-109
-149
-317
-162
724
1250
287
-961
-929
-280
-111
-164
-85
-63
-93
-48
-14
-24
7
72
118
158
224
307
370
400
409
409
396
355
282
188
95
26
-13
-33
-54
-82
-108
-123
-127
-127
-132
-150
-169
-171
-166
-158
-133
-124
-164
-178
-149
-167
-184
-184
-321
-180
714
1237
166
-1183
-1109
-359
-137
-182
-124
-120
-134
-74
-36
-31
6
58
106
169
248
329
409
461
459
422
386
339
264
171
78
9
-17
-31
-63
-91
-100
-108
-118
-122
-128
-129
-125
-137
-137
-103
-76
-96
-126
-116
-94
-118
-127
-150
-318
-185
699
1237
244
-1041
-971
-261
-86
-154
-72
-44
-71
-37
-12
3
49
87
128
199
261
313
381
423
406
368
342
311
252
167
79
23
0
-17
-37
-53
-71
-88
-96
-104
-113
-122
-140
-145
-114
-79
-75
-98
-128
-132
-117
-131
-142
-199
-383
-203
704
1176
186
-953
-815
-204
-110
-173
-90
-73
-92
-47
-23
-19
20
64
101
155
221
288
343
362
345
316
287
254
203
128
58
18
-5
-29
-49
-61
-73
-85
-96
-106
-115
-122
-125
-115
-89
-64
-58
-79
-112
-117
-107
-117
-129
-229
-389
-77
778
963
-58
-874
-588
-122
-115
-152
-80
-80
-97
-64
-43
-26
8
41
77
127
186
247
287
293
281
268
251
219
163
97
39
-6
-44
-70
-82
-97
-116
-134
-153
-164
-158
-155
-173
-174
-141
-111
-114
-149
-176
-155
-137
-156
-152
-233
-396
-36
877
962
-237
-1068
-665
-128
-97
-113
-36
-36
-38
3
20
40
83
123
174
244
308
358
406
443
443
417
390
353
283
198
123
60
19
0
-21
-49
-66
-72
-90
-106
-97
-91
-112
-131
-117
-83
-55
-72
-120
-110
-71
-102
-115
-143
-309
-59
914
1208
-91
-1270
-925
-185
-72
-105
-18
-41
-64
9
23
3
58
127
158
209
302
389
441
461
452
429
399
340
243
141
67
10
-44
-80
-96
-112
-130
-141
-153
-167
-169
-168
-181
-193
-187
-168
-148
-150
-183
-196
-169
-171
-192
-216
-352
-273
500
1098
257
-1073
-1135
-383
-112
-186
-125
-85
-109
-66
-28
-33
-4
52
104
166
238
311
377
411
399
363
333
303
245
158
77
29
-1
-31
-54
-62
-67
-85
-103
-107
-103
-104
-117
-127
-111
-77
-56
-62
-88
-107
-93
-92
-112
-124
-259
-359
219
1109
816
-536
-1078
-486
-65
-114
-96
-25
-50
-43
-2
5
25
71
112
161
229
304
371
410
409
384
359
331
282
211
136
74
31
4
-14
-29
-43
-54
-68
-86
-101
-109
-116
-121
-112
-91
-74
-73
-97
-134
-135
-122
-133
-147
-259
-430
-75
820
930
-184
-962
-597
-136
-149
-175
-106
-114
-118
-81
-69
-46
0
32
70
132
201
260
299
305
289
265
237
200
137
59
-5
-41
-65
-88
-105
-118
-131
-147
-166
-178
-180
-182
-188
-177
-146
-121
-118
-140
-180
-194
-172
-169
-175
-213
-380
-313
428
993
259
-888
-927
-284
-62
-127
-62
-5
-25
-3
45
73
110
158
204
257
326
411
487
527
529
508
482
452
393
303
222
166
109
62
47
37
6
-21
-31
-38
-41
-42
-57
-79
-75
-49
-34
-29
-37
-71
-85
-76
-91
-89
-156
-339
-38
926
1119
-189
-1240
-833
-154
-93
-133
-42
-54
-81
-32
-10
-11
30
94
149
201
267
347
410
427
407
384
356
297
200
101
20
-45
-88
-111
-133
-158
-171
-175
-185
-202
-207
-198
-208
-229
-218
-186
-167
-165
-191
-232
-222
-185
-187
-195
-281
-385
72
960
829
-562
-1343
-770
-161
-141
-156
-78
-91
-87
-32
-19
-7
41
87
136
204
280
360
422
430
395
364
339
283
191
100
30
-21
-56
-77
-96
-110
-109
-107
-120
-138
-146
-148
-154
-166
-169
-147
-112
-99
-130
-162
-147
-136
-153
-164
-290
-396
164
1090
873
-473
-1075
-499
-58
-108
-97
-25
-50
-41
3
9
31
75
114
178
265
341
399
433
425
389
355
324
275
202
127
67
21
-7
-18
-29
-46
-60
-71
-86
-100
-106
-98
-100
-122
-112
-57
-25
-39
-56
-58
-50
-52
-49
-61
-224
-279
396
1231
727
-711
-1125
-412
15
-51
-33
33
9
23
58
58
81
127
161
214
294
366
421
455
457
434
398
351
287
203
112
41
-4
-41
-72
-94
-112
-124
-133
-147
-161
-168
-174
-187
-193
-173
-139
-120
-123
-150
-176
-168
-161
-172
-192
-347
-458
98
950
685
-550
-1020
-468
-101
-163
-148
-83
-111
-106
-63
-54
-43
-5
40
92
151
215
275
311
315
301
284
257
206
127
48
-8
-49
-84
-104
-109
-119
-135
-144
-150
-161
-169
-173
-182
-184
-158
-129
-123
-134
-155
-174
-162
-154
-161
-163
-299
-442
49
924
751
-508
-1095
-553
-102
-126
-107
-21
-34
-32
11
21
37
92
146
190
254
349
438
481
483
478
475
443
369
281
197
118
54
16
-6
-21
-38
-60
-83
-97
-99
-100
-107
-114
-120
-125
-106
-70
-60
-93
-127
-112
-83
-107
-113
-132
-286
-96
817
1237
78
-1222
-1057
-280
-73
-113
-25
-12
-42
7
36
36
84
151
201
259
331
411
493
542
531
502
477
409
291
182
98
21
-33
-55
-74
-100
-112
-119
-133
-139
-128
-119
-127
-154
-172
-152
-117
-105
-109
-131
-155
-143
-134
-147
-165
-297
-305
380
1143
531
-936
-1304
-562
-133
-182
-143
-75
-113
-117
-76
-55
-37
1
64
140
205
283
375
424
409
374
342
297
225
143
71
2
-48
-57
-64
-93
-98
-82
-94
-115
-116
-124
-140
-146
-156
-159
-127
-92
-96
-135
-164
-142
-121
-151
-173
-259
-350
138
1030
840
-574
-1275
-640
-64
-89
-102
-9
-25
-43
12
63
73
77
134
235
310
364
438
502
519
490
429
364
308
241
158
78
16
-21
-38
-54
-77
-99
-118
-133
-137
-136
-142
-150
-158
-157
-137
-98
-72
-89
-129
-123
-91
-114
-136
-161
-336
-248
607
1200
246
-1123
-1132
-367
-110
-169
-100
-75
-109
-64
-26
-35
-8
50
104
170
251
333
402
431
414
377
338
289
212
116
34
-14
-49
-88
-121
-139
-157
-175
-182
-185
-183
-167
-146
-139
-136
-114
-75
-44
-45
-72
-83
-64
-71
-93
-107
-255
-325
303
1123
691
-635
-1008
-350
14
-69
-49
13
-15
-7
19
12
27
67
109
170
236
291
338
365
354
317
278
239
185
112
47
13
-8
-32
-48
-52
-54
-61
-68
-71
-75
-79
-72
-63
-74
-77
-47
-21
-22
-39
-66
-74
-60
-67
-66
-128
-333
-163
725
1163
183
-909
-760
-164
-63
-115
-37
-27
-53
-14
11
11
36
74
113
172
241
304
355
390
402
396
378
329
238
142
76
25
-20
-45
-57
-71
-74
-71
-80
-102
-125
-143
-153
-154
-147
-124
-90
-74
-87
-122
-148
-140
-132
-151
-158
-253
-415
-126
639
730
-250
-943
-613
-165
-145
-169
-110
-117
-126
-103
-107
-104
-65
-26
19
86
159
228
294
335
343
340
331
282
180
69
-6
-52
-95
-127
-138
-144
-156
-168
-171
-165
-163
-173
-175
-164
-152
-132
-104
-95
-107
-130
-145
-124
-106
-117
-133
-251
-302
288
1117
773
-579
-1148
-597
-136
-113
-81
-18
-26
-1
50
65
81
116
154
219
317
416
499
551
561
547
537
513
447
340
208
95
28
-25
-76
-97
-102
-122
-133
-124
-123
-131
-132
-131
-125
-99
-64
-46
-45
-53
-67
-60
-45
-58
-55
-92
-260
-56
914
1439
311
-1141
-1142
-357
-82
-141
-97
-79
-88
-28
7
1
34
83
126
200
297
378
443
490
493
450
389
324
246
145
39
-43
-99
-138
-157
-158
-172
-199
-209
-198
-192
-196
-200
-211
-224
-209
-176
-169
-183
-201
-229
-227
-208
-229
-241
-304
-444
-54
1000
1212
-146
-1259
-901
-256
-206
-241
-146
-146
-158
-109
-87
-67
-15
35
100
194
291
389
480
513
479
427
372
303
219
134
56
-3
-34
-47
-52
-52
-47
-48
-55
-59
-58
-60
-71
-82
-69
-29
-1
-10
-52
-95
-87
-61
-93
-131
-201
-323
29
974
1173
-5
-935
-590
-74
-100
-144
-52
-61
-76
-24
-8
-3
44
96
143
205
282
367
431
440
404
353
295
235
171
90
9
-40
-62
-76
-72
-55
-55
-80
-100
-96
-91
-101
-106
-95
-76
-56
-42
-45
-73
-116
-133
-116
-118
-136
-193
-378
-326
397
982
342
-721
-807
-297
-145
-203
-151
-144
-185
-154
-116
-111
-89
-44
19
89
150
214
289
344
350
315
271
230
178
101
11
-64
-99
-108
-120
-133
-137
-140
-153
-166
-170
-169
-164
-152
-139
-117
-85
-71
-89
-122
-138
-118
-115
-139
-143
-253
-364
195
1192
1043
-395
-1170
-645
-140
-152
-128
-32
-59
-70
-11
18
35
81
138
197
266
354
447
501
509
501
468
397
326
246
127
29
-1
-22
-67
-98
-100
-92
-82
-76
-76
-82
-87
-83
-76
-74
-58
-32
-19
-26
-57
-85
-68
-57
-81
-79
-159
-171
512
1429
973
-620
-1255
-585
-59
-57
-42
-6
-48
-33
15
19
42
90
125
176
266
356
425
479
498
460
398
346
279
178
73
-7
-71
-119
-143
-155
-166
-171
-175
-183
-188
-193
-196
-192
-199
-214
-204
-184
-188
-209
-237
-248
-224
-223
-239
-260
-410
-341
541
1353
586
-912
-1159
-447
-160
-240
-174
-112
-138
-112
-73
-59
-18
36
79
140
226
319
401
443
433
382
308
227
143
51
-34
-94
-133
-155
-160
-157
-156
-156
-153
-151
-150
-148
-145
-146
-140
-112
-77
-70
-85
-107
-130
-118
-94
-114
-136
-213
-326
95
1089
1236
-14
-938
-559
-40
-65
-96
1
-1
-6
43
61
81
134
179
228
300
376
447
502
511
475
422
355
275
193
121
57
9
-19
-32
-40
-46
-49
-50
-57
-69
-74
-75
-78
-76
-62
-42
-33
-48
-83
-122
-136
-120
-125
-148
-177
-312
-317
326
1075
646
-549
-882
-356
-107
-194
-158
-103
-132
-112
-70
-68
-51
-6
39
92
158
227
290
329
328
298
255
210
158
91
19
-41
-86
-123
-148
-159
-168
-177
-176
-175
-185
-198
-198
-189
-175
-153
-129
-120
-120
-128
-165
-194
-171
-152
-158
-174
-317
-325
397
1215
667
-727
-1082
-430
-105
-185
-129
-50
-80
-61
-2
11
32
87
136
176
234
315
397
450
467
444
393
338
276
189
101
35
-12
-44
-51
-56
-76
-86
-77
-80
-90
-78
-68
-88
-112
-112
-85
-47
-42
-73
-95
-84
-65
-79
-105
-100
-201
-284
335
1362
1117
-497
-1333
-696
-72
-71
-78
14
3
1
46
55
74
131
183
230
297
384
480
554
571
550
517
444
330
219
123
27
-44
-85
-123
-153
-141
-121
-139
-166
-169
-165
-171
-167
-162
-179
-189
-166
-145
-145
-159
-191
-203
-180
-182
-189
-235
-368
-76
895
1222
-49
-1308
-1038
-251
-108
-202
-133
-100
-112
-71
-43
-33
7
59
112
183
263
339
403
438
423
370
311
252
174
81
-3
-70
-115
-136
-143
-143
-138
-136
-142
-149
-151
-151
-150
-150
-160
-159
-131
-104
-106
-125
-150
-160
-136
-133
-153
-192
-362
-329
493
1313
671
-708
-955
-305
-57
-150
-90
-36
-64
-30
12
17
48
100
145
206
283
356
416
449
439
390
328
269
207
136
69
16
-20
-36
-39
-44
-50
-51
-55
-64
-74
-80
-80
-73
-72
-67
-37
-5
-6
-30
-57
-74
-64
-57
-76
-96
-224
-348
157
1105
1036
-229
-926
-467
-53
-113
-123
-53
-74
-68
-33
-31
-5
