# session 39
-14
-2
-22
-6
94
189
206
196
210
234
254
259
226
165
101
41
-11
-47
-73
-90
-93
-86
-80
-78
-76
-74
-69
-67
-68
-68
-66
-68
-74
-76
-75
-76
-78
-78
-77
-79
-88
-96
-90
-59
-10
23
4
-46
-78
-88
-92
-84
-85
-95
-76
-74
-106
-108
-215
-257
630
2138
2184
378
-912
-595
-72
-100
-151
-93
-116
-127
-93
-93
-95
-74
-63
-58
-42
-26
-10
10
28
46
69
94
111
125
142
155
165
183
206
206
168
108
45
-16
-69
-106
-127
-136
-138
-136
-129
-121
-111
-102
-98
-101
-104
-103
-101
-103
-107
-106
-102
-102
-104
-103
-105
-114
-121
-118
-99
-61
-18
-6
-40
-80
-94
-102
-102
-94
-103
-104
-84
-102
-125
-184
-321
119
1626
2647
1513
-343
-708
-144
-46
-200
-156
-134
-174
-145
-124
-137
-121
-102
-98
-85
-68
-57
-39
-18
1
22
45
66
82
96
107
118
134
156
167
146
93
32
-24
-74
-110
-130
-139
-142
-139
-132
-127
-120
-114
-110
-108
-108
-107
-106
-105
-104
-102
-102
-104
-102
-98
-95
-94
-97
-109
-116
-102
-65
-15
14
-9
-57
-80
-85
-89
-82
-85
-94
-73
-72
-105
-129
-255
-171
947
2437
2169
251
-798
-356
10
-139
-170
-103
-142
-146
-106
-109
-105
-82
-77
-71
-54
-40
-26
-6
13
34
57
78
97
116
129
136
146
168
189
180
134
75
18
-39
-88
-118
-133
-139
-137
-130
-124
-121
-117
-113
-110
-109
-108
-104
-100
-99
-100
-101
-101
-100
-98
-97
-96
-96
-95
-92
-92
-103
-114
-108
-81
-34
10
7
-39
-73
-83
-88
-82
-78
-93
-83
-67
-95
-110
-197
-269
489
2067
2472
830
-677
-549
-31
-86
-184
-111
-125
-152
-114
-108
-113
-91
-80
-76
-61
-49
-36
-14
8
26
47
71
92
108
120
130
141
158
182
188
159
104
44
-13
-65
-102
-122
-132
-134
-127
-120
-116
-111
-105
-101
-99
-97
-97
-101
-102
-101
-101
-99
-96
-96
-100
-102
-101
-99
-102
-105
-98
-93
-100
-108
-103
-80
-34
11
5
-43
-73
-80
-83
-77
-80
-99
-83
-64
-94
-108
-192
-269
473
2017
2390
762
-711
-575
-50
-78
-163
-98
-110
-130
-96
-94
-98
-74
-64
-58
-39
-23
-12
7
27
46
67
89
109
126
138
144
151
166
189
197
168
109
47
-10
-60
-100
-128
-143
-145
-139
-133
-129
-125
-122
-117
-113
-112
-114
-113
-110
-109
-111
-114
-116
-118
-116
-112
-111
-113
-113
-108
-107
-116
-124
-114
-79
-28
-1
-25
-69
-90
-96
-95
-85
-91
-95
-71
-79
-106
-126
-243
-30
1224
2498
1819
-129
-872
-298
8
-138
-138
-86
-125
-114
-80
-89
-82
-59
-52
-41
-22
-9
6
25
43
63
86
108
127
144
156
161
169
188
205
192
144
82
20
-37
-85
-117
-137
-148
-152
-147
-142
-137
-130
-123
-118
-115
-111
-108
-106
-104
-105
-103
-101
-102
-104
-102
-100
-101
-102
-101
-100
-100
-97
-94
-101
-110
-105
-76
-27
13
0
-48
-76
-82
-87
-80
-80
-94
-77
-69
-100
-115
-225
-225
740
2304
2339
518
-735
-418
5
-118
-178
-107
-138
-150
-110
-112
-112
-86
-78
-74
-56
-42
-30
-12
8
29
52
76
98
115
131
141
148
163
184
187
155
99
41
-16
-67
-102
-122
-132
-135
-130
-122
-117
-114
-109
-103
-98
-95
-94
-95
-95
-94
-94
-94
-95
-96
-97
-97
-97
-99
-99
-97
-96
-97
-94
-92
-98
-108
-105
-79
-33
11
8
-36
-70
-79
-85
-81
-78
-89
-76
-66
-96
-109
-203
-258
553
2126
2440
763
-674
-502
-15
-90
-180
-110
-129
-152
-113
-109
-112
-88
-77
-72
-55
-41
-29
-11
9
28
51
74
96
118
135
144
151
165
185
190
161
106
44
-15
-65
-102
-125
-139
-143
-142
-138
-131
-126
-121
-116
-111
-108
-106
-103
-102
-100
-100
-100
-101
-100
-99
-99
-100
-104
-105
-102
-101
-99
-95
-99
-111
-112
-89
-47
-3
5
-33
-72
-82
-84
-81
-79
-94
-88
-65
-90
-112
-174
-300
215
1727
2552
1269
-460
-656
-96
-34
-167
-115
-100
-130
-101
-87
-96
-77
-61
-59
-44
-25
-14
2
26
49
69
89
113
138
151
158
167
181
201
212
189
133
66
4
-51
-96
-128
-144
-150
-149
-146
-142
-139
-133
-120
-110
-110
-113
-109
-106
-108
-108
-103
-101
-102
-102
-102
-104
-104
-103
-103
-99
-95
-102
-110
-103
-76
-36
-1
-9
-52
-83
-93
-97
-90
-93
-106
-87
-81
-114
-116
-199
-205
689
2167
2165
320
-969
-618
-74
-105
-156
-94
-116
-125
-87
-85
-84
-61
-52
-46
-24
-6
8
28
50
73
97
123
146
166
185
200
210
226
246
241
195
127
58
-7
-65
-107
-132
-145
-149
-150
-148
-141
-134
-126
-118
-112
-109
-106
-103
-99
-97
-97
-98
-99
-101
-103
-102
-101
-100
-99
-100
-102
-97
-94
-104
-114
-105
-73
-26
7
-8
-53
-80
-88
-92
-84
-85
-99
-82
-73
-105
-130
-246
-227
772
2355
2392
569
-689
-388
10
-129
-190
-116
-148
-161
-121
-123
-124
-101
-92
-85
-70
-57
-43
-22
-3
18
42
66
91
113
131
143
155
171
189
187
149
89
30
-27
-77
-112
-129
-138
-141
-140
-136
-132
-127
-122
-119
-115
-112
-108
-106
-105
-103
-100
-99
-99
-99
-98
-98
-98
-97
-97
-95
-93
-94
-93
-89
-92
-103
-99
-74
-30
12
14
-28
-63
-72
-78
-77
-72
-83
-77
-58
-84
-105
-178
-286
320
1885
2602
1184
-511
-611
-64
-55
-184
-121
-119
-154
-120
-104
-111
-93
-78
-74
-61
-48
-35
-14
7
25
48
74
99
122
143
161
173
185
204
213
187
129
64
2
-55
-97
-121
-133
-140
-143
-140
-135
-129
-125
-121
-117
-113
-109
-106
-105
-102
-99
-97
-98
-98
-97
-97
-97
-97
-96
-96
-95
-95
-94
-91
-90
-92
-90
-89
-97
-106
-97
-65
-17
18
5
-41
-68
-75
-79
-72
-73
-84
-66
-62
-93
-111
-231
-204
818
2347
2257
407
-752
-382
16
-116
-166
-101
-132
-138
-101
-105
-102
-79
-70
-62
-45
-36
-25
-4
18
38
62
88
112
132
152
170
180
191
209
211
177
119
59
2
-51
-92
-115
-128
-134
-130
-124
-124
-121
-112
-106
-106
-104
-99
-99
-99
-93
-92
-100
-105
-101
-99
-102
-100
-98
-101
-103
-101
-99
-96
-92
-93
-96
-97
-97
-98
-91
-65
-20
10
-12
-56
-77
-82
-83
-74
-83
-94
-71
-77
-107
-121
-241
-74
1128
2414
1785
-160
-948
-382
-29
-137
-133
-80
-115
-107
-75
-80
-73
-54
-47
-36
-18
-4
12
35
60
83
104
126
151
175
191
201
212
230
244
229
180
113
43
-26
-83
-119
-139
-153
-160
-160
-155
-148
-141
-134
-124
-117
-113
-111
-107
-103
-103
-102
-102
-103
-103
-103
-103
-102
-100
-101
-103
-102
-102
-100
-95
-99
-113
-114
-91
-49
-6
4
-30
-67
-79
-85
-85
-78
-86
-85
-66
-81
-107
-171
-285
206
1713
2655
1467
-350
-665
-108
-35
-191
-141
-120
-161
-133
-113
-123
-105
-87
-86
-74
-57
-44
-27
-9
11
36
63
88
112
135
153
165
177
194
203
180
129
68
8
-50
-96
-121
-134
-140
-143
-143
-140
-136
-131
-126
-121
-117
-114
-112
-109
-103
-100
-100
-99
-97
-95
-94
-95
-95
-95
-95
-95
-93
-93
-93
-90
-87
-94
-104
-99
-75
-32
11
11
-33
-67
-73
-76
-75
-70
-80
-74
-61
-86
-104
-185
-270
412
1980
2544
1018
-592
-585
-48
-66
-181
-113
-118
-149
-113
-102
-110
-89
-74
-70
-55
-39
-26
-8
13
33
56
82
111
137
158
177
194
209
226
230
200
141
74
11
-48
-94
-120
-134
-144
-148
-145
-139
-133
-128
-124
-119
-114
-110
-109
-108
-105
-103
-102
-99
-98
-99
-98
-98
-99
-98
-95
-95
-95
-94
-92
-92
-91
-91
-88
-81
-82
-94
-100
-86
-48
2
22
-9
-51
-67
-74
-75
-67
-77
-80
-56
-68
-98
-138
-269
44
1411
2559
1665
-216
-756
-195
-8
-162
-136
-101
-145
-128
-103
-112
-98
-77
-74
-63
-44
-30
-14
5
25
47
72
98
124
149
169
185
200
217
228
214
169
108
45
-19
-74
-107
-123
-135
-142
-140
-134
-130
-126
-123
-118
-113
-110
-109
-107
-105
-104
-101
-100
-100
-98
-95
-97
-99
-97
-95
-94
-95
-94
-90
-89
-89
-90
-90
-86
-82
-85
-92
-87
-60
-14
19
5
-36
-60
-70
-77
-68
-68
-81
-60
-55
-92
-105
-209
-225
697
2226
2262
440
-841
-518
-28
-94
-147
-81
-105
-117
-81
-76
-74
-59
-56
-47
-27
-15
0
25
50
70
92
119
146
167
188
208
219
228
243
242
205
143
76
9
-54
-100
-129
-146
-156
-158
-152
-147
-145
-140
-132
-126
-121
-117
-114
-112
-110
-112
-114
-116
-116
-116
-116
-118
-119
-119
-118
-118
-119
-119
-117
-114
-119
-131
-132
-108
-65
-21
-14
-50
-85
-96
-100
-99
-93
-101
-95
-73
-92
-112
-164
-264
248
1748
2595
1293
-529
-762
-143
-40
-177
-124
-106
-143
-113
-94
-102
-82
-66
-65
-49
-30
-17
0
20
41
66
94
122
150
177
199
215
232
249
251
221
161
89
19
-43
-92
-123
-138
-146
-152
-154
-151
-147
-142
-135
-128
-124
-119
-114
-109
-105
-103
-103
-102
-101
-102
-103
-102
-100
-99
-100
-99
-98
-98
-95
-95
-105
-115
-107
-83
-42
3
12
-32
-72
-80
-83
-85
-77
-87
-89
-68
-85
-112
-177
-299
182
1708
2680
1481
-372
-699
-126
-38
-192
-144
-123
-163
-136
-117
-127
-112
-92
-86
-72
-57
-44
-26
-6
17
42
68
98
130
159
181
198
213
231
239
215
158
90
21
-43
-90
-118
-138
-147
-143
-144
-149
-146
-135
-130
-126
-119
-115
-113
-111
-109
-105
-101
-98
-94
-90
-87
-87
-91
-96
-93
-91
-95
-97
-93
-92
-101
-110
-106
-84
-48
-1
30
2
-53
-74
-73
-75
-68
-73
-82
-61
-67
-97
-133
-285
-87
1219
2570
1917
-45
-812
-271
4
-153
-154
-102
-126
-102
-88
-120
-93
-46
-53
-57
-39
-42
-34
3
20
33
77
108
113
133
158
166
176
187
188
191
162
68
-24
-70
-130
-184
-140
-88
-160
-243
-217
-170
-168
-156
-137
-140
-139
-133
-142
-137
-107
-92
-95
-93
-96
-107
-109
-100
-87
-82
-95
-104
-96
-92
-94
-89
-87
-76
-27
8
-28
-70
-62
-61
-71
-52
-63
-102
-75
-50
-95
-98
-163
-191
644
2079
2092
301
-987
-702
-153
-75
-58
-24
-73
-61
-15
-27
-11
30
27
45
107
103
40
36
92
126
142
188
245
272
273
275
289
311
322
291
219
160
119
45
-46
-106
-156
-209
-221
-209
-222
-224
-191
-173
-170
-148
-139
-161
-155
-109
-95
-136
-176
-175
-153
-141
-132
-95
-45
-69
-158
-165
-74
-55
-135
-153
-84
-48
-89
-143
-133
-93
-122
-174
-171
-147
-129
-185
-81
880
2182
1827
-200
-1357
-805
-191
-192
-159
-59
-140
-143
-17
-45
-144
-98
-64
-112
-2
165
78
-15
188
289
77
53
300
353
295
391
389
280
438
626
385
44
21
36
-102
-147
-145
-241
-220
-140
-271
-364
-215
-121
-165
-193
-230
-241
-159
-94
-104
-149
-178
-111
-46
-145
-240
-140
-11
-32
-84
-28
47
-27
-179
-178
-53
-61
-176
-160
-97
-121
-50
-14
-239
158
1752
2650
1160
-945
-1345
-622
-206
-126
-66
-75
-88
-47
-36
-45
-28
-6
12
14
3
56
139
104
39
149
295
260
213
327
407
361
395
491
424
280
244
128
-131
-173
-22
-78
-227
-186
-143
-221
-237
-191
-200
-205
-144
-100
-137
-180
-168
-152
-155
-135
-115
-134
-153
-155
-154
-143
-151
-194
-196
-129
-100
-143
-176
-165
-128
-76
-43
-64
-105
-115
-111
-119
-116
-105
-117
-117
-99
-122
-147
-216
-327
255
1895
2840
1519
-414
-776
-213
-87
-205
-158
-137
-169
-144
-123
-124
-105
-89
-86
-72
-53
-35
-14
7
26
47
74
103
131
162
194
215
228
251
264
236
175
110
42
-28
-83
-114
-130
-138
-135
-124
-114
-111
-114
-115
-112
-109
-106
-105
-106
-109
-111
-115
-117
-115
-111
-110
-111
-113
-115
-114
-109
-112
-124
-127
-104
-62
-22
-18
-51
-78
-77
-75
-77
-74
-86
-94
-79
-89
-106
-154
-297
46
1472
2665
1801
-106
-759
-282
-67
-175
-151
-120
-159
-142
-112
-119
-103
-73
-74
-78
-59
-45
-41
-22
8
34
54
76
109
144
165
181
206
228
227
206
162
95
24
-32
-77
-115
-138
-144
-143
-143
-148
-151
-142
-130
-129
-131
-122
-115
-117
-122
-123
-121
-120
-118
-117
-120
-127
-121
-106
-108
-130
-135
-107
-62
-25
-25
-60
-84
-83
-87
-90
-80
-89
-95
-76
-93
-114
-138
-287
-52
1268
2521
1803
-76
-797
-331
-71
-167
-162
-128
-144
-119
-100
-115
-103
-74
-67
-65
-55
-41
-22
1
21
42
67
93
114
140
168
185
201
229
247
225
171
105
37
-30
-84
-121
-141
-150
-156
-157
-145
-132
-132
-137
-133
-128
-125
-122
-120
-121
-122
-121
-118
-119
-123
-122
-116
-114
-121
-128
-128
-120
-96
-51
-19
-35
-75
-93
-94
-97
-86
-80
-101
-92
-69
-94
-105
-167
-266
322
1760
2318
942
-588
-667
-162
-84
-146
-101
-105
-119
-85
-74
-80
-64
-49
-41
-28
-14
1
20
40
58
80
105
133
160
180
195
213
235
249
247
221
170
102
40
-12
-56
-89
-103
-108
-111
-107
-98
-93
-92
-88
-83
-85
-86
-83
-82
-86
-89
-88
-88
-90
-92
-90
-88
-96
-110
-118
-108
-64
-10
-7
-47
-62
-34
