# session 4
17
-25
70
85
-171
-478
-572
-492
-508
-747
-527
724
1604
578
-994
-1175
-568
-350
-332
-199
-96
-41
-20
-75
-127
-142
-189
-233
-186
-93
-40
5
79
119
106
117
146
141
155
165
59
-44
-6
-17
-153
-191
-153
-182
-114
57
49
-57
2
93
54
-3
-31
-69
-61
-19
-9
-38
-139
-229
-175
-164
-92
703
1679
1141
-626
-1472
-934
-260
56
169
70
-13
68
42
-49
78
200
90
49
190
235
202
261
271
158
116
168
170
134
96
6
-102
-157
-165
-107
16
72
-22
-133
-133
-90
-78
-51
-17
-53
-146
-228
-266
-244
-210
-220
-225
-197
-223
-256
-192
-278
-477
225
1963
2597
940
-881
-955
-246
-35
-89
-20
8
-73
-98
-30
3
-12
65
209
243
172
140
146
114
88
123
162
167
170
149
82
18
-29
-83
-126
-140
-133
-108
-101
-164
-248
-224
-100
-68
-165
-196
-161
-234
-303
-224
-172
-194
-157
-185
-277
-242
-312
-294
726
2017
1514
-322
-1074
-548
-199
-195
-62
25
-44
-96
-151
-193
-106
-11
-32
-41
26
73
103
132
117
128
215
261
267
318
280
91
-22
16
5
-102
-145
-85
-63
-117
-107
-20
-4
-41
-3
68
87
65
-20
-188
-312
-275
-194
-219
-253
-245
-219
331
1573
1999
509
-1242
-1416
-677
-254
-142
-67
-50
-42
6
47
36
-18
-35
7
55
107
125
76
88
194
216
145
134
153
83
-20
-29
37
32
-88
-204
-242
-240
-189
-89
-63
-141
-185
-154
-149
-176
-175
-171
-186
-169
-114
-62
-53
-114
-141
-87
-254
-343
805
2643
2570
355
-1090
-651
-31
-54
-80
72
110
26
-6
79
183
185
126
130
193
196
116
66
82
108
131
143
120
73
-6
-113
-162
-171
-250
-332
-306
-267
-296
-303
-261
-255
-265
-210
-135
-143
-233
-328
-358
-305
-248
-256
-306
-356
-325
-322
-531
-200
1444
2708
1494
-670
-1137
-419
-150
-243
-196
-127
-98
-99
-154
-137
-71
-106
-126
-10
81
89
141
188
142
136
233
295
274
262
273
250
183
96
3
-77
-100
-71
-42
-24
-12
-12
30
115
144
120
111
86
46
51
47
-30
-104
-66
-66
-301
-224
856
1913
1247
-473
-1161
-587
-15
43
-70
-89
-73
-131
-176
-137
-143
-173
-78
23
-7
-12
66
45
-79
-131
-76
7
40
-25
-123
-174
-240
-364
-419
-334
-224
-167
-137
-159
-227
-234
-172
-145
-116
-20
2
-131
-247
-260
-283
-301
-232
-201
-271
-268
-294
-351
469
2224
2715
922
-748
-562
78
-13
-187
-53
17
-21
27
144
236
261
210
125
108
202
296
283
271
379
493
453
289
135
53
-2
-79
-173
-264
-312
-270
-163
-86
-112
-200
-219
-147
-110
-161
-223
-237
-220
-231
-275
-246
-149
-183
-332
-327
-288
-509
-299
1114
2333
1451
-438
-1037
-565
-346
-342
-212
-175
-209
-149
-107
-133
-137
-90
-3
66
63
57
85
59
-5
10
72
83
70
65
10
-83
-89
-13
-9
-94
-128
-93
-51
16
75
38
-21
15
75
78
89
118
78
26
77
112
45
36
0
-136
430
1936
2504
907
-929
-1089
-434
-242
-296
-187
-72
-67
-98
-108
-82
-50
-42
-44
-46
-29
37
93
70
63
119
98
-21
-82
-94
-183
-297
-331
-319
-322
-343
-359
-317
-237
-221
-254
-210
-106
-55
-68
-110
-162
-146
-76
-83
-124
-112
-183
-319
-376
-464
-177
1148
2338
1543
-267
-837
-336
-79
-78
3
-2
-72
-51
-11
-1
38
102
133
118
93
98
157
264
360
382
383
437
480
424
312
176
-32
-230
-273
-235
-289
-368
-310
-179
-125
-116
-91
-103
-154
-182
-212
-272
-286
-251
-261
-268
-219
-222
-236
-245
-408
-101
1444
2714
1621
-530
-1102
-396
-91
-282
-366
-285
-160
-125
-227
-230
-37
85
18
-4
118
190
143
148
225
201
49
-48
-16
-1
-78
-125
-124
-171
-213
-206
-222
-210
-93
-17
-76
-109
-22
27
-34
-45
18
-19
-141
-153
-47
0
-34
-6
26
-5
458
1666
2282
1175
-427
-863
-427
-143
-171
-244
-213
-61
44
31
59
147
148
81
43
48
95
118
40
27
181
225
58
-19
31
-48
-204
-242
-249
-316
-352
-354
-367
-333
-262
-247
-231
-164
-149
-195
-183
-134
-146
-178
-139
-52
-65
-215
-309
-328
-374
88
1338
1956
786
-755
-973
-421
-193
-208
-143
-93
-86
-17
60
39
-13
40
160
188
138
179
307
330
258
265
316
272
208
227
221
107
14
26
-3
-158
-281
-274
-253
-278
-274
-227
-174
-100
0
41
-37
-151
-183
-130
-76
-125
-255
-237
-133
-267
-19
1394
2510
1386
-652
-1148
-497
-232
-292
-209
-176
-224
-186
-139
-118
-51
-33
-114
-104
81
246
275
263
281
330
376
333
201
84
-15
-111
-151
-161
-196
-214
-197
-191
-186
-174
-166
-103
1
17
-49
-99
-131
-132
-78
-57
-95
-136
-144
-90
-137
-251
409
1896
2301
778
-649
-578
-69
-1
-75
-148
-282
-310
-230
-193
-187
-147
-88
-20
51
114
160
151
74
29
71
101
58
26
33
-10
-129
-242
-272
-249
-281
-353
-341
-270
-255
-257
-222
-184
-149
-139
-186
-200
-145
-111
-101
-127
-205
-207
-245
-291
553
2234
2533
622
-1070
-969
-336
-190
-172
-96
-92
-96
-79
-42
36
68
59
135
221
205
209
292
330
304
289
285
279
274
239
150
44
-48
-142
-195
-130
-40
-57
-93
-68
-103
-232
-301
-272
-258
-294
-308
-269
-243
-239
-197
-187
-246
-236
-200
-33
868
2025
1620
-323
-1426
-888
-227
-160
-154
-72
-108
-186
-209
-159
-53
-3
-35
-37
1
10
15
49
102
178
243
260
285
326
263
93
3
25
-6
-86
-99
-121
-231
-293
-256
-232
-226
-170
-105
-85
-103
-124
-132
-152
-156
-84
-41
-76
-81
-176
-182
751
2220
2188
454
-708
-425
8
-49
-135
-72
-34
-78
-92
43
188
104
-87
-119
-47
-40
-65
-47
-5
53
167
308
337
207
40
-59
-109
-167
-235
-283
-312
-313
-233
-124
-135
-223
-225
-181
-223
-304
-331
-325
-320
-300
-264
-222
-147
-157
-415
-300
1027
2403
1691
-420
-1336
-758
-193
-66
-38
-83
-116
-54
-44
-87
-50
43
105
121
128
183
281
370
427
432
407
408
398
318
208
106
11
-45
-68
-97
-118
-123
-124
-104
-86
-101
-92
-22
35
9
-52
-71
-86
-157
-267
-374
-409
-429
-516
-80
1337
2256
1056
-862
-1254
-560
-217
-205
-133
-134
-185
-160
-148
-172
-148
-96
-58
-14
28
35
32
60
102
117
123
181
249
208
85
-11
-118
-260
-273
-124
-54
-143
-208
-187
-164
-135
-93
-116
-164
-155
-180
-293
-331
-220
-129
-176
-237
-251
-353
-121
1232
2750
2261
211
-781
-324
-8
-121
-82
2
-19
-18
-20
-33
2
39
68
115
144
153
117
8
-50
34
163
265
303
197
6
-102
-126
-158
-205
-241
-257
-258
-279
-318
-299
-212
-154
-155
-153
-154
-186
-213
-234
-263
-254
-255
-303
-290
-385
-499
447
2346
2731
783
-909
-827
-295
-248
-302
-283
-259
-188
-144
-163
-153
-110
-69
-24
44
142
179
89
15
60
121
157
192
156
62
-4
-77
-152
-153
-149
-192
-167
-90
-84
-86
-26
4
6
45
30
-61
-82
-25
20
40
32
32
-17
-215
103
1556
2617
1465
-520
-981
-369
-172
-306
-292
-283
-324
-271
-194
-168
-125
-76
-68
-32
69
142
170
205
214
186
184
193
162
107
30
-79
-162
-199
-231
-248
-230
-236
-296
-328
-270
-174
-103
-93
-164
-229
-171
-91
-128
-168
-116
-65
-41
-97
-161
406
1606
1844
414
-910
-854
-362
-272
-277
-199
-176
-182
-160
-118
-68
-50
-25
46
90
104
178
275
287
248
263
337
378
336
269
225
159
48
-31
-47
-61
-78
-58
-53
-118
-196
-242
-282
-309
-280
-228
-203
-200
-197
-190
-209
-235
-217
-237
-121
765
2009
1787
-105
-1375
-958
-238
-125
-168
-103
-79
-112
-136
-101
-36
-45
-92
-52
32
74
120
205
271
279
249
242
274
274
209
130
29
-115
-197
-158
-121
-172
-225
-219
-205
-203
-178
-125
-98
-140
-178
-130
-80
-106
-152
-178
-164
-201
-358
79
1593
2509
1203
-684
-949
-280
-65
-110
-35
-18
-38
-1
-5
-22
29
61
44
66
138
181
160
117
110
153
199
181
106
68
71
-11
-171
-257
-262
-279
-273
-240
-258
-262
-199
-184
-218
-191
-154
-173
-210
-239
-233
-206
-205
-203
-311
-365
573
2251
2344
293
-1227
-873
-214
-193
-246
-168
-143
-117
-81
-98
-97
-47
-9
16
55
93
120
160
211
233
236
264
282
235
154
70
-26
-99
-123
-163
-238
-287
-292
-265
-198
-112
-45
-26
-83
-177
-202
-183
-207
-207
-184
-247
-276
-263
-388
46
1644
2684
1410
-517
-828
-229
-113
-235
-194
-201
-239
-187
-158
-178
-160
-117
-79
-32
11
48
95
130
142
153
160
174
197
157
62
18
12
-25
-59
-84
-136
-151
-83
-27
-58
-133
-173
-170
-163
-177
-220
-227
-133
-93
-203
-217
-177
-262
302
1772
2186
488
-1124
-979
-298
-192
-238
-156
-132
-148
-125
-75
-13
30
64
122
176
212
249
283
325
358
348
338
344
292
207
158
89
-40
-137
-158
-156
-168
-176
-164
-137
-116
-131
-176
-209
-215
-222
-239
-240
-196
-165
-216
-259
-278
-284
324
1734
2241
651
-1099
-1069
-311
-199
-324
-238
-185
-203
-181
-159
-138
-114
-92
-32
26
22
28
88
134
158
180
175
145
120
96
72
43
-24
-107
-135
-129
-172
-253
-268
-188
-116
-118
-139
-148
-158
-153
-166
-205
-182
-147
-173
-190
-294
-219
914
2447
2130
126
-922
-462
-93
-184
-156
-66
-68
-60
-65
-65
22
116
113
68
106
237
293
181
101
212
312
185
-34
-126
-105
-102
-161
-232
-262
-280
-307
-286
-207
-146
-115
-97
-131
-183
-161
-125
-195
-268
-203
-157
-233
-260
-355
-395
632
2388
2410
338
-1055
-719
-262
-294
-260
-216
-231
-111
-109
-318
-323
-118
-53
-53
39
72
52
138
204
133
94
176
221
172
133
103
-4
-118
-111
-68
-108
-150
-98
-20
0
-20
-20
-14
-51
-82
-47
-13
-30
-60
-78
-71
-157
-234
460
1872
2166
629
-777
-771
-268
-28
-32
-273
-413
-164
49
-59
-171
-118
-56
-34
-11
6
28
72
95
79
92
130
94
14
12
51
14
-79
-130
-107
-82
-128
-168
-122
-77
-74
-41
-22
-77
-133
-169
-204
-209
-270
-359
-317
-395
-496
475
2157
2082
18
-1221
-703
-171
-278
-303
-170
-176
-237
-247
-215
-144
-97
-98
-73
-1
71
132
166
156
172
231
228
178
202
221
125
48
63
7
-126
-131
-24
10
-1
39
54
15
14
49
43
-11
-55
-50
-74
-174
-287
-448
-322
772
2045
1564
-295
-1170
-700
-292
-261
-209
-176
-129
2
18
-57
-19
38
5
3
70
105
99
100
86
40
3
1
-5
-25
-24
-32
-100
-155
-145
-186
-271
-240
-165
-192
-207
-105
-30
-87
-186
-207
-149
-98
-77
-89
-165
-250
-343
-373
318
1783
2245
724
-836
-817
-245
-142
-124
-16
-38
-54
4
7
33
105
91
79
182
245
211
233
293
267
217
226
252
277
302
275
171
54
24
77
59
-88
-179
-141
-127
-171
-177
-156
-153
-151
-165
-189
-163
-133
-189
-226
-182
-225
-48
966
1990
1307
-563
-1367
-785
-283
-292
-284
-209
-249
-302
-252
-168
-153
-183
-158
-79
-44
-72
-73
-22
6
17
58
83
67
70
83
49
5
1
-14
-128
-314
-421
-364
-243
-168
-116
-76
-93
-129
-124
-129
-142
-97
-76
-93
-58
-159
-174
837
2328
2052
10
-1149
-616
-7
18
12
70
52
49
65
95
168
182
141
203
292
249
163
130
81
28
59
130
151
124
45
-95
-221
-263
-246
-206
-156
-133
-146
-135
-78
-44
-76
-120
-131
-160
-230
-243
-212
-263
-284
-262
-437
-153
1428
2717
1565
-616
-1161
-512
-300
-416
-326
-206
-177
-178
-190
-136
-38
-4
24
90
87
22
39
128
144
69
35
95
140
109
40
-46
-125
-145
-131
-138
-137
-100
-45
20
59
36
8
35
35
-61
-115
-40
-1
-15
13
-120
-95
1022
2398
1803
-282
-1128
-420
25
-176
-244
-136
-171
-282
-298
-232
-171
-129
-95
-80
-40
60
147
166
150
116
96
126
148
97
35
-10
-91
-170
-192
-237
-330
-365
-318
-237
-152
-143
-228
-287
-279
-289
-301
-287
-329
-379
-334
-400
-474
309
1766
1932
265
-1065
-828
-247
-175
-172
-91
-172
-295
-272
-189
-136
-91
-55
-46
-27
46
129
159
157
184
238
285
325
352
306
191
120
119
80
24
64
130
120
125
191
210
167
125
77
37
66
90
19
-36
-30
-250
-564
63
1736
2382
789
-1057
-1215
-523
-269
-287
-172
-51
-42
-97
-152
-143
-49
33
-7
-68
29
178
174
119
178
234
182
148
165
120
45
33
-2
-123
-187
-119
-63
-92
-102
-59
-39
-63
-94
-98
-74
-88
-149
-150
-140
-233
-298
-320
-345
307
1846
2454
939
-773
-851
-254
-158
-232
-184
-186
-182
-129
-107
-49
37
14
-39
33
163
217
188
165
191
213
221
271
286
196
121
112
62
-27
-100
-200
-329
-402
-393
-345
-311
-299
-287
-292
-333
-394
-438
-427
-384
-353
-322
-377
-383
388
1788
1892
32
-1503
-1221
-475
-374
-411
-323
-374
-430
-347
-320
-360
-285
-149
-103
-127
-165
-172
-64
108
175
139
131
176
205
153
25
-62
-55
-80
-193
-244
-146
4
125
192
175
94
49
97
144
89
53
149
203
168
154
-6
114
1450
2865
2047
-112
-820
-143
204
125
158
235
302
340
267
153
