# session 25
-21
-40
2
67
-1
-169
-208
-133
-132
-190
-203
-199
-204
-190
-183
-195
-175
-157
-184
-180
-221
-225
586
2081
2206
310
-1148
-764
-91
-133
-220
-122
-133
-156
-107
-101
-108
-82
-67
-60
-38
-17
-1
25
55
85
122
159
195
229
256
281
306
312
276
208
131
48
-32
-95
-136
-161
-172
-176
-178
-175
-168
-160
-151
-142
-133
-123
-113
-108
-106
-103
-100
-98
-98
-102
-107
-111
-118
-115
-93
-64
-31
-5
-18
-58
-79
-82
-83
-72
-69
-81
-66
-61
-92
-107
-209
-150
905
2429
2227
210
-976
-479
7
-132
-179
-92
-125
-134
-89
-93
-93
-67
-59
-51
-29
-12
4
29
57
85
116
149
183
214
235
256
281
286
249
180
101
20
-54
-109
-144
-165
-176
-182
-184
-180
-171
-160
-150
-142
-135
-129
-124
-123
-124
-124
-122
-124
-130
-131
-135
-147
-146
-117
-81
-49
-29
-46
-91
-115
-117
-123
-119
-113
-124
-111
-96
-125
-138
-230
-312
468
2080
2422
617
-980
-770
-120
-117
-209
-129
-135
-158
-118
-112
-119
-95
-80
-73
-52
-29
-9
16
42
69
106
144
173
200
229
258
283
294
269
209
135
57
-23
-91
-136
-160
-173
-181
-181
-173
-164
-157
-147
-134
-127
-122
-117
-115
-116
-115
-115
-110
-104
-112
-119
-100
-62
-26
-8
-28
-75
-101
-98
-97
-96
-96
-107
-89
-70
-101
-113
-187
-291
396
1969
2402
641
-1066
-931
-194
-83
-153
-85
-90
-112
-71
-60
-66
-45
-30
-20
3
24
42
66
96
129
166
204
241
273
297
323
350
353
314
242
157
66
-23
-94
-139
-166
-184
-195
-199
-196
-188
-177
-165
-155
-151
-149
-141
-135
-135
-135
-134
-146
-153
-132
-98
-67
-44
-53
-97
-128
-131
-135
-133
-125
-134
-131
-111
-130
-160
-253
-390
177
1761
2532
1054
-763
-832
-147
-89
-233
-156
-140
-179
-140
-121
-130
-105
-84
-81
-63
-40
-24
-2
24
52
85
120
154
186
212
233
254
265
243
186
114
37
-37
-96
-134
-154
-162
-165
-162
-155
-147
-141
-135
-128
-124
-118
-113
-116
-117
-117
-126
-130
-106
-69
-35
-12
-25
-72
-104
-105
-108
-107
-101
-112
-104
-82
-106
-144
-260
-404
236
1885
2580
1012
-744
-732
-86
-77
-211
-130
-128
-166
-124
-110
-120
-97
-81
-75
-55
-32
-14
10
35
63
96
130
163
194
219
242
266
275
244
180
103
23
-52
-108
-141
-158
-167
-169
-165
-158
-149
-141
-133
-127
-121
-117
-114
-113
-109
-110
-119
-112
-81
-42
-10
2
-27
-77
-101
-107
-111
-104
-109
-119
-98
-95
-134
-196
-387
-291
960
2478
2001
-64
-987
-382
-7
-179
-191
-119
-163
-158
-117
-123
-115
-90
-85
-72
-46
-29
-12
16
45
75
108
141
173
199
221
247
268
257
206
133
53
-29
-98
-143
-166
-177
-181
-181
-176
-168
-159
-152
-146
-137
-129
-125
-120
-114
-115
-116
-113
-121
-131
-113
-75
-41
-14
-12
-54
-95
-104
-106
-106
-98
-109
-110
-83
-101
-141
-229
-400
57
1649
2685
1406
-565
-857
-174
-51
-212
-152
-124
-166
-131
-106
-116
-96
-75
-72
-55
-33
-16
8
36
64
94
126
158
188
211
231
258
276
257
201
128
50
-28
-92
-133
-154
-164
-169
-168
-162
-155
-147
-139
-131
-125
-120
-114
-112
-111
-107
-106
-111
-113
-115
-127
-129
-103
-67
-33
-9
-21
-67
-92
-94
-99
-94
-87
-100
-90
-74
-105
-133
-252
-359
447
2176
2646
853
-815
-666
-67
-116
-223
-136
-147
-175
-130
-122
-129
-103
-88
-84
-63
-41
-25
-3
25
53
85
117
148
176
199
224
251
260
230
167
91
14
-58
-115
-150
-171
-186
-190
-183
-175
-172
-165
-156
-148
-141
-134
-129
-125
-122
-120
-117
-116
-120
-123
-127
-142
-145
-121
-87
-54
-26
-30
-67
-92
-96
-100
-94
-84
-96
-87
-67
-99
-128
-225
-364
304
2021
2737
1093
-767
-803
-138
-88
-206
-137
-137
-165
-122
-111
-119
-87
-65
-61
-43
-25
-12
16
53
83
112
149
189
219
239
259
285
299
274
209
128
49
-21
-87
-141
-170
-180
-186
-187
-182
-173
-160
-149
-145
-138
-123
-113
-113
-111
-106
-101
-98
-102
-109
-110
-119
-135
-129
-98
-70
-45
-26
-42
-80
-99
-105
-105
-91
-95
-106
-82
-83
-119
-151
-283
-115
1167
2612
1994
-176
-1126
-494
-56
-173
-173
-107
-147
-139
-98
-103
-95
-69
-59
-46
-27
-12
12
43
70
103
144
182
219
253
278
299
317
306
251
170
83
-4
-82
-137
-167
-181
-190
-201
-208
-204
-194
-184
-175
-164
-151
-139
-129
-123
-118
-115
-116
-117
-117
-123
-129
-135
-149
-157
-141
-108
-76
-46
-36
-63
-95
-104
-106
-103
-93
-99
-98
-75
-89
-123
-195
-322
186
1818
2894
1621
-424
-814
-176
-64
-233
-174
-145
-192
-159
-131
-141
-122
-99
-93
-75
-54
-38
-16
11
38
72
112
150
187
220
247
274
287
261
198
121
40
-41
-107
-149
-171
-182
-187
-188
-187
-184
-180
-173
-164
-155
-145
-136
-129
-121
-113
-108
-107
-106
-106
-106
-104
-103
-110
-116
-120
-132
-137
-115
-79
-45
-17
-17
-52
-80
-84
-86
-80
-72
-84
-75
-51
-77
-110
-202
-282
481
2237
2899
1199
-644
-669
-72
-100
-228
-144
-148
-181
-135
-122
-131
-104
-88
-85
-65
-43
-25
-1
27
58
95
137
179
217
246
272
298
309
278
209
126
43
-39
-107
-149
-170
-181
-186
-190
-191
-189
-185
-179
-169
-160
-156
-149
-138
-130
-127
-125
-122
-122
-121
-120
-121
-122
-122
-123
-123
-127
-133
-135
-143
-152
-138
-100
-63
-29
-19
-52
-86
-90
-90
-91
-79
-85
-90
-64
-75
-117
-178
-306
117
1696
2911
1796
-318
-855
-219
-47
-220
-172
-128
-172
-146
-122
-136
-116
-90
-89
-74
-45
-24
-7
13
40
78
121
163
203
239
267
290
308
299
245
162
76
-6
-77
-126
-153
-173
-184
-182
-177
-176
-171
-160
-150
-143
-135
-127
-121
-114
-107
-103
-101
-98
-96
-94
-93
-96
-100
-98
-93
-96
-104
-104
-105
-118
-118
-91
-57
-28
-5
-11
-44
-66
-72
-77
-68
-65
-80
-64
-49
-86
-104
-185
-194
723
2359
2504
526
-1016
-713
-92
-122
-193
-113
-133
-151
-108
-104
-107
-81
-66
-54
-32
-16
0
27
57
89
128
172
215
254
286
313
337
340
301
224
133
39
-51
-122
-168
-195
-211
-218
-221
-222
-218
-209
-198
-188
-176
-164
-154
-147
-140
-132
-128
-126
-125
-125
-125
-124
-128
-133
-137
-145
-156
-150
-120
-84
-48
-26
-42
-79
-95
-96
-100
-90
-86
-96
-75
-67
-107
-146
-258
-128
1085
2703
2437
331
-872
-415
-14
-185
-218
-131
-171
-177
-132
-136
-132
-101
-92
-83
-60
-43
-26
1
30
63
105
148
190
229
260
284
304
300
253
174
89
7
-70
-127
-161
-178
-186
-188
-189
-189
-186
-181
-172
-162
-155
-147
-137
-127
-121
-116
-113
-110
-106
-105
-106
-105
-107
-114
-118
-125
-137
-131
-101
-67
-35
-14
-27
-65
-84
-87
-91
-83
-78
-90
-74
-59
-93
-124
-228
-211
802
2518
2660
666
-845
-553
-37
-154
-229
-137
-165
-183
-133
-131
-135
-107
-95
-90
-68
-47
-29
-5
22
54
92
132
174
215
248
276
300
303
266
196
111
24
-60
-124
-164
-184
-193
-200
-205
-201
-194
-191
-186
-175
-166
-162
-155
-146
-143
-140
-131
-122
-121
-123
-121
-122
-127
-130
-140
-149
-133
-97
-64
-37
-25
-50
-88
-98
-97
-101
-94
-95
-99
-73
-72
-110
-141
-262
-86
1207
2711
2178
24
-989
-426
-36
-181
-185
-114
-159
-152
-107
-112
-105
-77
-65
-51
-31
-16
6
36
64
97
141
187
230
266
294
320
339
330
275
194
112
27
-62
-127
-160
-179
-190
-188
-188
-194
-192
-178
-165
-158
-150
-142
-136
-131
-125
-118
-114
-111
-109
-113
-117
-113
-114
-126
-126
-99
-66
-38
-24
-45
-86
-102
-102
-107
-102
-100
-111
-95
-88
-123
-138
-230
-195
819
2408
2337
279
-1107
-687
-98
-154
-204
-122
-146
-157
-116
-115
-111
-82
-73
-65
-43
-25
-4
27
56
87
128
174
217
256
287
313
334
331
285
207
117
24
-62
-128
-168
-190
-204
-212
-214
-209
-202
-194
-185
-173
-162
-153
-145
-139
-134
-128
-125
-129
-131
-133
-146
-153
-133
-99
-70
-44
-42
-74
-104
-110
-113
-110
-99
-108
-109
-83
-96
-132
-202
-306
232
1853
2878
1587
-413
-773
-158
-72
-238
-173
-145
-191
-157
-130
-139
-119
-96
-92
-76
-56
-39
-15
13
41
75
114
155
196
229
255
279
290
265
201
120
37
-42
-107
-150
-175
-186
-187
-187
-187
-182
-175
-168
-162
-156
-151
-146
-140
-135
-132
-127
-126
-132
-132
-133
-144
-141
-108
-70
-45
-32
-48
-86
-108
-111
-115
-109
-102
-112
-102
-87
-120
-147
-245
-307
538
2288
2768
966
-743
-647
-84
-142
-246
-156
-163
-187
-140
-133
-141
-113
-93
-86
-68
-47
-28
-2
26
57
92
131
177
219
244
260
286
301
269
194
107
23
-54
-116
-161
-189
-198
-198
-198
-191
-179
-170
-165
-159
-152
-142
-132
-131
-134
-126
-118
-121
-116
-113
-129
-133
-97
-54
-31
-27
-51
-89
-106
-108
-114
-108
-106
-117
-95
-79
-119
-140
-230
-279
582
2232
2463
511
-1093
-809
-128
-115
-185
-103
-113
-127
-83
-79
-80
-50
-36
-31
-12
11
35
64
91
119
156
200
245
280
302
326
351
351
306
226
134
39
-49
-119
-163
-186
-195
-204
-211
-209
-201
-194
-187
-179
-168
-157
-151
-147
-141
-135
-134
-134
-137
-150
-155
-129
-91
-63
-49
-63
-103
-126
-127
-130
-126
-117
-128
-120
-99
-124
-159
-260
-335
449
2179
2755
1026
-732
-675
-82
-130
-251
-161
-168
-198
-148
-137
-146
-119
-104
-99
-76
-57
-42
-17
11
38
75
116
153
188
218
242
263
268
236
168
87
6
-69
-125
-158
-176
-186
-190
-189
-186
-183
-177
-170
-162
-154
-144
-137
-132
-124
-119
-122
-122
-117
-127
-138
-119
-81
-50
-24
-21
-56
-93
-99
-100
-99
-89
-94
-99
-74
-83
-124
-194
-335
45
1590
2891
1918
-184
-811
-211
-34
-221
-183
-134
-182
-158
-125
-135
-120
-98
-93
-77
-56
-43
-22
7
35
67
104
144
182
215
239
265
281
263
205
127
44
-36
-104
-149
-175
-187
-192
-193
-192
-187
-180
-175
-168
-159
-150
-143
-137
-133
-130
-127
-124
-118
-116
-121
-124
-127
-138
-138
-109
-71
-41
-19
-28
-71
-97
-95
-97
-97
-91
-101
-92
-71
-101
-132
-214
-319
369
2105
2882
1285
-607
-718
-112
-105
-242
-162
-153
-189
-149
-131
-134
-108
-91
-88
-71
-51
-32
-7
20
46
80
122
168
209
237
259
287
306
285
221
137
49
-34
-101
-146
-168
-178
-186
-190
-186
-177
-170
-165
-159
-152
-143
-137
-136
-135
-127
-121
-120
-121
-118
-119
-122
-125
-135
-149
-137
-98
-63
-43
-35
-55
-90
-102
-102
-103
-94
-96
-107
-83
-78
-114
-146
-274
-139
1096
2609
2132
-45
-1137
-559
-67
-159
-173
-106
-139
-134
-94
-100
-94
-69
-61
-49
-27
-9
12
40
71
106
146
187
229
267
296
323
345
339
290
209
115
20
-64
-126
-164
-185
-198
-207
-212
-207
-197
-188
-178
-164
-154
-148
-140
-130
-124
-122
-121
-120
-119
-125
-130
-130
-138
-152
-145
-115
-83
-49
-26
-44
-83
-98
-98
-100
-91
-89
-99
-78
-65
-102
-142
-263
-162
1022
2682
2505
411
-861
-434
-11
-177
-220
-132
-171
-176
-129
-135
-133
-104
-96
-89
-67
-50
-34
-7
22
54
92
133
173
210
240
267
291
291
247
171
86
0
-76
-132
-168
-188
-194
-196
-197
-197
-191
-183
-178
-172
-163
-155
-148
-143
-138
-132
-127
-123
-118
-114
-117
-125
-127
-133
-145
-139
-110
-80
-49
-22
-36
-79
-99
-99
-102
-96
-92
-104
-87
-72
-108
-141
-253
-236
810
2556
2678
658
-845
-545
-40
-160
-231
-141
-171
-189
-141
-140
-141
-113
-104
-98
-74
-53
-36
-11
18
50
89
133
176
216
249
277
303
309
272
199
114
24
-60
-123
-160
-182
-193
-198
-200
-200
-196
-188
-178
-168
-158
-150
-142
-136
-130
-125
-122
-119
-116
-115
-113
-108
-109
-116
-120
-127
-138
-132
-100
-61
-20
2
-23
-70
-84
-81
-85
-78
-75
-84
-63
-55
-93
-124
-252
-201
940
2637
2543
461
-874
-478
-20
-157
-201
-115
-151
-158
-109
-111
-113
-86
-76
-68
-45
-23
-4
21
50
81
118
158
202
241
273
303
331
331
286
212
128
37
-50
-116
-156
-177
-186
-192
-195
-194
-187
-178
-169
-165
-161
-153
-143
-139
-137
-134
-132
-131
-128
-126
-126
-130
-134
-133
-131
-144
-153
-135
-101
-71
-46
-44
-77
-108
-111
-109
-105
-99
-110
-108
-83
-99
-125
-169
-280
185
1731
2746
1459
-600
-996
-291
-74
-203
-155
-123
-160
-132
-107
-115
-98
-75
-67
-51
-27
-6
19
45
74
111
151
194
237
274
304
333
354
335
268
179
89
-1
-84
-144
-176
-194
-206
-213
-217
-214
-205
-194
-183
-172
-163
-158
-152
-144
-140
-137
-136
-137
-135
-133
-139
-142
-142
-155
-162
-139
-101
-70
-46
-48
-85
-113
-115
-114
-108
-98
-106
-100
-78
-101
-131
-209
-295
390
2101
2891
1330
-571
-712
-111
-101
-242
-162
-155
-195
-152
-132
-141
-119
-102
-98
-78
-57
-39
-12
18
49
87
130
176
220
256
286
314
329
308
246
163
77
-3
-69
-114
-138
-149
-153
-155
-155
-153
-146
-136
-125
-116
-107
-95
-83
-77
-73
-67
-61
-56
-52
-51
-52
-51
-51
-60
-62
-38
0
34
58
54
20
-11
-15
