# session 33
-20
-36
-1
76
50
-90
-146
-89
-56
-48
-11
25
49
85
120
141
161
187
210
209
167
94
16
-56
-117
-160
-184
-195
-199
-195
-187
-176
-166
-157
-147
-139
-131
-125
-121
-119
-114
-108
-105
-103
-101
-98
-92
-88
-94
-105
-103
-78
-32
15
23
-16
-56
-65
-68
-68
-59
-68
-72
-46
-60
-90
-130
-267
67
1529
2771
1855
-129
-739
-197
-14
-167
-140
-105
-145
-122
-95
-105
-90
-69
-64
-51
-31
-18
0
22
44
68
95
123
150
175
193
206
226
248
246
203
131
51
-25
-91
-139
-166
-179
-185
-185
-180
-173
-165
-156
-147
-141
-136
-132
-130
-128
-125
-122
-119
-116
-113
-112
-111
-106
-105
-113
-122
-117
-92
-46
-3
-4
-48
-84
-93
-97
-93
-87
-102
-101
-77
-100
-125
-186
-319
184
1774
2760
1509
-380
-714
-153
-65
-206
-159
-141
-174
-145
-126
-132
-114
-97
-92
-74
-54
-40
-24
-5
16
42
72
103
132
153
171
192
219
241
232
182
111
37
-38
-102
-144
-178
-202
-200
-183
-173
-171
-164
-157
-154
-150
-145
-142
-139
-132
-128
-128
-125
-119
-116
-114
-109
-110
-117
-113
-105
-114
-131
-119
-76
-32
-3
3
-28
-70
-90
-95
-91
-85
-91
-83
-64
-90
-104
-153
-316
113
1664
2691
1475
-454
-823
-220
-64
-172
-123
-115
-146
-100
-76
-96
-81
-52
-48
-45
-33
-12
21
46
54
77
121
151
166
193
231
258
282
301
289
233
157
74
-15
-89
-133
-164
-194
-203
-191
-182
-175
-160
-163
-178
-166
-139
-138
-145
-131
-112
-118
-138
-143
-128
-119
-124
-118
-111
-127
-134
-98
-44
-4
-4
-47
-81
-90
-109
-118
-94
-92
-96
-66
-83
-122
-121
-237
-88
1160
2557
1909
-245
-1184
-558
-83
-145
-142
-92
-128
-101
-42
-53
-71
-51
-30
-22
-10
16
47
56
57
96
155
187
204
236
266
275
293
338
348
277
186
114
17
-86
-131
-150
-193
-212
-196
-208
-232
-204
-159
-159
-168
-148
-136
-141
-124
-100
-109
-125
-109
-90
-105
-121
-114
-123
-155
-167
-133
-72
-23
-20
-59
-94
-105
-118
-125
-104
-93
-119
-115
-89
-109
-155
-279
-302
611
2322
2713
968
-615
-534
-68
-146
-240
-179
-190
-177
-135
-172
-179
-108
-87
-113
-102
-75
-60
-29
7
28
43
68
101
126
130
145
191
206
171
155
144
62
-43
-97
-144
-193
-196
-193
-221
-227
-202
-188
-174
-153
-145
-139
-119
-111
-114
-105
-91
-88
-84
-82
-90
-92
-93
-112
-119
-81
-34
-8
-4
-34
-73
-85
-88
-92
-82
-83
-81
-59
-79
-112
-165
-337
-21
1483
2776
1843
-206
-852
-281
-43
-169
-144
-103
-125
-94
-69
-81
-69
-56
-62
-46
-7
14
15
18
37
70
103
136
174
213
238
243
243
250
243
198
123
40
-40
-112
-163
-183
-191
-204
-215
-215
-215
-215
-206
-188
-174
-174
-172
-156
-145
-140
-126
-112
-110
-103
-94
-101
-108
-87
-66
-80
-89
-53
-17
-14
0
20
-11
-62
-77
-72
-62
-58
-77
-72
-43
-75
-88
-78
-217
20
1259
2244
1320
-426
-910
-378
-84
-76
-14
-24
-114
-114
-60
-46
-31
12
44
51
7
-66
-52
56
112
103
132
167
165
208
283
283
259
311
339
258
171
137
73
-46
-156
-210
-195
-140
-116
-139
-149
-118
-106
-139
-172
-172
-144
-105
-102
-135
-128
-91
-115
-171
-170
-126
-97
-103
-120
-118
-115
-129
-122
-103
-126
-152
-129
-99
-85
-52
-15
-25
-58
-62
-71
-109
-116
-102
-106
-75
-60
-123
-115
-120
-197
411
1761
2003
382
-1036
-884
-264
-101
-86
-43
-68
-52
7
-34
-94
-43
30
35
26
29
40
83
119
110
127
178
180
166
219
277
271
270
316
333
260
161
122
97
21
-52
-81
-127
-183
-166
-105
-90
-107
-98
-77
-86
-116
-121
-81
-48
-67
-107
-123
-122
-109
-104
-119
-87
-29
-78
-167
-140
-81
-76
-71
-106
-176
-138
-28
-12
-33
11
21
-59
-107
-86
-84
-102
-104
-96
-65
-57
-90
-105
-212
-190
709
2004
1879
297
-712
-483
-130
-107
-94
-108
-187
-150
-45
-36
-74
-62
-22
-21
-54
-34
32
35
11
51
90
87
116
159
161
167
190
196
208
231
210
133
39
-33
-84
-126
-149
-144
-135
-147
-157
-135
-120
-150
-164
-113
-82
-127
-155
-118
-98
-111
-103
-102
-123
-122
-114
-131
-134
-110
-95
-79
-53
-36
-14
-10
-62
-103
-90
-87
-92
-81
-100
-108
-76
-92
-109
-124
-248
49
1258
2118
1214
-333
-716
-267
-84
-139
-103
-70
-86
-78
-61
-68
-79
-66
-29
-1
12
17
0
-2
61
115
101
105
170
206
179
168
214
261
259
224
173
90
1
-56
-91
-120
-136
-141
-143
-141
-149
-156
-139
-120
-126
-142
-133
-100
-84
-105
-121
-115
-115
-114
-116
-133
-115
-56
-45
-66
-38
-15
-57
-84
-68
-94
-129
-96
-81
-108
-81
-72
-123
-116
-190
-191
663
1944
1818
249
-735
-503
-138
-83
-79
-107
-140
-101
-79
-93
-74
-48
-35
-11
-15
-36
-5
40
40
53
96
110
113
157
195
190
198
238
255
222
164
97
34
-14
-69
-129
-148
-137
-148
-173
-165
-142
-137
-136
-125
-127
-137
-122
-106
-132
-158
-134
-105
-120
-126
-92
-68
-70
-56
-33
-45
-81
-98
-103
-122
-121
-91
-82
-98
-115
-124
-97
-149
-274
209
1489
2050
897
-490
-665
-248
-102
-104
-90
-118
-112
-63
-62
-77
-48
-21
-30
-37
-16
15
33
37
50
88
120
115
124
178
214
209
217
247
249
207
140
68
3
-55
-98
-127
-153
-162
-146
-131
-137
-138
-124
-112
-108
-108
-115
-119
-111
-104
-111
-117
-120
-135
-132
-79
-25
-25
-36
-28
-48
-94
-104
-87
-83
-76
-75
-113
-127
-110
-129
-120
-154
-280
224
1610
2170
797
-735
-785
-226
-100
-149
-104
-96
-106
-84
-80
-83
-57
-30
-30
-30
-9
11
19
35
55
65
73
99
150
200
223
240
261
251
215
190
154
66
-35
-81
-89
-122
-170
-172
-145
-145
-167
-174
-149
-114
-107
-123
-119
-101
-113
-124
-97
-80
-98
-112
-113
-122
-113
-64
-14
7
-1
-32
-66
-87
-98
-102
-89
-80
-93
-82
-63
-86
-103
-182
-303
225
1572
2140
912
-524
-654
-200
-95
-134
-87
-92
-129
-106
-69
-59
-50
-32
-37
-69
-61
5
43
31
41
72
81
106
160
181
164
171
212
240
217
165
134
109
37
-62
-113
-125
-141
-149
-139
-135
-128
-103
-96
-121
-134
-120
-115
-114
-99
-98
-121
-124
-97
-92
-123
-138
-112
-90
-105
-125
-114
-86
-50
-3
12
-36
-92
-101
-88
-75
-70
-89
-92
-68
-95
-119
-111
-226
-40
1079
2123
1465
-128
-700
-293
-70
-137
-125
-88
-103
-108
-99
-75
-50
-59
-68
-32
2
-14
-26
17
56
39
46
117
158
143
141
167
198
232
230
175
131
109
53
-24
-73
-106
-145
-158
-129
-106
-117
-127
-116
-105
-108
-117
-118
-107
-95
-93
-96
-96
-96
-103
-112
-111
-106
-112
-111
-96
-102
-121
-93
-31
-1
3
0
-36
-83
-88
-75
-72
-73
-75
-55
-33
-79
-109
-126
-247
61
1297
2186
1278
-293
-686
-240
-59
-118
-106
-98
-110
-89
-75
-74
-64
-56
-50
-39
-30
-20
-1
29
48
41
48
90
130
143
153
169
185
202
219
217
175
93
9
-47
-91
-137
-158
-148
-139
-142
-135
-125
-133
-138
-126
-120
-124
-119
-109
-109
-122
-135
-125
-98
-97
-121
-122
-104
-103
-106
-102
-108
-114
-89
-40
-5
-2
-25
-52
-66
-76
-80
-76
-89
-88
-41
-48
-100
-89
-192
-234
649
2033
1966
342
-701
-455
-104
-113
-110
-76
-104
-92
-53
-53
-62
-60
-51
-32
-9
-2
-6
11
50
70
68
89
125
137
152
189
202
197
217
228
182
115
59
-6
-65
-97
-120
-141
-146
-137
-128
-127
-128
-116
-106
-114
-123
-111
-100
-99
-98
-103
-114
-109
-96
-100
-110
-107
-102
-107
-109
-104
-104
-116
-119
-73
3
27
-16
-57
-72
-97
-106
-73
-60
-83
-70
-57
-103
-104
-116
-251
107
1381
2186
1187
-348
-661
-207
-64
-140
-117
-101
-111
-86
-75
-85
-75
-55
-47
-43
-28
-6
2
-1
21
56
76
98
129
137
142
186
221
209
211
228
160
36
-27
-39
-54
-77
-130
-179
-141
-80
-107
-154
-135
-109
-108
-88
-69
-98
-135
-129
-113
-106
-74
-49
-90
-135
-118
-104
-109
-77
-66
-126
-138
-63
-9
-8
-23
-48
-57
-52
-71
-99
-108
-103
-77
-72
-98
-87
-158
-247
393
1723
2033
664
-587
-538
-119
-85
-135
-98
-99
-108
-82
-59
-53
-62
-59
-35
-27
-28
5
32
23
35
76
95
101
127
151
156
163
187
211
210
182
136
70
1
-41
-84
-139
-156
-135
-133
-144
-132
-115
-112
-107
-109
-120
-112
-87
-92
-121
-117
-87
-96
-124
-116
-103
-106
-81
-56
-99
-141
-96
-34
-20
-13
-7
-41
-89
-101
-80
-54
-71
-119
-81
-2
-57
-133
-151
-221
180
1415
2082
983
-472
-651
-170
-57
-150
-117
-74
-99
-117
-89
-40
-8
-17
-45
-37
-6
-10
-17
25
67
80
109
124
96
106
175
203
182
199
227
186
114
66
18
-35
-83
-129
-153
-150
-149
-144
-126
-124
-125
-111
-111
-123
-110
-94
-109
-127
-115
-92
-87
-104
-121
-117
-102
-113
-149
-159
-110
-28
29
26
-22
-65
-83
-80
-70
-82
-108
-95
-55
-70
-100
-67
-135
-260
274
1517
1918
683
-605
-618
-143
-71
-126
-46
-17
-67
-88
-82
-51
-15
-26
-39
-11
11
21
49
50
35
80
133
120
107
155
198
183
177
224
243
186
119
77
21
-44
-73
-80
-136
-210
-172
-85
-112
-158
-103
-78
-119
-115
-99
-108
-86
-99
-168
-132
-41
-100
-187
-114
-48
-111
-138
-85
-59
-32
24
-5
-94
-90
-48
-97
-129
-65
-41
-70
-71
-105
-123
-109
-220
38
1177
1950
1012
-430
-687
-238
-79
-100
-62
-55
-60
-60
-91
-81
-25
-25
-53
-21
32
49
36
18
42
100
111
98
131
155
138
169
228
229
200
182
140
78
23
-22
-59
-88
-112
-132
-151
-159
-139
-108
-102
-129
-152
-133
-109
-118
-108
-79
-110
-161
-149
-124
-128
-99
-70
-116
-154
-86
5
22
-16
-66
-85
-77
-100
-125
-92
-69
-88
-90
-94
-89
-103
-237
-11
1084
1931
1125
-362
-754
-293
-57
-84
-74
-75
-81
-54
-77
-103
-37
31
16
-6
12
26
35
61
87
95
102
125
152
165
167
166
173
199
227
222
177
96
10
-34
-54
-93
-119
-115
-134
-184
-190
-120
-53
-71
-124
-122
-88
-85
-111
-134
-128
-98
-110
-154
-134
-79
-85
-109
-84
-41
-13
-16
-55
-88
-92
-96
-99
-92
-105
-99
-64
-93
-103
-57
-206
-165
876
1999
1397
-267
-891
-423
-97
-95
-72
-65
-92
-68
-42
-44
-36
-18
-8
-4
0
14
33
47
62
81
99
117
141
170
181
162
163
218
254
220
173
128
47
-33
-70
-103
-143
-159
-167
-179
-157
-110
-98
-124
-135
-118
-102
-107
-126
-134
-109
-79
-89
-118
-126
-128
-129
-102
-50
-9
-10
-48
-79
-85
-95
-102
-84
-86
-103
-74
-71
-107
-95
-204
-240
606
1862
1685
112
-800
-488
-108
-88
-104
-104
-107
-83
-88
-104
-78
-39
-5
10
-12
-27
-3
31
41
21
33
112
185
198
172
138
153
216
233
198
182
150
64
-17
-67
-104
-127
-149
-169
-154
-119
-108
-117
-123
-115
-101
-103
-110
-111
-125
-133
-105
-101
-133
-119
-85
-96
-74
3
19
-36
-75
-86
-94
-94
-81
-76
-81
-69
-76
-108
-96
-168
-255
373
1640
1881
524
-662
-573
-128
-62
-98
-71
-77
-78
-54
-51
-51
-33
-20
-19
-14
5
27
43
53
62
77
103
130
149
164
180
193
198
205
208
173
102
45
7
-44
-94
-116
-123
-133
-146
-154
-145
-124
-111
-105
-99
-104
-116
-117
-109
-111
-130
-131
-104
-95
-118
-118
-79
-34
-11
-40
-92
-104
-98
-112
-110
-109
-129
-118
-116
-132
-93
-182
-286
440
1760
1830
327
-767
-575
-156
-98
-117
-120
-121
-68
-53
-99
-92
-49
-50
-65
-47
-11
19
29
34
58
93
108
106
116
145
165
170
191
221
219
177
110
22
-67
-117
-127
-135
-144
-127
-121
-171
-211
-166
-96
-92
-120
-112
-96
-113
-138
-132
-114
-115
-120
-122
-123
-100
-54
-31
-36
-45
-65
-76
-56
-53
-80
-102
-110
-85
-64
-99
-136
-251
-316
432
1816
1989
458
-776
-633
-161
-85
-103
-49
-30
-63
-100
-99
-69
-34
7
16
-24
-19
53
79
51
66
105
104
123
193
220
186
193
247
266
245
204
132
58
11
-31
-78
-103
-107
-108
-112
-113
-106
-98
-97
-99
-96
-86
-69
-62
-73
-74
-54
-49
-69
-82
-90
-101
-75
-18
8
5
3
-10
-36
-48
-47
-44
-65
-95
-71
-40
-58
-48
-130
-279
278
1601
1985
655
-641
-625
-162
-68
-92
-51
-60
-81
-62
-54
-57
-42
-34
-53
-61
-29
6
17
33
61
70
63
76
104
116
119
145
184
198
179
146
100
17
-72
-121
-154
-197
-206
-185
-184
-192
-182
-183
-193
-185
-184
-187
-165
-157
-190
-210
-186
-166
-177
-184
-174
-174
-178
-151
-104
-87
-121
-156
-148
-142
-172
-189
-176
-163
-139
-138
-171
-156
-232
-352
273
1583
1826
430
-744
-619
-175
-110
-132
-100
-105
-101
-76
-71
-68
-49
-21
7
21
25
38
67
95
102
117
166
199
199
229
284
308
323
344
328
284
253
203
116
53
45
54
49
32
26
48
72
70
