# session 41
-10
-26
5
88
75
-57
-113
-66
-53
-65
-47
-21
7
38
53
61
72
81
93
118
147
160
163
200
237
216
201
223
176
58
-11
-45
-105
-131
-97
-89
-126
-136
-112
-112
-120
-97
-85
-104
-94
-66
-67
-69
-68
-87
-79
-37
-49
-96
-87
-59
-73
-86
-75
-63
-46
-15
4
-9
-34
-36
-36
-64
-72
-51
-55
-74
-76
-63
-37
-123
-229
369
1703
2148
864
-499
-549
-98
-50
-134
-109
-127
-148
-87
-45
-73
-100
-65
-15
-24
-48
-21
6
-6
11
59
70
66
85
115
160
190
154
141
201
185
67
17
19
-51
-122
-130
-140
-142
-114
-112
-130
-137
-154
-137
-69
-80
-178
-189
-106
-87
-120
-105
-87
-119
-125
-86
-99
-144
-124
-89
-102
-91
-28
22
12
-67
-130
-101
-73
-118
-124
-55
-35
-93
-104
-94
-250
-212
776
2080
1916
371
-575
-370
-95
-107
-101
-117
-170
-129
-95
-129
-111
-49
-33
-54
-67
-58
-30
2
24
27
30
61
95
104
124
154
140
131
168
165
115
94
52
-53
-113
-92
-83
-124
-159
-154
-128
-109
-117
-143
-143
-116
-116
-131
-99
-72
-117
-153
-121
-105
-115
-75
-44
-105
-157
-120
-70
-24
28
0
-75
-64
-39
-96
-113
-66
-82
-109
-69
-64
-79
-90
-227
-55
1059
2133
1505
-139
-755
-289
-20
-117
-112
-68
-97
-77
-45
-69
-66
-30
-37
-51
-31
4
47
69
41
38
100
138
111
104
154
205
225
219
199
182
160
117
72
29
-34
-110
-150
-133
-98
-110
-141
-122
-82
-83
-109
-127
-139
-144
-126
-77
-53
-103
-147
-126
-110
-130
-142
-123
-63
-5
-25
-78
-95
-96
-95
-95
-117
-133
-113
-98
-114
-115
-91
-188
-295
298
1614
2079
836
-552
-680
-226
-73
-103
-129
-162
-135
-99
-126
-126
-80
-60
-63
-69
-57
-4
22
-15
-17
42
70
73
104
123
112
128
166
170
146
126
100
51
-12
-65
-93
-111
-139
-154
-146
-139
-131
-116
-113
-109
-75
-59
-100
-135
-123
-96
-85
-90
-78
-43
-52
-104
-105
-57
-29
-2
25
-8
-63
-71
-49
-29
-32
-74
-81
-30
-42
-94
-120
-191
73
1131
2005
1334
-84
-538
-174
-25
-110
-96
-73
-93
-82
-66
-63
-49
-42
-44
-30
-14
-5
9
26
41
59
76
90
105
120
130
135
139
150
161
150
107
53
-1
-55
-101
-129
-145
-151
-150
-147
-144
-140
-135
-133
-135
-132
-129
-128
-127
-125
-126
-126
-124
-129
-136
-132
-114
-79
-42
-40
-78
-111
-120
-123
-119
-111
-122
-117
-95
-112
-118
-136
-257
13
1093
1850
1037
-332
-650
-230
-57
-107
-90
-76
-87
-67
-53
-53
-39
-23
-20
-15
0
19
35
53
73
89
104
126
143
151
162
179
189
200
211
197
147
86
33
-19
-71
-108
-122
-126
-128
-123
-116
-114
-114
-107
-100
-98
-101
-102
-100
-98
-101
-110
-117
-110
-84
-47
-21
-30
-68
-98
-110
-117
-110
-96
-112
-116
-95
-115
-121
-125
-256
8
1199
2088
1183
-420
-814
-309
-75
-114
-89
-75
-91
-73
-65
-68
-50
-38
-35
-20
-2
8
19
37
62
85
100
117
142
161
169
178
195
216
225
202
149
83
13
-53
-99
-125
-147
-162
-161
-149
-143
-140
-134
-130
-128
-122
-114
-112
-114
-116
-121
-127
-122
-99
-61
-33
-46
-85
-111
-119
-126
-123
-117
-127
-117
-95
-121
-131
-164
-315
15
1305
2196
1234
-355
-692
-211
-69
-161
-130
-107
-127
-107
-94
-98
-80
-63
-65
-56
-33
-15
-3
11
24
40
61
80
96
117
133
138
150
173
178
154
107
45
-16
-63
-99
-129
-145
-149
-150
-146
-137
-132
-133
-125
-112
-109
-107
-95
-89
-102
-114
-111
-92
-58
-20
-6
-29
-62
-80
-92
-95
-83
-85
-90
-69
-80
-113
-128
-258
-193
827
2152
1908
266
-633
-311
-31
-131
-149
-107
-133
-122
-90
-95
-91
-73
-69
-65
-50
-33
-17
-1
14
31
49
69
92
111
117
117
131
158
174
161
116
51
-17
-74
-115
-139
-150
-157
-165
-160
-148
-148
-157
-154
-143
-142
-145
-132
-114
-114
-127
-137
-137
-118
-73
-28
-23
-61
-98
-105
-104
-103
-91
-94
-105
-94
-107
-117
-113
-260
-177
904
2165
1734
29
-770
-367
-52
-111
-113
-83
-110
-97
-67
-71
-66
-52
-48
-33
-8
5
12
28
51
74
93
111
135
156
169
182
204
230
237
210
153
82
14
-48
-102
-135
-148
-158
-165
-159
-148
-148
-151
-145
-132
-124
-122
-122
-125
-126
-120
-123
-139
-139
-105
-60
-38
-51
-83
-104
-110
-112
-104
-104
-120
-103
-87
-119
-114
-167
-318
179
1593
2233
942
-592
-701
-180
-73
-137
-99
-101
-115
-82
-70
-78
-68
-59
-49
-24
-3
4
13
34
57
76
97
120
142
162
180
193
207
226
231
199
136
64
-8
-69
-108
-131
-150
-159
-157
-154
-149
-135
-121
-122
-128
-123
-116
-119
-121
-115
-112
-120
-127
-119
-109
-120
-135
-117
-76
-44
-33
-49
-80
-96
-100
-98
-89
-95
-101
-77
-83
-108
-99
-234
-251
717
2118
1945
222
-787
-442
-61
-106
-119
-76
-107
-107
-74
-73
-71
-53
-45
-40
-29
-14
0
14
28
49
72
92
112
132
151
165
182
204
221
213
176
115
44
-23
-73
-110
-135
-143
-141
-143
-145
-141
-134
-128
-125
-122
-118
-114
-111
-105
-102
-107
-110
-104
-99
-102
-104
-101
-101
-105
-117
-125
-109
-68
-27
-9
-26
-56
-68
-74
-86
-82
-74
-82
-72
-63
-88
-117
-229
-248
602
2116
2401
866
-458
-388
-34
-116
-185
-124
-139
-155
-120
-112
-110
-92
-87
-81
-64
-52
-43
-25
-10
1
19
42
61
77
91
103
120
142
159
161
133
81
27
-24
-76
-118
-137
-146
-156
-160
-152
-142
-142
-148
-147
-139
-134
-127
-118
-114
-113
-109
-107
-108
-103
-96
-98
-100
-97
-91
-87
-85
-85
-90
-93
-92
-75
-39
0
15
-5
-36
-50
-57
-60
-51
-53
-58
-38
-45
-77
-99
-234
-164
880
2230
1979
316
-585
-265
-4
-119
-132
-81
-106
-101
-76
-82
-75
-55
-49
-41
-26
-18
-11
4
24
44
61
78
98
116
128
139
159
181
191
186
157
97
29
-25
-70
-106
-125
-135
-146
-149
-141
-139
-140
-137
-135
-135
-130
-123
-121
-122
-122
-117
-111
-110
-109
-101
-92
-90
-95
-97
-94
-92
-89
-84
-87
-102
-108
-84
-41
-3
9
-13
-46
-65
-75
-76
-63
-66
-76
-54
-56
-90
-108
-224
-172
758
1990
1784
271
-569
-278
-18
-109
-128
-91
-114
-108
-84
-87
-77
-55
-47
-39
-26
-14
1
18
37
60
76
89
110
131
146
163
179
189
202
206
175
120
62
2
-55
-92
-113
-126
-131
-132
-134
-131
-124
-116
-111
-115
-119
-116
-109
-106
-106
-105
-102
-102
-109
-117
-112
-103
-101
-101
-101
-102
-100
-99
-105
-108
-88
-49
-11
-3
-34
-64
-72
-78
-77
-68
-77
-76
-52
-72
-84
-97
-263
-77
1117
2178
1417
-245
-745
-256
-36
-113
-90
-70
-97
-75
-53
-60
-51
-36
-30
-18
-5
7
26
42
52
74
96
111
132
157
173
184
199
218
231
214
160
95
32
-31
-80
-111
-138
-154
-154
-149
-146
-142
-138
-131
-124
-118
-112
-106
-107
-109
-108
-106
-108
-109
-108
-106
-101
-95
-96
-106
-118
-119
-96
-54
-17
-13
-44
-74
-85
-88
-85
-76
-86
-96
-71
-74
-104
-123
-255
-189
813
2082
1801
195
-641
-298
-25
-125
-138
-91
-115
-110
-85
-89
-82
-62
-56
-47
-32
-18
-2
15
28
46
69
91
112
131
149
165
175
186
201
198
156
91
29
-27
-78
-115
-136
-147
-151
-151
-148
-140
-134
-131
-127
-121
-121
-122
-115
-105
-102
-105
-110
-107
-102
-102
-104
-100
-101
-112
-119
-105
-71
-27
-2
-23
-64
-81
-83
-84
-75
-74
-88
-70
-57
-85
-91
-177
-269
379
1732
2063
682
-576
-499
-69
-64
-126
-84
-93
-105
-74
-66
-68
-54
-39
-25
-13
-6
8
27
41
57
80
101
121
140
157
174
189
201
211
212
184
126
57
-4
-53
-93
-124
-141
-147
-151
-154
-147
-134
-125
-123
-123
-124
-122
-115
-112
-112
-109
-105
-105
-110
-116
-116
-110
-110
-119
-123
-109
-74
-29
-10
-39
-78
-89
-91
-97
-87
-87
-102
-80
-67
-102
-102
-174
-262
393
1730
1978
518
-728
-588
-112
-74
-116
-73
-81
-86
-59
-58
-60
-44
-33
-23
-6
5
14
34
58
78
97
119
142
165
182
196
212
226
235
235
207
133
45
-11
-46
-86
-118
-135
-144
-146
-142
-140
-137
-132
-127
-121
-113
-108
-109
-111
-109
-110
-108
-105
-109
-115
-110
-99
-95
-99
-106
-114
-103
-61
-17
-5
-29
-59
-73
-81
-86
-76
-76
-93
-82
-76
-106
-105
-183
-242
459
1773
1950
496
-671
-506
-76
-77
-127
-86
-93
-94
-65
-64
-68
-51
-38
-30
-18
-2
15
28
43
63
82
98
120
143
157
171
187
202
213
212
180
120
60
5
-51
-100
-126
-135
-144
-150
-149
-143
-137
-128
-121
-121
-123
-117
-107
-106
-110
-108
-104
-105
-106
-102
-100
-105
-105
-96
-92
-102
-113
-108
-84
-44
-8
-3
-36
-68
-75
-79
-81
-69
-72
-80
-61
-73
-97
-99
-220
-137
856
2033
1643
42
-712
-323
-31
-103
-108
-74
-100
-88
-62
-67
-56
-35
-35
-29
-5
10
19
34
52
69
90
114
131
144
161
178
187
196
210
207
168
107
46
-13
-68
-104
-120
-131
-141
-142
-138
-137
-133
-125
-120
-117
-110
-106
-112
-112
-104
-101
-106
-106
-103
-102
-100
-97
-99
-103
-98
-93
-102
-114
-104
-65
-17
6
-15
-57
-76
-74
-73
-71
-73
-84
-70
-59
-89
-91
-148
-271
214
1502
2047
850
-525
-593
-118
-51
-131
-90
-78
-91
-69
-62
-64
-46
-34
-29
-13
1
10
27
46
59
79
104
120
136
157
174
182
189
203
213
196
145
82
25
-30
-82
-116
-134
-145
-148
-140
-131
-129
-126
-122
-120
-115
-111
-110
-109
-107
-110
-110
-103
-97
-101
-107
-107
-104
-103
-100
-93
-96
-108
-108
-84
-48
-11
5
-18
-52
-65
-73
-82
-71
-65
-78
-60
-52
-85
-78
-154
-248
416
1734
1917
436
-754
-574
-105
-67
-101
-62
-73
-75
-46
-39
-39
-26
-17
-10
2
14
25
43
66
86
104
121
139
158
176
187
195
208
220
216
190
144
78
10
-43
-85
-119
-139
-148
-150
-142
-132
-129
-127
-118
-112
-112
-107
-102
-106
-109
-103
-101
-110
-112
-104
-103
-108
-103
-95
-100
-102
-92
-92
-108
-117
-100
-65
-25
-1
-17
-59
-82
-77
-73
-73
-78
-85
-67
-58
-86
-89
-159
-259
303
1609
2041
761
-554
-550
-94
-56
-128
-87
-86
-102
-77
-65
-66
-57
-46
-30
-13
-4
8
26
40
56
78
99
117
138
153
160
168
182
196
199
181
139
83
21
-37
-82
-113
-133
-140
-137
-135
-134
-130
-126
-128
-121
-104
-97
-103
-105
-101
-102
-105
-102
-101
-102
-99
-94
-91
-92
-93
-90
-88
-93
-101
-104
-90
-50
-3
11
-17
-53
-68
-72
-71
-63
-66
-80
-65
-57
-81
-77
-156
-239
399
1694
1969
601
-612
-512
-73
-59
-121
-77
-77
-88
-65
-56
-54
-38
-22
-16
-11
1
20
35
47
65
84
100
124
149
163
168
176
186
198
205
187
133
68
12
-36
-82
-117
-131
-134
-137
-137
-134
-131
-130
-127
-118
-113
-116
-115
-103
-94
-98
-107
-111
-107
-99
-97
-101
-102
-100
-96
-94
-95
-95
-91
-85
-82
-92
-106
-98
-62
-18
10
1
-38
-63
-63
-65
-66
-62
-72
-67
-51
-73
-84
-132
-283
67
1325
2116
1124
-365
-617
-150
-35
-120
-93
-84
-103
-76
-60
-62
-44
-32
-33
-22
-2
11
19
35
58
78
97
117
136
153
167
178
192
211
221
210
171
108
39
-17
-62
-99
-126
-140
-139
-132
-127
-123
-117
-114
-113
-108
-102
-102
-105
-104
-102
-100
-99
-100
-106
-108
-103
-101
-102
-99
-97
-104
-112
-105
-80
-43
-10
-10
-45
-72
-76
-84
-86
-72
-80
-92
-67
-74
-104
-102
-232
-207
755
1997
1660
4
-821
-418
-68
-109
-109
-73
-91
-80
-58
-60
-50
-34
-31
-21
-6
3
17
35
52
73
93
109
129
150
165
175
187
201
211
205
172
117
53
-11
-66
-104
-130
-147
-150
-145
-141
-139
-134
-125
-116
-112
-111
-105
-98
-99
-104
-103
-100
-98
-98
-98
-95
-91
-91
-92
-89
-84
-79
-79
-88
-98
-93
-63
-17
16
6
-30
-52
-57
-65
-64
-54
-66
-68
-47
-66
-83
-107
-245
2
1191
2182
1409
-186
-652
-194
-17
-115
-93
-67
-97
-82
-61
-64
-53
-38
-33
-21
-8
3
17
34
51
70
85
100
121
140
150
156
167
184
198
194
158
98
37
-14
-60
-96
-117
-127
-130
-126
-120
-118
-115
-110
-105
-99
-92
-86
-84
-89
-95
-92
-90
-95
-95
-84
-80
-89
-97
-94
-86
-85
-92
-97
-102
-96
-60
-15
-4
-33
-68
-82
-87
-85
-80
-100
-118
-87
-86
-126
-113
-210
-282
522
1942
2029
410
-776
-551
-116
-130
-169
-121
-131
-134
-109
-103
-99
-92
-95
-85
-65
-57
-45
-22
1
14
30
59
95
122
136
147
164
186
196
186
164
129
70
-4
-66
-104
-130
-152
-163
-159
-153
-143
-125
-113
-118
-124
-109
-81
-76
-93
-91
-72
-78
-98
-94
-81
-82
-77
-61
-51
-59
-77
-81
-47
8
41
28
-5
-18
-15
-13
-4
4
2
20
17
-16
23
-21
-193
362
1874
2463
995
-640
-734
-132
77
37
47
