# session 22
-93
-107
-61
5
-63
-239
-307
-262
-260
-292
-276
-238
-210
-178
-147
-138
-147
-156
-164
-166
-147
-131
-134
-114
-100
-125
-131
-227
-325
384
1893
2326
836
-627
-620
-143
-115
-178
-117
-111
-120
-84
-71
-70
-52
-38
-25
-6
11
29
54
75
101
144
191
228
263
295
317
326
313
269
208
140
69
3
-45
-77
-95
-104
-110
-111
-108
-103
-96
-88
-83
-81
-80
-77
-69
-65
-68
-69
-71
-83
-89
-87
-104
-126
-111
-77
-64
-50
-22
-21
-49
-65
-71
-78
-71
-69
-74
-53
-62
-99
-103
-231
-254
701
2182
2121
331
-875
-602
-152
-155
-169
-114
-129
-132
-107
-104
-95
-73
-61
-45
-25
-15
-1
27
62
95
132
179
225
258
284
313
331
306
243
169
93
16
-53
-105
-144
-168
-175
-175
-174
-170
-167
-165
-156
-142
-134
-133
-132
-131
-128
-124
-129
-137
-137
-142
-160
-170
-152
-126
-106
-81
-68
-88
-111
-114
-119
-120
-112
-119
-115
-98
-119
-131
-187
-346
65
1494
2413
1300
-465
-854
-330
-137
-202
-164
-145
-166
-138
-114
-114
-100
-82
-69
-53
-38
-24
-2
27
61
102
142
178
211
241
269
289
286
251
190
119
46
-25
-86
-126
-149
-160
-164
-160
-149
-141
-140
-134
-123
-118
-119
-115
-108
-106
-105
-108
-111
-110
-122
-145
-145
-112
-86
-71
-48
-42
-65
-85
-90
-89
-79
-77
-89
-72
-62
-93
-97
-197
-312
396
1937
2391
872
-643
-664
-179
-127
-183
-129
-126
-137
-107
-99
-99
-77
-61
-55
-39
-23
-9
14
42
70
106
151
193
226
254
279
295
289
246
175
101
33
-32
-89
-126
-143
-147
-152
-160
-163
-156
-146
-135
-126
-118
-113
-107
-98
-94
-101
-104
-104
-120
-141
-131
-97
-72
-53
-37
-48
-78
-98
-108
-105
-91
-101
-112
-89
-98
-126
-137
-285
-233
840
2233
1957
190
-810
-490
-140
-181
-186
-143
-162
-152
-121
-120
-113
-93
-81
-67
-46
-26
-7
14
38
71
112
153
193
230
264
287
287
260
205
137
71
3
-66
-115
-142
-162
-174
-169
-162
-163
-165
-160
-152
-140
-126
-121
-122
-119
-118
-121
-119
-122
-139
-143
-115
-82
-61
-46
-50
-80
-104
-111
-113
-103
-99
-116
-101
-85
-119
-125
-200
-346
249
1772
2360
890
-753
-859
-299
-149
-182
-140
-139
-142
-103
-94
-101
-83
-66
-56
-35
-12
10
39
73
103
137
183
237
285
322
351
368
354
301
223
139
57
-22
-84
-119
-140
-161
-177
-177
-171
-167
-160
-147
-137
-133
-131
-125
-119
-114
-112
-120
-139
-150
-131
-94
-68
-55
-48
-63
-95
-114
-115
-103
-91
-103
-112
-91
-103
-128
-145
-306
-200
983
2359
1917
70
-845
-456
-128
-189
-187
-144
-163
-148
-116
-115
-105
-84
-74
-62
-44
-26
-6
21
50
87
130
172
212
246
273
295
303
276
213
138
64
-6
-69
-118
-149
-161
-166
-172
-174
-168
-162
-156
-147
-134
-125
-119
-115
-112
-112
-111
-119
-136
-137
-108
-77
-58
-44
-46
-72
-96
-109
-112
-99
-94
-109
-99
-86
-113
-121
-211
-357
233
1755
2425
1086
-530
-719
-242
-148
-211
-166
-158
-169
-136
-126
-132
-112
-92
-86
-74
-52
-31
-11
14
48
89
132
175
216
247
271
287
275
229
167
101
26
-50
-105
-135
-152
-165
-175
-180
-176
-165
-156
-150
-141
-132
-126
-118
-107
-103
-109
-114
-111
-119
-143
-145
-108
-72
-52
-36
-38
-68
-90
-89
-90
-89
-88
-94
-84
-82
-103
-98
-195
-329
310
1811
2355
952
-577
-677
-203
-126
-186
-144
-138
-145
-119
-112
-109
-92
-82
-68
-47
-39
-25
9
40
66
101
142
186
228
258
280
301
296
250
181
106
31
-32
-79
-118
-142
-148
-152
-159
-162
-157
-148
-140
-135
-124
-112
-111
-112
-100
-88
-92
-102
-100
-102
-127
-143
-118
-83
-61
-33
-13
-36
-73
-85
-86
-83
-73
-79
-81
-63
-83
-104
-126
-294
-116
1138
2382
1720
-117
-854
-396
-101
-170
-164
-129
-149
-139
-116
-103
-83
-74
-69
-46
-28
-26
-7
35
71
97
134
180
221
253
279
295
297
274
218
140
67
7
-61
-127
-162
-171
-175
-179
-181
-180
-168
-149
-143
-144
-136
-124
-120
-119
-116
-109
-106
-115
-135
-144
-131
-115
-101
-71
-39
-51
-88
-101
-97
-95
-90
-99
-105
-76
-87
-118
-99
-227
-214
863
2327
1964
-92
-1245
-779
-215
-157
-136
-87
-114
-111
-77
-74
-67
-44
-31
-20
-9
5
31
60
83
118
163
197
235
294
335
330
315
309
277
194
90
8
-43
-88
-137
-171
-182
-190
-196
-192
-184
-175
-162
-152
-146
-136
-122
-117
-125
-132
-125
-122
-140
-155
-152
-146
-136
-116
-92
-77
-86
-112
-127
-130
-130
-121
-121
-116
-99
-121
-132
-126
-275
-142
1042
2281
1628
-295
-1113
-586
-156
-170
-166
-123
-133
-121
-94
-83
-67
-58
-56
-36
-8
10
33
62
95
141
188
213
231
273
324
356
365
338
267
206
181
111
-17
-89
-86
-99
-129
-122
-107
-120
-116
-82
-76
-72
8
67
-34
-158
-98
57
88
9
-8
54
8
-156
-170
-20
39
37
73
65
56
53
-61
-104
5
16
13
108
12
-156
-17
115
-149
-252
677
2154
2288
569
-905
-672
79
74
-255
-243
-120
-163
-128
13
-91
-277
-99
167
-17
-376
-265
97
-11
-340
-219
-11
-108
-73
60
-16
39
176
45
-46
-142
-513
-513
-28
-15
-430
-480
-326
-289
-128
-30
-310
-528
-350
-129
-155
-334
-380
-154
-13
-229
-403
-272
-159
-199
-153
-31
-47
-125
-114
-107
-87
51
104
-7
11
100
-56
-224
-83
67
-12
-44
19
202
1110
2438
2310
385
-993
-624
39
5
-156
-123
-147
-216
-144
-26
-53
-101
-27
54
96
92
-13
-15
150
198
201
308
277
184
311
430
383
392
406
234
52
45
14
-162
-215
-59
-8
-136
-169
-73
-16
5
-10
-118
-121
25
-35
-209
-104
2
-149
-141
52
-30
-220
-96
93
-8
-153
-48
66
-31
-94
-35
-71
-108
-17
-34
-145
-76
-18
-252
-307
642
2211
2446
604
-1111
-970
-228
-166
-279
-219
-249
-255
-156
-147
-177
-146
-148
-167
-143
-127
-114
-68
-28
6
67
125
170
213
245
279
307
272
179
81
9
-23
-72
-184
-233
-168
-162
-237
-225
-153
-152
-177
-165
-173
-196
-151
-76
-80
-149
-179
-143
-92
-90
-157
-210
-160
-63
-22
-57
-110
-105
-78
-127
-162
-90
-78
-166
-164
-109
-116
-127
-233
-204
776
2245
2191
438
-752
-507
-112
-156
-188
-147
-157
-137
-129
-162
-136
-87
-93
-97
-64
-50
-55
-29
23
63
104
141
135
126
180
258
285
247
178
123
73
2
-57
-93
-149
-185
-147
-117
-148
-173
-159
-122
-79
-75
-108
-111
-87
-81
-72
-45
-59
-124
-148
-93
-31
-2
13
8
-24
-55
-70
-82
-78
-59
-67
-81
-63
-75
-108
-130
-264
-103
1107
2430
1879
-18
-862
-390
-60
-147
-153
-126
-157
-129
-100
-110
-88
-55
-54
-40
-4
15
17
30
66
114
151
182
231
277
278
256
262
279
253
179
91
15
-46
-94
-120
-128
-136
-138
-127
-123
-135
-140
-134
-137
-140
-136
-136
-141
-140
-141
-146
-149
-162
-177
-168
-139
-110
-89
-85
-104
-120
-123
-125
-117
-112
-118
-102
-98
-132
-121
-172
-234
481
1923
2144
403
-1093
-897
-252
-159
-189
-121
-136
-148
-99
-91
-104
-83
-65
-57
-35
-12
5
32
64
92
128
174
217
247
270
288
301
286
233
159
92
31
-34
-95
-132
-142
-142
-147
-151
-147
-138
-124
-109
-97
-90
-83
-75
-80
-98
-122
-142
-140
-120
-96
-52
-1
-18
-95
-122
-104
-116
-121
-90
-75
-69
-79
-126
-126
-152
-217
377
1772
2212
667
-914
-847
-201
-126
-209
-130
-115
-137
-118
-111
-77
-7
12
-7
0
14
-15
-67
-61
26
124
168
173
200
262
279
226
187
174
125
73
49
-23
-136
-179
-160
-161
-167
-140
-121
-132
-144
-148
-138
-119
-125
-138
-116
-97
-118
-122
-98
-104
-102
-39
-7
-60
-100
-84
-87
-120
-106
-62
-82
-127
-98
-87
-123
-88
-152
-170
781
2292
2090
-36
-1355
-827
-146
-128
-148
-55
-56
-66
-46
-49
-41
-16
0
15
45
81
101
111
157
221
236
232
268
321
355
372
353
292
216
144
75
-2
-87
-138
-149
-181
-217
-193
-163
-189
-204
-168
-137
-126
-128
-149
-151
-120
-118
-145
-141
-121
-111
-64
-12
-67
-164
-148
-83
-106
-162
-167
-138
-115
-137
-152
-157
-270
6
1316
2392
1314
-824
-1430
-642
-176
-212
-166
-96
-126
-149
-143
-118
-81
-67
-64
-39
-9
10
34
80
137
168
180
218
276
316
341
362
355
308
236
153
68
-11
-82
-135
-165
-177
-178
-171
-156
-140
-136
-144
-142
-131
-125
-124
-122
-126
-129
-117
-90
-57
-35
-52
-94
-116
-118
-120
-113
-112
-123
-101
-90
-129
-143
-231
-217
747
2288
2199
169
-1169
-720
-122
-166
-209
-129
-153
-162
-124
-131
-132
-102
-87
-76
-55
-33
-7
23
53
89
134
176
217
253
277
292
299
276
215
145
74
-3
-74
-120
-147
-165
-171
-165
-156
-148
-138
-129
-126
-128
-127
-127
-137
-141
-122
-95
-69
-46
-42
-71
-102
-112
-117
-115
-107
-117
-119
-99
-122
-165
-238
-369
102
1689
2767
1523
-530
-940
-272
-106
-259
-205
-167
-205
-174
-149
-158
-137
-116
-110
-89
-62
-42
-16
17
47
82
123
161
196
223
242
260
260
221
152
77
2
-69
-123
-158
-174
-178
-178
-175
-167
-157
-151
-149
-149
-145
-140
-145
-151
-135
-101
-70
-43
-32
-56
-91
-105
-113
-120
-105
-102
-115
-96
-94
-143
-218
-389
-204
1146
2654
2060
-112
-1080
-490
-91
-217
-210
-142
-180
-169
-129
-136
-125
-93
-83
-69
-42
-22
1
36
69
98
134
178
217
243
264
288
296
259
190
113
32
-45
-104
-142
-167
-177
-174
-171
-169
-159
-147
-139
-135
-127
-120
-125
-138
-133
-108
-81
-56
-41
-56
-90
-109
-117
-125
-116
-112
-126
-113
-103
-141
-177
-303
-304
697
2322
2298
238
-1185
-768
-145
-173
-215
-126
-147
-160
-117
-112
-109
-84
-72
-60
-35
-14
10
44
77
113
157
199
238
276
308
327
325
291
225
146
62
-22
-91
-137
-163
-179
-185
-185
-181
-175
-167
-161
-156
-151
-147
-151
-161
-154
-127
-97
-70
-48
-56
-92
-120
-129
-135
-129
-127
-142
-129
-109
-143
-186
-306
-336
594
2336
2662
763
-862
-661
-99
-180
-272
-177
-194
-217
-166
-157
-160
-134
-122
-116
-92
-72
-56
-29
2
36
77
118
158
193
219
239
254
238
182
109
38
-34
-99
-142
-163
-172
-176
-177
-173
-165
-157
-149
-139
-132
-130
-128
-127
-133
-133
-103
-60
-38
-15
14
5
-34
-55
-63
-72
-77
-111
-149
-147
-174
-220
-273
-368
136
1761
2850
1574
-484
-861
-195
-63
-244
-234
-219
-197
-105
-116
-165
-81
0
-52
-109
-90
-67
-46
-4
8
15
95
182
193
193
240
283
290
265
167
21
-60
-79
-118
-154
-151
-165
-192
-184
-173
-187
-185
-159
-139
-135
-133
-128
-127
-123
-112
-121
-157
-156
-107
-87
-104
-80
-23
-33
-100
-117
-91
-100
-116
-106
-101
-76
-60
-107
-154
-277
-298
712
2490
2651
596
-943
-605
-51
-167
-247
-154
-186
-209
-129
-71
-76
-118
-132
-79
-39
-56
-41
31
76
68
75
139
234
296
299
283
289
297
262
169
55
-29
-89
-156
-207
-211
-188
-181
-197
-200
-176
-169
-181
-166
-148
-158
-133
-87
-113
-169
-155
-120
-122
-110
-73
-52
-44
-47
-73
-95
-105
-118
-119
-118
-137
-126
-104
-135
-159
-245
-320
484
2181
2556
604
-1157
-923
-170
-133
-221
-126
-124
-143
-94
-84
-87
-57
-44
-37
-10
14
32
60
95
138
189
237
283
326
356
375
384
359
292
206
119
28
-52
-109
-146
-167
-179
-187
-189
-183
-177
-173
-164
-149
-139
-132
-126
-124
-129
-133
-143
-157
-156
-136
-110
-81
-58
-70
-111
-136
-141
-145
-139
-136
-147
-129
-118
-155
-191
-303
-247
851
2528
2465
363
-1032
-615
-86
-204
-259
-165
-192
-202
-152
-152
-151
-123
-111
-101
-75
-52
-32
-2
32
68
110
156
199
232
257
280
289
259
194
116
35
-50
-123
-171
-198
-212
-219
-223
-224
-219
-207
-194
-182
-171
-157
-145
-137
-130
-126
-127
-131
-140
-153
-159
-145
-118
-88
-56
-40
-65
-104
-118
-118
-116
-106
-109
-117
-91
-90
-133
-188
-320
-56
1377
2878
2191
-24
-957
-371
-50
-227
-217
-143
-184
-169
-126
-132
-119
-93
-88
-73
-45
-22
2
34
68
108
155
202
246
282
309
332
339
308
239
158
77
0
-62
-99
-116
-127
-137
-143
-142
-137
-131
-122
-109
-99
-91
-79
-67
-64
-63
-62
-62
-64
-68
-76
-81
-84
-98
-105
-84
-47
-13
12
10
-23
-52
-61
-64
-59
-50
-64
-66
-43
-64
-102
-182
-315
234
1908
2905
1491
-584
-913
-232
-87
-225
-160
-131
-168
-137
-113
-120
-103
-90
-88
-67
-43
-23
3
32
60
99
146
191
232
265
292
312
308
257
178
92
-1
-95
-163
-206
-238
-261
-271
-273
-268
-258
-248
-241
-231
-221
-217
-214
-206
-195
-191
-198
-208
-208
-206
-212
-216
-215
-222
-230
-230
-238
-251
-238
-202
-169
-143
-138
-165
-194
-199
-198
-192
-181
-188
-180
-154
-172
-196
-252
-360
192
1813
2721
1256
-810
-1099
-356
-137
-231
-158
-125
-150
-105
-72
-73
-46
-18
-1
28
61
91
130
175
220
273
334
396
452
495
529
558
567
531
462
383
304
225
158
115
95
89
92
98
