# session 16
26
-9
78
66
-213
-501
-552
-487
-462
-479
-484
-508
-684
-556
617
1777
912
-1173
-1848
-1022
-434
-398
-344
-280
-289
-250
-199
-180
-143
-91
-44
13
79
155
250
340
399
427
425
384
302
204
116
30
-59
-128
-165
-191
-214
-224
-216
-199
-183
-170
-158
-141
-129
-137
-147
-138
-115
-83
-51
-41
-57
-83
-109
-112
-97
-108
-119
-92
-96
-153
-297
-518
-121
1413
2456
1200
-813
-1107
-306
-72
-209
-143
-98
-133
-91
-52
-54
-27
6
30
79
145
213
288
350
382
396
392
355
286
205
128
55
-13
-67
-102
-122
-136
-146
-149
-141
-126
-116
-107
-92
-81
-75
-66
-68
-88
-96
-81
-56
-26
-2
-7
-37
-76
-102
-96
-92
-108
-93
-80
-129
-202
-372
-363
723
2393
2279
133
-1225
-721
-131
-221
-259
-154
-174
-178
-122
-115
-106
-65
-35
2
65
132
206
285
341
367
372
352
294
211
126
49
-25
-91
-140
-167
-182
-191
-197
-196
-185
-169
-154
-142
-133
-125
-118
-112
-113
-115
-114
-127
-146
-145
-129
-108
-79
-58
-69
-101
-133
-146
-132
-128
-142
-122
-114
-161
-224
-378
-272
947
2532
2155
-48
-1231
-661
-148
-257
-271
-175
-202
-194
-139
-135
-123
-79
-47
-12
46
112
190
273
334
362
369
356
310
234
150
71
-1
-61
-105
-134
-155
-168
-169
-162
-155
-145
-129
-115
-106
-96
-84
-77
-79
-82
-80
-77
-80
-91
-98
-96
-92
-92
-95
-96
-96
-97
-98
-93
-91
-108
-121
-100
-60
-23
3
4
-27
-63
-81
-75
-60
-68
-66
-41
-59
-92
-159
-320
95
1671
2802
1546
-666
-1217
-484
-147
-216
-161
-117
-143
-110
-77
-78
-52
-11
23
69
126
190
271
352
414
448
457
440
391
310
220
143
70
-1
-59
-98
-124
-141
-148
-143
-133
-121
-108
-94
-82
-76
-72
-67
-66
-70
-73
-78
-85
-94
-102
-108
-113
-117
-120
-119
-119
-120
-121
-119
-116
-114
-112
-110
-109
-107
-104
-102
-100
-98
-98
-98
-94
-90
-92
-94
-89
-86
-87
-88
-86
-82
-80
-79
-77
-76
-73
-68
-69
-74
-77
-67
-38
1
28
32
33
36
24
-7
-42
-62
-54
-54
-74
-55
-41
-90
-138
-241
-134
1071
2838
2730
474
-1055
-694
-167
-259
-290
-189
-212
-211
-154
-146
-134
-90
-62
-31
21
76
137
211
280
332
363
372
358
317
248
167
94
34
-17
-64
-105
-135
-154
-166
-174
-171
-158
-147
-141
-131
-120
-109
-94
-86
-90
-95
-91
-88
-95
-100
-102
-110
-121
-127
-128
-129
-129
-130
-132
-130
-126
-125
-121
-119
-123
-123
-103
-66
-28
-9
-8
-7
-10
-34
-67
-91
-98
-89
-98
-109
-83
-84
-130
-181
-332
-130
1276
2838
2173
-195
-1316
-710
-200
-252
-234
-160
-180
-160
-115
-111
-87
-42
-11
27
83
146
228
325
413
470
494
489
444
354
246
152
70
-12
-84
-135
-164
-182
-198
-215
-227
-227
-217
-200
-180
-163
-148
-135
-124
-117
-114
-114
-115
-114
-114
-117
-119
-117
-116
-118
-119
-116
-113
-112
-108
-104
-102
-102
-98
-97
-104
-104
-82
-41
-6
6
9
18
10
-25
-60
-83
-87
-77
-83
-88
-63
-74
-123
-198
-309
158
1778
3006
1818
-455
-1098
-415
-146
-283
-231
-173
-206
-174
-134
-133
-106
-68
-45
-5
52
114
191
284
369
430
459
454
411
331
233
142
61
-16
-84
-132
-158
-173
-185
-197
-210
-213
-203
-188
-170
-151
-134
-123
-116
-110
-105
-101
-98
-98
-98
-100
-102
-103
-105
-108
-111
-114
-115
-115
-116
-113
-111
-109
-106
-107
-115
-116
-95
-56
-20
0
4
5
-5
-36
-70
-95
-103
-94
-102
-114
-90
-95
-150
-216
-351
-68
1401
2893
2113
-217
-1203
-583
-175
-287
-264
-189
-218
-195
-147
-144
-122
-81
-53
-15
39
97
172
267
359
429
464
465
434
363
265
167
80
0
-66
-112
-148
-171
-176
-175
-185
-192
-179
-160
-151
-146
-134
-118
-108
-101
-94
-86
-85
-90
-93
-93
-95
-95
-93
-92
-95
-98
-97
-97
-99
-98
-96
-99
-107
-108
-92
-56
-16
3
2
2
-4
-32
-66
-95
-107
-95
-96
-111
-91
-85
-127
-162
-285
-178
1054
2704
2360
51
-1307
-801
-206
-229
-231
-141
-155
-143
-92
-83
-66
-27
0
33
82
137
211
309
406
482
527
536
503
423
314
209
120
32
-51
-110
-145
-165
-178
-191
-207
-217
-215
-206
-198
-186
-171
-156
-143
-136
-131
-126
-122
-123
-128
-133
-134
-136
-139
-143
-147
-148
-145
-142
-141
-140
-139
-137
-137
-141
-141
-122
-81
-42
-27
-26
-18
-20
-49
-85
-108
-114
-104
-106
-118
-95
-92
-141
-194
-300
-56
1316
2844
2226
-85
-1194
-609
-158
-274
-265
-175
-203
-188
-136
-129
-109
-68
-46
-19
28
82
153
246
341
417
464
478
455
387
286
189
104
20
-61
-120
-155
-175
-184
-189
-196
-200
-195
-186
-175
-158
-140
-128
-117
-106
-98
-92
-85
-82
-82
-85
-88
-93
-97
-97
-96
-99
-103
-104
-101
-100
-101
-97
-91
-87
-80
-56
-15
12
15
16
14
-11
-43
-58
-73
-95
-113
-114
-82
-73
-119
-154
-260
-219
860
2586
2594
423
-1156
-811
-195
-235
-282
-178
-184
-192
-153
-156
-146
-88
-48
-28
18
101
197
274
341
430
506
525
497
434
326
212
128
49
-35
-105
-162
-201
-202
-189
-198
-213
-212
-197
-177
-161
-149
-132
-119
-113
-103
-99
-109
-108
-88
-84
-101
-115
-112
-102
-105
-124
-129
-113
-112
-133
-145
-139
-141
-150
-125
-60
-21
-40
-53
-20
-3
-34
-78
-114
-126
-99
-84
-100
-97
-107
-140
-179
-319
-110
1241
2689
1984
-282
-1292
-684
-217
-267
-222
-142
-173
-157
-113
-113
-94
-52
-20
15
57
105
178
272
362
435
486
508
488
414
307
206
117
16
-79
-121
-121
-131
-161
-186
-193
-191
-187
-179
-164
-153
-147
-131
-114
-120
-126
-106
-89
-95
-100
-97
-95
-97
-107
-109
-93
-97
-119
-110
-85
-94
-120
-115
-74
-21
12
18
15
-12
-66
-86
-68
-66
-76
-84
-99
-82
-70
-118
-165
-278
-267
726
2398
2505
504
-1038
-777
-197
-217
-280
-202
-184
-158
-121
-140
-133
-88
-73
-58
-10
41
99
191
287
355
409
452
451
396
307
210
123
49
-16
-70
-108
-134
-156
-168
-170
-174
-175
-162
-144
-132
-119
-108
-109
-109
-100
-95
-93
-84
-88
-108
-110
-91
-85
-96
-103
-113
-120
-108
-98
-113
-120
-117
-123
-109
-53
0
14
-11
-59
-86
-82
-78
-84
-97
-109
-95
-94
-122
-184
-355
-190
1093
2582
2109
18
-1077
-623
-198
-261
-260
-209
-242
-210
-142
-134
-128
-98
-75
-44
-4
38
111
208
294
360
406
424
411
361
276
195
128
44
-57
-128
-161
-171
-162
-159
-182
-200
-188
-168
-159
-154
-151
-144
-123
-102
-95
-102
-116
-124
-126
-143
-155
-123
-77
-60
-50
-34
-41
-66
-92
-126
-134
-100
-94
-116
-107
-108
-130
-187
-335
-20
1406
2662
1737
-446
-1278
-667
-229
-244
-198
-146
-178
-152
-102
-105
-111
-83
-35
19
72
135
214
298
376
433
468
493
481
396
275
177
95
8
-70
-135
-183
-197
-187
-191
-211
-212
-180
-151
-151
-157
-154
-151
-132
-104
-118
-155
-137
-101
-124
-156
-139
-119
-105
-68
-47
-65
-84
-109
-143
-149
-138
-131
-116
-130
-159
-211
-334
32
1509
2766
1800
-359
-1090
-457
-149
-303
-294
-224
-241
-212
-165
-156
-128
-92
-96
-87
-14
74
118
161
260
365
402
386
369
333
238
127
58
4
-91
-176
-181
-164
-188
-197
-169
-173
-211
-209
-165
-143
-155
-147
-116
-115
-127
-105
-105
-149
-147
-102
-94
-85
-44
-38
-67
-70
-77
-111
-122
-114
-114
-98
-93
-134
-184
-326
-329
689
2422
2610
639
-963
-779
-233
-252
-284
-186
-214
-239
-180
-165
-169
-121
-73
-51
-18
36
99
169
246
325
392
420
400
345
274
192
106
26
-35
-80
-121
-150
-149
-146
-172
-177
-136
-124
-155
-154
-127
-128
-128
-97
-84
-94
-84
-80
-107
-100
-58
-72
-125
-131
-119
-129
-119
-82
-57
-38
-25
-47
-79
-86
-89
-91
-72
-69
-97
-123
-133
-118
-174
-349
37
1556
2723
1664
-397
-1000
-409
-179
-301
-235
-170
-208
-173
-127
-155
-153
-100
-68
-38
29
85
117
196
306
361
377
411
412
338
252
194
130
43
-47
-120
-142
-111
-88
-129
-189
-188
-151
-157
-168
-125
-86
-104
-120
-87
-56
-77
-125
-136
-105
-89
-108
-116
-95
-85
-113
-128
-94
-88
-152
-180
-126
-94
-96
-57
-7
-3
-28
-85
-149
-136
-80
-87
-102
-68
-85
-139
-223
-360
103
1656
2704
1495
-556
-1080
-452
-158
-228
-202
-174
-210
-192
-120
-79
-83
-74
-37
-8
20
73
141
233
335
387
391
406
433
407
303
188
111
26
-69
-102
-99
-130
-155
-147
-158
-170
-147
-149
-193
-185
-116
-82
-110
-132
-108
-80
-106
-145
-120
-86
-124
-150
-96
-63
-105
-143
-143
-131
-105
-89
-120
-147
-130
-120
-114
-47
25
-9
-87
-90
-56
-62
-79
-71
-76
-120
-128
-125
-286
-173
1098
2700
2345
196
-1035
-615
-179
-266
-252
-153
-192
-198
-138
-138
-156
-117
-69
-62
-58
11
116
187
245
314
355
374
388
349
259
195
149
68
-16
-70
-123
-160
-152
-153
-193
-212
-186
-153
-135
-144
-170
-150
-100
-108
-146
-119
-71
-80
-102
-102
-109
-122
-123
-121
-113
-93
-83
-82
-78
-72
-66
-75
-109
-118
-76
-61
-88
-92
-102
-148
-250
-402
21
1566
2772
1739
-342
-974
-390
-182
-334
-253
-133
-157
-181
-182
-164
-103
-85
-118
-71
46
98
95
161
297
398
417
402
393
357
263
156
81
13
-67
-117
-123
-132
-162
-187
-186
-171
-163
-169
-164
-148
-140
-127
-98
-95
-109
-76
-30
-79
-183
-169
-51
-35
-110
-92
-47
-113
-158
-94
-54
-82
-103
-113
-103
-81
-109
-147
-104
-48
-56
-41
24
20
-62
-88
-39
-27
-62
-68
-49
-72
-125
-123
-166
-316
141
1698
2756
1567
-493
-1047
-423
-135
-240
-256
-235
-204
-115
-99
-145
-114
-70
-82
-44
47
72
84
190
299
329
381
476
489
395
297
231
153
68
17
-13
-63
-122
-155
-163
-176
-200
-195
-140
-94
-100
-103
-76
-65
-81
-101
-130
-142
-107
-83
-125
-155
-111
-76
-119
-172
-184
-194
-211
-192
-133
-90
-84
-82
-89
-134
-157
-121
-124
-153
-89
-55
-154
-218
-311
-282
797
2514
2483
380
-1079
-788
-273
-249
-241
-204
-222
-190
-174
-181
-145
-125
-86
0
-13
-54
81
246
268
299
422
491
436
338
300
297
186
8
-50
-55
-140
-160
-95
-149
-232
-163
-134
-247
-262
-159
-140
-155
-95
-60
-81
-65
-42
-78
-120
-118
-110
-114
-104
-92
-96
-102
-97
-71
-28
-19
-59
-84
-84
-102
-110
-68
-42
-109
-151
-85
-196
-289
675
2336
2402
504
-863
-621
-180
-234
-256
-173
-197
-212
-142
-89
-99
-138
-133
-51
18
17
34
129
237
298
315
321
345
363
314
213
139
69
-71
-174
-126
-85
-163
-188
-134
-179
-250
-191
-132
-170
-172
-126
-132
-136
-97
-97
-131
-119
-75
-60
-65
-67
-97
-151
-158
-124
-117
-107
-65
-45
-39
-29
-71
-113
-79
-61
-98
-86
-52
-79
-101
-84
-191
-368
82
1473
2407
1465
-251
-818
-403
-164
-220
-242
-228
-186
-128
-118
-111
-81
-91
-89
-23
31
54
112
187
245
311
366
371
358
346
291
194
123
71
-24
-117
-140
-141
-158
-159
-158
-173
-161
-150
-184
-186
-126
-99
-112
-97
-96
-133
-121
-64
-69
-107
-92
-79
-116
-120
-85
-100
-136
-122
-92
-72
-36
-29
-81
-113
-86
-55
-49
-71
-91
-59
-42
-93
-156
-293
-221
837
2289
2085
189
-1044
-781
-301
-207
-161
-127
-166
-167
-135
-116
-100
-91
-67
-5
40
42
76
172
254
305
378
439
424
371
311
231
158
104
22
-80
-136
-146
-147
-140
-139
-172
-207
-191
-146
-126
-128
-119
-113
-132
-138
-106
-76
-75
-85
-98
-124
-156
-173
-161
-130
-99
-62
-37
-67
-128
-130
-82
-67
-78
-78
-93
-123
-126
-100
-139
-299
-72
1161
2417
1872
47
-810
-422
-165
-285
-250
-147
-150
-140
-131
-158
-132
-79
-59
-25
19
25
35
105
203
281
326
346
353
327
254
181
120
35
-41
-74
-116
-172
-172
-138
-139
-158
-159
-165
-177
-169
-154
-146
-115
-67
-65
-97
-99
-86
-113
-157
-169
-133
-76
-55
-75
-63
-26
-51
-109
-103
-73
-93
-125
-102
-58
-81
-131
-130
-228
-249
617
2085
2239
619
-710
-619
-187
-156
-200
-207
-258
-210
-99
-114
-175
-133
-67
-63
-59
-23
21
91
174
224
278
337
318
252
235
216
131
42
-13
-79
-156
-197
-181
-148
-150
-173
-176
-166
-154
-150
-179
-202
-148
-66
-58
-105
-128
-113
-97
-105
-130
-150
-157
-149
-132
-111
-71
-29
-38
-81
-103
-111
-118
-115
-113
-97
-74
-85
-113
-224
-365
181
1617
2300
1046
-551
-776
-311
-194
-213
-127
-123
-174
-172
-164
-152
-101
-38
0
12
24
60
114
182
250
291
314
347
367
333
261
192
127
43
-46
-93
-95
-104
-119
-106
-90
-114
-138
-121
-93
-86
-82
-65
-49
-48
-54
-55
-72
-94
-72
-35
-61
-101
-78
-50
-61
-45
-9
-16
-32
-23
-29
-52
-54
-47
-51
-74
-70
-58
-199
-140
899
2212
1854
0
-1056
-670
-175
-154
-189
-139
-105
-94
-108
-108
-64
-51
-77
-38
48
81
99
168
241
286
324
336
323
327
307
212
100
20
-56
-126
-167
-197
-215
-201
-198
-230
-241
-218
-208
-197
-165
-159
-191
-193
-163
-148
-152
-170
-206
-219
-198
-187
-173
-116
