# session 36
-28
-39
-9
0
-86
-203
-237
-217
-214
-214
-202
-195
-190
-180
-172
-166
-156
-150
-146
-141
-136
-132
-129
-128
-127
-124
-119
-117
-116
-113
-108
-105
-100
-96
-104
-117
-108
-71
-25
7
2
-30
-52
-57
-60
-54
-54
-62
-45
-39
-69
-88
-187
-148
773
2154
2091
402
-707
-401
-5
-91
-134
-76
-102
-111
-77
-76
-72
-53
-49
-39
-19
-10
-2
19
42
61
85
115
146
176
201
220
237
253
263
250
203
135
62
-5
-60
-97
-121
-136
-142
-139
-133
-127
-124
-121
-116
-111
-110
-109
-106
-104
-102
-100
-100
-99
-96
-93
-92
-92
-91
-90
-89
-89
-88
-88
-91
-101
-105
-84
-41
-2
2
-31
-63
-76
-82
-79
-73
-81
-75
-63
-86
-97
-152
-242
298
1656
2219
895
-641
-724
-169
-65
-142
-98
-96
-117
-90
-81
-85
-66
-53
-51
-38
-23
-12
7
30
48
71
100
127
151
176
197
211
227
244
240
200
136
64
-8
-72
-119
-145
-159
-162
-160
-159
-157
-152
-143
-135
-131
-132
-131
-126
-123
-123
-119
-113
-113
-117
-117
-114
-111
-110
-108
-105
-106
-108
-103
-96
-99
-109
-105
-79
-34
4
0
-40
-68
-78
-85
-76
-68
-77
-67
-64
-91
-103
-202
-190
702
2095
2055
342
-810
-496
-47
-97
-139
-81
-96
-94
-62
-68
-70
-47
-39
-35
-18
-2
15
35
54
77
105
132
157
181
201
218
235
254
266
255
207
139
71
4
-58
-101
-125
-139
-147
-145
-138
-132
-128
-124
-122
-121
-118
-115
-115
-117
-118
-117
-112
-106
-108
-117
-120
-115
-111
-112
-120
-129
-121
-86
-39
-19
-43
-81
-99
-106
-106
-97
-101
-103
-81
-90
-117
-130
-235
-67
1047
2240
1676
-138
-922
-417
-54
-133
-140
-97
-124
-115
-86
-92
-86
-66
-59
-47
-28
-15
-1
20
41
65
91
117
146
172
192
207
220
236
244
221
162
89
20
-42
-91
-123
-140
-149
-151
-147
-142
-137
-131
-125
-121
-118
-115
-114
-114
-113
-110
-108
-106
-104
-102
-103
-104
-101
-97
-104
-114
-112
-90
-49
-9
-6
-42
-72
-81
-88
-85
-77
-86
-81
-64
-84
-102
-163
-272
221
1609
2337
1135
-456
-641
-127
-54
-163
-118
-109
-138
-110
-95
-101
-83
-67
-63
-49
-32
-20
-4
15
35
59
85
109
132
153
170
183
198
213
214
183
127
62
0
-54
-95
-123
-137
-141
-139
-133
-127
-125
-122
-116
-113
-113
-110
-108
-110
-109
-105
-103
-104
-103
-103
-104
-100
-96
-101
-113
-116
-100
-64
-17
3
-27
-67
-80
-85
-89
-82
-87
-91
-71
-76
-100
-124
-248
-77
1049
2230
1676
-56
-773
-309
-30
-140
-141
-96
-127
-121
-96
-101
-92
-73
-67
-56
-39
-25
-10
6
25
50
73
93
116
140
158
172
185
204
214
193
138
77
18
-43
-96
-125
-136
-144
-150
-146
-138
-131
-128
-128
-124
-116
-113
-117
-117
-113
-112
-111
-107
-106
-109
-111
-106
-97
-96
-105
-116
-109
-81
-36
-1
-11
-51
-75
-83
-87
-77
-72
-83
-71
-64
-90
-90
-165
-194
570
1941
2074
455
-838
-635
-109
-75
-119
-69
-82
-94
-65
-58
-57
-40
-31
-22
-3
15
27
43
64
87
109
133
158
180
197
210
217
230
250
246
198
130
63
-5
-66
-108
-134
-148
-151
-146
-143
-140
-134
-128
-126
-125
-123
-122
-123
-123
-123
-122
-122
-123
-126
-128
-128
-125
-123
-132
-143
-136
-104
-59
-28
-41
-80
-103
-108
-109
-101
-101
-111
-91
-83
-114
-130
-227
-203
709
2120
2088
380
-764
-453
-37
-122
-169
-105
-129
-137
-100
-99
-99
-79
-68
-61
-45
-31
-16
5
22
40
64
89
110
128
144
157
167
183
198
189
147
87
25
-31
-78
-112
-133
-139
-139
-137
-132
-126
-123
-118
-113
-110
-108
-105
-102
-99
-97
-98
-98
-96
-95
-95
-94
-92
-90
-93
-103
-107
-87
-45
-3
7
-23
-57
-69
-76
-78
-70
-76
-78
-57
-67
-91
-129
-262
5
1254
2333
1544
-194
-730
-221
-18
-145
-129
-96
-129
-113
-90
-97
-84
-64
-59
-49
-32
-19
-2
16
33
53
75
97
118
138
152
162
177
198
207
183
129
68
9
-48
-92
-119
-134
-143
-144
-140
-135
-128
-123
-120
-116
-110
-107
-107
-106
-104
-101
-99
-98
-99
-98
-94
-91
-92
-93
-89
-86
-91
-104
-107
-88
-47
-3
10
-20
-57
-71
-75
-75
-68
-75
-77
-56
-68
-90
-126
-256
14
1247
2287
1482
-225
-729
-218
-19
-141
-124
-91
-123
-107
-84
-91
-80
-60
-54
-43
-27
-17
-4
14
32
52
74
96
116
135
151
161
171
190
203
183
130
70
15
-41
-90
-121
-136
-143
-145
-138
-130
-128
-124
-118
-115
-113
-107
-104
-103
-101
-98
-99
-100
-99
-99
-100
-100
-98
-98
-99
-98
-98
-95
-91
-94
-106
-109
-93
-55
-7
12
-18
-57
-70
-75
-75
-66
-74
-75
-50
-61
-84
-116
-249
-3
1206
2245
1446
-274
-798
-268
-20
-116
-105
-74
-99
-83
-62
-67
-56
-40
-35
-24
-9
7
28
47
62
82
108
130
147
161
174
187
200
218
232
214
161
98
39
-20
-70
-104
-124
-134
-132
-128
-125
-119
-111
-105
-101
-98
-98
-98
-98
-99
-101
-99
-99
-101
-102
-102
-103
-105
-103
-100
-101
-101
-98
-96
-104
-116
-114
-86
-39
-3
-9
-47
-73
-80
-85
-81
-77
-90
-80
-66
-92
-105
-177
-247
410
1831
2246
776
-666
-607
-86
-73
-161
-107
-111
-132
-99
-89
-90
-72
-62
-59
-44
-27
-14
3
24
45
65
86
108
128
145
157
167
179
195
198
169
115
54
-5
-57
-97
-123
-137
-142
-141
-137
-132
-126
-122
-117
-111
-107
-104
-100
-94
-90
-88
-88
-85
-82
-82
-84
-84
-82
-80
-80
-81
-81
-79
-77
-77
-75
-71
-76
-89
-93
-72
-29
16
27
-4
-38
-50
-56
-55
-47
-56
-56
-39
-56
-77
-134
-253
173
1522
2357
1285
-332
-609
-110
-24
-148
-107
-90
-122
-97
-80
-88
-74
-59
-57
-45
-29
-19
-5
15
33
50
68
90
110
124
136
146
156
170
182
169
122
64
7
-47
-92
-119
-135
-144
-144
-141
-139
-136
-130
-126
-122
-113
-107
-107
-106
-104
-107
-109
-105
-103
-106
-105
-102
-103
-105
-102
-97
-98
-101
-100
-95
-93
-91
-85
-83
-94
-102
-91
-57
-9
19
0
-40
-60
-69
-70
-54
-56
-65
-44
-48
-80
-95
-209
-112
927
2194
1805
53
-813
-376
-15
-89
-103
-60
-87
-83
-55
-58
-49
-26
-19
-17
-5
12
30
48
66
87
108
129
149
167
181
190
196
208
225
222
183
123
59
-5
-60
-97
-124
-142
-146
-143
-142
-139
-133
-128
-121
-115
-113
-113
-109
-105
-107
-109
-107
-105
-105
-106
-108
-109
-109
-107
-106
-106
-102
-98
-106
-119
-114
-80
-31
2
-12
-56
-83
-88
-91
-86
-84
-90
-77
-75
-105
-113
-196
-231
539
1954
2154
556
-756
-564
-67
-90
-157
-93
-107
-128
-89
-75
-83
-71
-48
-17
14
25
25
45
79
86
66
70
96
103
122
173
196
180
197
233
202
112
30
-37
-107
-145
-126
-114
-159
-204
-191
-164
-153
-135
-122
-138
-150
-126
-102
-122
-147
-115
-67
-80
-116
-110
-87
-91
-103
-99
-92
-99
-113
-117
-113
-102
-75
-34
8
14
-45
-109
-100
-65
-68
-66
-60
-72
-58
-50
-73
-115
-289
-197
965
2358
1953
118
-773
-335
-4
-117
-135
-65
-88
-119
-90
-43
-35
-60
-52
-12
5
-1
1
33
77
86
81
131
198
188
136
148
219
258
242
205
165
125
61
-39
-102
-96
-119
-192
-198
-138
-134
-178
-175
-131
-119
-141
-140
-104
-88
-122
-149
-127
-103
-114
-125
-110
-99
-112
-123
-114
-98
-97
-119
-139
-123
-77
-35
-13
-26
-62
-78
-80
-98
-97
-79
-87
-80
-56
-71
-96
-191
-245
496
1957
2266
691
-712
-587
-81
-84
-160
-106
-110
-121
-92
-90
-87
-62
-55
-54
-38
-20
-5
14
33
51
72
96
118
138
158
172
178
188
202
199
160
99
32
-33
-87
-126
-152
-164
-169
-170
-162
-149
-142
-136
-123
-113
-110
-104
-97
-94
-92
-90
-90
-90
-89
-92
-93
-92
-90
-89
-91
-100
-108
-97
-64
-21
7
-3
-40
-67
-73
-74
-68
-62
-72
-64
-46
-69
-85
-143
-217
344
1698
2227
903
-557
-577
-68
-54
-157
-95
-93
-125
-94
-79
-84
-68
-57
-56
-44
-29
-13
4
20
39
61
81
98
116
131
143
152
162
174
176
148
95
36
-18
-66
-101
-124
-136
-141
-138
-134
-132
-128
-122
-118
-115
-112
-108
-107
-107
-106
-103
-101
-100
-100
-100
-100
-100
-103
-104
-100
-99
-107
-113
-103
-73
-30
0
-15
-54
-74
-79
-85
-75
-69
-78
-64
-57
-84
-86
-157
-187
528
1809
1936
451
-721
-536
-83
-74
-120
-78
-89
-94
-66
-65
-64
-42
-31
-24
-8
5
15
32
52
72
92
116
140
157
167
176
186
199
215
215
180
119
55
-7
-61
-97
-119
-134
-139
-136
-129
-121
-115
-114
-111
-104
-101
-102
-101
-99
-100
-97
-94
-96
-100
-101
-101
-100
-96
-94
-99
-106
-102
-77
-34
-2
-14
-54
-79
-84
-86
-79
-78
-88
-73
-64
-88
-81
-138
-171
513
1795
1959
441
-834
-675
-145
-76
-116
-73
-82
-92
-66
-61
-59
-40
-30
-23
-7
6
17
34
54
73
92
113
134
151
162
170
176
185
197
194
159
103
41
-19
-71
-110
-135
-149
-152
-148
-142
-135
-127
-123
-122
-120
-115
-110
-109
-109
-108
-108
-109
-109
-108
-108
-108
-107
-104
-101
-100
-107
-117
-113
-84
-41
-11
-19
-54
-78
-83
-86
-81
-75
-84
-75
-58
-80
-96
-152
-246
248
1562
2189
1006
-463
-592
-106
-48
-149
-107
-100
-125
-98
-83
-87
-71
-57
-51
-37
-22
-10
7
24
42
63
85
105
124
139
147
154
166
180
182
155
104
47
-7
-57
-95
-116
-126
-127
-121
-112
-106
-102
-98
-95
-92
-90
-89
-88
-86
-86
-85
-84
-85
-88
-89
-87
-88
-92
-88
-82
-88
-102
-107
-87
-47
-5
8
-21
-57
-72
-78
-80
-69
-72
-78
-58
-64
-91
-104
-215
-109
888
2066
1680
56
-719
-317
-19
-113
-126
-84
-112
-106
-76
-79
-73
-54
-46
-37
-22
-10
4
22
40
60
82
101
116
130
141
146
149
161
178
172
131
74
18
-36
-81
-112
-132
-140
-138
-130
-124
-121
-122
-122
-117
-111
-111
-112
-109
-105
-104
-105
-105
-101
-98
-99
-102
-102
-97
-95
-95
-98
-104
-107
-90
-47
-4
1
-32
-66
-77
-80
-75
-67
-79
-76
-53
-69
-82
-101
-207
102
1278
2107
1162
-460
-848
-304
-47
-97
-79
-63
-83
-61
-42
-42
-29
-16
-11
4
21
32
45
62
79
97
117
138
155
168
179
184
190
204
215
195
145
86
27
-33
-82
-112
-131
-140
-138
-133
-130
-128
-124
-119
-115
-113
-113
-114
-112
-110
-110
-112
-114
-115
-113
-112
-114
-114
-113
-111
-112
-119
-128
-119
-85
-40
-15
-30
-66
-86
-92
-94
-86
-84
-92
-75
-67
-93
-104
-198
-206
607
1960
2039
494
-635
-406
-19
-93
-150
-95
-114
-122
-89
-88
-86
-64
-54
-50
-36
-21
-6
10
26
43
62
80
98
114
123
130
137
147
162
162
131
79
25
-26
-70
-101
-119
-129
-133
-129
-123
-119
-117
-114
-110
-108
-105
-102
-99
-95
-92
-91
-92
-92
-90
-91
-91
-88
-84
-84
-85
-79
-74
-81
-91
-87
-60
-15
23
16
-25
-52
-57
-62
-59
-54
-64
-54
-40
-67
-81
-142
-234
298
1611
2147
914
-485
-547
-78
-39
-132
-91
-88
-108
-81
-70
-73
-59
-48
-42
-27
-13
-2
13
31
49
68
85
102
117
131
140
148
158
173
179
158
110
53
-3
-54
-93
-118
-132
-138
-136
-131
-126
-123
-119
-116
-113
-109
-108
-107
-104
-99
-97
-97
-97
-96
-97
-97
-97
-97
-98
-98
-96
-94
-92
-91
-90
-88
-84
-85
-95
-100
-87
-51
-6
15
-10
-47
-62
-66
-66
-57
-64
-70
-50
-58
-80
-95
-209
-47
1012
2102
1562
-41
-680
-250
-7
-112
-113
-75
-100
-91
-71
-76
-65
-45
-39
-31
-14
-1
15
34
49
63
81
100
119
133
142
149
158
170
184
184
150
95
43
-5
-51
-85
-101
-109
-116
-117
-109
-102
-96
-92
-90
-89
-89
-87
-83
-82
-84
-84
-84
-87
-90
-88
-85
-85
-85
-86
-88
-88
-85
-81
-79
-80
-76
-67
-64
-72
-76
-65
-37
2
28
11
-30
-51
-55
-55
-49
-53
-58
-37
-43
-68
-71
-169
-81
864
2007
1621
-19
-832
-414
-39
-80
-94
-60
-82
-77
-53
-57
-50
-34
-29
-21
-5
6
17
32
51
69
86
103
121
136
146
152
155
164
178
174
137
81
25
-29
-79
-117
-138
-151
-157
-156
-149
-142
-138
-134
-128
-125
-123
-121
-118
-117
-116
-116
-116
-115
-112
-112
-115
-115
-113
-112
-111
-109
-108
-106
-104
-100
-95
-92
-99
-104
-91
-53
-9
8
-16
-51
-64
-68
-70
-62
-66
-70
-50
-58
-84
-106
-215
-40
1047
2186
1669
29
-650
-225
8
-116
-118
-78
-111
-101
-71
-74
-65
-46
-42
-30
-10
1
13
33
52
69
87
108
128
142
153
164
173
184
196
192
158
106
54
4
-39
-68
-86
-98
-104
-102
-98
-95
-89
-85
-85
-83
-78
-73
-71
-68
-65
-62
-62
-62
-61
-57
-56
-57
-57
-56
-56
-56
-54
-54
-53
-48
-46
-55
-61
-48
-15
24
43
20
-18
-38
-43
-44
-42
-44
-45
-43
-50
-56
-97
-215
-64
855
2003
1857
11
