# session 2
23
11
16
161
304
246
158
192
220
211
246
288
290
294
312
318
332
388
447
436
355
268
205
170
161
152
133
134
157
158
120
103
133
111
13
-17
5
-70
-199
-354
-308
626
1981
1839
69
-1092
-811
-352
-298
-284
-286
-368
-387
-365
-387
-406
-398
-380
-345
-303
-271
-238
-190
-130
-97
-96
-60
-7
-20
-24
86
186
165
119
99
30
-74
-113
-77
-37
-29
-13
36
58
22
0
5
-55
-135
-141
-168
-230
-240
-330
-169
1010
2336
1835
3
-823
-387
-91
-191
-185
-112
-122
-110
-65
-94
-162
-132
-26
26
36
71
96
99
124
149
155
188
224
209
212
276
309
269
189
45
-114
-154
-101
-65
-54
-67
-132
-204
-253
-298
-338
-370
-375
-363
-425
-486
-451
-537
-388
853
2173
1415
-674
-1412
-697
-254
-331
-317
-258
-288
-273
-213
-190
-174
-122
-79
-84
-82
-37
-8
-3
45
126
192
248
302
362
428
430
325
213
152
90
27
9
2
-15
-14
0
1
-21
-73
-127
-162
-168
-137
-143
-184
-166
-279
-353
614
2261
2252
281
-1014
-625
-97
-108
-118
-69
-95
-60
10
43
84
63
-30
-28
40
0
-70
-15
76
96
76
21
-58
-72
-36
-27
-7
30
-28
-164
-243
-264
-290
-278
-214
-175
-173
-186
-222
-246
-228
-200
-185
-217
-258
-226
-349
-446
621
2483
2520
336
-1119
-680
-117
-208
-264
-187
-214
-196
-83
-5
24
36
32
1
-61
-88
-38
39
103
140
126
98
104
121
138
181
213
176
93
46
33
-30
-97
-32
95
113
52
0
-42
-65
-74
-80
-49
-36
-82
-135
-209
36
1118
2154
1538
-141
-880
-527
-250
-265
-243
-213
-209
-194
-222
-287
-329
-316
-237
-161
-144
-157
-194
-247
-232
-170
-180
-240
-239
-196
-158
-100
-35
-38
-110
-171
-182
-165
-131
-80
-29
-22
-73
-122
-123
-145
-197
-151
-66
-97
-143
-184
-240
341
1731
2272
945
-550
-699
-311
-278
-304
-213
-197
-204
-150
-119
-130
-122
-86
-45
-15
9
42
78
101
133
177
214
250
276
279
317
403
423
352
297
258
162
97
151
204
182
183
193
105
-28
-116
-169
-177
-168
-188
-192
-270
-323
433
1872
2009
200
-1251
-997
-403
-390
-420
-327
-364
-424
-413
-401
-375
-332
-293
-229
-164
-150
-152
-116
-78
-90
-107
-75
-35
-21
10
70
125
156
141
94
81
96
85
78
100
105
76
24
-32
-32
-16
-79
-139
-143
-181
-210
-264
-330
362
1960
2529
984
-642
-693
-201
-154
-173
-84
-106
-150
-114
-71
-28
8
-4
-20
-9
4
29
66
77
88
130
134
61
8
31
67
87
109
105
63
11
-49
-102
-111
-110
-141
-174
-194
-240
-314
-387
-413
-381
-382
-426
-398
-445
-491
325
1835
2013
344
-947
-740
-292
-313
-354
-306
-308
-284
-239
-243
-251
-219
-169
-139
-133
-109
-57
-25
-17
14
89
173
204
181
154
139
121
110
96
60
33
33
21
9
34
48
-1
-54
-70
-101
-113
-44
-16
-53
-52
-195
-232
825
2396
2161
163
-934
-464
-23
-65
-46
-19
-79
-47
21
48
94
102
38
5
-10
-71
-92
-30
29
45
10
-77
-137
-116
-78
-42
20
50
-12
-107
-154
-140
-113
-117
-134
-155
-197
-219
-221
-249
-213
-134
-191
-265
-308
-473
21
1759
2769
1288
-703
-930
-340
-249
-292
-206
-223
-226
-133
-105
-115
-62
15
62
62
32
11
-7
-39
-52
-30
2
19
13
16
55
92
89
53
-12
-86
-91
-13
38
16
-8
-24
-52
-40
-15
-35
-38
-42
-106
-148
-205
-114
763
1939
1688
131
-683
-343
-83
-174
-206
-237
-274
-188
-128
-165
-167
-151
-195
-219
-177
-160
-193
-193
-156
-155
-190
-217
-245
-265
-225
-146
-103
-89
-87
-113
-122
-79
-45
-41
-35
-73
-131
-119
-106
-152
-139
-104
-164
-193
-264
-447
151
1788
2399
810
-789
-670
-35
25
-65
-71
-140
-156
-96
-94
-109
-81
-45
-24
-21
-21
1
26
15
-8
4
45
67
78
128
197
232
238
228
202
171
140
133
171
200
164
97
50
14
-15
16
78
97
105
-21
-304
125
1621
2297
817
-878
-896
-241
-153
-263
-210
-216
-285
-284
-260
-255
-240
-240
-280
-303
-283
-284
-288
-244
-223
-243
-202
-146
-149
-127
-39
38
65
32
-19
-22
-8
-14
9
50
15
-67
-70
-19
-37
-59
7
23
-27
-12
-57
73
1035
2074
1505
-149
-821
-373
-92
-186
-209
-187
-212
-210
-204
-207
-174
-137
-119
-104
-95
-72
-33
-22
-20
5
1
-24
8
75
122
160
172
132
105
124
133
133
177
231
210
115
13
-61
-122
-157
-145
-138
-152
-147
-257
-341
378
1697
1766
107
-1193
-981
-424
-351
-394
-359
-373
-404
-396
-365
-322
-280
-260
-256
-234
-189
-152
-135
-134
-145
-132
-86
-62
-43
46
155
192
173
134
91
87
112
99
73
116
195
211
154
79
-11
-81
-70
-61
-92
-71
-164
-241
672
2321
2421
507
-884
-617
-145
-164
-164
-114
-156
-158
-152
-175
-116
-40
-47
-40
28
73
76
83
94
80
58
65
85
111
210
376
434
328
245
246
165
13
-18
57
76
27
-27
-95
-184
-230
-224
-254
-289
-256
-334
-310
644
1977
1599
-441
-1550
-978
-399
-439
-443
-337
-346
-353
-320
-317
-292
-253
-271
-294
-247
-169
-135
-150
-159
-131
-119
-153
-134
-8
126
186
198
194
196
224
235
190
141
132
111
46
-6
-11
-34
-91
-120
-124
-109
-144
-362
-224
1107
2575
2077
194
-664
-311
-139
-250
-174
-144
-234
-171
-62
-112
-167
-111
-74
-99
-87
-29
26
68
98
104
74
6
-51
-29
45
83
69
55
56
22
-53
-97
-79
-65
-115
-200
-254
-273
-305
-312
-278
-331
-418
-396
-464
-339
840
2177
1512
-540
-1322
-661
-250
-343
-346
-301
-293
-214
-166
-194
-182
-146
-135
-117
-85
-49
-7
-6
-27
31
150
249
338
390
354
310
309
262
184
178
206
187
171
169
94
-3
-13
-22
-68
-43
-35
-97
-102
-231
-255
823
2342
1973
-45
-1014
-472
-63
-144
-139
-92
-119
-100
-79
-94
-67
-3
64
96
57
5
6
-1
-50
-63
-25
-7
-14
-15
-20
-45
-60
-44
-29
-32
-40
-69
-114
-134
-155
-219
-300
-373
-392
-349
-357
-383
-359
-483
-326
1014
2452
1744
-335
-1099
-539
-274
-369
-318
-312
-357
-284
-255
-287
-223
-150
-147
-100
-20
7
48
123
107
7
-32
14
54
72
100
127
114
57
3
2
41
67
47
0
-37
-49
-68
-99
-74
-36
-103
-152
-130
-261
-22
1356
2546
1612
-266
-728
-170
-45
-197
-139
-76
-61
7
-4
-106
-131
-99
-114
-135
-91
-17
27
25
-18
-79
-120
-114
-55
26
59
17
-31
-25
-18
-73
-143
-158
-146
-183
-269
-304
-268
-262
-270
-225
-243
-301
-311
-495
-409
957
2502
1832
-291
-1090
-526
-248
-326
-237
-165
-158
-70
-29
-54
15
118
126
80
48
36
44
59
68
78
74
53
81
170
229
215
175
133
84
67
98
128
125
89
20
-24
-28
-66
-99
-39
-1
-52
-92
-199
-179
628
1732
1482
12
-715
-292
11
-129
-167
-111
-181
-259
-249
-207
-156
-101
-80
-96
-103
-82
-72
-93
-109
-113
-143
-205
-250
-231
-158
-112
-125
-142
-151
-175
-167
-110
-98
-155
-190
-194
-230
-284
-288
-229
-214
-251
-245
-380
-510
352
1930
1983
130
-1111
-708
-143
-108
-69
46
29
-26
-37
-28
-17
-19
-10
41
91
108
122
150
162
150
146
153
176
251
340
334
257
213
179
128
127
168
176
154
112
59
26
-14
-47
-18
-15
-65
-80
-181
-82
957
2154
1624
-150
-904
-450
-168
-233
-172
-103
-148
-183
-198
-200
-173
-173
-196
-183
-153
-154
-176
-187
-191
-228
-298
-332
-290
-214
-156
-141
-168
-209
-233
-223
-183
-150
-150
-153
-161
-202
-238
-238
-219
-183
-168
-191
-198
-267
-227
561
1719
1623
193
-687
-393
-45
-90
-144
-147
-154
-100
-76
-120
-107
-41
-9
14
68
115
133
143
155
168
181
189
221
308
390
377
289
207
162
140
114
103
136
131
13
-85
-67
-56
-74
-20
12
-47
-158
-405
-311
910
2196
1505
-420
-1116
-545
-231
-315
-276
-233
-288
-279
-231
-236
-244
-227
-231
-261
-277
-266
-230
-195
-205
-240
-233
-187
-162
-149
-97
-23
6
-11
-18
4
34
52
42
14
7
21
11
-26
-22
51
74
25
71
69
-28
569
1880
2058
456
-855
-656
-127
-86
-140
-123
-141
-117
-82
-113
-120
-69
-41
-34
2
38
39
45
84
99
76
93
167
211
203
187
169
128
68
38
56
71
79
138
175
81
-40
-89
-151
-211
-190
-166
-164
-200
-342
-46
1132
1864
759
-864
-1101
-488
-286
-380
-361
-341
-373
-382
-371
-345
-314
-287
-253
-233
-230
-189
-135
-144
-173
-159
-147
-144
-69
49
100
86
64
35
3
-6
5
17
19
4
-20
-19
46
116
92
21
-45
-137
-168
-193
-299
257
1795
2446
901
-851
-893
-232
-85
-129
-86
-125
-151
-89
-60
-69
-59
-40
-16
16
41
74
114
132
130
138
154
186
259
344
358
289
223
210
202
175
150
108
31
-27
-53
-73
-73
-64
-79
-113
-170
-209
-216
-291
-46
1101
2089
1139
-841
-1412
-663
-280
-403
-392
-356
-422
-393
-310
-305
-306
-262
-217
-166
-116
-128
-155
-106
-44
-50
-53
6
84
154
199
182
130
91
58
55
108
154
156
125
55
-7
-4
-2
-27
-53
-121
-164
-164
-297
-74
1187
2249
1344
-422
-868
-347
-205
-323
-259
-210
-232
-193
-146
-126
-105
-111
-111
-46
15
7
-5
16
23
13
19
44
83
127
177
230
220
119
38
26
-4
-59
-71
-66
-89
-96
-71
-80
-120
-115
-128
-211
-233
-284
-389
228
1616
1875
229
-1168
-945
-357
-315
-362
-317
-340
-327
-257
-227
-206
-169
-139
-117
-119
-134
-106
-58
-55
-67
-40
8
59
131
197
199
147
97
69
54
57
87
131
159
126
35
-35
-65
-109
-130
-96
-103
-106
-94
-259
-55
1293
2458
1468
-507
-1008
-356
-83
-156
-115
-109
-146
-105
-68
-54
-18
-9
-16
31
90
98
108
162
192
170
168
219
283
334
352
302
222
180
159
101
32
17
49
64
37
-5
-47
-98
-117
-100
-148
-218
-226
-327
-204
871
2029
1411
-359
-999
-464
-205
-330
-308
-265
-310
-293
-262
-287
-290
-254
-232
-225
-213
-198
-186
-183
-186
-188
-188
-174
-127
-73
-58
-92
-154
-214
-240
-224
-202
-195
-186
-177
-207
-246
-240
-236
-252
-238
-245
-260
-249
-378
-235
958
2163
1422
-445
-1047
-463
-192
-291
-245
-184
-215
-209
-176
-152
-109
-72
-59
-36
10
52
77
96
119
138
155
195
272
343
349
285
216
183
161
134
137
176
205
196
149
88
60
46
20
22
11
-45
-55
-166
-283
527
2119
2340
606
-731
-504
-76
-151
-179
-96
-120
-126
-75
-61
-48
-15
1
17
44
66
88
104
97
78
69
90
151
221
238
186
106
43
5
-15
-16
-1
5
-30
-101
-149
-158
-187
-208
-185
-214
-263
-271
-428
-319
876
2076
1252
-684
-1227
-550
-262
-372
-332
-301
-344
-313
-287
-301
-266
-221
-219
-212
-183
-163
-157
-148
-128
-112
-111
-94
-34
22
18
-22
-54
-83
-116
-129
-114
-93
-81
-92
-140
-181
-187
-204
-214
-185
-200
-228
-235
-397
-278
906
2135
1510
-224
-835
-365
-157
-257
-225
-196
-220
-183
-159
-172
-135
-84
-72
-54
-16
11
32
52
53
48
60
99
163
225
241
210
176
164
147
113
105
127
134
117
83
41
18
6
-6
11
7
-27
-59
-219
-206
736
1960
1665
122
-615
-259
-28
-120
-115
-91
-112
-74
-53
-77
-47
-1
1
9
34
42
61
88
68
28
34
58
82
132
163
130
96
93
67
27
30
57
60
36
-13
-61
-70
-80
-110
-103
-102
-142
-164
-286
-360
341
1508
1455
35
-843
-529
-171
-216
-238
-202
-226
-217
-185
-187
-169
-127
-108
-95
-66
-49
-57
-69
-78
-95
-111
-103
-72
-33
-10
-16
-42
-65
-84
-101
-108
-104
-92
-82
-107
-161
-190
-192
-201
-190
-177
-195
-194
-296
-476
25
1288
1622
276
-930
-767
-252
-184
-210
-162
-174
-176
-136
-124
-112
-78
-51
-23
8
22
30
46
55
55
72
121
191
248
257
224
182
138
82
34
25
39
40
32
22
-19
-74
-88
-94
-110
-88
-94
-139
-143
-302
-444
372
1736
1565
-176
-1093
-571
-105
-149
-153
-105
-136
-125
-85
-83
-72
-48
-28
7
41
56
79
108
117
120
150
212
284
328
316
269
230
207
181
165
176
195
194
174
133
82
45
20
5
5
-31
-80
-109
-299
-347
624
1971
1635
-174
-1028
-491
-112
-232
-246
-195
-231
-211
-165
-166
-145
-107
-94
-76
-45
-28
-23
-28
-47
-59
-45
4
80
123
92
33
-12
-59
-108
-140
-156
-156
-126
-107
-153
-225
-245
-244
-260
-242
-221
-253
-256
-348
-586
-160
1232
1785
363
-1073
-863
-175
-124
-203
-108
-120
-173
-119
-67
-60
-38
-8
13
31
48
60
68
68
59
56
81
147
218
231
185
132
90
40
-6
-18
-4
13
16
-9
-54
-86
-100
-114
-108
-99
-125
-131
-219
-492
-272
925
1690
694
-665
-688
-119
-47
-140
-66
-50
-76
-29
-4
-12
18
53
59
71
94
105
112
123
121
119
152
209
254
268
241
176
108
56
2
-47
-57
-50
-51
-44
-53
-108
-150
-145
-141
-139
-135
-157
-156
-245
-505
-212
1039
1669
469
-856
-705
-120
-56
-59
