# session 31
-11
-28
18
56
-47
-212
-246
-189
-172
-165
-124
-88
-62
-23
19
62
109
146
178
214
239
231
187
116
38
-29
-89
-142
-173
-179
-181
-185
-182
-175
-173
-166
-147
-134
-131
-127
-118
-112
-109
-104
-99
-94
-94
-97
-99
-95
-94
-96
-94
-91
-94
-102
-109
-101
-64
-12
23
21
-15
-49
-54
-54
-63
-58
-56
-65
-44
-37
-76
-80
-169
-270
495
2113
2551
935
-607
-577
-83
-68
-140
-89
-97
-113
-84
-78
-78
-63
-57
-51
-31
-15
-7
3
18
37
60
90
125
161
194
227
258
285
310
320
298
244
169
88
10
-56
-107
-136
-147
-155
-158
-154
-154
-159
-155
-147
-143
-138
-131
-131
-132
-127
-125
-127
-127
-127
-130
-128
-123
-121
-121
-125
-125
-114
-108
-117
-126
-133
-132
-99
-45
-11
-15
-45
-78
-88
-91
-100
-92
-83
-97
-89
-79
-107
-112
-217
-334
429
2066
2514
879
-681
-646
-137
-108
-174
-133
-148
-153
-120
-120
-117
-89
-86
-85
-62
-47
-44
-27
4
29
51
79
115
154
191
230
265
293
321
344
326
257
169
89
10
-67
-120
-143
-155
-168
-176
-172
-163
-157
-155
-152
-144
-138
-139
-139
-134
-128
-130
-133
-127
-122
-128
-132
-126
-124
-125
-119
-112
-113
-121
-135
-135
-96
-44
-16
-19
-44
-74
-87
-92
-102
-95
-86
-99
-88
-75
-110
-115
-197
-350
298
1948
2598
1045
-670
-742
-173
-93
-164
-111
-111
-124
-93
-90
-94
-73
-64
-63
-46
-31
-22
-7
11
32
61
92
123
160
202
239
269
296
323
337
318
260
181
99
17
-56
-104
-130
-148
-158
-156
-154
-156
-154
-149
-145
-140
-132
-127
-126
-122
-117
-114
-114
-117
-119
-120
-121
-123
-120
-116
-115
-115
-113
-110
-103
-102
-116
-131
-112
-63
-20
-2
-11
-44
-73
-81
-89
-94
-81
-80
-85
-63
-76
-113
-122
-262
-214
911
2442
2221
330
-774
-428
-62
-150
-174
-121
-143
-132
-99
-111
-110
-83
-77
-80
-65
-45
-35
-22
1
24
46
74
109
146
181
210
237
268
297
307
284
223
142
63
-7
-69
-115
-144
-157
-159
-155
-154
-155
-153
-147
-141
-138
-135
-131
-124
-121
-122
-123
-123
-122
-121
-121
-128
-131
-125
-121
-124
-122
-120
-132
-141
-117
-68
-26
-8
-24
-65
-92
-90
-92
-95
-86
-96
-104
-72
-79
-115
-134
-280
-146
1081
2471
1962
58
-814
-370
-59
-150
-144
-103
-139
-129
-95
-97
-92
-76
-69
-60
-46
-34
-21
-2
23
47
69
98
138
177
211
244
273
296
320
331
297
219
130
52
-17
-80
-122
-142
-152
-158
-156
-152
-148
-141
-136
-138
-139
-134
-132
-133
-127
-123
-127
-126
-124
-134
-139
-127
-121
-126
-124
-120
-123
-129
-139
-144
-116
-59
-17
-20
-54
-86
-91
-93
-108
-103
-86
-98
-92
-76
-108
-109
-171
-348
190
1810
2611
1160
-665
-854
-249
-98
-159
-112
-115
-139
-107
-90
-94
-84
-73
-62
-44
-27
-13
-1
10
34
68
97
130
173
216
252
284
317
344
357
344
292
203
104
21
-50
-113
-149
-158
-166
-173
-171
-165
-160
-150
-140
-136
-137
-134
-126
-123
-130
-130
-122
-123
-130
-133
-133
-134
-132
-131
-134
-142
-153
-149
-108
-50
-20
-32
-67
-97
-102
-100
-109
-103
-96
-100
-84
-86
-120
-125
-234
-279
627
2224
2404
653
-730
-553
-94
-126
-179
-123
-142
-152
-119
-114
-107
-82
-78
-80
-66
-46
-33
-21
-1
25
49
78
117
156
189
220
247
267
285
298
282
224
146
70
0
-61
-103
-123
-132
-142
-151
-157
-157
-150
-141
-135
-132
-131
-130
-127
-125
-128
-129
-124
-125
-132
-131
-126
-124
-124
-128
-142
-147
-122
-72
-26
-17
-52
-94
-106
-103
-107
-101
-94
-111
-104
-76
-101
-125
-175
-327
80
1551
2550
1444
-379
-784
-244
-77
-176
-141
-119
-143
-120
-107
-113
-93
-78
-79
-68
-53
-41
-22
-2
16
37
65
96
127
160
199
236
259
276
296
295
248
171
94
24
-44
-97
-127
-142
-149
-153
-156
-156
-148
-138
-134
-136
-133
-125
-120
-120
-119
-116
-117
-121
-121
-119
-119
-117
-115
-116
-119
-127
-133
-112
-62
-19
-13
-40
-77
-91
-90
-99
-102
-95
-107
-99
-64
-84
-110
-150
-325
-17
1426
2572
1575
-347
-870
-300
-68
-164
-134
-97
-125
-115
-94
-91
-82
-74
-68
-53
-35
-18
0
15
27
39
72
126
169
197
233
276
298
308
330
337
294
212
120
38
-29
-85
-130
-146
-144
-153
-159
-145
-134
-138
-134
-123
-124
-132
-131
-123
-119
-130
-140
-130
-115
-116
-127
-136
-138
-139
-139
-126
-92
-57
-36
-33
-55
-84
-96
-102
-117
-112
-97
-109
-104
-75
-103
-121
-155
-340
-3
1499
2613
1495
-484
-962
-353
-106
-177
-133
-113
-145
-120
-98
-103
-92
-79
-75
-63
-51
-42
-22
1
19
40
68
100
136
173
207
239
267
293
311
300
249
172
85
-3
-82
-137
-167
-182
-193
-200
-198
-194
-188
-178
-172
-175
-174
-169
-172
-173
-164
-161
-167
-166
-163
-171
-177
-175
-177
-182
-178
-177
-198
-206
-166
-113
-86
-81
-97
-135
-154
-154
-165
-167
-150
-155
-157
-133
-154
-177
-212
-372
-32
1503
2845
2033
147
-360
338
631
389
238
184
103
65
52
17
-5
-14
-28
-34
-28
-24
-23
-18
-6
10
25
46
79
112
133
152
180
206
221
217
184
120
44
-31
-99
-157
-195
-209
-215
-224
-227
-216
-209
-211
-208
-198
-194
-195
-192
-189
-184
-174
-172
-187
-194
-177
-163
-168
-172
-169
-180
-189
-158
-102
-67
-63
-82
-119
-141
-135
-129
-124
-113
-123
-122
-100
-130
-157
-168
-309
-32
1349
2539
1653
-265
-871
-330
-72
-162
-146
-120
-143
-120
-102
-109
-91
-72
-67
-49
-29
-25
-12
13
30
48
82
116
143
178
222
249
265
290
313
305
265
201
125
51
-15
-73
-116
-139
-152
-152
-142
-134
-128
-119
-118
-125
-130
-124
-116
-115
-118
-118
-118
-121
-125
-122
-116
-123
-136
-124
-81
-49
-42
-38
-45
-77
-102
-99
-101
-105
-92
-100
-116
-89
-88
-112
-119
-277
-188
1044
2515
1984
-112
-1116
-582
-106
-124
-125
-93
-121
-107
-82
-91
-80
-55
-43
-30
-14
-2
9
20
40
71
100
126
160
202
239
270
300
330
353
353
313
229
129
43
-29
-88
-126
-152
-177
-183
-176
-178
-175
-152
-134
-138
-138
-121
-112
-122
-133
-129
-125
-137
-142
-128
-116
-124
-135
-135
-142
-159
-148
-102
-58
-40
-46
-75
-102
-104
-106
-114
-106
-103
-118
-101
-91
-125
-137
-237
-282
589
2170
2383
630
-809
-643
-129
-122
-176
-123
-138
-151
-114
-106
-113
-105
-93
-75
-53
-37
-27
-19
-7
19
51
80
104
134
173
211
231
244
261
273
261
219
151
72
0
-62
-110
-135
-138
-138
-143
-146
-142
-137
-132
-123
-118
-120
-115
-105
-106
-112
-107
-104
-114
-120
-119
-121
-120
-119
-130
-147
-144
-107
-55
-19
-12
-36
-75
-96
-94
-97
-96
-85
-99
-102
-67
-82
-116
-143
-285
-11
1340
2496
1618
-264
-862
-334
-71
-150
-136
-110
-128
-109
-96
-102
-85
-67
-61
-50
-39
-27
-6
12
21
44
83
109
126
163
206
224
238
270
290
276
244
195
122
37
-32
-80
-114
-131
-135
-147
-161
-145
-119
-122
-135
-131
-120
-113
-115
-126
-128
-115
-108
-115
-120
-117
-114
-120
-126
-123
-116
-116
-124
-136
-129
-90
-45
-21
-23
-53
-89
-91
-81
-99
-109
-99
-104
-94
-80
-109
-114
-186
-319
311
1892
2494
960
-726
-796
-212
-97
-161
-119
-115
-126
-101
-92
-89
-72
-66
-58
-41
-28
-19
-3
16
43
75
97
119
162
202
220
241
274
294
305
309
270
190
109
34
-47
-109
-133
-138
-144
-152
-152
-139
-130
-139
-140
-121
-114
-125
-126
-120
-124
-123
-116
-120
-131
-134
-130
-127
-126
-132
-137
-130
-129
-134
-108
-51
-18
-34
-69
-92
-90
-89
-106
-103
-90
-109
-109
-81
-101
-112
-166
-322
150
1666
2526
1234
-575
-852
-257
-76
-151
-115
-106
-128
-103
-92
-97
-79
-63
-59
-44
-25
-12
1
15
30
49
75
115
159
189
206
228
248
265
288
293
250
180
114
44
-30
-80
-104
-124
-143
-141
-127
-125
-132
-129
-123
-124
-120
-113
-114
-115
-110
-106
-104
-103
-112
-124
-122
-113
-115
-122
-122
-114
-115
-135
-146
-113
-52
-17
-20
-48
-81
-94
-92
-101
-109
-105
-105
-84
-67
-109
-122
-158
-295
165
1629
2452
1200
-534
-786
-224
-83
-171
-128
-108
-129
-108
-95
-96
-79
-71
-75
-63
-38
-21
-14
-4
21
49
70
99
137
167
193
218
232
250
273
264
219
175
123
41
-36
-84
-123
-146
-135
-122
-133
-139
-122
-119
-134
-128
-105
-102
-106
-103
-109
-118
-109
-105
-122
-122
-103
-101
-110
-112
-121
-133
-123
-88
-41
-5
-13
-56
-85
-87
-92
-100
-94
-96
-111
-92
-84
-115
-106
-204
-321
444
2025
2362
684
-815
-717
-170
-102
-153
-124
-133
-123
-87
-90
-91
-81
-86
-70
-37
-28
-24
3
30
47
69
95
126
163
200
236
279
307
313
322
318
261
178
108
25
-75
-139
-158
-166
-168
-163
-161
-160
-156
-154
-151
-135
-128
-137
-131
-114
-124
-142
-131
-123
-141
-157
-162
-163
-138
-91
-62
-57
-55
-71
-102
-113
-109
-127
-133
-107
-107
-118
-97
-115
-135
-145
-337
-176
1220
2641
1862
-276
-1090
-495
-124
-193
-172
-130
-150
-113
-78
-95
-94
-80
-81
-73
-57
-47
-31
-6
19
46
77
112
152
189
221
255
296
328
342
334
289
207
111
21
-59
-118
-156
-178
-189
-189
-186
-180
-165
-151
-147
-139
-125
-121
-124
-120
-116
-118
-115
-113
-117
-114
-106
-115
-127
-103
-58
-39
-39
-37
-61
-90
-73
-70
-113
-106
-64
-91
-115
-83
-76
-90
-209
-282
574
2257
2628
859
-752
-673
-129
-118
-200
-138
-138
-168
-152
-128
-107
-105
-127
-117
-80
-68
-58
-18
0
-14
5
58
87
111
169
221
234
238
252
258
243
210
151
61
-34
-85
-105
-136
-157
-146
-139
-155
-162
-151
-144
-148
-139
-123
-131
-152
-132
-104
-133
-156
-114
-98
-144
-153
-114
-127
-171
-144
-66
-34
-51
-55
-54
-88
-130
-136
-111
-93
-106
-110
-90
-120
-160
-171
-312
-105
1279
2706
1979
-138
-970
-397
-72
-188
-172
-120
-152
-140
-118
-120
-101
-89
-95
-81
-59
-40
-24
-19
-2
36
61
72
110
160
189
212
243
259
263
283
284
210
102
26
-30
-87
-121
-132
-144
-143
-128
-134
-151
-145
-132
-126
-113
-107
-119
-119
-115
-133
-137
-114
-119
-156
-157
-109
-66
-53
-47
-41
-62
-99
-113
-114
-122
-117
-110
-129
-122
-91
-106
-115
-205
-399
155
1841
2716
1260
-641
-877
-271
-119
-184
-137
-144
-165
-120
-100
-102
-80
-72
-78
-60
-44
-53
-43
2
39
52
79
129
166
185
214
247
267
289
315
309
247
159
80
9
-67
-127
-149
-157
-173
-182
-164
-146
-154
-159
-139
-132
-150
-142
-117
-129
-151
-137
-131
-155
-150
-127
-142
-152
-110
-60
-44
-54
-84
-107
-105
-117
-148
-137
-103
-111
-117
-97
-112
-120
-184
-387
30
1642
2750
1526
-506
-951
-322
-109
-197
-127
-95
-156
-147
-100
-95
-102
-83
-58
-60
-66
-36
-5
-4
15
59
82
100
142
183
212
249
280
287
289
288
257
189
92
2
-45
-78
-126
-153
-151
-156
-156
-129
-117
-138
-149
-126
-101
-103
-123
-131
-127
-127
-121
-104
-109
-137
-143
-120
-107
-126
-155
-152
-110
-70
-52
-35
-32
-73
-118
-111
-79
-81
-115
-137
-114
-78
-100
-121
-156
-327
-51
1400
2721
1887
-147
-880
-341
-53
-165
-172
-142
-162
-139
-108
-101
-92
-98
-110
-92
-62
-44
-34
-26
-8
30
70
87
96
126
172
203
221
250
281
280
245
184
108
38
-24
-82
-117
-128
-147
-155
-131
-121
-141
-142
-124
-121
-129
-134
-131
-115
-110
-132
-141
-118
-112
-135
-142
-129
-135
-157
-141
-69
-11
-25
-75
-101
-105
-105
-108
-102
-94
-106
-108
-92
-113
-125
-163
-338
13
1533
2709
1649
-348
-874
-286
-74
-186
-142
-116
-167
-145
-110
-119
-110
-90
-86
-77
-61
-46
-23
-1
7
20
49
88
122
150
189
229
239
239
267
283
231
141
76
32
-36
-115
-156
-161
-162
-162
-156
-147
-140
-137
-142
-145
-143
-144
-144
-135
-128
-132
-140
-140
-136
-135
-138
-143
-138
-124
-128
-157
-157
-93
-23
-13
-49
-80
-89
-90
-103
-114
-97
-89
-100
-79
-82
-124
-111
-223
-315
629
2362
2535
586
-920
-684
-134
-122
-158
-101
-116
-118
-90
-94
-89
-72
-70
-57
-36
-21
1
25
36
55
87
114
139
177
216
248
276
295
310
333
330
262
172
107
34
-46
-85
-101
-127
-126
-103
-110
-126
-114
-103
-101
-91
-94
-107
-91
-75
-99
-124
-114
-102
-107
-116
-119
-107
-91
-102
-129
-129
-120
-136
-139
-96
-46
-13
-4
-45
-107
-118
-101
-103
-101
-104
-119
-92
-71
-108
-148
-287
-277
775
2419
2410
474
-848
-542
-95
-171
-203
-141
-178
-181
-137
-140
-143
-123
-110
-95
-90
-101
-89
-58
-38
-16
7
26
60
102
125
141
165
189
218
243
223
159
94
30
-44
-104
-140
-166
-183
-186
-183
-173
-164
-169
-177
-168
-150
-144
-150
-153
-146
-140
-142
-145
-143
-140
-132
-123
-132
-141
-128
-114
-118
-118
-115
-127
-124
-74
-11
18
17
-6
-39
-55
-50
-44
-36
-35
-35
-7
-5
-32
-35
-162
-165
885
2518
2490
568
-724
-407
56
-3
-38
29
6
6
59
67
53
69
