# session 39
-14
-9
-11
-4
0
-34
-91
-117
-112
-110
-104
-106
-117
-95
-82
-114
-138
-247
-189
913
2564
2474
427
-886
-467
11
-126
-182
-104
-142
-154
-108
-113
-115
-88
-78
-70
-50
-35
-20
1
20
37
60
84
107
127
141
152
163
176
193
209
200
154
90
24
-39
-92
-127
-146
-157
-159
-154
-148
-143
-135
-126
-119
-114
-110
-106
-104
-102
-99
-99
-100
-100
-100
-100
-101
-102
-103
-103
-99
-96
-98
-97
-90
-88
-99
-108
-95
-58
-9
21
0
-49
-73
-78
-81
-75
-77
-90
-70
-61
-101
-129
-236
-176
913
2548
2465
444
-854
-445
21
-122
-183
-107
-144
-156
-111
-117
-122
-98
-88
-80
-62
-50
-37
-17
4
23
43
64
86
105
121
135
145
154
171
188
183
143
80
13
-48
-98
-134
-157
-167
-167
-162
-156
-149
-141
-134
-129
-126
-122
-118
-113
-109
-108
-108
-106
-103
-103
-104
-104
-104
-103
-100
-97
-98
-99
-94
-92
-100
-110
-100
-65
-16
19
1
-49
-77
-80
-83
-77
-76
-90
-74
-61
-97
-122
-221
-222
748
2426
2583
646
-827
-526
4
-99
-183
-103
-134
-157
-113
-110
-114
-90
-81
-75
-55
-42
-30
-10
11
29
50
72
94
118
137
150
158
167
184
202
196
154
91
25
-39
-94
-131
-153
-164
-170
-170
-164
-155
-148
-141
-132
-123
-119
-116
-112
-108
-106
-107
-108
-105
-103
-104
-103
-101
-100
-99
-97
-97
-95
-93
-99
-111
-106
-77
-31
12
11
-35
-71
-77
-84
-84
-75
-86
-86
-63
-83
-111
-176
-280
299
1921
2793
1364
-552
-756
-108
-33
-187
-128
-116
-159
-126
-106
-117
-100
-84
-80
-64
-47
-35
-18
2
21
43
66
87
107
128
145
155
161
176
197
201
168
109
44
-22
-82
-126
-152
-168
-175
-173
-167
-159
-151
-143
-135
-129
-125
-119
-114
-112
-111
-107
-105
-107
-107
-107
-105
-104
-104
-104
-103
-101
-98
-92
-94
-106
-109
-90
-47
3
16
-26
-70
-77
-78
-83
-74
-79
-86
-64
-72
-108
-150
-267
53
1486
2774
1886
-201
-877
-247
9
-162
-144
-97
-148
-133
-100
-112
-102
-79
-76
-64
-42
-31
-18
3
22
40
62
84
106
127
144
155
163
176
196
207
185
129
63
-1
-61
-110
-141
-157
-166
-169
-165
-156
-146
-140
-135
-131
-125
-122
-118
-114
-112
-113
-112
-110
-110
-112
-111
-108
-109
-110
-108
-105
-104
-101
-95
-99
-110
-109
-82
-34
11
12
-34
-73
-81
-85
-84
-76
-85
-85
-61
-78
-108
-165
-276
210
1769
2787
1536
-448
-807
-152
-15
-181
-136
-110
-155
-127
-103
-115
-99
-79
-75
-62
-44
-32
-15
5
22
42
66
87
106
125
141
153
163
173
190
200
179
123
56
-7
-66
-114
-143
-159
-167
-165
-156
-149
-143
-135
-129
-125
-120
-115
-114
-113
-112
-110
-110
-109
-108
-107
-108
-110
-107
-104
-106
-106
-99
-100
-113
-115
-93
-50
0
15
-25
-70
-81
-85
-90
-81
-85
-95
-71
-74
-111
-144
-257
-6
1347
2727
2013
-86
-908
-306
10
-158
-159
-104
-152
-141
-105
-116
-110
-86
-81
-70
-50
-37
-23
-3
16
37
57
76
98
120
134
144
154
165
183
198
183
132
68
5
-56
-109
-142
-158
-166
-166
-159
-151
-143
-136
-131
-125
-120
-118
-116
-112
-109
-110
-112
-111
-110
-108
-107
-107
-106
-103
-102
-102
-96
-92
-102
-112
-102
-67
-16
18
0
-51
-78
-81
-84
-78
-75
-88
-77
-65
-97
-117
-206
-221
689
2359
2609
724
-820
-576
-13
-90
-185
-106
-129
-154
-111
-109
-114
-88
-79
-79
-60
-42
-29
-13
6
27
48
68
89
110
126
137
147
158
173
190
188
152
93
29
-32
-87
-127
-151
-162
-164
-160
-154
-147
-140
-135
-128
-121
-118
-118
-116
-112
-109
-108
-111
-113
-111
-109
-109
-108
-105
-106
-104
-96
-98
-111
-114
-93
-51
-5
9
-28
-71
-83
-87
-91
-80
-85
-97
-76
-78
-112
-145
-260
-13
1343
2741
2041
-70
-911
-311
11
-159
-165
-112
-161
-152
-116
-127
-121
-96
-89
-79
-61
-47
-30
-9
6
25
50
74
95
114
129
141
151
165
186
198
179
132
73
11
-50
-100
-132
-151
-161
-161
-155
-149
-142
-135
-129
-124
-117
-112
-110
-109
-107
-107
-104
-101
-101
-102
-101
-99
-101
-99
-92
-93
-105
-109
-89
-49
-4
15
-17
-65
-85
-87
-89
-81
-84
-94
-73
-75
-108
-124
-223
-75
1116
2577
2132
34
-1035
-485
-17
-127
-159
-96
-132
-131
-94
-100
-98
-75
-68
-58
-38
-26
-11
13
33
49
68
92
115
134
148
159
167
178
197
212
196
145
78
8
-59
-112
-147
-168
-180
-182
-177
-171
-162
-152
-145
-138
-130
-123
-120
-120
-120
-118
-114
-113
-114
-113
-112
-114
-113
-108
-113
-125
-123
-97
-54
-12
-5
-46
-88
-99
-102
-101
-91
-98
-101
-75
-82
-115
-163
-283
102
1614
2852
1837
-253
-844
-210
-5
-186
-158
-116
-163
-144
-116
-128
-116
-96
-91
-76
-56
-45
-29
-9
8
27
49
72
93
110
122
131
138
151
170
179
155
103
41
-22
-80
-122
-146
-159
-166
-164
-158
-152
-147
-139
-134
-130
-123
-118
-117
-116
-113
-110
-109
-110
-110
-109
-109
-108
-104
-102
-111
-120
-112
-81
-34
5
-1
-49
-82
-86
-90
-90
-80
-91
-91
-69
-89
-117
-186
-298
283
1945
2875
1457
-509
-756
-113
-37
-196
-137
-124
-169
-135
-114
-126
-109
-90
-87
-73
-57
-45
-28
-8
11
30
51
75
98
115
127
137
147
162
182
188
158
98
30
-31
-84
-124
-150
-163
-169
-170
-165
-157
-149
-140
-134
-132
-129
-121
-115
-114
-114
-111
-110
-111
-110
-109
-107
-106
-104
-100
-104
-114
-114
-92
-49
-4
7
-32
-75
-87
-92
-94
-84
-89
-98
-74
-79
-115
-157
-290
-10
1427
2831
2050
-89
-883
-280
3
-173
-166
-115
-168
-154
-114
-124
-117
-94
-89
-80
-61
-45
-27
-8
8
26
49
71
91
111
126
137
147
166
187
191
168
120
54
-16
-75
-115
-142
-157
-164
-167
-167
-163
-155
-146
-138
-132
-125
-117
-115
-118
-114
-106
-105
-111
-115
-112
-107
-105
-103
-97
-92
-99
-110
-100
-64
-15
12
-9
-58
-84
-86
-88
-83
-81
-94
-81
-67
-100
-117
-192
-209
666
2315
2585
688
-930
-715
-82
-83
-166
-97
-115
-136
-95
-91
-98
-77
-67
-61
-40
-23
-10
9
28
47
71
95
119
141
157
167
174
182
201
221
213
163
93
21
-49
-108
-147
-170
-183
-189
-188
-181
-174
-166
-155
-146
-139
-133
-126
-120
-118
-117
-117
-118
-120
-121
-120
-121
-121
-121
-117
-111
-111
-123
-130
-112
-68
-18
-1
-34
-80
-94
-93
-98
-89
-87
-100
-81
-70
-106
-147
-269
-143
1079
2718
2473
383
-813
-359
32
-148
-190
-114
-156
-159
-116
-126
-124
-97
-93
-86
-64
-51
-39
-19
-1
17
39
60
79
99
116
127
136
148
168
182
167
119
57
-3
-61
-109
-138
-150
-156
-158
-155
-151
-145
-140
-135
-132
-129
-125
-121
-118
-115
-112
-109
-108
-107
-105
-106
-105
-102
-102
-101
-93
-92
-105
-111
-91
-49
-2
18
-13
-61
-77
-78
-84
-78
-78
-92
-74
-66
-104
-136
-255
-179
979
2652
2510
429
-852
-424
18
-138
-189
-109
-150
-161
-120
-126
-126
-100
-92
-83
-63
-51
-39
-20
-1
19
43
67
88
108
127
143
152
163
182
198
183
133
68
2
-59
-109
-142
-160
-169
-172
-170
-165
-160
-154
-145
-137
-130
-122
-118
-117
-113
-107
-108
-110
-109
-105
-101
-100
-101
-102
-102
-101
-94
-90
-93
-91
-85
-89
-102
-101
-76
-28
20
24
-21
-62
-70
-73
-73
-63
-71
-77
-52
-62
-100
-152
-285
60
1543
2814
1859
-218
-834
-208
11
-162
-136
-91
-137
-123
-102
-115
-100
-78
-73
-58
-40
-32
-17
6
27
46
67
87
105
126
147
160
168
180
199
209
189
138
72
6
-55
-108
-138
-150
-157
-160
-153
-147
-148
-145
-135
-127
-124
-120
-117
-118
-118
-116
-112
-109
-108
-106
-106
-107
-105
-101
-101
-101
-99
-97
-94
-92
-90
-84
-80
-88
-98
-90
-58
-11
23
8
-42
-69
-69
-75
-74
-69
-81
-71
-54
-86
-108
-178
-224
554
2183
2606
831
-848
-716
-76
-70
-169
-96
-110
-140
-101
-94
-101
-79
-68
-65
-46
-28
-15
5
24
42
65
90
113
137
157
171
182
190
202
217
217
181
116
44
-22
-79
-122
-149
-164
-172
-172
-167
-160
-151
-142
-136
-132
-125
-118
-115
-113
-110
-109
-109
-109
-108
-107
-108
-111
-111
-108
-108
-108
-106
-104
-102
-96
-89
-94
-106
-105
-80
-35
10
16
-26
-66
-73
-76
-79
-69
-75
-84
-59
-63
-107
-165
-288
29
1486
2868
2074
-23
-776
-204
14
-183
-167
-115
-165
-148
-115
-131
-122
-99
-95
-84
-68
-57
-40
-20
-6
13
37
58
78
100
117
129
136
146
162
175
160
113
51
-7
-61
-106
-136
-151
-158
-161
-159
-155
-150
-144
-137
-134
-130
-126
-122
-119
-115
-111
-109
-107
-104
-103
-102
-99
-98
-97
-95
-95
-98
-97
-89
-86
-96
-108
-100
-67
-16
22
9
-41
-71
-70
-74
-77
-68
-77
-77
-54
-70
-106
-179
-301
227
1858
2884
1592
-388
-730
-113
-13
-177
-133
-112
-144
-111
-97
-110
-89
-74
-75
-53
-30
-25
-13
11
28
41
68
98
119
134
146
155
164
175
192
198
165
97
30
-31
-94
-138
-153
-166
-183
-184
-178
-181
-179
-167
-163
-164
-156
-143
-139
-141
-139
-134
-131
-128
-131
-136
-127
-118
-123
-130
-123
-111
-109
-122
-131
-111
-62
-12
0
-33
-72
-87
-99
-105
-79
-70
-98
-85
-64
-97
-113
-187
-141
864
2471
2457
410
-1065
-729
-123
-131
-181
-103
-131
-168
-114
-64
-66
-69
-33
5
13
17
21
-1
-10
34
94
123
143
186
228
238
245
276
301
293
243
160
87
35
-30
-94
-128
-168
-216
-221
-198
-193
-192
-176
-160
-153
-143
-130
-125
-125
-116
-109
-116
-121
-115
-111
-117
-123
-117
-111
-122
-133
-113
-68
-27
-18
-52
-93
-105
-104
-109
-101
-99
-110
-89
-80
-117
-135
-216
-102
1035
2606
2359
270
-927
-422
30
-140
-188
-102
-143
-153
-110
-117
-116
-90
-84
-77
-58
-47
-35
-15
2
18
40
64
87
109
125
136
143
150
162
171
152
101
35
-30
-87
-130
-158
-173
-179
-180
-181
-180
-174
-163
-152
-140
-131
-126
-123
-119
-117
-115
-111
-108
-106
-103
-99
-103
-112
-110
-86
-43
-2
1
-40
-83
-97
-103
-108
-97
-98
-111
-89
-83
-120
-156
-260
-68
1201
2694
2217
122
-892
-357
6
-169
-190
-119
-163
-163
-123
-129
-124
-98
-90
-79
-60
-47
-30
-9
7
27
53
73
89
111
132
145
152
162
179
187
163
109
44
-17
-73
-117
-149
-167
-171
-166
-163
-161
-154
-145
-136
-130
-124
-119
-117
-116
-112
-110
-109
-107
-101
-97
-97
-103
-107
-96
-63
-16
17
0
-54
-89
-93
-98
-96
-89
-104
-104
-79
-99
-126
-178
-270
298
1896
2745
1282
-690
-915
-207
-48
-169
-116
-107
-150
-120
-97
-102
-80
-58
-46
-34
-32
-32
-10
23
48
67
85
110
139
159
168
175
185
198
215
214
174
107
34
-33
-90
-136
-169
-183
-183
-184
-185
-179
-169
-160
-153
-147
-144
-140
-136
-134
-132
-129
-132
-132
-127
-132
-145
-144
-117
-75
-36
-34
-77
-118
-126
-127
-124
-111
-117
-126
-100
-102
-137
-173
-266
72
1488
2748
1830
-308
-1008
-331
-13
-169
-155
-103
-148
-133
-95
-103
-94
-76
-73
-59
-35
-21
-7
13
31
51
75
99
120
140
156
167
176
188
205
207
173
111
43
-21
-81
-126
-150
-164
-171
-172
-168
-161
-154
-146
-139
-132
-126
-121
-117
-114
-112
-112
-112
-111
-108
-110
-121
-128
-113
-77
-32
-4
-24
-75
-103
-104
-108
-106
-97
-109
-105
-80
-100
-135
-213
-292
392
2107
2919
1370
-539
-675
-63
-64
-223
-150
-145
-187
-147
-132
-145
-124
-108
-105
-87
-72
-62
-44
-24
-8
13
37
57
75
94
109
118
125
138
155
155
118
58
-3
-59
-108
-144
-166
-174
-172
-167
-164
-162
-158
-153
-148
-140
-133
-133
-136
-134
-128
-126
-127
-126
-124
-119
-118
-128
-132
-112
-75
-32
-7
-32
-86
-108
-105
-112
-111
-100
-109
-99
-74
-101
-137
-228
-316
427
2179
2872
1201
-648
-681
-66
-76
-210
-136
-141
-174
-129
-119
-135
-113
-94
-86
-65
-48
-40
-25
-1
23
44
64
87
109
127
141
149
156
176
201
197
150
87
30
-31
-90
-131
-149
-154
-153
-149
-143
-138
-133
-122
-116
-120
-119
-108
-101
-99
-95
-93
-95
-96
-92
-87
-85
-91
-98
-93
-68
-26
12
19
-15
-55
-67
-73
-81
-70
-69
-84
-64
-58
-98
-114
-203
-113
1016
2602
2350
201
-1074
-576
-30
-106
-142
-74
-108
-108
-67
-74
-72
-48
-45
-40
-20
-3
13
31
47
65
87
107
129
151
165
169
173
185
205
215
191
132
60
-13
-82
-137
-173
-193
-202
-204
-204
-202
-195
-185
-178
-174
-169
-163
-159
-159
-159
-157
-159
-162
-165
-167
-167
-164
-163
-174
-186
-177
-142
-96
-68
-82
-127
-156
-159
-163
-160
-149
-157
-157
-133
-149
-187
-264
-360
230
1882
2837
1473
-479
-753
-140
-87
-256
-189
-167
-211
-175
-151
-159
-137
-119
-117
-99
-77
-64
-46
-25
-6
17
45
70
93
115
133
146
157
176
202
209
178
124
68
16
-29
-60
-75
-77
-72
-63
-54
-44
-32
-22
-14
-5
6
18
28
34
