# session 38
-20
-28
8
-13
-134
-232
-249
-269
-304
-303
-290
-286
-271
-268
-266
-234
-235
-267
-318
-423
-3
1521
2700
1627
-421
-921
-265
-89
-271
-226
-180
-227
-198
-161
-170
-154
-127
-120
-104
-84
-69
-49
-26
-4
20
46
73
99
122
141
158
170
182
201
214
196
143
78
14
-42
-86
-113
-125
-127
-122
-116
-109
-101
-96
-94
-91
-87
-86
-88
-88
-88
-87
-86
-86
-85
-83
-81
-85
-95
-97
-78
-36
11
22
-18
-64
-75
-76
-83
-74
-70
-84
-68
-61
-97
-123
-222
-114
1020
2575
2326
267
-911
-420
29
-127
-173
-94
-134
-143
-102
-110
-110
-83
-77
-72
-54
-41
-27
-7
11
28
48
68
88
107
121
132
142
151
168
185
182
142
81
15
-47
-100
-135
-152
-157
-155
-149
-143
-137
-131
-127
-125
-124
-124
-126
-127
-126
-126
-124
-121
-120
-123
-120
-114
-120
-133
-129
-99
-52
-13
-19
-68
-104
-108
-110
-112
-103
-113
-117
-96
-112
-141
-185
-285
166
1666
2692
1487
-501
-877
-194
-29
-197
-153
-122
-168
-139
-112
-127
-113
-91
-86
-71
-51
-39
-23
-5
11
29
50
70
90
105
115
126
136
146
163
180
169
124
64
2
-58
-104
-131
-143
-146
-140
-132
-127
-121
-114
-110
-109
-108
-110
-111
-112
-111
-109
-110
-116
-119
-111
-105
-112
-122
-116
-86
-36
4
-7
-61
-98
-98
-97
-98
-93
-102
-97
-73
-97
-126
-154
-237
214
1682
2640
1377
-631
-998
-267
-24
-152
-118
-90
-125
-98
-77
-86
-67
-50
-51
-37
-14
4
24
42
54
73
100
122
134
146
158
171
183
198
218
230
210
155
86
14
-53
-107
-139
-152
-155
-153
-146
-137
-133
-131
-128
-123
-122
-121
-120
-122
-125
-124
-125
-126
-122
-122
-134
-140
-124
-87
-44
-27
-58
-104
-120
-120
-124
-117
-117
-125
-105
-101
-130
-131
-208
-111
970
2441
2128
59
-1093
-552
-30
-133
-174
-102
-135
-139
-99
-106
-104
-79
-72
-65
-45
-33
-19
2
21
39
61
81
101
120
134
141
148
157
174
191
185
139
74
7
-57
-113
-152
-172
-177
-173
-163
-155
-150
-147
-142
-137
-134
-133
-132
-133
-133
-132
-131
-130
-126
-129
-141
-144
-125
-83
-38
-25
-58
-100
-114
-118
-122
-113
-111
-119
-98
-91
-123
-146
-233
-68
1118
2600
2215
166
-884
-356
30
-150
-179
-101
-146
-149
-104
-111
-109
-82
-74
-65
-45
-31
-16
5
25
43
62
81
100
117
127
134
139
145
163
184
178
135
78
24
-28
-74
-102
-113
-116
-111
-101
-94
-90
-85
-80
-76
-72
-72
-74
-76
-77
-77
-79
-81
-76
-72
-80
-90
-78
-42
3
36
24
-29
-67
-72
-75
-76
-71
-82
-79
-59
-81
-108
-165
-248
350
1945
2739
1263
-610
-739
-78
-44
-228
-182
-188
-251
-231
-224
-253
-254
-255
-268
-270
-266
-265
-260
-253
-248
-237
-204
-137
-60
-5
31
60
84
110
142
163
148
104
52
-1
-49
-84
-102
-108
-103
-93
-83
-74
-66
-60
-56
-53
-52
-54
-55
-55
-55
-55
-55
-56
-57
-54
-53
-62
-74
-67
-34
14
47
30
-20
-49
-53
-59
-55
-47
-60
-53
-38
-65
-84
-162
-212
582
2230
2652
872
-784
-621
0
-46
-165
-83
-97
-133
-92
-84
-95
-72
-58
-56
-42
-27
-15
3
20
36
55
71
86
103
114
118
119
124
141
166
171
140
84
23
-36
-90
-131
-153
-158
-155
-147
-139
-134
-129
-125
-123
-123
-123
-124
-126
-128
-128
-128
-128
-129
-130
-129
-129
-129
-127
-130
-142
-143
-117
-70
-25
-21
-64
-102
-108
-110
-110
-103
-113
-113
-88
-102
-128
-174
-273
214
1747
2707
1410
-559
-858
-162
-21
-186
-136
-109
-154
-125
-102
-112
-93
-75
-74
-60
-40
-27
-10
9
23
39
61
80
94
104
113
120
123
133
156
173
157
109
49
-8
-63
-109
-136
-146
-146
-138
-128
-120
-117
-114
-110
-106
-105
-105
-106
-106
-108
-112
-112
-108
-109
-111
-110
-108
-104
-103
-112
-121
-109
-71
-20
13
-8
-66
-100
-104
-103
-93
-92
-104
-87
-80
-110
-122
-219
-160
906
2480
2321
260
-1018
-547
-10
-111
-163
-86
-123
-133
-84
-84
-90
-65
-53
-44
-25
-11
2
20
41
61
78
94
114
134
143
145
146
156
178
199
192
152
92
26
-37
-93
-132
-153
-166
-162
-136
-124
-134
-131
-120
-117
-111
-109
-123
-125
-110
-106
-92
-61
-72
-131
-164
-146
-129
-131
-133
-131
-122
-82
-29
-19
-61
-97
-106
-115
-115
-100
-105
-113
-90
-100
-127
-142
-215
147
1546
2682
1640
-452
-1025
-316
-24
-171
-145
-101
-146
-126
-91
-99
-87
-65
-61
-45
-19
-2
13
29
48
72
95
114
135
154
163
166
172
186
208
216
191
136
69
1
-63
-115
-151
-169
-172
-166
-160
-155
-147
-140
-137
-133
-126
-121
-121
-123
-125
-126
-124
-124
-128
-128
-126
-136
-148
-136
-99
-53
-26
-47
-93
-114
-117
-123
-116
-113
-126
-109
-97
-130
-143
-224
-174
856
2458
2389
345
-989
-538
-1
-125
-186
-97
-131
-147
-100
-102
-105
-77
-68
-63
-44
-28
-15
4
21
38
59
82
101
117
132
141
143
150
170
186
171
122
59
-6
-67
-116
-149
-167
-174
-171
-165
-159
-149
-139
-131
-127
-123
-118
-114
-112
-110
-110
-112
-109
-105
-115
-130
-125
-95
-52
-16
-18
-63
-100
-109
-113
-113
-102
-109
-110
-87
-99
-126
-180
-263
290
1876
2796
1425
-535
-787
-115
-28
-202
-138
-113
-163
-133
-109
-119
-101
-82
-79
-64
-47
-33
-13
7
22
41
62
80
97
117
128
129
131
148
169
166
126
65
3
-57
-110
-146
-166
-176
-180
-176
-165
-155
-150
-145
-140
-137
-136
-130
-122
-127
-135
-129
-117
-117
-128
-136
-134
-108
-57
-15
-25
-70
-97
-101
-107
-106
-104
-120
-110
-81
-107
-135
-194
-278
367
2023
2778
1205
-669
-733
-68
-51
-202
-118
-114
-164
-123
-102
-116
-95
-77
-73
-55
-37
-26
-9
10
28
47
67
88
107
118
125
130
137
155
179
174
126
52
-16
-72
-121
-155
-170
-176
-181
-175
-161
-150
-142
-135
-131
-128
-123
-121
-122
-119
-114
-110
-108
-105
-108
-121
-131
-119
-81
-33
-5
-25
-72
-97
-103
-108
-100
-96
-108
-91
-80
-114
-136
-237
-218
798
2455
2480
457
-937
-522
24
-107
-190
-101
-131
-151
-108
-108
-111
-85
-74
-64
-43
-33
-26
-4
20
39
57
77
97
113
125
134
140
150
172
190
173
119
51
-11
-64
-111
-147
-167
-171
-166
-159
-150
-142
-137
-129
-123
-122
-122
-117
-113
-113
-112
-110
-112
-113
-114
-116
-112
-105
-111
-123
-117
-85
-39
-4
-14
-59
-86
-92
-101
-94
-85
-96
-87
-72
-101
-118
-194
-228
629
2307
2630
743
-873
-629
-13
-82
-190
-103
-121
-149
-105
-102
-109
-83
-73
-69
-45
-26
-16
2
23
40
60
81
100
116
129
138
147
160
182
201
193
149
83
13
-49
-99
-135
-156
-164
-161
-152
-142
-135
-132
-128
-120
-114
-112
-111
-111
-111
-111
-110
-110
-112
-114
-113
-111
-110
-110
-108
-105
-102
-102
-98
-91
-93
-107
-112
-92
-48
0
12
-25
-63
-73
-79
-78
-69
-81
-79
-53
-76
-106
-147
-245
269
1848
2786
1406
-571
-811
-114
-12
-181
-121
-98
-145
-113
-90
-103
-88
-70
-65
-49
-30
-18
-3
14
31
56
79
97
112
127
139
144
147
162
189
199
172
115
49
-15
-75
-119
-145
-159
-164
-161
-152
-144
-139
-132
-124
-118
-113
-112
-114
-117
-115
-111
-113
-118
-119
-116
-114
-113
-110
-107
-105
-108
-110
-107
-104
-102
-99
-105
-118
-117
-89
-40
6
10
-31
-67
-79
-83
-74
-69
-83
-67
-48
-84
-98
-163
-178
696
2338
2567
651
-889
-591
7
-71
-161
-72
-97
-124
-78
-79
-91
-66
-53
-50
-33
-17
-5
14
35
53
73
95
114
134
152
164
170
177
191
206
199
157
90
21
-44
-102
-143
-167
-179
-183
-180
-172
-163
-155
-147
-140
-134
-131
-128
-125
-122
-122
-120
-118
-119
-120
-119
-118
-118
-116
-114
-113
-111
-111
-105
-97
-101
-115
-113
-86
-38
6
4
-42
-76
-82
-87
-82
-76
-91
-83
-63
-92
-116
-189
-235
565
2235
2670
869
-803
-636
-16
-70
-186
-100
-117
-152
-108
-100
-107
-82
-69
-67
-47
-29
-18
0
20
40
62
85
109
130
146
159
168
175
189
206
203
162
97
27
-37
-91
-130
-156
-170
-174
-170
-162
-154
-146
-136
-128
-123
-120
-117
-113
-111
-111
-111
-111
-110
-111
-112
-110
-109
-107
-105
-104
-105
-101
-94
-97
-110
-110
-83
-35
10
11
-34
-71
-78
-80
-79
-78
-91
-80
-61
-89
-109
-178
-242
491
2133
2667
952
-796
-723
-66
-56
-179
-106
-109
-143
-104
-94
-102
-80
-65
-60
-44
-28
-14
7
26
42
62
87
111
134
154
169
179
185
198
216
213
173
109
38
-32
-90
-133
-163
-180
-182
-179
-171
-158
-147
-143
-137
-128
-122
-119
-115
-113
-114
-113
-113
-115
-115
-113
-112
-113
-110
-107
-107
-110
-104
-97
-104
-116
-110
-83
-40
3
5
-42
-78
-83
-88
-87
-81
-95
-90
-70
-94
-116
-183
-262
422
2039
2630
967
-822
-794
-99
-44
-167
-98
-95
-130
-94
-82
-92
-71
-56
-51
-33
-15
-4
14
37
57
77
100
125
150
171
189
201
210
227
245
238
194
126
52
-21
-85
-130
-158
-177
-185
-180
-172
-165
-156
-147
-140
-135
-127
-120
-117
-115
-115
-116
-117
-116
-116
-120
-122
-119
-116
-117
-112
-109
-118
-125
-109
-66
-18
0
-35
-81
-96
-97
-98
-88
-91
-99
-81
-85
-117
-143
-253
-41
1238
2609
1951
-151
-1012
-376
9
-144
-152
-88
-131
-126
-88
-97
-91
-66
-59
-48
-27
-13
1
23
44
66
90
114
139
163
182
195
204
215
231
238
211
151
80
9
-56
-109
-144
-163
-172
-173
-168
-159
-151
-145
-138
-131
-125
-121
-119
-117
-115
-115
-115
-113
-113
-116
-116
-116
-119
-117
-112
-111
-110
-102
-100
-113
-121
-106
-68
-17
11
-15
-65
-85
-85
-87
-80
-83
-94
-71
-63
-103
-135
-242
-129
1022
2556
2267
228
-901
-409
19
-132
-173
-99
-137
-143
-101
-106
-107
-86
-79
-68
-47
-36
-24
-2
17
37
60
82
102
124
145
159
167
172
187
205
198
153
87
22
-37
-87
-122
-145
-158
-157
-149
-139
-132
-130
-127
-121
-115
-115
-119
-119
-116
-115
-115
-115
-114
-112
-113
-113
-110
-106
-109
-111
-105
-106
-116
-117
-93
-50
-4
7
-34
-78
-88
-88
-89
-81
-88
-87
-63
-79
-108
-153
-274
125
1611
2722
1616
-397
-869
-210
-7
-166
-134
-103
-149
-128
-101
-110
-95
-75
-72
-57
-36
-25
-11
9
28
48
72
96
117
136
150
161
171
181
196
205
185
131
65
2
-57
-108
-141
-158
-164
-160
-150
-144
-139
-132
-126
-124
-123
-120
-119
-118
-114
-113
-116
-115
-112
-111
-112
-113
-111
-108
-107
-103
-97
-101
-114
-116
-95
-51
0
15
-27
-72
-82
-84
-89
-84
-90
-94
-71
-80
-109
-147
-265
68
1484
2683
1728
-307
-904
-257
-2
-161
-144
-104
-150
-132
-102
-113
-101
-78
-72
-62
-47
-34
-15
8
26
43
68
91
111
129
145
156
163
174
193
207
191
140
76
13
-48
-101
-135
-152
-157
-153
-145
-139
-133
-124
-118
-118
-117
-114
-112
-113
-112
-111
-110
-110
-111
-112
-111
-109
-107
-106
-107
-102
-96
-99
-110
-110
-88
-44
4
13
-29
-71
-81
-86
-86
-79
-90
-90
-66
-83
-108
-152
-265
182
1694
2719
1515
-459
-841
-179
-11
-167
-127
-97
-141
-119
-96
-104
-88
-72
-70
-54
-35
-23
-5
15
31
52
77
98
116
133
148
159
163
172
192
204
183
131
68
5
-54
-101
-132
-147
-151
-149
-141
-133
-127
-124
-120
-115
-113
-112
-112
-111
-111
-112
-112
-111
-111
-111
-110
-110
-110
-109
-106
-103
-104
-103
-97
-93
-103
-113
-103
-64
-11
17
-11
-61
-80
-83
-89
-83
-85
-95
-76
-75
-111
-135
-251
-146
1008
2526
2212
180
-923
-426
7
-132
-173
-106
-143
-147
-108
-114
-111
-87
-81
-76
-57
-43
-28
-9
9
28
50
70
89
109
125
136
142
150
165
183
182
147
89
25
-36
-86
-123
-147
-156
-155
-149
-142
-136
-131
-125
-120
-116
-116
-115
-114
-113
-112
-113
-114
-113
-111
-110
-107
-103
-102
-104
-99
-95
-96
-95
-89
-93
-104
-101
-73
-21
22
13
-37
-68
-72
-77
-72
-66
-77
-67
-50
-79
-98
-177
-231
546
2184
2640
918
-737
-627
-24
-48
-166
-90
-96
-127
-90
-80
-87
-63
-49
-46
-29
-12
1
17
34
50
72
96
118
140
156
162
167
178
193
209
213
187
136
81
22
-44
-94
-116
-127
-132
-128
-120
-111
-102
-98
-99
-95
-91
-94
-98
-97
-94
-93
-96
-99
-100
-100
-102
-105
-106
-107
-103
-101
-109
-120
-116
-86
-39
-5
-21
-71
-103
-111
-116
-111
-108
-126
-120
-101
-127
-141
-191
-255
418
1990
2552
909
-880
-899
-213
-104
-199
-145
-149
-178
-143
-131
-137
-118
-105
-100
-84
-68
-53
-34
-13
8
30
51
73
96
113
125
134
142
156
175
177
139
72
0
-68
-133
-183
-212
-226
-231
-227
-216
-205
-194
-183
-174
-165
-157
-150
-145
-140
-136
-132
-128
-123
-120
-115
-109
-105
-97
-87
-88
-96
-89
-58
-6
42
46
6
-24
-22
-20
-13
2
1
11
37
23
4
-49
-122
497
2115
2935
1485
-402
-578
78
153
-4
68
97
39
86
