# session 30
-25
-35
5
-41
-210
-315
-269
-193
-171
-183
-212
-233
-233
-234
-225
-209
-217
-211
-180
-197
-203
-219
-403
-143
1249
2401
1460
-441
-993
-421
-136
-198
-172
-144
-164
-141
-117
-115
-101
-83
-72
-56
-39
-23
-1
21
41
71
109
147
185
227
268
302
326
347
361
346
288
209
129
47
-27
-78
-112
-136
-145
-143
-139
-134
-127
-122
-117
-111
-106
-100
-98
-100
-98
-93
-95
-100
-102
-102
-107
-111
-111
-110
-110
-117
-132
-124
-77
-24
-4
-22
-59
-84
-90
-95
-91
-77
-90
-96
-64
-78
-103
-116
-286
-147
1110
2427
1784
-133
-916
-415
-75
-141
-140
-106
-129
-115
-92
-92
-78
-61
-56
-46
-28
-11
5
19
37
65
99
135
173
212
252
286
310
332
355
344
282
199
119
39
-38
-94
-129
-152
-165
-170
-169
-167
-165
-161
-152
-144
-140
-136
-131
-127
-125
-127
-129
-125
-119
-118
-123
-132
-137
-133
-128
-134
-140
-141
-149
-147
-111
-62
-34
-34
-56
-86
-98
-103
-112
-105
-101
-115
-98
-86
-123
-120
-206
-368
291
1925
2495
895
-780
-810
-229
-124
-174
-122
-124
-137
-107
-98
-94
-76
-70
-68
-51
-32
-16
5
29
54
83
117
156
199
243
284
321
352
377
382
351
283
196
105
18
-55
-106
-138
-155
-162
-163
-161
-162
-161
-154
-145
-135
-127
-121
-118
-116
-114
-114
-114
-115
-118
-120
-117
-112
-118
-126
-124
-117
-114
-113
-114
-118
-126
-138
-128
-82
-30
-7
-13
-42
-75
-87
-88
-86
-77
-85
-96
-70
-73
-107
-116
-258
-221
892
2427
2211
311
-810
-465
-77
-142
-169
-124
-140
-130
-103
-104
-93
-76
-76
-64
-44
-35
-22
-1
17
38
74
110
142
180
223
258
288
320
346
346
310
240
150
60
-15
-74
-118
-143
-151
-154
-160
-160
-153
-151
-154
-152
-141
-133
-133
-130
-123
-121
-126
-123
-121
-127
-131
-126
-124
-126
-122
-117
-123
-126
-119
-112
-109
-107
-106
-110
-117
-127
-116
-70
-19
7
-1
-37
-71
-75
-77
-83
-74
-78
-89
-65
-67
-102
-116
-258
-206
921
2436
2193
307
-780
-433
-69
-146
-169
-125
-151
-141
-106
-108
-106
-87
-81
-75
-62
-51
-35
-12
10
33
61
91
123
161
205
247
282
311
337
342
305
235
157
75
-11
-80
-118
-135
-146
-151
-153
-155
-156
-154
-148
-143
-138
-136
-135
-129
-122
-121
-124
-123
-121
-117
-116
-120
-122
-118
-116
-116
-111
-108
-121
-141
-141
-108
-57
-15
-5
-30
-66
-82
-85
-92
-85
-78
-93
-85
-63
-90
-113
-190
-336
191
1726
2552
1282
-444
-709
-194
-74
-165
-155
-158
-161
-136
-135
-99
-34
-41
-84
-85
-73
-61
-36
-13
6
35
78
129
163
176
208
265
305
327
338
316
249
166
91
11
-69
-112
-124
-148
-175
-171
-162
-166
-160
-147
-147
-146
-132
-130
-139
-132
-114
-113
-128
-134
-130
-127
-127
-125
-123
-123
-124
-136
-152
-150
-118
-70
-26
-14
-41
-81
-97
-97
-101
-97
-90
-98
-94
-84
-108
-112
-181
-342
161
1681
2516
1270
-444
-711
-202
-94
-182
-135
-123
-149
-119
-96
-103
-101
-91
-76
-57
-41
-29
-17
-3
18
47
79
114
159
207
249
277
300
329
348
323
257
177
92
9
-57
-108
-150
-173
-167
-154
-156
-165
-162
-156
-157
-155
-144
-138
-140
-141
-137
-130
-123
-128
-142
-153
-151
-126
-93
-75
-60
-40
-51
-98
-118
-106
-117
-131
-122
-126
-120
-92
-117
-134
-158
-328
0
1469
2570
1477
-474
-956
-361
-116
-181
-137
-109
-132
-116
-105
-99
-76
-70
-73
-55
-40
-32
-7
24
42
64
102
146
185
227
275
316
348
379
393
362
283
184
86
0
-71
-133
-175
-185
-183
-189
-193
-189
-187
-179
-164
-158
-161
-148
-131
-138
-151
-146
-139
-141
-140
-142
-148
-152
-165
-174
-143
-88
-63
-63
-56
-60
-95
-122
-120
-115
-113
-109
-116
-109
-93
-112
-118
-191
-351
173
1739
2594
1298
-477
-741
-199
-87
-192
-153
-136
-158
-130
-109
-111
-101
-90
-79
-64
-55
-45
-25
-3
21
50
78
110
157
204
240
273
303
328
347
332
267
185
105
25
-40
-82
-114
-135
-139
-134
-124
-115
-116
-118
-108
-104
-111
-112
-102
-99
-102
-100
-101
-110
-108
-101
-99
-94
-96
-112
-120
-123
-144
-145
-100
-56
-36
-19
-26
-66
-83
-68
-93
-137
-118
-89
-102
-88
-67
-85
-118
-279
-261
810
2348
2194
299
-879
-541
-122
-180
-198
-139
-164
-165
-132
-131
-136
-135
-122
-80
-51
-57
-52
-28
-9
16
49
71
101
153
191
199
225
285
331
332
290
211
123
57
-7
-78
-120
-138
-165
-174
-148
-136
-145
-137
-121
-134
-149
-134
-115
-114
-113
-108
-112
-118
-119
-120
-117
-110
-114
-124
-121
-117
-134
-137
-97
-49
-22
-7
-11
-49
-79
-78
-79
-83
-74
-82
-88
-61
-73
-108
-125
-278
-160
1052
2436
1922
-1
-887
-422
-69
-140
-141
-100
-127
-118
-88
-88
-87
-76
-70
-58
-43
-29
-15
0
17
42
73
107
144
181
218
251
276
299
319
317
279
214
140
62
-14
-75
-113
-135
-145
-149
-148
-145
-142
-137
-131
-128
-129
-130
-128
-126
-125
-128
-131
-132
-132
-132
-131
-133
-137
-135
-137
-155
-159
-119
-66
-37
-32
-52
-91
-113
-108
-110
-109
-99
-110
-111
-86
-110
-126
-157
-345
-55
1398
2548
1511
-457
-984
-385
-107
-164
-129
-110
-133
-108
-93
-100
-82
-63
-60
-48
-33
-26
-11
18
48
75
105
137
167
205
249
289
315
339
360
353
298
210
118
34
-39
-94
-130
-152
-165
-167
-161
-153
-149
-147
-139
-134
-133
-131
-127
-128
-134
-136
-132
-131
-137
-139
-141
-155
-153
-111
-64
-48
-47
-57
-89
-116
-118
-126
-135
-114
-104
-117
-97
-96
-133
-134
-260
-309
642
2220
2266
450
-847
-592
-125
-144
-180
-126
-139
-142
-118
-119
-112
-92
-86
-72
-51
-41
-33
-15
9
37
67
100
136
173
209
243
273
300
324
324
284
215
133
46
-31
-84
-122
-149
-161
-161
-162
-160
-152
-144
-141
-141
-143
-141
-134
-133
-134
-131
-128
-130
-133
-136
-145
-143
-116
-79
-51
-38
-42
-68
-96
-106
-111
-119
-111
-103
-117
-108
-92
-120
-127
-201
-354
206
1765
2515
1150
-556
-744
-208
-101
-181
-142
-140
-155
-118
-103
-110
-95
-82
-79
-68
-54
-38
-16
7
25
44
76
115
150
188
231
264
285
305
320
303
243
157
70
-2
-62
-113
-146
-154
-152
-151
-149
-147
-147
-140
-129
-126
-131
-132
-128
-128
-131
-128
-124
-127
-134
-134
-128
-131
-154
-166
-132
-74
-39
-30
-42
-73
-97
-99
-102
-103
-95
-102
-96
-71
-95
-124
-156
-324
-77
1304
2578
1795
-126
-816
-328
-82
-178
-159
-126
-152
-133
-111
-114
-98
-85
-83
-65
-48
-47
-38
-16
4
28
62
91
118
159
203
231
250
275
299
297
251
169
84
13
-52
-113
-151
-161
-161
-162
-161
-154
-147
-145
-146
-140
-134
-134
-137
-138
-135
-128
-127
-133
-133
-134
-138
-139
-148
-161
-140
-84
-35
-16
-28
-66
-95
-93
-93
-99
-89
-91
-99
-75
-80
-116
-148
-290
-154
1045
2450
2020
135
-797
-381
-60
-162
-171
-122
-149
-138
-105
-114
-115
-96
-84
-71
-56
-46
-34
-17
5
28
54
83
120
160
194
221
242
265
288
287
245
178
105
30
-37
-86
-118
-137
-144
-145
-143
-136
-134
-137
-138
-135
-132
-130
-129
-128
-124
-122
-123
-123
-126
-129
-127
-124
-124
-134
-151
-147
-105
-53
-20
-14
-45
-88
-99
-96
-105
-99
-85
-96
-87
-71
-103
-119
-197
-324
267
1776
2429
1062
-548
-681
-168
-89
-171
-125
-118
-137
-108
-95
-97
-82
-70
-66
-52
-38
-27
-14
4
31
60
81
106
148
191
221
246
273
297
311
298
242
160
81
9
-56
-103
-129
-143
-151
-151
-144
-134
-130
-132
-129
-119
-118
-127
-131
-126
-123
-126
-127
-128
-132
-135
-131
-125
-126
-124
-120
-134
-158
-147
-96
-44
-20
-29
-64
-92
-97
-101
-105
-93
-96
-103
-74
-80
-117
-123
-264
-246
837
2355
2130
224
-883
-506
-92
-141
-152
-107
-137
-129
-97
-109
-107
-78
-69
-67
-51
-32
-17
-4
17
46
74
100
133
173
210
240
264
290
319
326
291
225
149
67
-14
-76
-112
-129
-138
-140
-140
-138
-136
-135
-136
-131
-124
-125
-126
-121
-120
-125
-124
-122
-122
-122
-125
-129
-130
-127
-128
-135
-149
-158
-137
-88
-46
-28
-32
-63
-94
-97
-95
-102
-98
-99
-106
-85
-85
-117
-128
-260
-242
799
2327
2219
377
-794
-476
-66
-134
-170
-118
-141
-143
-112
-109
-101
-83
-85
-81
-60
-45
-34
-12
12
32
55
86
118
150
186
222
253
278
300
309
285
219
135
64
-3
-70
-114
-132
-142
-149
-146
-144
-144
-140
-135
-133
-128
-127
-130
-121
-110
-113
-117
-117
-120
-123
-119
-120
-124
-122
-119
-127
-142
-151
-130
-82
-40
-21
-28
-62
-94
-97
-94
-96
-92
-95
-96
-72
-84
-116
-131
-280
-198
960
2417
2081
201
-806
-420
-67
-151
-168
-117
-138
-133
-106
-108
-102
-86
-82
-71
-53
-46
-36
-11
13
30
52
87
125
159
192
226
254
279
305
311
274
207
134
56
-22
-82
-117
-136
-145
-150
-150
-148
-146
-142
-136
-133
-133
-129
-122
-122
-126
-122
-113
-111
-117
-120
-120
-124
-128
-123
-114
-112
-116
-116
-122
-137
-135
-95
-40
-10
-16
-47
-77
-85
-87
-92
-85
-90
-101
-74
-65
-101
-113
-234
-279
636
2209
2340
594
-730
-526
-79
-121
-178
-122
-130
-135
-105
-102
-102
-88
-80
-70
-54
-42
-29
-15
1
26
56
85
118
157
193
220
246
278
306
314
290
233
156
80
8
-56
-103
-128
-141
-147
-148
-147
-146
-144
-139
-132
-126
-123
-125
-131
-131
-124
-118
-119
-120
-120
-120
-119
-117
-117
-119
-115
-109
-110
-114
-120
-130
-124
-81
-29
-2
-10
-43
-75
-83
-87
-90
-81
-86
-98
-76
-74
-106
-116
-250
-270
710
2258
2259
470
-762
-498
-72
-123
-168
-117
-134
-135
-102
-99
-97
-83
-78
-70
-52
-39
-31
-13
11
33
52
79
115
151
183
214
243
268
291
301
279
223
150
70
-10
-71
-107
-128
-141
-144
-143
-144
-144
-140
-137
-135
-131
-125
-122
-122
-120
-118
-119
-120
-119
-118
-121
-127
-126
-120
-119
-119
-113
-109
-109
-112
-123
-133
-113
-62
-16
-1
-23
-65
-85
-78
-82
-88
-82
-92
-88
-63
-85
-109
-165
-333
55
1537
2575
1482
-371
-799
-249
-69
-169
-137
-112
-135
-113
-97
-104
-91
-74
-67
-56
-43
-30
-11
8
28
54
81
111
150
195
231
258
282
309
331
327
283
209
125
42
-36
-101
-142
-154
-151
-149
-151
-149
-142
-135
-134
-135
-131
-122
-116
-119
-123
-121
-119
-121
-123
-122
-123
-128
-131
-131
-126
-120
-128
-150
-148
-106
-53
-22
-24
-59
-94
-100
-99
-103
-96
-101
-113
-89
-84
-115
-120
-247
-290
652
2202
2245
464
-801
-545
-95
-126
-166
-116
-135
-137
-103
-100
-96
-76
-72
-73
-59
-41
-26
-8
12
34
59
90
122
155
188
221
252
278
300
308
283
221
143
66
-7
-70
-114
-139
-152
-156
-157
-153
-146
-141
-139
-136
-133
-134
-129
-117
-112
-120
-126
-122
-120
-123
-119
-112
-118
-127
-123
-116
-124
-134
-127
-96
-53
-15
-7
-37
-76
-88
-88
-95
-89
-81
-91
-78
-69
-105
-112
-187
-316
310
1857
2454
1000
-606
-683
-154
-84
-166
-122
-119
-136
-106
-93
-95
-78
-68
-68
-58
-43
-25
-5
12
26
49
81
117
152
187
221
250
273
296
313
299
242
168
96
20
-51
-98
-125
-144
-149
-143
-139
-136
-133
-133
-133
-129
-122
-119
-121
-116
-107
-109
-116
-115
-116
-122
-122
-121
-122
-118
-113
-120
-136
-138
-105
-50
-13
-16
-45
-76
-92
-97
-95
-85
-87
-99
-79
-72
-109
-108
-194
-320
361
1917
2409
880
-661
-657
-138
-98
-172
-120
-120
-136
-107
-100
-104
-89
-78
-69
-55
-48
-40
-17
6
26
56
92
118
141
176
212
237
260
287
298
278
230
160
75
-4
-68
-116
-145
-156
-159
-163
-165
-159
-153
-152
-149
-141
-139
-145
-146
-141
-139
-142
-141
-137
-139
-145
-145
-141
-140
-138
-133
-134
-144
-154
-153
-127
-76
-31
-31
-67
-97
-102
-105
-112
-104
-101
-114
-95
-80
-113
-120
-212
-330
370
1929
2401
866
-651
-639
-135
-98
-166
-116
-120
-134
-103
-92
-91
-76
-69
-64
-49
-35
-20
2
23
46
77
106
131
165
206
239
264
292
324
343
328
271
193
112
38
-26
-73
-102
-120
-128
-125
-117
-109
-106
-105
-102
-96
-88
-83
-84
-89
-89
-84
-84
-88
-90
-86
-87
-92
-89
-86
-97
-105
-79
-39
-16
-2
6
-12
-49
-63
-59
-67
-71
-61
-67
-64
-50
-78
-84
-118
-306
33
1504
2559
1429
-499
-938
-322
-64
-126
-96
-88
-114
-85
-69
-79
-65
-51
-54
-42
-19
-8
-1
16
40
59
82
120
159
191
223
256
283
306
322
308
249
162
71
-12
-88
-146
-182
-204
-217
-221
-219
-215
-208
-205
-206
-205
-198
-190
-189
-193
-197
-199
-202
-202
-199
-202
-210
-211
-206
-206
-209
-218
-231
-222
-179
-130
-102
-109
-150
-183
-181
-177
-182
-172
-173
-182
-155
-149
-181
-202
-340
-295
789
2302
2129
277
-847
-509
-107
-170
-201
-152
-166
-155
-119
-112
-101
-81
-70
-51
-25
-6
12
34
57
84
121
164
205
244
286
331
367
392
419
440
421
363
293
225
162
112
79
61
56
58
65
76
