# session 3
-26
-17
-36
8
108
127
63
17
-6
-33
-34
-14
-5
-1
-19
-71
-102
-101
-117
-123
-107
-132
-154
-239
-498
-239
1092
1948
790
-826
-888
-197
-69
-169
-90
-75
-120
-87
-61
-59
-27
1
20
56
89
105
120
130
128
130
163
218
255
234
165
93
48
22
-10
-37
-34
-15
-9
-15
-41
-86
-114
-120
-138
-143
-133
-156
-173
-293
-561
-207
1128
1763
489
-897
-731
-90
-70
-171
-86
-90
-123
-76
-55
-54
-20
6
24
59
87
101
113
111
97
97
135
201
242
213
142
89
55
11
-32
-55
-57
-45
-28
-22
-48
-99
-129
-136
-155
-149
-125
-152
-166
-246
-572
-445
801
1699
643
-909
-949
-219
-38
-125
-64
-50
-82
-50
-27
-24
12
48
63
88
122
148
159
158
156
159
181
224
248
223
169
116
80
58
21
-32
-40
-3
5
-26
-65
-104
-125
-135
-154
-153
-150
-182
-185
-291
-595
-371
791
1414
341
-926
-845
-231
-111
-186
-139
-120
-128
-101
-84
-72
-46
-20
18
59
79
94
115
119
104
103
129
165
180
155
104
59
28
0
-22
-34
-40
-39
-23
-6
-31
-88
-112
-105
-119
-118
-99
-123
-134
-232
-546
-347
913
1726
656
-824
-878
-223
-49
-111
-50
-28
-52
-31
-15
-5
27
57
84
122
154
172
189
205
209
213
244
305
328
267
173
109
68
33
2
-30
-50
-48
-41
-41
-56
-105
-149
-154
-169
-182
-161
-182
-205
-211
-469
-575
458
1756
1204
-614
-1234
-550
-124
-160
-123
-79
-115
-105
-69
-53
-22
11
34
65
91
110
142
165
155
139
158
201
225
199
134
67
16
-33
-68
-67
-51
-49
-47
-29
-30
-85
-155
-187
-201
-203
-170
-177
-216
-229
-436
-615
227
1666
1565
-158
-1099
-587
-114
-155
-148
-79
-111
-112
-62
-35
-6
37
64
67
71
106
166
203
190
154
149
199
253
243
169
76
7
-24
-36
-49
-51
-38
-28
-18
-9
-39
-99
-127
-132
-146
-142
-149
-172
-188
-382
-546
241
1655
1688
100
-891
-519
-134
-220
-240
-188
-223
-192
-110
-106
-121
-82
-39
-26
-3
51
80
66
74
104
103
110
164
186
120
35
-9
-30
-47
-55
-48
-28
-6
4
-5
-52
-118
-140
-130
-139
-139
-135
-156
-172
-331
-532
69
1433
1731
337
-798
-572
-111
-122
-161
-98
-108
-114
-72
-54
-46
-20
9
34
60
93
126
139
133
129
134
157
193
194
133
53
-2
-33
-50
-62
-70
-61
-29
1
-2
-47
-99
-115
-124
-146
-128
-107
-140
-148
-277
-574
-146
1315
1911
490
-972
-837
-193
-100
-156
-100
-108
-125
-90
-74
-63
-33
-5
30
75
114
149
166
157
150
164
196
232
237
177
76
-2
-38
-60
-81
-98
-103
-93
-75
-68
-91
-136
-169
-178
-196
-195
-168
-191
-213
-236
-488
-479
664
1882
1203
-541
-1012
-351
-41
-128
-106
-79
-105
-71
-44
-48
-24
-1
13
52
90
106
126
142
128
103
112
159
194
163
83
8
-45
-70
-73
-86
-102
-82
-46
-33
-45
-82
-127
-143
-143
-137
-107
-113
-151
-182
-381
-488
394
1791
1733
194
-672
-323
-45
-159
-166
-110
-139
-142
-116
-103
-71
-48
-39
0
40
47
56
69
66
59
62
79
110
113
63
5
-24
-44
-69
-86
-90
-72
-40
-22
-29
-55
-91
-125
-146
-151
-135
-139
-163
-172
-324
-572
-130
1157
1677
538
-639
-562
-115
-107
-176
-124
-124
-131
-93
-78
-71
-36
1
30
64
96
109
112
119
125
127
150
187
188
134
67
21
-13
-46
-67
-80
-87
-80
-57
-38
-47
-91
-142
-163
-172
-180
-161
-155
-177
-166
-326
-616
-91
1314
1652
182
-1002
-680
-96
-54
-82
-26
-43
-39
3
1
0
28
55
87
125
156
184
204
200
188
197
233
266
254
187
104
48
21
-1
-30
-52
-58
-50
-33
-17
-25
-68
-115
-130
-139
-154
-131
-122
-158
-169
-323
-586
-63
1306
1629
179
-993
-686
-127
-108
-140
-68
-78
-88
-53
-46
-39
-7
22
51
85
113
136
145
130
110
111
133
158
152
109
57
13
-24
-44
-53
-64
-71
-59
-33
-15
-36
-94
-131
-135
-152
-168
-145
-147
-181
-207
-382
-510
181
1354
1312
-71
-894
-530
-136
-167
-181
-128
-144
-141
-107
-98
-75
-32
-9
13
58
96
116
126
124
117
121
138
153
147
105
45
3
-15
-26
-39
-50
-48
-33
-13
3
5
-29
-87
-118
-126
-134
-122
-119
-146
-148
-278
-505
-29
1230
1554
214
-933
-679
-112
-56
-96
-34
-33
-41
-9
1
15
54
84
110
149
181
199
219
232
218
203
232
281
267
178
85
33
3
-25
-51
-73
-84
-73
-51
-38
-40
-68
-120
-149
-151
-169
-172
-147
-170
-195
-265
-553
-448
764
1762
813
-841
-1042
-318
-81
-164
-105
-79
-109
-71
-45
-50
-18
24
53
90
130
160
184
196
188
178
193
229
239
183
88
10
-34
-62
-81
-89
-92
-99
-102
-92
-75
-76
-108
-140
-141
-151
-182
-170
-150
-176
-180
-313
-576
-95
1299
1707
196
-1159
-881
-186
-81
-118
-55
-62
-68
-25
-12
1
40
71
101
138
164
192
217
215
200
210
243
264
239
167
77
5
-36
-48
-53
-63
-74
-71
-53
-34
-30
-47
-84
-114
-119
-132
-141
-114
-126
-162
-184
-416
-525
423
1706
1280
-445
-1084
-445
-67
-151
-125
-68
-107
-99
-65
-57
-30
3
24
61
107
134
149
159
158
151
159
195
220
181
92
11
-36
-62
-74
-83
-98
-97
-64
-33
-31
-53
-96
-134
-137
-143
-157
-132
-126
-159
-182
-390
-595
158
1568
1580
-48
-1020
-544
-66
-137
-167
-92
-102
-97
-62
-60
-36
15
40
61
97
123
144
167
173
162
172
208
227
191
106
22
-26
-47
-62
-75
-87
-96
-85
-55
-28
-27
-59
-96
-104
-109
-128
-116
-104
-132
-157
-326
-586
-95
1261
1726
465
-702
-530
-67
-84
-140
-81
-98
-107
-63
-52
-39
3
26
45
83
114
133
147
139
121
126
148
158
141
93
30
-19
-43
-55
-70
-90
-107
-99
-72
-53
-47
-57
-94
-131
-137
-140
-148
-139
-150
-168
-205
-446
-554
285
1447
1177
-260
-881
-416
-85
-134
-125
-86
-110
-90
-50
-49
-44
-16
12
42
80
112
128
140
143
134
144
187
203
151
76
20
-27
-55
-55
-58
-84
-100
-83
-58
-45
-40
-50
-88
-123
-140
-150
-130
-108
-145
-162
-230
-529
-423
757
1704
818
-712
-929
-298
-57
-106
-67
-47
-56
-24
-11
-8
26
66
100
141
179
213
240
246
236
238
265
293
282
223
137
55
4
-17
-30
-45
-59
-67
-59
-42
-29
-20
-32
-77
-107
-107
-117
-112
-94
-116
-126
-220
-502
-224
1112
1902
728
-818
-883
-246
-84
-136
-80
-78
-105
-73
-47
-37
-11
14
39
79
118
149
173
178
166
160
177
196
179
110
18
-64
-125
-161
-171
-174
-186
-188
-161
-127
-115
-131
-163
-187
-193
-210
-222
-193
-190
-223
-241
-416
-547
218
1531
1519
9
-917
-545
-123
-152
-171
-114
-113
-98
-74
-72
-46
-18
-28
-16
50
108
125
131
134
117
125
163
157
95
33
-17
-60
-84
-102
-104
-78
-68
-79
-59
-24
-24
-38
-47
-73
-106
-123
-121
-99
-105
-129
-151
-342
-438
403
1716
1626
110
-751
-392
-60
-129
-128
-70
-96
-82
-37
-41
-33
17
52
67
104
157
190
197
198
203
213
228
230
200
133
38
-45
-81
-89
-99
-115
-122
-113
-99
-89
-77
-81
-120
-157
-158
-163
-162
-134
-157
-204
-279
-562
-504
791
2165
1492
-382
-969
-352
-72
-183
-158
-127
-176
-169
-134
-117
-83
-38
3
52
107
161
203
227
231
221
230
272
280
204
97
21
-40
-93
-99
-77
-98
-148
-146
-100
-82
-92
-101
-128
-164
-175
-178
-171
-151
-187
-213
-201
-424
-509
538
1921
1466
-408
-1190
-584
-139
-165
-137
-91
-121
-103
-65
-66
-56
-21
18
52
86
125
158
173
190
204
206
220
234
183
80
1
-48
-104
-136
-114
-95
-118
-127
-92
-66
-64
-61
-79
-115
-127
-143
-164
-139
-140
-181
-218
-421
-458
608
2055
1693
-203
-1069
-493
-90
-195
-191
-130
-170
-157
-102
-92
-72
-26
11
48
90
129
167
195
196
185
192
216
218
168
89
24
-19
-53
-71
-73
-85
-103
-98
-76
-64
-49
-44
-84
-132
-139
-146
-172
-168
-168
-191
-227
-401
-379
575
1744
1277
-417
-1040
-382
-7
-146
-142
-64
-95
-90
-47
-40
-24
15
52
91
120
138
159
169
162
160
166
178
186
159
90
23
-10
-25
-43
-64
-85
-101
-99
-74
-51
-40
-39
-58
-93
-114
-130
-141
-124
-122
-149
-200
-407
-447
458
1669
1335
-257
-893
-305
17
-151
-156
-65
-88
-82
-33
-37
-47
-20
14
37
63
95
115
111
94
88
109
140
140
104
56
7
-32
-50
-62
-76
-94
-122
-136
-108
-72
-59
-57
-74
-100
-106
-117
-130
-100
-99
-147
-159
-336
-597
17
1416
1599
76
-946
-519
-40
-116
-138
-44
-65
-76
-38
-39
-26
28
56
64
95
134
158
170
166
150
163
204
217
178
112
46
6
-8
-34
-69
-75
-69
-93
-121
-104
-59
-27
-32
-76
-111
-113
-119
-116
-93
-117
-156
-224
-503
-491
602
1735
1098
-478
-863
-261
-32
-151
-128
-85
-106
-91
-67
-53
-23
0
21
63
105
122
127
135
138
131
141
179
183
114
32
-14
-36
-52
-71
-95
-109
-113
-126
-129
-103
-75
-67
-79
-104
-116
-118
-131
-128
-118
-132
-157
-341
-593
-60
1290
1626
231
-896
-569
-35
-76
-138
-51
-53
-63
-19
-13
-19
16
56
83
114
162
199
193
171
172
186
204
228
217
150
79
33
2
-14
-25
-42
-59
-78
-99
-88
-57
-44
-45
-52
-72
-87
-103
-126
-113
-100
-138
-156
-284
-587
-256
1062
1666
410
-934
-784
-152
-80
-152
-77
-67
-93
-62
-38
-25
7
39
65
99
136
164
174
173
165
157
173
198
175
106
41
-10
-50
-67
-72
-84
-94
-99
-111
-118
-112
-96
-74
-65
-92
-119
-122
-136
-137
-114
-135
-161
-223
-497
-463
626
1696
1008
-557
-923
-316
-62
-137
-89
-53
-86
-60
-20
-13
2
27
54
89
127
168
202
206
192
191
203
222
225
174
90
29
-2
-28
-45
-47
-55
-74
-87
-87
-80
-71
-54
-46
-72
-109
-119
-127
-144
-133
-127
-145
-159
-320
-515
6
1132
1288
59
-855
-588
-129
-91
-117
-67
-67
-75
-53
-47
-46
-27
5
46
96
145
189
220
227
218
220
239
249
221
153
68
0
-34
-51
-63
-72
-81
-99
-119
-121
-105
-91
-77
-67
-91
-133
-145
-146
-151
-125
-120
-149
-181
-396
-550
231
1516
1414
-91
-893
-452
-59
-102
-99
-44
-71
-69
-30
-15
-2
22
52
92
130
163
195
213
213
211
219
236
236
194
120
45
-17
-51
-64
-76
-87
-91
-105
-120
-111
-92
-88
-82
-75
-102
-140
-146
-149
-156
-132
-143
-179
-195
-424
-608
246
1639
1456
-265
-1135
-590
-111
-129
-113
-55
-81
-69
-31
-25
-1
40
69
107
154
194
231
259
263
251
251
273
278
225
129
36
-34
-75
-91
-95
-100
-104
-112
-125
-126
-108
-94
-88
-89
-116
-150
-151
-154
-171
-156
-157
-189
-210
-399
-529
323
1724
1598
-128
-1070
-551
-80
-147
-155
-79
-102
-102
-62
-50
-27
10
34
70
119
157
188
213
218
207
208
227
233
193
116
35
-33
-74
-88
-94
-101
-105
-119
-127
-102
-73
-66
-62
-69
-106
-133
-137
-151
-150
-140
-163
-189
-349
-589
-63
1339
1771
356
-912
-664
-100
-110
-174
-93
-102
-118
-72
-58
-54
-15
20
52
96
137
171
200
207
197
197
211
213
177
109
31
-33
-69
-88
-103
-112
-114
-124
-142
-142
-120
-101
-91
-82
-89
-118
-138
-147
-156
-141
-129
-157
-175
-322
-583
-136
1211
1726
458
-791
-639
-110
-84
-145
-82
-86
-92
-49
-39
-29
17
52
70
109
160
195
213
220
214
206
216
226
193
118
51
8
-25
-52
-60
-53
-49
-61
-78
-78
-55
-33
-17
-4
-20
-65
-89
-92
-105
-98
-88
-114
-133
-273
-515
-114
1093
1567
464
-652
-558
-100
-54
-102
-52
-48
-52
-18
-5
3
36
70
99
135
177
215
236
240
233
227
228
232
207
141
59
-7
-47
-67
-76
-81
-87
-96
-109
-117
-107
-82
-62
-56
-73
-110
-133
-139
-155
-151
-133
-157
-180
-291
-586
-376
858
1710
766
-661
-800
-247
-111
-181
-124
-110
-136
-101
-77
-77
-45
-5
16
49
100
142
165
175
172
163
170
182
155
82
4
-61
-116
-152
-167
-172
-173
-176
-190
-204
-196
-170
-154
-146
-143
-171
-206
-209
-212
-222
-198
-197
-230
-257
-485
-678
138
1557
1484
-196
-1131
-628
-148
-189
-193
-129
-152
-141
-95
-82
-57
-15
10
48
107
151
182
214
229
221
226
246
240
188
107
21
-46
-84
-107
-117
-105
-94
-107
-124
-115
-85
-63
-53
-40
-37
-63
-83
-82
-87
-74
-52
-68
-84
-211
-473
-64
1364
2071
798
-687
-652
-42
35
-39
35
43
18
54
75
84
119
151
178
220
269
311
341
350
346
349
363
363
328
262
185
117
68
37
21
19
24
20
5
-10
-9
15
40
46
32
0
-28
-41
-62
-72
-57
-77
-116
-199
-460
-369
813
1975
1280
-401
-865
-292
-77
-203
-174
-141
-179
-159
-136
-150
-135
-104
-88
-62
-23
8
33
45
36
22
27
34
2
-68
-147
-213
-260
-289
-304
-310
-307
