# session 36
-26
-46
-1
86
14
-237
-389
-360
-328
-332
-310
-295
-313
-301
-255
-267
-299
-305
-425
-209
1167
2619
1889
-347
-1251
-577
-137
-240
-234
-176
-203
-178
-156
-179
-155
-113
-116
-112
-79
-55
-42
-19
4
18
41
77
115
153
187
218
253
286
304
317
317
272
189
105
29
-47
-111
-146
-157
-157
-158
-156
-143
-128
-127
-131
-123
-115
-117
-119
-112
-93
-81
-95
-105
-79
-61
-87
-99
-73
-61
-81
-101
-98
-52
23
48
-5
-55
-60
-64
-73
-56
-48
-57
-36
-32
-64
-48
-112
-105
837
2381
2320
282
-1089
-621
17
-48
-135
-64
-89
-108
-74
-79
-76
-50
-53
-58
-42
-30
-19
0
12
23
43
64
87
116
142
164
183
194
209
232
232
194
138
74
-1
-67
-110
-138
-155
-162
-165
-156
-142
-142
-147
-143
-141
-147
-147
-138
-135
-136
-135
-132
-128
-129
-137
-137
-125
-125
-144
-156
-136
-87
-39
-31
-65
-100
-107
-107
-105
-94
-102
-112
-88
-92
-115
-112
-215
-3
1299
2614
1810
-313
-1040
-344
-18
-200
-192
-127
-169
-153
-119
-132
-120
-94
-93
-83
-56
-38
-24
-12
1
24
50
72
96
125
150
170
184
197
212
227
222
185
126
63
0
-60
-105
-127
-135
-135
-134
-132
-125
-120
-121
-119
-113
-115
-125
-132
-130
-128
-130
-131
-129
-129
-131
-126
-121
-128
-136
-126
-92
-44
-14
-40
-94
-112
-102
-98
-93
-100
-116
-90
-74
-104
-87
-142
-166
710
2290
2373
365
-1174
-838
-136
-80
-129
-66
-87
-99
-61
-68
-72
-39
-28
-35
-19
7
19
29
51
79
103
132
167
193
213
238
265
291
318
342
340
296
218
131
46
-37
-108
-153
-171
-172
-172
-170
-163
-156
-159
-166
-165
-153
-150
-163
-167
-151
-151
-177
-190
-177
-167
-166
-171
-181
-167
-115
-70
-74
-111
-139
-149
-154
-141
-122
-133
-138
-110
-126
-133
-87
-149
105
1344
2396
1359
-758
-1398
-627
-123
-117
-76
-38
-69
-46
-14
-20
-11
5
9
22
41
55
75
98
118
142
169
193
222
255
281
306
334
356
374
375
338
266
180
84
-15
-95
-146
-176
-188
-190
-193
-194
-183
-172
-173
-174
-166
-159
-160
-161
-162
-163
-162
-165
-170
-164
-157
-166
-181
-173
-138
-90
-63
-87
-130
-146
-144
-143
-130
-122
-136
-125
-113
-131
-108
-131
-142
583
1945
2041
237
-1197
-869
-153
-76
-126
-52
-59
-75
-38
-32
-29
-5
0
4
28
42
48
67
91
109
130
154
179
206
231
248
264
284
300
307
297
256
189
116
43
-27
-86
-126
-144
-147
-145
-143
-138
-133
-136
-137
-133
-138
-145
-147
-145
-148
-151
-151
-147
-146
-155
-164
-149
-108
-66
-56
-89
-127
-139
-143
-146
-134
-134
-146
-128
-127
-149
-120
-166
-104
829
2135
1800
-167
-1244
-664
-72
-108
-136
-65
-92
-93
-52
-52
-48
-24
-20
-14
3
14
29
54
72
87
112
138
161
185
212
236
255
269
282
293
280
230
156
80
7
-58
-107
-139
-155
-155
-146
-143
-144
-143
-139
-138
-139
-143
-145
-144
-144
-148
-149
-143
-144
-159
-171
-156
-111
-63
-51
-82
-120
-134
-140
-141
-130
-131
-141
-116
-114
-143
-127
-188
-96
966
2392
2008
-78
-1152
-532
-9
-132
-166
-83
-118
-121
-78
-85
-84
-59
-53
-46
-26
-13
3
25
43
63
88
113
139
168
194
213
225
231
241
254
244
194
126
56
-17
-81
-124
-153
-173
-174
-160
-146
-144
-148
-146
-135
-123
-118
-123
-132
-132
-124
-113
-95
-96
-138
-173
-140
-63
-16
-35
-85
-115
-125
-137
-129
-97
-103
-139
-134
-130
-148
-152
-203
82
1334
2531
1706
-390
-1139
-431
-29
-174
-181
-122
-174
-181
-142
-134
-121
-97
-84
-70
-54
-36
-17
0
24
57
86
111
140
169
195
217
228
233
241
244
220
168
95
15
-57
-114
-158
-184
-186
-174
-162
-155
-150
-142
-133
-121
-114
-118
-119
-103
-92
-109
-121
-106
-95
-103
-103
-76
-28
17
19
-32
-86
-107
-115
-114
-100
-107
-117
-94
-91
-114
-155
-270
37
1389
2589
1726
-284
-972
-370
-56
-170
-160
-122
-157
-143
-116
-117
-99
-84
-88
-76
-57
-46
-28
-5
13
36
66
91
114
139
164
188
205
214
231
254
243
177
92
26
-30
-95
-154
-179
-180
-174
-161
-149
-152
-156
-149
-139
-131
-127
-135
-147
-148
-144
-141
-138
-139
-144
-145
-132
-94
-45
-34
-77
-122
-135
-143
-147
-129
-127
-137
-113
-114
-154
-170
-258
-84
1142
2608
2131
11
-1066
-537
-78
-169
-185
-119
-148
-142
-104
-110
-109
-88
-75
-54
-28
-24
-21
4
40
78
107
116
134
178
220
233
242
275
315
324
285
218
149
75
-23
-121
-173
-187
-195
-198
-190
-183
-179
-174
-162
-149
-142
-144
-145
-136
-126
-127
-141
-165
-182
-167
-130
-87
-36
-19
-89
-176
-192
-169
-155
-149
-155
-150
-128
-146
-155
-172
-265
194
1706
2707
1485
-491
-901
-278
-101
-227
-179
-144
-173
-144
-119
-124
-109
-94
-83
-53
-35
-39
-27
8
37
61
90
118
138
156
186
224
248
253
266
274
232
153
80
11
-65
-120
-145
-168
-183
-177
-165
-162
-157
-149
-142
-140
-139
-134
-123
-120
-128
-126
-120
-138
-163
-159
-127
-83
-43
-39
-71
-98
-110
-124
-122
-112
-126
-128
-98
-109
-130
-156
-254
167
1652
2718
1572
-408
-830
-193
-48
-214
-163
-130
-180
-155
-128
-138
-120
-101
-99
-81
-61
-56
-42
-16
6
28
54
81
110
141
166
186
204
223
240
240
206
138
56
-22
-87
-132
-160
-174
-177
-171
-164
-160
-161
-158
-150
-143
-139
-137
-135
-135
-135
-134
-134
-132
-131
-144
-157
-145
-105
-60
-36
-51
-90
-113
-117
-120
-113
-106
-119
-111
-87
-112
-141
-212
-261
495
2183
2801
1157
-610
-631
-68
-106
-235
-155
-161
-197
-155
-141
-149
-126
-110
-105
-88
-72
-58
-36
-12
10
35
65
93
120
148
175
195
210
231
251
246
200
128
50
-25
-88
-133
-160
-173
-174
-167
-160
-157
-153
-149
-145
-142
-140
-137
-134
-133
-133
-131
-129
-128
-128
-124
-120
-126
-139
-145
-130
-91
-42
-18
-43
-85
-103
-105
-108
-100
-99
-112
-93
-81
-117
-149
-258
-215
854
2540
2575
583
-819
-499
-28
-148
-208
-129
-165
-180
-133
-133
-137
-110
-99
-96
-76
-58
-45
-25
1
26
48
73
104
137
166
191
215
239
263
281
273
224
144
63
-10
-72
-122
-153
-161
-155
-153
-156
-153
-145
-139
-137
-135
-134
-132
-129
-128
-128
-129
-128
-124
-124
-128
-125
-123
-127
-125
-116
-119
-136
-137
-111
-69
-23
-12
-49
-88
-95
-101
-107
-95
-97
-106
-85
-94
-133
-178
-307
-15
1408
2752
1920
-204
-963
-343
-36
-178
-161
-114
-159
-143
-108
-116
-104
-85
-83
-69
-46
-32
-15
8
30
54
82
108
138
170
196
219
243
264
285
297
275
210
128
45
-34
-100
-146
-173
-183
-181
-177
-176
-170
-161
-157
-155
-152
-149
-146
-142
-139
-139
-140
-138
-135
-136
-138
-138
-132
-131
-142
-153
-145
-108
-55
-24
-42
-85
-106
-110
-115
-108
-99
-111
-101
-82
-111
-141
-229
-256
614
2323
2740
946
-712
-605
-60
-118
-218
-137
-153
-181
-139
-134
-139
-112
-99
-94
-75
-57
-43
-20
4
25
48
76
107
140
171
198
222
242
262
280
275
224
145
62
-16
-87
-138
-168
-185
-189
-185
-179
-174
-166
-158
-152
-146
-140
-136
-132
-129
-126
-124
-124
-124
-123
-123
-120
-117
-116
-116
-113
-118
-132
-137
-121
-80
-29
-8
-37
-80
-95
-99
-103
-93
-92
-106
-87
-79
-121
-167
-298
-196
1010
2682
2515
464
-782
-397
-12
-169
-210
-134
-171
-176
-135
-140
-137
-110
-102
-95
-75
-58
-42
-19
3
24
48
76
107
139
170
199
221
239
262
280
266
210
131
50
-25
-89
-136
-166
-178
-180
-177
-172
-164
-157
-152
-146
-140
-134
-131
-127
-123
-121
-120
-119
-119
-121
-123
-119
-116
-117
-117
-115
-112
-109
-106
-109
-120
-124
-101
-53
-7
0
-39
-76
-81
-83
-89
-85
-92
-95
-70
-83
-128
-184
-318
14
1499
2836
1962
-128
-834
-260
-33
-192
-168
-126
-169
-145
-116
-132
-118
-91
-87
-77
-58
-43
-22
2
23
47
77
107
136
167
198
227
248
266
287
297
271
205
123
41
-39
-106
-152
-179
-190
-191
-189
-183
-175
-171
-167
-160
-151
-147
-145
-141
-137
-134
-134
-136
-136
-135
-133
-133
-133
-132
-129
-129
-128
-123
-118
-127
-142
-137
-102
-48
-11
-21
-64
-89
-92
-96
-91
-82
-93
-88
-68
-95
-132
-226
-300
453
2189
2902
1316
-490
-586
-54
-90
-221
-145
-148
-182
-140
-127
-136
-114
-98
-95
-77
-60
-45
-25
-6
14
41
70
98
128
160
191
216
235
253
273
274
235
162
78
1
-67
-122
-155
-173
-183
-184
-176
-170
-167
-161
-153
-147
-140
-134
-132
-129
-123
-121
-121
-119
-115
-114
-115
-117
-118
-117
-118
-119
-115
-112
-109
-100
-102
-123
-139
-129
-96
-47
-8
-14
-56
-82
-86
-91
-86
-80
-94
-85
-66
-97
-130
-234
-317
484
2235
2818
1119
-608
-586
-46
-96
-209
-135
-147
-171
-127
-122
-129
-101
-87
-83
-63
-46
-33
-13
7
28
55
78
104
139
175
205
231
254
273
288
286
247
174
91
12
-58
-113
-154
-180
-188
-184
-179
-172
-163
-159
-157
-150
-144
-142
-138
-131
-130
-131
-128
-125
-126
-126
-125
-124
-123
-123
-125
-123
-113
-110
-125
-140
-129
-92
-41
-11
-33
-78
-95
-94
-102
-98
-96
-109
-90
-75
-113
-136
-241
-252
708
2352
2458
533
-879
-560
-37
-118
-180
-104
-132
-142
-96
-94
-98
-76
-66
-56
-34
-21
-9
15
37
55
81
112
142
174
210
242
265
287
311
324
304
247
164
73
-11
-82
-135
-169
-186
-194
-195
-191
-183
-174
-167
-160
-149
-137
-131
-127
-123
-129
-140
-142
-134
-128
-127
-127
-129
-131
-129
-126
-122
-126
-140
-151
-143
-107
-56
-21
-36
-80
-101
-102
-108
-100
-88
-105
-103
-76
-96
-137
-241
-297
496
2178
2722
1075
-587
-557
-39
-100
-212
-134
-146
-173
-127
-119
-128
-103
-89
-86
-69
-54
-41
-20
0
17
41
70
100
131
162
191
216
237
255
269
265
220
145
64
-10
-77
-128
-158
-174
-181
-181
-177
-170
-162
-155
-149
-142
-133
-127
-126
-123
-116
-114
-115
-114
-111
-110
-110
-109
-107
-104
-104
-106
-106
-102
-99
-106
-121
-127
-104
-56
-9
3
-30
-68
-79
-83
-86
-75
-77
-88
-67
-68
-112
-167
-293
-53
1305
2788
2252
217
-714
-252
-6
-193
-194
-133
-181
-175
-139
-148
-141
-118
-113
-104
-85
-72
-54
-32
-11
12
37
62
92
125
154
180
203
223
241
255
241
188
114
40
-30
-91
-132
-154
-166
-169
-165
-160
-155
-151
-147
-142
-137
-134
-134
-132
-129
-126
-123
-121
-120
-122
-121
-114
-109
-112
-114
-109
-103
-100
-100
-106
-116
-118
-97
-48
0
1
-42
-75
-80
-87
-92
-80
-86
-95
-74
-80
-118
-181
-320
25
1505
2784
1872
-172
-818
-239
-28
-189
-164
-124
-164
-142
-114
-126
-113
-91
-88
-77
-60
-48
-28
-2
19
40
66
95
128
161
190
215
236
255
275
282
256
192
112
31
-45
-109
-151
-174
-183
-184
-180
-174
-167
-161
-155
-150
-146
-144
-142
-143
-141
-136
-134
-136
-134
-130
-130
-130
-126
-123
-125
-121
-111
-111
-124
-136
-128
-93
-40
-6
-22
-65
-87
-89
-93
-87
-79
-94
-89
-68
-92
-130
-228
-293
486
2205
2840
1220
-523
-563
-39
-89
-214
-137
-145
-177
-136
-127
-138
-116
-102
-98
-80
-62
-50
-31
-8
12
35
61
91
122
152
180
204
224
244
264
262
221
149
70
-4
-69
-120
-151
-168
-175
-172
-165
-159
-154
-147
-141
-136
-132
-129
-126
-123
-120
-118
-117
-115
-114
-113
-112
-110
-110
-110
-107
-104
-105
-102
-96
-98
-114
-123
-105
-61
-12
4
-29
-70
-81
-84
-91
-83
-85
-96
-76
-74
-117
-169
-305
-133
1159
2724
2341
302
-748
-311
-7
-183
-200
-136
-181
-177
-137
-147
-146
-122
-115
-104
-85
-73
-59
-38
-19
4
31
55
83
116
147
171
192
211
231
248
236
183
108
34
-37
-99
-143
-169
-181
-183
-178
-169
-161
-157
-154
-149
-142
-138
-138
-137
-133
-129
-125
-122
-123
-124
-120
-117
-117
-119
-118
-115
-111
-108
-106
-105
-102
-96
-93
-102
-111
-102
-68
-18
13
-8
-51
-68
-69
-76
-70
-67
-78
-59
-48
-89
-129
-251
-224
836
2540
2628
702
-682
-406
12
-124
-181
-102
-137
-150
-107
-111
-113
-85
-76
-72
-53
-36
-20
2
24
46
71
97
124
156
190
218
238
256
276
294
290
247
174
94
19
-47
-97
-129
-147
-151
-147
-141
-136
-131
-126
-122
-119
-116
-114
-113
-113
-112
-112
-111
-109
-108
-110
-110
-108
-107
-109
-110
-109
-105
-101
-106
-119
-125
-107
-64
-18
-9
-46
-85
-97
-101
-102
-93
-102
-115
-94
-98
-140
-197
-331
-52
1366
2790
2102
31
-806
-289
-45
-224
-217
-165
-212
-202
-171
-183
-177
-156
-152
-141
-123
-110
-93
-72
-55
-33
-7
21
53
86
116
143
167
186
205
212
186
122
41
-39
-111
-169
-209
-231
-243
-248
-248
-240
-227
-213
-205
-197
-185
-171
-163
-160
-153
-136
-122
-123
-127
-120
-111
-107
-104
-101
-95
-86
-81
-75
-58
-43
-35
-32
-43
-57
-27
49
104
95
57
41
47
40
34
49
57
67
100
95
57
-8
-135
263
1815
3146
2256
219
-439
68
195
47
99
83
