# session 0
-33
-17
-16
-9
30
70
62
12
-40
-86
-128
-160
-176
-177
-172
-177
-184
-173
-154
-153
-164
-169
-170
-181
-193
-196
-186
-160
-130
-111
-99
-101
-128
-145
-136
-132
-122
-110
-128
-130
-203
-356
132
1533
2235
1054
-444
-608
-149
-69
-132
-96
-109
-122
-80
-69
-75
-55
-45
-45
-30
-19
-13
3
25
43
58
70
78
81
81
85
89
93
117
157
169
137
92
45
-8
-48
-67
-78
-81
-76
-80
-83
-73
-68
-68
-55
-54
-81
-95
-79
-75
-105
-137
-135
-96
-57
-36
-19
-16
-46
-75
-79
-82
-73
-46
-69
-101
-102
-244
-206
804
2106
1820
182
-661
-300
-17
-124
-146
-96
-113
-110
-85
-84
-86
-81
-73
-63
-60
-49
-16
-7
-41
-44
22
79
73
38
-2
-49
-62
-5
70
82
45
35
28
-46
-127
-141
-149
-167
-132
-103
-155
-189
-142
-118
-140
-125
-78
-66
-85
-98
-114
-142
-163
-164
-131
-59
-24
-64
-84
-56
-58
-57
2
30
-10
-23
-29
-111
-138
-30
-69
-190
420
1667
1931
712
-360
-351
-62
-46
-72
-56
-66
-78
-77
-55
-29
-21
-12
-14
-18
-4
-27
-46
45
115
14
-70
44
165
103
15
64
115
59
16
61
125
129
51
-28
-49
-100
-163
-104
-37
-93
-106
-48
-93
-129
-41
-35
-138
-106
0
-54
-156
-121
-86
-156
-180
-105
-54
-48
-42
-64
-107
-119
-92
-66
-68
-90
-123
-130
-104
-206
-274
406
1599
1698
390
-575
-400
-88
-149
-159
-46
-52
-118
-92
-43
-72
-108
-78
-52
-43
7
40
15
10
27
18
20
57
92
110
102
70
59
88
115
106
66
36
27
-2
-50
-67
-50
-42
-61
-89
-109
-117
-96
-70
-90
-116
-85
-59
-93
-113
-96
-106
-132
-138
-136
-116
-71
-44
-44
-44
-58
-85
-98
-108
-106
-72
-70
-92
-113
-255
-190
755
1861
1482
-9
-698
-342
-65
-101
-94
-71
-90
-74
-58
-66
-51
-30
-27
-20
-8
0
22
53
70
72
74
78
82
82
86
94
95
94
112
145
152
115
56
11
-14
-36
-68
-94
-93
-83
-88
-102
-103
-95
-93
-100
-115
-128
-129
-126
-138
-151
-146
-128
-108
-83
-60
-67
-101
-111
-96
-101
-94
-68
-94
-111
-123
-305
-119
1145
2236
1323
-531
-1024
-384
-61
-119
-91
-57
-78
-60
-43
-45
-26
-9
-13
-3
26
41
42
60
98
123
131
142
153
152
151
151
147
159
190
203
169
107
44
-10
-54
-84
-108
-130
-130
-111
-106
-127
-139
-127
-118
-126
-140
-145
-141
-140
-149
-148
-124
-103
-106
-108
-110
-123
-126
-127
-136
-117
-114
-146
-146
-240
-269
588
1996
1927
100
-1111
-709
-134
-122
-152
-93
-100
-89
-65
-85
-81
-50
-43
-38
-12
16
35
54
73
92
114
129
130
123
125
134
135
133
150
170
147
74
-12
-72
-104
-124
-133
-124
-114
-118
-119
-110
-109
-115
-121
-136
-148
-145
-149
-160
-146
-118
-112
-110
-99
-118
-143
-121
-108
-133
-119
-98
-125
-137
-236
-273
529
1867
1837
173
-928
-574
-86
-99
-130
-75
-83
-76
-42
-31
-22
-17
-15
3
16
24
47
65
77
108
136
143
148
152
148
145
149
158
178
197
182
128
61
16
-13
-42
-61
-61
-56
-48
-40
-40
-41
-36
-40
-60
-77
-77
-71
-85
-111
-113
-94
-85
-84
-73
-71
-98
-118
-107
-107
-115
-99
-121
-151
-147
-283
-200
913
2196
1634
-258
-1049
-491
-97
-154
-143
-100
-126
-106
-76
-84
-78
-66
-63
-42
-17
-6
12
31
35
43
72
102
115
107
94
91
91
97
124
151
127
63
7
-31
-71
-103
-109
-109
-121
-125
-120
-123
-132
-140
-147
-148
-149
-162
-180
-191
-203
-208
-191
-162
-140
-126
-120
-132
-146
-135
-127
-127
-100
-95
-124
-128
-240
-261
636
2069
2033
286
-882
-547
-73
-108
-143
-84
-101
-100
-70
-84
-90
-60
-40
-32
-20
-7
6
21
41
70
95
100
99
105
103
92
94
116
139
152
136
86
27
-20
-55
-81
-103
-118
-115
-101
-91
-86
-90
-104
-112
-110
-119
-133
-132
-124
-132
-144
-136
-111
-84
-59
-44
-50
-70
-74
-54
-51
-57
-31
-26
-61
-82
-206
-187
768
2141
1955
200
-819
-425
-22
-88
-92
-25
-54
-53
-12
-8
-3
20
30
34
39
40
50
73
87
84
93
118
126
115
107
109
115
130
152
160
137
82
17
-37
-76
-99
-111
-122
-132
-132
-126
-130
-136
-134
-135
-147
-157
-165
-182
-197
-199
-194
-187
-175
-158
-142
-130
-136
-166
-174
-149
-147
-158
-127
-124
-157
-176
-288
-135
983
2162
1522
-320
-1010
-424
-69
-156
-144
-100
-128
-103
-68
-75
-62
-46
-53
-47
-23
-7
8
30
48
61
80
100
110
106
96
94
103
119
143
162
150
105
58
17
-29
-70
-88
-93
-101
-109
-107
-101
-111
-129
-133
-134
-150
-159
-156
-164
-178
-175
-151
-120
-98
-84
-79
-98
-118
-99
-80
-88
-70
-62
-99
-105
-195
-289
412
1815
2057
541
-713
-550
-94
-89
-138
-99
-107
-98
-67
-67
-60
-41
-37
-23
4
15
20
37
61
84
106
122
132
132
127
127
133
145
167
188
184
146
90
34
-8
-30
-40
-51
-69
-82
-82
-82
-87
-89
-87
-87
-90
-94
-94
-97
-110
-115
-97
-75
-63
-50
-42
-60
-91
-93
-79
-94
-100
-80
-106
-129
-156
-327
-74
1235
2269
1296
-497
-914
-317
-77
-148
-105
-80
-110
-95
-77
-71
-53
-42
-39
-28
-17
5
35
47
52
74
97
104
106
106
98
95
102
118
141
143
101
45
4
-29
-62
-91
-111
-121
-129
-138
-141
-140
-147
-162
-171
-175
-182
-195
-207
-211
-211
-210
-193
-164
-154
-159
-162
-169
-169
-158
-155
-135
-111
-153
-177
-183
-318
-32
1250
2191
1196
-492
-830
-266
-72
-149
-107
-80
-95
-72
-68
-76
-50
-37
-43
-26
-1
2
12
43
61
74
107
138
141
133
128
122
125
147
172
166
126
79
42
10
-23
-51
-69
-75
-74
-81
-95
-100
-96
-99
-109
-105
-98
-109
-128
-137
-137
-125
-96
-64
-48
-46
-54
-70
-80
-64
-58
-72
-53
-38
-74
-84
-171
-269
402
1803
2087
571
-724
-552
-57
-46
-87
-25
-36
-47
-16
-12
-10
5
4
8
30
46
58
73
87
102
120
137
146
146
138
132
128
127
138
149
129
83
37
-2
-32
-52
-71
-89
-100
-111
-118
-116
-121
-133
-133
-133
-147
-156
-159
-177
-197
-189
-163
-137
-119
-124
-151
-170
-166
-162
-183
-183
-140
-148
-189
-175
-265
-269
587
1824
1591
-92
-1050
-638
-164
-153
-157
-97
-95
-92
-84
-94
-79
-45
-31
-29
-13
17
42
55
68
87
99
104
109
107
98
97
106
121
140
141
112
68
28
-14
-45
-61
-83
-110
-114
-108
-119
-134
-140
-146
-150
-149
-155
-168
-175
-179
-171
-141
-109
-84
-64
-67
-89
-98
-88
-83
-94
-87
-58
-69
-92
-105
-239
-133
907
2078
1627
3
-714
-309
-43
-126
-111
-62
-87
-78
-53
-52
-33
-10
-12
-3
21
32
39
64
94
113
134
158
171
177
181
175
167
182
209
205
153
85
40
20
0
-29
-55
-59
-48
-44
-42
-31
-23
-31
-39
-42
-49
-64
-85
-112
-129
-123
-104
-87
-72
-66
-77
-105
-130
-124
-110
-127
-126
-96
-109
-125
-172
-311
50
1314
2072
977
-621
-879
-318
-105
-147
-113
-98
-107
-85
-83
-85
-65
-56
-56
-43
-34
-20
14
47
62
70
84
100
108
105
99
93
92
100
109
95
50
-10
-67
-105
-125
-136
-143
-147
-154
-165
-168
-163
-168
-179
-171
-165
-181
-194
-191
-191
-194
-186
-167
-137
-112
-107
-118
-133
-144
-136
-135
-144
-129
-127
-157
-170
-269
-270
526
1759
1718
225
-778
-522
-126
-136
-162
-111
-106
-89
-57
-56
-50
-32
-25
-9
20
38
48
72
106
136
156
164
161
154
149
147
153
176
200
188
142
98
61
19
-11
-12
-7
-19
-27
-16
-4
-7
-19
-32
-40
-42
-45
-46
-45
-53
-63
-49
-17
9
22
19
-2
-32
-48
-34
-19
-29
-26
-14
-32
-41
-110
-189
363
1592
1959
691
-578
-565
-115
-62
-116
-76
-83
-110
-98
-91
-88
-75
-66
-57
-43
-33
-19
6
32
48
59
74
86
86
77
71
75
89
105
104
72
16
-40
-82
-116
-144
-153
-152
-168
-192
-199
-194
-196
-201
-204
-204
-207
-210
-208
-201
-180
-143
-119
-135
-161
-173
-181
-180
-175
-182
-171
-151
-171
-164
-197
-340
76
1414
2099
832
-804
-958
-328
-114
-144
-90
-77
-91
-59
-45
-47
-26
-6
4
21
41
58
78
101
124
138
148
161
167
159
151
149
156
174
178
134
58
-11
-59
-93
-113
-125
-140
-147
-143
-141
-145
-135
-116
-117
-142
-151
-131
-105
-75
-42
-43
-80
-113
-124
-118
-111
-111
-90
-87
-128
-136
-216
-321
317
1742
2182
804
-551
-533
-104
-99
-162
-112
-112
-119
-82
-60
-56
-56
-53
-34
-14
7
47
83
94
111
150
179
182
179
183
185
184
194
202
179
119
50
-2
-32
-52
-61
-57
-50
-45
-38
-30
-28
-35
-56
-83
-96
-92
-72
-50
-50
-79
-111
-135
-147
-145
-156
-161
-135
-141
-172
-192
-319
-207
850
2054
1594
-114
-902
-474
-138
-186
-178
-135
-156
-140
-108
-115
-118
-102
-86
-69
-53
-41
-21
9
40
62
74
80
83
90
92
87
90
104
99
59
3
-57
-107
-134
-146
-156
-155
-147
-150
-153
-146
-147
-159
-164
-170
-173
-151
-120
-123
-158
-195
-209
-193
-180
-194
-185
-148
-159
-172
-176
-270
-29
1041
1910
1185
-266
-681
-256
-74
-141
-116
-91
-110
-88
-65
-73
-75
-56
-33
-16
-8
3
27
54
77
96
115
133
146
153
158
170
188
195
178
132
70
23
-5
-32
-52
-48
-47
-64
-78
-77
-76
-83
-96
-108
-97
-58
-29
-45
-81
-101
-111
-112
-105
-115
-116
-90
-103
-139
-191
-332
-70
1138
2137
1344
-288
-764
-281
-70
-145
-111
-76
-96
-76
-52
-50
-34
-12
1
19
40
58
79
103
125
141
157
178
187
183
188
208
227
233
208
140
58
-9
-63
-109
-133
-137
-143
-160
-166
-155
-159
-188
-202
-179
-152
-138
-122
-117
-139
-169
-182
-172
-174
-193
-176
-154
-184
-185
-240
-389
144
1610
2178
681
-949
-954
-313
-165
-207
-148
-145
-161
-123
-94
-84
-77
-74
-49
-8
12
25
55
84
101
123
148
166
179
184
191
211
222
201
153
75
-23
-97
-144
-186
-201
-185
-179
-174
-157
-158
-172
-159
-143
-148
-131
-93
-86
-109
-130
-140
-128
-118
-156
-164
-97
-97
-164
-178
-274
-167
920
2196
1657
-256
-1089
-519
-92
-143
-132
-86
-112
-89
-57
-67
-54
-28
-21
-2
38
62
66
75
105
147
184
193
177
178
209
229
226
219
194
126
38
-41
-107
-150
-163
-158
-148
-149
-151
-126
-107
-128
-136
-114
-109
-105
-81
-81
-115
-143
-147
-137
-141
-148
-122
-124
-168
-162
-229
-269
517
1970
2134
421
-952
-711
-145
-129
-156
-66
-100
-138
-78
-60
-89
-69
-34
-29
-7
38
50
50
87
135
161
178
184
184
194
203
210
222
204
131
41
-38
-104
-144
-157
-162
-151
-129
-119
-117
-113
-114
-123
-130
-129
-114
-96
-102
-125
-145
-165
-181
-177
-176
-177
-162
-167
-183
-228
-353
-56
1209
2276
1440
-367
-917
-338
-69
-178
-158
-119
-147
-122
-94
-105
-88
-57
-49
-38
-17
-2
13
34
59
82
96
96
100
110
115
118
134
139
102
38
-23
-68
-100
-120
-131
-136
-134
-125
-122
-121
-111
-101
-117
-141
-144
-130
-107
-83
-81
-101
-124
-136
-131
-127
-135
-122
-119
-153
-166
-240
-264
502
1929
2168
610
-676
-486
-35
-101
-171
-101
-116
-131
-101
-106
-104
-73
-65
-60
-35
-18
-5
21
42
50
66
89
104
115
123
125
138
159
149
100
44
-7
-59
-99
-116
-118
-125
-139
-146
-141
-133
-128
-130
-145
-166
-179
-167
-127
-81
-71
-90
-109
-124
-132
-127
-135
-142
-115
-113
-143
-181
-294
-92
1047
2209
1621
-124
-810
-309
-31
-150
-139
-86
-117
-104
-70
-75
-65
-36
-22
-15
-6
9
32
56
74
93
112
132
150
154
153
169
196
200
166
104
35
-31
-86
-117
-132
-148
-161
-161
-158
-162
-159
-153
-162
-183
-191
-183
-157
-114
-85
-94
-122
-144
-147
-135
-136
-145
-125
-119
-145
-164
-262
-189
740
1978
1702
1
-900
-431
-27
-133
-158
-84
-107
-111
-77
-75
-63
-34
-27
-20
5
26
44
68
90
110
131
148
160
164
166
180
205
213
185
128
57
-8
-57
-90
-113
-120
-119
-124
-131
-130
-123
-119
-132
-154
-154
-131
-105
-84
-77
-92
-118
-139
-137
-127
-140
-136
-99
-113
-144
-193
-340
-19
1290
2225
1219
-467
-789
-218
-51
-156
-114
-83
-105
-80
-66
-70
-40
-16
-14
-1
21
38
62
88
110
133
146
154
168
174
173
194
223
210
149
82
21
-40
-84
-99
-108
-126
-136
-139
-147
-152
-156
-175
-196
-199
-182
-150
-114
-110
-138
-164
-179
-181
-174
-182
-178
-153
-173
-192
-209
-388
-250
941
2087
1345
-421
-958
-385
-111
-200
-179
-147
-170
-142
-114
-115
-97
-74
-63
-42
-19
-4
15
42
67
89
110
130
142
145
150
165
184
185
149
81
8
-48
-82
-99
-110
-113
-109
-108
-113
-112
-112
-124
-136
-129
-107
-73
-34
-19
-44
-79
-95
-86
-75
-85
-76
-51
-69
-80
-112
-276
4
1279
2249
1335
-306
-668
-137
37
-54
-12
20
-9
11
47
52
