# session 35
-41
-49
-24
-17
-87
-178
-201
-187
-191
-192
-180
-181
-189
-188
-186
-186
-183
-188
-189
-165
-122
-88
-71
-73
-97
-120
-123
-123
-128
-115
-106
-123
-111
-93
-122
-122
-201
-361
282
1974
2699
1148
-665
-798
-199
-88
-169
-123
-119
-132
-101
-97
-99
-74
-61
-59
-42
-25
-16
-1
18
37
58
84
113
143
181
222
249
264
284
309
315
288
233
156
71
-8
-70
-114
-137
-149
-157
-160
-152
-145
-146
-148
-147
-139
-128
-125
-130
-131
-129
-123
-114
-116
-127
-127
-119
-122
-126
-120
-116
-116
-109
-110
-131
-138
-103
-54
-26
-17
-30
-64
-83
-79
-85
-88
-78
-88
-90
-60
-73
-107
-158
-326
-22
1450
2750
1878
-137
-821
-293
-63
-193
-171
-129
-164
-154
-132
-133
-116
-101
-102
-91
-77
-70
-53
-27
-7
8
24
52
87
118
149
186
214
231
256
284
283
236
160
80
2
-67
-113
-138
-156
-162
-159
-159
-161
-155
-147
-142
-133
-132
-141
-139
-127
-129
-142
-141
-136
-139
-141
-138
-139
-142
-131
-102
-72
-46
-26
-39
-84
-110
-97
-96
-107
-98
-102
-112
-80
-81
-119
-110
-251
-300
761
2434
2344
297
-1040
-679
-146
-138
-142
-79
-97
-93
-65
-72
-61
-33
-31
-30
-11
0
8
32
60
80
102
127
151
180
221
260
288
308
329
345
336
283
198
106
18
-64
-126
-164
-184
-196
-202
-200
-189
-179
-177
-170
-155
-147
-147
-142
-135
-135
-140
-139
-134
-136
-144
-145
-141
-141
-142
-139
-135
-133
-134
-131
-134
-151
-150
-111
-66
-43
-38
-59
-88
-93
-88
-96
-89
-80
-92
-81
-75
-107
-124
-242
-257
748
2473
2678
814
-670
-509
-67
-140
-201
-133
-153
-162
-124
-130
-139
-115
-97
-91
-83
-71
-51
-33
-20
1
29
46
63
99
141
167
184
206
231
253
261
234
177
111
41
-29
-79
-113
-141
-154
-149
-139
-134
-133
-134
-133
-131
-128
-124
-123
-128
-129
-127
-131
-131
-127
-125
-123
-118
-120
-122
-113
-105
-112
-121
-125
-128
-114
-72
-30
-21
-45
-75
-84
-76
-81
-88
-84
-86
-74
-53
-83
-106
-154
-317
95
1665
2810
1706
-264
-755
-206
-51
-177
-136
-112
-147
-119
-101
-117
-101
-77
-74
-66
-53
-44
-26
-4
13
29
49
72
102
133
159
185
211
232
250
263
249
199
132
64
-4
-68
-113
-138
-149
-154
-152
-145
-138
-137
-138
-138
-134
-133
-137
-140
-141
-141
-138
-135
-134
-134
-137
-139
-139
-137
-133
-127
-121
-121
-120
-120
-131
-135
-103
-51
-16
-15
-45
-84
-95
-85
-87
-87
-85
-103
-97
-68
-94
-111
-169
-342
118
1684
2638
1379
-463
-772
-213
-77
-169
-133
-130
-147
-107
-96
-108
-91
-76
-77
-60
-33
-19
-12
4
28
51
78
106
127
152
192
229
247
270
304
315
289
245
186
110
29
-41
-90
-118
-137
-144
-129
-116
-127
-137
-122
-103
-100
-107
-120
-128
-126
-123
-123
-124
-129
-131
-123
-119
-127
-132
-134
-141
-137
-109
-80
-59
-43
-44
-76
-108
-113
-112
-118
-115
-116
-127
-106
-94
-130
-119
-198
-362
312
1981
2542
863
-864
-858
-227
-110
-158
-104
-108
-121
-89
-83
-83
-65
-57
-49
-31
-21
-11
10
29
48
74
98
120
152
191
223
249
274
298
319
325
293
223
138
57
-19
-81
-122
-144
-155
-157
-151
-148
-151
-147
-135
-127
-128
-130
-132
-135
-139
-141
-138
-133
-132
-135
-137
-135
-132
-129
-127
-126
-123
-120
-118
-115
-125
-142
-134
-93
-51
-27
-21
-40
-73
-87
-89
-94
-81
-69
-83
-74
-61
-94
-111
-211
-335
407
2136
2774
1159
-581
-644
-105
-89
-190
-129
-127
-147
-117
-112
-113
-87
-75
-75
-63
-49
-40
-28
-13
7
33
58
83
108
132
154
177
201
218
232
246
234
181
114
53
-12
-70
-104
-123
-138
-142
-135
-129
-128
-127
-126
-126
-127
-127
-123
-122
-124
-125
-126
-129
-131
-129
-128
-125
-120
-120
-120
-116
-113
-112
-109
-109
-119
-125
-101
-55
-19
-10
-30
-67
-86
-83
-84
-79
-70
-85
-84
-57
-79
-102
-158
-329
90
1646
2705
1531
-387
-785
-205
-50
-168
-130
-112
-142
-113
-91
-96
-82
-73
-72
-56
-41
-35
-18
3
21
45
70
88
107
138
169
190
206
220
239
257
249
204
139
72
3
-60
-103
-128
-143
-145
-140
-137
-140
-139
-132
-125
-121
-119
-121
-129
-133
-129
-125
-124
-124
-124
-123
-123
-121
-119
-118
-117
-111
-104
-104
-106
-102
-99
-113
-125
-94
-33
5
0
-30
-61
-73
-75
-80
-75
-71
-80
-65
-54
-90
-91
-162
-322
256
1837
2534
1088
-604
-714
-154
-70
-155
-110
-109
-127
-93
-82
-90
-76
-62
-53
-42
-33
-22
-5
15
35
55
75
98
125
154
180
199
215
234
252
258
247
214
153
77
8
-51
-98
-129
-141
-139
-135
-136
-136
-128
-117
-114
-114
-111
-115
-122
-121
-117
-119
-123
-123
-122
-120
-119
-120
-120
-118
-115
-110
-105
-105
-106
-104
-110
-126
-125
-86
-32
2
-2
-36
-67
-76
-81
-88
-78
-76
-93
-74
-59
-91
-96
-186
-310
388
1953
2405
827
-701
-653
-124
-86
-152
-103
-111
-119
-87
-91
-98
-73
-57
-52
-40
-29
-17
1
21
41
64
89
118
146
164
180
204
225
239
252
257
237
191
131
69
9
-46
-91
-123
-144
-149
-140
-130
-125
-122
-120
-122
-120
-118
-123
-126
-122
-119
-123
-125
-129
-130
-124
-121
-129
-134
-128
-121
-117
-113
-114
-127
-133
-104
-51
-14
-9
-32
-66
-82
-85
-97
-98
-86
-98
-95
-67
-94
-111
-132
-318
-56
1351
2488
1491
-427
-937
-345
-77
-141
-107
-87
-118
-99
-74
-69
-53
-42
-41
-32
-18
-2
18
35
51
70
96
125
154
178
201
226
249
266
279
295
297
255
174
91
23
-39
-94
-131
-152
-162
-162
-151
-141
-136
-134
-131
-128
-123
-122
-124
-126
-124
-124
-128
-128
-126
-127
-130
-130
-128
-126
-131
-142
-136
-97
-50
-27
-34
-68
-101
-106
-102
-108
-102
-96
-106
-90
-86
-120
-110
-190
-327
340
1875
2316
752
-759
-703
-155
-91
-149
-101
-110
-126
-93
-79
-78
-66
-61
-47
-25
-18
-14
3
25
46
70
92
115
146
175
198
222
244
260
277
285
258
196
126
58
-10
-70
-112
-138
-152
-158
-158
-153
-146
-145
-145
-136
-127
-127
-129
-128
-130
-131
-129
-127
-127
-126
-127
-130
-132
-137
-143
-130
-88
-40
-18
-38
-82
-108
-105
-104
-108
-97
-98
-104
-82
-94
-124
-122
-253
-215
852
2286
2012
169
-855
-464
-68
-126
-143
-97
-122
-120
-93
-93
-81
-61
-62
-60
-43
-25
-9
7
23
45
70
93
118
145
170
196
225
243
249
258
260
226
160
92
24
-45
-99
-130
-147
-154
-149
-145
-145
-141
-133
-127
-127
-129
-133
-135
-128
-122
-129
-137
-131
-123
-122
-128
-141
-147
-120
-72
-37
-29
-50
-93
-115
-110
-112
-114
-103
-108
-109
-86
-102
-118
-138
-301
-73
1234
2407
1602
-239
-846
-324
-63
-151
-134
-104
-133
-116
-91
-94
-84
-69
-66
-53
-35
-29
-16
8
26
40
66
98
119
140
172
203
221
234
251
263
252
210
142
65
-7
-67
-110
-138
-153
-155
-147
-143
-146
-142
-134
-133
-135
-132
-131
-132
-128
-123
-130
-139
-135
-129
-139
-154
-144
-105
-58
-29
-37
-80
-116
-118
-115
-118
-107
-105
-115
-91
-89
-120
-119
-234
-259
669
2154
2150
408
-796
-529
-88
-115
-153
-106
-123
-124
-96
-96
-91
-69
-64
-60
-40
-25
-18
-6
15
37
58
84
115
142
162
188
215
232
247
264
260
224
165
92
18
-44
-89
-124
-148
-157
-151
-140
-137
-137
-133
-127
-123
-123
-121
-118
-120
-122
-118
-117
-121
-122
-120
-121
-124
-121
-113
-113
-124
-127
-110
-80
-40
-8
-17
-62
-89
-87
-90
-94
-84
-90
-99
-74
-80
-111
-116
-255
-212
870
2312
2039
207
-807
-428
-54
-121
-137
-93
-121
-116
-84
-88
-85
-66
-60
-52
-38
-25
-9
9
26
45
69
93
118
147
174
196
214
229
249
272
271
232
174
111
40
-26
-70
-102
-129
-141
-142
-138
-132
-126
-124
-118
-114
-117
-118
-110
-104
-109
-115
-116
-114
-114
-117
-119
-118
-118
-117
-114
-114
-114
-109
-103
-105
-105
-98
-92
-89
-82
-80
-82
-85
-90
-100
-102
-79
-36
5
18
-7
-47
-62
-62
-72
-70
-64
-76
-64
-49
-83
-99
-186
-305
393
2045
2651
1079
-608
-664
-125
-82
-167
-118
-121
-136
-104
-100
-102
-77
-67
-68
-56
-37
-22
-12
0
24
54
79
100
128
157
185
210
230
247
265
278
271
231
164
90
23
-42
-99
-129
-139
-146
-151
-148
-141
-136
-131
-125
-119
-118
-123
-124
-119
-114
-112
-111
-117
-125
-124
-122
-129
-133
-125
-122
-127
-127
-117
-110
-110
-113
-113
-109
-105
-101
-95
-90
-89
-89
-101
-114
-93
-42
-1
17
7
-29
-59
-59
-63
-71
-62
-62
-63
-44
-62
-92
-116
-265
-72
1244
2630
2023
65
-777
-314
-31
-142
-137
-98
-131
-116
-88
-95
-82
-66
-66
-53
-34
-30
-18
6
20
36
66
95
114
136
165
195
222
245
257
265
270
249
190
117
49
-16
-72
-108
-128
-142
-152
-154
-149
-142
-134
-126
-122
-123
-123
-118
-111
-110
-110
-107
-111
-119
-117
-108
-110
-120
-119
-109
-107
-111
-110
-106
-103
-97
-94
-96
-95
-87
-82
-82
-84
-82
-79
-74
-70
-71
-76
-74
-67
-67
-68
-64
-68
-81
-77
-43
-1
27
27
-4
-34
-43
-52
-59
-42
-41
-62
-41
-28
-66
-83
-188
-212
722
2348
2548
793
-616
-476
-51
-105
-167
-113
-128
-134
-101
-96
-92
-76
-74
-70
-52
-43
-37
-18
4
24
46
68
91
115
139
162
189
214
231
247
266
264
219
152
90
27
-44
-98
-124
-140
-152
-151
-145
-147
-146
-136
-134
-138
-131
-121
-121
-122
-120
-119
-119
-120
-127
-133
-127
-121
-123
-122
-118
-120
-125
-125
-119
-114
-113
-114
-108
-97
-95
-98
-95
-90
-87
-85
-87
-90
-88
-92
-101
-85
-44
-11
8
18
-1
-41
-63
-65
-66
-55
-50
-68
-59
-40
-73
-87
-152
-273
333
1919
2644
1237
-472
-641
-122
-61
-160
-112
-105
-129
-99
-83
-86
-76
-73
-67
-46
-31
-22
0
25
37
53
81
108
132
162
194
226
260
280
285
295
294
250
176
103
33
-36
-92
-128
-149
-156
-154
-154
-154
-148
-142
-139
-133
-129
-130
-131
-128
-127
-126
-125
-128
-129
-128
-128
-128
-124
-124
-128
-127
-122
-119
-117
-114
-113
-115
-109
-99
-98
-98
-89
-86
-95
-96
-96
-106
-95
-52
-20
-8
9
7
-32
-63
-66
-73
-74
-57
-64
-73
-52
-67
-95
-109
-268
-120
1162
2558
1971
7
-847
-369
-48
-135
-134
-98
-126
-109
-81
-85
-76
-60
-56
-46
-34
-22
-4
12
25
45
73
101
129
158
187
221
254
273
283
299
308
278
210
131
55
-14
-70
-111
-139
-152
-156
-156
-151
-142
-139
-138
-134
-128
-124
-119
-117
-118
-116
-111
-113
-118
-116
-113
-115
-118
-120
-118
-113
-110
-108
-105
-104
-105
-101
-95
-94
-93
-90
-88
-90
-96
-100
-85
-45
-10
7
12
-5
-44
-65
-60
-63
-66
-61
-70
-64
-47
-76
-88
-131
-278
151
1637
2601
1450
-365
-741
-205
-53
-151
-116
-102
-128
-99
-80
-89
-78
-63
-58
-46
-35
-29
-11
15
33
46
69
97
123
153
189
219
239
259
281
295
287
243
171
95
21
-49
-101
-134
-157
-169
-169
-167
-168
-167
-162
-158
-154
-149
-146
-143
-140
-140
-142
-143
-143
-144
-145
-141
-137
-137
-139
-142
-144
-145
-144
-138
-130
-125
-127
-127
-120
-115
-127
-141
-127
-88
-56
-33
-11
-13
-52
-83
-86
-91
-96
-84
-87
-93
-70
-80
-106
-126
-274
-97
1171
2496
1878
-30
-826
-348
-48
-145
-145
-106
-129
-114
-92
-97
-77
-53
-60
-57
-32
-14
-5
12
36
59
81
106
136
170
203
233
264
289
305
322
330
299
228
153
83
9
-57
-94
-112
-121
-124
-123
-120
-116
-111
-105
-98
-92
-90
-90
-88
-84
-81
-83
-85
-82
-80
-85
-87
-81
-76
-75
-74
-70
-65
-63
-64
-62
-56
-52
-49
-47
-59
-68
-44
0
27
40
47
25
-12
-27
-30
-34
-25
-27
-45
-26
-15
-54
-52
-136
-253
491
2103
2498
793
-782
-692
-125
-69
-120
-71
-88
-98
-64
-64
-71
-56
-47
-42
-29
-21
-12
1
18
39
62
83
108
137
163
189
219
242
260
281
289
265
205
122
36
-43
-115
-175
-209
-225
-233
-235
-231
-232
-233
-231
-229
-230
-231
-230
-229
-230
-231
-232
-235
-239
-241
-243
-248
-250
-243
-238
-243
-247
-245
-244
-243
-238
-232
-232
-233
-234
-247
-260
-240
-192
-152
-127
-118
-144
-181
-188
-188
-199
-190
-178
-188
-175
-169
-198
-194
-281
-352
457
2045
2375
714
-756
-655
-156
-149
-212
-155
-157
-158
-117
-107
-105
-85
-71
-57
-32
-12
6
27
52
80
109
137
172
213
250
283
320
356
383
406
421
410
365
302
236
171
111
63
38
34
41
46
52
61
73
82
90
100
109
112
115
121
125
127
132
135
132
133
138
135
126
121
125
134
140
138
136
139
142
140
125
99
97
138
179
189
181
153
111
91
87
69
60
52
23
20
27
-17
-41
-122
-272
282
1797
2475
1074
-607
-772
-256
-185
-296
-289
-310
-337
-323
-333
-352
-356
-369
-381
-386
-397
-406
-405
-407
-409
-408
-410
-406
-389
-369
-353
-344
-345
-343
-330
-327
-354
