# session 15
-36
-56
26
-47
-382
-656
-686
-665
-705
-729
-725
-720
-697
-665
-643
-622
-598
-578
-558
-537
-516
-495
-484
-484
-471
-435
-402
-375
-335
-317
-333
-321
-283
-283
-282
-259
-261
-239
-309
-520
-84
1316
1925
515
-1103
-1125
-407
-139
-124
-62
-49
-41
9
25
27
64
109
148
205
274
341
391
415
423
422
399
342
271
208
154
100
48
12
4
18
34
39
43
48
48
40
24
5
-13
-24
-22
-5
17
35
33
3
-20
-16
-19
-16
11
1
-29
-91
-255
1
1226
2196
1267
-491
-908
-267
-6
-114
-76
-26
-56
-46
-28
-27
6
39
52
80
128
172
207
225
223
213
202
176
123
63
18
-23
-67
-87
-79
-80
-97
-102
-94
-87
-91
-115
-142
-143
-134
-141
-150
-135
-104
-92
-122
-158
-160
-158
-155
-126
-139
-176
-214
-397
-330
758
1957
1336
-493
-1142
-492
-108
-208
-194
-129
-161
-151
-106
-98
-87
-55
-22
15
60
115
166
192
195
190
179
151
100
37
-15
-54
-96
-130
-140
-137
-129
-116
-102
-98
-103
-111
-116
-128
-143
-146
-133
-114
-90
-68
-74
-110
-131
-131
-135
-115
-92
-118
-136
-201
-379
-27
1250
1975
820
-732
-837
-200
-46
-130
-63
-37
-66
-27
8
-1
8
42
75
110
158
205
233
246
255
250
223
180
122
64
22
-13
-55
-89
-93
-86
-85
-80
-61
-51
-63
-70
-67
-83
-107
-96
-74
-72
-64
-44
-55
-81
-78
-83
-110
-99
-77
-106
-126
-221
-422
-49
1187
1794
675
-681
-734
-215
-107
-162
-109
-98
-108
-72
-58
-58
-27
9
36
74
125
178
216
232
234
223
197
159
113
60
9
-30
-64
-93
-99
-82
-68
-68
-68
-65
-73
-88
-93
-104
-130
-140
-125
-107
-93
-72
-65
-89
-112
-109
-113
-118
-96
-101
-122
-142
-351
-441
467
1793
1560
-136
-1034
-572
-126
-149
-148
-88
-98
-79
-43
-47
-39
1
36
72
123
176
225
265
287
289
274
238
179
116
62
11
-42
-89
-112
-108
-98
-92
-83
-76
-82
-91
-88
-92
-116
-136
-135
-124
-112
-94
-81
-98
-122
-119
-116
-130
-120
-115
-137
-147
-297
-474
185
1605
1871
323
-960
-730
-179
-147
-185
-113
-122
-133
-84
-68
-69
-38
1
32
73
122
175
222
242
236
225
202
152
94
48
4
-44
-85
-107
-113
-105
-88
-74
-70
-73
-77
-80
-83
-98
-120
-115
-74
-37
-28
-46
-82
-95
-81
-83
-81
-64
-76
-103
-224
-400
72
1388
1954
729
-663
-691
-178
-103
-164
-103
-88
-99
-73
-66
-61
-33
-8
24
71
114
154
199
227
225
206
180
141
89
36
-7
-43
-79
-109
-122
-111
-90
-82
-84
-73
-52
-45
-55
-76
-103
-119
-99
-60
-39
-38
-40
-56
-67
-67
-94
-109
-74
-89
-141
-184
-363
-260
827
1939
1359
-210
-751
-312
-119
-222
-194
-157
-195
-147
-42
-54
-138
-108
4
49
58
98
128
128
127
151
177
129
35
2
-7
-67
-128
-144
-140
-130
-116
-109
-99
-78
-72
-91
-100
-86
-91
-121
-128
-95
-63
-46
-30
-31
-68
-94
-75
-56
-56
-61
-80
-88
-153
-363
-179
925
1824
1058
-434
-798
-289
-93
-170
-112
-71
-113
-93
-46
-42
-26
10
31
54
97
136
155
175
204
219
199
156
109
68
28
-14
-55
-85
-92
-81
-69
-62
-58
-52
-52
-62
-70
-72
-87
-105
-98
-75
-63
-56
-50
-70
-102
-105
-96
-92
-77
-91
-115
-124
-305
-406
395
1630
1468
-93
-978
-576
-124
-113
-125
-88
-93
-73
-42
-35
-12
22
46
86
146
209
266
309
332
336
324
290
227
147
79
26
-30
-87
-115
-111
-96
-86
-83
-84
-81
-76
-77
-83
-91
-112
-138
-145
-128
-110
-96
-79
-81
-108
-124
-124
-128
-112
-100
-130
-137
-235
-464
-53
1334
2007
703
-888
-964
-328
-154
-203
-132
-100
-113
-86
-69
-66
-39
-11
13
70
142
187
210
234
246
241
221
183
129
75
22
-31
-72
-90
-100
-108
-106
-98
-91
-80
-68
-67
-77
-87
-96
-94
-83
-74
-57
-37
-52
-88
-99
-105
-110
-89
-88
-117
-178
-370
-267
839
2048
1516
-201
-865
-344
-70
-201
-185
-116
-138
-125
-94
-98
-90
-66
-46
-12
30
66
101
128
135
130
120
95
56
18
-12
-42
-68
-91
-118
-132
-116
-99
-103
-104
-89
-77
-73
-74
-81
-91
-94
-83
-60
-43
-33
-32
-50
-64
-62
-72
-78
-64
-81
-108
-171
-370
-175
1032
2090
1292
-423
-900
-320
-73
-181
-147
-92
-118
-100
-67
-67
-53
-23
5
41
87
141
193
220
225
228
219
184
131
73
20
-24
-60
-86
-101
-106
-100
-83
-73
-73
-67
-56
-58
-70
-80
-84
-95
-107
-98
-73
-59
-48
-42
-67
-89
-71
-67
-81
-65
-70
-99
-142
-330
-292
696
1846
1392
-222
-894
-408
-80
-155
-152
-100
-120
-111
-75
-64
-46
-14
12
37
77
128
177
203
207
205
198
175
128
70
23
-12
-52
-90
-107
-109
-103
-89
-79
-80
-77
-62
-53
-61
-75
-83
-88
-105
-130
-138
-118
-92
-73
-58
-58
-89
-109
-91
-85
-95
-77
-83
-117
-135
-306
-380
482
1780
1592
-79
-1027
-606
-147
-154
-156
-97
-110
-103
-63
-57
-53
-24
12
48
98
163
224
263
285
294
286
261
211
141
83
37
-17
-69
-96
-105
-113
-115
-99
-76
-69
-71
-65
-62
-69
-75
-73
-70
-86
-118
-131
-113
-90
-75
-58
-52
-76
-92
-80
-89
-104
-78
-84
-110
-109
-292
-347
628
1928
1501
-351
-1230
-696
-200
-161
-124
-74
-91
-73
-42
-40
-20
18
52
92
139
187
244
301
327
324
314
289
225
147
84
23
-38
-77
-102
-125
-132
-121
-110
-101
-92
-84
-79
-80
-81
-84
-100
-124
-138
-141
-138
-123
-93
-73
-91
-122
-118
-109
-125
-118
-104
-123
-132
-252
-388
287
1726
2019
434
-938
-750
-181
-138
-189
-124
-122
-121
-79
-74
-76
-50
-22
17
72
122
174
227
253
254
248
228
178
111
54
16
-21
-70
-109
-123
-126
-125
-106
-88
-87
-81
-56
-44
-59
-80
-92
-99
-114
-128
-117
-85
-62
-61
-71
-91
-106
-108
-105
-91
-80
-101
-117
-188
-331
62
1348
2100
955
-687
-892
-264
-105
-213
-150
-111
-139
-111
-90
-93
-59
-24
-10
26
80
124
163
201
220
219
197
154
97
45
5
-28
-58
-86
-108
-121
-121
-115
-106
-91
-77
-74
-73
-72
-81
-98
-113
-120
-107
-78
-57
-53
-60
-75
-81
-78
-93
-102
-83
-81
-103
-192
-360
-37
1185
1995
970
-650
-894
-249
-55
-174
-126
-73
-91
-71
-54
-54
-27
-3
17
65
116
158
200
223
225
230
224
182
124
82
44
-9
-53
-65
-73
-93
-94
-74
-65
-72
-74
-69
-64
-64
-73
-95
-112
-107
-86
-64
-41
-27
-46
-85
-92
-80
-88
-90
-85
-98
-102
-223
-404
99
1337
1643
277
-934
-722
-155
-115
-180
-106
-89
-104
-74
-57
-53
-29
-1
23
61
109
153
192
218
225
224
219
186
126
63
9
-29
-51
-78
-108
-108
-84
-73
-73
-71
-71
-77
-77
-69
-67
-79
-102
-119
-116
-98
-79
-60
-58
-81
-88
-82
-96
-89
-68
-96
-94
-138
-361
-101
1106
1754
503
-1102
-1198
-464
-132
-101
-47
-37
-39
-2
10
14
51
84
109
157
221
284
336
370
386
400
391
330
246
178
114
40
-21
-61
-85
-91
-80
-65
-61
-62
-62
-65
-71
-77
-90
-114
-133
-133
-119
-105
-94
-80
-85
-111
-120
-117
-131
-120
-97
-123
-137
-215
-433
-102
1168
1841
629
-911
-967
-283
-85
-159
-115
-87
-100
-75
-53
-45
-25
-3
25
64
100
148
211
248
244
239
236
199
138
88
47
-5
-49
-74
-93
-106
-105
-97
-85
-74
-74
-84
-88
-91
-102
-115
-112
-92
-68
-55
-57
-76
-96
-106
-123
-132
-102
-94
-129
-166
-340
-456
284
1593
1645
133
-901
-579
-126
-158
-189
-118
-128
-133
-91
-77
-73
-48
-18
20
65
105
156
212
240
243
251
242
186
113
56
10
-28
-59
-81
-84
-75
-78
-81
-67
-54
-49
-39
-37
-47
-51
-57
-72
-75
-62
-52
-39
-23
-30
-58
-65
-67
-83
-65
-46
-86
-92
-155
-398
-97
1204
1915
675
-931
-1034
-351
-108
-137
-84
-64
-79
-61
-44
-28
-4
15
49
96
139
195
258
289
291
293
281
233
162
103
61
20
-26
-64
-88
-100
-99
-83
-64
-60
-67
-70
-65
-66
-80
-98
-100
-85
-67
-51
-50
-76
-97
-87
-87
-108
-96
-78
-100
-139
-286
-353
378
1656
1737
248
-816
-507
-62
-140
-196
-111
-123
-145
-111
-99
-94
-73
-61
-42
-3
39
80
112
121
116
112
97
64
25
-8
-36
-67
-94
-108
-118
-126
-125
-118
-108
-89
-74
-81
-90
-82
-91
-121
-129
-104
-73
-51
-36
-44
-78
-102
-89
-80
-88
-81
-87
-110
-145
-328
-358
503
1672
1403
-123
-874
-437
-75
-131
-137
-94
-115
-100
-62
-61
-51
-21
0
29
77
126
169
202
221
226
224
213
174
112
55
15
-18
-46
-69
-87
-87
-71
-59
-58
-55
-42
-34
-40
-49
-47
-51
-68
-72
-51
-31
-18
-5
-10
-42
-61
-57
-65
-73
-65
-79
-80
-140
-376
-214
920
1821
953
-636
-980
-370
-77
-119
-86
-57
-68
-30
-3
-16
-5
30
57
93
145
197
246
290
315
318
304
265
198
129
78
31
-22
-65
-89
-104
-106
-93
-81
-75
-64
-53
-58
-68
-69
-72
-89
-120
-140
-123
-80
-55
-60
-82
-104
-110
-110
-125
-114
-85
-100
-116
-207
-458
-210
1020
1825
780
-789
-990
-349
-109
-166
-130
-111
-126
-90
-74
-87
-59
-17
0
30
88
141
181
217
240
241
230
199
139
74
28
-13
-62
-103
-122
-129
-133
-127
-112
-102
-95
-86
-77
-75
-87
-108
-125
-118
-89
-61
-44
-35
-45
-75
-89
-88
-94
-82
-75
-102
-138
-305
-450
210
1522
1715
291
-822
-588
-121
-120
-161
-99
-101
-103
-64
-53
-54
-34
0
40
80
122
173
220
238
239
240
223
172
110
62
17
-25
-52
-75
-103
-115
-105
-90
-82
-72
-55
-44
-49
-51
-48
-67
-94
-94
-73
-51
-26
-7
-15
-47
-68
-67
-74
-74
-55
-73
-106
-159
-380
-352
678
1874
1424
-217
-925
-457
-110
-156
-148
-101
-109
-91
-62
-59
-38
-7
10
38
89
150
208
249
269
280
278
245
179
102
38
-7
-46
-79
-102
-121
-134
-129
-110
-97
-91
-81
-69
-66
-69
-67
-70
-97
-127
-122
-90
-64
-51
-48
-71
-99
-94
-94
-104
-82
-77
-108
-137
-321
-452
324
1678
1698
113
-972
-663
-174
-145
-162
-111
-118
-109
-74
-73
-63
-26
-10
5
53
117
171
224
272
289
279
253
199
123
61
12
-40
-80
-106
-129
-144
-142
-136
-129
-112
-88
-77
-82
-80
-67
-75
-104
-116
-105
-89
-63
-34
-33
-64
-86
-79
-80
-93
-81
-74
-91
-120
-294
-416
315
1676
1848
371
-771
-549
-113
-149
-194
-124
-133
-140
-99
-93
-95
-58
-21
6
41
82
129
180
213
222
222
206
161
103
52
11
-25
-53
-77
-105
-123
-119
-109
-103
-89
-75
-73
-62
-46
-57
-81
-86
-86
-96
-96
-79
-55
-28
-17
-36
-66
-73
-69
-76
-68
-56
-82
-98
-171
-391
-161
1026
1918
1080
-415
-759
-287
-109
-167
-127
-105
-126
-97
-74
-79
-64
-35
-7
35
84
133
186
231
250
250
244
218
161
92
35
-12
-53
-85
-103
-115
-124
-126
-116
-99
-92
-87
-72
-62
-66
-74
-76
-74
-76
-86
-97
-111
-131
-142
-127
-99
-80
-65
-54
-62
-81
-77
-73
-86
-76
-63
-80
-90
-217
-366
245
1597
1919
476
-858
-762
-224
-133
-166
-104
-95
-107
-80
-61
-45
-20
-1
31
86
137
189
253
298
308
309
305
261
182
113
66
19
-33
-82
-116
-130
-136
-142
-134
-113
-102
-97
-84
-73
-80
-86
-83
-89
-101
-102
-105
-125
-150
-162
-145
-103
-74
-79
-92
-101
-100
-95
-103
-95
-69
-85
-106
-149
-327
-135
1045
2075
1280
-432
-943
-384
-99
-173
-152
-112
-126
-105
-78
-71
-46
-18
1
35
81
126
179
232
257
263
268
247
181
109
61
15
-41
-74
-82
-94
-117
-132
-123
-101
-94
-99
-86
-66
-64
-68
-60
-58
-79
-107
-119
-115
-109
-98
-69
-40
-39
-60
-75
-76
-84
-86
-61
-57
-89
-108
-241
-366
283
1617
1880
438
-814
-658
-150
-123
-189
-134
-122
-119
-85
-74
-60
-34
-21
0
44
89
142
197
228
243
258
243
186
125
77
17
-44
-76
-89
-111
-131
-137
-134
-123
-108
-93
-76
-63
-67
-72
-66
-68
-81
-80
-70
-85
-110
-115
-110
-98
-58
-12
-11
-48
-86
-92
-66
-47
-47
-61
-88
-93
-168
-305
143
1362
1871
709
-608
-666
-208
-121
-164
-125
-122
-118
-93
-92
-80
-53
-39
-4
45
68
93
152
206
224
224
217
191
142
76
18
-19
-50
-87
-110
-115
-126
-137
-118
-89
-83
-83
-71
-65
-66
-64
-67
-74
-74
-73
-82
-94
-100
-114
-129
-115
-77
-47
-30
-24
-40
-59
-53
-54
-70
-60
-56
-73
-72
-183
-277
347
1519
1651
316
-772
-635
-190
-123
-156
-124
-117
-110
-83
-73
-61
-32
-5
22
58
107
172
234
272
294
311
309
271
208
137
71
16
-32
-77
-111
-123
-119
-114
-111
-98
-73
-57
-53
-50
-52
-59
-59
-58
-66
-81
-102
-125
-129
-108
-78
-48
-35
-59
-91
-86
-74
-88
-74
-56
-87
-88
-168
-367
81
1391
1830
376
-1122
-1056
-358
-123
-123
-80
-80
-75
-37
-31
-26
8
30
