# session 13
-79
-66
-74
14
170
232
202
156
75
-38
-136
-168
-71
77
103
42
24
29
12
-14
-33
8
48
-17
-44
-79
-294
120
1674
2451
896
-1049
-1278
-638
-385
-339
-259
-251
-248
-221
-216
-177
-111
-82
-84
-75
-28
44
81
67
52
74
114
99
-5
-111
-155
-201
-271
-269
-188
-125
-105
-98
-117
-164
-213
-247
-251
-230
-203
-153
-180
-345
-39
1201
2086
1175
-409
-772
-248
-37
-120
-125
-150
-194
-148
-107
-120
-91
-24
3
12
53
109
145
161
185
221
255
267
239
202
190
169
125
126
185
228
250
286
297
256
199
156
157
188
160
110
76
-29
207
1290
2150
1290
-371
-886
-415
-176
-231
-181
-130
-181
-209
-184
-203
-279
-316
-288
-261
-234
-170
-120
-126
-140
-111
-61
-46
-82
-126
-159
-198
-228
-228
-212
-178
-138
-161
-228
-226
-201
-284
-352
-300
-290
-307
-314
-494
-227
1241
2367
1210
-763
-1120
-433
-231
-359
-329
-285
-243
-147
-126
-152
-102
-47
-44
5
97
133
134
172
227
279
328
321
248
173
123
93
103
136
153
171
210
226
172
103
71
39
10
20
21
28
8
-220
-144
1056
2274
1470
-548
-1262
-630
-235
-288
-273
-244
-279
-269
-240
-227
-218
-213
-183
-134
-108
-80
-45
-48
-61
-34
-1
-13
-65
-116
-145
-182
-240
-262
-225
-173
-109
-57
-84
-163
-200
-197
-178
-159
-189
-224
-297
-468
-74
1399
2407
1280
-549
-903
-359
-270
-395
-308
-267
-301
-240
-175
-172
-151
-110
-102
-96
-29
70
117
122
154
223
293
320
273
206
203
224
205
200
252
295
280
239
215
208
167
101
103
170
200
179
19
-273
43
1323
2007
830
-689
-811
-240
-102
-190
-160
-153
-191
-193
-187
-199
-219
-226
-187
-130
-125
-157
-147
-81
-33
-44
-73
-99
-145
-189
-196
-199
-218
-209
-166
-132
-105
-74
-89
-141
-154
-134
-126
-126
-146
-158
-183
-293
-47
1024
1880
1145
-319
-771
-392
-231
-316
-329
-316
-291
-218
-175
-177
-174
-155
-118
-73
-27
32
82
93
108
164
218
225
205
165
105
69
86
115
134
162
185
177
142
94
41
16
33
20
-12
28
-73
-359
108
1619
2215
666
-1040
-1062
-360
-151
-204
-175
-162
-196
-223
-215
-191
-194
-185
-134
-116
-121
-70
-21
-38
-33
37
72
36
-16
-82
-144
-144
-123
-142
-156
-132
-98
-70
-85
-137
-150
-148
-167
-145
-135
-172
-201
-354
-272
921
2343
1791
-257
-1173
-632
-233
-305
-294
-236
-273
-287
-256
-218
-157
-97
-71
-58
-20
52
121
150
164
208
259
270
229
153
93
93
117
121
152
233
301
310
274
228
204
164
105
123
181
158
81
-94
-168
619
1916
1820
115
-992
-654
-198
-239
-284
-223
-228
-253
-259
-267
-258
-229
-191
-142
-98
-92
-110
-97
-57
-52
-62
-55
-81
-151
-199
-220
-249
-272
-256
-198
-134
-110
-123
-144
-165
-187
-189
-163
-163
-187
-178
-276
-437
102
1473
2015
733
-719
-803
-318
-265
-361
-317
-317
-329
-251
-199
-205
-162
-86
-53
-37
26
115
151
134
152
223
271
267
241
196
137
99
101
129
167
210
257
261
202
142
116
103
133
177
153
139
83
-158
44
1206
1955
919
-605
-865
-361
-150
-164
-173
-236
-271
-233
-220
-232
-234
-236
-201
-102
-11
-2
-44
-57
-38
-42
-41
-17
-53
-154
-212
-228
-261
-266
-231
-195
-138
-94
-134
-183
-170
-155
-150
-142
-170
-187
-249
-423
-28
1386
2271
1162
-469
-711
-230
-200
-355
-342
-336
-325
-262
-253
-259
-206
-168
-164
-109
-16
29
26
47
106
166
208
219
191
149
115
89
75
90
121
155
212
260
238
188
177
166
155
162
119
65
14
-161
64
1332
2354
1330
-600
-1111
-493
-216
-278
-216
-164
-176
-162
-181
-208
-188
-187
-193
-138
-85
-77
-47
9
43
50
32
4
-23
-74
-134
-158
-187
-229
-196
-113
-105
-148
-165
-185
-230
-260
-241
-193
-207
-236
-233
-424
-400
853
2396
1850
-258
-1152
-557
-153
-210
-181
-170
-253
-246
-202
-223
-245
-209
-133
-57
-5
38
83
113
125
146
190
208
154
81
52
36
9
12
46
87
141
167
118
64
48
23
20
79
69
-10
-1
-57
-123
583
1885
1991
488
-678
-529
-132
-135
-196
-214
-269
-252
-168
-134
-135
-132
-129
-112
-73
-38
-27
-36
-40
-14
22
22
-24
-92
-165
-219
-257
-294
-310
-290
-262
-253
-295
-381
-379
-282
-252
-267
-240
-265
-291
-283
-353
48
1373
2213
1191
-355
-658
-247
-149
-198
-118
-69
-81
-54
3
35
23
-12
-43
-51
-27
7
23
30
37
38
43
45
19
-25
-65
-100
-131
-144
-132
-100
-71
-67
-94
-117
-123
-142
-157
-129
-129
-152
-164
-310
-208
941
2301
1900
157
-659
-281
-45
-139
-100
-47
-100
-103
-63
-59
-62
-49
-25
10
52
101
149
173
188
230
294
335
318
263
216
176
136
130
155
166
162
155
112
49
11
-31
-65
-57
-93
-144
-169
-369
-304
960
2395
1735
-360
-1202
-646
-336
-448
-422
-380
-419
-377
-315
-308
-292
-271
-262
-214
-135
-88
-68
-54
-54
-30
33
45
-41
-135
-167
-176
-202
-232
-238
-220
-201
-194
-209
-252
-287
-301
-312
-295
-269
-287
-281
-323
-419
199
1743
2296
635
-1150
-1126
-409
-290
-356
-265
-253
-269
-209
-175
-164
-118
-76
-45
1
48
82
107
123
146
188
217
202
158
116
72
24
8
27
29
14
31
55
28
-15
-41
-68
-59
-39
-84
-111
-152
-336
13
1491
2564
1508
-289
-667
-153
-57
-191
-159
-145
-169
-129
-102
-96
-61
-34
-29
5
61
92
105
137
182
222
266
281
243
211
208
171
116
112
132
143
164
152
83
29
7
-18
-10
-4
-61
-103
-225
-398
182
1614
2050
581
-836
-761
-265
-255
-316
-247
-253
-277
-245
-227
-218
-200
-187
-163
-126
-98
-66
-31
-23
-19
21
57
37
-12
-48
-70
-80
-89
-110
-117
-92
-61
-57
-85
-124
-157
-171
-157
-152
-183
-198
-278
-432
-67
1026
1489
394
-853
-867
-362
-252
-297
-252
-254
-280
-259
-247
-250
-231
-197
-162
-136
-118
-98
-85
-86
-78
-44
-2
18
6
-18
-29
-24
-19
-9
14
38
56
58
35
6
-10
-22
-17
-10
-33
-53
-186
-455
-104
1220
1932
807
-612
-680
-150
-47
-105
-49
-39
-52
-18
5
22
52
67
86
128
163
184
202
210
229
282
323
293
229
187
153
107
77
81
95
98
103
104
63
3
-19
-25
-28
-14
-35
-66
-131
-407
-333
926
2146
1286
-633
-1118
-404
-87
-162
-105
-77
-124
-93
-67
-88
-70
-33
-10
21
52
75
95
95
92
121
139
101
54
26
-26
-98
-139
-152
-158
-139
-106
-102
-137
-185
-214
-230
-236
-210
-198
-252
-297
-412
-528
152
1589
1784
8
-1399
-1018
-296
-239
-278
-195
-209
-195
-113
-106
-122
-84
-59
-46
3
52
71
91
117
137
168
193
161
73
-3
-12
0
-37
-77
-51
-15
-26
-33
-35
-81
-135
-142
-127
-127
-148
-149
-169
-332
-191
965
2173
1520
-383
-1125
-505
-77
-139
-131
-78
-105
-100
-68
-52
-29
-12
3
45
86
104
114
118
121
145
181
188
151
100
66
46
30
18
7
0
17
40
17
-40
-68
-82
-114
-120
-113
-151
-188
-301
-492
-55
1265
1860
613
-803
-776
-222
-191
-286
-209
-200
-229
-189
-164
-160
-131
-102
-83
-54
-23
3
25
43
78
146
206
211
178
149
125
94
73
79
93
100
102
84
40
5
-12
-29
-36
-47
-76
-108
-252
-390
209
1490
1740
319
-834
-558
-71
-144
-212
-126
-152
-178
-134
-136
-148
-115
-92
-95
-90
-69
-41
-33
-36
-6
47
76
76
57
15
-30
-54
-64
-77
-86
-75
-58
-67
-104
-129
-140
-151
-140
-118
-134
-146
-229
-479
-270
926
1748
699
-876
-976
-246
-57
-173
-114
-84
-125
-101
-80
-85
-56
-22
-6
26
63
81
85
90
116
168
211
203
154
106
81
61
27
5
18
39
44
29
-4
-28
-37
-66
-91
-76
-77
-99
-200
-495
-414
717
1725
910
-681
-926
-223
0
-124
-67
-22
-66
-43
-14
-23
-5
26
40
61
83
83
73
72
93
147
202
204
160
121
105
86
56
44
50
49
50
59
41
-1
-30
-53
-63
-43
-57
-82
-117
-378
-495
424
1632
1157
-542
-1119
-438
-76
-209
-204
-153
-210
-216
-180
-166
-145
-130
-125
-94
-54
-27
-10
-11
0
62
130
135
97
68
52
38
18
-6
-13
11
46
54
29
9
8
-12
-34
-19
-29
-64
-90
-326
-568
120
1414
1391
-85
-890
-431
-54
-146
-157
-101
-141
-144
-106
-103
-91
-58
-40
-31
-17
-3
6
7
14
54
113
138
112
74
50
30
6
-19
-29
-9
26
49
47
25
5
-10
-20
-11
-11
-38
-41
-181
-530
-291
958
1657
585
-734
-730
-195
-116
-184
-129
-124
-135
-97
-78
-67
-29
2
26
62
91
107
126
151
193
252
281
247
187
146
118
87
51
19
8
12
21
24
-4
-57
-93
-117
-135
-116
-122
-152
-138
-326
-612
-2
1317
1298
-381
-1404
-878
-239
-160
-142
-79
-98
-87
-46
-44
-34
2
28
53
85
110
128
137
141
172
223
227
170
106
67
39
8
-22
-36
-27
-8
7
4
-29
-62
-75
-97
-110
-90
-104
-127
-180
-468
-523
495
1628
1006
-634
-1055
-371
-48
-136
-91
-28
-60
-51
-21
-16
5
38
59
86
114
126
123
113
115
145
176
172
133
88
51
26
8
-2
5
24
41
50
41
17
3
-8
-22
-15
-20
-50
-84
-297
-547
25
1287
1441
41
-953
-624
-156
-167
-193
-128
-140
-151
-124
-113
-100
-70
-39
-7
14
28
50
57
46
67
115
125
93
61
35
17
12
-6
-31
-17
26
47
36
3
-31
-51
-70
-78
-78
-99
-114
-233
-556
-414
757
1648
809
-588
-772
-246
-116
-200
-141
-107
-138
-125
-93
-74
-56
-39
-17
6
24
37
36
37
66
107
127
122
91
45
18
8
-6
-11
9
35
54
54
27
1
-10
-29
-37
-26
-47
-67
-127
-411
-470
459
1556
1167
-190
-664
-247
-66
-171
-149
-101
-123
-116
-90
-74
-54
-40
-16
26
48
48
50
50
54
91
137
130
79
42
33
20
-9
-31
-22
8
33
39
30
9
-18
-52
-66
-51
-71
-103
-113
-344
-625
-34
1199
1261
-112
-969
-590
-159
-179
-193
-138
-163
-167
-122
-105
-92
-57
-32
-16
16
53
71
73
89
137
190
201
153
85
46
41
37
19
4
13
34
49
46
21
-1
-13
-43
-52
-24
-40
-54
-109
-438
-494
573
1631
830
-848
-1173
-425
-52
-77
-31
-2
-28
-9
10
15
46
78
98
126
156
175
186
191
208
247
274
249
179
106
57
27
-3
-31
-39
-27
-12
5
2
-32
-61
-82
-112
-111
-100
-129
-144
-285
-634
-360
1000
1734
479
-1022
-950
-253
-125
-197
-122
-116
-150
-118
-100
-100
-69
-34
-7
28
61
79
83
86
109
149
172
153
99
43
10
-7
-24
-30
-15
7
24
27
-2
-39
-59
-76
-75
-64
-88
-100
-205
-561
-462
790
1776
791
-842
-1002
-288
-93
-203
-144
-113
-150
-119
-87
-86
-59
-23
0
34
72
93
94
91
109
148
171
151
100
52
20
-2
-20
-23
-12
0
21
43
24
-16
-30
-39
-49
-31
-39
-66
-111
-402
-579
339
1680
1353
-355
-1049
-421
-17
-114
-113
-52
-78
-69
-45
-55
-40
-8
12
42
79
101
108
104
110
144
170
155
114
71
35
9
-11
-26
-20
8
42
55
32
-3
-22
-43
-60
-40
-43
-73
-102
-348
-610
56
1366
1368
-155
-1039
-561
-88
-135
-154
-91
-116
-119
-83
-76
-59
-20
2
23
58
87
94
87
89
109
127
123
92
45
7
-5
-10
-17
-9
19
49
65
51
19
-3
-24
-46
-38
-44
-69
-70
-267
-588
-106
1187
1437
38
-1020
-680
-140
-128
-172
-112
-116
-124
-92
-75
-58
-29
-2
29
62
91
118
130
136
166
197
178
124
71
27
-3
-13
-24
-38
-36
-25
-3
20
-4
-58
-82
-96
-100
-80
-100
-116
-162
-497
-599
464
1618
876
-864
-1255
-501
-119
-157
-115
-85
-106
-71
-39
-28
3
28
55
108
148
160
172
185
197
230
262
238
158
76
25
6
-2
-18
-26
-6
22
33
13
-33
-61
-64
-75
-73
-69
-112
-124
-204
-530
-389
886
1795
678
-1008
-1143
-387
-137
-195
-121
-91
-112
-70
-51
-66
-34
15
46
88
144
181
183
170
181
226
249
205
123
59
30
10
-23
-48
-36
-4
25
43
29
-15
-40
-47
-72
-80
-69
-90
-113
-245
-505
-82
1363
2041
659
-926
-884
-211
-102
-175
-109
-113
-139
-96
-78
-75
-42
-10
18
58
88
102
106
106
130
170
182
154
107
51
-2
-35
-59
-71
-51
-15
6
15
5
-31
-67
-94
-112
-103
-113
-150
-192
-411
-592
192
1633
1664
-24
-1090
-635
-135
-210
-243
-164
-192
-202
-160
-155
-143
-104
-80
-52
-6
27
35
34
46
78
113
121
94
50
14
-12
-39
-57
-43
-11
16
34
24
-22
-59
-74
-100
-110
-111
-143
-173
-341
-651
-224
1267
1956
588
-910
-794
-157
-124
-215
-125
-114
-137
-94
-80
-82
-50
-22
-1
35
63
73
79
76
76
101
125
110
65
29
11
-4
-19
-14
12
40
59
63
44
25
20
1
-11
14
-5
-56
-99
-370
-568
311
1712
1548
-76
-877
-406
-50
-120
-104
-37
-60
-56
-12
7
