# session 22
-31
-34
-21
-27
-74
-121
-132
-120
-107
-101
-100
-94
-83
-78
-75
-66
-61
-65
-66
-70
-86
-89
-66
-37
-8
18
13
-24
-52
-63
-69
-62
-64
-78
-61
-55
-94
-140
-305
-292
824
2495
2378
314
-961
-516
-43
-175
-215
-128
-163
-172
-127
-128
-126
-100
-91
-83
-63
-43
-18
12
43
82
128
171
209
240
266
287
285
244
178
110
34
-45
-105
-137
-155
-171
-183
-183
-174
-168
-167
-160
-144
-131
-126
-123
-117
-111
-107
-103
-104
-107
-110
-120
-138
-131
-99
-70
-47
-30
-43
-77
-94
-99
-101
-95
-100
-104
-78
-81
-124
-190
-352
-111
1300
2728
1989
-161
-992
-384
-68
-228
-215
-151
-189
-176
-142
-148
-134
-112
-110
-96
-72
-53
-30
3
38
79
130
179
216
242
266
288
285
243
175
103
27
-50
-110
-143
-159
-168
-173
-175
-173
-163
-152
-144
-136
-126
-116
-107
-99
-91
-88
-90
-88
-84
-89
-100
-105
-113
-124
-114
-85
-58
-30
-14
-39
-79
-92
-93
-91
-80
-86
-91
-70
-81
-112
-181
-327
102
1669
2803
1624
-453
-926
-269
-89
-242
-188
-147
-189
-161
-134
-144
-128
-106
-101
-85
-61
-40
-10
23
56
101
152
197
234
267
291
305
296
250
176
95
16
-58
-115
-147
-163
-172
-176
-179
-178
-169
-159
-152
-143
-131
-122
-116
-111
-108
-104
-100
-97
-91
-86
-92
-100
-101
-110
-125
-116
-83
-50
-22
-10
-35
-69
-80
-83
-81
-73
-83
-83
-60
-77
-109
-186
-322
198
1821
2806
1451
-560
-878
-221
-97
-241
-178
-152
-194
-165
-147
-160
-142
-122
-116
-94
-70
-56
-35
-3
29
67
117
172
217
249
276
291
276
226
158
86
8
-65
-118
-149
-163
-167
-169
-177
-181
-173
-161
-151
-140
-128
-117
-109
-102
-95
-88
-82
-80
-82
-84
-87
-90
-94
-107
-127
-123
-92
-60
-29
-11
-32
-71
-86
-85
-81
-71
-79
-85
-60
-69
-108
-164
-305
23
1490
2767
1812
-313
-980
-341
-79
-233
-202
-151
-192
-167
-131
-142
-133
-110
-102
-87
-63
-41
-13
19
52
95
146
199
243
273
297
317
312
266
194
117
36
-42
-103
-141
-161
-168
-171
-178
-181
-176
-167
-158
-149
-139
-129
-121
-112
-106
-105
-104
-99
-97
-104
-110
-116
-130
-135
-113
-83
-53
-26
-27
-65
-94
-103
-108
-99
-92
-103
-90
-78
-110
-138
-255
-265
723
2411
2529
544
-943
-637
-96
-180
-244
-156
-181
-198
-152
-148
-149
-121
-106
-96
-75
-55
-34
-2
34
75
123
172
218
260
292
315
318
284
219
139
55
-25
-91
-136
-160
-170
-175
-178
-178
-176
-172
-164
-154
-143
-133
-126
-117
-108
-104
-104
-101
-101
-102
-106
-119
-129
-114
-81
-47
-21
-23
-57
-86
-96
-100
-94
-92
-103
-87
-74
-107
-134
-249
-323
529
2246
2635
792
-860
-694
-103
-148
-244
-155
-163
-188
-145
-137
-139
-111
-97
-93
-72
-46
-23
3
35
75
123
170
215
257
290
311
314
285
225
149
69
-13
-87
-137
-160
-170
-178
-184
-184
-180
-173
-163
-150
-141
-136
-130
-124
-121
-124
-128
-132
-145
-155
-142
-114
-82
-49
-37
-61
-87
-99
-109
-108
-105
-116
-103
-88
-118
-157
-297
-355
570
2265
2487
576
-931
-640
-74
-152
-234
-148
-168
-185
-139
-136
-141
-114
-99
-92
-74
-53
-27
3
32
70
120
171
218
257
283
300
304
274
209
132
55
-22
-90
-132
-152
-162
-165
-166
-165
-162
-156
-148
-134
-119
-112
-113
-107
-101
-103
-106
-104
-112
-131
-131
-106
-74
-42
-20
-30
-61
-84
-93
-88
-79
-91
-93
-69
-86
-124
-193
-350
29
1541
2697
1596
-444
-927
-267
-71
-225
-180
-143
-189
-160
-130
-142
-127
-104
-99
-83
-56
-40
-24
8
51
92
133
181
225
257
283
305
297
247
177
102
21
-56
-109
-136
-150
-159
-163
-163
-162
-157
-147
-136
-132
-131
-127
-120
-117
-121
-124
-128
-142
-152
-135
-102
-72
-47
-42
-64
-90
-104
-109
-100
-101
-115
-99
-89
-125
-165
-318
-354
642
2306
2358
392
-972
-590
-66
-167
-226
-137
-159
-170
-126
-126
-128
-100
-85
-73
-49
-33
-20
9
48
86
125
170
215
247
274
303
311
275
207
134
55
-26
-85
-116
-138
-157
-164
-166
-166
-161
-151
-140
-127
-124
-132
-132
-119
-114
-114
-106
-112
-138
-141
-114
-84
-52
-26
-39
-69
-75
-83
-105
-104
-101
-113
-94
-85
-125
-176
-341
-323
788
2420
2271
241
-983
-536
-73
-192
-225
-140
-171
-181
-139
-137
-134
-109
-100
-91
-66
-39
-15
11
45
87
133
177
219
253
277
299
307
279
216
138
59
-16
-79
-129
-158
-167
-167
-165
-159
-152
-146
-136
-127
-122
-117
-114
-114
-111
-109
-120
-130
-116
-90
-63
-31
-24
-56
-86
-91
-94
-94
-98
-113
-99
-79
-110
-145
-281
-421
324
1992
2443
673
-965
-775
-119
-120
-211
-127
-142
-169
-116
-102
-111
-90
-76
-68
-45
-20
-1
23
54
96
149
200
238
265
295
325
328
294
237
163
73
-15
-79
-118
-141
-160
-176
-181
-171
-161
-162
-164
-153
-139
-132
-125
-118
-113
-110
-123
-141
-131
-101
-75
-46
-28
-48
-85
-106
-116
-110
-91
-100
-111
-93
-109
-144
-218
-395
-38
1428
2474
1288
-692
-1041
-300
-72
-214
-171
-126
-159
-134
-107
-109
-86
-59
-52
-40
-14
13
37
59
91
137
186
229
268
306
333
337
313
264
193
104
11
-65
-115
-139
-150
-161
-170
-170
-165
-159
-153
-142
-127
-118
-118
-120
-123
-137
-146
-134
-102
-69
-48
-47
-62
-79
-94
-103
-100
-102
-109
-88
-87
-129
-164
-309
-363
545
2077
2079
201
-1042
-603
-60
-145
-197
-112
-137
-149
-103
-93
-87
-67
-69
-65
-39
-14
8
35
66
108
154
183
213
262
309
326
311
269
202
121
44
-23
-83
-129
-146
-141
-144
-158
-160
-149
-143
-144
-143
-131
-116
-103
-103
-110
-109
-102
-109
-124
-122
-100
-72
-41
-18
-29
-61
-83
-101
-109
-98
-99
-101
-82
-94
-123
-180
-336
-26
1356
2453
1424
-524
-964
-270
-46
-200
-156
-114
-166
-141
-102
-108
-96
-75
-73
-59
-35
-16
10
48
83
114
152
196
233
260
286
301
287
239
178
108
18
-69
-118
-141
-158
-163
-158
-164
-169
-156
-140
-134
-129
-125
-124
-115
-106
-112
-119
-116
-123
-134
-120
-97
-78
-50
-32
-54
-89
-100
-100
-99
-95
-105
-102
-81
-94
-121
-217
-364
158
1662
2399
969
-800
-861
-160
-71
-206
-134
-117
-155
-118
-97
-104
-78
-56
-54
-40
-20
-5
15
42
78
127
178
214
243
271
296
307
288
238
166
85
4
-65
-112
-140
-157
-163
-158
-154
-161
-160
-145
-136
-136
-128
-118
-113
-104
-92
-96
-106
-102
-101
-118
-124
-103
-73
-42
-14
-20
-59
-88
-92
-94
-95
-101
-107
-81
-74
-115
-147
-272
-239
811
2363
2192
177
-1020
-529
-38
-170
-216
-130
-163
-166
-115
-116
-121
-97
-78
-61
-51
-49
-26
15
47
82
131
179
219
252
276
294
302
276
214
141
70
-10
-87
-134
-153
-161
-168
-170
-168
-159
-148
-144
-141
-128
-119
-130
-139
-131
-123
-128
-129
-126
-137
-147
-128
-96
-64
-35
-34
-68
-94
-98
-102
-99
-93
-100
-90
-81
-119
-147
-247
-341
406
2036
2483
741
-901
-747
-115
-128
-227
-136
-140
-170
-130
-119
-117
-84
-70
-73
-59
-36
-13
24
70
107
132
164
211
256
289
310
312
279
228
176
98
-13
-98
-133
-155
-170
-167
-165
-172
-164
-147
-141
-139
-132
-130
-132
-124
-109
-104
-107
-110
-118
-135
-135
-109
-78
-52
-31
-37
-69
-89
-98
-109
-102
-100
-115
-97
-83
-121
-162
-286
-234
837
2399
2233
220
-990
-523
-51
-181
-219
-129
-150
-141
-105
-144
-166
-129
-103
-90
-64
-38
-18
5
37
76
118
166
217
254
269
274
275
257
209
134
47
-31
-87
-120
-144
-163
-167
-156
-151
-163
-166
-152
-138
-132
-127
-114
-95
-99
-120
-119
-110
-131
-145
-112
-70
-43
-21
-19
-45
-75
-98
-109
-94
-85
-105
-100
-85
-119
-153
-272
-341
515
2189
2498
656
-892
-660
-87
-143
-227
-150
-173
-192
-138
-123
-133
-121
-104
-85
-59
-33
-9
5
21
62
117
162
202
246
284
300
292
270
224
151
67
-12
-78
-123
-150
-167
-174
-175
-171
-163
-156
-153
-146
-135
-124
-110
-104
-116
-125
-115
-113
-131
-133
-107
-74
-35
-9
-38
-89
-104
-101
-104
-96
-104
-122
-87
-68
-122
-173
-308
-298
744
2349
2236
185
-1117
-666
-114
-175
-206
-129
-162
-170
-127
-124
-114
-86
-79
-72
-52
-24
19
51
58
85
149
206
243
275
308
330
328
294
237
159
62
-21
-77
-126
-163
-172
-173
-180
-174
-166
-168
-163
-155
-152
-130
-104
-113
-130
-119
-119
-136
-127
-100
-76
-45
-31
-61
-106
-139
-141
-107
-92
-111
-100
-97
-133
-163
-309
-257
871
2362
1978
-70
-1091
-527
-83
-192
-192
-116
-154
-142
-84
-91
-108
-89
-63
-39
-19
-7
16
55
92
131
182
235
279
308
327
343
344
300
209
121
64
-3
-94
-150
-157
-161
-170
-170
-173
-171
-153
-148
-170
-194
-185
-140
-113
-130
-141
-120
-109
-118
-95
-39
-15
-36
-56
-70
-96
-101
-86
-96
-104
-98
-125
-152
-228
-303
361
1900
2429
809
-896
-849
-181
-128
-228
-138
-131
-162
-113
-101
-127
-103
-72
-74
-70
-45
-17
16
55
96
134
180
241
287
297
303
308
274
204
128
48
-35
-104
-149
-171
-176
-178
-179
-175
-179
-192
-194
-181
-172
-174
-169
-149
-136
-154
-179
-181
-172
-160
-131
-94
-87
-110
-131
-142
-142
-129
-129
-132
-101
-100
-138
-148
-285
-278
850
2540
2368
196
-1145
-682
-128
-184
-207
-128
-145
-137
-100
-107
-92
-58
-53
-44
-12
15
39
71
106
146
198
258
315
353
371
380
371
322
240
149
52
-43
-104
-141
-182
-206
-192
-184
-197
-196
-187
-190
-184
-160
-146
-150
-154
-151
-153
-159
-162
-162
-141
-93
-59
-67
-81
-84
-90
-89
-78
-84
-81
-62
-88
-109
-140
-254
185
1694
2672
1334
-773
-1152
-370
-100
-223
-171
-135
-179
-144
-106
-126
-130
-114
-106
-87
-62
-44
-15
33
73
101
145
203
260
321
367
361
306
238
173
101
18
-59
-111
-150
-186
-194
-176
-172
-182
-170
-148
-149
-153
-137
-119
-113
-111
-109
-107
-101
-97
-106
-120
-115
-86
-43
-15
-26
-59
-76
-83
-85
-75
-83
-101
-76
-71
-105
-105
-208
-142
1020
2639
2307
43
-1242
-681
-103
-187
-221
-139
-170
-173
-126
-128
-125
-97
-90
-82
-58
-40
-23
7
43
81
123
174
228
274
305
327
328
289
213
127
40
-44
-115
-162
-187
-201
-208
-211
-213
-211
-204
-199
-196
-187
-176
-168
-162
-153
-148
-148
-147
-146
-155
-163
-152
-122
-87
-57
-50
-70
-91
-100
-109
-108
-102
-112
-105
-81
-100
-115
-167
-287
254
1860
2728
1246
-785
-1045
-309
-104
-209
-152
-121
-147
-120
-103
-105
-84
-66
-56
-36
-20
1
36
71
105
154
212
264
314
359
391
400
376
318
241
155
59
-33
-97
-131
-147
-155
-160
-164
-164
-159
-156
-155
-150
-141
-132
-123
-117
-115
-112
-107
-107
-110
-113
-124
-140
-140
-121
-92
-61
-47
-67
-92
-101
-106
-101
-88
-97
-98
-78
-101
-125
-163
-291
153
1713
2756
1448
-681
-1127
-406
-134
-229
-178
-146
-175
-142
-116
-124
-109
-89
-77
-59
-39
-19
8
39
78
132
190
242
290
330
359
376
360
299
212
124
35
-50
-117
-157
-176
-185
-191
-193
-191
-190
-189
-182
-174
-169
-161
-151
-149
-149
-144
-144
-152
-158
-168
-181
-182
-165
-140
-110
-91
-103
-128
-137
-142
-144
-136
-143
-150
-129
-138
-162
-181
-305
-50
1356
2751
1952
-260
-1130
-508
-134
-255
-243
-181
-211
-192
-154
-156
-139
-109
-98
-83
-57
-31
-1
30
64
114
174
229
278
321
353
370
360
311
231
146
60
-23
-89
-127
-149
-164
-170
-170
-169
-166
-160
-154
-144
-133
-124
-119
-112
-102
-95
-98
-104
-106
-118
-138
-134
-103
-70
-40
-19
-29
-57
-67
-66
-62
-47
-49
-58
-36
-37
-70
-107
-227
44
1465
2899
2146
-68
-972
-379
-36
-182
-171
-107
-145
-129
-87
-88
-77
-56
-53
-38
-9
12
34
67
105
145
190
239
284
323
357
376
366
319
244
155
67
-14
-81
-128
-151
-157
-159
-161
-164
-166
-162
-152
-149
-157
-156
-144
-141
-140
-133
-138
-153
-158
-162
-179
-182
-162
-136
-110
-97
-117
-146
-157
-164
-163
-156
-168
-169
-149
-170
-191
-237
-361
144
1767
2753
1328
-801
-1160
-430
-214
-326
-268
-242
-276
-241
-220
-233
-217
-200
-196
-176
-153
-139
-115
-80
-45
0
56
111
158
199
232
246
227
168
82
-8
-95
-174
-233
-268
-285
-290
-293
-295
-292
-286
-281
-274
-265
-256
-247
-238
-229
-217
-212
-216
-217
-219
-227
-224
-198
-163
-124
-94
-96
-119
-127
-123
-115
-97
-92
-91
-61
-55
-79
-91
-190
8
1291
2745
2166
7
-977
-377
45
-85
-86
-7
-36
-20
30
31
43
73
86
105
134
158
187
223
262
308
362
416
469
513
544
567
567
527
455
373
291
211
146
107
87
76
72
70
66
64
64
66
69
73
78
80
79
78
72
61
50
33
7
-5
8
28
47
64
54
15
-16
-34
-50
-54
-63
-90
-90
-94
-139
-173
-286
-271
739
2384
2397
334
-1156
-829
-295
-400
-481
-409
-447
-478
-452
-471
-489
-478
-486
-498
-490
-486
-485
-472
-453
-430
-399
-361
-325
-296
-275
-260
-262
-298
-369
