# session 12
-19
-25
-1
-21
-52
55
195
139
9
17
13
-117
-177
-152
-238
-326
-232
-131
-162
-154
-69
-63
-107
-114
-137
-153
-101
-97
-174
-175
-110
-75
-20
-15
9
575
1447
1262
-172
-1240
-1066
-438
-100
-15
50
128
71
-104
-162
-53
64
133
200
269
281
230
221
281
307
298
320
317
242
150
91
68
37
-26
-38
-13
-69
-138
-102
-51
-54
-45
-59
-134
-160
-121
-146
-171
-88
-63
-136
-163
-299
-282
749
2037
1466
-624
-1680
-1150
-502
-287
-186
-203
-312
-267
-95
-23
-78
-105
-31
71
133
170
214
258
282
310
316
217
63
7
30
-24
-139
-197
-221
-246
-210
-153
-172
-194
-152
-123
-114
-66
-23
-40
-85
-107
-87
-63
-50
-85
-261
-97
1138
2413
1713
-328
-1191
-610
-132
-98
-27
12
-76
-82
-18
-70
-185
-171
-34
102
222
349
437
468
470
456
412
293
109
-35
-103
-167
-222
-215
-196
-217
-244
-235
-192
-162
-171
-192
-230
-278
-236
-145
-155
-209
-234
-271
-278
-395
-562
213
1956
2346
424
-1269
-1053
-353
-291
-342
-234
-187
-161
-104
-85
-73
-52
-52
-2
160
327
352
303
366
503
500
329
180
124
76
46
86
94
-2
-55
-4
-28
-137
-101
35
3
-160
-218
-191
-214
-246
-220
-183
-162
-111
-102
-195
143
1365
2251
1208
-744
-1359
-731
-328
-332
-323
-370
-398
-299
-302
-340
-173
-89
-293
-418
-313
-255
-224
24
358
465
361
242
126
-5
-79
-129
-211
-223
-143
-116
-135
-97
-46
-46
-49
-42
-51
-36
-3
-15
-8
97
129
-21
-26
161
-73
-396
635
2396
2232
208
-858
-359
56
25
131
212
106
51
37
-13
-26
-52
-93
-29
58
64
100
185
220
242
277
215
64
-57
-135
-194
-202
-172
-160
-175
-211
-226
-173
-120
-135
-143
-140
-204
-279
-337
-458
-540
-455
-319
-239
-324
-495
133
1818
2564
1000
-889
-1094
-476
-286
-327
-252
-160
-144
-211
-253
-183
-145
-181
-139
-20
68
125
177
211
215
206
194
139
96
189
243
69
-71
-37
-86
-182
-80
103
176
184
173
124
71
49
41
21
-12
-103
-235
-267
-298
-387
214
1678
2151
556
-1106
-1086
-381
-160
-180
-154
-165
-177
-167
-153
-121
-133
-168
-98
19
91
199
304
222
30
-25
56
79
6
-34
-10
-55
-204
-298
-253
-176
-150
-153
-202
-294
-290
-157
-98
-189
-248
-234
-246
-256
-243
-222
-164
-239
-251
785
2563
2767
851
-687
-568
-131
-203
-292
-170
-16
74
33
-103
-137
24
239
310
238
225
344
403
282
118
11
-82
-150
-160
-189
-292
-392
-386
-289
-222
-212
-191
-192
-266
-314
-264
-215
-221
-183
-107
-159
-285
-259
-192
-286
-399
-376
83
1377
2457
1582
-369
-1004
-440
-274
-475
-354
-150
-110
-76
-75
-141
-121
-25
11
21
115
240
238
145
143
217
199
90
22
14
-30
-131
-184
-138
-81
-48
1
24
10
72
199
261
275
304
261
148
126
162
107
45
-24
-124
410
1792
2334
857
-926
-1210
-680
-441
-383
-271
-214
-205
-209
-259
-306
-268
-169
-113
-101
-30
90
130
80
75
153
154
-1
-128
-107
-112
-244
-349
-355
-371
-408
-365
-269
-278
-381
-384
-286
-271
-318
-294
-258
-284
-300
-249
-146
-163
-303
236
1826
2702
1319
-676
-1079
-452
-173
-163
-51
4
-14
20
58
80
138
184
184
244
411
533
517
493
540
568
542
484
353
206
190
194
26
-114
-10
40
-221
-480
-470
-351
-263
-197
-187
-194
-169
-187
-239
-229
-239
-296
-295
-308
-91
1002
2185
1461
-755
-1775
-1053
-378
-391
-456
-412
-380
-310
-236
-230
-247
-203
-102
-62
-77
-2
104
100
83
134
126
47
-1
-59
-144
-160
-139
-141
-104
-78
-154
-166
-24
55
6
3
32
-17
-69
-47
10
42
-4
-19
97
3
-197
625
2259
2403
578
-805
-623
-76
162
266
179
51
133
216
154
85
23
-4
72
105
57
89
178
232
288
305
223
133
65
-44
-176
-283
-349
-343
-290
-278
-284
-237
-201
-202
-143
-61
-87
-177
-223
-174
-79
-112
-234
-249
-349
-344
703
2155
1798
-121
-1056
-640
-395
-475
-332
-249
-385
-400
-262
-192
-206
-210
-172
-108
-47
-7
34
98
155
164
157
177
169
89
18
16
5
-64
-110
-85
-68
-103
-79
78
236
230
91
-15
-4
71
123
111
96
67
-250
-670
-26
1763
2367
578
-1278
-1253
-482
-269
-303
-254
-289
-357
-315
-213
-143
-130
-135
-102
-9
119
210
223
231
302
317
153
-41
-83
-88
-199
-302
-280
-192
-121
-108
-150
-175
-134
-103
-152
-186
-123
-98
-220
-301
-188
-75
-68
-95
-265
-204
989
2507
2102
35
-1057
-602
-152
-153
-110
-65
-99
-40
42
34
21
59
126
189
229
334
516
573
465
456
560
524
377
307
244
96
-23
-86
-200
-355
-433
-394
-318
-273
-225
-156
-151
-204
-223
-229
-254
-260
-294
-328
-279
-267
44
1282
2352
1368
-731
-1429
-775
-360
-371
-362
-382
-370
-254
-257
-360
-320
-174
-76
-17
10
1
65
231
343
297
171
73
23
0
-29
-93
-166
-193
-182
-171
-139
-82
-52
-51
-32
-24
-45
-23
23
-16
-91
-103
-69
-49
-226
-420
386
2153
2603
792
-892
-802
-175
-54
-75
-51
-74
-42
-26
-108
-85
86
133
-15
-120
-64
39
121
188
214
231
269
241
112
-23
-121
-208
-273
-303
-299
-256
-197
-168
-162
-144
-149
-202
-245
-251
-248
-237
-248
-273
-272
-390
-364
696
2304
2264
343
-1000
-788
-384
-395
-360
-277
-304
-301
-268
-283
-270
-196
-144
-140
-125
-65
20
108
157
125
75
82
79
5
-50
-32
-24
-84
-149
-133
-48
12
30
75
128
108
68
122
214
209
138
106
158
248
112
-48
847
2513
2496
306
-1267
-948
-377
-402
-412
-296
-266
-208
-113
-87
-76
-40
-19
2
55
135
212
232
217
254
277
148
-21
-64
-85
-168
-199
-204
-305
-374
-279
-177
-193
-199
-159
-206
-289
-255
-209
-277
-320
-281
-263
-273
-406
-448
466
2040
2189
431
-987
-876
-382
-268
-219
-149
-178
-199
-146
-96
-76
-59
-28
11
62
135
205
250
312
402
432
373
339
382
424
406
316
175
53
5
-1
-20
-33
43
141
33
-225
-332
-325
-407
-457
-416
-431
-451
-453
-344
500
1812
1747
-41
-1281
-908
-320
-314
-375
-346
-365
-318
-215
-181
-192
-195
-155
-70
-29
-32
32
134
166
179
257
282
145
-21
-62
-52
-105
-177
-189
-175
-165
-98
-4
10
1
45
31
-73
-124
-92
-58
-83
-155
-157
-175
-320
193
1872
2872
1463
-599
-970
-348
-182
-271
-196
-160
-181
-120
-29
37
99
168
244
298
323
368
442
480
461
437
447
418
279
117
25
-67
-195
-258
-228
-173
-106
-52
-65
-90
-83
-131
-244
-326
-381
-422
-428
-459
-487
-494
-601
-305
1038
2169
1258
-642
-1206
-624
-341
-421
-392
-340
-342
-333
-332
-310
-242
-189
-153
-97
-41
0
41
77
112
150
147
77
-1
-50
-120
-224
-306
-362
-392
-347
-262
-223
-205
-183
-196
-204
-185
-200
-187
-105
-102
-141
-159
-284
91
1646
2818
1644
-443
-898
-181
104
28
91
134
113
135
119
73
100
153
203
335
494
482
321
237
288
350
352
300
221
145
60
-37
-93
-117
-160
-185
-158
-128
-111
-103
-126
-142
-135
-164
-155
-65
-56
-86
-61
-154
183
1696
2884
1704
-454
-1002
-388
-183
-274
-231
-265
-337
-292
-236
-183
-100
-37
72
261
398
442
422
273
36
-148
-287
-444
-525
-459
-365
-387
-526
-663
-711
-727
-688
-432
-145
-193
-377
-333
-257
-375
-473
-414
-373
-406
-394
-442
-472
302
1809
2151
596
-815
-760
-321
-309
-347
-297
-305
-301
-270
-256
-220
-178
-140
-66
8
62
162
262
276
289
371
401
324
255
226
160
82
69
90
106
154
231
272
266
247
223
194
161
125
88
31
-29
-27
-128
-279
477
2254
2820
961
-972
-1014
-357
-266
-345
-296
-323
-361
-323
-295
-268
-225
-209
-190
-123
-41
32
112
180
178
129
131
179
179
123
76
44
5
-26
-28
-7
44
131
163
43
-129
-155
-63
-23
-61
-133
-176
-169
-303
-311
721
2243
2031
24
-1201
-824
-382
-467
-511
-437
-404
-368
-365
-392
-357
-302
-277
-236
-181
-148
-114
-80
-65
-46
-27
-42
-75
-91
-89
-43
24
-31
-196
-236
-112
-18
23
83
66
-31
-51
-10
-1
19
19
-32
-51
-145
-67
995
2376
1962
2
-927
-377
1
-120
-99
-44
-107
-78
-20
-30
-5
23
0
38
136
173
183
228
245
224
223
184
48
-80
-109
-100
-112
-124
-150
-193
-197
-170
-172
-179
-148
-136
-202
-273
-256
-243
-328
-334
-313
-537
-229
1466
2770
1471
-841
-1407
-711
-397
-403
-315
-295
-315
-276
-254
-238
-206
-178
-100
-4
52
176
375
439
363
360
397
298
135
60
37
-11
-74
-133
-137
-61
11
27
30
-3
-88
-105
-57
-100
-186
-170
-116
-125
-244
-264
546
2085
2422
668
-1018
-955
-300
-172
-159
-47
-79
-148
-168
-225
-214
-87
6
40
100
167
210
232
223
210
219
182
84
13
-51
-172
-257
-244
-239
-268
-235
-167
-157
-193
-209
-212
-245
-304
-323
-295
-318
-365
-390
-581
-489
896
2593
2087
-217
-1364
-846
-422
-488
-453
-403
-426
-322
-197
-180
-141
-55
-18
0
91
220
278
269
289
319
274
198
174
149
76
34
33
-18
-88
-62
28
86
113
138
151
161
167
184
232
226
161
180
100
-79
611
2178
2395
485
-1039
-749
-181
-288
-417
-354
-360
-343
-250
-201
-180
-150
-135
-109
-48
21
76
100
88
67
49
36
13
-87
-251
-313
-236
-199
-255
-274
-199
-105
-80
-146
-224
-239
-246
-288
-287
-266
-326
-393
-461
-533
14
1407
2058
796
-769
-898
-325
-173
-230
-189
-214
-303
-326
-290
-229
-162
-112
-74
-32
28
121
204
231
272
376
409
301
200
201
219
199
161
121
112
159
229
284
301
255
189
160
120
81
114
128
70
-27
-284
-215
1065
2438
1648
-543
-1373
-703
-259
-321
-323
-298
-331
-312
-272
-247
-204
-162
-141
-130
-129
-84
41
150
154
114
85
34
-46
-106
-137
-184
-270
-336
-319
-266
-227
-160
-106
-164
-245
-227
-215
-255
-228
-207
-264
-268
-360
-418
534
2179
2184
158
-1238
-850
-259
-300
-369
-262
-192
-161
-146
-123
-56
-19
-11
88
233
313
382
427
296
102
134
313
366
328
330
315
260
250
260
224
205
255
287
226
158
140
81
-42
-154
-263
-321
-303
-416
-296
946
2409
1840
-323
-1342
-764
-278
-341
-394
-408
-443
-379
-336
-379
-365
-307
-294
-245
-136
-88
-109
-103
-74
-63
-59
-58
-60
-78
-140
-214
-231
-218
-238
-256
-208
-121
-91
-151
-205
-180
-157
-169
-140
-105
-122
-171
-364
-395
631
2143
1930
-42
-1196
-747
-256
-276
-225
-111
-139
-149
-105
-89
-55
21
92
144
188
254
351
422
446
479
524
520
457
386
323
262
220
206
198
225
319
370
255
77
8
10
-31
-68
-37
-8
-15
-49
-216
-181
790
2015
1576
-360
-1446
-1002
-462
-463
-497
-404
-384
-423
-409
-364
-365
-381
-325
-240
-201
-161
-116
-126
-122
-42
-7
-56
-50
3
-30
-112
-134
-118
-128
-136
-96
-30
7
11
15
33
43
13
-78
-209
-287
-268
-319
-312
539
2094
2421
797
-677
-628
-211
-258
-271
-133
-98
-77
-42
-46
19
85
29
20
143
217
213
254
308
291
271
335
400
349
224
148
129
74
-29
-60
-19
-53
-142
-146
-107
-109
-114
-114
-148
-205
-241
-279
-420
-343
634
1889
1539
-370
-1521
-1119
-538
-444
-442
-438
-471
-443
-413
-397
-330
-300
-323
-280
-217
-211
-178
-119
-130
-136
-45
23
-13
-43
-28
-47
-107
-153
-160
-101
-6
44
50
37
-45
-170
-233
-201
-135
-141
-201
-187
-260
-331
582
2333
2623
763
-757
-591
-120
-150
-143
-7
9
19
84
97
102
170
228
231
245
285
292
289
354
433
414
336
295
245
128
6
-66
-85
-47
26
88
122
110
45
-10
-34
-88
-157
-178
-205
-254
-274
-342
-131
996
2167
1480
-535
-1422
-863
-392
-384
-378
-368
-372
-311
-301
-331
-282
-230
-241
-229
-164
-109
-77
-40
-6
32
105
182
189
133
86
78
85
111
168
185
109
48
76
85
44
29
18
-4
-6
-37
-56
-94
-246
167
1703
2767
1647
-211
-635
-142
-11
-95
-45
-11
18
73
62
63
127
133
99
122
148
151
186
220
229
253
239
130
19
-20
-40
-97
-170
-200
-161
-122
-142
-189
-246
-318
-368
-405
-455
-487
-532
-589
-559
-593
-609
239
1689
1634
-315
-1679
-1304
-663
-612
-628
-527
-503
-530
-547
-533
-476
-438
-417
-345
-259
-207
-155
-95
-56
-17
38
45
-29
-78
-36
-37
-174
-294
-285
-258
-277
-260
-204
-202
-251
-286
-311
-324
-330
-363
-378
-444
-615
-136
1438
2279
751
-1280
-1475
-666
-381
-389
-260
-199
-200
-127
-34
51
115
94
55
121
248
352
446
517
518
480
442
392
336
297
282
291
297
269
247
275
330
368
354
290
225
162
112
133
138
70
85
48
7
942
2623
2613
455
-1010
-573
54
23
-45
18
53
97
123
137
206
257
261
298
365
410
435
458
510
583
627
647
664
617
491
364
272
227
238
235
206
240
282
220
144
126
104
93
91
37
21
-65
-308
229
1957
2741
1058
-922
-1071
-451
-353
-402
-332
-378
-437
-396
-411
-484
-503
-501
-510
-477
-416
-393
-412
-466
-537
-560
-553
-601
-683
-727
-778
-889
-998
-1022
-979
-920
