# session 10
266
297
177
217
635
1027
1035
898
868
833
730
646
601
551
474
376
293
250
231
214
193
171
124
53
42
107
92
-22
-111
-194
51
1158
2169
1321
-690
-1476
-855
-388
-411
-386
-326
-348
-325
-275
-266
-241
-198
-197
-206
-159
-92
-67
-61
-41
-17
3
14
7
-9
-38
-100
-161
-172
-155
-153
-170
-193
-202
-181
-162
-191
-236
-264
-292
-275
-231
-288
-355
-349
-437
-109
1331
2594
1792
-70
-746
-396
-258
-302
-220
-177
-131
-22
-34
-131
-139
-74
-2
54
81
122
165
128
62
48
19
-54
-70
-29
-33
-89
-126
-153
-185
-171
-136
-177
-251
-255
-248
-299
-360
-402
-395
-343
-373
-439
-437
-464
-32
1398
2336
1043
-939
-1234
-508
-322
-438
-330
-242
-266
-256
-214
-138
-49
-37
-44
26
106
159
240
309
332
365
366
250
105
59
59
-3
-103
-158
-150
-93
-3
78
104
77
25
-18
-28
-7
10
-25
-53
22
-25
-158
578
2193
2554
812
-742
-609
-27
28
-44
-47
-89
-67
-10
-25
-41
-51
-128
-189
-151
-86
-28
64
145
150
122
116
99
20
-78
-118
-136
-215
-303
-286
-202
-158
-140
-115
-135
-200
-222
-209
-216
-215
-236
-289
-290
-380
-403
537
2093
2121
309
-972
-752
-341
-336
-295
-199
-207
-215
-183
-154
-103
-27
20
-21
-90
-66
-10
-46
-73
27
123
100
45
30
24
7
-29
-74
-83
-33
24
41
67
149
203
158
123
158
187
182
150
93
36
-84
33
1018
2190
1814
186
-637
-324
-106
-249
-330
-356
-367
-279
-188
-166
-167
-183
-189
-149
-115
-132
-152
-135
-102
-75
-40
-9
-37
-111
-151
-160
-210
-285
-288
-210
-155
-155
-141
-127
-168
-205
-202
-209
-199
-175
-220
-278
-375
-517
45
1606
2332
873
-899
-1018
-348
-117
-86
-30
-159
-308
-263
-160
-106
-62
-54
-103
-103
0
102
154
226
300
307
296
295
247
185
152
86
9
28
98
116
120
171
208
156
76
63
67
25
20
39
23
35
-115
-389
239
1810
2115
334
-1147
-915
-335
-320
-349
-247
-252
-296
-287
-272
-259
-235
-214
-210
-195
-141
-88
-83
-87
-68
-57
-56
-38
-23
-58
-124
-148
-140
-161
-166
-102
-48
-37
-13
-12
-47
-39
-22
-58
-83
-93
-93
-34
-87
-97
725
1969
1776
65
-1022
-738
-288
-225
-193
-147
-191
-213
-172
-143
-141
-115
-70
-66
-54
62
184
190
187
265
330
342
360
385
408
423
383
300
233
204
224
268
291
295
242
99
-35
-97
-135
-169
-201
-203
-187
-266
-24
1127
2114
1229
-641
-1251
-680
-369
-471
-481
-428
-437
-467
-464
-388
-312
-321
-319
-244
-196
-193
-181
-163
-126
-61
-32
-36
-17
-10
-56
-117
-165
-195
-188
-154
-121
-103
-107
-127
-139
-120
-86
-80
-81
-65
-94
-136
-182
-361
-164
1177
2514
1796
-221
-1056
-550
-176
-218
-216
-157
-132
-107
-81
-48
2
61
127
161
166
221
313
341
334
380
426
407
380
352
267
210
230
175
26
-27
11
-35
-110
-63
5
-37
-118
-164
-196
-231
-272
-262
-226
-277
67
1305
2140
926
-1068
-1500
-762
-442
-510
-438
-397
-426
-347
-271
-302
-311
-239
-182
-181
-164
-81
0
7
-21
-19
37
122
160
117
69
63
43
-5
4
78
84
-23
-114
-129
-130
-121
-107
-157
-218
-204
-180
-153
-168
-301
94
1574
2652
1604
-286
-794
-257
-45
-139
-90
-27
-28
28
72
18
-22
33
93
97
127
210
256
259
300
340
281
157
72
35
-3
-51
-84
-85
-57
-31
-24
-16
-24
-99
-213
-296
-337
-340
-332
-366
-376
-339
-469
-456
558
1933
1625
-269
-1359
-946
-427
-382
-388
-364
-364
-284
-202
-217
-221
-138
-66
-74
-74
8
106
144
133
137
197
262
263
248
230
116
-38
-75
-47
-72
-98
-52
1
-4
-31
-41
-71
-104
-54
3
-48
-69
-109
-284
206
1770
2504
965
-883
-975
-251
-50
-109
-68
-67
-92
-80
-45
22
45
5
25
71
27
-14
38
99
124
153
187
199
160
63
-22
-58
-127
-248
-287
-202
-114
-89
-90
-127
-202
-264
-292
-294
-281
-312
-344
-358
-475
-190
1196
2440
1565
-436
-1111
-607
-380
-417
-321
-316
-358
-254
-175
-192
-163
-125
-130
-99
-38
6
73
122
79
35
84
140
131
101
60
-25
-98
-79
-6
48
82
115
127
78
0
-21
9
37
83
106
74
30
-59
144
1169
2134
1468
-149
-736
-301
-44
-78
-77
-121
-155
-59
1
-83
-173
-168
-128
-113
-80
0
70
100
114
109
80
46
2
-67
-140
-187
-222
-264
-280
-256
-230
-201
-162
-181
-221
-193
-176
-203
-172
-194
-302
-291
-381
-483
557
2360
2294
116
-1209
-748
-281
-366
-316
-195
-253
-277
-196
-130
-86
-37
-9
-46
-105
-81
10
78
113
129
122
131
164
153
94
51
25
-17
-39
-8
45
98
135
97
4
-42
-33
-6
38
34
3
16
-110
-83
996
2360
1768
-411
-1373
-623
-3
-66
-158
-193
-280
-292
-258
-242
-185
-117
-89
-61
-39
-66
-75
0
90
117
98
76
58
19
-70
-172
-222
-222
-206
-180
-156
-140
-118
-114
-146
-182
-199
-192
-163
-184
-248
-234
-302
-451
255
1974
2533
736
-1094
-1043
-343
-242
-296
-185
-116
-71
-26
-37
-46
-39
-42
-3
70
118
148
183
209
221
237
253
249
209
140
71
36
23
-4
-22
-6
14
33
38
12
22
70
54
16
21
9
3
-85
-258
335
1921
2445
713
-997
-848
-185
-203
-277
-171
-301
-472
-382
-240
-186
-124
-89
-128
-140
-90
-55
-40
0
36
32
13
8
-13
-90
-198
-263
-271
-287
-334
-342
-267
-179
-169
-216
-247
-268
-301
-273
-204
-228
-269
-306
-535
-273
1353
2746
1655
-540
-1094
-445
-260
-367
-238
-151
-180
-172
-192
-217
-169
-129
-114
-62
-11
12
39
50
52
100
166
175
146
120
89
56
33
22
61
151
219
266
327
338
310
336
353
297
263
237
163
82
-26
155
1110
2001
1374
-155
-758
-384
-148
-229
-275
-279
-268
-211
-192
-233
-251
-236
-213
-196
-215
-225
-156
-74
-50
-35
-20
-39
-72
-107
-148
-182
-234
-278
-236
-174
-185
-196
-157
-135
-162
-232
-311
-307
-239
-259
-314
-300
-397
-335
661
1940
1654
56
-745
-384
-99
-155
-142
-114
-146
-165
-223
-273
-218
-168
-184
-143
-38
5
8
53
100
115
159
225
219
153
133
162
169
155
170
223
275
290
280
278
262
184
89
95
143
50
-81
-89
-162
-34
1053
2258
1648
-259
-1096
-602
-207
-212
-188
-197
-284
-283
-241
-259
-303
-330
-310
-239
-187
-183
-171
-148
-149
-141
-104
-88
-96
-96
-121
-170
-192
-219
-270
-245
-133
-71
-90
-97
-80
-82
-107
-114
-78
-79
-122
-104
-228
-367
507
2137
2199
257
-1098
-762
-246
-246
-211
-128
-202
-249
-209
-173
-123
-72
-40
16
63
81
129
183
182
183
229
283
299
243
152
123
133
100
80
127
159
152
166
176
136
92
52
-7
-12
28
11
3
-78
-325
93
1609
2308
743
-1088
-1151
-442
-263
-324
-296
-309
-303
-254
-266
-280
-240
-213
-199
-147
-80
-26
8
5
-10
8
35
29
-7
-72
-157
-212
-234
-255
-243
-182
-126
-84
-46
-64
-106
-103
-116
-162
-163
-162
-187
-231
-359
-65
1232
2287
1362
-490
-1042
-499
-210
-218
-158
-174
-259
-252
-196
-152
-134
-152
-137
-62
-7
19
60
112
174
235
249
230
222
214
193
179
172
170
206
291
364
374
349
326
295
254
232
220
165
94
67
-88
-400
-132
1096
1860
841
-723
-1057
-560
-342
-368
-340
-371
-425
-370
-315
-340
-338
-273
-229
-219
-184
-135
-120
-129
-111
-56
-28
-49
-54
-41
-75
-111
-87
-70
-86
-53
3
10
-5
-10
-20
-42
-86
-114
-105
-136
-182
-215
-323
-12
1242
2148
1112
-642
-1027
-477
-288
-343
-259
-214
-227
-199
-192
-181
-116
-70
-36
35
79
76
123
205
231
255
343
385
319
275
299
283
217
211
267
297
284
269
258
222
162
95
33
22
55
37
-12
-116
-412
-274
1060
2227
1250
-727
-1258
-612
-317
-389
-362
-358
-391
-327
-280
-313
-316
-276
-249
-219
-172
-147
-147
-128
-84
-49
-28
-32
-82
-126
-135
-167
-211
-205
-182
-165
-114
-60
-55
-75
-85
-91
-112
-127
-115
-125
-157
-201
-300
-59
989
1892
1210
-316
-842
-412
-157
-191
-171
-152
-171
-159
-154
-156
-135
-114
-96
-50
10
48
66
87
112
147
207
252
235
189
168
176
188
185
174
199
277
346
327
248
213
224
219
201
162
117
112
-24
-157
553
1895
1951
312
-882
-628
-156
-139
-155
-122
-177
-218
-227
-258
-262
-230
-210
-208
-204
-187
-153
-122
-113
-109
-91
-63
-60
-109
-181
-220
-229
-248
-263
-236
-184
-145
-133
-140
-151
-167
-199
-190
-134
-159
-217
-234
-443
-418
844
2328
1697
-394
-1211
-604
-246
-328
-288
-242
-288
-282
-259
-261
-237
-205
-180
-140
-105
-85
-60
-41
-40
-29
4
29
23
-13
-59
-94
-111
-104
-72
-32
0
36
69
63
39
39
48
65
81
51
22
-36
-191
163
1509
2454
1486
-143
-522
-110
-39
-154
-125
-105
-117
-90
-70
-48
-12
-1
8
46
77
91
119
151
158
164
200
228
209
165
126
89
51
39
63
92
106
106
80
43
17
-24
-61
-48
-67
-129
-181
-363
-321
762
2090
1675
-78
-882
-490
-251
-335
-294
-288
-399
-408
-337
-305
-278
-228
-202
-222
-235
-184
-130
-153
-159
-66
9
5
10
10
-68
-151
-163
-159
-171
-151
-109
-97
-117
-131
-134
-159
-192
-170
-155
-202
-202
-294
-526
44
1654
2205
542
-1117
-1025
-365
-265
-329
-284
-276
-246
-185
-171
-156
-128
-122
-90
-31
-19
-22
31
89
87
78
123
171
152
94
57
32
9
28
77
88
68
80
95
66
28
2
-8
5
-23
-76
-148
-381
-268
1018
2336
1607
-306
-921
-340
-115
-262
-214
-141
-189
-184
-122
-115
-134
-100
-28
4
2
47
108
107
89
137
216
244
227
210
179
130
118
138
119
109
165
189
132
92
84
47
29
34
1
-14
-117
-429
-199
1192
2212
1163
-599
-943
-379
-229
-333
-281
-235
-234
-216
-240
-243
-166
-122
-150
-151
-89
-21
-8
-37
-41
-5
27
48
73
55
-30
-82
-44
-17
-53
-53
14
40
-18
-65
-67
-100
-138
-114
-106
-156
-259
-476
-337
757
1758
1041
-538
-975
-470
-271
-330
-257
-253
-314
-249
-195
-235
-209
-129
-123
-117
-44
-9
-31
-9
55
97
128
149
123
56
1
-7
7
-6
-40
-40
6
19
-44
-91
-79
-103
-139
-104
-102
-147
-193
-438
-457
657
1933
1323
-451
-1006
-407
-109
-144
-89
-99
-132
-53
-45
-116
-78
11
13
-16
3
55
100
106
83
111
208
263
222
158
117
97
104
94
42
36
102
114
32
-22
-14
-32
-62
-48
-53
-69
-105
-387
-448
735
2250
1798
-154
-977
-404
-48
-146
-114
-50
-91
-79
-36
-61
-85
-40
23
29
12
48
90
58
32
110
204
205
167
138
80
17
-19
-48
-26
46
42
-33
-48
-37
-85
-126
-105
-109
-163
-149
-181
-459
-327
874
1800
830
-813
-1086
-444
-191
-252
-230
-215
-211
-181
-187
-166
-102
-103
-111
-33
27
-1
-33
-30
-20
20
98
128
59
-15
-12
-2
-37
-63
-59
-58
-53
-49
-77
-106
-117
-142
-144
-137
-182
-204
-299
-551
-193
1156
1808
545
-904
-888
-313
-199
-215
-144
-164
-170
-92
-69
-92
-69
-15
25
40
41
44
57
80
100
124
193
258
200
64
12
36
30
10
24
48
57
44
10
-8
-16
-27
-11
-12
-42
-56
-268
-533
167
1657
1774
62
-1090
-657
-93
-101
-117
-39
-59
-76
-54
-56
-46
-14
-1
7
27
49
73
97
106
121
176
234
226
163
114
90
58
24
15
32
50
45
6
-36
-53
-74
-91
-68
-75
-117
-142
-346
-471
410
1779
1562
-168
-1027
-490
-58
-126
-119
-64
-111
-114
-79
-92
-98
-76
-69
-69
-60
-48
-28
-11
-22
-23
33
94
93
54
14
-35
-68
-51
-7
17
9
-21
-51
-65
-85
-103
-99
-113
-135
-131
-312
-548
28
1286
1447
52
-980
-700
-226
-211
-243
-194
-201
-198
-161
-147
-130
-95
-62
-25
12
37
51
65
76
92
127
167
172
141
113
96
67
48
71
105
121
121
97
55
21
0
8
18
-19
-40
-130
-442
-308
913
1854
924
-632
-856
-256
-65
-137
-96
-85
-121
-99
-63
-43
-22
-2
18
29
32
56
90
89
80
119
176
180
128
69
33
1
-43
-71
-52
-15
-13
-51
-94
-116
-131
-149
-151
-169
-189
-190
-421
-676
105
1619
1616
-208
-1326
-811
-235
-252
-250
-161
-198
-222
-174
-148
-134
-104
-74
-47
-19
16
53
69
79
122
183
217
202
135
63
35
24
0
4
38
58
59
40
-9
-51
-65
-61
-53
-74
-88
-157
-455
-433
707
1872
1222
-393
-829
-290
-102
-211
-164
-129
-162
-131
-98
-104
-87
-60
-46
-23
7
28
33
28
39
87
152
185
155
95
67
62
43
45
92
123
106
77
55
25
-4
-5
14
-7
-32
-81
-342
-414
536
1740
1346
-225
-842
-341
-57
-159
-148
-104
-146
-148
-119
-114
-99
-71
-47
-25
-9
7
25
29
25
44
87
119
113
81
50
25
10
19
42
63
75
60
19
-11
-35
-53
-52
-78
-107
-153
-450
-620
301
1628
1307
-385
-1122
-572
-187
-253
-235
-177
-208
-196
-153
-143
-131
-110
-93
-57
-15
3
12
30
41
53
96
140
117
47
-7
