# session 41
-4
5
-23
30
182
266
244
234
259
267
269
292
315
325
331
337
344
353
360
364
371
363
310
230
165
113
57
16
-5
-23
-32
-28
-27
-31
-24
-17
-26
-41
-47
-48
-53
-57
-62
-71
-75
-74
-78
-86
-87
-83
-85
-93
-95
-91
-91
-95
-95
-101
-115
-114
-78
-26
-8
-41
-76
-82
-90
-99
-89
-95
-106
-82
-94
-118
-118
-282
-200
1022
2460
1944
-36
-939
-450
-87
-154
-145
-108
-141
-128
-98
-100
-93
-81
-75
-55
-41
-42
-27
1
20
35
56
77
93
110
128
143
160
178
193
195
175
132
75
10
-51
-95
-124
-143
-151
-152
-151
-146
-140
-137
-130
-122
-121
-133
-144
-137
-127
-132
-138
-127
-122
-134
-143
-137
-131
-131
-130
-126
-121
-120
-116
-111
-121
-132
-107
-55
-19
-23
-52
-74
-84
-95
-89
-72
-80
-81
-65
-88
-92
-122
-296
56
1522
2563
1448
-437
-860
-274
-52
-125
-90
-75
-98
-73
-59
-62
-43
-31
-28
-11
4
11
25
44
61
82
107
124
139
163
189
201
201
210
231
235
206
160
104
33
-29
-66
-95
-122
-131
-123
-114
-111
-111
-109
-103
-102
-106
-103
-101
-110
-116
-114
-114
-116
-116
-117
-118
-116
-116
-117
-113
-111
-111
-107
-102
-103
-112
-123
-119
-82
-26
2
-24
-66
-81
-87
-86
-70
-81
-100
-70
-68
-99
-102
-245
-192
951
2418
2035
85
-910
-460
-63
-120
-124
-84
-111
-97
-66
-72
-68
-53
-48
-37
-19
-6
9
29
46
58
75
101
122
139
166
191
194
190
204
217
202
163
113
49
-18
-69
-104
-130
-138
-132
-128
-130
-127
-115
-109
-113
-115
-115
-119
-122
-120
-120
-123
-122
-127
-136
-131
-120
-121
-125
-121
-118
-117
-113
-112
-110
-108
-118
-130
-113
-71
-28
-12
-34
-69
-86
-93
-92
-78
-80
-84
-60
-76
-104
-107
-263
-163
1058
2467
1935
-27
-909
-416
-54
-126
-122
-77
-106
-97
-67
-71
-67
-48
-37
-29
-16
-2
12
28
45
67
89
108
130
155
173
183
195
206
211
221
218
175
111
52
-10
-73
-108
-118
-126
-133
-127
-119
-119
-117
-106
-106
-115
-113
-105
-112
-122
-121
-112
-107
-113
-122
-123
-118
-118
-121
-118
-115
-110
-104
-102
-102
-106
-114
-119
-103
-57
-5
2
-40
-72
-78
-86
-83
-73
-90
-86
-55
-79
-100
-136
-300
53
1498
2531
1442
-420
-849
-274
-55
-135
-109
-86
-100
-77
-71
-82
-64
-43
-33
-23
-13
0
19
36
50
68
87
114
141
154
165
187
205
208
216
226
207
149
82
22
-39
-92
-120
-132
-139
-138
-135
-137
-135
-125
-122
-125
-123
-117
-115
-120
-126
-122
-117
-124
-130
-122
-117
-124
-125
-118
-117
-121
-117
-107
-101
-104
-109
-114
-115
-95
-42
6
-9
-57
-75
-76
-87
-82
-77
-90
-71
-58
-91
-93
-187
-278
506
2066
2355
674
-768
-628
-108
-79
-125
-79
-98
-96
-52
-62
-76
-32
6
-8
-31
-25
-1
19
33
49
69
91
117
142
160
170
183
201
215
224
224
189
121
54
-2
-57
-102
-125
-138
-147
-148
-141
-135
-130
-126
-124
-125
-121
-115
-118
-128
-131
-118
-106
-112
-128
-131
-119
-112
-117
-120
-115
-112
-109
-100
-100
-112
-119
-113
-84
-30
9
-7
-53
-77
-84
-88
-76
-70
-85
-70
-57
-90
-96
-181
-299
366
1876
2338
834
-653
-627
-117
-79
-148
-98
-98
-112
-86
-77
-70
-51
-47
-44
-26
-10
4
20
34
53
77
95
114
140
158
169
186
200
207
219
222
193
135
66
1
-51
-90
-120
-138
-141
-137
-135
-134
-130
-123
-120
-120
-112
-104
-109
-120
-118
-113
-118
-122
-118
-117
-119
-114
-110
-116
-119
-116
-118
-121
-112
-87
-48
-15
-26
-69
-91
-91
-97
-91
-79
-91
-88
-76
-100
-100
-168
-310
235
1701
2343
1004
-563
-678
-163
-69
-136
-95
-93
-108
-84
-74
-72
-59
-49
-39
-25
-10
7
18
29
53
80
100
119
138
156
178
191
198
219
242
228
179
126
71
4
-57
-96
-124
-146
-154
-148
-140
-136
-136
-134
-129
-122
-118
-118
-123
-123
-117
-113
-118
-126
-127
-124
-124
-125
-124
-120
-115
-114
-121
-129
-119
-79
-33
-22
-54
-87
-93
-96
-101
-90
-94
-110
-85
-77
-109
-111
-227
-280
610
2118
2188
474
-765
-529
-87
-105
-139
-92
-108
-106
-75
-74
-67
-49
-49
-41
-18
-6
5
27
48
63
82
107
138
160
168
186
211
226
243
260
244
191
130
66
-5
-70
-122
-148
-147
-143
-148
-149
-142
-135
-126
-120
-125
-131
-124
-116
-121
-125
-120
-119
-128
-133
-132
-125
-121
-127
-134
-128
-111
-82
-37
-16
-53
-97
-102
-102
-105
-94
-99
-106
-80
-95
-124
-112
-254
-207
913
2320
1916
39
-888
-455
-85
-134
-133
-98
-123
-105
-75
-85
-84
-62
-46
-35
-24
-11
9
27
43
64
87
111
139
164
179
192
210
230
248
254
230
174
104
31
-39
-97
-136
-158
-166
-165
-162
-161
-156
-148
-143
-137
-129
-123
-123
-120
-114
-112
-114
-121
-128
-131
-126
-115
-114
-127
-138
-126
-90
-45
-21
-42
-78
-92
-101
-112
-97
-86
-109
-99
-73
-99
-112
-187
-318
283
1824
2481
1082
-549
-679
-162
-76
-152
-116
-117
-128
-100
-93
-92
-72
-63
-62
-47
-28
-10
6
19
38
62
84
107
130
153
174
190
203
221
244
237
183
110
51
-7
-77
-127
-144
-158
-171
-163
-155
-161
-157
-143
-140
-141
-132
-129
-136
-136
-125
-117
-122
-134
-136
-123
-120
-135
-142
-127
-100
-62
-26
-35
-86
-115
-113
-117
-114
-99
-107
-105
-88
-112
-114
-161
-327
137
1674
2560
1271
-553
-847
-265
-83
-150
-114
-101
-115
-87
-70
-71
-60
-52
-50
-34
-6
15
22
35
67
96
114
137
163
186
214
237
252
274
297
281
225
156
78
-12
-86
-129
-159
-184
-187
-177
-177
-183
-174
-153
-146
-151
-146
-136
-133
-133
-130
-132
-138
-140
-134
-127
-131
-142
-146
-129
-91
-51
-41
-72
-104
-109
-110
-118
-109
-106
-118
-99
-97
-134
-120
-210
-319
488
2128
2445
686
-841
-718
-174
-117
-143
-88
-111
-125
-87
-77
-80
-65
-49
-34
-20
-14
-1
22
39
55
84
117
141
164
190
213
236
262
286
295
273
207
119
38
-32
-93
-135
-161
-178
-185
-182
-181
-178
-169
-161
-155
-145
-135
-131
-126
-120
-120
-125
-128
-128
-130
-136
-135
-125
-120
-127
-134
-136
-130
-101
-53
-29
-56
-96
-108
-108
-108
-97
-100
-113
-93
-91
-126
-119
-223
-279
635
2295
2543
786
-666
-543
-91
-117
-174
-122
-138
-145
-109
-107
-109
-85
-70
-65
-54
-40
-26
-13
4
27
53
77
103
131
157
179
196
214
239
255
237
183
111
31
-39
-84
-115
-152
-176
-174
-167
-170
-172
-163
-149
-138
-138
-138
-130
-124
-125
-123
-119
-123
-125
-113
-107
-121
-128
-118
-108
-109
-118
-127
-127
-109
-76
-32
-9
-36
-79
-87
-84
-93
-86
-83
-95
-71
-54
-90
-113
-230
-272
653
2311
2555
801
-640
-512
-72
-107
-161
-110
-126
-126
-91
-95
-95
-71
-64
-57
-37
-24
-13
5
23
40
60
83
111
142
169
199
224
237
253
272
258
194
115
44
-22
-81
-123
-153
-167
-165
-164
-172
-173
-159
-144
-137
-137
-135
-128
-125
-124
-122
-121
-124
-122
-117
-118
-120
-117
-116
-120
-119
-107
-100
-103
-110
-107
-98
-95
-100
-99
-90
-82
-77
-78
-84
-82
-71
-67
-76
-91
-96
-75
-26
20
23
-12
-37
-44
-61
-63
-43
-54
-71
-46
-49
-76
-114
-261
16
1443
2795
2052
71
-699
-245
-29
-160
-147
-109
-143
-123
-87
-94
-94
-81
-74
-64
-43
-25
-16
-5
19
40
52
80
120
144
159
187
220
249
276
285
262
213
148
72
-8
-72
-109
-130
-149
-157
-151
-148
-154
-154
-148
-143
-136
-129
-130
-133
-134
-137
-142
-140
-132
-127
-127
-130
-134
-135
-130
-124
-127
-130
-116
-101
-106
-116
-113
-102
-95
-94
-93
-91
-95
-100
-94
-87
-96
-93
-59
-19
3
-1
-28
-51
-59
-67
-66
-59
-71
-64
-36
-62
-80
-122
-292
123
1695
2773
1586
-375
-821
-248
-46
-133
-109
-95
-113
-90
-81
-82
-59
-47
-47
-34
-16
-3
12
27
42
65
94
119
139
166
198
226
249
279
308
306
263
200
124
39
-38
-93
-131
-154
-165
-172
-177
-174
-166
-162
-156
-145
-134
-130
-129
-128
-122
-113
-110
-119
-132
-134
-128
-127
-132
-130
-121
-119
-125
-126
-118
-112
-112
-113
-110
-103
-96
-93
-94
-92
-87
-81
-79
-85
-98
-100
-73
-29
3
16
4
-29
-52
-56
-57
-55
-61
-72
-52
-43
-80
-91
-187
-255
594
2298
2753
1080
-528
-541
-84
-98
-172
-117
-129
-141
-107
-105
-106
-78
-67
-68
-53
-35
-21
-4
15
30
46
70
101
127
150
177
200
218
244
266
257
212
147
77
5
-65
-116
-140
-155
-173
-182
-179
-177
-177
-170
-153
-136
-131
-138
-137
-127
-124
-128
-121
-112
-118
-130
-130
-123
-124
-125
-121
-115
-117
-121
-117
-105
-100
-103
-101
-96
-96
-92
-85
-84
-79
-72
-89
-111
-91
-41
-4
11
6
-23
-52
-63
-67
-58
-44
-60
-70
-45
-55
-83
-133
-261
131
1597
2740
1796
-93
-681
-213
-43
-160
-135
-111
-143
-120
-98
-106
-88
-70
-75
-67
-44
-28
-13
6
19
33
61
97
135
165
188
214
237
257
283
297
273
211
128
38
-39
-88
-122
-151
-169
-173
-170
-167
-169
-165
-156
-156
-158
-149
-140
-140
-143
-143
-139
-136
-137
-137
-127
-123
-129
-130
-124
-122
-123
-122
-118
-111
-108
-107
-99
-93
-99
-105
-103
-109
-113
-90
-47
-14
-2
-12
-44
-69
-71
-70
-61
-52
-69
-68
-43
-73
-93
-128
-276
154
1704
2735
1532
-396
-806
-239
-60
-138
-86
-82
-131
-100
-68
-81
-75
-51
-45
-44
-26
-1
12
18
35
61
89
119
147
177
217
250
266
289
318
315
272
209
131
45
-34
-98
-144
-165
-174
-182
-184
-176
-172
-169
-155
-144
-148
-153
-149
-140
-128
-121
-128
-133
-128
-130
-136
-131
-124
-130
-139
-139
-132
-122
-115
-115
-110
-101
-106
-116
-110
-93
-88
-104
-124
-111
-64
-24
-3
1
-25
-62
-70
-68
-72
-69
-77
-77
-49
-61
-97
-138
-270
42
1465
2757
1980
43
-684
-243
-41
-163
-150
-123
-150
-118
-93
-114
-110
-83
-70
-57
-43
-36
-23
-3
9
23
50
85
117
139
161
190
219
243
263
271
249
190
114
43
-22
-83
-125
-139
-147
-163
-171
-166
-162
-156
-145
-139
-141
-137
-127
-127
-135
-133
-123
-119
-120
-119
-119
-123
-128
-128
-123
-118
-115
-108
-99
-103
-111
-104
-96
-100
-94
-76
-77
-94
-101
-104
-99
-67
-16
20
16
-23
-55
-59
-60
-63
-55
-60
-61
-34
-53
-94
-112
-238
-50
1230
2636
2124
206
-703
-307
-28
-138
-142
-98
-128
-123
-96
-99
-88
-70
-72
-61
-30
-14
-22
-22
4
36
63
87
106
127
160
197
217
226
242
262
257
212
135
49
-23
-79
-118
-140
-157
-175
-179
-165
-153
-159
-161
-146
-132
-135
-144
-145
-136
-125
-123
-131
-134
-128
-123
-126
-130
-124
-115
-117
-123
-120
-110
-108
-112
-111
-107
-101
-92
-88
-91
-87
-82
-98
-116
-98
-53
-13
6
-1
-30
-54
-60
-61
-57
-58
-78
-71
-36
-56
-89
-133
-267
110
1566
2689
1728
-140
-694
-217
-43
-147
-118
-98
-135
-115
-90
-90
-78
-71
-71
-57
-38
-21
-2
8
19
47
79
96
112
140
175
208
235
253
266
273
261
212
138
59
-17
-83
-124
-146
-159
-161
-153
-148
-151
-153
-147
-138
-134
-136
-138
-130
-122
-127
-138
-137
-125
-123
-130
-130
-119
-116
-126
-130
-119
-109
-108
-107
-104
-105
-102
-92
-87
-101
-120
-105
-53
-9
-1
-16
-41
-62
-72
-78
-73
-60
-76
-82
-59
-73
-89
-130
-284
76
1540
2667
1678
-214
-753
-241
-45
-144
-120
-107
-142
-115
-84
-88
-85
-72
-58
-43
-41
-41
-24
2
26
47
65
88
115
140
165
193
219
241
256
257
233
188
122
40
-41
-99
-126
-140
-160
-177
-171
-159
-157
-156
-151
-151
-143
-127
-124
-132
-129
-121
-128
-138
-134
-126
-126
-130
-128
-121
-117
-121
-122
-109
-99
-109
-120
-108
-90
-93
-102
-90
-74
-79
-91
-99
-103
-88
-46
0
22
1
-36
-52
-60
-74
-61
-45
-61
-61
-46
-69
-82
-166
-255
449
2041
2627
1147
-473
-575
-99
-69
-147
-94
-102
-128
-96
-79
-81
-68
-57
-47
-29
-19
-16
0
24
43
62
86
105
122
150
180
206
231
250
259
263
242
187
122
56
-18
-79
-108
-128
-146
-147
-139
-137
-132
-124
-127
-130
-123
-114
-112
-110
-110
-112
-114
-118
-119
-111
-104
-108
-117
-118
-111
-104
-104
-105
-100
-98
-103
-101
-90
-86
-91
-100
-111
-110
-78
-27
7
2
-35
-65
-71
-79
-85
-72
-75
-86
-64
-71
-106
-135
-268
-66
1219
2564
1966
55
-770
-327
-51
-158
-162
-122
-143
-131
-118
-130
-117
-94
-89
-76
-61
-61
-55
-29
-7
2
19
54
88
110
131
156
177
193
216
234
215
160
100
38
-37
-107
-148
-169
-183
-188
-188
-185
-177
-173
-175
-167
-154
-156
-158
-146
-136
-138
-141
-141
-135
-125
-121
-125
-122
-114
-112
-105
-90
-89
-96
-86
-68
-66
-69
-57
-44
-43
-41
-40
-47
-39
5
60
88
78
48
27
21
22
35
44
37
53
75
53
45
-23
-146
444
2013
2782
1448
-266
-502
18
129
14
67
