# session 16
-28
-29
-43
-27
26
59
59
67
93
118
148
195
245
288
338
393
420
419
408
374
318
269
219
152
97
75
63
39
15
12
29
40
45
62
71
49
29
30
30
20
18
15
7
14
38
52
53
44
21
-7
-32
-32
-5
-11
-36
-91
-302
-266
749
1963
1583
-33
-800
-401
-88
-153
-157
-110
-119
-107
-80
-68
-52
-41
-33
-1
44
97
155
189
202
224
240
213
156
95
43
0
-42
-91
-135
-153
-147
-143
-145
-137
-121
-114
-110
-101
-101
-116
-131
-135
-135
-137
-131
-109
-88
-75
-68
-83
-117
-125
-121
-133
-122
-107
-133
-152
-248
-387
101
1298
1674
423
-863
-854
-331
-184
-217
-199
-202
-198
-166
-156
-144
-115
-97
-70
-19
30
84
153
200
208
215
227
205
145
79
30
-13
-58
-98
-123
-128
-120
-116
-117
-103
-81
-72
-67
-55
-48
-48
-53
-67
-83
-84
-71
-50
-24
-9
-24
-60
-76
-70
-75
-73
-49
-66
-94
-129
-295
-207
740
1697
1127
-403
-1018
-568
-175
-126
-109
-84
-81
-59
-44
-37
-9
16
33
70
118
167
233
303
337
339
344
341
297
228
167
105
37
-13
-47
-77
-91
-88
-84
-77
-62
-52
-53
-51
-48
-59
-76
-83
-84
-90
-92
-76
-55
-46
-53
-76
-85
-78
-95
-98
-59
-73
-102
-105
-287
-236
884
2073
1322
-637
-1342
-691
-198
-136
-74
-47
-72
-39
-10
-17
0
35
63
99
142
197
273
349
392
408
410
383
315
227
148
75
-1
-67
-106
-130
-147
-155
-160
-167
-162
-149
-143
-137
-130
-134
-147
-144
-125
-108
-95
-84
-80
-97
-129
-145
-141
-150
-149
-132
-156
-177
-223
-402
-125
1181
2175
1199
-587
-1046
-473
-198
-242
-204
-180
-205
-178
-148
-150
-134
-101
-72
-39
-2
42
105
174
218
237
248
234
175
100
39
-15
-67
-108
-139
-154
-155
-159
-168
-156
-125
-105
-97
-87
-77
-74
-78
-84
-74
-45
-20
-15
-27
-57
-84
-84
-91
-104
-82
-82
-121
-141
-291
-359
517
1954
1946
230
-973
-720
-246
-214
-218
-149
-136
-122
-94
-88
-65
-22
14
48
88
142
214
282
334
380
403
376
316
249
175
92
18
-37
-78
-112
-132
-135
-136
-140
-130
-114
-122
-143
-135
-108
-103
-116
-120
-114
-98
-71
-46
-40
-55
-78
-89
-95
-106
-91
-65
-90
-114
-194
-394
-50
1312
2234
1202
-491
-869
-354
-163
-232
-197
-171
-186
-160
-139
-142
-126
-97
-72
-39
13
79
140
194
246
281
283
255
202
129
58
5
-45
-103
-140
-141
-135
-148
-158
-152
-144
-129
-97
-81
-93
-94
-83
-90
-97
-87
-70
-45
-20
-23
-55
-87
-98
-98
-114
-125
-109
-108
-119
-201
-386
-55
1297
2324
1417
-317
-817
-341
-145
-221
-172
-131
-165
-144
-90
-84
-101
-84
-39
-2
36
108
196
272
327
358
362
339
285
211
142
79
13
-44
-80
-94
-95
-95
-108
-124
-128
-126
-133
-139
-129
-119
-127
-140
-148
-161
-174
-179
-181
-171
-140
-113
-111
-131
-149
-143
-137
-143
-126
-123
-159
-165
-267
-394
289
1774
2146
584
-903
-864
-320
-219
-249
-191
-188
-199
-162
-137
-131
-118
-106
-92
-58
0
70
142
211
264
283
281
258
202
133
69
-7
-73
-85
-93
-143
-165
-124
-95
-109
-119
-119
-119
-106
-86
-73
-65
-73
-86
-75
-68
-95
-116
-101
-86
-83
-58
-27
-38
-72
-75
-61
-70
-59
-26
-61
-94
-100
-289
-166
1159
2591
1968
-27
-869
-400
-97
-153
-105
-54
-75
-55
-46
-65
-57
-53
-36
33
86
107
170
258
316
352
373
359
297
200
122
78
1
-86
-102
-113
-175
-188
-151
-167
-184
-155
-172
-197
-133
-82
-115
-124
-103
-116
-117
-108
-154
-188
-144
-116
-135
-124
-93
-106
-134
-132
-107
-103
-136
-140
-90
-105
-159
-162
-318
-332
762
2297
2017
21
-1133
-751
-288
-263
-226
-157
-166
-154
-118
-96
-74
-57
-36
6
48
100
189
281
344
393
423
411
357
274
181
115
61
-26
-112
-137
-135
-150
-154
-144
-160
-180
-161
-125
-104
-81
-64
-66
-62
-42
-34
-46
-60
-64
-59
-51
-56
-73
-77
-67
-66
-83
-89
-75
-72
-84
-84
-69
-62
-65
-70
-75
-73
-56
-41
-49
-66
-64
-51
-57
-66
-47
-23
-28
-34
-24
-25
-36
-37
-39
-42
-26
-10
-12
2
36
47
30
17
11
-10
-36
-43
-45
-49
-22
-7
-50
-89
-182
-219
566
2151
2604
978
-675
-727
-228
-205
-271
-203
-205
-210
-160
-160
-171
-133
-110
-113
-79
-16
31
76
148
222
266
282
276
242
191
137
82
33
-1
-29
-64
-101
-125
-128
-121
-118
-113
-101
-89
-91
-98
-95
-87
-82
-77
-80
-95
-106
-102
-97
-109
-127
-135
-131
-120
-113
-112
-108
-103
-110
-125
-126
-100
-58
-23
-18
-24
-17
-11
-34
-72
-81
-66
-72
-78
-60
-81
-110
-138
-290
-50
1322
2649
1897
-135
-953
-452
-130
-209
-204
-153
-145
-120
-109
-100
-72
-78
-83
-17
63
97
136
213
297
358
383
379
358
299
196
110
55
-7
-75
-129
-166
-165
-144
-160
-189
-184
-165
-143
-123
-143
-172
-154
-135
-131
-93
-75
-129
-172
-151
-121
-118
-121
-128
-151
-164
-145
-142
-180
-174
-90
-21
-39
-104
-127
-67
-7
-50
-124
-120
-101
-135
-129
-65
-89
-187
-165
-165
-303
189
1668
2422
1068
-746
-1012
-392
-199
-266
-171
-122
-177
-155
-90
-67
-52
-36
-15
51
113
127
197
335
397
395
456
495
403
297
248
171
62
-8
-56
-100
-114
-120
-153
-176
-154
-133
-150
-150
-103
-79
-94
-85
-60
-60
-70
-75
-75
-64
-65
-70
-50
-57
-109
-117
-81
-85
-111
-102
-70
-30
4
0
-16
-14
-24
-51
-72
-92
-88
-63
-74
-98
-85
-80
-81
-149
-251
287
1659
2227
850
-820
-1036
-475
-226
-185
-132
-144
-144
-91
-77
-79
-47
-21
-11
23
82
140
195
261
339
408
439
430
401
336
222
118
58
-4
-62
-79
-109
-165
-169
-147
-178
-194
-144
-124
-153
-136
-91
-103
-130
-98
-62
-83
-111
-93
-81
-126
-168
-152
-127
-132
-129
-126
-150
-140
-71
-39
-57
-50
-33
-55
-75
-76
-96
-124
-126
-126
-127
-101
-102
-145
-146
-202
-194
580
1889
1962
330
-1026
-902
-321
-177
-203
-150
-118
-120
-99
-76
-69
-53
-8
32
47
69
137
230
306
360
407
437
441
410
320
199
117
59
-13
-65
-87
-116
-134
-125
-137
-155
-136
-122
-137
-131
-91
-62
-71
-92
-84
-59
-77
-119
-118
-98
-116
-135
-96
-45
-57
-93
-90
-94
-126
-128
-119
-126
-107
-105
-134
-148
-223
-27
1035
2086
1417
-407
-1214
-730
-262
-207
-193
-152
-140
-121
-104
-95
-71
-49
-39
-5
57
111
161
247
333
364
388
433
413
304
202
141
75
-12
-90
-120
-113
-124
-149
-153
-160
-177
-162
-134
-133
-127
-97
-86
-104
-108
-93
-93
-110
-101
-73
-72
-81
-55
-39
-76
-120
-125
-110
-110
-111
-88
-96
-131
-146
-245
-103
989
2246
1737
-217
-1260
-827
-294
-216
-199
-143
-127
-106
-78
-69
-68
-58
-25
17
44
88
180
276
338
397
451
448
394
340
269
164
65
-6
-66
-116
-152
-169
-163
-162
-183
-194
-183
-168
-150
-133
-135
-143
-120
-89
-95
-126
-130
-109
-97
-84
-54
-46
-83
-129
-140
-124
-123
-132
-112
-115
-160
-154
-211
-266
467
1941
2237
555
-1024
-989
-390
-236
-238
-179
-181
-175
-132
-129
-122
-82
-64
-47
5
58
100
171
272
352
389
401
395
341
241
146
73
-3
-77
-118
-141
-174
-197
-200
-200
-186
-154
-135
-136
-129
-111
-96
-83
-68
-65
-78
-87
-74
-53
-38
-33
-43
-73
-116
-152
-156
-145
-153
-148
-135
-161
-171
-244
-396
168
1798
2667
1271
-675
-1054
-485
-251
-266
-214
-188
-176
-151
-164
-156
-112
-105
-101
-45
20
75
154
252
333
389
430
450
420
326
208
116
46
-31
-103
-132
-132
-150
-176
-180
-172
-166
-154
-145
-146
-137
-115
-105
-113
-123
-117
-108
-105
-94
-79
-72
-73
-95
-129
-137
-133
-133
-109
-116
-164
-157
-268
-338
659
2440
2564
446
-1219
-1004
-363
-263
-257
-178
-183
-184
-142
-118
-102
-91
-81
-36
28
76
130
221
334
431
481
475
429
354
252
142
41
-49
-116
-158
-183
-194
-191
-196
-212
-211
-198
-193
-184
-164
-159
-165
-157
-153
-161
-156
-140
-134
-128
-115
-109
-110
-119
-136
-135
-126
-141
-131
-91
-116
-165
-231
-371
82
1703
2897
1745
-406
-1044
-470
-220
-307
-259
-214
-233
-205
-184
-184
-155
-128
-112
-73
-25
18
82
167
245
306
347
348
296
215
137
60
-13
-72
-119
-157
-176
-179
-176
-176
-179
-176
-162
-152
-150
-140
-125
-122
-121
-112
-116
-136
-141
-114
-58
30
113
120
59
3
-30
-53
-58
-69
-88
-75
-76
-111
-140
-278
-220
937
2608
2498
446
-934
-655
-208
-261
-283
-216
-236
-228
-180
-179
-181
-154
-134
-118
-83
-29
35
104
176
237
279
311
318
272
187
111
51
-13
-73
-105
-120
-138
-151
-148
-146
-152
-146
-129
-128
-136
-128
-116
-119
-119
-106
-105
-117
-122
-130
-153
-162
-139
-112
-101
-92
-80
-76
-90
-110
-101
-82
-90
-92
-77
-102
-126
-198
-347
185
1858
2904
1596
-456
-922
-358
-185
-275
-217
-188
-213
-183
-159
-157
-137
-117
-97
-65
-30
20
91
162
230
298
343
350
325
271
196
117
45
-24
-78
-109
-126
-141
-148
-149
-149
-146
-140
-138
-135
-128
-123
-123
-129
-134
-130
-128
-135
-138
-143
-163
-174
-160
-138
-116
-96
-90
-98
-117
-132
-121
-109
-121
-106
-89
-125
-143
-254
-396
364
2154
2820
1138
-734
-888
-322
-221
-285
-223
-208
-219
-189
-170
-158
-134
-112
-83
-48
-12
44
118
193
263
318
350
361
341
277
195
121
50
-21
-72
-101
-123
-135
-135
-133
-135
-134
-125
-110
-106
-114
-116
-109
-106
-109
-111
-110
-113
-130
-155
-162
-145
-122
-94
-71
-71
-86
-103
-117
-108
-94
-106
-104
-92
-114
-123
-225
-384
283
2013
2795
1267
-626
-883
-339
-216
-277
-212
-195
-215
-184
-161
-153
-127
-103
-88
-60
-13
47
116
192
274
342
381
394
371
307
224
143
67
-3
-62
-103
-123
-129
-134
-140
-141
-134
-125
-123
-123
-117
-111
-105
-99
-102
-114
-121
-133
-157
-164
-141
-115
-96
-83
-78
-87
-108
-127
-118
-107
-128
-121
-85
-111
-151
-234
-390
110
1714
2724
1487
-482
-963
-426
-216
-284
-247
-221
-227
-188
-163
-162
-140
-121
-108
-71
-18
32
93
173
254
315
352
367
349
285
193
107
33
-36
-90
-121
-145
-165
-169
-164
-165
-164
-159
-155
-154
-152
-146
-140
-143
-151
-152
-162
-181
-179
-154
-137
-123
-97
-88
-114
-144
-144
-125
-126
-134
-113
-115
-150
-163
-297
-301
747
2420
2483
562
-877
-690
-230
-249
-275
-208
-224
-223
-178
-170
-167
-133
-101
-76
-42
8
72
142
215
285
337
366
371
330
245
163
102
34
-36
-79
-98
-116
-127
-126
-127
-130
-120
-108
-105
-101
-91
-87
-90
-101
-118
-117
-96
-80
-67
-44
-36
-58
-90
-111
-105
-94
-100
-94
-84
-111
-133
-231
-350
317
1973
2720
1240
-593
-823
-286
-202
-292
-230
-211
-225
-186
-168
-169
-140
-114
-101
-71
-27
23
81
149
220
277
306
310
285
225
143
65
-4
-68
-120
-156
-175
-179
-177
-176
-173
-164
-160
-162
-156
-147
-144
-141
-145
-167
-174
-146
-115
-91
-66
-58
-80
-114
-135
-131
-130
-143
-129
-117
-148
-164
-279
-410
342
2036
2582
905
-851
-922
-342
-229
-269
-204
-204
-218
-173
-147
-143
-120
-87
-49
-2
45
97
162
237
315
378
415
421
387
308
217
142
67
-16
-83
-123
-145
-154
-150
-141
-138
-136
-127
-116
-113
-107
-95
-98
-119
-134
-132
-120
-108
-93
-75
-63
-68
-98
-128
-124
-116
-132
-115
-98
-136
-137
-204
-390
174
1838
2626
1070
-906
-1181
-524
-250
-242
-188
-178
-181
-144
-128
-121
-98
-79
-55
-12
35
85
149
226
304
366
401
410
385
308
204
112
36
-40
-103
-141
-163
-181
-188
-186
-182
-175
-163
-150
-144
-138
-130
-135
-156
-161
-141
-118
-98
-79
-77
-97
-123
-143
-142
-142
-156
-143
-129
-163
-178
-269
-420
218
1895
2674
1185
-696
-965
-402
-250
-311
-257
-237
-244
-206
-186
-178
-146
-120
-100
-62
-14
38
106
182
252
307
345
359
334
266
180
100
27
-39
-91
-126
-149
-157
-159
-164
-163
-152
-144
-137
-123
-115
-115
-114
-121
-135
-126
-96
-76
-65
-52
-53
-71
-94
-107
-104
-110
-115
-90
-92
-124
-132
-273
-310
710
2402
2520
615
-881
-738
-246
-220
-246
-184
-188
-184
-145
-134
-118
-85
-61
-33
12
59
108
177
262
336
385
420
430
387
306
231
159
73
-4
-52
-84
-108
-121
-130
-137
-132
-118
-109
-102
-92
-84
-88
-94
-94
-104
-122
-116
-86
-63
-49
-41
-50
-74
-98
-104
-95
-109
-121
-100
-116
-155
-175
-338
-268
947
2530
2230
189
-1025
-694
-271
-299
-303
-246
-258
-247
-223
-224
-200
-167
-159
-136
-84
-36
14
84
165
232
276
303
307
266
184
95
15
-66
-143
-196
-224
-247
-262
-258
-250
-254
-251
-234
-221
-218
-216
-213
-216
-218
-209
-208
-231
-244
-216
-181
-165
-152
-141
-146
-167
-187
-181
-169
-180
-163
-125
-151
-177
-226
-414
-60
1500
2726
1668
-433
-1103
-542
-228
-257
-202
-160
-179
-145
-104
-95
-73
-35
4
50
95
143
217
311
399
472
534
571
567
517
438
355
281
212
148
96
72
72
74
68
74
98
