# session 20
-122
-117
-125
-47
76
99
52
45
50
24
11
36
71
104
133
134
102
75
68
65
68
72
62
71
83
52
16
-78
-74
801
2409
2707
931
-619
-477
14
-81
-170
-73
-88
-112
-63
-56
-64
-40
-28
-22
0
20
35
63
100
145
198
250
291
321
340
341
308
242
170
98
23
-44
-88
-112
-124
-131
-138
-143
-143
-144
-144
-138
-130
-124
-118
-116
-117
-111
-105
-109
-114
-116
-131
-147
-136
-106
-79
-50
-31
-50
-85
-104
-112
-108
-102
-113
-111
-89
-111
-159
-274
-369
339
2016
2697
1089
-728
-775
-165
-169
-299
-211
-204
-241
-197
-178
-187
-163
-142
-131
-105
-80
-56
-20
26
77
136
196
244
279
299
294
250
181
105
24
-57
-119
-156
-177
-186
-189
-192
-198
-201
-200
-196
-187
-175
-163
-154
-143
-133
-127
-122
-115
-110
-106
-101
-98
-98
-93
-85
-88
-96
-101
-112
-125
-113
-79
-45
-11
9
-13
-53
-67
-71
-73
-65
-68
-70
-48
-63
-101
-152
-280
67
1530
2758
1761
-361
-1016
-378
-100
-234
-201
-151
-189
-168
-136
-142
-126
-100
-90
-74
-51
-30
1
42
87
142
204
260
303
335
355
349
305
235
159
82
5
-60
-101
-123
-135
-142
-143
-139
-132
-127
-122
-114
-105
-100
-99
-97
-95
-98
-101
-101
-114
-133
-128
-100
-76
-50
-25
-33
-65
-87
-95
-93
-85
-97
-101
-77
-90
-130
-209
-385
-32
1476
2673
1611
-454
-988
-331
-101
-242
-202
-161
-199
-169
-138
-148
-132
-106
-96
-79
-54
-30
2
44
93
150
208
255
292
319
326
299
240
164
84
3
-70
-121
-148
-160
-165
-169
-173
-177
-176
-169
-161
-153
-142
-130
-124
-121
-119
-114
-107
-102
-103
-103
-105
-112
-116
-122
-142
-154
-124
-77
-42
-20
-25
-56
-81
-88
-88
-78
-79
-89
-69
-66
-101
-135
-262
-144
1054
2611
2289
190
-1006
-561
-112
-212
-237
-165
-194
-192
-151
-152
-145
-118
-108
-95
-69
-46
-21
16
62
115
173
228
271
305
331
333
296
232
160
80
2
-61
-105
-132
-144
-148
-150
-147
-139
-130
-125
-121
-118
-114
-106
-101
-107
-110
-109
-123
-144
-142
-117
-95
-67
-39
-45
-76
-97
-106
-107
-95
-103
-112
-90
-97
-140
-237
-432
-90
1440
2697
1658
-455
-1028
-350
-99
-248
-213
-170
-209
-176
-139
-149
-136
-109
-98
-79
-53
-27
6
47
92
150
213
264
299
321
327
306
252
174
89
8
-65
-122
-154
-165
-169
-174
-176
-174
-171
-167
-158
-148
-137
-126
-115
-107
-107
-112
-108
-105
-121
-136
-122
-93
-70
-43
-26
-42
-71
-86
-91
-83
-80
-95
-85
-64
-96
-135
-247
-346
405
2064
2548
787
-945
-852
-190
-145
-231
-152
-153
-174
-131
-122
-126
-97
-78
-68
-43
-17
9
44
87
137
198
256
299
334
361
364
327
259
180
99
15
-58
-108
-138
-152
-157
-158
-158
-153
-143
-134
-128
-124
-118
-110
-106
-108
-108
-109
-124
-144
-138
-113
-90
-64
-42
-53
-85
-105
-114
-115
-106
-113
-119
-98
-107
-155
-256
-416
5
1544
2680
1560
-474
-957
-308
-113
-262
-213
-173
-218
-191
-156
-160
-143
-119
-108
-88
-63
-39
-9
28
72
129
188
235
268
292
299
278
226
156
80
3
-65
-115
-144
-155
-156
-159
-162
-160
-154
-149
-143
-136
-133
-126
-119
-120
-122
-119
-129
-149
-145
-115
-85
-55
-31
-36
-65
-85
-92
-90
-84
-96
-99
-77
-94
-141
-239
-403
42
1620
2735
1554
-473
-905
-257
-94
-246
-191
-155
-199
-169
-139
-146
-127
-104
-94
-74
-50
-27
8
47
91
147
205
253
288
314
323
298
242
173
101
25
-46
-96
-124
-138
-146
-151
-154
-152
-147
-138
-131
-126
-120
-114
-112
-109
-105
-99
-95
-97
-104
-106
-118
-141
-142
-105
-65
-41
-29
-42
-71
-90
-99
-97
-87
-93
-96
-73
-87
-130
-212
-353
104
1682
2805
1632
-421
-897
-273
-111
-266
-215
-176
-217
-188
-161
-169
-150
-125
-117
-99
-76
-55
-21
21
63
115
174
223
256
280
296
287
239
170
98
27
-44
-99
-130
-145
-154
-159
-159
-154
-146
-142
-137
-132
-129
-127
-122
-118
-115
-110
-110
-118
-118
-122
-144
-152
-118
-72
-41
-26
-33
-64
-87
-97
-100
-90
-90
-100
-82
-80
-123
-181
-336
-199
1069
2650
2268
159
-948
-464
-84
-235
-249
-168
-204
-203
-160
-161
-153
-126
-116
-103
-77
-54
-26
13
57
106
160
211
252
283
301
296
257
196
127
53
-20
-78
-115
-134
-143
-147
-150
-151
-147
-139
-133
-129
-121
-113
-109
-105
-100
-97
-92
-91
-99
-104
-108
-127
-137
-106
-61
-29
-10
-16
-51
-81
-92
-96
-88
-89
-101
-84
-78
-117
-162
-317
-279
861
2557
2482
439
-906
-559
-108
-215
-255
-176
-202
-208
-167
-168
-162
-133
-121
-109
-85
-65
-41
-5
38
91
148
197
237
273
299
300
268
208
137
62
-11
-74
-118
-141
-149
-157
-166
-167
-161
-159
-156
-148
-145
-141
-130
-120
-118
-117
-119
-124
-129
-128
-126
-136
-151
-140
-102
-65
-40
-33
-54
-82
-94
-97
-91
-83
-97
-99
-73
-86
-119
-191
-351
74
1666
2825
1630
-504
-1030
-369
-132
-245
-194
-160
-196
-167
-138
-140
-118
-94
-83
-58
-32
-11
21
65
113
170
240
309
346
356
366
353
287
203
130
47
-41
-97
-126
-148
-162
-169
-175
-174
-163
-160
-160
-150
-139
-134
-124
-115
-112
-107
-102
-99
-95
-110
-124
-81
-36
-76
-136
-134
-98
-58
-41
-78
-123
-135
-128
-131
-145
-155
-256
-297
531
2124
2409
574
-1014
-796
-143
-92
-151
-135
-189
-178
-154
-213
-198
-109
-63
-8
36
-6
-31
26
84
113
134
181
283
335
275
274
358
294
87
-4
37
-8
-150
-191
-124
-125
-189
-194
-167
-145
-96
-93
-169
-189
-135
-108
-100
-87
-78
-55
-89
-185
-166
-89
-129
-118
32
50
-95
-138
-71
-63
-113
-130
-91
-34
-34
-129
-215
-237
-197
394
1781
2494
1214
-505
-698
-157
-172
-316
-174
-125
-198
-184
-151
-129
-92
-119
-180
-139
-38
-21
-29
61
127
73
86
212
257
220
226
208
134
113
123
34
-119
-195
-193
-162
-100
-85
-166
-231
-234
-212
-114
-27
-104
-170
-87
-69
-142
-105
-53
-91
-60
-13
-128
-212
-105
-31
-56
-15
8
-80
-93
-23
-62
-110
-38
-31
-117
-94
-25
-53
-170
-299
175
1691
2714
1513
-489
-885
-192
-40
-271
-235
-142
-177
-185
-128
-52
-22
-87
-143
-106
-40
13
33
16
55
154
210
264
340
308
235
280
285
152
110
143
6
-156
-142
-136
-216
-214
-167
-175
-161
-114
-106
-123
-142
-157
-142
-129
-140
-135
-107
-99
-113
-102
-59
-60
-136
-184
-165
-148
-137
-94
-53
-42
-49
-71
-94
-105
-108
-98
-94
-109
-103
-91
-117
-132
-211
-235
601
2172
2371
456
-1124
-841
-159
-146
-208
-106
-124
-170
-132
-108
-102
-78
-63
-52
-30
-9
18
54
93
137
190
247
298
331
343
346
326
265
184
108
31
-49
-107
-135
-154
-170
-174
-173
-170
-162
-152
-142
-132
-123
-117
-116
-119
-121
-119
-128
-144
-141
-117
-92
-62
-34
-38
-70
-94
-102
-107
-101
-100
-111
-98
-95
-131
-175
-323
-287
799
2409
2304
318
-933
-536
-85
-176
-185
-129
-198
-198
-150
-164
-146
-104
-118
-108
-51
-32
-29
19
65
83
130
202
244
256
268
264
226
173
114
41
-31
-79
-109
-138
-160
-162
-155
-163
-177
-165
-138
-121
-112
-112
-117
-99
-74
-83
-94
-77
-87
-119
-96
-57
-43
48
172
115
-58
-113
-91
-97
-72
-52
-81
-77
-54
-64
-135
-363
-265
943
2304
1857
99
-729
-359
-96
-209
-243
-193
-180
-165
-152
-150
-136
-126
-124
-118
-106
-82
-52
-29
11
74
120
148
181
208
234
276
277
195
92
30
-23
-93
-137
-131
-140
-194
-194
-127
-133
-207
-197
-130
-122
-136
-118
-115
-132
-126
-107
-104
-99
-73
-35
-7
15
34
13
-56
-98
-68
-44
-75
-84
-59
-75
-81
-94
-256
-112
942
1945
1380
-94
-704
-397
-159
-143
-99
-85
-125
-114
-62
-41
-57
-76
-64
-20
9
-3
-4
43
87
94
106
147
182
190
196
220
239
202
114
38
8
-7
-45
-88
-86
-66
-101
-154
-149
-121
-126
-127
-103
-97
-101
-84
-79
-104
-102
-54
-20
-21
-30
-43
-52
-51
-65
-90
-99
-99
-91
-93
-121
-119
-169
-304
53
1165
1792
930
-329
-635
-311
-140
-135
-117
-123
-155
-153
-125
-107
-106
-107
-95
-75
-54
-39
-19
10
39
71
109
132
152
205
250
223
176
164
128
38
-29
-48
-73
-103
-107
-110
-127
-130
-114
-99
-92
-89
-83
-77
-86
-100
-97
-84
-76
-51
-4
12
-23
-54
-59
-67
-73
-81
-97
-87
-81
-110
-122
-215
-314
263
1498
1878
732
-455
-555
-227
-159
-188
-162
-157
-150
-121
-113
-116
-102
-85
-64
-38
-28
-25
2
37
63
92
125
160
201
217
198
184
174
138
91
48
2
-24
-34
-64
-94
-96
-88
-81
-70
-74
-98
-107
-83
-57
-79
-129
-138
-101
-65
-42
-37
-58
-88
-113
-131
-128
-125
-144
-139
-120
-150
-177
-268
-414
147
1712
2527
1197
-613
-915
-359
-191
-266
-226
-203
-217
-195
-179
-171
-149
-139
-134
-108
-79
-50
-7
36
71
114
170
222
256
277
291
282
234
163
89
12
-61
-112
-142
-159
-163
-159
-158
-157
-150
-144
-141
-136
-136
-148
-153
-134
-106
-77
-41
-27
-53
-87
-107
-122
-125
-119
-134
-133
-104
-126
-190
-326
-440
288
2125
3055
1525
-487
-753
-189
-168
-311
-233
-211
-240
-196
-177
-189
-169
-150
-139
-112
-82
-58
-24
18
59
106
160
209
249
278
283
253
197
127
53
-16
-81
-137
-166
-169
-167
-167
-161
-154
-152
-153
-150
-146
-156
-173
-172
-147
-117
-84
-51
-50
-84
-109
-118
-126
-122
-121
-134
-119
-111
-155
-227
-390
-298
914
2595
2433
362
-907
-502
-82
-228
-261
-171
-205
-211
-164
-167
-170
-143
-132
-122
-98
-76
-51
-15
25
68
118
166
207
242
260
248
207
148
81
10
-57
-108
-141
-158
-160
-157
-156
-147
-129
-124
-131
-130
-128
-140
-147
-129
-96
-60
-23
-9
-32
-64
-84
-95
-91
-86
-103
-104
-83
-108
-177
-339
-475
254
2008
2779
1250
-544
-651
-114
-142
-273
-191
-188
-225
-183
-162
-164
-144
-133
-126
-99
-74
-56
-26
9
44
89
137
174
204
231
242
222
172
109
41
-29
-88
-126
-143
-146
-146
-148
-144
-133
-130
-134
-130
-123
-129
-137
-138
-150
-164
-150
-113
-79
-47
-26
-46
-86
-107
-115
-116
-103
-107
-122
-106
-109
-150
-248
-442
-135
1361
2735
1927
-113
-827
-287
-84
-256
-230
-176
-217
-199
-164
-171
-157
-131
-124
-111
-88
-68
-44
-10
32
75
112
148
186
218
237
240
216
162
97
35
-29
-85
-117
-131
-140
-142
-134
-122
-113
-110
-104
-95
-95
-102
-105
-113
-129
-123
-91
-54
-19
-1
-23
-62
-84
-96
-97
-86
-93
-96
-73
-85
-123
-227
-467
-162
1354
2612
1664
-291
-823
-245
-66
-216
-183
-146
-181
-154
-127
-134
-116
-93
-86
-68
-46
-32
-8
28
65
103
147
186
213
236
263
268
231
173
117
54
-17
-73
-102
-115
-124
-128
-123
-113
-106
-104
-103
-98
-89
-88
-96
-103
-112
-126
-125
-99
-68
-39
-14
-20
-57
-86
-98
-103
-94
-94
-108
-95
-90
-124
-161
-350
-450
517
2225
2387
513
-895
-613
-84
-165
-287
-213
-185
-211
-204
-180
-168
-171
-182
-150
-69
-51
-109
-90
-3
10
-2
56
120
150
172
167
128
97
81
45
-38
-120
-136
-129
-174
-207
-160
-129
-180
-206
-144
-98
-129
-156
-124
-92
-117
-164
-172
-119
-34
17
21
39
49
-15
-99
-110
-86
-84
-68
-22
-25
-57
-38
-102
-98
651
1813
1822
516
-435
-347
-71
-42
-32
-11
-40
-46
-36
-68
-97
-72
-30
-12
-9
4
32
56
64
81
116
142
157
180
209
233
238
197
132
85
49
-3
-59
-81
-69
-73
-121
-160
-154
-141
-140
-130
-124
-134
-132
-119
-130
-136
-95
-51
-41
-31
-25
-64
-114
-107
-86
-115
-129
-97
-110
-120
-106
-278
-289
619
1746
1457
48
-703
-469
-195
-187
-193
-181
-189
-175
-152
-146
-141
-126
-108
-95
-80
-56
-30
-6
27
70
113
148
170
186
208
219
199
153
94
31
-26
-74
-117
-145
-154
-164
-177
-179
-169
-160
-150
-141
-138
-128
-122
-141
-163
-147
-109
-84
-60
-39
-47
-76
-95
-104
-107
-111
-115
-96
-92
-129
-157
-302
-459
292
1997
2535
842
-861
-817
-186
-125
-209
-135
-124
-143
-100
-78
-78
-53
-32
-24
0
35
63
94
133
176
223
271
304
327
351
365
343
287
221
150
71
-3
-54
-81
-95
-106
-115
-113
-103
-94
-94
-98
-99
-98
-106
-119
-117
-98
-77
-45
-11
-22
-75
-104
-107
-123
-134
-138
-141
-121
-124
-171
-251
-423
-205
1133
2474
1696
-420
-1155
-437
-71
-232
-217
-144
-184
-172
-137
-149
-136
-110
-104
-86
-55
-21
22
62
106
175
212
182
167
220
270
265
226
182
115
10
-94
-147
-160
-166
-175
-186
-196
-193
-182
-168
-156
-160
-175
-185
-187
-175
-141
-108
-89
-65
-47
-67
-106
-132
-141
-146
-157
-158
-135
-135
-147
-198
-458
-436
862
2511
2089
-67
-1119
-554
-132
-261
-265
-188
-223
-214
-171
-171
-161
-138
-134
-118
-94
-76
-38
20
62
99
151
205
250
296
330
321
267
199
129
55
-10
-47
-73
-103
-121
-116
-111
-111
-98
-79
-69
-51
-18
-13
-46
-62
-30
18
51
