# session 32
-91
-112
-49
11
-113
-335
-396
-339
-344
-357
-296
-227
-193
-186
-211
-237
-232
-224
-215
-188
-190
-216
-185
-154
-183
-181
-273
-381
422
2108
2521
788
-797
-692
-130
-110
-186
-125
-122
-131
-101
-94
-91
-67
-51
-41
-26
-10
11
32
46
68
100
130
156
191
231
260
277
298
321
335
331
289
206
123
61
-1
-58
-83
-93
-108
-109
-90
-81
-92
-94
-79
-73
-84
-85
-75
-75
-82
-79
-77
-86
-93
-86
-82
-90
-93
-81
-81
-102
-108
-83
-47
-8
17
-6
-59
-82
-80
-91
-84
-59
-84
-108
-73
-80
-112
-135
-309
-96
1313
2636
1761
-322
-1018
-405
-79
-161
-136
-100
-127
-105
-80
-93
-89
-73
-65
-60
-51
-33
-9
6
19
42
70
101
133
164
193
218
239
262
281
283
258
195
110
32
-39
-105
-141
-150
-159
-166
-155
-144
-150
-152
-140
-130
-134
-140
-134
-125
-127
-133
-140
-144
-140
-134
-136
-144
-145
-141
-137
-134
-142
-159
-151
-100
-47
-31
-55
-94
-116
-112
-109
-112
-108
-117
-119
-85
-89
-122
-159
-327
-134
1220
2612
1925
-92
-888
-368
-78
-183
-160
-119
-155
-134
-105
-114
-100
-80
-87
-82
-59
-43
-31
-9
22
45
56
82
128
157
168
194
228
246
255
268
261
206
119
41
-14
-64
-106
-127
-132
-136
-134
-129
-130
-124
-107
-108
-126
-128
-113
-109
-111
-111
-116
-116
-105
-106
-123
-128
-117
-112
-115
-125
-135
-114
-52
-5
-16
-60
-86
-88
-96
-110
-101
-93
-105
-90
-72
-103
-109
-189
-343
276
1913
2630
1132
-630
-751
-159
-66
-167
-124
-115
-137
-112
-97
-98
-88
-67
-44
-39
-51
-39
-4
19
32
57
90
120
147
181
216
235
244
264
285
276
232
166
90
13
-54
-103
-133
-151
-157
-149
-138
-141
-151
-145
-131
-129
-134
-130
-124
-120
-119
-125
-138
-142
-134
-128
-129
-134
-137
-133
-123
-123
-144
-149
-107
-47
-20
-36
-76
-101
-96
-100
-118
-112
-105
-106
-86
-100
-138
-123
-256
-306
738
2411
2357
337
-1004
-652
-130
-140
-157
-100
-122
-117
-91
-106
-94
-58
-61
-71
-49
-24
-13
5
30
50
80
125
154
163
190
237
268
287
310
319
296
244
171
87
3
-67
-114
-134
-142
-150
-155
-151
-135
-120
-126
-138
-129
-114
-118
-124
-114
-101
-109
-128
-130
-119
-118
-128
-130
-124
-125
-126
-119
-123
-139
-132
-93
-57
-32
-20
-45
-85
-94
-96
-111
-100
-85
-107
-104
-76
-100
-123
-212
-339
317
1975
2683
1163
-613
-740
-168
-95
-188
-134
-132
-147
-103
-102
-126
-100
-76
-83
-79
-57
-39
-27
-7
20
42
60
89
127
159
189
218
240
256
265
258
226
168
91
16
-43
-90
-129
-146
-147
-150
-147
-138
-140
-143
-131
-124
-126
-116
-107
-119
-127
-112
-102
-112
-124
-119
-114
-119
-117
-102
-105
-125
-123
-104
-112
-137
-128
-75
-23
-3
-19
-52
-79
-88
-94
-92
-76
-83
-97
-74
-79
-116
-119
-255
-231
887
2493
2329
366
-837
-483
-62
-137
-167
-104
-123
-133
-112
-112
-103
-79
-68
-62
-54
-42
-21
-1
11
26
53
83
118
156
186
208
231
254
277
296
279
215
137
71
3
-64
-109
-132
-144
-149
-150
-151
-144
-135
-136
-137
-126
-119
-129
-138
-130
-120
-120
-125
-126
-126
-130
-133
-122
-111
-121
-140
-132
-111
-111
-124
-125
-127
-133
-109
-56
-7
8
-30
-88
-100
-83
-92
-100
-84
-88
-87
-67
-95
-115
-172
-354
90
1716
2783
1506
-514
-923
-293
-80
-166
-129
-111
-136
-113
-97
-99
-82
-67
-61
-53
-39
-19
-1
11
35
69
96
124
165
198
221
250
282
308
327
328
293
219
121
37
-22
-80
-135
-156
-155
-165
-172
-158
-144
-147
-147
-136
-129
-128
-118
-106
-107
-115
-114
-114
-121
-126
-125
-128
-131
-120
-115
-126
-121
-99
-105
-125
-120
-119
-140
-131
-76
-26
-6
-14
-50
-80
-80
-88
-104
-92
-86
-101
-80
-76
-113
-132
-258
-212
914
2534
2379
385
-852
-492
-63
-146
-181
-120
-138
-139
-114
-115
-103
-87
-89
-78
-59
-50
-36
-15
3
24
50
77
112
151
181
206
231
250
268
285
276
225
152
74
1
-56
-97
-132
-150
-147
-147
-156
-149
-139
-144
-144
-131
-124
-124
-118
-114
-114
-110
-110
-120
-124
-116
-113
-120
-125
-119
-113
-114
-114
-105
-102
-108
-105
-103
-121
-128
-86
-29
0
1
-21
-57
-80
-84
-86
-77
-78
-94
-76
-57
-96
-113
-198
-304
439
2114
2658
1016
-655
-660
-121
-100
-178
-116
-127
-150
-109
-98
-104
-85
-75
-75
-58
-37
-23
-9
3
19
48
82
110
141
176
207
234
257
279
300
299
253
176
99
28
-37
-90
-125
-143
-152
-153
-148
-145
-146
-139
-132
-137
-138
-129
-125
-132
-134
-127
-123
-128
-129
-127
-129
-129
-124
-127
-135
-132
-121
-114
-111
-111
-110
-112
-127
-136
-105
-49
-13
-8
-25
-58
-86
-100
-109
-96
-78
-96
-99
-72
-96
-112
-160
-323
159
1796
2779
1391
-624
-949
-288
-86
-160
-110
-106
-133
-97
-88
-101
-77
-60
-61
-40
-16
-15
-10
19
52
74
96
128
169
206
237
271
309
332
337
332
300
224
127
41
-28
-87
-133
-156
-162
-169
-174
-164
-153
-153
-151
-140
-133
-129
-120
-118
-127
-128
-120
-121
-127
-129
-129
-127
-121
-119
-123
-127
-128
-124
-123
-138
-141
-107
-60
-30
-13
-25
-74
-106
-99
-94
-98
-95
-105
-103
-84
-101
-113
-175
-353
86
1678
2754
1552
-417
-844
-256
-78
-183
-145
-133
-163
-127
-105
-117
-100
-83
-86
-74
-49
-39
-35
-15
14
36
58
92
131
162
189
222
253
267
275
283
261
193
113
42
-27
-86
-113
-125
-143
-154
-150
-144
-143
-140
-137
-133
-126
-120
-116
-111
-111
-114
-110
-107
-112
-117
-119
-122
-122
-117
-113
-115
-115
-104
-104
-126
-129
-88
-42
-19
-13
-28
-64
-84
-84
-86
-79
-72
-97
-98
-62
-81
-112
-162
-316
86
1614
2703
1575
-365
-819
-253
-72
-171
-136
-125
-155
-122
-101
-108
-94
-78
-73
-65
-55
-41
-23
-10
6
35
64
91
120
151
182
212
235
253
274
280
248
183
112
41
-29
-84
-120
-141
-148
-148
-151
-149
-135
-128
-139
-143
-131
-125
-127
-128
-126
-125
-120
-116
-121
-123
-120
-122
-125
-125
-125
-122
-116
-115
-128
-133
-103
-50
-8
0
-30
-73
-93
-92
-93
-84
-75
-99
-101
-72
-92
-112
-160
-335
57
1601
2690
1529
-434
-870
-264
-65
-166
-122
-103
-144
-117
-92
-104
-92
-70
-67
-56
-34
-22
-14
6
27
49
83
122
150
174
206
240
266
287
305
309
277
207
127
52
-22
-85
-124
-143
-155
-160
-157
-149
-142
-141
-142
-140
-134
-129
-129
-135
-138
-134
-128
-128
-137
-142
-138
-135
-136
-137
-133
-130
-131
-142
-143
-109
-53
-20
-32
-70
-97
-100
-104
-112
-101
-101
-118
-91
-74
-116
-115
-206
-343
426
2136
2571
761
-931
-839
-206
-111
-148
-92
-112
-130
-94
-86
-88
-70
-60
-55
-39
-23
-8
12
36
57
75
100
135
170
206
247
279
295
319
345
329
265
189
109
24
-49
-99
-129
-144
-154
-160
-154
-145
-144
-139
-127
-124
-128
-126
-120
-120
-121
-119
-118
-122
-129
-130
-123
-123
-130
-130
-122
-123
-137
-145
-135
-101
-53
-23
-29
-58
-83
-92
-101
-108
-94
-91
-109
-90
-79
-118
-124
-218
-318
493
2196
2636
899
-733
-673
-128
-116
-192
-130
-138
-157
-122
-114
-117
-98
-87
-81
-69
-61
-50
-30
-11
9
36
61
90
128
158
180
206
229
251
272
266
219
154
86
15
-46
-89
-126
-152
-151
-142
-144
-145
-140
-135
-134
-133
-129
-120
-118
-125
-124
-118
-121
-126
-122
-121
-128
-131
-126
-121
-117
-123
-137
-130
-83
-31
-16
-39
-74
-93
-98
-105
-101
-86
-98
-108
-79
-87
-117
-132
-291
-166
1115
2598
2091
63
-900
-423
-53
-144
-161
-121
-145
-131
-101
-100
-86
-73
-78
-68
-49
-40
-25
-2
17
40
66
91
120
156
193
222
240
254
274
286
265
204
131
61
-9
-73
-111
-128
-146
-156
-146
-138
-144
-144
-132
-128
-129
-123
-117
-123
-137
-139
-122
-109
-120
-138
-134
-125
-128
-129
-120
-118
-130
-142
-123
-71
-23
-12
-38
-82
-105
-98
-100
-108
-93
-95
-112
-89
-87
-111
-123
-294
-239
1004
2604
2199
61
-1052
-550
-92
-159
-169
-110
-134
-128
-94
-94
-91
-78
-75
-63
-42
-31
-21
2
31
54
74
104
142
181
217
245
267
294
325
332
295
228
153
71
-12
-77
-121
-151
-169
-172
-167
-164
-160
-147
-134
-136
-143
-134
-121
-119
-123
-123
-123
-122
-126
-128
-123
-120
-128
-129
-117
-118
-135
-148
-140
-104
-49
-16
-25
-58
-87
-96
-101
-107
-95
-90
-106
-89
-76
-112
-117
-213
-334
441
2165
2681
959
-736
-707
-135
-107
-193
-133
-130
-144
-117
-116
-115
-91
-80
-77
-64
-53
-40
-23
-8
11
37
60
89
130
166
188
209
234
257
275
272
231
159
80
10
-47
-94
-131
-145
-143
-144
-148
-146
-140
-136
-133
-128
-119
-111
-111
-113
-111
-111
-114
-114
-112
-113
-115
-117
-121
-121
-114
-110
-112
-110
-116
-133
-119
-66
-18
-4
-19
-57
-85
-82
-83
-92
-81
-80
-86
-71
-88
-115
-137
-297
-110
1248
2675
2023
-21
-875
-367
-58
-169
-157
-108
-147
-142
-112
-109
-94
-80
-85
-77
-57
-47
-35
-13
7
29
54
75
101
141
180
204
225
251
272
277
257
203
130
56
-11
-67
-106
-132
-146
-149
-148
-150
-147
-141
-140
-138
-128
-121
-124
-122
-114
-116
-122
-118
-111
-113
-117
-112
-113
-120
-119
-111
-110
-116
-112
-97
-90
-105
-122
-109
-62
-14
6
-11
-49
-73
-73
-74
-76
-72
-88
-96
-65
-78
-118
-128
-285
-207
1050
2634
2238
170
-890
-435
-57
-153
-162
-114
-144
-128
-97
-109
-96
-68
-72
-77
-60
-40
-21
0
18
40
66
90
117
159
208
240
249
262
292
315
297
236
158
74
-3
-64
-114
-151
-163
-160
-155
-148
-146
-155
-154
-142
-137
-138
-134
-129
-131
-137
-135
-131
-134
-137
-132
-127
-133
-135
-121
-113
-126
-136
-121
-105
-119
-142
-130
-82
-38
-20
-26
-54
-80
-87
-98
-113
-101
-92
-106
-86
-72
-108
-107
-209
-346
465
2229
2664
795
-939
-836
-190
-110
-165
-109
-115
-120
-86
-90
-90
-65
-61
-62
-39
-20
-13
3
29
54
81
113
148
183
217
256
295
321
338
353
347
293
204
116
40
-38
-108
-145
-158
-169
-172
-164
-160
-161
-157
-151
-145
-134
-123
-122
-126
-122
-111
-107
-117
-128
-130
-128
-127
-124
-121
-121
-120
-116
-112
-114
-112
-101
-108
-130
-125
-84
-40
-11
-2
-25
-60
-76
-85
-95
-83
-76
-100
-94
-65
-95
-119
-181
-323
220
1883
2858
1510
-450
-796
-212
-76
-190
-151
-135
-157
-126
-114
-121
-103
-90
-91
-80
-64
-53
-36
-17
0
22
48
78
113
147
181
214
243
264
283
290
262
191
106
30
-35
-90
-127
-147
-155
-157
-159
-160
-157
-153
-151
-145
-138
-133
-125
-115
-112
-117
-120
-122
-124
-121
-119
-122
-123
-122
-126
-123
-111
-108
-115
-113
-104
-103
-116
-127
-114
-75
-30
-2
-1
-27
-55
-64
-71
-85
-80
-72
-89
-79
-60
-96
-117
-192
-315
341
2032
2795
1285
-536
-709
-158
-91
-185
-130
-128
-152
-118
-107
-106
-83
-81
-85
-63
-46
-42
-25
2
22
44
70
95
127
165
198
224
249
273
290
289
255
190
115
37
-38
-89
-118
-140
-153
-153
-153
-155
-146
-135
-134
-134
-129
-124
-119
-114
-113
-112
-112
-112
-108
-108
-117
-119
-113
-114
-120
-119
-113
-109
-107
-104
-102
-103
-101
-97
-110
-123
-98
-45
-13
-2
-1
-26
-64
-78
-80
-87
-76
-73
-87
-68
-66
-102
-106
-229
-250
790
2478
2515
570
-799
-521
-58
-124
-181
-123
-136
-138
-107
-110
-107
-84
-74
-68
-59
-47
-29
-12
-1
21
52
77
104
145
185
215
246
277
292
294
287
252
181
95
13
-63
-123
-151
-161
-171
-176
-167
-160
-162
-159
-154
-154
-156
-153
-147
-144
-148
-152
-148
-147
-151
-151
-144
-144
-149
-149
-145
-143
-140
-136
-129
-128
-143
-149
-119
-73
-41
-29
-42
-77
-105
-112
-115
-107
-94
-111
-113
-78
-99
-128
-144
-318
-89
1367
2741
1871
-257
-997
-397
-76
-166
-140
-101
-136
-118
-87
-88
-78
-68
-68
-55
-39
-25
-1
22
32
49
82
113
141
180
225
254
270
294
320
323
297
241
159
76
6
-54
-99
-125
-135
-136
-130
-129
-130
-123
-111
-105
-100
-92
-87
-86
-84
-77
-75
-83
-89
-84
-81
-84
-87
-82
-78
-81
-81
-73
-67
-71
-72
-68
-77
-87
-61
-12
21
32
19
-16
-42
-44
-52
-58
-49
-60
-67
-40
-54
-84
-108
-264
-30
1370
2728
1962
-70
-837
-313
-35
-151
-140
-100
-135
-123
-95
-97
-92
-83
-81
-68
-54
-45
-32
-17
-1
20
42
65
94
127
155
180
201
218
236
246
226
174
101
22
-51
-113
-160
-187
-200
-208
-206
-200
-205
-207
-199
-194
-196
-191
-186
-190
-193
-192
-190
-191
-196
-200
-197
-199
-205
-205
-201
-199
-195
-189
-196
-210
-201
-160
-111
-84
-86
-115
-148
-157
-159
-165
-152
-144
-158
-139
-121
-148
-147
-248
-372
414
2124
2597
871
-782
-724
-144
-101
-178
-122
-120
-122
-81
-78
-77
-35
-14
-22
-7
22
42
65
99
128
151
187
238
281
305
336
383
420
441
462
465
431
371
297
210
138
95
64
