# session 23
-33
-44
-1
-20
-177
-323
-336
-313
-329
-323
-280
-241
-204
-178
-189
-214
-220
-218
-209
-195
-199
-192
-164
-174
-194
-255
-374
136
1684
2565
1170
-775
-975
-234
-91
-241
-171
-136
-174
-138
-112
-119
-97
-74
-65
-45
-25
-7
23
56
87
125
170
211
244
271
294
311
305
262
194
119
42
-29
-81
-111
-127
-135
-138
-134
-125
-118
-113
-105
-98
-95
-87
-83
-91
-100
-105
-117
-129
-116
-84
-50
-23
-23
-51
-75
-84
-86
-77
-79
-91
-73
-68
-99
-121
-244
-225
797
2338
2177
143
-1089
-572
-24
-137
-187
-96
-128
-142
-97
-99
-102
-76
-65
-53
-30
-13
5
31
59
92
133
172
207
238
262
282
292
268
208
134
59
-17
-83
-126
-152
-165
-168
-164
-160
-157
-152
-143
-135
-134
-131
-128
-133
-142
-147
-158
-173
-166
-139
-107
-75
-62
-84
-113
-125
-127
-121
-117
-128
-118
-102
-126
-143
-230
-332
357
1935
2403
689
-981
-820
-120
-102
-218
-133
-130
-160
-117
-105
-112
-86
-69
-64
-44
-25
-9
20
54
85
118
157
195
226
250
272
288
275
225
155
82
9
-59
-109
-135
-148
-158
-161
-154
-144
-139
-134
-126
-120
-115
-111
-114
-117
-119
-133
-150
-144
-116
-83
-50
-40
-64
-92
-102
-106
-100
-96
-105
-94
-79
-105
-126
-233
-328
420
2007
2373
596
-999
-767
-89
-99
-214
-131
-124
-145
-110
-104
-104
-77
-69
-62
-37
-19
-5
24
55
84
120
157
191
221
243
262
280
275
229
157
83
12
-51
-100
-131
-147
-154
-155
-152
-144
-136
-130
-124
-119
-112
-108
-113
-121
-124
-135
-153
-148
-117
-82
-49
-36
-59
-92
-108
-113
-106
-101
-111
-100
-86
-111
-133
-245
-380
303
1932
2493
845
-846
-767
-119
-103
-219
-141
-140
-170
-129
-116
-121
-97
-86
-82
-58
-38
-25
-1
31
62
93
125
157
186
210
234
258
255
211
146
78
6
-60
-109
-137
-149
-153
-156
-155
-150
-140
-129
-123
-116
-104
-100
-109
-111
-113
-131
-137
-110
-77
-51
-29
-37
-71
-91
-94
-95
-91
-100
-105
-81
-88
-121
-166
-335
-168
1111
2445
1714
-373
-1140
-445
-39
-163
-157
-97
-136
-125
-89
-97
-90
-66
-57
-44
-23
-7
16
47
78
110
150
191
222
245
268
291
295
263
199
122
44
-30
-90
-128
-150
-164
-170
-169
-160
-151
-142
-134
-129
-127
-125
-126
-125
-124
-136
-153
-146
-119
-89
-57
-38
-58
-92
-107
-110
-106
-103
-112
-105
-91
-110
-130
-236
-372
269
1876
2502
897
-864
-833
-136
-84
-214
-138
-129
-166
-127
-108
-115
-95
-76
-64
-45
-30
-16
9
39
70
104
138
171
201
224
242
257
252
212
147
73
-2
-67
-113
-140
-154
-160
-162
-159
-154
-147
-138
-127
-121
-118
-118
-120
-121
-129
-148
-152
-127
-95
-63
-38
-45
-78
-100
-106
-102
-94
-103
-106
-82
-91
-124
-185
-361
-100
1299
2555
1640
-424
-1024
-320
-30
-195
-172
-118
-161
-140
-106
-114
-98
-75
-76
-64
-40
-20
4
28
52
90
135
171
198
220
239
262
271
240
178
113
43
-34
-93
-124
-138
-145
-148
-151
-145
-130
-124
-126
-122
-112
-103
-99
-101
-107
-119
-131
-126
-104
-80
-51
-29
-41
-75
-94
-101
-101
-94
-104
-109
-86
-97
-127
-172
-332
-65
1315
2500
1483
-638
-1225
-456
-76
-180
-154
-107
-140
-117
-91
-100
-83
-57
-49
-33
-12
9
40
73
102
135
177
222
263
291
311
331
331
286
209
125
42
-38
-103
-144
-163
-172
-180
-184
-177
-169
-166
-157
-142
-134
-132
-128
-126
-130
-138
-149
-150
-138
-119
-88
-56
-59
-91
-110
-114
-117
-109
-108
-112
-97
-100
-122
-163
-313
-126
1155
2545
1929
-133
-995
-388
-32
-199
-203
-131
-173
-164
-118
-121
-113
-89
-84
-74
-51
-35
-20
3
32
67
102
136
170
196
214
231
240
216
159
92
24
-46
-102
-133
-148
-154
-155
-155
-154
-151
-146
-140
-135
-130
-124
-118
-119
-125
-127
-135
-152
-153
-128
-93
-55
-28
-38
-70
-90
-95
-90
-84
-94
-92
-70
-85
-111
-179
-340
73
1602
2664
1456
-550
-920
-217
-40
-204
-154
-115
-156
-126
-101
-115
-99
-76
-72
-57
-33
-15
5
32
63
97
135
172
205
228
249
269
269
231
167
93
16
-53
-102
-133
-150
-160
-165
-166
-163
-158
-151
-142
-133
-126
-118
-114
-110
-105
-108
-115
-119
-132
-147
-139
-113
-83
-49
-31
-52
-85
-101
-104
-98
-95
-108
-98
-80
-104
-122
-219
-356
311
1988
2646
983
-849
-842
-146
-96
-226
-151
-141
-174
-137
-123
-131
-108
-88
-75
-52
-37
-26
5
39
66
100
143
182
216
250
277
289
283
248
178
97
21
-54
-116
-145
-157
-170
-174
-168
-167
-162
-150
-141
-136
-127
-119
-117
-111
-101
-102
-110
-116
-126
-136
-129
-111
-92
-62
-41
-62
-97
-104
-99
-100
-108
-117
-95
-80
-115
-119
-175
-285
362
1956
2481
704
-1161
-1104
-292
-110
-176
-107
-102
-126
-87
-71
-71
-49
-36
-29
-7
12
30
61
96
130
172
219
260
298
331
353
364
350
296
216
130
47
-31
-92
-131
-152
-164
-172
-177
-177
-171
-159
-148
-141
-135
-127
-119
-114
-113
-117
-121
-131
-152
-160
-144
-120
-92
-64
-64
-93
-114
-121
-123
-114
-116
-125
-103
-103
-129
-143
-268
-153
1047
2526
2033
-122
-1160
-538
-56
-184
-207
-130
-164
-160
-118
-125
-117
-87
-81
-71
-46
-29
-11
18
49
84
129
171
208
242
269
288
294
266
201
123
49
-24
-89
-134
-156
-166
-170
-170
-169
-168
-164
-157
-149
-142
-135
-131
-127
-120
-116
-119
-122
-128
-146
-157
-144
-114
-80
-48
-41
-67
-93
-101
-101
-93
-93
-100
-83
-77
-102
-117
-229
-194
863
2496
2439
383
-992
-577
-41
-159
-225
-132
-156
-165
-115
-117
-121
-94
-83
-75
-53
-36
-22
5
40
77
113
150
192
231
255
275
294
278
213
135
66
-9
-85
-135
-153
-159
-165
-173
-172
-164
-159
-151
-135
-129
-140
-143
-132
-122
-120
-116
-111
-109
-111
-113
-125
-144
-146
-122
-90
-59
-41
-55
-82
-96
-102
-95
-84
-97
-96
-75
-98
-105
-130
-247
241
1790
2635
1117
-964
-1210
-384
-95
-168
-113
-91
-116
-84
-73
-84
-60
-37
-30
-12
12
38
66
87
116
169
226
269
310
350
377
392
384
331
246
156
63
-30
-99
-139
-163
-179
-189
-194
-193
-188
-182
-177
-169
-158
-148
-141
-138
-137
-137
-138
-140
-141
-152
-168
-173
-159
-136
-104
-78
-84
-110
-126
-132
-130
-121
-128
-128
-104
-118
-138
-151
-273
8
1384
2578
1573
-562
-1171
-416
-66
-205
-185
-128
-166
-147
-111
-117
-106
-84
-76
-63
-42
-22
4
33
63
101
147
195
237
268
293
312
312
276
210
132
50
-26
-86
-125
-146
-152
-153
-153
-153
-152
-145
-135
-128
-123
-115
-111
-110
-102
-94
-93
-96
-95
-88
-66
-29
-24
-56
-43
28
30
-50
-92
-80
-76
-73
-84
-98
-53
-18
-51
-98
-185
82
1360
2621
1862
-165
-880
-263
-15
-222
-208
-143
-195
-182
-134
-138
-139
-125
-112
-96
-91
-91
-76
-51
-27
2
29
50
77
109
134
150
163
162
132
75
13
-41
-83
-117
-143
-156
-156
-151
-146
-143
-139
-135
-127
-113
-98
-97
-105
-111
-120
-130
-119
-105
-120
-139
-120
-83
-56
-28
-10
-24
-53
-73
-79
-71
-68
-71
-50
-47
-101
-108
-138
-277
155
1577
2430
1244
-528
-864
-288
-91
-177
-148
-129
-154
-135
-118
-120
-103
-87
-84
-70
-52
-37
-11
17
38
64
102
137
165
190
212
235
247
226
175
113
48
-17
-71
-108
-133
-146
-147
-146
-153
-154
-139
-123
-116
-113
-109
-100
-94
-97
-102
-105
-114
-124
-114
-81
-43
-23
-37
-67
-87
-100
-104
-90
-86
-101
-86
-75
-101
-107
-203
-264
572
2167
2368
424
-1210
-966
-227
-110
-151
-90
-106
-121
-76
-62
-61
-40
-28
-19
3
21
42
72
100
130
176
225
261
292
325
354
366
336
269
187
97
-1
-79
-128
-161
-183
-188
-192
-201
-202
-190
-178
-170
-160
-152
-147
-140
-135
-141
-153
-155
-143
-127
-104
-80
-74
-91
-116
-134
-132
-117
-124
-134
-111
-113
-142
-141
-268
-234
868
2393
2052
-82
-1244
-670
-110
-183
-211
-135
-166
-165
-120
-122
-118
-88
-79
-74
-46
-21
-4
24
63
104
149
195
237
274
301
318
322
295
227
141
58
-19
-85
-128
-153
-166
-169
-170
-174
-171
-161
-151
-145
-135
-123
-124
-134
-137
-137
-146
-145
-122
-91
-64
-54
-64
-82
-100
-110
-102
-94
-105
-99
-88
-108
-108
-181
-312
302
1893
2529
916
-895
-898
-172
-77
-199
-129
-114
-147
-110
-89
-94
-74
-60
-59
-43
-22
-3
18
44
77
117
157
197
234
260
283
298
285
235
165
85
5
-61
-109
-143
-160
-163
-162
-161
-154
-147
-148
-149
-140
-135
-140
-144
-150
-162
-166
-146
-112
-75
-50
-55
-83
-106
-115
-113
-110
-120
-118
-92
-106
-137
-177
-340
-112
1260
2576
1735
-361
-1043
-352
-34
-196
-179
-118
-158
-143
-112
-120
-108
-86
-80
-66
-46
-30
-6
19
47
87
133
171
208
239
263
281
280
242
176
101
23
-51
-105
-138
-155
-161
-162
-162
-158
-150
-147
-149
-144
-135
-139
-146
-142
-144
-155
-147
-118
-83
-48
-36
-63
-96
-109
-111
-102
-102
-114
-97
-87
-119
-144
-283
-362
559
2249
2414
451
-1020
-657
-58
-139
-221
-132
-151
-169
-123
-120
-124
-96
-80
-71
-52
-37
-18
15
47
75
110
154
193
224
252
277
287
266
215
149
70
-14
-80
-117
-140
-155
-159
-157
-153
-147
-145
-144
-140
-137
-140
-134
-131
-145
-150
-126
-95
-65
-32
-33
-74
-108
-116
-110
-102
-114
-119
-85
-91
-140
-184
-369
-316
877
2392
1964
-95
-1082
-504
-63
-171
-178
-111
-150
-145
-98
-98
-95
-74
-65
-53
-31
-14
3
25
50
86
129
161
181
207
235
255
259
239
189
119
44
-26
-79
-114
-140
-154
-158
-159
-153
-142
-136
-130
-120
-116
-116
-117
-132
-144
-119
-84
-61
-31
-18
-50
-83
-94
-104
-103
-96
-106
-100
-86
-110
-145
-289
-405
404
2088
2498
744
-822
-640
-71
-124
-220
-141
-151
-164
-121
-126
-131
-96
-84
-91
-74
-50
-34
-16
11
45
74
97
123
146
155
170
194
193
154
100
39
-31
-89
-121
-144
-158
-156
-153
-151
-137
-125
-129
-127
-116
-114
-119
-122
-127
-121
-106
-82
-42
-7
-22
-69
-92
-90
-90
-96
-109
-104
-79
-94
-125
-180
-371
-175
1149
2465
1756
-196
-908
-335
-45
-182
-174
-125
-156
-139
-113
-125
-113
-89
-86
-76
-57
-42
-23
2
28
55
85
113
138
161
183
205
217
202
156
92
28
-32
-85
-119
-132
-137
-142
-140
-130
-124
-125
-122
-111
-103
-101
-97
-102
-115
-107
-76
-44
-12
5
-21
-61
-80
-85
-82
-81
-96
-93
-75
-97
-121
-224
-428
38
1596
2509
1217
-620
-863
-229
-86
-203
-154
-135
-168
-138
-115
-122
-107
-90
-82
-65
-49
-34
-6
22
42
70
108
141
166
188
206
225
230
201
143
75
6
-56
-101
-132
-148
-155
-159
-161
-157
-150
-142
-131
-124
-122
-112
-109
-125
-131
-101
-62
-35
-17
-22
-56
-84
-94
-93
-85
-93
-106
-87
-89
-124
-165
-348
-324
811
2379
2140
154
-973
-518
-68
-161
-193
-133
-160
-157
-122
-129
-126
-103
-96
-85
-62
-44
-25
-2
22
52
89
123
153
177
197
219
236
221
168
98
27
-42
-98
-135
-157
-170
-174
-174
-168
-153
-141
-140
-136
-125
-116
-113
-121
-129
-115
-82
-49
-15
-1
-29
-71
-89
-88
-79
-80
-93
-81
-71
-105
-127
-246
-388
339
1997
2472
695
-1047
-941
-214
-102
-177
-114
-113
-135
-100
-86
-86
-70
-60
-46
-24
-10
8
38
65
95
138
183
222
251
274
298
312
293
233
156
73
-12
-83
-129
-154
-171
-181
-186
-184
-179
-178
-175
-162
-151
-149
-144
-143
-158
-160
-133
-102
-76
-53
-57
-89
-113
-124
-125
-116
-123
-134
-113
-118
-150
-190
-363
-213
1121
2632
2037
-129
-1076
-460
-55
-195
-201
-131
-167
-153
-114
-127
-121
-91
-85
-78
-51
-30
-14
8
39
82
127
164
195
225
253
278
284
251
185
108
28
-46
-98
-129
-149
-159
-157
-157
-161
-158
-148
-138
-139
-143
-138
-136
-151
-161
-134
-95
-67
-43
-36
-60
-90
-105
-105
-96
-104
-119
-98
-95
-129
-164
-323
-248
956
2537
2182
67
-1035
-484
-34
-175
-201
-119
-154
-158
-120
-125
-117
-89
-82
-76
-59
-44
-22
6
34
69
109
148
186
217
242
266
270
229
158
81
-3
-82
-135
-166
-185
-191
-188
-188
-188
-184
-180
-177
-170
-168
-171
-167
-165
-180
-188
-168
-132
-95
-64
-66
-98
-124
-136
-136
-125
-130
-138
-117
-120
-154
-204
-370
-170
1189
2612
1900
-234
-1045
-388
-44
-211
-202
-132
-173
-158
-116
-126
-119
-96
-89
-74
-49
-32
-16
10
44
83
124
163
201
233
258
280
289
257
191
118
44
-32
-88
-113
-126
-134
-133
-133
-137
-133
-123
-115
-108
-104
-100
-94
-97
-111
-112
-87
-52
-14
13
2
-33
-59
-70
-67
-58
-68
-67
-47
-69
-99
-170
-339
78
1622
2667
1420
-582
-921
-207
-24
-175
-123
-88
-132
-108
-83
-92
-78
-60
-56
-39
-19
-4
17
43
68
102
141
176
204
230
253
271
267
221
145
64
-15
-87
-138
-167
-184
-193
-197
-199
-200
-195
-187
-181
-177
-174
-168
-163
-163
-167
-174
-187
-190
-169
-136
-103
-77
-75
-103
