# session 17
59
6
106
65
-38
674
2004
2077
504
-678
-512
-121
-127
-150
-97
-102
-102
-80
-78
-68
-42
-24
-3
26
63
120
186
238
281
327
362
371
348
295
220
148
84
18
-47
-98
-124
-131
-132
-134
-127
-112
-102
-100
-101
-106
-113
-120
-131
-140
-142
-158
-184
-177
-141
-120
-114
-105
-103
-120
-144
-157
-149
-151
-166
-152
-149
-179
-168
-277
-428
329
1994
2403
611
-1113
-1091
-444
-268
-271
-210
-204
-198
-157
-146
-141
-106
-74
-56
-24
31
92
160
243
322
376
411
434
420
352
261
174
85
-2
-71
-119
-152
-175
-187
-185
-178
-176
-172
-164
-154
-144
-133
-128
-131
-139
-154
-166
-157
-136
-118
-97
-79
-89
-117
-138
-136
-121
-127
-129
-94
-106
-147
-159
-320
-268
938
2498
2105
-17
-1197
-773
-272
-235
-207
-159
-179
-160
-126
-125
-105
-70
-53
-31
11
57
109
179
263
338
385
412
424
397
318
222
139
61
-10
-63
-100
-126
-140
-148
-154
-148
-131
-123
-120
-111
-103
-98
-95
-109
-133
-134
-113
-96
-84
-71
-68
-83
-117
-143
-134
-123
-132
-119
-115
-149
-160
-282
-394
440
2176
2644
893
-841
-886
-332
-241
-286
-229
-221
-219
-183
-176
-171
-143
-121
-98
-63
-30
18
92
170
239
303
349
366
347
289
207
124
47
-28
-92
-137
-163
-168
-164
-171
-184
-186
-175
-158
-144
-139
-137
-128
-129
-146
-148
-122
-99
-90
-81
-77
-89
-112
-131
-130
-119
-129
-126
-100
-117
-138
-206
-403
-30
1563
2838
1816
-299
-1012
-486
-208
-283
-253
-206
-213
-189
-170
-169
-136
-102
-92
-70
-25
30
86
145
213
279
325
353
361
323
243
155
75
-3
-73
-125
-158
-167
-166
-173
-189
-197
-193
-183
-163
-141
-133
-133
-123
-119
-137
-143
-119
-97
-79
-53
-45
-69
-102
-123
-121
-109
-127
-137
-108
-119
-152
-202
-388
-138
1340
2796
2058
-85
-1016
-550
-215
-275
-254
-207
-217
-189
-166
-173
-150
-116
-97
-69
-32
4
58
132
214
291
351
390
398
359
278
189
109
30
-48
-105
-136
-151
-159
-159
-166
-181
-183
-166
-151
-144
-133
-118
-114
-123
-124
-124
-142
-156
-135
-105
-89
-67
-50
-65
-95
-119
-126
-109
-106
-126
-113
-107
-139
-164
-320
-332
764
2498
2539
540
-937
-738
-256
-257
-271
-199
-209
-211
-177
-173
-161
-127
-103
-79
-45
-10
33
103
191
272
333
380
408
393
326
229
138
61
-14
-84
-127
-147
-160
-165
-162
-167
-178
-176
-164
-159
-150
-133
-122
-125
-127
-121
-119
-122
-122
-130
-153
-160
-139
-112
-84
-58
-63
-94
-110
-116
-123
-121
-124
-117
-89
-108
-139
-161
-357
-230
1160
2747
2184
-14
-1106
-657
-243
-270
-244
-180
-188
-177
-158
-147
-116
-100
-94
-59
-17
27
96
169
241
338
419
447
457
446
374
272
184
98
13
-55
-111
-147
-151
-150
-158
-164
-160
-149
-136
-133
-135
-128
-117
-108
-93
-85
-90
-90
-84
-89
-93
-89
-106
-139
-134
-92
-77
-89
-80
-63
-72
-103
-127
-117
-94
-102
-105
-88
-119
-134
-177
-389
-41
1581
2849
1705
-511
-1194
-580
-233
-254
-197
-160
-189
-168
-134
-127
-116
-99
-80
-50
-12
37
100
171
254
338
396
431
457
438
357
260
171
71
-23
-80
-118
-149
-164
-176
-188
-191
-195
-200
-183
-158
-153
-154
-136
-119
-118
-121
-122
-130
-128
-119
-131
-147
-135
-127
-143
-145
-137
-147
-150
-145
-162
-167
-131
-101
-77
-29
-9
-39
-61
-67
-77
-81
-92
-91
-49
-50
-95
-122
-273
-177
1053
2614
2291
313
-807
-498
-174
-241
-229
-164
-181
-173
-142
-138
-125
-104
-95
-74
-33
12
59
113
167
231
306
365
391
392
352
262
167
92
15
-54
-94
-121
-140
-147
-154
-159
-146
-142
-168
-182
-154
-123
-126
-132
-119
-122
-144
-135
-103
-98
-113
-118
-127
-145
-153
-140
-115
-89
-61
-46
-61
-81
-91
-99
-100
-101
-104
-85
-81
-111
-153
-301
-233
862
2423
2389
610
-642
-488
-167
-233
-250
-196
-217
-201
-153
-157
-153
-113
-84
-73
-54
-13
37
83
148
240
303
327
355
365
308
215
137
64
-12
-74
-122
-154
-151
-131
-130
-136
-128
-125
-136
-143
-139
-132
-122
-112
-109
-112
-113
-113
-117
-117
-112
-111
-107
-94
-90
-102
-105
-95
-93
-101
-107
-117
-141
-151
-117
-65
-37
-29
-34
-59
-88
-99
-91
-82
-88
-101
-83
-72
-110
-157
-265
-228
699
2264
2566
1006
-416
-473
-174
-237
-283
-217
-227
-231
-184
-173
-177
-154
-133
-125
-112
-90
-54
3
71
138
198
247
286
302
271
196
118
62
10
-53
-106
-131
-138
-144
-147
-141
-130
-122
-121
-124
-122
-117
-112
-107
-101
-97
-93
-90
-90
-92
-96
-98
-102
-116
-126
-109
-85
-72
-56
-38
-39
-55
-71
-75
-62
-55
-64
-56
-50
-67
-90
-241
-310
575
2207
2534
861
-673
-677
-225
-195
-236
-174
-163
-157
-132
-146
-157
-140
-127
-111
-89
-76
-43
18
80
152
237
284
295
308
288
203
114
53
-16
-77
-107
-135
-158
-151
-144
-145
-129
-115
-110
-82
-61
-75
-77
-62
-68
-79
-71
-58
-45
-41
-46
-49
-69
-108
-125
-113
-107
-106
-85
-50
-49
-81
-100
-101
-99
-94
-105
-117
-97
-98
-141
-204
-359
-169
1218
2918
2565
348
-941
-577
-203
-307
-297
-242
-309
-300
-240
-246
-242
-206
-186
-160
-116
-75
-23
57
147
235
309
359
383
379
331
248
162
84
7
-57
-99
-123
-137
-143
-142
-137
-136
-136
-133
-134
-139
-136
-127
-123
-122
-120
-117
-112
-113
-119
-125
-136
-150
-151
-137
-117
-90
-63
-58
-78
-106
-119
-107
-105
-128
-120
-94
-128
-157
-203
-275
340
1939
2663
1054
-915
-1035
-293
-171
-294
-210
-184
-214
-167
-138
-143
-118
-93
-79
-44
-2
37
91
165
248
324
375
401
407
376
299
202
112
34
-38
-100
-141
-155
-157
-163
-164
-151
-142
-139
-132
-125
-124
-120
-111
-100
-100
-118
-136
-138
-143
-156
-148
-123
-102
-76
-51
-56
-82
-101
-111
-104
-95
-112
-113
-91
-115
-145
-221
-291
427
2108
2731
1000
-898
-922
-234
-176
-282
-191
-180
-210
-165
-149
-157
-127
-98
-83
-55
-12
40
103
173
244
312
367
401
405
368
292
205
124
44
-31
-87
-119
-135
-142
-142
-137
-124
-108
-101
-101
-100
-97
-98
-99
-104
-114
-119
-127
-147
-154
-134
-109
-81
-47
-39
-67
-100
-123
-127
-113
-114
-115
-89
-103
-145
-188
-326
-60
1332
2643
1754
-428
-1181
-496
-136
-265
-240
-170
-196
-175
-146
-155
-134
-103
-92
-66
-23
19
72
132
195
263
319
353
371
355
289
210
146
75
-11
-77
-115
-150
-168
-156
-150
-152
-123
-114
-169
-194
-152
-161
-239
-287
-298
-267
-164
-82
-96
-119
-102
-100
-116
-124
-138
-161
-164
-150
-153
-152
-127
-136
-164
-212
-337
-59
1145
2163
1394
-317
-927
-464
-171
-202
-170
-134
-168
-163
-125
-105
-90
-68
-42
-12
24
52
73
106
148
175
210
283
345
338
283
229
180
128
74
22
-19
-39
-38
-28
-15
-1
11
17
18
20
13
0
-5
-13
-45
-70
-53
-27
-24
-21
-6
-3
-28
-75
-111
-115
-119
-122
-119
-140
-145
-177
-333
-114
970
1852
1142
-353
-919
-563
-246
-185
-171
-162
-153
-133
-122
-108
-84
-70
-57
-30
-4
16
37
68
111
146
161
184
233
268
248
189
131
85
32
-29
-68
-78
-80
-80
-73
-63
-54
-45
-40
-40
-41
-46
-65
-81
-69
-41
-20
1
15
2
-29
-57
-71
-75
-92
-113
-98
-98
-146
-198
-357
-388
571
2181
2332
533
-927
-807
-330
-313
-346
-283
-289
-297
-267
-260
-251
-222
-200
-177
-142
-103
-55
11
79
140
194
243
275
273
233
172
111
46
-30
-95
-131
-154
-174
-181
-175
-165
-149
-129
-114
-109
-117
-136
-143
-119
-82
-56
-42
-37
-47
-74
-110
-133
-127
-129
-152
-135
-112
-162
-238
-396
-418
630
2456
2635
504
-1166
-864
-214
-229
-278
-180
-193
-202
-149
-138
-134
-101
-67
-33
12
66
128
192
262
340
398
431
449
435
375
290
201
112
35
-31
-86
-118
-128
-134
-141
-139
-131
-122
-115
-127
-154
-158
-131
-106
-78
-44
-43
-76
-95
-105
-120
-118
-124
-142
-127
-131
-183
-275
-458
-161
1343
2700
1711
-573
-1314
-575
-175
-269
-237
-185
-212
-184
-161
-176
-157
-123
-99
-61
-24
7
64
145
224
289
342
375
374
340
279
197
104
17
-58
-117
-149
-162
-173
-179
-174
-175
-179
-172
-166
-165
-152
-133
-115
-85
-53
-51
-73
-94
-114
-125
-125
-135
-137
-118
-141
-197
-298
-483
-116
1414
2624
1549
-551
-1109
-436
-176
-301
-254
-206
-242
-212
-174
-173
-151
-129
-124
-98
-55
-18
31
105
186
255
296
308
302
272
205
123
54
-8
-70
-111
-124
-128
-133
-132
-129
-138
-148
-149
-154
-167
-164
-132
-80
-21
25
33
11
-20
-47
-58
-62
-80
-87
-81
-109
-166
-307
-371
445
2087
2518
800
-822
-710
-143
-187
-285
-192
-198
-223
-181
-178
-183
-145
-118
-106
-79
-46
-6
54
122
188
248
296
321
315
274
209
137
65
-1
-52
-91
-119
-133
-134
-134
-143
-155
-152
-144
-149
-150
-137
-136
-152
-149
-124
-94
-54
-19
-27
-68
-105
-127
-127
-114
-122
-130
-109
-115
-156
-253
-355
195
1736
2628
1323
-573
-864
-248
-148
-285
-213
-187
-227
-189
-166
-180
-158
-127
-114
-95
-63
-23
31
90
155
220
263
289
301
275
207
132
66
-2
-68
-116
-139
-146
-149
-153
-152
-148
-147
-144
-140
-138
-134
-132
-136
-137
-136
-150
-161
-145
-114
-87
-58
-36
-45
-77
-106
-114
-100
-98
-109
-86
-77
-123
-197
-329
-111
1189
2647
2089
-42
-1012
-427
-60
-233
-227
-135
-179
-176
-128
-128
-120
-95
-86
-65
-34
-6
37
100
167
233
287
319
335
330
282
205
131
61
-12
-72
-105
-122
-132
-137
-139
-138
-136
-132
-124
-115
-109
-107
-106
-106
-109
-106
-97
-97
-106
-109
-109
-115
-121
-124
-137
-148
-132
-102
-69
-36
-34
-70
-96
-102
-107
-102
-100
-110
-91
-85
-125
-173
-294
-139
1111
2664
2218
5
-1129
-556
-107
-261
-273
-176
-211
-209
-162
-164
-154
-121
-108
-88
-51
-17
25
84
146
212
272
311
334
341
314
249
174
104
31
-41
-93
-121
-138
-146
-144
-137
-129
-122
-117
-112
-108
-107
-106
-106
-108
-109
-112
-118
-123
-135
-154
-156
-135
-111
-80
-48
-47
-74
-96
-107
-107
-99
-106
-107
-81
-93
-132
-200
-323
139
1702
2748
1435
-686
-1069
-314
-110
-264
-199
-156
-197
-162
-130
-136
-109
-83
-74
-46
-7
29
79
142
209
277
329
356
367
350
293
217
142
66
-8
-64
-100
-124
-138
-142
-142
-141
-138
-131
-120
-108
-100
-95
-95
-97
-97
-97
-99
-101
-104
-107
-109
-110
-108
-106
-112
-118
-122
-136
-150
-139
-105
-66
-26
-9
-36
-71
-88
-93
-85
-83
-97
-83
-67
-106
-144
-249
-238
759
2446
2521
437
-1101
-739
-137
-215
-279
-178
-196
-209
-155
-149
-149
-117
-101
-90
-55
-16
22
74
140
208
268
313
340
353
340
285
203
126
56
-17
-81
-121
-142
-155
-162
-162
-156
-145
-133
-124
-118
-115
-114
-115
-112
-109
-116
-122
-122
-134
-156
-158
-140
-115
-83
-58
-62
-82
-101
-116
-110
-97
-112
-108
-85
-114
-161
-279
-375
410
2150
2669
822
-988
-867
-180
-175
-277
-177
-177
-203
-151
-137
-140
-106
-83
-69
-36
3
45
106
176
244
306
351
375
379
351
283
196
111
30
-44
-103
-136
-151
-160
-168
-172
-171
-167
-158
-148
-139
-130
-123
-118
-114
-111
-111
-110
-109
-113
-118
-126
-142
-154
-146
-123
-93
-61
-47
-60
-81
-98
-106
-94
-91
-104
-85
-71
-110
-150
-261
-154
1008
2620
2372
201
-1097
-615
-111
-232
-264
-171
-203
-208
-159
-160
-155
-119
-101
-86
-55
-20
22
81
149
218
282
330
358
364
334
265
183
108
33
-41
-96
-127
-144
-156
-164
-168
-163
-152
-143
-136
-128
-119
-115
-114
-108
-105
-114
-123
-124
-138
-161
-159
-132
-104
-74
-52
-65
-95
-116
-124
-114
-106
-121
-111
-91
-126
-172
-288
-344
528
2277
2669
740
-995
-807
-161
-197
-291
-189
-195
-218
-167
-157
-159
-125
-103
-90
-58
-21
19
75
142
213
278
325
352
362
338
272
192
120
44
-34
-92
-123
-142
-152
-156
-159
-158
-149
-138
-129
-121
-113
-108
-105
-105
-102
-97
-100
-108
-113
-123
-143
-144
-123
-97
-66
-38
-42
-70
-92
-105
-99
-86
-97
-100
-80
-98
-135
-220
-347
224
1888
2799
1301
-745
-981
-265
-139
-276
-199
-171
-210
-171
-144
-151
-126
-100
-88
-61
-26
8
56
119
188
255
311
346
364
356
307
231
154
78
-2
-71
-117
-141
-153
-161
-164
-160
-149
-140
-133
-123
-115
-110
-104
-103
-105
-103
-102
-108
-117
-125
-143
-161
-155
-130
-103
-70
-50
-65
-97
-119
-124
-111
-109
-126
-112
-94
-127
-167
-295
-312
686
2418
2548
474
-1105
-775
-160
-216
-282
-188
-208
-219
-160
-150
-159
-136
-113
-88
-54
-22
17
77
149
219
281
328
354
359
333
271
192
121
50
-30
-99
-133
-146
-157
-168
-175
-172
-159
-144
-132
-122
-115
-113
-112
-109
-107
-105
-102
-102
-101
-97
-102
-126
-146
-138
-114
-88
-62
-43
-46
-70
-95
-101
-85
-83
-97
-80
-69
-102
-116
-205
-221
701
2333
2428
365
-1225
-888
-195
-167
-210
-119
-127
-134
-89
-84
-75
-29
0
16
45
84
135
200
266
338
416
480
515
520
483
409
323
241
158
76
10
-38
