# session 34
-13
-41
27
83
-83
-368
-457
-368
-312
-290
-244
-224
-248
-274
-278
-272
-270
-256
-237
-240
-229
-202
-220
-235
-297
-424
146
1779
2686
1356
-497
-790
-245
-143
-248
-198
-183
-205
-166
-144
-146
-125
-103
-94
-80
-66
-50
-28
-7
14
40
68
96
129
164
196
227
256
281
302
313
297
246
173
97
24
-41
-89
-117
-129
-131
-127
-121
-112
-105
-106
-109
-105
-100
-98
-94
-91
-91
-89
-84
-84
-84
-84
-86
-88
-88
-91
-92
-86
-83
-84
-79
-74
-78
-79
-73
-71
-71
-72
-83
-86
-54
-11
15
29
20
-21
-50
-48
-54
-65
-55
-58
-67
-44
-58
-93
-98
-251
-169
1079
2631
2197
125
-921
-460
-68
-139
-137
-94
-128
-115
-85
-99
-94
-70
-64
-57
-43
-33
-17
4
20
36
61
91
125
162
196
224
248
270
290
305
302
260
184
102
26
-46
-105
-139
-157
-168
-172
-169
-165
-159
-153
-149
-144
-139
-136
-135
-132
-128
-127
-128
-129
-130
-129
-129
-131
-131
-126
-120
-118
-119
-119
-117
-113
-111
-111
-110
-108
-107
-107
-105
-100
-106
-126
-126
-87
-39
-14
-1
-3
-34
-68
-76
-77
-79
-71
-77
-84
-57
-61
-99
-117
-250
-149
1057
2614
2319
343
-772
-406
-49
-151
-174
-119
-147
-145
-114
-115
-107
-86
-78
-70
-58
-47
-29
-10
5
23
48
74
100
128
162
196
220
234
253
274
276
241
180
110
38
-31
-86
-121
-142
-151
-151
-152
-152
-143
-135
-138
-140
-132
-127
-126
-121
-118
-120
-119
-116
-116
-119
-119
-117
-117
-118
-117
-115
-114
-113
-108
-104
-102
-100
-99
-95
-92
-101
-111
-93
-51
-14
9
15
-13
-51
-62
-62
-72
-68
-59
-72
-66
-49
-77
-92
-159
-302
256
1870
2733
1379
-450
-719
-175
-72
-173
-129
-125
-151
-114
-95
-104
-89
-74
-68
-52
-41
-38
-21
4
25
48
74
99
129
165
197
220
239
260
282
295
278
222
145
70
2
-63
-117
-148
-158
-160
-158
-150
-142
-140
-139
-136
-135
-136
-132
-127
-127
-129
-129
-129
-127
-126
-130
-134
-132
-130
-132
-129
-122
-122
-124
-120
-117
-117
-114
-109
-118
-133
-119
-75
-36
-16
-12
-31
-65
-82
-81
-87
-83
-71
-85
-86
-60
-84
-104
-134
-308
22
1537
2728
1651
-395
-944
-328
-69
-156
-123
-100
-132
-108
-88
-97
-82
-63
-60
-50
-31
-18
-5
15
39
61
85
114
147
180
216
250
275
292
309
319
301
251
181
102
23
-46
-98
-133
-148
-153
-157
-157
-152
-146
-138
-130
-125
-123
-121
-119
-119
-121
-123
-122
-121
-121
-121
-120
-121
-122
-123
-121
-116
-114
-117
-115
-110
-105
-100
-105
-123
-125
-89
-42
-13
-3
-15
-52
-77
-80
-86
-87
-76
-86
-88
-64
-86
-114
-147
-300
7
1458
2714
1829
-147
-803
-286
-60
-178
-159
-122
-151
-136
-113
-116
-105
-89
-82
-71
-59
-48
-32
-14
5
28
53
79
110
145
178
203
223
244
264
277
266
222
155
82
13
-50
-99
-132
-151
-159
-158
-153
-147
-145
-145
-142
-136
-131
-129
-129
-129
-128
-124
-124
-125
-124
-124
-125
-123
-118
-120
-120
-115
-113
-114
-110
-105
-105
-117
-128
-108
-57
-13
4
-7
-42
-74
-79
-80
-86
-77
-76
-85
-66
-69
-105
-114
-243
-245
794
2405
2388
511
-777
-508
-77
-131
-171
-117
-138
-140
-105
-104
-105
-87
-79
-68
-50
-37
-22
-6
7
24
49
79
113
145
172
197
224
249
272
291
291
259
195
114
39
-24
-81
-123
-137
-140
-149
-152
-142
-137
-145
-147
-137
-127
-124
-119
-111
-108
-108
-111
-119
-118
-104
-103
-121
-127
-119
-113
-107
-102
-103
-87
-61
-68
-102
-121
-128
-130
-103
-51
-10
6
-4
-40
-74
-81
-85
-91
-79
-82
-95
-69
-73
-115
-116
-247
-213
961
2587
2272
102
-1132
-658
-127
-145
-152
-96
-121
-113
-76
-83
-86
-65
-50
-38
-26
-15
4
26
41
57
85
122
159
192
223
252
277
305
335
352
335
284
220
148
54
-42
-103
-136
-169
-187
-179
-175
-185
-182
-163
-157
-166
-163
-148
-143
-142
-128
-123
-137
-142
-131
-133
-149
-155
-150
-146
-144
-139
-128
-119
-128
-153
-147
-100
-55
-34
-31
-62
-102
-110
-113
-131
-120
-100
-111
-97
-86
-133
-121
-170
-346
266
1983
2706
1033
-902
-1020
-314
-107
-137
-88
-106
-125
-80
-71
-75
-44
-27
-29
-13
5
14
32
60
84
105
131
167
208
248
284
319
352
379
392
384
345
274
182
83
-11
-82
-131
-167
-190
-196
-192
-188
-188
-184
-172
-163
-156
-141
-129
-133
-135
-127
-121
-119
-117
-123
-134
-134
-125
-126
-138
-143
-138
-133
-124
-116
-126
-138
-113
-63
-35
-33
-52
-81
-96
-95
-104
-106
-98
-108
-102
-78
-109
-132
-168
-332
65
1649
2821
1691
-359
-902
-318
-88
-179
-146
-124
-150
-124
-111
-121
-100
-85
-91
-75
-45
-33
-29
-12
14
36
60
91
126
161
198
231
259
284
309
326
307
241
154
72
0
-65
-114
-146
-158
-161
-168
-172
-165
-157
-151
-145
-144
-140
-129
-127
-132
-127
-119
-122
-124
-121
-125
-131
-126
-125
-129
-122
-109
-108
-109
-108
-116
-131
-121
-79
-30
-2
-5
-36
-70
-81
-79
-82
-79
-78
-94
-84
-60
-89
-111
-181
-316
261
1902
2781
1415
-436
-714
-179
-89
-194
-146
-137
-161
-134
-127
-130
-108
-99
-94
-67
-47
-41
-23
-4
10
31
56
76
110
156
188
209
235
258
272
277
254
196
127
60
-9
-72
-118
-145
-157
-157
-158
-160
-158
-152
-148
-146
-143
-136
-131
-133
-131
-122
-120
-126
-126
-122
-121
-122
-122
-123
-121
-118
-120
-121
-112
-102
-103
-102
-97
-103
-110
-84
-34
1
8
-11
-45
-67
-67
-71
-69
-64
-79
-75
-48
-73
-98
-139
-287
114
1633
2737
1653
-277
-773
-234
-54
-169
-142
-118
-142
-114
-95
-107
-96
-76
-69
-61
-43
-26
-13
-3
14
37
59
88
124
156
181
207
234
258
275
282
267
226
164
90
11
-55
-97
-124
-143
-151
-153
-151
-145
-142
-141
-135
-128
-125
-126
-125
-124
-123
-120
-114
-117
-125
-126
-117
-115
-120
-119
-112
-111
-114
-111
-104
-97
-96
-100
-100
-94
-90
-91
-90
-84
-80
-80
-82
-88
-100
-99
-67
-17
20
20
-11
-44
-56
-63
-70
-61
-56
-75
-65
-41
-70
-90
-164
-288
334
1980
2772
1346
-456
-680
-154
-77
-178
-134
-129
-152
-122
-111
-118
-97
-74
-68
-60
-45
-32
-20
-6
12
36
63
90
115
142
176
211
238
257
274
290
283
239
169
96
24
-42
-94
-131
-149
-149
-144
-145
-144
-137
-132
-133
-132
-125
-121
-123
-125
-126
-127
-125
-124
-130
-133
-127
-123
-125
-128
-124
-116
-115
-120
-115
-107
-104
-103
-98
-97
-98
-96
-89
-86
-100
-114
-96
-51
-9
12
8
-25
-59
-70
-72
-73
-62
-65
-79
-57
-52
-87
-97
-219
-236
766
2402
2462
590
-773
-542
-87
-123
-158
-104
-128
-132
-100
-102
-98
-74
-69
-64
-45
-33
-24
-6
12
28
50
78
106
135
165
192
217
239
261
279
285
259
200
127
59
-5
-64
-108
-133
-146
-150
-148
-147
-147
-142
-134
-131
-128
-121
-117
-118
-119
-120
-122
-120
-119
-120
-122
-119
-118
-120
-120
-117
-114
-108
-105
-107
-107
-101
-96
-93
-88
-86
-87
-88
-88
-89
-101
-108
-78
-29
2
13
7
-26
-58
-62
-67
-76
-64
-63
-73
-51
-56
-93
-103
-232
-167
973
2512
2272
347
-778
-432
-57
-136
-161
-115
-138
-129
-98
-100
-94
-76
-76
-76
-61
-41
-23
-9
7
29
53
76
100
127
158
189
217
239
256
269
272
252
204
138
65
-10
-67
-100
-124
-141
-147
-147
-139
-112
-101
-128
-150
-137
-121
-122
-122
-119
-118
-115
-116
-117
-113
-110
-115
-119
-116
-112
-108
-104
-105
-103
-95
-98
-107
-104
-85
-47
-17
-54
-138
-173
-129
-67
-24
6
7
-28
-64
-72
-74
-79
-63
-52
-74
-69
-52
-79
-89
-165
-266
390
1922
2479
1024
-539
-599
-113
-93
-189
-143
-138
-149
-117
-108
-111
-91
-76
-71
-61
-50
-40
-28
-13
6
31
63
91
116
143
169
194
222
244
261
270
250
209
165
102
29
-24
-89
-164
-161
-102
-112
-171
-172
-126
-108
-123
-137
-137
-134
-125
-108
-105
-106
-96
-116
-157
-149
-111
-112
-130
-122
-108
-108
-115
-112
-98
-88
-97
-121
-127
-98
-65
-42
-6
10
-36
-85
-81
-75
-82
-61
-51
-86
-77
-44
-83
-111
-176
-325
239
1847
2617
1172
-612
-779
-193
-76
-165
-127
-112
-120
-99
-91
-81
-69
-78
-72
-45
-33
-19
2
6
20
66
97
100
125
177
211
231
261
288
307
325
314
247
152
68
-7
-75
-117
-141
-162
-169
-155
-149
-156
-157
-150
-143
-136
-132
-131
-130
-131
-130
-124
-124
-134
-139
-136
-137
-137
-128
-121
-124
-124
-118
-127
-154
-156
-114
-60
-32
-29
-42
-67
-83
-88
-101
-102
-84
-93
-99
-64
-72
-108
-140
-291
-64
1268
2538
1799
-95
-791
-308
-61
-166
-159
-125
-143
-122
-101
-110
-106
-88
-70
-56
-52
-47
-34
-19
1
23
44
73
107
135
165
202
229
241
257
274
266
229
168
89
13
-44
-92
-130
-145
-144
-141
-140
-138
-132
-125
-123
-125
-125
-122
-119
-112
-113
-124
-126
-119
-114
-110
-103
-100
-106
-110
-110
-107
-101
-101
-114
-114
-74
-26
-7
-7
-28
-67
-85
-80
-85
-86
-76
-83
-84
-70
-93
-104
-157
-320
94
1581
2587
1482
-348
-767
-237
-66
-162
-133
-116
-138
-116
-102
-104
-89
-82
-78
-57
-44
-45
-34
-12
10
38
64
82
109
147
182
205
226
251
269
277
272
238
161
68
-1
-50
-100
-140
-157
-162
-161
-153
-142
-136
-130
-130
-137
-138
-127
-124
-136
-138
-127
-128
-140
-140
-130
-124
-125
-127
-133
-136
-127
-121
-134
-136
-103
-61
-37
-25
-36
-75
-99
-95
-96
-97
-89
-101
-102
-76
-93
-102
-115
-310
-112
1289
2596
1715
-369
-1078
-459
-94
-146
-121
-87
-106
-85
-75
-84
-62
-49
-53
-27
0
-6
-3
30
63
83
103
128
166
210
240
261
292
324
342
349
338
288
209
121
28
-52
-103
-140
-170
-175
-168
-170
-168
-154
-148
-147
-138
-136
-142
-138
-133
-140
-141
-134
-136
-142
-142
-146
-152
-150
-153
-162
-147
-106
-72
-58
-55
-68
-96
-113
-115
-119
-115
-103
-119
-123
-89
-107
-134
-139
-307
-143
1217
2635
1922
-170
-1012
-463
-99
-164
-146
-104
-128
-110
-92
-102
-86
-69
-71
-58
-35
-24
-11
6
19
42
75
103
128
166
207
235
259
287
313
324
307
253
175
95
18
-58
-112
-138
-156
-167
-159
-148
-154
-159
-145
-132
-136
-130
-113
-113
-126
-124
-114
-118
-127
-126
-120
-118
-123
-126
-121
-117
-120
-122
-113
-98
-97
-120
-142
-126
-76
-32
-11
-12
-43
-79
-84
-78
-82
-76
-76
-90
-71
-62
-101
-114
-225
-276
653
2346
2598
779
-718
-569
-90
-123
-181
-119
-136
-146
-115
-116
-111
-86
-86
-86
-62
-44
-40
-29
-9
12
34
58
87
120
152
176
198
225
246
260
265
248
199
130
55
-16
-70
-108
-138
-152
-147
-139
-142
-145
-138
-134
-134
-129
-122
-123
-123
-118
-120
-126
-120
-112
-120
-130
-126
-125
-128
-122
-118
-124
-124
-115
-113
-114
-114
-122
-128
-101
-48
-11
-7
-33
-72
-86
-75
-82
-92
-82
-88
-93
-72
-92
-120
-148
-292
15
1455
2701
1809
-167
-813
-286
-58
-174
-157
-124
-152
-132
-107
-111
-97
-77
-66
-55
-51
-50
-27
8
27
36
59
94
126
158
195
225
244
262
287
307
299
256
191
118
38
-37
-93
-125
-139
-142
-140
-138
-136
-133
-127
-121
-125
-130
-122
-116
-127
-137
-127
-116
-116
-121
-123
-121
-115
-113
-117
-120
-115
-108
-103
-100
-101
-101
-92
-87
-101
-117
-102
-62
-23
-1
-8
-46
-77
-76
-76
-91
-84
-77
-94
-79
-66
-100
-100
-200
-319
481
2190
2627
870
-788
-740
-173
-114
-171
-123
-131
-134
-100
-103
-109
-89
-80
-76
-58
-44
-33
-14
6
21
40
69
96
122
158
195
224
247
272
297
308
282
219
146
72
-9
-82
-123
-145
-166
-178
-170
-157
-153
-153
-146
-140
-141
-140
-132
-126
-127
-131
-130
-128
-131
-132
-131
-132
-139
-139
-132
-124
-122
-118
-112
-112
-118
-116
-103
-96
-103
-104
-92
-96
-116
-107
-61
-19
7
17
-7
-49
-62
-58
-68
-66
-56
-73
-66
-36
-60
-84
-154
-272
315
1920
2746
1382
-418
-670
-141
-57
-162
-114
-101
-126
-100
-85
-85
-65
-56
-59
-46
-25
-11
3
18
34
56
82
110
137
164
195
227
251
265
283
300
292
246
182
115
40
-32
-81
-104
-118
-130
-131
-128
-127
-127
-119
-110
-112
-117
-114
-110
-110
-107
-106
-113
-116
-110
-108
-114
-116
-115
-117
-120
-118
-112
-110
-114
-112
-111
-130
-150
-126
-73
-38
-24
-20
-48
-92
-107
-107
-115
-107
-98
-114
-104
-89
-122
-136
-224
-341
353
1967
2534
988
-647
-700
-183
-143
-223
-173
-171
-181
-152
-154
-152
-122
-115
-124
-111
-94
-85
-68
-44
-27
-7
26
58
79
106
145
173
189
215
243
247
222
177
115
37
-44
-109
-150
-168
-169
-170
-180
-188
-181
-162
-148
-147
-151
-152
-140
-124
-124
-136
-129
-111
-112
-111
-90
-87
-104
-98
-73
-65
-65
-53
-38
-29
-25
-29
-30
-3
49
84
96
107
102
71
59
75
85
89
87
86
128
151
102
93
13
-74
773
2463
2728
898
-550
-435
64
