# session 6
-16
-39
11
59
-51
-245
-294
-229
-204
-190
-141
-97
-61
-20
10
31
44
43
57
101
131
107
49
-8
-47
-73
-96
-113
-115
-112
-113
-105
-83
-70
-84
-101
-105
-123
-133
-109
-118
-134
-155
-423
-573
321
1548
1171
-424
-1025
-440
-59
-93
-55
-5
-32
-17
12
25
63
99
121
163
201
211
223
236
232
234
264
292
268
183
92
41
18
-4
-18
-30
-44
-47
-40
-35
-38
-58
-80
-83
-98
-111
-85
-99
-138
-164
-422
-575
374
1724
1341
-425
-1133
-510
-90
-133
-98
-52
-94
-75
-28
-24
-5
36
66
96
131
157
166
163
152
158
195
226
199
116
31
-22
-44
-59
-83
-98
-89
-71
-62
-59
-66
-88
-106
-120
-142
-137
-115
-139
-166
-274
-577
-380
924
1878
883
-697
-864
-238
-93
-192
-134
-113
-136
-98
-75
-72
-33
9
37
73
105
118
120
108
94
109
145
154
115
53
-9
-54
-72
-76
-89
-100
-89
-71
-56
-41
-50
-84
-105
-118
-138
-128
-116
-139
-193
-430
-660
6
1398
1615
189
-841
-537
-117
-173
-202
-132
-148
-150
-110
-98
-74
-28
0
26
65
95
109
107
89
84
115
149
139
89
33
-7
-32
-42
-50
-65
-70
-55
-35
-21
-10
-20
-46
-62
-76
-86
-68
-67
-88
-144
-415
-548
338
1639
1433
-106
-827
-354
-14
-90
-83
-25
-45
-32
3
10
29
67
105
141
173
202
221
206
191
224
274
279
236
166
83
22
-5
-26
-49
-61
-70
-79
-76
-67
-67
-89
-121
-137
-149
-159
-146
-157
-183
-199
-444
-694
58
1469
1451
-195
-1159
-678
-166
-172
-179
-119
-133
-128
-99
-87
-56
-13
13
42
81
116
142
142
120
122
169
209
186
114
42
-9
-47
-74
-83
-86
-94
-94
-78
-53
-43
-62
-84
-86
-101
-118
-93
-86
-119
-182
-442
-559
381
1774
1575
-82
-888
-402
-61
-164
-151
-88
-131
-128
-87
-81
-63
-24
6
40
77
101
113
111
95
100
138
167
145
89
34
-5
-26
-36
-51
-67
-72
-72
-66
-45
-28
-42
-70
-81
-92
-100
-82
-92
-126
-178
-442
-568
379
1780
1569
-93
-877
-363
-13
-119
-115
-57
-88
-68
-26
-36
-25
15
42
69
102
117
116
104
86
89
127
161
135
56
-24
-69
-78
-83
-104
-125
-124
-117
-114
-92
-70
-90
-120
-112
-118
-148
-137
-128
-152
-178
-412
-669
51
1512
1623
35
-962
-517
-51
-109
-117
-46
-88
-94
-35
-20
-17
13
36
63
121
165
149
112
102
117
153
187
162
79
8
-30
-60
-80
-86
-95
-106
-103
-86
-66
-61
-80
-95
-85
-85
-102
-90
-89
-126
-153
-333
-614
-133
1240
1750
536
-629
-493
-58
-95
-172
-107
-102
-107
-66
-53
-44
1
50
84
130
195
236
214
162
145
165
185
172
114
39
-13
-39
-60
-84
-102
-107
-110
-113
-98
-65
-60
-100
-130
-127
-121
-106
-94
-120
-145
-275
-579
-363
876
1781
961
-396
-602
-154
-74
-175
-132
-99
-114
-98
-77
-61
-30
3
31
53
74
88
79
60
70
106
136
132
78
6
-40
-59
-74
-94
-117
-124
-108
-96
-88
-58
-39
-65
-87
-77
-88
-107
-91
-93
-118
-197
-489
-558
392
1575
1224
-229
-789
-329
-71
-150
-127
-86
-101
-70
-45
-56
-29
19
45
80
121
134
131
132
134
146
173
185
148
74
9
-28
-49
-64
-77
-92
-99
-90
-75
-58
-36
-29
-51
-72
-78
-82
-67
-57
-84
-95
-210
-507
-288
874
1594
662
-619
-711
-212
-78
-124
-84
-81
-98
-67
-39
-31
-14
17
61
107
143
179
204
193
184
217
250
231
170
97
32
-13
-40
-60
-69
-72
-83
-92
-86
-72
-63
-68
-93
-117
-133
-153
-139
-116
-149
-155
-231
-549
-380
865
1647
489
-1069
-1112
-369
-91
-99
-44
-34
-40
2
20
22
57
106
148
188
228
266
278
260
249
269
295
282
207
104
22
-29
-60
-74
-79
-82
-86
-86
-85
-87
-83
-81
-98
-120
-129
-145
-148
-129
-154
-190
-264
-527
-427
764
1851
1040
-657
-1036
-383
-108
-186
-147
-112
-128
-92
-72
-74
-31
23
56
93
131
158
170
165
156
168
191
183
137
71
4
-51
-80
-86
-93
-106
-101
-79
-70
-65
-43
-39
-80
-115
-120
-126
-126
-128
-150
-162
-319
-588
-95
1385
2005
668
-751
-681
-149
-132
-203
-129
-129
-145
-108
-99
-93
-56
-24
13
68
111
132
145
134
115
132
172
160
93
30
-15
-58
-86
-90
-89
-97
-103
-96
-75
-54
-49
-60
-77
-91
-113
-131
-111
-102
-130
-168
-379
-580
142
1607
1835
337
-749
-439
-24
-119
-162
-74
-85
-99
-64
-60
-56
-18
19
47
83
120
134
122
105
108
128
137
115
73
25
-21
-54
-62
-60
-74
-97
-98
-77
-56
-43
-31
-33
-58
-77
-91
-106
-95
-89
-117
-152
-350
-593
-25
1314
1635
330
-735
-525
-115
-145
-176
-107
-120
-136
-100
-78
-59
-23
11
44
78
111
145
163
151
141
164
185
155
88
27
-17
-50
-70
-77
-87
-106
-121
-117
-104
-85
-62
-65
-98
-113
-112
-140
-148
-111
-125
-155
-210
-524
-594
529
1811
1152
-687
-1229
-503
-89
-131
-93
-51
-85
-66
-22
-3
29
73
109
145
188
227
253
269
274
274
282
277
223
143
67
-6
-56
-65
-59
-66
-74
-73
-67
-69
-80
-74
-56
-64
-88
-104
-119
-114
-93
-113
-142
-251
-531
-302
1002
1918
846
-824
-1002
-293
-67
-144
-88
-70
-101
-63
-35
-35
-3
33
60
111
165
189
195
189
177
184
204
194
136
63
1
-46
-79
-93
-91
-92
-102
-103
-88
-75
-66
-54
-59
-88
-106
-113
-126
-117
-112
-143
-177
-350
-553
76
1508
1807
270
-960
-637
-78
-117
-182
-95
-102
-122
-87
-75
-60
-20
9
40
86
125
149
150
130
123
143
153
124
65
5
-41
-82
-114
-121
-113
-119
-130
-123
-105
-95
-90
-82
-88
-114
-133
-146
-152
-130
-123
-150
-189
-397
-557
227
1652
1701
72
-950
-506
-42
-132
-159
-74
-101
-105
-56
-47
-34
11
44
75
119
157
174
172
159
158
171
172
139
82
28
-15
-46
-63
-67
-66
-71
-84
-100
-100
-81
-62
-54
-51
-64
-86
-100
-111
-102
-80
-99
-129
-231
-517
-351
906
1908
976
-655
-877
-207
-22
-138
-83
-49
-82
-50
-16
-13
12
47
79
123
163
189
205
198
178
178
192
179
128
62
2
-41
-61
-71
-79
-82
-83
-96
-115
-116
-101
-89
-79
-68
-78
-103
-117
-126
-129
-111
-115
-142
-198
-438
-502
429
1672
1316
-328
-980
-368
-4
-132
-127
-55
-88
-76
-32
-34
-19
24
53
81
121
154
167
156
132
123
139
145
118
70
22
-22
-51
-58
-59
-70
-80
-84
-98
-118
-120
-101
-81
-67
-61
-76
-97
-102
-110
-115
-98
-108
-135
-203
-467
-465
580
1710
1087
-553
-967
-277
9
-127
-95
-34
-69
-51
-13
-11
11
49
75
112
153
178
187
182
164
158
176
186
152
87
28
-13
-40
-55
-59
-67
-79
-84
-90
-106
-119
-114
-98
-83
-69
-75
-99
-110
-118
-129
-108
-103
-141
-155
-316
-582
-63
1289
1560
56
-1081
-656
-37
-52
-107
-18
-27
-45
-1
12
21
62
93
119
165
205
221
220
205
194
206
222
202
142
74
21
-11
-28
-40
-50
-57
-65
-74
-86
-105
-112
-95
-77
-69
-55
-55
-82
-99
-105
-112
-97
-93
-112
-132
-349
-596
56
1411
1488
-81
-1065
-567
-21
-70
-107
-21
-30
-34
8
16
22
60
93
120
157
196
218
212
192
186
201
213
192
131
58
3
-30
-52
-59
-59
-69
-83
-84
-90
-118
-132
-111
-84
-70
-65
-79
-109
-122
-127
-131
-112
-110
-138
-162
-356
-593
-20
1239
1386
-11
-969
-586
-88
-96
-127
-70
-86
-83
-41
-34
-21
21
53
82
125
163
183
185
171
159
167
182
168
109
29
-33
-67
-82
-82
-73
-72
-82
-91
-96
-111
-128
-125
-104
-82
-69
-69
-86
-100
-103
-116
-117
-94
-103
-118
-164
-433
-473
511
1607
1026
-576
-1072
-453
-71
-95
-70
-31
-43
-20
9
20
52
91
124
176
234
272
294
306
301
298
314
315
259
174
101
34
-34
-68
-65
-60
-65
-61
-56
-69
-90
-99
-99
-97
-84
-66
-70
-93
-101
-107
-118
-96
-85
-125
-127
-231
-497
-88
1279
1802
381
-1076
-943
-248
-82
-111
-53
-55
-68
-28
-1
17
44
67
102
152
194
227
247
239
223
227
234
210
148
70
-5
-66
-105
-124
-130
-127
-121
-115
-118
-126
-123
-109
-103
-101
-94
-107
-135
-145
-152
-160
-140
-144
-176
-231
-445
-432
599
1846
1390
-310
-963
-389
-70
-192
-173
-104
-138
-129
-88
-81
-60
-20
14
54
96
132
161
166
146
132
142
142
100
38
-10
-51
-96
-124
-124
-121
-127
-134
-136
-138
-141
-138
-123
-96
-74
-78
-106
-121
-118
-128
-124
-101
-113
-139
-259
-488
-96
1273
2005
805
-685
-695
-103
-54
-163
-89
-70
-91
-48
-23
-19
12
40
69
121
168
196
216
216
197
190
194
171
116
61
18
-25
-58
-71
-72
-74
-76
-84
-100
-112
-115
-111
-98
-79
-57
-46
-67
-99
-106
-110
-112
-96
-111
-139
-207
-478
-459
654
1842
1205
-487
-957
-311
-28
-142
-106
-56
-92
-67
-24
-19
1
38
68
106
153
194
226
233
215
207
218
211
161
90
25
-33
-76
-90
-87
-84
-84
-87
-89
-94
-107
-118
-112
-98
-90
-79
-72
-85
-100
-107
-120
-111
-91
-115
-137
-244
-535
-323
921
1762
749
-745
-860
-230
-58
-133
-83
-63
-78
-44
-27
-25
11
53
88
130
173
213
239
233
211
210
221
206
154
83
14
-39
-71
-86
-86
-73
-63
-62
-64
-77
-102
-121
-119
-105
-89
-75
-77
-99
-112
-115
-129
-127
-102
-118
-138
-205
-453
-363
674
1594
899
-540
-906
-398
-127
-132
-102
-103
-119
-73
-31
-12
19
34
41
89
156
205
236
258
271
272
264
257
228
145
49
-3
-39
-77
-82
-71
-87
-98
-81
-72
-88
-126
-170
-152
-83
-75
-105
-81
-76
-130
-149
-145
-155
-128
-124
-175
-284
-500
-263
940
1754
648
-1074
-1356
-632
-227
-186
-146
-128
-117
-50
7
29
73
138
190
246
324
410
483
517
517
537
563
487
288
101
32
20
-43
-142
-186
-164
-148
-177
-225
-225
-137
-43
-54
-105
-80
-83
-188
-209
-91
-43
-82
-88
-124
-136
-52
-168
-206
764
1955
1319
-616
-1378
-749
-235
-110
17
-4
-142
-127
-36
15
82
109
50
37
148
316
472
553
510
413
352
249
44
-90
-80
-129
-249
-224
-164
-288
-398
-273
-112
-85
-95
-119
-208
-268
-231
-197
-220
-216
-176
-209
-286
-254
-210
-270
-228
-200
-398
98
1678
2250
599
-1060
-1028
-441
-245
-108
-7
-125
-231
-179
-81
-33
-72
-121
-77
-16
0
134
401
537
496
442
375
297
323
344
198
18
-58
-92
-80
4
31
-50
-107
-102
-116
-130
-99
-65
-42
-25
-53
-93
-80
-55
-38
-31
-112
-207
-204
-266
-71
1104
2275
1405
-803
-1629
-856
-310
-295
-115
-11
-263
-493
-603
-695
-494
23
342
292
222
283
314
267
244
254
234
199
176
134
102
94
0
-158
-203
-160
-164
-173
-128
-76
-53
-64
-59
22
39
-110
-188
-113
-144
-223
-99
-31
-216
-241
-114
-262
21
1452
2374
1062
-896
-1198
-390
-5
-40
-17
-62
-205
-192
-66
-38
-47
4
32
41
119
228
352
506
572
498
403
312
142
-63
-187
-230
-278
-337
-318
-237
-238
-318
-302
-173
-118
-165
-166
-114
-116
-170
-186
-139
-96
-127
-215
-246
-160
-167
-323
163
1575
2186
800
-829
-966
-412
-243
-263
-221
-202
-145
-47
-51
-102
-40
69
101
131
206
248
287
371
418
409
383
298
163
74
45
45
58
56
29
-42
-166
-200
-53
92
111
119
109
-17
-129
-130
-158
-239
-235
-162
-142
-157
-132
-172
-272
160
1317
1785
449
-1242
-1481
-794
-439
-413
-314
-202
-192
-219
-187
-116
-85
-68
-37
-38
15
190
267
154
151
329
359
195
104
90
26
-31
-58
-124
-188
-191
-156
-111
-73
-57
-71
-129
-187
-178
-145
-171
-221
-228
-204
-155
-134
-229
-282
-250
-368
-29
1523
2721
1579
-441
-882
-299
-165
-271
-177
-94
-90
-114
-144
-59
76
110
140
228
289
345
371
268
182
258
325
264
199
144
28
-67
-94
-161
-284
-326
-257
-215
-263
-305
-277
-230
-194
-178
-224
-307
-353
-336
-229
-133
-224
-321
-291
-460
-346
1097
2629
1846
-350
-1151
-555
-217
-237
-102
-14
-73
-82
-55
-17
94
166
107
69
147
223
256
305
322
270
228
219
174
83
-10
-106
-164
-110
-59
-157
-219
-99
-57
-147
-72
74
13
-47
60
57
-108
-126
6
16
-77
-43
-38
-266
35
1489
2488
1258
-730
-1107
-382
-111
-209
-155
-128
-212
-244
-226
-185
-110
-61
-33
44
113
118
186
322
297
106
43
133
112
-54
-172
-190
-190
-224
-298
-352
-292
-180
-180
-228
-162
-101
-171
-213
-170
-182
-210
-164
-153
-216
-249
-245
-239
-325
-427
249
1933
2749
1332
-479
-750
-323
-273
-222
-59
-159
-320
-294
-257
-253
-174
-102
-75
11
131
172
164
212
308
342
241
86
-15
-109
-246
-342
-358
-366
-363
-318
-282
-282
-275
-263
-253
-226
-216
-268
-330
-348
-361
-387
-369
-339
-371
-324
-177
-320
-390
814
2578
2383
307
-927
-609
-234
-280
-292
-239
-148
0
24
-44
-19
23
29
119
257
331
375
397
359
345
404
422
340
223
