# session 9
-71
-61
-93
37
301
410
353
317
293
217
145
121
117
113
115
119
111
77
39
42
75
85
84
99
89
45
28
31
20
23
11
-29
-64
-278
-514
127
1447
1540
42
-923
-493
-10
-59
-68
27
-4
-30
9
12
17
72
111
122
153
182
177
172
174
162
147
144
137
108
51
-17
-51
-41
-35
-49
-52
-36
-48
-97
-109
-63
-35
-41
-34
-29
-69
-117
-131
-105
-71
-100
-146
-151
-357
-624
-22
1289
1441
33
-923
-552
-73
-94
-137
-83
-92
-96
-65
-42
-7
24
24
41
98
148
158
136
107
113
153
150
93
59
51
5
-52
-54
-34
-45
-57
-44
-45
-68
-70
-54
-58
-63
-44
-34
-50
-56
-59
-84
-93
-94
-125
-112
-156
-462
-452
582
1566
913
-525
-881
-342
-71
-112
-107
-105
-111
-68
-60
-71
-15
53
70
84
121
156
180
184
161
146
167
179
141
81
22
-43
-89
-95
-83
-74
-69
-69
-75
-80
-91
-104
-95
-61
-36
-49
-77
-83
-87
-109
-97
-71
-98
-111
-198
-505
-347
857
1684
651
-869
-980
-297
-60
-109
-70
-53
-60
-20
-1
-3
23
62
106
159
206
233
245
242
231
233
240
221
169
106
44
-13
-59
-86
-75
-44
-38
-59
-66
-63
-72
-76
-69
-63
-49
-36
-61
-104
-126
-106
-63
-75
-123
-183
-433
-540
399
1744
1464
-229
-1004
-466
-79
-157
-151
-97
-118
-95
-70
-81
-48
0
22
66
121
145
157
169
158
142
143
144
124
81
14
-56
-86
-77
-78
-101
-100
-66
-52
-75
-93
-85
-69
-51
-36
-50
-83
-86
-76
-105
-123
-101
-102
-120
-239
-502
-233
1016
1826
836
-626
-796
-252
-105
-175
-126
-105
-127
-105
-88
-81
-46
-5
33
87
143
184
208
209
192
190
195
163
94
33
-13
-60
-97
-108
-110
-106
-86
-71
-80
-89
-76
-53
-31
-12
-9
-42
-79
-79
-74
-87
-78
-71
-88
-148
-365
-393
501
1684
1433
-26
-742
-379
-100
-160
-150
-112
-137
-123
-94
-93
-64
-15
11
32
75
121
140
134
137
154
157
128
75
22
-12
-47
-95
-121
-108
-87
-86
-101
-112
-109
-97
-86
-71
-44
-23
-42
-93
-111
-92
-102
-112
-76
-74
-118
-225
-490
-388
766
1872
1185
-440
-901
-359
-120
-189
-123
-66
-102
-98
-68
-59
-36
8
55
96
131
174
216
226
209
215
239
204
101
25
6
-30
-97
-130
-119
-108
-109
-119
-134
-144
-132
-92
-55
-61
-86
-92
-105
-127
-134
-138
-120
-93
-123
-164
-271
-520
-193
1213
2095
923
-749
-916
-287
-117
-166
-94
-81
-98
-61
-48
-33
20
49
68
120
174
214
245
247
238
249
243
179
95
47
21
-27
-85
-112
-109
-109
-107
-98
-102
-110
-89
-59
-54
-53
-45
-63
-99
-112
-117
-123
-104
-105
-140
-176
-355
-420
519
2033
2029
299
-828
-516
-144
-235
-246
-172
-198
-191
-139
-137
-135
-93
-47
-12
25
69
106
120
118
124
128
99
35
-22
-51
-79
-112
-133
-153
-178
-174
-144
-146
-171
-155
-103
-63
-47
-42
-63
-104
-127
-125
-129
-137
-142
-155
-165
-303
-524
-18
1506
2312
1075
-545
-719
-217
-157
-241
-167
-146
-166
-141
-133
-123
-85
-52
-14
44
86
116
153
167
146
127
123
93
39
6
-17
-67
-111
-111
-92
-88
-90
-76
-60
-68
-84
-71
-38
-15
-4
-1
-9
-28
-45
-72
-86
-62
-61
-94
-146
-343
-350
624
1945
1722
114
-733
-376
-91
-180
-169
-115
-148
-146
-123
-124
-92
-44
-24
5
58
105
141
163
157
143
141
125
74
14
-31
-64
-89
-104
-111
-109
-100
-93
-92
-91
-93
-105
-113
-103
-86
-65
-41
-41
-76
-101
-101
-111
-108
-82
-95
-119
-192
-414
-242
896
1865
1156
-306
-695
-254
-89
-166
-133
-103
-119
-96
-76
-71
-44
-9
21
64
109
147
180
193
186
177
171
143
91
38
-1
-41
-87
-110
-101
-87
-80
-82
-99
-115
-113
-114
-128
-128
-112
-103
-95
-74
-68
-86
-92
-95
-120
-120
-92
-93
-126
-308
-549
-11
1420
1909
495
-892
-756
-168
-103
-149
-80
-93
-109
-59
-47
-52
-15
24
57
116
177
207
225
245
252
234
212
190
145
78
4
-65
-98
-87
-73
-74
-73
-77
-89
-90
-93
-115
-132
-120
-98
-85
-75
-67
-84
-115
-124
-122
-120
-94
-96
-137
-175
-375
-490
381
1769
1617
-129
-1110
-633
-137
-140
-134
-81
-104
-90
-55
-48
-21
9
27
85
162
201
221
243
239
217
204
184
138
82
26
-24
-64
-95
-109
-102
-91
-89
-84
-79
-85
-96
-101
-105
-110
-100
-79
-80
-105
-109
-88
-101
-132
-118
-102
-121
-163
-369
-469
433
1928
1943
207
-961
-611
-117
-148
-176
-108
-135
-140
-89
-76
-59
-6
22
42
105
176
229
280
289
241
227
243
185
80
36
22
-31
-89
-116
-125
-120
-109
-105
-83
-49
-52
-77
-79
-78
-87
-76
-57
-68
-86
-93
-133
-182
-153
-127
-181
-181
-240
-452
38
1583
2301
905
-752
-939
-517
-387
-242
-87
-174
-259
-206
-204
-217
-119
-48
-80
-51
66
136
178
229
220
201
250
269
189
116
181
335
314
-7
-324
-412
-444
-473
-373
-272
-211
-30
19
-287
-440
-127
144
96
54
133
119
-11
-110
-154
-165
-43
71
-127
-28
1147
2091
1033
-823
-1256
-604
-194
-84
-37
-113
-152
-99
-88
-45
44
15
-49
16
124
236
435
580
508
349
228
118
48
-11
-139
-209
-152
-189
-393
-501
-354
-104
24
23
29
22
-62
-96
-56
-100
-182
-165
-156
-228
-234
-149
-156
-232
-150
-120
-446
-282
1212
2449
1454
-528
-1154
-615
-208
-114
-92
-100
-74
-51
-48
6
13
-33
84
322
439
446
428
356
286
284
258
182
158
154
78
-19
-93
-181
-196
-73
15
-54
-126
-113
-131
-177
-149
-118
-124
-50
38
-29
-118
-55
-9
-76
-86
-108
-255
-298
-299
-289
515
1875
1699
-307
-1613
-1157
-420
-224
-209
-268
-329
-199
-96
-201
-273
-177
-31
67
54
22
160
307
225
141
248
293
166
74
40
-27
-22
71
43
-113
-182
-168
-193
-156
-37
-42
-129
-81
25
37
16
-8
-64
-88
-56
-38
-69
-94
-56
-122
-234
447
1958
2334
649
-982
-930
-256
-56
-79
-55
-29
20
21
-72
-106
-16
68
72
77
149
259
376
467
456
335
232
180
56
-131
-226
-256
-351
-454
-456
-409
-394
-394
-385
-373
-345
-274
-208
-231
-307
-323
-289
-305
-325
-225
-122
-181
-228
-249
-421
-7
1568
2504
1092
-894
-1181
-510
-254
-224
-109
-78
-87
-84
-117
-90
-9
6
27
139
241
283
339
417
454
445
422
355
241
193
233
251
242
214
79
-94
-120
-9
94
101
47
62
154
192
195
236
199
24
-105
-126
-219
-355
-308
-240
-350
5
1210
1877
764
-846
-1189
-631
-299
-268
-251
-270
-309
-270
-202
-186
-191
-161
-133
-134
-90
11
82
123
170
158
98
119
176
77
-151
-272
-241
-247
-317
-274
-147
-141
-236
-271
-222
-140
-77
-59
-39
-51
-181
-302
-278
-204
-163
-148
-124
-87
-228
-220
967
2688
2460
268
-1045
-639
-177
-208
-113
54
-9
-118
-74
11
4
-18
33
105
156
217
276
353
478
529
410
238
127
37
-49
-99
-126
-159
-179
-154
-95
-59
-96
-184
-256
-282
-275
-251
-234
-249
-257
-227
-235
-295
-303
-313
-371
-360
-388
-243
889
2336
1927
-129
-1203
-678
-147
-163
-196
-161
-179
-186
-172
-156
-131
-124
-111
-35
71
118
98
94
159
225
217
157
101
54
-11
-67
-89
-120
-174
-173
-141
-166
-181
-107
-20
56
129
105
10
6
80
105
91
102
137
196
216
68
140
1101
2192
1675
-118
-1062
-695
-283
-293
-316
-265
-243
-204
-139
-102
-99
-82
-27
19
25
45
86
76
49
97
142
71
-27
-45
-84
-210
-276
-208
-161
-206
-229
-199
-183
-165
-142
-159
-164
-128
-161
-239
-219
-169
-195
-225
-262
-280
-210
-288
-248
866
2305
1827
-232
-1237
-726
-272
-253
-167
-102
-136
-60
26
-33
-54
58
138
146
191
265
322
400
463
445
405
397
372
290
159
17
-70
-59
7
35
16
30
42
-21
-102
-156
-191
-174
-159
-216
-239
-176
-136
-124
-98
-100
-134
-227
-126
804
2048
1695
-350
-1645
-1186
-479
-366
-336
-254
-310
-360
-318
-272
-233
-186
-138
-80
-30
23
122
202
192
164
180
194
164
88
-15
-103
-172
-229
-227
-155
-95
-114
-198
-245
-188
-109
-89
-83
-70
-54
11
61
-11
-86
-52
-18
13
8
-180
111
1582
2705
1602
-354
-813
-222
0
-73
-50
-74
-159
-168
-91
-4
20
62
215
319
286
308
408
378
269
255
238
145
104
70
-52
-127
-124
-165
-187
-141
-180
-297
-339
-339
-368
-356
-286
-254
-300
-364
-386
-349
-285
-292
-326
-249
-318
-478
418
2277
2514
326
-1407
-1063
-334
-383
-521
-348
-179
-156
-175
-160
-145
-167
-166
-97
29
188
312
335
293
264
262
233
140
45
2
-47
-120
-145
-132
-142
-140
-102
-71
-44
-14
-15
-17
8
-12
-67
-60
-19
-25
-65
-76
-68
-199
-205
817
2454
2429
366
-1073
-703
-186
-358
-445
-260
-211
-237
-136
-23
-19
-40
-16
-7
-33
-12
93
189
196
172
201
224
154
43
-57
-158
-211
-192
-199
-262
-286
-268
-271
-232
-122
-57
-50
-32
-39
-83
-115
-132
-115
-108
-160
-174
-252
-355
364
1912
2286
657
-843
-769
-236
-199
-290
-246
-215
-223
-228
-211
-145
-51
29
50
24
69
195
225
146
151
243
241
145
76
24
-34
-31
4
-35
-88
-54
-9
-17
21
149
253
251
154
-2
-147
-217
-225
-199
-173
-179
-150
-125
-148
317
1466
1841
441
-1082
-1106
-499
-356
-368
-260
-264
-313
-241
-161
-148
-118
-55
-24
-11
66
163
161
140
241
336
274
193
183
100
-46
-89
-83
-165
-242
-205
-189
-266
-253
-103
-21
-29
-22
-94
-236
-260
-237
-267
-228
-180
-197
-188
-367
-412
854
2653
2306
39
-1160
-700
-277
-300
-241
-162
-177
-157
-76
6
2
-67
-46
63
154
251
355
417
494
600
617
467
220
31
-23
-41
-93
-118
-106
-91
-37
9
-28
-79
-97
-138
-191
-248
-325
-358
-366
-374
-293
-225
-284
-330
-414
-297
872
2374
1989
-31
-1105
-716
-337
-365
-336
-237
-157
-102
-155
-223
-158
-67
-59
-27
58
99
133
219
252
212
195
159
68
-3
-72
-177
-252
-286
-307
-294
-288
-298
-217
-84
-40
-50
-55
-94
-128
-119
-93
2
121
100
42
47
-9
364
1611
2310
1082
-554
-760
-332
-301
-167
189
215
56
51
11
-118
-117
-36
-2
67
189
264
295
323
303
231
171
120
34
-85
-203
-289
-326
-332
-333
-324
-286
-255
-255
-223
-146
-132
-229
-348
-417
-397
-271
-189
-279
-326
-280
-476
-405
909
2277
1457
-688
-1457
-791
-364
-437
-430
-313
-235
-199
-169
-118
-105
-128
-94
-39
-17
61
193
263
285
327
365
360
305
214
142
119
98
53
36
80
138
171
210
269
306
290
252
233
217
188
211
274
226
139
138
-2
45
1136
2359
1667
-316
-1127
-592
-199
-201
-154
-154
-260
-292
-267
-282
-300
-285
-283
-281
-211
-101
-36
-5
13
17
66
112
20
-130
-167
-132
-131
-170
-224
-274
-282
-232
-159
-137
-154
-154
-195
-284
-287
-235
-261
-303
-295
-281
-299
-414
-234
914
2157
1619
-227
-1087
-654
-331
-419
-400
-289
-259
-239
-188
-148
-134
-94
19
128
162
207
309
414
527
639
641
533
465
473
439
330
239
206
174
139
130
110
84
113
107
-33
-166
-179
-199
-278
-288
-210
-184
-225
-238
-318
-330
434
1721
1695
-122
-1569
-1339
-642
-505
-559
-484
-423
-428
-424
-369
-305
-278
-238
-163
-127
-92
37
174
212
234
312
348
263
133
47
-2
-66
-143
-199
-219
-202
-146
-63
29
76
15
-108
-172
-135
-86
-85
-97
-132
-195
-191
-248
-392
235
1912
2716
1313
-449
-693
-223
-158
-232
-162
-96
-6
113
139
135
201
264
238
157
156
302
421
361
299
374
401
264
119
33
-78
-180
-171
-108
-100
-131
-139
-138
-152
-164
-174
-216
-271
-293
-300
-293
-252
-274
-332
-250
-263
-366
495
2207
2384
411
-1062
-768
-241
-277
-308
-252
-279
-246
-181
-188
-181
-124
-61
-8
14
62
198
314
346
389
405
264
42
-114
-158
-115
-127
-265
-337
-241
-137
-93
-62
-60
-65
-42
-44
-76
-91
-79
-34
-13
-56
-58
-116
-208
503
2023
2307
526
-1045
-896
-283
-207
-241
-200
-258
-261
-165
-174
-248
-238
-230
-261
-160
38
87
34
97
160
64
-15
6
-61
-184
-176
-143
-227
-312
-311
-288
-256
-199
-149
-118
-102
-116
-149
-174
-178
-144
-114
-178
-240
-244
-309
3
1182
2025
1035
-662
-1060
-508
-289
-354
-300
-272
-299
-240
-166
-153
-131
-76
-25
8
23
58
141
193
171
174
240
259
201
142
104
54
-9
-54
-65
-47
-14
9
13
-1
-40
-96
-125
-137
-165
-135
-49
-77
-193
-274
-372
18
1441
2491
1379
-571
-977
-320
-141
-262
-145
-52
-86
-67
-58
-111
-109
-42
-8
-1
57
120
123
163
315
427
388
300
231
172
176
213
153
35
-9
0
39
135
205
193
194
223
186
79
-20
4
137
116
-83
-169
-200
15
1264
2758
2311
270
-767
-353
-24
-152
-205
-142
-90
-81
-138
-155
-117
-145
-164
-86
-38
-42
16
95
117
119
90
-21
-157
-239
-289
-377
-503
-603
-658
-702
-719
-673
-597
-550
-568
-657
-785
-901
-965
-985
-1018
-1062
-1060
-1131
-1283
-1032
-114
