# session 33
-8
-23
12
91
60
-104
-186
-137
-109
-119
-98
-66
-49
-28
1
31
60
93
132
175
215
244
261
278
289
258
181
95
19
-53
-114
-151
-166
-168
-174
-181
-173
-157
-152
-149
-139
-133
-131
-122
-112
-114
-117
-112
-110
-116
-123
-122
-110
-102
-119
-138
-117
-63
-23
-5
-6
-42
-86
-91
-75
-77
-82
-89
-83
-49
-64
-109
-121
-263
-200
973
2533
2270
325
-785
-426
-55
-133
-154
-112
-138
-127
-98
-104
-95
-75
-72
-66
-53
-42
-25
-7
4
22
50
78
105
136
169
199
224
244
261
268
249
200
132
56
-18
-75
-114
-141
-153
-153
-155
-158
-152
-144
-141
-138
-136
-136
-127
-120
-134
-148
-145
-147
-149
-120
-79
-58
-44
-43
-75
-109
-113
-121
-142
-135
-121
-136
-128
-104
-134
-149
-212
-375
141
1752
2667
1346
-509
-799
-231
-100
-200
-159
-140
-156
-133
-128
-132
-109
-93
-90
-78
-65
-53
-32
-13
2
27
63
94
115
141
177
208
225
242
262
257
207
133
59
-13
-80
-128
-153
-165
-173
-177
-175
-170
-163
-156
-154
-152
-145
-141
-140
-134
-126
-125
-128
-126
-127
-138
-146
-122
-74
-38
-29
-51
-90
-112
-109
-111
-113
-105
-112
-109
-90
-113
-127
-172
-359
-32
1461
2652
1671
-273
-840
-299
-72
-172
-152
-123
-146
-127
-107
-109
-93
-81
-83
-71
-51
-41
-31
-9
18
36
55
89
126
150
173
202
222
242
269
271
230
170
102
25
-45
-93
-127
-150
-157
-158
-155
-148
-141
-136
-133
-130
-127
-124
-127
-127
-119
-116
-125
-135
-136
-123
-90
-46
-17
-31
-77
-112
-118
-119
-119
-111
-116
-117
-90
-107
-142
-135
-281
-295
778
2376
2273
384
-823
-514
-92
-138
-169
-124
-146
-144
-112
-113
-108
-87
-76
-71
-59
-40
-21
-9
4
26
51
74
101
132
162
190
213
231
249
264
247
183
101
29
-38
-98
-132
-143
-154
-163
-160
-150
-146
-147
-150
-151
-145
-136
-134
-134
-127
-127
-136
-137
-126
-124
-135
-151
-157
-130
-74
-29
-28
-62
-98
-112
-114
-119
-109
-103
-124
-114
-84
-108
-124
-196
-383
122
1755
2670
1299
-588
-858
-258
-96
-169
-130
-131
-150
-115
-103
-107
-90
-80
-73
-55
-41
-32
-9
16
34
52
77
110
146
175
202
228
254
281
302
302
266
194
106
25
-42
-96
-132
-147
-149
-150
-149
-142
-132
-127
-129
-129
-123
-119
-119
-116
-115
-120
-121
-114
-117
-125
-125
-119
-120
-127
-140
-138
-102
-49
-13
-9
-42
-86
-99
-94
-101
-98
-91
-101
-88
-73
-106
-118
-211
-361
303
1969
2639
1102
-616
-702
-151
-96
-183
-127
-125
-148
-121
-111
-107
-84
-81
-87
-69
-48
-39
-24
0
22
40
61
87
116
147
176
197
214
235
255
256
221
157
88
19
-50
-101
-118
-126
-146
-157
-146
-140
-143
-139
-129
-127
-123
-115
-119
-128
-125
-117
-118
-120
-119
-122
-124
-118
-116
-119
-116
-113
-117
-112
-102
-105
-121
-132
-116
-70
-18
11
1
-40
-74
-76
-74
-77
-71
-77
-84
-59
-68
-104
-116
-266
-216
956
2533
2284
332
-788
-426
-53
-141
-163
-110
-137
-137
-103
-96
-93
-87
-83
-68
-54
-47
-30
-6
10
26
53
79
98
126
159
183
199
218
239
257
255
216
150
81
19
-39
-87
-119
-137
-144
-143
-139
-136
-133
-129
-126
-125
-123
-119
-118
-118
-114
-114
-123
-124
-117
-120
-127
-125
-122
-121
-115
-112
-115
-112
-100
-100
-117
-131
-131
-103
-45
3
3
-30
-61
-74
-83
-89
-80
-75
-91
-80
-62
-90
-102
-193
-342
301
1947
2649
1167
-550
-678
-144
-81
-173
-129
-124
-140
-110
-101
-102
-85
-75
-70
-57
-41
-24
-4
12
30
52
75
99
126
155
184
207
225
246
268
268
236
179
112
39
-27
-74
-105
-133
-150
-145
-135
-139
-145
-134
-120
-123
-133
-129
-120
-118
-120
-124
-127
-125
-124
-127
-127
-123
-120
-115
-111
-116
-119
-111
-106
-112
-112
-102
-97
-106
-118
-108
-65
-13
16
5
-39
-70
-69
-75
-87
-74
-75
-90
-61
-60
-105
-114
-253
-271
817
2483
2389
394
-880
-535
-82
-130
-151
-101
-130
-126
-94
-100
-96
-75
-68
-56
-39
-28
-12
6
16
33
63
93
119
147
176
204
225
246
268
279
264
225
165
91
20
-39
-90
-126
-139
-144
-150
-143
-131
-133
-141
-136
-124
-115
-113
-118
-123
-117
-107
-111
-122
-123
-118
-123
-130
-126
-118
-116
-119
-121
-115
-105
-101
-102
-111
-130
-135
-98
-40
-3
1
-22
-57
-73
-73
-81
-82
-73
-86
-87
-67
-90
-109
-163
-326
98
1639
2694
1556
-334
-762
-221
-67
-176
-137
-115
-148
-127
-106
-106
-89
-78
-78
-61
-41
-35
-24
-1
18
33
57
87
115
143
174
197
210
225
249
261
236
180
115
51
-15
-74
-108
-125
-142
-158
-160
-151
-145
-146
-142
-134
-126
-124
-121
-117
-114
-113
-113
-118
-122
-119
-117
-116
-111
-109
-115
-114
-107
-105
-105
-100
-103
-119
-125
-93
-37
3
6
-19
-49
-68
-80
-88
-79
-69
-87
-86
-63
-88
-107
-155
-323
70
1588
2672
1577
-322
-781
-234
-61
-174
-144
-116
-140
-114
-93
-97
-84
-74
-70
-50
-35
-33
-20
7
29
45
64
91
124
158
187
206
222
242
262
270
250
195
123
52
-14
-72
-111
-133
-150
-154
-145
-143
-146
-138
-131
-133
-127
-117
-118
-120
-116
-118
-119
-111
-109
-120
-125
-121
-120
-120
-119
-115
-110
-109
-113
-112
-101
-98
-115
-127
-105
-56
-12
5
-11
-51
-81
-84
-85
-85
-75
-90
-105
-72
-74
-110
-123
-287
-236
985
2569
2206
159
-917
-475
-75
-144
-149
-104
-135
-123
-92
-97
-88
-70
-70
-60
-40
-27
-15
4
25
46
71
99
128
160
191
220
246
264
279
293
284
236
164
90
15
-51
-99
-130
-149
-156
-154
-148
-141
-138
-136
-131
-127
-124
-119
-115
-115
-117
-120
-122
-121
-122
-126
-128
-128
-126
-120
-113
-117
-123
-120
-116
-126
-142
-132
-86
-35
-10
-19
-54
-83
-85
-90
-101
-88
-81
-99
-87
-78
-106
-115
-239
-316
580
2229
2470
708
-728
-571
-95
-116
-173
-119
-134
-140
-105
-100
-99
-81
-73
-66
-51
-38
-23
-5
9
26
51
79
107
137
168
194
215
231
249
265
262
228
168
96
24
-38
-87
-122
-142
-147
-144
-142
-139
-134
-131
-131
-129
-120
-115
-114
-113
-110
-111
-114
-116
-115
-115
-118
-121
-121
-119
-117
-117
-114
-109
-109
-123
-134
-110
-55
-11
-2
-24
-61
-83
-82
-86
-90
-82
-89
-93
-67
-86
-117
-134
-300
-148
1155
2560
1967
6
-838
-364
-54
-148
-146
-107
-135
-122
-95
-98
-87
-69
-66
-57
-40
-31
-20
0
23
42
63
89
119
149
179
205
221
237
258
270
253
206
143
75
5
-59
-105
-130
-143
-149
-150
-148
-145
-139
-133
-128
-125
-123
-123
-119
-112
-112
-117
-116
-114
-118
-123
-122
-119
-118
-117
-117
-117
-114
-109
-106
-107
-115
-125
-113
-67
-15
11
-1
-42
-76
-80
-80
-88
-79
-80
-94
-70
-67
-107
-109
-240
-316
644
2317
2426
538
-851
-598
-103
-116
-150
-101
-128
-132
-96
-97
-94
-74
-68
-65
-52
-37
-20
0
19
41
66
91
120
153
187
216
237
254
274
294
293
253
184
107
31
-39
-92
-127
-147
-155
-155
-151
-144
-135
-129
-127
-125
-119
-114
-113
-114
-114
-113
-113
-115
-120
-123
-121
-122
-123
-120
-116
-118
-118
-115
-112
-109
-114
-131
-133
-95
-42
-9
-7
-35
-72
-85
-85
-94
-88
-80
-94
-83
-66
-98
-112
-195
-338
294
1925
2622
1138
-587
-714
-163
-85
-170
-123
-121
-140
-108
-98
-104
-85
-69
-62
-52
-41
-30
-15
2
24
50
72
96
127
160
187
210
227
243
259
266
243
186
113
41
-23
-77
-114
-134
-144
-148
-147
-143
-137
-133
-130
-126
-122
-116
-113
-112
-110
-108
-111
-114
-114
-113
-115
-116
-116
-115
-115
-114
-111
-109
-106
-103
-99
-99
-109
-121
-105
-57
-11
10
0
-37
-69
-74
-76
-80
-72
-80
-91
-65
-69
-104
-112
-260
-231
897
2464
2257
335
-803
-453
-64
-137
-162
-112
-134
-127
-94
-96
-93
-77
-72
-64
-48
-35
-24
-6
14
34
54
81
114
143
167
194
219
237
252
267
264
224
157
84
15
-46
-93
-124
-140
-147
-149
-151
-150
-145
-138
-132
-129
-125
-119
-116
-115
-113
-112
-115
-115
-117
-121
-121
-118
-116
-116
-119
-121
-115
-106
-104
-108
-109
-104
-99
-104
-116
-111
-70
-18
10
7
-22
-56
-69
-70
-78
-70
-61
-79
-71
-53
-85
-100
-192
-344
308
1974
2664
1144
-588
-698
-152
-87
-176
-125
-121
-141
-112
-101
-99
-80
-72
-70
-59
-46
-30
-6
12
25
47
83
118
147
174
203
229
248
265
284
289
262
205
131
53
-19
-75
-117
-147
-158
-155
-151
-148
-143
-140
-142
-140
-132
-126
-126
-126
-120
-116
-120
-125
-124
-122
-123
-125
-128
-129
-125
-120
-118
-116
-112
-109
-108
-108
-121
-133
-108
-56
-19
-4
-9
-44
-78
-82
-83
-89
-78
-83
-97
-70
-67
-102
-110
-257
-274
803
2440
2348
396
-856
-523
-77
-126
-152
-101
-124
-122
-95
-101
-93
-72
-69
-62
-45
-33
-20
-1
16
36
60
85
114
151
184
208
231
251
266
279
275
234
166
92
20
-47
-98
-129
-146
-155
-155
-149
-144
-142
-139
-132
-124
-121
-120
-115
-111
-111
-112
-110
-110
-110
-112
-115
-115
-111
-112
-115
-115
-112
-110
-107
-105
-103
-101
-97
-97
-112
-126
-99
-40
0
11
0
-32
-62
-72
-78
-79
-66
-75
-88
-60
-62
-100
-115
-259
-227
901
2495
2333
407
-777
-457
-68
-140
-166
-117
-142
-135
-103
-109
-106
-84
-75
-68
-53
-43
-29
-10
6
25
49
77
107
138
168
198
223
240
259
278
274
231
165
96
26
-42
-92
-121
-137
-145
-148
-150
-149
-142
-137
-135
-130
-125
-122
-117
-110
-108
-107
-106
-110
-114
-115
-117
-118
-117
-114
-112
-110
-108
-106
-104
-103
-105
-102
-96
-92
-89
-94
-111
-112
-72
-19
11
14
-9
-47
-67
-67
-75
-76
-67
-76
-73
-57
-86
-100
-150
-319
99
1649
2722
1598
-302
-755
-226
-62
-166
-135
-115
-139
-115
-102
-108
-88
-72
-71
-60
-44
-33
-18
-3
14
38
63
85
112
148
182
207
226
242
260
269
252
206
140
66
-7
-67
-112
-140
-152
-155
-157
-156
-151
-146
-142
-135
-130
-130
-126
-122
-120
-119
-119
-116
-106
-103
-112
-116
-110
-113
-121
-119
-118
-120
-116
-106
-99
-99
-104
-102
-93
-90
-91
-92
-102
-110
-85
-35
-4
1
-10
-36
-58
-63
-74
-77
-58
-62
-74
-53
-64
-95
-129
-305
-128
1239
2693
2067
42
-816
-333
-38
-142
-137
-107
-136
-105
-78
-104
-97
-66
-60
-61
-49
-29
-11
3
25
57
82
102
134
172
205
237
264
278
291
312
307
253
177
101
23
-48
-97
-134
-160
-167
-163
-161
-158
-154
-150
-144
-140
-141
-142
-138
-131
-128
-130
-132
-131
-131
-133
-133
-132
-134
-135
-133
-133
-130
-124
-120
-122
-124
-127
-137
-139
-115
-73
-38
-18
-22
-57
-89
-92
-92
-96
-86
-87
-98
-76
-77
-112
-119
-261
-278
797
2459
2406
442
-857
-536
-79
-130
-163
-112
-138
-136
-103
-106
-101
-80
-79
-73
-52
-40
-35
-20
6
30
50
74
106
142
174
203
232
259
282
295
283
240
173
95
14
-54
-99
-128
-145
-151
-152
-152
-148
-141
-135
-133
-132
-124
-110
-104
-106
-103
-97
-100
-102
-100
-101
-105
-104
-101
-103
-105
-102
-98
-95
-94
-92
-88
-90
-107
-113
-76
-23
4
10
-2
-36
-62
-63
-71
-79
-71
-77
-83
-58
-69
-98
-128
-280
-69
1263
2632
2001
55
-771
-318
-43
-154
-154
-118
-145
-131
-108
-116
-102
-84
-87
-79
-58
-45
-36
-18
5
24
41
66
100
134
164
195
223
241
256
269
254
202
134
70
3
-66
-115
-138
-151
-162
-163
-157
-152
-151
-154
-156
-147
-136
-134
-133
-129
-130
-131
-123
-122
-129
-128
-119
-120
-128
-128
-121
-117
-121
-123
-118
-122
-139
-136
-91
-38
-16
-24
-52
-80
-89
-93
-106
-103
-96
-111
-103
-81
-109
-125
-206
-362
231
1882
2675
1215
-599
-779
-204
-106
-192
-142
-137
-153
-124
-124
-130
-102
-88
-88
-71
-52
-43
-26
0
22
42
69
106
143
175
206
241
272
295
311
310
279
218
140
54
-27
-92
-131
-152
-165
-169
-166
-160
-153
-145
-138
-137
-136
-128
-119
-118
-119
-117
-116
-117
-112
-107
-106
-106
-105
-105
-104
-101
-98
-97
-91
-85
-96
-110
-87
-33
6
17
11
-17
-49
-55
-52
-54
-45
-49
-58
-34
-38
-76
-87
-221
-194
922
2540
2400
441
-782
-444
-30
-104
-129
-74
-106
-104
-65
-68
-68
-47
-42
-40
-27
-13
2
21
35
50
79
111
139
164
196
230
256
273
292
306
295
248
179
99
22
-42
-92
-127
-146
-156
-162
-161
-155
-152
-150
-147
-145
-143
-141
-139
-138
-138
-140
-144
-149
-153
-158
-159
-155
-154
-161
-165
-165
-164
-166
-166
-163
-159
-160
-163
-171
-185
-183
-146
-98
-69
-66
-92
-133
-151
-148
-154
-156
-148
-157
-154
-139
-165
-181
-243
-398
90
1668
2655
1441
-429
-806
-266
-133
-246
-206
-184
-212
-186
-162
-166
-154
-137
-125
-107
-92
-81
-59
-34
-15
7
38
71
108
147
180
212
243
265
283
301
293
244
178
115
53
0
-35
-56
-65
-61
-53
-42
-27
-13
-6
2
17
31
38
44
54
