# session 19
-9
-5
-24
-14
49
126
146
91
37
-96
-312
218
1916
2885
1426
-641
-944
-233
-28
-123
-69
-56
-93
-63
-44
-57
-48
-35
-26
-5
21
50
91
138
188
236
273
303
329
337
312
258
193
126
56
-10
-61
-95
-113
-119
-122
-128
-130
-127
-134
-152
-156
-135
-104
-72
-41
-34
-55
-78
-98
-115
-115
-119
-133
-118
-112
-162
-261
-458
-320
1008
2718
2470
361
-876
-490
-127
-290
-317
-228
-256
-256
-212
-210
-198
-167
-160
-160
-138
-103
-66
-30
11
62
118
162
186
196
195
174
127
66
5
-49
-89
-114
-124
-123
-121
-123
-123
-122
-118
-106
-111
-160
-217
-228
-202
-190
-203
-212
-212
-216
-205
-182
-205
-252
-236
-210
-253
-354
-551
-397
959
2641
2312
213
-897
-436
-100
-279
-282
-186
-220
-215
-168
-175
-176
-155
-151
-140
-110
-83
-50
-4
48
103
158
203
236
261
262
228
171
110
48
-15
-64
-90
-96
-100
-111
-117
-114
-116
-133
-143
-135
-130
-138
-135
-110
-74
-37
-14
-16
-33
-50
-64
-58
-44
-51
-50
-30
-58
-127
-282
-471
118
1868
2887
1516
-447
-733
-146
-94
-242
-173
-154
-191
-153
-133
-144
-125
-108
-101
-80
-56
-35
-1
40
81
127
171
200
220
234
226
188
131
67
2
-55
-97
-121
-133
-136
-135
-132
-128
-123
-118
-120
-122
-121
-133
-150
-142
-113
-80
-46
-26
-42
-74
-96
-108
-103
-103
-123
-117
-93
-124
-188
-350
-485
294
2068
2698
1016
-729
-706
-138
-172
-281
-193
-195
-223
-180
-173
-182
-158
-142
-134
-114
-93
-68
-30
10
51
96
136
163
186
202
192
151
96
42
-14
-68
-107
-127
-136
-136
-133
-132
-129
-121
-112
-109
-110
-107
-107
-123
-133
-116
-87
-57
-26
-19
-44
-72
-90
-96
-87
-89
-97
-76
-81
-133
-227
-441
-274
1095
2602
2007
-89
-963
-384
-68
-234
-224
-157
-199
-184
-140
-145
-139
-118
-112
-95
-67
-45
-19
18
57
99
142
176
200
222
231
208
159
103
47
-10
-60
-97
-120
-132
-131
-123
-114
-109
-102
-98
-101
-99
-99
-116
-129
-110
-77
-46
-17
-7
-27
-58
-79
-85
-74
-78
-88
-66
-69
-119
-206
-440
-345
963
2514
2019
-53
-978
-415
-70
-225
-222
-155
-199
-186
-141
-146
-138
-111
-101
-86
-60
-38
-13
22
60
103
147
179
203
227
237
216
166
104
44
-12
-60
-91
-109
-119
-123
-119
-112
-105
-95
-85
-85
-89
-85
-89
-109
-119
-103
-79
-53
-25
-22
-46
-73
-93
-98
-86
-97
-110
-87
-96
-149
-245
-467
-245
1183
2534
1689
-383
-1037
-379
-90
-230
-197
-142
-182
-165
-131
-137
-127
-107
-96
-70
-44
-32
-6
41
87
127
161
186
211
238
248
223
176
120
56
-10
-60
-93
-115
-127
-128
-121
-110
-99
-89
-78
-70
-74
-81
-84
-97
-115
-112
-91
-71
-49
-33
-40
-61
-83
-98
-90
-80
-96
-93
-73
-104
-152
-280
-441
189
1811
2440
823
-930
-896
-207
-128
-222
-149
-144
-167
-128
-119
-127
-101
-84
-74
-46
-22
-1
34
75
114
158
197
219
236
253
246
203
144
85
22
-38
-82
-108
-124
-133
-137
-134
-128
-123
-112
-99
-96
-101
-103
-113
-131
-129
-105
-81
-57
-37
-41
-63
-83
-95
-91
-84
-96
-89
-71
-99
-153
-289
-395
344
1989
2521
878
-757
-666
-92
-134
-242
-154
-162
-192
-147
-138
-147
-123
-109
-102
-80
-61
-42
-10
25
58
97
128
146
164
184
182
148
101
48
-9
-59
-94
-116
-131
-138
-137
-130
-124
-121
-117
-107
-102
-106
-110
-113
-127
-138
-123
-94
-69
-40
-24
-41
-70
-89
-96
-88
-87
-95
-76
-74
-119
-176
-356
-368
707
2352
2286
328
-905
-503
-62
-186
-223
-141
-170
-171
-128
-132
-131
-104
-95
-87
-62
-39
-16
17
53
93
134
165
183
202
219
213
171
114
61
7
-47
-87
-109
-120
-126
-129
-123
-110
-101
-100
-96
-92
-95
-97
-100
-118
-139
-132
-104
-79
-52
-31
-41
-64
-73
-75
-73
-80
-103
-96
-76
-100
-151
-323
-408
502
2177
2381
493
-966
-653
-79
-142
-216
-143
-177
-192
-124
-107
-125
-116
-104
-91
-66
-43
-14
37
79
86
98
145
198
226
237
231
195
141
88
29
-37
-81
-100
-113
-123
-125
-126
-120
-102
-92
-90
-81
-80
-96
-112
-125
-138
-131
-111
-99
-67
-22
-20
-52
-75
-89
-84
-68
-91
-112
-84
-99
-153
-229
-397
-47
1428
2530
1395
-576
-949
-265
-96
-246
-182
-141
-183
-157
-136
-139
-104
-85
-96
-80
-52
-36
-4
35
50
77
143
195
202
212
234
217
161
104
48
-13
-68
-101
-105
-101
-109
-110
-90
-84
-101
-101
-75
-68
-82
-86
-89
-110
-116
-95
-75
-53
-23
-16
-39
-67
-99
-112
-82
-72
-94
-84
-82
-127
-222
-431
-223
1134
2454
1690
-297
-970
-366
-80
-207
-193
-155
-180
-145
-117
-126
-109
-87
-80
-72
-70
-44
17
63
72
89
139
189
208
218
241
244
200
129
59
1
-43
-82
-112
-124
-132
-138
-124
-99
-93
-106
-115
-109
-91
-74
-77
-103
-124
-121
-106
-79
-34
-16
-53
-91
-100
-100
-89
-78
-88
-82
-77
-110
-167
-368
-455
506
2157
2266
410
-925
-617
-122
-177
-218
-158
-192
-183
-126
-143
-155
-108
-87
-98
-78
-46
-30
3
55
93
125
168
192
195
217
237
205
145
91
29
-36
-71
-91
-122
-132
-107
-98
-117
-120
-101
-87
-83
-82
-80
-76
-86
-107
-105
-88
-82
-52
-6
-12
-50
-59
-63
-79
-87
-93
-81
-59
-76
-122
-289
-495
130
1788
2511
1024
-692
-755
-169
-112
-191
-122
-145
-186
-140
-122
-126
-100
-96
-102
-66
-22
-3
22
62
92
114
139
172
212
249
254
208
146
98
46
-25
-83
-105
-110
-120
-127
-119
-115
-125
-121
-98
-85
-90
-93
-91
-101
-121
-128
-115
-94
-68
-40
-36
-60
-86
-107
-111
-90
-93
-119
-112
-113
-140
-212
-449
-338
985
2482
1927
-117
-997
-438
-87
-222
-222
-156
-197
-200
-159
-144
-128
-115
-111
-85
-62
-68
-51
15
65
81
119
166
180
186
207
202
163
126
83
4
-77
-111
-119
-147
-177
-183
-161
-116
-102
-147
-160
-99
-79
-129
-132
-108
-143
-152
-84
-51
-45
5
5
-74
-111
-78
-47
-61
-101
-86
-37
-58
-123
-305
-446
393
2138
2558
810
-715
-581
-142
-225
-245
-125
-144
-161
-110
-109
-116
-86
-63
-46
-28
-22
-4
41
92
136
176
209
238
269
299
301
250
168
101
53
-6
-74
-114
-119
-118
-122
-126
-131
-138
-135
-125
-120
-120
-119
-119
-130
-149
-157
-141
-114
-87
-65
-58
-71
-91
-106
-107
-99
-112
-118
-86
-88
-142
-248
-464
-210
1243
2599
1746
-344
-1018
-376
-104
-255
-218
-165
-214
-194
-152
-157
-143
-118
-113
-97
-69
-45
-14
26
71
124
175
206
227
246
251
225
172
110
47
-17
-74
-111
-128
-129
-129
-139
-150
-145
-132
-129
-125
-116
-113
-110
-100
-107
-127
-124
-96
-71
-52
-41
-48
-67
-90
-104
-94
-90
-105
-89
-77
-121
-177
-345
-393
600
2270
2313
338
-1004
-595
-68
-171
-223
-136
-165
-174
-128
-129
-124
-89
-77
-69
-44
-21
1
37
84
134
181
219
244
260
270
256
208
141
74
9
-51
-95
-121
-134
-139
-146
-152
-148
-137
-128
-120
-112
-109
-105
-100
-112
-131
-125
-99
-70
-39
-17
-26
-53
-78
-92
-84
-79
-96
-89
-66
-91
-148
-319
-427
426
2153
2562
774
-811
-631
-84
-161
-252
-160
-178
-205
-157
-148
-154
-130
-117
-108
-81
-56
-34
2
44
88
135
176
203
224
239
227
184
127
64
-4
-67
-111
-135
-146
-151
-152
-152
-150
-143
-135
-129
-120
-109
-108
-114
-112
-116
-136
-143
-122
-95
-65
-35
-31
-54
-75
-89
-92
-81
-86
-95
-73
-78
-129
-239
-444
-127
1388
2709
1783
-292
-917
-298
-79
-241
-201
-151
-193
-170
-137
-146
-131
-108
-103
-84
-55
-35
-7
33
73
116
163
203
228
245
250
227
177
115
47
-21
-76
-111
-134
-145
-147
-150
-150
-139
-127
-120
-111
-106
-106
-100
-93
-99
-105
-103
-115
-133
-127
-99
-69
-39
-24
-41
-67
-85
-94
-83
-77
-93
-82
-65
-100
-155
-313
-385
543
2283
2571
686
-857
-626
-94
-177
-255
-165
-181
-201
-155
-147
-149
-127
-115
-104
-78
-55
-32
4
46
89
133
173
204
228
246
241
204
148
88
24
-42
-93
-121
-131
-136
-142
-146
-141
-132
-123
-114
-108
-107
-104
-98
-97
-94
-88
-92
-106
-109
-113
-138
-153
-127
-83
-49
-30
-36
-61
-78
-86
-86
-78
-86
-87
-62
-73
-118
-214
-380
56
1633
2766
1606
-424
-881
-255
-96
-246
-192
-153
-190
-158
-132
-142
-124
-101
-96
-77
-51
-30
-2
38
81
127
172
206
230
252
263
245
196
134
70
4
-54
-91
-112
-125
-135
-140
-135
-124
-114
-108
-101
-95
-94
-94
-98
-107
-112
-120
-142
-154
-136
-105
-76
-47
-41
-66
-90
-103
-109
-100
-102
-113
-93
-91
-133
-200
-386
-273
999
2578
2183
106
-947
-454
-89
-237
-248
-175
-209
-200
-162
-171
-165
-136
-126
-112
-85
-59
-32
5
49
97
145
181
206
228
241
228
186
129
67
4
-52
-97
-126
-141
-148
-153
-153
-148
-138
-127
-120
-117
-112
-107
-103
-98
-95
-96
-102
-125
-145
-131
-96
-69
-43
-32
-53
-75
-80
-85
-81
-82
-101
-88
-69
-106
-144
-274
-345
550
2235
2443
484
-1069
-766
-129
-145
-220
-141
-142
-140
-95
-99
-106
-80
-59
-36
-2
19
42
86
140
195
249
295
323
345
361
348
296
223
148
70
-7
-66
-104
-128
-142
-148
-150
-149
-144
-139
-133
-126
-122
-119
-114
-115
-120
-124
-137
-154
-156
-139
-120
-98
-78
-80
-98
-114
-124
-119
-111
-120
-116
-98
-121
-146
-217
-340
184
1680
2422
1004
-776
-879
-207
-112
-238
-165
-145
-181
-147
-128
-134
-111
-91
-86
-66
-41
-19
11
50
91
135
176
206
227
242
237
202
147
89
30
-33
-83
-109
-122
-132
-136
-137
-138
-134
-123
-116
-109
-100
-97
-102
-105
-114
-130
-134
-116
-86
-51
-25
-30
-56
-75
-88
-91
-82
-85
-87
-71
-80
-116
-209
-340
97
1488
2365
1222
-516
-765
-158
-68
-221
-154
-123
-166
-134
-110
-120
-99
-76
-71
-51
-27
-10
16
54
95
138
179
206
222
234
230
199
145
87
29
-29
-77
-107
-120
-126
-131
-133
-130
-124
-118
-114
-111
-104
-97
-97
-101
-106
-121
-138
-134
-109
-80
-48
-26
-34
-62
-84
-95
-89
-82
-94
-89
-71
-93
-137
-255
-344
363
1918
2392
771
-810
-679
-86
-129
-242
-152
-159
-191
-143
-131
-142
-117
-97
-91
-69
-44
-19
11
46
86
132
173
203
228
247
245
212
156
95
30
-34
-86
-115
-130
-139
-145
-143
-135
-125
-116
-108
-105
-99
-92
-95
-102
-104
-117
-140
-137
-105
-70
-38
-19
-33
-64
-86
-95
-86
-84
-98
-84
-75
-112
-145
-292
-428
365
1987
2272
468
-1016
-746
-136
-148
-215
-136
-148
-162
-120
-115
-115
-87
-73
-62
-34
-10
13
46
85
126
173
215
246
274
300
302
266
207
141
70
-2
-57
-90
-109
-121
-127
-125
-119
-112
-104
-96
-91
-85
-82
-88
-90
-93
-112
-129
-115
-86
-56
-25
-16
-37
-63
-79
-83
-75
-83
-92
-68
-72
-112
-169
-383
-344
839
2326
1892
-130
-1086
-515
-80
-181
-192
-131
-164
-158
-121
-122
-112
-87
-76
-61
-37
-18
8
45
81
120
163
198
223
246
263
254
213
154
87
16
-49
-98
-127
-143
-148
-147
-145
-139
-129
-120
-113
-106
-102
-106
-110
-111
-126
-146
-138
-107
-75
-44
-28
-44
-72
-91
-95
-84
-86
-102
-87
-80
-117
-165
-361
-474
465
2160
2323
434
-968
-652
-112
-164
-217
-147
-174
-184
-140
-138
-137
-108
-94
-82
-58
-42
-22
15
60
107
158
197
221
246
272
272
234
175
110
40
-31
-86
-113
-124
-130
-138
-145
-145
-132
-114
-101
-96
-93
-91
-91
-92
-104
-122
-115
-84
-63
-44
-13
-9
-48
-82
-92
-90
-85
-90
-78
-54
-89
-144
-227
-416
-81
1375
2444
1273
-753
-1164
-416
-115
-196
-140
-104
-132
-93
-66
-80
-62
-34
-21
0
33
66
102
142
190
249
305
342
369
391
390
348
277
197
114
26
-47
-94
-121
-135
-144
-149
-151
-147
-141
-135
-130
-128
-125
-121
-124
-139
-146
-134
-115
-92
-68
-62
-80
-102
-121
-129
-119
-120
-132
-111
-106
-146
-200
-368
-333
751
2245
1968
-2
-1056
-527
-78
-205
-230
-150
-183
-185
-142
-142
-136
-110
-101
-90
-65
-44
-19
17
55
99
146
183
204
220
227
205
155
95
35
-27
-82
-120
-138
-145
-151
-158
-160
-158
-154
-147
-139
-140
-143
-143
-149
-157
-149
-122
-86
-49
-34
-53
-83
-102
-106
-97
-98
-113
-104
-93
-117
-167
-318
-330
558
1992
2036
366
-782
-451
-39
-172
-228
-137
-157
-168
-123
-119
-120
-93
-78
-64
-40
-18
8
48
97
150
203
242
266
283
288
264
209
145
83
18
-40
-75
-90
-100
-106
-109
-114
-120
-121
-115
-107
-99
-90
-85
-84
-82
-86
-100
-105
-86
-56
-24
6
10
-15
-41
-54
-54
-45
-51
-59
-41
-45
-80
-157
-318
-53
1248
2407
1575
-311
-860
-238
-14
-185
-154
-101
-148
-129
-94
-103
-92
-71
-67
-52
-29
-10
16
51
91
137
184
222
248
267
267
236
177
108
38
-34
-96
-134
-151
-158
-166
-171
-172
-171
-168
-161
-152
-144
-137
-129
-123
-118
-112
-105
-101
-99
-97
-95
-95
-98
-101
-103
