# session 40
-22
-18
-36
66
243
291
252
259
258
196
128
73
12
-37
-65
-83
-92
-92
-92
-94
-92
-86
-83
-81
-76
-72
-71
-70
-67
-65
-65
-67
-69
-68
-66
-68
-68
-67
-68
-67
-60
-65
-83
-85
-57
-13
25
27
-13
-50
-57
-62
-69
-59
-63
-75
-51
-53
-95
-138
-262
-25
1341
2782
2119
7
-847
-263
32
-157
-161
-100
-145
-135
-102
-115
-107
-83
-79
-72
-54
-41
-26
-6
11
25
43
68
93
110
121
129
136
146
165
177
156
102
40
-19
-76
-125
-157
-173
-177
-174
-169
-165
-160
-151
-142
-136
-132
-131
-132
-129
-125
-123
-121
-120
-121
-122
-120
-120
-119
-115
-110
-113
-123
-123
-100
-57
-16
-11
-49
-89
-100
-104
-107
-96
-99
-106
-80
-82
-118
-142
-238
-13
1268
2627
1958
-150
-1027
-406
-9
-139
-146
-89
-130
-121
-85
-93
-87
-64
-58
-49
-29
-14
3
23
39
58
82
104
123
142
159
169
174
183
204
217
195
138
68
-1
-64
-115
-146
-162
-171
-172
-166
-158
-150
-141
-132
-128
-123
-117
-113
-111
-109
-108
-110
-111
-111
-111
-112
-113
-113
-108
-104
-111
-122
-114
-81
-34
0
-11
-59
-91
-92
-94
-94
-85
-93
-94
-69
-84
-120
-184
-287
232
1827
2841
1562
-413
-746
-115
-22
-195
-142
-119
-164
-136
-115
-121
-100
-87
-89
-69
-49
-40
-25
-3
13
30
52
74
94
110
122
131
140
152
166
166
144
100
38
-23
-70
-114
-150
-161
-153
-151
-155
-151
-137
-127
-132
-138
-131
-120
-113
-108
-106
-109
-108
-106
-114
-122
-117
-104
-95
-102
-115
-113
-88
-54
-17
0
-31
-80
-95
-100
-108
-96
-90
-102
-82
-75
-111
-126
-211
-86
1051
2506
2071
-84
-1207
-610
-54
-117
-130
-61
-100
-102
-62
-69
-68
-43
-35
-28
-8
7
21
42
64
86
112
135
155
175
192
204
214
226
241
244
216
154
78
1
-69
-121
-152
-172
-183
-182
-176
-168
-160
-154
-149
-140
-131
-125
-122
-121
-122
-122
-118
-117
-122
-125
-122
-114
-113
-130
-149
-137
-91
-43
-26
-47
-81
-102
-114
-118
-104
-98
-106
-92
-87
-119
-137
-215
-129
901
2417
2319
403
-815
-404
34
-127
-188
-99
-134
-148
-103
-108
-112
-84
-74
-69
-52
-39
-30
-15
2
17
34
51
71
90
101
106
110
117
134
147
128
78
23
-28
-75
-113
-138
-152
-158
-159
-156
-148
-141
-140
-139
-135
-127
-122
-124
-124
-119
-112
-108
-104
-104
-107
-102
-95
-105
-120
-105
-56
-8
1
-30
-65
-78
-83
-87
-78
-78
-88
-66
-61
-97
-118
-200
-59
1076
2533
2185
181
-865
-345
44
-134
-165
-84
-128
-134
-91
-96
-93
-69
-64
-55
-36
-25
-15
3
21
37
55
74
91
105
120
135
139
142
160
169
139
83
26
-29
-86
-135
-165
-174
-174
-174
-171
-163
-152
-143
-141
-144
-145
-138
-126
-118
-117
-121
-123
-122
-118
-115
-116
-112
-99
-100
-119
-121
-85
-34
-6
-25
-69
-96
-102
-100
-90
-91
-100
-78
-72
-115
-124
-180
-174
708
2307
2509
651
-811
-506
34
-95
-190
-86
-111
-147
-104
-101
-109
-79
-67
-67
-48
-31
-25
-8
20
40
47
55
74
92
103
113
120
123
136
156
151
105
42
-18
-72
-116
-145
-158
-160
-156
-149
-142
-136
-128
-119
-116
-117
-115
-112
-114
-112
-108
-109
-111
-108
-105
-107
-106
-98
-94
-105
-116
-106
-72
-24
10
-6
-55
-80
-85
-94
-87
-78
-88
-71
-55
-89
-109
-183
-169
741
2322
2431
506
-921
-552
29
-73
-166
-81
-111
-139
-95
-90
-92
-67
-56
-51
-37
-29
-16
5
23
37
55
72
89
103
111
114
116
122
142
166
162
116
52
-7
-61
-108
-140
-155
-160
-157
-144
-133
-132
-131
-120
-112
-113
-114
-111
-110
-108
-105
-106
-113
-116
-112
-112
-112
-108
-111
-124
-119
-84
-37
-7
-21
-66
-95
-101
-104
-98
-93
-102
-87
-75
-109
-118
-178
-198
629
2221
2479
625
-908
-623
-7
-75
-177
-85
-103
-138
-99
-93
-100
-77
-66
-61
-42
-24
-12
1
16
35
54
67
79
93
103
108
108
113
137
166
161
117
59
0
-59
-110
-141
-155
-160
-157
-148
-140
-133
-126
-118
-110
-110
-114
-112
-108
-108
-98
-84
-92
-118
-129
-114
-95
-96
-116
-117
-81
-32
-1
-8
-49
-83
-89
-96
-97
-86
-93
-95
-76
-97
-121
-164
-251
285
1807
2589
1123
-797
-960
-205
-20
-141
-93
-65
-90
-73
-70
-70
-44
-35
-34
-8
15
30
56
81
93
105
126
148
158
157
162
175
184
201
230
235
190
116
39
-41
-116
-162
-176
-192
-206
-191
-174
-186
-189
-163
-151
-165
-162
-144
-139
-143
-141
-139
-140
-133
-127
-136
-142
-126
-95
-60
-33
-45
-85
-115
-126
-125
-105
-101
-113
-99
-95
-108
-87
-169
-108
919
2315
1931
-135
-1202
-563
13
-83
-140
-71
-90
-87
-58
-71
-56
-16
-12
-14
2
13
24
44
64
85
104
116
128
147
160
168
177
187
195
201
187
128
41
-30
-75
-112
-144
-160
-160
-152
-153
-155
-141
-123
-124
-129
-123
-115
-107
-96
-103
-121
-123
-114
-116
-126
-126
-107
-62
-11
-5
-60
-114
-122
-114
-111
-103
-107
-108
-85
-95
-125
-154
-234
144
1506
2506
1394
-551
-923
-186
27
-147
-119
-90
-133
-100
-78
-91
-60
-42
-60
-46
-11
4
11
29
52
66
69
82
108
123
129
137
138
135
152
169
136
59
-10
-55
-95
-132
-152
-159
-160
-150
-135
-127
-128
-126
-125
-134
-146
-141
-123
-113
-114
-111
-103
-105
-119
-123
-102
-59
-20
-20
-54
-82
-100
-127
-133
-107
-95
-91
-85
-111
-124
-159
-238
280
1690
2326
874
-829
-799
-60
12
-140
-70
-66
-126
-104
-81
-76
-48
-30
-21
-12
-18
-11
30
62
68
74
89
108
125
138
147
148
135
137
165
171
124
62
5
-58
-112
-138
-152
-155
-138
-126
-138
-147
-134
-116
-106
-106
-113
-115
-110
-110
-115
-113
-110
-119
-121
-92
-38
1
-14
-62
-91
-101
-119
-111
-81
-95
-117
-94
-99
-126
-155
-221
231
1620
2437
1138
-694
-850
-103
30
-143
-100
-84
-124
-76
-50
-76
-64
-42
-43
-33
-11
0
7
26
50
64
70
79
87
98
120
136
131
126
131
127
114
90
18
-80
-138
-154
-162
-160
-155
-148
-137
-138
-144
-129
-114
-121
-122
-114
-117
-125
-123
-121
-125
-123
-113
-101
-79
-39
-22
-57
-98
-109
-120
-134
-124
-123
-129
-99
-88
-121
-156
-266
-74
1114
2336
1587
-479
-1244
-510
-23
-103
-104
-52
-87
-72
-26
-28
-38
-31
-12
10
23
42
76
96
101
114
138
165
180
180
189
209
223
235
247
237
200
141
60
-19
-65
-101
-154
-184
-165
-144
-144
-142
-137
-131
-107
-87
-102
-121
-108
-93
-96
-100
-100
-115
-126
-103
-57
-15
-10
-55
-106
-115
-117
-135
-135
-131
-129
-106
-110
-134
-172
-279
60
1404
2421
1316
-663
-1055
-272
-2
-164
-133
-89
-130
-101
-73
-93
-76
-42
-39
-36
-20
-5
13
39
60
72
86
111
129
125
121
132
144
155
169
167
136
82
8
-68
-120
-146
-159
-163
-164
-164
-155
-141
-130
-124
-121
-120
-118
-119
-120
-113
-107
-115
-120
-101
-59
-18
-11
-49
-98
-123
-128
-121
-108
-117
-123
-97
-108
-146
-181
-297
-8
1347
2545
1611
-422
-972
-244
26
-165
-147
-89
-132
-115
-83
-97
-91
-67
-53
-38
-29
-16
11
28
29
43
76
99
104
109
121
124
128
151
170
148
98
50
-1
-58
-106
-139
-159
-170
-174
-170
-155
-138
-130
-128
-121
-115
-116
-114
-107
-99
-103
-117
-120
-98
-67
-30
0
-21
-76
-103
-108
-110
-101
-102
-111
-87
-88
-127
-164
-297
-125
1153
2603
2040
-30
-909
-309
34
-142
-148
-84
-133
-133
-106
-118
-104
-73
-68
-57
-29
-17
-19
-9
18
44
60
76
91
97
101
110
117
128
146
143
109
60
0
-61
-103
-138
-173
-183
-169
-158
-152
-142
-136
-131
-120
-114
-121
-129
-124
-115
-110
-101
-96
-109
-127
-118
-74
-23
1
-16
-53
-85
-109
-121
-110
-102
-110
-94
-82
-114
-138
-243
-266
659
2318
2518
632
-830
-534
-4
-109
-185
-96
-136
-169
-119
-109
-116
-93
-81
-81
-67
-44
-23
-14
-9
9
36
57
70
78
84
82
80
100
137
152
126
75
19
-34
-84
-126
-158
-180
-186
-173
-156
-150
-148
-139
-127
-122
-124
-121
-112
-106
-97
-93
-103
-111
-98
-87
-99
-109
-97
-66
-18
22
13
-36
-71
-84
-97
-93
-82
-96
-91
-70
-93
-119
-215
-293
462
2092
2556
824
-870
-775
-113
-57
-153
-95
-94
-108
-76
-80
-85
-57
-42
-37
-18
2
21
41
58
77
93
104
124
147
157
161
169
180
198
218
204
150
84
13
-60
-114
-145
-167
-184
-184
-171
-157
-148
-138
-122
-108
-104
-103
-100
-103
-107
-105
-106
-114
-118
-117
-124
-132
-123
-90
-44
-22
-53
-101
-121
-126
-123
-109
-117
-133
-111
-112
-136
-132
-198
53
1325
2556
1683
-512
-1306
-567
-87
-153
-131
-76
-114
-95
-59
-72
-64
-34
-27
-19
1
12
29
69
97
104
128
160
159
161
200
227
227
244
259
224
165
104
19
-61
-108
-157
-213
-233
-228
-234
-226
-188
-164
-163
-153
-129
-109
-101
-106
-114
-105
-96
-112
-124
-119
-124
-131
-125
-130
-125
-73
-18
-23
-73
-114
-123
-117
-111
-107
-109
-101
-97
-128
-120
-144
-267
278
1892
2700
1140
-872
-1082
-338
-89
-130
-78
-79
-96
-51
-39
-61
-46
-12
3
4
14
35
61
93
119
132
141
158
192
232
242
229
248
292
297
246
176
103
20
-62
-113
-140
-182
-223
-228
-210
-203
-204
-201
-185
-155
-138
-141
-138
-133
-138
-132
-120
-132
-143
-136
-131
-122
-95
-74
-69
-69
-83
-116
-140
-126
-104
-124
-150
-116
-103
-150
-131
-173
-280
444
2119
2607
791
-1028
-978
-255
-113
-169
-107
-113
-138
-97
-77
-81
-62
-40
-34
-29
-13
8
24
44
74
99
117
139
164
189
205
220
250
285
284
235
158
70
-10
-70
-120
-162
-184
-185
-183
-187
-191
-178
-155
-145
-144
-136
-126
-119
-116
-123
-131
-127
-119
-118
-122
-129
-138
-139
-121
-80
-44
-50
-78
-91
-101
-115
-106
-93
-99
-84
-78
-111
-117
-231
-355
466
2251
2802
1091
-618
-634
-115
-107
-188
-132
-139
-148
-114
-124
-130
-96
-81
-79
-62
-50
-41
-19
-8
-6
20
62
85
103
141
175
168
153
172
205
199
137
53
-11
-65
-123
-155
-158
-172
-184
-165
-153
-162
-150
-127
-141
-156
-124
-93
-122
-154
-134
-120
-146
-153
-125
-111
-112
-115
-124
-121
-106
-95
-69
-35
-41
-70
-84
-101
-111
-88
-80
-89
-69
-77
-112
-137
-298
-216
1002
2581
2322
391
-730
-414
-76
-159
-172
-115
-139
-150
-129
-116
-98
-96
-101
-75
-51
-47
-28
0
17
40
67
77
94
139
173
178
188
215
237
237
206
145
73
11
-42
-94
-134
-154
-154
-141
-135
-145
-143
-127
-125
-132
-123
-117
-124
-123
-122
-127
-122
-111
-117
-127
-128
-122
-119
-118
-116
-117
-121
-120
-103
-61
-19
-25
-68
-86
-82
-89
-88
-88
-104
-80
-65
-108
-98
-161
-311
378
2064
2617
907
-843
-852
-230
-106
-141
-86
-95
-106
-75
-72
-68
-41
-40
-52
-36
-11
5
22
44
60
77
105
136
158
177
200
226
256
279
278
251
207
143
58
-25
-82
-120
-155
-175
-169
-153
-145
-141
-137
-135
-129
-124
-131
-136
-127
-120
-125
-132
-135
-138
-139
-136
-130
-132
-138
-133
-122
-119
-118
-113
-111
-114
-125
-135
-122
-79
-31
-8
-28
-69
-92
-94
-84
-78
-92
-88
-64
-93
-117
-139
-305
2
1527
2865
1951
-135
-851
-319
-64
-173
-158
-122
-144
-124
-105
-114
-99
-78
-77
-77
-66
-47
-25
-2
17
30
47
75
100
113
131
157
176
190
210
219
198
150
86
18
-42
-91
-127
-148
-150
-142
-135
-137
-137
-127
-116
-117
-126
-123
-113
-111
-116
-118
-117
-118
-121
-123
-121
-120
-118
-114
-112
-110
-112
-123
-132
-116
-75
-31
-9
-27
-63
-84
-89
-85
-78
-85
-78
-52
-85
-115
-123
-282
-63
1376
2819
2084
-15
-856
-345
-54
-166
-147
-97
-133
-122
-91
-99
-93
-69
-62
-60
-51
-33
-13
0
17
42
61
73
99
137
157
162
178
206
225
225
199
142
72
8
-49
-102
-143
-160
-155
-144
-140
-139
-137
-136
-134
-128
-127
-130
-129
-125
-127
-131
-131
-130
-133
-136
-133
-133
-136
-135
-129
-128
-125
-117
-125
-145
-143
-107
-56
-25
-43
-78
-88
-95
-107
-97
-93
-107
-89
-90
-123
-120
-248
-270
799
2502
2508
539
-829
-558
-100
-143
-177
-124
-145
-143
-114
-124
-119
-86
-76
-75
-61
-48
-38
-18
6
24
39
56
78
107
139
158
169
183
204
214
200
169
116
34
-47
-94
-119
-143
-151
-140
-134
-137
-139
-135
-121
-104
-106
-119
-122
-117
-117
-119
-117
-114
-114
-117
-117
-115
-114
-113
-114
-114
-107
-94
-87
-93
-107
-110
-81
-25
9
-8
-38
-47
-57
-67
-52
-50
-68
-49
-44
-78
-71
-187
-241
732
2414
2542
665
-746
-530
-62
-93
-131
-76
-101
-104
-68
-72
-69
-43
-44
-51
-29
-6
1
11
33
52
66
88
116
133
142
161
189
204
208
221
223
180
110
44
-19
-73
-108
-128
-135
-129
-133
-142
-134
-120
-123
-128
-125
-125
-124
-118
-120
-130
-131
-123
-124
-128
-124
-116
-118
-122
-114
-100
-94
-101
