# session 5
-10
-8
-70
113
447
544
530
570
484
367
448
536
484
487
574
598
597
608
553
507
581
655
621
570
537
447
334
291
287
267
253
253
235
222
214
151
75
62
33
-35
-49
-51
-62
-76
-246
-58
1305
2641
1887
-19
-674
-258
-130
-183
-76
-115
-218
-124
-56
-172
-236
-127
-5
4
-27
-4
26
13
30
73
36
-39
-45
-35
-64
-90
-123
-187
-232
-210
-154
-155
-213
-218
-190
-258
-346
-338
-359
-444
-458
-443
-434
-413
-545
-394
819
1997
1218
-631
-1237
-721
-442
-456
-395
-373
-387
-360
-378
-428
-385
-236
-95
-49
-19
72
114
54
34
91
105
51
4
-1
11
-11
-94
-174
-188
-160
-123
-79
-40
-17
-13
-34
-50
-21
26
48
28
-11
18
47
-85
133
1322
2354
1593
-60
-606
-213
-39
-69
13
50
17
-1
-40
-76
-91
-121
-118
-68
-45
-7
106
174
130
88
97
88
75
72
-15
-168
-220
-189
-218
-255
-214
-179
-170
-134
-159
-248
-240
-172
-166
-141
-136
-259
-288
-259
-461
-98
1530
2543
1128
-834
-1006
-322
-244
-355
-183
-36
-11
-17
-67
-110
-123
-148
-134
-55
20
44
47
83
132
136
144
219
270
218
124
54
30
29
-10
-39
23
87
83
109
157
130
82
67
56
46
26
14
-39
-237
50
1494
2640
1530
-568
-1163
-619
-450
-524
-363
-238
-238
-199
-171
-186
-169
-150
-161
-137
-57
14
63
82
32
-15
18
35
-3
0
12
-56
-148
-221
-288
-285
-218
-207
-230
-173
-101
-127
-180
-194
-188
-146
-130
-186
-185
-274
-422
380
2095
2405
556
-925
-679
-132
-136
-203
-195
-236
-223
-147
-76
-45
-84
-123
-93
-54
-33
8
52
66
57
64
126
214
242
193
127
73
26
1
3
20
59
97
88
55
55
71
45
1
21
50
-6
-41
-88
-278
16
1267
2013
871
-721
-926
-353
-167
-232
-222
-239
-282
-278
-259
-240
-214
-204
-210
-215
-218
-198
-147
-105
-88
-81
-71
-37
-4
-30
-100
-159
-211
-250
-241
-205
-182
-151
-102
-78
-105
-137
-128
-104
-87
-74
-97
-113
-41
-74
-189
418
1773
2090
600
-776
-694
-184
-133
-185
-143
-151
-138
-67
-35
-27
-2
36
99
163
200
248
308
322
307
314
336
361
371
333
257
172
80
12
4
38
68
94
123
116
38
-70
-153
-205
-219
-202
-200
-183
-142
-267
-294
597
1875
1566
-322
-1414
-941
-370
-343
-341
-281
-329
-354
-308
-279
-259
-228
-197
-162
-128
-90
-35
1
13
47
75
70
105
156
110
24
-9
-42
-71
-30
0
-27
-4
65
61
20
33
32
-61
-142
-141
-178
-229
-187
-250
-162
937
2324
1920
31
-910
-498
-185
-268
-234
-169
-198
-170
-109
-93
-48
16
21
12
43
50
9
2
63
119
110
99
164
227
181
115
115
67
-82
-181
-178
-173
-168
-101
-39
-61
-109
-153
-232
-272
-229
-219
-225
-234
-373
-99
1172
2066
903
-986
-1356
-671
-357
-338
-215
-157
-169
-137
-140
-160
-116
-68
-58
-26
43
96
113
132
172
202
213
246
286
262
178
95
26
-32
-66
-90
-106
-90
-52
-29
-31
-42
-65
-113
-125
-67
-92
-199
-177
-229
-330
555
2217
2291
336
-991
-614
-122
-177
-141
-13
-51
-66
0
10
3
38
67
74
91
119
148
171
185
210
259
303
295
205
44
-102
-138
-110
-132
-165
-123
-87
-132
-171
-178
-222
-273
-310
-365
-382
-352
-341
-333
-423
-496
251
1685
1845
143
-1203
-954
-385
-329
-336
-258
-270
-278
-240
-232
-225
-187
-144
-105
-66
-20
39
88
108
129
181
242
260
220
165
144
121
20
-110
-138
-82
-47
-6
70
88
23
-41
-92
-123
-91
-85
-129
-125
-236
-228
788
2220
1943
96
-875
-442
-62
-112
-90
-26
-29
-9
-17
-51
-19
40
71
105
138
153
169
198
226
233
213
182
154
112
42
-32
-76
-83
-84
-104
-122
-107
-80
-99
-157
-184
-188
-230
-252
-221
-243
-270
-256
-398
-226
1059
2251
1309
-746
-1343
-641
-280
-339
-286
-240
-266
-243
-231
-236
-204
-178
-145
-50
38
58
76
120
141
129
139
173
161
78
-14
-73
-106
-120
-128
-131
-95
-31
-11
-45
-79
-96
-128
-177
-185
-172
-207
-216
-221
-335
49
1465
2394
1134
-839
-1180
-435
-167
-273
-230
-186
-212
-188
-149
-132
-107
-75
-44
-12
29
82
123
138
148
161
179
212
228
180
101
49
16
-30
-62
-50
-23
-11
-6
-20
-64
-90
-87
-98
-99
-86
-105
-130
-244
-341
394
1956
2361
723
-787
-650
-98
-115
-191
-105
-107
-127
-84
-70
-71
-41
-12
11
44
76
101
126
145
152
154
177
214
215
160
93
39
-16
-68
-88
-75
-57
-48
-55
-88
-125
-147
-175
-189
-179
-219
-255
-279
-438
-186
1131
2145
1065
-798
-1128
-441
-242
-359
-284
-227
-256
-227
-190
-187
-165
-129
-98
-65
-36
-17
0
14
19
27
53
84
90
73
44
-3
-50
-75
-84
-87
-72
-52
-55
-82
-99
-106
-134
-147
-128
-151
-175
-185
-359
-276
841
2037
1433
-306
-945
-452
-194
-278
-244
-212
-253
-232
-199
-209
-205
-178
-145
-101
-63
-47
-35
-16
-12
-18
-4
35
74
93
68
12
-16
-14
-23
-22
10
31
26
19
3
-26
-54
-60
-37
-48
-90
-110
-252
-350
388
1688
1784
408
-540
-327
-40
-115
-135
-89
-117
-129
-108
-97
-75
-51
-34
6
54
83
106
132
142
143
165
226
287
292
252
213
180
140
112
105
99
95
97
75
34
10
-21
-60
-44
-37
-87
-115
-297
-559
93
1614
1856
166
-1103
-754
-192
-188
-200
-124
-155
-166
-120
-113
-109
-76
-48
-25
4
32
49
51
39
31
46
91
139
142
93
36
-1
-34
-73
-99
-101
-91
-78
-76
-111
-155
-178
-196
-198
-182
-211
-242
-297
-508
-331
860
1813
897
-726
-1004
-393
-210
-316
-276
-240
-256
-230
-212
-207
-174
-136
-114
-91
-63
-36
-14
-9
-32
-50
-12
61
97
75
41
23
4
-29
-50
-39
-22
-18
-29
-46
-61
-81
-94
-72
-64
-90
-101
-237
-417
109
1301
1545
313
-664
-436
-23
-38
-78
-36
-67
-89
-60
-49
-43
-23
-3
23
56
84
110
129
136
138
157
206
265
289
251
188
153
141
116
91
95
103
91
68
36
3
-24
-53
-65
-70
-100
-118
-250
-570
-321
984
1791
698
-783
-843
-232
-107
-190
-138
-129
-149
-111
-89
-95
-78
-44
-12
13
29
40
39
27
27
49
95
156
179
137
84
60
39
5
-18
-21
-25
-37
-41
-45
-64
-96
-128
-125
-90
-109
-154
-170
-373
-530
288
1614
1451
-166
-977
-483
-92
-157
-151
-110
-154
-142
-101
-104
-94
-64
-47
-30
-9
8
23
25
22
38
76
126
169
167
122
80
57
35
17
29
59
71
58
40
25
2
-32
-47
-47
-67
-78
-189
-507
-381
790
1739
925
-548
-797
-244
-87
-197
-169
-133
-148
-141
-132
-119
-103
-96
-72
-37
-30
-31
-23
-35
-70
-78
-33
29
49
22
-9
-23
-33
-52
-73
-74
-51
-24
-22
-45
-64
-77
-103
-106
-79
-92
-118
-185
-427
-379
570
1457
837
-495
-810
-316
-96
-142
-101
-78
-111
-102
-81
-70
-38
-9
-2
20
58
75
74
82
90
94
129
193
223
195
150
122
104
83
62
54
67
87
91
75
56
35
-7
-23
6
-17
-63
-94
-360
-519
395
1664
1247
-446
-1068
-442
-75
-161
-128
-57
-91
-94
-65
-57
-32
7
40
76
99
104
129
156
137
107
142
216
240
191
126
85
55
13
-27
-38
-23
-7
-16
-54
-87
-94
-115
-142
-116
-110
-156
-154
-304
-592
-54
1348
1608
51
-1140
-790
-199
-150
-164
-102
-127
-126
-77
-78
-80
-35
-3
7
34
65
77
79
74
75
116
182
214
189
135
91
58
13
-31
-37
-18
-16
-30
-52
-83
-107
-128
-161
-163
-146
-173
-200
-335
-594
-173
1225
1848
550
-857
-778
-221
-186
-251
-167
-158
-182
-158
-150
-141
-103
-73
-49
-21
-5
5
12
2
-9
18
86
144
138
86
43
21
-10
-47
-52
-27
-6
-5
-27
-59
-77
-93
-104
-80
-76
-110
-135
-327
-467
370
1782
1688
-13
-942
-442
-27
-128
-133
-66
-109
-109
-68
-66
-47
-11
9
43
86
107
119
122
109
117
165
222
252
231
165
103
76
60
40
39
62
90
95
62
24
2
-41
-87
-86
-104
-144
-188
-441
-572
359
1689
1345
-385
-1085
-460
-84
-209
-205
-141
-173
-158
-122
-130
-115
-75
-55
-36
-8
5
7
10
12
16
49
114
156
130
70
31
10
-23
-53
-49
-24
-8
-16
-47
-75
-96
-121
-118
-110
-142
-157
-282
-609
-345
977
1696
471
-965
-831
-137
-67
-168
-78
-57
-84
-44
-21
-19
9
35
50
77
99
103
100
101
115
147
198
244
235
166
104
87
66
17
-13
-6
11
23
19
-6
-25
-41
-67
-65
-58
-93
-109
-240
-575
-335
893
1517
358
-942
-825
-222
-140
-197
-131
-138
-156
-106
-88
-91
-59
-28
-6
26
54
71
86
85
75
98
158
203
198
159
117
84
52
21
7
19
40
42
18
-6
-22
-51
-77
-63
-64
-96
-122
-326
-573
-35
1145
1289
47
-789
-475
-93
-123
-143
-96
-116
-117
-88
-89
-83
-52
-34
-23
1
33
45
33
30
56
93
129
152
131
83
53
37
7
-21
-21
-1
16
17
-3
-25
-36
-56
-75
-64
-64
-79
-120
-346
-467
261
1337
1163
-120
-735
-345
-33
-72
-67
-19
-34
-38
-20
-8
13
33
44
64
87
99
99
88
72
68
88
123
141
114
58
15
-6
-28
-50
-48
-27
-15
-22
-44
-68
-90
-115
-116
-99
-122
-130
-174
-475
-517
507
1583
953
-590
-1000
-425
-133
-168
-136
-129
-159
-126
-97
-100
-81
-53
-34
-2
35
64
83
85
80
102
153
194
188
137
74
30
5
-18
-33
-25
1
24
18
-15
-44
-63
-87
-87
-90
-124
-128
-262
-596
-272
1097
1749
452
-988
-886
-223
-96
-148
-84
-83
-99
-62
-43
-33
3
34
59
95
124
144
155
149
140
159
205
237
209
130
53
7
-25
-49
-51
-37
-26
-21
-37
-69
-87
-105
-125
-110
-109
-137
-154
-366
-596
117
1515
1565
-21
-986
-532
-63
-116
-130
-59
-91
-108
-74
-59
-43
-12
9
28
54
79
94
87
69
63
94
154
189
150
70
21
6
-19
-44
-34
0
21
9
-31
-66
-79
-94
-93
-78
-99
-128
-241
-535
-377
808
1745
948
-461
-688
-194
-88
-192
-151
-131
-155
-120
-87
-87
-76
-55
-30
-3
9
7
10
10
-2
4
46
88
85
42
-1
-24
-41
-52
-44
-26
-10
2
-12
-50
-75
-91
-102
-89
-97
-120
-155
-403
-588
184
1462
1388
-32
-778
-378
-63
-140
-135
-79
-107
-105
-68
-59
-42
-11
11
35
65
84
96
101
87
81
123
187
201
147
73
20
-9
-27
-42
-51
-41
-15
-7
-43
-81
-93
-105
-99
-84
-109
-105
-185
-545
-430
885
1870
813
-821
-934
-221
-33
-127
-84
-78
-109
-81
-62
-58
-31
-13
2
44
80
85
91
107
114
134
189
226
192
124
72
31
-5
-18
-21
-31
-29
-8
-15
-61
-90
-100
-127
-134
-115
-125
-130
-268
-607
-309
1097
1860
558
-1035
-1006
-285
-117
-170
-98
-103
-147
-123
-94
-66
-32
-22
3
57
88
102
128
146
144
165
219
247
209
136
76
34
-5
-32
-30
-7
11
23
20
-17
-62
-93
-111
-102
-94
-134
-152
-234
-485
-207
1066
1781
556
-991
-980
-268
-110
-182
-109
-96
-118
-79
-63
-67
-39
-8
20
56
80
97
113
107
94
117
171
209
192
121
49
18
-5
-39
-41
-2
20
15
9
-11
-50
-75
-90
-95
-92
-106
-128
-270
-523
-150
1160
1785
539
-874
-778
-145
-86
-170
-91
-101
-136
-81
-58
-65
-31
3
16
42
69
74
72
68
58
75
136
183
156
89
39
12
-11
-34
-42
-25
4
16
-13
-61
-86
-101
-121
-120
-125
-156
-173
-348
-621
-95
1340
1773
322
-960
-696
-130
-158
-230
-146
-155
-173
-130
-120
-114
-76
-54
-32
9
25
20
26
28
22
54
118
140
100
45
8
-14
-33
-50
-58
-47
-25
-20
-48
-86
-100
-116
-145
-137
-123
-149
-167
-322
-600
-137
1250
1694
227
-1108
-816
-139
-105
-181
-94
-96
-123
-74
-50
-55
-28
6
31
65
99
110
103
92
93
126
183
207
165
93
49
37
25
7
7
22
36
50
43
3
-31
-49
-64
-50
-41
-80
-97
-243
-573
-200
1214
1812
437
-944
-720
-61
-20
-94
-7
-4
-26
16
39
50
80
105
136
175
193
197
196
186
183
209
251
266
233
173
123
92
66
41
31
43
67
83
71
29
-3
-14
-28
-32
-28
-49
-72
-214
-538
-314
933
1729
724
-657
-703
-142
-56
-144
-85
-75
-100
-72
-56
-49
-17
6
23
52
74
78
74
56
35
43
81
104
80
23
-29
-55
-70
-98
-123
-118
-102
-93
-91
-114
-155
-178
-197
-211
-200
-215
-245
-284
-553
-754
60
1380
1233
-314
-1071
-577
-199
-272
-273
-222
-257
-252
-209
-197
-184
-159
-133
-97
-65
-47
-34
-41
-64
-57
-4
39
24
-29
-75
-106
-129
-145
-159
-166
-156
-139
-133
-129
-131
-142
-158
-179
-172
-139
-152
-165
-211
-522
-589
491
1693
1059
-610
-1026
-331
14
-30
25
60
33
79
126
128
161
220
256
284
321
358
373
364
366
410
471
499
470
410
351
304
279
282
