# session 1
17
-13
65
48
-158
-287
-217
-162
-200
-207
-175
-158
-145
-131
-122
-103
-79
-62
-40
-15
6
26
49
67
80
88
89
90
101
119
132
126
92
34
-24
-64
-86
-99
-110
-118
-120
-117
-116
-119
-119
-119
-126
-138
-143
-134
-99
-53
-36
-58
-92
-119
-125
-112
-114
-114
-91
-104
-128
-148
-304
-182
908
2025
1430
-206
-786
-292
-27
-111
-96
-62
-87
-65
-36
-39
-25
-2
5
14
32
54
78
94
107
127
141
144
148
153
153
162
183
187
150
84
18
-34
-69
-89
-102
-110
-112
-114
-117
-121
-123
-123
-124
-132
-145
-153
-150
-130
-93
-61
-63
-91
-122
-135
-125
-125
-135
-116
-110
-139
-136
-237
-361
304
1686
1935
432
-809
-612
-117
-101
-140
-80
-92
-103
-72
-68
-64
-41
-30
-21
3
23
36
54
76
97
115
128
133
135
138
146
163
174
157
103
33
-28
-70
-96
-109
-114
-121
-126
-122
-117
-116
-116
-116
-121
-127
-134
-148
-163
-157
-124
-82
-59
-71
-100
-125
-129
-119
-125
-127
-103
-111
-132
-144
-287
-192
865
2053
1560
-116
-800
-319
-32
-133
-123
-77
-109
-94
-58
-61
-53
-29
-18
-5
16
32
49
71
91
110
127
140
146
146
145
154
175
176
140
83
27
-24
-70
-99
-110
-116
-124
-129
-127
-124
-122
-120
-120
-123
-125
-126
-128
-135
-147
-154
-146
-119
-77
-46
-55
-90
-115
-118
-107
-110
-114
-92
-97
-119
-114
-236
-256
610
1897
1759
166
-771
-416
-39
-96
-116
-69
-87
-79
-48
-51
-45
-23
-12
3
26
42
59
80
99
119
137
149
156
156
152
159
177
183
159
106
42
-17
-61
-90
-108
-113
-114
-116
-115
-111
-110
-109
-108
-111
-115
-116
-119
-122
-121
-126
-134
-136
-141
-152
-148
-121
-85
-57
-58
-87
-117
-120
-101
-94
-111
-102
-82
-105
-111
-177
-326
116
1391
1957
754
-646
-694
-163
-59
-128
-88
-79
-90
-59
-44
-44
-27
-12
-4
15
35
53
76
98
113
129
150
166
171
167
169
187
205
198
159
94
22
-37
-81
-112
-123
-122
-127
-129
-119
-111
-116
-124
-124
-117
-116
-124
-128
-125
-126
-125
-124
-135
-146
-134
-102
-67
-48
-56
-79
-98
-92
-74
-86
-95
-66
-80
-107
-90
-222
-197
806
2039
1569
-206
-991
-476
-66
-87
-71
-29
-52
-45
-24
-20
0
21
26
41
62
76
93
116
135
156
180
198
212
221
223
223
238
248
212
136
62
-4
-70
-114
-127
-140
-161
-156
-131
-122
-123
-115
-107
-111
-117
-120
-125
-134
-144
-148
-150
-165
-175
-142
-100
-99
-105
-83
-80
-103
-106
-112
-135
-124
-121
-172
-158
-158
-286
87
1342
2050
954
-551
-712
-134
-17
-199
-211
-140
-106
-89
-101
-105
-88
-130
-165
-60
30
-24
1
128
78
-52
13
113
86
92
148
119
72
82
69
14
-22
-42
-72
-99
-106
-100
-93
-86
-80
-74
-61
-53
-62
-70
-63
-58
-65
-69
-68
-75
-84
-70
-38
-7
8
0
-25
-51
-61
-58
-63
-73
-53
-41
-64
-60
-121
-239
212
1329
1701
580
-585
-597
-145
-21
-58
-51
-52
-47
-25
-16
-5
9
6
10
35
54
64
86
121
149
160
171
187
186
171
180
215
229
201
139
57
-23
-80
-125
-162
-174
-161
-141
-127
-122
-124
-129
-131
-126
-120
-125
-140
-151
-161
-166
-148
-112
-87
-78
-78
-92
-114
-127
-127
-130
-132
-110
-98
-129
-131
-177
-308
92
1289
1894
849
-491
-645
-210
-97
-139
-105
-108
-115
-77
-59
-61
-49
-40
-36
-21
5
36
55
66
88
115
128
136
146
152
153
166
173
146
101
54
-12
-91
-133
-139
-148
-162
-157
-138
-122
-121
-129
-129
-122
-119
-122
-121
-131
-158
-164
-127
-86
-64
-48
-47
-74
-109
-119
-107
-108
-118
-96
-88
-116
-124
-219
-283
371
1568
1731
464
-539
-408
-74
-91
-120
-75
-84
-84
-50
-42
-43
-31
-19
-1
23
42
58
75
95
122
151
171
185
197
205
211
219
217
188
129
57
-13
-74
-117
-132
-136
-146
-152
-144
-139
-140
-132
-120
-122
-128
-126
-136
-155
-150
-117
-77
-47
-40
-57
-81
-99
-99
-85
-88
-91
-75
-95
-117
-146
-307
-112
1079
2169
1462
-211
-777
-313
-72
-139
-120
-100
-128
-107
-81
-80
-67
-53
-49
-35
-11
8
28
52
75
100
131
154
165
170
177
192
206
191
132
60
-5
-73
-129
-155
-168
-181
-181
-168
-158
-151
-142
-137
-135
-134
-133
-142
-159
-167
-157
-127
-94
-83
-103
-131
-149
-151
-141
-147
-151
-132
-147
-171
-176
-320
-253
793
2049
1645
-57
-869
-455
-120
-171
-169
-130
-143
-122
-97
-107
-102
-81
-63
-41
-17
13
48
59
54
76
124
156
172
194
221
226
196
154
131
97
11
-71
-86
-95
-139
-156
-149
-166
-147
-80
-70
-99
-68
-33
-71
-93
-60
-51
-46
33
115
89
-10
-76
-76
-42
-11
50
167
202
62
-48
-81
-186
123
1237
1904
930
-486
-759
-318
-114
-108
-88
-95
-77
-40
-77
-106
-57
-22
-22
-8
-9
-25
-12
16
78
176
204
153
140
168
161
125
115
143
136
58
-9
-66
-200
-314
-272
-188
-185
-176
-122
-108
-126
-127
-162
-226
-213
-173
-236
-280
-150
-25
-81
-174
-186
-163
-114
-95
-158
-167
-110
-154
-189
-162
-236
118
1280
1808
567
-881
-932
-337
-106
-62
-10
-38
-11
69
-34
-221
-198
-53
-6
31
125
126
68
117
177
145
173
273
299
302
329
277
192
179
168
109
67
58
37
-22
-74
-54
-22
-36
-10
47
18
-2
97
128
-5
-122
-154
-153
-128
-118
-138
-162
-257
-394
-400
-275
-154
-102
-116
-115
-174
-336
80
1373
1950
631
-956
-1083
-478
-243
-198
-83
-71
-135
-130
-111
-144
-156
-96
-23
19
41
33
9
42
127
175
193
232
238
191
209
323
408
408
362
277
166
24
-197
-406
-400
-206
-89
-141
-165
-61
-11
-99
-127
-22
59
61
33
-24
-81
-118
-150
-147
-112
-65
-13
-77
-231
-214
-187
-247
494
2020
2235
490
-882
-647
-174
-213
-175
-45
-148
-247
-179
-132
-101
-17
4
-15
77
167
94
-1
1
2
11
133
232
171
98
90
59
66
121
22
-201
-278
-225
-242
-296
-257
-194
-242
-339
-321
-226
-249
-363
-350
-209
-137
-163
-168
-159
-199
-210
-113
-29
-79
-131
-98
-140
-228
-195
-227
-87
1066
2485
2089
195
-756
-306
109
82
52
19
-68
-95
-89
-68
-11
18
5
1
10
38
67
59
80
180
272
321
336
248
115
104
167
153
99
55
-27
-110
-128
-126
-152
-204
-275
-323
-289
-215
-175
-162
-165
-205
-223
-173
-164
-244
-268
-203
-190
-272
-320
-276
-280
-414
-448
-391
-536
-206
1438
2796
1714
-457
-1047
-375
-88
-210
-200
-152
-134
-53
19
17
-8
-13
-24
-63
-35
111
184
112
123
233
209
116
180
328
402
429
420
325
175
30
-61
-43
10
-43
-129
-88
-9
-43
-107
-68
40
105
101
108
152
132
15
-119
-223
-261
-229
-244
-322
-312
-212
-143
-177
-174
438
1657
1918
356
-1217
-1171
-454
-262
-350
-322
-250
-185
-138
-139
-169
-207
-208
-169
-160
-144
-80
-68
-103
-70
2
59
119
117
70
152
307
289
128
45
63
50
-41
-129
-130
-85
-108
-197
-217
-117
-27
-37
-67
-46
-13
4
7
1
10
27
5
-65
-137
-123
-18
-4
-111
-196
-315
-54
1301
2614
1857
-96
-789
-283
-32
-99
-16
111
160
161
103
-1
-121
-182
-132
-64
-71
-112
-99
6
136
165
113
110
131
55
-57
-77
-57
-86
-127
-167
-246
-294
-259
-241
-274
-283
-286
-303
-245
-138
-126
-186
-180
-107
-59
-80
-156
-233
-282
-311
-297
-283
-313
-225
-114
-322
-146
1369
2732
1753
-348
-980
-434
-239
-335
-241
-145
-104
-10
19
-24
2
57
71
114
149
94
107
256
326
276
260
256
247
322
394
357
316
281
177
89
50
-44
-131
-101
-47
-56
-51
-22
-79
-223
-302
-273
-240
-210
-150
-138
-194
-228
-240
-283
-334
-335
-294
-301
-330
-300
-331
-116
1088
2406
1740
-379
-1249
-574
-129
-255
-295
-268
-275
-232
-274
-326
-150
31
-55
-167
-91
-51
-140
-109
82
190
186
226
277
236
193
250
351
388
282
50
-148
-192
-154
-140
-151
-143
-92
-30
-12
-18
13
75
118
103
20
-73
-108
-79
-47
-89
-167
-164
-89
-23
-62
-253
15
1387
2553
1601
-417
-1041
-401
-45
-123
-155
-172
-210
-202
-204
-218
-191
-130
-62
-20
-5
12
1
-43
-41
31
92
81
40
35
40
16
41
111
68
-82
-165
-181
-238
-294
-266
-230
-278
-297
-165
-29
-80
-216
-245
-191
-173
-178
-157
-153
-153
-86
-68
-195
-259
-259
-253
480
2021
2421
714
-930
-847
-219
-160
-206
-63
-17
-56
-43
-43
-39
45
96
54
71
157
161
137
178
194
182
209
209
215
316
379
336
298
213
76
88
161
60
-64
-26
1
-94
-197
-248
-249
-202
-165
-188
-206
-155
-139
-280
-420
-342
-205
-214
-215
-169
-261
-356
-355
-418
26
1441
2268
1071
-602
-892
-445
-301
-296
-277
-312
-276
-219
-225
-159
-77
-133
-189
-135
-105
-109
-14
119
147
114
137
215
262
216
153
207
277
168
-13
-83
-110
-163
-183
-150
-106
-108
-143
-103
7
73
95
86
4
-83
-85
-49
-71
-135
-109
-21
-59
-116
-73
-171
-1
1282
2608
1947
29
-772
-363
-96
-134
-103
-107
-135
-79
-93
-184
-151
-52
-56
-87
-62
-55
-53
-15
-15
-55
-39
-18
-57
-67
-7
44
61
67
31
-53
-141
-205
-253
-296
-341
-363
-306
-195
-150
-180
-151
-66
-87
-200
-227
-190
-208
-220
-189
-214
-192
-112
-280
-190
1124
2508
1749
-355
-1171
-579
-161
-166
-99
-53
-132
-132
-24
26
-13
-18
54
99
45
-21
16
149
267
303
309
374
451
412
293
253
281
278
288
294
161
-36
-119
-131
-162
-176
-151
-111
-95
-111
-95
-62
-116
-191
-192
-218
-310
-382
-444
-462
-380
-348
-410
-459
-452
133
1632
2498
1199
-728
-1103
-506
-291
-315
-247
-272
-297
-210
-189
-230
-189
-122
-102
-78
-38
-8
53
160
218
176
134
167
213
213
197
203
205
151
50
-15
-4
25
13
-46
-89
-59
-19
-32
-11
44
-42
-189
-126
35
-8
-150
-123
-2
-26
-142
-134
-155
-258
414
2067
2715
1134
-622
-684
-129
-177
-345
-248
-205
-240
-187
-118
-109
-131
-139
-117
-138
-240
-271
-150
-51
-69
-67
13
35
-46
-95
-29
40
-18
-171
-307
-368
-363
-360
-416
-462
-436
-376
-265
-73
64
50
-12
-64
-146
-198
-151
-95
-87
-75
-111
-189
-188
-262
-231
812
2401
2342
487
-706
-405
-5
-38
-26
24
-29
-53
-25
8
19
-55
-110
0
123
116
114
172
180
175
251
361
415
424
495
605
526
242
78
119
92
-72
-173
-164
-147
-140
-128
-145
-186
-193
-189
-235
-307
-365
-412
-437
-457
-481
-442
-384
-411
-440
-505
-482
442
2057
2244
418
-1055
-889
-384
-369
-404
-324
-282
-249
-202
-146
-94
-99
-127
-107
-38
52
119
155
195
184
81
32
110
179
179
175
178
168
153
114
40
-31
-79
-104
-82
-32
-12
14
99
128
23
-78
-76
-35
-11
-17
-32
20
97
94
-8
-138
181
1341
2214
1333
-362
-901
-419
-155
-233
-240
-175
-128
-95
-98
-127
-148
-175
-206
-196
-148
-142
-203
-238
-200
-143
-88
-19
16
-10
1
82
92
-27
-135
-176
-233
-300
-290
-266
-345
-403
-268
-88
-59
-78
-65
-134
-216
-138
-45
-95
-105
-27
-89
-253
-392
-395
400
1998
2504
933
-666
-668
-164
-143
-140
7
-30
-112
-51
2
7
61
101
59
48
119
165
186
249
294
303
348
370
328
364
507
577
493
323
112
-75
-143
-115
-80
-74
-101
-141
-168
-215
-264
-225
-192
-319
-452
-416
-386
-467
-478
-431
-435
-409
-477
-509
450
2113
2206
309
-1059
-805
-353
-397
-431
-355
-333
-332
-338
-296
-161
-53
-27
-11
8
38
107
167
203
252
253
147
64
112
174
151
146
184
133
13
-42
-61
-123
-168
-151
-111
-59
4
44
46
26
-8
-40
-81
-133
-100
12
17
-48
-42
-124
4
1122
2427
1966
168
-662
-265
-58
-248
-257
-149
-148
-162
-109
-49
-63
-119
-130
-133
-176
-187
-159
-159
-163
-152
-167
-178
-150
-133
-112
-54
-46
-132
-221
-252
-259
-296
-357
-353
-276
-244
-257
-222
-174
-183
-194
-161
-144
-175
-170
-98
-102
-172
-127
-132
-190
528
1938
2102
425
-933
-755
-252
-217
-217
-145
-172
-172
-132
-140
-110
-36
-19
8
88
123
133
204
279
301
306
314
363
474
556
601
700
745
587
406
358
260
72
8
19
-61
-123
-90
-89
-114
-86
-77
-124
-144
-152
-207
-241
-233
-273
-315
-350
-454
-58
1342
2273
1056
-892
-1262
-547
-270
-367
-322
-254
-280
-298
-246
-162
-140
-165
-146
-102
-82
-37
42
92
128
220
282
204
129
228
370
376
280
124
-92
-211
-138
-81
-181
-231
-127
-66
-105
-120
-140
-206
-218
-188
-219
-253
-203
-190
-275
-271
-243
-393
-48
1334
2202
997
-801
-1097
-458
-228
-297
-257
-258
-303
-226
-141
-180
-182
-46
25
-57
-86
-9
8
-39
-16
56
73
75
141
206
205
202
221
185
80
-15
-45
-38
-47
-69
-41
37
74
41
-15
-85
-151
-170
-185
-209
-166
-117
-135
-185
-324
-182
969
2261
1749
-52
-820
-392
-181
-310
-263
-189
-226
-237
-215
-192
-178
-193
-175
-107
-80
-84
-50
-16
-20
2
80
