# session 25
458
433
412
393
371
343
319
294
262
238
222
192
152
137
149
162
168
153
109
61
31
8
-4
-13
-41
-54
-49
-86
-119
-187
-334
152
1716
2630
1215
-838
-1156
-419
-195
-313
-274
-255
-294
-271
-255
-268
-256
-243
-242
-231
-214
-200
-181
-158
-130
-94
-52
-10
27
55
77
101
108
74
5
-76
-161
-246
-313
-352
-373
-387
-395
-396
-392
-388
-380
-364
-348
-337
-325
-309
-295
-288
-287
-286
-283
-293
-309
-299
-264
-226
-188
-165
-183
-214
-221
-217
-214
-203
-206
-203
-175
-176
-199
-258
-399
-12
1524
2770
1745
-361
-957
-306
-76
-241
-203
-151
-190
-162
-126
-131
-110
-83
-77
-59
-35
-19
6
38
66
100
145
190
229
264
293
316
329
312
255
180
104
29
-32
-68
-88
-100
-102
-100
-101
-100
-93
-86
-76
-65
-56
-49
-44
-41
-35
-33
-40
-45
-53
-72
-76
-49
-14
16
37
23
-17
-38
-39
-38
-29
-33
-46
-25
-19
-52
-84
-226
-165
1010
2681
2497
375
-926
-490
-12
-137
-184
-104
-135
-141
-98
-104
-106
-78
-69
-66
-51
-39
-21
12
43
71
105
145
186
224
255
280
300
295
244
160
72
-6
-73
-127
-164
-180
-181
-184
-192
-191
-182
-178
-178
-174
-162
-146
-135
-140
-146
-138
-131
-134
-138
-146
-164
-167
-140
-103
-73
-60
-77
-107
-122
-128
-129
-120
-125
-131
-108
-114
-144
-174
-321
-135
1209
2688
2041
-181
-1178
-565
-106
-199
-204
-144
-175
-163
-127
-133
-123
-99
-94
-81
-55
-36
-16
13
46
83
126
170
211
248
277
303
320
304
245
163
74
-12
-85
-137
-170
-187
-196
-201
-203
-200
-195
-187
-175
-163
-155
-147
-137
-130
-126
-121
-117
-124
-132
-132
-144
-167
-164
-133
-98
-62
-41
-60
-94
-106
-109
-106
-94
-100
-102
-79
-88
-112
-169
-316
84
1652
2892
1808
-338
-929
-270
-47
-216
-180
-129
-172
-149
-117
-126
-109
-85
-80
-67
-49
-36
-13
17
41
73
117
161
200
237
267
292
308
289
227
146
65
-15
-85
-130
-153
-164
-168
-170
-171
-170
-167
-161
-154
-146
-135
-126
-122
-119
-113
-111
-111
-108
-109
-116
-121
-129
-147
-151
-126
-95
-64
-33
-31
-63
-88
-92
-92
-85
-83
-93
-76
-70
-100
-117
-242
-243
815
2565
2651
594
-915
-599
-61
-154
-223
-136
-160
-176
-128
-124
-128
-105
-93
-85
-66
-50
-33
-9
18
52
93
134
178
219
248
278
311
311
257
181
105
22
-60
-115
-146
-168
-179
-178
-178
-183
-183
-174
-166
-161
-150
-136
-127
-124
-119
-113
-110
-110
-110
-108
-109
-113
-118
-119
-114
-119
-140
-144
-116
-85
-59
-31
-29
-63
-92
-98
-95
-83
-78
-89
-74
-68
-105
-125
-235
-248
752
2476
2585
490
-1109
-786
-135
-147
-210
-124
-132
-140
-104
-111
-111
-78
-62
-56
-38
-15
15
48
77
108
148
194
244
293
332
361
383
386
342
253
155
61
-31
-103
-146
-176
-199
-209
-213
-215
-220
-221
-199
-167
-162
-169
-158
-146
-151
-150
-138
-131
-137
-143
-144
-146
-151
-158
-165
-164
-142
-102
-66
-61
-88
-111
-122
-131
-117
-96
-98
-89
-91
-126
-113
-175
-256
544
2198
2490
502
-1268
-1075
-288
-129
-160
-90
-100
-115
-67
-55
-69
-48
-20
-8
3
21
41
70
113
157
198
249
297
333
376
429
461
454
396
289
176
86
-8
-104
-154
-163
-182
-203
-204
-205
-211
-202
-183
-173
-163
-151
-144
-136
-125
-123
-121
-111
-111
-123
-130
-131
-134
-133
-119
-86
-57
-59
-75
-82
-96
-105
-83
-77
-90
-64
-66
-98
-90
-220
-203
912
2469
2163
68
-1131
-677
-158
-162
-155
-94
-120
-123
-103
-110
-93
-65
-71
-72
-41
-7
10
23
41
66
111
178
238
273
304
342
363
338
267
191
124
39
-52
-106
-130
-159
-193
-212
-212
-213
-220
-212
-187
-173
-172
-168
-165
-165
-154
-140
-139
-145
-147
-157
-169
-163
-144
-123
-95
-82
-103
-126
-134
-140
-131
-122
-144
-139
-111
-136
-141
-172
-329
112
1642
2564
1251
-698
-1067
-427
-158
-186
-138
-123
-134
-100
-95
-113
-98
-73
-58
-40
-22
2
33
60
96
152
204
241
289
351
402
438
454
416
329
235
145
42
-47
-96
-124
-154
-174
-171
-164
-167
-175
-171
-153
-143
-150
-142
-114
-102
-105
-110
-124
-125
-92
-68
-66
-51
-41
-69
-96
-104
-110
-103
-101
-125
-114
-101
-141
-114
-137
-257
428
2074
2496
554
-1355
-1307
-502
-219
-170
-98
-114
-121
-81
-79
-78
-51
-36
-26
-8
7
27
65
107
144
186
245
317
383
436
483
517
505
434
322
198
77
-32
-117
-175
-213
-232
-236
-237
-235
-234
-236
-229
-207
-186
-175
-163
-155
-158
-159
-152
-149
-151
-152
-157
-167
-173
-169
-158
-145
-125
-95
-82
-97
-118
-131
-133
-118
-118
-135
-108
-89
-131
-144
-251
-360
496
2313
2829
1012
-785
-802
-224
-167
-236
-175
-174
-184
-145
-139
-149
-133
-121
-114
-92
-67
-51
-35
-8
25
59
100
152
201
240
278
317
333
307
248
173
88
2
-71
-120
-143
-149
-156
-160
-152
-140
-134
-129
-119
-114
-116
-115
-111
-110
-112
-116
-121
-128
-142
-153
-141
-116
-95
-73
-55
-66
-93
-106
-110
-110
-102
-115
-119
-87
-95
-123
-157
-344
-131
1371
2963
2291
47
-968
-467
-115
-218
-213
-161
-191
-171
-132
-139
-136
-115
-107
-97
-79
-61
-39
-16
11
49
94
143
198
245
274
305
340
336
280
204
122
27
-63
-123
-152
-166
-176
-180
-179
-172
-161
-154
-154
-153
-148
-146
-144
-137
-134
-140
-141
-143
-151
-154
-151
-161
-176
-166
-136
-110
-86
-61
-62
-90
-108
-114
-116
-104
-107
-118
-87
-78
-117
-136
-286
-324
780
2623
2748
682
-889
-681
-170
-195
-233
-163
-182
-189
-145
-137
-136
-123
-120
-107
-84
-75
-65
-35
-2
27
67
121
172
217
258
292
325
353
331
252
167
90
-6
-89
-124
-141
-145
-118
-108
-147
-175
-167
-157
-148
-134
-128
-127
-123
-119
-118
-124
-135
-138
-139
-149
-165
-168
-149
-113
-75
-57
-67
-90
-105
-111
-119
-113
-98
-109
-110
-81
-93
-122
-193
-383
-4
1630
2987
1988
-188
-928
-372
-107
-229
-218
-174
-194
-175
-150
-149
-137
-125
-112
-89
-78
-75
-52
-18
13
54
95
127
172
225
257
289
340
343
271
197
128
20
-79
-115
-139
-175
-188
-186
-184
-169
-150
-150
-152
-141
-134
-136
-137
-134
-126
-118
-128
-152
-159
-151
-163
-175
-146
-100
-89
-85
-56
-47
-93
-133
-123
-94
-95
-114
-98
-79
-113
-129
-204
-385
131
1859
3005
1748
-352
-877
-301
-111
-235
-211
-178
-191
-163
-148
-155
-136
-120
-114
-94
-75
-68
-49
-12
25
57
87
124
174
226
264
293
318
314
266
186
97
11
-65
-121
-147
-155
-161
-160
-157
-158
-150
-135
-135
-141
-126
-113
-125
-136
-125
-116
-125
-134
-129
-132
-154
-157
-125
-92
-71
-49
-51
-85
-111
-116
-112
-102
-106
-114
-83
-75
-113
-120
-253
-363
553
2374
2791
948
-739
-691
-163
-158
-229
-168
-177
-195
-158
-140
-135
-124
-122
-114
-92
-73
-53
-27
-5
17
51
97
150
196
226
252
283
310
304
238
133
44
-19
-82
-135
-161
-170
-174
-177
-174
-164
-158
-157
-151
-141
-143
-151
-152
-148
-146
-146
-143
-144
-159
-175
-165
-130
-103
-81
-53
-52
-88
-116
-121
-113
-99
-104
-109
-79
-86
-122
-141
-305
-217
1071
2717
2362
245
-911
-490
-98
-197
-206
-141
-167
-159
-124
-128
-119
-94
-89
-83
-64
-49
-31
-7
15
45
89
135
176
216
253
282
304
308
275
208
128
46
-32
-93
-131
-152
-162
-164
-163
-155
-145
-140
-141
-141
-138
-131
-125
-126
-127
-125
-126
-131
-134
-149
-171
-162
-124
-95
-73
-50
-58
-89
-105
-111
-116
-105
-104
-112
-94
-99
-126
-139
-300
-279
885
2565
2425
392
-893
-548
-105
-181
-214
-147
-170
-171
-132
-127
-125
-110
-106
-94
-70
-53
-38
-13
15
41
75
119
162
199
233
262
285
293
268
207
128
48
-27
-85
-123
-146
-160
-163
-153
-142
-139
-134
-125
-125
-126
-123
-122
-128
-127
-127
-134
-137
-148
-169
-163
-126
-99
-82
-57
-56
-87
-107
-114
-120
-108
-106
-123
-104
-96
-130
-129
-240
-351
497
2205
2560
763
-825
-715
-172
-152
-207
-145
-155
-165
-127
-122
-121
-98
-90
-86
-65
-43
-27
-4
21
46
81
125
168
207
243
273
296
308
292
237
160
80
1
-70
-121
-147
-159
-163
-161
-157
-150
-141
-136
-135
-129
-120
-121
-122
-118
-118
-122
-126
-143
-166
-158
-123
-92
-66
-48
-63
-95
-112
-120
-121
-105
-106
-117
-94
-98
-127
-138
-292
-236
950
2527
2226
191
-962
-554
-120
-180
-196
-140
-163
-156
-117
-117
-117
-100
-88
-74
-58
-44
-24
1
28
59
96
137
177
212
241
272
297
302
275
213
135
56
-20
-85
-125
-147
-163
-169
-160
-149
-146
-147
-142
-131
-125
-128
-126
-122
-124
-128
-131
-147
-158
-139
-106
-85
-65
-50
-64
-95
-113
-120
-118
-109
-121
-123
-95
-115
-141
-151
-318
-149
1215
2647
1945
-172
-1054
-508
-131
-194
-174
-132
-162
-142
-111
-120
-112
-91
-83
-72
-53
-37
-17
9
38
71
112
151
188
224
256
287
314
317
278
204
120
37
-40
-102
-141
-160
-169
-172
-166
-157
-156
-157
-147
-135
-132
-130
-123
-119
-123
-125
-129
-145
-162
-150
-118
-92
-71
-56
-66
-97
-118
-124
-118
-105
-114
-125
-98
-99
-130
-140
-285
-251
901
2528
2332
298
-949
-578
-122
-179
-204
-143
-161
-156
-121
-125
-122
-101
-93
-86
-68
-49
-30
-10
15
51
90
126
164
198
227
259
289
299
273
214
137
56
-20
-83
-126
-150
-162
-164
-160
-157
-155
-152
-150
-146
-140
-134
-135
-140
-140
-135
-142
-162
-167
-141
-109
-89
-67
-60
-86
-111
-116
-118
-113
-102
-113
-107
-87
-115
-124
-162
-332
108
1715
2771
1487
-567
-1010
-367
-121
-195
-151
-127
-153
-125
-100
-102
-90
-77
-74
-58
-34
-13
10
41
73
101
136
188
241
281
310
335
353
340
279
188
97
7
-83
-145
-175
-196
-212
-210
-196
-191
-192
-189
-180
-173
-165
-158
-154
-147
-139
-150
-171
-168
-140
-119
-105
-87
-86
-106
-125
-141
-145
-127
-127
-139
-110
-113
-153
-125
-231
-310
688
2425
2463
362
-1150
-830
-222
-180
-191
-122
-134
-130
-101
-107
-95
-67
-66
-60
-32
-14
-2
28
61
91
130
180
229
275
314
344
370
380
344
264
168
73
-15
-86
-133
-162
-179
-189
-197
-197
-188
-178
-172
-165
-153
-144
-139
-137
-135
-135
-144
-158
-158
-138
-117
-98
-77
-74
-99
-122
-130
-131
-121
-120
-133
-116
-104
-136
-133
-229
-374
392
2190
2822
1090
-763
-840
-238
-155
-228
-166
-164
-182
-146
-136
-138
-114
-101
-99
-83
-63
-47
-24
4
31
63
105
149
192
231
264
294
314
299
240
159
75
-8
-76
-121
-149
-168
-177
-175
-170
-164
-159
-154
-149
-143
-137
-133
-131
-132
-134
-135
-144
-160
-161
-138
-112
-91
-69
-66
-90
-113
-123
-126
-113
-106
-122
-115
-98
-120
-128
-225
-381
314
2119
2944
1351
-614
-840
-243
-143
-242
-185
-172
-192
-154
-139
-149
-131
-114
-108
-93
-77
-60
-36
-9
20
56
94
134
176
215
248
280
303
292
239
162
78
-2
-69
-116
-145
-158
-161
-164
-165
-161
-153
-147
-145
-140
-133
-128
-129
-132
-130
-129
-134
-136
-133
-143
-160
-147
-112
-87
-70
-54
-64
-93
-105
-107
-107
-93
-95
-105
-81
-84
-113
-131
-302
-232
1062
2781
2490
321
-934
-530
-98
-183
-203
-141
-169
-163
-125
-128
-126
-105
-97
-88
-70
-54
-34
-11
14
46
86
125
167
208
241
271
304
321
295
230
151
70
-7
-71
-114
-137
-146
-149
-150
-148
-143
-137
-132
-129
-127
-124
-120
-120
-120
-121
-124
-124
-126
-131
-134
-136
-152
-169
-154
-118
-91
-73
-56
-66
-95
-110
-115
-112
-99
-104
-110
-86
-99
-131
-156
-341
-213
1166
2790
2281
90
-994
-507
-110
-206
-213
-155
-184
-175
-142
-146
-139
-117
-108
-99
-83
-65
-47
-32
-14
16
55
95
139
180
214
249
277
282
256
202
125
40
-39
-107
-153
-170
-173
-180
-181
-169
-161
-165
-164
-155
-151
-152
-152
-153
-155
-154
-151
-155
-157
-153
-155
-163
-164
-164
-175
-176
-148
-115
-91
-66
-60
-84
-104
-107
-112
-104
-95
-103
-84
-68
-98
-102
-206
-364
379
2185
2872
1173
-701
-797
-190
-107
-187
-123
-115
-128
-92
-84
-86
-63
-54
-48
-25
-9
5
31
58
84
120
159
199
246
286
311
337
370
373
320
242
169
96
22
-31
-60
-77
-88
-90
-85
-77
-73
-70
-66
-61
-56
-54
-54
-52
-51
-53
-56
-53
-52
-62
-73
-75
-83
-104
-111
-85
-51
-23
2
4
-27
-57
-66
-68
-63
-61
-78
-69
-52
-84
-96
-174
-353
211
1918
2834
1367
-624
-912
-275
-116
-216
-173
-164
-191
-156
-138
-149
-135
-121
-122
-115
-103
-92
-74
-53
-29
2
38
73
110
144
168
191
216
215
168
91
10
-73
-151
-208
-243
-262
-270
-276
-278
-273
-267
-268
-264
-255
-252
-254
-252
-249
-250
-251
-251
-250
-244
-242
-254
-262
-262
-271
-276
-249
-212
-187
-159
-139
-157
-181
-183
-178
-166
-152
-159
-147
-116
-137
-148
-192
-380
23
1639
2808
1623
-455
-951
-301
-51
-146
-100
-60
-83
-50
-15
-10
15
40
49
68
94
117
144
172
201
242
291
336
379
423
460
487
513
524
492
423
345
270
194
