# session 37
-22
-34
-12
69
74
-60
-162
-160
-163
-180
-170
-158
-156
-147
-139
-135
-125
-117
-114
-108
-104
-103
-99
-94
-93
-93
-91
-90
-88
-85
-84
-86
-86
-83
-79
-81
-84
-81
-74
-76
-89
-98
-83
-41
8
24
-8
-50
-62
-64
-69
-63
-64
-76
-55
-48
-88
-125
-239
-130
1027
2598
2375
359
-825
-403
9
-131
-171
-101
-137
-142
-106
-115
-113
-86
-78
-70
-50
-36
-22
-1
18
37
61
90
121
155
187
215
238
257
274
285
272
218
138
55
-23
-92
-142
-172
-190
-199
-203
-204
-197
-182
-169
-164
-158
-151
-144
-134
-127
-127
-128
-127
-125
-124
-123
-124
-125
-120
-117
-121
-124
-121
-114
-114
-125
-137
-129
-91
-39
-4
-17
-62
-92
-93
-93
-91
-83
-94
-91
-67
-89
-128
-209
-310
308
1988
2895
1480
-431
-671
-101
-71
-214
-144
-134
-174
-141
-125
-131
-107
-94
-96
-80
-58
-39
-18
2
20
47
77
108
144
177
202
227
251
270
286
286
246
169
83
3
-72
-133
-168
-186
-199
-204
-199
-191
-187
-185
-179
-170
-161
-151
-144
-140
-137
-134
-133
-131
-131
-131
-130
-128
-126
-123
-121
-119
-115
-112
-119
-130
-123
-83
-32
-7
-27
-67
-90
-95
-97
-91
-86
-100
-90
-70
-97
-121
-187
-239
485
2102
2657
998
-746
-727
-99
-73
-182
-109
-113
-144
-104
-93
-101
-79
-67
-66
-49
-32
-19
0
20
39
64
94
128
163
198
228
253
275
298
312
302
255
177
88
3
-71
-129
-163
-181
-194
-199
-197
-190
-182
-172
-161
-153
-146
-140
-135
-130
-127
-126
-127
-126
-124
-123
-125
-125
-124
-124
-123
-118
-112
-119
-132
-131
-106
-59
-13
-4
-41
-77
-82
-85
-89
-79
-81
-93
-73
-73
-116
-170
-300
-78
1276
2793
2281
205
-778
-308
-20
-194
-201
-140
-184
-176
-139
-147
-140
-117
-114
-102
-81
-68
-53
-32
-12
9
35
64
96
128
158
185
209
226
243
254
236
180
105
28
-46
-106
-148
-174
-188
-190
-188
-184
-179
-173
-165
-154
-148
-149
-147
-139
-131
-129
-130
-127
-122
-119
-117
-115
-116
-117
-111
-104
-107
-120
-118
-84
-32
2
-10
-56
-86
-84
-85
-88
-77
-84
-91
-68
-78
-119
-184
-319
84
1634
2881
1866
-201
-799
-217
-32
-189
-157
-123
-166
-141
-114
-127
-115
-94
-89
-74
-54
-42
-25
-4
17
41
68
97
127
159
189
214
234
251
268
273
242
173
90
8
-68
-129
-168
-190
-200
-203
-202
-199
-193
-186
-177
-171
-165
-158
-151
-147
-145
-140
-134
-130
-129
-128
-127
-125
-125
-122
-115
-115
-126
-138
-129
-94
-43
-9
-22
-66
-91
-89
-91
-91
-83
-91
-90
-66
-82
-125
-211
-325
231
1890
2964
1734
-242
-657
-120
-59
-224
-169
-148
-192
-160
-137
-148
-133
-115
-111
-96
-78
-67
-50
-30
-11
11
36
64
94
125
153
176
197
215
232
236
206
143
69
-5
-74
-125
-155
-173
-182
-182
-179
-177
-173
-166
-159
-152
-145
-140
-135
-129
-125
-123
-122
-118
-114
-112
-113
-111
-106
-101
-103
-116
-126
-116
-81
-34
-3
-17
-63
-90
-91
-93
-92
-83
-92
-90
-65
-86
-130
-212
-325
236
1899
2938
1664
-299
-670
-118
-58
-216
-162
-146
-187
-153
-133
-148
-131
-113
-110
-96
-77
-65
-50
-31
-10
14
38
62
91
123
152
176
195
213
231
235
201
135
60
-11
-77
-129
-160
-175
-182
-183
-179
-173
-166
-160
-153
-146
-139
-135
-134
-131
-125
-120
-118
-115
-111
-108
-109
-109
-104
-100
-111
-127
-123
-91
-42
-2
-5
-49
-83
-87
-91
-95
-86
-92
-98
-74
-83
-123
-186
-319
48
1561
2884
2009
-36
-722
-198
-28
-207
-181
-140
-187
-169
-141
-153
-141
-119
-116
-105
-87
-74
-59
-41
-23
-1
25
50
77
104
130
154
172
190
213
225
200
139
66
-6
-73
-123
-154
-175
-188
-188
-178
-169
-163
-161
-159
-152
-142
-135
-136
-134
-128
-123
-119
-115
-111
-107
-105
-110
-117
-117
-101
-60
-12
0
-37
-79
-90
-95
-102
-92
-88
-102
-86
-78
-116
-148
-263
-215
872
2554
2557
555
-833
-503
-28
-141
-204
-131
-162
-170
-123
-128
-137
-113
-103
-98
-77
-58
-43
-23
-3
16
41
70
99
129
159
184
204
224
245
258
238
180
102
22
-53
-117
-161
-183
-196
-202
-199
-190
-183
-174
-162
-152
-149
-143
-135
-130
-128
-125
-122
-120
-118
-116
-116
-112
-109
-118
-133
-132
-106
-58
-13
-12
-54
-88
-91
-92
-97
-87
-89
-98
-77
-77
-118
-171
-303
-61
1320
2830
2283
207
-744
-268
-6
-194
-198
-137
-184
-175
-136
-146
-140
-115
-110
-101
-81
-68
-52
-33
-15
4
28
52
77
106
131
149
166
184
204
214
195
141
71
0
-64
-118
-152
-169
-175
-176
-173
-167
-160
-152
-146
-142
-137
-132
-128
-123
-119
-117
-116
-113
-111
-111
-109
-104
-102
-104
-102
-97
-103
-118
-120
-95
-47
-2
2
-39
-76
-80
-81
-85
-75
-78
-89
-68
-66
-107
-160
-295
-72
1286
2799
2275
210
-747
-268
4
-179
-184
-124
-173
-165
-127
-138
-133
-109
-103
-95
-76
-61
-45
-26
-8
14
37
57
80
107
132
151
167
183
204
220
208
158
87
16
-47
-101
-139
-158
-165
-164
-159
-153
-147
-141
-137
-133
-128
-123
-120
-118
-114
-110
-109
-107
-104
-103
-103
-100
-99
-99
-98
-94
-91
-89
-89
-89
-84
-80
-88
-102
-107
-86
-41
7
15
-24
-61
-69
-72
-76
-66
-71
-81
-59
-60
-102
-160
-299
-50
1333
2789
2184
148
-720
-227
11
-176
-176
-121
-166
-158
-126
-135
-127
-107
-104
-92
-75
-67
-53
-31
-11
9
31
51
73
100
125
142
157
173
192
212
209
170
104
36
-24
-77
-120
-147
-156
-155
-149
-141
-134
-133
-132
-127
-123
-123
-122
-119
-114
-110
-110
-115
-116
-111
-107
-106
-108
-108
-104
-99
-98
-102
-106
-104
-95
-90
-99
-109
-101
-65
-16
11
-11
-54
-72
-74
-80
-73
-69
-85
-74
-57
-91
-118
-204
-240
605
2254
2591
783
-804
-630
-56
-90
-177
-106
-126
-148
-107
-103
-106
-84
-74
-68
-49
-36
-24
-4
17
36
59
83
107
135
161
184
204
219
232
250
252
215
146
70
-3
-70
-122
-155
-175
-183
-179
-172
-166
-158
-150
-145
-141
-135
-129
-125
-123
-121
-118
-116
-116
-117
-116
-116
-116
-115
-113
-111
-111
-111
-104
-98
-107
-124
-123
-92
-41
-2
-7
-49
-79
-82
-84
-85
-76
-85
-87
-66
-83
-124
-196
-316
166
1771
2937
1845
-134
-632
-116
-41
-217
-169
-141
-188
-163
-140
-151
-134
-115
-111
-97
-80
-67
-50
-32
-16
5
27
49
73
98
119
138
152
164
180
190
171
120
55
-11
-72
-120
-150
-168
-176
-175
-170
-166
-161
-154
-148
-143
-137
-131
-126
-121
-116
-113
-111
-108
-106
-103
-100
-101
-102
-97
-93
-94
-89
-85
-95
-109
-103
-71
-20
19
8
-41
-70
-70
-76
-77
-68
-77
-76
-54
-75
-113
-198
-312
285
1958
2908
1563
-335
-618
-77
-54
-210
-149
-138
-179
-145
-128
-143
-126
-110
-107
-92
-77
-68
-50
-29
-11
10
34
58
84
111
134
151
165
180
198
206
181
124
56
-11
-74
-122
-152
-170
-179
-178
-173
-167
-159
-151
-147
-143
-137
-130
-124
-118
-116
-114
-110
-108
-109
-108
-104
-102
-102
-99
-97
-95
-92
-98
-113
-115
-91
-46
-1
5
-34
-68
-74
-82
-89
-79
-84
-94
-73
-79
-116
-166
-298
-4
1426
2806
2065
27
-743
-224
-11
-189
-173
-122
-168
-153
-122
-135
-126
-103
-99
-90
-70
-55
-40
-23
-8
14
42
68
93
117
139
161
178
191
208
223
209
156
83
12
-49
-101
-140
-160
-170
-173
-165
-154
-152
-153
-142
-126
-122
-125
-123
-118
-118
-118
-116
-112
-110
-110
-109
-105
-103
-104
-106
-105
-98
-95
-102
-110
-105
-76
-28
7
-9
-56
-81
-83
-89
-86
-80
-94
-89
-71
-98
-120
-186
-249
456
2065
2635
1006
-733
-736
-116
-77
-183
-119
-124
-155
-117
-105
-112
-91
-77
-74
-57
-40
-26
-8
12
32
56
81
108
138
165
189
210
228
244
261
262
224
154
76
-1
-70
-121
-153
-173
-183
-182
-175
-167
-158
-149
-142
-136
-130
-126
-121
-116
-113
-113
-112
-110
-111
-112
-110
-109
-109
-108
-107
-105
-100
-101
-115
-126
-113
-74
-26
0
-22
-65
-85
-86
-91
-86
-83
-97
-85
-71
-106
-144
-257
-282
648
2400
2799
1031
-549
-455
-16
-133
-227
-147
-170
-194
-154
-152
-155
-129
-118
-113
-94
-78
-64
-46
-29
-10
13
35
56
81
105
124
141
157
172
187
189
159
99
31
-32
-87
-129
-153
-167
-174
-170
-162
-158
-154
-146
-137
-134
-131
-126
-121
-117
-112
-108
-107
-104
-101
-101
-100
-96
-96
-96
-94
-94
-93
-86
-90
-107
-116
-98
-56
-4
18
-14
-59
-71
-70
-74
-68
-71
-84
-65
-55
-93
-131
-259
-191
950
2634
2595
631
-666
-356
15
-142
-194
-124
-165
-174
-131
-135
-136
-113
-106
-100
-81
-63
-49
-35
-20
4
30
50
70
98
127
149
164
176
192
212
211
169
100
34
-29
-91
-133
-152
-165
-173
-170
-160
-152
-149
-146
-140
-131
-125
-123
-122
-121
-116
-111
-108
-108
-109
-110
-109
-107
-105
-104
-101
-99
-103
-104
-96
-90
-97
-106
-100
-71
-24
6
-12
-56
-78
-82
-87
-79
-71
-87
-79
-60
-86
-107
-182
-245
499
2129
2643
964
-731
-679
-80
-76
-181
-112
-123
-150
-110
-106
-115
-90
-76
-74
-54
-34
-20
-2
19
39
63
89
115
142
170
197
217
230
244
261
261
224
156
78
2
-66
-119
-153
-171
-180
-183
-180
-172
-163
-155
-149
-143
-138
-134
-131
-127
-122
-121
-122
-124
-125
-123
-122
-124
-124
-121
-118
-118
-116
-114
-114
-120
-126
-114
-73
-25
-14
-47
-84
-94
-95
-97
-90
-94
-104
-81
-81
-125
-178
-323
-156
1165
2795
2455
391
-711
-296
3
-182
-204
-135
-178
-173
-129
-138
-136
-112
-105
-96
-75
-60
-44
-22
-4
11
32
58
85
113
135
152
169
185
201
213
200
152
85
18
-46
-102
-141
-164
-174
-175
-173
-169
-163
-158
-152
-143
-134
-133
-132
-123
-115
-116
-114
-109
-110
-115
-114
-108
-106
-105
-97
-95
-109
-120
-104
-62
-15
1
-34
-77
-85
-85
-94
-85
-82
-99
-83
-75
-113
-126
-217
-182
861
2505
2469
423
-967
-587
-52
-126
-174
-104
-137
-144
-102
-107
-107
-79
-73
-68
-45
-29
-18
3
29
52
74
101
134
169
197
220
240
258
280
293
273
211
128
43
-32
-98
-152
-183
-196
-206
-211
-205
-196
-189
-182
-171
-159
-152
-146
-139
-133
-130
-130
-131
-131
-133
-133
-133
-130
-123
-119
-130
-144
-138
-105
-57
-23
-34
-74
-99
-101
-106
-105
-96
-105
-101
-77
-94
-127
-206
-307
289
1921
2830
1481
-409
-682
-106
-51
-204
-147
-132
-172
-138
-116
-125
-108
-92
-87
-73
-58
-45
-27
-9
8
29
53
76
101
128
152
171
185
200
216
215
179
116
46
-24
-88
-135
-160
-174
-183
-187
-186
-182
-176
-169
-160
-150
-141
-133
-125
-119
-115
-112
-111
-111
-111
-110
-107
-106
-106
-103
-100
-109
-122
-118
-88
-41
-4
-11
-55
-85
-84
-86
-89
-79
-83
-86
-62
-69
-111
-178
-291
128
1660
2914
1971
-45
-669
-144
-12
-201
-165
-125
-175
-153
-122
-134
-122
-99
-97
-86
-67
-54
-40
-21
-4
15
37
60
85
110
134
154
167
181
200
208
180
118
47
-19
-79
-129
-159
-172
-178
-181
-181
-176
-170
-165
-160
-151
-143
-141
-140
-133
-128
-126
-123
-117
-114
-114
-113
-110
-109
-108
-106
-106
-104
-98
-96
-106
-118
-111
-78
-29
3
-12
-57
-83
-83
-83
-80
-74
-86
-85
-66
-90
-123
-204
-303
331
2005
2900
1535
-304
-554
-55
-67
-218
-152
-147
-188
-151
-136
-149
-130
-113
-108
-91
-78
-70
-58
-46
-28
0
20
35
66
100
119
132
146
148
154
180
186
125
31
-37
-79
-114
-129
-116
-95
-80
-86
-124
-178
-196
-164
-134
-126
-105
-74
-77
-103
-102
-74
-68
-94
-113
-107
-90
-71
-66
-81
-86
-76
-76
-69
-35
-33
-88
-123
-78
1
33
-7
-54
-46
-38
-63
-59
-42
-60
-44
-21
-82
-128
-198
-267
475
2106
2617
1000
-602
-579
-75
-86
-165
-104
-122
-146
-110
-92
-85
-87
-96
-61
-25
-46
-60
-24
11
33
59
71
78
117
172
192
183
192
224
252
256
225
158
77
0
-76
-137
-170
-189
-198
-193
-187
-175
-152
-147
-163
-161
-147
-152
-151
-130
-124
-141
-144
-129
-129
-146
-155
-158
-159
-146
-134
-144
-149
-124
-90
-63
-51
-77
-121
-129
-119
-125
-119
-112
-124
-118
-118
-135
-126
-212
-87
1049
2407
1808
-383
-1412
-759
-165
-136
-110
-78
-116
-84
-49
-65
-46
-22
-32
-16
21
38
51
71
87
116
158
185
203
240
289
318
332
351
365
360
329
255
146
43
-36
-100
-158
-202
-222
-227
-226
-215
-202
-196
-183
-163
-152
-143
-128
-124
-129
-127
-120
-119
-127
-133
-126
-107
-97
-94
-73
-40
-51
-97
-113
-97
-97
-94
-83
-99
-99
-70
-78
-81
-106
-119
525
1887
2205
519
-1161
-1096
-327
-89
-99
-25
-13
-38
-19
1
20
35
26
34
73
89
84
104
137
161
186
220
255
286
317
355
389
407
414
408
362
272
169
69
-24
-105
-163
-191
-199
-209
-226
-228
-206
-186
-184
-185
-174
-158
-148
-147
-147
-148
-145
-137
-131
-131
-131
-124
-103
-74
-61
-85
-120
-135
-132
