# session 27
44
-17
98
53
-110
703
2414
2681
772
-791
-609
-84
-102
-153
-91
-111
-123
-90
-87
-85
-69
-61
-50
-37
-30
-16
7
27
51
87
126
168
216
259
289
319
348
346
294
213
130
45
-40
-105
-141
-161
-173
-177
-175
-174
-173
-170
-163
-154
-148
-145
-143
-141
-141
-138
-139
-142
-140
-136
-138
-143
-144
-148
-153
-156
-167
-177
-158
-122
-90
-63
-49
-68
-96
-103
-107
-115
-106
-103
-115
-94
-86
-121
-133
-250
-278
711
2396
2536
648
-794
-585
-111
-158
-212
-148
-159
-161
-130
-131
-127
-108
-107
-98
-74
-64
-56
-29
-1
19
46
87
134
180
221
255
288
319
325
286
215
135
53
-24
-86
-127
-148
-152
-154
-157
-155
-147
-140
-136
-132
-131
-131
-127
-123
-124
-125
-122
-117
-117
-120
-120
-118
-121
-130
-133
-134
-148
-156
-127
-81
-54
-36
-26
-49
-82
-88
-87
-89
-78
-79
-87
-65
-74
-107
-135
-291
-131
1185
2670
2135
92
-862
-396
-66
-171
-168
-120
-152
-137
-102
-107
-101
-87
-87
-76
-54
-41
-26
-3
19
48
83
120
161
208
252
288
316
332
323
278
204
117
32
-41
-95
-132
-152
-156
-157
-157
-148
-140
-142
-143
-137
-134
-135
-132
-131
-133
-136
-137
-135
-131
-132
-135
-139
-143
-140
-139
-160
-173
-140
-96
-69
-44
-38
-70
-101
-100
-105
-112
-99
-100
-104
-77
-90
-125
-146
-312
-160
1190
2686
2074
-47
-990
-468
-96
-178
-168
-121
-151
-136
-107
-114
-103
-82
-79
-69
-50
-36
-20
4
32
61
97
141
190
240
284
320
349
366
354
300
214
122
34
-45
-104
-138
-155
-162
-163
-162
-160
-152
-146
-147
-142
-130
-126
-130
-129
-124
-124
-127
-129
-132
-136
-138
-139
-141
-142
-151
-167
-160
-122
-86
-61
-42
-49
-81
-98
-100
-105
-96
-87
-106
-101
-75
-102
-124
-193
-347
182
1815
2767
1444
-465
-794
-228
-101
-207
-158
-141
-170
-142
-123
-128
-113
-95
-86
-77
-68
-52
-29
-9
13
47
85
123
166
210
247
277
305
323
305
243
162
83
6
-65
-117
-143
-153
-155
-153
-150
-146
-141
-138
-136
-134
-132
-130
-125
-122
-124
-124
-122
-122
-123
-121
-122
-129
-132
-130
-144
-164
-146
-96
-58
-38
-26
-42
-78
-92
-91
-93
-84
-84
-97
-77
-69
-105
-116
-239
-299
648
2347
2556
700
-776
-590
-103
-140
-194
-129
-146
-154
-115
-113
-117
-97
-86
-80
-67
-56
-41
-17
6
29
58
96
139
181
218
255
290
315
318
283
214
131
52
-21
-84
-126
-146
-152
-156
-160
-159
-152
-144
-141
-140
-135
-130
-131
-131
-129
-131
-133
-129
-126
-129
-132
-130
-134
-142
-137
-138
-161
-163
-119
-74
-51
-32
-32
-64
-89
-91
-95
-93
-78
-84
-87
-63
-86
-118
-146
-309
-74
1338
2703
1937
-94
-864
-348
-71
-178
-161
-120
-149
-133
-108
-115
-105
-89
-83
-66
-47
-40
-29
-4
23
50
85
126
164
202
244
277
306
331
326
271
194
118
35
-47
-105
-136
-153
-161
-158
-149
-145
-146
-145
-138
-129
-126
-128
-131
-128
-122
-125
-133
-135
-129
-127
-129
-127
-130
-139
-137
-131
-149
-166
-138
-86
-57
-42
-35
-60
-92
-97
-98
-102
-88
-89
-98
-75
-85
-119
-126
-292
-249
977
2587
2224
117
-1008
-545
-106
-165
-165
-112
-145
-138
-103
-107
-103
-84
-77
-65
-48
-35
-14
14
40
67
102
141
182
227
273
311
341
364
363
314
234
149
62
-26
-92
-127
-150
-163
-163
-160
-159
-154
-146
-141
-140
-137
-133
-130
-129
-125
-121
-123
-127
-125
-121
-121
-123
-123
-126
-128
-128
-141
-156
-138
-95
-59
-34
-20
-43
-81
-92
-90
-95
-89
-86
-101
-87
-76
-108
-121
-236
-322
540
2249
2638
885
-710
-641
-133
-137
-204
-142
-153
-165
-125
-121
-128
-108
-97
-94
-78
-59
-45
-26
-3
19
46
86
132
171
208
242
271
296
310
286
222
145
70
-7
-76
-121
-143
-154
-159
-158
-154
-147
-145
-148
-144
-135
-130
-128
-125
-121
-119
-122
-122
-121
-123
-127
-125
-126
-131
-133
-141
-161
-153
-104
-61
-42
-31
-43
-78
-95
-93
-99
-94
-85
-99
-94
-71
-95
-115
-190
-351
172
1798
2742
1428
-461
-781
-216
-89
-194
-148
-131
-154
-125
-108
-113
-96
-83
-82
-68
-52
-41
-25
-2
26
54
87
127
171
211
243
273
300
316
299
245
169
89
10
-60
-110
-142
-158
-159
-156
-157
-155
-150
-149
-150
-144
-136
-133
-131
-126
-121
-119
-119
-119
-120
-120
-117
-113
-111
-114
-118
-113
-119
-143
-141
-98
-53
-25
-8
-23
-63
-84
-82
-86
-81
-76
-94
-89
-65
-93
-111
-180
-344
181
1812
2737
1387
-507
-807
-231
-98
-194
-148
-132
-151
-121
-111
-119
-99
-84
-82
-69
-52
-35
-12
13
38
66
99
141
188
231
266
298
327
346
333
276
191
101
14
-60
-110
-138
-156
-168
-169
-162
-159
-164
-164
-155
-145
-141
-137
-132
-129
-132
-135
-135
-134
-136
-138
-134
-132
-135
-135
-140
-157
-154
-110
-65
-47
-43
-54
-84
-102
-106
-111
-104
-97
-112
-101
-78
-112
-122
-186
-367
156
1811
2707
1271
-660
-916
-280
-109
-184
-133
-120
-140
-112
-103
-106
-85
-71
-66
-48
-31
-16
3
24
49
83
122
166
212
254
290
324
354
369
348
286
199
105
13
-62
-110
-138
-155
-166
-169
-164
-158
-158
-154
-145
-140
-138
-133
-126
-125
-127
-126
-122
-122
-125
-126
-126
-127
-127
-126
-139
-161
-151
-105
-64
-43
-33
-49
-84
-99
-96
-103
-103
-93
-104
-102
-79
-102
-124
-185
-351
86
1668
2766
1611
-352
-819
-265
-100
-211
-167
-138
-167
-143
-123
-131
-117
-102
-97
-83
-67
-51
-31
-10
12
40
73
112
157
199
233
262
290
309
299
252
179
101
23
-49
-99
-125
-140
-153
-162
-163
-161
-155
-148
-144
-142
-135
-129
-127
-122
-115
-115
-116
-112
-110
-116
-121
-117
-118
-138
-148
-111
-54
-28
-27
-33
-59
-93
-102
-102
-106
-93
-91
-104
-85
-88
-123
-135
-291
-281
870
2539
2364
299
-974
-597
-128
-171
-184
-128
-161
-154
-105
-107
-116
-99
-84
-72
-57
-43
-27
-7
22
63
110
145
176
221
273
312
340
360
359
323
252
156
49
-48
-119
-158
-177
-189
-191
-182
-176
-177
-177
-177
-176
-168
-156
-147
-143
-141
-138
-133
-139
-150
-149
-146
-163
-174
-142
-94
-68
-55
-58
-93
-124
-120
-112
-114
-115
-133
-134
-97
-110
-129
-128
-303
-148
1226
2663
1931
-206
-1075
-516
-129
-174
-144
-110
-151
-138
-107
-107
-94
-75
-67
-54
-41
-28
1
37
58
76
110
159
209
257
302
340
372
395
383
321
231
136
36
-54
-113
-146
-165
-174
-180
-185
-182
-172
-166
-161
-150
-137
-133
-132
-127
-123
-122
-119
-121
-129
-130
-135
-155
-156
-121
-83
-63
-48
-52
-86
-117
-121
-120
-117
-107
-115
-118
-92
-102
-123
-167
-353
-94
1356
2712
1929
-77
-833
-355
-114
-218
-191
-153
-178
-152
-130
-139
-120
-100
-102
-89
-72
-60
-39
-22
-10
26
73
103
138
192
231
248
276
305
293
245
179
91
-6
-78
-118
-135
-138
-148
-168
-180
-181
-178
-168
-159
-154
-148
-142
-137
-128
-122
-129
-137
-134
-130
-138
-151
-144
-108
-64
-42
-40
-49
-71
-93
-105
-110
-98
-85
-105
-108
-76
-89
-117
-171
-322
58
1548
2689
1692
-213
-752
-251
-88
-206
-174
-146
-170
-141
-122
-134
-118
-97
-94
-86
-68
-51
-37
-21
7
44
78
112
154
201
244
285
319
329
301
245
175
92
4
-67
-110
-135
-148
-154
-157
-153
-149
-151
-151
-144
-137
-134
-140
-146
-137
-132
-144
-143
-123
-126
-148
-149
-149
-176
-183
-128
-58
-30
-37
-59
-94
-123
-138
-150
-141
-115
-119
-116
-93
-115
-130
-184
-356
89
1683
2717
1458
-534
-962
-353
-125
-198
-154
-121
-141
-123
-106
-103
-88
-68
-50
-35
-27
-15
2
22
54
91
127
176
228
267
307
349
371
382
384
334
226
116
24
-63
-127
-151
-154
-157
-169
-185
-182
-162
-160
-169
-156
-133
-129
-129
-124
-131
-138
-123
-111
-126
-144
-153
-162
-150
-103
-64
-61
-72
-88
-111
-130
-135
-124
-111
-127
-135
-101
-116
-152
-144
-290
-216
1022
2554
2092
8
-1038
-567
-143
-180
-171
-128
-153
-135
-107
-115
-101
-76
-71
-62
-42
-24
0
23
38
64
112
162
203
242
292
339
362
375
381
338
237
130
43
-35
-102
-142
-160
-169
-179
-182
-170
-155
-161
-176
-172
-150
-134
-132
-136
-133
-122
-123
-140
-145
-135
-131
-136
-142
-147
-147
-149
-159
-152
-112
-76
-65
-58
-61
-85
-106
-111
-106
-91
-89
-93
-67
-83
-131
-118
-244
-278
807
2521
2457
393
-989
-669
-159
-164
-180
-118
-132
-137
-114
-103
-92
-93
-101
-80
-46
-27
-19
-6
20
53
81
115
170
227
261
290
333
373
374
326
254
175
87
-10
-92
-138
-157
-174
-194
-195
-180
-173
-175
-169
-155
-144
-136
-129
-128
-139
-146
-133
-117
-115
-116
-114
-119
-129
-132
-140
-158
-158
-120
-79
-62
-54
-45
-55
-77
-89
-88
-79
-74
-88
-80
-56
-79
-103
-165
-327
105
1685
2850
1801
-155
-718
-235
-88
-215
-176
-138
-175
-160
-130
-135
-136
-118
-99
-90
-88
-80
-61
-41
-20
11
51
91
131
174
215
248
278
300
287
232
158
77
-11
-85
-123
-140
-153
-154
-148
-154
-164
-155
-140
-144
-152
-146
-140
-144
-143
-130
-122
-126
-135
-137
-131
-124
-121
-125
-132
-129
-122
-135
-155
-142
-108
-79
-52
-31
-44
-75
-79
-74
-81
-77
-68
-77
-69
-65
-92
-114
-238
-244
740
2382
2533
728
-672
-501
-81
-148
-198
-136
-158
-160
-120
-124
-124
-103
-104
-102
-79
-65
-56
-37
-17
0
28
65
105
149
193
229
260
295
313
286
217
134
55
-17
-71
-104
-128
-147
-151
-145
-138
-135
-134
-130
-126
-128
-129
-119
-114
-123
-126
-115
-115
-123
-119
-113
-121
-124
-114
-113
-119
-118
-118
-131
-132
-108
-80
-56
-29
-23
-53
-75
-69
-71
-79
-72
-77
-79
-61
-73
-95
-159
-313
106
1637
2753
1683
-260
-785
-257
-79
-195
-162
-128
-156
-142
-125
-126
-110
-98
-91
-73
-63
-59
-42
-16
3
28
63
99
144
202
246
269
296
324
313
261
192
111
24
-48
-98
-139
-169
-179
-177
-171
-164
-164
-163
-152
-147
-151
-148
-141
-146
-154
-146
-132
-132
-143
-141
-132
-135
-143
-136
-132
-152
-163
-137
-93
-55
-33
-41
-74
-98
-101
-95
-79
-67
-86
-84
-54
-78
-105
-142
-319
4
1511
2734
1728
-294
-895
-333
-83
-168
-135
-109
-141
-122
-102
-111
-97
-82
-84
-71
-45
-33
-25
0
28
50
84
131
173
212
260
307
337
349
341
299
223
130
43
-31
-92
-129
-142
-144
-147
-146
-143
-144
-146
-139
-128
-130
-137
-131
-120
-120
-127
-126
-123
-131
-142
-140
-133
-138
-147
-142
-135
-150
-170
-161
-125
-100
-85
-62
-60
-84
-98
-102
-112
-100
-85
-104
-101
-83
-109
-114
-201
-344
347
2055
2722
1108
-705
-822
-227
-114
-182
-127
-124
-143
-105
-92
-98
-72
-45
-50
-56
-38
-9
15
31
42
61
100
146
188
235
279
303
323
348
338
276
191
100
6
-66
-108
-143
-172
-174
-164
-168
-170
-158
-157
-166
-154
-130
-135
-146
-131
-128
-149
-146
-128
-135
-146
-140
-146
-155
-149
-151
-159
-137
-101
-86
-74
-57
-75
-111
-116
-99
-86
-89
-110
-103
-78
-99
-91
-120
-320
60
1629
2685
1402
-674
-1136
-455
-124
-148
-108
-81
-92
-69
-58
-62
-44
-20
-8
-7
1
25
49
61
86
128
171
209
247
289
333
369
394
411
397
328
229
132
41
-36
-86
-122
-152
-163
-164
-178
-197
-197
-183
-174
-173
-171
-159
-139
-124
-124
-133
-130
-123
-140
-164
-154
-135
-147
-166
-164
-148
-120
-93
-81
-76
-82
-108
-120
-108
-98
-92
-100
-110
-91
-95
-116
-103
-244
-242
860
2427
2162
106
-1089
-652
-137
-139
-149
-112
-138
-121
-89
-97
-86
-59
-54
-51
-44
-36
-14
15
40
68
98
130
178
222
247
278
320
344
337
300
232
140
41
-38
-87
-126
-157
-164
-162
-177
-184
-169
-159
-159
-155
-152
-154
-149
-140
-140
-143
-142
-144
-143
-135
-133
-142
-153
-154
-150
-154
-164
-161
-136
-104
-78
-69
-81
-101
-105
-107
-114
-106
-101
-111
-94
-84
-114
-119
-230
-344
462
2160
2606
879
-764
-722
-168
-127
-189
-130
-131
-134
-101
-107
-113
-88
-76
-68
-47
-32
-25
-12
10
42
76
108
145
185
224
264
303
333
349
332
269
186
114
48
-15
-54
-71
-91
-114
-116
-94
-77
-85
-92
-76
-63
-74
-86
-75
-59
-58
-68
-77
-80
-80
-80
-75
-69
-78
-105
-127
-115
-77
-42
-18
-6
-19
-49
-63
-67
-78
-68
-48
-71
-80
-47
-68
-100
-140
-306
32
1533
2704
1642
-369
-918
-339
-105
-187
-141
-120
-157
-130
-103
-104
-92
-89
-92
-79
-67
-51
-24
-7
0
28
73
110
141
181
220
250
278
296
280
227
155
70
-18
-93
-149
-194
-223
-232
-227
-225
-226
-220
-214
-214
-214
-209
-200
-198
-210
-223
-216
-202
-204
-210
-209
-212
-224
-240
-248
-229
-188
-153
-136
-135
-148
-166
-179
-189
-180
-154
-160
-177
-146
-139
-171
-182
-324
-293
853
2508
2386
411
-846
-524
-106
-182
-210
-141
-154
-154
-123
-117
-103
-83
-76
-55
-26
-17
-7
20
48
71
107
149
183
220
267
312
352
379
379
354
315
256
179
111
68
49
45
42
39
45
58
65
