# session 24
-18
-16
-18
-26
-36
-44
-56
-77
-77
-40
-29
-60
-68
-80
-91
-40
-146
-249
698
2423
2522
449
-1097
-749
-79
-82
-195
-135
-89
-79
-74
-77
-68
-43
-24
-51
-87
-34
46
52
61
118
154
208
283
264
232
332
418
352
262
207
101
-1
-20
-69
-189
-213
-140
-165
-237
-176
-105
-185
-247
-165
-94
-110
-117
-120
-163
-183
-134
-64
-49
-118
-179
-155
-129
-148
-129
-92
-114
-116
-49
-41
-98
-88
-69
-147
-204
-128
-46
-87
-137
-141
-279
-108
1213
2669
2031
-143
-1097
-492
-83
-203
-163
-74
-179
-229
-148
-118
-137
-101
-46
-50
-70
-43
-10
17
71
97
76
127
234
258
264
342
360
284
236
154
-5
-51
-3
-76
-173
-153
-186
-274
-222
-147
-192
-192
-120
-128
-152
-126
-151
-175
-110
-75
-127
-141
-95
-86
-131
-171
-159
-116
-98
-89
-62
-56
-75
-88
-99
-86
-74
-143
-183
-94
-40
-75
-140
-306
13
1539
2835
1785
-411
-1035
-347
-98
-268
-219
-145
-161
-99
-50
-100
-132
-112
-96
-91
-64
1
61
53
27
87
191
215
200
257
336
354
344
310
228
155
100
-14
-120
-123
-106
-145
-178
-177
-184
-188
-170
-159
-167
-159
-130
-120
-134
-137
-121
-117
-129
-141
-155
-170
-174
-160
-130
-88
-59
-64
-89
-107
-118
-113
-95
-104
-123
-93
-77
-114
-158
-302
-176
1129
2810
2414
100
-1164
-613
-88
-187
-219
-152
-184
-169
-121
-132
-134
-112
-98
-77
-53
-42
-22
14
51
91
141
189
233
275
307
332
345
322
252
159
67
-21
-96
-146
-176
-190
-190
-194
-205
-204
-192
-185
-182
-174
-162
-150
-138
-130
-131
-136
-135
-137
-154
-161
-139
-107
-76
-48
-53
-89
-112
-119
-119
-110
-112
-119
-97
-98
-126
-160
-310
-130
1221
2734
2115
-118
-1130
-523
-82
-197
-203
-135
-170
-161
-125
-134
-124
-93
-85
-77
-59
-40
-17
12
44
83
129
172
214
252
284
310
323
302
241
159
73
-14
-86
-132
-160
-177
-181
-180
-181
-179
-172
-160
-147
-134
-124
-117
-115
-118
-115
-113
-127
-145
-140
-118
-91
-59
-39
-54
-84
-100
-107
-104
-96
-104
-97
-71
-89
-116
-185
-330
154
1781
2868
1601
-478
-915
-256
-71
-213
-169
-136
-173
-146
-122
-132
-116
-94
-90
-77
-58
-41
-21
5
36
74
115
158
198
228
251
272
275
239
169
85
-1
-78
-137
-176
-199
-211
-215
-215
-211
-203
-195
-189
-186
-180
-166
-154
-155
-156
-150
-157
-178
-178
-149
-119
-89
-61
-69
-103
-123
-128
-123
-105
-109
-119
-94
-94
-121
-167
-325
-62
1400
2836
2037
-164
-1016
-413
-75
-203
-186
-130
-169
-156
-121
-126
-116
-95
-93
-82
-56
-27
1
31
65
105
150
199
246
280
306
330
333
295
228
146
56
-28
-95
-139
-161
-172
-182
-188
-185
-181
-176
-166
-158
-155
-146
-139
-141
-144
-146
-162
-177
-166
-141
-112
-79
-66
-92
-123
-134
-134
-126
-121
-128
-114
-97
-121
-140
-239
-330
458
2206
2782
1012
-820
-799
-145
-112
-221
-146
-146
-170
-125
-114
-121
-95
-81
-78
-57
-34
-22
-3
28
62
98
139
184
219
244
270
291
282
232
158
77
-7
-78
-128
-161
-185
-196
-196
-195
-193
-189
-181
-175
-169
-161
-151
-147
-147
-148
-159
-177
-173
-144
-111
-80
-57
-66
-98
-119
-127
-123
-111
-118
-120
-101
-115
-141
-200
-349
53
1642
2908
1823
-354
-977
-323
-79
-234
-198
-148
-188
-169
-140
-148
-129
-101
-94
-84
-67
-48
-21
8
37
76
120
164
207
239
259
280
294
263
191
108
26
-52
-110
-146
-169
-180
-182
-183
-181
-174
-167
-162
-155
-147
-141
-134
-130
-132
-136
-140
-149
-147
-126
-90
-56
-46
-68
-96
-108
-112
-104
-95
-111
-109
-89
-116
-139
-208
-334
279
1999
2863
1275
-767
-957
-238
-108
-231
-163
-142
-169
-127
-112
-126
-104
-82
-76
-59
-34
-12
14
45
81
126
172
213
254
292
320
336
329
277
193
106
23
-62
-129
-163
-178
-190
-196
-192
-186
-181
-177
-168
-158
-153
-149
-144
-144
-147
-151
-163
-176
-170
-145
-114
-84
-72
-89
-114
-126
-128
-119
-115
-126
-113
-96
-120
-137
-231
-322
454
2182
2745
986
-818
-782
-141
-131
-244
-158
-154
-184
-142
-129
-136
-114
-100
-95
-76
-58
-42
-15
13
42
82
126
166
201
229
254
275
271
226
155
77
-2
-74
-127
-159
-174
-178
-179
-178
-173
-167
-163
-156
-148
-143
-136
-130
-133
-137
-140
-154
-166
-152
-125
-97
-62
-44
-67
-98
-108
-111
-104
-99
-111
-101
-81
-105
-132
-235
-311
501
2239
2759
966
-813
-742
-110
-118
-228
-143
-143
-169
-127
-121
-129
-101
-87
-84
-64
-42
-24
2
29
59
100
145
184
216
244
271
290
283
240
170
90
9
-64
-119
-151
-167
-175
-178
-177
-169
-159
-153
-149
-139
-130
-130
-130
-126
-128
-135
-138
-149
-166
-163
-134
-104
-74
-52
-65
-99
-115
-117
-114
-109
-117
-112
-89
-104
-128
-189
-327
146
1750
2825
1546
-540
-947
-253
-75
-233
-182
-143
-185
-156
-127
-137
-121
-98
-93
-81
-61
-43
-18
10
35
68
111
155
191
217
243
272
283
255
193
116
32
-49
-112
-150
-165
-168
-174
-182
-178
-162
-151
-148
-144
-135
-129
-128
-123
-118
-119
-122
-124
-138
-152
-140
-108
-75
-46
-42
-72
-103
-113
-110
-99
-100
-109
-89
-85
-120
-134
-252
-272
739
2437
2494
438
-1047
-689
-95
-146
-204
-121
-139
-146
-100
-102
-104
-78
-70
-61
-36
-17
-3
22
53
90
133
171
205
238
265
287
308
303
251
171
89
10
-65
-118
-147
-167
-181
-183
-177
-168
-162
-158
-151
-144
-140
-137
-130
-125
-128
-136
-142
-153
-166
-165
-145
-114
-80
-57
-69
-98
-113
-121
-121
-110
-115
-116
-97
-111
-132
-188
-325
117
1676
2762
1536
-540
-975
-275
-67
-220
-174
-131
-171
-144
-116
-124
-107
-82
-76
-63
-45
-31
-7
24
53
85
124
162
196
225
250
274
282
253
192
118
39
-40
-100
-136
-154
-164
-170
-172
-168
-160
-152
-146
-139
-132
-124
-119
-121
-127
-130
-134
-150
-163
-152
-123
-90
-58
-49
-74
-104
-118
-121
-111
-107
-120
-108
-89
-111
-131
-234
-310
501
2191
2627
822
-875
-742
-109
-119
-224
-141
-143
-169
-128
-119
-123
-99
-86
-78
-56
-37
-22
2
30
60
95
135
174
208
230
250
276
277
233
163
85
4
-69
-122
-155
-174
-181
-182
-180
-172
-161
-154
-152
-147
-137
-130
-127
-125
-127
-132
-134
-144
-159
-150
-116
-87
-64
-45
-55
-85
-102
-108
-107
-100
-104
-98
-78
-98
-119
-186
-332
152
1752
2767
1437
-616
-973
-266
-69
-203
-157
-128
-162
-134
-112
-116
-93
-74
-68
-52
-32
-14
16
47
76
111
155
197
232
258
284
311
318
284
216
134
48
-33
-98
-139
-161
-173
-180
-183
-178
-170
-160
-148
-140
-137
-135
-131
-125
-125
-131
-134
-141
-159
-163
-141
-111
-81
-60
-72
-103
-120
-126
-125
-115
-121
-128
-108
-115
-139
-176
-321
-52
1362
2705
1863
-283
-1040
-384
-58
-215
-201
-135
-174
-159
-123
-132
-122
-97
-86
-71
-51
-35
-14
14
44
81
121
157
192
222
244
264
279
261
201
122
44
-30
-93
-134
-158
-170
-173
-173
-171
-164
-155
-150
-142
-129
-123
-121
-113
-110
-118
-123
-127
-143
-151
-129
-98
-67
-39
-41
-74
-96
-102
-106
-99
-98
-101
-78
-78
-108
-140
-284
-158
1098
2653
2223
78
-1006
-458
-32
-182
-206
-127
-163
-162
-121
-128
-125
-98
-90
-80
-57
-41
-22
7
34
65
105
144
179
212
237
259
276
263
207
130
51
-24
-88
-132
-159
-175
-180
-181
-181
-175
-165
-156
-151
-146
-139
-132
-126
-122
-118
-117
-123
-129
-133
-150
-165
-146
-108
-77
-49
-40
-69
-98
-105
-108
-104
-99
-114
-106
-83
-105
-128
-221
-326
393
2109
2774
1098
-757
-793
-141
-104
-229
-159
-153
-178
-136
-124
-130
-102
-84
-82
-61
-37
-20
4
35
69
108
150
191
228
257
282
305
310
276
206
121
36
-41
-99
-136
-157
-167
-170
-166
-161
-157
-154
-148
-141
-135
-128
-123
-122
-120
-113
-114
-123
-125
-127
-145
-156
-137
-106
-77
-50
-51
-84
-108
-113
-111
-103
-102
-109
-90
-86
-114
-119
-223
-204
821
2436
2375
311
-1060
-593
13
-86
-170
-90
-133
-166
-119
-121
-136
-111
-91
-82
-65
-51
-33
-10
11
45
89
119
144
181
214
234
251
249
212
149
74
-1
-67
-115
-140
-154
-178
-199
-193
-178
-169
-159
-147
-141
-132
-116
-107
-106
-106
-102
-103
-107
-112
-124
-141
-138
-111
-78
-46
-21
-29
-65
-89
-95
-92
-85
-91
-90
-68
-85
-113
-135
-280
-89
1194
2532
1880
-127
-978
-438
-69
-164
-167
-115
-143
-134
-101
-102
-93
-72
-63
-48
-25
-7
11
34
61
92
128
166
200
226
247
271
287
274
225
153
72
-5
-71
-118
-149
-166
-174
-177
-178
-173
-164
-155
-148
-141
-136
-133
-129
-122
-117
-121
-124
-124
-141
-160
-147
-114
-84
-53
-35
-57
-92
-107
-111
-107
-101
-111
-104
-85
-110
-131
-201
-349
176
1819
2802
1434
-593
-938
-272
-96
-220
-170
-143
-178
-149
-124
-128
-110
-94
-86
-64
-42
-27
-3
28
57
92
135
178
214
243
270
292
296
262
194
113
27
-55
-117
-156
-180
-193
-196
-199
-202
-196
-183
-173
-166
-153
-140
-136
-131
-121
-120
-128
-135
-149
-163
-154
-126
-93
-59
-47
-73
-102
-111
-113
-106
-99
-107
-96
-79
-103
-127
-226
-322
433
2186
2863
1177
-700
-758
-124
-103
-236
-159
-150
-182
-142
-124
-132
-111
-96
-90
-72
-53
-38
-14
14
43
80
122
163
201
232
256
275
271
232
163
82
2
-70
-125
-160
-176
-181
-183
-184
-184
-181
-175
-169
-162
-149
-139
-134
-129
-128
-132
-135
-143
-158
-156
-129
-96
-64
-40
-52
-88
-109
-115
-111
-101
-111
-115
-90
-99
-129
-191
-347
26
1576
2839
1792
-342
-939
-282
-55
-223
-190
-144
-184
-155
-125
-138
-123
-100
-97
-80
-57
-43
-23
5
34
70
110
146
182
214
238
260
274
252
192
115
35
-41
-103
-143
-164
-172
-174
-174
-173
-167
-159
-148
-138
-130
-125
-119
-109
-102
-105
-110
-111
-125
-145
-137
-103
-70
-42
-24
-40
-73
-92
-95
-88
-81
-95
-94
-74
-95
-120
-195
-350
148
1778
2808
1486
-550
-903
-227
-73
-221
-168
-136
-174
-142
-119
-129
-110
-90
-89
-75
-53
-36
-14
12
42
77
115
154
192
225
251
274
283
255
190
113
35
-42
-107
-147
-169
-181
-184
-181
-177
-173
-168
-162
-154
-146
-139
-133
-128
-124
-122
-124
-129
-130
-134
-150
-157
-134
-96
-61
-38
-46
-77
-98
-110
-114
-102
-100
-110
-88
-81
-111
-138
-279
-207
977
2608
2361
237
-1012
-550
-63
-169
-208
-130
-155
-159
-122
-127
-124
-98
-90
-80
-55
-37
-19
9
41
72
108
150
194
230
256
283
309
303
255
179
89
-1
-73
-122
-158
-178
-181
-185
-193
-185
-161
-147
-147
-142
-130
-121
-115
-110
-114
-123
-123
-119
-131
-148
-141
-115
-88
-62
-52
-72
-100
-114
-118
-108
-101
-113
-101
-87
-119
-126
-185
-285
387
2016
2590
851
-1034
-1047
-288
-116
-180
-112
-109
-134
-98
-88
-94
-69
-50
-43
-23
-2
17
43
72
105
147
192
236
279
314
340
359
357
309
226
134
42
-44
-112
-154
-176
-187
-196
-204
-205
-195
-184
-175
-165
-152
-142
-138
-134
-127
-129
-137
-148
-164
-172
-158
-130
-97
-65
-61
-89
-113
-121
-123
-115
-113
-122
-106
-96
-122
-144
-257
-238
775
2432
2507
532
-914
-584
-50
-154
-226
-132
-156
-175
-125
-120
-125
-101
-91
-84
-62
-45
-28
-1
27
55
92
134
175
208
234
258
279
274
227
150
71
-4
-71
-120
-150
-165
-170
-170
-171
-170
-165
-161
-155
-146
-137
-129
-123
-120
-117
-116
-121
-123
-130
-152
-160
-136
-103
-72
-43
-43
-76
-99
-104
-104
-95
-95
-106
-89
-84
-113
-143
-278
-202
984
2651
2455
323
-964
-508
-35
-177
-223
-136
-168
-173
-130
-137
-137
-107
-99
-95
-74
-57
-39
-13
14
46
87
131
170
203
228
250
269
260
209
134
53
-27
-97
-147
-176
-190
-194
-197
-197
-192
-186
-179
-171
-161
-155
-150
-144
-140
-138
-133
-129
-132
-140
-144
-151
-168
-172
-149
-118
-86
-58
-62
-94
-113
-115
-114
-104
-105
-109
-86
-87
-117
-152
-291
-103
1231
2738
2160
-18
-1008
-419
-28
-185
-196
-120
-157
-152
-109
-111
-104
-81
-73
-57
-33
-18
1
32
64
96
133
175
219
258
287
314
336
328
276
198
117
40
-26
-76
-108
-124
-125
-122
-122
-120
-112
-102
-93
-87
-82
-78
-73
-67
-61
-61
-64
-66
-66
-70
-75
-83
-99
-107
-90
-58
-28
-4
-8
-38
-62
-68
-62
-50
-57
-70
-50
-51
-79
-90
-213
-126
1039
2577
2209
50
-1132
-587
-61
-152
-184
-111
-144
-146
-106
-115
-118
-95
-88
-81
-63
-45
-27
-4
20
50
86
123
162
196
220
243
261
251
201
124
41
-42
-118
-176
-211
-230
-243
-251
-250
-245
-239
-232
-223
-218
-215
-208
-201
-200
-201
-198
-197
-202
-211
-217
-224
-241
-251
-233
-201
-172
-140
-127
-151
-181
-188
-184
-174
-168
-174
-158
-141
-162
-175
-266
-333
479
2187
2668
879
-863
-774
-139
-138
-243
-156
-154
-176
-127
-111
-114
-83
-61
-49
-24
0
23
53
87
123
165
212
260
307
343
372
402
419
397
338
267
197
129
75
45
37
35
37
46
59
74
