# session 29
-14
-21
-12
75
145
86
-5
-33
-44
-62
-63
-52
-54
-66
-50
-34
-63
-72
-138
-204
520
2075
2453
685
-950
-752
-59
-47
-158
-76
-80
-111
-67
-56
-66
-45
-31
-28
-11
6
18
35
54
74
99
128
156
187
217
240
260
286
310
303
252
170
77
-13
-85
-135
-167
-183
-188
-190
-186
-176
-168
-165
-158
-146
-139
-138
-134
-125
-121
-124
-122
-117
-118
-124
-126
-127
-131
-130
-122
-123
-135
-143
-129
-90
-39
-17
-51
-99
-109
-103
-105
-100
-101
-109
-85
-84
-118
-113
-201
-135
924
2350
1943
-174
-1273
-650
-63
-115
-137
-67
-99
-101
-62
-61
-54
-31
-25
-21
-6
11
33
57
77
100
130
164
200
238
274
305
330
359
375
347
275
181
78
-23
-97
-138
-164
-188
-199
-196
-190
-184
-177
-171
-163
-147
-134
-135
-133
-123
-117
-119
-121
-121
-123
-124
-125
-127
-128
-122
-118
-128
-139
-123
-78
-31
-17
-45
-81
-92
-94
-92
-81
-88
-97
-67
-71
-102
-83
-170
-81
1014
2348
1760
-358
-1290
-597
-54
-112
-114
-51
-88
-83
-44
-49
-44
-23
-16
-5
15
27
42
65
85
106
137
173
207
242
277
306
332
357
362
323
246
154
59
-32
-104
-147
-169
-183
-192
-195
-191
-186
-180
-170
-160
-154
-146
-136
-129
-125
-119
-114
-113
-115
-118
-117
-114
-116
-118
-112
-110
-126
-142
-127
-82
-37
-23
-48
-82
-94
-95
-96
-88
-90
-98
-79
-74
-97
-101
-186
-94
914
2223
1838
-80
-1026
-434
23
-119
-148
-65
-101
-105
-61
-67
-64
-36
-32
-30
-11
4
14
33
54
74
95
125
158
190
219
245
268
290
301
276
208
119
36
-37
-96
-135
-153
-161
-166
-168
-164
-160
-158
-154
-147
-140
-132
-125
-122
-119
-115
-114
-114
-111
-107
-106
-106
-107
-107
-104
-102
-103
-98
-92
-101
-115
-105
-63
-17
-3
-30
-64
-76
-77
-80
-73
-75
-83
-65
-65
-87
-83
-166
-85
913
2216
1818
-109
-1045
-433
35
-105
-137
-54
-88
-94
-54
-60
-57
-31
-25
-20
-2
11
22
39
58
81
106
133
166
202
233
260
283
305
315
291
224
138
55
-23
-86
-124
-144
-155
-158
-156
-158
-158
-151
-144
-142
-141
-137
-133
-133
-134
-131
-127
-124
-125
-126
-120
-112
-111
-113
-111
-108
-107
-108
-105
-99
-94
-100
-116
-125
-101
-48
-7
-18
-71
-106
-98
-78
-66
-65
-74
-63
-47
-68
-72
-106
-157
422
1756
2159
649
-839
-680
-29
-18
-136
-61
-69
-106
-61
-48
-59
-32
-11
-14
-4
14
32
52
68
84
110
142
170
195
221
244
262
282
299
291
244
167
82
3
-63
-113
-146
-161
-165
-164
-161
-158
-156
-152
-147
-144
-141
-134
-129
-127
-124
-121
-122
-123
-123
-121
-119
-120
-120
-117
-111
-109
-109
-107
-106
-104
-96
-91
-103
-120
-116
-78
-22
7
-18
-60
-71
-70
-75
-68
-66
-75
-58
-50
-74
-59
-114
-129
674
2047
1999
147
-1085
-604
8
-65
-139
-51
-69
-87
-47
-49
-55
-31
-22
-18
3
19
31
49
67
86
114
142
167
198
229
256
278
301
318
309
256
173
85
3
-69
-121
-152
-170
-179
-178
-172
-165
-156
-149
-144
-140
-135
-130
-128
-131
-127
-120
-118
-120
-118
-116
-117
-118
-117
-117
-116
-109
-103
-113
-127
-122
-89
-39
-5
-21
-63
-78
-76
-82
-79
-76
-88
-78
-68
-93
-86
-130
-172
534
1951
2149
376
-1080
-742
-39
-43
-146
-60
-66
-96
-54
-44
-54
-32
-18
-15
2
18
30
49
71
90
111
138
166
195
225
251
269
288
308
302
254
176
87
-2
-75
-123
-154
-177
-188
-187
-182
-177
-169
-158
-150
-147
-142
-133
-126
-127
-125
-118
-116
-118
-120
-122
-125
-126
-121
-117
-123
-138
-147
-138
-111
-65
-22
-29
-78
-111
-116
-117
-104
-98
-114
-105
-90
-115
-107
-151
-231
432
1917
2261
498
-1122
-899
-143
-58
-143
-73
-73
-93
-59
-52
-51
-27
-16
-7
9
20
38
66
84
107
137
160
190
234
267
282
303
333
355
348
300
219
128
39
-43
-111
-153
-173
-182
-190
-182
-160
-148
-154
-154
-139
-124
-116
-111
-109
-110
-104
-102
-114
-126
-119
-112
-119
-126
-120
-98
-59
-26
-39
-84
-111
-113
-117
-117
-119
-130
-109
-88
-125
-112
-99
-164
365
1712
2099
407
-1319
-1212
-363
-103
-124
-60
-59
-78
-37
-18
-29
-18
5
18
26
38
55
78
103
132
162
195
235
278
318
350
379
407
424
407
339
236
128
27
-61
-125
-162
-187
-205
-212
-210
-203
-190
-177
-169
-163
-157
-151
-144
-137
-133
-133
-135
-137
-135
-132
-138
-149
-150
-128
-79
-39
-51
-96
-119
-121
-126
-118
-109
-124
-116
-100
-123
-117
-142
-212
364
1738
2123
487
-1110
-920
-141
-41
-151
-83
-75
-104
-68
-56
-62
-40
-27
-22
-3
11
18
35
55
74
99
128
159
189
218
248
275
291
301
292
242
160
74
-6
-73
-120
-148
-163
-166
-164
-157
-146
-139
-135
-130
-123
-118
-118
-117
-112
-109
-108
-103
-102
-117
-131
-119
-81
-35
-10
-31
-75
-97
-102
-106
-98
-96
-105
-91
-85
-108
-101
-175
-196
612
1988
1943
100
-1121
-629
-3
-70
-148
-60
-77
-99
-58
-51
-52
-31
-24
-17
1
13
27
47
61
77
105
138
168
201
232
252
271
294
302
269
199
113
26
-55
-115
-149
-168
-181
-186
-182
-179
-175
-165
-154
-149
-146
-139
-131
-126
-122
-117
-116
-113
-106
-112
-135
-144
-123
-79
-35
-27
-68
-108
-110
-107
-109
-92
-86
-101
-103
-111
-119
-114
-194
-10
1063
2117
1351
-531
-1107
-348
39
-122
-120
-48
-90
-83
-41
-47
-41
-19
-13
-1
18
27
37
56
75
94
118
145
174
204
229
253
277
293
287
246
174
92
16
-55
-111
-140
-149
-155
-160
-157
-151
-143
-136
-135
-135
-126
-116
-115
-115
-111
-107
-107
-104
-101
-101
-102
-98
-94
-104
-117
-110
-76
-33
-13
-39
-75
-87
-87
-89
-83
-86
-92
-73
-77
-97
-83
-163
-49
984
2188
1601
-352
-1127
-411
42
-111
-131
-52
-92
-96
-59
-65
-58
-31
-24
-18
-1
13
29
49
65
85
110
139
167
194
220
246
269
288
292
259
191
109
24
-54
-110
-144
-165
-176
-175
-171
-168
-161
-149
-142
-141
-138
-133
-130
-125
-117
-112
-111
-113
-114
-110
-107
-109
-108
-104
-101
-99
-101
-116
-127
-104
-51
-10
-14
-50
-76
-82
-88
-88
-81
-88
-81
-61
-81
-86
-106
-201
250
1629
2334
928
-866
-927
-145
-4
-159
-98
-68
-107
-74
-53
-67
-49
-28
-25
-10
6
17
34
55
75
99
128
157
183
209
232
252
271
291
295
256
180
95
13
-61
-116
-149
-169
-179
-178
-171
-162
-151
-142
-133
-126
-122
-122
-117
-110
-108
-110
-110
-111
-112
-111
-112
-114
-112
-109
-109
-107
-107
-119
-129
-114
-75
-26
-7
-36
-75
-86
-89
-88
-74
-79
-89
-66
-73
-98
-90
-184
-36
1123
2392
1691
-398
-1191
-447
19
-115
-126
-52
-91
-92
-54
-59
-55
-34
-27
-16
3
18
36
57
76
99
125
152
187
221
246
268
294
318
326
299
229
138
50
-31
-99
-146
-173
-187
-192
-187
-181
-179
-171
-159
-150
-142
-135
-127
-122
-120
-117
-114
-115
-119
-123
-125
-127
-127
-124
-122
-123
-121
-119
-126
-139
-136
-105
-54
-16
-27
-69
-93
-97
-98
-89
-84
-95
-80
-70
-97
-91
-149
-187
597
2095
2248
367
-1115
-753
-52
-62
-154
-68
-76
-101
-61
-56
-62
-39
-28
-23
-5
10
22
43
68
90
116
146
180
214
244
270
293
316
332
319
264
183
91
0
-76
-126
-155
-173
-185
-188
-183
-175
-166
-157
-147
-139
-133
-129
-127
-123
-116
-113
-116
-118
-115
-114
-115
-115
-115
-115
-110
-110
-123
-135
-127
-90
-39
-12
-36
-78
-94
-98
-103
-95
-95
-107
-86
-75
-101
-98
-175
-157
781
2253
2110
99
-1165
-644
-22
-91
-154
-70
-92
-105
-62
-61
-62
-38
-30
-24
-3
15
30
51
74
97
122
154
189
224
255
281
300
322
338
317
249
159
72
-14
-89
-140
-168
-186
-196
-200
-201
-197
-185
-171
-162
-153
-141
-132
-127
-120
-114
-113
-116
-119
-119
-121
-125
-126
-125
-123
-121
-126
-139
-142
-123
-83
-36
-20
-53
-97
-108
-105
-104
-94
-99
-107
-82
-84
-113
-115
-208
-61
1095
2417
1813
-261
-1151
-488
-20
-134
-151
-84
-116
-111
-76
-82
-70
-39
-36
-34
-13
5
20
44
72
96
126
165
202
234
268
297
312
327
342
324
252
157
69
-15
-93
-140
-164
-187
-199
-193
-187
-184
-169
-152
-145
-137
-126
-123
-123
-119
-113
-113
-111
-103
-99
-104
-112
-115
-111
-109
-114
-118
-117
-108
-72
-16
-3
-47
-86
-90
-94
-99
-85
-87
-100
-81
-84
-104
-87
-170
-43
1066
2344
1694
-447
-1386
-686
-99
-115
-109
-50
-78
-70
-39
-47
-40
-17
-9
3
23
38
55
76
99
127
163
199
235
273
312
345
371
395
401
362
278
177
75
-19
-97
-152
-184
-198
-207
-214
-214
-204
-194
-184
-172
-159
-149
-141
-133
-127
-123
-120
-120
-123
-125
-126
-126
-127
-123
-121
-132
-148
-150
-127
-84
-42
-35
-71
-106
-113
-116
-112
-100
-107
-111
-87
-97
-113
-123
-228
78
1396
2426
1352
-633
-1072
-310
-15
-160
-128
-79
-122
-102
-68
-76
-63
-40
-37
-27
-8
6
22
43
63
89
121
155
188
222
257
288
315
335
333
291
211
117
27
-52
-113
-153
-172
-179
-179
-177
-174
-168
-161
-156
-153
-149
-144
-135
-128
-128
-129
-124
-117
-115
-116
-114
-111
-110
-108
-113
-126
-131
-108
-59
-16
-15
-52
-84
-89
-91
-90
-80
-87
-91
-67
-74
-94
-101
-197
54
1298
2412
1510
-470
-1028
-296
23
-140
-122
-61
-103
-89
-51
-61
-54
-32
-26
-15
2
13
28
50
69
89
118
151
185
222
261
290
311
330
333
288
203
110
22
-58
-119
-155
-173
-180
-181
-180
-179
-172
-163
-159
-158
-150
-141
-141
-142
-138
-134
-130
-124
-122
-123
-121
-116
-116
-120
-119
-111
-107
-111
-112
-114
-123
-128
-107
-61
-16
-7
-42
-79
-87
-87
-84
-72
-78
-84
-59
-67
-92
-94
-185
39
1244
2360
1488
-483
-1042
-300
26
-139
-120
-57
-104
-93
-57
-70
-62
-38
-40
-36
-14
4
21
45
63
78
106
143
171
206
267
319
331
338
350
318
230
132
47
-32
-96
-129
-140
-151
-160
-160
-153
-147
-146
-144
-137
-127
-125
-126
-123
-121
-122
-118
-112
-110
-112
-112
-110
-107
-103
-102
-106
-107
-105
-104
-102
-97
-101
-120
-128
-98
-42
-1
-7
-44
-71
-76
-78
-73
-63
-76
-85
-68
-77
-86
-107
-208
155
1492
2431
1296
-591
-918
-195
1
-163
-111
-64
-109
-83
-56
-75
-62
-33
-27
-21
-9
4
25
44
58
77
104
136
172
206
232
253
276
297
304
273
196
98
12
-56
-114
-154
-174
-181
-182
-179
-174
-169
-165
-158
-147
-139
-137
-137
-134
-130
-130
-126
-119
-115
-110
-109
-114
-116
-113
-108
-102
-100
-104
-101
-95
-97
-106
-112
-119
-116
-82
-25
11
-3
-43
-66
-76
-86
-80
-68
-78
-71
-49
-70
-84
-122
-192
374
1822
2424
919
-799
-787
-80
-15
-160
-93
-79
-114
-69
-48
-67
-56
-35
-26
-14
1
14
29
50
73
92
115
145
175
202
233
258
274
288
293
260
189
107
25
-56
-119
-141
-137
-149
-178
-187
-175
-172
-172
-160
-144
-133
-125
-123
-121
-114
-122
-134
-122
-110
-130
-145
-127
-112
-114
-106
-99
-110
-112
-94
-97
-122
-122
-84
-26
18
-3
-70
-97
-76
-73
-86
-94
-94
-65
-56
-112
-127
-154
-197
466
1955
2390
738
-881
-750
-89
-61
-162
-86
-96
-126
-77
-63
-68
-35
-20
-39
-41
-22
1
24
42
63
98
135
150
156
186
229
249
254
277
295
256
174
92
11
-67
-121
-155
-179
-184
-177
-171
-169
-174
-180
-168
-145
-133
-128
-119
-108
-102
-104
-109
-112
-110
-109
-111
-107
-103
-110
-112
-104
-110
-127
-118
-73
-24
-6
-34
-75
-87
-80
-84
-93
-102
-103
-78
-78
-115
-111
-172
-161
699
2127
2138
336
-953
-617
-68
-103
-173
-116
-128
-127
-84
-82
-91
-82
-82
-70
-34
-11
-10
4
39
56
55
89
152
177
172
204
255
262
242
239
215
140
52
-19
-83
-136
-167
-182
-187
-185
-180
-176
-172
-164
-153
-142
-129
-112
-96
-87
-93
-104
-104
-94
-93
-100
-107
-109
-104
-99
-99
-94
-75
-43
-3
16
-19
-67
-77
-73
-79
-71
-68
-76
-55
-53
-79
-96
-199
-23
1149
2411
1751
-293
-1153
-512
-30
-89
-92
-39
-72
-68
-36
-40
-33
-12
0
14
26
34
52
77
102
134
163
188
218
248
273
304
335
356
363
336
253
143
49
-27
-95
-151
-190
-213
-219
-214
-209
-212
-211
-196
-180
-173
-170
-165
-159
-150
-145
-148
-150
-145
-141
-142
-153
-173
-175
-137
-83
-63
-92
-133
-147
-148
-152
-144
-139
-144
-125
-118
-144
-146
-233
-212
730
2203
2095
138
-1127
-662
-79
-151
-210
-128
-151
-163
-121
-125
-122
-90
-84
-80
-54
-42
-43
-21
11
31
54
90
132
166
191
216
246
276
287
264
202
116
33
-46
-119
-165
-183
-189
-188
-180
-176
-171
-160
-145
-123
-108
-113
-115
-99
-83
-78
-75
-63
-47
-47
-66
-74
-47
4
53
73
42
-2
-10
1
8
21
19
8
45
81
69
35
-127
-126
906
2440
2311
380
-854
-407
206
47
