# session 30
69
4
135
133
-202
-368
-72
181
113
53
103
99
75
96
101
95
112
126
126
133
143
154
172
192
208
234
267
293
316
341
365
385
396
379
327
246
148
48
-38
-102
-138
-152
-168
-183
-179
-166
-165
-173
-172
-163
-153
-143
-132
-133
-148
-158
-149
-133
-132
-146
-155
-159
-160
-142
-95
-57
-72
-117
-140
-149
-166
-163
-142
-155
-161
-127
-142
-164
-167
-258
114
1495
2379
1033
-1030
-1369
-531
-149
-175
-114
-98
-141
-110
-77
-83
-78
-65
-46
-18
-3
5
29
59
82
112
150
191
235
286
332
362
389
421
422
356
244
130
24
-72
-144
-185
-207
-219
-225
-228
-226
-218
-206
-197
-186
-171
-156
-143
-134
-129
-122
-111
-108
-121
-128
-120
-124
-143
-147
-122
-80
-36
-29
-68
-104
-107
-108
-110
-99
-104
-105
-76
-85
-113
-125
-228
26
1283
2384
1431
-589
-1150
-388
-10
-130
-112
-60
-98
-82
-50
-58
-47
-24
-22
-15
6
20
30
48
73
101
127
160
201
241
276
307
336
360
360
312
227
130
34
-48
-103
-135
-155
-168
-174
-172
-169
-164
-158
-153
-151
-146
-139
-135
-134
-132
-129
-124
-120
-120
-116
-112
-121
-137
-137
-110
-65
-26
-26
-61
-90
-97
-101
-100
-87
-89
-93
-79
-86
-103
-126
-196
155
1390
2275
1208
-638
-992
-243
16
-143
-109
-55
-97
-78
-47
-59
-49
-29
-28
-17
0
7
18
37
59
84
110
138
174
213
246
274
301
321
316
264
178
85
1
-73
-129
-157
-166
-171
-174
-172
-168
-165
-160
-152
-145
-143
-142
-140
-136
-132
-132
-132
-128
-123
-120
-120
-120
-117
-110
-103
-102
-113
-130
-128
-92
-41
-9
-15
-46
-71
-80
-88
-88
-77
-83
-87
-69
-75
-95
-123
-178
216
1439
2204
1058
-694
-928
-191
14
-143
-98
-53
-94
-70
-39
-50
-40
-20
-16
-6
6
14
30
48
63
83
111
142
179
217
248
272
297
318
315
270
193
104
18
-54
-102
-132
-152
-159
-153
-148
-147
-143
-135
-132
-133
-133
-132
-130
-127
-127
-126
-121
-118
-118
-115
-111
-109
-104
-100
-100
-98
-93
-89
-88
-86
-83
-77
-82
-101
-110
-83
-35
4
10
-20
-50
-57
-58
-59
-56
-62
-63
-42
-47
-66
-74
-152
84
1191
2153
1284
-530
-990
-257
54
-109
-94
-33
-73
-60
-26
-36
-29
-9
-7
-1
15
24
36
51
65
83
106
134
168
204
234
260
285
308
315
285
215
127
43
-32
-91
-130
-154
-164
-161
-154
-152
-150
-145
-140
-134
-135
-144
-144
-133
-127
-128
-124
-118
-116
-113
-106
-105
-106
-103
-101
-102
-102
-100
-98
-96
-94
-92
-92
-95
-96
-89
-85
-98
-115
-106
-64
-16
2
-21
-54
-66
-67
-68
-60
-62
-69
-51
-50
-69
-62
-144
-70
896
2163
1772
-115
-1033
-423
49
-88
-123
-38
-70
-76
-33
-38
-39
-15
-12
-9
11
25
34
50
70
89
111
138
167
197
229
261
289
310
323
309
255
171
82
1
-68
-119
-148
-161
-164
-162
-158
-156
-154
-149
-144
-141
-138
-133
-127
-124
-123
-121
-118
-117
-116
-114
-111
-110
-109
-107
-104
-104
-105
-104
-100
-95
-99
-113
-118
-90
-39
-1
-11
-51
-75
-77
-79
-75
-70
-81
-73
-60
-85
-82
-115
-190
388
1780
2199
591
-985
-793
-60
-18
-144
-69
-66
-97
-54
-44
-59
-38
-22
-21
-8
7
20
39
59
78
102
130
160
193
226
255
279
303
321
315
266
182
89
2
-74
-133
-168
-184
-193
-198
-196
-188
-183
-180
-173
-162
-156
-152
-143
-135
-135
-136
-133
-129
-128
-129
-130
-123
-116
-117
-120
-120
-113
-109
-115
-125
-120
-98
-61
-19
-10
-50
-85
-82
-85
-94
-81
-78
-82
-64
-80
-99
-91
-191
53
1337
2435
1368
-755
-1266
-399
11
-109
-80
-29
-79
-61
-16
-19
-11
5
10
29
52
64
79
104
126
148
180
217
253
287
320
350
375
395
401
367
289
189
90
0
-75
-131
-166
-184
-191
-194
-192
-184
-173
-162
-154
-152
-149
-142
-135
-129
-124
-123
-126
-128
-129
-131
-133
-134
-130
-125
-131
-148
-152
-124
-73
-40
-57
-95
-111
-113
-113
-101
-99
-109
-92
-88
-112
-84
-125
-146
603
1883
1778
-56
-1254
-737
-49
-52
-120
-42
-53
-71
-36
-36
-40
-17
-9
-6
9
23
36
56
72
87
115
148
177
208
244
273
292
312
326
309
251
167
76
-8
-81
-134
-161
-172
-180
-182
-174
-163
-159
-157
-150
-139
-133
-130
-123
-119
-118
-107
-97
-102
-111
-109
-109
-109
-102
-100
-111
-118
-106
-72
-24
-5
-39
-80
-88
-91
-104
-105
-108
-108
-80
-87
-110
-79
-133
-5
1033
2165
1395
-713
-1493
-667
-60
-90
-82
-16
-46
-37
1
-7
-6
18
33
45
65
81
97
113
128
155
192
228
259
293
331
364
383
396
403
377
303
203
101
7
-70
-124
-159
-181
-194
-198
-194
-183
-172
-163
-154
-147
-140
-134
-129
-126
-125
-123
-124
-130
-133
-125
-122
-138
-154
-145
-111
-67
-45
-69
-105
-119
-124
-125
-112
-115
-125
-100
-98
-122
-101
-161
-102
788
1939
1464
-433
-1309
-615
-19
-71
-103
-35
-60
-62
-25
-30
-31
-9
-1
5
20
30
42
62
80
97
121
151
183
214
244
271
289
306
315
290
223
138
53
-24
-84
-125
-151
-163
-166
-165
-158
-148
-141
-137
-133
-126
-119
-116
-113
-109
-109
-112
-110
-107
-105
-102
-106
-124
-128
-99
-52
-25
-36
-71
-94
-100
-101
-95
-92
-96
-83
-77
-93
-78
-118
-126
526
1684
1685
77
-1084
-664
-13
-25
-117
-40
-43
-64
-25
-19
-29
-9
3
6
17
28
38
54
68
84
106
130
154
182
211
233
250
267
280
264
205
126
51
-16
-76
-117
-140
-150
-153
-150
-146
-138
-128
-123
-121
-118
-117
-118
-116
-113
-113
-112
-110
-109
-105
-105
-120
-131
-108
-56
-21
-32
-71
-96
-100
-101
-96
-94
-98
-85
-80
-99
-83
-120
-164
424
1594
1698
129
-1102
-722
-31
-15
-116
-38
-32
-56
-22
-16
-24
-3
6
6
23
39
49
63
78
94
117
144
172
199
226
248
267
287
297
277
219
139
57
-18
-79
-120
-142
-151
-157
-159
-154
-148
-145
-143
-140
-133
-126
-126
-127
-124
-118
-115
-115
-119
-120
-114
-114
-129
-134
-108
-61
-33
-45
-79
-101
-106
-101
-92
-100
-108
-87
-87
-112
-88
-145
-158
593
1781
1581
-164
-1165
-589
11
-57
-121
-37
-52
-65
-23
-23
-31
-10
-1
3
19
33
44
64
87
102
116
142
173
201
226
250
272
298
314
291
224
140
58
-18
-81
-122
-144
-156
-160
-157
-150
-146
-143
-135
-126
-122
-119
-116
-113
-111
-107
-104
-104
-106
-105
-102
-106
-118
-124
-102
-53
-15
-25
-65
-90
-99
-100
-89
-87
-101
-86
-80
-110
-90
-138
-189
538
1873
1854
38
-1179
-665
-1
-49
-127
-40
-58
-81
-35
-28
-36
-16
-6
-6
7
23
38
56
75
94
114
139
168
193
216
242
266
289
307
290
222
136
52
-33
-103
-141
-160
-175
-181
-176
-166
-157
-152
-149
-139
-129
-127
-125
-117
-113
-117
-117
-114
-116
-116
-112
-116
-130
-135
-118
-76
-32
-30
-73
-105
-111
-115
-109
-101
-111
-97
-76
-107
-103
-118
-221
274
1629
2102
533
-1081
-908
-114
-15
-138
-67
-57
-92
-56
-43
-55
-33
-13
-9
6
24
38
54
72
89
112
141
172
201
225
248
271
294
312
306
255
170
79
-3
-73
-126
-159
-178
-185
-182
-172
-162
-154
-146
-137
-128
-120
-115
-114
-112
-110
-111
-113
-111
-108
-110
-122
-135
-131
-102
-56
-26
-42
-83
-106
-112
-112
-103
-105
-112
-89
-91
-116
-100
-195
-179
784
2140
1797
-158
-1135
-499
25
-95
-135
-55
-87
-93
-51
-55
-53
-25
-15
-11
7
22
35
54
76
100
127
153
177
201
223
244
262
283
300
278
208
119
35
-43
-107
-145
-168
-186
-192
-182
-170
-159
-150
-143
-138
-133
-126
-120
-117
-117
-116
-113
-113
-114
-114
-118
-128
-133
-116
-70
-26
-29
-73
-103
-106
-109
-107
-106
-116
-102
-89
-118
-115
-174
-276
361
1836
2220
541
-1004
-770
-66
-49
-163
-85
-85
-115
-79
-69
-75
-49
-35
-34
-20
-1
17
34
50
74
107
135
155
179
205
227
245
267
288
280
227
146
63
-17
-87
-134
-163
-180
-186
-183
-175
-166
-157
-147
-138
-131
-124
-117
-114
-115
-114
-112
-111
-111
-112
-116
-125
-130
-114
-71
-23
-16
-58
-101
-112
-112
-109
-102
-111
-107
-84
-104
-122
-148
-285
27
1369
2357
1236
-675
-1012
-257
-6
-149
-110
-69
-110
-87
-58
-70
-61
-41
-34
-17
5
19
36
58
80
104
130
155
181
209
233
251
274
299
304
266
193
106
17
-64
-121
-154
-174
-186
-185
-175
-164
-157
-150
-141
-130
-124
-120
-113
-108
-108
-109
-109
-108
-107
-112
-122
-121
-98
-59
-21
-16
-54
-95
-109
-113
-110
-98
-105
-106
-82
-95
-116
-147
-282
10
1321
2342
1287
-652
-1076
-323
-15
-141
-119
-74
-96
-50
-4
-33
-57
-41
-20
-11
-8
-7
-1
16
46
77
106
139
175
204
231
259
276
280
275
243
171
84
4
-68
-119
-148
-177
-202
-199
-186
-191
-189
-160
-143
-152
-147
-122
-108
-104
-100
-108
-125
-130
-128
-131
-128
-113
-92
-60
-24
-26
-81
-134
-135
-109
-101
-111
-121
-115
-105
-125
-134
-171
-302
63
1446
2453
1379
-523
-953
-266
17
-120
-143
-107
-109
-105
-113
-106
-71
-50
-28
3
-3
-24
-1
42
58
68
109
153
171
189
230
251
238
242
260
238
177
95
-2
-76
-114
-150
-187
-200
-192
-164
-135
-135
-147
-146
-148
-143
-114
-99
-102
-89
-92
-122
-113
-83
-111
-154
-135
-96
-76
-36
9
-17
-88
-117
-109
-104
-100
-112
-129
-99
-70
-100
-149
-285
-218
841
2302
2083
178
-929
-474
-8
-117
-184
-121
-129
-126
-93
-98
-107
-96
-74
-44
-30
-28
0
37
52
56
76
108
138
160
186
217
239
255
273
272
217
110
3
-61
-104
-150
-167
-159
-180
-216
-206
-171
-160
-154
-134
-126
-130
-126
-116
-111
-110
-112
-115
-114
-110
-108
-112
-122
-130
-119
-88
-40
-3
-20
-72
-100
-102
-104
-97
-94
-107
-92
-81
-111
-121
-213
-252
614
2182
2317
436
-1002
-677
-70
-99
-172
-99
-114
-126
-85
-84
-89
-70
-63
-53
-27
-10
2
27
56
81
107
138
171
204
233
256
279
308
328
311
249
157
61
-28
-96
-137
-172
-206
-218
-204
-186
-170
-161
-174
-184
-163
-135
-130
-128
-111
-100
-108
-118
-124
-125
-118
-109
-114
-123
-118
-118
-128
-104
-42
-13
-47
-86
-97
-106
-108
-94
-99
-104
-77
-87
-124
-140
-249
-56
1200
2537
1859
-220
-1055
-412
-14
-148
-152
-88
-125
-116
-76
-80
-75
-55
-50
-37
-15
-2
15
40
65
90
117
147
181
214
242
267
294
321
327
289
212
119
20
-74
-145
-184
-201
-209
-212
-210
-207
-203
-194
-179
-164
-153
-145
-136
-128
-125
-124
-121
-121
-124
-125
-123
-120
-120
-121
-120
-118
-123
-135
-135
-113
-70
-22
-9
-47
-86
-89
-85
-85
-74
-79
-89
-71
-77
-104
-133
-259
-15
1316
2608
1815
-249
-975
-328
-3
-154
-142
-85
-125
-107
-71
-83
-73
-45
-40
-31
-9
8
23
42
64
89
120
153
187
220
251
283
312
332
332
297
222
124
28
-53
-113
-151
-173
-186
-195
-198
-194
-188
-181
-171
-161
-156
-149
-138
-132
-131
-129
-127
-127
-126
-124
-126
-128
-127
-124
-122
-120
-116
-110
-115
-128
-129
-101
-48
-8
-17
-63
-92
-97
-103
-97
-87
-99
-95
-77
-100
-119
-184
-284
327
1914
2619
1082
-737
-802
-127
-58
-187
-116
-108
-144
-103
-83
-93
-73
-56
-53
-32
1
22
33
48
74
95
109
139
193
234
243
266
323
353
318
249
162
64
-18
-83
-154
-209
-223
-217
-212
-210
-209
-209
-207
-201
-188
-172
-168
-166
-154
-143
-138
-130
-117
-111
-109
-103
-102
-104
-100
-97
-103
-100
-84
-76
-81
-83
-84
-93
-91
-47
15
28
-17
-56
-60
-54
-50
-44
-37
-12
-6
-67
-107
-152
-272
216
1796
2789
1504
-438
-743
-119
-25
-169
-101
-96
-157
-110
-62
-75
-77
-68
-70
-67
-54
-39
-20
7
44
81
107
132
162
195
235
277
305
318
316
279
197
94
-5
-84
-145
-191
-205
-193
-198
-226
-232
-209
-198
-199
-180
-161
-167
-169
-150
-144
-159
-161
-148
-141
-138
-131
-125
-121
-121
-133
-143
-131
-116
-113
-111
-115
-129
-121
-85
-44
-4
6
-41
-91
-92
-79
-76
-70
-76
-76
-66
-89
-107
-168
-275
303
1881
2653
1186
-657
-792
-138
-51
-180
-120
-104
-134
-98
-70
-71
-73
-80
-58
-11
-4
-27
-8
42
66
73
107
153
191
238
291
318
332
358
357
290
182
81
-5
-84
-149
-181
-189
-197
-212
-217
-215
-211
-192
-171
-176
-187
-173
-155
-154
-151
-134
-122
-121
-121
-121
-127
-135
-137
-128
-115
-112
-114
-105
-102
-117
-122
-102
-86
-91
-110
-117
-92
-45
-8
1
-19
-48
-67
-76
-72
-55
-57
-65
-46
-49
-76
-108
-241
-28
1287
2667
1990
-90
-912
-300
26
-143
-140
-76
-114
-83
-34
-69
-92
-62
-37
-26
-11
13
39
48
55
90
129
151
187
238
276
305
335
354
360
347
286
177
58
-33
-94
-141
-163
-153
-150
-174
-188
-180
-175
-172
-160
-153
-142
-120
-112
-127
-135
-128
-119
-111
-107
-112
-114
-107
-94
-80
-83
-101
-103
-91
-93
