# session 20
-24
-12
-47
-6
149
249
223
190
199
195
182
183
180
170
166
159
145
134
125
113
101
86
72
59
41
17
4
13
35
60
75
62
33
12
-1
-7
-4
-14
-28
-9
-8
-48
-86
-191
-27
1107
2358
1689
-397
-1228
-493
-22
-167
-179
-99
-140
-134
-86
-93
-90
-63
-55
-46
-24
-2
24
59
96
137
183
230
268
290
302
306
278
213
141
75
3
-70
-125
-156
-173
-183
-186
-177
-163
-153
-149
-145
-135
-126
-127
-135
-136
-133
-133
-134
-135
-139
-139
-139
-145
-151
-154
-157
-156
-158
-175
-188
-169
-130
-94
-65
-61
-94
-119
-118
-116
-114
-108
-115
-101
-81
-111
-134
-198
-253
438
1941
2294
479
-1226
-1016
-217
-115
-205
-124
-116
-137
-94
-84
-88
-57
-38
-31
-7
19
44
81
120
161
212
263
303
335
359
372
365
325
255
179
109
34
-36
-84
-112
-128
-133
-129
-121
-112
-99
-88
-84
-83
-84
-86
-85
-84
-86
-91
-96
-102
-107
-115
-134
-149
-140
-115
-87
-57
-43
-62
-90
-98
-99
-95
-87
-95
-95
-71
-82
-112
-173
-249
265
1670
2346
898
-920
-982
-200
-67
-219
-146
-113
-154
-118
-91
-100
-78
-52
-42
-22
0
23
54
88
124
171
221
261
291
314
327
318
274
205
131
59
-13
-75
-117
-139
-151
-160
-164
-160
-150
-143
-137
-131
-122
-115
-111
-108
-106
-104
-101
-103
-111
-117
-122
-135
-146
-140
-122
-92
-54
-38
-62
-93
-102
-102
-96
-87
-96
-96
-73
-85
-117
-185
-278
241
1698
2423
961
-908
-1002
-225
-83
-228
-157
-125
-161
-124
-100
-108
-85
-65
-58
-37
-11
13
44
79
118
167
218
262
291
309
323
322
281
211
137
65
-5
-62
-108
-136
-144
-146
-149
-141
-130
-125
-118
-107
-104
-103
-98
-94
-92
-89
-95
-108
-108
-101
-108
-128
-132
-115
-91
-66
-49
-60
-81
-87
-93
-101
-93
-94
-100
-80
-82
-109
-141
-241
32
1265
2289
1245
-838
-1390
-548
-86
-165
-143
-91
-124
-103
-66
-70
-55
-29
-17
5
36
58
85
127
174
220
271
324
363
384
396
396
358
283
199
120
37
-42
-96
-125
-143
-155
-159
-155
-149
-141
-135
-130
-123
-116
-112
-109
-105
-102
-102
-106
-116
-132
-142
-139
-123
-97
-71
-66
-86
-105
-115
-120
-112
-104
-117
-111
-92
-115
-148
-231
-285
403
1851
2164
431
-1125
-859
-133
-122
-233
-139
-137
-166
-118
-104
-113
-84
-65
-62
-41
-13
14
47
82
121
166
213
251
278
300
314
304
258
188
116
47
-24
-85
-118
-132
-142
-150
-149
-139
-127
-118
-110
-105
-101
-98
-94
-95
-99
-99
-100
-114
-129
-121
-96
-70
-42
-29
-54
-88
-100
-102
-99
-91
-97
-94
-70
-85
-128
-220
-325
226
1688
2338
845
-913
-901
-150
-69
-216
-133
-111
-155
-118
-95
-102
-77
-54
-47
-27
-2
20
49
85
125
171
216
256
285
302
310
299
256
190
119
48
-19
-78
-120
-141
-149
-153
-153
-145
-135
-128
-123
-119
-114
-109
-107
-106
-107
-110
-110
-114
-130
-143
-132
-106
-76
-44
-34
-57
-86
-97
-99
-90
-82
-95
-90
-74
-100
-138
-241
-332
342
1845
2243
532
-1072
-843
-118
-103
-217
-125
-122
-154
-110
-96
-101
-74
-56
-49
-25
0
22
53
89
126
170
219
261
289
305
317
311
266
193
121
53
-19
-79
-113
-129
-140
-150
-149
-140
-130
-124
-116
-108
-103
-98
-93
-95
-96
-97
-100
-106
-118
-132
-130
-111
-91
-65
-36
-41
-77
-99
-102
-106
-100
-99
-110
-95
-88
-122
-168
-312
-246
837
2253
1823
-263
-1271
-594
-55
-168
-185
-99
-141
-143
-90
-89
-83
-53
-44
-31
-3
22
50
86
120
160
208
252
284
306
322
332
316
264
192
115
34
-35
-83
-114
-133
-137
-136
-133
-128
-120
-114
-107
-101
-100
-98
-91
-81
-76
-78
-84
-86
-86
-98
-115
-119
-109
-92
-64
-42
-52
-80
-96
-102
-101
-89
-95
-104
-80
-80
-113
-146
-261
-64
1110
2238
1373
-692
-1346
-537
-61
-163
-156
-92
-128
-117
-80
-82
-68
-42
-34
-18
7
26
52
92
132
175
223
269
309
341
359
357
325
262
186
109
31
-41
-94
-126
-144
-155
-160
-157
-148
-138
-131
-123
-115
-108
-101
-98
-99
-98
-96
-99
-104
-111
-127
-139
-131
-109
-81
-52
-44
-68
-92
-98
-102
-100
-88
-96
-98
-76
-87
-124
-200
-295
218
1671
2423
1000
-861
-970
-205
-77
-234
-161
-128
-168
-134
-111
-120
-97
-73
-67
-47
-21
3
35
73
111
154
198
238
267
285
297
292
255
192
125
58
-12
-74
-113
-130
-139
-146
-150
-148
-141
-134
-128
-119
-107
-97
-91
-89
-87
-83
-80
-80
-81
-84
-87
-89
-92
-99
-104
-117
-140
-142
-106
-62
-34
-25
-44
-75
-88
-85
-78
-68
-75
-83
-61
-65
-102
-158
-263
102
1490
2566
1466
-609
-1101
-338
-60
-226
-184
-126
-171
-147
-108
-116
-99
-72
-64
-49
-24
-2
26
63
104
147
192
236
276
307
326
331
306
244
172
103
31
-39
-90
-118
-134
-143
-147
-147
-142
-135
-129
-122
-115
-107
-101
-98
-96
-95
-95
-95
-95
-95
-96
-98
-101
-102
-104
-110
-114
-121
-137
-139
-111
-74
-39
-13
-22
-62
-82
-80
-86
-84
-74
-84
-78
-59
-84
-115
-190
-240
487
2048
2446
641
-1071
-881
-144
-122
-240
-148
-141
-167
-117
-101
-108
-81
-61
-53
-30
-6
14
45
83
125
174
223
267
301
324
339
334
298
232
160
89
15
-54
-102
-127
-139
-149
-156
-155
-147
-139
-132
-122
-114
-106
-99
-92
-85
-79
-76
-77
-82
-87
-86
-85
-90
-95
-93
-88
-87
-89
-89
-86
-87
-92
-96
-106
-120
-116
-85
-50
-18
4
-14
-55
-71
-71
-75
-67
-64
-78
-62
-52
-92
-118
-206
-138
873
2318
2025
-88
-1309
-722
-93
-152
-189
-102
-129
-135
-92
-95
-91
-58
-42
-29
-5
16
42
79
116
154
201
255
305
340
362
376
370
325
252
176
102
23
-48
-98
-128
-146
-153
-155
-152
-146
-139
-131
-122
-116
-112
-106
-99
-95
-93
-94
-95
-95
-96
-97
-98
-100
-102
-101
-100
-104
-108
-104
-103
-110
-116
-122
-133
-131
-104
-67
-31
-7
-20
-58
-75
-73
-78
-73
-62
-72
-65
-48
-76
-109
-188
-203
598
2129
2362
502
-1065
-784
-112
-139
-238
-142
-146
-167
-118
-110
-115
-84
-67
-58
-32
-7
10
40
80
124
172
225
273
312
337
350
347
310
240
159
83
9
-57
-105
-131
-143
-149
-154
-158
-156
-151
-145
-136
-127
-119
-112
-106
-101
-96
-90
-85
-81
-82
-88
-92
-93
-92
-92
-94
-95
-93
-91
-89
-89
-93
-96
-98
-109
-122
-109
-73
-37
-4
10
-16
-53
-59
-56
-61
-53
-55
-66
-44
-37
-79
-128
-228
-13
1195
2469
1770
-327
-1156
-462
-41
-192
-193
-113
-150
-142
-100
-105
-94
-66
-59
-44
-14
9
34
67
104
147
199
251
299
334
357
368
354
301
223
145
72
-4
-72
-115
-135
-145
-151
-156
-158
-158
-152
-143
-134
-125
-117
-110
-104
-98
-92
-90
-90
-90
-89
-88
-88
-91
-95
-98
-98
-96
-93
-91
-90
-93
-94
-90
-84
-83
-80
-78
-80
-83
-94
-107
-99
-67
-33
-3
16
-2
-39
-51
-47
-50
-44
-45
-57
-38
-29
-68
-107
-210
-101
982
2397
1999
-103
-1209
-606
-66
-169
-198
-114
-142
-140
-95
-99
-92
-61
-54
-46
-20
3
30
68
104
143
193
249
298
334
356
366
359
320
247
167
95
24
-45
-97
-128
-146
-156
-160
-162
-162
-158
-148
-140
-137
-132
-120
-112
-113
-113
-110
-106
-103
-102
-103
-105
-109
-112
-115
-120
-125
-134
-151
-157
-143
-116
-80
-46
-41
-70
-94
-98
-95
-87
-87
-98
-79
-62
-91
-123
-214
-158
819
2323
2222
198
-1142
-679
-86
-176
-235
-134
-157
-171
-119
-117
-122
-89
-71
-63
-42
-21
3
40
83
128
175
227
284
338
369
371
352
311
241
153
64
-16
-79
-125
-154
-168
-165
-156
-156
-166
-174
-170
-156
-146
-139
-127
-116
-110
-102
-92
-87
-86
-88
-91
-92
-96
-95
-85
-92
-122
-130
-106
-85
-63
-30
-26
-62
-89
-93
-89
-75
-74
-83
-66
-66
-92
-96
-165
20
1149
2347
1586
-584
-1469
-718
-129
-155
-144
-82
-116
-106
-70
-75
-60
-28
-18
-1
29
47
68
108
157
208
265
327
383
423
447
454
428
357
262
171
86
0
-74
-123
-148
-160
-168
-173
-175
-175
-169
-158
-147
-137
-127
-119
-113
-110
-108
-106
-102
-104
-111
-118
-130
-146
-153
-144
-123
-94
-73
-80
-100
-113
-119
-118
-104
-105
-112
-92
-91
-120
-149
-221
38
1177
2182
1293
-631
-1165
-398
-39
-194
-178
-109
-149
-135
-94
-99
-86
-60
-55
-41
-14
6
30
63
99
143
194
245
290
323
338
337
312
253
174
97
21
-50
-101
-130
-148
-157
-156
-153
-150
-145
-140
-135
-131
-127
-122
-114
-107
-101
-97
-97
-99
-106
-118
-125
-116
-95
-65
-36
-31
-54
-75
-84
-86
-79
-74
-83
-72
-57
-83
-124
-226
-206
641
2005
1958
132
-1088
-613
-21
-119
-196
-98
-119
-140
-89
-81
-85
-58
-45
-39
-19
2
26
58
93
134
186
237
282
319
342
348
330
278
203
125
49
-27
-88
-125
-141
-147
-152
-158
-157
-149
-140
-134
-129
-125
-119
-113
-110
-106
-101
-99
-99
-100
-109
-126
-131
-120
-102
-73
-42
-41
-68
-88
-97
-101
-93
-90
-93
-73
-72
-111
-163
-284
-114
1014
2225
1562
-411
-1133
-409
-8
-180
-182
-101
-145
-141
-97
-103
-96
-67
-58
-46
-22
-2
22
54
89
131
178
223
264
294
312
319
300
245
174
105
33
-41
-96
-126
-141
-150
-152
-150
-146
-140
-131
-125
-121
-117
-112
-105
-99
-95
-90
-89
-96
-100
-104
-118
-131
-122
-97
-68
-38
-27
-51
-77
-86
-89
-82
-74
-87
-81
-59
-81
-115
-205
-296
347
1824
2220
490
-1158
-931
-147
-86
-200
-118
-113
-142
-98
-86
-93
-65
-47
-43
-22
-2
13
43
84
126
175
226
271
308
334
348
348
321
259
186
114
35
-46
-103
-127
-140
-148
-151
-154
-154
-142
-128
-121
-112
-99
-90
-85
-84
-89
-90
-87
-92
-99
-101
-111
-125
-121
-101
-73
-47
-49
-74
-91
-96
-100
-91
-90
-105
-91
-84
-114
-107
-167
-151
721
2059
1774
-320
-1584
-978
-197
-115
-125
-53
-78
-87
-49
-46
-42
-13
2
17
44
73
100
131
166
211
268
324
371
408
440
459
437
368
275
183
93
4
-70
-124
-155
-170
-185
-199
-194
-177
-171
-179
-178
-156
-136
-135
-134
-120
-114
-122
-127
-132
-148
-160
-152
-130
-95
-61
-62
-96
-121
-120
-119
-124
-136
-143
-116
-89
-101
-139
-247
-117
916
2169
1713
-202
-1098
-484
-40
-186
-215
-138
-160
-136
-90
-114
-119
-86
-74
-64
-36
-12
3
23
57
96
130
169
219
264
288
287
262
216
160
96
24
-42
-88
-116
-128
-123
-118
-127
-134
-128
-121
-120
-115
-99
-86
-83
-86
-93
-93
-81
-77
-95
-113
-103
-79
-56
-33
-21
-41
-75
-87
-80
-74
-77
-85
-77
-62
-80
-107
-190
-276
301
1703
2210
687
-939
-838
-120
-69
-198
-111
-102
-148
-107
-81
-89
-70
-56
-50
-24
2
20
46
79
111
152
199
239
272
299
317
312
273
206
138
76
4
-65
-107
-123
-133
-141
-145
-143
-139
-135
-130
-125
-122
-120
-115
-112
-109
-102
-95
-95
-99
-108
-124
-134
-125
-103
-69
-35
-33
-64
-91
-96
-91
-83
-89
-105
-92
-77
-106
-135
-231
-245
572
1996
2033
189
-1118
-667
-41
-130
-218
-113
-125
-148
-100
-90
-94
-70
-60
-52
-25
-3
18
49
81
113
155
200
239
270
291
300
293
259
197
124
57
-6
-67
-108
-129
-143
-147
-142
-139
-137
-128
-119
-114
-107
-99
-94
-92
-92
-90
-85
-82
-86
-91
-96
-108
-121
-118
-100
-75
-47
-31
-44
-76
-100
-103
-87
-71
-80
-85
-68
-76
-98
-161
-267
189
1554
2260
860
-953
-1010
-195
-49
-213
-139
-100
-139
-96
-68
-87
-73
-51
-46
-27
2
21
42
74
111
152
190
225
253
274
291
304
288
236
170
106
34
-36
-84
-112
-131
-141
-142
-140
-139
-135
-123
-111
-106
-105
-101
-97
-95
-93
-94
-99
-103
-105
-109
-123
-141
-141
-123
-97
-67
-47
-58
-85
-101
-108
-105
-95
-103
-109
-84
-88
-118
-171
-289
46
1344
2263
1097
-839
-1136
-304
-40
-209
-164
-108
-151
-126
-93
-102
-84
-59
-53
-33
-4
15
38
71
107
145
187
228
262
283
298
311
305
266
206
141
73
1
-57
-91
-106
-117
-126
-127
-115
-102
-94
-87
-76
-70
-70
-70
-67
-64
-66
-74
-76
-81
-98
-110
-95
-68
-39
-10
-9
-38
-59
-66
-71
-63
-56
-68
-59
-50
-77
-96
-200
-239
593
2019
1948
-34
-1374
-854
-104
-80
-143
-67
-77
-90
-57
-60
-58
-27
-14
-5
19
38
56
87
126
168
214
260
298
327
353
375
375
334
266
191
106
15
-61
-116
-153
-170
-173
-178
-181
-172
-160
-153
-148
-140
-135
-131
-128
-128
-130
-129
-136
-156
-169
-162
-145
-122
-99
-100
-128
-149
-158
-165
-158
-153
-166
-155
-139
-168
-183
-263
-343
344
1743
1866
-22
-1519
-1092
-242
-137
-208
-132
-135
-153
-109
-102
-108
-81
-61
-50
-27
-2
25
59
95
137
185
235
283
324
353
372
375
342
278
204
128
47
-25
-73
-100
-114
-119
-116
-106
-94
-80
-63
-46
-33
-19
-9
-5
0
-1
-13
-11
22
