# session 32
-20
-17
-19
20
85
110
116
152
203
246
288
324
352
379
382
334
243
140
38
-52
-122
-165
-186
-196
-199
-197
-190
-184
-179
-171
-163
-153
-141
-135
-132
-128
-124
-120
-116
-116
-115
-110
-106
-105
-100
-100
-112
-114
-89
-46
-7
3
-28
-69
-80
-78
-83
-74
-67
-83
-73
-49
-77
-103
-179
-235
532
2174
2650
927
-741
-638
-47
-80
-186
-102
-107
-133
-89
-80
-88
-63
-48
-43
-25
-10
0
18
39
60
88
120
155
191
230
266
296
323
348
349
304
219
116
16
-69
-133
-175
-199
-207
-206
-202
-199
-195
-190
-187
-184
-178
-169
-162
-155
-151
-151
-151
-150
-148
-148
-149
-147
-144
-142
-139
-142
-151
-146
-117
-74
-38
-34
-69
-108
-115
-110
-116
-108
-101
-113
-99
-84
-118
-146
-238
-213
772
2420
2518
567
-863
-535
-22
-138
-210
-120
-146
-161
-114
-112
-112
-82
-72
-68
-47
-31
-18
2
25
49
77
109
146
186
225
262
293
320
341
335
282
191
91
-3
-85
-145
-181
-201
-208
-206
-204
-200
-193
-187
-182
-176
-171
-165
-157
-151
-147
-141
-135
-132
-131
-128
-127
-127
-126
-125
-124
-122
-115
-108
-110
-120
-119
-92
-44
-4
-5
-46
-81
-83
-80
-87
-79
-77
-92
-76
-63
-98
-130
-231
-158
922
2529
2424
397
-889
-462
7
-140
-192
-102
-134
-144
-97
-98
-98
-71
-62
-55
-37
-23
-8
14
36
60
89
119
153
193
234
273
305
332
353
348
296
204
101
4
-79
-137
-170
-190
-199
-198
-195
-194
-188
-181
-176
-171
-168
-167
-158
-144
-141
-142
-139
-134
-130
-125
-123
-125
-124
-121
-117
-114
-112
-111
-107
-102
-98
-100
-108
-115
-105
-70
-20
10
-9
-57
-80
-75
-77
-79
-70
-76
-79
-54
-65
-100
-162
-268
199
1720
2752
1549
-425
-798
-146
-17
-188
-132
-95
-138
-107
-81
-95
-80
-59
-55
-41
-21
-8
10
32
52
76
104
135
170
204
236
268
295
318
332
311
240
144
49
-41
-117
-171
-201
-215
-219
-218
-214
-208
-206
-203
-195
-186
-179
-171
-163
-155
-150
-147
-144
-141
-138
-135
-133
-129
-128
-130
-131
-126
-119
-118
-118
-111
-104
-106
-115
-120
-108
-67
-16
4
-27
-70
-85
-83
-84
-75
-72
-93
-83
-53
-84
-123
-202
-266
465
2118
2677
979
-762
-688
-51
-68
-199
-117
-109
-130
-87
-81
-96
-71
-49
-44
-31
-11
12
35
54
75
103
134
170
210
254
297
327
344
367
383
349
260
155
58
-29
-101
-151
-177
-188
-193
-195
-191
-185
-182
-178
-170
-159
-150
-146
-143
-138
-133
-132
-131
-129
-130
-131
-130
-128
-129
-129
-127
-125
-119
-117
-129
-141
-130
-89
-40
-19
-43
-84
-102
-100
-103
-97
-88
-100
-93
-73
-96
-106
-154
-237
372
1888
2455
856
-865
-809
-112
-55
-172
-96
-90
-121
-81
-67
-76
-55
-43
-42
-25
-7
4
23
45
64
88
118
153
195
239
280
314
343
367
370
326
239
137
37
-56
-127
-169
-192
-206
-211
-212
-212
-210
-204
-195
-184
-175
-166
-157
-149
-141
-136
-134
-130
-123
-120
-122
-124
-124
-122
-120
-120
-120
-118
-112
-106
-111
-121
-117
-88
-40
-2
-8
-52
-84
-83
-82
-86
-76
-78
-90
-68
-66
-106
-143
-251
-41
1231
2619
1998
-74
-924
-310
23
-158
-157
-84
-128
-119
-78
-86
-79
-55
-51
-41
-20
-7
9
32
54
77
104
135
172
214
256
291
320
347
368
355
289
191
89
-6
-87
-144
-179
-199
-207
-208
-208
-205
-201
-197
-190
-182
-173
-165
-157
-148
-141
-135
-131
-129
-125
-122
-122
-122
-121
-119
-113
-108
-109
-111
-106
-108
-120
-118
-88
-40
1
0
-44
-82
-87
-88
-95
-84
-84
-97
-75
-68
-110
-146
-251
-109
1070
2540
2118
51
-963
-392
12
-159
-180
-97
-138
-139
-95
-100
-96
-70
-62
-53
-33
-20
-3
21
44
66
94
126
163
204
245
281
312
341
361
352
293
196
88
-11
-93
-152
-189
-207
-213
-214
-215
-211
-205
-199
-192
-183
-173
-165
-157
-149
-144
-141
-136
-132
-131
-127
-121
-119
-119
-114
-109
-107
-106
-105
-101
-94
-92
-102
-112
-101
-66
-18
13
-3
-52
-79
-74
-75
-78
-68
-75
-83
-58
-63
-101
-155
-263
121
1562
2684
1628
-377
-857
-188
2
-175
-133
-88
-135
-110
-80
-92
-77
-56
-54
-40
-22
-13
5
33
53
73
104
140
177
216
256
291
321
347
363
346
280
180
75
-19
-98
-154
-185
-199
-205
-203
-201
-201
-198
-189
-180
-173
-166
-157
-148
-141
-136
-132
-129
-128
-128
-126
-126
-127
-127
-125
-126
-127
-124
-120
-119
-116
-109
-109
-119
-121
-99
-56
-11
-1
-37
-79
-87
-84
-90
-82
-74
-90
-78
-55
-84
-119
-216
-233
647
2273
2516
665
-830
-555
0
-95
-184
-94
-116
-138
-91
-90
-96
-68
-54
-49
-32
-18
-4
18
40
62
87
116
151
191
231
268
299
328
352
357
319
237
133
34
-52
-121
-168
-194
-204
-207
-208
-209
-205
-194
-185
-179
-172
-164
-158
-153
-148
-144
-142
-139
-134
-131
-131
-132
-132
-130
-126
-124
-124
-127
-125
-116
-104
-105
-118
-124
-108
-67
-17
7
-21
-67
-83
-77
-82
-82
-75
-86
-82
-56
-75
-109
-181
-281
288
1861
2673
1243
-618
-772
-115
-41
-182
-113
-97
-134
-96
-80
-92
-69
-52
-52
-35
-13
1
19
41
61
88
125
162
198
240
285
317
336
360
380
357
279
175
70
-25
-104
-162
-191
-199
-204
-211
-206
-194
-188
-190
-186
-171
-155
-147
-143
-135
-126
-124
-128
-131
-130
-127
-130
-132
-128
-127
-127
-124
-120
-119
-114
-109
-114
-123
-112
-75
-28
-4
-23
-66
-90
-91
-95
-93
-85
-102
-103
-70
-84
-117
-143
-234
146
1523
2469
1258
-716
-1068
-307
-30
-137
-88
-55
-98
-77
-53
-57
-35
-14
-12
-2
14
29
53
79
100
122
152
191
236
278
319
358
387
409
426
404
321
212
108
5
-89
-152
-182
-194
-203
-213
-212
-200
-196
-197
-186
-171
-166
-165
-155
-140
-134
-136
-138
-138
-133
-131
-132
-130
-129
-133
-134
-132
-132
-125
-114
-108
-108
-118
-131
-116
-68
-21
-11
-41
-82
-95
-95
-102
-96
-81
-91
-87
-72
-104
-114
-149
-222
387
1871
2367
721
-990
-910
-178
-58
-140
-74
-72
-94
-53
-42
-53
-33
-12
-3
9
25
45
64
78
96
122
155
200
250
288
321
360
396
415
418
388
308
194
81
-17
-99
-153
-173
-183
-199
-210
-207
-200
-193
-186
-179
-170
-162
-159
-156
-145
-133
-131
-135
-134
-130
-127
-129
-130
-126
-124
-129
-129
-121
-117
-112
-105
-113
-127
-113
-71
-28
-13
-38
-79
-98
-98
-102
-98
-91
-101
-92
-74
-102
-118
-167
-258
324
1821
2434
920
-792
-813
-157
-73
-169
-98
-91
-116
-79
-68
-76
-52
-37
-39
-26
-9
3
20
42
61
86
121
161
196
231
271
309
341
361
365
338
268
168
66
-24
-94
-141
-169
-184
-187
-184
-186
-189
-185
-176
-169
-163
-155
-149
-143
-133
-126
-122
-117
-113
-113
-113
-110
-106
-104
-106
-107
-107
-104
-101
-96
-93
-89
-83
-81
-92
-103
-87
-40
4
8
-25
-56
-62
-63
-72
-66
-59
-72
-64
-49
-76
-104
-178
-168
641
2133
2419
777
-662
-517
-31
-103
-191
-109
-120
-140
-97
-90
-96
-74
-63
-63
-52
-39
-26
-9
5
21
44
69
98
135
178
217
250
280
306
313
282
210
120
31
-50
-115
-156
-174
-182
-184
-181
-177
-176
-174
-172
-171
-170
-168
-164
-158
-154
-150
-142
-132
-126
-122
-118
-118
-120
-118
-112
-110
-111
-109
-105
-101
-98
-95
-92
-90
-91
-88
-79
-73
-84
-99
-91
-54
-6
23
12
-26
-51
-49
-51
-56
-50
-55
-62
-44
-48
-82
-135
-212
202
1615
2749
1824
-100
-680
-152
-13
-192
-151
-103
-147
-124
-92
-99
-86
-69
-68
-55
-37
-28
-15
3
19
39
65
96
134
174
212
249
283
310
328
321
267
176
79
-8
-84
-144
-178
-193
-197
-196
-194
-190
-187
-183
-177
-170
-166
-163
-158
-151
-146
-144
-141
-135
-131
-128
-126
-121
-115
-112
-112
-111
-107
-105
-104
-99
-92
-86
-85
-84
-82
-79
-78
-78
-75
-70
-68
-66
-63
-62
-60
-57
-65
-78
-71
-39
5
37
31
-12
-46
-47
-46
-53
-43
-41
-53
-34
-31
-74
-116
-202
36
1304
2706
2159
126
-787
-265
21
-173
-173
-100
-145
-134
-92
-104
-98
-72
-66
-56
-35
-23
-10
9
29
51
78
107
140
179
219
256
289
317
340
343
308
232
136
41
-44
-111
-158
-183
-192
-194
-193
-187
-181
-177
-173
-169
-165
-162
-161
-158
-154
-151
-148
-144
-139
-135
-133
-130
-128
-126
-123
-120
-119
-118
-115
-111
-108
-106
-104
-101
-99
-97
-95
-92
-89
-87
-85
-83
-83
-81
-75
-77
-88
-89
-64
-19
22
27
-12
-55
-63
-58
-62
-56
-51
-63
-49
-33
-66
-98
-181
-120
866
2421
2425
511
-803
-434
36
-108
-174
-84
-117
-130
-80
-81
-86
-61
-50
-44
-27
-12
4
22
40
61
87
114
146
186
226
265
299
327
349
358
332
263
168
70
-20
-94
-146
-177
-192
-196
-196
-193
-187
-182
-179
-174
-167
-161
-156
-151
-147
-143
-140
-137
-135
-132
-129
-128
-126
-124
-121
-117
-115
-114
-109
-104
-103
-102
-99
-97
-95
-91
-88
-88
-88
-87
-84
-78
-82
-95
-96
-67
-18
22
21
-22
-61
-65
-63
-68
-59
-59
-70
-52
-43
-80
-108
-190
-44
1076
2503
2139
139
-900
-373
29
-137
-166
-86
-125
-124
-81
-93
-92
-66
-63
-56
-35
-28
-15
13
27
31
64
119
162
190
229
274
308
328
334
327
299
237
152
72
-14
-115
-176
-173
-169
-192
-206
-202
-192
-170
-147
-142
-153
-172
-175
-142
-112
-116
-119
-112
-121
-137
-133
-110
-80
-81
-124
-137
-99
-102
-137
-102
-63
-112
-127
-63
-76
-145
-115
-58
-75
-78
-36
-10
17
24
-46
-98
-66
-63
-106
-82
-49
-78
-76
-53
-78
-129
-233
7
1237
2468
1751
-226
-948
-314
27
-125
-141
-95
-119
-85
-43
-81
-126
-103
-27
10
-21
-26
13
14
7
73
147
160
171
215
251
268
291
321
358
387
350
230
121
51
-56
-160
-152
-128
-195
-235
-192
-196
-230
-183
-143
-180
-168
-115
-141
-160
-107
-123
-177
-111
-56
-151
-192
-99
-82
-159
-146
-88
-117
-150
-99
-67
-118
-140
-104
-116
-134
-44
46
-5
-89
-97
-96
-113
-83
-44
-80
-108
-52
-57
-139
-104
-115
-127
742
2175
2020
99
-992
-448
20
-114
-116
-54
-157
-125
12
-24
-97
-36
7
-44
-32
41
28
-16
52
147
150
139
185
224
226
264
353
394
359
364
410
328
127
8
-23
-96
-159
-153
-180
-242
-232
-197
-200
-174
-130
-159
-207
-183
-151
-173
-180
-123
-81
-114
-164
-169
-156
-151
-126
-109
-138
-149
-110
-109
-143
-118
-94
-167
-193
-65
33
-17
-66
-38
-49
-126
-141
-58
-27
-108
-129
-45
-61
-159
-194
-226
152
1468
2460
1390
-545
-948
-198
43
-164
-150
-70
-104
-116
-88
-75
-77
-66
-20
5
-36
-50
13
62
68
93
126
135
165
226
258
280
343
379
352
326
284
190
125
75
-54
-174
-182
-171
-207
-210
-165
-160
-215
-228
-146
-85
-122
-159
-141
-140
-150
-127
-119
-139
-129
-96
-83
-97
-130
-140
-103
-83
-109
-107
-77
-81
-117
-147
-140
-72
5
18
-6
-30
-73
-106
-85
-72
-104
-102
-44
-28
-76
-84
-106
-270
-54
1203
2388
1613
-332
-998
-332
24
-138
-150
-65
-90
-101
-42
-2
-30
-67
-43
-20
-28
20
76
44
30
92
123
133
189
237
246
270
324
389
421
366
270
214
168
73
-28
-96
-165
-237
-245
-188
-161
-186
-185
-164
-201
-241
-180
-97
-113
-170
-160
-112
-128
-190
-168
-90
-115
-187
-143
-84
-130
-155
-107
-89
-101
-113
-155
-170
-106
-43
-19
-6
-49
-134
-135
-65
-57
-112
-140
-112
-66
-65
-81
-130
-266
78
1420
2382
1277
-612
-973
-222
51
-138
-163
-98
-126
-149
-81
1
-10
-56
-49
-52
-67
-4
69
69
73
106
99
106
181
240
264
318
365
357
367
402
341
185
87
35
-88
-187
-151
-122
-186
-218
-191
-189
-204
-194
-173
-148
-127
-134
-150
-139
-136
-162
-139
-76
-99
-155
-111
-70
-126
-139
-92
-124
-157
-83
-54
-139
-161
-82
-65
-103
-44
42
-13
-114
-84
-36
-92
-116
-64
-81
-106
-39
-41
-111
-102
-157
34
1209
2377
1554
-438
-1008
-231
104
-110
-137
-71
-66
-23
-45
-120
-83
-24
-17
30
46
-8
26
89
40
53
174
185
155
264
353
308
300
357
359
359
393
309
122
21
-8
-86
-170
-209
-229
-204
-153
-170
-209
-176
-138
-150
-151
-138
-151
-151
-127
-118
-114
-109
-116
-105
-92
-129
-144
-87
-73
-128
-116
-71
-116
-149
-83
-73
-147
-125
-48
-57
-42
23
-46
-156
-94
-35
-122
-150
-100
-111
-87
-33
-96
-204
-286
-69
1040
2289
1762
-170
-1020
-399
17
-176
-231
-78
-59
-173
-186
-55
-48
-201
-155
51
11
-137
-36
103
37
-14
57
98
119
202
272
259
255
333
386
328
272
249
123
-40
-86
-112
-197
-232
-213
-212
-204
-201
-213
-179
-162
-218
-204
-116
-128
-176
-138
-139
-199
-164
-100
-123
-117
-51
-71
-152
-138
-75
-97
-146
-102
-33
-43
-72
-43
-7
-1
26
66
40
-7
21
66
54
37
22
0
46
99
55
-23
-92
184
1340
2484
1808
-108
-831
-151
224
39
81
