# session 17
-14
-21
12
29
-63
-219
-312
-333
-353
-367
-354
-338
-346
-370
-379
-367
-350
-326
-294
-263
-228
-196
-189
-173
-144
-169
-198
-145
-119
-201
-234
-152
-110
-154
-170
-131
-114
-149
-182
-169
-151
-158
-154
-127
-110
-68
0
6
-32
-9
25
-28
-94
-91
-61
-66
-84
-38
18
-54
-141
-163
-202
363
1976
2874
1376
-707
-992
-284
-122
-225
-140
-117
-151
-99
-60
-43
6
13
-20
4
58
86
143
256
365
440
493
519
490
378
229
138
97
18
-84
-130
-124
-124
-143
-153
-152
-175
-208
-189
-148
-155
-163
-116
-83
-98
-104
-97
-110
-107
-81
-73
-78
-72
-70
-80
-87
-90
-95
-91
-82
-88
-102
-96
-90
-99
-64
0
8
-7
28
35
-25
-62
-68
-93
-87
-41
-28
-47
-90
-155
-173
-242
-232
737
2473
2666
588
-1105
-846
-185
-192
-270
-183
-178
-190
-152
-118
-80
-64
-77
-56
-5
45
114
193
272
362
445
489
486
423
310
205
128
43
-49
-111
-144
-165
-182
-202
-208
-196
-207
-224
-197
-179
-209
-206
-166
-164
-156
-106
-114
-174
-160
-110
-129
-153
-115
-97
-138
-153
-126
-130
-157
-154
-137
-138
-134
-97
-37
-11
-44
-70
-56
-49
-72
-109
-110
-55
-48
-121
-122
-84
-130
-149
-220
-262
665
2380
2479
315
-1329
-974
-248
-184
-202
-102
-109
-135
-95
-39
-18
-55
-70
1
64
102
183
265
327
424
501
512
524
505
379
230
141
77
10
-61
-141
-185
-168
-141
-148
-175
-173
-144
-147
-176
-172
-143
-126
-122
-119
-108
-85
-79
-106
-125
-113
-107
-121
-124
-120
-123
-119
-114
-125
-138
-135
-124
-111
-92
-62
-36
-16
8
6
-46
-84
-76
-87
-110
-73
-23
-45
-113
-118
-111
-256
-56
1283
2689
1977
-241
-1214
-601
-139
-220
-220
-136
-122
-102
-95
-108
-88
-59
-34
9
40
61
117
204
289
361
433
485
475
413
327
201
77
27
-17
-108
-151
-133
-163
-201
-168
-156
-202
-199
-163
-188
-213
-171
-137
-134
-120
-120
-139
-132
-123
-134
-126
-108
-116
-123
-119
-135
-150
-134
-121
-122
-117
-121
-130
-101
-62
-48
-15
8
-46
-106
-102
-83
-74
-57
-47
-60
-100
-124
-152
-261
78
1493
2689
1669
-510
-1184
-464
-110
-234
-192
-122
-172
-163
-113
-106
-86
-49
-39
-17
34
65
95
187
313
400
439
443
421
374
295
199
123
50
-54
-142
-172
-176
-168
-153
-159
-177
-180
-194
-208
-178
-144
-156
-159
-132
-128
-142
-125
-92
-95
-127
-147
-135
-118
-124
-132
-113
-87
-79
-76
-72
-77
-85
-80
-75
-104
-132
-100
-69
-88
-131
-266
-91
1165
2563
1904
-317
-1304
-648
-151
-228
-199
-96
-126
-136
-79
-44
-46
-60
-37
33
88
116
161
248
360
458
510
526
515
449
332
217
123
34
-53
-124
-158
-159
-174
-211
-201
-152
-157
-202
-202
-179
-185
-169
-122
-127
-172
-167
-143
-158
-155
-116
-123
-179
-200
-171
-127
-89
-73
-85
-98
-105
-113
-120
-133
-133
-101
-109
-144
-151
-260
-114
1085
2426
1748
-420
-1349
-691
-192
-235
-198
-117
-157
-164
-120
-103
-84
-49
-41
-43
1
78
128
169
274
413
489
496
473
388
245
140
95
27
-63
-107
-127
-169
-200
-190
-172
-165
-163
-164
-159
-150
-148
-126
-84
-86
-135
-149
-119
-115
-128
-118
-118
-141
-117
-32
7
-43
-90
-79
-63
-66
-72
-71
-51
-50
-96
-117
-166
-102
776
2144
2005
26
-1288
-800
-115
-115
-160
-70
-84
-107
-72
-48
-27
-15
-14
21
71
107
159
237
316
391
448
474
464
408
306
195
101
17
-62
-124
-164
-189
-209
-221
-222
-222
-228
-230
-215
-195
-183
-169
-148
-139
-142
-133
-122
-129
-131
-119
-129
-158
-156
-119
-79
-55
-58
-82
-104
-114
-116
-111
-116
-114
-87
-96
-145
-203
-280
157
1599
2609
1367
-758
-1199
-403
-116
-252
-190
-136
-181
-151
-110
-111
-83
-50
-38
-4
46
86
147
234
316
382
427
440
416
351
252
148
60
-21
-94
-142
-166
-173
-176
-185
-190
-186
-183
-182
-172
-162
-153
-137
-127
-133
-131
-120
-121
-130
-140
-153
-150
-123
-92
-66
-52
-66
-92
-111
-123
-117
-113
-122
-101
-79
-113
-154
-265
-233
784
2369
2238
73
-1351
-857
-180
-190
-221
-135
-159
-160
-106
-97
-85
-50
-33
-1
58
114
169
247
345
433
489
515
512
457
354
242
147
59
-25
-95
-135
-149
-160
-175
-182
-176
-167
-157
-151
-150
-145
-137
-135
-137
-133
-133
-149
-163
-160
-148
-130
-104
-93
-109
-133
-149
-150
-139
-145
-149
-121
-123
-157
-185
-296
-74
1176
2373
1481
-679
-1407
-625
-137
-208
-187
-124
-152
-132
-96
-100
-82
-46
-26
5
51
106
177
261
345
419
467
482
458
388
284
177
85
3
-67
-116
-143
-158
-167
-175
-178
-175
-167
-158
-148
-131
-116
-110
-110
-106
-104
-118
-134
-132
-114
-90
-63
-51
-67
-98
-122
-126
-111
-115
-137
-128
-120
-137
-159
-247
-37
1152
2413
1691
-472
-1346
-601
-94
-215
-218
-127
-158
-152
-101
-94
-84
-56
-36
-7
34
80
142
224
313
388
436
456
442
382
283
177
85
6
-65
-121
-149
-160
-169
-174
-174
-178
-180
-169
-154
-146
-142
-131
-118
-116
-118
-113
-117
-137
-143
-127
-106
-81
-52
-49
-75
-104
-120
-116
-107
-116
-111
-90
-113
-149
-226
-287
373
1902
2408
670
-1186
-1119
-286
-136
-243
-165
-147
-176
-134
-114
-114
-80
-55
-43
-6
45
100
177
265
344
406
447
458
426
348
245
151
72
-10
-86
-132
-155
-173
-178
-175
-182
-188
-173
-154
-148
-139
-118
-104
-106
-111
-103
-97
-106
-116
-118
-129
-144
-134
-109
-91
-71
-58
-69
-97
-119
-118
-96
-102
-124
-100
-92
-134
-160
-267
-146
1022
2459
1896
-372
-1466
-776
-172
-219
-215
-127
-146
-133
-86
-87
-79
-49
-24
18
72
116
175
263
351
419
472
513
517
461
364
262
167
74
-9
-73
-115
-140
-153
-154
-152
-152
-145
-131
-123
-123
-120
-113
-109
-108
-104
-102
-108
-117
-120
-128
-151
-166
-157
-140
-125
-108
-97
-105
-126
-143
-138
-123
-127
-119
-90
-113
-141
-167
-285
89
1526
2507
1197
-940
-1356
-534
-169
-230
-172
-135
-164
-127
-92
-92
-66
-36
-20
11
58
110
175
258
345
419
466
481
461
399
303
199
104
19
-55
-111
-145
-164
-177
-185
-186
-182
-173
-161
-150
-141
-133
-125
-117
-109
-109
-117
-122
-125
-139
-157
-156
-137
-116
-93
-77
-85
-109
-129
-131
-114
-108
-122
-108
-91
-119
-143
-221
-161
789
2240
2096
57
-1281
-791
-139
-183
-239
-141
-148
-156
-107
-101
-98
-65
-42
-16
28
71
122
192
271
345
402
429
428
394
321
226
135
54
-21
-83
-122
-142
-154
-165
-174
-180
-179
-172
-162
-152
-142
-131
-119
-107
-100
-98
-99
-100
-108
-116
-118
-129
-148
-146
-123
-100
-75
-54
-62
-88
-104
-107
-98
-92
-103
-91
-71
-101
-136
-219
-218
632
2190
2365
413
-1191
-883
-165
-153
-234
-133
-132
-151
-101
-88
-90
-59
-37
-19
20
65
116
187
270
347
407
444
455
431
362
264
165
79
1
-67
-116
-146
-163
-170
-174
-180
-180
-172
-165
-161
-151
-135
-128
-131
-130
-122
-118
-119
-118
-117
-117
-120
-128
-140
-155
-166
-162
-146
-123
-93
-71
-77
-97
-110
-112
-101
-100
-121
-109
-79
-109
-145
-222
-300
398
2005
2492
678
-1165
-1069
-286
-162
-233
-135
-123
-152
-114
-96
-89
-53
-32
-18
26
83
135
193
269
351
421
466
481
464
413
326
217
121
46
-25
-90
-124
-131
-142
-159
-164
-151
-137
-130
-129
-125
-111
-97
-97
-100
-100
-105
-108
-103
-103
-114
-116
-111
-113
-116
-118
-134
-153
-150
-130
-106
-83
-74
-78
-83
-95
-100
-81
-82
-101
-79
-74
-116
-127
-230
-165
935
2403
1949
-279
-1443
-817
-192
-192
-182
-115
-145
-131
-90
-96
-82
-44
-26
-1
41
82
137
214
295
372
434
470
474
447
375
273
174
89
6
-69
-118
-143
-159
-169
-173
-171
-164
-156
-147
-138
-128
-119
-113
-112
-111
-112
-113
-114
-116
-123
-129
-136
-150
-164
-162
-144
-117
-88
-71
-79
-100
-118
-124
-108
-101
-116
-101
-80
-107
-129
-212
-218
650
2189
2275
298
-1218
-860
-170
-167
-232
-135
-138
-154
-111
-104
-100
-64
-41
-25
10
51
100
165
242
317
380
418
431
414
354
263
172
95
21
-48
-97
-124
-140
-153
-166
-178
-184
-178
-165
-156
-149
-135
-121
-114
-110
-106
-107
-105
-103
-111
-122
-128
-140
-154
-151
-132
-106
-77
-60
-71
-90
-102
-109
-101
-96
-109
-97
-81
-113
-142
-226
-198
732
2275
2277
246
-1216
-799
-137
-176
-238
-136
-148
-161
-109
-99
-97
-67
-49
-30
8
48
95
162
237
315
382
423
438
422
359
263
168
88
13
-57
-111
-142
-154
-162
-171
-180
-185
-182
-170
-157
-144
-131
-119
-111
-107
-105
-108
-109
-108
-113
-121
-126
-133
-147
-153
-138
-115
-96
-76
-67
-81
-99
-113
-112
-93
-93
-106
-85
-84
-126
-169
-283
-72
1200
2536
1780
-442
-1331
-607
-116
-213
-204
-129
-159
-144
-102
-99
-74
-40
-32
-8
41
87
140
211
291
373
439
472
476
445
369
268
170
80
-6
-79
-121
-140
-160
-181
-181
-169
-168
-169
-157
-143
-135
-125
-120
-122
-123
-120
-116
-109
-107
-118
-127
-125
-129
-146
-154
-143
-123
-99
-77
-73
-81
-94
-109
-106
-95
-104
-96
-75
-102
-120
-164
-260
298
1806
2432
781
-1169
-1245
-413
-160
-216
-145
-127
-146
-102
-80
-84
-56
-27
-8
27
70
116
179
259
340
409
458
483
478
427
332
226
135
52
-29
-95
-132
-150
-162
-171
-175
-172
-163
-152
-140
-130
-121
-114
-110
-108
-107
-106
-112
-121
-128
-142
-158
-158
-138
-112
-88
-77
-86
-107
-125
-128
-111
-108
-125
-109
-92
-120
-137
-214
-153
815
2261
2059
-3
-1283
-751
-119
-180
-226
-126
-141
-147
-96
-91
-90
-62
-45
-23
18
57
102
167
241
313
375
411
419
399
336
239
142
59
-17
-81
-125
-153
-167
-171
-177
-186
-191
-190
-182
-169
-151
-135
-123
-118
-119
-121
-118
-117
-124
-129
-133
-148
-163
-156
-133
-109
-84
-73
-88
-110
-121
-115
-95
-98
-115
-90
-78
-121
-159
-264
-132
1046
2526
2044
-178
-1292
-657
-118
-213
-221
-134
-164
-155
-107
-103
-88
-53
-34
-6
32
69
124
200
279
354
415
454
472
455
383
277
178
89
3
-67
-109
-131
-144
-158
-177
-186
-175
-159
-153
-147
-140
-135
-126
-114
-115
-122
-115
-103
-110
-130
-142
-148
-152
-143
-123
-102
-86
-78
-86
-108
-125
-118
-102
-108
-103
-80
-106
-126
-153
-275
147
1612
2471
1014
-1077
-1357
-504
-162
-206
-135
-104
-132
-97
-67
-66
-44
-19
0
30
77
138
202
264
345
433
482
492
488
449
358
251
157
65
-21
-87
-132
-155
-161
-173
-188
-187
-180
-175
-161
-144
-139
-135
-127
-123
-126
-129
-129
-129
-141
-160
-166
-155
-138
-116
-103
-108
-122
-137
-146
-134
-130
-148
-128
-102
-140
-160
-223
-273
494
2063
2334
416
-1267
-1030
-271
-176
-234
-154
-156
-169
-119
-107
-108
-78
-51
-29
7
46
92
155
232
311
377
418
437
430
376
283
187
103
22
-53
-105
-131
-146
-157
-163
-169
-174
-169
-158
-149
-140
-128
-114
-109
-108
-104
-108
-125
-132
-117
-94
-72
-50
-50
-76
-105
-120
-116
-103
-109
-111
-88
-99
-136
-188
-257
204
1613
2495
1196
-809
-1126
-338
-95
-239
-182
-132
-167
-133
-98
-103
-83
-58
-46
-17
21
57
109
181
258
326
374
397
394
356
277
181
92
14
-56
-109
-140
-154
-160
-162
-164
-172
-178
-174
-163
-155
-146
-134
-125
-118
-108
-104
-110
-113
-117
-135
-145
-130
-105
-82
-57
-50
-73
-99
-114
-116
-104
-106
-118
-95
-88
-130
-175
-271
-54
1180
2510
1822
-350
-1251
-550
-91
-226
-221
-133
-171
-162
-111
-113
-104
-70
-54
-34
1
41
93
161
236
310
369
402
414
395
327
230
138
57
-21
-87
-126
-145
-159
-164
-162
-164
-170
-171
-163
-154
-143
-129
-117
-112
-113
-110
-103
-95
-97
-109
-117
-118
-130
-148
-145
-126
-106
-76
-50
-59
-83
-95
-109
-115
-102
-102
-102
-85
-101
-126
-196
-316
230
1805
2584
999
-1045
-1206
-373
-135
-225
-150
-126
-161
-122
-90
-90
-66
-43
-28
8
50
91
153
228
304
375
429
458
466
437
359
257
165
79
-6
-76
-116
-132
-142
-156
-166
-162
-151
-143
-138
-130
-119
-111
-107
-106
-107
-108
-105
-104
-108
-109
-109
-115
-120
-121
-132
-148
-145
-124
-97
-69
-51
-57
-76
-91
-96
-82
-77
-93
-81
-61
-88
-108
-200
-245
594
2180
2350
377
-1218
-904
-185
-146
-207
-118
-122
-134
-87
-79
-81
-52
-33
-18
14
51
95
153
220
295
365
412
435
438
403
323
225
138
58
-17
-78
-117
-138
-150
-161
-171
-176
-174
-166
-155
-146
-139
-132
-124
-118
-112
-108
-108
-111
-118
-125
-129
-142
-164
-169
-150
-125
-98
-81
-91
-116
-131
-137
-132
-125
-138
-135
-115
-137
-167
-237
-299
364
1910
2435
727
-1089
-1027
-263
-173
-287
-197
-180
-211
-163
-139
-149
-124
-96
-79
-48
-11
31
88
158
235
304
350
374
378
345
270
179
95
18
-53
-107
-141
-160
-169
-172
-175
-180
-182
-177
-163
-145
-128
-110
-93
-81
-73
-67
-64
-60
-54
-51
-53
-52
-52
-65
-73
-58
-29
0
32
50
39
21
12
15
32
40
32
53
71
44
21
-78
-43
943
2489
2437
423
-1016
-606
127
39
