# session 22
55
14
61
191
123
386
1624
2250
677
-1206
-1175
-259
0
-73
-10
-2
-31
4
6
-16
9
39
45
58
77
89
109
143
179
208
240
279
317
352
379
390
381
349
289
207
121
43
-29
-90
-130
-148
-157
-165
-167
-156
-146
-145
-145
-139
-134
-133
-133
-134
-136
-138
-140
-147
-162
-176
-176
-165
-149
-131
-123
-131
-141
-148
-155
-146
-140
-156
-142
-117
-149
-149
-163
-268
208
1562
2047
431
-1306
-1200
-331
-104
-175
-112
-104
-132
-96
-75
-79
-57
-39
-33
-17
5
27
53
82
117
157
194
234
281
317
336
350
348
307
236
157
71
-12
-74
-117
-147
-160
-164
-165
-158
-147
-142
-139
-132
-122
-114
-112
-110
-107
-106
-109
-118
-129
-134
-130
-116
-95
-71
-64
-75
-87
-98
-100
-88
-87
-98
-79
-71
-101
-97
-166
-221
522
1907
1941
92
-1226
-758
-61
-83
-162
-70
-81
-104
-58
-49
-54
-30
-18
-16
1
23
45
72
101
133
170
210
249
281
303
323
338
326
276
207
136
63
-10
-70
-105
-123
-132
-134
-132
-128
-124
-120
-116
-113
-111
-109
-105
-100
-100
-102
-105
-111
-119
-127
-129
-119
-93
-67
-65
-77
-85
-95
-105
-99
-98
-109
-92
-81
-107
-107
-184
-226
557
1961
1964
85
-1219
-735
-54
-94
-179
-95
-109
-129
-87
-84
-89
-62
-45
-35
-16
0
19
46
72
101
140
183
224
260
286
303
315
305
258
190
120
49
-23
-82
-117
-133
-143
-150
-152
-145
-138
-135
-130
-126
-124
-118
-112
-111
-109
-105
-105
-107
-104
-105
-116
-123
-133
-149
-146
-111
-76
-60
-58
-71
-88
-98
-98
-86
-81
-93
-80
-70
-99
-95
-146
-199
513
1942
2108
275
-1198
-830
-100
-91
-184
-96
-101
-128
-84
-74
-82
-59
-43
-37
-19
2
23
47
72
102
139
180
222
259
288
309
322
317
284
222
146
72
3
-58
-102
-124
-135
-143
-142
-132
-123
-119
-115
-109
-105
-104
-105
-106
-105
-101
-100
-104
-107
-105
-110
-118
-122
-131
-148
-143
-107
-72
-58
-59
-70
-84
-92
-91
-79
-80
-92
-73
-63
-94
-84
-142
-186
590
2033
2072
141
-1253
-785
-68
-91
-175
-83
-93
-111
-65
-62
-69
-43
-29
-21
-1
16
34
61
88
115
151
192
231
268
300
321
330
322
286
218
138
61
-12
-75
-117
-140
-151
-156
-158
-156
-150
-143
-139
-134
-127
-122
-117
-114
-113
-110
-105
-100
-99
-103
-109
-111
-109
-113
-118
-122
-137
-150
-130
-91
-61
-45
-48
-71
-87
-89
-88
-78
-78
-86
-65
-61
-89
-73
-146
-136
792
2209
1957
-110
-1314
-710
-61
-121
-168
-79
-106
-118
-71
-69
-74
-50
-35
-24
-5
11
29
57
86
121
163
207
247
282
313
337
349
340
299
229
150
74
-2
-67
-110
-133
-147
-159
-164
-160
-150
-139
-131
-124
-119
-113
-107
-106
-107
-108
-108
-110
-109
-105
-106
-109
-109
-111
-118
-126
-142
-159
-146
-102
-67
-55
-58
-73
-87
-94
-92
-81
-83
-92
-65
-56
-86
-78
-151
-127
808
2214
1949
-121
-1326
-720
-63
-120
-171
-83
-104
-116
-74
-74
-76
-51
-38
-26
-6
11
36
69
98
129
171
215
255
295
328
348
361
354
310
238
159
78
-2
-69
-114
-137
-146
-156
-166
-166
-156
-147
-142
-137
-127
-119
-117
-113
-106
-103
-105
-105
-101
-103
-110
-110
-109
-117
-125
-127
-139
-158
-151
-113
-77
-57
-55
-73
-91
-95
-94
-85
-79
-88
-75
-59
-85
-83
-120
-200
409
1862
2272
539
-1176
-1004
-189
-71
-176
-101
-93
-123
-82
-63
-69
-47
-33
-27
-3
22
37
59
86
115
155
205
253
296
332
354
369
373
340
267
185
108
27
-51
-104
-133
-148
-157
-162
-163
-160
-155
-149
-141
-133
-125
-119
-115
-110
-106
-104
-102
-101
-103
-107
-110
-110
-110
-113
-116
-118
-127
-149
-151
-116
-75
-54
-53
-67
-85
-92
-94
-90
-83
-91
-86
-67
-89
-95
-115
-208
260
1666
2353
845
-1062
-1141
-277
-50
-177
-117
-83
-117
-85
-64
-74
-55
-34
-28
-9
13
29
53
84
115
153
200
248
292
330
356
372
377
349
283
200
118
36
-41
-96
-128
-148
-158
-161
-162
-161
-156
-150
-143
-135
-128
-121
-116
-112
-106
-102
-105
-107
-103
-101
-105
-109
-113
-117
-121
-135
-155
-150
-115
-79
-57
-55
-71
-87
-95
-96
-84
-80
-94
-81
-68
-93
-86
-139
-170
605
2049
2118
183
-1286
-868
-114
-94
-179
-96
-102
-121
-79
-71
-74
-48
-36
-30
-6
17
36
62
89
121
167
216
261
304
341
364
377
372
331
255
172
93
9
-68
-117
-143
-158
-165
-168
-171
-168
-159
-151
-146
-138
-128
-122
-117
-113
-110
-107
-104
-103
-105
-103
-105
-113
-119
-127
-144
-152
-128
-89
-65
-58
-67
-86
-98
-101
-94
-85
-94
-95
-72
-86
-105
-102
-197
68
1326
2358
1283
-785
-1269
-420
-32
-167
-145
-86
-125
-108
-72
-80
-70
-46
-38
-23
-1
16
39
68
98
135
181
230
277
320
349
366
373
353
292
209
125
41
-39
-101
-138
-156
-162
-165
-169
-169
-162
-152
-146
-140
-131
-123
-117
-111
-104
-102
-102
-102
-103
-102
-103
-110
-119
-124
-138
-154
-143
-104
-71
-55
-57
-74
-89
-94
-91
-81
-81
-89
-69
-64
-92
-83
-153
-135
777
2184
1969
-76
-1314
-733
-63
-112
-169
-82
-104
-115
-69
-69
-68
-39
-30
-26
-2
22
41
68
100
133
172
216
262
305
340
366
379
368
321
248
166
83
-1
-70
-113
-134
-146
-153
-156
-154
-149
-143
-135
-126
-119
-115
-109
-98
-91
-92
-93
-93
-97
-103
-112
-126
-137
-144
-163
-172
-146
-106
-82
-76
-87
-109
-121
-124
-116
-106
-114
-112
-88
-103
-113
-132
-229
180
1541
2327
948
-996
-1180
-318
-52
-187
-139
-96
-131
-103
-81
-95
-79
-53
-43
-27
-5
15
36
62
95
135
178
226
278
319
345
363
367
339
278
199
113
24
-56
-113
-142
-153
-160
-169
-173
-167
-160
-152
-140
-128
-126
-126
-114
-98
-96
-99
-98
-96
-96
-95
-98
-103
-107
-117
-135
-132
-100
-65
-43
-36
-49
-72
-88
-92
-79
-66
-84
-88
-58
-72
-95
-94
-211
33
1331
2423
1331
-820
-1363
-505
-60
-144
-113
-64
-106
-89
-56
-65
-56
-33
-19
1
21
38
65
99
129
165
214
268
316
357
389
411
419
397
334
245
154
66
-20
-90
-132
-152
-161
-171
-179
-179
-172
-162
-155
-148
-140
-132
-126
-121
-115
-108
-104
-110
-118
-118
-117
-126
-135
-140
-152
-161
-142
-107
-80
-63
-69
-96
-113
-113
-109
-102
-102
-105
-84
-88
-113
-102
-197
-135
899
2253
1782
-323
-1349
-661
-64
-139
-166
-84
-112
-114
-73
-77
-74
-43
-32
-27
-9
4
21
50
79
108
152
205
251
289
323
349
361
351
304
229
146
62
-20
-85
-128
-153
-162
-161
-160
-160
-155
-148
-148
-148
-142
-134
-126
-116
-110
-112
-113
-110
-109
-108
-104
-106
-112
-116
-128
-143
-136
-103
-69
-42
-35
-55
-76
-79
-78
-77
-74
-80
-70
-55
-75
-81
-122
-192
385
1802
2300
698
-1022
-936
-154
-56
-196
-124
-101
-131
-91
-77
-90
-63
-41
-41
-28
-5
12
33
59
89
130
174
216
259
297
317
331
341
317
247
166
95
18
-56
-105
-130
-146
-154
-154
-152
-148
-149
-149
-140
-129
-123
-117
-112
-108
-102
-97
-97
-97
-94
-94
-101
-108
-112
-126
-142
-134
-97
-60
-42
-47
-67
-82
-88
-92
-83
-78
-91
-84
-72
-97
-99
-160
-218
499
2005
2316
516
-1102
-860
-127
-99
-209
-124
-121
-148
-106
-95
-101
-75
-61
-58
-39
-20
-6
20
50
80
119
162
203
243
278
303
323
329
297
232
156
76
-8
-76
-116
-133
-146
-170
-191
-189
-173
-165
-162
-152
-139
-131
-123
-114
-111
-110
-108
-108
-108
-105
-108
-118
-123
-131
-147
-145
-113
-80
-58
-49
-61
-80
-89
-101
-104
-91
-93
-94
-72
-84
-101
-128
-252
71
1434
2466
1312
-763
-1215
-392
-42
-176
-152
-99
-131
-108
-75
-82
-68
-46
-38
-22
-2
14
35
65
98
136
179
226
273
314
347
373
380
357
303
232
151
64
-17
-75
-112
-136
-147
-154
-161
-158
-147
-142
-136
-124
-115
-109
-103
-97
-94
-93
-90
-88
-91
-99
-104
-111
-132
-146
-125
-90
-59
-34
-38
-74
-98
-101
-103
-97
-93
-102
-85
-71
-101
-96
-147
-222
465
1925
2166
312
-1312
-1037
-221
-98
-176
-107
-105
-127
-91
-80
-83
-61
-47
-38
-17
2
19
45
78
112
151
196
244
292
332
365
389
390
349
275
191
104
12
-66
-117
-149
-172
-185
-191
-197
-199
-193
-182
-171
-159
-150
-145
-138
-132
-133
-137
-143
-157
-165
-153
-127
-101
-74
-64
-81
-104
-113
-115
-109
-105
-117
-108
-88
-106
-124
-201
-311
280
1776
2343
736
-1027
-961
-175
-67
-201
-129
-110
-144
-105
-85
-96
-77
-60
-57
-40
-17
2
27
56
87
127
172
215
255
293
320
339
342
310
242
163
85
6
-65
-113
-138
-150
-155
-157
-157
-154
-148
-141
-134
-127
-123
-116
-107
-99
-92
-89
-93
-98
-104
-118
-131
-124
-102
-76
-47
-32
-47
-68
-74
-72
-68
-69
-82
-71
-50
-76
-98
-166
-274
312
1851
2498
899
-956
-975
-196
-63
-193
-130
-117
-150
-108
-88
-101
-83
-66
-62
-42
-18
-2
18
49
84
121
160
200
244
285
318
343
350
324
260
172
80
-5
-78
-132
-164
-178
-185
-188
-182
-175
-171
-163
-151
-140
-126
-116
-116
-114
-104
-100
-110
-114
-114
-125
-133
-125
-113
-98
-71
-56
-77
-104
-114
-119
-114
-109
-117
-101
-86
-118
-122
-186
-292
354
1849
2196
369
-1351
-1146
-303
-134
-205
-144
-141
-160
-122
-116
-127
-105
-80
-64
-43
-23
1
35
73
113
161
213
266
317
357
386
408
411
376
306
225
140
53
-23
-73
-101
-119
-131
-137
-139
-136
-130
-123
-115
-106
-98
-92
-86
-82
-80
-81
-83
-89
-101
-117
-123
-114
-96
-69
-43
-41
-63
-82
-90
-93
-83
-81
-90
-75
-70
-95
-108
-213
-158
861
2320
2063
4
-1192
-628
-46
-149
-205
-112
-137
-150
-108
-109
-108
-82
-74
-66
-45
-30
-13
15
43
72
108
151
196
236
266
290
310
310
271
203
126
48
-31
-96
-133
-151
-162
-165
-167
-171
-171
-165
-159
-155
-145
-134
-128
-123
-115
-110
-113
-113
-111
-118
-126
-130
-142
-151
-134
-100
-68
-42
-42
-74
-102
-104
-104
-100
-94
-103
-99
-77
-93
-110
-158
-262
235
1729
2551
1124
-845
-1047
-256
-58
-203
-147
-109
-145
-113
-87
-100
-85
-61
-56
-47
-32
-15
11
39
69
105
146
192
240
275
299
324
343
323
260
184
108
27
-45
-93
-124
-144
-152
-155
-161
-164
-161
-156
-150
-137
-123
-117
-121
-120
-113
-109
-108
-105
-108
-114
-114
-115
-126
-128
-106
-74
-46
-33
-48
-80
-97
-100
-98
-87
-89
-101
-76
-73
-109
-107
-210
-207
811
2356
2113
-62
-1356
-776
-111
-145
-182
-96
-117
-125
-83
-81
-77
-50
-45
-43
-22
1
23
51
84
120
159
204
258
306
335
357
379
381
340
263
176
91
10
-65
-122
-152
-165
-174
-183
-186
-179
-169
-162
-157
-146
-132
-124
-122
-117
-107
-104
-109
-114
-115
-117
-124
-137
-148
-140
-112
-80
-55
-52
-77
-101
-106
-110
-107
-93
-101
-105
-81
-96
-114
-119
-246
27
1377
2479
1371
-759
-1277
-452
-63
-176
-152
-100
-131
-114
-89
-94
-73
-51
-49
-31
-7
5
24
54
84
118
163
210
257
303
337
358
372
362
309
228
145
62
-19
-83
-126
-145
-148
-149
-156
-159
-156
-151
-145
-137
-131
-126
-118
-110
-106
-104
-102
-100
-96
-94
-100
-104
-107
-121
-134
-120
-87
-52
-24
-24
-59
-86
-86
-83
-80
-70
-78
-80
-58
-71
-91
-123
-226
175
1579
2511
1252
-752
-1085
-298
-50
-201
-156
-110
-150
-124
-95
-103
-90
-73
-68
-48
-25
-14
3
31
61
95
134
179
225
264
293
317
330
314
260
183
102
23
-53
-112
-147
-162
-168
-172
-175
-175
-173
-165
-158
-154
-148
-139
-132
-130
-125
-117
-113
-111
-109
-107
-108
-109
-109
-110
-109
-113
-121
-125
-133
-146
-143
-118
-91
-60
-31
-39
-75
-89
-85
-92
-89
-79
-89
-84
-70
-94
-108
-177
-244
467
2020
2427
661
-1024
-853
-133
-100
-212
-126
-122
-153
-110
-96
-100
-76
-62
-56
-32
-11
1
23
49
76
110
151
197
245
288
318
340
354
340
286
211
136
58
-17
-70
-103
-122
-129
-127
-126
-127
-124
-118
-112
-105
-99
-94
-91
-89
-87
-81
-75
-72
-71
-68
-68
-69
-65
-62
-65
-67
-61
-56
-58
-60
-59
-68
-80
-69
-39
-10
24
46
24
-17
-26
-19
-23
-22
-24
-33
-15
-16
-49
-61
-169
-109
955
2424
2088
-9
-1144
-552
-11
-128
-168
-79
-106
-111
-67
-71
-69
-41
-33
-28
-9
5
18
40
65
93
127
169
214
256
289
315
334
338
309
245
165
82
-2
-79
-134
-167
-185
-193
-201
-208
-207
-202
-202
-202
-199
-196
-196
-192
-186
-183
-183
-184
-184
-181
-181
-184
-187
-188
-189
-191
-193
-195
-197
-199
-201
-206
-220
-229
-214
-183
-153
-123
-107
-129
-159
-165
-164
-159
-146
-153
-155
-125
-133
-161
-179
-306
-63
1265
2472
1517
-606
-1212
-425
-55
-201
-179
-113
-146
-119
-76
-80
-64
-33
-18
5
34
55
82
115
146
183
232
286
341
393
436
470
497
506
479
418
346
273
201
140
99
78
74
79
86
90
