# session 34
-22
-37
1
16
-97
-257
-308
-278
-270
-268
-249
-238
-233
-221
-211
-204
-196
-189
-182
-173
-167
-164
-159
-151
-150
-153
-148
-139
-142
-154
-153
-125
-77
-37
-39
-81
-111
-107
-104
-108
-96
-94
-101
-76
-72
-105
-131
-227
-36
1181
2574
2069
88
-804
-272
36
-151
-160
-87
-132
-128
-85
-89
-81
-55
-51
-43
-25
-14
-2
16
33
53
78
104
133
162
188
214
236
254
276
287
254
178
91
11
-62
-120
-151
-164
-172
-175
-170
-161
-156
-151
-144
-138
-136
-132
-123
-118
-116
-113
-109
-107
-107
-107
-106
-106
-106
-99
-95
-111
-130
-125
-90
-42
-9
-25
-76
-105
-104
-106
-104
-89
-91
-90
-64
-76
-109
-150
-250
134
1566
2683
1660
-301
-789
-173
-12
-188
-147
-109
-157
-132
-103
-118
-103
-79
-77
-67
-48
-37
-24
-7
9
28
53
79
109
138
165
189
210
234
259
263
217
134
48
-36
-114
-168
-192
-206
-213
-210
-201
-193
-183
-175
-170
-162
-151
-145
-142
-137
-134
-132
-125
-119
-118
-115
-112
-117
-120
-113
-109
-119
-127
-107
-63
-23
-13
-42
-81
-94
-95
-103
-95
-84
-97
-87
-72
-101
-109
-172
-192
636
2198
2410
539
-1002
-731
-76
-72
-153
-80
-89
-104
-64
-64
-70
-45
-34
-32
-15
4
21
40
56
78
115
147
169
198
232
258
285
319
347
355
330
264
165
61
-29
-102
-155
-181
-191
-203
-214
-210
-196
-184
-175
-171
-165
-148
-136
-139
-139
-129
-130
-138
-139
-132
-129
-134
-140
-138
-138
-143
-137
-104
-58
-28
-46
-98
-127
-119
-112
-110
-109
-123
-114
-88
-112
-120
-119
-182
292
1680
2372
920
-959
-1106
-316
-66
-139
-84
-70
-103
-71
-52
-58
-38
-21
-16
-1
17
34
56
76
94
119
150
182
218
254
288
320
347
373
389
365
288
188
93
2
-81
-142
-173
-185
-194
-202
-202
-194
-188
-183
-173
-157
-143
-138
-136
-127
-117
-111
-110
-112
-115
-117
-120
-119
-112
-114
-133
-146
-127
-83
-43
-31
-59
-102
-116
-108
-105
-102
-105
-115
-91
-70
-100
-109
-166
-186
576
2001
2162
428
-934
-619
-25
-74
-169
-96
-105
-117
-73
-73
-78
-49
-39
-44
-35
-28
-22
-3
19
39
61
88
117
148
177
204
235
267
291
294
258
183
97
17
-58
-118
-149
-167
-180
-176
-163
-164
-173
-170
-160
-151
-142
-139
-135
-116
-98
-110
-128
-125
-115
-113
-112
-110
-109
-103
-103
-116
-115
-84
-44
-19
-20
-45
-77
-91
-89
-89
-81
-70
-76
-73
-68
-85
-86
-154
-195
529
1989
2315
699
-744
-558
-8
-66
-167
-79
-85
-116
-80
-75
-81
-54
-40
-45
-33
-12
2
14
29
47
60
74
101
142
178
203
225
250
279
293
263
187
98
13
-65
-123
-157
-173
-180
-189
-191
-178
-166
-176
-187
-177
-163
-160
-157
-144
-136
-136
-132
-127
-131
-133
-126
-121
-117
-110
-111
-116
-108
-96
-95
-98
-92
-84
-70
-38
-7
-16
-58
-82
-79
-72
-65
-66
-89
-91
-59
-73
-102
-140
-253
145
1607
2670
1553
-389
-792
-154
-9
-175
-123
-88
-137
-110
-82
-93
-80
-63
-59
-41
-27
-22
-3
22
41
61
85
115
153
186
213
244
275
297
314
310
256
164
68
-23
-106
-160
-183
-191
-199
-206
-198
-182
-183
-192
-186
-171
-162
-157
-150
-149
-151
-141
-120
-110
-122
-130
-123
-120
-125
-115
-97
-98
-108
-108
-102
-98
-92
-89
-98
-107
-95
-54
-9
9
-8
-40
-64
-77
-89
-87
-72
-77
-85
-58
-60
-98
-131
-242
-7
1311
2688
2017
-52
-871
-276
23
-162
-160
-95
-139
-130
-94
-102
-93
-73
-68
-52
-34
-33
-20
8
33
50
72
106
144
170
197
237
269
293
322
328
278
196
106
8
-79
-134
-164
-187
-199
-203
-208
-208
-199
-192
-190
-180
-168
-160
-153
-145
-141
-142
-140
-134
-130
-129
-125
-117
-113
-117
-119
-116
-112
-110
-103
-94
-94
-92
-82
-82
-99
-103
-74
-26
12
12
-26
-62
-66
-68
-77
-67
-58
-65
-50
-49
-85
-102
-203
-146
929
2508
2346
312
-916
-450
27
-103
-151
-78
-117
-121
-75
-79
-83
-56
-36
-27
-29
-27
-2
27
44
67
95
122
159
201
227
247
275
299
316
321
290
216
120
24
-62
-129
-178
-204
-214
-223
-230
-226
-216
-209
-203
-195
-182
-165
-158
-161
-157
-146
-140
-138
-137
-136
-135
-133
-132
-128
-125
-125
-124
-119
-121
-121
-114
-110
-118
-125
-108
-63
-14
5
-25
-71
-87
-81
-86
-85
-78
-86
-76
-57
-86
-109
-180
-232
532
2172
2652
931
-726
-602
-13
-73
-190
-98
-107
-142
-98
-88
-97
-75
-62
-58
-40
-25
-11
7
23
45
76
103
130
169
209
240
267
293
316
330
313
247
147
45
-40
-106
-154
-186
-203
-209
-210
-207
-206
-205
-196
-182
-174
-169
-160
-150
-142
-137
-133
-127
-123
-123
-121
-119
-117
-112
-110
-118
-123
-117
-113
-109
-100
-99
-109
-114
-99
-60
-8
14
-18
-66
-76
-69
-80
-81
-70
-79
-77
-59
-85
-110
-177
-260
390
2013
2718
1173
-627
-684
-61
-50
-195
-124
-118
-152
-110
-93
-101
-83
-72
-69
-49
-32
-23
-2
23
43
63
90
122
159
197
233
262
287
314
335
321
258
164
66
-25
-99
-151
-183
-201
-206
-208
-209
-203
-193
-189
-183
-175
-169
-160
-146
-140
-139
-134
-128
-128
-127
-124
-120
-118
-118
-119
-117
-111
-106
-104
-104
-99
-92
-96
-110
-104
-67
-18
10
-6
-50
-78
-77
-76
-76
-67
-75
-81
-56
-65
-101
-150
-264
102
1552
2728
1720
-303
-835
-193
0
-180
-144
-97
-145
-124
-94
-104
-90
-71
-71
-59
-39
-25
-9
12
35
59
84
111
147
188
225
256
281
306
328
326
280
194
93
-4
-84
-140
-171
-190
-203
-207
-205
-206
-207
-202
-194
-184
-174
-168
-160
-151
-142
-135
-130
-131
-132
-128
-122
-121
-121
-121
-121
-120
-116
-115
-114
-106
-94
-92
-106
-114
-94
-48
-2
10
-20
-60
-75
-75
-81
-77
-74
-85
-68
-53
-87
-105
-181
-222
601
2226
2536
702
-866
-630
-27
-75
-166
-85
-104
-126
-81
-80
-88
-61
-50
-47
-28
-10
5
24
43
61
87
117
148
185
225
263
294
322
348
361
335
262
161
60
-30
-103
-156
-190
-210
-216
-217
-218
-217
-210
-198
-191
-185
-174
-161
-155
-149
-141
-136
-136
-135
-133
-133
-132
-130
-129
-127
-128
-129
-124
-115
-115
-125
-130
-114
-72
-21
-1
-32
-77
-92
-87
-91
-85
-77
-90
-86
-64
-85
-112
-192
-284
383
2033
2750
1202
-597
-664
-61
-66
-212
-135
-127
-166
-131
-114
-116
-87
-69
-63
-48
-40
-31
0
20
19
39
86
125
156
200
246
272
292
337
367
322
228
144
61
-35
-109
-153
-186
-207
-212
-210
-207
-207
-212
-212
-201
-188
-176
-164
-152
-142
-143
-146
-138
-126
-127
-128
-119
-114
-121
-123
-115
-107
-104
-105
-109
-103
-90
-93
-113
-109
-65
-13
17
7
-39
-78
-82
-81
-85
-77
-79
-85
-61
-56
-87
-151
-299
7
1456
2791
1938
-153
-840
-219
9
-178
-139
-80
-146
-135
-87
-96
-93
-68
-55
-43
-30
-19
-2
19
41
72
103
126
153
184
221
266
304
326
343
344
298
211
111
8
-87
-151
-185
-198
-198
-199
-205
-203
-197
-196
-190
-179
-172
-168
-164
-162
-155
-141
-136
-142
-139
-130
-129
-127
-119
-124
-132
-122
-113
-124
-128
-110
-96
-109
-125
-119
-89
-46
-9
-10
-51
-83
-85
-89
-96
-80
-80
-98
-72
-57
-100
-127
-225
-149
943
2479
2217
132
-1058
-527
-3
-105
-138
-57
-92
-107
-75
-82
-77
-47
-38
-37
-16
11
24
30
51
88
114
135
174
222
260
294
333
368
390
390
348
260
150
46
-43
-110
-155
-185
-200
-201
-203
-212
-215
-202
-185
-179
-179
-169
-153
-143
-134
-125
-123
-123
-117
-113
-117
-121
-121
-115
-106
-109
-124
-123
-107
-105
-117
-114
-99
-95
-97
-97
-101
-95
-58
-11
-6
-42
-75
-79
-79
-86
-78
-77
-92
-79
-75
-105
-104
-191
-175
810
2335
2195
189
-1062
-601
-52
-104
-137
-71
-97
-92
-57
-67
-61
-35
-31
-23
-3
6
22
48
63
81
117
151
177
213
260
302
335
366
397
404
362
275
172
77
-10
-92
-157
-187
-195
-201
-202
-197
-197
-202
-198
-188
-182
-178
-168
-157
-150
-144
-138
-138
-136
-126
-125
-134
-129
-117
-118
-126
-126
-126
-122
-112
-105
-106
-107
-107
-102
-78
-34
-3
-17
-60
-85
-81
-85
-92
-81
-82
-88
-66
-75
-105
-125
-233
23
1329
2544
1693
-329
-984
-330
-13
-140
-122
-77
-115
-94
-64
-74
-63
-44
-44
-33
-11
1
11
29
49
70
97
128
164
205
249
293
331
361
378
367
311
219
113
13
-69
-130
-169
-190
-197
-198
-197
-193
-188
-186
-184
-179
-176
-173
-167
-160
-153
-148
-142
-137
-132
-126
-122
-121
-121
-118
-113
-110
-111
-111
-108
-103
-99
-96
-92
-89
-88
-85
-79
-79
-91
-98
-75
-29
11
20
-6
-44
-59
-59
-61
-56
-53
-64
-53
-41
-67
-96
-195
-168
798
2434
2635
828
-614
-424
7
-116
-191
-105
-128
-146
-104
-105
-110
-86
-77
-73
-55
-44
-34
-16
3
20
41
69
100
136
176
216
252
282
310
327
307
238
143
47
-38
-104
-151
-181
-192
-191
-187
-182
-177
-175
-173
-169
-168
-170
-168
-164
-162
-160
-156
-152
-147
-140
-135
-132
-128
-123
-120
-117
-116
-114
-110
-105
-102
-101
-100
-96
-91
-85
-79
-77
-77
-73
-69
-69
-68
-65
-62
-60
-56
-58
-69
-78
-63
-25
19
41
21
-19
-40
-41
-46
-47
-38
-47
-50
-31
-45
-83
-154
-235
338
1955
2964
1719
-227
-619
-86
-40
-207
-142
-115
-161
-129
-108
-123
-103
-82
-83
-72
-53
-40
-25
-6
11
30
56
87
122
163
206
246
279
310
338
342
300
216
119
26
-57
-122
-161
-181
-189
-191
-189
-185
-181
-177
-174
-173
-172
-169
-167
-167
-164
-159
-154
-150
-148
-146
-140
-135
-134
-131
-126
-125
-125
-124
-122
-119
-115
-111
-109
-105
-100
-95
-90
-85
-82
-80
-79
-79
-78
-77
-74
-71
-77
-84
-72
-34
10
36
23
-20
-50
-50
-50
-52
-41
-44
-53
-31
-35
-75
-129
-232
116
1547
2841
2005
-39
-744
-185
11
-181
-155
-99
-147
-130
-95
-106
-97
-76
-73
-62
-42
-29
-16
1
18
40
68
97
130
170
211
249
284
316
343
351
314
233
134
37
-51
-120
-165
-190
-202
-206
-206
-202
-196
-191
-188
-183
-180
-179
-173
-165
-161
-158
-152
-145
-141
-134
-128
-128
-128
-125
-120
-116
-113
-111
-110
-109
-107
-103
-97
-93
-92
-91
-88
-82
-79
-78
-71
-64
-70
-83
-79
-48
-4
31
27
-12
-46
-51
-53
-57
-48
-49
-62
-42
-37
-75
-111
-209
-20
1207
2667
2225
192
-807
-302
33
-148
-164
-89
-132
-131
-92
-101
-97
-71
-67
-61
-43
-29
-15
4
24
45
70
99
132
171
211
250
286
320
347
357
325
248
148
51
-39
-113
-163
-190
-203
-208
-210
-210
-206
-203
-202
-197
-191
-187
-182
-173
-165
-158
-154
-152
-149
-144
-141
-140
-139
-137
-134
-132
-130
-127
-124
-121
-119
-118
-114
-108
-103
-100
-97
-93
-86
-84
-94
-102
-85
-43
1
17
-9
-49
-63
-60
-65
-63
-56
-70
-65
-41
-63
-91
-153
-210
470
2075
2717
1149
-604
-634
-37
-46
-179
-98
-94
-133
-92
-74
-82
-65
-55
-52
-35
-17
-2
16
35
52
74
104
139
172
204
244
285
318
346
370
363
306
212
111
17
-64
-124
-162
-182
-191
-195
-197
-194
-189
-185
-178
-171
-166
-159
-150
-145
-142
-136
-130
-127
-126
-126
-126
-126
-126
-125
-124
-123
-126
-127
-121
-115
-116
-115
-107
-107
-120
-127
-105
-58
-13
-4
-41
-82
-91
-89
-93
-86
-81
-95
-83
-68
-98
-110
-176
-183
661
2194
2350
507
-920
-603
-27
-96
-173
-85
-106
-128
-86
-84
-86
-61
-53
-50
-32
-18
-6
12
30
51
79
108
138
175
217
259
295
326
352
367
343
269
169
67
-25
-103
-160
-192
-205
-208
-212
-212
-205
-198
-195
-190
-181
-173
-168
-161
-153
-148
-144
-140
-135
-129
-125
-126
-127
-123
-123
-124
-121
-116
-114
-110
-107
-115
-123
-113
-75
-26
-1
-27
-74
-92
-90
-96
-92
-80
-89
-86
-65
-85
-108
-156
-231
339
1860
2613
1205
-570
-688
-70
-38
-189
-117
-101
-140
-104
-87
-99
-78
-62
-61
-46
-24
-9
9
28
46
68
94
123
158
195
229
263
295
324
345
338
284
196
102
10
-70
-125
-155
-171
-179
-180
-181
-180
-172
-164
-159
-151
-143
-138
-132
-125
-123
-123
-118
-112
-111
-107
-103
-104
-106
-101
-95
-93
-90
-92
-102
-107
-89
-49
-4
14
-17
-65
-82
-81
-88
-84
-72
-83
-80
-59
-82
-104
-157
-228
409
1987
2645
1082
-702
-732
-82
-52
-189
-118
-112
-147
-107
-96
-110
-89
-76
-75
-57
-36
-28
-15
4
23
47
73
102
136
176
213
245
274
303
323
312
254
161
57
-40
-119
-175
-209
-225
-236
-244
-244
-236
-228
-223
-217
-207
-196
-188
-182
-177
-170
-165
-163
-164
-162
-157
-154
-156
-156
-153
-150
-144
-142
-149
-152
-137
-103
-58
-28
-42
-88
-113
-108
-107
-104
-91
-101
-104
-79
-95
-122
-158
-250
214
1712
2665
1388
-570
-884
-197
-34
-179
-128
-99
-141
-116
-93
-102
-85
-65
-59
-51
-41
-28
-9
6
23
49
71
90
120
156
187
212
234
256
274
265
204
99
