# session 11
99
120
59
156
463
641
556
450
458
468
401
323
314
325
301
343
446
395
254
293
310
-28
-421
-443
-256
-188
-225
-235
-274
-293
265
1452
1763
229
-1445
-1448
-591
-261
-296
-238
-223
-253
-169
-91
-117
-109
-20
22
20
69
130
163
225
267
199
123
119
72
-67
-186
-229
-233
-241
-263
-275
-255
-223
-194
-158
-128
-117
-105
-94
-139
-240
-332
-375
-346
-284
-275
-273
-319
-449
27
1514
2359
1046
-794
-1024
-333
-126
-210
-124
-53
-65
-25
47
90
126
150
161
219
320
355
307
300
373
423
382
303
270
252
153
11
-64
-120
-256
-402
-396
-200
18
65
-30
-95
-97
-137
-228
-290
-302
-306
-298
-306
-361
-351
-308
-377
9
1310
2094
906
-854
-1180
-580
-320
-340
-307
-284
-244
-187
-196
-191
-127
-69
13
124
174
222
381
527
497
393
387
425
366
201
29
-66
-105
-167
-239
-243
-203
-168
-106
-30
-2
14
64
105
116
115
104
90
69
84
155
36
-55
864
2345
2161
204
-975
-580
-138
-202
-230
-206
-258
-236
-169
-154
-114
-41
-23
-44
-20
63
138
139
83
34
18
19
-10
-114
-234
-276
-278
-342
-446
-485
-444
-382
-321
-263
-237
-241
-236
-246
-278
-242
-172
-212
-280
-259
-260
-279
-308
-415
61
1607
2565
1321
-530
-863
-307
-114
-130
-78
-87
-79
3
39
40
66
94
125
173
225
283
347
382
401
438
446
369
231
104
60
71
6
-92
-51
36
-31
-162
-198
-162
-109
-78
-128
-240
-322
-347
-357
-373
-390
-396
-391
-487
-531
220
1650
1903
205
-1376
-1241
-448
-257
-429
-437
-331
-309
-314
-223
-131
-134
-149
-129
-100
-55
0
60
152
219
207
195
189
91
-34
-41
-7
-58
-116
-96
-58
-29
38
108
117
123
165
153
102
128
168
142
154
167
76
29
0
-6
699
1996
2065
461
-709
-451
11
46
77
132
66
32
50
11
-48
-45
-16
-35
-73
-45
23
35
17
69
192
282
246
80
-113
-212
-197
-159
-151
-134
-114
-156
-222
-217
-158
-129
-137
-138
-129
-152
-202
-206
-193
-231
-238
-312
-532
-39
1603
2429
870
-1086
-1230
-496
-281
-290
-182
-204
-293
-267
-231
-262
-270
-200
-102
-40
-22
3
70
135
146
138
157
166
120
63
53
56
19
-40
-76
-74
-27
32
49
61
136
206
166
91
91
89
29
14
29
-5
-35
-149
-139
771
2047
1657
-321
-1392
-883
-351
-369
-387
-327
-327
-300
-245
-225
-217
-209
-203
-169
-65
76
135
113
158
242
210
118
69
-13
-107
-108
-108
-183
-212
-184
-189
-168
-72
-10
-5
5
-2
-51
-91
-115
-133
-134
-151
-174
-201
-385
-393
627
2058
1791
-174
-1342
-884
-301
-262
-250
-158
-159
-170
-130
-74
-11
56
130
204
255
290
365
494
564
490
433
485
464
349
348
403
334
240
237
232
196
224
313
339
229
70
-46
-146
-229
-252
-233
-214
-242
-331
-416
-522
-422
508
1743
1405
-538
-1674
-1100
-373
-326
-384
-296
-254
-268
-301
-324
-265
-186
-191
-220
-175
-92
-51
-39
-1
52
58
37
61
87
22
-72
-79
-55
-103
-180
-182
-122
-85
-78
-66
-89
-176
-257
-277
-272
-252
-172
-93
-128
-172
-162
-214
189
1613
2677
1618
-323
-817
-204
42
-55
-8
58
51
76
138
197
221
215
235
282
301
295
308
347
393
443
449
333
134
-11
-85
-167
-256
-282
-249
-225
-233
-229
-211
-223
-249
-257
-278
-303
-297
-313
-333
-266
-239
-317
-326
-390
-377
603
2066
1794
-215
-1341
-850
-353
-409
-407
-297
-306
-309
-212
-126
-123
-126
-67
11
63
125
202
252
259
226
163
91
0
-82
-77
-45
-124
-228
-196
-140
-202
-244
-142
-25
-8
-39
-61
-74
-83
-65
15
89
77
51
-36
-175
379
1829
2386
915
-699
-714
-70
82
39
127
174
140
100
34
-56
-99
-90
-99
-140
-145
-86
-5
33
5
-32
-41
-72
-141
-195
-220
-255
-283
-268
-249
-259
-232
-156
-120
-122
-101
-94
-132
-152
-146
-139
-133
-186
-247
-243
-370
-290
908
2355
1811
-228
-1087
-503
-134
-221
-192
-153
-169
-86
-54
-170
-231
-181
-142
-125
-87
-30
54
142
169
173
220
245
219
229
233
144
89
152
196
176
200
256
278
296
311
308
333
352
293
245
297
329
318
319
165
167
1111
2227
1604
-286
-1091
-558
-193
-295
-303
-248
-306
-377
-392
-349
-293
-314
-351
-293
-191
-110
-56
-69
-116
-107
-102
-167
-213
-201
-230
-308
-344
-345
-372
-396
-361
-287
-238
-247
-274
-261
-239
-293
-388
-400
-334
-369
-541
-628
-622
-669
-233
1014
1602
288
-1366
-1519
-892
-685
-666
-515
-466
-496
-428
-341
-326
-316
-250
-158
-92
-56
-6
80
166
222
250
245
215
183
136
84
74
65
108
564
1442
1925
1586
1240
1447
1590
1245
804
537
424
509
691
771
743
563
197
263
1321
2182
1205
-682
-1288
-645
-189
-207
-259
-267
-264
-272
-347
-384
-305
-222
-191
-186
-203
-205
-196
-212
-195
-134
-125
-149
-133
-130
-174
-207
-244
-312
-339
-316
-313
-309
-239
-176
-210
-290
-354
-419
-480
-491
-451
-433
-457
-436
-444
-494
121
1641
2338
940
-794
-966
-388
-247
-265
-150
-115
-114
-36
13
38
116
190
236
306
359
370
432
525
527
474
467
448
313
95
-98
-215
-280
-323
-345
-342
-314
-289
-301
-319
-318
-342
-383
-402
-423
-401
-312
-312
-385
-369
-370
-117
989
1985
1167
-627
-1166
-539
-205
-281
-266
-249
-304
-251
-120
-87
-143
-146
-86
-61
-36
51
97
52
50
129
192
216
206
128
9
-113
-244
-328
-294
-196
-130
-99
-45
33
66
38
31
75
126
159
137
76
94
71
-12
640
2093
2388
648
-884
-630
132
295
283
341
303
285
341
343
291
231
170
147
130
76
46
55
45
31
46
58
43
-12
-93
-149
-169
-214
-314
-393
-354
-255
-220
-221
-213
-244
-278
-272
-297
-307
-262
-312
-384
-402
-593
-345
1239
2610
1518
-688
-1283
-643
-379
-401
-279
-270
-356
-318
-251
-245
-236
-200
-159
-148
-191
-206
-131
-36
13
39
63
67
28
-22
-26
-20
-66
-111
-89
-16
76
164
202
193
169
138
119
129
176
227
222
212
221
67
155
1306
2547
1805
-235
-995
-387
-84
-278
-346
-337
-325
-210
-139
-178
-197
-176
-151
-121
-125
-146
-99
-14
22
23
9
-22
-16
-9
-108
-224
-214
-177
-249
-348
-344
-237
-127
-103
-131
-129
-131
-165
-131
-59
-114
-191
-196
-365
-255
1016
2363
1685
-253
-1004
-529
-231
-262
-287
-372
-410
-319
-270
-254
-206
-185
-155
-63
14
52
87
115
141
201
303
399
424
386
334
267
215
222
220
192
228
291
291
286
300
268
232
243
221
128
31
-28
-123
-391
-408
608
1892
1450
-458
-1426
-908
-385
-382
-417
-364
-254
-77
4
-60
-125
-136
-124
-109
-90
-45
-17
-62
-107
-84
-60
-54
-17
3
-46
-86
-86
-121
-171
-161
-127
-120
-87
-32
-39
-80
-86
-115
-159
-130
-168
-365
-489
-548
-549
207
1582
1718
121
-1097
-860
-375
-322
-267
-154
-147
-112
-39
-29
-5
80
149
194
235
252
283
360
412
394
380
441
522
516
429
342
251
157
161
246
227
79
-39
-100
-187
-268
-290
-308
-338
-327
-347
-435
-447
-449
-403
388
1722
1658
-258
-1659
-1277
-492
-287
-279
-244
-252
-224
-166
-145
-129
-109
-101
-84
-51
-22
5
55
100
82
53
120
230
241
173
125
90
34
-7
5
64
111
76
-27
-112
-122
-68
-40
-76
-70
-19
-55
-87
-85
-153
346
1848
2685
1363
-415
-591
25
120
16
98
103
70
180
269
244
241
272
260
259
309
322
271
232
200
119
28
-50
-160
-274
-330
-368
-423
-442
-424
-407
-373
-303
-250
-252
-289
-344
-426
-493
-491
-492
-560
-534
-461
-646
-491
858
2027
993
-1026
-1491
-718
-327
-353
-290
-238
-249
-196
-135
-142
-150
-79
9
18
17
92
162
184
240
294
248
167
149
151
104
7
-83
-111
-98
-83
-50
12
70
99
91
66
46
38
71
85
18
-33
-119
-124
763
2285
2287
341
-971
-504
125
104
67
154
144
106
57
0
3
-32
-166
-255
-227
-142
-55
-23
-61
-111
-144
-133
-70
-48
-97
-132
-160
-225
-245
-193
-167
-158
-91
-48
-133
-231
-203
-146
-141
-154
-218
-254
-220
-396
-295
1160
2768
2005
-282
-1158
-556
-185
-200
-139
-143
-199
-170
-151
-149
-111
-109
-146
-144
-84
4
66
73
63
65
81
113
130
104
67
44
14
-14
-16
13
63
105
116
120
122
92
58
87
144
144
158
194
28
18
1058
2400
1923
-101
-1108
-557
-97
-267
-416
-413
-447
-447
-397
-398
-427
-417
-380
-318
-213
-119
-94
-110
-109
-73
-24
-1
-9
-32
-89
-159
-184
-195
-238
-241
-186
-151
-121
-77
-112
-190
-185
-151
-164
-171
-141
-132
-321
-526
232
1929
2360
585
-1016
-822
-177
-138
-211
-191
-259
-267
-188
-180
-181
-109
-69
-102
-105
-43
15
52
101
148
175
207
242
232
188
164
156
128
103
129
188
252
339
420
412
342
288
242
224
243
217
184
121
-109
100
1352
2186
916
-986
-1259
-515
-260
-384
-429
-459
-425
-331
-343
-381
-312
-225
-179
-144
-132
-117
-65
-39
-87
-118
-68
-27
-51
-58
-52
-123
-216
-215
-144
-80
-27
32
76
61
11
-10
-36
-77
-30
27
-54
-101
-109
-242
188
1551
2105
596
-1103
-1150
-455
-238
-277
-253
-266
-260
-183
-155
-162
-87
9
9
-4
76
176
222
233
246
303
390
420
391
372
365
346
325
300
262
227
216
214
191
167
152
84
-54
-175
-227
-293
-411
-502
-610
-557
304
1596
1456
-397
-1631
-1124
-355
-274
-337
-284
-309
-312
-232
-206
-214
-172
-150
-185
-187
-123
-55
-24
-30
-51
-52
-17
40
88
78
17
-15
-11
-34
-55
-10
47
31
-33
-38
38
53
-69
-157
-108
-118
-253
-338
-417
-315
682
2069
1870
25
-1079
-649
-155
-190
-204
-129
-114
-77
-45
-29
45
85
55
85
155
167
193
298
406
460
449
421
501
649
629
458
375
338
169
5
-9
-22
-110
-143
-100
-59
-56
-117
-198
-237
-281
-338
-395
-385
237
1503
1765
132
-1401
-1201
-459
-366
-466
-397
-360
-360
-352
-334
-254
-198
-227
-204
-111
-63
-44
0
33
56
104
146
155
159
134
36
-39
3
56
25
-19
-25
-28
-65
-151
-218
-201
-179
-183
-163
-199
-270
-248
-324
-285
796
2300
1972
-63
-1139
-614
-109
-111
-81
-44
-61
40
120
86
129
249
280
265
305
347
360
390
417
407
385
357
323
288
184
1
-146
-227
-282
-264
-173
-132
-187
-281
-364
-417
-456
-479
-418
-336
-365
-394
-409
-520
-51
1370
1943
343
-1363
-1212
-428
-334
-388
-244
-246
-319
-265
-198
-182
-145
-78
-38
-40
-9
62
81
75
125
147
91
113
231
230
51
-106
-130
-107
-141
-213
-213
-114
-57
-114
-143
-94
-100
-123
-56
-16
-36
-78
-215
124
1531
2564
1495
-302
-649
-126
-16
-38
109
109
43
109
140
102
139
213
247
275
291
281
308
358
325
219
148
122
60
-37
-94
-101
-119
-159
-198
-235
-242
-188
-128
-134
-183
-235
-287
-296
-288
-330
-294
-253
-424
-77
1373
2167
689
-1198
-1293
-501
-251
-289
-238
-238
-226
-152
-126
-116
-69
-18
22
20
-18
-4
41
11
-36
-6
43
58
73
60
-50
-233
-369
-379
-294
-197
-135
-116
-139
-173
-174
-167
-179
-145
-102
-160
-176
-142
-239
215
1736
2560
1131
-684
-766
-57
85
7
89
125
135
181
178
171
193
163
139
208
264
255
290
346
273
133
87
62
-87
-256
-264
-178
-166
-206
-199
-168
-172
-189
-213
-257
-293
-311
-310
-265
-239
-281
-272
-285
-352
266
1682
2035
382
-1176
-1022
-331
-229
-303
-244
-240
-252
-206
-197
-200
-125
-46
-54
-67
4
78
69
48
72
89
88
116
139
101
34
-45
-172
-299
-313
-226
-149
-106
-70
-63
-91
-123
-132
-99
-80
-110
-100
-149
-210
512
1985
2269
631
-798
-703
-252
-232
-208
-89
-44
31
118
131
156
214
227
220
227
227
233
253
252
268
347
380
287
173
85
-67
-239
-285
-219
-154
-117
-96
-111
-164
-211
-239
-284
-318
-303
-315
-331
-296
-376
-240
859
1982
1164
-856
-1515
-740
-233
-255
-219
-185
-237
-207
-135
-117
-111
-104
-100
-66
-22
10
51
97
124
142
170
204
210
160
88
30
-45
-121
-113
-41
-8
-28
-61
-102
-126
-127
-128
-92
-41
-84
-151
-209
-358
-11
1368
2261
1014
-849
-1101
-436
-294
-387
-254
-163
-151
-68
12
65
129
165
185
253
337
377
385
393
409
429
461
511
553
507
338
160
91
75
10
-74
-118
-152
-213
-262
-251
-214
-199
-195
-212
-252
-251
-317
-417
172
1506
1843
332
-1076
-896
-241
-169
-283
-270
-255
-215
-173
-203
-193
-122
-113
-115
-57
-33
-31
45
68
-51
-103
-18
-5
-84
-101
-79
-98
-117
-112
-96
-68
-49
-64
-116
-169
-172
-158
-185
-199
-201
-237
-232
-287
-349
367
1715
1726
-42
-1232
-787
-217
-247
-248
-145
-187
-218
-144
-68
-22
-22
-27
30
81
71
86
145
155
124
130
163
171
150
115
68
15
-18
-2
46
67
68
81
63
-1
-50
-61
-38
-4
-28
-98
-253
-472
-36
1421
2262
1092
-507
-685
-212
-203
-295
-190
-183
-233
-163
-102
-141
-173
-139
-82
-42
-20
0
22
29
48
106
148
134
117
118
96
63
51
43
39
67
108
120
100
76
56
24
