# session 27
138
104
155
210
67
-194
-287
-235
-236
-262
-243
-235
-254
-264
-264
-242
-191
-143
-137
-168
-198
-204
-201
-199
-189
-191
-199
-177
-174
-198
-199
-272
-130
913
2107
1537
-395
-1213
-562
-100
-203
-210
-139
-172
-168
-130
-133
-123
-100
-101
-95
-72
-61
-53
-31
-8
14
44
84
127
167
202
234
258
273
267
227
158
77
-9
-91
-154
-193
-211
-214
-209
-201
-192
-184
-180
-176
-168
-163
-161
-158
-154
-153
-152
-147
-143
-140
-136
-130
-128
-127
-119
-111
-116
-130
-132
-106
-56
-16
-17
-51
-78
-82
-83
-84
-75
-77
-80
-56
-60
-83
-75
-153
-3
1080
2260
1594
-378
-1126
-425
13
-108
-108
-39
-81
-76
-33
-37
-32
-8
-1
8
27
40
53
71
86
109
143
177
209
250
291
319
342
362
359
312
232
143
61
-13
-74
-116
-137
-143
-144
-142
-137
-133
-126
-117
-115
-117
-113
-108
-108
-107
-106
-106
-105
-105
-110
-110
-105
-105
-107
-114
-127
-134
-113
-69
-25
-12
-39
-78
-91
-91
-94
-87
-84
-92
-76
-72
-98
-89
-159
-138
754
2117
1906
-39
-1191
-637
-38
-107
-159
-76
-97
-104
-64
-70
-73
-48
-39
-31
-8
10
22
39
59
85
117
152
188
226
260
286
308
328
333
300
229
141
54
-27
-96
-141
-162
-172
-176
-173
-166
-160
-156
-148
-142
-144
-144
-141
-138
-137
-136
-136
-139
-139
-136
-137
-140
-138
-138
-150
-161
-147
-107
-58
-34
-55
-96
-114
-116
-118
-107
-98
-107
-95
-81
-106
-99
-132
-183
469
1876
2156
426
-1104
-827
-96
-66
-169
-82
-79
-106
-62
-50
-55
-29
-17
-15
5
24
34
51
74
95
119
149
181
214
248
277
293
305
318
303
244
164
85
4
-64
-108
-138
-159
-162
-155
-152
-148
-142
-138
-132
-121
-115
-120
-123
-122
-120
-118
-116
-117
-119
-114
-107
-109
-123
-133
-125
-91
-41
-8
-25
-74
-101
-98
-97
-92
-83
-92
-87
-68
-92
-101
-112
-184
285
1644
2284
825
-967
-1002
-198
-32
-168
-106
-79
-119
-89
-67
-75
-58
-41
-37
-19
2
14
30
53
76
102
129
157
187
218
243
261
273
285
279
235
162
81
2
-64
-110
-141
-160
-166
-164
-159
-151
-142
-136
-131
-128
-128
-124
-121
-123
-121
-115
-114
-115
-113
-113
-113
-112
-121
-136
-129
-91
-39
-9
-28
-72
-92
-91
-95
-91
-87
-98
-89
-73
-96
-91
-133
-191
475
1925
2251
516
-1073
-842
-105
-61
-170
-90
-88
-120
-82
-71
-81
-58
-40
-38
-23
-3
12
27
47
71
94
115
139
168
195
215
230
247
264
258
212
139
63
-10
-75
-120
-144
-156
-162
-160
-151
-140
-130
-121
-115
-111
-107
-103
-101
-99
-100
-102
-101
-101
-103
-105
-108
-120
-129
-121
-88
-38
-6
-25
-76
-106
-110
-108
-100
-94
-108
-103
-89
-114
-115
-154
-253
306
1792
2399
827
-972
-981
-216
-64
-170
-111
-100
-128
-89
-73
-86
-66
-43
-35
-18
1
16
33
58
84
105
129
163
193
213
233
252
271
291
286
236
164
88
8
-64
-115
-151
-174
-181
-177
-171
-160
-145
-135
-133
-130
-122
-116
-116
-120
-115
-107
-110
-116
-112
-111
-124
-129
-107
-61
-20
-20
-62
-103
-114
-113
-107
-101
-114
-115
-90
-107
-120
-110
-226
14
1284
2350
1301
-780
-1334
-529
-74
-126
-108
-73
-104
-85
-58
-62
-48
-30
-25
-11
10
31
63
90
105
126
158
190
222
253
278
298
326
357
352
288
199
123
45
-43
-112
-153
-181
-194
-191
-184
-175
-162
-153
-150
-142
-128
-112
-101
-105
-119
-121
-108
-100
-105
-118
-127
-108
-58
-15
-27
-76
-109
-116
-120
-115
-103
-114
-116
-93
-118
-131
-116
-229
38
1342
2356
1206
-860
-1311
-483
-76
-138
-104
-72
-102
-78
-57
-67
-51
-30
-22
-8
11
23
39
63
91
120
152
190
228
261
290
317
344
362
339
272
187
100
9
-71
-127
-162
-184
-195
-196
-194
-188
-174
-163
-156
-148
-139
-134
-130
-126
-126
-121
-117
-130
-148
-140
-102
-59
-38
-54
-94
-120
-125
-125
-118
-115
-119
-103
-96
-117
-120
-179
-146
665
1984
1953
184
-1050
-629
-29
-94
-177
-85
-95
-116
-77
-76
-80
-52
-43
-44
-25
-9
-1
18
40
60
81
108
137
167
191
209
226
242
248
222
161
87
15
-50
-102
-134
-150
-158
-159
-155
-151
-149
-146
-140
-132
-130
-133
-130
-121
-116
-114
-108
-110
-126
-135
-116
-73
-25
-4
-30
-71
-88
-92
-95
-84
-82
-89
-71
-73
-101
-97
-179
-118
869
2205
1825
-161
-1149
-505
17
-113
-149
-59
-92
-101
-59
-62
-64
-42
-35
-28
-9
6
23
44
63
86
117
148
178
211
240
262
282
299
292
247
174
91
8
-64
-114
-143
-159
-167
-172
-174
-169
-161
-154
-150
-147
-141
-132
-126
-126
-124
-120
-119
-121
-119
-118
-129
-145
-143
-115
-70
-28
-21
-58
-98
-108
-109
-108
-97
-101
-105
-85
-95
-115
-133
-254
7
1323
2475
1501
-567
-1123
-348
-10
-171
-155
-99
-137
-115
-78
-88
-78
-55
-51
-40
-21
-8
12
38
60
85
118
152
182
212
238
256
276
296
290
242
167
86
7
-67
-121
-151
-167
-179
-184
-181
-173
-165
-154
-140
-130
-123
-116
-111
-109
-108
-106
-103
-105
-109
-109
-107
-108
-106
-103
-112
-128
-124
-90
-45
-9
-8
-50
-88
-92
-88
-87
-83
-92
-86
-61
-86
-112
-139
-257
135
1596
2596
1332
-719
-1079
-294
-31
-166
-123
-87
-128
-101
-72
-82
-66
-42
-35
-24
-7
11
34
54
75
103
131
158
192
228
256
279
303
324
319
272
196
110
25
-50
-103
-141
-167
-179
-178
-172
-166
-158
-150
-142
-135
-128
-120
-115
-115
-115
-113
-112
-114
-114
-112
-113
-116
-116
-117
-118
-126
-141
-141
-109
-61
-25
-25
-64
-98
-105
-105
-102
-95
-104
-102
-76
-91
-108
-134
-253
123
1549
2546
1316
-728
-1112
-328
-44
-172
-132
-92
-131
-108
-81
-90
-72
-49
-43
-30
-13
-1
18
43
67
92
124
156
191
226
256
279
303
324
319
269
190
103
18
-59
-117
-151
-171
-184
-191
-190
-185
-178
-168
-155
-142
-130
-119
-113
-112
-109
-104
-100
-99
-102
-106
-108
-108
-107
-104
-103
-107
-108
-107
-120
-134
-119
-78
-31
4
-3
-48
-78
-78
-79
-75
-70
-85
-80
-61
-81
-96
-163
-257
383
1960
2562
933
-857
-836
-123
-51
-176
-106
-99
-130
-88
-72
-83
-60
-41
-38
-22
-6
5
26
54
76
98
126
159
193
227
258
282
305
323
313
257
172
84
1
-73
-128
-159
-172
-181
-189
-188
-180
-171
-164
-156
-147
-139
-136
-133
-127
-121
-119
-119
-118
-118
-118
-118
-117
-118
-117
-114
-111
-110
-110
-108
-108
-118
-130
-119
-80
-30
4
-4
-45
-72
-75
-80
-82
-81
-92
-84
-62
-86
-107
-165
-276
275
1833
2611
1131
-751
-877
-164
-56
-197
-132
-107
-139
-107
-94
-103
-79
-58
-50
-32
-16
-5
16
37
55
82
118
157
196
232
265
291
316
334
323
270
190
103
18
-56
-109
-144
-166
-178
-178
-174
-175
-177
-173
-166
-156
-143
-132
-124
-115
-108
-108
-106
-104
-107
-111
-106
-101
-100
-100
-97
-95
-95
-95
-96
-96
-92
-92
-102
-111
-92
-49
-5
11
-14
-55
-72
-76
-79
-67
-64
-75
-56
-52
-89
-93
-187
-173
820
2348
2171
100
-1167
-648
-51
-111
-150
-73
-105
-113
-69
-74
-77
-49
-39
-37
-21
-4
15
36
58
85
120
157
194
236
278
312
335
358
369
338
262
170
76
-13
-86
-134
-163
-179
-187
-193
-197
-194
-188
-181
-173
-164
-151
-138
-129
-124
-122
-119
-117
-116
-116
-114
-112
-113
-115
-117
-117
-116
-116
-115
-109
-102
-100
-101
-104
-114
-124
-112
-69
-16
10
-11
-50
-68
-73
-82
-75
-67
-81
-75
-59
-83
-101
-182
-222
582
2188
2531
734
-870
-673
-55
-92
-196
-107
-111
-134
-89
-84
-93
-68
-54
-51
-37
-21
-4
18
36
54
83
118
154
190
225
256
279
301
320
309
253
171
85
0
-74
-124
-153
-169
-177
-180
-181
-180
-176
-168
-160
-154
-149
-145
-139
-132
-129
-127
-121
-116
-114
-112
-110
-110
-109
-106
-104
-105
-105
-106
-112
-109
-96
-94
-110
-121
-106
-61
-7
13
-19
-64
-77
-76
-83
-80
-80
-91
-71
-56
-86
-105
-200
-182
781
2349
2342
365
-995
-584
-25
-124
-191
-101
-129
-144
-90
-85
-88
-59
-47
-46
-30
-16
-6
11
38
68
97
124
160
202
236
265
293
324
344
325
256
166
76
-12
-84
-127
-151
-167
-179
-184
-178
-166
-161
-165
-169
-158
-137
-127
-126
-119
-112
-116
-120
-112
-103
-98
-96
-95
-96
-99
-100
-96
-89
-86
-87
-83
-79
-84
-95
-96
-71
-22
11
-5
-49
-73
-78
-83
-81
-77
-92
-81
-54
-78
-85
-99
-194
278
1715
2425
914
-1010
-1124
-288
-41
-131
-77
-63
-101
-70
-52
-62
-42
-21
-18
-8
8
22
39
61
81
101
131
178
229
272
312
344
368
389
383
320
221
126
38
-51
-118
-145
-156
-171
-185
-191
-188
-181
-184
-185
-169
-152
-145
-135
-124
-119
-111
-102
-101
-100
-99
-110
-119
-111
-109
-124
-129
-119
-116
-115
-107
-114
-138
-138
-96
-40
-13
-31
-70
-92
-93
-98
-95
-83
-91
-94
-75
-86
-103
-148
-247
230
1689
2538
1218
-663
-881
-176
-45
-201
-135
-102
-148
-117
-92
-106
-90
-69
-67
-50
-31
-26
-16
6
30
63
107
144
175
222
270
292
302
320
322
286
221
137
47
-29
-87
-130
-147
-141
-138
-146
-149
-142
-136
-138
-137
-130
-129
-136
-128
-110
-113
-130
-128
-111
-104
-106
-107
-107
-106
-102
-91
-85
-96
-108
-100
-79
-51
-26
-35
-73
-93
-94
-101
-99
-86
-88
-77
-63
-90
-87
-107
-193
336
1757
2313
719
-1086
-1075
-257
-52
-139
-80
-66
-90
-58
-48
-55
-33
-16
-8
6
10
14
36
61
84
109
138
182
237
279
306
335
369
387
364
294
199
105
19
-59
-119
-151
-160
-166
-174
-174
-171
-171
-160
-144
-146
-154
-142
-127
-129
-125
-105
-95
-107
-117
-112
-105
-104
-106
-109
-112
-107
-99
-108
-128
-130
-98
-50
-18
-26
-62
-89
-97
-100
-94
-86
-94
-90
-71
-82
-89
-120
-185
311
1652
2277
895
-793
-823
-108
-27
-187
-117
-94
-139
-101
-75
-88
-66
-46
-50
-39
-19
-8
11
33
45
63
99
131
155
182
216
246
264
268
256
215
151
83
13
-57
-107
-132
-145
-152
-152
-150
-145
-136
-134
-138
-131
-118
-115
-119
-118
-113
-110
-108
-104
-102
-100
-99
-92
-88
-93
-94
-85
-89
-110
-114
-86
-38
1
-4
-48
-75
-72
-75
-78
-71
-84
-84
-61
-77
-89
-107
-188
267
1645
2374
996
-808
-904
-147
-14
-168
-106
-80
-120
-85
-65
-81
-62
-39
-36
-23
-4
10
25
42
59
80
102
126
157
191
222
242
260
277
275
235
164
82
2
-64
-112
-143
-159
-162
-159
-155
-148
-141
-141
-139
-134
-133
-132
-125
-120
-118
-116
-116
-116
-113
-111
-110
-110
-109
-103
-94
-99
-118
-123
-95
-44
-6
-11
-50
-80
-87
-88
-82
-77
-92
-90
-67
-85
-92
-99
-183
244
1618
2393
1030
-835
-970
-176
-6
-167
-113
-82
-123
-91
-66
-82
-69
-48
-42
-25
-2
7
10
28
59
82
104
137
164
180
207
240
260
274
276
240
171
98
30
-43
-105
-136
-147
-157
-164
-158
-152
-149
-140
-129
-125
-124
-121
-118
-111
-102
-98
-98
-105
-115
-117
-112
-113
-116
-113
-120
-138
-137
-104
-57
-20
-25
-62
-85
-87
-96
-99
-94
-103
-88
-63
-92
-108
-138
-208
348
1782
2341
764
-995
-950
-162
-33
-161
-91
-69
-110
-93
-80
-77
-51
-38
-33
-14
-6
-7
16
49
71
90
117
147
171
190
217
247
264
266
258
222
153
78
11
-50
-104
-144
-161
-165
-169
-168
-151
-132
-121
-121
-129
-135
-118
-78
-51
-74
-124
-130
-92
-78
-100
-111
-102
-99
-107
-111
-89
-37
0
-23
-74
-95
-97
-96
-79
-80
-100
-81
-69
-104
-100
-155
-164
678
2129
2106
179
-1136
-663
-13
-65
-151
-78
-94
-102
-53
-55
-74
-60
-44
-29
-14
-8
6
32
48
64
99
130
139
151
181
205
217
239
264
255
201
132
61
-15
-74
-111
-148
-174
-165
-148
-150
-147
-136
-130
-117
-103
-115
-120
-89
-76
-114
-140
-120
-106
-120
-136
-132
-112
-103
-104
-72
-25
-38
-96
-119
-113
-118
-119
-109
-105
-98
-111
-134
-115
-196
-208
681
2144
2084
162
-1100
-616
-5
-53
-106
-78
-178
-186
-100
-110
-125
-84
-77
-80
-41
-12
-15
-12
12
51
78
86
99
128
152
169
186
209
241
238
164
78
25
-34
-101
-127
-141
-184
-211
-185
-150
-145
-145
-130
-128
-143
-140
-119
-101
-85
-86
-121
-145
-125
-112
-127
-118
-67
-10
12
-21
-84
-123
-121
-105
-94
-95
-82
-58
-83
-111
-105
-238
-181
917
2322
1885
-124
-1055
-404
55
-114
-152
-57
-79
-81
-46
-51
-43
-23
-23
-16
5
25
47
64
76
94
115
140
166
184
201
228
251
266
279
268
215
141
72
12
-39
-74
-94
-110
-122
-111
-82
-70
-83
-88
-78
-75
-78
-74
-60
-46
-45
-58
-71
-76
-71
-50
-12
18
4
-50
-90
-101
-116
-126
-119
-120
-112
-107
-143
-143
-173
-312
123
1504
2147
642
-1218
-1304
-445
-125
-178
-151
-158
-195
-176
-175
-192
-173
-156
-163
-161
-150
-142
-128
-109
-94
-82
-60
-30
-4
11
20
