# session 14
-55
-28
-86
24
312
423
361
385
383
233
190
332
411
406
460
505
454
380
368
408
375
258
245
187
-17
523
1984
2269
393
-1273
-1075
-407
-393
-490
-418
-413
-416
-359
-329
-311
-285
-265
-211
-126
-68
-24
45
96
93
99
153
178
149
136
93
-35
-106
-64
-57
-87
-36
32
14
-46
-87
-127
-185
-225
-245
-271
-221
-164
-276
114
1578
2421
946
-1043
-1187
-400
-277
-437
-320
-234
-269
-245
-184
-107
0
56
63
108
176
226
291
353
370
396
457
466
416
396
398
361
315
300
298
300
322
338
304
243
197
98
-64
-116
-92
-217
-371
-441
-595
-261
1108
1925
592
-1246
-1423
-691
-474
-536
-424
-359
-419
-435
-364
-299
-314
-331
-263
-208
-206
-113
23
6
-86
-77
-7
43
77
48
-44
-109
-145
-181
-163
-81
-15
11
4
-59
-143
-177
-161
-126
-136
-231
-265
-259
-480
-363
931
2129
1249
-660
-1208
-615
-330
-363
-248
-127
-111
-92
-23
70
119
110
139
210
246
306
446
558
599
666
743
726
660
638
613
539
471
438
391
293
158
38
-28
-81
-195
-334
-388
-337
-277
-305
-373
-369
-409
-426
265
1518
1544
-213
-1611
-1305
-521
-313
-348
-330
-318
-259
-178
-176
-194
-182
-172
-102
31
70
31
71
131
116
120
158
134
107
140
128
22
-72
-75
-22
-1
-33
-26
12
-64
-223
-292
-268
-233
-207
-208
-198
-234
-337
200
1725
2528
1226
-473
-676
-167
-50
-46
0
-121
-166
-10
-55
-434
-702
-543
-203
-32
-16
5
56
131
236
294
291
309
288
133
-25
-102
-211
-331
-336
-318
-362
-352
-270
-250
-279
-275
-277
-305
-301
-289
-266
-247
-325
-3
1289
2245
1102
-854
-1164
-283
64
-66
-34
7
-48
-53
-48
-59
-42
-33
-24
46
131
171
194
225
265
319
326
225
94
51
67
34
-46
-87
-70
-53
-46
-37
-55
-99
-134
-169
-202
-179
-123
-77
-47
-140
-62
975
2372
2059
75
-1062
-596
-87
-130
-134
-14
24
10
-11
21
124
165
121
122
186
248
276
250
196
155
111
57
11
-66
-181
-274
-331
-357
-327
-283
-299
-330
-323
-321
-333
-325
-323
-315
-283
-302
-334
-345
-421
-21
1370
2265
953
-1060
-1364
-548
-251
-361
-316
-258
-267
-241
-211
-186
-168
-177
-131
-27
2
-7
90
217
232
171
116
116
151
89
-91
-227
-246
-205
-135
-74
-56
-64
-87
-102
-87
-78
-64
-14
-7
-25
-40
-178
56
1373
2538
1599
-385
-920
-218
117
46
112
182
165
194
228
223
220
230
253
264
238
237
269
216
71
-18
-21
-40
-89
-125
-160
-206
-252
-291
-304
-277
-226
-201
-236
-283
-271
-259
-294
-281
-242
-265
-257
-290
-347
358
1776
1930
170
-1194
-879
-294
-290
-285
-155
-166
-181
-124
-117
-133
-112
-64
-8
-12
-68
-44
66
130
113
79
53
-11
-149
-295
-349
-323
-275
-212
-142
-109
-110
-105
-90
-83
-100
-106
-42
16
-2
0
-72
-168
566
2112
2396
631
-850
-597
46
113
98
196
206
216
251
216
180
204
224
227
242
193
48
-75
-120
-148
-155
-125
-125
-159
-172
-192
-250
-266
-218
-199
-223
-202
-169
-204
-235
-230
-269
-296
-241
-217
-224
-249
-347
115
1536
2232
729
-1158
-1268
-470
-210
-241
-154
-131
-151
-113
-90
-62
2
32
29
50
87
120
146
168
196
225
235
222
177
83
-32
-118
-153
-136
-98
-76
-42
-10
-70
-178
-198
-157
-135
-130
-139
-110
-88
-213
83
1408
2345
1125
-847
-1158
-350
-38
-86
20
68
37
83
111
108
148
152
117
155
227
234
207
206
227
251
229
138
35
-82
-270
-438
-438
-324
-252
-257
-264
-251
-267
-302
-309
-337
-372
-308
-258
-333
-352
-338
-209
742
2050
1668
-349
-1387
-773
-230
-290
-283
-206
-235
-193
-115
-126
-113
-39
-13
-18
31
92
103
105
121
121
134
186
196
112
18
-39
-88
-117
-126
-163
-195
-163
-122
-117
-113
-110
-115
-110
-133
-162
-167
-295
-212
880
2239
1823
-84
-995
-426
21
-86
-122
-57
-48
9
80
113
182
261
290
326
390
411
377
346
337
321
325
381
419
364
255
131
-33
-183
-220
-189
-175
-165
-158
-190
-236
-264
-288
-302
-318
-345
-371
-461
-326
648
1766
1209
-705
-1554
-864
-304
-363
-354
-243
-256
-248
-191
-181
-156
-97
-81
-76
-28
24
43
55
66
88
162
256
268
197
134
104
67
49
88
129
105
43
-24
-103
-174
-221
-235
-219
-252
-330
-365
-456
-337
720
1980
1465
-442
-1247
-608
-174
-273
-253
-173
-226
-231
-164
-128
-90
-36
-4
16
46
70
78
76
79
103
150
194
197
155
103
69
56
41
11
19
93
131
65
12
34
11
-55
-66
-100
-167
-230
-466
-417
822
2208
1574
-361
-1029
-358
44
-3
59
136
89
49
41
30
32
43
48
61
84
102
113
112
99
106
147
172
150
99
37
-19
-48
-54
-57
-57
-51
-53
-74
-106
-136
-169
-202
-200
-194
-226
-248
-354
-448
236
1577
1650
-134
-1480
-1086
-368
-286
-311
-226
-230
-234
-185
-165
-150
-116
-88
-67
-52
-34
-7
-4
-27
-24
21
69
83
49
-8
-53
-78
-75
-43
-8
13
23
8
-20
-25
-35
-67
-72
-74
-102
-146
-287
-209
776
1956
1496
-242
-960
-377
-30
-176
-175
-94
-125
-115
-74
-92
-95
-46
-12
-9
4
31
35
20
29
68
102
136
164
144
88
58
47
21
7
29
56
56
35
8
-20
-43
-33
-25
-64
-95
-210
-403
97
1512
2088
726
-711
-606
-12
17
-64
20
20
-12
21
30
19
29
28
13
12
15
10
2
-1
4
24
62
87
68
31
13
-3
-36
-55
-50
-38
-33
-48
-79
-97
-111
-126
-111
-109
-144
-166
-321
-493
129
1351
1291
-367
-1348
-761
-158
-224
-285
-210
-240
-258
-219
-221
-230
-206
-181
-157
-139
-130
-115
-106
-109
-87
-19
52
65
30
23
31
-16
-75
-67
-37
-32
-29
-34
-60
-80
-93
-84
-52
-55
-64
-132
-398
-272
922
1903
970
-679
-884
-155
53
-84
-38
-3
-48
-24
11
6
15
38
55
68
80
99
106
81
74
122
182
208
193
151
112
92
77
69
78
96
111
97
56
29
12
0
24
32
-5
-23
-206
-452
182
1581
1732
161
-889
-470
1
-80
-104
-26
-76
-104
-62
-50
-42
-18
-2
20
39
39
49
74
89
121
192
242
215
161
140
115
58
16
18
31
28
13
-5
-26
-67
-109
-104
-105
-149
-167
-317
-640
-302
939
1311
-147
-1437
-1061
-277
-180
-259
-184
-178
-193
-144
-119
-113
-84
-60
-45
-23
-11
-9
-6
-3
16
63
117
135
108
67
38
8
-34
-60
-49
-30
-36
-61
-81
-87
-109
-139
-126
-114
-141
-154
-297
-539
-90
1078
1217
-271
-1326
-820
-113
-72
-137
-76
-84
-80
-19
2
14
65
107
121
140
165
175
170
169
185
221
259
262
224
186
157
117
83
80
90
95
92
73
54
48
35
40
58
30
20
-38
-363
-396
634
1610
849
-673
-944
-304
-41
-90
-33
2
-17
5
12
3
33
61
70
90
115
127
136
146
162
198
237
231
184
147
120
70
19
9
21
25
24
16
-15
-48
-69
-95
-99
-93
-143
-177
-251
-572
-497
711
1655
592
-1117
-1275
-477
-168
-209
-155
-138
-158
-121
-99
-92
-60
-40
-25
10
40
52
59
63
85
135
176
174
128
63
18
1
-18
-41
-42
-21
-10
-27
-60
-79
-90
-118
-124
-100
-112
-134
-233
-494
-254
991
1756
565
-1064
-1122
-347
-105
-172
-117
-101
-130
-99
-72
-60
-27
5
32
59
71
82
99
96
87
119
169
171
117
54
3
-38
-57
-43
-19
-7
-4
-15
-35
-42
-54
-68
-43
-40
-77
-93
-262
-402
383
1716
1560
-186
-1126
-551
-14
-65
-92
-34
-62
-59
-25
-32
-25
4
16
31
60
82
94
93
89
112
159
181
152
89
37
20
11
-4
2
33
44
24
-2
-20
-51
-85
-81
-69
-92
-121
-294
-597
-206
1175
1853
665
-714
-696
-159
-114
-215
-179
-172
-175
-139
-128
-116
-76
-56
-45
-19
-2
6
20
24
28
72
127
119
66
40
35
10
-9
10
36
52
57
27
-14
-24
-41
-55
-36
-55
-96
-154
-421
-462
555
1698
1072
-632
-1151
-505
-146
-204
-176
-130
-148
-130
-113
-113
-84
-55
-38
1
45
67
77
86
97
130
184
204
150
69
30
23
-5
-33
-21
7
16
3
-25
-48
-66
-96
-102
-96
-136
-152
-227
-517
-341
889
1686
504
-1154
-1223
-407
-112
-166
-124
-113
-129
-84
-65
-66
-19
23
34
70
115
133
142
148
151
191
248
237
161
105
85
66
51
59
74
79
87
84
36
-21
-28
-10
-24
-72
-98
-100
-277
-455
249
1649
1747
38
-1177
-747
-112
-104
-140
-59
-77
-81
-44
-71
-79
-17
24
41
81
115
122
128
148
175
204
217
185
113
50
15
-14
-21
3
7
-8
13
17
-41
-80
-87
-113
-118
-107
-131
-172
-333
-422
386
1797
1781
-22
-1217
-765
-188
-232
-265
-171
-195
-204
-145
-133
-132
-92
-58
-40
-15
14
24
16
17
39
62
71
55
3
-63
-108
-141
-162
-148
-112
-88
-76
-86
-115
-129
-140
-161
-155
-148
-178
-226
-386
-405
499
1845
1644
-148
-1134
-613
-140
-235
-255
-174
-196
-185
-137
-135
-119
-80
-61
-37
0
26
36
32
30
56
103
133
118
73
34
9
-10
-6
26
49
44
32
10
-17
-36
-52
-50
-38
-56
-79
-178
-337
155
1567
2218
868
-708
-705
-93
-52
-151
-56
-44
-87
-58
-48
-54
-24
1
9
21
37
54
63
53
57
97
133
127
94
59
21
-19
-34
-15
9
19
20
6
-19
-38
-60
-75
-60
-63
-93
-147
-342
-335
580
1700
1300
-233
-831
-325
-65
-197
-180
-132
-194
-197
-155
-157
-154
-130
-117
-99
-72
-57
-54
-49
-34
6
55
74
56
31
9
-16
-32
-26
-7
5
14
12
-10
-44
-78
-105
-109
-114
-138
-175
-350
-515
71
1279
1430
54
-936
-565
-70
-132
-183
-90
-101
-118
-74
-67
-71
-40
-16
-5
9
19
19
8
2
29
88
129
119
71
31
14
-2
-26
-34
-25
-19
-21
-35
-64
-93
-116
-131
-121
-133
-165
-185
-371
-538
160
1390
1247
-383
-1212
-558
20
-34
-63
14
-7
-3
44
51
64
100
121
137
161
173
172
166
169
199
243
261
228
166
119
94
68
46
44
53
61
57
25
-13
-29
-51
-62
-40
-62
-97
-129
-408
-549
417
1682
1178
-554
-1102
-410
-42
-131
-102
-61
-98
-69
-34
-48
-26
18
32
46
74
79
63
53
66
103
146
149
100
38
0
-26
-54
-72
-65
-48
-40
-42
-59
-81
-91
-97
-88
-64
-67
-73
-167
-440
-245
950
1757
707
-825
-915
-218
-18
-100
-51
-40
-80
-61
-47
-57
-49
-33
-21
0
23
38
35
18
22
61
92
79
31
-23
-57
-65
-68
-78
-77
-59
-41
-44
-73
-103
-120
-142
-151
-132
-146
-169
-220
-474
-493
481
1544
928
-695
-1181
-532
-145
-188
-175
-141
-159
-137
-107
-101
-79
-50
-30
-3
26
50
66
63
63
101
153
174
156
116
78
62
55
39
36
56
77
82
64
33
16
-1
-12
11
11
-15
-46
-285
-434
461
1822
1538
-252
-1106
-522
-37
-69
-60
-4
-27
-15
15
19
48
89
110
137
171
189
192
183
175
199
246
253
199
126
70
38
28
21
8
6
19
27
12
-18
-38
-56
-86
-86
-69
-96
-122
-245
-529
-211
1147
1893
646
-928
-966
-316
-181
-253
-196
-198
-219
-164
-134
-130
-86
-34
-1
33
66
80
70
52
55
91
120
102
44
-20
-70
-99
-112
-118
-117
-109
-95
-90
-117
-150
-165
-185
-198
-182
-194
-217
-267
-489
-401
725
1814
1034
-738
-1200
-492
-134
-208
-173
-125
-157
-135
-95
-84
-54
-17
0
24
59
82
83
72
72
97
124
117
74
21
-21
-49
-66
-70
-57
-42
-33
-19
-11
-32
-55
-66
-71
-49
-34
-57
-74
-215
-354
329
1690
1842
284
-880
-594
-109
-120
-146
-74
-88
-93
-54
-46
-39
-9
14
35
62
86
98
95
85
93
125
151
136
80
18
-11
-13
-18
-24
-13
6
17
19
11
-7
-30
-54
-46
-26
-58
-88
-175
-471
-331
954
2052
1194
-473
-823
-259
-87
-180
-129
-109
-139
-101
-71
-75
-54
-30
-15
10
25
33
50
58
54
84
133
135
77
12
-20
-31
-45
-55
-43
-21
-10
0
0
-29
-58
-72
-84
-74
-70
-101
-112
-248
-511
-38
1380
1843
315
-1151
-960
-275
-166
-209
-140
-147
-162
-121
-108
-101
-66
-38
-13
25
53
59
52
37
44
85
117
98
39
-22
-59
-71
-81
-92
-89
-71
-56
-50
-65
-93
-108
-121
-145
-136
-123
-154
-184
-325
-504
73
1393
1607
32
-1225
-875
-205
-144
-192
-113
-100
-96
-41
-11
5
34
58
86
125
156
170
159
136
146
193
222
195
133
80
51
31
9
7
31
51
54
50
25
-11
-24
-31
-39
-31
-44
-75
-159
-402
-292
832
1888
1164
-457
-878
-306
-73
-162
-120
-87
-119
-93
-64
-56
-17
19
29
52
79
83
76
64
58
87
128
123
74
28
-4
-29
-47
-53
-45
-29
-18
-11
-12
-37
-65
-86
-118
-122
-97
-128
-169
-244
-525
-422
814
1897
998
-744
-1081
-395
-124
-195
-143
-118
-158
-134
-102
-99
-79
-59
-56
-40
-7
10
-5
-27
-23
3
