# session 13
-13
-13
-14
19
47
3
-75
-121
-143
-157
-148
-124
-112
-111
-105
-99
-105
-109
-90
-63
-45
-35
-57
-98
-110
-114
-130
-107
-87
-121
-141
-294
-520
67
1487
1779
196
-1112
-813
-164
-93
-138
-66
-61
-72
-36
-14
-1
25
51
86
136
178
200
219
234
231
218
213
190
128
58
3
-47
-83
-84
-75
-74
-67
-53
-51
-58
-63
-72
-76
-67
-53
-41
-40
-72
-108
-112
-111
-111
-91
-101
-123
-174
-397
-298
845
1932
1131
-652
-1114
-409
-57
-130
-94
-48
-79
-61
-34
-34
-6
30
47
80
131
166
185
190
175
163
167
155
110
55
8
-42
-86
-103
-101
-94
-81
-73
-79
-85
-82
-86
-93
-81
-54
-39
-43
-60
-81
-92
-101
-110
-87
-71
-101
-124
-260
-447
135
1538
1880
324
-1032
-759
-112
-77
-143
-60
-61
-82
-43
-29
-24
10
44
73
110
145
176
194
188
176
174
166
132
79
23
-23
-60
-87
-102
-105
-95
-80
-73
-75
-76
-78
-92
-110
-112
-94
-74
-63
-64
-90
-118
-122
-127
-133
-111
-117
-150
-203
-413
-364
710
1877
1228
-574
-1159
-475
-96
-197
-168
-90
-130
-136
-95
-97
-111
-81
-5
70
97
104
134
156
139
132
155
154
106
61
49
49
42
37
49
65
68
82
118
120
80
79
103
69
26
35
35
18
39
28
-68
-127
-123
-184
-245
-188
-150
-181
-249
-515
-522
582
1797
1133
-688
-1244
-499
-77
-189
-178
-115
-204
-204
-87
-65
-38
115
199
172
202
269
289
314
328
246
105
20
0
-81
-268
-413
-453
-467
-368
-102
62
41
65
47
-127
-139
27
10
-88
-37
-8
-29
94
263
244
87
63
216
203
-4
28
109
-80
418
1855
2052
113
-1471
-1147
-334
-134
-149
-127
-128
-46
58
50
34
116
215
208
83
-14
19
80
107
179
270
297
286
253
166
92
107
107
-27
-122
27
184
96
-14
-8
-74
-155
-74
16
-41
-153
-233
-265
-273
-341
-459
-497
-441
-422
-416
-361
-437
-410
469
1564
1008
-876
-1730
-1114
-505
-376
-296
-228
-218
-175
-119
-48
42
41
-18
81
311
413
370
361
382
370
375
364
273
217
234
142
-59
-111
9
55
-13
-50
-78
-152
-164
-92
-77
-160
-218
-202
-209
-260
-237
-155
-186
-283
-225
-72
-36
-2
169
142
-86
456
1890
2331
840
-681
-681
-78
98
88
178
265
284
249
244
287
268
235
299
341
309
351
430
389
293
252
227
149
13
-98
-125
-168
-253
-215
-97
-133
-265
-294
-271
-272
-220
-180
-265
-298
-173
-168
-298
-211
-64
-198
-295
-175
-212
-302
-240
-382
-162
1278
2279
902
-1152
-1460
-700
-328
-277
-292
-421
-473
-405
-372
-326
-260
-296
-375
-350
-242
-161
-154
-162
-108
-46
-67
-111
-89
-47
-45
-84
-169
-259
-257
-194
-177
-139
-27
0
-82
-78
-7
-2
40
134
106
7
-36
-107
-177
-131
-79
-77
-115
-183
308
1636
2231
838
-877
-1006
-278
23
21
73
102
127
171
159
165
211
177
139
239
378
452
479
435
342
292
267
227
203
187
138
65
-9
-50
-25
29
39
2
-39
-44
33
162
219
168
119
92
-6
-106
-100
-125
-233
-221
-149
-185
-189
-227
-186
925
2769
2837
740
-728
-523
-156
-69
172
258
155
213
221
81
94
154
93
180
382
322
133
151
213
101
-15
-7
-23
-187
-391
-460
-446
-515
-572
-481
-419
-456
-415
-431
-680
-841
-779
-855
-1014
-931
-787
-745
-629
-517
-513
-441
-350
-351
-394
-498
-88
1444
2533
1209
-1066
-1606
-753
-233
-243
-369
-565
-612
-394
-268
-385
-460
-368
-252
-177
-128
-86
27
178
232
232
274
286
242
226
247
298
362
314
148
53
117
250
338
377
478
620
642
577
526
417
293
330
455
466
331
155
9
-205
-227
704
2023
1701
-251
-1368
-855
-218
-150
-162
-97
-78
-100
-130
-118
-97
-143
-167
-100
-42
-11
45
112
174
178
96
55
70
-16
-117
-64
-82
-385
-592
-253
324
460
110
-231
-340
-351
-347
-300
-240
-252
-308
-317
-324
-353
-279
-202
-285
-342
-352
-232
855
2552
2501
439
-790
-291
83
-103
37
269
225
281
439
410
320
294
283
315
367
406
509
579
491
433
433
219
-110
-217
-201
-305
-460
-526
-506
-463
-436
-419
-392
-349
-308
-298
-293
-279
-322
-399
-413
-451
-590
-579
-319
-263
-583
-746
-626
-432
495
2169
2524
697
-1006
-953
-277
-108
-214
-301
-366
-359
-337
-366
-362
-319
-300
-262
-177
-141
-172
-146
-33
44
18
-21
-8
-1
-33
-36
22
66
46
1
-32
-37
8
95
196
296
356
355
320
255
195
197
229
243
242
244
265
194
178
899
2065
1923
242
-885
-629
-265
-349
-378
-302
-293
-236
-131
-103
-97
-21
38
9
19
156
288
324
357
415
412
305
115
-61
-94
-41
-81
-178
-158
-62
-35
-43
5
35
-37
-149
-192
-153
-156
-284
-390
-363
-360
-417
-406
-434
-562
-638
-633
-193
1046
1869
842
-842
-1183
-547
-240
-293
-247
-80
53
56
8
56
157
245
335
355
325
390
469
439
444
534
523
397
282
152
-7
-120
-200
-280
-319
-349
-416
-434
-367
-325
-347
-342
-275
-221
-261
-346
-380
-391
-411
-411
-461
-535
-464
-451
-462
464
2134
2291
412
-1004
-749
-180
-71
-69
-118
-182
-82
2
-80
-150
-136
-107
-77
-67
-16
123
166
62
60
130
14
-135
-70
42
73
157
234
124
-6
81
286
487
728
885
796
629
526
379
221
209
249
225
212
199
150
111
-12
111
1234
2460
1659
-619
-1612
-967
-471
-543
-557
-511
-571
-620
-549
-320
-73
-9
-38
-10
-3
-33
-16
8
-9
-20
-22
-60
-138
-188
-163
-170
-317
-435
-359
-245
-247
-243
-165
-116
-103
-53
-30
-98
-162
-148
-152
-245
-309
-267
-206
-195
-338
-557
-44
1466
2179
747
-1027
-1162
-494
-291
-286
-165
-118
-91
-15
32
120
236
239
233
334
406
422
515
616
609
616
705
701
540
410
397
352
199
43
-59
-139
-180
-167
-167
-226
-289
-313
-321
-348
-393
-413
-385
-354
-341
-342
-378
-382
-368
-419
-3
1272
1985
698
-1148
-1450
-707
-320
-308
-287
-312
-331
-211
-67
-46
-91
-88
-27
55
139
210
256
280
275
265
275
255
158
27
-76
-160
-273
-396
-426
-356
-326
-351
-275
-131
-101
-124
-56
-8
-56
-66
-33
-40
-4
63
37
49
134
197
797
2079
2386
816
-676
-549
94
219
240
355
267
47
-78
-105
-87
-79
-126
-166
-123
-31
51
110
132
75
-32
-67
-1
17
-115
-273
-306
-268
-279
-296
-245
-199
-183
-115
-40
-46
-60
-42
-50
-69
-78
-82
-30
19
-14
-35
-144
-213
653
2156
2061
26
-1324
-913
-336
-343
-344
-258
-257
-190
-123
-216
-273
-158
-25
68
181
271
334
426
479
457
418
322
157
81
125
121
53
57
101
73
58
141
204
197
223
225
57
-144
-192
-227
-381
-491
-452
-406
-445
-511
-618
-609
108
1404
1631
16
-1560
-1467
-643
-314
-296
-237
-211
-229
-251
-255
-197
-138
-120
-72
1
56
131
217
229
164
129
199
250
100
-133
-177
-102
-147
-229
-170
-81
-112
-184
-184
-149
-155
-182
-185
-173
-160
-149
-145
-114
-60
-49
-10
16
-148
159
1685
2907
1783
-339
-814
-25
276
105
139
271
334
405
449
421
399
410
397
346
288
231
195
190
178
142
104
33
-101
-226
-283
-337
-436
-489
-426
-357
-379
-417
-417
-421
-394
-312
-300
-370
-352
-276
-303
-305
-195
-219
-346
-393
-486
-54
1615
2822
1457
-828
-1273
-486
-207
-268
-127
-64
-168
-206
-168
-139
-121
-107
-95
-82
-63
-6
89
142
143
161
167
86
2
-20
-108
-303
-424
-361
-192
-49
-14
-25
54
177
201
179
235
298
262
197
220
279
245
183
196
114
69
769
1871
1678
45
-1024
-739
-305
-359
-462
-434
-403
-348
-278
-273
-289
-260
-234
-218
-108
55
106
82
98
86
21
24
83
69
-21
-113
-167
-159
-95
-65
-126
-169
-70
63
41
-56
-35
41
28
-26
-70
-116
-113
-88
-110
-200
-359
-105
1095
2066
1128
-691
-1185
-594
-317
-346
-256
-207
-210
-120
-42
-38
-9
65
141
232
346
422
424
441
537
629
626
563
514
473
374
268
264
267
139
6
-14
-67
-227
-326
-285
-257
-352
-466
-464
-401
-404
-440
-427
-430
-467
-455
-382
56
1146
1809
675
-1163
-1534
-706
-294
-383
-299
-137
-152
-204
-176
-122
-79
-39
12
64
97
130
191
262
286
258
232
218
158
57
-13
-55
-123
-186
-190
-189
-253
-325
-319
-256
-207
-185
-183
-193
-191
-179
-153
-90
-69
-111
-65
-53
-127
522
1977
2302
659
-778
-542
143
294
319
387
310
230
253
269
271
324
386
362
251
161
125
49
-66
-92
-34
-20
-78
-154
-236
-316
-362
-391
-441
-473
-433
-360
-306
-250
-189
-163
-191
-222
-214
-224
-258
-222
-173
-192
-233
-381
-258
1040
2652
2208
47
-1036
-528
-95
-154
-139
-47
-39
-62
-52
-4
-20
-108
-104
-43
-68
-96
-75
-76
-30
74
62
-39
-1
67
-126
-398
-380
-226
-215
-196
-49
37
17
23
70
102
97
62
36
7
-21
0
1
-54
-75
-185
-141
905
2291
1854
-137
-1070
-538
-163
-218
-173
-229
-447
-514
-467
-418
-297
-145
-65
-56
-76
-31
123
233
185
127
182
238
188
68
-46
-109
-118
-121
-140
-146
-137
-115
-47
52
109
87
2
-86
-119
-112
-99
-104
-159
-192
-188
-285
-63
1105
2141
1291
-557
-1130
-491
-88
-94
-63
-28
-27
0
4
7
48
63
73
138
181
166
196
274
293
261
261
271
224
115
1
-63
-89
-123
-152
-168
-189
-192
-181
-205
-229
-209
-205
-226
-218
-226
-256
-257
-297
-354
-339
-370
-108
1055
2077
1226
-601
-1158
-548
-190
-222
-222
-245
-286
-238
-182
-162
-123
-80
-71
-76
-35
82
196
222
240
326
309
111
14
130
165
28
-75
-114
-153
-132
-67
-49
-62
-40
-5
-50
-177
-227
-183
-206
-300
-366
-372
-312
-337
-205
945
2519
2271
204
-1020
-572
-35
-81
-148
-53
48
101
99
142
280
390
429
456
430
345
293
267
223
211
209
124
-8
-127
-258
-343
-282
-160
-144
-221
-267
-279
-321
-325
-247
-227
-292
-301
-310
-396
-373
-272
-309
-359
-411
-431
465
2176
2378
376
-1189
-915
-316
-299
-342
-287
-293
-296
-299
-292
-215
-178
-229
-228
-135
-16
85
107
88
156
240
201
120
62
-39
-148
-190
-188
-153
-94
-69
-56
21
138
197
159
110
108
83
47
113
174
121
104
48
7
814
2232
2154
260
-926
-456
20
-177
-311
-243
-251
-261
-224
-217
-221
-199
-150
-82
-32
-25
-15
38
109
144
125
67
-12
-79
-101
-109
-154
-211
-216
-192
-191
-176
-141
-150
-157
-83
-27
-84
-158
-154
-131
-172
-180
-156
-304
-124
1187
2455
1642
-357
-1051
-482
-168
-247
-258
-269
-301
-278
-295
-351
-355
-324
-283
-212
-117
-21
45
61
63
118
210
233
177
163
183
126
53
58
34
-41
6
196
335
328
258
231
248
205
103
100
184
166
86
-4
-164
127
1259
1890
738
-820
-1012
-460
-298
-340
-295
-331
-402
-405
-426
-447
-396
-315
-243
-177
-122
-65
-8
22
32
28
10
8
10
-13
-1
63
57
-38
-66
31
122
113
61
35
32
12
-44
-113
-146
-145
-180
-226
-216
-331
-468
226
1640
1812
96
-1320
-1083
-426
-336
-381
-261
-169
-141
-98
-43
6
50
105
191
290
353
375
404
450
482
512
542
517
446
406
385
313
220
202
270
309
247
188
235
236
-2
-294
-331
-210
-184
-239
-297
-333
-350
-462
-337
640
1608
889
-855
-1454
-846
-433
-435
-399
-366
-382
-338
-308
-317
-236
-102
-79
-127
-52
119
178
154
240
329
242
155
182
100
-83
-70
89
93
-52
-160
-179
-154
-126
-119
-130
-172
-247
-345
-458
-469
-350
-325
-388
-363
-414
-206
1055
2329
1607
-285
-921
-380
-126
-144
28
83
-61
-58
75
115
112
183
257
284
347
442
471
464
492
517
504
448
298
105
13
-19
-111
-191
-179
-176
-218
-208
-170
-179
-197
-211
-268
-339
-370
-325
-247
-287
-353
-276
-347
-286
930
2360
1616
-632
-1503
-831
-379
-380
-303
-260
-276
-211
-192
-234
-197
-126
-92
-62
-32
10
77
121
133
148
112
-6
-107
-162
-243
-313
-297
-284
-338
-344
-239
-100
61
204
186
70
91
188
194
206
250
209
96
-106
-32
1113
2539
2078
33
-962
-372
180
174
147
181
175
160
71
-80
-161
-155
-118
-77
-61
-56
-1
91
144
143
120
70
-7
-80
-115
-118
-153
-240
-281
-226
-168
-141
-95
-81
-136
-151
-110
-133
-178
-146
-148
-201
-183
-277
-326
580
2039
1945
124
-1037
-712
-306
-386
-435
-377
-368
-346
-331
-374
-425
-424
-352
-277
-263
-241
-170
-103
-4
127
171
141
152
184
174
143
115
82
61
98
203
303
335
338
343
331
319
320
322
306
264
254
214
-3
176
1402
2348
1222
-743
-1191
-525
-319
-495
-448
-342
-337
-286
-221
-269
-339
-283
-155
-89
-91
-80
-13
76
116
115
138
141
52
-58
-107
-142
-189
-193
-181
-208
-197
-132
-123
-177
-222
-264
-273
-205
-135
-160
-268
-325
-360
-546
-364
858
1903
994
-853
-1418
-895
-629
-654
-542
-416
-401
-389
-292
-157
-115
-128
-66
6
42
143
262
301
343
395
387
411
489
468
352
290
302
310
266
234
282
308
238
219
301
323
260
207
131
5
-73
-124
-223
-186
146
