# session 16
3
-45
22
156
-30
-386
-223
284
431
325
343
376
345
349
362
353
371
402
424
472
546
611
658
684
677
651
605
505
378
280
204
125
70
40
3
-34
-47
-45
-42
-42
-43
-36
-26
-30
-40
-39
-41
-54
-69
-81
-95
-107
-120
-133
-138
-131
-117
-99
-86
-91
-122
-153
-146
-134
-147
-132
-117
-157
-167
-248
-340
440
2020
2172
150
-1432
-1050
-282
-203
-228
-141
-164
-176
-123
-112
-99
-53
-21
12
77
152
230
302
338
341
334
304
225
120
32
-37
-99
-150
-186
-215
-233
-234
-224
-212
-201
-186
-169
-157
-152
-149
-148
-151
-156
-160
-165
-170
-174
-175
-174
-178
-191
-199
-194
-175
-144
-115
-102
-106
-126
-145
-134
-120
-130
-117
-93
-119
-141
-223
-270
522
2096
2352
455
-1154
-869
-155
-133
-205
-107
-109
-127
-74
-59
-56
-13
27
65
124
192
266
342
390
403
398
369
300
204
113
37
-27
-77
-112
-136
-153
-165
-170
-163
-142
-118
-97
-81
-72
-68
-66
-60
-58
-63
-68
-73
-79
-81
-80
-85
-92
-96
-107
-122
-120
-98
-67
-37
-19
-24
-46
-68
-66
-53
-63
-64
-39
-56
-92
-165
-287
231
1788
2633
1151
-856
-1051
-268
-79
-199
-122
-86
-118
-78
-44
-37
-4
29
57
113
179
249
330
394
418
419
400
340
243
142
60
-7
-68
-117
-149
-170
-183
-193
-193
-173
-152
-147
-138
-114
-104
-107
-97
-87
-98
-112
-112
-109
-110
-112
-116
-116
-115
-117
-117
-108
-101
-104
-104
-98
-97
-99
-95
-88
-79
-76
-75
-71
-68
-69
-67
-61
-58
-56
-51
-49
-53
-54
-48
-45
-49
-52
-46
-44
-46
-47
-45
-45
-46
-51
-56
-48
-15
29
50
41
29
28
19
-18
-50
-41
-38
-58
-37
-29
-78
-96
-187
-164
866
2467
2306
145
-1224
-742
-137
-175
-194
-106
-131
-129
-77
-72
-56
-11
16
48
103
161
224
296
353
379
378
357
313
243
156
78
23
-17
-56
-94
-125
-140
-143
-141
-134
-124
-114
-105
-94
-85
-83
-85
-89
-93
-99
-106
-115
-121
-126
-134
-140
-141
-141
-141
-141
-141
-139
-136
-135
-136
-134
-129
-127
-133
-132
-110
-74
-44
-31
-23
-19
-31
-61
-96
-115
-103
-95
-107
-87
-73
-114
-145
-241
-181
882
2465
2286
138
-1217
-734
-137
-190
-215
-118
-137
-136
-83
-74
-60
-15
20
57
117
188
271
357
421
451
453
424
354
247
137
48
-22
-81
-128
-161
-185
-202
-211
-213
-203
-184
-163
-147
-133
-122
-116
-115
-113
-110
-111
-117
-123
-123
-121
-123
-128
-130
-127
-122
-113
-106
-105
-104
-96
-92
-100
-111
-113
-93
-53
-22
-12
-3
4
-13
-49
-86
-107
-98
-90
-104
-88
-74
-118
-148
-246
-259
714
2416
2499
370
-1223
-858
-187
-195
-234
-128
-131
-135
-84
-73
-59
-16
17
57
118
190
279
382
462
501
511
486
412
302
191
98
15
-59
-113
-143
-163
-182
-201
-201
-177
-158
-161
-156
-132
-122
-130
-127
-114
-109
-110
-112
-117
-123
-126
-125
-123
-125
-130
-126
-119
-117
-113
-108
-111
-117
-108
-72
-29
-10
-17
-24
-27
-42
-72
-99
-98
-92
-102
-87
-70
-105
-122
-212
-310
462
2121
2460
501
-1263
-1059
-288
-161
-193
-110
-117
-121
-67
-54
-46
-7
21
51
110
178
255
348
431
481
495
469
400
296
182
81
-2
-68
-115
-147
-169
-185
-193
-193
-183
-168
-156
-143
-131
-123
-116
-111
-110
-112
-115
-119
-124
-129
-132
-137
-139
-137
-133
-132
-131
-132
-132
-130
-131
-138
-133
-105
-71
-51
-39
-27
-27
-49
-84
-112
-112
-98
-108
-111
-88
-105
-138
-193
-284
238
1776
2644
1210
-832
-1122
-369
-144
-249
-180
-136
-161
-122
-89
-84
-53
-20
10
64
130
200
290
383
448
480
480
437
347
233
125
38
-34
-89
-123
-144
-162
-176
-186
-190
-186
-171
-154
-140
-128
-116
-105
-100
-101
-105
-108
-110
-113
-117
-121
-123
-131
-142
-142
-124
-92
-61
-50
-63
-88
-110
-112
-101
-109
-114
-86
-92
-129
-188
-295
113
1571
2630
1426
-711
-1202
-424
-108
-226
-172
-116
-149
-114
-75
-79
-51
-7
20
63
127
205
308
410
471
492
483
428
323
203
98
7
-69
-125
-164
-190
-205
-212
-221
-228
-224
-211
-196
-179
-162
-152
-149
-150
-150
-146
-140
-141
-148
-152
-158
-173
-179
-165
-140
-107
-75
-70
-92
-116
-129
-123
-121
-136
-125
-106
-136
-164
-261
-318
516
2186
2498
541
-1181
-953
-230
-187
-254
-149
-143
-162
-116
-98
-87
-42
-5
31
90
166
258
360
450
509
528
504
427
304
179
87
10
-65
-118
-143
-158
-167
-173
-179
-179
-175
-172
-162
-150
-145
-137
-123
-123
-133
-131
-123
-128
-131
-122
-125
-141
-148
-140
-116
-79
-62
-78
-104
-122
-118
-99
-102
-104
-81
-99
-126
-149
-287
27
1453
2536
1302
-896
-1392
-558
-153
-200
-135
-91
-123
-93
-61
-58
-25
17
53
110
181
262
362
459
522
550
544
490
383
253
137
45
-37
-107
-150
-168
-181
-196
-204
-203
-196
-184
-170
-156
-143
-139
-142
-139
-133
-136
-142
-145
-157
-176
-180
-162
-135
-108
-95
-102
-123
-143
-140
-127
-136
-137
-112
-120
-141
-193
-286
194
1630
2425
1014
-963
-1199
-387
-125
-232
-170
-122
-146
-111
-81
-78
-38
5
24
63
129
209
304
395
455
480
471
410
305
194
99
11
-65
-119
-152
-166
-172
-182
-192
-192
-192
-195
-187
-169
-155
-143
-136
-136
-135
-132
-139
-150
-144
-118
-86
-67
-71
-95
-126
-142
-128
-118
-129
-116
-102
-129
-145
-222
-205
679
2153
2119
103
-1339
-899
-178
-164
-218
-123
-130
-140
-90
-79
-74
-35
-3
34
98
170
254
352
430
469
480
456
374
256
146
55
-27
-94
-134
-153
-161
-165
-168
-174
-178
-176
-168
-155
-142
-136
-134
-128
-125
-138
-149
-139
-112
-79
-54
-53
-75
-107
-127
-118
-115
-129
-113
-98
-129
-154
-238
-181
767
2175
1952
-96
-1335
-752
-90
-151
-203
-101
-116
-122
-67
-59
-55
-18
11
43
100
170
256
349
420
457
463
429
346
232
119
27
-46
-105
-147
-174
-190
-202
-209
-210
-204
-195
-182
-168
-158
-151
-139
-138
-154
-161
-145
-122
-98
-78
-75
-97
-133
-155
-144
-140
-155
-136
-122
-164
-224
-365
-277
847
2316
1898
-262
-1362
-706
-136
-231
-248
-151
-172
-163
-108
-101
-84
-38
0
50
122
196
281
371
435
464
464
422
333
222
119
30
-51
-116
-153
-167
-173
-183
-194
-195
-181
-164
-153
-145
-135
-129
-129
-127
-129
-141
-150
-141
-117
-89
-70
-66
-82
-116
-132
-115
-116
-131
-102
-89
-123
-167
-339
-264
938
2405
1813
-440
-1457
-730
-130
-161
-151
-85
-113
-90
-47
-54
-33
21
55
92
160
246
339
427
493
529
530
489
403
290
182
89
6
-64
-109
-133
-154
-167
-164
-152
-141
-133
-129
-127
-124
-120
-122
-127
-128
-130
-146
-165
-168
-156
-138
-120
-110
-115
-134
-157
-157
-147
-158
-155
-133
-153
-171
-221
-315
226
1700
2346
765
-1139
-1198
-360
-139
-232
-160
-130
-157
-118
-93
-94
-60
-21
10
64
134
212
302
384
431
448
439
389
290
177
84
8
-61
-114
-144
-161
-176
-188
-189
-179
-167
-156
-144
-130
-117
-108
-107
-114
-118
-123
-144
-166
-161
-136
-109
-87
-81
-98
-129
-150
-144
-130
-142
-140
-115
-135
-170
-249
-340
286
1881
2553
899
-1037
-1086
-302
-158
-262
-173
-151
-183
-135
-107
-110
-69
-16
21
69
137
223
318
400
455
481
468
412
314
201
107
31
-46
-113
-144
-148
-151
-161
-164
-154
-150
-157
-151
-134
-123
-112
-103
-109
-115
-108
-100
-95
-91
-101
-120
-131
-133
-129
-116
-96
-80
-71
-64
-71
-93
-96
-81
-89
-86
-60
-84
-104
-134
-261
145
1565
2379
945
-1078
-1337
-503
-149
-172
-108
-87
-108
-67
-43
-43
-10
28
55
97
159
236
322
397
442
462
461
421
334
224
124
43
-27
-82
-116
-136
-150
-159
-157
-151
-146
-138
-126
-117
-113
-109
-100
-94
-94
-99
-106
-112
-121
-133
-145
-152
-143
-119
-97
-89
-91
-107
-129
-129
-117
-123
-121
-100
-100
-113
-161
-174
383
1557
1863
416
-1045
-913
-191
-77
-180
-102
-77
-108
-74
-53
-57
-34
-10
7
43
92
148
216
280
317
329
325
294
222
133
60
3
-47
-83
-103
-115
-127
-137
-144
-147
-145
-137
-123
-109
-100
-96
-93
-89
-84
-81
-82
-85
-89
-97
-108
-115
-114
-101
-78
-60
-53
-58
-79
-93
-79
-70
-78
-68
-63
-85
-96
-145
-1
891
1913
1372
-434
-1212
-537
-23
-118
-137
-48
-71
-73
-32
-33
-30
-6
5
35
100
169
234
307
368
400
407
390
334
245
150
72
11
-41
-80
-101
-111
-120
-127
-128
-129
-129
-126
-119
-116
-118
-120
-118
-115
-111
-110
-112
-114
-120
-135
-150
-151
-135
-109
-85
-73
-75
-89
-104
-101
-92
-99
-94
-81
-100
-105
-138
-177
363
1533
1728
130
-1287
-975
-167
-61
-158
-73
-56
-83
-42
-23
-25
5
30
48
90
150
221
303
372
406
415
402
356
274
180
99
29
-32
-78
-108
-128
-135
-132
-129
-125
-115
-103
-96
-98
-101
-103
-103
-104
-104
-103
-103
-106
-112
-121
-131
-139
-137
-118
-93
-80
-80
-90
-111
-114
-99
-103
-100
-80
-94
-102
-105
-177
168
1286
1813
450
-1234
-1207
-291
-17
-132
-74
-34
-67
-34
-2
-5
18
51
76
116
170
232
306
374
415
429
425
393
320
220
127
54
-9
-60
-94
-117
-128
-125
-116
-108
-101
-96
-97
-98
-97
-95
-96
-100
-104
-104
-107
-115
-126
-135
-140
-135
-112
-86
-75
-74
-80
-99
-106
-92
-93
-94
-76
-90
-103
-104
-192
78
1156
1787
527
-1222
-1287
-335
4
-112
-67
-21
-55
-29
0
-4
21
53
71
109
168
234
309
378
422
440
436
402
331
237
146
70
3
-55
-96
-123
-138
-135
-121
-110
-102
-95
-91
-89
-87
-86
-88
-91
-95
-104
-114
-125
-137
-147
-145
-119
-86
-75
-82
-98
-121
-123
-108
-116
-119
-96
-110
-123
-129
-228
67
1197
1804
466
-1271
-1267
-321
-31
-152
-94
-54
-95
-70
-42
-45
-18
19
42
80
134
195
266
334
372
377
365
335
267
181
111
45
-34
-94
-118
-135
-156
-157
-135
-115
-109
-106
-96
-83
-80
-80
-78
-82
-93
-98
-99
-105
-116
-117
-99
-73
-69
-85
-95
-103
-108
-101
-107
-106
-78
-95
-118
-88
-171
-23
1041
1998
986
-1077
-1657
-791
-184
-107
-42
-10
-43
-14
23
30
59
100
132
180
243
316
400
482
541
571
569
531
451
340
225
125
39
-35
-91
-127
-145
-148
-139
-130
-123
-117
-110
-106
-103
-107
-114
-118
-123
-135
-148
-157
-156
-139
-120
-115
-123
-140
-154
-147
-138
-147
-138
-124
-145
-158
-221
-250
381
1533
1501
-192
-1387
-886
-129
-89
-163
-76
-73
-91
-48
-36
-34
0
25
50
101
157
215
284
341
367
374
363
317
239
153
76
9
-48
-90
-115
-127
-134
-135
-125
-112
-106
-106
-105
-104
-105
-105
-104
-113
-126
-130
-118
-91
-70
-67
-82
-107
-127
-119
-113
-127
-118
-104
-131
-157
-255
-317
392
1703
1688
-136
-1371
-812
-76
-99
-177
-83
-100
-120
-67
-52
-45
-5
23
49
104
170
241
317
376
404
406
384
329
246
160
84
13
-46
-89
-121
-141
-148
-151
-151
-139
-124
-112
-100
-96
-96
-90
-91
-107
-113
-98
-76
-48
-24
-29
-57
-88
-105
-97
-97
-111
-92
-86
-131
-193
-373
-366
680
2119
1739
-321
-1323
-631
-62
-156
-176
-90
-119
-117
-71
-67
-51
-11
11
44
106
177
252
327
382
405
411
400
346
244
139
66
6
-58
-110
-138
-153
-162
-162
-156
-151
-142
-127
-118
-116
-112
-105
-106
-114
-120
-118
-110
-92
-72
-65
-74
-95
-119
-122
-116
-132
-128
-102
-130
-159
-223
-416
-68
1360
2232
837
-1170
-1387
-503
-143
-182
-120
-96
-115
-74
-50
-46
-12
20
47
103
170
243
334
417
466
485
483
447
364
256
157
72
-7
-71
-107
-131
-156
-171
-172
-166
-161
-154
-141
-123
-109
-104
-100
-100
-112
-126
-128
-116
-99
-87
-88
-100
-124
-145
-137
-131
-148
-137
-119
-152
-182
-301
-401
380
1944
2135
205
-1341
-982
-229
-165
-217
-130
-136
-148
-98
-82
-73
-38
-8
28
82
141
213
303
376
414
428
418
368
275
173
86
14
-52
-104
-138
-155
-163
-175
-188
-186
-173
-163
-149
-133
-126
-120
-103
-100
-119
-125
-108
-89
-70
-54
-55
-73
-101
-120
-114
-113
-126
-107
-94
-134
-181
-305
-255
790
2328
2125
21
-1250
-710
-115
-198
-231
-128
-151
-157
-106
-103
-98
-63
-41
-10
48
112
187
274
346
389
408
393
335
244
147
61
-12
-73
-119
-147
-160
-165
-173
-188
-197
-193
-182
-171
-157
-140
-122
-105
-96
-95
-97
-100
-102
-103
-115
-143
-157
-142
-116
-89
-66
-63
-84
-107
-122
-116
-104
-117
-118
-95
-114
-151
-231
-309
331
1909
2551
910
-982
-1020
-263
-139
-251
-168
-144
-173
-133
-112
-109
-69
-35
-13
35
97
163
248
336
399
438
452
431
368
272
169
86
19
-44
-94
-117
-123
-129
-136
-142
-147
-149
-139
-115
-96
-91
-85
-68
-53
-53
-53
-45
-40
-39
-39
-42
-45
-44
-45
-46
-45
-53
-66
-61
-43
-39
-46
-48
-40
-28
-22
-25
-27
-26
-22
-15
-9
-12
-12
-5
-2
-5
-6
-2
3
6
5
6
12
15
13
11
13
20
29
31
24
16
10
8
26
63
95
99
90
85
74
48
14
