# session 5
-22
-49
30
10
-255
-511
-531
-463
-468
-498
-497
-481
-470
-453
-421
-418
-426
-475
-678
-563
509
1545
920
-598
-1022
-475
-219
-298
-263
-211
-221
-191
-154
-141
-104
-59
-31
2
50
93
119
129
128
115
105
116
137
138
106
54
-3
-47
-66
-71
-71
-68
-62
-58
-58
-62
-73
-81
-69
-43
-23
-14
-19
-48
-71
-62
-62
-75
-59
-57
-83
-115
-299
-357
520
1812
1654
96
-743
-337
20
-43
-48
-4
-34
-15
32
33
45
82
111
141
175
198
219
238
241
228
212
201
202
202
169
96
12
-46
-75
-88
-93
-94
-94
-97
-97
-100
-119
-131
-108
-77
-66
-61
-63
-94
-120
-117
-128
-137
-102
-101
-135
-151
-351
-474
398
1727
1474
-254
-1105
-554
-69
-87
-85
-43
-72
-56
-16
-12
3
35
61
89
125
166
204
216
213
216
211
192
186
185
148
68
-23
-93
-131
-149
-161
-166
-163
-161
-159
-160
-170
-176
-166
-148
-132
-123
-134
-170
-192
-182
-187
-191
-147
-144
-191
-197
-369
-556
214
1669
1700
-8
-1112
-686
-139
-138
-167
-107
-110
-101
-68
-61
-34
8
22
48
106
142
158
207
251
235
219
254
272
246
218
172
85
12
-6
3
2
-37
-95
-125
-117
-90
-64
-65
-84
-81
-57
-52
-66
-74
-90
-164
-262
-270
-193
-164
-152
-141
-363
-476
432
1741
1449
-326
-1277
-769
-192
-110
-66
2
-38
-45
23
59
43
-2
3
135
234
185
240
426
341
39
-1
144
74
-111
-139
-79
-66
-84
-105
-116
-83
-32
-65
-134
-66
54
32
14
134
143
2
16
124
39
-84
3
88
-25
-158
-137
-28
-89
-343
-9
1299
2001
777
-834
-992
-351
-86
-67
-25
-32
37
172
142
4
-79
-160
-224
-108
112
160
65
115
285
315
273
346
352
187
155
260
146
-66
-96
-138
-237
-160
-78
-173
-206
-152
-207
-258
-197
-182
-248
-289
-289
-274
-258
-213
-129
-146
-260
-265
-271
-225
551
1661
1344
-442
-1561
-1124
-306
-52
-168
-130
101
84
-191
-184
79
92
-37
63
155
1
-61
158
345
333
257
195
171
211
192
27
-122
-146
-164
-207
-208
-226
-269
-252
-227
-257
-265
-223
-155
-24
105
79
-31
-27
49
48
33
107
157
86
9
-77
-168
394
1755
2154
537
-1057
-878
-123
-20
-103
-29
-3
31
87
69
70
69
-31
-68
39
119
136
177
232
287
329
305
251
202
110
15
-22
-89
-215
-266
-203
-139
-137
-141
-107
-105
-204
-285
-185
-37
-97
-243
-239
-240
-325
-308
-405
-546
324
1933
1937
-32
-1359
-979
-398
-338
-311
-265
-315
-295
-190
-122
-126
-162
-124
-5
50
40
87
181
259
304
301
320
414
441
317
164
82
107
206
224
107
-1
-21
5
42
69
74
43
-2
28
117
107
-1
-69
-111
-193
-228
-164
-125
-162
-178
-194
-231
-150
-109
-221
252
1420
1576
13
-1303
-1042
-304
-105
-136
-77
-70
-132
-99
-20
-82
-212
-201
-59
107
217
192
94
59
86
144
241
330
364
333
212
42
-82
-134
-137
-138
-216
-337
-351
-262
-222
-253
-248
-170
-89
-64
-78
-83
-24
109
161
37
-19
128
215
1
-384
-205
1156
2408
1595
-374
-1044
-443
-54
-3
109
103
-9
-4
-3
-110
-138
-36
24
-9
-26
26
122
207
199
113
82
107
90
45
-12
-115
-195
-239
-344
-433
-394
-341
-349
-335
-306
-282
-197
-132
-190
-243
-204
-190
-231
-264
-301
-315
-287
-268
-239
-314
-441
186
1599
1916
365
-1033
-949
-423
-289
-266
-184
-126
-95
-82
-53
21
121
220
271
288
335
383
429
514
561
555
616
646
497
352
389
436
316
147
95
92
24
-2
128
237
135
-51
-124
-103
-84
-108
-182
-228
-182
-148
-196
-244
-279
-325
-344
-365
-94
975
2021
1328
-646
-1572
-978
-355
-297
-321
-262
-261
-302
-275
-194
-184
-200
-109
-8
-16
-32
-10
3
45
115
137
146
180
154
46
-48
-85
-94
-111
-164
-239
-300
-321
-282
-205
-164
-165
-127
-43
-3
-11
3
8
-22
-4
47
60
22
-110
71
1220
2400
1725
-179
-899
-277
89
-62
-73
68
118
100
81
82
60
-27
-74
-7
76
103
116
155
210
251
251
212
149
57
-60
-156
-200
-232
-288
-336
-330
-287
-272
-309
-336
-317
-294
-285
-273
-263
-253
-258
-311
-322
-226
-177
-263
-333
-334
-307
-322
-488
-247
1085
2201
1213
-741
-1232
-504
-111
-173
-198
-163
-118
-89
-104
-75
-1
41
98
192
269
365
484
520
490
518
573
559
525
494
360
139
21
2
-77
-80
145
263
60
-90
-15
47
105
202
134
-47
-138
-203
-241
-191
-191
-239
-208
-175
-172
-182
-102
586
1668
1489
-298
-1542
-1130
-377
-160
-81
-35
-115
-90
-63
-260
-310
-33
51
-163
-210
-86
-14
125
263
153
7
114
269
243
138
52
-54
-157
-202
-191
-155
-150
-222
-318
-372
-376
-312
-185
-115
-164
-201
-146
-91
-89
-92
-69
-16
29
48
34
-138
-163
819
2285
2144
321
-832
-557
-132
-65
-68
-75
-5
86
25
-1
68
10
-17
144
147
-65
-71
128
195
170
245
345
352
275
149
8
-100
-132
-117
-141
-197
-203
-186
-217
-245
-214
-191
-229
-251
-223
-229
-272
-284
-305
-348
-322
-297
-341
-341
-417
-458
408
1882
1838
-39
-1310
-951
-355
-232
-163
-78
-85
-95
-115
-174
-207
-183
-108
-18
71
190
258
225
271
415
432
387
480
529
359
198
200
200
109
43
63
85
57
54
120
167
158
162
161
86
2
-2
8
-59
-158
-231
-299
-299
-252
-355
-214
892
2033
1309
-732
-1675
-1105
-443
-193
-41
5
-70
-116
-122
-95
-26
-14
-93
-134
-63
33
71
84
110
114
99
95
68
8
-18
-39
-124
-171
-107
-89
-183
-235
-223
-236
-223
-151
-112
-113
-121
-181
-261
-249
-159
-103
-104
-100
-91
-117
-111
-132
-263
173
1634
2542
1333
-521
-872
-213
69
-6
-4
21
36
85
101
87
99
123
138
168
207
227
233
232
212
191
184
144
67
28
21
-22
-91
-132
-152
-192
-231
-200
-135
-132
-147
-132
-165
-207
-174
-193
-304
-299
-220
-289
-360
-275
-257
-352
-429
-527
-115
1312
2276
1139
-708
-1122
-553
-259
-216
-171
-224
-279
-227
-149
-79
-37
-55
-68
-20
23
34
71
129
172
230
312
344
300
258
240
159
44
38
60
-61
-150
-31
33
-69
-47
80
51
-17
55
127
104
49
-8
-36
-35
-54
-60
-144
-380
-64
1327
2239
997
-959
-1321
-561
-202
-245
-249
-290
-315
-212
-135
-153
-158
-107
-36
-2
-13
12
83
134
179
227
217
202
225
116
-89
-87
30
-28
-100
-52
-123
-275
-245
-147
-164
-179
-118
-49
-1
-41
-176
-241
-224
-298
-375
-311
-254
-231
-202
-322
-17
1458
2642
1562
-433
-892
-276
-57
-113
-73
-106
-126
-63
-55
12
181
216
147
203
312
304
266
339
449
446
360
335
346
244
62
-67
-160
-267
-301
-218
-136
-158
-245
-290
-270
-233
-183
-149
-225
-353
-381
-352
-349
-329
-333
-439
-485
-339
-334
-550
-70
1385
2058
837
-604
-724
-277
-176
-245
-282
-277
-150
0
22
-12
-7
10
11
57
154
164
78
61
107
97
79
109
139
143
106
35
-9
-32
-55
-23
13
-41
-65
-2
4
10
124
138
8
8
102
63
1
50
46
-63
-79
-84
-214
246
1695
2428
1004
-855
-1088
-435
-221
-283
-269
-266
-223
-123
-103
-150
-166
-145
-117
-62
36
123
160
174
181
183
183
135
45
-22
-84
-177
-248
-277
-305
-335
-339
-321
-324
-331
-274
-189
-179
-217
-207
-146
-96
-107
-195
-276
-258
-207
-181
-182
-294
-147
896
1988
1424
-239
-904
-430
-96
-106
-63
-27
-39
-2
30
58
131
151
109
152
277
347
339
334
378
427
423
384
372
374
333
245
153
91
42
-29
-107
-139
-121
-115
-172
-247
-230
-132
-86
-122
-171
-239
-343
-394
-317
-196
-177
-216
-246
-292
122
1393
2181
978
-872
-1210
-539
-291
-358
-318
-330
-333
-231
-217
-261
-198
-127
-119
-63
49
133
184
206
186
170
222
301
306
249
205
110
-92
-238
-222
-189
-208
-184
-131
-125
-111
-52
-12
-24
-45
-46
-42
-58
-87
-86
-81
-117
-96
-71
-169
248
1601
2305
982
-706
-831
-205
-47
-28
108
-8
-221
-162
-74
-199
-255
-140
-123
-170
-61
78
112
165
216
146
85
122
124
54
-7
-72
-158
-219
-257
-299
-336
-354
-320
-206
-102
-114
-182
-230
-290
-329
-273
-207
-201
-186
-198
-272
-282
-300
-223
657
1985
1874
138
-993
-661
-169
-140
-144
-102
-119
-108
-82
-98
-102
-68
-19
34
77
104
165
270
334
341
388
491
538
472
368
283
184
83
63
87
53
11
46
99
113
124
148
164
144
56
-27
16
87
7
-190
-330
-328
-357
-493
-40
1365
2110
777
-1057
-1322
-595
-248
-263
-246
-230
-222
-185
-176
-191
-169
-113
-51
-21
-41
-54
-2
51
34
17
66
106
69
5
-22
-29
-66
-132
-183
-198
-208
-236
-249
-216
-153
-96
-65
-72
-109
-125
-100
-92
-138
-199
-260
-326
-318
-319
-461
-116
1302
2382
1415
-378
-828
-340
-245
-361
-250
-178
-194
-124
-57
-8
97
72
-91
-38
202
250
199
304
377
307
338
444
396
286
262
225
135
80
31
-83
-201
-245
-241
-217
-174
-139
-140
-152
-164
-194
-231
-260
-273
-239
-198
-225
-238
-265
-347
176
1565
2117
621
-1061
-1060
-341
-158
-200
-138
-144
-159
-112
-101
-103
-52
3
12
7
52
120
118
88
144
227
248
274
305
208
36
-21
3
-39
-102
-101
-75
-49
-17
-12
-12
24
42
1
-19
15
-1
-83
-93
-41
-54
-91
-185
-259
416
1828
2171
688
-681
-636
-203
-183
-232
-191
-174
-153
-148
-159
-109
-64
-86
-93
-64
-40
2
32
10
18
89
120
105
105
73
-20
-100
-140
-179
-233
-294
-327
-309
-273
-244
-209
-179
-170
-186
-229
-261
-254
-228
-196
-188
-235
-242
-223
-281
112
1343
2017
763
-990
-1226
-491
-157
-184
-147
-110
-110
-82
-55
-46
-53
-65
-25
69
132
155
192
191
133
164
306
376
331
264
163
17
-72
-76
-87
-135
-156
-140
-138
-126
-78
-101
-177
-102
48
28
-62
-64
-91
-111
87
358
267
-68
367
1857
2584
1201
-579
-791
-166
0
-106
-70
-28
-38
-31
-18
4
-24
-125
-116
39
91
35
101
224
228
172
134
91
82
103
41
-108
-208
-209
-208
-275
-350
-352
-304
-264
-229
-207
-231
-274
-292
-284
-272
-263
-238
-226
-272
-286
-292
-391
-3
1322
2161
1052
-638
-953
-413
-235
-299
-263
-247
-275
-278
-242
-133
-36
-65
-125
-111
-72
-28
45
93
79
68
92
113
108
77
26
-38
-96
-118
-118
-142
-158
-111
-34
12
34
57
70
42
9
12
1
-30
-10
-6
-50
-47
-126
-101
818
2108
1795
-40
-1018
-508
17
-7
-80
-87
-126
-135
-117
-96
-56
-14
7
0
-11
22
64
63
105
201
189
107
168
270
171
-18
-98
-134
-193
-218
-218
-210
-165
-132
-145
-138
-107
-124
-168
-172
-162
-171
-151
-147
-217
-228
-261
-461
-34
1501
2329
946
-845
-1006
-373
-218
-281
-189
-133
-166
-186
-159
-92
-34
-17
3
55
103
139
195
266
299
304
329
333
274
235
252
216
109
42
26
-16
-66
-58
3
51
55
46
36
-8
-70
-89
-75
-62
-73
-141
-192
-179
-291
-282
618
1837
1545
-119
-1014
-629
-239
-242
-202
-126
-144
-160
-161
-182
-157
-93
-88
-96
-11
60
12
-7
50
39
-5
26
39
-9
-20
-21
-96
-160
-143
-149
-234
-269
-193
-113
-88
-73
-60
-85
-144
-191
-207
-227
-210
-131
-173
-407
-638
-760
-401
891
2013
1255
-511
-1052
-437
-92
-142
-100
-26
-16
15
44
53
80
111
153
216
239
216
240
306
323
315
349
397
410
381
341
332
308
183
20
-67
-108
-151
-148
-105
-87
-86
-81
-128
-220
-239
-191
-193
-208
-181
-202
-241
-278
-398
-62
1221
2033
780
-1113
-1401
-630
-303
-320
-240
-237
-295
-256
-228
-242
-203
-147
-139
-126
-68
-5
28
33
24
34
83
126
126
97
36
-60
-146
-197
-244
-288
-277
-219
-177
-134
-74
-94
-179
-183
-152
-190
-125
209
669
996
1051
812
411
501
1688
2781
1853
-221
-891
-178
192
31
6
83
95
108
97
56
68
118
125
66
1
12
78
108
78
30
6
17
8
-61
-147
-221
-291
-338
-358
-380
-376
-325
-294
-306
-279
-220
-254
-367
-399
-361
-385
-405
-370
-395
-407
-400
-589
-335
1178
2447
1397
-673
-1225
-630
-411
-479
-385
-329
-340
-298
-269
-256
-208
-166
-135
-101
-96
-105
-92
-82
-83
-56
8
56
61
46
16
-29
-58
-64
-60
-43
-23
4
49
74
88
129
109
3
-22
39
18
-15
74
158
148
73
-8
398
1528
2097
1000
-464
-688
-235
-151
-272
-252
-194
-132
-24
29
-9
-44
-38
-28
-23
-5
33
79
100
101
132
183
184
129
70
29
2
-28
-85
-139
-146
-149
-168
-119
-14
20
-23
-68
-113
-140
-123
-108
-98
-94
-138
-187
-302
-397
295
1743
2021
340
-1170
-1047
-428
-287
-284
-218
-209
-189
-140
-117
-53
45
75
86
167
254
289
316
358
388
393
390
419
459
409
277
189
170
141
90
49
28
29
35
23
16
34
32
-43
-170
-290
-362
-364
-330
-319
-332
-426
-511
84
1438
1854
300
-1358
-1322
-517
-257
-323
-284
-234
-224
-222
-219
-174
-141
-173
-165
-85
-52
-63
-30
3
-34
