# session 9
18
130
-182
280
1129
455
-990
-1091
-367
-217
-324
-211
-167
-195
-118
-40
2
61
98
120
168
213
244
272
277
255
252
301
363
371
301
170
23
-68
-99
-141
-183
-165
-111
-67
-48
-93
-182
-236
-251
-265
-278
-314
-307
-195
-207
-167
723
1873
1333
-600
-1460
-833
-316
-310
-272
-231
-258
-209
-162
-172
-135
-79
-65
-41
3
25
33
55
72
51
29
57
90
73
26
-32
-93
-120
-139
-186
-189
-124
-79
-73
-78
-102
-113
-101
-94
-55
-30
-89
-78
-50
-136
382
1812
2404
1008
-522
-537
-11
18
-78
-13
30
46
76
84
110
160
178
170
186
243
311
338
320
279
205
124
86
37
-57
-117
-113
-112
-151
-208
-235
-210
-193
-210
-212
-230
-290
-295
-235
-207
-233
-265
-244
-257
-379
-4
1279
1996
744
-964
-1154
-505
-300
-329
-235
-221
-258
-205
-151
-139
-111
-81
-64
-32
4
17
31
64
81
73
98
149
148
71
-57
-192
-262
-251
-218
-179
-124
-93
-94
-98
-108
-126
-141
-160
-142
-93
-104
-120
-138
-262
115
1501
2368
1163
-584
-794
-145
57
25
119
146
122
156
171
157
156
127
100
156
254
291
263
202
113
24
-10
0
0
-35
-95
-160
-204
-222
-227
-224
-214
-197
-162
-122
-116
-128
-119
-112
-117
-134
-206
-248
-193
-276
-246
715
1935
1509
-257
-1115
-680
-290
-301
-286
-244
-243
-201
-166
-174
-157
-108
-76
-60
-45
-26
1
17
-7
-36
-12
32
17
-44
-93
-125
-151
-160
-152
-147
-148
-139
-106
-81
-104
-136
-129
-124
-122
-77
-73
-102
-49
-114
-133
806
2221
1988
145
-819
-302
144
78
88
182
191
214
256
257
237
220
230
252
243
233
240
215
147
53
-60
-142
-156
-144
-143
-153
-175
-202
-217
-215
-196
-162
-129
-104
-104
-130
-152
-168
-173
-150
-170
-221
-212
-337
-410
519
2009
1840
-107
-1258
-788
-258
-268
-260
-187
-210
-206
-172
-181
-159
-83
-23
18
66
91
78
59
43
18
13
37
52
36
-8
-61
-95
-119
-159
-181
-147
-105
-100
-118
-149
-185
-196
-198
-204
-197
-207
-224
-201
-284
-296
492
1690
1556
17
-907
-556
-148
-167
-177
-127
-137
-120
-84
-78
-56
-21
-2
20
49
70
91
104
91
81
109
154
171
152
131
118
98
71
53
56
82
113
127
125
102
64
45
34
19
41
48
-4
-62
-251
-353
557
2082
2041
212
-949
-575
-116
-139
-125
-54
-74
-66
-39
-40
-10
24
16
23
65
86
84
96
106
98
110
158
184
150
89
34
-13
-50
-75
-90
-87
-76
-76
-89
-117
-151
-176
-214
-253
-244
-264
-347
-388
-511
-582
237
1600
1437
-448
-1567
-1025
-406
-400
-412
-339
-351
-334
-278
-264
-245
-205
-175
-135
-80
-39
-14
9
34
58
82
117
151
143
92
46
22
10
4
10
36
65
76
77
75
61
50
41
15
16
36
12
-12
-100
-193
441
1790
2013
378
-972
-680
-44
-7
-58
10
-10
-28
7
9
15
52
73
87
111
128
149
163
134
101
128
187
209
185
139
77
19
-12
-24
-34
-39
-32
-20
-22
-51
-80
-83
-101
-146
-142
-112
-145
-188
-292
-473
-18
1340
1932
605
-881
-855
-274
-221
-302
-223
-211
-228
-175
-135
-117
-82
-53
-28
1
13
12
8
-3
-12
0
36
76
85
49
-2
-38
-57
-76
-91
-87
-65
-51
-54
-69
-90
-101
-121
-147
-138
-130
-160
-190
-345
-450
312
1628
1545
-151
-1139
-610
-74
-130
-155
-80
-106
-102
-49
-45
-43
-9
18
39
67
90
93
71
50
54
81
119
148
134
78
25
5
-6
-30
-50
-41
-21
-8
-12
-34
-57
-70
-87
-91
-73
-88
-122
-199
-425
-301
820
1840
1058
-582
-918
-233
11
-122
-72
-16
-72
-66
-26
-26
-8
34
56
70
102
127
120
92
73
85
125
160
155
115
76
64
65
47
7
-21
-24
-17
-19
-36
-57
-64
-62
-74
-80
-71
-85
-109
-228
-501
-318
801
1583
688
-663
-751
-180
-72
-172
-115
-109
-143
-92
-73
-118
-102
-38
-21
-33
-20
-4
-16
-43
-64
-54
-1
51
55
33
11
-10
-27
-37
-53
-62
-38
-10
-7
-15
-24
-36
-54
-69
-63
-56
-77
-95
-224
-505
-268
858
1523
594
-615
-630
-123
-41
-118
-72
-63
-82
-53
-36
-32
-4
22
42
71
90
88
78
69
66
82
122
156
151
112
66
35
23
7
-23
-39
-25
-4
9
6
-25
-51
-51
-68
-82
-63
-79
-101
-155
-413
-357
695
1579
669
-921
-1130
-381
-55
-95
-53
-41
-71
-22
21
13
31
67
82
101
136
158
161
156
143
143
187
238
231
177
126
88
53
22
-5
-15
-3
4
-3
-17
-43
-65
-71
-97
-120
-102
-114
-151
-199
-417
-410
561
1588
914
-703
-1087
-381
-60
-165
-145
-110
-152
-135
-103
-111
-98
-64
-41
-17
9
28
38
36
25
29
58
97
114
85
31
-1
-18
-54
-81
-63
-33
-25
-26
-38
-58
-66
-79
-97
-85
-85
-116
-160
-374
-532
216
1507
1489
31
-812
-420
-54
-125
-134
-69
-94
-102
-65
-54
-53
-29
6
34
59
77
69
53
56
61
77
124
154
133
94
57
25
12
-8
-39
-33
5
18
15
9
-18
-38
-42
-63
-64
-45
-63
-93
-250
-533
-156
1130
1651
403
-852
-682
-113
-80
-145
-67
-66
-87
-43
-25
-32
-13
7
24
66
100
97
88
80
66
84
148
181
142
82
40
3
-18
-24
-44
-62
-40
-11
-21
-48
-72
-92
-103
-104
-80
-61
-98
-134
-240
-499
-229
1027
1729
517
-986
-919
-174
-27
-125
-59
-41
-77
-53
-34
-36
-21
0
24
41
41
52
67
49
33
66
118
140
121
74
24
-10
-30
-49
-64
-58
-32
-11
-8
-23
-59
-92
-107
-120
-112
-94
-122
-173
-313
-491
17
1297
1590
73
-1193
-815
-103
-49
-101
-21
-48
-85
-36
-3
7
24
31
44
76
108
126
113
84
81
112
145
151
115
46
-14
-38
-41
-47
-55
-50
-36
-30
-21
-11
-31
-61
-66
-78
-95
-91
-95
-99
-186
-407
-134
1040
1688
492
-1034
-1014
-239
-29
-109
-46
-37
-80
-42
-9
-16
5
39
54
69
94
121
131
117
99
115
151
164
143
102
45
-10
-36
-43
-52
-58
-51
-37
-17
-12
-43
-80
-92
-107
-125
-123
-137
-161
-232
-463
-383
665
1681
989
-589
-934
-252
14
-119
-89
-40
-76
-57
-27
-33
-15
16
33
58
86
93
83
67
55
65
109
166
184
141
76
38
19
-7
-27
-24
-13
-7
-2
-17
-56
-80
-86
-98
-101
-112
-128
-147
-374
-576
194
1568
1475
-224
-1132
-546
-38
-132
-167
-94
-112
-104
-69
-74
-59
-18
-2
12
39
61
77
79
55
40
69
109
105
68
23
-23
-50
-61
-83
-94
-67
-43
-40
-37
-47
-76
-88
-93
-94
-80
-94
-114
-162
-440
-512
511
1769
1290
-363
-894
-276
2
-137
-117
-57
-84
-66
-37
-39
-19
5
16
39
61
67
71
66
40
29
59
104
114
82
34
0
-21
-39
-52
-48
-28
-5
13
19
-1
-21
-27
-49
-52
-24
-49
-88
-161
-461
-445
689
1785
1016
-605
-894
-218
9
-102
-57
-22
-56
-34
0
6
22
39
58
83
99
110
116
94
64
71
113
143
136
92
35
-2
-15
-33
-53
-49
-26
-5
9
-4
-44
-67
-77
-97
-92
-81
-106
-118
-256
-565
-277
924
1452
253
-1012
-855
-206
-87
-151
-99
-94
-113
-82
-62
-48
-16
3
17
45
63
67
71
59
34
32
58
72
51
3
-48
-76
-80
-85
-98
-92
-62
-37
-30
-41
-64
-82
-99
-109
-88
-88
-117
-133
-329
-574
20
1291
1372
-103
-1046
-590
-50
-55
-83
-20
-32
-29
13
23
34
72
102
125
155
179
193
194
180
172
193
227
227
187
133
81
40
27
24
5
-11
2
25
31
18
-1
-16
-41
-70
-55
-43
-82
-91
-231
-581
-263
1088
1668
305
-1104
-910
-188
-49
-101
-35
-30
-50
-21
-5
6
36
59
80
112
136
148
145
125
108
120
155
171
139
68
2
-30
-41
-56
-74
-77
-63
-43
-25
-28
-58
-81
-90
-105
-109
-103
-129
-149
-257
-559
-385
841
1731
770
-730
-854
-216
-64
-169
-124
-103
-125
-99
-84
-81
-50
-23
-3
25
44
47
38
12
-14
-12
16
46
42
0
-47
-70
-78
-84
-81
-65
-46
-27
-8
-12
-49
-80
-95
-107
-88
-72
-106
-138
-300
-562
-94
1241
1666
324
-881
-633
-70
-52
-105
-35
-48
-65
-19
2
11
39
56
76
114
134
136
139
123
90
97
144
162
127
82
45
4
-33
-50
-59
-65
-54
-34
-24
-21
-37
-63
-69
-76
-92
-75
-69
-93
-118
-340
-549
186
1480
1317
-357
-1198
-587
-50
-82
-88
-23
-49
-49
-12
-7
8
43
63
83
114
139
148
135
113
110
133
163
166
121
51
-4
-32
-48
-61
-64
-48
-25
-14
-14
-27
-49
-68
-91
-103
-82
-86
-117
-159
-408
-577
271
1619
1395
-316
-1099
-451
23
-81
-94
-18
-48
-45
-4
-3
9
45
71
97
128
143
146
135
111
104
128
158
157
119
69
24
-9
-23
-29
-49
-62
-49
-34
-32
-41
-67
-90
-98
-111
-113
-109
-134
-163
-325
-652
-369
898
1561
412
-945
-869
-228
-113
-195
-144
-130
-136
-93
-80
-85
-57
-30
-4
34
59
68
70
52
30
37
61
77
67
22
-29
-51
-55
-69
-85
-79
-57
-37
-18
-3
-11
-27
-31
-45
-54
-27
-31
-55
-101
-386
-535
393
1676
1288
-385
-1002
-350
59
-13
-8
29
2
30
63
58
86
123
125
136
174
202
205
181
139
121
156
201
201
154
87
20
-20
-23
-26
-54
-72
-58
-39
-38
-38
-37
-46
-52
-65
-77
-60
-68
-103
-155
-416
-535
420
1749
1348
-463
-1207
-552
-93
-144
-114
-54
-93
-82
-41
-41
-23
20
52
79
100
110
113
96
57
36
59
83
62
18
-33
-105
-170
-183
-168
-167
-157
-126
-103
-93
-88
-100
-118
-121
-133
-146
-129
-133
-166
-227
-438
-389
660
1795
1157
-563
-1045
-338
-13
-143
-111
-49
-87
-67
-35
-46
-21
23
36
54
85
95
87
76
55
43
72
114
116
76
35
5
-20
-32
-37
-42
-43
-30
-12
-3
-11
-28
-37
-52
-73
-62
-54
-85
-128
-310
-500
120
1440
1603
90
-964
-515
31
-53
-116
-22
-39
-53
-1
3
0
36
58
67
92
114
115
98
73
59
74
111
132
114
79
59
45
21
3
-7
-26
-40
-22
9
15
-5
-23
-25
-37
-58
-42
-27
-72
-106
-221
-498
-224
982
1546
307
-1012
-799
-108
-42
-138
-75
-87
-121
-81
-67
-65
-24
2
7
34
56
49
43
44
34
39
76
105
97
57
6
-32
-42
-46
-64
-82
-85
-77
-65
-50
-49
-71
-86
-90
-110
-115
-92
-107
-129
-194
-470
-433
619
1550
712
-813
-952
-189
41
-87
-33
9
-36
-15
17
11
34
68
84
107
131
128
118
105
83
82
123
152
129
83
51
25
-2
-18
-25
-34
-44
-48
-46
-36
-26
-36
-55
-55
-58
-79
-72
-66
-88
-109
-292
-496
118
1359
1369
-152
-1020
-449
74
-25
-69
20
-8
-26
16
19
25
62
83
94
118
132
120
91
70
71
91
120
130
103
64
38
15
-8
-13
-18
-43
-64
-59
-44
-31
-22
-35
-58
-65
-79
-92
-84
-104
-126
-163
-430
-538
362
1444
845
-779
-1161
-379
0
-112
-98
-43
-73
-57
-19
-12
8
32
45
69
98
111
110
95
81
88
118
145
131
72
11
-16
-22
-34
-51
-63
-74
-85
-83
-65
-47
-47
-63
-76
-75
-87
-92
-68
-80
-110
-173
-451
-490
501
1543
838
-759
-1029
-252
40
-100
-68
-15
-51
-31
-3
-11
9
45
67
97
125
133
133
123
110
124
166
193
174
123
77
50
32
15
5
-2
-12
-17
-5
12
26
33
17
0
3
-8
-16
6
-10
-37
-84
-353
-406
510
1427
701
-758
-946
-228
38
-54
-21
6
-23
-9
-1
2
37
60
72
104
125
118
108
93
66
63
97
119
97
49
-8
-51
-63
-63
-73
-89
-111
-125
-112
-82
-58
-51
-71
-95
-101
-118
-135
-110
-93
-107
-165
-415
-532
229
1292
1028
-317
-875
-388
-44
-94
-96
-56
-76
-69
-43
-34
-14
14
37
65
94
109
109
96
79
79
104
129
122
78
26
-9
-25
-36
-45
-54
-61
-61
-51
-39
-26
-15
-23
-42
-49
-66
-86
-64
-49
-74
-102
-300
-555
-2
1264
1443
73
-883
-512
-31
-58
-99
-37
-48
-56
-18
5
26
56
73
89
117
142
153
150
139
135
154
182
178
130
62
8
-20
-28
-35
-42
-43
-48
-59
-54
-34
-25
-36
-53
-63
-79
-107
-106
-95
-128
-142
-236
-531
-336
838
1516
377
-1058
-1012
-283
-79
-141
-93
-82
-101
-65
-41
-32
1
32
57
93
128
147
146
135
135
148
159
162
136
67
-4
-36
-52
-74
-80
-71
-74
-81
-64
-34
-15
-13
-30
-60
-87
-98
-80
-66
-89
-109
-240
-508
-205
1020
1680
594
-739
-704
-97
7
-82
-31
-25
-54
-19
7
8
37
81
109
132
156
180
188
172
152
158
186
200
174
117
60
24
7
-7
-26
-38
-39
-32
-25
-20
-14
-19
-47
-72
-72
-86
-102
-92
-111
-138
-189
-462
-515
495
1637
993
-734
-1225
-509
-108
-158
-126
-91
-133
-118
-82
-84
-77
-55
-30
0
24
35
37
21
-15
