# session 35
63
46
84
102
-17
-203
-277
-258
-256
-258
-235
-222
-218
-202
-184
-172
-156
-137
-119
-100
-78
-53
-28
-3
25
61
102
138
169
199
231
257
260
223
147
55
-32
-106
-162
-194
-207
-211
-206
-201
-197
-189
-178
-173
-171
-162
-152
-146
-141
-136
-133
-131
-126
-120
-115
-114
-114
-113
-109
-106
-102
-100
-99
-96
-93
-93
-94
-79
-44
-4
22
11
-31
-62
-65
-70
-72
-57
-61
-70
-45
-49
-82
-120
-238
59
1447
2693
1794
-262
-893
-238
26
-142
-120
-70
-114
-91
-57
-73
-67
-42
-35
-25
-10
0
16
40
57
75
101
132
162
194
227
260
289
313
336
346
313
232
133
39
-45
-111
-149
-171
-190
-202
-200
-193
-189
-184
-178
-172
-160
-148
-143
-144
-144
-139
-132
-129
-131
-128
-126
-131
-133
-124
-119
-124
-124
-119
-117
-116
-118
-122
-108
-67
-24
-11
-39
-81
-102
-101
-104
-103
-99
-112
-109
-82
-101
-134
-192
-290
241
1797
2681
1324
-558
-769
-123
-44
-193
-129
-112
-154
-120
-100
-110
-86
-65
-62
-54
-45
-35
-14
6
24
49
76
105
137
167
197
227
255
279
303
307
263
180
86
-2
-77
-133
-171
-192
-199
-201
-200
-194
-187
-182
-175
-166
-156
-144
-132
-130
-133
-129
-122
-120
-119
-115
-112
-114
-116
-115
-113
-113
-110
-105
-108
-109
-88
-45
-5
10
-17
-66
-89
-86
-89
-87
-78
-89
-87
-68
-91
-114
-175
-274
319
1918
2698
1207
-667
-804
-136
-44
-168
-105
-96
-131
-91
-74
-82
-56
-35
-35
-23
-2
17
38
55
71
96
125
154
184
219
252
278
300
323
341
329
270
179
79
-14
-92
-150
-187
-205
-213
-223
-230
-225
-217
-213
-204
-191
-183
-176
-164
-155
-149
-142
-139
-140
-140
-141
-142
-141
-139
-138
-136
-135
-136
-132
-126
-131
-140
-127
-84
-34
-7
-25
-70
-97
-96
-96
-96
-87
-95
-98
-74
-86
-122
-190
-305
173
1732
2806
1631
-338
-739
-133
-29
-205
-154
-125
-168
-134
-105
-113
-94
-78
-79
-61
-38
-28
-15
2
19
42
70
96
125
157
186
215
244
268
289
294
256
173
82
0
-74
-132
-165
-180
-189
-190
-186
-180
-175
-170
-165
-157
-147
-141
-139
-132
-126
-125
-122
-115
-110
-109
-108
-105
-100
-99
-99
-96
-89
-86
-92
-101
-97
-66
-16
18
6
-40
-72
-76
-81
-82
-66
-69
-76
-48
-64
-108
-106
-198
-4
1299
2713
2025
-110
-934
-285
37
-159
-156
-70
-106
-118
-113
-126
-102
-79
-92
-88
-55
-20
4
8
4
22
63
93
96
108
156
188
184
202
248
259
227
177
100
7
-58
-100
-155
-209
-219
-199
-195
-200
-200
-208
-203
-160
-127
-132
-135
-122
-120
-123
-118
-107
-91
-80
-89
-102
-100
-103
-123
-124
-96
-79
-94
-110
-102
-69
-25
9
4
-41
-85
-100
-101
-90
-67
-74
-89
-54
-49
-95
-101
-170
-116
758
1979
1807
240
-722
-441
-68
-90
-119
-88
-103
-94
-63
-68
-71
-46
-25
-17
-8
11
36
54
60
62
72
96
128
154
173
196
218
233
250
268
261
213
140
65
-3
-64
-118
-154
-167
-162
-155
-162
-176
-166
-149
-155
-162
-149
-137
-137
-132
-124
-120
-117
-111
-106
-104
-102
-100
-103
-108
-104
-80
-35
8
11
-34
-84
-97
-94
-101
-96
-78
-81
-79
-77
-114
-133
-184
-213
430
1769
2169
811
-576
-598
-126
-71
-144
-108
-111
-128
-100
-85
-86
-71
-56
-44
-30
-18
-3
14
31
53
78
99
120
149
181
200
212
228
249
265
260
216
136
45
-36
-102
-153
-189
-211
-223
-228
-224
-218
-214
-206
-193
-182
-172
-164
-157
-152
-145
-141
-141
-137
-127
-119
-121
-129
-132
-112
-66
-22
-19
-61
-101
-110
-110
-118
-111
-108
-121
-108
-97
-121
-120
-196
-200
721
2304
2361
367
-1113
-759
-108
-99
-152
-82
-98
-101
-61
-66
-67
-44
-41
-32
-1
11
17
50
78
75
86
128
171
207
243
275
306
342
375
384
346
255
145
46
-43
-116
-165
-196
-211
-209
-207
-214
-219
-219
-215
-204
-189
-171
-155
-153
-158
-150
-139
-136
-133
-135
-142
-130
-102
-79
-55
-41
-74
-124
-133
-124
-123
-116
-120
-129
-104
-106
-141
-123
-194
-141
898
2366
2052
-24
-1186
-655
-97
-124
-133
-75
-109
-104
-66
-73
-69
-45
-38
-28
-8
3
13
32
55
80
105
132
170
213
249
284
320
352
374
369
318
228
129
30
-62
-133
-174
-194
-204
-208
-208
-202
-192
-186
-185
-182
-176
-172
-165
-155
-150
-148
-146
-144
-140
-134
-141
-158
-155
-122
-79
-46
-43
-78
-116
-126
-128
-131
-118
-115
-124
-104
-100
-132
-161
-274
-120
1089
2557
2136
127
-863
-358
-7
-168
-184
-113
-150
-145
-106
-115
-110
-86
-83
-76
-57
-46
-33
-13
4
21
44
71
101
134
169
203
234
259
283
288
249
166
73
-9
-80
-136
-170
-185
-189
-188
-184
-181
-178
-173
-166
-163
-162
-157
-153
-153
-154
-153
-148
-141
-134
-128
-120
-115
-125
-133
-117
-80
-41
-14
-23
-64
-90
-87
-89
-92
-82
-86
-90
-66
-73
-113
-176
-288
124
1650
2899
1921
-136
-747
-174
-15
-202
-166
-121
-167
-143
-110
-123
-110
-87
-85
-79
-66
-54
-38
-20
-1
25
53
80
113
151
188
219
246
276
302
297
240
150
55
-33
-109
-161
-187
-198
-201
-199
-194
-191
-187
-183
-177
-173
-169
-167
-165
-165
-163
-160
-157
-153
-148
-139
-132
-130
-127
-122
-119
-120
-120
-114
-102
-99
-111
-121
-106
-69
-26
0
-16
-60
-83
-79
-82
-83
-71
-79
-83
-58
-71
-115
-190
-300
209
1845
2996
1820
-228
-702
-126
-32
-210
-155
-124
-170
-136
-107
-120
-105
-87
-85
-69
-50
-42
-29
-7
14
35
60
89
123
161
200
233
258
284
315
321
276
190
95
9
-66
-120
-149
-161
-165
-159
-148
-146
-153
-151
-141
-144
-160
-168
-166
-161
-151
-139
-134
-139
-140
-131
-126
-126
-124
-122
-121
-114
-102
-102
-114
-119
-110
-104
-106
-107
-101
-91
-92
-107
-115
-98
-60
-14
5
-23
-66
-80
-78
-82
-77
-74
-88
-76
-61
-98
-133
-231
-259
650
2413
2820
979
-661
-513
2
-108
-209
-116
-137
-164
-116
-113
-122
-95
-81
-75
-55
-39
-30
-13
4
22
46
72
100
132
165
198
231
261
288
311
306
255
166
73
-10
-84
-141
-173
-186
-191
-194
-191
-186
-182
-176
-171
-171
-171
-168
-162
-157
-154
-151
-146
-138
-135
-137
-135
-129
-125
-124
-123
-119
-114
-111
-110
-104
-99
-104
-110
-99
-69
-24
13
6
-42
-76
-75
-77
-82
-70
-74
-88
-67
-68
-110
-168
-298
4
1456
2855
2067
-45
-807
-226
2
-189
-165
-107
-158
-141
-104
-116
-108
-87
-86
-77
-59
-46
-30
-10
11
37
62
85
116
153
189
221
249
274
300
308
272
193
97
6
-72
-133
-171
-189
-198
-206
-211
-209
-203
-197
-194
-190
-182
-171
-163
-159
-154
-150
-146
-143
-138
-132
-132
-134
-133
-129
-125
-117
-111
-114
-120
-112
-81
-35
0
-9
-56
-85
-82
-84
-94
-84
-85
-89
-62
-70
-117
-155
-278
-38
1347
2804
2125
-9
-863
-272
23
-158
-150
-87
-136
-128
-92
-101
-95
-73
-67
-57
-41
-27
-11
6
25
50
76
101
132
169
204
238
268
297
328
336
291
202
102
9
-72
-134
-174
-195
-201
-202
-206
-207
-203
-198
-192
-185
-179
-171
-161
-152
-148
-146
-142
-135
-128
-126
-128
-126
-124
-123
-119
-114
-110
-107
-103
-107
-111
-108
-98
-96
-107
-115
-98
-57
-7
22
-3
-57
-79
-72
-77
-77
-65
-77
-77
-56
-78
-112
-196
-281
414
2103
2822
1241
-572
-632
-39
-57
-199
-123
-120
-152
-107
-93
-106
-85
-71
-70
-57
-40
-24
-6
10
27
50
77
104
136
172
207
236
263
291
317
319
273
187
89
-2
-78
-134
-165
-181
-191
-195
-193
-187
-185
-184
-179
-170
-163
-157
-153
-148
-142
-137
-134
-130
-127
-129
-131
-128
-123
-122
-123
-122
-119
-113
-109
-107
-105
-99
-90
-88
-97
-102
-81
-34
10
19
-16
-58
-68
-67
-76
-72
-68
-80
-63
-47
-85
-119
-220
-214
757
2426
2574
651
-789
-480
21
-105
-183
-94
-121
-140
-94
-92
-97
-77
-73
-69
-50
-36
-22
0
18
36
60
87
118
153
187
218
247
274
301
320
308
248
156
62
-22
-95
-148
-176
-187
-192
-195
-196
-194
-190
-184
-177
-170
-161
-153
-147
-142
-136
-129
-124
-121
-118
-118
-121
-122
-118
-114
-114
-112
-108
-106
-104
-101
-95
-93
-93
-87
-79
-79
-79
-72
-73
-88
-90
-59
-8
34
34
-13
-58
-63
-64
-67
-52
-56
-75
-50
-44
-91
-137
-250
-24
1299
2722
2076
-25
-882
-289
20
-163
-159
-88
-133
-131
-99
-105
-92
-70
-73
-65
-41
-27
-16
2
22
44
67
91
122
160
196
229
261
285
303
320
309
247
153
59
-22
-92
-146
-177
-189
-191
-185
-178
-179
-179
-171
-162
-158
-152
-144
-141
-139
-132
-124
-124
-129
-132
-128
-122
-119
-120
-119
-117
-115
-112
-109
-108
-102
-94
-96
-103
-101
-90
-85
-92
-103
-98
-63
-11
22
9
-33
-63
-69
-74
-70
-54
-62
-73
-48
-54
-95
-143
-258
68
1501
2784
1894
-172
-823
-206
14
-170
-143
-94
-143
-121
-85
-97
-89
-69
-68
-57
-37
-22
-7
8
24
47
73
99
127
157
189
223
254
279
300
312
287
216
124
34
-50
-118
-160
-181
-193
-199
-198
-195
-194
-192
-187
-180
-172
-163
-155
-151
-146
-137
-131
-131
-133
-133
-131
-129
-126
-125
-124
-123
-116
-110
-112
-115
-109
-97
-88
-88
-94
-96
-87
-78
-77
-84
-89
-79
-43
6
33
10
-37
-59
-56
-62
-61
-51
-62
-62
-39
-59
-90
-144
-238
298
1857
2730
1348
-563
-787
-127
-23
-162
-98
-80
-119
-87
-70
-81
-61
-45
-44
-30
-15
-7
8
28
52
82
107
123
150
192
232
267
295
316
339
354
320
230
132
45
-40
-112
-155
-179
-193
-199
-199
-196
-190
-181
-174
-174
-169
-159
-153
-149
-142
-137
-135
-131
-129
-130
-131
-130
-128
-127
-128
-132
-133
-130
-127
-125
-122
-117
-114
-114
-113
-105
-97
-103
-115
-106
-66
-13
14
-12
-60
-80
-73
-73
-73
-71
-85
-83
-57
-73
-107
-177
-273
300
1921
2869
1547
-367
-662
-92
-51
-210
-140
-122
-168
-131
-108
-120
-104
-84
-77
-62
-54
-47
-29
-11
6
35
66
89
116
152
189
218
243
269
295
302
264
185
96
12
-65
-125
-160
-182
-197
-199
-191
-188
-193
-189
-178
-171
-166
-160
-156
-153
-144
-136
-133
-136
-136
-129
-123
-123
-125
-123
-119
-117
-117
-116
-110
-105
-103
-101
-94
-89
-94
-105
-105
-75
-22
16
9
-34
-67
-69
-69
-77
-72
-73
-80
-54
-52
-101
-143
-246
-54
1204
2686
2218
156
-828
-300
35
-152
-167
-86
-125
-127
-93
-98
-87
-63
-64
-55
-30
-16
-6
12
33
56
82
105
130
167
211
246
269
288
313
332
314
245
150
57
-27
-92
-135
-163
-181
-186
-183
-182
-181
-176
-168
-159
-151
-145
-140
-136
-133
-130
-125
-119
-115
-116
-115
-114
-114
-113
-112
-117
-120
-114
-106
-105
-104
-99
-95
-95
-93
-90
-95
-104
-91
-49
-2
19
-2
-47
-69
-65
-68
-71
-64
-74
-72
-44
-66
-112
-180
-274
258
1825
2755
1437
-468
-730
-109
-33
-189
-132
-122
-164
-124
-102
-117
-98
-77
-73
-62
-46
-32
-16
-3
11
37
64
88
118
154
188
219
245
268
290
301
271
190
86
-6
-81
-141
-180
-201
-215
-222
-220
-216
-211
-204
-200
-193
-183
-174
-168
-161
-157
-159
-158
-153
-153
-154
-150
-144
-144
-148
-150
-146
-140
-136
-139
-142
-138
-126
-118
-123
-132
-129
-106
-63
-21
-20
-61
-92
-94
-98
-101
-84
-86
-104
-79
-68
-109
-145
-250
-102
1096
2591
2195
145
-883
-350
31
-141
-161
-79
-117
-116
-75
-79
-67
-37
-37
-39
-17
4
24
45
64
85
113
143
175
209
243
277
310
334
356
373
360
296
203
113
32
-36
-82
-109
-124
-129
-127
-124
-119
-111
-105
-100
-91
-79
-71
-63
-52
-42
-46
-52
-50
-44
-42
-38
-36
-39
-42
-42
-41
-34
-27
-29
-27
-20
-29
-45
-26
28
72
70
26
-16
-24
-22
-29
-24
-25
-41
-22
-10
-52
-88
-198
-163
883
2506
2452
454
-845
-441
23
-118
-173
-93
-135
-150
-103
-107
-117
-98
-94
-96
-84
-71
-58
-46
-36
-17
10
31
49
75
106
135
159
182
206
218
198
136
40
-66
-159
-233
-290
-326
-343
-352
-359
-359
-354
-350
-345
-341
-342
-339
-327
-323
-330
-330
-321
-319
-323
-324
-324
-324
-322
-320
-322
-320
-311
-307
-313
-313
-302
-299
-307
-303
-275
-230
-182
-170
-211
-255
-257
-246
-250
-236
-223
-231
-212
-194
-223
-238
-327
-331
620
2274
2412
491
-932
-598
-66
-167
-234
-137
-152
-162
-106
-87
-78
-51
-35
-14
18
43
67
97
126
157
195
236
279
320
357
398
441
480
513
543
551
510
430
340
262
203
164
138
122
121
134
148
160
173
184
194
209
225
239
249
255
261
275
285
279
270
277
285
284
280
278
274
270
270
270
263
258
258
247
228
224
246
284
312
289
218
163
150
137
114
108
88
57
59
36
-25
-88
-240
-47
1257
2634
1943
-155
-996
-430
-164
-369
-391
-360
-436
-451
-444
-485
-504
-514
-547
-565
-569
-588
-607
-621
-641
-651
-643
-630
-629
-630
-614
-593
-586
-585
-576
-582
-618
