# session 3
-27
-18
-59
108
414
469
313
258
291
264
195
179
236
235
128
70
-18
-60
780
2314
2432
586
-840
-583
8
49
-6
39
18
-18
-5
-5
-61
-122
-136
-117
-78
-26
-19
-24
27
48
-5
4
80
80
24
29
88
135
123
55
3
-6
-41
-130
-190
-177
-154
-154
-127
-88
-83
-66
-17
-20
-80
-114
-113
-131
-156
-150
-142
-151
-149
-224
-237
497
1833
2087
668
-599
-522
-65
-23
-72
-28
-44
-93
-95
-69
-56
-78
-96
-93
-105
-86
-15
1
-43
-33
2
-24
-31
36
74
52
57
102
129
100
5
-116
-196
-244
-281
-285
-281
-315
-362
-369
-335
-288
-239
-179
-137
-164
-214
-256
-339
-344
-179
-99
-203
-313
-382
61
1439
2330
1163
-663
-990
-329
-81
-164
-122
-91
-159
-191
-144
-90
-79
-83
-31
60
107
88
51
29
14
12
44
117
214
255
181
144
288
401
275
110
95
110
58
-5
-29
-2
49
82
117
184
216
174
126
96
60
54
60
15
-30
-26
-6
-72
-279
-58
1204
2277
1322
-675
-1315
-684
-272
-233
-165
-142
-139
-117
-199
-269
-208
-182
-225
-213
-178
-140
-68
-57
-114
-100
-43
-52
-76
-51
-14
8
19
23
9
-29
-71
-125
-215
-286
-279
-256
-282
-304
-274
-237
-215
-171
-119
-136
-208
-232
-205
-203
-157
-19
15
-94
-150
-210
-37
1109
2528
2193
307
-719
-328
32
-60
-59
20
-31
-78
-44
-30
-44
-20
30
62
85
107
128
160
189
196
200
209
217
242
285
318
315
256
140
26
-32
-52
-75
-100
-127
-191
-279
-293
-219
-168
-176
-170
-168
-235
-298
-290
-300
-343
-301
-255
-335
-353
-335
-439
109
1706
2415
831
-988
-1049
-416
-321
-347
-235
-251
-283
-223
-217
-217
-130
-80
-132
-167
-103
20
99
74
0
-6
39
22
-44
-29
60
110
122
147
144
107
91
64
0
-17
11
4
16
76
62
21
95
136
18
-38
29
18
-11
45
39
15
4
-135
255
1705
2532
1160
-677
-860
-212
-98
-252
-256
-255
-229
-140
-118
-155
-183
-217
-209
-106
-18
-50
-106
-85
-50
-57
-46
7
46
36
2
7
79
129
77
-12
-67
-114
-168
-207
-244
-273
-260
-220
-200
-191
-157
-130
-166
-199
-167
-173
-233
-198
-137
-196
-264
-335
-251
718
2183
2129
272
-1036
-735
-169
-122
-131
-23
14
15
51
59
43
82
150
168
172
200
189
126
105
169
238
234
216
227
207
172
182
194
212
297
339
223
60
-34
-89
-137
-161
-171
-178
-159
-110
-93
-165
-251
-252
-234
-302
-365
-349
-367
-406
-397
-459
-289
742
1858
1332
-421
-1250
-803
-394
-387
-352
-297
-320
-308
-269
-254
-232
-202
-188
-188
-192
-175
-131
-102
-94
-63
-17
19
73
109
67
34
96
142
84
7
-22
-24
-9
4
-7
-14
5
44
118
201
229
212
184
148
151
198
203
161
150
182
148
-66
33
1214
2562
2027
13
-965
-417
117
134
132
167
169
228
232
83
-60
-79
-28
10
14
58
131
12
-299
-437
-315
-224
-216
-142
-64
-77
-99
-58
0
20
5
-24
-71
-111
-104
-98
-136
-130
-61
-76
-209
-303
-305
-321
-362
-380
-428
-480
-468
-597
-660
284
1819
1781
-51
-1241
-877
-386
-388
-373
-301
-348
-388
-367
-346
-334
-313
-264
-199
-163
-127
-55
17
60
102
170
248
287
276
288
355
391
366
358
359
290
224
250
274
230
202
223
230
217
208
204
192
173
170
173
153
117
53
-59
-247
-450
-91
1239
2228
1269
-563
-1087
-483
-170
-271
-284
-236
-239
-228
-199
-187
-180
-170
-160
-122
-57
-32
-66
-91
-98
-114
-115
-92
-82
-93
-111
-106
-50
5
-21
-71
-48
5
3
-27
-41
-44
-29
6
27
-3
-89
-162
-147
-103
-135
-189
-205
-265
-331
-334
-403
-172
1014
2191
1572
-180
-865
-351
17
-39
-69
-30
-22
-19
-8
15
54
73
78
131
180
100
-77
-186
-141
-1
88
73
49
49
59
127
150
6
-72
53
72
-105
-169
-96
-114
-167
-122
-87
-121
-129
-135
-215
-269
-235
-238
-290
-248
-182
-233
-275
-256
-93
739
1907
1691
-89
-1199
-728
-112
-95
-143
-95
-106
-101
-74
-77
-64
-30
-11
-9
-16
6
55
65
40
36
37
32
71
132
123
38
-17
23
60
-25
-128
-105
-68
-144
-208
-128
-8
12
-19
2
14
-24
-18
40
104
176
180
122
76
-77
33
1101
2192
1558
-98
-726
-319
-15
43
33
-100
-169
-81
-59
-131
-154
-86
53
150
81
-23
6
79
98
119
151
140
102
51
-14
-55
-72
-119
-164
-128
-63
-93
-153
-86
7
-76
-232
-263
-280
-401
-458
-404
-436
-525
-489
-442
-500
-520
-570
-565
276
1741
1878
225
-1018
-761
-273
-269
-286
-235
-281
-297
-271
-293
-298
-248
-184
-106
-65
-104
-125
-60
4
33
81
135
162
186
211
229
279
371
444
444
395
344
282
225
244
298
296
304
352
308
198
156
114
41
26
-12
-77
-66
-149
-7
1162
2381
1586
-485
-1237
-566
-104
-105
-70
-78
-174
-187
-149
-152
-178
-190
-158
-102
-81
-98
-97
-63
-39
-40
-52
-85
-133
-175
-220
-227
-154
-97
-116
-126
-140
-231
-291
-235
-177
-180
-181
-164
-150
-167
-228
-266
-254
-272
-285
-219
-183
-190
-143
-228
-219
744
2087
1775
-77
-1060
-573
-106
-147
-141
-57
-64
-46
-8
-17
18
118
164
140
128
141
139
127
145
199
247
253
226
198
196
208
222
289
400
432
360
307
292
234
154
88
-3
-90
-114
-124
-146
-123
-75
-86
-137
-156
-181
-240
-263
-317
-258
547
1736
1559
-166
-1293
-915
-329
-276
-351
-349
-327
-280
-267
-285
-259
-242
-276
-293
-257
-227
-242
-263
-240
-196
-183
-196
-187
-159
-160
-181
-159
-96
-47
-13
21
24
9
16
3
-60
-98
-58
-1
-2
-66
-121
-115
-102
-104
-53
3
24
39
-91
-80
949
2410
2220
439
-574
-257
12
-76
-27
45
29
95
143
67
25
84
137
130
100
119
193
204
145
145
139
-9
-158
-166
-147
-139
-50
59
73
47
68
104
64
-28
-51
-7
-22
-87
-118
-136
-163
-196
-271
-298
-211
-205
-309
-357
-442
-207
1034
2179
1317
-627
-1244
-641
-313
-362
-332
-316
-341
-291
-243
-249
-251
-223
-189
-184
-172
-71
58
67
-17
-65
-65
-70
-82
-99
-120
-85
17
73
49
55
111
111
75
113
180
174
150
160
134
82
87
95
59
48
49
46
30
-97
129
1380
2535
1700
-251
-900
-285
54
-46
-50
-14
-68
-123
-143
-146
-147
-140
-99
-51
-19
-2
-27
-76
-89
-103
-161
-198
-178
-145
-117
-104
-108
-89
-47
-33
-57
-107
-159
-167
-150
-165
-180
-176
-219
-287
-307
-316
-314
-273
-291
-342
-328
-384
-178
1093
2628
2353
494
-632
-493
-318
-396
-349
-305
-366
-373
-368
-407
-400
-353
-328
-290
-243
-229
-206
-154
-134
-138
-97
-35
-23
-44
-29
28
99
183
236
197
124
104
108
129
227
333
326
255
219
212
210
207
210
227
222
211
175
-29
-37
848
1882
1404
-150
-800
-353
-41
-102
-103
-67
-101
-117
-92
-67
-79
-136
-170
-154
-153
-169
-146
-117
-144
-185
-183
-177
-204
-225
-199
-145
-97
-60
-28
-13
-28
-53
-61
-65
-69
-62
-70
-109
-147
-176
-200
-203
-168
-107
-89
-121
-172
-352
-328
723
2186
1989
113
-1066
-733
-235
-194
-175
-95
-75
-38
-1
-13
-6
20
16
36
105
134
101
88
111
122
124
126
103
82
118
164
183
236
292
239
137
103
91
46
19
13
-28
-89
-118
-117
-109
-118
-178
-244
-265
-309
-366
-372
-405
-116
1031
1994
1067
-847
-1411
-701
-287
-327
-272
-202
-242
-260
-232
-204
-203
-230
-209
-159
-189
-243
-200
-127
-125
-150
-148
-146
-146
-110
-64
-47
-4
90
142
128
131
146
111
55
28
49
100
82
-32
-94
-57
-56
-77
-29
-29
-85
-22
-70
-190
653
2256
2327
426
-898
-549
0
21
-8
7
-7
65
134
116
122
151
148
166
205
209
197
219
275
300
220
77
-16
-42
-52
-26
53
111
94
33
-42
-89
-63
-6
0
-31
-51
-79
-141
-193
-209
-242
-284
-275
-286
-314
-309
-481
-480
676
2165
1674
-407
-1364
-808
-396
-460
-431
-371
-387
-342
-303
-317
-281
-227
-233
-240
-190
-116
-48
8
48
65
32
-60
-155
-183
-133
-49
17
35
15
-3
-6
-7
-12
-9
21
61
52
-12
-51
-28
-18
-43
-29
-24
-75
-75
-141
-220
597
2238
2518
743
-641
-343
143
34
32
202
114
-68
-83
-59
-120
-182
-172
-120
-68
-35
-39
-69
-89
-82
-69
-79
-86
-49
7
29
49
87
87
37
-15
-56
-91
-102
-97
-106
-129
-157
-195
-238
-282
-299
-251
-215
-265
-265
-304
-560
-156
1575
2706
1361
-651
-968
-367
-220
-229
-91
-91
-164
-142
-155
-249
-276
-189
-108
-103
-96
-53
-30
-24
2
14
-12
-31
-32
-21
33
121
186
206
180
139
145
168
145
132
167
174
120
55
22
38
68
93
121
110
82
84
-82
-244
453
1696
1639
71
-948
-629
-171
-156
-206
-218
-256
-233
-170
-143
-156
-190
-205
-187
-162
-127
-110
-154
-164
-90
-94
-204
-241
-208
-231
-245
-166
-72
-28
-26
-46
-45
-20
-24
-37
-5
11
-49
-125
-156
-184
-224
-192
-99
-84
-114
-92
-170
-118
739
1768
1296
-314
-989
-453
-48
-99
-120
-76
-61
-16
14
3
38
113
149
157
173
167
163
212
233
161
103
112
105
76
85
130
193
244
230
175
140
137
175
209
161
92
61
-47
-213
-238
-155
-133
-116
-74
-124
-192
-236
-306
171
1454
1966
528
-1150
-1220
-470
-183
-228
-212
-189
-200
-203
-189
-181
-199
-202
-170
-162
-164
-140
-139
-154
-133
-124
-168
-191
-155
-121
-112
-67
22
74
51
6
-7
3
27
63
88
90
74
12
-91
-156
-165
-160
-115
-73
-102
-101
-154
-299
302
1883
2477
931
-684
-665
-114
-85
-139
-32
-11
-41
-15
6
9
27
59
90
99
102
121
124
106
108
122
118
113
92
39
25
73
71
-1
-33
-9
-7
-34
-48
-30
-9
-38
-109
-148
-154
-181
-227
-247
-242
-254
-251
-234
-364
-322
669
1931
1511
-337
-1229
-697
-259
-323
-321
-256
-272
-244
-201
-212
-195
-143
-130
-133
-95
-38
-24
-46
-48
-30
-34
-56
-87
-133
-154
-125
-92
-67
-39
-44
-78
-82
-64
-57
-25
18
-3
-57
-52
-23
-37
-39
15
10
-45
-18
-89
-173
608
2052
2155
502
-680
-414
-8
-57
-48
22
-36
-33
46
46
48
114
124
102
174
209
86
-9
42
93
80
65
41
3
-8
14
41
44
15
-19
-33
-37
-36
-32
-46
-88
-144
-200
-232
-224
-227
-264
-269
-270
-301
-305
-434
-544
325
1941
2056
190
-1144
-801
-241
-213
-222
-176
-196
-171
-138
-140
-79
9
28
13
7
-9
-32
-45
-50
-64
-94
-116
-118
-128
-125
-71
-1
40
70
86
65
52
75
76
55
61
45
-32
-58
-3
2
-29
-10
-7
4
-10
-183
145
1590
2553
1282
-648
-918
-188
32
-85
-50
-25
-62
-78
-125
-169
-132
-68
-26
9
18
-5
-8
8
-15
-67
-98
-103
-94
-80
-64
-53
-72
-116
-122
-105
-157
-225
-194
-141
-145
-157
-197
-287
-319
-300
-319
-324
-324
-363
-356
-457
-571
286
1945
2135
283
-1103
-783
-211
-214
-245
-155
-156
-168
-122
-90
-89
-98
-86
-31
23
46
69
98
103
94
100
111
100
87
96
126
170
197
176
145
136
104
54
66
139
197
201
157
120
123
101
53
43
10
-29
-31
-185
-61
1176
2426
1613
-372
-997
-378
-107
-229
-192
-132
-141
-112
-103
-127
-120
-113
-122
-112
-103
-101
-78
-50
-17
36
33
-63
-122
-86
-53
-53
-50
-85
-149
-165
-173
-218
-220
-172
-166
-189
-199
-225
-242
-227
-228
-211
-164
-175
-190
-256
-461
-32
1526
2431
1135
-610
-790
-245
-187
-295
-244
-231
-228
-162
-123
-122
-116
-114
-101
-78
-73
-60
-17
11
10
11
14
14
34
91
167
223
217
163
138
151
142
119
135
166
169
148
99
35
14
27
35
62
62
-8
-39
-120
-283
198
1467
1850
493
-817
-744
-246
-181
-228
-194
-211
-239
-224
-202
-178
-164
-158
-139
-129
-140
-138
-109
-63
-30
-64
-149
-208
-223
-203
-145
-95
-81
-66
-52
-73
-99
-75
-28
-7
-9
-20
-65
-125
-138
-128
-135
-114
-94
-129
-143
-223
-354
201
1517
1862
438
-872
-725
-153
-67
-136
-124
-130
-114
-75
-73
-66
-36
-10
29
75
99
124
159
170
170
195
216
199
193
252
336
372
362
349
323
269
211
177
174
189
190
164
112
46
-1
-42
-105
-137
-132
-132
-136
-263
-320
488
1824
1720
-89
-1285
-886
-283
-234
-267
-217
-215
-211
-193
-194
-184
-164
-153
-137
-120
-95
-66
-85
-134
-129
-112
-179
-263
-249
-172
-119
-100
-91
-87
-96
-114
-123
-116
-103
-88
-80
-88
-113
-147
-163
-162
-170
-157
-136
-184
-223
-244
-393
-103
1226
2191
1111
-684
-1012
-370
-129
-180
-122
-96
-107
-68
-49
-39
4
27
26
52
91
108
127
166
191
186
181
179
169
177
224
259
241
197
163
136
107
92
103
126
132
99
17
-101
-191
-217
-224
-220
-188
-192
-213
-197
-300
-267
663
1873
1515
-175
-990
-530
-172
-247
-247
-196
-225
-214
-177
-178
-170
-141
-122
-100
-68
-43
-19
15
44
44
22
6
2
6
31
75
105
106
108
117
110
87
74
84
106
112
86
35
