# session 2
54
170
-156
293
1410
1219
-156
-648
-122
122
10
29
61
19
24
40
29
42
65
71
75
82
89
99
115
139
162
171
181
211
243
256
263
270
270
268
260
219
150
90
40
-21
-78
-113
-135
-148
-149
-149
-152
-142
-123
-113
-116
-119
-117
-113
-110
-109
-108
-111
-115
-112
-104
-107
-119
-120
-106
-101
-112
-125
-126
-116
-105
-104
-108
-107
-104
-106
-108
-107
-103
-90
-79
-81
-90
-93
-93
-92
-90
-91
-87
-69
-43
-17
8
11
-21
-55
-66
-67
-64
-60
-74
-78
-53
-59
-77
-91
-204
-73
890
1913
1434
-96
-769
-354
-26
-77
-94
-50
-53
-56
-50
-46
-24
-11
-20
-12
19
43
50
59
81
106
125
140
157
177
200
222
236
242
246
246
230
178
102
35
-17
-69
-112
-131
-137
-139
-135
-136
-139
-128
-114
-109
-109
-103
-95
-95
-99
-93
-77
-75
-89
-96
-90
-78
-74
-88
-102
-91
-76
-83
-87
-72
-64
-70
-71
-71
-82
-87
-80
-81
-84
-55
-11
11
16
5
-38
-73
-66
-53
-54
-61
-77
-75
-49
-62
-78
-107
-240
16
1154
2011
1133
-457
-857
-314
-37
-82
-74
-57
-68
-40
-11
-16
-31
-21
10
-2
-35
0
44
29
69
189
230
177
153
181
228
273
287
285
295
282
218
136
58
-16
-80
-125
-152
-169
-177
-177
-174
-176
-173
-153
-136
-139
-138
-119
-107
-114
-115
-104
-104
-112
-109
-98
-95
-100
-99
-93
-95
-94
-79
-72
-81
-85
-76
-70
-73
-79
-74
-63
-67
-81
-85
-76
-59
-38
-21
-5
12
8
-19
-41
-53
-59
-49
-42
-60
-65
-58
-71
-73
-141
-235
295
1557
2008
740
-620
-621
-102
-28
-107
-68
-67
-84
-55
-41
-38
-23
-14
-4
16
29
39
58
78
94
112
135
163
195
220
233
240
248
256
257
239
192
125
59
-2
-61
-104
-127
-143
-155
-158
-155
-150
-143
-138
-136
-133
-130
-125
-119
-120
-124
-124
-120
-116
-113
-112
-111
-105
-100
-99
-103
-108
-108
-100
-97
-102
-106
-104
-101
-99
-97
-96
-97
-97
-85
-56
-26
-7
5
-3
-38
-64
-61
-57
-56
-48
-50
-47
-40
-65
-75
-103
-205
105
1160
1806
902
-460
-707
-218
-13
-60
-43
-32
-54
-38
-15
-12
-2
10
15
26
46
62
70
83
108
134
151
171
198
220
233
243
247
245
247
247
214
147
79
25
-29
-80
-111
-127
-140
-147
-143
-142
-142
-131
-117
-116
-115
-102
-94
-102
-109
-102
-90
-91
-105
-113
-104
-96
-100
-108
-109
-107
-105
-104
-105
-102
-91
-89
-103
-108
-101
-92
-70
-34
-16
-20
-25
-40
-66
-77
-84
-92
-81
-76
-84
-66
-65
-93
-84
-169
-229
455
1643
1658
184
-903
-682
-174
-55
-52
-26
-35
-27
-1
1
4
20
33
40
45
62
88
103
112
135
159
176
200
227
246
267
284
288
294
300
274
212
142
68
-5
-56
-93
-130
-156
-158
-156
-160
-159
-150
-138
-129
-123
-118
-114
-109
-98
-92
-101
-110
-110
-113
-113
-107
-108
-119
-124
-120
-113
-115
-124
-129
-129
-134
-126
-90
-52
-33
-29
-50
-85
-94
-87
-99
-104
-94
-111
-109
-66
-80
-106
-120
-260
-35
1159
2100
1165
-544
-957
-375
-81
-92
-59
-68
-97
-57
-34
-44
-35
-20
-13
2
20
40
61
73
86
112
142
170
201
228
250
281
306
308
304
295
252
174
92
23
-37
-88
-125
-145
-153
-155
-153
-149
-142
-132
-122
-116
-108
-97
-93
-94
-87
-80
-89
-99
-93
-86
-90
-96
-101
-101
-91
-89
-109
-121
-110
-108
-112
-85
-47
-32
-28
-31
-59
-85
-87
-92
-93
-80
-92
-103
-69
-75
-121
-138
-267
-214
809
2141
1860
157
-765
-413
-73
-126
-140
-109
-127
-112
-89
-91
-74
-59
-64
-50
-23
-15
-13
3
28
50
70
95
131
172
198
214
235
259
272
266
230
165
92
27
-34
-87
-122
-137
-140
-140
-137
-130
-126
-129
-131
-123
-113
-109
-110
-109
-104
-97
-93
-91
-91
-94
-91
-84
-84
-87
-81
-77
-85
-89
-84
-79
-77
-77
-75
-74
-79
-90
-92
-68
-35
-15
-4
3
-14
-49
-65
-61
-62
-61
-62
-72
-60
-50
-80
-100
-182
-254
377
1738
2169
844
-517
-546
-109
-71
-137
-101
-107
-114
-76
-64
-67
-51
-43
-41
-26
-7
9
28
48
67
86
108
134
162
180
190
212
244
258
253
238
198
126
47
-20
-82
-126
-131
-131
-160
-177
-157
-147
-172
-187
-165
-137
-140
-168
-194
-197
-173
-150
-155
-155
-131
-121
-126
-104
-80
-98
-120
-114
-106
-102
-95
-99
-104
-92
-89
-98
-83
-47
-17
7
20
1
-34
-54
-55
-48
-39
-39
-53
-53
-46
-63
-70
-127
-209
293
1568
2141
930
-569
-707
-163
-28
-103
-64
-55
-83
-59
-29
-12
6
2
-6
9
34
56
75
94
111
118
125
157
193
209
223
247
254
247
251
248
204
136
73
11
-55
-99
-115
-132
-154
-157
-145
-143
-144
-135
-126
-122
-123
-124
-118
-110
-112
-115
-106
-101
-112
-125
-132
-127
-112
-104
-109
-114
-118
-116
-96
-85
-102
-102
-80
-87
-106
-92
-75
-85
-91
-84
-89
-99
-88
-64
-46
-44
-68
-97
-101
-91
-95
-95
-93
-98
-81
-68
-91
-94
-155
-207
413
1695
2037
715
-565
-535
-81
-40
-108
-69
-68
-83
-49
-17
-17
-32
-35
-5
27
36
46
67
79
86
104
132
156
168
176
190
206
215
224
229
217
182
125
61
4
-44
-87
-120
-137
-144
-148
-149
-137
-119
-113
-111
-104
-99
-91
-81
-88
-101
-91
-79
-84
-89
-80
-68
-64
-72
-79
-75
-72
-75
-73
-65
-62
-65
-65
-60
-58
-55
-50
-47
-51
-54
-61
-74
-72
-41
-8
8
17
19
-5
-41
-60
-67
-70
-55
-50
-71
-66
-52
-75
-93
-170
-200
439
1617
1802
495
-636
-548
-123
-67
-106
-74
-76
-82
-59
-51
-49
-29
-12
-5
6
24
37
48
66
88
103
119
138
153
163
181
201
208
202
194
183
158
111
49
-9
-51
-90
-126
-142
-142
-148
-154
-146
-135
-129
-122
-112
-104
-100
-103
-104
-96
-90
-93
-92
-90
-102
-115
-110
-94
-92
-100
-104
-102
-101
-101
-97
-90
-81
-72
-68
-76
-89
-88
-79
-76
-76
-82
-97
-98
-71
-37
-19
-6
-1
-29
-76
-88
-70
-61
-62
-72
-85
-65
-56
-84
-93
-182
-196
608
1975
2102
584
-605
-455
-43
-41
-73
-28
-46
-57
-28
-24
-21
9
29
28
33
55
75
79
81
101
130
145
154
173
218
300
346
263
158
192
224
80
-41
5
-8
-171
-253
-211
-249
-367
-347
-179
-107
-201
-233
-124
-111
-254
-271
-105
-22
-70
-81
-37
7
23
-21
-61
-59
-123
-209
-165
-103
-152
-193
-171
-166
-159
-126
-129
-136
-52
7
-108
-160
30
84
-129
-163
-64
-190
-184
101
105
291
1483
2222
860
-991
-1209
-535
-232
-102
22
-40
-64
35
28
-44
-15
72
115
109
112
134
130
135
185
211
225
270
238
120
74
122
188
287
393
426
369
228
76
38
49
-35
-138
-153
-145
-173
-205
-239
-288
-292
-191
-79
-86
-140
-124
-130
-206
-221
-167
-114
-19
48
-53
-173
-164
-181
-256
-213
-97
-59
-64
-54
-68
-106
-128
-95
-10
47
17
-71
-169
-197
-129
-60
-17
-54
-156
300
1522
1952
524
-1062
-1090
-392
-163
-188
-110
-80
-126
-113
-46
-13
-30
-21
38
69
61
93
152
159
126
125
144
141
158
234
298
263
169
152
215
214
156
152
126
22
-22
-22
-90
-99
-14
-42
-153
-167
-134
-78
59
110
-10
-71
-15
-17
-58
-59
-111
-199
-152
15
97
27
-34
-16
-65
-192
-215
-125
-73
-72
-59
-66
-101
-110
-106
-108
-91
-92
-109
-71
-106
-127
570
1818
1840
84
-1360
-1102
-327
-165
-219
-125
-151
-288
-257
-115
-64
-89
-111
-121
-94
-15
44
32
27
111
222
247
209
218
289
330
296
217
106
8
1
26
-3
-44
-67
-100
-106
-83
-74
-40
32
69
41
-22
-57
-27
0
-18
-28
-30
-23
16
-5
-73
-41
-21
-142
-161
16
119
75
48
81
94
3
-158
-213
-145
-134
-165
-63
28
-37
286
1277
1697
532
-959
-1184
-570
-192
-93
-26
-45
-46
47
-6
-164
-78
88
-49
-227
-118
-9
-81
-76
24
26
17
77
70
36
97
148
170
280
352
262
184
186
124
29
19
-15
-155
-225
-156
-167
-292
-278
-124
-76
-115
-60
19
5
-21
-32
-68
-68
-33
-66
-120
-88
-54
-133
-194
-60
83
-38
-197
-92
23
-84
-135
22
144
34
-55
578
1807
1997
534
-776
-729
-273
-150
-99
-73
-127
-102
-73
-142
-162
-126
-138
-130
-85
-127
-208
-180
-132
-153
-63
102
82
97
397
530
269
85
119
136
164
201
100
-65
-160
-182
-171
-213
-305
-307
-244
-250
-263
-174
-64
-54
-110
-123
-87
-94
-156
-190
-162
-123
-109
-120
-113
-44
17
-11
-46
-11
36
25
-28
-86
-223
-296
440
1963
2379
712
-980
-970
-285
-80
-82
-33
-39
-2
109
172
157
95
48
39
-16
-81
-39
32
63
120
157
129
134
141
108
167
257
184
79
104
99
8
-17
-27
-134
-207
-190
-219
-270
-242
-247
-338
-343
-238
-189
-223
-254
-275
-294
-259
-181
-135
-119
-91
-91
-159
-208
-139
-29
-41
-125
-146
-144
-132
-137
-261
89
1531
2608
1473
-531
-973
-278
39
43
91
-17
-103
32
91
-16
-50
-34
-92
-70
80
134
111
177
196
112
149
271
292
311
383
347
217
145
135
109
53
-7
-50
-82
-118
-142
-162
-212
-242
-210
-200
-242
-227
-158
-155
-214
-244
-237
-229
-234
-233
-196
-190
-285
-333
-264
-273
-370
-368
-276
-216
-254
-328
-336
-420
-298
854
2238
1749
-179
-1068
-609
-228
-172
-62
-30
-81
-70
-91
-120
-58
-36
-76
-20
52
25
56
154
127
90
213
312
293
312
314
229
257
404
423
334
305
286
205
134
72
-21
-86
-65
-15
-12
-35
-7
41
-12
-142
-193
-152
-137
-138
-51
66
47
-81
-107
-12
2
-110
-179
-137
-107
-170
-205
-171
-277
-223
863
2387
2196
175
-1135
-717
-170
-341
-484
-326
-289
-372
-324
-195
-131
-150
-193
-180
-86
7
-21
-157
-224
-141
-44
-28
3
102
137
41
-12
97
175
83
11
47
-3
-156
-199
-110
-53
-72
-84
-21
86
129
70
6
-26
-74
-72
41
109
40
-11
5
-39
-108
-73
-39
-130
-186
-87
-3
-1
-36
-189
-37
1095
2218
1516
-331
-1048
-477
-27
-30
-50
-19
-2
-27
-116
-139
-90
-135
-188
-110
-73
-119
-55
14
-66
-75
51
63
2
78
167
124
126
260
289
117
-25
-41
-84
-168
-189
-195
-241
-305
-383
-398
-292
-217
-256
-249
-167
-154
-177
-132
-62
-38
-63
-105
-127
-151
-175
-109
18
53
3
-15
4
-85
-256
175
1592
2485
1287
-625
-1052
-412
-126
-187
-145
-74
-71
-116
-132
-45
24
12
102
305
379
250
78
-10
-13
33
104
150
149
184
271
271
215
294
430
371
165
21
-63
-177
-266
-262
-251
-326
-382
-320
-273
-317
-299
-199
-159
-171
-174
-187
-171
-132
-198
-348
-380
-240
-83
-23
-57
-153
-210
-226
-362
-152
1195
2595
1900
-230
-1138
-574
-178
-263
-269
-203
-148
-48
-32
-110
-96
8
72
111
181
217
188
173
190
196
207
232
235
244
307
365
352
324
332
299
161
31
11
5
-50
-43
28
48
49
46
-77
-234
-236
-156
-127
-101
-60
-68
-93
-89
-102
-173
-245
-241
-210
-257
-319
-321
-351
-377
-364
-317
357
1844
2388
808
-958
-1061
-451
-290
-297
-244
-279
-294
-247
-274
-330
-302
-213
-131
-86
-53
-25
-31
-37
16
93
153
196
187
125
76
34
-38
-81
-45
-12
-52
-99
-71
-42
-90
-122
-70
-30
-15
51
57
-101
-245
-231
-171
-150
-133
-140
-213
-295
-292
-201
-151
-215
-286
-322
-362
-350
-343
-219
716
2134
2058
133
-1241
-932
-389
-414
-434
-334
-354
-353
-297
-340
-397
-395
-414
-380
-330
-424
-248
669
1717
1977
1455
787
556
800
997
981
1033
1022
780
614
606
465
195
-25
-191
-303
-308
-228
-139
-144
-253
-258
-100
-26
-83
-99
-135
-222
-188
-136
-265
-401
-388
-350
-336
-269
-203
-192
-107
0
-187
-163
1075
2515
1928
-96
-1012
-595
-282
-320
-296
-239
-202
-186
-240
-268
-204
-171
-225
-229
-102
-8
-56
-66
50
110
14
-140
-193
-80
12
-99
-238
-189
-76
-103
-212
-257
-269
-303
-273
-203
-222
-287
-308
-307
-269
-215
-216
-157
8
71
15
28
35
-84
-197
-225
-202
-99
-56
-246
-378
-224
-210
-314
430
1819
1994
566
-595
-562
-259
-234
-181
-47
-36
-145
-245
-269
-250
-212
-105
3
-18
-61
15
107
141
176
203
255
385
434
332
305
399
386
274
271
337
297
185
139
169
175
123
105
154
150
106
192
326
309
262
270
132
-83
-94
-6
-45
-144
-185
-163
-139
-180
-206
-213
-227
223
1226
1501
310
-965
-1050
-533
-290
-256
-180
-127
-147
-154
-105
-71
-104
-148
-138
-102
-91
-92
-83
-83
-84
-51
11
50
24
-35
-52
-13
51
107
84
0
-4
45
-1
-100
-183
-316
-462
-495
-444
-417
-409
-347
-270
-238
-174
-82
-108
-169
-80
-8
-116
-201
-147
-112
-141
-114
-65
-170
-113
882
2296
2171
346
-884
-558
-38
-70
-122
2
62
74
126
95
-68
-142
-37
18
-57
-85
-22
60
141
166
144
161
164
97
93
186
209
155
176
238
195
90
55
66
37
