# session 25
-17
-8
-25
5
98
170
200
227
250
267
295
285
198
94
32
-12
-66
-128
-177
-173
-133
-126
-138
-118
-110
-139
-141
-115
-115
-116
-92
-88
-104
-96
-75
-77
-100
-112
-92
-78
-110
-134
-102
-72
-77
-70
-37
-22
-31
-35
-38
-65
-87
-44
15
-28
-99
-72
-128
-145
690
2077
2049
276
-936
-556
-5
-64
-166
-117
-110
-89
-44
-63
-84
-46
-21
-44
-42
14
50
30
19
65
127
152
139
138
193
264
293
310
335
294
174
78
29
-31
-88
-108
-116
-139
-159
-165
-162
-150
-141
-143
-142
-113
-86
-106
-143
-151
-140
-132
-127
-137
-153
-132
-96
-122
-180
-158
-80
-62
-91
-89
-76
-84
-77
-70
-103
-120
-97
-93
-92
-152
-213
402
1771
2150
596
-918
-773
-110
-73
-185
-103
-80
-109
-93
-102
-108
-61
-25
-28
-36
-35
-12
21
37
55
90
112
125
156
193
219
244
265
267
236
177
113
43
-28
-70
-112
-172
-190
-159
-139
-131
-117
-121
-146
-154
-130
-104
-117
-147
-136
-105
-113
-123
-98
-103
-145
-139
-102
-101
-104
-72
-50
-63
-76
-71
-73
-93
-110
-101
-70
-67
-85
-71
-153
-199
557
1925
2015
313
-979
-649
-45
-70
-173
-103
-94
-106
-67
-59
-65
-34
-19
-31
-16
17
24
25
44
72
107
133
148
194
252
251
224
256
295
256
176
116
60
-16
-94
-137
-132
-119
-139
-158
-140
-125
-136
-140
-124
-107
-103
-118
-128
-110
-90
-97
-106
-99
-108
-134
-141
-110
-59
-32
-58
-96
-98
-95
-103
-97
-102
-107
-68
-72
-131
-130
-195
-167
731
2021
1723
-133
-1113
-550
-35
-119
-158
-74
-80
-94
-78
-79
-79
-68
-51
-35
-23
7
33
15
16
78
111
104
137
189
204
215
240
254
255
231
163
85
28
-38
-112
-149
-150
-159
-172
-153
-124
-135
-161
-145
-105
-97
-111
-106
-87
-90
-113
-120
-114
-117
-120
-96
-43
-7
-25
-59
-66
-88
-126
-116
-89
-93
-78
-82
-119
-87
-143
-190
605
1911
1685
-241
-1366
-786
-108
-70
-85
-35
-77
-69
-9
-21
-38
5
34
22
22
53
91
118
134
142
158
204
263
298
312
330
348
359
361
320
233
150
78
-15
-95
-113
-121
-169
-197
-159
-127
-149
-167
-138
-111
-126
-143
-120
-87
-96
-137
-155
-135
-114
-98
-73
-65
-93
-137
-172
-182
-157
-139
-145
-131
-131
-152
-123
-179
-216
498
1670
1456
-323
-1343
-736
-69
-79
-127
-46
-61
-86
-66
-63
-50
-20
-6
4
30
58
65
50
49
88
134
158
180
219
247
255
277
313
311
250
163
81
13
-42
-79
-87
-82
-99
-130
-135
-114
-102
-104
-102
-96
-98
-98
-86
-92
-122
-121
-79
-59
-64
-53
-48
-74
-102
-111
-104
-100
-108
-97
-80
-94
-95
-156
-286
160
1375
1797
422
-983
-801
-81
-9
-146
-79
-46
-70
-36
-17
-32
-32
-28
-24
-1
29
42
48
65
91
104
98
107
152
198
220
241
261
251
210
162
104
26
-54
-106
-127
-135
-137
-134
-135
-138
-137
-128
-110
-100
-101
-100
-100
-113
-129
-129
-106
-66
-40
-42
-53
-71
-105
-119
-98
-94
-113
-100
-89
-106
-97
-186
-253
445
1663
1558
-153
-1188
-615
20
-37
-117
-44
-59
-72
-26
-16
-29
-27
-22
-6
14
25
42
62
72
86
112
138
163
195
224
244
262
274
270
243
177
68
-33
-83
-105
-126
-141
-147
-152
-143
-124
-123
-137
-136
-124
-118
-107
-97
-105
-118
-115
-100
-68
-31
-35
-76
-100
-101
-98
-90
-93
-102
-90
-97
-104
-98
-235
-187
768
1828
1166
-625
-1172
-389
52
-78
-95
-34
-65
-59
-27
-36
-30
2
20
22
24
35
50
60
74
107
146
168
181
210
245
252
247
262
262
209
130
57
-12
-67
-102
-129
-141
-130
-121
-135
-146
-131
-114
-115
-116
-103
-95
-102
-116
-125
-119
-100
-75
-45
-29
-53
-92
-109
-110
-106
-107
-103
-74
-74
-123
-117
-162
-291
212
1472
1747
188
-1160
-830
-102
-54
-140
-54
-53
-82
-42
-32
-39
-15
-4
-10
2
22
37
56
75
89
107
135
169
201
226
243
262
282
282
245
180
101
24
-38
-82
-108
-122
-135
-146
-143
-133
-124
-114
-105
-104
-102
-95
-91
-90
-93
-99
-105
-103
-87
-46
-8
-25
-75
-99
-95
-89
-89
-104
-103
-73
-86
-107
-116
-248
-75
1020
1927
960
-816
-1120
-303
14
-131
-101
-40
-75
-60
-31
-44
-31
2
2
-9
5
34
50
55
74
107
134
154
178
209
236
251
265
274
251
192
128
61
-21
-86
-112
-127
-149
-164
-158
-142
-133
-130
-125
-119
-116
-113
-110
-107
-103
-102
-110
-124
-132
-126
-92
-42
-23
-55
-97
-119
-124
-109
-93
-104
-98
-79
-109
-116
-145
-298
75
1407
2086
684
-1073
-1113
-291
-43
-111
-49
-41
-88
-66
-44
-34
5
18
-4
1
37
62
72
99
149
181
178
180
221
274
302
312
331
342
304
228
153
83
13
-44
-97
-151
-175
-162
-151
-154
-146
-130
-125
-124
-105
-87
-94
-107
-115
-131
-145
-135
-107
-80
-83
-109
-99
-67
-107
-179
-176
-142
-121
-99
-122
-120
-54
-164
-107
917
1959
1091
-886
-1471
-644
-77
-70
-87
-80
-81
-32
-26
-67
-58
-8
24
36
46
60
66
82
119
139
146
196
256
276
319
395
406
354
310
244
133
44
4
-27
-79
-154
-221
-226
-184
-172
-198
-193
-146
-114
-122
-147
-151
-123
-103
-108
-105
-106
-142
-161
-123
-89
-79
-64
-69
-102
-113
-104
-93
-73
-71
-88
-93
-101
-96
-131
-224
227
1529
2155
800
-904
-980
-230
-28
-119
-67
-35
-26
-14
-86
-121
-51
-18
-26
1
16
14
44
71
82
115
148
162
193
231
243
254
277
286
281
235
111
-13
-58
-79
-122
-131
-111
-140
-199
-202
-162
-147
-150
-137
-118
-116
-113
-104
-109
-119
-88
-56
-103
-188
-197
-137
-90
-65
-53
-74
-104
-109
-98
-96
-107
-109
-93
-111
-136
-87
-127
-164
569
1856
1813
65
-1105
-635
-18
-76
-164
-76
-69
-71
-30
-57
-87
-47
-18
-27
-13
21
37
50
76
88
82
99
155
209
234
250
281
303
282
225
159
89
9
-56
-90
-113
-135
-148
-152
-153
-152
-150
-141
-124
-113
-114
-111
-101
-93
-92
-92
-91
-91
-91
-88
-91
-108
-119
-110
-97
-80
-46
-39
-83
-119
-109
-89
-87
-101
-103
-68
-63
-105
-81
-121
-186
530
1921
1988
149
-1199
-762
-63
-70
-151
-71
-84
-95
-41
-37
-54
-31
-13
-11
2
18
31
49
67
82
105
143
185
222
256
284
304
315
314
289
222
118
20
-43
-89
-130
-151
-147
-138
-145
-168
-176
-162
-144
-136
-133
-128
-117
-109
-115
-122
-116
-112
-116
-112
-105
-107
-117
-134
-151
-144
-116
-93
-73
-50
-49
-82
-114
-113
-92
-91
-86
-61
-77
-96
-80
-182
-5
1155
2232
1310
-685
-1200
-380
7
-124
-93
-36
-93
-77
-24
-27
-28
-20
-26
-13
20
37
41
55
85
117
144
184
242
279
283
292
319
330
314
273
193
88
5
-51
-107
-154
-159
-146
-160
-181
-168
-144
-145
-151
-139
-129
-128
-125
-117
-114
-117
-114
-101
-105
-129
-132
-104
-94
-119
-145
-149
-132
-99
-75
-75
-81
-78
-80
-94
-97
-79
-78
-89
-65
-60
-92
-84
-161
-165
712
2087
1882
-79
-1226
-635
-3
-64
-125
-63
-96
-91
-37
-43
-40
-3
-8
-26
1
37
39
34
60
106
136
150
178
223
264
288
305
325
327
281
200
123
55
-26
-108
-149
-152
-159
-172
-172
-165
-153
-138
-140
-154
-143
-113
-109
-128
-133
-124
-113
-104
-108
-119
-114
-106
-116
-131
-141
-151
-145
-114
-75
-49
-47
-72
-101
-112
-102
-83
-86
-93
-68
-76
-106
-66
-129
-89
905
2228
1704
-453
-1491
-785
-127
-109
-93
-24
-50
-35
-5
-36
-37
8
28
38
58
61
56
78
116
149
181
216
259
306
336
344
358
381
378
324
241
165
93
-12
-119
-161
-162
-179
-195
-188
-178
-174
-167
-159
-147
-131
-121
-120
-120
-115
-111
-118
-125
-121
-123
-140
-144
-140
-156
-157
-124
-103
-99
-82
-81
-103
-107
-97
-103
-116
-122
-103
-84
-107
-100
-112
-210
238
1564
2141
651
-1104
-1091
-248
-33
-138
-81
-60
-90
-53
-34
-52
-41
-16
-2
9
15
29
56
76
92
118
149
180
222
269
302
316
324
334
315
246
152
66
-6
-58
-90
-127
-167
-179
-169
-162
-151
-135
-136
-143
-131
-119
-121
-119
-108
-103
-103
-105
-110
-108
-106
-119
-137
-133
-115
-94
-64
-44
-64
-91
-92
-88
-86
-80
-84
-79
-63
-86
-98
-117
-208
216
1531
2202
821
-952
-1020
-215
-18
-139
-73
-51
-106
-73
-29
-40
-39
-23
-22
-12
14
30
33
48
80
116
148
168
190
227
263
283
302
314
289
221
130
38
-36
-86
-120
-148
-167
-169
-162
-168
-181
-178
-162
-142
-120
-115
-137
-152
-135
-114
-116
-119
-111
-115
-135
-150
-148
-135
-115
-78
-36
-38
-84
-111
-102
-89
-80
-89
-117
-107
-77
-92
-89
-125
-203
377
1756
2133
484
-1113
-906
-117
-34
-165
-82
-44
-78
-55
-37
-45
-31
-7
-2
-8
7
38
57
65
82
114
166
216
233
237
266
305
326
326
297
236
156
61
-29
-86
-118
-142
-153
-146
-141
-148
-163
-170
-158
-136
-120
-118
-131
-125
-87
-81
-129
-150
-116
-97
-115
-132
-139
-141
-124
-87
-53
-38
-45
-59
-73
-91
-98
-88
-87
-85
-69
-95
-111
-74
-159
0
1119
2186
1290
-684
-1195
-363
30
-129
-135
-71
-96
-84
-51
-39
-20
-28
-54
-38
6
34
36
32
58
103
125
139
169
204
241
274
289
297
299
253
152
47
-24
-66
-101
-143
-177
-175
-150
-153
-172
-158
-129
-140
-163
-148
-117
-108
-116
-119
-113
-108
-118
-129
-120
-119
-138
-134
-95
-63
-41
-24
-46
-85
-96
-98
-111
-113
-94
-52
-42
-86
-92
-151
-207
515
1918
2001
148
-1213
-742
-27
-64
-151
-48
-54
-79
-51
-68
-65
-18
-18
-20
35
65
50
66
90
74
83
147
207
238
253
263
299
349
345
275
193
118
30
-51
-85
-96
-130
-156
-129
-116
-166
-192
-141
-101
-115
-117
-96
-102
-135
-152
-134
-103
-101
-125
-122
-98
-118
-162
-141
-74
-46
-60
-72
-83
-97
-101
-96
-101
-118
-100
-57
-96
-146
-113
-191
-63
1042
2169
1338
-655
-1229
-426
-23
-158
-131
-55
-111
-109
-39
-25
-47
-30
1
-14
-31
18
54
19
22
105
156
153
181
233
254
265
290
305
296
245
156
91
48
-52
-161
-169
-121
-113
-136
-154
-164
-157
-141
-128
-110
-95
-101
-117
-121
-113
-109
-91
-59
-73
-137
-154
-114
-96
-74
-1
23
-52
-103
-84
-78
-83
-79
-80
-55
-48
-88
-87
-170
-222
616
2048
1927
-37
-1237
-659
-19
-98
-169
-88
-115
-109
-29
-37
-88
-73
-34
-14
9
24
12
9
28
54
105
163
170
160
189
240
286
303
258
192
147
88
4
-57
-91
-128
-163
-168
-151
-153
-169
-163
-141
-124
-116
-126
-140
-128
-107
-101
-107
-113
-106
-105
-139
-154
-108
-64
-60
-51
-42
-66
-104
-120
-98
-77
-102
-109
-72
-91
-108
-93
-214
35
1319
2302
1175
-758
-1079
-276
12
-118
-99
-84
-118
-79
-63
-92
-80
-43
-19
-5
-2
3
20
36
61
92
108
135
192
240
254
253
262
272
250
184
108
50
6
-39
-86
-123
-152
-178
-170
-130
-113
-130
-138
-125
-100
-75
-77
-100
-106
-104
-114
-110
-95
-100
-114
-102
-55
-14
-21
-61
-83
-97
-119
-107
-77
-81
-89
-100
-113
-54
-83
-203
406
1765
1911
92
-1379
-1016
-209
-62
-95
-36
-45
-32
17
-17
-48
-4
20
-5
4
63
108
114
127
160
172
163
190
251
283
287
339
408
378
274
214
161
44
-54
-72
-103
-194
-250
-219
-174
-187
-222
-208
-155
-126
-147
-172
-152
-118
-131
-163
-147
-118
-125
-137
-135
-127
-83
-32
-62
-143
-171
-138
-110
-131
-157
-119
-94
-137
-113
-126
-190
463
1763
1761
-109
-1482
-1047
-250
-107
-129
-47
-34
-55
-42
-28
-7
14
3
-13
9
55
89
103
115
140
174
208
245
287
327
370
416
430
400
337
240
125
31
-36
-94
-149
-190
-197
-190
-192
-182
-153
-148
-163
-152
-126
-114
-106
-94
-84
-84
-101
-118
-112
-87
-55
-32
-44
-84
-122
-143
-141
-126
-132
-139
-115
-110
-127
-154
-264
-57
1040
2003
1126
-702
-1149
-371
-19
-164
-143
-79
-117
-98
-61
-72
-61
-33
-26
-13
10
27
45
68
87
107
132
165
203
238
262
281
299
304
282
227
148
70
7
-45
-82
-99
-108
-119
-120
-109
-102
-96
-86
-81
-80
-73
-68
-70
-67
-65
-73
-79
-66
-36
0
24
13
-18
-35
-48
-64
-62
-55
-60
-53
-49
-58
-63
-168
-119
782
1965
1556
-278
-1129
-465
39
-87
-115
-29
-71
-81
-36
-43
-41
-7
-4
-13
3
21
27
42
66
82
96
129
174
208
225
237
247
248
225
170
91
5
-66
-115
-160
-199
-212
-207
-207
-214
-214
-204
-197
-209
-220
-203
-185
-187
-186
-182
-185
-185
-191
-216
-222
-186
-140
-112
-119
-155
-175
-179
-194
-200
-189
-183
-171
-165
-170
-177
-282
-183
787
1905
1336
-506
-1208
-478
-17
-171
-197
-100
-118
-121
-79
-57
-33
-31
-54
-39
-1
17
43
82
104
121
145
171
210
259
296
334
382
400
366
303
228
147
82
51
42
20
-18
-30
-3
19
16
24
61
90
90
74
