# session 39
-34
-40
-28
16
24
-40
-86
-74
-67
-75
-74
-74
-79
-79
-78
-79
-75
-72
-73
-72
-73
-78
-84
-83
-67
-34
4
31
28
-11
-50
-60
-64
-71
-64
-69
-84
-64
-61
-91
-93
-194
-138
923
2374
2011
-70
-1151
-532
13
-91
-130
-56
-88
-90
-50
-59
-58
-31
-25
-21
0
17
30
48
69
90
112
134
159
188
221
250
273
292
313
331
318
259
171
77
-11
-85
-138
-171
-189
-199
-201
-197
-190
-186
-181
-177
-170
-162
-156
-155
-152
-146
-145
-146
-146
-142
-140
-143
-146
-145
-142
-141
-140
-139
-138
-138
-137
-128
-103
-67
-32
-17
-41
-87
-107
-105
-111
-109
-100
-108
-100
-81
-102
-108
-157
-258
328
1849
2444
837
-932
-878
-120
-24
-150
-79
-67
-103
-67
-52
-62
-40
-21
-16
-1
16
27
43
64
89
113
135
160
189
221
249
272
293
316
338
343
312
235
137
47
-30
-97
-143
-166
-180
-189
-187
-178
-172
-166
-157
-148
-141
-137
-133
-131
-125
-120
-122
-126
-125
-125
-125
-124
-122
-122
-121
-120
-118
-113
-109
-110
-110
-110
-111
-101
-72
-38
-14
2
-5
-43
-78
-84
-85
-91
-80
-80
-95
-77
-69
-102
-109
-200
-188
778
2295
2171
161
-1095
-585
-1
-87
-145
-63
-90
-103
-60
-62
-60
-31
-23
-19
-1
16
31
52
73
90
109
134
163
193
222
250
275
296
315
333
333
289
205
110
22
-58
-117
-152
-174
-190
-197
-196
-192
-183
-171
-164
-161
-155
-146
-140
-139
-138
-136
-134
-129
-126
-130
-135
-137
-135
-131
-125
-120
-118
-118
-116
-114
-118
-121
-106
-73
-41
-21
-9
-17
-53
-88
-93
-92
-99
-95
-98
-104
-81
-85
-120
-128
-228
-124
993
2397
1928
-149
-1132
-486
9
-116
-144
-63
-91
-93
-60
-66
-59
-34
-25
-14
4
17
34
56
74
94
122
150
179
215
250
274
292
314
340
360
350
293
200
98
7
-70
-126
-162
-181
-190
-193
-195
-193
-187
-179
-169
-156
-148
-146
-141
-138
-142
-142
-133
-122
-119
-125
-134
-138
-137
-133
-134
-136
-130
-123
-125
-131
-123
-94
-63
-37
-18
-21
-54
-90
-100
-101
-108
-103
-97
-106
-94
-81
-108
-111
-171
-230
507
2050
2379
586
-1010
-766
-62
-49
-154
-74
-77
-103
-62
-52
-54
-28
-21
-23
-4
16
29
46
64
83
107
135
166
202
232
256
283
312
335
355
358
316
231
132
35
-50
-114
-154
-178
-191
-196
-199
-195
-186
-178
-171
-162
-155
-148
-142
-138
-137
-135
-133
-133
-134
-134
-134
-134
-135
-136
-134
-129
-127
-128
-129
-131
-130
-112
-78
-47
-27
-16
-30
-70
-98
-100
-103
-107
-95
-98
-108
-85
-88
-113
-127
-232
-14
1237
2464
1646
-423
-1108
-375
10
-135
-128
-64
-100
-87
-51
-60
-50
-28
-26
-13
9
20
33
54
73
94
121
149
176
207
241
273
301
323
344
361
348
286
190
92
4
-68
-120
-152
-171
-179
-181
-180
-176
-169
-162
-157
-152
-145
-139
-136
-135
-133
-133
-132
-132
-131
-131
-131
-132
-132
-132
-131
-127
-122
-121
-123
-121
-122
-120
-100
-64
-30
-10
-19
-61
-94
-96
-99
-103
-93
-98
-106
-81
-85
-115
-128
-230
-25
1202
2438
1663
-388
-1095
-371
25
-119
-120
-58
-96
-84
-50
-58
-47
-24
-20
-9
10
20
34
56
73
91
117
144
171
203
236
268
295
316
335
351
339
281
190
95
8
-68
-123
-157
-177
-188
-190
-185
-178
-172
-168
-162
-154
-149
-145
-139
-135
-134
-133
-131
-130
-131
-131
-132
-134
-135
-133
-130
-127
-126
-126
-120
-113
-114
-126
-128
-103
-54
-9
-10
-54
-92
-94
-91
-93
-85
-89
-99
-76
-74
-104
-113
-212
-91
1029
2382
1865
-182
-1108
-455
20
-109
-133
-61
-97
-96
-56
-62
-57
-32
-24
-12
7
18
33
55
73
91
114
138
164
196
226
254
282
304
322
340
338
286
196
102
17
-59
-117
-151
-170
-178
-176
-170
-165
-161
-157
-151
-144
-140
-141
-139
-134
-132
-130
-130
-133
-135
-133
-133
-134
-134
-133
-130
-126
-124
-123
-121
-115
-108
-109
-118
-121
-100
-57
-11
-1
-40
-83
-91
-87
-92
-84
-81
-93
-75
-68
-99
-108
-193
-148
833
2286
2082
90
-1085
-547
13
-86
-140
-58
-85
-96
-54
-58
-59
-32
-23
-18
2
18
31
48
65
85
108
131
157
188
218
246
273
294
312
330
332
294
213
118
29
-47
-105
-142
-164
-176
-177
-170
-163
-158
-153
-147
-143
-140
-137
-136
-134
-132
-130
-130
-129
-130
-131
-132
-131
-130
-128
-128
-127
-125
-122
-120
-118
-116
-112
-105
-101
-108
-116
-108
-77
-30
2
-16
-65
-88
-83
-87
-89
-81
-90
-86
-67
-87
-102
-148
-228
332
1795
2421
908
-846
-848
-110
-8
-143
-78
-62
-97
-64
-50
-62
-41
-23
-20
-4
14
22
37
58
76
97
122
148
174
202
231
258
282
300
318
329
313
253
164
74
-5
-70
-119
-149
-163
-167
-167
-164
-157
-152
-150
-148
-142
-137
-135
-134
-131
-129
-131
-133
-134
-133
-130
-127
-126
-126
-125
-123
-119
-115
-114
-112
-109
-105
-101
-96
-90
-92
-102
-104
-83
-40
3
8
-32
-72
-81
-81
-83
-74
-78
-88
-65
-60
-93
-104
-194
-77
1012
2372
1912
-111
-1073
-446
31
-101
-130
-54
-90
-92
-51
-59
-59
-34
-26
-19
0
13
24
43
63
81
100
122
149
179
208
236
262
282
297
315
318
280
203
114
30
-46
-102
-137
-162
-177
-179
-172
-166
-163
-159
-154
-148
-143
-137
-130
-128
-135
-141
-138
-134
-133
-134
-134
-132
-130
-126
-122
-123
-130
-131
-125
-119
-115
-111
-108
-107
-105
-108
-115
-109
-74
-23
6
-18
-68
-87
-83
-86
-82
-77
-89
-78
-62
-88
-90
-141
-206
489
2009
2377
613
-1036
-849
-114
-39
-132
-63
-64
-88
-50
-40
-44
-22
-12
-8
12
28
38
59
82
100
122
148
175
204
238
274
303
323
341
360
368
336
264
172
79
-9
-79
-127
-158
-176
-180
-178
-175
-170
-163
-157
-151
-145
-143
-141
-136
-133
-133
-132
-131
-132
-133
-134
-136
-138
-137
-138
-138
-136
-133
-131
-131
-130
-126
-118
-117
-130
-138
-115
-63
-19
-23
-66
-97
-99
-100
-102
-92
-95
-99
-77
-84
-111
-127
-229
8
1274
2490
1666
-375
-1040
-328
20
-138
-127
-64
-107
-92
-56
-67
-59
-35
-32
-24
-5
8
22
41
59
78
101
125
154
188
220
248
273
292
307
321
315
264
177
84
3
-66
-121
-156
-175
-183
-183
-178
-174
-169
-161
-151
-143
-137
-131
-127
-125
-124
-121
-119
-119
-118
-118
-118
-119
-119
-119
-119
-119
-117
-113
-110
-107
-103
-95
-88
-91
-105
-108
-83
-33
9
6
-37
-69
-72
-74
-76
-66
-73
-81
-59
-66
-95
-112
-218
-5
1235
2485
1730
-310
-1030
-333
38
-119
-120
-55
-95
-85
-47
-58
-52
-28
-22
-16
2
15
28
45
62
83
106
129
156
189
223
255
280
299
319
336
326
274
192
103
17
-59
-117
-150
-167
-178
-185
-184
-177
-174
-170
-161
-152
-150
-149
-145
-139
-137
-138
-138
-135
-135
-136
-134
-133
-135
-134
-133
-132
-129
-123
-123
-123
-118
-112
-109
-106
-101
-95
-88
-91
-106
-108
-84
-40
3
10
-32
-73
-76
-74
-80
-73
-75
-81
-57
-57
-88
-100
-204
-69
1092
2475
1955
-95
-1020
-401
28
-110
-124
-54
-98
-96
-56
-62
-57
-34
-31
-21
2
16
28
49
66
83
108
137
164
188
214
247
278
300
320
338
338
294
212
116
26
-51
-109
-148
-171
-178
-178
-182
-183
-175
-166
-160
-156
-151
-146
-139
-134
-133
-132
-129
-129
-131
-130
-127
-127
-129
-130
-128
-127
-128
-126
-115
-103
-103
-110
-111
-102
-93
-95
-107
-106
-78
-33
5
6
-35
-77
-90
-90
-81
-73
-91
-97
-67
-83
-109
-103
-209
15
1301
2491
1557
-559
-1208
-445
-25
-118
-98
-51
-87
-63
-31
-48
-38
-11
-10
-8
14
32
44
62
87
115
144
168
196
235
276
314
348
372
391
409
393
321
226
133
35
-59
-122
-158
-182
-193
-197
-202
-206
-194
-178
-176
-172
-150
-138
-142
-137
-127
-131
-135
-128
-124
-127
-128
-125
-126
-128
-128
-126
-125
-125
-121
-112
-106
-110
-110
-103
-100
-106
-106
-81
-30
6
-17
-70
-94
-89
-84
-79
-82
-103
-97
-74
-97
-92
-102
-205
270
1708
2389
856
-1043
-1129
-296
-40
-107
-52
-46
-70
-33
-29
-44
-16
7
12
32
44
40
55
90
113
126
153
188
217
247
287
326
353
378
405
412
371
287
190
89
-10
-88
-139
-173
-197
-211
-212
-208
-209
-208
-199
-189
-185
-175
-158
-152
-158
-154
-133
-124
-140
-154
-150
-140
-134
-137
-148
-150
-140
-136
-139
-131
-118
-124
-139
-122
-74
-36
-37
-69
-98
-106
-113
-112
-92
-87
-100
-95
-97
-103
-122
-204
107
1332
2321
1348
-623
-1195
-454
-32
-107
-86
-34
-65
-50
-23
-38
-29
-5
-3
7
26
29
39
77
109
114
126
168
214
246
277
316
355
382
398
398
364
290
193
92
-1
-73
-123
-153
-162
-162
-168
-171
-162
-152
-149
-141
-132
-132
-135
-124
-111
-112
-115
-102
-96
-112
-119
-106
-102
-112
-108
-96
-102
-109
-95
-80
-85
-100
-104
-80
-32
0
-11
-44
-65
-67
-70
-74
-71
-72
-74
-69
-77
-98
-163
-229
246
1551
2334
1211
-519
-826
-201
-35
-182
-142
-105
-147
-130
-108
-115
-100
-91
-100
-89
-74
-70
-58
-47
-45
-30
-1
19
40
71
97
118
145
171
184
190
180
128
46
-33
-92
-133
-159
-176
-190
-186
-169
-168
-174
-160
-141
-139
-142
-139
-129
-119
-122
-126
-108
-90
-101
-112
-91
-66
-66
-72
-61
-46
-45
-50
-47
-37
-29
-23
-19
-21
-33
-33
7
62
80
58
33
23
16
8
5
4
6
20
17
-10
-18
-94
-36
921
2426
2436
566
-759
-418
69
-64
-145
-56
-86
-119
-82
-78
-86
-75
-75
-75
-66
-59
-52
-41
-31
-17
-1
20
48
79
107
140
178
210
235
257
263
222
138
49
-27
-100
-160
-192
-204
-214
-220
-219
-214
-210
-209
-210
-204
-191
-186
-189
-187
-178
-173
-171
-167
-161
-152
-144
-140
-137
-133
-132
-130
-126
-123
-121
-116
-111
-107
-98
-93
-96
-98
-91
-85
-83
-74
-66
-78
-91
-77
-36
13
38
15
-31
-53
-53
-59
-55
-46
-56
-50
-31
-55
-79
-145
-202
510
2162
2802
1174
-626
-651
-37
-49
-188
-105
-99
-135
-97
-82
-87
-63
-53
-53
-35
-21
-14
4
24
34
50
77
104
129
160
195
229
257
280
302
316
302
243
154
64
-13
-77
-128
-159
-170
-172
-169
-164
-159
-154
-150
-146
-143
-142
-141
-140
-139
-139
-138
-135
-135
-136
-133
-130
-128
-126
-125
-128
-130
-126
-121
-119
-117
-113
-108
-100
-96
-106
-118
-111
-73
-19
11
-14
-64
-84
-81
-87
-87
-77
-87
-87
-63
-81
-112
-165
-262
247
1790
2711
1359
-609
-864
-152
-19
-183
-124
-94
-136
-101
-74
-83
-65
-47
-47
-34
-18
-9
5
26
46
66
86
109
142
181
212
239
266
290
309
322
306
244
154
61
-25
-91
-135
-163
-179
-185
-185
-181
-174
-171
-167
-156
-151
-153
-154
-148
-144
-144
-147
-147
-139
-132
-133
-135
-134
-134
-131
-127
-128
-127
-120
-112
-108
-101
-99
-110
-121
-113
-78
-24
4
-24
-73
-86
-81
-90
-91
-84
-89
-77
-66
-93
-91
-143
-206
507
2049
2412
606
-1076
-872
-107
-29
-129
-56
-56
-86
-49
-39
-45
-26
-14
-11
5
19
28
42
61
79
99
124
156
189
223
260
297
327
350
373
376
336
254
156
59
-29
-98
-143
-171
-185
-187
-187
-187
-182
-175
-168
-161
-158
-154
-147
-139
-137
-138
-136
-133
-131
-132
-132
-131
-130
-130
-129
-128
-125
-120
-118
-130
-142
-129
-83
-32
-17
-51
-91
-101
-97
-102
-97
-89
-99
-90
-75
-98
-103
-165
-220
512
2062
2429
666
-940
-722
-46
-60
-172
-88
-96
-124
-76
-69
-85
-64
-50
-49
-33
-16
-5
9
22
39
66
93
116
146
184
220
248
270
292
312
315
280
206
112
21
-56
-114
-155
-179
-188
-189
-186
-182
-178
-176
-173
-169
-166
-164
-160
-155
-151
-150
-148
-145
-142
-139
-134
-130
-129
-127
-124
-124
-124
-116
-109
-117
-131
-125
-87
-35
-7
-29
-73
-92
-90
-91
-88
-79
-89
-84
-62
-81
-94
-126
-216
291
1764
2517
1064
-805
-902
-132
2
-148
-85
-61
-99
-63
-43
-57
-40
-23
-19
-2
11
15
31
54
69
87
113
139
167
199
233
262
285
304
326
336
312
247
158
70
-11
-79
-126
-151
-162
-165
-162
-157
-154
-151
-146
-141
-136
-131
-129
-126
-124
-124
-124
-121
-118
-120
-119
-115
-112
-112
-109
-105
-106
-106
-99
-98
-110
-114
-87
-35
5
-6
-53
-81
-78
-78
-79
-69
-79
-87
-62
-73
-98
-101
-198
48
1323
2471
1523
-536
-1094
-309
35
-129
-113
-57
-104
-88
-53
-71
-72
-54
-50
-42
-26
-15
-1
13
25
44
71
97
123
153
185
214
234
251
269
284
275
225
141
49
-33
-102
-152
-181
-195
-200
-197
-190
-185
-180
-174
-171
-168
-164
-161
-160
-156
-152
-153
-156
-156
-152
-148
-145
-142
-138
-135
-133
-127
-121
-119
-115
-103
-98
-108
-117
-97
-46
3
7
-34
-68
-66
-60
-60
-54
-60
-63
-30
-34
-68
-60
-150
-41
1094
2465
1893
-216
-1117
-412
74
-53
-68
3
-33
-27
10
-3
4
33
37
43
64
74
