# session 41
-26
-40
-20
101
161
35
-68
-38
-21
-45
-38
-28
-41
-43
-40
-46
-50
-50
-50
-51
-53
-56
-56
-54
-53
-55
-59
-60
-57
-56
-58
-57
-55
-56
-56
-57
-60
-63
-68
-73
-64
-36
-6
17
31
21
-17
-47
-51
-56
-61
-50
-52
-64
-45
-45
-76
-67
-141
-96
876
2275
1997
2
-1110
-535
19
-86
-138
-57
-84
-91
-51
-57
-57
-30
-23
-18
2
19
31
46
61
78
102
131
162
194
227
267
307
338
361
380
379
336
252
155
60
-28
-98
-148
-180
-195
-199
-200
-198
-193
-187
-182
-176
-167
-160
-156
-153
-151
-148
-143
-138
-136
-135
-132
-132
-137
-137
-132
-129
-126
-120
-118
-125
-128
-120
-110
-105
-108
-109
-105
-101
-98
-95
-96
-99
-101
-103
-98
-72
-39
-13
9
9
-29
-67
-76
-76
-79
-72
-74
-88
-65
-48
-80
-83
-130
-171
548
1995
2215
418
-1094
-784
-60
-37
-136
-55
-63
-94
-50
-32
-35
-20
-16
-10
16
32
38
58
82
98
115
144
178
206
236
275
314
347
377
402
408
383
318
219
112
19
-59
-119
-156
-172
-179
-183
-175
-162
-159
-163
-159
-148
-141
-138
-133
-128
-127
-125
-123
-125
-128
-130
-132
-130
-123
-124
-131
-128
-121
-124
-125
-121
-123
-124
-112
-102
-104
-105
-104
-108
-98
-62
-28
-6
6
-7
-48
-78
-81
-86
-89
-81
-86
-94
-72
-75
-100
-94
-180
-62
1032
2360
1844
-188
-1102
-440
34
-105
-133
-56
-94
-93
-48
-54
-53
-27
-21
-20
-2
15
25
36
54
80
104
124
150
184
222
258
287
309
329
344
340
299
222
130
42
-34
-99
-146
-172
-182
-185
-183
-179
-173
-166
-162
-158
-151
-142
-139
-140
-139
-136
-137
-138
-134
-133
-136
-135
-131
-130
-129
-125
-122
-121
-119
-119
-122
-124
-125
-118
-92
-54
-24
-7
-9
-40
-80
-91
-84
-89
-93
-90
-96
-89
-81
-103
-99
-151
-198
520
2003
2304
558
-989
-744
-56
-46
-153
-76
-82
-109
-66
-57
-66
-41
-25
-23
-7
9
19
36
56
74
91
114
144
173
200
230
264
291
309
324
332
306
240
154
65
-21
-91
-136
-164
-184
-194
-190
-179
-168
-161
-155
-147
-141
-137
-132
-130
-130
-130
-129
-128
-127
-127
-128
-131
-130
-128
-128
-125
-121
-121
-122
-121
-115
-91
-54
-24
-10
-20
-55
-87
-95
-98
-101
-94
-98
-111
-92
-88
-113
-102
-174
-142
811
2270
2120
149
-1082
-590
-13
-94
-157
-77
-99
-108
-64
-65
-68
-43
-31
-25
-7
9
24
39
54
72
94
117
142
171
201
233
261
280
297
316
320
280
193
97
27
-26
-84
-139
-170
-182
-187
-187
-178
-167
-160
-154
-147
-140
-138
-137
-133
-130
-130
-133
-136
-137
-136
-136
-136
-134
-137
-143
-146
-144
-137
-114
-82
-53
-30
-23
-52
-97
-116
-114
-116
-113
-108
-118
-108
-87
-115
-122
-142
-226
294
1756
2448
938
-948
-1040
-228
-22
-144
-96
-74
-105
-71
-51
-62
-44
-24
-20
-5
16
28
45
71
96
112
130
158
195
229
260
286
306
325
348
359
339
279
188
86
-8
-81
-130
-165
-188
-199
-195
-187
-181
-170
-153
-143
-146
-149
-143
-135
-136
-139
-138
-139
-140
-140
-141
-144
-141
-136
-143
-140
-110
-75
-53
-38
-44
-85
-121
-125
-125
-130
-121
-122
-130
-106
-108
-137
-100
-142
-111
811
2193
1907
-181
-1434
-864
-137
-82
-105
-43
-67
-68
-27
-28
-28
-6
2
11
31
43
53
76
99
117
138
165
198
235
269
299
329
355
378
396
391
340
248
145
47
-41
-110
-157
-183
-195
-200
-201
-195
-184
-178
-174
-167
-156
-146
-138
-134
-135
-137
-137
-137
-139
-139
-138
-143
-147
-149
-153
-145
-115
-82
-58
-40
-45
-84
-118
-121
-121
-125
-114
-115
-124
-101
-104
-132
-109
-178
-126
882
2284
1925
-144
-1240
-610
-21
-105
-150
-73
-101
-105
-60
-60
-61
-40
-33
-23
-4
7
18
38
59
78
102
129
158
189
221
256
286
305
323
343
341
290
202
108
20
-59
-119
-155
-171
-179
-181
-177
-169
-161
-155
-150
-143
-139
-137
-136
-135
-134
-134
-131
-130
-132
-135
-137
-140
-139
-133
-131
-141
-146
-128
-86
-40
-23
-52
-95
-110
-107
-108
-100
-98
-112
-96
-82
-108
-100
-159
-215
568
2127
2362
487
-1063
-749
-52
-62
-164
-80
-84
-109
-68
-61
-64
-39
-30
-28
-9
8
18
34
54
74
97
123
152
183
216
248
278
302
321
339
343
303
221
125
35
-49
-115
-154
-173
-185
-189
-186
-179
-171
-163
-156
-153
-152
-148
-145
-144
-143
-139
-137
-138
-139
-138
-137
-139
-139
-134
-130
-131
-131
-128
-123
-120
-127
-135
-124
-84
-35
-11
-33
-74
-91
-91
-97
-97
-90
-95
-85
-78
-106
-102
-154
-228
466
1995
2372
617
-1006
-789
-66
-38
-155
-79
-75
-102
-61
-49
-53
-30
-17
-13
3
18
29
46
63
83
107
130
155
188
223
253
282
307
325
343
351
321
246
153
63
-20
-91
-136
-157
-168
-177
-177
-167
-159
-156
-151
-146
-143
-138
-132
-133
-136
-135
-134
-133
-130
-128
-131
-133
-132
-129
-126
-125
-124
-120
-117
-117
-115
-112
-110
-108
-105
-110
-116
-103
-72
-37
-5
6
-25
-64
-73
-74
-83
-78
-76
-90
-76
-63
-91
-96
-170
-202
622
2150
2318
487
-944
-617
-8
-65
-155
-70
-85
-107
-61
-55
-64
-40
-27
-24
-11
3
16
33
49
66
88
113
136
162
192
222
249
270
289
309
316
287
222
142
61
-17
-81
-126
-154
-167
-170
-167
-160
-152
-147
-142
-137
-134
-132
-129
-127
-127
-126
-124
-120
-120
-121
-120
-120
-121
-122
-122
-121
-120
-120
-116
-108
-105
-110
-109
-103
-100
-100
-98
-97
-100
-102
-95
-71
-35
-7
10
13
-12
-51
-67
-65
-72
-73
-65
-75
-74
-54
-74
-91
-127
-230
237
1701
2542
1195
-694
-895
-164
-3
-146
-93
-68
-106
-74
-54
-66
-47
-27
-26
-12
8
21
36
55
74
95
119
145
171
198
227
256
278
295
314
332
325
274
193
106
22
-54
-112
-147
-168
-178
-181
-178
-170
-162
-156
-148
-139
-136
-139
-138
-133
-129
-128
-128
-129
-130
-131
-131
-131
-133
-136
-135
-131
-130
-131
-127
-123
-122
-120
-114
-111
-111
-108
-104
-102
-102
-101
-103
-106
-92
-60
-32
-12
7
3
-30
-60
-65
-66
-70
-63
-65
-72
-52
-54
-85
-86
-180
-106
971
2437
2098
17
-1114
-548
-8
-90
-120
-48
-84
-87
-45
-47
-45
-20
-14
-7
11
24
36
54
74
96
120
145
173
204
239
273
303
327
349
370
375
340
264
169
77
-8
-80
-130
-160
-178
-187
-189
-187
-182
-175
-169
-163
-155
-147
-141
-138
-136
-133
-131
-130
-131
-132
-132
-136
-138
-137
-136
-137
-137
-135
-130
-128
-130
-130
-126
-124
-126
-128
-132
-132
-112
-77
-48
-25
-18
-43
-82
-98
-99
-106
-102
-90
-99
-96
-74
-93
-106
-140
-234
253
1712
2509
1119
-765
-927
-168
-5
-153
-99
-72
-110
-76
-50
-60
-46
-28
-22
-6
7
16
38
62
76
92
118
148
180
215
253
288
318
344
368
381
360
293
198
100
11
-66
-124
-157
-172
-180
-187
-189
-188
-184
-178
-173
-167
-158
-150
-145
-139
-132
-125
-122
-122
-123
-123
-123
-124
-125
-124
-121
-122
-122
-117
-113
-112
-110
-104
-102
-105
-108
-110
-106
-82
-47
-19
0
4
-25
-67
-81
-74
-76
-75
-71
-82
-75
-60
-85
-92
-145
-218
432
1954
2459
806
-904
-807
-87
-31
-154
-80
-77
-112
-70
-54
-65
-45
-30
-26
-9
7
18
35
53
69
92
118
146
178
217
255
289
319
343
362
372
349
276
179
84
-4
-82
-134
-161
-178
-189
-190
-186
-182
-180
-179
-175
-167
-162
-155
-147
-144
-145
-140
-133
-131
-134
-134
-132
-131
-130
-128
-127
-129
-129
-127
-123
-119
-117
-114
-111
-112
-114
-118
-113
-88
-54
-26
-4
0
-31
-73
-86
-85
-92
-89
-81
-91
-86
-65
-87
-100
-140
-224
332
1813
2466
943
-862
-890
-135
-19
-157
-93
-74
-111
-77
-59
-70
-49
-29
-24
-10
6
18
37
56
70
91
120
150
181
218
256
293
325
349
380
403
371
283
184
88
-3
-68
-100
-119
-135
-160
-189
-197
-191
-186
-174
-154
-143
-139
-138
-142
-144
-138
-131
-128
-122
-115
-109
-109
-118
-131
-136
-129
-123
-118
-111
-111
-117
-106
-90
-96
-110
-106
-107
-122
-113
-79
-48
-16
13
0
-47
-79
-89
-91
-84
-68
-63
-71
-55
-55
-99
-112
-177
-193
621
2117
2255
410
-1014
-661
-26
-68
-155
-80
-118
-148
-79
-44
-48
-37
-31
-26
-5
10
14
36
68
69
68
119
190
220
223
250
305
361
383
376
370
343
268
178
96
4
-89
-155
-190
-175
-131
-127
-157
-165
-169
-182
-179
-178
-168
-120
-106
-175
-207
-145
-106
-133
-147
-133
-136
-147
-143
-138
-144
-147
-132
-120
-123
-126
-130
-140
-132
-112
-118
-133
-108
-52
-10
-9
-54
-91
-79
-76
-112
-118
-97
-108
-107
-73
-73
-65
-90
-164
380
1777
2290
730
-952
-876
-130
-25
-136
-63
-25
-23
-14
-62
-75
-34
-40
-42
26
72
55
57
94
101
74
80
128
174
223
285
307
283
289
334
354
334
273
172
91
41
-51
-143
-137
-111
-162
-204
-177
-155
-157
-140
-125
-143
-162
-145
-115
-117
-142
-137
-104
-100
-132
-144
-122
-111
-119
-118
-112
-121
-126
-112
-101
-108
-120
-124
-108
-68
-27
-18
-45
-81
-105
-105
-89
-82
-96
-121
-118
-80
-85
-126
-104
-163
-239
474
1903
2123
444
-950
-692
-77
-65
-141
-73
-81
-94
-54
-51
-57
-49
-60
-44
4
22
21
47
69
64
79
133
162
149
174
246
281
282
309
338
333
313
270
178
64
-36
-101
-134
-144
-136
-144
-192
-200
-134
-113
-161
-168
-153
-177
-165
-99
-66
-81
-113
-147
-151
-127
-105
-89
-85
-89
-76
-82
-142
-168
-116
-80
-97
-103
-103
-104
-39
53
29
-64
-88
-92
-110
-51
4
-86
-170
-114
-68
-68
-33
-168
-275
602
2133
2157
311
-944
-549
-33
-99
-93
-4
-117
-175
-83
-58
-90
-77
-48
-25
-13
-9
6
15
17
37
54
69
106
133
160
238
293
257
227
267
317
310
217
92
16
-48
-127
-142
-135
-204
-248
-189
-153
-171
-160
-167
-206
-182
-143
-170
-172
-113
-97
-127
-128
-131
-166
-170
-126
-109
-128
-130
-119
-135
-138
-99
-89
-134
-137
-61
10
22
-28
-112
-140
-90
-59
-76
-75
-62
-64
-74
-91
-74
-102
-242
169
1594
2474
1247
-571
-848
-211
-23
-113
-87
-82
-82
-52
-82
-92
-33
-18
-43
-22
6
3
23
67
69
67
128
169
132
139
226
264
265
332
394
345
276
263
218
107
9
-64
-134
-158
-146
-177
-211
-172
-139
-183
-202
-151
-132
-157
-153
-126
-108
-99
-119
-142
-135
-131
-117
-74
-94
-169
-150
-88
-121
-147
-89
-91
-161
-143
-70
-54
-47
-14
-43
-136
-167
-111
-73
-81
-95
-107
-105
-100
-113
-96
-164
-257
435
1965
2379
722
-869
-755
-97
-25
-138
-122
-130
-123
-71
-75
-101
-66
-20
-24
-43
-32
-13
8
49
63
43
70
142
165
153
184
246
293
322
327
302
281
246
140
27
-6
-42
-135
-182
-173
-183
-188
-182
-198
-182
-145
-171
-177
-106
-105
-185
-169
-91
-117
-188
-170
-110
-90
-99
-128
-142
-90
-71
-146
-135
-27
-57
-175
-154
-85
-93
-54
29
6
-60
-58
-59
-90
-91
-89
-118
-101
-31
-27
-106
-206
-311
19
1306
2464
1696
-208
-871
-283
-41
-216
-134
-32
-139
-129
-11
-62
-159
-113
-67
-70
19
93
5
-50
36
72
56
105
149
159
178
175
209
294
279
237
323
332
139
34
78
2
-133
-101
-63
-166
-202
-137
-165
-198
-103
-69
-161
-160
-48
-16
-102
-162
-105
-42
-101
-165
-123
-92
-97
-49
-46
-161
-211
-125
-82
-126
-107
-25
-2
-37
-68
-80
-55
-49
-120
-140
-56
-77
-177
-106
-26
-116
-112
-130
-285
434
2071
2332
500
-929
-681
-155
-114
-108
-79
-122
-122
-128
-144
-82
-44
-77
-62
-15
-2
-5
-24
-13
74
109
46
51
136
159
152
222
310
313
272
265
262
211
144
68
-51
-147
-158
-135
-127
-167
-250
-256
-181
-164
-164
-91
-90
-185
-190
-117
-110
-141
-140
-122
-108
-101
-113
-134
-144
-143
-109
-32
-22
-141
-227
-155
-50
-39
-64
-43
-26
-64
-91
-79
-94
-105
-60
-54
-105
-117
-110
-104
-159
-292
176
1657
2530
1268
-555
-822
-195
-43
-151
-88
-74
-120
-65
-26
-75
-86
-48
-45
-42
5
21
-12
17
115
126
43
41
135
183
192
240
282
287
299
308
283
231
162
105
55
-44
-143
-142
-98
-121
-177
-176
-105
-62
-127
-190
-124
-67
-119
-90
26
-37
-180
-113
-22
-126
-170
-63
-61
-132
-96
-73
-134
-138
-58
-2
-30
-88
-53
10
-54
-143
-128
-88
-39
6
-71
-153
-83
-33
-109
-257
-299
471
2021
2379
619
-1016
-850
-140
-63
-155
-70
-63
-163
-200
-161
-134
-96
-5
-2
-142
-186
-60
14
-26
-52
-39
20
121
133
42
36
130
165
165
208
231
199
154
78
-28
-83
-93
-152
-237
-253
-231
-236
-235
-207
-192
-183
-148
-117
-137
-185
-197
-158
-129
-122
-89
-61
-95
-126
-115
-119
-126
-91
-69
-69
-14
62
54
8
13
33
12
0
26
42
32
27
35
42
18
-6
29
-32
-92
710
2287
2544
712
-833
-568
93
79
-1
116
77
