# session 7
-11
-24
-5
91
117
-15
-106
-71
-50
-54
-35
-46
-84
-95
-101
-98
-80
-106
-126
-212
-517
-362
913
1848
779
-880
-1010
-256
-14
-91
-39
-22
-48
-12
11
9
38
72
92
126
163
186
192
180
156
144
160
182
169
108
35
-19
-55
-78
-87
-95
-111
-112
-82
-50
-39
-38
-43
-57
-79
-99
-86
-66
-96
-126
-222
-487
-276
968
1857
845
-745
-902
-211
-10
-123
-91
-65
-87
-57
-41
-57
-44
-9
31
72
90
96
106
99
74
68
88
104
89
42
-14
-62
-96
-103
-92
-101
-127
-135
-117
-94
-72
-62
-82
-113
-127
-138
-132
-103
-124
-170
-224
-479
-530
503
1779
1304
-391
-972
-347
-24
-138
-116
-57
-86
-64
-24
-20
-3
29
60
104
142
157
164
164
149
134
141
161
156
112
52
2
-29
-48
-61
-70
-80
-91
-85
-68
-54
-43
-47
-71
-88
-96
-105
-94
-96
-119
-135
-327
-557
83
1467
1626
62
-1006
-550
5
-57
-109
-19
-40
-60
-12
-4
-7
30
68
93
126
151
161
164
143
106
104
138
151
124
78
19
-28
-38
-41
-68
-90
-89
-89
-94
-77
-49
-53
-83
-98
-106
-131
-127
-101
-128
-156
-240
-542
-455
717
1688
756
-856
-999
-220
10
-117
-59
-16
-63
-44
-5
10
44
77
97
126
150
162
174
162
129
116
132
145
124
71
14
-31
-65
-82
-84
-86
-105
-128
-119
-84
-79
-87
-76
-86
-114
-114
-117
-127
-107
-106
-128
-230
-483
-302
794
1513
495
-957
-1006
-255
16
-67
-41
7
-7
-13
11
52
76
71
93
150
193
218
226
195
161
159
171
174
152
110
71
23
-36
-42
-14
-45
-90
-72
-49
-58
-42
-23
-51
-73
-77
-114
-125
-75
-86
-140
-159
-351
-512
194
1361
1210
-268
-1037
-534
-52
-59
-67
-16
-38
-24
24
22
31
76
98
117
170
214
211
190
177
163
150
149
149
120
62
3
-38
-58
-64
-67
-74
-81
-82
-76
-60
-45
-54
-87
-107
-113
-129
-121
-95
-125
-151
-215
-504
-446
688
1684
798
-873
-1144
-367
-13
-96
-90
-33
-23
-13
1
33
73
92
115
163
201
216
225
223
199
174
180
197
174
105
33
-11
-39
-69
-90
-86
-76
-87
-103
-89
-60
-46
-56
-87
-120
-143
-154
-139
-124
-151
-188
-338
-568
-138
1108
1514
188
-1055
-815
-172
-91
-140
-75
-93
-120
-73
-45
-31
9
55
93
119
142
171
172
139
118
111
103
108
102
51
-14
-63
-90
-89
-75
-75
-81
-78
-62
-42
-38
-52
-66
-67
-71
-88
-86
-70
-97
-124
-211
-501
-364
855
1795
776
-892
-1046
-254
18
-70
-13
16
-27
3
45
54
87
130
155
187
229
256
261
253
237
219
215
230
219
142
36
-34
-61
-74
-80
-82
-89
-102
-103
-94
-91
-87
-81
-99
-129
-139
-147
-153
-128
-133
-162
-216
-450
-444
579
1697
1022
-741
-1232
-456
-11
-81
-67
-7
-29
-27
-4
16
57
86
103
149
192
204
207
198
168
149
157
173
166
110
28
-28
-55
-82
-94
-79
-77
-95
-89
-58
-45
-50
-58
-76
-97
-118
-132
-117
-110
-137
-160
-331
-565
-14
1309
1531
12
-1117
-668
-24
-45
-122
-41
-54
-76
-28
-9
-1
36
66
92
130
154
164
171
160
132
114
125
143
116
40
-28
-60
-82
-97
-94
-95
-110
-115
-105
-93
-75
-56
-68
-104
-130
-144
-138
-110
-116
-141
-205
-482
-535
447
1579
1008
-617
-1049
-334
13
-103
-85
-25
-56
-46
-5
12
33
53
79
130
166
172
182
192
167
128
132
162
155
104
55
13
-37
-71
-68
-53
-56
-77
-84
-62
-40
-34
-33
-43
-65
-75
-80
-71
-52
-77
-92
-133
-444
-520
532
1668
930
-815
-1191
-378
34
-31
-11
16
-11
26
66
63
80
112
145
192
227
243
261
264
232
202
210
232
217
145
54
-12
-49
-67
-76
-82
-89
-97
-101
-92
-78
-66
-63
-80
-106
-119
-134
-144
-124
-129
-157
-199
-455
-589
303
1563
1180
-533
-1187
-482
-16
-103
-109
-45
-70
-61
-22
-8
15
43
63
106
161
184
179
174
162
130
114
141
149
94
25
-17
-54
-84
-89
-90
-105
-113
-101
-83
-70
-58
-59
-80
-106
-124
-135
-125
-117
-138
-165
-327
-611
-244
1029
1563
302
-989
-772
-103
-45
-134
-57
-53
-78
-31
-13
-20
21
76
117
157
192
215
219
195
168
167
185
191
161
100
39
-5
-34
-48
-49
-49
-54
-66
-78
-77
-57
-31
-29
-60
-85
-76
-77
-92
-80
-89
-113
-158
-419
-496
489
1675
1052
-760
-1279
-443
48
-26
-18
33
3
20
50
43
65
104
120
147
193
225
233
223
199
177
178
191
174
114
44
-15
-60
-83
-85
-88
-99
-107
-106
-99
-83
-66
-67
-90
-112
-115
-124
-136
-124
-124
-145
-203
-433
-477
427
1562
1103
-509
-1018
-306
52
-107
-102
-23
-58
-49
-13
-21
-6
32
52
78
112
124
118
100
70
44
49
79
90
61
17
-18
-42
-60
-66
-68
-77
-96
-109
-101
-80
-65
-58
-62
-82
-99
-110
-111
-89
-86
-114
-136
-324
-538
88
1368
1391
-184
-1107
-504
78
-13
-75
14
-5
-20
21
27
33
63
85
111
147
167
168
156
130
103
101
123
132
102
52
11
-17
-36
-49
-55
-58
-66
-83
-90
-72
-49
-36
-37
-56
-74
-79
-87
-82
-61
-78
-96
-161
-450
-426
639
1593
726
-856
-985
-158
98
-50
-10
36
-1
26
56
48
69
101
112
136
169
184
181
166
137
118
131
153
140
85
24
-15
-39
-58
-71
-77
-81
-91
-107
-111
-92
-69
-60
-65
-79
-90
-103
-115
-100
-92
-116
-116
-255
-571
-258
952
1381
67
-1135
-792
-63
18
-71
-8
-2
-24
4
19
31
67
92
113
151
181
188
184
169
149
140
146
142
106
41
-24
-63
-79
-91
-105
-111
-112
-119
-126
-117
-96
-76
-64
-77
-105
-118
-125
-127
-105
-106
-130
-139
-331
-586
-29
1190
1257
-197
-1123
-636
-37
-8
-45
17
10
3
49
78
89
112
144
182
222
255
280
286
265
241
249
274
266
203
120
52
1
-31
-41
-42
-46
-54
-65
-74
-71
-63
-56
-44
-42
-66
-89
-99
-115
-116
-105
-117
-107
-200
-520
-360
813
1507
311
-1218
-1143
-276
6
-61
-9
19
-7
20
56
64
82
115
146
175
211
252
267
246
219
211
216
212
172
97
17
-44
-83
-109
-120
-116
-108
-108
-117
-124
-118
-101
-88
-94
-119
-136
-131
-138
-152
-136
-132
-156
-209
-423
-464
406
1494
1022
-580
-1102
-383
40
-73
-84
-23
-51
-44
-11
-13
6
44
65
92
130
152
157
150
132
112
111
126
127
89
30
-20
-49
-60
-62
-62
-62
-64
-68
-65
-51
-36
-27
-34
-58
-77
-79
-84
-81
-72
-82
-112
-270
-506
-129
1035
1466
258
-899
-618
25
32
-84
-1
13
-22
8
30
34
61
89
113
145
168
178
180
161
129
113
121
124
99
56
16
-12
-30
-45
-54
-55
-51
-53
-67
-82
-83
-65
-42
-34
-52
-78
-87
-93
-94
-77
-90
-119
-148
-364
-520
232
1441
1211
-391
-1092
-412
73
-46
-76
2
-32
-41
-2
2
12
43
64
91
124
145
161
162
136
112
113
123
115
81
26
-34
-75
-87
-82
-85
-97
-99
-95
-107
-117
-100
-78
-69
-63
-77
-112
-125
-123
-125
-113
-121
-144
-170
-409
-614
138
1402
1188
-453
-1176
-477
43
-49
-80
-10
-33
-26
18
24
45
88
112
136
172
199
210
210
197
181
182
196
188
137
70
19
-15
-35
-36
-29
-27
-26
-26
-39
-51
-37
-14
-5
-7
-28
-64
-71
-68
-91
-87
-66
-90
-105
-234
-542
-244
1022
1564
222
-1139
-854
-60
50
-52
13
18
-12
25
48
54
84
110
132
172
211
228
225
211
188
165
162
168
135
61
-8
-62
-102
-112
-106
-109
-108
-97
-109
-144
-151
-122
-96
-83
-74
-88
-119
-125
-128
-150
-133
-98
-136
-161
-230
-547
-476
708
1686
774
-799
-959
-242
-12
-96
-40
-19
-58
-28
3
6
35
73
109
153
180
190
205
206
184
169
164
154
133
91
31
-25
-70
-98
-99
-93
-100
-104
-96
-103
-123
-116
-79
-56
-55
-51
-63
-97
-106
-95
-100
-92
-77
-96
-127
-307
-581
-101
1277
1748
398
-862
-647
-69
-43
-112
-43
-42
-52
-5
15
18
54
94
115
135
163
195
211
194
163
155
171
174
141
75
7
-41
-75
-96
-93
-83
-90
-101
-96
-92
-101
-105
-90
-73
-60
-47
-58
-100
-123
-121
-133
-129
-107
-121
-156
-284
-505
-147
1086
1714
619
-715
-735
-189
-75
-131
-81
-77
-96
-69
-51
-37
-2
33
73
121
150
163
175
172
146
121
115
113
87
35
-17
-60
-106
-134
-121
-104
-112
-120
-112
-102
-102
-108
-103
-71
-36
-31
-56
-90
-105
-97
-105
-110
-87
-97
-125
-183
-411
-353
684
1731
1110
-441
-906
-358
-60
-106
-77
-36
-49
-30
-5
2
25
60
92
128
178
225
242
239
233
215
191
186
172
110
33
-21
-63
-100
-113
-104
-94
-87
-82
-85
-89
-88
-95
-99
-79
-50
-47
-67
-90
-103
-112
-122
-109
-97
-120
-145
-285
-508
-35
1302
1772
409
-934
-774
-159
-76
-130
-68
-58
-52
-20
-27
-14
36
67
102
149
172
196
232
233
204
185
170
143
105
50
-14
-69
-113
-143
-154
-154
-145
-132
-128
-135
-143
-145
-129
-102
-87
-76
-68
-95
-134
-135
-123
-113
-97
-114
-139
-189
-414
-381
653
1799
1268
-358
-940
-385
-46
-112
-108
-69
-84
-63
-33
-23
8
43
64
103
153
187
207
218
206
179
164
163
140
85
25
-25
-66
-100
-122
-123
-103
-91
-99
-101
-92
-102
-119
-111
-88
-74
-62
-55
-74
-104
-117
-127
-135
-108
-96
-131
-152
-286
-458
126
1478
1826
425
-832
-667
-138
-94
-142
-75
-68
-82
-53
-30
-9
29
66
96
125
162
205
229
218
192
175
170
157
111
40
-24
-73
-111
-139
-148
-139
-120
-110
-112
-111
-106
-111
-124
-125
-114
-104
-87
-61
-65
-104
-121
-113
-129
-121
-83
-109
-149
-229
-455
-181
1139
2027
926
-749
-956
-284
-57
-125
-77
-53
-70
-36
-14
-12
20
60
83
118
174
225
248
247
235
217
201
190
166
109
31
-36
-85
-123
-145
-145
-130
-111
-105
-115
-116
-106
-108
-125
-131
-117
-92
-74
-77
-99
-116
-113
-119
-131
-115
-113
-142
-152
-298
-444
255
1621
1746
167
-975
-630
-93
-91
-123
-51
-67
-81
-41
-22
-6
33
70
105
143
181
218
244
240
213
186
173
159
115
46
-19
-78
-131
-152
-138
-129
-134
-128
-119
-120
-115
-107
-121
-141
-131
-107
-102
-101
-82
-83
-113
-120
-113
-133
-128
-101
-121
-150
-266
-424
89
1355
1731
411
-843
-710
-159
-83
-136
-76
-60
-70
-46
-27
-2
40
68
96
145
188
209
229
242
226
197
192
189
144
69
3
-46
-91
-124
-133
-124
-111
-101
-95
-94
-92
-90
-92
-104
-120
-121
-109
-99
-86
-62
-63
-93
-102
-97
-113
-104
-86
-116
-126
-213
-439
-49
1296
1918
608
-908
-896
-219
-38
-95
-45
-23
-35
-13
8
29
59
82
116
165
206
246
284
288
270
266
261
231
193
142
61
-22
-81
-122
-142
-133
-124
-127
-121
-111
-113
-111
-103
-119
-145
-144
-131
-126
-120
-108
-113
-133
-142
-143
-154
-143
-129
-147
-149
-266
-508
-56
1330
1860
443
-1032
-916
-230
-85
-135
-74
-65
-77
-46
-37
-30
12
49
77
117
159
187
203
214
207
182
168
174
155
80
-14
-78
-125
-182
-209
-164
-115
-127
-140
-110
-101
-131
-133
-116
-126
-133
-106
-85
-82
-78
-75
-55
-23
-29
-33
-4
-31
-83
-152
-379
-214
1084
2273
1437
-424
-954
-310
44
-13
-58
-109
-119
-36
-17
-53
-6
65
72
82
131
148
138
183
239
205
128
101
103
95
51
-65
-163
-107
-11
-49
-90
31
121
-20
-197
-183
-116
-148
-169
-123
-113
-138
-124
-131
-269
-522
-708
-617
-272
57
187
206
302
379
127
-16
803
1766
1109
-604
-1265
-705
-210
-60
95
153
66
45
65
61
150
227
140
101
194
199
186
293
283
125
110
184
166
145
56
-234
-480
-528
-611
-729
-689
-642
-716
-650
-403
-311
-393
-329
-107
7
-4
69
195
139
-18
-1
129
180
147
58
40
138
34
51
1078
2188
1421
-451
-1046
-415
-76
-132
-42
25
-84
-118
-23
3
-44
-31
2
4
108
294
319
206
188
219
149
126
228
202
29
-14
-7
-181
-328
-260
-179
-170
-127
-92
-92
-76
-80
-41
131
220
73
-41
13
24
-32
-39
-88
-174
-147
-108
-168
-226
-311
-197
655
1533
907
-711
-1328
-717
-158
-72
-74
-14
23
30
104
229
190
41
100
285
280
215
307
385
357
414
541
506
332
250
253
172
75
77
26
-137
-229
-233
-273
-305
-267
-215
-178
-157
-165
-179
-185
-184
-166
-174
-248
-319
-300
-250
-229
-167
-207
-431
-27
1398
2058
583
-1185
-1237
-448
-219
-340
-293
-175
-149
-167
-113
5
68
58
50
65
99
150
169
133
101
99
83
68
67
-33
-236
-329
-250
-184
-219
-256
-201
-78
2
22
55
87
110
122
12
-139
-80
50
-9
-86
-19
28
-26
-89
-48
40
-108
-135
848
2058
1563
-185
-987
-620
-338
-334
-236
-143
-134
-90
-24
2
4
18
57
95
123
175
235
254
256
286
282
185
64
2
-5
10
