# session 24
-12
10
-40
7
241
451
489
479
506
503
450
380
289
181
84
16
-29
-60
-77
-83
-92
-100
-91
-79
-78
-73
-60
-58
-60
-55
-54
-54
-46
-47
-66
-75
-72
-82
-97
-84
-48
-15
-5
-30
-70
-87
-85
-88
-85
-80
-95
-85
-59
-88
-99
-111
-215
228
1629
2312
783
-1165
-1285
-402
-84
-145
-95
-77
-104
-73
-58
-64
-42
-20
-12
5
24
35
56
85
115
149
192
235
279
328
372
400
417
411
361
275
183
91
-1
-81
-134
-164
-178
-185
-192
-196
-194
-189
-179
-167
-157
-150
-147
-143
-134
-128
-129
-127
-124
-129
-134
-133
-143
-159
-154
-124
-89
-59
-56
-89
-117
-119
-123
-130
-118
-116
-126
-107
-108
-133
-130
-218
-108
985
2344
1855
-218
-1207
-565
-53
-166
-192
-111
-142
-142
-99
-102
-98
-75
-70
-62
-39
-22
-4
19
42
67
102
144
188
234
276
312
340
353
335
276
194
105
18
-59
-113
-142
-154
-158
-163
-167
-163
-153
-147
-143
-136
-129
-125
-123
-120
-112
-107
-109
-111
-104
-99
-102
-104
-108
-124
-131
-109
-72
-41
-25
-40
-75
-90
-82
-83
-83
-74
-81
-79
-53
-69
-93
-128
-218
232
1680
2582
1273
-703
-985
-230
-43
-202
-144
-104
-146
-112
-84
-102
-88
-63
-56
-45
-28
-11
13
34
55
85
123
164
209
253
291
324
347
344
304
238
158
68
-16
-79
-123
-151
-162
-164
-166
-166
-162
-159
-161
-162
-160
-152
-142
-136
-136
-136
-131
-125
-123
-121
-118
-119
-125
-125
-122
-123
-129
-140
-149
-140
-109
-71
-39
-33
-62
-92
-95
-90
-90
-80
-82
-93
-71
-63
-91
-98
-182
-98
942
2365
2045
15
-1085
-513
-10
-148
-189
-100
-134
-136
-85
-91
-91
-62
-56
-50
-24
-5
7
31
55
75
103
146
192
234
268
298
324
340
328
280
209
129
46
-32
-95
-133
-149
-157
-163
-165
-162
-156
-150
-147
-145
-140
-134
-132
-130
-124
-115
-105
-99
-98
-99
-100
-102
-103
-103
-101
-101
-105
-108
-112
-123
-126
-104
-68
-30
-5
-16
-55
-76
-71
-72
-72
-62
-71
-74
-56
-73
-89
-123
-221
244
1696
2524
1134
-815
-1018
-233
-44
-195
-136
-100
-142
-113
-84
-94
-81
-61
-53
-39
-22
-8
15
42
68
98
133
169
210
253
290
315
335
344
318
251
171
92
10
-64
-114
-143
-164
-173
-174
-177
-178
-171
-157
-148
-144
-139
-131
-124
-121
-119
-115
-109
-108
-110
-110
-111
-116
-117
-114
-119
-126
-126
-133
-144
-131
-93
-53
-24
-21
-53
-85
-89
-87
-89
-78
-78
-85
-62
-68
-101
-90
-182
-132
929
2403
2049
-94
-1269
-670
-67
-132
-173
-97
-113
-107
-71
-82
-79
-47
-38
-32
-9
10
24
46
78
113
146
180
224
268
309
352
387
400
383
326
236
140
55
-21
-85
-132
-161
-172
-178
-189
-191
-176
-162
-165
-164
-149
-136
-129
-119
-114
-121
-127
-124
-118
-113
-115
-123
-131
-131
-130
-133
-137
-126
-86
-41
-31
-65
-98
-99
-97
-105
-92
-85
-109
-103
-89
-119
-100
-126
-174
547
1996
2124
183
-1397
-1060
-247
-108
-149
-80
-91
-102
-56
-49
-53
-32
-25
-22
7
37
49
59
86
126
168
208
254
307
359
397
423
442
435
382
297
203
99
-4
-79
-124
-156
-174
-179
-183
-189
-188
-180
-171
-162
-155
-150
-143
-134
-130
-129
-126
-122
-123
-122
-121
-125
-132
-136
-144
-148
-129
-86
-49
-50
-88
-119
-119
-117
-118
-102
-99
-110
-89
-89
-118
-102
-183
-123
917
2315
1895
-199
-1266
-636
-65
-134
-165
-94
-118
-116
-82
-92
-85
-51
-37
-34
-19
-1
19
42
66
96
134
179
223
264
306
345
372
382
364
305
218
128
42
-39
-105
-142
-161
-169
-169
-167
-169
-167
-158
-149
-145
-140
-134
-129
-122
-115
-113
-115
-114
-111
-110
-111
-115
-124
-131
-122
-93
-51
-23
-33
-69
-91
-95
-98
-91
-81
-96
-102
-78
-93
-115
-130
-227
108
1434
2409
1278
-696
-1093
-324
-38
-181
-151
-108
-150
-128
-98
-107
-89
-62
-58
-46
-27
-16
-1
25
53
81
114
155
201
246
283
318
346
351
318
251
169
82
-3
-75
-120
-145
-162
-171
-168
-162
-162
-164
-163
-159
-154
-146
-139
-133
-129
-127
-124
-121
-118
-112
-110
-115
-118
-122
-133
-131
-107
-75
-44
-25
-42
-78
-88
-86
-99
-96
-81
-89
-83
-66
-93
-98
-138
-218
415
1940
2426
710
-1024
-891
-137
-70
-194
-121
-109
-134
-93
-76
-84
-67
-49
-38
-27
-16
8
37
54
73
112
157
198
242
287
319
346
374
379
335
255
169
83
-4
-78
-129
-157
-165
-158
-151
-154
-157
-151
-143
-138
-137
-139
-140
-134
-127
-126
-126
-123
-123
-127
-127
-128
-134
-133
-135
-149
-150
-123
-89
-59
-42
-62
-101
-117
-117
-119
-108
-101
-113
-97
-86
-113
-94
-147
-199
595
2101
2190
230
-1260
-876
-153
-114
-172
-95
-109
-122
-79
-74
-77
-54
-45
-37
-13
9
28
51
68
91
133
182
224
267
315
355
382
401
396
351
270
176
83
-1
-68
-114
-142
-157
-162
-160
-155
-150
-143
-135
-130
-126
-122
-117
-116
-117
-115
-112
-111
-112
-114
-118
-120
-118
-119
-123
-129
-139
-145
-132
-97
-57
-36
-51
-82
-96
-97
-102
-96
-83
-91
-88
-71
-85
-85
-116
-188
324
1658
2200
745
-925
-908
-162
-37
-171
-111
-86
-117
-85
-69
-79
-60
-44
-44
-29
-13
-5
12
36
55
78
112
148
184
224
261
288
309
320
297
232
150
72
1
-62
-107
-129
-136
-138
-137
-133
-124
-120
-121
-123
-120
-115
-113
-113
-111
-108
-106
-103
-102
-103
-104
-108
-110
-110
-116
-127
-125
-102
-63
-24
-13
-44
-78
-87
-88
-89
-79
-80
-90
-72
-74
-98
-79
-145
-109
803
2123
1834
-105
-1167
-570
-6
-108
-157
-69
-96
-109
-68
-70
-70
-47
-36
-25
-5
5
19
43
64
86
117
150
184
225
266
300
323
334
323
272
192
111
35
-41
-101
-133
-150
-160
-160
-157
-155
-154
-154
-151
-146
-143
-140
-133
-127
-126
-129
-126
-117
-110
-110
-111
-112
-115
-120
-120
-127
-138
-133
-102
-63
-30
-22
-47
-77
-87
-91
-89
-75
-77
-81
-57
-66
-83
-65
-148
0
1073
2167
1387
-571
-1192
-411
14
-129
-126
-52
-91
-84
-45
-53
-48
-30
-32
-26
-4
11
29
54
78
106
138
168
205
247
283
310
330
339
325
274
197
119
46
-31
-94
-126
-137
-147
-150
-145
-140
-136
-130
-121
-116
-113
-111
-111
-112
-108
-103
-105
-108
-107
-108
-108
-106
-107
-107
-110
-123
-131
-110
-65
-22
-11
-40
-74
-81
-81
-89
-93
-96
-83
-57
-81
-98
-53
-129
-18
1026
2138
1371
-622
-1272
-459
16
-119
-136
-67
-100
-96
-58
-47
-24
-13
-35
-35
-5
14
24
43
73
104
133
166
204
243
275
301
326
345
336
284
201
110
28
-39
-90
-123
-137
-149
-168
-173
-160
-147
-129
-108
-115
-138
-132
-114
-117
-118
-110
-100
-79
-76
-124
-158
-137
-124
-133
-115
-105
-115
-64
13
-14
-99
-110
-90
-114
-118
-91
-104
-112
-84
-88
-83
-106
-177
338
1617
1983
392
-1179
-959
-127
-17
-157
-83
-55
-95
-64
-36
-47
-40
-15
10
23
25
37
50
55
87
135
146
165
243
298
280
271
310
331
292
220
164
112
11
-94
-126
-130
-153
-152
-133
-144
-160
-148
-110
-67
-75
-135
-152
-97
-66
-91
-108
-102
-90
-34
22
-53
-183
-167
-82
-89
-84
-9
-22
-94
-64
-36
-115
-159
-116
-81
-55
-48
-62
-89
-222
-48
1076
2093
1188
-729
-1231
-423
-5
-147
-164
-78
-89
-105
-89
-80
-64
-40
-36
-35
7
57
45
5
31
101
135
151
201
256
281
324
404
419
315
203
160
119
27
-67
-111
-121
-140
-147
-82
-35
-131
-234
-181
-111
-132
-110
-50
-103
-183
-139
-78
-114
-151
-123
-119
-143
-103
-44
-56
-87
-96
-104
-85
-72
-128
-166
-137
-119
-115
-128
-144
-79
-117
-169
638
1960
1683
-288
-1317
-623
-9
-120
-170
-36
-20
-65
-85
-79
-32
9
9
-10
-11
45
89
49
42
119
150
167
259
293
243
289
384
369
337
339
239
92
36
-27
-120
-101
-66
-178
-262
-179
-119
-182
-205
-138
-111
-148
-150
-112
-114
-146
-153
-131
-99
-103
-152
-148
-62
-16
-40
-53
-57
-81
-110
-136
-149
-135
-94
-68
-112
-137
-121
-194
121
1315
2019
689
-1148
-1221
-281
1
-150
-103
-53
-91
-69
-41
-43
-5
20
-16
-27
25
62
52
53
102
163
190
198
244
311
336
338
382
425
379
263
157
77
4
-57
-109
-152
-158
-143
-154
-159
-132
-136
-178
-172
-126
-113
-124
-123
-120
-115
-108
-109
-112
-95
-51
-15
-29
-76
-102
-109
-113
-106
-116
-143
-124
-100
-113
-101
-206
-304
473
1840
1663
-340
-1520
-840
-81
-104
-175
-81
-69
-65
-35
-49
-54
-30
-14
7
21
13
35
90
117
121
162
218
244
263
305
346
372
383
361
307
240
154
51
-25
-65
-101
-136
-153
-160
-164
-154
-134
-120
-109
-101
-105
-115
-111
-104
-120
-137
-117
-70
-31
-23
-55
-95
-111
-117
-122
-117
-125
-133
-110
-115
-134
-83
-131
-155
600
1718
1303
-639
-1670
-996
-217
-88
-75
-26
-57
-55
-13
-16
-20
2
15
23
42
64
80
94
109
144
206
278
333
368
387
409
446
467
432
348
249
142
34
-54
-112
-147
-168
-176
-180
-185
-173
-147
-138
-157
-166
-136
-106
-121
-145
-135
-109
-78
-45
-44
-83
-115
-136
-153
-146
-134
-139
-125
-121
-142
-142
-267
-368
374
1675
1558
-230
-1266
-639
-6
-82
-139
-46
-72
-95
-49
-36
-37
-26
-19
-6
1
2
25
46
50
87
151
182
194
226
262
293
326
327
282
223
165
94
18
-49
-105
-138
-145
-145
-138
-116
-103
-112
-120
-118
-122
-122
-114
-117
-121
-101
-71
-48
-33
-48
-87
-106
-109
-112
-108
-119
-130
-106
-108
-128
-158
-334
-200
958
2027
1122
-756
-1138
-302
23
-149
-132
-69
-95
-71
-55
-81
-66
-36
-31
-16
11
33
54
73
84
103
136
167
195
237
286
314
328
335
295
207
131
69
-11
-84
-117
-125
-132
-142
-155
-150
-124
-109
-120
-127
-115
-104
-107
-113
-112
-115
-104
-59
-16
-33
-77
-96
-111
-123
-102
-95
-121
-119
-123
-135
-138
-311
-287
802
2086
1438
-554
-1218
-419
14
-132
-112
-46
-123
-125
-67
-71
-64
-31
-36
-46
-16
20
37
50
76
109
133
152
181
220
255
290
323
326
282
221
163
76
-34
-103
-127
-153
-171
-168
-168
-165
-146
-141
-151
-144
-125
-124
-130
-118
-101
-104
-127
-134
-115
-95
-76
-40
-19
-52
-100
-117
-115
-107
-104
-119
-108
-86
-116
-119
-150
-305
127
1550
2191
609
-1251
-1234
-338
-68
-128
-62
-51
-83
-46
-23
-30
-22
-18
-8
28
60
66
78
110
144
178
221
263
297
328
354
380
407
409
360
276
188
100
12
-63
-110
-139
-163
-179
-180
-164
-148
-148
-154
-151
-139
-124
-110
-101
-94
-96
-116
-129
-127
-143
-162
-146
-112
-89
-72
-75
-105
-122
-124
-131
-132
-131
-133
-118
-119
-123
-113
-238
-182
848
2104
1545
-460
-1315
-601
-59
-137
-148
-75
-108
-110
-78
-85
-71
-32
-26
-24
-2
11
16
35
62
90
120
151
191
234
258
279
321
356
338
266
176
91
11
-60
-106
-126
-138
-154
-172
-179
-162
-144
-140
-135
-117
-113
-119
-110
-100
-106
-101
-91
-101
-113
-110
-113
-121
-103
-67
-42
-29
-20
-39
-83
-83
-35
-35
-79
-86
-85
-74
-47
-141
10
1110
2250
1529
-421
-1127
-416
51
-59
-140
-127
-112
-73
-69
-81
-61
-55
-56
-35
-12
14
21
4
14
26
16
99
254
296
257
267
240
182
269
367
227
23
-20
-53
-170
-204
-124
-95
-157
-176
-122
-129
-202
-206
-144
-104
-91
-109
-152
-147
-111
-115
-102
-51
-95
-208
-202
-114
-104
-98
-20
-13
-102
-143
-147
-173
-152
-116
-158
-197
-180
-163
-118
-157
-283
258
1641
2113
650
-851
-762
-128
-79
-206
-138
-94
-115
-99
-71
-49
-21
-5
-8
3
36
36
19
67
137
144
142
175
198
227
289
334
352
370
347
240
107
22
-24
-71
-91
-69
-78
-134
-155
-141
-153
-144
-89
-85
-140
-138
-86
-78
-114
-139
-135
-105
-84
-99
-98
-64
-65
-114
-143
-144
-148
-140
-90
-24
-16
-68
-92
-78
-97
-122
-113
-104
-77
-30
-39
-87
-190
-239
464
1894
2198
533
-973
-782
-142
-108
-175
-95
-100
-95
-44
-89
-130
-78
-44
-34
9
22
-6
9
64
100
114
130
159
203
248
291
342
379
347
269
218
174
74
-30
-88
-126
-134
-130
-162
-182
-158
-166
-191
-159
-125
-128
-105
-79
-117
-149
-122
-126
-172
-150
-75
-63
-108
-131
-130
-135
-147
-163
-162
-122
-80
-67
-63
-69
-91
-99
-87
-81
-85
-81
-51
-44
-109
-137
-138
-217
205
1551
2313
1020
-790
-998
-265
-50
-169
-108
-59
-99
-90
-80
-90
-68
-54
-38
23
53
14
3
43
73
98
136
178
230
276
293
312
356
371
325
270
212
97
-20
-65
-103
-164
-162
-122
-131
-137
-124
-159
-189
-149
-113
-95
-68
-86
-131
-117
-90
-108
-120
-103
-89
-81
-87
-110
-126
-137
-146
-133
-119
-120
-97
-49
-49
-94
-114
-92
-70
-87
-126
-119
-95
-102
-73
-138
-259
400
1865
2158
428
-1110
-896
-187
-95
-180
-143
-162
-183
-139
-118
-115
-107
-113
-91
-31
-22
-81
-99
-29
44
63
