# session 28
-32
-33
-26
-7
-17
-74
-119
-128
-139
-154
-146
-132
-124
-115
-103
-96
-88
-84
-86
-75
-58
-69
-95
-100
-86
-80
-83
-87
-82
-66
-65
-93
-121
-114
-73
-21
12
8
-21
-47
-66
-77
-67
-61
-74
-58
-43
-83
-99
-160
-244
440
2032
2551
867
-841
-748
-80
-56
-163
-84
-100
-141
-92
-77
-92
-65
-47
-56
-43
-9
12
18
30
56
77
95
126
167
193
202
213
239
267
267
225
158
84
1
-77
-126
-146
-160
-173
-172
-165
-165
-159
-142
-129
-131
-133
-121
-106
-106
-111
-97
-84
-99
-121
-122
-113
-109
-109
-112
-108
-94
-96
-118
-127
-107
-70
-23
7
-18
-68
-88
-90
-89
-83
-93
-93
-69
-99
-116
-88
-171
133
1447
2384
1116
-996
-1418
-551
-98
-110
-56
-34
-74
-44
-15
-29
-16
8
15
28
50
65
80
106
132
156
189
232
274
306
332
360
393
418
407
347
257
159
57
-36
-102
-143
-169
-188
-198
-198
-195
-190
-180
-170
-163
-153
-141
-134
-128
-123
-122
-123
-124
-128
-131
-133
-133
-134
-135
-137
-134
-138
-155
-163
-142
-105
-68
-47
-62
-91
-105
-112
-111
-94
-95
-105
-83
-88
-112
-104
-206
-84
1052
2363
1743
-335
-1201
-499
-7
-120
-137
-65
-97
-93
-54
-61
-58
-35
-30
-24
-7
5
20
41
58
79
110
146
180
210
238
266
294
316
315
280
212
129
46
-30
-93
-133
-151
-161
-164
-165
-165
-164
-159
-153
-144
-135
-129
-125
-120
-115
-112
-109
-106
-102
-100
-100
-99
-99
-102
-102
-97
-100
-115
-120
-98
-60
-20
-2
-24
-59
-72
-78
-81
-71
-75
-86
-66
-64
-86
-99
-198
-42
1090
2358
1754
-255
-1086
-418
11
-137
-147
-65
-102
-100
-57
-65
-63
-36
-31
-27
-9
5
17
36
56
74
98
132
170
205
237
264
285
301
305
272
198
108
25
-46
-99
-133
-151
-155
-153
-152
-155
-156
-151
-145
-142
-140
-136
-129
-121
-116
-115
-114
-113
-114
-112
-108
-109
-110
-108
-106
-107
-102
-99
-102
-102
-99
-111
-121
-100
-61
-29
-7
-12
-49
-76
-77
-73
-70
-74
-79
-62
-55
-77
-81
-156
-132
722
2084
2019
203
-1008
-567
1
-83
-157
-67
-85
-103
-56
-51
-57
-36
-26
-21
-4
6
10
26
46
61
80
108
144
178
209
236
257
276
293
281
222
136
53
-18
-80
-122
-144
-153
-158
-158
-155
-150
-147
-146
-144
-141
-136
-129
-129
-128
-121
-115
-116
-113
-107
-107
-109
-104
-97
-99
-102
-100
-94
-88
-87
-88
-89
-100
-109
-90
-52
-15
8
-6
-44
-61
-61
-65
-62
-61
-68
-52
-54
-82
-76
-153
-89
888
2229
1888
-72
-1091
-488
28
-100
-144
-58
-90
-98
-51
-54
-59
-33
-20
-17
-4
12
26
41
59
80
101
126
163
201
233
260
285
306
315
291
226
139
56
-20
-85
-130
-150
-157
-159
-161
-160
-156
-157
-158
-148
-136
-137
-136
-122
-115
-121
-123
-120
-117
-113
-110
-110
-108
-106
-109
-110
-104
-105
-108
-101
-96
-96
-93
-96
-117
-118
-82
-35
-4
4
-20
-55
-70
-69
-63
-59
-67
-58
-49
-79
-76
-100
-198
316
1747
2356
832
-917
-889
-123
-19
-158
-88
-70
-109
-71
-50
-61
-43
-27
-27
-12
6
14
29
51
72
94
122
156
191
224
253
278
299
317
315
270
192
107
23
-58
-116
-147
-162
-170
-173
-174
-170
-164
-160
-157
-148
-139
-135
-132
-127
-122
-119
-118
-117
-114
-110
-109
-110
-110
-109
-108
-107
-105
-106
-103
-98
-105
-120
-113
-75
-29
-1
-12
-49
-72
-75
-77
-72
-73
-85
-65
-54
-83
-75
-139
-162
679
2154
2157
222
-1117
-653
-11
-76
-155
-68
-87
-105
-60
-60
-65
-40
-28
-23
-7
8
24
44
61
84
113
139
166
202
237
260
278
298
311
297
243
162
75
-7
-76
-126
-156
-169
-176
-182
-181
-174
-164
-154
-146
-142
-139
-132
-125
-124
-122
-117
-115
-115
-114
-113
-114
-117
-119
-118
-116
-113
-108
-111
-123
-131
-119
-77
-21
1
-34
-75
-85
-91
-98
-82
-81
-93
-72
-79
-110
-98
-183
-63
1069
2413
1820
-305
-1240
-548
-24
-117
-137
-68
-95
-91
-58
-64
-57
-40
-37
-18
7
11
22
51
73
93
123
154
183
219
256
285
314
342
348
315
247
154
60
-21
-88
-137
-164
-177
-186
-190
-190
-184
-167
-153
-149
-140
-126
-122
-119
-105
-101
-115
-122
-114
-111
-119
-121
-116
-111
-115
-127
-133
-123
-93
-49
-19
-37
-84
-105
-98
-96
-97
-103
-106
-82
-86
-115
-86
-145
-112
845
2209
1834
-282
-1457
-839
-137
-92
-103
-42
-63
-61
-27
-30
-27
-8
-2
9
31
47
63
87
112
137
167
201
236
277
316
347
371
397
406
370
295
202
103
5
-76
-128
-157
-177
-193
-202
-202
-195
-185
-174
-164
-155
-147
-137
-130
-130
-130
-129
-133
-135
-131
-129
-132
-137
-148
-163
-155
-113
-63
-44
-67
-104
-121
-120
-116
-113
-122
-126
-102
-105
-128
-110
-173
-90
856
2076
1649
-258
-1183
-540
-3
-105
-147
-67
-93
-94
-51
-58
-59
-31
-23
-18
1
15
27
46
67
89
117
146
178
212
243
266
284
303
312
286
221
139
60
-13
-75
-116
-135
-142
-146
-146
-141
-135
-131
-130
-126
-122
-120
-120
-117
-114
-114
-113
-111
-111
-109
-108
-119
-136
-135
-107
-65
-32
-36
-71
-99
-105
-108
-102
-94
-101
-94
-77
-102
-103
-118
-202
277
1638
2230
748
-985
-962
-165
-16
-147
-84
-62
-97
-63
-45
-56
-38
-20
-17
-1
20
32
46
64
86
113
142
169
200
232
258
277
296
310
294
238
159
75
-9
-85
-135
-160
-172
-178
-179
-175
-167
-160
-157
-155
-148
-140
-136
-134
-131
-130
-128
-123
-121
-120
-116
-116
-129
-141
-128
-90
-44
-22
-47
-86
-101
-106
-109
-100
-102
-108
-87
-94
-118
-93
-165
-77
939
2153
1546
-474
-1289
-532
3
-101
-123
-51
-82
-80
-42
-45
-38
-16
-13
-6
14
31
45
62
81
102
128
163
202
237
264
288
314
336
337
299
228
143
55
-27
-89
-127
-147
-156
-161
-165
-163
-154
-144
-136
-129
-124
-122
-124
-122
-116
-111
-111
-108
-107
-109
-106
-103
-117
-132
-119
-77
-30
-15
-46
-83
-94
-98
-102
-92
-96
-101
-78
-87
-106
-95
-191
-29
1105
2235
1412
-598
-1220
-427
4
-130
-128
-63
-102
-91
-53
-61
-53
-29
-23
-12
5
15
30
51
72
94
121
150
180
210
237
257
274
292
297
260
184
99
18
-57
-114
-147
-165
-175
-178
-173
-164
-157
-150
-139
-129
-125
-121
-113
-111
-114
-114
-110
-105
-102
-103
-103
-97
-94
-107
-120
-114
-85
-38
-7
-26
-69
-89
-94
-102
-95
-94
-106
-87
-77
-111
-100
-153
-194
590
2056
2144
258
-1151
-742
-56
-77
-163
-77
-87
-109
-68
-63
-67
-41
-32
-32
-14
6
19
35
54
74
99
130
164
197
221
235
251
277
299
286
231
153
68
-10
-75
-122
-153
-166
-170
-171
-165
-153
-146
-140
-130
-121
-116
-113
-112
-111
-107
-101
-100
-103
-105
-105
-109
-110
-107
-112
-129
-133
-108
-62
-20
-14
-53
-89
-96
-100
-102
-89
-93
-98
-80
-98
-119
-127
-241
41
1386
2501
1449
-620
-1125
-344
-17
-161
-134
-79
-117
-98
-66
-74
-60
-37
-32
-18
3
17
33
54
74
93
115
146
178
202
221
242
257
271
282
258
189
104
23
-52
-112
-148
-168
-179
-183
-181
-174
-164
-154
-146
-137
-129
-125
-123
-122
-116
-109
-109
-112
-112
-111
-113
-113
-112
-108
-108
-121
-134
-124
-83
-32
-3
-20
-64
-91
-95
-93
-83
-82
-94
-79
-70
-97
-97
-177
-217
626
2176
2315
422
-1036
-691
-53
-88
-174
-90
-101
-123
-84
-77
-79
-56
-43
-36
-17
-3
10
30
49
66
90
117
143
170
195
214
230
253
271
263
216
144
70
-3
-65
-108
-143
-176
-190
-183
-175
-166
-152
-142
-138
-129
-109
-91
-95
-113
-119
-111
-110
-115
-113
-108
-111
-116
-120
-119
-119
-127
-135
-122
-82
-30
-5
-32
-76
-87
-87
-98
-93
-88
-96
-80
-75
-104
-103
-186
-157
809
2281
2129
150
-1098
-632
-54
-103
-150
-78
-102
-109
-70
-69
-68
-48
-41
-32
-11
7
25
42
58
81
108
132
161
195
223
239
257
281
297
278
221
145
65
-13
-80
-129
-163
-180
-185
-188
-190
-185
-173
-160
-147
-136
-130
-123
-114
-104
-100
-102
-102
-100
-105
-113
-114
-112
-113
-111
-109
-112
-120
-124
-108
-62
-14
-9
-49
-85
-96
-104
-106
-92
-96
-105
-78
-83
-118
-108
-197
-86
1047
2422
1865
-284
-1310
-668
-92
-116
-123
-66
-98
-96
-56
-55
-53
-33
-21
-12
7
30
47
60
82
113
144
183
226
255
280
316
350
373
382
351
268
171
86
1
-82
-136
-165
-188
-209
-213
-206
-199
-191
-176
-157
-145
-144
-144
-136
-129
-128
-126
-124
-126
-128
-125
-121
-125
-138
-151
-150
-128
-84
-42
-46
-91
-119
-115
-118
-122
-111
-115
-114
-93
-115
-133
-129
-235
71
1433
2493
1349
-760
-1265
-471
-91
-163
-107
-55
-94
-77
-49
-57
-46
-24
-15
-2
11
22
42
69
96
124
151
183
230
280
310
332
367
397
385
325
231
123
28
-41
-98
-143
-162
-166
-171
-174
-177
-177
-164
-156
-164
-164
-147
-135
-129
-122
-125
-125
-108
-97
-111
-126
-122
-117
-128
-140
-139
-121
-83
-41
-32
-68
-100
-100
-95
-96
-97
-127
-160
-127
-81
-74
-94
-214
-12
1228
2478
1685
-406
-1129
-405
-23
-161
-132
-68
-127
-121
-85
-104
-96
-62
-59
-58
-40
-26
-14
9
33
51
77
114
153
193
235
259
269
295
313
261
161
92
50
-17
-94
-140
-158
-165
-166
-164
-164
-164
-161
-155
-147
-141
-139
-134
-121
-112
-110
-106
-103
-107
-110
-105
-99
-98
-99
-102
-106
-105
-93
-63
-19
7
-19
-66
-79
-69
-72
-74
-72
-83
-77
-70
-92
-86
-154
-209
575
2153
2433
573
-1016
-742
-57
-80
-191
-98
-96
-123
-87
-81
-88
-63
-48
-46
-33
-18
-3
16
35
54
78
106
142
184
223
253
276
297
313
298
241
156
64
-23
-94
-144
-170
-179
-177
-177
-184
-185
-175
-167
-168
-165
-157
-156
-152
-138
-131
-133
-130
-122
-120
-122
-117
-107
-107
-115
-116
-109
-113
-130
-135
-109
-59
-15
-9
-43
-79
-88
-87
-91
-85
-82
-87
-72
-78
-110
-115
-215
-165
888
2408
2181
134
-1052
-522
1
-125
-177
-87
-108
-113
-75
-79
-71
-40
-38
-36
-12
7
19
40
61
81
108
142
177
213
247
273
292
314
326
301
237
154
65
-22
-89
-132
-161
-181
-186
-179
-177
-176
-169
-160
-157
-153
-145
-141
-138
-135
-130
-126
-122
-120
-116
-111
-113
-117
-115
-111
-111
-110
-105
-106
-116
-129
-121
-81
-26
2
-18
-62
-86
-91
-96
-92
-84
-95
-88
-71
-98
-113
-167
-262
347
1902
2527
925
-873
-870
-150
-62
-182
-109
-100
-134
-95
-79
-89
-68
-49
-45
-28
-9
5
22
40
61
92
125
154
188
226
254
278
305
326
322
283
208
111
19
-54
-109
-143
-162
-173
-176
-169
-164
-165
-164
-155
-142
-131
-122
-113
-106
-108
-109
-101
-98
-109
-116
-110
-105
-107
-106
-104
-107
-116
-126
-128
-109
-61
-11
-2
-44
-88
-96
-95
-102
-95
-96
-108
-82
-72
-106
-113
-206
-174
833
2325
2104
30
-1235
-724
-99
-115
-143
-64
-88
-103
-70
-70
-67
-43
-32
-25
-9
7
26
50
75
101
131
165
204
246
279
303
329
360
375
345
273
181
83
-13
-93
-146
-179
-200
-210
-212
-211
-205
-196
-189
-182
-169
-154
-144
-135
-130
-134
-138
-132
-126
-132
-139
-140
-138
-134
-132
-142
-156
-149
-111
-60
-32
-48
-87
-107
-105
-102
-95
-93
-105
-93
-77
-102
-108
-166
-231
468
2005
2418
687
-972
-805
-97
-64
-177
-95
-92
-124
-83
-65
-69
-47
-34
-31
-17
-5
6
27
50
71
97
127
158
193
230
262
285
305
324
313
253
164
76
-6
-75
-123
-150
-167
-177
-180
-178
-174
-169
-162
-152
-144
-137
-129
-125
-125
-122
-115
-111
-107
-103
-108
-111
-101
-100
-117
-128
-114
-77
-29
-4
-28
-72
-88
-89
-92
-82
-74
-87
-79
-62
-89
-100
-159
-233
449
2011
2497
800
-901
-784
-92
-67
-187
-103
-95
-124
-82
-70
-81
-61
-47
-44
-26
-7
4
20
45
71
96
121
153
193
230
256
278
303
319
300
239
153
61
-24
-95
-147
-180
-197
-202
-204
-202
-197
-193
-190
-184
-178
-172
-164
-157
-156
-157
-153
-150
-150
-151
-151
-146
-143
-155
-172
-173
-150
-107
-62
-49
-83
-121
-129
-129
-133
-124
-123
-132
-112
-109
-135
-142
-240
-143
965
2410
2016
-61
-1121
-523
-28
-158
-190
-108
-142
-143
-101
-107
-103
-74
-65
-57
-37
-24
-9
14
37
59
89
122
158
193
225
254
280
304
312
281
212
126
38
-41
-103
-146
-170
-178
-181
-183
-177
-165
-156
-150
-141
-131
-126
-124
-116
-104
-99
-98
-96
-92
-90
-90
-94
-103
-106
-86
-34
17
17
-30
-65
-66
-61
-59
-49
-54
-59
-38
-44
-68
-79
-184
17
1245
2518
1793
-272
-1043
-347
54
-95
-99
-31
-69
-59
-21
-32
-25
0
4
11
29
41
56
76
94
115
143
173
204
235
260
280
301
322
323
282
206
117
27
-56
-120
-160
-182
-193
-200
-205
-203
-196
-192
-190
-185
-181
-179
-175
-169
-163
-161
-164
-165
-160
-163
-180
-190
-175
-137
-91
-67
-86
-134
