# session 4
-15
-27
0
58
-170
-658
-408
890
1515
348
-977
-927
-355
-264
-328
-255
-236
-261
-234
-209
-200
-178
-150
-123
-95
-77
-67
-55
-42
-39
-45
-40
-20
5
50
116
155
146
116
72
27
7
-7
-20
3
37
18
-35
-55
-38
-38
-59
-50
-50
-82
-84
-231
-445
194
1631
1825
167
-1057
-659
-36
-24
-81
-15
-25
-47
-27
-16
2
34
51
58
74
94
101
100
100
84
50
43
60
72
102
145
143
104
72
32
-17
-46
-56
-56
-46
-41
-66
-122
-162
-162
-169
-184
-166
-165
-190
-228
-407
-359
660
1841
1321
-391
-1010
-391
-44
-163
-152
-90
-128
-115
-72
-79
-70
-28
0
14
32
53
65
57
37
31
34
33
53
111
154
152
138
123
74
11
-16
-17
-13
8
27
-1
-62
-85
-74
-88
-97
-75
-95
-125
-161
-363
-297
731
1734
1025
-537
-852
-192
20
-134
-100
-50
-89
-76
-57
-65
-41
-14
-4
7
-6
-15
34
65
3
-56
-33
7
25
60
104
112
102
94
45
-39
-74
-61
-73
-88
-41
12
-14
-78
-99
-101
-130
-138
-109
-123
-143
-192
-414
-312
702
1519
697
-709
-876
-245
-34
-129
-106
-78
-102
-89
-70
-60
-40
-30
-25
0
25
36
39
30
12
-3
-24
-54
-50
2
54
71
73
63
32
-10
-38
-50
-52
-43
-23
-19
-55
-112
-134
-119
-119
-116
-90
-99
-112
-139
-336
-279
677
1579
886
-576
-897
-284
12
-40
-22
-8
-28
6
29
21
40
65
74
95
114
124
145
149
114
92
98
92
95
143
185
176
151
133
96
42
13
6
-9
-13
5
1
-45
-88
-95
-100
-129
-118
-74
-95
-121
-198
-481
-334
856
1698
671
-844
-924
-237
-34
-99
-49
-41
-67
-35
-22
-33
-9
22
36
55
72
79
83
82
69
59
59
69
94
138
171
160
120
76
26
-24
-50
-60
-60
-43
-31
-55
-99
-130
-142
-159
-170
-143
-137
-175
-194
-343
-528
82
1393
1581
141
-903
-560
-75
-114
-163
-97
-107
-114
-81
-71
-51
-14
5
23
53
71
71
70
72
62
30
0
2
32
67
88
81
54
27
2
-22
-42
-55
-54
-38
-25
-36
-73
-114
-132
-138
-139
-124
-125
-143
-175
-366
-463
265
1366
1189
-209
-920
-477
-80
-116
-131
-82
-94
-83
-45
-37
-24
7
25
36
58
84
103
105
85
59
47
45
43
49
72
91
84
59
33
12
-6
-23
-27
-9
11
11
-17
-68
-101
-102
-111
-117
-98
-113
-134
-172
-408
-417
574
1671
1110
-456
-936
-350
-32
-98
-81
-42
-60
-43
-24
-24
1
31
44
60
77
88
103
113
100
77
65
75
106
149
175
164
128
92
58
14
-25
-39
-41
-45
-35
-22
-52
-109
-128
-126
-150
-146
-113
-140
-162
-225
-507
-387
820
1755
748
-900
-1071
-311
-25
-85
-37
-15
-45
-17
9
10
39
68
72
82
106
125
137
148
146
133
125
129
152
191
200
156
104
76
47
6
-18
-28
-40
-39
-20
-22
-64
-111
-127
-132
-154
-155
-137
-166
-181
-246
-519
-363
855
1761
771
-790
-935
-270
-78
-156
-114
-117
-147
-102
-78
-82
-46
-13
-9
2
27
43
52
53
44
34
36
49
77
116
137
109
50
-1
-32
-54
-67
-65
-51
-34
-22
-31
-76
-121
-129
-131
-136
-114
-123
-161
-197
-412
-523
347
1638
1395
-223
-960
-414
-31
-128
-131
-74
-110
-104
-65
-65
-56
-25
-7
10
41
73
93
96
89
83
77
74
91
128
156
141
92
51
28
2
-24
-34
-30
-13
12
19
-11
-49
-61
-67
-88
-81
-60
-81
-100
-214
-496
-230
1044
1831
774
-672
-739
-141
-23
-113
-60
-47
-76
-50
-33
-26
8
26
25
43
72
92
95
71
42
31
20
8
33
76
79
48
22
-2
-37
-68
-79
-78
-75
-60
-41
-43
-80
-121
-129
-132
-148
-139
-130
-153
-177
-326
-513
1
1195
1467
239
-774
-554
-100
-91
-137
-85
-92
-102
-70
-53
-39
-13
0
14
40
62
75
83
78
59
39
29
36
60
87
87
57
25
5
-19
-50
-68
-64
-46
-27
-10
-20
-66
-105
-103
-106
-115
-93
-96
-128
-168
-403
-536
308
1570
1344
-206
-907
-381
-4
-81
-80
-28
-57
-45
-10
-11
5
40
60
77
100
115
125
130
122
104
85
90
134
177
176
144
106
69
34
-6
-46
-62
-50
-33
-21
-14
-33
-79
-104
-102
-121
-125
-94
-118
-158
-198
-464
-522
503
1664
1038
-644
-1096
-396
-33
-102
-78
-39
-59
-25
4
-17
-18
11
34
53
79
110
126
119
112
109
88
78
121
167
161
118
60
4
-28
-40
-59
-78
-79
-69
-61
-54
-60
-97
-136
-138
-139
-149
-137
-151
-175
-198
-433
-533
418
1699
1279
-459
-1131
-485
-60
-130
-120
-72
-105
-79
-34
-50
-47
-5
26
49
72
90
112
129
120
100
84
80
106
156
168
115
43
1
-24
-53
-75
-83
-84
-74
-48
-31
-52
-101
-130
-129
-140
-144
-109
-122
-167
-210
-439
-466
575
1837
1343
-359
-949
-341
-13
-107
-88
-41
-67
-46
-15
-11
18
53
65
83
111
134
145
139
127
119
108
106
137
176
170
118
61
19
-19
-59
-85
-87
-73
-49
-20
-11
-45
-100
-122
-120
-135
-137
-117
-132
-159
-271
-522
-238
1044
1865
825
-651
-737
-149
-69
-188
-129
-110
-141
-111
-91
-92
-66
-34
-10
11
27
43
52
45
34
19
-3
-4
32
70
72
35
-19
-52
-60
-74
-100
-110
-94
-63
-32
-16
-40
-89
-109
-110
-134
-138
-110
-116
-135
-231
-479
-266
862
1589
631
-722
-788
-178
-3
-78
-44
-23
-43
-34
-23
-7
25
45
61
93
118
127
136
138
122
97
77
78
103
123
110
72
34
9
-4
-16
-37
-51
-44
-24
-6
2
-14
-61
-95
-94
-105
-115
-89
-94
-126
-158
-379
-487
355
1538
1232
-300
-938
-387
2
-60
-65
-16
-33
-24
-3
0
24
53
64
86
116
130
137
141
131
112
97
98
126
162
162
109
41
-1
-23
-50
-78
-91
-97
-96
-74
-45
-44
-86
-134
-143
-140
-163
-157
-139
-172
-184
-287
-592
-299
1042
1725
435
-1058
-964
-238
-68
-116
-54
-59
-85
-38
-10
-12
9
39
63
93
117
130
145
158
151
132
128
146
174
185
147
76
21
-6
-27
-51
-74
-88
-89
-78
-62
-45
-50
-99
-150
-154
-150
-159
-135
-125
-159
-178
-348
-557
100
1465
1540
-87
-1132
-633
-54
-85
-130
-63
-88
-102
-65
-51
-38
-14
4
31
59
74
92
107
102
89
78
75
99
141
146
92
23
-21
-37
-47
-70
-95
-95
-77
-56
-39
-36
-56
-92
-114
-117
-127
-125
-98
-103
-134
-235
-449
-202
965
1721
661
-835
-830
-61
98
-45
22
61
17
51
100
106
120
146
171
197
221
247
258
237
203
177
176
213
224
195
214
229
122
8
21
37
-30
-78
-71
-59
-50
-42
-46
-59
-85
-119
-138
-138
-126
-150
-202
-216
-344
-606
-222
1034
1528
295
-931
-743
-165
-134
-200
-116
-117
-133
-79
-87
-123
-70
3
19
21
30
39
52
51
19
-19
-34
-25
-3
3
-17
-37
-49
-70
-93
-103
-112
-120
-116
-110
-93
-58
-49
-91
-138
-150
-150
-154
-154
-157
-147
-129
-275
-507
-123
956
1332
310
-696
-599
-147
-64
-100
-62
-56
-61
-34
-13
3
27
53
87
124
145
154
160
160
148
129
121
132
149
149
127
93
54
19
-3
-15
-26
-37
-38
-21
5
22
16
-13
-54
-69
-61
-75
-78
-51
-68
-94
-167
-446
-386
704
1674
883
-653
-926
-275
3
-53
-17
4
-21
1
22
27
54
81
95
117
148
172
179
169
158
145
131
144
190
215
178
110
56
15
-20
-43
-56
-67
-73
-69
-54
-35
-32
-60
-112
-142
-138
-148
-158
-129
-140
-181
-199
-414
-535
373
1674
1319
-411
-1135
-517
-70
-113
-104
-64
-94
-76
-42
-43
-20
20
41
61
89
113
130
136
129
116
102
100
127
157
140
76
3
-50
-78
-95
-114
-126
-124
-112
-94
-71
-64
-87
-130
-158
-161
-165
-169
-149
-150
-169
-197
-402
-503
359
1691
1542
-89
-954
-456
-26
-111
-133
-68
-89
-84
-45
-41
-21
16
30
48
83
105
114
122
113
84
55
42
51
76
83
41
-22
-59
-72
-90
-115
-134
-143
-134
-105
-75
-63
-78
-114
-144
-147
-152
-165
-147
-136
-164
-192
-370
-575
58
1465
1772
354
-786
-533
-63
-91
-137
-68
-74
-81
-43
-27
-9
27
49
71
104
127
139
147
145
125
100
88
108
148
161
117
54
9
-23
-48
-58
-65
-81
-85
-60
-28
-15
-15
-30
-70
-96
-85
-92
-106
-81
-86
-120
-173
-439
-503
521
1765
1245
-451
-996
-346
8
-77
-61
-19
-45
-28
-3
-6
14
49
75
103
137
161
168
168
165
151
131
137
175
203
172
96
25
-21
-52
-68
-79
-97
-115
-117
-105
-86
-72
-76
-108
-151
-163
-157
-171
-168
-146
-167
-186
-302
-593
-288
1073
1839
634
-875
-857
-191
-64
-143
-81
-72
-97
-64
-42
-34
-1
26
44
74
103
122
138
145
138
123
111
124
157
166
119
42
-15
-46
-66
-82
-97
-111
-115
-97
-68
-49
-52
-79
-119
-135
-127
-137
-142
-114
-128
-167
-229
-466
-416
672
1796
1135
-515
-934
-268
13
-114
-87
-38
-74
-59
-29
-32
-8
31
52
76
107
127
136
135
121
97
73
72
98
116
89
28
-30
-64
-83
-96
-107
-118
-126
-124
-103
-77
-64
-72
-104
-140
-146
-141
-147
-135
-131
-159
-179
-354
-618
-85
1318
1711
289
-930
-647
-65
-52
-114
-41
-39
-48
-10
6
20
59
88
108
139
172
205
221
208
186
169
155
168
214
217
141
58
14
-20
-51
-60
-67
-83
-92
-91
-82
-62
-49
-61
-95
-124
-124
-131
-155
-135
-110
-135
-141
-290
-589
-138
1236
1621
117
-1180
-848
-133
-23
-71
-25
-30
-21
23
30
43
77
97
123
163
185
202
222
223
205
189
182
193
213
196
124
44
-11
-46
-67
-77
-86
-94
-95
-94
-82
-60
-53
-71
-105
-133
-135
-136
-153
-148
-139
-161
-184
-341
-539
31
1333
1546
62
-1046
-638
-45
-68
-130
-52
-63
-73
-31
-28
-25
10
35
56
87
111
127
136
128
109
90
81
100
131
126
71
3
-43
-63
-73
-84
-97
-110
-110
-94
-71
-57
-59
-84
-120
-132
-125
-135
-137
-114
-125
-155
-237
-486
-377
723
1660
815
-740
-921
-180
37
-109
-62
-14
-56
-35
-3
-8
15
50
70
95
124
142
152
150
130
103
87
95
125
138
101
32
-20
-48
-70
-84
-89
-100
-117
-120
-101
-72
-49
-47
-71
-105
-116
-112
-122
-119
-93
-108
-133
-202
-458
-375
724
1689
840
-749
-940
-174
65
-78
-36
10
-29
-6
28
27
49
80
99
128
159
177
187
186
167
139
122
135
173
186
140
71
22
-10
-34
-46
-52
-61
-69
-74
-65
-37
-12
-11
-33
-73
-98
-91
-93
-100
-73
-81
-117
-145
-399
-570
313
1628
1308
-371
-1024
-363
50
-50
-55
-10
-46
-33
-1
-4
19
58
77
97
125
141
151
152
139
116
94
93
118
135
110
52
-5
-42
-67
-90
-101
-105
-118
-134
-124
-94
-72
-70
-83
-110
-133
-134
-141
-158
-146
-142
-169
-192
-378
-607
-34
1233
1404
14
-969
-597
-87
-93
-128
-66
-82
-90
-53
-46
-40
-4
26
45
69
96
116
122
107
79
57
55
75
94
79
24
-37
-77
-99
-110
-114
-117
-122
-126
-125
-109
-79
-50
-42
-67
-114
-140
-133
-135
-132
-101
-116
-144
-169
-407
-491
457
1659
1168
-532
-1123
-438
16
-20
-1
49
29
47
82
90
114
150
179
214
246
269
297
318
311
286
265
267
294
307
263
170
82
31
7
-9
-15
-7
2
-12
-35
-24
14
31
22
-6
-60
-92
-78
-81
-93
-77
-99
-132
-187
-454
-425
674
1735
950
-730
-1091
-387
-58
-117
-84
-56
-77
-50
-30
-31
-1
23
35
69
102
120
138
135
100
72
71
82
99
97
41
-44
-102
-145
-190
-198
-184
-211
-237
-210
-190
-200
-177
-138
-146
-183
-205
-215
-231
-238
-207
-182
-201
-242
-427
-633
-53
1311
1708
415
-745
-593
-156
-164
-208
-143
-139
-136
-100
-86
-67
-29
6
43
76
104
137
157
150
136
119
106
123
147
132
74
12
-26
-39
-49
-64
-74
-74
-62
-61
-71
-52
-5
14
4
-3
-26
-63
-76
-79
-73
-47
-62
-97
-173
-403
-247
916
1858
949
-675
-939
-252
25
-36
9
38
21
61
89
87
121
168
199
237
266
276
301
328
314
283
267
252
254
268
223
119
39
-1
-36
-60
-53
-45
-61
-73
-64
-60
-64
-46
-26
-54
-112
-134
-129
-150
-171
-148
-144
-173
-177
-337
-557
26
1341
1537
40
-1137
-852
-236
-101
-114
-89
-93
-68
-40
-47
-19
36
50
58
103
147
158
159
154
131
108
103
101
88
59
8
-65
-133
-174
-197
-202
-192
-188
-200
-200
-186
-180
-174
-155
-150
-190
-245
-256
-235
-240
-244
-236
-260
-268
-321
-502
-211
929
1552
463
-940
-985
-336
-132
-190
-136
-94
-100
-73
-50
-37
3
52
86
118
156
192
216
232
245
235
206
201
217
202
148
87
34
2
-4
-2
4
23
39
45
54
71
102
144
171
162
135
118
124
134
148
168
168
175
166
-38
-98
794
2098
1999
399
-603
-10
