# session 26
-32
-35
-24
-19
-41
-72
-85
-76
-61
-61
-72
-75
-68
-69
-75
-78
-80
-79
-89
-103
-87
-51
-33
-34
-43
-60
-73
-80
-79
-64
-63
-78
-56
-52
-88
-82
-165
-148
828
2249
1908
-192
-1298
-630
-17
-101
-134
-48
-81
-84
-38
-53
-62
-31
-13
-10
-1
12
34
61
82
104
141
186
227
260
288
315
346
365
339
267
178
94
9
-70
-127
-158
-177
-191
-196
-192
-186
-187
-187
-175
-157
-148
-142
-134
-133
-134
-123
-111
-113
-125
-132
-127
-130
-152
-167
-155
-130
-99
-64
-52
-74
-99
-109
-113
-100
-91
-108
-96
-69
-97
-101
-122
-235
255
1712
2353
774
-1062
-1033
-199
-43
-157
-76
-71
-128
-87
-56
-65
-45
-26
-22
-2
17
23
40
68
99
133
167
200
239
282
320
344
347
341
317
247
146
58
-12
-83
-139
-167
-176
-171
-160
-164
-180
-174
-144
-128
-132
-131
-115
-100
-103
-112
-106
-93
-95
-109
-119
-122
-119
-110
-108
-120
-139
-146
-130
-103
-82
-54
-31
-46
-74
-76
-70
-73
-81
-94
-80
-58
-90
-97
-113
-219
260
1715
2409
874
-1002
-1036
-210
-36
-164
-101
-79
-113
-78
-60
-70
-51
-34
-28
-8
12
23
39
65
95
126
162
203
242
278
308
328
347
359
330
253
162
75
-9
-79
-122
-145
-162
-176
-181
-173
-158
-149
-149
-148
-138
-127
-123
-121
-120
-123
-124
-117
-115
-125
-134
-132
-128
-128
-136
-144
-147
-155
-163
-149
-116
-82
-53
-47
-73
-96
-102
-104
-97
-92
-101
-87
-74
-102
-97
-146
-226
468
1991
2304
473
-1143
-864
-111
-74
-173
-86
-87
-114
-73
-66
-75
-48
-32
-27
-7
12
22
43
71
99
130
167
206
246
282
306
324
345
353
320
246
152
58
-25
-88
-128
-152
-166
-172
-170
-159
-145
-142
-144
-134
-115
-107
-111
-111
-103
-96
-91
-90
-97
-100
-95
-96
-102
-103
-105
-106
-105
-114
-127
-113
-76
-37
-11
-18
-50
-67
-71
-70
-52
-47
-63
-44
-41
-72
-49
-116
-89
881
2258
1848
-282
-1376
-698
-53
-80
-102
-40
-68
-56
-15
-27
-23
6
14
16
29
50
78
99
119
152
179
202
250
303
328
351
382
393
370
317
229
125
37
-40
-117
-168
-186
-196
-206
-206
-204
-212
-213
-195
-179
-177
-177
-167
-154
-154
-162
-162
-160
-170
-182
-183
-180
-179
-180
-184
-191
-192
-169
-126
-111
-148
-186
-186
-176
-171
-174
-183
-169
-161
-189
-179
-203
-224
427
1698
1793
27
-1437
-1136
-340
-163
-189
-121
-122
-139
-107
-94
-93
-83
-76
-63
-43
-27
-4
19
43
75
102
130
183
242
280
298
316
335
321
252
149
45
-40
-125
-208
-226
-255
-349
-102
664
1140
887
796
1257
1356
817
404
315
189
47
15
-17
-85
-123
-136
-159
-185
-191
-183
-195
-215
-222
-247
-270
-247
-228
-248
-253
-249
-245
-226
-280
-157
750
1840
1394
-448
-1480
-1000
-359
-225
-207
-171
-195
-191
-149
-136
-142
-138
-118
-94
-76
-56
-31
-11
14
62
115
152
194
260
323
365
387
383
333
238
123
14
-78
-145
-188
-215
-224
-216
-211
-213
-209
-197
-183
-169
-156
-145
-129
-122
-134
-144
-152
-197
-261
-289
-294
-315
-325
-294
-247
-208
-174
-138
-109
-104
-115
-113
-103
-97
-89
-81
-65
-44
-55
-67
-77
-159
110
1257
2224
1352
-492
-1037
-341
40
-58
-47
7
-27
-16
15
6
11
33
40
49
65
79
100
126
145
165
196
234
270
303
338
365
379
382
360
298
217
141
67
-4
-46
-61
-68
-74
-72
-68
-66
-62
-54
-48
-46
-48
-55
-56
-49
-58
-67
-58
-87
-172
-218
-225
-287
-355
-328
-253
-200
-156
-135
-153
-164
-145
-132
-129
-123
-116
-100
-91
-107
-115
-171
-185
488
1821
2115
560
-891
-729
-90
-54
-156
-86
-85
-111
-69
-56
-67
-49
-34
-30
-18
-6
4
22
41
60
88
120
150
184
215
236
255
271
264
222
154
80
11
-52
-104
-132
-140
-147
-157
-155
-150
-153
-156
-149
-138
-133
-131
-129
-127
-121
-114
-111
-111
-110
-106
-104
-107
-108
-106
-111
-125
-121
-95
-62
-36
-33
-57
-80
-80
-80
-85
-81
-80
-80
-65
-71
-97
-134
-186
170
1304
2095
1126
-541
-878
-230
-15
-165
-134
-84
-120
-99
-69
-80
-74
-56
-53
-43
-26
-16
-1
20
40
61
90
122
153
186
216
236
253
265
248
189
114
46
-15
-67
-103
-121
-127
-130
-132
-129
-122
-120
-119
-115
-110
-104
-96
-93
-97
-95
-88
-85
-85
-81
-81
-85
-85
-82
-78
-70
-69
-81
-88
-74
-43
-7
13
0
-27
-38
-38
-38
-30
-22
-28
-26
-18
-30
-39
-91
-112
461
1635
1921
542
-784
-636
-24
18
-86
-15
0
-23
9
9
-14
-8
-13
-27
-18
-8
-14
-10
6
23
42
70
102
138
173
196
217
241
246
213
151
78
2
-65
-113
-142
-160
-169
-171
-171
-169
-163
-157
-155
-154
-152
-150
-147
-144
-145
-147
-144
-138
-131
-130
-134
-135
-130
-125
-119
-113
-111
-106
-100
-105
-117
-113
-85
-47
-13
-8
-35
-60
-64
-64
-62
-55
-60
-62
-46
-52
-63
-80
-142
171
1232
1925
912
-680
-898
-190
35
-110
-75
-21
-56
-41
-14
-22
-14
4
10
21
33
43
57
72
86
108
139
170
201
234
264
282
292
299
285
235
160
80
9
-47
-86
-109
-118
-121
-123
-122
-117
-114
-110
-104
-103
-104
-101
-100
-103
-104
-101
-100
-101
-99
-96
-97
-99
-97
-94
-93
-92
-92
-93
-97
-103
-112
-115
-101
-72
-34
-7
-17
-50
-69
-71
-73
-70
-74
-77
-59
-61
-78
-62
-127
-80
734
1836
1479
-261
-1138
-536
9
-67
-113
-35
-57
-68
-28
-26
-27
-4
3
6
23
40
53
67
83
104
133
167
201
234
263
291
314
329
323
279
202
119
41
-33
-91
-124
-141
-153
-157
-153
-148
-145
-139
-131
-126
-124
-123
-122
-121
-117
-114
-113
-112
-111
-111
-110
-109
-109
-109
-107
-104
-104
-103
-103
-112
-122
-115
-88
-48
-14
-15
-44
-69
-78
-81
-74
-70
-78
-66
-57
-81
-65
-89
-157
385
1629
1895
306
-1152
-899
-126
-22
-124
-57
-45
-67
-27
-14
-26
-8
10
15
31
48
62
82
102
121
149
185
218
248
282
314
336
352
356
329
259
164
72
-8
-83
-138
-159
-167
-181
-185
-174
-171
-173
-157
-135
-129
-129
-125
-117
-111
-112
-112
-109
-111
-118
-119
-114
-114
-116
-116
-113
-110
-117
-135
-138
-108
-58
-24
-33
-70
-94
-99
-100
-90
-82
-94
-83
-68
-94
-83
-103
-167
395
1677
1936
286
-1200
-918
-123
-20
-119
-49
-43
-72
-35
-18
-21
-1
11
15
35
57
71
84
100
123
157
195
228
265
301
320
332
351
360
327
254
164
71
-17
-87
-133
-161
-178
-182
-184
-183
-169
-153
-149
-147
-133
-123
-124
-123
-121
-123
-120
-112
-110
-115
-118
-118
-121
-120
-119
-126
-132
-116
-76
-33
-16
-39
-75
-95
-104
-98
-79
-84
-97
-74
-81
-108
-84
-162
-90
899
2089
1482
-516
-1313
-550
-5
-98
-116
-46
-79
-76
-35
-41
-36
-8
0
7
27
45
63
87
109
132
166
206
239
269
301
331
355
368
351
292
204
111
24
-55
-115
-148
-164
-180
-192
-182
-164
-159
-158
-151
-148
-149
-139
-129
-127
-123
-118
-118
-118
-118
-117
-115
-117
-127
-131
-113
-76
-34
-18
-46
-81
-91
-98
-99
-77
-78
-96
-78
-82
-106
-78
-166
-121
867
2084
1470
-569
-1383
-603
-35
-107
-112
-39
-80
-88
-51
-52
-46
-22
-11
-1
18
40
63
82
101
128
159
197
243
284
311
334
361
379
362
299
207
111
24
-53
-113
-155
-181
-193
-194
-192
-184
-168
-156
-152
-143
-130
-120
-115
-116
-120
-118
-116
-116
-99
-76
-94
-144
-160
-122
-70
-33
-31
-66
-99
-104
-104
-100
-92
-103
-102
-80
-97
-102
-113
-237
104
1425
2253
973
-908
-1110
-289
-26
-149
-104
-68
-104
-79
-55
-62
-42
-20
-14
1
22
36
53
76
103
132
163
200
240
271
294
316
336
340
309
240
153
63
-21
-90
-139
-168
-182
-186
-185
-181
-174
-163
-151
-140
-133
-130
-127
-123
-121
-122
-124
-120
-116
-123
-137
-140
-122
-81
-36
-29
-70
-111
-124
-130
-131
-117
-119
-124
-98
-104
-133
-143
-277
-164
1000
2312
1660
-393
-1198
-506
-59
-168
-166
-97
-126
-114
-79
-86
-79
-55
-42
-23
-5
7
37
78
96
110
147
192
230
267
297
316
343
364
343
278
192
101
14
-63
-118
-147
-164
-181
-185
-177
-168
-161
-149
-136
-125
-116
-113
-112
-110
-107
-102
-98
-102
-114
-119
-104
-63
-16
-8
-56
-104
-115
-118
-121
-110
-117
-125
-98
-109
-139
-123
-234
-161
934
2217
1552
-553
-1376
-603
-55
-126
-126
-59
-93
-87
-52
-58
-47
-20
-16
-9
11
29
49
75
102
134
170
204
245
293
329
353
381
398
364
274
170
77
-8
-83
-135
-168
-188
-198
-200
-198
-189
-179
-176
-173
-162
-145
-132
-123
-123
-129
-132
-124
-112
-119
-141
-147
-114
-67
-38
-43
-78
-111
-120
-113
-102
-97
-113
-112
-87
-106
-126
-146
-257
82
1432
2413
1270
-679
-1033
-272
-34
-193
-150
-102
-142
-112
-78
-89
-75
-54
-55
-45
-18
3
16
32
60
97
130
161
201
244
274
294
313
318
284
211
124
44
-31
-103
-156
-175
-172
-173
-185
-193
-178
-150
-139
-152
-162
-154
-144
-140
-127
-107
-96
-103
-116
-122
-121
-126
-136
-131
-109
-79
-42
-20
-40
-82
-104
-102
-85
-68
-77
-82
-58
-85
-136
-122
-209
-140
970
2452
2048
-72
-1139
-522
-12
-116
-133
-71
-125
-123
-76
-86
-82
-36
-11
-13
-13
4
23
34
56
90
118
157
215
263
297
326
337
319
281
228
161
88
13
-60
-124
-172
-193
-191
-188
-198
-200
-177
-153
-162
-177
-160
-138
-138
-131
-116
-122
-129
-120
-117
-130
-137
-130
-118
-107
-102
-101
-102
-118
-147
-148
-105
-62
-39
-15
-16
-65
-102
-100
-93
-83
-74
-82
-72
-63
-86
-88
-169
-169
741
2269
2272
323
-1028
-612
-35
-122
-189
-91
-100
-112
-80
-91
-91
-55
-42
-41
-28
-12
8
34
62
86
106
134
175
210
231
254
284
308
312
287
229
145
52
-39
-105
-137
-149
-159
-174
-186
-180
-161
-152
-150
-136
-121
-122
-124
-114
-102
-101
-105
-104
-101
-102
-104
-95
-86
-96
-108
-106
-101
-101
-97
-91
-93
-98
-99
-93
-86
-97
-115
-100
-57
-22
7
18
-14
-52
-55
-55
-65
-60
-62
-59
-30
-44
-82
-104
-224
18
1347
2593
1717
-353
-997
-303
3
-159
-140
-83
-124
-105
-72
-84
-75
-55
-52
-40
-16
2
18
32
53
83
115
148
191
231
254
273
302
332
335
293
208
107
18
-53
-109
-145
-160
-170
-181
-180
-172
-169
-170
-166
-155
-141
-124
-115
-115
-113
-111
-116
-118
-111
-106
-111
-115
-113
-116
-121
-117
-111
-109
-103
-98
-102
-108
-106
-103
-101
-92
-84
-92
-109
-103
-74
-44
-13
7
-18
-59
-70
-75
-85
-73
-69
-73
-51
-66
-96
-86
-178
10
1221
2407
1525
-631
-1393
-641
-113
-118
-85
-46
-88
-68
-30
-40
-35
-8
9
29
51
60
73
97
127
162
204
248
297
347
384
413
447
474
461
397
301
201
100
-4
-86
-131
-158
-179
-192
-200
-205
-198
-185
-178
-172
-160
-148
-138
-128
-120
-114
-107
-105
-108
-112
-118
-124
-126
-128
-132
-130
-127
-128
-128
-135
-154
-152
-112
-63
-41
-46
-70
-91
-97
-98
-92
-84
-91
-90
-73
-91
-104
-138
-230
222
1598
2363
1038
-810
-1012
-252
-35
-167
-125
-90
-122
-96
-74
-84
-67
-44
-40
-29
-12
0
14
36
65
99
136
179
225
269
303
331
360
368
331
255
165
73
-16
-88
-137
-162
-171
-175
-181
-186
-184
-179
-172
-167
-160
-152
-148
-144
-137
-130
-127
-122
-119
-118
-114
-111
-115
-117
-111
-110
-113
-111
-115
-131
-132
-102
-58
-23
-20
-58
-93
-93
-90
-97
-90
-91
-93
-68
-83
-119
-130
-253
-59
1258
2617
1835
-323
-1100
-405
-36
-182
-165
-99
-136
-118
-84
-98
-87
-59
-50
-35
-12
4
26
51
72
100
140
187
236
285
329
365
394
411
392
324
228
129
33
-54
-119
-157
-176
-183
-184
-181
-180
-183
-181
-175
-170
-164
-153
-141
-134
-128
-121
-116
-115
-117
-116
-115
-118
-118
-115
-114
-112
-109
-111
-115
-124
-140
-137
-101
-53
-17
-14
-51
-85
-86
-82
-83
-73
-75
-80
-54
-58
-92
-110
-222
-52
1180
2548
1916
-178
-1040
-393
0
-151
-151
-82
-124
-113
-71
-83
-78
-49
-40
-30
-9
6
19
39
61
89
125
164
207
253
293
320
346
367
358
305
221
127
33
-52
-116
-154
-170
-175
-176
-175
-175
-175
-172
-169
-165
-163
-162
-162
-159
-151
-144
-144
-144
-137
-131
-131
-136
-138
-134
-127
-123
-125
-127
-123
-122
-138
-148
-122
-75
-39
-30
-53
-89
-102
-101
-106
-99
-95
-114
-107
-94
-123
-131
-214
-295
492
2129
2468
603
-1045
-822
-139
-127
-216
-127
-130
-156
-115
-102
-103
-76
-65
-64
-46
-23
-3
22
47
73
114
161
201
248
303
343
368
395
410
379
305
206
98
-1
-76
-129
-163
-178
-181
-182
-183
-176
-164
-157
-156
-147
-130
-118
-112
-106
-96
-86
-79
-77
-74
-69
-67
-66
-63
-58
-52
-48
-44
-42
-50
-53
-30
18
63
76
54
21
8
9
12
20
24
24
37
46
39
22
-64
19
939
2374
2348
23
