# session 6
-21
-46
14
90
-9
-232
-316
-256
-211
-169
-111
-97
-83
-45
-82
-170
-165
-118
-191
-321
-409
-556
-471
419
1424
998
-513
-1198
-731
-327
-345
-324
-225
-220
-246
-259
-274
-227
-119
-54
-40
-3
50
78
90
95
82
69
92
140
151
100
43
24
13
-32
-104
-138
-86
-32
-45
-43
-15
-74
-152
-106
-62
-111
-93
-28
-77
-179
-356
-441
387
1865
1935
167
-1103
-781
-217
-133
-80
-4
-33
-17
31
43
114
192
170
147
180
207
242
309
367
402
428
453
488
510
487
423
335
263
247
227
101
-77
-164
-151
-130
-141
-179
-219
-226
-253
-338
-374
-337
-336
-361
-431
-441
267
1593
1735
-3
-1503
-1269
-495
-330
-369
-236
-149
-114
32
160
117
18
-12
-16
-31
-36
-21
-3
-6
-3
34
64
74
99
85
-7
-86
-104
-119
-154
-168
-126
-71
-120
-247
-264
-178
-175
-219
-186
-154
-162
-147
-138
-136
-193
-321
208
1781
2642
1320
-432
-635
-139
-112
-156
2
44
14
68
106
99
103
108
144
213
243
242
250
238
228
256
255
202
136
50
-36
-75
-103
-159
-216
-257
-275
-279
-286
-257
-206
-237
-306
-281
-241
-278
-289
-278
-318
-320
-366
-366
460
1849
1778
-82
-1311
-892
-328
-351
-364
-252
-265
-325
-320
-249
-139
-76
-90
-101
-67
-12
50
108
148
167
175
195
222
193
75
-56
-131
-142
-107
-91
-132
-128
-31
43
40
27
24
15
11
22
76
123
60
-6
-22
-155
97
1359
2313
1262
-534
-859
-185
43
-55
13
55
-16
-37
-25
-64
-113
-108
-64
-31
-6
28
64
122
164
113
76
148
162
69
44
14
-157
-248
-169
-177
-264
-222
-149
-175
-204
-227
-281
-289
-273
-280
-243
-211
-243
-249
-341
-290
713
2045
1669
-194
-1108
-621
-240
-323
-318
-255
-283
-274
-226
-198
-154
-94
-65
-58
-32
53
170
211
147
102
133
170
195
232
255
243
199
138
108
109
116
153
202
201
182
171
114
46
50
99
134
108
55
64
-29
-168
527
1980
2129
293
-1194
-959
-343
-283
-302
-231
-255
-237
-129
-105
-165
-193
-171
-134
-90
-51
-49
-66
-53
-35
-54
-47
18
49
-5
-78
-133
-178
-220
-271
-311
-269
-180
-161
-197
-197
-184
-214
-256
-261
-230
-218
-272
-291
-312
-509
-242
1206
2360
1288
-681
-1095
-393
-133
-222
-176
-184
-248
-187
-100
-77
-60
-44
-21
63
159
191
205
261
313
317
324
366
376
320
261
212
127
62
82
113
93
87
129
166
151
102
76
81
49
-3
4
-12
-111
-185
-296
-317
452
1680
1597
10
-1046
-776
-350
-321
-311
-273
-296
-277
-239
-243
-233
-202
-184
-172
-158
-139
-112
-98
-95
-101
-127
-112
-16
55
30
-15
-46
-107
-161
-152
-128
-120
-94
-65
-65
-60
-47
-77
-137
-158
-122
-96
-120
-96
-88
-320
-248
940
2158
1453
-417
-1084
-491
-123
-171
-109
-12
-32
-34
42
121
149
159
204
237
213
215
294
358
334
286
301
372
418
394
331
258
168
103
103
107
79
95
134
70
-59
-109
-105
-152
-236
-291
-275
-228
-259
-339
-379
-472
-300
780
1898
1187
-816
-1653
-972
-376
-356
-370
-322
-309
-262
-214
-217
-229
-214
-156
-91
-84
-98
-56
2
-1
-35
-13
58
99
86
62
34
-28
-92
-107
-89
-60
-14
32
52
41
-36
-160
-216
-184
-174
-170
-128
-154
-194
-184
-292
-24
1334
2482
1537
-334
-788
-174
53
-43
-16
-19
-66
-18
50
76
110
169
213
219
236
291
331
347
364
345
295
288
287
203
70
-24
-65
-91
-132
-169
-154
-95
-60
-70
-77
-88
-151
-222
-248
-273
-287
-268
-295
-347
-405
-522
-180
1058
1855
758
-936
-1228
-603
-372
-430
-342
-271
-293
-275
-214
-175
-168
-154
-105
-52
-31
-13
19
52
69
72
89
128
155
164
145
29
-128
-177
-147
-161
-184
-146
-87
-64
-88
-121
-109
-74
-54
-1
49
12
4
-16
-202
164
1620
2478
1149
-692
-906
-204
77
76
118
92
67
117
151
170
201
210
195
175
154
139
137
144
137
105
96
121
90
-30
-153
-216
-219
-187
-198
-287
-343
-283
-206
-198
-213
-220
-242
-281
-317
-293
-238
-272
-295
-280
-470
-238
1272
2511
1341
-801
-1250
-508
-250
-348
-278
-234
-251
-194
-153
-145
-104
-72
-47
23
90
122
144
124
54
21
48
65
71
90
70
-19
-106
-117
-62
-5
17
41
101
143
123
103
110
83
31
36
69
38
26
34
-78
169
1312
2160
1221
-389
-718
-139
105
47
23
-72
-176
-152
-110
-112
-82
-25
1
-1
-2
13
35
27
-14
-35
-22
-25
-65
-113
-160
-214
-274
-317
-332
-346
-361
-336
-283
-263
-268
-262
-259
-260
-264
-273
-274
-296
-320
-310
-425
-390
629
2001
1662
-206
-1138
-623
-205
-286
-265
-162
-184
-187
-103
-61
-115
-176
-133
-15
69
90
101
129
151
158
185
251
323
330
253
182
170
144
89
80
116
154
194
208
171
127
119
136
126
110
128
108
69
65
-100
-43
1127
2412
1633
-454
-1158
-459
-112
-267
-252
-145
-129
-138
-176
-198
-157
-128
-132
-120
-82
-6
63
39
-12
20
68
52
27
20
-25
-110
-175
-211
-249
-262
-220
-178
-175
-163
-125
-122
-162
-176
-169
-176
-169
-167
-185
-188
-326
-432
364
1800
1870
188
-1018
-751
-303
-330
-370
-327
-331
-286
-213
-199
-190
-157
-126
-94
-66
-33
35
102
121
143
194
226
246
274
242
147
92
93
75
48
59
91
130
169
164
109
88
116
105
85
134
121
-1
-48
-142
-256
410
1679
1694
117
-963
-662
-221
-247
-286
-246
-266
-263
-242
-262
-256
-213
-183
-142
-72
-20
10
15
-14
-26
-9
-2
26
65
25
-66
-123
-162
-197
-205
-207
-208
-172
-113
-73
-79
-121
-152
-167
-179
-150
-107
-92
-65
-179
-339
328
1752
1945
249
-1133
-879
-211
-61
-84
-84
-128
-119
-63
-48
-32
19
67
109
156
194
225
267
295
291
290
306
328
358
365
312
258
265
276
242
220
239
249
240
240
232
229
244
187
41
-28
-37
-155
-279
-331
-449
-143
1080
1880
756
-974
-1257
-581
-318
-410
-391
-345
-368
-381
-367
-356
-337
-286
-245
-240
-196
-124
-123
-152
-152
-193
-242
-190
-103
-80
-91
-110
-142
-159
-159
-152
-124
-89
-74
-52
-36
-53
-17
61
-27
-242
-293
-216
-205
-234
-326
-263
566
1638
1348
-145
-921
-535
-159
-185
-214
-188
-188
-155
-98
-55
-12
39
96
132
133
168
252
293
296
338
365
340
354
408
401
320
223
155
135
132
123
122
140
172
178
121
63
34
-58
-169
-165
-144
-171
-161
-270
-264
691
1956
1504
-426
-1381
-825
-262
-196
-152
-87
-106
-133
-157
-156
-82
-10
16
40
59
64
95
137
131
81
51
82
126
108
50
12
-32
-96
-119
-103
-93
-67
-23
-9
-7
-8
-52
-93
-95
-119
-122
-85
-121
-110
-105
-437
-381
832
1532
165
-1372
-1150
-345
-224
-288
-178
-137
-143
-101
-69
-44
-5
28
62
106
143
163
173
179
171
163
185
201
170
132
115
90
64
46
-2
-68
-88
-66
-44
-20
4
-10
-49
-68
-82
-93
-78
-86
-122
-192
-353
-73
1258
2392
1496
-397
-942
-359
-134
-256
-216
-171
-195
-164
-135
-141
-127
-104
-83
-50
-27
-12
7
16
8
2
12
37
65
72
39
-28
-91
-125
-143
-140
-99
-55
-42
-24
3
1
-19
-40
-78
-97
-92
-128
-157
-201
-305
135
1402
1907
443
-1202
-1145
-342
-139
-222
-163
-142
-170
-145
-127
-116
-74
-49
-47
-22
31
79
114
126
112
98
108
120
96
41
-20
-81
-134
-158
-152
-140
-126
-103
-72
-47
-35
-17
32
66
34
11
23
-2
-19
-68
-236
128
1484
2276
1038
-655
-800
-152
-14
-109
-53
-50
-84
-46
-37
-60
-39
-8
-5
3
26
47
47
25
17
41
68
76
84
78
31
-29
-64
-76
-78
-81
-87
-78
-60
-68
-99
-124
-139
-167
-187
-165
-161
-196
-217
-341
-347
550
1873
1662
-77
-986
-448
-2
-106
-119
-36
-68
-78
-48
-56
-56
-34
-25
-14
6
19
31
44
42
31
39
77
116
117
72
15
-23
-40
-48
-58
-72
-78
-69
-56
-61
-89
-111
-116
-135
-154
-137
-150
-197
-228
-397
-429
471
1649
1174
-601
-1275
-565
-110
-217
-230
-173
-209
-199
-159
-157
-137
-97
-69
-39
-11
11
43
71
74
68
73
104
147
151
105
59
41
26
1
-17
-16
-3
13
40
55
18
-28
-31
-29
-22
8
-8
-47
-109
-348
-269
846
1884
1088
-563
-896
-231
13
-82
-27
-3
-60
-40
-4
-5
11
34
45
65
92
106
98
74
55
54
84
143
190
178
120
71
27
-36
-51
24
90
77
46
37
18
-13
-32
-57
-101
-106
-73
-106
-160
-235
-509
-431
800
1963
1136
-623
-983
-293
-51
-154
-80
-22
-65
-58
-34
-30
-10
9
20
41
44
18
1
0
-19
-48
-33
27
59
35
-10
-42
-60
-70
-84
-115
-149
-154
-126
-99
-91
-87
-92
-112
-118
-80
-50
-95
-119
-103
-295
-383
475
1593
1116
-513
-1054
-367
34
-72
-85
-39
-75
-73
-46
-65
-75
-47
-15
11
29
18
-7
-2
12
-10
-21
23
67
49
-2
-28
-34
-61
-98
-107
-113
-132
-108
-43
-31
-89
-131
-136
-158
-180
-132
-77
-88
-167
-370
-353
568
1693
1249
-404
-1067
-447
2
-31
2
59
-7
-30
11
27
42
68
81
96
116
128
144
149
137
151
168
154
164
184
119
44
70
84
14
-18
-12
-43
-18
59
18
-73
-48
-17
-45
-9
12
-97
-116
-3
-195
-494
211
1666
1743
40
-1130
-721
-116
-79
-104
-47
-81
-101
-57
-44
-50
-24
18
56
90
117
141
156
141
118
146
183
158
122
104
33
-35
-5
15
-64
-114
-86
-82
-115
-128
-133
-142
-144
-164
-190
-169
-160
-203
-243
-403
-506
280
1621
1531
-196
-1209
-683
-140
-185
-205
-137
-177
-178
-122
-120
-118
-79
-51
-35
-10
14
22
18
8
-11
-10
39
92
81
22
-26
-54
-71
-74
-74
-70
-54
-50
-79
-102
-96
-92
-106
-117
-103
-82
-105
-134
-166
-328
-229
787
1813
1142
-489
-896
-208
67
-83
-51
7
-39
-26
3
-6
22
65
64
59
81
103
108
97
78
68
100
162
199
183
145
114
93
72
37
3
-3
13
28
36
30
4
-19
-35
-49
-36
-30
-70
-92
-207
-504
-251
1018
1776
678
-748
-745
-129
-47
-150
-91
-89
-125
-85
-48
-37
-17
3
33
74
87
82
72
48
28
42
80
113
116
77
20
-31
-70
-95
-115
-142
-158
-149
-136
-132
-125
-130
-157
-183
-191
-165
-140
-176
-210
-282
-567
-493
657
1680
874
-680
-928
-298
-112
-222
-179
-147
-171
-136
-106
-105
-79
-46
-21
16
40
35
29
32
29
33
74
131
154
126
72
23
-11
-34
-52
-51
-38
-37
-44
-37
-28
-29
-29
-51
-93
-89
-57
-50
-62
-245
-476
81
1300
1356
-127
-1022
-478
69
13
-7
76
31
14
79
117
152
195
200
201
217
217
220
241
228
186
188
240
274
250
194
157
143
116
90
96
105
98
100
107
106
100
82
64
58
47
53
60
36
35
-68
-374
-138
1058
1640
402
-968
-796
-40
134
78
138
129
107
166
192
202
245
219
181
182
-128
-944
-1743
-1934
-1543
-982
-562
-335
-223
-181
-168
-140
-114
-100
-76
-65
-77
-58
-12
6
1
15
47
49
9
13
71
64
12
-98
-371
-222
896
1661
633
-837
-853
-87
149
71
117
122
71
97
132
133
150
173
196
238
271
270
260
247
218
203
233
264
243
180
111
48
-2
-41
-77
-100
-107
-106
-97
-82
-85
-112
-135
-150
-169
-161
-141
-163
-186
-304
-618
-450
725
1495
467
-957
-972
-293
-140
-247
-195
-161
-191
-180
-157
-136
-103
-94
-91
-50
-8
-10
-28
-40
-57
-64
-36
-3
-10
-51
-93
-127
-152
-168
-176
-180
-181
-176
-154
-119
-104
-120
-129
-127
-141
-137
-107
-106
-111
-184
-453
-370
675
1578
867
-490
-695
-107
114
48
84
118
117
153
179
203
256
292
307
345
384
394
395
400
396
396
435
489
494
444
395
364
328
301
300
302
295
301
327
363
389
374
342
343
345
337
367
380
355
351
161
-44
685
2009
1873
160
-750
-159
410
409
397
436
397
394
401
357
351
382
360
291
248
254
260
221
169
148
142
109
-47
-423
-890
-1198
-1331
-1429
-1600
-1964
-2404
-2590
-2598
-2682
-2679
-2614
-2790
-2932
-2672
-2245
-1798
-1270
-859
-637
-584
-687
-225
1124
1714
478
-772
-498
242
391
352
431
450
448
502
536
554
597
635
659
694
735
764
765
741
712
706
725
742
720
659
584
523
487
463
435
414
412
419
426
427
406
370
336
300
283
290
255
205
150
-97
-214
631
1809
1474
-94
-739
-175
195
101
86
123
86
85
97
79
96
133
137
140
169
200
214
207
178
151
151
164
153
103
32
-32
-79
-112
-128
-143
-165
-171
-167
-174
-173
-168
-195
-228
-239
-253
-258
-256
-272
-296
-483
-755
-270
1056
1473
190
-972
-790
-290
-249
-273
-207
-212
-215
-175
-158
-137
-91
-53
-27
2
34
63
69
49
35
45
69
85
63
4
-63
-110
-131
-134
-135
-142
-139
-116
-89
-75
-74
-90
-106
-108
-111
-103
-88
-105
-107
-189
-506
-375
862
1779
750
-847
-966
-245
-29
-111
-64
-56
-87
-40
-2
-2
34
