# session 8
-119
-105
-152
28
380
479
355
323
360
309
184
40
-67
-96
-109
-183
-273
-274
-223
-250
-307
-261
-162
-110
-86
-71
-61
-50
-48
-45
-63
-132
-139
-54
-64
-119
-115
-261
-83
1254
2517
1604
-513
-1217
-524
-68
-113
-135
-103
-81
-8
71
105
142
225
318
377
432
517
618
733
864
948
910
807
770
775
699
596
579
555
412
251
250
435
610
585
450
439
530
490
304
193
204
191
137
129
172
218
210
161
91
-52
99
973
1541
360
-1579
-2147
-1454
-982
-1022
-1029
-894
-848
-883
-795
-700
-827
-907
-713
-614
-781
-848
-711
-640
-654
-571
-413
-336
-345
-310
-192
-118
-182
-277
-267
-185
-129
-100
-52
4
26
4
-43
-75
-55
-38
-125
-273
-347
-330
-282
-245
-283
-333
-327
-444
-321
875
2208
1572
-414
-1181
-544
-94
-117
-110
-47
59
193
227
274
416
445
378
463
596
538
432
447
465
462
517
489
289
86
-61
-256
-409
-383
-330
-406
-463
-386
-290
-241
-196
-131
-29
54
49
54
119
77
-34
95
419
501
332
300
266
139
856
2384
2507
572
-898
-581
39
72
19
9
-59
-3
115
89
-4
-73
-147
-175
-113
-33
24
83
149
208
224
202
212
211
105
3
4
-16
-85
-88
-72
-115
-131
-59
47
122
146
163
167
89
24
55
27
-67
-55
-50
-132
-147
-286
-401
503
1913
1556
-503
-1600
-1046
-460
-408
-377
-347
-420
-417
-330
-279
-263
-222
-146
-103
-91
9
147
129
36
52
54
-58
-91
-6
-38
-224
-348
-331
-314
-360
-373
-343
-361
-377
-289
-199
-209
-224
-199
-208
-218
-192
-240
-347
-333
-260
-277
-268
-269
-352
244
1790
2437
957
-742
-827
-201
-28
-48
27
49
29
29
32
58
97
147
243
334
356
355
394
463
507
503
522
577
516
294
91
-5
-84
-169
-207
-229
-269
-284
-258
-217
-149
-81
-98
-177
-221
-230
-213
-148
-125
-212
-262
-216
-229
-343
-488
-416
463
1851
2001
412
-928
-789
-235
-150
-220
-197
-168
-141
-116
-99
-77
-57
-11
82
150
175
209
226
207
240
309
254
74
-67
-129
-180
-220
-227
-255
-307
-291
-214
-183
-173
-89
0
15
16
22
-1
-18
-39
-118
-145
-27
75
77
59
-41
127
1252
2441
1793
-103
-857
-302
12
-150
-167
-64
-52
-88
-139
-161
-96
-18
2
6
35
75
110
143
174
182
145
78
26
-15
-105
-229
-293
-277
-273
-346
-433
-438
-372
-293
-219
-193
-215
-186
-159
-273
-360
-221
-62
-104
-228
-245
-177
-294
-404
490
2150
2311
353
-1227
-1018
-374
-271
-287
-221
-228
-235
-166
-103
-89
-44
96
232
260
265
330
399
444
493
510
475
441
400
296
176
140
161
122
53
89
169
133
35
14
35
-5
-118
-230
-273
-266
-264
-284
-296
-278
-269
-279
-271
-363
-384
406
1662
1499
-316
-1500
-1054
-376
-292
-339
-287
-244
-206
-201
-207
-136
-77
-123
-122
22
160
194
217
269
252
158
143
233
240
110
11
-29
-108
-186
-188
-155
-135
-132
-153
-178
-175
-168
-185
-206
-230
-270
-280
-235
-185
-116
-60
-86
-129
-226
-241
619
2184
2414
686
-732
-563
-54
-16
-6
90
82
76
135
178
187
183
212
303
376
337
207
82
62
153
215
155
62
14
-32
-84
-107
-132
-189
-250
-291
-288
-234
-194
-207
-239
-270
-295
-319
-359
-384
-364
-328
-277
-236
-234
-198
-232
-345
279
1824
2365
796
-847
-851
-264
-169
-198
-105
-104
-145
-136
-147
-126
-13
42
-34
-60
24
39
-28
-2
92
117
102
102
82
53
25
-41
-103
-96
-57
-46
-64
-78
-30
56
83
75
116
154
123
81
66
82
115
82
32
47
-82
-35
1045
2264
1530
-498
-1241
-644
-360
-468
-360
-250
-281
-250
-232
-295
-269
-156
-101
-88
-49
12
70
82
54
68
115
86
-23
-130
-200
-243
-258
-244
-241
-261
-243
-186
-161
-144
-96
-92
-108
-46
4
-61
-143
-171
-172
-146
-129
-119
-99
-188
-51
966
2029
1402
-344
-1033
-528
-188
-208
-138
-87
-132
-95
-7
31
77
156
212
238
265
316
398
489
555
565
512
450
431
383
252
141
129
130
108
147
202
118
-47
-117
-116
-138
-156
-154
-174
-200
-205
-239
-286
-280
-290
-319
-274
-298
-178
827
2013
1404
-592
-1442
-816
-374
-449
-413
-315
-331
-366
-433
-468
-336
-188
-183
-189
-109
-35
21
115
182
177
201
270
235
68
-64
-75
-54
-56
-52
-83
-198
-289
-234
-109
-54
-52
-15
29
0
-53
-43
-18
-19
-11
-10
-8
-35
-174
143
1469
2399
1249
-595
-874
-182
-25
-157
-52
-34
-176
-168
-84
-119
-115
27
84
-4
10
166
220
126
81
129
115
1
-79
-84
-116
-208
-283
-309
-316
-300
-264
-234
-197
-126
-56
-45
-99
-148
-127
-105
-155
-183
-175
-230
-231
-215
-324
244
1905
2596
821
-1169
-1177
-352
-113
-136
-98
-131
-124
-45
-19
-13
18
57
112
157
183
253
361
413
388
365
396
411
326
212
156
104
16
-57
-98
-118
-127
-150
-158
-99
-23
-7
-39
-74
-93
-113
-152
-159
-125
-153
-191
-177
-285
-79
1210
2401
1460
-610
-1214
-526
-234
-383
-357
-308
-367
-373
-343
-340
-291
-175
-76
-42
-30
12
61
74
85
143
206
199
127
31
-74
-146
-156
-150
-170
-190
-188
-183
-168
-114
-72
-110
-165
-138
-101
-162
-209
-138
-116
-191
-160
-182
-325
320
1880
2287
577
-991
-812
-181
-191
-309
-225
-203
-227
-203
-209
-225
-165
-75
-38
-31
0
57
141
255
301
236
232
344
363
233
137
108
49
-9
-8
6
-1
13
71
117
115
115
116
56
-42
-124
-195
-216
-174
-162
-219
-372
-470
213
1711
2210
683
-968
-1029
-392
-204
-265
-254
-233
-207
-171
-153
-148
-156
-139
-78
-33
14
106
137
55
21
118
197
157
75
17
-31
-67
-82
-96
-106
-118
-157
-185
-135
-42
-6
-35
-75
-118
-157
-182
-228
-275
-286
-298
-309
-368
-390
313
1816
2359
909
-666
-700
-164
-151
-246
-112
-29
-51
-23
42
77
90
106
138
185
233
283
334
350
315
283
274
238
185
163
135
43
-81
-167
-192
-192
-208
-220
-195
-167
-174
-187
-202
-245
-272
-244
-211
-194
-213
-273
-254
-216
-254
260
1538
1906
338
-1225
-1095
-359
-213
-279
-185
-130
-169
-202
-191
-135
-66
-15
14
38
76
97
108
176
259
256
221
228
203
82
-84
-217
-268
-249
-241
-279
-277
-197
-129
-109
-80
-61
-85
-86
-83
-180
-252
-147
-58
-91
-63
-89
-38
935
2305
1968
65
-872
-347
13
-155
-186
-94
-57
8
42
35
89
92
-35
-107
-49
4
11
34
87
135
141
125
127
118
65
-2
-84
-165
-172
-148
-190
-224
-158
-84
-88
-140
-199
-220
-195
-211
-242
-165
-105
-198
-280
-347
-321
508
1881
1894
222
-938
-670
-239
-217
-189
-159
-192
-126
-65
-117
-139
-128
-187
-219
-141
-54
-2
30
11
-2
86
190
198
168
159
125
57
18
42
63
38
53
140
176
152
168
161
80
55
95
93
98
108
49
0
-101
-124
723
2069
1814
-196
-1371
-834
-247
-292
-329
-261
-297
-321
-241
-127
-70
-97
-122
-77
1
59
81
93
132
146
89
58
79
16
-112
-147
-138
-212
-281
-246
-189
-177
-155
-87
-10
20
-33
-95
-77
-67
-143
-179
-136
-150
-191
-242
-325
112
1305
1803
514
-1004
-1072
-435
-224
-240
-185
-184
-187
-112
-43
-12
5
12
34
87
162
241
286
263
207
204
268
306
283
248
221
191
152
109
94
99
69
48
84
67
-41
-99
-90
-117
-168
-185
-188
-211
-260
-282
-303
-306
248
1504
1928
411
-1303
-1322
-505
-229
-265
-179
-143
-178
-152
-110
-111
-113
-61
19
16
-43
-14
83
124
123
148
182
167
113
101
129
84
-37
-114
-106
-85
-97
-85
-11
-6
-148
-254
-222
-233
-338
-354
-242
-154
-188
-234
-201
-266
-172
915
2339
2020
146
-844
-451
-105
-115
-9
74
25
45
102
100
109
144
145
158
243
304
260
226
293
360
323
200
86
38
-7
-100
-170
-179
-192
-242
-281
-260
-212
-206
-209
-149
-81
-101
-197
-291
-294
-236
-280
-359
-281
-296
-338
556
2001
1786
-192
-1356
-908
-375
-304
-218
-171
-263
-274
-212
-206
-178
-79
-12
3
92
229
233
108
44
87
131
118
93
79
26
-88
-177
-190
-200
-244
-245
-165
-75
-34
-13
8
-21
-92
-129
-133
-120
-78
-91
-120
-68
-85
188
1463
2620
1677
-373
-950
-205
193
140
156
131
71
109
42
-174
-274
-209
-152
-136
-102
-41
14
8
-49
-46
37
78
35
-29
-102
-196
-257
-251
-228
-243
-270
-247
-192
-163
-132
-78
-72
-123
-181
-230
-220
-176
-214
-255
-318
-501
10
1702
2588
1043
-878
-969
-278
-195
-308
-217
-169
-176
-143
-138
-165
-176
-167
-105
14
78
43
39
110
127
93
139
219
206
157
142
121
104
112
77
25
67
157
190
221
287
310
302
311
284
240
240
211
163
111
-96
22
1182
2181
1155
-777
-1222
-550
-332
-443
-340
-286
-375
-395
-364
-338
-292
-260
-236
-182
-137
-96
-21
14
-25
-39
-7
-1
-19
-30
-67
-154
-241
-260
-226
-215
-241
-254
-210
-104
-34
-102
-191
-142
-79
-153
-217
-176
-175
-216
-273
-334
236
1651
2167
589
-1147
-1165
-447
-260
-308
-234
-184
-175
-170
-178
-128
-26
39
64
94
142
196
236
267
299
321
317
303
308
319
306
280
253
197
135
149
221
240
213
225
227
187
201
173
-40
-200
-124
-95
-213
-266
-338
-215
769
1821
1155
-630
-1248
-618
-257
-356
-333
-256
-281
-282
-228
-174
-147
-186
-244
-228
-169
-130
-66
34
83
84
129
193
170
74
4
-19
-46
-85
-121
-156
-160
-110
-65
-72
-76
-68
-95
-127
-153
-203
-223
-211
-229
-218
-268
-339
392
1900
2130
328
-1152
-879
-207
-87
-69
-3
-12
19
50
33
104
197
161
133
236
332
328
328
378
402
379
382
438
463
358
167
48
31
-22
-149
-226
-200
-124
-60
-51
-98
-163
-222
-275
-312
-302
-244
-235
-284
-272
-303
-284
484
1654
1413
-330
-1350
-926
-438
-414
-392
-365
-418
-400
-351
-331
-260
-181
-164
-162
-147
-129
-88
-44
-29
-4
47
87
102
96
64
13
-67
-164
-221
-222
-193
-148
-113
-90
-41
-14
-67
-101
-62
-37
-31
-8
-11
6
-34
-191
282
1739
2383
889
-817
-789
-29
174
165
272
285
282
382
439
414
394
353
275
246
269
256
241
273
245
159
201
305
219
21
-26
39
-18
-190
-275
-216
-118
-41
-19
-69
-138
-172
-182
-201
-266
-317
-274
-251
-288
-300
-394
-221
920
2045
1332
-398
-956
-546
-449
-515
-394
-374
-360
-152
-70
-230
-312
-248
-225
-271
-351
-464
-524
-480
-424
-434
-482
-505
-458
-381
-349
-329
-273
-257
-286
-226
-82
11
58
120
150
142
154
180
213
268
283
220
202
204
75
329
1521
2439
1519
-153
-537
53
270
101
46
73
50
-22
-88
-70
-22
-35
-41
-24
-59
-70
13
75
71
76
76
36
-7
-31
-20
34
76
52
-28
-109
-104
-21
44
63
43
-27
-73
-69
-135
-193
-89
-11
-112
-281
-420
-37
1198
1913
792
-729
-831
-244
-166
-315
-305
-324
-409
-428
-372
-292
-231
-180
-132
-118
-93
-17
32
51
92
78
3
31
148
182
139
103
74
73
99
97
112
179
198
135
82
72
71
61
51
61
55
6
-48
-217
-377
240
1551
1794
316
-993
-887
-363
-279
-343
-322
-300
-288
-284
-275
-224
-180
-163
-116
-57
-31
-14
-20
-74
-104
-61
-9
-1
-15
-24
-30
-49
-66
-65
-74
-86
-58
-23
-47
-69
-28
-4
-41
-85
-131
-159
-153
-150
-115
-170
-395
8
1456
2138
633
-1151
-1156
-353
-155
-238
-140
-69
-60
-1
62
120
173
148
110
168
262
332
403
425
375
386
499
550
483
439
442
383
303
295
266
161
100
85
25
-22
-20
-82
-197
-249
-250
-226
-177
-203
-296
-354
-414
-127
986
1842
837
-1010
-1438
-669
-295
-406
-410
-396
-468
-438
-334
-300
-295
-250
-222
-225
-184
-116
-91
-92
-84
-67
-39
-38
-71
-38
30
-34
-166
-175
-141
-206
-259
-182
-53
27
14
-94
-228
-297
-281
-210
-132
-111
-127
-117
-234
-332
475
2059
2395
797
-581
-449
18
2
-55
29
66
64
71
97
156
195
204
231
266
291
327
350
346
365
406
402
340
254
142
9
-83
-114
-161
-225
-200
-117
-136
-228
-255
-260
-299
-289
-270
-331
-365
-363
-438
-451
-422
-441
230
1702
1936
43
-1528
-1186
-445
-384
-378
-240
-273
-317
-251
-204
-154
-79
-59
-44
33
98
111
136
182
179
154
214
307
296
219
165
67
-73
-115
-69
-45
-21
47
87
46
-12
-16
0
-25
-23
46
64
66
83
-122
-66
1188
2524
1751
-311
-1022
-346
84
52
86
149
153
168
186
208
227
252
311
306
206
184
220
137
34
38
25
-41
-41
-3
-38
-128
-181
-182
-202
-255
-262
-217
-185
-163
-151
-199
-270
-308
-339
-337
-322
-372
-382
-401
-546
-40
1490
2127
549
-1206
-1244
-603
-456
-458
-353
-335
-350
-312
-281
-259
-222
-195
-172
-139
-100
-49
-9
-28
-52
-11
12
-39
-58
-60
-162
-286
-321
-334
-350
-320
-274
-225
-132
-44
-22
-18
-2
-2
-4
2
-20
-14
34
-53
41
1046
2225
1739
-41
-814
-195
302
241
231
259
26
-217
-164
-6
-9
-79
-50
30
77
96
95
86
91
94
101
136
173
173
140
91
