# session 33
-40
-52
-19
-7
-103
-231
-263
-234
-230
-234
-218
-207
-205
-197
-185
-182
-177
-165
-160
-171
-177
-155
-106
-52
-30
-58
-101
-113
-106
-109
-105
-95
-107
-102
-77
-101
-132
-197
-291
312
1914
2687
1201
-636
-748
-110
-65
-199
-125
-113
-146
-105
-89
-103
-80
-61
-56
-39
-21
-8
11
31
51
73
99
130
168
207
243
281
312
335
352
342
282
187
88
-3
-80
-136
-173
-195
-202
-200
-196
-188
-178
-174
-171
-163
-152
-143
-139
-136
-134
-132
-130
-128
-126
-124
-124
-124
-124
-125
-123
-114
-110
-121
-131
-117
-83
-39
-7
-18
-67
-103
-99
-93
-94
-86
-90
-96
-70
-74
-111
-139
-252
-24
1272
2584
1841
-235
-1014
-375
-16
-148
-140
-89
-133
-123
-86
-89
-75
-56
-57
-45
-20
-9
4
30
58
82
110
139
167
207
259
300
317
339
373
376
323
233
129
20
-74
-139
-180
-205
-218
-220
-214
-205
-199
-194
-191
-184
-170
-159
-155
-149
-143
-144
-145
-143
-141
-140
-134
-129
-136
-139
-132
-132
-145
-142
-109
-58
-21
-32
-79
-110
-107
-110
-114
-96
-94
-110
-88
-83
-125
-130
-191
-102
920
2340
2037
3
-1155
-626
-65
-116
-143
-73
-103
-106
-64
-64
-62
-38
-28
-19
0
14
27
48
72
97
123
152
193
239
279
311
343
377
404
404
355
266
161
55
-44
-117
-160
-189
-206
-207
-203
-202
-198
-187
-181
-178
-173
-165
-155
-145
-140
-139
-135
-131
-130
-133
-135
-137
-137
-134
-133
-142
-151
-137
-95
-49
-29
-47
-87
-111
-112
-114
-112
-102
-107
-108
-81
-89
-123
-161
-271
58
1441
2610
1678
-295
-859
-240
-22
-186
-158
-111
-150
-127
-98
-110
-98
-76
-70
-57
-41
-29
-13
8
28
51
77
106
142
182
217
249
278
304
324
317
261
171
76
-14
-95
-155
-186
-197
-202
-204
-204
-199
-190
-183
-179
-176
-170
-163
-156
-153
-149
-142
-139
-138
-135
-131
-130
-127
-123
-129
-140
-135
-103
-56
-20
-22
-62
-98
-103
-98
-99
-90
-87
-100
-82
-68
-101
-127
-223
-176
839
2420
2394
459
-831
-452
6
-133
-191
-104
-138
-150
-101
-99
-101
-77
-68
-61
-39
-26
-15
5
26
47
71
99
132
169
208
246
278
302
324
328
287
204
106
11
-75
-141
-179
-197
-204
-206
-205
-200
-196
-194
-188
-177
-168
-162
-156
-150
-145
-140
-136
-136
-136
-133
-127
-125
-125
-121
-118
-125
-134
-129
-100
-55
-19
-25
-67
-100
-100
-97
-102
-93
-91
-100
-79
-70
-106
-137
-241
-151
958
2525
2345
344
-846
-406
6
-155
-190
-103
-142
-145
-94
-99
-98
-69
-63
-60
-41
-24
-10
9
28
50
78
108
137
171
210
245
273
300
325
328
284
200
102
7
-75
-138
-178
-200
-207
-207
-204
-201
-197
-193
-189
-183
-175
-169
-165
-160
-153
-146
-142
-138
-135
-132
-131
-131
-132
-135
-134
-129
-127
-134
-138
-123
-86
-40
-13
-34
-80
-100
-95
-98
-97
-82
-90
-96
-72
-82
-113
-168
-274
190
1715
2743
1539
-419
-780
-140
-22
-189
-133
-104
-152
-121
-93
-104
-88
-68
-63
-47
-25
-11
4
22
41
67
97
127
161
199
236
267
293
319
338
326
267
173
72
-20
-98
-152
-183
-198
-204
-205
-202
-195
-188
-185
-180
-173
-167
-162
-155
-149
-144
-136
-130
-130
-130
-129
-126
-122
-119
-116
-113
-112
-110
-105
-105
-114
-123
-112
-78
-31
1
-12
-57
-85
-82
-85
-90
-79
-81
-88
-64
-68
-104
-146
-261
31
1405
2685
1857
-179
-850
-231
10
-173
-149
-92
-142
-129
-96
-107
-95
-69
-65
-55
-34
-20
-6
14
34
57
84
114
148
187
225
257
285
312
336
334
285
199
101
6
-76
-136
-175
-196
-203
-203
-202
-199
-192
-184
-179
-173
-166
-157
-151
-147
-143
-136
-129
-126
-125
-127
-127
-124
-123
-125
-125
-120
-115
-115
-115
-109
-107
-118
-129
-117
-76
-27
-1
-18
-61
-84
-80
-80
-83
-73
-76
-77
-54
-66
-102
-154
-275
94
1541
2696
1681
-309
-812
-175
6
-170
-132
-91
-139
-115
-84
-96
-83
-63
-59
-46
-27
-16
-1
18
36
60
89
119
154
191
227
261
290
314
335
333
284
197
99
7
-74
-134
-172
-191
-198
-201
-200
-195
-187
-181
-175
-169
-163
-158
-151
-145
-142
-139
-132
-126
-123
-121
-121
-121
-120
-118
-115
-112
-110
-108
-107
-107
-103
-97
-104
-118
-112
-75
-25
8
-2
-45
-75
-74
-75
-82
-72
-74
-84
-63
-66
-102
-141
-254
-5
1310
2630
1907
-124
-869
-261
17
-162
-150
-91
-140
-126
-89
-102
-95
-70
-65
-55
-35
-23
-8
13
34
59
87
115
147
183
219
254
285
313
337
338
294
209
111
18
-64
-129
-170
-191
-202
-207
-207
-203
-199
-193
-185
-177
-170
-163
-155
-146
-141
-139
-134
-126
-123
-125
-126
-124
-124
-122
-118
-115
-114
-114
-111
-104
-100
-105
-107
-87
-46
-6
4
-30
-70
-79
-78
-86
-80
-76
-92
-80
-64
-99
-124
-218
-253
616
2249
2503
670
-819
-565
-20
-97
-180
-103
-130
-150
-101
-96
-102
-78
-66
-61
-41
-23
-8
13
35
58
86
117
148
184
224
263
294
322
351
365
337
261
161
58
-36
-112
-163
-192
-206
-212
-214
-213
-208
-200
-193
-187
-178
-168
-159
-155
-149
-141
-136
-135
-134
-131
-128
-126
-125
-122
-119
-118
-115
-114
-124
-132
-116
-77
-31
-6
-23
-68
-92
-87
-89
-92
-83
-89
-88
-63
-78
-111
-162
-261
198
1671
2627
1415
-482
-798
-150
-22
-181
-129
-101
-143
-113
-90
-102
-83
-61
-58
-46
-30
-18
0
20
41
65
94
125
160
199
239
272
297
323
344
334
272
177
76
-18
-100
-159
-192
-207
-215
-221
-222
-218
-213
-207
-198
-190
-180
-168
-159
-153
-146
-137
-131
-128
-127
-122
-117
-117
-119
-115
-110
-116
-130
-129
-101
-55
-13
-13
-57
-97
-102
-101
-109
-99
-93
-107
-91
-74
-112
-141
-233
-255
638
2268
2472
595
-878
-584
-28
-113
-194
-108
-131
-148
-99
-96
-100
-73
-62
-55
-33
-15
-1
19
40
61
91
124
159
197
233
268
302
331
353
362
336
258
153
50
-41
-115
-161
-184
-200
-211
-212
-210
-205
-197
-188
-179
-171
-163
-157
-148
-138
-132
-131
-129
-127
-125
-122
-119
-120
-119
-114
-118
-130
-130
-105
-63
-23
-15
-51
-92
-102
-99
-104
-95
-90
-107
-94
-72
-103
-127
-213
-253
572
2174
2465
669
-843
-604
-30
-94
-187
-106
-123
-143
-99
-99
-108
-81
-68
-63
-45
-29
-14
8
27
45
72
103
137
175
212
247
281
313
339
349
319
239
137
40
-49
-124
-172
-195
-208
-214
-214
-210
-205
-197
-188
-176
-167
-164
-162
-155
-146
-141
-139
-133
-129
-127
-125
-123
-124
-121
-117
-127
-138
-124
-85
-41
-15
-30
-73
-100
-98
-99
-99
-87
-95
-101
-72
-79
-116
-154
-272
22
1389
2608
1717
-291
-888
-239
4
-168
-144
-94
-141
-121
-84
-95
-87
-64
-56
-45
-28
-15
0
19
42
69
94
122
161
202
236
268
300
327
345
339
287
194
91
-3
-84
-145
-180
-197
-203
-206
-206
-203
-196
-188
-182
-175
-166
-159
-153
-146
-141
-137
-131
-128
-127
-125
-122
-121
-121
-120
-116
-112
-119
-130
-124
-96
-53
-15
-14
-54
-91
-95
-92
-98
-89
-85
-95
-79
-72
-106
-126
-226
-182
845
2399
2295
341
-870
-432
16
-130
-171
-88
-129
-127
-66
-74
-92
-75
-67
-60
-38
-21
-7
16
39
58
81
109
139
172
208
242
269
293
319
327
285
200
105
13
-74
-143
-182
-200
-208
-208
-204
-200
-193
-185
-181
-176
-166
-154
-147
-147
-145
-138
-132
-131
-130
-127
-128
-130
-125
-121
-120
-118
-116
-117
-114
-112
-119
-127
-110
-64
-17
1
-24
-65
-82
-79
-82
-80
-72
-81
-78
-57
-76
-107
-182
-265
373
1988
2748
1284
-501
-610
-37
-52
-198
-120
-114
-154
-113
-99
-112
-88
-69
-66
-50
-34
-25
-8
11
29
52
78
105
137
173
207
234
257
282
301
291
235
151
60
-22
-92
-144
-175
-189
-194
-195
-192
-188
-184
-179
-173
-167
-162
-154
-147
-144
-143
-139
-134
-129
-125
-124
-123
-122
-119
-117
-115
-116
-115
-107
-103
-113
-121
-106
-66
-17
5
-22
-67
-83
-80
-87
-87
-78
-89
-89
-66
-87
-120
-186
-294
240
1801
2675
1313
-558
-760
-115
-37
-187
-124
-107
-148
-114
-94
-104
-85
-69
-66
-48
-29
-19
-2
17
36
61
89
120
155
191
224
253
281
306
329
325
273
183
88
-1
-82
-140
-171
-188
-201
-205
-200
-192
-184
-175
-165
-157
-149
-143
-139
-136
-133
-133
-132
-129
-126
-124
-120
-120
-121
-118
-115
-116
-114
-107
-111
-120
-116
-90
-47
-7
-7
-52
-90
-93
-90
-97
-89
-86
-99
-81
-74
-109
-136
-243
-160
941
2488
2282
282
-883
-421
13
-132
-171
-90
-126
-131
-88
-93
-93
-69
-63
-58
-39
-25
-12
8
29
52
78
106
137
172
205
237
267
292
315
329
304
232
137
44
-41
-110
-155
-180
-191
-195
-195
-192
-186
-177
-166
-158
-159
-163
-161
-155
-152
-147
-141
-139
-139
-139
-139
-138
-136
-134
-132
-128
-126
-133
-137
-122
-82
-33
-10
-32
-77
-98
-95
-98
-97
-86
-97
-100
-76
-90
-119
-173
-287
166
1680
2697
1492
-456
-812
-163
-25
-184
-131
-99
-144
-119
-95
-107
-92
-73
-66
-50
-33
-22
-3
21
39
58
86
116
147
181
217
246
270
296
320
320
270
180
84
-5
-82
-137
-169
-191
-205
-208
-203
-199
-194
-185
-174
-166
-158
-151
-148
-146
-140
-135
-135
-132
-128
-130
-131
-128
-128
-129
-123
-119
-126
-127
-105
-62
-16
0
-32
-75
-87
-85
-92
-87
-77
-89
-83
-67
-92
-107
-180
-260
442
2029
2529
851
-829
-731
-79
-60
-171
-98
-101
-127
-85
-78
-89
-66
-50
-42
-21
-9
0
23
44
59
81
113
146
179
214
247
275
300
327
347
329
257
157
57
-33
-107
-158
-187
-204
-213
-215
-210
-203
-196
-187
-174
-162
-157
-154
-147
-140
-136
-135
-134
-131
-129
-130
-131
-128
-127
-134
-140
-129
-95
-49
-21
-39
-87
-110
-106
-111
-112
-97
-103
-107
-85
-99
-123
-155
-264
117
1521
2508
1345
-597
-959
-241
-15
-155
-114
-77
-114
-89
-70
-83
-64
-41
-42
-31
-12
2
18
39
60
87
118
148
178
213
247
277
305
332
350
335
274
180
78
-15
-90
-145
-180
-196
-201
-206
-208
-201
-193
-186
-177
-167
-157
-149
-142
-138
-134
-132
-131
-129
-128
-126
-124
-124
-127
-133
-144
-145
-120
-72
-30
-21
-53
-93
-107
-105
-108
-101
-95
-107
-94
-75
-100
-116
-195
-257
520
2141
2541
793
-790
-608
-26
-88
-194
-105
-115
-143
-103
-96
-96
-74
-70
-65
-42
-28
-19
1
20
37
64
94
123
156
194
228
256
281
303
312
286
215
118
22
-58
-127
-178
-202
-209
-216
-220
-215
-207
-199
-189
-179
-169
-159
-151
-144
-137
-135
-133
-127
-121
-120
-119
-116
-114
-112
-110
-106
-102
-102
-109
-110
-90
-46
-2
8
-29
-72
-82
-79
-87
-80
-69
-82
-76
-54
-77
-100
-191
-268
515
2212
2718
981
-691
-581
-12
-80
-192
-102
-115
-147
-107
-107
-121
-98
-83
-79
-64
-49
-32
-13
-1
17
52
85
112
144
182
215
240
265
295
311
288
221
130
37
-46
-110
-153
-184
-204
-208
-202
-199
-195
-184
-175
-170
-163
-156
-154
-153
-147
-141
-134
-130
-129
-125
-119
-117
-118
-118
-115
-111
-106
-106
-105
-100
-101
-111
-111
-84
-38
3
6
-35
-76
-85
-83
-83
-72
-69
-80
-63
-56
-92
-125
-238
-147
972
2540
2360
387
-775
-351
28
-148
-184
-97
-139
-148
-102
-106
-108
-85
-80
-76
-56
-42
-31
-15
3
23
48
72
100
136
171
200
225
251
278
291
267
202
117
32
-48
-115
-158
-174
-176
-180
-181
-175
-169
-164
-159
-156
-153
-147
-142
-143
-142
-135
-130
-128
-124
-118
-117
-119
-119
-115
-111
-110
-110
-109
-103
-96
-98
-111
-119
-108
-78
-35
0
-7
-53
-86
-84
-81
-86
-83
-89
-90
-67
-78
-110
-142
-262
28
1400
2633
1735
-321
-963
-302
-5
-149
-130
-84
-127
-108
-77
-87
-74
-53
-51
-37
-13
1
15
36
60
84
106
134
171
211
246
278
304
329
359
364
311
214
109
15
-63
-122
-162
-186
-200
-206
-204
-196
-190
-183
-173
-164
-155
-146
-140
-136
-128
-118
-114
-117
-119
-113
-110
-115
-121
-117
-110
-109
-108
-104
-107
-118
-116
-95
-62
-24
-8
-39
-82
-93
-91
-96
-87
-85
-103
-86
-71
-101
-102
-161
-161
702
2211
2268
353
-1057
-691
-64
-77
-137
-66
-89
-102
-61
-59
-61
-38
-32
-30
-11
6
18
35
55
77
103
132
166
204
242
279
313
343
368
376
340
253
148
47
-47
-124
-173
-200
-215
-223
-228
-227
-219
-213
-209
-198
-185
-176
-168
-159
-152
-147
-143
-144
-146
-145
-144
-144
-143
-141
-141
-145
-145
-139
-135
-146
-159
-148
-111
-66
-39
-51
-91
-115
-112
-113
-112
-99
-101
-102
-81
-97
-129
-173
-257
190
1638
2642
1538
-317
-692
-122
-37
-207
-147
-114
-159
-130
-102
-111
-95
-77
-73
-56
-38
-28
-12
7
25
49
76
103
136
174
211
244
271
298
320
311
253
167
82
3
-67
-115
-138
-148
-153
-152
-148
-146
-141
-134
-127
-121
-112
-99
-89
-83
-77
-71
-64
-59
-54
-49
-44
-40
-38
-35
-32
-28
-21
-18
-24
-30
-20
16
66
91
72
30
3
-1
8
