# session 40
-148
-153
-115
-72
-127
-253
-298
-261
-244
-251
-251
-246
-210
-143
-104
-117
-146
-155
-153
-150
-138
-125
-129
-115
-90
-105
-103
-115
-198
262
1625
2309
930
-793
-821
-72
34
-113
-36
-11
-62
-30
-1
-10
10
30
31
45
66
76
84
100
118
138
158
179
204
232
256
277
296
312
325
332
318
265
187
110
42
-16
-56
-74
-81
-84
-83
-78
-76
-78
-77
-72
-69
-70
-73
-75
-76
-75
-75
-76
-76
-79
-82
-81
-80
-80
-81
-79
-79
-82
-84
-83
-82
-76
-70
-79
-99
-96
-55
-1
20
-9
-53
-68
-66
-68
-63
-63
-73
-58
-53
-89
-81
-126
-177
531
1947
2124
359
-1037
-669
-3
-44
-148
-65
-79
-107
-63
-56
-61
-36
-27
-30
-16
-1
8
21
35
50
69
89
108
128
152
178
200
214
225
239
248
229
166
80
2
-59
-109
-149
-173
-181
-176
-170
-168
-165
-157
-153
-154
-153
-149
-143
-140
-142
-142
-137
-137
-144
-144
-138
-133
-133
-134
-132
-129
-126
-125
-121
-115
-112
-111
-105
-98
-105
-121
-119
-82
-26
4
-20
-62
-77
-77
-81
-72
-68
-83
-68
-55
-86
-78
-117
-172
527
1973
2205
437
-1024
-691
-3
-21
-126
-42
-50
-78
-37
-30
-37
-14
-2
2
17
29
39
58
74
86
106
132
156
176
197
217
232
241
251
267
279
260
203
127
51
-16
-69
-110
-136
-141
-138
-139
-138
-128
-120
-116
-112
-109
-108
-108
-108
-107
-104
-108
-115
-116
-115
-115
-114
-114
-116
-116
-110
-107
-108
-107
-104
-102
-103
-98
-89
-92
-105
-106
-79
-29
11
-1
-51
-81
-78
-81
-82
-76
-86
-84
-63
-86
-94
-95
-188
199
1544
2343
1012
-881
-1062
-236
9
-121
-76
-46
-85
-56
-33
-45
-31
-14
-12
2
20
32
48
65
83
102
121
138
161
186
207
227
246
259
275
294
287
232
150
69
-3
-63
-110
-147
-165
-164
-158
-153
-143
-135
-132
-125
-115
-112
-116
-116
-112
-112
-112
-112
-114
-115
-113
-115
-120
-119
-114
-112
-114
-117
-116
-112
-110
-110
-103
-96
-100
-108
-101
-65
-16
2
-30
-71
-86
-93
-92
-77
-82
-94
-72
-78
-105
-77
-140
-48
996
2297
1753
-344
-1314
-620
-30
-76
-93
-30
-62
-65
-33
-33
-22
0
-1
5
27
42
57
82
106
118
133
161
190
210
232
263
289
303
315
330
330
293
219
128
35
-43
-97
-143
-180
-190
-181
-180
-181
-169
-150
-140
-141
-142
-141
-135
-125
-123
-131
-133
-129
-130
-131
-128
-129
-133
-128
-122
-120
-120
-119
-120
-115
-108
-113
-124
-112
-70
-23
-13
-47
-88
-99
-100
-102
-95
-98
-106
-86
-88
-114
-79
-129
-110
775
2099
1807
-192
-1340
-755
-83
-67
-95
-33
-60
-65
-29
-33
-30
-3
6
10
28
42
55
76
95
116
144
172
193
217
250
283
310
331
349
366
364
322
238
141
54
-23
-88
-132
-155
-166
-172
-170
-162
-155
-150
-144
-139
-134
-128
-124
-124
-123
-122
-123
-126
-128
-129
-127
-127
-129
-128
-125
-123
-124
-123
-120
-115
-120
-134
-133
-95
-41
-16
-42
-85
-103
-100
-101
-95
-89
-103
-97
-74
-94
-98
-122
-213
292
1718
2357
865
-888
-877
-113
-2
-141
-75
-58
-98
-66
-49
-58
-35
-18
-19
-8
7
17
34
55
70
88
111
137
166
194
218
242
261
273
286
297
276
211
130
50
-26
-86
-124
-149
-166
-169
-163
-156
-151
-148
-147
-144
-137
-132
-135
-140
-138
-136
-134
-130
-128
-129
-128
-126
-126
-127
-124
-119
-118
-118
-113
-106
-111
-123
-115
-73
-23
-6
-36
-78
-92
-90
-93
-88
-87
-104
-94
-74
-98
-99
-145
-234
392
1907
2415
774
-905
-783
-69
-28
-156
-82
-79
-115
-78
-63
-71
-47
-30
-29
-14
3
16
34
52
69
89
111
136
165
195
219
242
264
283
299
304
278
212
125
39
-37
-96
-136
-158
-166
-165
-160
-158
-158
-155
-147
-141
-138
-135
-132
-131
-131
-128
-126
-126
-127
-128
-127
-125
-123
-123
-121
-117
-114
-113
-110
-106
-102
-100
-95
-91
-97
-107
-99
-59
-9
9
-22
-62
-73
-71
-77
-71
-68
-80
-65
-53
-84
-84
-144
-204
537
2050
2307
501
-1016
-711
-22
-32
-137
-58
-68
-94
-52
-45
-53
-30
-17
-14
2
17
28
46
65
82
102
125
151
180
209
236
260
278
290
306
315
288
220
135
52
-22
-82
-122
-145
-156
-158
-152
-145
-143
-141
-136
-132
-132
-132
-132
-130
-127
-124
-123
-123
-123
-125
-126
-127
-129
-131
-132
-130
-127
-124
-122
-121
-121
-122
-119
-112
-110
-111
-106
-98
-106
-121
-114
-79
-28
8
-5
-53
-76
-69
-71
-75
-73
-80
-69
-51
-80
-90
-120
-208
316
1764
2412
905
-878
-889
-122
1
-136
-74
-56
-93
-61
-43
-50
-30
-18
-19
-4
14
28
47
67
83
103
126
149
172
199
230
256
271
282
298
310
294
241
164
82
6
-59
-108
-136
-149
-153
-151
-144
-140
-140
-134
-126
-123
-123
-121
-123
-124
-123
-123
-124
-124
-124
-124
-123
-121
-121
-122
-120
-115
-110
-106
-107
-105
-98
-94
-96
-94
-90
-89
-86
-78
-80
-96
-103
-77
-25
17
11
-33
-64
-68
-71
-73
-63
-69
-73
-51
-66
-88
-86
-180
69
1317
2419
1474
-533
-1068
-301
39
-113
-95
-40
-85
-72
-40
-51
-41
-20
-18
-6
12
22
35
55
71
89
113
138
165
197
226
249
268
280
293
308
303
257
179
94
15
-54
-107
-143
-164
-173
-175
-172
-169
-168
-166
-157
-148
-141
-135
-130
-128
-125
-124
-124
-123
-124
-127
-127
-125
-126
-126
-123
-121
-121
-116
-110
-108
-112
-111
-104
-101
-105
-102
-93
-96
-112
-111
-74
-19
11
-8
-51
-70
-73
-84
-81
-70
-78
-69
-55
-81
-76
-106
-164
473
1908
2256
522
-1113
-904
-120
-15
-114
-52
-47
-66
-27
-20
-33
-13
5
9
21
36
51
66
85
111
139
163
185
211
243
278
308
330
351
368
369
335
260
170
86
1
-80
-132
-154
-170
-183
-183
-178
-180
-175
-156
-145
-147
-144
-135
-131
-127
-118
-117
-125
-128
-126
-125
-126
-127
-126
-124
-125
-128
-123
-118
-121
-119
-110
-107
-110
-107
-98
-93
-94
-96
-98
-95
-76
-36
1
-5
-47
-75
-75
-78
-76
-65
-76
-84
-62
-81
-98
-80
-148
133
1339
2257
1159
-793
-1208
-402
-15
-88
-54
-22
-62
-39
-8
-15
-7
5
8
26
44
49
68
96
107
119
150
183
217
256
286
310
335
353
370
391
376
303
209
119
31
-45
-100
-146
-180
-189
-184
-179
-176
-177
-180
-174
-161
-151
-146
-147
-146
-140
-132
-125
-124
-127
-129
-124
-124
-132
-136
-131
-125
-122
-119
-115
-116
-119
-112
-105
-108
-111
-103
-104
-114
-101
-52
-6
-9
-49
-81
-87
-87
-82
-74
-85
-86
-58
-72
-96
-75
-146
25
1111
2202
1433
-522
-1204
-477
-8
-86
-82
-17
-45
-41
-16
-24
-16
4
8
16
35
47
56
73
92
110
134
165
194
219
252
292
321
343
365
374
349
294
218
123
25
-52
-102
-133
-154
-165
-166
-165
-162
-158
-156
-155
-150
-139
-130
-124
-121
-118
-114
-112
-116
-119
-115
-112
-113
-114
-115
-116
-116
-115
-115
-115
-114
-112
-111
-110
-107
-98
-97
-112
-120
-95
-48
-15
-19
-52
-79
-82
-82
-81
-71
-73
-78
-63
-68
-85
-108
-178
149
1340
2229
1225
-581
-957
-231
32
-126
-100
-47
-86
-68
-39
-53
-43
-17
-15
-12
3
12
21
38
56
70
85
109
136
163
193
226
252
273
294
306
293
242
163
78
4
-58
-104
-131
-144
-151
-151
-150
-147
-142
-134
-128
-128
-130
-127
-122
-121
-124
-123
-120
-118
-117
-112
-107
-109
-117
-119
-113
-108
-107
-106
-105
-103
-98
-94
-93
-88
-83
-88
-101
-94
-52
-2
12
-20
-58
-70
-70
-75
-73
-72
-82
-71
-54
-75
-74
-117
-181
443
1865
2273
660
-908
-737
-48
-28
-153
-73
-66
-99
-59
-45
-54
-33
-21
-22
-8
9
21
36
50
64
84
111
139
167
198
231
262
288
313
334
339
309
241
152
61
-21
-86
-130
-154
-164
-165
-164
-161
-157
-154
-152
-149
-145
-140
-136
-136
-137
-136
-132
-126
-123
-122
-121
-120
-121
-119
-116
-119
-122
-118
-114
-112
-107
-105
-108
-106
-101
-99
-97
-89
-83
-90
-101
-93
-53
-3
12
-22
-62
-70
-68
-70
-64
-68
-84
-66
-53
-80
-69
-125
-171
595
2065
2217
405
-996
-636
-2
-50
-144
-60
-75
-99
-55
-51
-58
-36
-27
-26
-9
6
16
33
52
70
94
122
148
174
206
245
276
296
313
332
340
311
240
148
59
-19
-83
-128
-151
-161
-163
-157
-148
-148
-151
-144
-134
-132
-131
-126
-125
-131
-133
-126
-120
-124
-130
-129
-125
-126
-127
-124
-123
-126
-124
-118
-116
-116
-111
-108
-111
-110
-101
-96
-96
-91
-80
-79
-93
-100
-78
-31
11
16
-23
-63
-69
-67
-69
-60
-62
-73
-51
-50
-83
-73
-143
-104
847
2240
1984
21
-1079
-512
33
-72
-120
-40
-73
-84
-40
-42
-43
-20
-13
-4
17
29
37
54
74
93
114
138
167
200
235
266
293
315
334
350
352
317
242
152
65
-15
-80
-120
-142
-154
-158
-156
-152
-149
-146
-145
-142
-140
-136
-130
-129
-135
-145
-149
-148
-146
-144
-144
-147
-148
-145
-142
-138
-138
-138
-135
-130
-128
-124
-118
-115
-113
-110
-107
-104
-102
-98
-90
-87
-100
-112
-95
-47
2
10
-28
-68
-76
-74
-78
-69
-67
-79
-62
-52
-73
-60
-125
-117
762
2171
2051
127
-1085
-576
22
-54
-118
-36
-59
-72
-31
-35
-36
-8
1
3
21
35
45
64
82
99
122
147
174
204
236
264
287
307
327
346
351
320
252
167
80
-4
-74
-122
-148
-160
-165
-163
-155
-149
-148
-146
-137
-131
-131
-131
-129
-128
-131
-130
-126
-126
-126
-125
-127
-131
-133
-132
-130
-128
-129
-130
-127
-124
-123
-121
-117
-112
-106
-105
-108
-104
-98
-105
-116
-104
-62
-7
15
-20
-67
-78
-76
-82
-75
-72
-85
-70
-58
-83
-74
-125
-146
637
2057
2114
266
-1089
-676
-15
-45
-130
-51
-68
-88
-42
-37
-48
-26
-11
-5
12
27
39
56
77
98
119
140
165
195
226
256
283
304
322
338
340
314
253
165
69
-14
-81
-128
-155
-169
-175
-174
-167
-162
-159
-155
-149
-143
-140
-140
-138
-131
-129
-133
-139
-138
-134
-133
-137
-134
-128
-129
-133
-128
-121
-120
-118
-112
-109
-109
-104
-102
-112
-116
-90
-41
-5
-17
-62
-88
-85
-83
-82
-72
-81
-83
-58
-75
-94
-89
-181
99
1374
2401
1338
-668
-1115
-311
23
-120
-95
-46
-88
-67
-38
-52
-39
-14
-11
1
23
31
42
66
85
101
126
156
182
210
243
273
294
313
336
351
335
276
188
93
9
-60
-117
-158
-178
-184
-184
-177
-167
-159
-155
-153
-150
-142
-133
-131
-132
-131
-130
-130
-132
-133
-131
-128
-129
-131
-129
-126
-126
-126
-122
-120
-116
-109
-110
-121
-120
-93
-49
-13
-18
-62
-91
-89
-92
-93
-83
-91
-90
-68
-88
-97
-95
-194
163
1516
2408
1131
-864
-1167
-328
-5
-115
-80
-46
-80
-54
-30
-41
-26
-7
-5
7
28
39
53
75
94
113
143
174
199
231
273
311
336
352
369
382
368
302
203
104
9
-74
-128
-159
-185
-198
-194
-189
-188
-178
-163
-157
-162
-163
-151
-136
-137
-138
-132
-133
-142
-142
-138
-136
-132
-131
-138
-145
-143
-132
-116
-113
-129
-142
-131
-98
-53
-23
-38
-87
-115
-111
-105
-99
-93
-104
-99
-81
-111
-113
-97
-156
278
1591
2241
797
-1064
-1182
-334
-43
-116
-61
-41
-77
-43
-14
-20
-11
-2
4
28
49
55
70
95
119
146
172
191
222
272
310
335
364
391
410
422
395
304
189
90
1
-80
-134
-160
-182
-203
-207
-192
-182
-178
-172
-169
-167
-152
-140
-153
-160
-140
-128
-141
-147
-134
-131
-141
-150
-147
-132
-120
-124
-126
-119
-125
-137
-126
-96
-57
-21
-22
-65
-97
-97
-98
-99
-84
-85
-92
-81
-97
-99
-77
-148
143
1358
2259
1126
-850
-1264
-442
-42
-107
-59
-17
-65
-43
0
-16
-21
12
36
36
45
71
86
97
125
152
171
202
241
269
303
349
381
397
417
431
403
322
210
96
2
-70
-131
-179
-196
-192
-195
-204
-200
-189
-183
-179
-172
-165
-159
-154
-150
-150
-148
-146
-144
-143
-144
-143
-137
-133
-141
-148
-139
-132
-136
-136
-123
-119
-136
-147
-121
-66
-31
-48
-89
-110
-107
-105
-104
-104
-111
-98
-78
-106
-116
-129
-217
220
1585
2330
981
-846
-1008
-249
-36
-146
-94
-73
-110
-77
-53
-65
-54
-39
-35
-20
-1
6
18
42
66
85
105
134
168
202
238
270
293
314
341
349
316
248
162
69
-19
-88
-136
-163
-172
-174
-173
-170
-166
-162
-154
-148
-144
-140
-135
-129
-125
-125
-126
-123
-117
-118
-120
-117
-111
-108
-107
-105
-105
-104
-103
-99
-93
-88
-86
-84
-81
-80
-76
-71
-81
-98
-89
-48
0
23
6
-31
-47
-42
-42
-40
-36
-42
-31
-21
-40
-46
-121
-147
639
2140
2419
724
-742
-541
21
-30
-133
-56
-67
-91
-48
-43
-51
-28
-18
-16
-1
11
16
27
40
55
74
93
115
146
178
207
237
265
285
299
302
274
206
120
37
-37
-103
-147
-167
-174
-180
-182
-178
-173
-172
-171
-169
-169
-167
-167
-169
-168
-164
-161
-161
-157
-152
-149
-149
-150
-148
-144
-138
-133
-128
