# session 23
-19
-9
-46
82
342
413
289
193
137
53
-19
-52
-74
-85
-85
-85
-88
-87
-85
-84
-84
-81
-72
-63
-62
-61
-55
-51
-53
-51
-47
-49
-52
-53
-58
-65
-74
-89
-96
-79
-51
-22
5
1
-35
-58
-59
-61
-56
-48
-58
-54
-34
-55
-70
-108
-192
336
1790
2457
953
-864
-910
-162
-53
-195
-123
-101
-141
-104
-83
-94
-76
-59
-58
-43
-24
-10
5
26
53
86
123
164
209
250
281
306
323
312
262
192
118
40
-38
-98
-136
-154
-158
-158
-158
-156
-150
-145
-140
-134
-129
-127
-126
-121
-116
-113
-112
-111
-113
-115
-115
-117
-123
-129
-137
-152
-153
-128
-91
-57
-38
-53
-87
-103
-101
-100
-91
-88
-100
-85
-71
-98
-103
-175
-206
615
2153
2313
406
-1105
-762
-85
-111
-204
-117
-127
-151
-107
-101
-108
-85
-72
-64
-42
-23
-7
17
43
72
107
145
187
231
267
292
313
324
304
249
179
106
27
-48
-102
-131
-148
-158
-162
-164
-162
-154
-146
-141
-134
-123
-116
-113
-111
-108
-105
-102
-100
-101
-105
-107
-107
-111
-117
-125
-141
-150
-130
-89
-52
-27
-29
-61
-84
-83
-82
-79
-71
-77
-71
-54
-76
-86
-124
-222
302
1781
2473
943
-940
-1010
-214
-55
-190
-125
-96
-129
-94
-73
-85
-68
-49
-45
-29
-11
4
24
46
71
104
144
186
230
267
295
317
336
332
287
214
135
55
-21
-78
-114
-135
-146
-151
-155
-153
-145
-139
-132
-123
-116
-113
-110
-107
-104
-104
-105
-106
-107
-112
-118
-117
-113
-117
-127
-133
-143
-153
-144
-113
-76
-40
-31
-61
-91
-91
-86
-84
-74
-79
-85
-61
-66
-89
-95
-197
11
1246
2462
1623
-496
-1217
-460
-30
-160
-153
-85
-123
-111
-74
-83
-76
-52
-46
-35
-12
5
23
46
68
97
135
174
212
249
280
301
318
325
296
234
161
89
12
-56
-102
-130
-146
-151
-155
-158
-150
-139
-134
-131
-124
-117
-115
-115
-113
-108
-105
-106
-109
-110
-108
-109
-113
-110
-104
-110
-121
-129
-141
-149
-130
-93
-57
-29
-32
-69
-90
-85
-83
-80
-74
-86
-80
-59
-78
-84
-120
-209
337
1804
2427
852
-994
-1018
-213
-52
-184
-127
-101
-126
-89
-73
-86
-67
-45
-36
-22
-9
6
29
52
74
103
140
181
225
262
289
309
324
321
285
221
144
62
-16
-78
-117
-140
-148
-151
-155
-152
-140
-128
-119
-112
-108
-106
-102
-95
-90
-92
-97
-97
-93
-95
-98
-102
-111
-122
-129
-141
-147
-128
-94
-63
-42
-50
-84
-100
-94
-91
-87
-88
-102
-90
-74
-105
-102
-134
-207
435
1928
2324
530
-1230
-1081
-258
-97
-171
-104
-103
-127
-82
-64
-73
-53
-39
-37
-16
11
26
44
72
100
135
183
229
267
302
334
361
378
366
309
228
145
64
-18
-85
-125
-146
-157
-165
-169
-165
-157
-152
-143
-129
-119
-117
-112
-104
-101
-101
-100
-95
-93
-100
-111
-114
-118
-131
-134
-112
-78
-55
-59
-87
-109
-114
-117
-107
-98
-110
-99
-77
-105
-104
-113
-194
324
1720
2226
571
-1264
-1234
-359
-92
-152
-100
-88
-106
-68
-52
-56
-38
-27
-24
-7
12
35
64
90
116
153
195
237
282
321
351
377
390
369
308
227
141
56
-23
-87
-128
-149
-160
-170
-171
-164
-158
-153
-145
-138
-135
-125
-113
-108
-108
-104
-101
-100
-99
-107
-119
-123
-130
-145
-138
-107
-79
-57
-46
-64
-94
-104
-103
-97
-86
-94
-102
-77
-86
-113
-108
-205
-22
1189
2415
1592
-534
-1275
-514
-56
-165
-160
-97
-133
-118
-79
-88
-79
-53
-46
-37
-20
-5
18
47
72
105
147
187
225
266
302
326
341
341
306
239
158
76
-3
-67
-109
-133
-146
-154
-157
-157
-155
-148
-140
-136
-134
-129
-120
-114
-112
-113
-112
-107
-105
-110
-114
-118
-130
-144
-137
-106
-68
-41
-44
-79
-104
-102
-98
-95
-88
-97
-97
-72
-84
-105
-117
-210
105
1418
2443
1359
-656
-1114
-340
-39
-191
-161
-107
-147
-125
-89
-99
-88
-66
-59
-44
-22
-9
8
30
53
85
127
171
216
258
289
312
329
322
274
201
126
46
-34
-95
-130
-148
-157
-159
-157
-156
-153
-148
-143
-140
-135
-130
-128
-125
-120
-114
-108
-105
-105
-105
-104
-105
-109
-111
-116
-129
-135
-116
-82
-47
-22
-32
-68
-83
-77
-81
-78
-67
-76
-74
-55
-75
-87
-126
-215
320
1802
2491
964
-903
-966
-189
-56
-196
-123
-98
-138
-101
-79
-93
-73
-50
-43
-27
-9
4
25
52
78
108
148
193
237
276
307
332
345
333
285
211
128
44
-32
-91
-126
-144
-151
-157
-163
-163
-157
-153
-150
-144
-139
-138
-130
-117
-110
-109
-108
-108
-109
-106
-104
-108
-109
-105
-105
-109
-107
-103
-101
-99
-98
-104
-109
-116
-130
-133
-108
-71
-34
-6
-12
-48
-68
-64
-63
-61
-57
-62
-46
-28
-57
-73
-129
-220
388
1900
2448
803
-970
-908
-144
-52
-183
-110
-93
-127
-88
-68
-77
-58
-41
-36
-22
-3
13
34
61
93
126
161
204
252
291
319
341
357
356
318
244
163
89
12
-56
-97
-121
-137
-143
-145
-148
-145
-139
-134
-132
-132
-129
-121
-118
-120
-115
-107
-105
-106
-104
-102
-105
-108
-106
-106
-109
-109
-108
-110
-111
-110
-109
-105
-99
-102
-108
-110
-118
-129
-121
-93
-55
-14
2
-28
-63
-66
-66
-68
-56
-58
-69
-50
-55
-80
-89
-202
-39
1171
2477
1758
-377
-1200
-472
-17
-148
-152
-81
-118
-108
-68
-78
-73
-46
-38
-28
-7
7
23
48
73
100
135
175
217
261
298
323
341
348
326
267
194
120
40
-39
-97
-132
-152
-163
-167
-171
-170
-163
-158
-156
-149
-142
-135
-125
-116
-113
-111
-106
-103
-103
-106
-110
-112
-110
-110
-108
-106
-108
-109
-103
-102
-107
-108
-113
-126
-119
-86
-48
-12
4
-21
-59
-65
-59
-61
-52
-49
-61
-47
-40
-72
-79
-166
-158
787
2303
2193
132
-1215
-712
-58
-112
-177
-87
-101
-113
-72
-75
-81
-57
-43
-32
-9
9
25
47
71
100
139
183
227
275
321
356
378
387
366
308
225
135
47
-34
-98
-140
-165
-174
-173
-174
-177
-179
-178
-173
-166
-158
-148
-137
-128
-124
-118
-114
-112
-112
-110
-107
-107
-109
-112
-113
-112
-113
-112
-110
-111
-112
-112
-123
-131
-113
-76
-40
-14
-16
-52
-78
-74
-77
-82
-71
-74
-81
-58
-64
-84
-92
-199
48
1315
2417
1393
-737
-1325
-495
-52
-153
-132
-78
-118
-101
-65
-71
-58
-32
-25
-11
11
26
43
68
98
136
178
222
274
332
379
412
435
433
387
305
213
120
28
-53
-113
-147
-160
-165
-172
-180
-184
-180
-171
-161
-153
-146
-138
-131
-126
-120
-114
-107
-104
-103
-102
-101
-105
-111
-109
-107
-112
-116
-122
-137
-139
-114
-77
-40
-20
-39
-79
-92
-84
-86
-81
-72
-84
-78
-60
-82
-92
-145
-219
418
1927
2418
721
-1054
-968
-188
-76
-191
-118
-104
-134
-98
-83
-88
-64
-51
-51
-32
-9
5
24
54
85
118
158
204
254
305
345
371
387
377
322
237
152
65
-25
-95
-138
-161
-171
-175
-179
-181
-179
-179
-177
-168
-156
-146
-135
-126
-121
-119
-116
-112
-109
-109
-110
-108
-107
-110
-108
-108
-117
-120
-116
-127
-139
-120
-85
-52
-25
-28
-66
-89
-84
-89
-88
-68
-77
-88
-59
-67
-95
-105
-206
88
1431
2530
1421
-753
-1331
-509
-70
-145
-121
-83
-119
-95
-65
-72
-57
-39
-39
-20
4
15
36
70
99
129
173
229
289
344
383
414
444
449
401
318
230
133
32
-50
-101
-133
-159
-173
-177
-184
-189
-179
-170
-174
-165
-142
-142
-156
-144
-120
-121
-130
-122
-112
-116
-124
-129
-129
-123
-117
-125
-141
-138
-110
-74
-44
-36
-72
-113
-112
-99
-105
-101
-96
-107
-93
-89
-119
-105
-156
-161
679
2096
2005
-18
-1444
-1002
-232
-128
-154
-78
-86
-99
-62
-48
-43
-28
-17
1
25
38
53
78
106
139
181
230
285
344
402
448
477
483
453
378
278
178
80
-16
-88
-131
-153
-165
-168
-169
-173
-175
-174
-169
-164
-162
-158
-147
-135
-132
-128
-121
-115
-115
-118
-121
-121
-123
-125
-125
-134
-151
-152
-130
-98
-67
-52
-71
-98
-104
-102
-105
-97
-89
-95
-86
-76
-91
-95
-152
-141
599
1913
2019
319
-1051
-747
-89
-85
-182
-102
-97
-119
-82
-74
-81
-60
-47
-42
-27
-16
-5
16
37
62
97
131
164
210
259
290
309
327
319
267
194
120
42
-31
-88
-124
-138
-136
-133
-138
-143
-140
-134
-131
-129
-128
-127
-125
-121
-118
-113
-107
-108
-112
-108
-98
-98
-103
-102
-103
-115
-119
-100
-73
-46
-30
-44
-75
-85
-79
-82
-78
-70
-79
-73
-62
-89
-90
-134
-196
467
1948
2326
583
-1083
-902
-149
-78
-183
-103
-97
-129
-90
-75
-83
-63
-48
-43
-23
-3
9
26
49
78
112
153
203
253
299
340
373
391
378
321
237
151
64
-22
-91
-130
-149
-158
-162
-163
-162
-161
-159
-157
-156
-153
-146
-138
-132
-127
-121
-117
-114
-112
-109
-107
-107
-110
-113
-109
-105
-111
-117
-122
-134
-140
-122
-89
-53
-28
-39
-73
-87
-81
-83
-82
-74
-83
-77
-58
-79
-87
-120
-214
305
1756
2409
885
-945
-984
-200
-52
-181
-114
-89
-123
-86
-65
-78
-62
-45
-43
-28
-11
2
23
50
76
108
149
194
241
289
329
357
375
373
335
261
172
85
2
-69
-120
-148
-158
-160
-161
-162
-161
-158
-153
-146
-140
-136
-134
-132
-130
-128
-123
-117
-114
-114
-112
-110
-109
-109
-106
-105
-109
-110
-109
-111
-116
-119
-129
-135
-122
-94
-60
-24
-17
-51
-78
-74
-73
-72
-58
-63
-71
-48
-57
-83
-91
-197
36
1309
2493
1582
-511
-1146
-385
-11
-159
-143
-78
-117
-104
-71
-81
-72
-48
-44
-31
-10
2
17
40
65
94
130
173
219
264
306
338
362
371
349
286
203
119
38
-38
-96
-130
-144
-150
-153
-153
-149
-146
-143
-138
-131
-126
-122
-117
-112
-110
-111
-110
-108
-108
-106
-104
-105
-106
-105
-107
-107
-104
-108
-118
-125
-136
-144
-128
-91
-53
-22
-20
-55
-86
-83
-78
-83
-73
-71
-83
-65
-57
-84
-83
-167
-134
847
2319
2113
58
-1192
-662
-57
-130
-187
-102
-124
-134
-91
-92
-93
-69
-62
-56
-31
-8
6
23
48
81
116
151
196
250
295
326
354
376
364
307
229
145
56
-27
-88
-130
-152
-158
-162
-172
-177
-169
-162
-158
-151
-140
-134
-131
-127
-122
-119
-113
-107
-109
-115
-114
-115
-121
-116
-111
-123
-129
-124
-132
-144
-126
-88
-52
-25
-34
-78
-103
-98
-103
-105
-90
-93
-92
-68
-84
-99
-108
-204
180
1575
2484
1150
-940
-1290
-429
-71
-164
-125
-90
-127
-100
-70
-75
-59
-42
-38
-17
7
19
43
76
97
123
178
239
284
329
381
423
444
443
407
335
243
143
42
-41
-100
-140
-159
-164
-172
-180
-177
-167
-159
-152
-146
-145
-143
-132
-118
-116
-122
-121
-115
-119
-124
-126
-131
-127
-113
-116
-137
-138
-107
-72
-48
-44
-66
-98
-113
-111
-101
-89
-96
-98
-68
-78
-108
-79
-145
-35
1035
2278
1604
-553
-1489
-757
-131
-124
-112
-51
-79
-72
-40
-43
-31
-7
-4
8
34
49
63
89
121
158
203
252
306
360
401
432
463
474
435
356
264
162
57
-29
-90
-134
-159
-166
-171
-180
-185
-183
-178
-172
-163
-156
-151
-143
-135
-135
-138
-140
-140
-137
-134
-140
-149
-152
-161
-174
-169
-140
-106
-75
-70
-103
-136
-138
-137
-138
-124
-126
-142
-123
-118
-142
-135
-214
-123
915
2239
1769
-286
-1289
-643
-91
-175
-201
-125
-155
-157
-119
-125
-123
-96
-86
-77
-57
-42
-28
-5
20
46
83
126
172
220
267
303
328
339
320
259
175
90
6
-71
-129
-162
-175
-177
-175
-174
-174
-170
-163
-155
-148
-141
-133
-128
-125
-121
-116
-111
-105
-102
-104
-108
-117
-127
-120
-91
-50
-12
-3
-32
-65
-67
-57
-58
-51
-46
-55
-40
-30
-52
-48
-111
-107
745
2203
2225
325
-1038
-620
14
-45
-125
-30
-44
-65
-16
-4
-8
15
28
35
55
72
88
109
132
163
202
241
284
333
375
404
431
449
431
373
295
212
126
46
-15
-53
-71
-78
-81
-84
-83
-79
-79
-79
-75
-71
-70
-69
-69
-65
-61
-61
-63
-63
-68
-76
-82
-96
-112
-110
-81
-40
-7
-9
-52
-92
-101
-104
-113
-110
-113
-121
-104
-109
-144
-145
-222
-134
883
2232
1850
-164
-1211
-622
-121
-256
-301
-217
-248
-256
-216
-223
-225
-202
-197
-194
-180
-172
-163
-146
-126
-102
-75
-43
-4
35
67
94
117
122
100
48
-27
-114
-197
-271
-330
-364
-376
-380
-384
-385
-380
-369
-357
-351
-350
-349
-345
-339
-330
-322
-318
-314
-309
-301
-294
-294
-297
-298
-304
-307
-286
-242
-194
-160
-166
-205
-225
-216
-212
-202
-176
-169
-162
-136
-142
-147
-167
-246
209
1623
2451
1123
-779
-980
-187
25
-115
-50
1
-26
17
56
56
82
118
135
158
189
217
249
284
320
364
414
462
511
561
603
639
670
685
665
611
540
467
400
345
302
274
265
267
271
277
287
297
307
319
328
326
323
329
336
336
333
331
325
316
308
300
287
274
260
235
209
209
232
258
269
244
184
133
112
92
70
56
25
-6
-9
-44
-94
-136
-270
-30
1236
2342
1344
-771
-1410
-679
-329
-494
-517
-493
-561
-579
-578
-618
-640
-648
-672
-691
-703
-718
-726
-729
-735
-736
-725
-705
-682
-661
-649
-644
-637
-639
-662
