# session 36
-47
-72
-13
44
-87
-321
-394
-335
-324
-331
-305
-294
-296
-281
-264
-255
-252
-261
-253
-204
-143
-112
-125
-162
-181
-175
-173
-164
-147
-154
-154
-122
-132
-168
-226
-336
122
1665
2746
1582
-388
-787
-165
-42
-207
-154
-122
-159
-121
-95
-109
-85
-58
-61
-50
-25
-12
-1
23
48
68
94
125
154
188
229
262
281
301
328
339
311
241
148
54
-26
-88
-134
-160
-166
-167
-172
-173
-167
-158
-151
-144
-136
-129
-123
-116
-103
-97
-101
-102
-98
-98
-101
-99
-98
-100
-102
-101
-99
-99
-98
-90
-82
-86
-91
-85
-77
-77
-77
-71
-67
-74
-84
-77
-41
7
37
26
-15
-48
-53
-56
-59
-50
-56
-61
-33
-37
-85
-138
-251
46
1437
2765
1980
-78
-810
-224
16
-170
-155
-95
-138
-130
-104
-111
-95
-74
-75
-63
-40
-28
-17
3
22
36
56
88
120
149
183
220
251
276
298
314
297
231
137
44
-41
-110
-155
-182
-199
-203
-203
-206
-206
-197
-186
-180
-176
-169
-161
-153
-143
-132
-132
-137
-134
-125
-125
-131
-131
-127
-124
-122
-121
-118
-114
-111
-110
-106
-97
-92
-97
-100
-91
-81
-83
-97
-105
-87
-44
5
26
-1
-49
-68
-62
-65
-66
-61
-72
-67
-47
-72
-104
-181
-261
417
2064
2761
1208
-573
-630
-39
-48
-185
-111
-111
-146
-104
-91
-103
-82
-68
-64
-46
-28
-14
4
17
32
57
83
106
140
180
212
244
281
307
321
324
290
209
112
25
-50
-111
-154
-184
-199
-202
-199
-198
-194
-183
-174
-171
-165
-151
-146
-141
-116
-96
-112
-136
-136
-131
-135
-133
-127
-127
-127
-122
-117
-117
-119
-118
-114
-109
-106
-107
-107
-101
-98
-103
-104
-90
-63
-26
3
-8
-54
-82
-78
-79
-81
-65
-70
-79
-51
-57
-94
-118
-228
21
1331
2575
1734
-338
-1045
-369
3
-110
-104
-60
-96
-83
-57
-65
-48
-22
-17
-8
9
24
46
68
76
89
118
154
191
232
272
307
340
369
394
405
377
301
201
98
-1
-84
-140
-176
-197
-204
-205
-208
-205
-194
-184
-177
-169
-160
-154
-149
-143
-136
-131
-126
-125
-130
-133
-133
-133
-134
-133
-132
-132
-125
-120
-121
-125
-133
-145
-139
-99
-48
-24
-42
-81
-102
-103
-106
-103
-92
-100
-98
-73
-90
-113
-151
-249
189
1608
2496
1279
-555
-825
-171
-34
-177
-120
-90
-131
-102
-79
-89
-74
-60
-62
-48
-30
-19
-1
12
18
37
66
93
125
164
198
230
263
290
311
311
271
192
99
10
-68
-125
-161
-178
-178
-174
-178
-180
-170
-162
-161
-157
-147
-141
-139
-133
-126
-124
-118
-107
-106
-116
-117
-107
-103
-105
-103
-102
-99
-92
-94
-105
-103
-69
-21
5
-9
-44
-67
-77
-86
-84
-68
-70
-72
-48
-59
-90
-103
-195
34
1248
2438
1715
-176
-826
-235
18
-152
-133
-75
-120
-104
-69
-79
-65
-42
-47
-41
-19
-9
-2
15
33
52
77
103
128
156
192
235
267
281
295
306
277
197
102
16
-62
-126
-165
-185
-191
-187
-179
-177
-180
-183
-177
-168
-168
-168
-156
-145
-143
-141
-136
-133
-127
-120
-117
-118
-119
-123
-124
-119
-112
-110
-120
-131
-115
-72
-29
-15
-41
-81
-99
-99
-99
-92
-89
-101
-87
-67
-95
-107
-149
-197
450
1907
2370
823
-724
-623
-36
-59
-173
-92
-98
-131
-87
-76
-87
-62
-47
-48
-32
-16
-7
11
28
36
52
84
118
145
173
207
240
265
283
299
297
245
153
60
-22
-97
-148
-168
-181
-194
-190
-176
-170
-171
-167
-159
-155
-152
-144
-136
-132
-130
-127
-122
-117
-113
-113
-115
-113
-108
-106
-103
-99
-105
-117
-107
-66
-18
2
-26
-71
-86
-78
-85
-87
-78
-84
-79
-60
-79
-89
-128
-193
386
1843
2453
986
-681
-684
-57
-45
-185
-105
-96
-140
-105
-87
-96
-73
-55
-56
-45
-28
-16
-1
18
41
64
85
111
141
171
204
234
255
275
293
289
243
161
63
-27
-98
-150
-179
-191
-197
-201
-196
-185
-176
-172
-167
-157
-149
-147
-148
-145
-140
-136
-133
-131
-130
-127
-124
-122
-121
-120
-116
-116
-128
-135
-117
-78
-36
-21
-44
-83
-99
-98
-100
-91
-84
-95
-86
-67
-91
-100
-142
-193
457
1959
2476
897
-733
-647
-29
-52
-183
-98
-99
-136
-92
-80
-92
-69
-56
-56
-39
-21
-9
7
19
34
60
86
108
136
164
188
212
232
249
267
267
222
139
51
-27
-95
-146
-174
-187
-193
-190
-182
-174
-167
-158
-148
-144
-143
-137
-132
-131
-127
-120
-118
-117
-110
-106
-107
-108
-108
-105
-97
-95
-105
-110
-94
-57
-13
6
-20
-65
-86
-88
-90
-85
-83
-94
-81
-64
-93
-105
-160
-210
520
2109
2569
869
-768
-634
-27
-71
-191
-105
-113
-145
-100
-91
-101
-78
-66
-66
-50
-34
-24
-6
13
28
49
73
98
128
155
179
204
225
246
271
275
230
154
73
-15
-96
-147
-175
-196
-206
-201
-188
-178
-176
-172
-161
-151
-145
-138
-131
-131
-135
-138
-136
-134
-133
-128
-125
-128
-123
-114
-120
-132
-128
-104
-65
-23
-14
-53
-96
-102
-98
-106
-99
-94
-106
-89
-76
-110
-103
-129
-110
715
2176
2235
306
-1172
-825
-122
-73
-131
-62
-73
-87
-48
-39
-43
-30
-23
-12
10
27
41
58
79
104
129
151
177
210
240
268
298
323
341
357
349
289
193
92
0
-80
-147
-195
-217
-220
-220
-220
-213
-204
-198
-188
-176
-169
-161
-150
-144
-144
-144
-148
-155
-155
-150
-145
-142
-144
-153
-152
-129
-89
-56
-56
-89
-119
-126
-133
-142
-129
-125
-132
-101
-96
-136
-117
-151
-52
956
2292
1856
-217
-1285
-677
-92
-111
-114
-53
-89
-81
-37
-42
-47
-31
-16
3
22
29
43
69
95
119
143
174
208
238
265
298
334
357
374
386
366
292
186
82
-10
-85
-138
-175
-190
-189
-192
-194
-181
-169
-167
-161
-145
-134
-132
-132
-130
-125
-122
-125
-128
-124
-116
-116
-127
-130
-108
-65
-26
-25
-66
-106
-113
-113
-117
-107
-105
-114
-96
-99
-123
-99
-158
-104
819
2105
1786
-107
-1140
-604
-64
-110
-136
-68
-91
-93
-58
-61
-60
-43
-38
-29
-13
-7
0
17
36
56
78
104
133
162
190
214
238
263
285
288
254
183
94
8
-68
-129
-170
-191
-199
-201
-197
-190
-183
-177
-171
-165
-160
-153
-144
-136
-131
-126
-123
-121
-118
-113
-119
-138
-139
-101
-49
-22
-35
-68
-89
-91
-96
-98
-88
-90
-94
-79
-88
-101
-111
-178
127
1273
2183
1357
-257
-673
-154
-6
-157
-125
-79
-113
-99
-76
-81
-64
-50
-56
-48
-29
-15
-1
16
29
34
43
74
110
133
159
180
177
183
219
237
195
117
48
3
-42
-89
-109
-113
-132
-152
-151
-147
-148
-135
-113
-117
-141
-146
-132
-128
-130
-114
-82
-55
-49
-74
-105
-110
-103
-106
-89
-37
-5
-19
-38
-49
-61
-67
-71
-74
-70
-55
-44
-82
-128
-127
-202
-7
1189
2497
1906
-23
-797
-268
-32
-207
-182
-129
-185
-172
-140
-147
-127
-110
-119
-97
-70
-82
-88
-56
-26
-16
5
43
70
81
98
141
189
208
201
192
178
133
58
-18
-65
-101
-152
-195
-200
-185
-181
-186
-183
-171
-163
-158
-150
-146
-145
-137
-128
-126
-122
-110
-105
-100
-88
-88
-102
-86
-31
15
16
-15
-53
-72
-82
-99
-96
-78
-86
-85
-65
-85
-97
-150
-293
169
1612
2410
1165
-526
-731
-159
-28
-109
-67
-84
-134
-103
-73
-74
-61
-44
-34
-25
-13
6
18
29
59
86
100
127
158
171
190
221
233
235
258
273
235
156
73
-5
-78
-134
-162
-177
-187
-188
-179
-177
-183
-181
-160
-134
-133
-156
-160
-137
-126
-134
-134
-127
-125
-127
-129
-129
-117
-76
-21
3
-34
-87
-104
-101
-110
-109
-104
-128
-126
-88
-100
-127
-180
-332
31
1444
2480
1467
-352
-809
-260
-53
-154
-143
-133
-157
-117
-90
-106
-98
-73
-70
-67
-48
-25
-3
19
33
41
58
84
112
138
161
181
200
220
248
261
224
150
78
3
-74
-122
-142
-169
-197
-202
-196
-192
-180
-162
-149
-141
-138
-136
-126
-117
-119
-116
-103
-96
-102
-112
-114
-92
-46
-2
7
-28
-76
-97
-97
-103
-99
-89
-95
-87
-74
-100
-115
-191
-319
269
1850
2634
1269
-490
-695
-138
-56
-168
-111
-108
-163
-141
-112
-119
-108
-89
-81
-67
-51
-43
-27
-3
19
37
56
77
104
134
162
185
208
237
259
249
200
126
41
-45
-117
-166
-197
-217
-231
-236
-235
-232
-226
-215
-203
-193
-182
-170
-164
-159
-153
-147
-145
-144
-148
-151
-137
-97
-47
-20
-42
-91
-118
-118
-125
-128
-111
-112
-115
-86
-94
-138
-193
-331
8
1529
2864
1897
-276
-938
-269
-12
-184
-153
-101
-148
-125
-88
-99
-84
-57
-55
-46
-24
-9
8
31
53
77
104
131
163
200
235
266
293
320
339
327
268
177
74
-22
-97
-148
-180
-197
-205
-209
-207
-204
-201
-197
-192
-187
-180
-174
-168
-160
-155
-152
-143
-136
-145
-159
-154
-124
-79
-41
-39
-78
-117
-126
-126
-130
-121
-119
-129
-110
-104
-136
-156
-271
-212
897
2513
2371
338
-917
-489
-30
-161
-206
-127
-158
-161
-115
-120
-121
-96
-86
-75
-55
-44
-34
-17
3
27
55
86
121
155
187
219
250
276
298
298
254
174
80
-14
-93
-147
-175
-191
-198
-198
-194
-192
-190
-184
-176
-172
-171
-166
-156
-146
-140
-138
-135
-128
-123
-121
-118
-119
-130
-135
-115
-73
-29
-11
-31
-68
-85
-84
-88
-84
-76
-87
-81
-60
-80
-108
-186
-268
387
1983
2675
1188
-552
-632
-59
-60
-197
-120
-112
-148
-111
-96
-104
-82
-67
-67
-53
-38
-30
-17
0
20
44
68
96
130
165
196
224
250
275
292
275
211
118
27
-53
-121
-165
-185
-192
-192
-188
-186
-182
-176
-174
-174
-167
-160
-160
-162
-160
-155
-150
-148
-145
-140
-134
-131
-129
-128
-124
-117
-112
-107
-107
-117
-120
-94
-46
-7
1
-25
-58
-70
-72
-75
-65
-59
-74
-66
-51
-74
-95
-192
-207
681
2285
2507
710
-727
-485
8
-101
-183
-94
-115
-135
-90
-88
-92
-65
-57
-57
-40
-27
-17
1
18
34
56
81
109
143
177
210
241
270
298
318
297
226
137
50
-33
-98
-138
-160
-170
-169
-163
-158
-155
-155
-155
-154
-152
-151
-149
-144
-140
-140
-138
-133
-129
-127
-124
-122
-121
-116
-112
-109
-106
-103
-102
-100
-97
-97
-97
-95
-95
-94
-89
-87
-95
-106
-100
-66
-17
16
9
-30
-59
-63
-67
-70
-61
-67
-74
-48
-51
-83
-125
-241
68
1449
2686
1832
-149
-767
-180
12
-175
-144
-91
-135
-113
-82
-98
-86
-67
-69
-58
-36
-26
-17
2
19
39
64
91
119
153
187
217
243
268
293
306
279
207
114
27
-50
-113
-156
-176
-183
-182
-177
-172
-168
-165
-165
-162
-158
-153
-149
-147
-146
-144
-140
-133
-128
-127
-125
-122
-120
-119
-119
-119
-117
-114
-111
-106
-103
-101
-98
-92
-86
-81
-78
-87
-100
-88
-45
-1
17
-1
-39
-55
-50
-58
-66
-58
-66
-64
-39
-56
-84
-144
-245
302
1870
2721
1326
-539
-716
-80
-27
-178
-106
-90
-132
-90
-71
-92
-78
-56
-49
-37
-20
-9
6
29
52
70
88
116
153
191
225
254
280
303
321
317
274
196
102
8
-71
-127
-164
-187
-197
-200
-200
-197
-191
-183
-174
-169
-167
-159
-145
-136
-133
-127
-121
-118
-118
-117
-116
-115
-118
-121
-116
-112
-116
-119
-113
-107
-103
-97
-95
-98
-98
-93
-88
-85
-80
-77
-78
-77
-70
-66
-72
-82
-80
-55
-19
9
28
35
11
-31
-49
-48
-55
-53
-47
-62
-54
-34
-64
-93
-172
-219
581
2268
2760
1022
-654
-560
-7
-77
-189
-103
-118
-148
-102
-95
-102
-74
-58
-56
-40
-26
-14
5
25
43
65
89
115
145
178
211
240
265
288
311
314
275
198
107
20
-56
-117
-156
-177
-186
-190
-192
-192
-189
-184
-176
-167
-159
-148
-140
-138
-135
-125
-118
-122
-123
-118
-118
-121
-119
-117
-118
-117
-114
-112
-112
-110
-109
-107
-106
-105
-100
-97
-97
-96
-90
-85
-86
-88
-86
-84
-87
-78
-43
-3
20
16
-18
-57
-66
-59
-59
-59
-67
-80
-57
-50
-92
-115
-209
-151
920
2534
2439
431
-831
-411
23
-142
-193
-106
-141
-144
-93
-103
-108
-76
-66
-68
-54
-39
-27
-7
17
38
55
79
109
140
171
205
238
262
284
304
294
235
144
51
-31
-103
-159
-190
-204
-213
-216
-205
-189
-182
-178
-170
-161
-155
-143
-127
-118
-114
-106
-98
-95
-94
-91
-90
-90
-92
-92
-87
-81
-78
-77
-75
-76
-77
-76
-74
-73
-72
-72
-75
-72
-64
-64
-74
-82
-71
-36
11
37
19
-23
-44
-45
-52
-50
-39
-49
-43
-21
-52
-88
-149
-207
475
2099
2752
1164
-598
-613
-5
-11
-159
-121
-127
-123
-76
-98
-107
-56
-23
19
59
2
-61
-13
55
75
101
100
63
111
231
266
256
320
367
331
313
305
208
84
32
-11
-99
-166
-186
-207
-208
-163
-158
-231
-276
-241
-193
-184
-189
-166
-127
-128
-177
-209
-202
-184
-168
-151
-149
-186
-224
-193
-141
-158
-179
-151
-175
-234
-194
-126
-151
-163
-91
-75
-167
-230
-193
-126
-74
-30
-32
-103
-162
-164
-172
-188
-158
-125
-153
-175
-101
-95
-256
133
1576
2516
1313
-547
-798
-77
57
-162
-123
-66
-138
-134
-49
-26
-65
-62
-12
2
-2
43
77
53
45
96
169
218
215
216
288
346
340
375
436
394
313
300
271
177
116
96
42
