# session 1
7
-34
61
180
-68
-552
-697
-670
-724
-66
1267
1423
-93
-1272
-1067
-563
-471
-481
-449
-441
-413
-383
-371
-335
-295
-283
-268
-233
-193
-161
-133
-96
-64
-50
-18
42
86
107
138
164
174
190
194
155
91
33
-21
-69
-103
-130
-144
-140
-137
-146
-143
-125
-118
-121
-110
-89
-76
-66
-50
-36
-37
-46
-52
-57
-56
-48
-42
-33
-12
-4
-11
18
74
99
106
114
80
16
-14
-20
-25
-10
-10
-31
-16
-15
-62
-73
-148
-137
664
1887
1777
178
-889
-620
-146
-67
-57
-22
-35
-26
19
52
68
70
76
100
116
126
142
154
170
196
202
184
187
216
241
246
243
242
233
210
176
127
48
-44
-118
-164
-194
-215
-238
-259
-261
-246
-227
-212
-201
-189
-167
-140
-118
-100
-76
-53
-43
-49
-68
-93
-115
-135
-151
-158
-160
-156
-135
-106
-87
-77
-62
-60
-95
-135
-135
-116
-103
-72
-49
-70
-84
-94
-124
-122
-211
-347
273
1748
2252
811
-711
-753
-209
-96
-177
-179
-177
-150
-92
-78
-81
-62
-48
-45
-25
20
69
99
111
133
169
201
227
258
289
313
334
350
351
336
297
223
125
39
-19
-61
-99
-124
-139
-152
-156
-147
-137
-139
-143
-144
-145
-141
-131
-130
-140
-141
-131
-128
-126
-115
-117
-139
-158
-156
-141
-125
-118
-125
-125
-94
-56
-40
-34
-30
-49
-84
-104
-108
-109
-98
-94
-109
-110
-113
-132
-134
-234
-249
564
1885
1891
281
-893
-675
-208
-160
-169
-132
-146
-126
-85
-96
-107
-80
-51
-33
-9
26
69
96
96
103
129
153
180
217
228
214
225
258
267
252
216
134
35
-35
-78
-109
-120
-121
-122
-132
-149
-149
-129
-122
-128
-126
-120
-115
-97
-84
-90
-101
-105
-104
-99
-93
-93
-92
-96
-110
-117
-106
-88
-69
-44
-27
-18
-5
-13
-53
-79
-71
-57
-39
-34
-53
-49
-41
-74
-99
-168
-150
623
1942
2056
490
-778
-624
-135
-67
-73
-35
-60
-41
-7
-46
-49
11
10
-24
11
63
59
57
99
131
144
186
222
203
196
233
254
260
285
268
179
95
38
-33
-99
-139
-185
-211
-186
-183
-225
-224
-186
-186
-196
-166
-145
-172
-198
-161
-110
-138
-195
-180
-139
-128
-112
-112
-162
-184
-135
-93
-100
-98
-46
-4
-29
-85
-102
-82
-83
-103
-103
-94
-87
-65
-76
-104
-108
-205
-118
824
1970
1616
9
-832
-475
-107
-122
-140
-116
-132
-123
-99
-97
-85
-57
-42
-25
17
49
32
23
80
132
119
112
163
209
205
203
234
247
225
219
217
136
3
-72
-89
-122
-172
-191
-168
-144
-167
-200
-181
-137
-122
-114
-90
-88
-110
-114
-115
-139
-131
-80
-82
-142
-143
-87
-77
-86
-40
-3
-25
-38
-25
-53
-107
-115
-84
-72
-92
-84
-49
-75
-107
-101
-222
-73
1063
2207
1521
-320
-1039
-471
-20
-27
-60
-45
-38
-18
2
28
53
32
13
47
64
46
66
102
110
139
172
157
162
223
253
248
279
311
292
265
232
133
2
-66
-88
-131
-174
-178
-171
-180
-174
-133
-103
-136
-184
-176
-146
-151
-148
-114
-114
-147
-150
-140
-164
-177
-161
-156
-149
-123
-137
-179
-158
-94
-68
-76
-81
-96
-122
-131
-110
-93
-113
-122
-68
-60
-151
-163
-182
-295
287
1809
2423
999
-560
-615
-141
-138
-216
-138
-123
-132
-90
-78
-101
-97
-51
-7
-28
-76
-48
28
52
50
100
149
145
152
197
220
217
217
226
252
229
110
36
57
-11
-157
-180
-139
-190
-240
-196
-148
-149
-145
-122
-116
-135
-141
-116
-98
-109
-115
-109
-116
-121
-107
-101
-101
-81
-82
-128
-144
-91
-40
-38
-53
-63
-61
-54
-73
-103
-77
-36
-82
-133
-81
-59
-124
-165
-227
-18
1056
2155
1541
-242
-984
-456
-63
-124
-124
-36
-39
-89
-103
-69
-38
-34
0
58
52
2
14
81
116
126
167
212
210
194
224
278
289
258
244
241
197
119
51
-2
-49
-89
-113
-115
-110
-123
-145
-143
-120
-110
-118
-116
-77
-33
-57
-134
-159
-120
-102
-124
-124
-91
-75
-89
-97
-94
-103
-113
-111
-109
-99
-55
2
7
-50
-98
-97
-84
-79
-72
-84
-100
-83
-89
-118
-135
-226
-89
841
1868
1487
60
-627
-320
-71
-133
-151
-123
-131
-119
-92
-80
-75
-76
-71
-44
-19
-8
3
19
43
68
87
104
126
147
164
180
191
198
199
186
146
84
26
-20
-70
-113
-134
-147
-158
-155
-146
-141
-136
-128
-121
-119
-119
-115
-104
-94
-92
-98
-101
-95
-85
-84
-91
-94
-86
-82
-91
-104
-102
-70
-30
-11
-12
-24
-46
-67
-75
-68
-56
-62
-73
-53
-55
-84
-91
-178
-120
737
1873
1619
47
-876
-551
-111
-65
-75
-53
-62
-54
-34
-33
-27
-15
-4
13
28
36
50
72
87
99
117
139
161
185
205
209
205
207
212
202
164
104
45
-5
-56
-103
-134
-150
-153
-148
-144
-143
-136
-127
-123
-120
-113
-107
-111
-120
-122
-119
-119
-119
-106
-75
-51
-73
-103
-89
-59
-42
-9
8
-48
-110
-108
-104
-133
-128
-85
-82
-134
-162
-127
-91
-73
-48
-148
-264
321
1574
1890
578
-678
-649
-186
-93
-116
-76
-70
-59
-47
-74
-62
2
32
12
1
35
87
95
77
104
159
180
186
208
227
226
224
241
266
265
227
168
91
7
-58
-111
-154
-172
-172
-176
-186
-200
-203
-183
-170
-185
-189
-163
-146
-151
-156
-162
-152
-111
-105
-170
-201
-149
-131
-156
-101
-24
-75
-155
-106
-44
-95
-143
-102
-70
-101
-124
-98
-65
-87
-134
-113
-154
-277
242
1597
2174
932
-518
-621
-131
-33
-96
-60
-61
-78
-52
-42
-34
-4
1
-9
7
35
61
85
84
78
109
148
151
155
184
207
215
232
249
235
190
136
80
12
-62
-106
-114
-123
-142
-143
-131
-128
-124
-111
-104
-106
-106
-106
-107
-102
-98
-106
-110
-100
-92
-96
-100
-100
-98
-98
-105
-119
-114
-81
-40
-18
-27
-58
-84
-91
-96
-97
-91
-95
-92
-75
-92
-112
-146
-262
28
1154
1943
1042
-479
-816
-296
-66
-117
-95
-78
-95
-74
-54
-55
-46
-36
-32
-18
1
16
28
42
56
74
94
114
130
144
161
177
182
182
187
180
138
71
7
-46
-90
-118
-134
-141
-137
-128
-128
-132
-127
-113
-102
-96
-80
-52
-45
-65
-75
-66
-72
-92
-94
-80
-68
-71
-85
-92
-89
-76
-28
36
41
-4
-31
-43
-65
-59
-40
-65
-71
-21
-24
-73
-129
-273
-57
1093
2111
1373
-303
-874
-370
-54
-99
-96
-64
-74
-61
-40
-48
-51
-17
19
11
-16
3
55
78
77
92
118
131
136
146
161
179
183
186
206
192
125
68
14
-91
-177
-192
-197
-201
-181
-189
-219
-205
-176
-182
-179
-145
-139
-164
-162
-139
-134
-132
-122
-130
-132
-97
-80
-130
-169
-143
-116
-111
-69
-19
-32
-54
-35
-59
-128
-114
-52
-74
-107
-74
-77
-103
-118
-186
158
1321
2082
1085
-493
-795
-227
-5
-81
-61
-34
-48
-30
-8
-3
-1
-1
13
42
58
66
88
123
149
166
179
190
206
225
233
235
246
254
239
204
146
74
18
-25
-77
-123
-142
-147
-147
-142
-145
-148
-135
-127
-141
-142
-128
-127
-128
-124
-131
-138
-131
-129
-135
-132
-121
-121
-136
-150
-140
-102
-59
-38
-52
-84
-104
-110
-109
-101
-106
-113
-81
-63
-108
-129
-179
-272
200
1408
1899
734
-594
-656
-164
-46
-97
-69
-64
-69
-44
-26
-13
0
3
8
16
21
38
64
85
100
117
137
161
186
195
192
188
186
187
187
154
86
24
-27
-90
-144
-164
-168
-172
-171
-167
-159
-151
-149
-143
-127
-123
-133
-137
-125
-111
-117
-132
-127
-110
-108
-113
-108
-101
-103
-103
-103
-111
-95
-38
10
-2
-43
-66
-74
-81
-78
-66
-66
-59
-43
-61
-71
-92
-214
30
1101
1908
1110
-314
-639
-173
0
-66
-39
-31
-48
-9
3
-25
-10
25
33
36
58
81
88
92
112
135
149
168
191
192
179
184
197
193
190
181
136
75
33
-11
-64
-98
-117
-133
-133
-120
-117
-121
-117
-111
-118
-130
-131
-122
-121
-132
-136
-129
-130
-141
-139
-124
-121
-125
-114
-113
-141
-158
-132
-86
-43
-20
-39
-77
-96
-103
-109
-101
-96
-101
-84
-79
-104
-99
-155
-191
366
1366
1447
263
-686
-551
-130
-37
-60
-50
-54
-42
-22
-34
-39
-8
15
19
28
46
65
84
100
110
124
144
160
168
172
176
180
182
182
180
170
134
74
11
-40
-77
-104
-123
-127
-120
-115
-114
-107
-103
-108
-107
-99
-97
-96
-86
-77
-78
-88
-99
-106
-103
-95
-95
-107
-111
-87
-45
-16
-21
-54
-80
-92
-100
-92
-78
-89
-89
-67
-88
-95
-87
-203
-26
985
1825
1055
-493
-974
-464
-99
-63
-47
-43
-56
-34
-18
-21
-8
10
25
47
66
76
92
113
130
148
173
193
206
223
238
242
243
251
253
230
176
103
32
-24
-73
-118
-146
-149
-141
-140
-142
-138
-134
-136
-137
-125
-110
-104
-108
-113
-117
-118
-115
-114
-120
-129
-131
-126
-115
-87
-52
-51
-91
-127
-133
-133
-125
-115
-132
-134
-100
-109
-133
-157
-280
-52
1063
1968
1146
-477
-936
-384
-66
-100
-89
-60
-71
-60
-47
-43
-25
-12
-7
10
27
38
59
87
107
123
146
173
192
204
220
233
237
244
247
217
152
82
22
-40
-104
-148
-159
-159
-169
-175
-164
-148
-137
-130
-123
-119
-113
-105
-101
-104
-104
-102
-101
-97
-94
-104
-122
-123
-107
-80
-41
-13
-35
-79
-90
-89
-104
-106
-98
-98
-76
-68
-100
-109
-198
-248
455
1713
1811
332
-808
-593
-101
-51
-87
-53
-69
-72
-40
-35
-31
-7
5
10
25
40
59
82
98
115
143
165
180
201
218
227
237
247
249
236
190
111
35
-17
-66
-117
-148
-158
-166
-178
-183
-173
-152
-131
-118
-116
-117
-113
-108
-105
-98
-90
-93
-104
-108
-104
-102
-104
-107
-107
-102
-103
-114
-121
-103
-72
-43
-23
-24
-50
-74
-84
-95
-93
-72
-72
-84
-73
-90
-112
-128
-257
-75
1036
2060
1348
-314
-867
-349
-43
-94
-88
-66
-84
-61
-37
-44
-36
-12
6
21
26
30
54
87
105
118
142
171
195
213
230
243
254
270
277
250
192
122
50
-24
-84
-121
-140
-154
-169
-178
-173
-157
-144
-134
-123
-112
-105
-107
-116
-116
-103
-93
-93
-96
-101
-109
-109
-105
-104
-107
-106
-105
-108
-106
-100
-100
-104
-97
-90
-98
-107
-101
-92
-79
-51
-25
-17
-12
-9
-24
-42
-52
-68
-74
-54
-49
-57
-43
-62
-96
-89
-203
-167
803
2092
1799
76
-856
-452
-35
-61
-80
-46
-70
-63
-36
-38
-25
2
7
10
32
55
69
84
104
123
144
167
187
203
228
256
269
269
274
272
233
162
90
25
-37
-92
-135
-160
-167
-171
-176
-163
-146
-144
-138
-124
-124
-123
-105
-98
-111
-116
-105
-96
-97
-104
-108
-104
-101
-104
-107
-108
-109
-108
-98
-89
-91
-97
-98
-99
-99
-92
-74
-63
-66
-70
-64
-69
-84
-82
-66
-61
-62
-60
-65
-63
-30
5
11
10
13
-1
-26
-42
-54
-51
-36
-54
-71
-42
-31
-48
-99
-222
76
1243
2118
1277
-273
-677
-202
-14
-110
-99
-65
-77
-72
-58
-40
-11
-3
-8
2
14
24
50
78
91
104
134
167
177
174
190
224
241
238
236
233
200
134
65
9
-44
-91
-120
-138
-153
-156
-149
-143
-139
-131
-121
-110
-101
-100
-100
-95
-89
-89
-94
-95
-92
-87
-83
-86
-94
-94
-90
-90
-91
-87
-81
-79
-79
-77
-71
-71
-76
-71
-61
-65
-75
-74
-65
-55
-52
-57
-62
-59
-58
-61
-59
-54
-55
-61
-61
-47
-19
8
19
17
0
-33
-57
-58
-48
-38
-47
-62
-43
-38
-70
-74
-168
-210
572
1926
2009
435
-761
-567
-106
-71
-103
-73
-86
-81
-54
-58
-60
-42
-23
-2
14
21
33
53
75
98
119
133
155
190
219
235
254
268
270
276
267
207
122
56
-3
-68
-108
-124
-143
-163
-176
-181
-172
-153
-149
-158
-154
-139
-136
-135
-115
-96
-101
-113
-109
-105
-108
-109
-112
-118
-114
-104
-108
-116
-113
-103
-98
-100
-98
-87
-82
-91
-100
-96
-82
-73
-77
-78
-66
-61
-74
-74
-47
-18
0
13
7
-23
-45
-48
-52
-54
-48
-52
-49
-38
-53
-56
-112
-238
201
1532
2280
1143
-459
-705
-165
-10
-106
-90
-69
-71
-48
-49
-57
-31
-12
-12
-2
16
33
56
75
86
104
139
170
192
221
258
283
295
305
309
290
235
155
74
4
-61
-115
-146
-154
-153
-157
-168
-168
-153
-142
-144
-146
-141
-133
-122
-110
-106
-108
-109
-109
-110
-110
-108
-108
-105
-107
-117
-122
-114
-103
-99
-99
-102
-109
-105
-88
-80
-88
-92
-83
-76
-80
-90
-89
-76
-70
-68
-64
-68
-70
-62
-67
-83
-76
-46
-19
0
15
11
-10
-35
-51
-63
-65
-49
-47
-74
-70
-44
-57
-77
-159
-208
441
1747
2066
699
-582
-522
-71
-60
-141
-98
-92
-104
-78
-67
-68
-55
-39
-22
-6
1
4
20
56
86
92
105
150
196
211
218
240
259
257
257
259
221
140
64
7
-53
-101
-119
-125
-140
-146
-132
-117
-122
-133
-120
-92
-81
-82
-75
-68
-70
-70
-63
-60
-55
-49
-51
-57
-57
-53
-56
-56
-47
-40
-44
-48
-44
-42
-43
-41
-34
-28
-30
-36
-29
-16
-20
-32
-24
-9
-5
-3
-6
-19
-15
7
3
-12
13
60
81
84
77
50
17
1
-1
4
13
18
17
16
