# session 19
58
6
90
104
365
1531
2576
1668
-266
-770
-37
245
68
88
137
81
88
116
101
105
119
118
127
147
167
195
229
263
304
341
362
371
378
373
338
274
203
135
63
-6
-56
-84
-101
-111
-112
-108
-105
-102
-96
-94
-98
-99
-100
-110
-120
-125
-140
-164
-167
-147
-122
-93
-74
-90
-123
-144
-154
-152
-146
-159
-160
-134
-147
-189
-290
-487
-120
1315
2258
1022
-879
-1131
-369
-142
-263
-211
-180
-215
-181
-153
-159
-140
-115
-103
-80
-51
-21
14
53
95
144
191
224
245
265
272
242
179
113
52
-17
-83
-127
-154
-171
-176
-166
-152
-141
-132
-119
-107
-104
-103
-104
-113
-122
-122
-131
-153
-156
-132
-106
-79
-51
-52
-80
-100
-108
-106
-91
-94
-102
-80
-85
-129
-206
-397
-200
1112
2386
1568
-481
-1146
-434
-58
-177
-163
-111
-140
-115
-82
-90
-72
-41
-28
-5
30
56
89
136
184
228
273
314
337
346
347
322
264
196
134
68
-2
-57
-87
-105
-119
-122
-113
-102
-90
-80
-75
-73
-70
-66
-68
-75
-78
-85
-106
-118
-105
-83
-65
-46
-42
-62
-83
-95
-101
-93
-90
-104
-90
-77
-116
-169
-313
-344
572
2112
2113
158
-1180
-729
-111
-167
-224
-136
-157
-167
-119
-115
-111
-80
-66
-57
-29
0
31
72
120
170
219
261
290
304
307
291
243
173
106
41
-28
-89
-128
-148
-160
-166
-164
-153
-141
-128
-115
-110
-108
-105
-107
-113
-116
-126
-149
-155
-135
-109
-81
-54
-56
-85
-105
-115
-122
-111
-108
-122
-107
-99
-142
-217
-382
-268
932
2442
2050
-22
-1070
-515
-84
-224
-235
-148
-184
-181
-135
-137
-128
-97
-86
-70
-38
-10
20
63
113
165
215
254
280
293
294
273
222
154
87
22
-43
-95
-127
-146
-160
-168
-164
-151
-138
-131
-125
-114
-105
-102
-95
-88
-96
-109
-111
-120
-143
-147
-121
-90
-63
-36
-34
-62
-86
-97
-101
-91
-87
-100
-83
-70
-111
-170
-321
-300
755
2388
2345
333
-1008
-613
-99
-199
-244
-151
-180
-196
-149
-140
-132
-99
-82
-68
-40
-9
24
65
110
160
212
259
294
318
326
307
253
179
112
51
-15
-77
-116
-134
-141
-140
-135
-131
-126
-119
-113
-108
-102
-96
-92
-92
-92
-88
-85
-92
-100
-109
-127
-141
-128
-109
-95
-70
-49
-61
-86
-96
-107
-111
-98
-103
-108
-84
-92
-137
-215
-362
7
1455
2552
1419
-673
-1189
-452
-126
-221
-177
-134
-166
-138
-107
-112
-91
-63
-52
-30
3
35
72
119
170
224
277
320
347
362
363
331
263
182
105
29
-42
-95
-128
-148
-160
-165
-167
-163
-154
-143
-134
-124
-115
-108
-104
-105
-104
-98
-98
-110
-120
-132
-153
-162
-141
-109
-83
-59
-54
-78
-102
-108
-107
-102
-98
-108
-101
-81
-105
-150
-254
-307
461
2109
2638
932
-827
-793
-174
-179
-291
-198
-190
-214
-164
-148
-153
-125
-106
-98
-70
-41
-17
19
66
116
169
220
259
282
293
286
249
186
120
54
-15
-73
-108
-128
-143
-152
-156
-158
-157
-151
-140
-128
-118
-109
-104
-102
-100
-96
-95
-97
-97
-97
-102
-108
-115
-128
-138
-124
-93
-61
-30
-14
-34
-66
-78
-80
-75
-63
-70
-70
-44
-61
-112
-204
-313
244
1855
2791
1405
-604
-911
-253
-128
-267
-196
-165
-199
-161
-134
-140
-120
-101
-89
-56
-27
-11
22
74
126
182
240
283
309
323
324
295
232
150
67
-6
-65
-111
-141
-155
-162
-170
-170
-160
-154
-153
-143
-129
-122
-114
-100
-96
-98
-91
-85
-89
-89
-85
-89
-97
-100
-99
-97
-102
-108
-108
-117
-135
-127
-86
-52
-38
-30
-41
-66
-76
-72
-66
-59
-71
-79
-53
-58
-94
-138
-259
44
1423
2608
1595
-569
-1229
-497
-112
-205
-174
-126
-158
-129
-94
-101
-86
-62
-53
-30
-1
25
64
113
160
213
277
330
361
379
387
364
297
208
124
48
-26
-90
-133
-154
-163
-171
-178
-176
-167
-158
-153
-145
-135
-129
-127
-120
-115
-115
-115
-115
-121
-127
-131
-143
-156
-152
-131
-107
-83
-70
-81
-98
-106
-112
-108
-95
-102
-105
-83
-94
-133
-205
-302
200
1708
2647
1370
-599
-945
-278
-119
-262
-200
-160
-193
-156
-124
-133
-115
-91
-81
-59
-31
-6
29
75
124
181
239
283
310
325
320
278
206
133
65
-8
-73
-115
-137
-151
-158
-163
-171
-179
-178
-167
-151
-138
-128
-116
-104
-96
-90
-84
-80
-80
-83
-86
-90
-95
-101
-107
-119
-133
-128
-103
-75
-46
-25
-32
-60
-72
-71
-69
-60
-62
-72
-51
-43
-86
-147
-257
-8
1283
2648
2005
-90
-993
-417
-70
-226
-217
-140
-177
-163
-118
-126
-120
-93
-83
-68
-43
-20
9
50
97
152
209
257
296
326
333
308
249
174
97
25
-43
-101
-138
-156
-163
-167
-171
-175
-177
-174
-168
-160
-150
-138
-131
-125
-115
-108
-110
-111
-103
-95
-95
-101
-110
-118
-122
-127
-143
-154
-143
-117
-88
-56
-35
-46
-76
-92
-94
-91
-78
-81
-89
-60
-55
-97
-151
-274
-24
1309
2644
1865
-292
-1107
-448
-88
-232
-203
-123
-166
-156
-112
-113
-106
-88
-73
-43
-10
15
53
99
144
200
263
314
348
372
383
366
311
232
144
61
-6
-59
-108
-144
-155
-153
-150
-146
-141
-138
-133
-125
-121
-117
-112
-104
-98
-97
-101
-101
-93
-93
-107
-116
-110
-107
-115
-129
-142
-145
-136
-120
-97
-72
-66
-80
-94
-105
-112
-100
-90
-94
-75
-68
-105
-115
-193
-181
731
2215
2142
141
-1226
-798
-162
-166
-201
-118
-137
-141
-93
-89
-88
-61
-50
-41
-11
20
49
86
133
191
255
312
356
390
408
397
343
255
168
90
9
-67
-113
-134
-147
-156
-164
-170
-169
-161
-153
-144
-135
-126
-120
-116
-113
-108
-103
-102
-103
-105
-110
-117
-126
-140
-153
-151
-132
-104
-75
-59
-70
-92
-102
-105
-105
-96
-97
-104
-85
-84
-118
-165
-253
69
1378
2537
1667
-339
-992
-357
-80
-239
-209
-144
-186
-167
-128
-136
-123
-94
-84
-67
-37
-13
15
55
102
157
216
267
299
318
324
300
239
165
93
21
-46
-97
-130
-146
-153
-158
-162
-163
-161
-156
-148
-140
-133
-126
-118
-112
-107
-100
-93
-87
-86
-91
-94
-97
-113
-128
-117
-87
-61
-39
-25
-37
-65
-81
-85
-82
-73
-79
-82
-57
-63
-105
-171
-270
154
1600
2652
1516
-517
-986
-299
-87
-248
-198
-146
-188
-160
-125
-134
-116
-89
-80
-60
-31
-7
24
64
110
165
222
269
299
319
328
307
244
165
94
23
-52
-112
-144
-157
-163
-170
-177
-176
-168
-158
-150
-146
-140
-129
-118
-115
-115
-113
-109
-105
-100
-100
-109
-121
-134
-142
-133
-112
-88
-60
-49
-69
-93
-98
-100
-98
-92
-103
-99
-76
-98
-132
-201
-280
342
1887
2487
832
-1022
-1026
-261
-124
-217
-142
-135
-161
-114
-92
-94
-65
-44
-35
-10
23
56
92
132
185
249
308
355
390
406
397
359
291
210
132
51
-28
-86
-119
-139
-151
-158
-160
-154
-142
-133
-128
-120
-111
-106
-103
-100
-98
-96
-101
-111
-116
-118
-132
-147
-141
-121
-104
-87
-78
-90
-107
-113
-118
-113
-104
-115
-114
-90
-107
-139
-199
-306
163
1607
2428
1061
-863
-1086
-326
-117
-238
-181
-151
-182
-145
-116
-122
-97
-72
-65
-45
-17
9
43
89
142
200
258
307
344
364
361
327
260
176
94
19
-48
-102
-137
-155
-164
-169
-166
-160
-154
-147
-136
-125
-117
-113
-111
-106
-103
-103
-102
-106
-124
-133
-117
-93
-71
-47
-42
-64
-88
-99
-103
-95
-88
-100
-93
-72
-94
-135
-239
-269
533
2086
2392
623
-931
-719
-107
-146
-243
-151
-158
-180
-131
-122
-127
-100
-82
-70
-42
-17
6
43
85
133
187
236
274
302
313
303
263
197
124
56
-12
-77
-120
-140
-152
-160
-160
-156
-155
-151
-141
-131
-124
-117
-109
-104
-101
-96
-97
-102
-103
-113
-133
-137
-116
-89
-62
-41
-48
-77
-93
-97
-99
-87
-86
-97
-79
-74
-115
-169
-290
-116
1087
2478
1941
-136
-1083
-479
-70
-221
-228
-144
-179
-171
-126
-133
-125
-93
-82
-69
-42
-16
14
54
100
149
201
248
284
308
316
299
249
177
105
34
-38
-98
-134
-152
-163
-169
-171
-166
-154
-144
-137
-131
-125
-120
-116
-112
-107
-101
-104
-112
-112
-114
-130
-136
-113
-82
-62
-46
-46
-70
-92
-98
-96
-83
-82
-100
-87
-71
-106
-156
-282
-219
835
2332
2069
-23
-1231
-676
-101
-175
-201
-116
-147
-147
-98
-100
-94
-56
-35
-21
4
30
64
110
160
213
268
317
351
371
382
373
328
253
170
94
23
-43
-95
-121
-130
-141
-154
-154
-141
-133
-128
-123
-119
-113
-104
-101
-97
-90
-94
-102
-105
-122
-152
-163
-143
-116
-92
-71
-67
-82
-100
-117
-125
-115
-116
-125
-105
-99
-119
-122
-219
-126
900
2143
1600
-400
-1288
-610
-86
-168
-182
-110
-137
-131
-92
-96
-90
-65
-50
-29
-1
18
42
83
131
182
231
277
313
335
342
321
266
188
111
37
-35
-94
-129
-146
-155
-163
-168
-166
-159
-151
-138
-124
-119
-117
-110
-101
-95
-93
-97
-102
-105
-116
-127
-121
-99
-70
-43
-35
-53
-74
-84
-85
-80
-74
-77
-69
-55
-70
-93
-168
-203
460
1871
2328
855
-685
-663
-109
-111
-223
-145
-142
-173
-131
-114
-121
-99
-82
-78
-59
-34
-9
25
63
98
135
175
212
237
246
243
216
160
94
35
-24
-84
-130
-151
-150
-149
-160
-166
-156
-145
-141
-139
-135
-127
-115
-105
-102
-95
-86
-86
-91
-92
-93
-100
-113
-127
-129
-114
-87
-54
-34
-41
-59
-70
-80
-80
-65
-74
-91
-64
-58
-100
-147
-241
36
1347
2625
1846
-234
-1002
-379
-72
-233
-213
-142
-179
-163
-123
-125
-111
-87
-79
-58
-27
-8
11
47
94
144
196
247
281
298
308
297
247
177
113
48
-26
-91
-131
-152
-162
-167
-168
-166
-158
-144
-132
-124
-118
-113
-108
-105
-100
-91
-84
-84
-87
-90
-92
-96
-100
-102
-105
-114
-121
-128
-148
-159
-131
-84
-52
-36
-42
-73
-93
-87
-82
-75
-74
-87
-73
-59
-96
-131
-228
-205
752
2309
2285
262
-1145
-729
-119
-175
-230
-137
-154
-162
-118
-122
-121
-84
-67
-57
-25
8
34
69
113
165
220
272
316
347
366
372
348
285
205
130
52
-26
-85
-118
-136
-146
-149
-148
-143
-136
-126
-115
-109
-105
-99
-92
-89
-92
-95
-95
-97
-103
-104
-106
-120
-131
-120
-98
-79
-59
-48
-65
-90
-98
-102
-101
-94
-104
-105
-80
-93
-127
-190
-298
153
1576
2412
1072
-849
-1073
-308
-105
-235
-176
-146
-186
-150
-115
-117
-100
-85
-77
-48
-14
8
36
73
114
164
221
270
311
349
363
332
270
199
117
27
-43
-93
-136
-163
-168
-170
-167
-145
-124
-122
-122
-110
-101
-107
-113
-104
-97
-103
-100
-79
-70
-81
-81
-79
-106
-136
-127
-90
-61
-43
-31
-39
-65
-80
-79
-76
-72
-77
-81
-59
-56
-86
-144
-291
-60
1255
2587
1895
-139
-964
-427
-127
-252
-217
-150
-197
-184
-133
-135
-130
-97
-76
-62
-42
-14
15
42
78
133
193
243
285
313
321
319
296
230
142
68
-1
-76
-133
-160
-171
-175
-179
-185
-181
-171
-168
-157
-136
-122
-121
-122
-120
-119
-118
-116
-120
-126
-128
-139
-160
-169
-156
-132
-103
-74
-64
-79
-98
-112
-128
-125
-101
-101
-105
-78
-86
-122
-151
-258
25
1358
2541
1577
-582
-1291
-566
-132
-193
-162
-113
-146
-126
-94
-95
-73
-42
-26
-2
26
46
79
128
183
243
306
360
397
419
430
418
365
283
194
109
26
-45
-97
-133
-153
-162
-172
-180
-173
-159
-153
-147
-135
-125
-118
-110
-103
-94
-87
-89
-94
-96
-111
-128
-124
-109
-96
-74
-56
-68
-94
-108
-117
-118
-107
-115
-126
-97
-93
-130
-162
-260
-24
1236
2476
1646
-520
-1321
-596
-129
-218
-206
-144
-178
-162
-121
-123
-110
-80
-63
-45
-18
10
46
90
138
195
257
313
355
383
395
380
324
237
146
62
-12
-78
-130
-158
-170
-177
-189
-223
-273
-275
-203
-132
-107
-87
-81
-121
-146
-116
-98
-125
-149
-134
-104
-97
-99
-76
-59
-85
-117
-118
-108
-100
-99
-122
-129
-113
-138
-171
-232
-319
252
1821
2627
1146
-798
-979
-270
-140
-264
-185
-156
-196
-178
-163
-149
-122
-121
-102
-39
-1
10
38
77
122
180
238
286
326
350
356
335
275
196
124
54
-23
-86
-121
-142
-155
-161
-157
-144
-134
-131
-134
-133
-127
-118
-112
-105
-100
-101
-103
-106
-121
-138
-133
-109
-91
-72
-47
-45
-74
-101
-114
-114
-95
-84
-98
-87
-68
-103
-146
-240
-199
760
2309
2284
237
-1217
-799
-134
-160
-223
-136
-150
-161
-110
-103
-106
-81
-64
-49
-19
8
36
74
118
166
222
281
333
368
387
383
345
274
194
119
48
-26
-92
-135
-152
-158
-157
-151
-145
-145
-139
-125
-117
-115
-104
-87
-85
-96
-99
-91
-97
-120
-134
-123
-102
-82
-60
-48
-68
-103
-123
-127
-117
-106
-117
-116
-96
-117
-155
-225
-291
326
1842
2444
802
-1099
-1139
-334
-153
-251
-179
-161
-189
-148
-127
-134
-110
-88
-78
-52
-22
5
42
89
139
192
249
303
340
355
355
332
269
184
104
25
-56
-120
-158
-179
-189
-191
-190
-188
-181
-172
-165
-160
-152
-144
-137
-134
-135
-135
-137
-148
-162
-160
-141
-120
-96
-71
-74
-101
-118
-120
-118
-105
-103
-112
-90
-81
-114
-158
-249
-9
1222
2499
1796
-295
-1117
-437
-43
-205
-197
-109
-146
-139
-96
-100
-88
-56
-47
-36
-9
17
44
78
