# session 37
-19
-31
-11
99
134
-20
-137
-101
-83
-119
-109
-96
-121
-116
-99
-102
-115
-236
-131
955
2313
1949
77
-893
-414
5
-95
-138
-88
-111
-106
-76
-89
-94
-67
-43
-31
-22
-10
5
17
27
44
62
88
127
158
174
195
218
233
256
285
276
215
137
63
-14
-84
-131
-160
-177
-178
-175
-171
-158
-154
-162
-150
-125
-127
-136
-122
-116
-125
-119
-110
-114
-114
-109
-102
-87
-89
-116
-120
-93
-87
-109
-115
-96
-81
-63
-20
14
-14
-65
-67
-49
-69
-89
-74
-69
-80
-84
-87
-70
-137
-258
320
1812
2447
1028
-603
-651
-73
-38
-161
-102
-89
-115
-86
-69
-71
-54
-42
-41
-38
-28
-13
4
24
47
68
91
114
127
146
183
208
214
230
251
257
248
198
87
-24
-86
-125
-157
-170
-182
-192
-188
-188
-193
-180
-162
-154
-147
-146
-154
-145
-124
-126
-141
-144
-143
-145
-136
-126
-128
-129
-118
-113
-123
-132
-127
-109
-73
-32
-32
-83
-116
-109
-111
-118
-108
-114
-120
-85
-85
-121
-138
-231
-46
1073
2231
1620
-188
-923
-392
-25
-94
-98
-57
-80
-77
-66
-71
-54
-32
-24
-11
2
14
41
62
62
71
98
123
150
187
223
244
260
279
304
314
283
216
141
64
-22
-97
-140
-160
-169
-168
-166
-172
-176
-162
-144
-135
-131
-124
-121
-127
-130
-120
-102
-98
-109
-113
-105
-103
-105
-101
-97
-98
-91
-69
-40
-8
14
-4
-42
-48
-37
-50
-59
-52
-58
-50
-35
-60
-58
-85
-193
256
1547
2125
818
-742
-817
-196
-33
-93
-49
-49
-75
-49
-45
-66
-55
-30
-17
-7
0
5
14
28
39
52
77
105
131
159
190
212
230
253
276
275
232
157
74
-7
-78
-137
-177
-195
-200
-204
-206
-200
-195
-190
-181
-178
-185
-184
-170
-161
-157
-153
-151
-154
-153
-145
-139
-136
-130
-131
-144
-143
-117
-83
-51
-37
-63
-99
-102
-93
-97
-92
-86
-90
-70
-57
-84
-95
-177
-201
590
2015
2201
622
-615
-406
3
-90
-152
-80
-103
-117
-77
-78
-85
-62
-50
-48
-34
-21
-14
-3
11
26
46
68
89
111
137
164
186
203
220
239
237
193
119
40
-29
-83
-120
-144
-156
-158
-158
-158
-154
-148
-143
-138
-131
-126
-121
-117
-116
-112
-106
-102
-100
-95
-92
-90
-87
-85
-89
-102
-117
-122
-101
-61
-22
-8
-33
-71
-82
-75
-73
-67
-63
-75
-66
-54
-80
-94
-164
-243
378
1785
2268
898
-514
-504
-46
-63
-156
-99
-101
-119
-84
-77
-82
-64
-53
-50
-39
-28
-19
-5
11
28
48
67
88
116
146
170
190
210
231
249
247
210
143
65
-7
-68
-114
-142
-157
-165
-168
-164
-157
-152
-148
-145
-142
-137
-131
-127
-123
-118
-116
-116
-115
-114
-112
-109
-108
-108
-108
-109
-110
-109
-105
-100
-100
-110
-115
-95
-55
-16
-1
-26
-63
-74
-70
-75
-72
-66
-73
-62
-50
-76
-87
-162
-247
369
1752
2206
852
-515
-488
-41
-62
-149
-88
-92
-115
-86
-81
-86
-68
-59
-56
-40
-27
-19
-6
11
28
48
68
85
107
134
161
183
204
224
242
247
219
157
81
11
-49
-97
-125
-140
-148
-149
-145
-143
-142
-135
-127
-123
-122
-121
-117
-112
-109
-107
-104
-101
-99
-95
-94
-96
-96
-92
-89
-88
-87
-84
-81
-80
-79
-76
-73
-71
-65
-64
-75
-84
-72
-37
3
23
4
-36
-54
-54
-59
-55
-47
-56
-49
-31
-52
-70
-146
-238
328
1692
2237
966
-443
-483
-32
-36
-134
-81
-83
-107
-76
-67
-75
-58
-46
-43
-29
-19
-15
-5
10
25
43
61
77
97
121
144
164
183
202
220
230
213
160
90
23
-41
-98
-134
-149
-155
-158
-156
-152
-148
-143
-139
-135
-130
-123
-119
-118
-117
-115
-112
-110
-110
-110
-108
-107
-108
-106
-102
-101
-101
-99
-94
-87
-80
-79
-80
-79
-76
-71
-68
-76
-89
-85
-56
-14
20
18
-23
-55
-52
-49
-56
-52
-55
-58
-41
-51
-76
-100
-215
-34
1071
2202
1647
-3
-652
-213
11
-116
-115
-77
-109
-98
-73
-79
-69
-50
-45
-38
-25
-14
2
16
25
39
61
83
103
125
149
171
191
206
220
236
233
192
126
58
-6
-67
-112
-139
-153
-157
-154
-150
-146
-141
-133
-126
-122
-121
-118
-113
-108
-105
-102
-100
-98
-97
-97
-98
-98
-97
-94
-92
-92
-90
-83
-77
-78
-78
-75
-74
-76
-76
-74
-70
-62
-61
-73
-81
-69
-37
2
28
15
-27
-49
-47
-50
-50
-42
-49
-51
-34
-51
-73
-121
-227
158
1429
2267
1288
-280
-585
-106
-10
-130
-93
-76
-107
-83
-65
-73
-59
-43
-40
-27
-12
-7
1
16
32
47
64
85
107
126
149
171
188
201
216
227
218
176
109
36
-30
-84
-123
-146
-159
-165
-166
-164
-158
-152
-148
-144
-138
-131
-126
-123
-118
-113
-110
-111
-110
-107
-106
-107
-106
-104
-104
-105
-101
-92
-90
-91
-88
-82
-81
-81
-78
-79
-79
-73
-73
-84
-89
-70
-33
3
17
-7
-44
-57
-55
-59
-55
-52
-62
-50
-36
-59
-74
-145
-195
465
1818
2164
755
-551
-459
-16
-52
-133
-75
-86
-105
-73
-68
-73
-54
-44
-40
-25
-12
-2
12
26
38
54
71
91
113
139
165
188
207
225
242
248
225
169
97
24
-44
-97
-131
-152
-164
-167
-163
-160
-157
-152
-144
-138
-133
-126
-119
-114
-109
-104
-100
-99
-100
-100
-100
-100
-99
-98
-98
-99
-96
-93
-92
-89
-85
-83
-82
-78
-73
-71
-77
-89
-87
-57
-15
16
11
-29
-62
-64
-60
-61
-54
-59
-64
-42
-46
-76
-100
-206
-49
1012
2177
1707
55
-662
-233
16
-113
-118
-72
-105
-96
-67
-75
-69
-48
-43
-37
-23
-13
0
17
30
42
61
85
107
131
157
182
201
219
238
253
248
205
135
61
-8
-71
-120
-147
-159
-167
-169
-166
-161
-157
-152
-147
-139
-131
-129
-127
-121
-115
-114
-114
-111
-107
-104
-103
-103
-102
-101
-101
-102
-102
-100
-98
-98
-95
-91
-91
-91
-85
-84
-92
-96
-78
-41
-3
9
-16
-52
-65
-65
-68
-64
-62
-69
-53
-43
-70
-80
-158
-207
492
1841
2093
625
-631
-484
-29
-52
-123
-69
-76
-89
-63
-62
-59
-39
-34
-29
-10
2
9
24
42
58
75
97
122
150
177
199
219
240
262
281
282
249
186
107
25
-48
-101
-137
-160
-171
-172
-169
-166
-162
-157
-150
-143
-136
-130
-125
-119
-116
-114
-111
-110
-110
-109
-108
-107
-105
-105
-105
-104
-102
-101
-99
-97
-96
-93
-90
-97
-107
-104
-78
-38
-8
-12
-44
-72
-78
-81
-83
-73
-75
-82
-63
-65
-92
-109
-215
-105
924
2187
1829
108
-745
-309
14
-111
-132
-78
-107
-103
-71
-78
-74
-55
-50
-42
-24
-14
-6
10
28
42
58
82
112
141
169
199
226
251
274
288
277
229
153
71
-3
-64
-111
-139
-150
-157
-165
-166
-160
-154
-150
-144
-136
-131
-126
-121
-116
-110
-106
-104
-102
-101
-101
-99
-99
-99
-99
-98
-97
-92
-88
-86
-84
-80
-77
-78
-77
-73
-75
-88
-95
-78
-42
-4
11
-13
-52
-64
-60
-65
-63
-58
-68
-59
-46
-72
-88
-156
-226
388
1761
2216
847
-550
-522
-46
-56
-150
-92
-94
-116
-85
-76
-80
-63
-54
-50
-36
-25
-16
-1
14
30
50
70
92
120
151
178
206
236
260
279
286
259
194
114
38
-30
-86
-124
-146
-157
-160
-158
-157
-157
-154
-149
-145
-141
-135
-127
-121
-117
-115
-115
-114
-113
-112
-111
-111
-109
-102
-100
-103
-99
-90
-84
-85
-84
-84
-84
-82
-79
-75
-67
-65
-75
-86
-78
-47
-5
25
12
-30
-53
-48
-50
-54
-45
-51
-54
-33
-41
-72
-109
-205
77
1266
2294
1544
-127
-644
-156
15
-127
-109
-78
-116
-96
-72
-83
-70
-51
-53
-47
-31
-22
-8
11
26
38
55
76
98
122
151
177
196
213
231
245
236
192
121
45
-26
-86
-128
-150
-160
-165
-163
-157
-153
-152
-147
-142
-136
-130
-126
-123
-120
-118
-118
-115
-114
-114
-115
-113
-110
-108
-107
-104
-100
-98
-97
-93
-87
-83
-82
-81
-79
-79
-75
-73
-79
-87
-77
-46
-4
23
8
-38
-62
-57
-57
-61
-56
-62
-57
-35
-53
-80
-115
-227
71
1271
2212
1399
-174
-593
-138
2
-112
-90
-69
-97
-76
-57
-65
-56
-41
-34
-24
-14
-3
15
29
44
69
93
105
120
151
187
210
223
238
259
274
263
211
131
48
-22
-72
-113
-151
-175
-174
-164
-163
-166
-162
-153
-147
-144
-139
-131
-125
-125
-129
-128
-118
-112
-114
-113
-107
-104
-103
-100
-100
-106
-111
-107
-100
-94
-89
-83
-85
-95
-93
-70
-40
-16
-6
-27
-65
-79
-76
-83
-78
-75
-91
-78
-61
-94
-85
-101
-136
477
1714
1866
289
-1040
-831
-200
-70
-88
-31
-31
-40
-17
-15
-14
8
21
20
25
41
61
77
91
112
134
156
181
209
241
278
312
337
362
383
380
339
263
166
69
-15
-79
-122
-151
-174
-181
-175
-170
-166
-159
-154
-148
-141
-140
-138
-129
-120
-119
-119
-118
-119
-119
-120
-123
-118
-113
-119
-126
-127
-125
-117
-103
-101
-113
-117
-97
-54
-23
-39
-75
-89
-95
-117
-121
-97
-101
-116
-86
-87
-123
-99
-167
-116
835
2072
1625
-269
-1182
-620
-116
-118
-102
-50
-75
-64
-43
-54
-38
-11
-13
-11
7
20
33
49
62
83
114
142
168
202
239
270
300
332
360
374
355
292
202
109
20
-59
-114
-145
-162
-174
-181
-179
-171
-167
-166
-158
-145
-136
-133
-126
-116
-111
-114
-115
-109
-102
-105
-111
-111
-108
-108
-110
-109
-105
-98
-100
-112
-112
-90
-56
-25
-14
-39
-72
-81
-77
-76
-68
-66
-79
-65
-51
-79
-96
-175
-207
549
1998
2286
716
-664
-532
-48
-82
-161
-95
-104
-123
-87
-80
-85
-65
-54
-51
-39
-31
-26
-11
8
24
40
61
88
119
148
175
204
234
257
274
275
237
162
75
-5
-75
-128
-160
-174
-178
-177
-177
-175
-173
-174
-172
-164
-158
-158
-157
-154
-153
-151
-145
-143
-146
-143
-136
-130
-129
-128
-125
-122
-120
-114
-109
-114
-121
-114
-84
-43
-18
-30
-64
-83
-80
-79
-78
-68
-69
-74
-54
-49
-78
-112
-191
44
1180
2381
1879
141
-627
-199
23
-144
-141
-78
-115
-105
-69
-77
-69
-48
-49
-45
-30
-21
-10
7
22
35
51
71
94
121
151
182
208
230
253
270
254
196
117
40
-30
-86
-124
-142
-147
-151
-152
-145
-141
-143
-143
-139
-136
-134
-133
-133
-131
-129
-127
-128
-129
-127
-121
-117
-114
-110
-107
-107
-106
-101
-96
-93
-91
-87
-84
-84
-81
-77
-80
-91
-97
-81
-43
-5
4
-22
-54
-63
-61
-65
-60
-57
-70
-61
-41
-59
-85
-165
-179
546
1940
2278
834
-497
-412
5
-73
-166
-96
-105
-125
-87
-80
-86
-66
-54
-50
-37
-27
-17
-2
11
23
40
62
83
105
129
156
182
205
225
243
250
227
170
95
20
-45
-95
-127
-143
-149
-150
-147
-140
-133
-129
-127
-124
-121
-117
-115
-114
-114
-114
-114
-112
-109
-105
-104
-102
-99
-100
-104
-105
-101
-98
-99
-98
-91
-86
-85
-84
-82
-79
-75
-73
-71
-66
-71
-83
-79
-50
-11
17
11
-27
-54
-53
-52
-56
-49
-51
-61
-41
-41
-72
-88
-177
-78
882
2098
1788
128
-727
-314
17
-94
-118
-66
-96
-95
-66
-70
-64
-43
-36
-27
-12
-2
8
20
33
50
68
85
107
133
157
178
202
225
243
261
267
235
171
99
31
-33
-84
-116
-135
-146
-149
-144
-139
-138
-137
-132
-125
-119
-117
-118
-118
-117
-116
-113
-109
-108
-108
-107
-107
-106
-106
-105
-100
-95
-95
-97
-95
-91
-90
-88
-85
-85
-83
-77
-76
-88
-95
-79
-44
-3
16
-6
-45
-58
-53
-58
-55
-49
-61
-58
-36
-54
-72
-118
-195
274
1540
2162
993
-490
-614
-93
-18
-124
-81
-73
-100
-75
-65
-74
-58
-43
-38
-24
-10
-5
5
21
40
58
77
97
120
142
164
188
210
229
246
257
245
199
131
56
-14
-71
-112
-139
-152
-158
-160
-157
-149
-143
-139
-133
-127
-123
-121
-119
-118
-118
-118
-117
-116
-117
-117
-116
-114
-115
-115
-111
-108
-108
-105
-99
-96
-96
-92
-86
-92
-104
-99
-66
-17
11
-6
-48
-69
-64
-65
-67
-60
-67
-71
-49
-58
-80
-105
-205
47
1185
2161
1401
-239
-728
-210
3
-120
-108
-72
-102
-87
-64
-72
-64
-48
-42
-31
-18
-12
0
18
33
49
68
89
112
134
156
179
200
217
237
254
247
204
137
65
-3
-65
-111
-138
-153
-159
-158
-151
-145
-141
-135
-130
-126
-122
-120
-115
-108
-103
-104
-104
-100
-99
-98
-95
-93
-94
-91
-85
-83
-82
-80
-76
-73
-75
-84
-89
-76
-44
-5
18
0
-41
-60
-57
-57
-54
-50
-62
-60
-39
-56
-73
-108
-205
175
1412
2192
1169
-399
-665
-134
-4
-117
-81
-61
-94
-72
-51
-59
-49
-33
-29
-19
-5
4
15
31
48
65
83
101
122
148
176
199
215
233
254
265
249
200
130
53
-18
-75
-117
-144
-159
-165
-165
-158
-149
-146
-144
-139
-134
-131
-129
-127
-125
-122
-119
-118
-119
-119
-120
-119
-118
-117
-117
-114
-113
-117
-117
-109
-109
-123
-127
-108
-75
-41
-31
-60
-98
-109
-107
-113
-108
-103
-115
-107
-93
-116
-130
-196
-257
351
1666
2053
686
-659
-600
-109
-101
-193
-145
-149
-169
-140
-135
-142
-127
-118
-113
-99
-90
-83
-70
-57
-45
-27
-9
6
24
47
71
