# session 15
4
-87
210
151
-874
-1949
-2114
-1879
-1881
-1899
-1797
-1749
-1730
-1677
-1638
-1601
-1548
-1502
-1457
-1402
-1351
-1298
-1226
-1154
-1106
-1069
-1029
-987
-938
-894
-866
-835
-860
-874
-490
185
236
-529
-1059
-852
-528
-449
-414
-369
-366
-346
-299
-272
-247
-215
-187
-143
-73
-13
34
114
203
211
152
112
99
85
78
55
-5
-41
-21
-8
-28
-26
7
13
-36
-110
-175
-205
-181
-126
-80
-47
-7
28
45
67
92
105
141
191
222
268
273
221
493
1169
1389
707
57
151
473
537
527
563
551
519
523
527
507
473
447
453
474
481
495
544
601
611
580
552
522
465
401
327
237
192
206
203
179
192
208
166
109
92
102
112
120
129
131
127
121
120
131
140
124
93
91
97
81
97
77
-68
74
793
1201
478
-495
-596
-189
-3
7
28
5
-33
-32
-41
-78
-109
-124
-124
-108
-81
-50
-10
37
59
33
-17
-68
-143
-242
-327
-392
-451
-477
-461
-438
-424
-405
-383
-366
-356
-346
-325
-307
-317
-345
-369
-367
-329
-291
-286
-292
-310
-336
-312
-269
-277
-324
-371
-172
461
843
227
-638
-665
-237
-122
-177
-139
-124
-131
-91
-84
-123
-117
-80
-74
-65
-11
40
57
70
82
71
39
0
-38
-81
-137
-182
-200
-210
-218
-211
-185
-160
-147
-140
-124
-105
-95
-95
-105
-118
-103
-64
-39
-26
-16
-34
-74
-78
-58
-68
-71
-68
-143
-61
488
946
493
-375
-590
-269
-91
-72
-22
-8
-10
48
101
130
189
245
270
306
360
403
458
529
563
543
505
473
430
360
278
226
195
146
99
95
112
112
104
95
77
70
93
118
102
59
42
70
108
115
104
88
62
60
99
105
79
68
-8
45
651
1280
836
-264
-627
-237
19
38
87
110
100
127
139
132
144
146
166
228
265
276
322
375
395
404
389
322
234
145
59
-16
-85
-146
-172
-174
-177
-179
-174
-169
-159
-154
-180
-211
-204
-198
-247
-300
-306
-309
-325
-321
-347
-424
-451
-442
-475
-506
-580
-592
-68
660
361
-830
-1354
-927
-577
-569
-528
-464
-477
-486
-488
-514
-511
-460
-403
-346
-264
-162
-76
-3
66
104
112
105
75
42
30
0
-45
-48
-19
-18
-31
-27
-2
32
38
10
5
34
42
17
-4
-5
3
4
-6
-13
-24
-18
34
71
87
124
78
142
796
1479
1016
-82
-355
53
195
146
211
202
146
221
295
265
241
268
310
353
380
409
476
546
562
526
478
436
387
317
245
190
162
163
178
177
164
152
128
83
47
28
-1
-41
-69
-89
-105
-104
-98
-110
-127
-137
-154
-146
-107
-100
-117
-142
-250
-178
450
1018
555
-417
-666
-300
-121
-163
-141
-92
-87
-85
-76
-71
-54
-14
41
79
100
127
166
200
228
239
210
160
120
72
5
-45
-67
-83
-98
-105
-110
-117
-123
-125
-133
-154
-178
-205
-234
-250
-254
-261
-269
-287
-313
-316
-292
-254
-207
-169
-139
-158
-239
-39
650
1032
408
-418
-501
-236
-208
-274
-280
-314
-351
-352
-359
-369
-365
-366
-361
-330
-293
-259
-208
-149
-115
-114
-132
-157
-190
-233
-270
-287
-298
-303
-290
-286
-304
-307
-293
-292
-299
-300
-291
-273
-265
-265
-225
-138
-62
-22
15
55
77
97
134
158
184
226
180
184
676
1349
1162
170
-359
-36
335
360
338
401
430
410
409
423
418
417
444
469
481
522
590
630
637
630
595
539
485
421
339
260
187
128
110
120
124
123
128
129
122
101
64
34
21
15
6
4
12
21
7
-29
-47
-31
-7
-9
-42
-70
-128
-228
-24
643
950
260
-540
-517
-146
-63
-91
-53
-57
-87
-87
-101
-118
-95
-58
-47
-49
-17
42
82
94
108
110
68
7
-40
-93
-153
-187
-201
-223
-232
-229
-249
-273
-272
-282
-307
-300
-274
-285
-319
-329
-324
-327
-320
-297
-289
-307
-329
-338
-334
-344
-387
-439
-535
-577
-205
407
372
-374
-792
-556
-327
-332
-316
-275
-272
-233
-182
-168
-137
-75
-19
44
119
184
259
359
440
476
492
496
475
423
352
291
259
251
258
268
263
247
230
204
172
136
79
5
-58
-101
-120
-121
-131
-144
-125
-95
-102
-127
-117
-90
-109
-150
-178
-273
-267
215
737
345
-630
-958
-585
-327
-324
-295
-265
-290
-286
-243
-204
-164
-118
-81
-51
0
87
183
260
316
348
337
303
284
260
200
142
119
88
43
39
69
77
67
69
67
57
62
80
84
72
61
69
103
140
157
177
205
210
212
219
192
178
178
118
318
1029
1389
583
-453
-536
-113
14
-17
40
67
61
104
140
136
141
172
207
246
307
391
454
476
478
460
412
355
298
225
149
83
22
-26
-39
-32
-42
-64
-68
-58
-55
-59
-73
-96
-109
-115
-134
-149
-148
-161
-196
-215
-219
-228
-220
-209
-233
-263
-338
-434
-143
578
753
-80
-818
-683
-322
-269
-274
-206
-190
-203
-195
-196
-195
-152
-94
-71
-49
37
148
208
234
259
263
234
192
148
109
55
-29
-100
-128
-136
-143
-142
-138
-139
-153
-177
-187
-180
-187
-220
-263
-311
-351
-366
-379
-414
-442
-444
-439
-447
-471
-481
-465
-488
-416
2
348
-82
-864
-1010
-637
-453
-486
-472
-445
-450
-434
-411
-387
-331
-247
-159
-78
-4
78
177
269
329
361
372
361
341
324
310
293
278
274
284
292
294
311
337
343
334
336
347
346
335
326
317
303
305
337
361
348
334
329
307
293
306
307
306
260
190
508
1235
1332
375
-418
-262
116
172
160
187
169
163
172
161
168
184
177
186
230
273
308
353
396
408
384
345
297
226
150
88
17
-52
-87
-99
-108
-106
-109
-121
-117
-105
-124
-156
-159
-147
-150
-169
-194
-203
-185
-171
-177
-181
-192
-218
-235
-250
-261
-266
-341
-274
321
888
379
-733
-1046
-583
-299
-305
-270
-246
-281
-267
-228
-234
-235
-196
-157
-143
-117
-57
8
55
91
102
67
19
0
-25
-105
-190
-216
-214
-232
-248
-249
-247
-237
-213
-192
-189
-198
-207
-199
-167
-144
-158
-168
-145
-128
-131
-116
-106
-136
-150
-118
-99
-88
-93
-180
-55
604
1073
444
-550
-668
-214
-45
-86
-35
5
-6
14
39
51
74
99
117
146
184
231
301
363
373
350
330
301
250
201
161
115
68
42
42
46
38
34
45
57
56
55
58
53
41
32
23
14
15
33
51
53
44
30
12
13
31
25
18
3
-69
113
789
1178
527
-336
-375
-17
58
18
62
71
57
81
88
80
98
130
153
175
211
266
319
351
364
359
334
293
235
163
96
46
7
-27
-58
-79
-80
-76
-90
-110
-118
-125
-143
-162
-173
-184
-199
-213
-218
-213
-201
-194
-204
-229
-257
-282
-284
-277
-297
-315
-342
-405
-219
346
570
-63
-741
-693
-379
-329
-363
-332
-329
-331
-299
-283
-277
-250
-224
-198
-147
-83
-27
33
101
148
158
144
121
100
78
37
-11
-35
-40
-52
-61
-51
-32
-20
-21
-22
-14
-6
-9
-23
-31
-24
-12
-14
-26
-16
12
21
15
16
3
-19
-8
3
-1
8
-63
-55
496
1162
796
-300
-665
-213
62
30
81
152
136
143
177
191
208
227
249
300
360
401
441
497
540
540
510
472
424
359
280
205
144
96
60
49
51
43
32
31
31
30
20
1
-12
-15
-30
-44
-41
-54
-87
-85
-58
-61
-79
-95
-126
-137
-129
-155
-170
-188
-263
-38
659
887
2
-896
-787
-304
-183
-201
-139
-124
-147
-136
-131
-142
-133
-116
-108
-90
-55
-19
15
49
68
63
37
-3
-44
-78
-118
-168
-206
-219
-226
-239
-241
-227
-216
-216
-215
-212
-214
-220
-224
-227
-227
-218
-220
-236
-222
-179
-174
-197
-192
-200
-220
-175
-166
-243
-198
9
336
865
1096
503
-109
94
419
221
-17
21
69
62
82
84
66
78
103
114
118
134
164
194
220
237
234
216
194
168
139
111
84
64
56
51
49
45
35
28
27
19
12
15
14
0
-13
-18
-26
-34
-41
-40
-17
7
-6
-41
-58
-55
-48
-58
-73
-76
-155
-197
234
907
792
-130
-625
-342
-79
-106
-109
-70
-81
-74
-46
-43
-34
-6
20
43
74
113
156
190
207
203
183
154
121
84
40
-6
-47
-76
-90
-98
-105
-108
-108
-115
-127
-136
-135
-138
-151
-160
-154
-156
-167
-171
-162
-142
-112
-100
-120
-141
-148
-145
-135
-136
-135
-129
-213
-242
185
769
579
-259
-626
-328
-93
-106
-95
-60
-70
-65
-42
-30
-10
19
39
63
103
151
200
249
284
293
284
276
263
236
199
154
109
82
75
72
66
64
67
65
55
45
42
39
33
23
14
5
-2
-5
-4
6
23
30
16
-1
-19
-38
-33
-24
-39
-43
-80
-167
36
615
765
57
-592
-473
-132
-70
-90
-55
-51
-58
-43
-38
-35
-21
-4
17
43
67
99
140
171
178
164
145
128
101
53
-3
-49
-79
-101
-122
-137
-141
-136
-129
-130
-135
-133
-129
-132
-142
-146
-144
-140
-130
-116
-102
-84
-73
-79
-93
-108
-110
-92
-87
-94
-96
-173
-149
352
884
499
-439
-705
-299
-61
-82
-56
-24
-43
-31
3
13
23
46
69
95
134
184
228
260
283
292
278
248
218
177
111
36
-14
-40
-59
-73
-73
-76
-80
-67
-54
-67
-88
-90
-71
-52
-54
-71
-82
-82
-65
-31
-20
-41
-43
-35
-52
-55
-49
-57
-46
-93
-117
334
1006
776
-317
-849
-451
-66
-44
-42
1
1
8
27
30
38
54
77
111
148
187
241
292
320
328
313
274
226
179
121
52
-10
-54
-79
-85
-84
-93
-105
-101
-94
-102
-111
-106
-102
-111
-124
-124
-123
-136
-138
-110
-88
-97
-113
-126
-134
-128
-129
-129
-128
-224
-224
302
904
527
-508
-840
-398
-119
-149
-128
-82
-94
-83
-59
-55
-39
-9
15
46
90
140
197
246
265
262
250
222
174
119
73
38
3
-32
-45
-39
-32
-24
-9
2
4
7
8
-1
-9
-8
-6
-8
-12
-16
0
28
34
15
-4
-18
-10
7
-8
-19
-47
-144
29
706
1067
397
-423
-410
-49
4
-50
-7
15
4
16
31
39
44
53
86
128
156
186
233
268
269
253
228
186
141
100
47
-11
-48
-69
-85
-89
-89
-100
-108
-107
-118
-137
-142
-146
-165
-186
-195
-199
-204
-203
-187
-160
-154
-177
-203
-219
-224
-215
-217
-228
-237
-318
-326
109
655
422
-387
-683
-375
-179
-198
-166
-123
-130
-117
-89
-75
-52
-20
6
41
91
142
187
230
270
287
272
247
220
175
116
61
17
-13
-24
-24
-25
-28
-29
-26
-23
-33
-43
-34
-21
-24
-36
-51
-61
-58
-55
-59
-39
-5
0
-15
-27
-44
-52
-45
-58
-61
-54
-149
-89
516
1022
450
-587
-781
-305
-58
-68
-23
17
8
25
48
61
86
104
122
172
228
279
340
386
404
414
414
392
357
303
219
125
66
46
23
-7
-10
2
1
4
13
8
0
-3
-9
-17
-26
-40
-51
-51
-52
-58
-59
-51
-40
-41
-61
-90
-91
-70
-84
-104
-89
-157
-155
369
979
565
-564
-951
-468
-122
-122
-100
-67
-90
-73
-48
-54
-36
-8
-4
24
83
127
163
212
247
250
236
212
177
125
53
-22
-78
-117
-144
-158
-161
-152
-139
-137
-142
-142
-139
-137
-135
-143
-157
-159
-154
-155
-153
-152
-159
-149
-117
-104
-121
-138
-149
-150
-135
-141
-148
-149
-232
-163
436
961
432
-585
-790
-333
-106
-131
-98
-73
-87
-66
-46
-41
-15
12
30
65
110
156
208
259
292
298
277
244
211
168
112
63
28
-1
-18
-15
-6
1
12
21
26
29
30
28
25
19
9
1
-8
-22
-36
-40
-38
-39
-36
-15
8
7
-13
-31
-45
-41
-36
-60
-67
-83
-142
87
760
1036
298
-523
-492
-123
-55
-93
-59
-61
-69
-34
-25
-33
-4
37
67
108
161
217
276
328
354
355
333
292
241
188
134
82
32
-10
-32
-30
-28
-36
-40
-37
-40
-48
-50
-54
-57
-53
-56
-68
-71
-66
-71
-77
-81
-90
-91
-76
-63
-61
-62
-74
-91
-108
-120
-116
-116
-137
-135
-153
-191
71
620
641
-136
-728
-557
-224
-162
-157
-114
-116
-115
-81
-67
-58
-29
-2
21
59
111
173
241
301
344
365
357
323
275
222
160
84
12
-29
-39
-45
-58
-60
-48
-40
-42
-50
-56
-56
-50
-52
-65
-77
-86
-93
-98
-107
-116
-118
-125
-138
-139
-127
-116
-103
-93
-92
-97
-117
-135
-122
-123
-147
-118
-122
-130
312
1020
844
-294
-960
-650
-251
-172
-142
-108
-112
-93
-79
-86
-59
-19
2
25
59
107
188
274
328
358
366
339
288
221
142
62
-10
-63
-98
-135
-164
-159
-137
-127
-122
-120
-121
-107
-92
-109
-138
-131
-107
-112
-131
-131
-126
-129
-126
-121
-123
-110
-81
-77
-97
-106
-107
-99
-72
-68
-76
-62
-110
-5
663
1278
723
-444
-749
-274
14
52
130
177
194
255
282
276
314
348
345
378
441
466
471
500
536
525
431
301
214
158
81
-4
-65
-111
-164
-221
-269
-330
-383
-352
-271
-213
-140
-67
-54
-70
-115
-174
-70
155
175
1
-27
86
47
-101
-46
198
318
227
104
81
176
333
404
296
132
2
-118
71
705
912
121
-652
-585
-278
-188
-78
6
-88
-156
-158
-286
-500
-621
-607
-578
-671
-812
-836
-789
-716
-524
-347
-372
-423
-321
-185
-122
