# session 28
19
-50
161
-42
-644
-608
-202
-670
-1565
-1634
-1177
-1010
-1010
-928
-884
-871
-812
-761
-730
-688
-651
-620
-576
-532
-498
-464
-429
-388
-339
-294
-253
-206
-152
-93
-33
21
68
106
129
134
121
90
43
-12
-64
-101
-124
-134
-132
-126
-124
-120
-107
-89
-72
-55
-39
-23
-12
-4
7
19
27
33
40
47
55
60
61
64
69
72
74
79
84
84
83
84
86
86
89
95
98
93
90
90
90
88
86
79
65
59
68
83
100
119
125
112
89
73
72
72
61
66
71
48
43
37
59
415
990
917
67
-467
-245
19
-1
-15
20
1
-14
-4
-4
0
11
8
2
2
-3
-2
15
32
37
39
47
63
87
120
159
197
214
220
240
254
231
190
153
105
45
-13
-65
-105
-119
-118
-127
-136
-125
-110
-109
-103
-86
-72
-67
-65
-62
-52
-42
-41
-41
-35
-31
-36
-42
-41
-34
-34
-43
-50
-51
-52
-56
-56
-53
-54
-61
-65
-66
-70
-78
-83
-87
-97
-110
-114
-102
-86
-76
-66
-52
-47
-63
-85
-86
-79
-90
-92
-78
-92
-95
-81
-95
130
757
997
225
-638
-610
-194
-80
-103
-65
-64
-79
-58
-47
-49
-37
-29
-26
-16
-9
-6
7
25
39
50
68
96
127
156
193
236
270
290
308
321
314
285
231
158
84
19
-35
-73
-94
-109
-122
-129
-130
-125
-113
-104
-104
-103
-93
-86
-82
-75
-69
-69
-70
-71
-75
-76
-72
-73
-75
-73
-73
-73
-66
-63
-69
-71
-63
-61
-66
-67
-62
-60
-65
-69
-72
-79
-75
-59
-41
-23
-6
1
-5
-19
-27
-23
-25
-29
-12
-12
-31
-23
-31
78
601
1091
678
-254
-535
-185
2
-43
-32
-4
-19
-12
3
2
9
18
15
18
28
36
44
53
61
71
87
112
139
162
191
227
258
281
301
312
305
278
229
164
94
28
-27
-68
-94
-111
-124
-129
-127
-124
-124
-123
-118
-111
-106
-102
-100
-101
-98
-93
-91
-92
-94
-94
-91
-88
-93
-100
-97
-91
-89
-90
-91
-92
-92
-90
-88
-90
-99
-104
-102
-104
-107
-97
-81
-67
-47
-30
-33
-50
-61
-57
-53
-59
-54
-44
-55
-56
-53
-61
194
800
984
266
-452
-387
-67
-33
-71
-37
-40
-52
-30
-23
-24
-11
-4
-3
5
15
22
30
38
51
71
90
107
133
163
195
230
262
282
293
299
289
253
197
130
63
6
-38
-69
-90
-102
-109
-112
-108
-103
-102
-97
-89
-85
-84
-80
-75
-72
-68
-66
-68
-70
-68
-67
-69
-72
-74
-74
-73
-70
-67
-67
-68
-67
-67
-67
-63
-61
-61
-60
-60
-64
-68
-74
-75
-61
-41
-24
-8
2
-5
-23
-31
-24
-22
-28
-20
-19
-33
-25
-36
14
431
961
754
-98
-505
-234
-7
-37
-42
-12
-27
-29
-12
-13
-11
2
6
8
14
19
22
29
40
52
64
80
104
132
158
185
217
244
260
266
265
247
207
151
89
27
-27
-66
-93
-111
-120
-122
-122
-121
-117
-110
-106
-102
-97
-94
-94
-93
-90
-89
-90
-89
-88
-88
-93
-98
-94
-86
-84
-90
-94
-95
-98
-95
-87
-81
-82
-81
-76
-78
-84
-84
-86
-97
-101
-86
-68
-58
-42
-23
-26
-49
-65
-58
-51
-60
-57
-47
-61
-57
-55
-75
188
791
904
105
-612
-493
-126
-49
-60
-26
-33
-39
-15
-9
-13
-5
6
13
19
26
35
41
53
79
104
117
133
164
200
232
264
299
330
348
351
344
321
273
205
135
70
13
-28
-52
-72
-87
-86
-74
-71
-73
-69
-63
-63
-59
-50
-46
-51
-54
-52
-51
-53
-59
-60
-57
-59
-64
-57
-47
-54
-67
-70
-71
-78
-80
-67
-42
-19
-11
-15
-22
-34
-50
-50
-46
-53
-46
-39
-58
-47
-38
-11
394
1064
976
-71
-778
-528
-132
-76
-73
-26
-37
-48
-28
-25
-27
-19
-13
-4
7
8
13
26
34
44
69
94
108
129
165
202
234
267
290
293
290
279
233
156
81
10
-66
-128
-162
-183
-199
-204
-204
-207
-205
-196
-191
-192
-191
-191
-191
-187
-181
-183
-192
-194
-185
-184
-192
-194
-190
-190
-192
-193
-191
-189
-193
-197
-183
-161
-145
-130
-116
-122
-144
-151
-138
-129
-134
-127
-115
-130
-124
-99
-119
85
701
975
258
-591
-583
-174
-60
-77
-16
-2
-16
29
58
35
33
81
141
175
166
143
136
137
134
135
141
144
147
160
175
177
173
181
188
179
165
148
100
38
-3
-33
-62
-65
-56
-70
-79
-74
-78
-64
-3
58
95
138
191
230
263
307
361
401
421
441
471
495
513
535
546
549
559
547
521
540
567
530
479
475
477
466
456
414
355
336
336
315
297
265
200
151
89
52
285
620
361
-486
-1010
-917
-797
-914
-1016
-1042
-1121
-1236
-1278
-1270
-1334
-1416
-1266
-855
-493
-350
-296
-239
-207
-183
-148
-124
-106
-78
-41
5
49
77
104
143
174
180
146
87
58
15
-166
-423
-557
-537
-481
-432
-371
-311
-264
-215
-157
-108
-68
-19
31
44
31
48
103
154
176
182
180
153
104
71
63
59
51
49
50
40
16
0
6
6
-11
0
30
20
23
59
66
236
686
850
323
-246
-227
52
164
182
207
211
220
244
257
274
296
290
266
261
271
268
256
253
249
241
243
253
259
269
285
298
306
310
306
296
284
256
196
122
62
14
-33
-68
-85
-87
-79
-72
-71
-62
-47
-38
-33
-30
-29
-26
-18
-9
-7
-16
-29
-35
-43
-60
-63
-41
-29
-41
-51
-60
-88
-120
-138
-142
-146
-156
-156
-151
-161
-154
-154
-176
43
548
660
37
-534
-463
-197
-146
-157
-138
-153
-164
-147
-151
-173
-177
-162
-143
-125
-116
-109
-98
-80
-62
-45
-24
3
35
72
108
135
162
189
208
216
206
165
102
41
-15
-68
-110
-141
-159
-158
-157
-170
-180
-172
-159
-157
-160
-148
-122
-110
-116
-114
-107
-116
-121
-109
-103
-108
-92
-62
-51
-50
-34
-24
-45
-67
-66
-59
-65
-62
-42
-47
-60
-35
-56
-4
481
1026
700
-251
-626
-297
-41
-32
-15
4
-9
4
17
11
24
42
39
35
44
54
60
72
89
102
114
136
169
201
232
264
293
316
331
336
327
303
254
176
90
26
-19
-58
-84
-94
-105
-112
-110
-109
-111
-105
-91
-79
-72
-67
-66
-62
-55
-53
-58
-58
-54
-59
-64
-50
-28
-16
-12
-13
-23
-40
-55
-54
-48
-61
-71
-67
-75
-70
-68
-81
185
784
916
160
-534
-435
-105
-57
-78
-41
-43
-52
-32
-29
-32
-17
-9
-13
-6
7
13
15
25
40
55
69
93
124
151
174
205
234
248
254
250
224
177
118
55
-6
-60
-99
-122
-136
-142
-142
-141
-140
-135
-129
-125
-125
-126
-122
-116
-113
-108
-106
-111
-114
-112
-113
-116
-121
-125
-117
-98
-85
-74
-54
-45
-59
-76
-77
-70
-75
-82
-67
-58
-73
-68
-76
-52
297
810
697
-76
-505
-269
-25
-38
-50
-23
-32
-31
-15
-16
-14
-3
-2
-3
3
14
24
27
33
46
62
75
91
120
159
190
207
222
239
246
237
213
168
109
49
-8
-56
-87
-104
-117
-126
-132
-136
-135
-128
-123
-123
-119
-105
-95
-100
-104
-98
-91
-90
-88
-86
-83
-80
-82
-87
-85
-84
-90
-87
-69
-64
-83
-96
-80
-50
-32
-22
-3
18
20
3
-5
0
-3
-5
9
3
-9
8
-10
91
620
1110
678
-282
-576
-208
20
-1
10
31
17
29
47
44
46
50
45
46
49
53
67
79
82
91
110
130
153
183
209
232
261
283
289
291
288
263
214
153
88
26
-21
-55
-84
-108
-116
-107
-95
-93
-97
-96
-92
-91
-90
-88
-91
-96
-96
-98
-99
-97
-99
-106
-109
-111
-120
-130
-133
-140
-149
-151
-146
-141
-137
-135
-139
-146
-154
-161
-160
-146
-130
-117
-99
-80
-81
-99
-106
-94
-91
-102
-93
-83
-103
-99
-91
-92
190
776
862
107
-524
-385
-64
-24
-46
-16
-19
-21
0
2
0
13
21
23
23
25
32
45
55
63
79
100
120
142
171
204
234
260
278
292
301
292
259
213
160
104
54
19
-10
-35
-47
-47
-45
-48
-48
-44
-41
-41
-40
-36
-35
-36
-36
-34
-32
-35
-39
-38
-34
-36
-40
-37
-32
-33
-37
-37
-36
-37
-40
-41
-40
-42
-44
-46
-50
-56
-57
-56
-59
-64
-65
-68
-79
-90
-91
-88
-92
-99
-103
-103
-103
-109
-113
-114
-119
-126
-123
-115
-111
-107
-101
-102
-112
-111
-91
-68
-48
-23
-7
-16
-25
-14
-10
-13
10
28
16
31
38
89
487
1012
815
-38
-457
-196
38
36
50
69
50
67
90
77
73
83
78
75
82
85
87
92
94
97
111
128
143
162
189
213
236
262
279
284
284
271
236
188
129
60
-1
-40
-73
-111
-135
-138
-139
-146
-144
-133
-129
-129
-125
-121
-121
-116
-110
-107
-105
-103
-107
-112
-113
-115
-123
-125
-117
-118
-129
-131
-122
-116
-114
-109
-99
-93
-97
-99
-93
-86
-83
-77
-73
-73
-71
-66
-64
-66
-68
-63
-50
-46
-56
-59
-55
-61
-69
-61
-42
-26
-11
3
-1
-23
-33
-29
-39
-45
-25
-29
-43
-29
-42
104
681
1106
545
-417
-611
-216
-26
-46
-12
8
-9
8
26
22
27
39
42
43
47
50
57
69
82
91
104
128
152
175
203
238
272
297
313
321
321
304
261
202
137
75
24
-17
-49
-72
-80
-83
-87
-88
-83
-76
-70
-68
-71
-72
-70
-70
-73
-79
-85
-88
-88
-90
-92
-90
-88
-90
-94
-95
-92
-87
-86
-86
-85
-84
-85
-86
-87
-88
-86
-84
-86
-86
-82
-79
-80
-82
-85
-88
-90
-91
-92
-91
-92
-95
-100
-100
-91
-75
-57
-39
-27
-35
-54
-60
-54
-62
-66
-48
-48
-55
-43
-53
94
619
972
464
-327
-440
-110
5
-36
-13
2
-11
2
14
12
20
26
26
33
42
50
60
70
77
86
102
120
142
166
192
223
253
278
295
302
300
286
251
195
129
70
21
-17
-41
-58
-71
-79
-80
-81
-85
-82
-76
-75
-73
-68
-69
-72
-70
-67
-68
-67
-64
-63
-65
-66
-64
-62
-61
-61
-63
-63
-63
-64
-63
-63
-64
-66
-64
-61
-60
-60
-57
-54
-54
-55
-54
-54
-55
-54
-51
-49
-50
-55
-62
-67
-63
-47
-28
-15
-4
-2
-22
-43
-39
-36
-48
-42
-35
-54
-53
-55
-33
302
832
754
-28
-505
-292
-42
-49
-61
-31
-44
-46
-24
-21
-20
-10
-7
-7
1
8
12
22
36
49
65
85
103
125
156
191
218
242
265
278
278
268
245
201
136
69
13
-34
-75
-100
-111
-120
-128
-127
-124
-125
-125
-123
-118
-109
-101
-99
-98
-99
-100
-96
-94
-98
-100
-94
-91
-94
-92
-86
-85
-85
-79
-77
-79
-75
-72
-78
-78
-72
-75
-72
-60
-61
-75
-76
-61
-45
-28
-11
-6
-19
-42
-49
-41
-42
-39
-26
-34
-35
-22
-32
191
803
1066
339
-551
-597
-184
-18
-27
-5
-3
-14
5
13
7
11
18
28
42
56
69
80
87
99
116
131
145
171
204
234
269
306
332
346
354
352
326
273
200
118
42
-15
-56
-92
-118
-129
-131
-133
-133
-129
-123
-119
-116
-111
-108
-108
-109
-110
-109
-107
-105
-105
-105
-104
-102
-102
-106
-107
-103
-98
-98
-102
-102
-97
-97
-103
-103
-102
-109
-104
-81
-59
-47
-37
-38
-60
-75
-65
-61
-66
-51
-45
-66
-62
-72
-42
368
960
805
-121
-639
-365
-61
-51
-53
-21
-32
-29
-7
-10
-11
4
10
9
16
25
35
46
53
59
73
93
113
134
162
197
232
260
276
281
281
268
232
176
110
48
-5
-48
-82
-104
-116
-121
-121
-116
-112
-113
-110
-102
-98
-96
-90
-88
-90
-88
-84
-85
-86
-88
-89
-87
-85
-84
-81
-80
-84
-85
-81
-79
-78
-75
-77
-81
-82
-86
-91
-83
-62
-42
-26
-14
-13
-28
-44
-41
-36
-43
-36
-25
-38
-38
-41
-28
282
821
807
50
-481
-306
-38
-36
-54
-18
-22
-25
-8
-7
-9
3
11
15
23
30
37
45
57
72
86
102
123
148
176
207
238
264
283
292
289
274
239
184
121
60
6
-36
-63
-83
-100
-109
-108
-105
-105
-102
-97
-92
-89
-87
-86
-86
-85
-82
-78
-76
-76
-75
-75
-74
-71
-69
-73
-73
-68
-64
-67
-69
-66
-64
-65
-67
-72
-80
-85
-82
-68
-49
-31
-16
-9
-18
-40
-51
-44
-45
-49
-40
-46
-51
-41
-63
75
586
914
393
-386
-481
-143
-20
-54
-34
-26
-39
-22
-15
-23
-15
-2
-2
1
10
16
23
35
48
59
70
87
112
139
165
195
230
258
271
274
273
257
217
154
86
26
-24
-63
-90
-107
-117
-124
-128
-127
-119
-111
-110
-110
-105
-101
-95
-83
-73
-74
-79
-77
-74
-80
-90
-92
-91
-90
-90
-94
-98
-101
-100
-95
-90
-94
-105
-106
-88
-62
-47
-42
-39
-41
-56
-69
-66
-66
-68
-58
-66
-70
-49
-76
37
605
1068
536
-461
-702
-296
-69
-78
-53
-32
-39
-15
1
-3
2
6
6
19
30
26
31
55
75
81
90
115
143
166
197
242
284
309
321
326
329
314
267
199
133
64
-8
-59
-85
-103
-115
-118
-118
-118
-119
-115
-102
-89
-92
-97
-89
-82
-86
-83
-74
-74
-79
-76
-71
-69
-64
-58
-58
-61
-58
-58
-66
-63
-47
-26
-1
19
18
3
-5
-5
-8
