# session 14
91
75
164
191
293
794
1158
578
-381
-612
-250
2
42
14
-8
50
76
-32
-136
-209
-353
-459
-396
-257
-150
-40
85
136
101
117
213
260
199
84
11
48
115
66
-58
-100
-54
-12
7
27
29
17
33
52
20
-10
18
42
47
101
194
285
393
487
448
361
590
1049
943
124
-473
-551
-737
-1057
-1112
-1075
-1139
-1127
-1046
-1028
-1016
-948
-842
-721
-594
-425
-224
-85
16
165
258
220
171
165
168
216
281
273
269
346
380
318
301
380
426
371
290
247
203
98
-55
-211
-332
-418
-520
-650
-766
-846
-823
-711
-632
-342
408
850
195
-737
-854
-517
-403
-383
-276
-192
-133
-70
-48
-76
-129
-148
-119
-109
-124
-101
-42
35
118
172
204
229
245
322
468
523
438
362
341
275
168
117
132
175
256
354
388
357
345
364
338
270
225
206
189
172
151
155
198
201
310
883
1557
1348
335
-258
-4
390
503
527
582
602
580
550
515
496
514
511
432
330
261
190
107
48
25
42
99
118
28
-119
-219
-244
-218
-176
-153
-148
-131
-120
-148
-166
-119
-80
-104
-98
-23
-5
-107
-220
-255
-252
-261
-309
-385
-396
-355
-408
-335
199
633
187
-590
-710
-384
-252
-294
-349
-451
-541
-565
-586
-607
-601
-606
-626
-595
-504
-431
-405
-366
-309
-279
-250
-210
-217
-261
-294
-304
-262
-179
-144
-148
-83
43
108
84
66
103
140
145
148
159
149
117
92
76
52
28
-5
-50
-80
-167
-294
-139
269
214
-496
-1051
-993
-737
-627
-589
-512
-375
-233
-144
-65
42
119
132
129
169
271
409
509
550
620
732
760
678
604
552
463
376
319
242
164
150
192
246
301
312
257
229
270
247
112
5
-47
-116
-139
-66
28
112
174
187
151
59
118
647
1158
737
-236
-587
-301
-78
-3
75
84
93
202
286
287
304
354
386
412
450
500
570
632
644
626
603
564
525
480
379
255
176
103
-22
-157
-263
-355
-394
-327
-233
-232
-292
-309
-296
-301
-275
-195
-145
-168
-183
-144
-130
-178
-190
-165
-162
116
812
1104
362
-531
-596
-230
-108
-158
-146
-99
-101
-161
-195
-140
-82
-100
-137
-137
-104
-83
-120
-194
-258
-340
-449
-530
-573
-594
-590
-595
-633
-677
-710
-726
-718
-705
-689
-666
-651
-619
-549
-503
-482
-406
-314
-268
-209
-108
-18
45
63
29
43
77
35
214
795
1047
402
-365
-418
-105
19
-3
-47
-142
-263
-385
-464
-408
-282
-249
-276
-240
-170
-114
-29
95
222
324
396
461
501
471
428
430
422
395
396
405
393
391
409
413
393
383
400
385
320
310
395
445
381
301
294
324
304
244
241
213
80
252
915
1152
344
-525
-530
-166
-43
-31
10
10
-11
-5
31
74
82
78
116
159
183
243
343
414
455
493
509
489
446
401
398
444
476
456
417
376
326
290
283
286
277
251
218
164
50
-131
-315
-439
-523
-601
-640
-636
-648
-668
-676
-692
-446
288
790
238
-686
-840
-456
-306
-367
-351
-305
-297
-278
-217
-135
-61
-7
-1
-46
-36
72
140
116
117
161
166
138
103
34
-58
-151
-242
-319
-396
-494
-584
-656
-733
-797
-828
-854
-874
-846
-771
-691
-638
-613
-596
-564
-523
-493
-458
-402
-332
-239
-196
-186
186
930
1086
266
-438
-317
24
151
254
323
255
226
291
287
226
258
347
360
328
344
362
304
227
201
168
68
-34
-83
-121
-180
-222
-242
-272
-298
-296
-271
-222
-151
-86
-37
24
109
176
182
172
213
290
321
278
220
221
235
195
141
51
41
542
1282
1129
74
-509
-192
187
263
285
307
280
229
163
129
146
138
115
179
299
350
339
368
441
480
474
436
375
344
352
311
214
139
106
102
102
76
81
138
149
136
212
303
310
300
301
279
271
260
182
146
247
324
235
82
-69
-79
378
971
681
-439
-1106
-886
-533
-436
-385
-336
-390
-482
-517
-508
-475
-433
-431
-435
-357
-254
-198
-80
147
306
302
240
183
108
38
-6
-39
-43
-31
-65
-122
-116
-73
-77
-111
-97
-46
-10
38
128
177
103
-25
-115
-220
-381
-480
-464
-459
-546
-677
-634
-195
231
-93
-864
-1114
-848
-671
-618
-530
-503
-509
-421
-304
-250
-244
-234
-175
-89
-49
-37
17
81
94
76
52
14
-16
-24
-45
-103
-185
-265
-293
-296
-400
-539
-545
-506
-518
-445
-332
-348
-369
-274
-211
-240
-283
-322
-325
-230
-109
-83
-64
37
85
250
926
1552
1157
213
-99
170
336
331
332
327
295
243
193
186
208
251
327
386
398
413
447
471
483
481
473
474
440
363
333
382
420
410
400
393
358
315
295
298
302
282
261
299
376
405
385
398
478
574
613
600
577
545
563
621
621
847
1524
1816
980
-54
-160
240
366
298
265
186
84
63
26
-120
-243
-238
-201
-191
-180
-203
-279
-317
-286
-244
-213
-187
-200
-284
-403
-465
-444
-415
-408
-371
-302
-217
-120
-82
-129
-154
-120
-119
-177
-239
-284
-309
-320
-345
-361
-326
-308
-357
-356
-311
-301
-72
387
351
-378
-905
-825
-739
-893
-947
-828
-721
-654
-582
-517
-461
-397
-335
-281
-205
-95
-1
44
92
178
257
289
312
352
380
374
356
367
405
409
359
313
310
325
318
252
138
34
-28
-58
-82
-163
-324
-493
-628
-763
-905
-959
-876
-849
-930
-585
300
538
-516
-1586
-1596
-1191
-1079
-1066
-989
-940
-887
-839
-852
-864
-855
-881
-915
-921
-919
-909
-873
-803
-729
-724
-768
-754
-687
-636
-574
-479
-393
-317
-189
22
279
472
509
447
384
316
218
125
46
-7
20
145
338
576
833
1088
1290
1400
1551
1833
2157
2752
3789
4392
3846
3130
3260
3683
3707
3540
3376
3126
2854
2635
2402
2134
1880
1654
1432
1209
1045
958
855
699
579
501
342
88
-153
-364
-595
-793
-906
-995
-1068
-1064
-1053
-1106
-1145
-1135
-1114
-1068
-1032
-1053
-1054
-1016
-1049
-1100
-1053
-983
-971
-946
-908
-900
-877
-877
-867
-490
121
43
-863
-1483
-1314
-1012
-970
-963
-906
-887
-895
-877
-814
-736
-711
-749
-804
-855
-911
-964
-970
-911
-835
-795
-785
-795
-831
-861
-853
-826
-808
-786
-750
-717
-702
-683
-632
-569
-522
-492
-472
-433
-329
-195
-116
-92
-68
-44
-29
4
22
-2
11
27
5
250
779
850
171
-469
-554
-424
-378
-418
-514
-559
-471
-343
-263
-227
-200
-149
-84
-13
87
198
300
407
501
559
613
687
753
773
751
741
782
842
867
856
852
871
886
876
838
797
760
705
662
678
673
588
516
506
495
455
377
308
317
272
223
729
1669
1803
864
189
374
669
697
701
705
638
573
526
468
396
318
300
377
440
446
512
641
689
641
596
561
493
414
358
304
221
111
36
46
78
36
-32
-51
-80
-160
-210
-223
-263
-295
-310
-402
-589
-796
-993
-1141
-1177
-1149
-1129
-1122
-1187
-1164
-605
140
-64
-1103
-1575
-1178
-817
-769
-700
-606
-597
-599
-588
-595
-586
-549
-496
-417
-334
-281
-222
-128
-54
-29
-13
10
42
81
68
2
-14
21
-2
-60
-57
-23
-21
-31
-36
-46
-46
-51
-103
-165
-171
-141
-120
-107
-101
-109
-97
-77
-89
-89
-91
-95
225
868
929
58
-645
-477
-101
-34
-38
29
62
57
63
87
112
119
130
164
181
182
230
311
358
378
393
374
325
289
257
206
168
159
146
116
100
107
120
124
111
80
43
20
21
30
31
31
20
-15
-58
-90
-107
-124
-165
-182
-172
-202
20
734
1100
335
-610
-614
-202
-122
-151
-78
-68
-101
-66
-22
-23
-20
22
82
140
218
310
372
417
478
531
549
532
483
436
421
393
334
310
317
296
271
280
294
290
282
274
260
240
214
196
192
177
143
117
83
24
-22
-56
-88
-90
-135
-157
243
863
706
-258
-823
-607
-352
-346
-336
-316
-355
-367
-346
-357
-381
-377
-364
-361
-347
-303
-245
-195
-151
-122
-126
-144
-153
-173
-220
-274
-315
-355
-389
-398
-398
-424
-476
-539
-596
-623
-613
-587
-559
-531
-498
-461
-432
-413
-418
-446
-431
-359
-306
-266
-242
-233
87
770
930
150
-521
-370
-30
16
26
102
129
141
169
174
182
220
255
284
328
374
418
473
525
546
549
545
517
473
438
412
388
361
325
296
293
302
296
277
267
266
251
225
209
206
210
213
205
190
172
143
109
75
35
39
45
-63
55
776
1296
605
-518
-733
-313
-131
-160
-136
-121
-134
-129
-135
-143
-123
-86
-38
15
33
31
76
151
170
141
130
124
93
55
9
-57
-113
-132
-130
-119
-108
-117
-138
-132
-102
-105
-132
-130
-139
-188
-188
-136
-139
-174
-172
-176
-191
-184
-177
-172
-221
-255
158
883
813
-225
-874
-590
-238
-216
-194
-135
-148
-144
-100
-82
-69
-35
-12
-5
4
13
10
8
14
5
-10
5
36
43
19
-20
-48
-61
-84
-114
-118
-115
-126
-122
-98
-91
-92
-77
-53
-37
-20
7
35
40
-2
-62
-59
-6
-34
-125
-180
-232
-66
600
1082
511
-414
-538
-158
-35
-72
-50
-97
-181
-165
-120
-104
-51
15
19
-6
9
49
82
118
157
169
145
124
123
121
125
131
108
75
67
54
18
-1
5
4
-19
-60
-87
-61
-22
-41
-82
-74
-55
-70
-88
-91
-88
-85
-88
-79
-127
-204
97
780
882
57
-579
-399
-88
-44
-2
59
40
40
69
64
71
108
138
165
196
218
248
286
302
302
307
306
291
288
280
215
130
115
138
121
92
89
86
61
20
-13
-18
-16
-26
-22
-6
-1
4
18
13
-20
-35
-5
10
-11
-15
-54
-63
331
964
891
3
-560
-331
-1
45
37
66
58
25
8
17
32
22
11
25
37
29
41
82
99
79
71
76
37
-27
-54
-73
-128
-166
-157
-158
-189
-225
-266
-298
-292
-276
-296
-338
-364
-370
-369
-370
-380
-405
-444
-499
-544
-565
-605
-666
-716
-813
-826
-447
0
-209
-812
-913
-544
-320
-285
-225
-176
-153
-88
-19
17
64
137
210
267
317
375
443
502
522
504
480
467
456
454
444
384
307
286
293
268
243
245
222
147
47
-38
-83
-98
-117
-142
-144
-119
-100
-105
-109
-98
-72
-51
-53
-40
-39
-146
-75
549
1072
544
-437
-638
-212
31
52
98
136
141
159
175
189
208
216
230
267
312
362
419
466
498
515
500
467
447
416
349
278
227
184
161
161
139
101
102
120
88
37
38
76
90
69
57
73
81
64
53
49
41
32
11
-11
-43
-133
-28
548
939
319
-643
-809
-434
-269
-273
-239
-243
-271
-262
-268
-304
-339
-353
-324
-271
-225
-166
-89
-37
-15
-3
-21
-45
-32
-35
-105
-164
-163
-180
-227
-218
-159
-131
-138
-132
-109
-103
-118
-116
-87
-76
-94
-98
-86
-83
-90
-107
-113
-103
-107
-112
-152
-226
10
642
827
77
-660
-600
-279
-227
-243
-209
-232
-251
-227
-247
-290
-293
-289
-305
-311
-303
-285
-258
-247
-246
-219
-183
-174
-161
-137
-141
-157
-137
-96
-72
-49
-9
31
57
93
141
159
159
190
227
233
249
273
261
229
180
133
155
192
159
140
118
94
472
1155
1088
109
-485
-199
129
145
176
241
233
236
253
242
249
270
265
267
299
346
402
444
465
492
492
433
370
332
274
208
173
141
103
84
65
42
44
50
35
17
-7
-48
-79
-90
-101
-102
-99
-121
-158
-177
-172
-166
-199
-239
-246
-305
-291
192
794
494
-517
-936
-568
-287
-306
-288
-235
-242
-240
-222
-219
-199
-163
-130
-87
-45
-26
2
69
133
148
117
61
9
-9
-30
-91
-139
-137
-133
-133
-103
-82
-116
-171
-215
-246
-257
-268
-303
-339
-351
-357
-356
-339
-331
-335
-300
-255
-271
-277
-228
-204
31
694
1027
308
-585
-578
-143
-27
-42
26
26
-1
46
80
77
97
134
191
253
274
295
371
432
434
429
419
374
323
297
277
239
190
156
144
141
138
134
131
134
138
134
134
143
137
126
149
195
207
188
190
206
207
204
204
199
149
57
237
859
1152
458
-374
-388
-64
-42
-108
-80
-116
-195
-237
-281
-307
-296
-311
-339
-307
-237
-190
-160
-132
-116
-111
-112
-130
-160
-191
-228
-274
-308
-315
-314
-319
-326
-332
-339
-349
-352
-346
-353
-376
-392
-394
-374
-336
-319
-342
-364
-359
-333
-302
-281
-261
-288
-342
-85
557
771
86
-589
-475
-74
55
55
82
87
88
119
162
198
222
251
285
311
347
399
450
494
520
524
522
501
451
409
371
303
248
231
208
181
180
174
153
152
155
134
112
106
93
70
63
82
104
96
66
41
39
49
41
27
12
-81
-55
479
1046
634
-410
-773
-372
-77
-64
-66
-85
-131
-134
-134
-153
-149
-138
-151
-154
-121
-76
-30
8
5
-39
-71
-79
-108
-160
-191
-210
-246
-262
-234
-217
-237
-240
-211
-180
-165
-170
-181
-175
-164
-178
-191
-161
-120
-116
-127
-129
-127
-98
-58
-57
-70
-125
-139
293
994
901
-83
-650
-340
1
24
37
63
33
44
88
97
102
129
169
210
236
277
351
396
388
375
360
311
258
227
187
121
48
-5
-29
-35
-44
-57
-59
-43
-30
-36
-44
-37
-35
-53
-67
-56
-32
-13
-10
-17
-26
-33
-41
-66
-109
-204
-340
-201
430
853
294
-599
-751
-381
-217
-250
-231
-193
-183
-184
-185
-169
-149
-154
-153
-131
-116
-91
-28
