# session 12
-26
-55
74
20
-417
-797
-809
-744
-804
-832
-800
-802
-806
-773
-742
-717
-667
-613
-594
-597
-586
-562
-545
-531
-501
-448
-399
-390
-405
-402
-393
-377
-350
-345
-341
-351
-417
-198
525
886
170
-655
-591
-193
-123
-153
-102
-87
-76
-41
-31
-15
23
43
74
120
135
154
216
257
260
274
282
251
225
229
220
185
156
147
145
149
158
164
165
168
153
119
111
131
125
104
123
158
155
133
121
91
66
85
88
51
2
-90
-3
555
1012
569
-215
-339
-56
6
-25
19
6
-15
32
25
-36
-39
1
37
70
78
74
103
149
162
141
111
97
88
49
-21
-80
-114
-140
-163
-174
-171
-170
-179
-185
-189
-201
-210
-211
-217
-216
-195
-176
-171
-166
-163
-177
-194
-191
-187
-181
-159
-207
-253
97
692
617
-221
-709
-430
-94
-50
-38
8
3
2
41
73
88
120
165
189
209
254
296
339
406
438
398
360
362
348
292
223
159
104
55
25
20
13
-19
-45
-41
-37
-55
-76
-83
-83
-68
-41
-34
-44
-32
-21
-72
-117
-90
-85
-125
-142
-217
-156
470
1072
504
-712
-1061
-561
-212
-159
-111
-88
-88
-56
-42
-41
-24
-14
11
55
75
102
178
248
277
299
304
267
224
200
149
59
-11
-52
-95
-107
-74
-67
-115
-149
-124
-85
-104
-162
-165
-127
-142
-191
-191
-136
-100
-140
-189
-149
-122
-172
-141
-104
-238
-58
763
1159
249
-882
-957
-406
-121
-119
-101
-56
-68
-93
-54
-4
-5
1
38
77
146
217
243
290
369
384
348
325
286
203
110
37
-13
-54
-92
-112
-107
-93
-84
-82
-74
-57
-60
-78
-73
-57
-70
-87
-74
-56
-61
-82
-92
-71
-61
-89
-81
-108
-208
119
944
1076
23
-809
-556
-103
-63
-84
-25
-28
-39
-13
-2
7
33
53
73
105
148
198
247
277
288
284
256
207
159
119
75
26
-14
-37
-47
-55
-62
-64
-64
-66
-70
-77
-83
-87
-103
-127
-122
-96
-97
-119
-134
-156
-171
-156
-158
-172
-184
-232
-38
621
972
306
-518
-508
-150
-97
-139
-92
-90
-98
-52
-32
-48
-39
-5
29
66
113
161
206
248
276
278
262
242
210
172
144
116
78
53
50
38
21
26
30
0
-27
-23
-24
-45
-57
-59
-63
-54
-35
-37
-56
-69
-77
-81
-86
-102
-114
-156
-201
43
582
673
3
-542
-390
-108
-95
-106
-57
-56
-49
-30
-60
-84
-54
-17
7
35
65
95
133
169
191
189
166
141
119
80
16
-51
-94
-118
-136
-148
-158
-167
-169
-171
-182
-192
-193
-197
-206
-202
-190
-183
-171
-153
-149
-167
-186
-173
-150
-148
-138
-146
-210
-77
406
636
106
-529
-518
-188
-70
-64
-3
37
42
70
100
107
114
136
161
180
202
234
271
301
317
316
303
288
276
249
190
124
81
45
9
-4
0
-12
-32
-28
-16
-24
-36
-35
-29
-31
-31
-21
-3
6
-2
-14
-28
-38
-23
-21
-48
-46
-87
-168
164
912
981
-18
-796
-582
-151
-69
-82
-50
-37
-18
-5
-11
12
46
55
76
124
173
218
261
295
315
316
309
299
264
196
120
59
18
-6
-34
-68
-80
-73
-79
-94
-101
-107
-122
-137
-138
-132
-137
-146
-136
-120
-123
-137
-162
-181
-164
-146
-166
-170
-205
-220
203
893
755
-302
-890
-536
-159
-148
-148
-93
-99
-110
-97
-84
-63
-40
-25
3
45
83
119
159
199
223
217
180
137
102
62
10
-45
-98
-131
-133
-128
-136
-141
-137
-142
-150
-143
-134
-133
-136
-140
-138
-120
-99
-93
-88
-92
-115
-118
-92
-99
-110
-117
-205
-84
578
1030
379
-585
-651
-195
-52
-97
-50
-25
-42
-20
6
9
24
53
83
113
146
185
235
282
307
306
289
261
222
179
138
97
55
22
7
6
10
14
18
18
13
5
-4
-9
-11
-12
-18
-23
-12
13
24
9
-18
-38
-26
-7
-27
-39
-64
-154
51
747
1048
307
-482
-407
-58
-29
-62
-9
-8
-16
6
2
3
36
60
76
109
141
175
219
255
265
251
225
198
165
120
72
30
-8
-37
-48
-51
-59
-69
-81
-91
-95
-101
-116
-125
-127
-133
-142
-142
-126
-103
-96
-110
-130
-150
-160
-156
-171
-189
-203
-283
-227
281
733
326
-473
-638
-322
-199
-236
-207
-192
-214
-198
-170
-156
-140
-124
-99
-61
-23
18
69
110
135
154
151
125
107
93
51
-8
-47
-64
-73
-76
-78
-88
-97
-97
-90
-79
-81
-97
-99
-85
-85
-96
-81
-35
-3
-9
-24
-31
-47
-52
-31
-29
-33
-60
-157
9
698
1076
343
-593
-597
-140
-13
-52
-2
19
2
25
46
46
63
98
132
167
202
236
276
321
353
353
329
307
287
241
177
123
75
29
9
6
-2
-5
2
3
-5
-7
-8
-17
-27
-27
-22
-32
-49
-31
8
10
-22
-45
-54
-46
-38
-58
-65
-97
-176
97
805
949
48
-710
-506
-97
-61
-83
-24
-28
-41
-15
-12
-15
11
37
52
74
106
146
185
210
222
220
195
157
125
90
37
-18
-55
-77
-88
-89
-87
-90
-94
-101
-106
-108
-113
-124
-127
-123
-125
-131
-121
-94
-76
-80
-95
-119
-134
-117
-106
-117
-125
-196
-199
260
853
619
-256
-598
-285
-88
-132
-126
-98
-111
-101
-85
-83
-67
-42
-23
-1
25
57
96
127
143
142
119
83
52
22
-24
-77
-117
-142
-161
-172
-176
-185
-191
-188
-182
-180
-175
-164
-160
-161
-154
-143
-135
-116
-83
-64
-63
-56
-58
-71
-57
-42
-52
-55
-113
-139
277
916
776
-141
-602
-285
-8
-33
-23
33
21
18
48
55
48
64
110
155
170
185
233
288
312
313
311
301
283
259
215
139
62
26
23
13
-10
-17
-10
-18
-36
-39
-36
-48
-61
-59
-58
-64
-61
-58
-59
-40
-11
-14
-38
-51
-38
-18
-32
-48
-61
-150
-43
614
1109
460
-608
-753
-245
-24
-66
-41
-11
-16
3
13
11
33
62
82
105
134
167
209
254
276
268
244
222
201
167
110
45
-6
-33
-44
-52
-60
-65
-66
-64
-65
-69
-76
-81
-82
-83
-88
-94
-99
-96
-77
-59
-62
-78
-96
-106
-91
-86
-101
-102
-165
-208
199
857
741
-177
-648
-334
-69
-106
-102
-59
-85
-86
-54
-48
-37
-9
3
16
50
89
124
162
192
200
187
160
124
88
50
4
-42
-68
-79
-97
-111
-114
-118
-127
-131
-135
-147
-157
-160
-164
-170
-170
-167
-159
-138
-112
-108
-125
-147
-162
-157
-144
-150
-155
-182
-274
-138
434
763
213
-505
-515
-183
-103
-140
-107
-92
-96
-75
-58
-46
-21
3
29
66
103
142
190
237
262
260
246
232
212
176
138
98
48
11
10
16
4
-1
9
7
-8
-8
-4
-11
-16
-12
-9
-5
-5
-6
13
36
34
19
3
-18
-14
3
-14
-23
-63
-164
100
836
999
59
-755
-567
-126
-48
-64
-26
-36
-40
-7
7
10
25
47
73
109
155
198
230
264
299
314
308
283
231
162
98
41
-5
-37
-60
-78
-87
-89
-85
-83
-86
-92
-98
-102
-110
-117
-109
-96
-107
-121
-98
-65
-64
-82
-98
-98
-85
-95
-108
-84
-141
-178
293
976
710
-402
-887
-448
-87
-95
-84
-34
-51
-50
-19
-7
5
26
47
81
121
153
193
242
272
273
264
248
220
178
120
54
-1
-39
-66
-81
-84
-84
-85
-85
-81
-82
-90
-94
-92
-95
-100
-99
-97
-98
-87
-61
-48
-58
-76
-93
-89
-74
-85
-92
-112
-207
-56
599
972
314
-520
-506
-118
-47
-96
-47
-26
-37
-22
-12
-4
22
41
60
99
136
166
208
257
278
264
233
200
166
124
66
5
-37
-63
-83
-96
-101
-102
-105
-110
-116
-116
-119
-132
-142
-146
-154
-161
-154
-137
-117
-99
-97
-115
-137
-149
-140
-135
-149
-155
-202
-280
-31
577
709
8
-580
-442
-160
-152
-176
-135
-132
-131
-107
-96
-84
-60
-41
-17
24
70
112
158
202
227
229
214
185
150
117
78
33
-4
-23
-25
-23
-29
-35
-25
-19
-28
-28
-9
-4
-18
-23
-13
-4
1
7
28
60
67
50
41
30
14
21
29
35
11
-99
24
691
1124
436
-547
-603
-139
11
-17
39
54
28
43
47
35
62
101
115
132
173
217
254
294
328
329
306
290
269
215
136
56
-11
-46
-50
-61
-82
-77
-66
-81
-91
-81
-87
-97
-90
-100
-128
-120
-96
-107
-121
-95
-66
-73
-98
-122
-129
-112
-117
-136
-119
-174
-198
282
949
651
-477
-954
-499
-128
-140
-141
-94
-107
-103
-69
-57
-49
-27
-1
32
73
109
143
190
238
253
230
199
175
140
76
-1
-58
-93
-116
-129
-138
-143
-138
-129
-129
-130
-128
-128
-128
-121
-122
-128
-125
-127
-135
-115
-78
-69
-83
-100
-111
-99
-87
-100
-99
-143
-208
142
857
867
-106
-761
-465
-75
-68
-92
-42
-44
-44
-18
-12
-4
24
44
63
97
136
174
214
247
261
250
219
187
159
120
59
-1
-41
-60
-65
-67
-73
-71
-61
-56
-60
-60
-59
-65
-72
-73
-70
-69
-74
-70
-43
-11
-4
-16
-29
-42
-38
-23
-32
-38
-62
-153
22
694
1047
367
-460
-437
-51
20
-21
29
44
31
55
71
74
96
123
146
178
212
245
283
323
344
334
301
267
235
194
136
78
40
22
11
6
7
12
10
0
-6
-6
-8
-14
-22
-29
-32
-39
-49
-54
-49
-29
-12
-23
-49
-74
-92
-93
-96
-125
-146
-213
-306
-26
638
758
-23
-650
-494
-202
-204
-232
-194
-206
-227
-218
-224
-240
-238
-225
-209
-187
-153
-111
-68
-27
2
6
-2
-7
-19
-51
-91
-127
-156
-169
-171
-174
-170
-166
-178
-191
-182
-163
-151
-147
-141
-126
-112
-104
-92
-74
-56
-24
18
42
41
28
9
15
41
36
27
6
-85
84
764
1138
437
-453
-453
-30
74
32
80
101
86
100
115
124
149
172
185
203
235
281
326
360
383
385
362
340
314
249
161
92
42
1
-21
-27
-31
-42
-62
-74
-66
-62
-74
-83
-87
-95
-100
-105
-110
-107
-108
-116
-104
-77
-74
-87
-99
-111
-104
-98
-122
-119
-147
-191
214
980
914
-233
-971
-616
-135
-75
-86
-40
-46
-49
-19
1
16
32
48
89
139
163
197
266
320
328
321
312
285
238
172
89
10
-39
-71
-110
-146
-157
-151
-148
-142
-141
-154
-162
-156
-160
-172
-170
-168
-178
-186
-187
-182
-168
-156
-157
-169
-193
-196
-167
-167
-181
-180
-225
-51
624
1046
362
-611
-684
-230
-61
-82
-42
-23
-22
10
27
33
57
81
109
151
182
211
266
327
358
360
338
294
252
216
162
94
39
4
-16
-27
-26
-12
-3
-4
-2
4
0
-9
-12
-12
-20
-30
-30
-27
-19
-6
1
-3
-15
-36
-52
-46
-41
-52
-42
-64
-148
54
664
887
211
-494
-442
-114
-45
-56
-11
-16
-40
-24
-23
-41
-32
-15
-25
-30
2
44
72
95
102
84
64
46
7
-51
-111
-177
-250
-307
-339
-358
-362
-352
-348
-358
-361
-343
-314
-288
-266
-244
-223
-199
-170
-142
-115
-80
-53
-54
-57
-46
-49
-53
-37
-27
-10
-17
-94
95
778
1136
455
-379
-383
-33
42
23
65
64
70
109
105
95
132
162
164
185
226
262
301
353
395
400
376
353
323
249
144
63
16
-32
-71
-57
-19
-44
-103
-103
-67
-65
-79
-80
-73
-54
-52
-83
-94
-88
-109
-96
-23
-1
-51
-79
-83
-80
-62
-62
-60
-67
-123
144
938
1259
343
-677
-648
-176
-51
-73
-22
-22
-53
-33
-10
-16
-26
-14
22
52
74
126
204
275
328
348
323
281
252
207
116
24
-17
-45
-103
-148
-147
-145
-157
-154
-143
-151
-158
-140
-117
-111
-109
-106
-117
-134
-134
-115
-103
-115
-148
-189
-215
-196
-176
-197
-205
-230
-233
156
836
819
-110
-750
-518
-157
-117
-131
-97
-104
-103
-66
-41
-28
-11
9
39
84
139
195
245
299
343
347
313
277
240
172
90
36
0
-48
-88
-92
-79
-66
-52
-52
-67
-66
-52
-55
-67
-76
-89
-94
-88
-87
-83
-63
-64
-96
-120
-124
-112
-93
-90
-86
-88
-112
92
627
822
196
-474
-429
-96
-11
-31
-3
1
2
21
18
16
33
36
29
38
54
74
110
147
168
170
155
122
74
9
-66
-129
-175
-210
-226
-216
-205
-201
-187
-168
-161
-155
-138
-129
-127
-114
-94
-83
-74
-55
-24
16
47
52
42
30
25
40
46
18
21
2
-76
204
940
1103
163
-678
-521
-95
-46
-79
-13
6
-5
11
16
23
56
81
95
133
184
221
264
320
352
354
340
293
221
165
109
31
-32
-64
-97
-123
-116
-99
-97
-103
-108
-110
-114
-122
-115
-97
-98
-112
-118
-115
-100
-78
-74
-76
-74
-92
-108
-81
-71
-102
-94
-130
-186
246
1042
970
-177
-900
-572
-146
-108
-102
-50
-65
-64
-26
-18
-20
0
24
48
84
126
174
226
265
279
276
252
204
147
86
21
-31
-71
-111
-128
-120
-119
-121
-109
-108
-113
-100
-88
-102
-114
-111
-106
-101
-98
-100
-80
-42
-35
-55
-67
-79
-84
-69
-75
-85
-85
-149
-14
642
1103
458
-533
-624
-169
-25
-73
-25
-4
-25
-1
20
16
33
58
77
104
136
170
216
263
289
288
265
225
175
119
59
5
-35
-64
-90
-101
-95
-90
-91
-90
-88
-88
-88
-91
-100
-108
-107
-106
-113
-114
-95
-65
-48
-58
-81
-92
-80
