# session 16
86
-5
273
189
-654
-1304
-1220
-1100
-1176
-981
-679
-731
-999
-1160
-1165
-1094
-1069
-1046
-697
-84
41
-567
-1071
-937
-647
-618
-704
-802
-915
-929
-847
-792
-750
-729
-792
-759
-479
-178
-21
112
248
352
448
394
56
-348
-561
-573
-477
-373
-288
-194
-185
-311
-392
-357
-337
-353
-375
-464
-622
-815
-976
-936
-798
-950
-1299
-1313
-954
-644
-569
-647
-699
-562
-372
-302
-189
23
290
852
1429
1093
5
-559
-308
-59
-110
-115
27
153
196
160
73
100
387
791
1073
1270
1490
1572
1403
1229
1170
871
237
-186
-89
157
260
323
413
500
614
717
739
807
1033
1215
1144
904
638
436
374
396
481
722
961
933
761
669
620
559
526
553
564
367
54
-85
-121
19
671
1128
372
-778
-915
-345
-4
29
-79
-244
-219
-63
-120
-336
-498
-645
-712
-598
-565
-723
-699
-458
-474
-730
-699
-399
-356
-648
-882
-872
-733
-519
-202
62
80
-58
-200
-400
-634
-721
-684
-665
-638
-582
-605
-656
-547
-326
-218
-211
-98
114
221
214
317
548
617
421
216
248
652
1299
1500
859
152
125
360
348
312
403
375
146
-102
-225
-255
-291
-312
-245
-179
-229
-323
-354
-326
-262
-138
32
142
116
44
77
245
396
340
189
281
531
457
98
-14
152
180
55
5
-20
-105
-147
-119
-112
-100
14
189
287
270
165
-65
-361
-543
-656
-887
-965
-446
157
-164
-1118
-1482
-1097
-690
-440
-142
132
228
126
-59
-119
-25
-2
-139
-195
13
321
511
603
692
818
963
1029
965
861
739
487
138
-92
-141
-170
-238
-286
-358
-504
-643
-734
-787
-724
-545
-426
-414
-367
-250
-151
-111
-89
-16
61
56
64
115
39
-105
-132
-75
264
995
1225
308
-727
-815
-391
-189
-246
-330
-223
100
325
278
165
69
-106
-276
-316
-245
-97
52
76
28
73
205
302
345
416
506
510
484
585
684
569
408
382
346
308
412
466
314
204
241
247
244
329
352
231
116
14
-209
-466
-584
-634
-748
-783
-644
-571
-487
5
506
332
-33
106
390
432
441
459
368
264
204
158
177
267
307
186
6
13
199
320
347
370
331
282
331
295
116
89
200
162
58
31
-40
-163
-324
-535
-579
-536
-829
-1210
-1145
-912
-901
-879
-706
-541
-416
-290
-122
137
363
398
282
177
236
347
273
414
1184
1668
935
-99
-291
-26
72
109
168
142
73
48
102
127
-43
-258
-292
-343
-596
-715
-430
-56
83
140
266
247
40
-41
-2
-158
-391
-401
-347
-424
-494
-475
-430
-380
-364
-402
-451
-520
-585
-581
-590
-669
-690
-667
-776
-915
-835
-557
-277
-136
-173
-271
-300
-181
288
1010
1193
441
-374
-471
-240
-185
-125
82
240
348
566
781
839
875
1012
1131
1087
861
637
686
945
1065
952
822
763
669
515
392
300
187
85
-15
-191
-387
-531
-704
-905
-994
-972
-933
-841
-653
-463
-340
-218
-65
43
58
62
140
236
242
175
141
141
53
18
418
979
838
24
-579
-723
-758
-725
-593
-560
-616
-473
-76
248
310
279
252
203
243
335
232
40
104
355
474
439
415
452
525
561
503
470
558
627
646
737
777
666
648
768
704
405
166
138
217
281
327
386
403
359
308
230
131
61
-57
-230
-365
-475
-351
249
632
13
-887
-975
-545
-373
-446
-484
-509
-586
-673
-749
-821
-854
-810
-730
-731
-854
-985
-985
-882
-798
-763
-731
-706
-714
-730
-742
-805
-937
-1063
-1130
-1134
-999
-666
-371
-456
-808
-967
-857
-768
-675
-347
74
316
434
585
780
991
1155
1225
1272
1341
1390
1417
1373
1295
1541
2045
1970
1154
606
796
1115
1192
1206
1215
1178
1148
1104
1006
937
894
825
809
785
514
83
-257
-566
-831
-813
-634
-631
-713
-627
-452
-382
-424
-487
-515
-553
-664
-756
-678
-506
-509
-764
-979
-899
-721
-698
-658
-459
-333
-352
-328
-299
-396
-529
-609
-650
-693
-843
-964
-566
232
416
-349
-1132
-1315
-1191
-977
-655
-412
-397
-441
-378
-296
-309
-298
-145
51
196
298
344
393
514
601
584
550
545
552
540
446
336
337
392
418
411
321
233
330
439
294
53
-85
-159
-147
-61
-108
-405
-692
-483
0
-257
-1048
-886
102
491
343
406
587
927
1471
1491
852
467
671
907
894
908
1014
882
752
1020
739
-563
-1053
-11
676
475
636
1079
1102
1044
1230
1464
1590
1500
1300
1258
1238
1014
851
890
750
274
-49
210
744
935
710
505
521
565
478
267
-2
-209
-249
-182
-152
-196
-256
-308
-372
-435
-549
-823
-990
-639
-281
-819
-1822
-2200
-2053
-2045
-2171
-2276
-2437
-2565
-2548
-2422
-2185
-1885
-1690
-1637
-1585
-1442
-1218
-940
-699
-574
-444
-253
-225
-364
-383
-334
-426
-518
-501
-476
-428
-330
-290
-297
-234
-112
-57
-105
-130
-82
-107
-216
-245
-243
-335
-376
-288
-280
-388
-399
-268
-131
-98
-85
234
795
867
282
-107
98
391
497
574
662
731
807
889
983
1096
1182
1239
1322
1399
1409
1429
1534
1636
1678
1707
1722
1703
1639
1522
1408
1321
1169
988
905
829
656
546
584
615
594
585
532
435
400
370
259
206
249
149
-148
-380
-436
-482
-565
-524
-431
-467
-305
292
527
-188
-972
-976
-643
-576
-687
-749
-714
-628
-582
-586
-550
-468
-415
-384
-317
-244
-228
-220
-127
0
44
46
127
223
209
162
184
149
-18
-131
-90
-40
-12
126
290
254
54
-88
-130
-163
-192
-179
-162
-175
-177
-187
-289
-331
-83
242
287
110
-87
-109
223
483
27
-734
-941
-697
-506
-395
-301
-277
-254
-215
-250
-327
-392
-497
-600
-645
-697
-680
-487
-336
-316
-189
-24
-45
-83
-38
-141
-401
-587
-653
-673
-653
-594
-524
-480
-492
-516
-480
-442
-470
-482
-446
-453
-541
-694
-892
-996
-850
-517
-215
-52
23
19
25
387
1070
1243
520
-213
-185
243
539
684
758
768
777
802
792
770
804
881
934
953
966
1000
1091
1199
1222
1184
1152
1061
898
778
677
531
429
409
438
576
763
793
695
645
612
531
470
390
239
149
129
11
-136
-148
-120
-175
-276
-403
-506
-494
-507
-607
-323
407
557
-312
-1078
-982
-646
-572
-537
-459
-470
-491
-441
-423
-479
-517
-502
-487
-516
-591
-637
-577
-461
-366
-245
-98
-54
-145
-294
-475
-613
-602
-545
-596
-679
-684
-594
-391
-173
-104
-102
-34
0
-13
65
174
189
212
345
451
415
368
414
458
450
449
614
1096
1445
926
-87
-532
-385
-313
-335
-193
-27
-2
-35
-5
114
231
242
219
270
305
239
200
284
373
398
472
624
715
663
506
324
232
236
206
140
167
265
310
293
249
132
-61
-209
-275
-352
-414
-412
-502
-695
-810
-992
-1344
-1432
-1111
-889
-960
-898
-370
232
88
-757
-1211
-893
-540
-504
-446
-240
-39
110
237
327
336
316
410
558
547
448
473
539
547
627
784
858
846
799
658
474
393
326
88
-179
-282
-371
-514
-479
-261
-113
-68
-29
-2
6
-4
-32
1
73
25
-81
-61
-28
-89
-21
162
181
310
821
940
111
-764
-834
-479
-247
-151
-88
-27
15
19
53
107
55
-88
-236
-365
-375
-269
-288
-427
-392
-211
-120
-71
33
92
70
44
33
30
29
-31
-165
-284
-332
-321
-221
-62
11
23
129
251
253
239
297
320
256
176
136
167
270
337
335
578
1183
1472
920
192
43
190
143
-21
-147
-273
-385
-389
-263
-119
-81
-95
-56
-9
17
98
240
369
458
501
504
530
602
632
597
592
614
550
416
335
331
328
310
301
287
264
274
302
258
152
111
80
-166
-565
-789
-791
-848
-1006
-1092
-1145
-1167
-815
-229
-230
-885
-1277
-1057
-753
-668
-668
-646
-629
-673
-719
-606
-398
-345
-423
-420
-356
-356
-377
-348
-266
-156
-87
-73
-12
91
105
36
-6
-25
-43
-22
14
7
-24
-83
-231
-419
-462
-319
-191
-178
-128
-20
-11
-38
39
107
118
200
356
517
626
683
989
1539
1538
755
200
412
776
846
763
670
613
611
608
583
573
599
631
605
537
506
487
421
315
190
89
10
-160
-372
-425
-382
-434
-477
-370
-253
-263
-307
-300
-301
-336
-379
-438
-443
-336
-226
-117
-31
-341
-959
-1036
-477
-195
-384
-415
-255
-239
-47
563
846
274
-392
-371
62
418
633
722
654
467
230
34
-91
-214
-316
-276
-127
-24
6
44
113
205
318
401
408
386
376
349
294
278
348
464
583
695
725
607
475
490
540
501
510
624
663
599
551
514
495
516
493
411
325
151
-142
-357
-230
121
-170
-1555
-2763
-2562
-1763
-1486
-1462
-1311
-1235
-1196
-1054
-955
-949
-967
-1022
-1020
-821
-559
-427
-398
-368
-295
-215
-194
-174
-59
25
-46
-120
-71
23
116
210
244
210
194
241
285
227
46
-198
-459
-642
-600
-382
-214
-139
-59
-17
-40
3
75
59
263
905
1274
754
32
-24
369
669
796
825
800
802
823
804
781
792
824
878
941
995
1074
1161
1172
1148
1124
1000
804
663
515
311
142
-32
-266
-447
-494
-392
-180
-65
-120
-125
-28
-5
-29
0
-2
-74
-127
-118
-20
149
206
84
-13
-41
-106
70
613
765
54
-696
-752
-509
-432
-434
-388
-339
-361
-466
-533
-425
-149
158
292
166
-45
-153
-174
-157
-90
-41
-93
-200
-302
-418
-568
-755
-967
-1138
-1221
-1266
-1327
-1353
-1270
-1065
-758
-412
-141
9
60
5
-102
-112
-38
-25
-28
11
-33
-143
-176
-185
-108
240
461
16
-664
-874
-818
-908
-982
-897
-796
-676
-469
-282
-174
-52
146
363
530
666
825
964
998
980
1049
1206
1287
1172
976
885
863
764
658
651
624
488
375
373
410
450
503
479
343
272
369
502
580
610
524
343
181
48
-50
-115
-186
36
758
1157
483
-441
-580
-249
-70
-25
-24
-81
-92
-43
-47
-102
-121
-71
-14
-9
3
84
164
184
217
304
351
304
236
207
185
117
14
-87
-189
-269
-280
-279
-355
-454
-531
-659
-790
-764
-639
-601
-636
-620
-576
-595
-654
-672
-653
-623
-589
-596
-495
21
623
525
-157
-530
-399
-253
-217
-92
83
143
153
274
456
536
528
522
487
453
537
659
705
719
635
379
138
-55
-372
-653
-687
-666
-714
-675
-560
-493
-437
-389
-429
-486
-476
-452
-428
-332
-169
52
329
553
646
671
641
513
393
388
384
381
707
1246
1203
425
-171
-105
107
76
-49
-175
-362
-544
-675
-924
-1330
-1620
-1700
-1736
-1678
-1392
-1029
-748
-493
-231
-22
101
135
115
91
60
53
183
417
574
641
717
709
535
405
466
528
441
335
377
521
582
506
432
420
386
323
311
325
256
214
549
1141
1139
243
-576
-565
-186
-19
19
79
91
76
132
219
264
273
279
303
350
408
484
583
671
725
747
732
692
625
500
354
255
196
116
17
-34
-13
-8
-77
-165
-224
-273
-333
-373
-374
-413
-498
-512
-500
-586
-644
-593
-584
-618
-634
-585
-136
600
575
-419
-1102
-906
-613
-589
-504
-345
-292
-270
-236
-292
-390
-405
-376
-347
-281
-256
-311
-274
-100
51
126
157
154
203
301
291
197
144
57
-97
-149
-85
-30
31
138
225
258
264
276
308
352
391
398
359
321
314
265
169
156
203
165
279
835
1268
825
-45
-382
-203
-79
-111
-89
4
29
-49
-119
-160
-269
-400
-442
-433
-411
-404
-532
-716
-712
-584
-538
-484
-343
-274
-298
-278
-252
-306
-355
-350
-362
-369
-317
-251
-188
-103
-42
-48
-90
-119
-104
-75
-81
-97
-94
-100
-124
-104
-42
-69
-76
362
1038
981
84
-538
-359
30
192
237
242
179
118
114
132
146
158
174
237
341
428
506
587
638
676
696
657
615
612
611
617
598
504
444
484
490
445
470
519
480
413
402
401
360
308
273
233
165
78
1
-43
-63
-97
-157
-247
-288
-6
564
666
-62
-757
-722
-423
-361
-409
-431
-465
-494
-501
-486
-458
-428
-327
-186
-117
40
226
-218
-1175
-1344
-426
344
383
268
297
291
231
201
181
158
145
126
65
-37
-138
-214
-287
-415
-571
-511
-134
181
115
-119
-227
-219
-227
-312
-397
-422
-475
-400
92
480
-12
-866
-1045
-692
-490
-475
-432
-371
-324
-302
-326
-338
-260
-127
-39
-26
-3
73
139
164
206
289
346
314
240
225
276
240
-1
-293
-398
-359
-335
-264
-64
139
222
220
227
294
375
406
401
385
347
304
291
290
265
239
245
199
177
558
1121
900
-124
-761
-575
-248
-150
-114
-26
113
196
98
-85
-193
-206
-109
42
77
-6
-39
34
164
312
416
430
391
330
236
129
62
72
107
85
48
64
64
27
64
179
273
317
327
312
316
366
398
309
111
-52
-112
-141
-161
-171
-221
-77
488
816
174
-740
-851
-427
-232
-315
-425
-480
-464
-402
-309
-215
-220
-291
-278
-204
-171
-155
-135
-144
-160
-144
-109
-85
-61
22
186
349
441
472
469
461
446
372
265
245
286
290
324
433
496
470
454
464
418
305
205
155
97
20
-17
-100
-246
-75
452
521
-167
-684
-532
-330
-396
-396
-270
-200
-185
-206
-261
-293
-342
-471
-600
-645
-637
-602
-520
-399
-295
-242
-208
-157
-127
-152
-174
-150
-125
-115
-70
-16
-12
-13
17
-7
-126
-240
-289
-290
-262
-262
-379
-631
-932
-1115
-1030
-764
-576
-527
-486
-429
-210
447
1078
794
-65
-348
-1
250
300
384
465
520
585
589
528
506
539
574
608
660
716
718
638
558
549
536
453
385
364
293
185
151
159
125
97
141
232
