# session 21
-8
5
-23
28
197
296
227
126
73
9
-61
-83
-86
-103
-103
-91
-102
-113
-103
-105
-112
-87
-60
-72
-93
-82
-57
-49
-62
-72
-65
-63
-81
-95
-87
-77
-72
-65
-75
-109
-124
-103
-95
-118
-128
-121
-132
-160
-173
-166
-165
-175
-174
-157
-138
-129
-126
-119
-106
-98
-96
-86
-77
-78
-77
-68
-62
-54
-34
-17
-5
26
75
112
142
185
203
167
143
190
249
264
263
266
261
275
318
324
278
257
275
275
250
241
243
228
204
207
227
217
190
192
184
129
90
105
109
72
50
47
17
-14
-29
-34
136
511
568
22
-495
-466
-247
-198
-205
-195
-208
-204
-195
-214
-215
-200
-206
-205
-185
-178
-164
-129
-104
-84
-33
29
68
105
167
235
271
292
326
341
307
253
210
170
129
92
51
11
-2
-2
-24
-49
-52
-58
-82
-107
-143
-179
-192
-209
-252
-276
-266
-266
-275
-254
-217
-225
-259
-256
-235
-244
-270
-285
-287
-266
-233
-207
-185
-182
-180
-136
-90
-99
-88
-17
22
13
33
68
75
77
83
86
102
132
166
186
169
136
133
138
115
90
82
66
42
25
8
-3
7
10
-15
-35
-45
-61
-71
-81
-102
-94
-79
-105
-108
-89
-76
211
754
756
-21
-604
-467
-180
-111
-87
-61
-82
-78
-43
-33
-38
-42
-53
-45
2
34
20
11
40
63
74
115
183
240
292
348
396
424
424
399
365
301
195
126
106
32
-79
-113
-103
-129
-144
-121
-112
-115
-95
-77
-79
-79
-62
-38
-27
-36
-42
-33
-32
-41
-38
-27
-17
-4
9
12
17
38
58
58
50
57
78
102
129
157
170
159
142
145
158
148
145
175
183
172
178
153
267
736
1051
583
-138
-247
51
177
149
149
146
137
142
129
111
125
135
115
100
99
95
101
121
123
119
144
171
162
154
173
181
166
148
95
-34
-184
-323
-503
-714
-861
-926
-955
-946
-918
-909
-905
-891
-856
-759
-640
-564
-475
-354
-302
-318
-324
-329
-329
-301
-273
-236
-174
-152
-184
-216
-235
-240
-221
-203
-192
-174
-167
-170
-172
-181
-177
-136
-95
-98
-105
-82
-97
-76
300
867
794
-35
-594
-382
-34
40
80
175
201
206
253
275
249
246
276
283
271
289
325
353
396
462
525
569
584
575
543
429
213
101
281
566
670
622
559
474
374
308
255
193
141
94
55
60
92
105
112
150
182
150
89
69
77
65
54
62
40
-1
7
36
7
-32
-1
40
18
8
62
86
40
22
35
11
2
39
37
15
-8
-20
308
992
1084
152
-676
-580
-208
-131
-115
-54
-97
-168
-160
-144
-170
-192
-190
-184
-187
-191
-190
-183
-166
-138
-109
-75
-19
48
108
173
225
227
190
142
60
-55
-153
-230
-315
-387
-423
-439
-443
-445
-457
-457
-437
-418
-405
-388
-376
-361
-333
-309
-300
-283
-258
-247
-247
-235
-213
-204
-204
-190
-159
-128
-101
-84
-90
-109
-107
-93
-99
-102
-86
-86
-92
-83
-97
56
583
926
415
-387
-524
-203
-67
-84
-46
-26
-43
-25
1
6
11
20
21
26
47
68
70
78
116
161
197
245
313
378
435
487
513
501
463
412
343
261
190
142
103
64
38
37
38
29
29
48
61
52
42
50
65
67
55
48
61
79
78
63
65
78
73
57
52
46
35
35
43
48
61
83
101
111
106
85
79
85
72
62
73
63
43
31
24
224
712
872
264
-398
-392
-98
-23
-46
-14
-5
-23
-28
-39
-59
-69
-75
-86
-94
-93
-86
-78
-58
-27
3
39
90
144
199
260
296
291
273
256
207
121
42
-12
-63
-114
-144
-160
-175
-178
-169
-165
-168
-167
-158
-150
-158
-170
-163
-149
-155
-168
-165
-156
-165
-183
-186
-180
-191
-198
-186
-193
-230
-239
-216
-218
-248
-250
-229
-233
-257
-264
-257
-258
-262
-259
-258
-267
-270
-259
-252
-253
-254
-256
-255
-242
-225
-220
-220
-204
-182
-178
-182
-168
-139
-119
-116
-112
-95
-85
-73
-34
-3
-19
-28
8
29
24
51
85
79
73
86
83
96
143
158
137
149
186
199
202
219
239
261
276
273
280
304
317
327
347
346
329
328
324
310
323
340
330
329
355
361
330
305
305
312
321
338
327
305
324
306
341
823
1472
1264
240
-352
-147
133
196
226
227
197
203
196
155
141
156
162
147
102
44
-1
-33
-46
-36
-43
-85
-107
-72
-26
1
19
29
23
7
-23
-71
-132
-206
-279
-326
-368
-421
-457
-465
-469
-474
-465
-448
-435
-430
-424
-409
-399
-405
-403
-376
-357
-360
-353
-328
-310
-307
-302
-293
-284
-273
-259
-249
-242
-229
-215
-212
-212
-205
-195
-181
-168
-161
-152
-135
-118
-112
-109
-105
-103
-97
-79
-61
-59
-67
-66
-54
-47
-51
-59
-52
-32
-19
-19
-20
-24
-31
-28
-21
-28
-29
-4
20
18
6
9
26
36
31
36
60
76
78
91
108
109
104
109
120
126
119
108
112
129
142
156
174
181
176
176
172
152
140
140
139
136
118
102
113
103
215
734
1215
814
-121
-454
-145
59
50
80
108
89
102
128
124
124
139
146
152
161
164
174
205
241
269
295
323
369
435
490
530
577
612
599
565
527
452
344
248
157
61
-2
-29
-59
-106
-148
-165
-167
-188
-220
-218
-194
-200
-226
-240
-249
-266
-277
-279
-296
-322
-319
-288
-280
-301
-310
-308
-314
-315
-302
-290
-281
-272
-272
-269
-262
-265
-262
-241
-222
-219
-225
-229
-221
-210
-206
-193
-180
-185
-183
-164
-160
-168
-163
-153
-151
-155
-162
-157
-133
-115
-103
-72
-48
-73
-99
-77
-60
-69
-66
-68
-75
-81
-84
181
833
1099
393
-414
-426
-110
-54
-74
-17
-13
-34
-13
6
15
33
36
27
36
49
57
75
114
163
196
206
232
288
349
414
483
520
529
528
486
389
292
223
154
78
23
-4
-23
-35
-33
-35
-57
-70
-68
-75
-81
-73
-75
-90
-91
-92
-120
-135
-117
-112
-126
-115
-92
-94
-110
-117
-123
-136
-148
-143
-126
-124
-131
-121
-118
-132
-119
-82
-82
-101
-79
-47
-57
-65
-59
-78
-92
-76
-86
-112
-115
-105
120
653
842
195
-517
-493
-158
-90
-134
-102
-89
-94
-61
-38
-43
-40
-32
-31
-28
-21
-3
35
84
118
131
150
196
259
330
404
470
509
513
493
459
398
305
210
139
101
94
78
28
1
27
47
38
30
20
10
21
42
51
49
40
25
11
0
-6
-10
-19
-42
-70
-71
-55
-79
-118
-98
-49
-55
-96
-118
-139
-159
-144
-110
-92
-76
-59
-68
-113
-148
-129
-96
-109
-137
-151
-168
-195
-253
-182
271
699
353
-437
-687
-392
-199
-207
-209
-203
-202
-176
-148
-132
-123
-129
-136
-131
-115
-87
-57
-47
-38
4
57
83
111
176
251
304
342
357
338
298
225
137
78
21
-61
-106
-109
-138
-173
-170
-161
-158
-141
-122
-110
-99
-92
-83
-80
-99
-105
-76
-70
-94
-83
-51
-65
-99
-104
-95
-78
-44
-29
-68
-111
-100
-83
-118
-127
-46
23
6
-25
-17
-3
-11
-50
-86
-46
40
50
11
25
9
38
491
1084
835
-159
-655
-354
-52
-34
-24
15
19
33
44
36
51
76
78
79
95
112
131
153
179
215
251
294
358
415
452
509
584
612
582
542
494
413
302
195
133
111
76
18
-20
-24
-33
-61
-73
-51
-36
-53
-72
-71
-78
-98
-102
-101
-113
-124
-126
-139
-158
-163
-169
-179
-191
-227
-253
-211
-180
-237
-273
-224
-201
-235
-248
-256
-296
-310
-272
-252
-249
-204
-215
-271
75
802
878
-36
-794
-729
-411
-255
-176
-136
-106
-79
-107
-109
-49
-55
-109
-86
-29
-16
-2
27
43
64
108
163
227
304
379
437
474
479
434
343
236
126
21
-46
-79
-110
-139
-160
-185
-197
-175
-139
-111
-103
-117
-134
-121
-86
-75
-94
-102
-100
-98
-77
-78
-111
-114
-102
-114
-105
-92
-118
-109
-54
-55
-85
-52
-1
11
20
21
-33
-82
-51
-3
-13
-51
-64
-51
-83
-69
386
1111
1049
16
-692
-473
-134
-122
-123
-55
-49
-65
-68
-73
-51
-28
-26
0
29
26
51
100
100
111
204
289
308
340
424
506
544
556
557
519
434
351
299
240
154
92
91
89
53
59
98
62
5
57
153
156
97
66
72
88
84
50
22
8
-27
-62
-65
-76
-112
-135
-157
-201
-225
-231
-269
-306
-293
-262
-243
-234
-249
-284
-298
-292
-300
-309
-274
-235
-258
-287
-295
-244
145
764
744
-104
-704
-515
-204
-199
-244
-202
-160
-143
-139
-141
-132
-122
-128
-128
-106
-89
-86
-56
-5
26
51
94
141
189
243
280
294
306
305
268
204
139
80
25
-24
-62
-90
-113
-128
-129
-129
-136
-139
-132
-124
-117
-107
-97
-88
-79
-77
-80
-76
-70
-66
-51
-32
-26
-25
-20
-19
-14
8
31
45
54
56
56
65
74
77
86
93
90
87
89
94
103
113
114
111
102
86
81
96
106
99
105
134
141
98
66
80
82
66
75
83
70
46
41
279
768
858
219
-384
-349
-87
-25
-45
-29
-33
-45
-28
-13
-33
-58
-45
-25
-30
-25
5
29
35
37
59
113
168
203
242
284
306
321
332
317
266
191
129
102
66
-5
-56
-62
-48
-26
-41
-88
-91
-120
-272
-352
-200
-34
-18
-36
-38
-65
-66
-37
-73
-150
-163
-134
-145
-177
-168
-137
-137
-154
-149
-128
-112
-103
-106
-113
-113
-116
-134
-159
-188
-203
-214
-253
-272
-233
-218
-238
-209
-190
-233
-236
-212
-273
-335
-287
-236
-268
-309
-374
-475
-315
181
352
-188
-719
-624
-308
-210
-182
-93
-32
-6
27
43
37
45
78
108
122
151
194
219
239
276
301
315
369
457
528
576
605
613
609
588
534
460
386
318
269
232
179
125
99
97
94
82
70
77
104
123
124
120
115
111
119
121
94
73
90
100
74
65
78
59
32
40
44
32
42
51
16
-14
-4
-12
-56
-66
-21
4
-11
-20
-35
-67
-87
-108
-151
-160
-135
-147
-161
-169
-201
25
595
743
23
-693
-664
-346
-250
-262
-253
-254
-251
-243
-250
-250
-239
-226
-207
-191
-190
-191
-172
-148
-141
-125
-63
-2
38
118
205
216
222
289
311
233
151
103
5
-169
-313
-377
-439
-456
-289
-45
57
52
74
109
120
135
156
153
136
141
166
186
192
189
181
179
178
169
153
102
-16
-142
-196
-201
-207
-194
-155
-138
-149
-142
-122
-127
-135
-127
-128
-129
-113
-102
-100
-116
-98
176
605
563
-58
-480
-346
-123
-82
-68
-36
-35
-24
0
5
7
15
19
24
39
52
62
77
99
124
155
192
239
296
348
384
404
409
405
387
340
265
184
115
57
9
-32
-61
-75
-78
-80
-79
-78
-85
-99
-106
-104
-100
-95
-97
-114
-121
-107
-107
-123
-118
-107
-125
-143
-137
-144
-177
-180
-133
-84
-77
-107
-149
-161
-152
-180
-211
-156
-89
-102
-79
-2
-31
19
403
647
213
-393
-440
-135
-22
-101
-114
-31
34
52
55
39
23
57
100
102
128
188
164
84
131
267
283
222
263
369
418
425
427
399
348
293
215
106
-3
-92
-204
-417
-685
-763
-546
-290
-215
-216
-172
-137
-135
-108
-61
-41
-47
-39
-18
-4
1
11
39
73
76
58
72
112
126
119
121
130
128
107
89
92
84
49
26
39
75
63
8
165
565
579
-81
-645
-552
-266
-207
-200
-142
-137
-150
-115
-89
-103
-105
-73
-37
-14
10
44
58
58
102
170
190
190
245
337
404
426
417
399
379
344
287
202
104
29
-11
-59
-118
-155
-180
-215
-231
-215
-207
-214
-205
-187
-177
-169
-162
-159
-160
-163
-171
-180
-192
-202
-200
-189
-184
-185
-185
-193
-216
-236
-235
-237
-254
-246
-225
-236
-229
-202
-208
-14
490
660
53
-600
-600
-304
-184
-158
-115
-98
-90
-73
-61
-43
-14
9
28
45
46
47
76
121
169
223
268
300
347
410
463
506
543
557
529
461
381
308
237
162
102
72
59
48
37
30
32
37
29
11
10
27
35
26
14
8
-1
-27
-45
-24
-4
-30
-65
-59
-43
-38
-23
-12
-43
-82
-76
-56
-75
-100
-99
-118
-142
-142
-170
-61
425
799
353
-437
-613
-325
-202
-210
-156
-136
-148
-116
-98
-108
-103
-95
-91
-79
-71
-54
-13
17
28
52
93
145
205
271
339
379
376
370
358
284
183
129
95
37
-18
-51
-77
-89
-87
-103
-131
-127
-100
-97
-113
-113
-110
-121
-125
-119
-119
-116
-104
-109
-126
-128
-122
-122
-115
-101
-86
-70
-60
-72
-89
-82
-73
-90
-91
-61
-62
-79
-74
-67
132
647
868
294
-376
-391
-118
-45
-41
9
5
-16
5
29
34
38
58
94
112
102
108
140
171
202
244
286
323
361
401
448
494
510
483
429
371
305
219
139
82
4
-88
-130
-153
-249
-392
-460
-419
-333
-267
-267
-369
-493
-492
-400
-384
-432
-423
-372
-343
-313
-274
-260
-257
-236
-215
-206
-196
-180
-162
-147
-131
-114
-104
-105
-108
-119
-147
-178
-170
-111
-111
-90
341
989
887
-26
-579
-359
-90
-81
-71
-41
-66
-63
-23
-14
-26
-17
13
36
26
19
71
186
307
391
428
424
394
363
337
298
265
266
282
278
256
211
143
74
24
-8
-32
-56
-68
-48
-24
-28
-27
13
57
72
