# session 23
25
96
-116
25
870
1587
1593
1402
1404
1387
1304
1277
1255
1207
1182
1164
1141
1134
1132
1129
1139
1144
1128
1099
1060
1002
920
819
710
606
514
433
366
315
274
240
214
196
176
153
133
115
91
70
55
35
6
-18
-36
-56
-78
-100
-122
-136
-147
-163
-184
-197
-208
-227
-240
-240
-234
-227
-214
-210
-227
-250
-262
-264
-274
-284
-277
-281
-296
-294
-319
-242
228
708
370
-493
-784
-463
-271
-306
-292
-263
-276
-264
-242
-240
-231
-219
-216
-206
-192
-178
-157
-134
-109
-79
-43
-2
42
86
131
171
192
193
181
154
100
33
-30
-83
-129
-161
-177
-182
-186
-184
-175
-167
-164
-157
-144
-135
-129
-122
-114
-109
-107
-107
-103
-97
-94
-94
-92
-86
-85
-84
-79
-75
-78
-79
-81
-84
-76
-52
-27
-8
3
3
-7
-17
-13
-5
-10
-9
-1
-9
-8
-10
-24
221
769
882
178
-456
-347
-31
12
-11
27
29
24
48
57
57
66
72
77
87
96
107
124
143
163
190
223
262
304
342
371
393
403
399
379
337
273
203
139
82
36
3
-20
-36
-42
-41
-36
-32
-33
-34
-31
-24
-24
-34
-42
-43
-40
-41
-44
-49
-54
-55
-55
-56
-59
-62
-63
-63
-61
-58
-61
-71
-74
-75
-86
-92
-77
-54
-36
-23
-19
-36
-59
-63
-55
-60
-64
-57
-69
-78
-76
-101
52
556
821
255
-482
-517
-177
-76
-111
-82
-72
-87
-73
-61
-66
-65
-59
-56
-49
-40
-30
-19
-4
16
40
68
105
145
183
220
247
258
259
248
216
163
95
26
-31
-74
-107
-133
-149
-157
-158
-156
-156
-155
-151
-149
-147
-140
-130
-127
-131
-134
-138
-143
-142
-135
-126
-119
-114
-108
-103
-103
-101
-94
-88
-84
-78
-73
-71
-68
-66
-67
-66
-63
-65
-65
-50
-26
-8
6
18
12
-5
-11
-10
-15
-9
-2
-18
-14
-6
-31
203
799
962
181
-606
-537
-127
-9
-26
12
23
10
17
30
47
59
55
60
79
86
88
106
129
149
173
200
230
273
323
361
383
400
408
392
358
308
238
157
93
50
10
-26
-49
-61
-72
-78
-73
-61
-58
-70
-78
-74
-76
-83
-77
-71
-81
-88
-80
-77
-86
-94
-97
-100
-103
-108
-109
-103
-101
-109
-115
-117
-120
-117
-110
-104
-88
-64
-56
-67
-84
-93
-95
-102
-100
-81
-87
-103
-91
-115
1
555
1000
462
-528
-760
-347
-113
-118
-93
-78
-94
-76
-56
-59
-53
-39
-35
-33
-22
-3
16
33
54
83
114
150
200
258
306
338
359
368
352
313
256
185
106
34
-25
-71
-102
-117
-120
-118
-117
-115
-108
-99
-96
-96
-94
-90
-88
-92
-97
-101
-104
-107
-108
-109
-112
-113
-110
-110
-110
-109
-107
-102
-99
-101
-101
-99
-101
-98
-83
-65
-48
-30
-19
-29
-47
-51
-47
-54
-52
-35
-39
-47
-46
-72
103
665
968
366
-432
-479
-122
-17
-58
-34
-24
-37
-19
-5
-6
-1
2
8
22
34
41
54
73
93
116
148
185
223
262
300
330
345
343
328
295
238
167
99
40
-9
-46
-73
-90
-97
-98
-96
-93
-88
-82
-75
-73
-76
-77
-72
-72
-79
-85
-88
-89
-91
-93
-97
-97
-95
-93
-91
-89
-91
-93
-90
-85
-86
-90
-95
-100
-97
-77
-50
-28
-14
-13
-27
-45
-48
-44
-49
-48
-31
-36
-48
-41
-61
70
566
895
387
-393
-494
-149
-21
-58
-31
-10
-25
-14
-2
-3
7
17
18
23
34
48
64
79
97
124
155
188
226
267
306
336
350
347
332
302
249
180
109
46
-9
-50
-77
-94
-104
-112
-115
-112
-105
-98
-98
-101
-101
-96
-95
-100
-102
-100
-103
-109
-109
-106
-106
-110
-112
-108
-106
-109
-113
-113
-112
-111
-111
-112
-114
-120
-128
-133
-133
-124
-109
-92
-75
-64
-67
-80
-92
-92
-92
-97
-88
-77
-93
-96
-100
-110
156
717
791
35
-600
-454
-113
-62
-76
-35
-38
-45
-18
-12
-20
-8
5
5
11
25
39
56
77
99
120
151
189
227
266
311
347
358
357
352
327
269
194
121
60
13
-26
-58
-75
-80
-84
-85
-78
-71
-76
-83
-81
-74
-72
-75
-77
-75
-72
-73
-78
-84
-87
-85
-77
-72
-72
-67
-58
-57
-65
-66
-58
-52
-56
-63
-63
-51
-29
-8
4
10
9
-6
-19
-24
-33
-31
-18
-25
-22
-23
-47
217
862
1026
176
-681
-627
-199
-59
-67
-40
-40
-46
-24
-9
-1
8
8
7
16
26
34
53
78
97
116
155
203
246
293
346
382
391
390
377
335
265
181
100
28
-35
-85
-115
-130
-139
-144
-142
-143
-146
-142
-133
-132
-136
-138
-141
-144
-143
-144
-150
-153
-153
-156
-158
-155
-152
-154
-152
-148
-142
-137
-136
-137
-135
-131
-135
-136
-120
-98
-83
-70
-59
-66
-85
-89
-78
-81
-83
-69
-71
-76
-63
-93
26
575
1002
488
-442
-649
-256
-45
-62
-44
-23
-29
-10
6
3
13
25
28
37
51
61
75
97
119
141
173
215
259
302
344
381
404
407
391
359
308
233
152
83
29
-18
-53
-74
-86
-90
-85
-76
-72
-71
-70
-66
-61
-58
-60
-66
-70
-71
-70
-71
-76
-83
-87
-89
-90
-92
-96
-99
-97
-93
-92
-93
-92
-89
-92
-100
-107
-114
-119
-112
-93
-75
-59
-48
-50
-70
-85
-80
-74
-84
-81
-70
-81
-82
-88
-89
202
774
830
69
-541
-397
-95
-71
-90
-52
-55
-61
-40
-33
-30
-16
-8
-3
5
17
32
48
65
85
112
143
179
222
267
306
330
343
343
325
286
227
156
85
26
-21
-56
-81
-96
-104
-106
-105
-101
-97
-95
-91
-88
-87
-85
-83
-83
-85
-85
-85
-85
-85
-87
-86
-83
-83
-86
-87
-83
-82
-83
-81
-76
-70
-66
-65
-64
-58
-50
-51
-56
-59
-61
-66
-67
-58
-42
-22
-2
11
11
-8
-26
-26
-21
-24
-13
-5
-23
-25
-30
-8
325
850
767
-29
-523
-304
-28
-22
-36
-5
-9
-7
12
16
19
29
33
33
36
48
67
83
93
111
144
180
211
249
295
333
356
368
370
353
315
260
191
114
46
-3
-42
-75
-97
-106
-110
-113
-114
-110
-106
-107
-110
-109
-108
-111
-115
-114
-114
-120
-124
-123
-125
-133
-138
-133
-127
-126
-130
-135
-134
-129
-128
-133
-136
-132
-127
-128
-130
-125
-116
-113
-112
-109
-110
-114
-113
-107
-103
-101
-97
-95
-96
-99
-97
-87
-66
-44
-25
-20
-40
-65
-63
-57
-59
-47
-45
-58
-41
-49
-9
404
918
655
-257
-670
-359
-76
-55
-44
-23
-36
-21
1
2
13
27
27
30
45
57
64
80
110
137
160
193
234
272
315
361
390
401
416
424
391
326
263
199
122
56
12
-16
-33
-45
-54
-53
-51
-54
-48
-31
-26
-31
-25
-16
-17
-23
-27
-31
-33
-31
-32
-35
-37
-40
-46
-53
-56
-52
-52
-57
-58
-55
-57
-61
-65
-66
-66
-68
-73
-73
-72
-79
-90
-97
-98
-93
-83
-64
-42
-36
-53
-79
-88
-81
-85
-98
-87
-84
-99
-88
-101
-40
431
975
650
-352
-779
-421
-119
-113
-104
-70
-78
-70
-53
-54
-46
-29
-20
-13
-7
-2
9
26
47
75
106
141
181
226
276
325
358
368
361
340
300
236
155
78
14
-40
-83
-113
-129
-136
-138
-134
-126
-121
-117
-111
-105
-98
-91
-89
-90
-85
-81
-85
-89
-88
-91
-93
-89
-89
-92
-93
-90
-87
-84
-81
-77
-74
-71
-65
-59
-58
-57
-52
-50
-51
-53
-56
-61
-65
-62
-51
-35
-16
3
16
16
2
-14
-15
-13
-20
-13
-3
-17
-19
-20
-15
280
855
911
139
-487
-345
-40
-19
-42
-4
-9
-19
2
9
9
21
26
25
29
36
44
57
72
88
108
135
169
212
255
295
327
344
346
333
302
247
170
89
17
-34
-70
-103
-133
-148
-152
-158
-159
-151
-145
-147
-144
-135
-128
-128
-127
-122
-121
-127
-129
-127
-126
-127
-129
-131
-132
-129
-127
-127
-126
-122
-120
-121
-117
-113
-112
-111
-104
-99
-98
-94
-89
-92
-99
-102
-101
-91
-69
-44
-25
-10
-6
-18
-30
-26
-22
-28
-19
-3
-14
-13
-6
-8
245
794
895
175
-463
-344
-16
32
7
43
44
37
55
60
59
74
86
89
97
109
120
130
141
158
182
209
241
282
328
368
398
420
430
420
389
337
261
174
98
40
-8
-46
-76
-94
-100
-101
-104
-105
-102
-103
-107
-105
-101
-101
-102
-100
-100
-103
-107
-111
-112
-115
-123
-131
-133
-134
-137
-138
-139
-144
-147
-145
-145
-148
-151
-151
-151
-150
-152
-153
-148
-139
-137
-146
-156
-160
-156
-143
-119
-95
-77
-66
-71
-92
-106
-100
-101
-102
-81
-73
-83
-66
-73
-10
427
906
589
-293
-631
-307
-68
-80
-74
-43
-48
-39
-26
-28
-21
-6
2
4
8
24
43
53
62
83
112
147
189
232
280
333
378
399
402
390
359
301
219
133
65
12
-34
-70
-91
-104
-109
-105
-100
-95
-89
-82
-74
-66
-58
-52
-50
-49
-47
-47
-49
-49
-54
-60
-63
-66
-66
-63
-61
-62
-60
-56
-55
-59
-61
-53
-48
-48
-42
-35
-38
-41
-36
-18
17
47
42
14
-4
-8
-7
-9
-3
3
-22
-35
-22
-41
157
791
1118
379
-604
-691
-243
-51
-53
-20
-13
-21
0
3
-3
16
28
20
22
38
49
54
65
85
114
145
179
223
275
323
364
398
413
400
368
313
229
136
51
-27
-90
-131
-156
-175
-185
-187
-189
-189
-185
-176
-170
-169
-163
-158
-162
-163
-154
-151
-159
-162
-160
-164
-171
-171
-166
-165
-169
-173
-171
-164
-160
-159
-159
-157
-151
-147
-149
-146
-140
-141
-144
-134
-113
-89
-65
-50
-53
-70
-77
-72
-71
-69
-52
-50
-59
-44
-56
41
549
1038
630
-325
-637
-267
-22
-36
-22
7
-1
16
39
36
37
47
52
54
59
66
77
89
107
130
155
186
226
274
326
376
413
433
440
426
379
309
230
154
90
37
-7
-38
-50
-55
-57
-55
-51
-52
-51
-43
-32
-27
-23
-18
-17
-20
-22
-20
-17
-16
-20
-24
-25
-26
-31
-36
-40
-42
-43
-44
-46
-46
-42
-42
-49
-54
-54
-59
-65
-70
-80
-91
-86
-68
-50
-34
-19
-21
-44
-65
-67
-68
-82
-83
-81
-103
-108
-109
-93
211
751
746
-22
-583
-418
-139
-130
-151
-119
-120
-121
-110
-116
-114
-99
-94
-89
-79
-69
-55
-40
-30
-15
11
42
75
113
160
213
256
275
282
284
262
206
137
68
3
-55
-103
-133
-144
-150
-156
-160
-162
-161
-153
-150
-146
-128
-113
-115
-113
-101
-98
-101
-95
-89
-85
-78
-71
-64
-60
-60
-57
-48
-45
-45
-38
-31
-27
-19
-12
-7
2
3
-7
-3
10
6
-6
1
17
20
15
7
2
7
29
51
56
51
44
27
14
14
5
5
23
15
6
11
3
247
880
1099
289
-608
-592
-160
-28
-43
9
28
14
28
45
54
75
92
94
94
101
120
140
155
173
196
216
243
288
336
375
420
461
474
469
455
407
321
224
133
53
-14
-67
-104
-125
-138
-146
-154
-162
-160
-154
-151
-150
-147
-146
-147
-149
-152
-155
-157
-161
-171
-178
-176
-174
-181
-187
-189
-191
-187
-182
-185
-191
-187
-180
-177
-178
-183
-185
-175
-165
-174
-183
-171
-154
-143
-124
-104
-105
-123
-134
-130
-123
-124
-113
-107
-121
-113
-124
-90
340
957
780
-220
-778
-475
-138
-121
-119
-81
-93
-83
-48
-40
-36
-15
2
19
42
60
73
91
118
145
172
208
257
312
368
424
470
497
504
492
453
384
298
209
126
56
3
-36
-61
-79
-95
-103
-103
-99
-97
-98
-101
-102
-104
-103
-100
-101
-102
-96
-91
-91
-90
-89
-88
-83
-76
-72
-68
-64
-59
-52
-44
-41
-41
-37
-34
-35
-33
-31
-33
-33
-30
-33
-40
-47
-58
-63
-52
-34
-19
-4
8
1
-19
-30
-27
-34
-45
-35
-35
-55
-49
-49
40
484
939
608
-243
-543
-237
-54
-97
-88
-62
-78
-70
-55
-59
-56
-47
-46
-42
-32
-22
-10
3
19
42
71
103
141
189
242
289
321
340
347
339
308
253
180
105
41
-10
-48
-74
-91
-99
-101
-99
-96
-92
-88
-82
-76
-70
-65
-62
-60
-56
-51
-49
-47
-46
-46
-47
-46
-42
-39
-38
-42
-49
-51
-49
-47
-46
-43
-45
-49
-49
-48
-52
-55
-53
-53
-57
-60
-63
-75
-85
-79
-66
-56
-50
-46
-51
-68
-78
-71
-68
-74
-66
-64
-78
-73
-80
-23
370
844
620
-183
-541
-265
-42
-61
-61
-34
-48
-45
-27
-25
-21
-11
-9
-5
3
9
17
30
44
61
85
116
150
188
231
278
313
331
337
333
307
254
182
108
44
-6
-49
-76
-88
-96
-99
-94
-92
-96
-87
-69
-65
-68
-66
-63
-62
-59
-55
-56
-56
-54
-50
-47
-48
-52
-56
-56
-51
-48
-55
-60
-57
-60
-66
-65
-61
-57
-49
-46
-51
-60
-69
-77
-81
-81
-77
-71
-62
-51
-45
-55
-73
-77
-73
-85
-91
-74
-80
-100
-82
-88
7
504
969
526
-453
-768
-382
-110
-101
-86
-63
-70
-59
-46
-45
-31
-17
-6
14
27
24
27
46
64
77
96
132
177
215
257
314
362
378
380
379
354
289
206
128
54
-15
-67
-102
-123
-130
-130
-127
-121
-116
-110
-98
-88
-85
-77
-61
-52
-50
-44
-36
-36
-42
-43
-36
-32
-33
-33
-34
-39
-37
-31
-33
-37
-30
-21
-24
-23
-1
30
41
27
-2
