# session 7
-64
-92
-161
-187
-113
-52
-99
-180
-229
-278
-318
-317
-301
-297
-302
-331
-395
-461
-496
-500
-504
-535
-584
-631
-660
-662
-642
-624
-622
-621
-618
-622
-637
-650
-653
-643
-628
-624
-643
-679
-737
-874
-1139
-1453
-1682
-1818
-1908
-1974
-2131
-2271
-1910
-1251
-1371
-2281
-2656
-2137
-1598
-1317
-979
-659
-502
-382
-265
-206
-151
-57
65
238
444
619
775
956
1143
1303
1427
1510
1566
1616
1656
1672
1696
1756
1800
1762
1681
1614
1529
1402
1294
1255
1261
1288
1350
1429
1503
1607
1741
1854
1953
2049
2105
2175
2283
2305
2232
2108
1892
1944
2580
2856
1833
600
530
1038
1145
1059
1076
1029
959
954
850
705
684
576
402
612
982
801
250
-18
-91
-347
-695
-929
-1086
-1246
-1394
-1511
-1604
-1655
-1665
-1685
-1727
-1743
-1728
-1728
-1741
-1740
-1729
-1714
-1692
-1675
-1654
-1603
-1542
-1511
-1493
-1467
-1447
-1421
-1389
-1365
-1332
-1376
-1427
-985
-172
-192
-1248
-1855
-1425
-955
-915
-901
-818
-789
-753
-696
-670
-636
-553
-437
-316
-208
-121
-47
35
133
208
240
259
285
312
324
309
274
259
278
299
304
320
355
368
351
354
377
372
341
321
307
302
324
347
340
309
281
276
283
260
236
203
81
205
924
1413
703
-346
-416
79
239
198
247
260
240
270
292
300
334
358
367
403
458
505
550
590
613
614
586
540
493
448
397
338
281
238
217
207
194
186
186
172
140
122
122
111
85
64
61
69
76
75
69
40
9
15
17
-5
-19
-124
-193
305
1064
854
-225
-681
-264
17
-42
-30
18
-9
-7
10
-4
2
30
41
56
92
133
167
192
197
180
150
110
56
-3
-59
-116
-171
-200
-207
-220
-240
-248
-234
-219
-229
-253
-256
-239
-233
-247
-254
-238
-209
-194
-194
-204
-225
-229
-205
-206
-227
-274
-422
-357
314
884
342
-644
-781
-329
-159
-204
-166
-145
-164
-138
-112
-111
-93
-68
-53
-24
16
55
105
165
200
195
171
150
133
114
78
17
-32
-40
-42
-63
-73
-64
-65
-79
-89
-97
-107
-117
-123
-131
-136
-120
-89
-71
-72
-85
-112
-121
-102
-109
-122
-142
-256
-198
372
804
255
-608
-684
-269
-109
-137
-108
-89
-91
-71
-55
-45
-22
4
43
96
135
158
202
272
314
308
293
288
273
241
197
136
72
37
32
15
-23
-37
-19
-20
-42
-37
-14
-19
-40
-39
-28
-34
-35
-3
36
32
-7
-12
18
11
-10
5
-77
-158
290
1029
864
-226
-772
-350
46
49
58
120
99
86
119
131
146
190
211
206
227
274
324
377
406
376
319
294
282
236
162
93
35
-21
-68
-97
-108
-112
-115
-117
-115
-109
-114
-136
-152
-153
-164
-180
-168
-141
-149
-170
-178
-192
-200
-190
-195
-199
-241
-375
-197
555
930
125
-805
-728
-256
-166
-206
-142
-135
-161
-135
-119
-115
-87
-60
-42
-4
42
82
134
185
203
190
159
115
81
63
21
-53
-103
-115
-124
-136
-132
-112
-99
-110
-130
-131
-128
-139
-144
-131
-122
-115
-93
-58
-28
-15
-26
-37
-16
-6
-26
-40
-129
-175
304
1033
879
-106
-552
-182
85
31
39
91
67
61
92
108
117
122
125
149
192
232
272
311
330
325
309
290
261
217
160
101
53
27
16
-2
-31
-49
-51
-54
-61
-63
-72
-96
-119
-124
-121
-127
-130
-108
-78
-72
-85
-99
-110
-105
-95
-105
-106
-150
-278
-130
497
798
148
-590
-535
-170
-94
-121
-81
-77
-93
-80
-70
-59
-40
-32
-20
10
40
78
132
181
206
209
199
183
161
125
76
22
-28
-60
-76
-98
-123
-122
-105
-112
-135
-140
-135
-143
-152
-147
-146
-163
-168
-134
-91
-89
-111
-116
-113
-108
-92
-93
-99
-91
-176
-196
315
976
684
-343
-726
-307
-19
-40
-10
40
16
26
74
84
77
97
140
183
205
219
265
327
358
357
342
311
272
239
194
124
58
17
-16
-54
-72
-62
-54
-70
-86
-88
-95
-106
-105
-103
-115
-131
-137
-138
-135
-114
-88
-86
-101
-111
-114
-105
-103
-111
-100
-160
-193
307
1089
877
-355
-991
-549
-113
-102
-96
-31
-40
-41
-4
14
24
47
69
94
140
197
250
304
353
365
337
304
277
235
171
90
5
-66
-105
-121
-134
-138
-124
-115
-124
-131
-119
-111
-126
-144
-147
-142
-141
-153
-161
-135
-98
-100
-125
-137
-131
-107
-106
-123
-120
-191
-175
408
1095
669
-524
-904
-390
-73
-105
-75
-34
-57
-37
-5
-7
10
44
68
98
138
182
234
282
311
318
300
260
217
172
110
31
-39
-80
-101
-114
-114
-108
-110
-114
-111
-109
-111
-114
-117
-126
-140
-149
-152
-156
-148
-114
-84
-84
-92
-102
-102
-80
-74
-82
-90
-184
-120
536
1166
672
-391
-626
-181
10
-40
-3
24
3
25
47
46
60
77
98
141
182
214
261
315
356
372
358
325
286
233
168
105
48
2
-26
-42
-49
-47
-45
-50
-63
-79
-84
-80
-82
-93
-97
-98
-113
-135
-138
-117
-94
-87
-95
-118
-143
-140
-133
-157
-162
-172
-255
-87
546
852
172
-631
-613
-228
-115
-127
-89
-84
-94
-79
-74
-61
-27
-7
13
55
92
121
176
247
285
287
280
278
267
228
157
78
21
-25
-71
-91
-78
-65
-64
-63
-62
-72
-84
-84
-79
-77
-78
-90
-108
-114
-110
-93
-59
-44
-67
-96
-127
-150
-137
-134
-146
-133
-201
-182
434
1170
750
-511
-1008
-568
-209
-167
-132
-101
-89
-59
-66
-80
-33
13
32
70
117
159
216
283
331
349
341
322
299
250
166
72
-11
-80
-130
-161
-169
-164
-165
-175
-168
-146
-135
-137
-138
-136
-139
-148
-156
-158
-157
-136
-99
-92
-109
-114
-114
-103
-85
-102
-102
-94
-176
41
880
1316
399
-735
-736
-192
-19
-29
36
51
33
63
86
88
110
149
186
213
241
294
365
416
436
442
430
380
310
252
195
127
62
14
-17
-29
-34
-38
-38
-34
-21
-2
3
-8
-7
-1
-12
-23
-22
-23
-16
17
43
31
-6
-36
-34
-31
-56
-65
-103
-168
143
854
965
67
-656
-473
-131
-133
-159
-96
-96
-112
-94
-93
-93
-70
-47
-31
-6
27
70
120
161
186
193
178
148
104
28
-70
-148
-200
-245
-275
-280
-281
-285
-282
-278
-280
-280
-273
-277
-287
-287
-283
-288
-291
-277
-256
-232
-196
-166
-172
-204
-204
-163
-156
-176
-160
-188
-144
369
987
684
-329
-740
-354
-56
-74
-66
-9
-6
2
37
59
77
106
140
173
206
247
308
378
427
443
444
442
427
376
296
217
142
64
12
-9
-24
-26
-11
-10
-21
-20
-17
-34
-51
-45
-37
-49
-63
-66
-61
-43
-18
-19
-48
-69
-78
-71
-53
-76
-112
-103
-173
-168
413
1121
743
-428
-872
-448
-157
-186
-170
-130
-145
-130
-97
-90
-72
-32
9
45
80
118
170
238
296
318
311
295
265
210
140
77
18
-34
-65
-77
-87
-89
-74
-60
-60
-56
-41
-27
-30
-45
-61
-72
-76
-71
-59
-38
-14
-11
-26
-38
-48
-39
-25
-47
-49
-53
-119
149
938
1232
370
-483
-362
13
17
-19
39
21
3
40
40
33
72
106
120
141
165
209
276
323
328
311
277
231
180
118
46
-25
-80
-113
-126
-129
-122
-115
-118
-125
-122
-121
-125
-135
-153
-173
-192
-218
-239
-239
-233
-228
-220
-224
-244
-265
-283
-297
-297
-306
-316
-315
-370
-311
175
634
234
-624
-846
-487
-290
-307
-278
-250
-259
-237
-209
-191
-155
-122
-99
-55
8
77
154
226
288
351
394
385
352
332
300
232
160
114
80
55
48
49
60
76
75
66
69
63
45
42
41
25
15
14
14
22
36
44
47
39
16
-1
9
19
-8
-13
-12
-116
18
781
1315
553
-632
-796
-280
-49
-54
-6
14
-1
19
38
40
41
50
84
135
178
223
279
332
367
380
371
341
291
231
166
81
-1
-44
-65
-96
-110
-95
-91
-101
-89
-74
-72
-77
-92
-115
-125
-126
-131
-140
-148
-134
-101
-102
-134
-146
-151
-164
-150
-148
-165
-151
-211
-188
436
1192
783
-484
-961
-485
-150
-166
-138
-93
-118
-110
-73
-61
-55
-39
-13
27
69
113
173
234
268
271
260
234
195
149
94
21
-52
-102
-128
-139
-141
-138
-132
-120
-109
-104
-104
-103
-101
-101
-106
-110
-108
-108
-105
-83
-61
-68
-86
-93
-102
-92
-71
-87
-94
-107
-175
104
913
1203
277
-647
-515
-68
-23
-63
4
13
1
30
40
43
67
91
119
155
190
236
290
327
348
354
327
277
225
162
87
20
-39
-88
-117
-122
-118
-117
-125
-132
-131
-126
-130
-138
-140
-144
-156
-161
-151
-140
-126
-105
-102
-121
-143
-168
-183
-167
-163
-182
-187
-249
-223
282
879
573
-375
-711
-358
-150
-194
-168
-120
-125
-107
-81
-77
-54
-14
16
46
91
142
194
247
296
326
333
322
293
237
169
107
50
0
-29
-41
-52
-54
-46
-40
-32
-29
-40
-45
-37
-39
-50
-53
-47
-46
-43
-16
18
13
-19
-35
-42
-41
-31
-50
-54
-44
-141
-20
733
1270
523
-620
-732
-209
-26
-76
-33
0
-21
-14
16
43
55
55
85
141
173
199
260
323
347
345
330
297
247
184
109
33
-37
-99
-141
-154
-154
-153
-149
-144
-145
-148
-143
-137
-138
-144
-153
-159
-153
-147
-141
-117
-95
-107
-128
-138
-143
-129
-121
-142
-140
-189
-230
237
1043
926
-252
-923
-528
-107
-106
-107
-51
-74
-80
-39
-23
-18
6
39
80
122
162
211
266
308
321
307
273
233
188
129
55
-21
-76
-107
-127
-140
-138
-128
-121
-117
-112
-108
-110
-120
-127
-121
-111
-112
-122
-118
-87
-59
-60
-78
-97
-116
-110
-89
-101
-104
-126
-207
69
866
1128
191
-716
-566
-106
-52
-95
-41
-36
-44
-14
-4
0
27
51
75
112
152
195
249
299
326
323
296
253
203
147
80
10
-47
-81
-96
-106
-120
-123
-104
-85
-85
-85
-80
-86
-97
-98
-99
-103
-93
-76
-58
-30
-10
-20
-39
-54
-62
-49
-45
-66
-61
-104
-144
285
1046
999
-19
-631
-329
-9
-41
-54
-8
-18
-13
12
10
21
50
67
88
122
160
203
245
274
290
290
263
219
168
107
36
-30
-81
-109
-122
-131
-140
-141
-138
-137
-137
-139
-139
-139
-148
-162
-170
-173
-179
-180
-168
-151
-129
-108
-115
-144
-162
-174
-176
-162
-165
-172
-177
-249
-138
464
910
355
-535
-628
-223
-87
-124
-83
-66
-81
-55
-29
-12
18
40
59
100
146
182
223
277
322
335
323
309
286
236
166
95
39
-5
-43
-64
-60
-53
-57
-60
-58
-62
-67
-67
-64
-60
-64
-77
-80
-74
-81
-92
-84
-77
-77
-50
-18
-34
-70
-78
-81
-81
-76
-100
-96
-75
-157
23
811
1237
335
-795
-782
-210
-41
-85
-22
8
-21
-8
25
34
44
82
125
147
179
243
298
339
390
407
364
326
312
261
170
79
-3
-68
-107
-122
-117
-112
-117
-105
-81
-83
-97
-88
-79
-93
-103
-91
-86
-102
-114
-103
-95
-111
-126
-109
-73
-59
-71
-83
-96
-113
-99
-81
-93
-78
-98
-145
271
1082
1026
-191
-988
-617
-120
-82
-97
-39
-47
-49
-20
-29
-33
9
48
66
90
131
180
228
266
289
295
280
247
198
139
76
10
-55
-106
-131
-136
-141
-145
-138
-124
-117
-118
-123
-120
-111
-112
-119
-119
-123
-134
-137
-132
-129
-131
-132
-115
-87
-80
-89
-97
-113
-119
-98
-103
-119
-92
-129
-78
518
1172
727
-421
-773
-306
-43
-93
-68
-27
-49
-33
-1
-2
8
40
68
92
123
161
209
255
290
310
306
275
232
188
134
66
-6
-62
-93
-105
-109
-109
-101
-91
-91
-93
-89
-85
-89
-94
-91
-87
-90
-91
-90
-94
-94
-93
-107
-116
-103
-89
-74
-46
-36
-54
-66
-73
-78
-66
-69
-75
-55
-105
-25
584
1152
644
-404
-638
-194
0
-61
-34
-6
-30
-10
27
31
35
60
94
123
148
183
233
280
313
329
327
309
272
218
164
113
52
-7
-38
-51
-63
-64
-54
-50
-55
-54
-51
-55
-52
-44
-44
-48
-45
-46
-51
-48
-43
-44
-43
-38
-39
-38
-36
-33
-28
-29
-39
-44
-43
-43
-42
-32
-4
28
29
-2
-20
-20
-23
-27
-40
-46
-42
-95
-1
555
1008
473
-497
-688
-266
-70
-107
-84
-63
-83
-74
-64
-69
-54
-32
-22
-3
27
54
85
129
169
185
182
168
143
114
87
42
-27
-85
-117
-145
-172
-179
-167
-155
-143
-131
-128
-125
-105
-94
-106
-110
-98
-99
-103
-88
-77
-83
-81
-70
-72
-79
-74
-70
-71
-63
-50
-52
-60
-58
-57
-57
-46
-37
-48
-56
-46
-41
-45
-42
-35
-38
-43
-43
-44
-51
-57
-52
-40
-37
-39
-36
-43
-57
-46
-26
-37
-52
-36
-19
-11
8
23
12
-19
-38
-15
-4
-31
-14
-27
-53
407
1231
1133
-117
-935
-612
-130
-41
-16
39
20
18
63
75
65
95
142
154
165
220
276
307
363
434
455
435
423
406
359
306
261
197
109
39
10
-2
-18
-36
-39
-33
-30
-26
-18
-13
-13
-14
-22
-31
-32
-32
-40
-43
-38
-43
-57
-63
-62
-63
-66
-68
-70
-72
-75
-76
-73
-76
-79
-73
-69
-72
-72
-64
-61
-68
-77
-84
-84
-73
-65
-72
-75
-61
-51
-52
-33
-13
-27
-61
-85
-91
-84
-98
-117
-108
-156
-106
418
963
549
-455
-770
-383
-157
-187
-171
-150
-175
-171
-156
-163
-165
-155
-148
-144
-136
-114
-83
-57
-32
-3
19
