# session 17
81
18
209
149
-541
-1215
-1303
-1159
-920
-387
-157
-715
-1271
-1172
-909
-890
-902
-846
-828
-832
-819
-812
-803
-772
-738
-716
-697
-660
-596
-514
-442
-394
-360
-331
-308
-294
-292
-314
-351
-374
-369
-346
-323
-316
-313
-299
-289
-302
-310
-295
-278
-268
-244
-210
-190
-184
-187
-189
-166
-130
-119
-108
-136
-235
-65
559
857
224
-509
-491
-168
-105
-137
-92
-63
-56
-34
-18
-15
-1
32
74
110
143
193
256
311
352
370
359
353
374
372
317
260
235
212
178
151
140
129
108
91
79
63
52
62
75
77
88
112
123
103
80
102
129
115
119
103
13
256
989
1229
361
-508
-421
6
125
131
168
156
152
172
153
137
154
158
165
206
242
260
304
370
414
431
430
404
352
297
257
221
173
131
125
138
140
138
145
151
142
129
137
157
143
98
76
72
53
32
7
-31
-53
-60
-62
-81
-172
-100
447
902
418
-474
-671
-337
-189
-214
-184
-166
-186
-188
-189
-195
-192
-177
-139
-105
-104
-101
-53
10
44
47
31
8
-13
-40
-74
-97
-100
-100
-96
-82
-80
-98
-113
-123
-131
-133
-152
-210
-277
-312
-334
-373
-411
-433
-453
-465
-452
-443
-446
-466
-533
-436
65
446
1
-756
-874
-555
-435
-460
-409
-361
-352
-316
-259
-218
-206
-200
-169
-128
-95
-59
-15
29
72
98
103
121
149
143
105
87
102
116
116
128
159
168
157
165
185
190
189
189
186
189
196
195
200
200
164
138
166
183
168
158
84
50
432
978
793
-71
-534
-309
-55
-22
4
57
85
112
120
119
145
163
164
203
269
306
334
388
435
448
435
402
358
322
278
195
106
71
77
70
49
42
40
9
-29
-38
-41
-61
-66
-66
-86
-94
-76
-85
-132
-143
-110
-109
-131
-143
-227
-178
386
944
518
-462
-751
-392
-205
-253
-241
-205
-199
-184
-174
-167
-144
-119
-87
-53
-32
0
55
87
88
95
96
58
10
-22
-70
-131
-165
-174
-188
-199
-181
-141
-117
-117
-102
-59
-28
-31
-35
-2
53
75
57
35
32
48
58
23
0
11
-58
14
590
1087
595
-356
-593
-236
-42
-44
-17
-10
-30
-10
9
-14
-40
-42
-30
-14
12
55
109
157
182
175
146
107
61
14
-32
-77
-105
-113
-112
-104
-83
-62
-46
-29
-17
-21
-30
-34
-38
-38
-26
-12
-11
-30
-63
-76
-70
-92
-113
-130
-178
-2
567
857
309
-347
-334
-44
21
9
53
69
73
85
75
79
113
138
159
208
265
311
361
407
425
421
404
362
290
208
126
38
-36
-65
-91
-150
-195
-211
-249
-298
-317
-335
-376
-404
-413
-432
-456
-474
-496
-529
-567
-589
-601
-622
-611
-598
-648
-502
7
243
-300
-919
-888
-583
-494
-475
-378
-289
-217
-133
-71
-37
-1
53
116
180
247
304
337
371
426
466
459
416
360
323
302
242
147
105
136
176
186
170
160
182
204
208
240
297
332
357
385
376
337
290
228
190
192
185
184
163
111
389
1060
1202
363
-382
-260
103
180
192
234
206
184
200
171
130
134
133
115
131
165
182
209
247
255
227
191
140
70
14
-15
-54
-107
-145
-165
-166
-156
-173
-207
-200
-177
-201
-228
-214
-205
-212
-201
-193
-197
-185
-172
-172
-184
-201
-184
-220
-341
-84
684
914
5
-888
-826
-432
-351
-381
-338
-299
-280
-272
-283
-290
-281
-251
-213
-196
-167
-102
-65
-52
2
52
43
34
34
-11
-58
-58
-64
-86
-63
-14
1
6
37
65
60
46
57
83
88
85
113
139
109
49
13
17
17
-21
-34
-37
-98
72
674
967
320
-459
-472
-140
-59
-78
-38
-41
-61
-42
-39
-62
-71
-68
-57
-25
21
83
166
249
298
306
303
305
306
302
294
277
243
205
185
173
144
102
69
50
28
-9
-42
-49
-45
-50
-61
-80
-109
-134
-151
-163
-164
-159
-140
-132
-182
-90
389
806
493
-176
-366
-161
-82
-118
-88
-56
-61
-42
-1
34
68
99
123
159
222
284
325
349
337
262
166
84
-27
-172
-272
-310
-340
-370
-392
-418
-429
-412
-406
-422
-430
-427
-431
-433
-425
-410
-395
-392
-400
-399
-390
-376
-346
-323
-301
-282
-345
-261
366
982
551
-503
-850
-448
-151
-123
-90
-35
-10
-3
-9
16
89
140
143
157
203
260
327
398
448
458
430
386
355
324
270
213
174
140
120
137
166
167
152
143
134
141
176
203
196
188
206
217
186
150
137
133
143
155
143
152
141
109
440
1135
1210
312
-407
-248
118
189
179
205
196
168
152
146
152
154
151
163
191
222
247
273
301
308
290
255
191
101
49
46
14
-53
-84
-75
-62
-37
-14
-29
-51
-54
-72
-101
-110
-117
-140
-149
-152
-182
-226
-253
-263
-280
-322
-346
-374
-498
-468
68
577
211
-594
-807
-537
-434
-476
-439
-407
-415
-399
-388
-405
-419
-426
-419
-387
-347
-294
-194
-71
13
50
69
69
43
5
-30
-76
-126
-157
-172
-193
-208
-211
-236
-277
-299
-313
-337
-345
-327
-302
-282
-278
-283
-275
-272
-284
-258
-199
-167
-127
-88
-92
135
710
909
261
-393
-307
33
109
112
182
210
204
218
241
257
268
288
328
374
418
469
517
547
556
538
505
473
433
382
337
289
234
198
188
186
187
191
185
174
170
161
131
91
61
52
61
60
42
25
-7
-60
-84
-97
-142
-157
-188
-237
110
780
721
-259
-861
-563
-218
-211
-198
-126
-116
-103
-73
-66
-43
-4
20
61
131
191
244
300
336
338
318
272
207
144
82
9
-64
-112
-136
-152
-155
-143
-148
-177
-191
-188
-207
-228
-203
-164
-158
-151
-111
-79
-89
-133
-176
-174
-166
-190
-187
-199
-197
236
961
886
-119
-694
-347
27
54
84
153
145
153
181
150
107
102
97
88
104
140
197
271
310
290
261
254
244
207
148
86
43
-1
-66
-119
-137
-142
-142
-140
-147
-149
-133
-123
-126
-116
-86
-58
-46
-56
-79
-102
-111
-98
-94
-109
-115
-184
-263
66
707
690
-162
-710
-497
-234
-229
-212
-166
-181
-194
-191
-194
-186
-172
-164
-151
-134
-106
-55
12
56
51
37
48
20
-80
-178
-240
-317
-399
-433
-437
-451
-473
-473
-431
-356
-266
-161
-69
-42
-52
-30
-2
-13
-10
57
129
166
208
236
211
212
219
145
312
909
1154
466
-282
-231
139
227
205
250
237
162
147
220
290
268
192
178
256
362
420
397
338
302
269
191
84
11
-18
-69
-179
-274
-292
-268
-227
-178
-155
-142
-108
-90
-91
-88
-121
-146
-74
18
45
87
139
101
47
90
142
140
129
39
-14
355
854
587
-304
-724
-468
-205
-127
-52
-52
-149
-164
-94
-75
-92
-79
-60
-58
-49
-27
8
70
135
159
150
123
62
-4
-43
-98
-181
-212
-197
-237
-330
-367
-313
-264
-298
-332
-244
-69
70
148
206
251
279
280
228
134
74
97
136
143
174
170
167
623
1406
1307
113
-679
-424
-79
-138
-224
-217
-244
-278
-289
-293
-275
-228
-150
-58
7
54
122
198
255
275
246
204
174
115
35
-3
-29
-78
-105
-113
-146
-158
-126
-112
-110
-77
-56
-62
-47
-18
-13
-20
-21
-5
26
10
-64
-88
-72
-120
-165
-180
-178
225
981
954
-168
-967
-722
-315
-260
-234
-164
-158
-128
-80
-98
-119
-90
-72
-74
-54
-18
19
64
104
126
125
94
35
-41
-117
-166
-183
-194
-200
-177
-144
-123
-109
-103
-115
-113
-62
14
62
72
84
120
153
172
180
154
115
106
90
55
64
31
2
472
1316
1332
288
-397
-102
275
298
321
395
375
336
316
280
272
298
295
259
243
264
296
326
359
382
371
335
299
257
188
99
11
-69
-131
-171
-206
-225
-207
-202
-262
-352
-421
-469
-518
-575
-607
-598
-593
-627
-680
-752
-841
-887
-917
-991
-1047
-1077
-1034
-577
134
79
-877
-1452
-1158
-867
-922
-875
-668
-540
-457
-346
-264
-200
-98
10
79
142
248
384
487
539
567
584
582
569
549
501
439
400
380
346
303
284
297
315
315
296
277
265
238
201
213
276
319
316
294
263
240
256
316
376
407
441
461
414
538
1078
1468
1029
320
243
565
694
689
719
726
730
767
794
807
818
827
842
859
890
970
1067
1131
1150
1107
999
862
695
509
375
301
219
94
-54
-198
-306
-368
-402
-450
-525
-591
-636
-703
-806
-915
-1008
-1064
-1072
-1081
-1108
-1111
-1073
-991
-906
-892
-917
-961
-1071
-919
-299
-89
-975
-1951
-1978
-1583
-1497
-1566
-1545
-1529
-1583
-1599
-1450
-1175
-921
-719
-541
-419
-316
-163
-20
53
116
202
248
243
239
257
267
233
180
183
236
268
281
311
333
320
321
365
400
381
356
359
358
355
373
387
398
407
377
352
355
319
293
282
220
509
1287
1433
329
-679
-540
0
191
202
206
189
211
235
188
149
172
198
218
264
310
340
386
460
520
492
402
369
389
333
221
185
196
159
122
139
165
174
189
194
175
177
224
251
222
194
193
198
217
231
202
158
150
162
144
118
135
77
-35
295
1012
973
-115
-856
-550
-89
-19
-16
37
25
8
32
48
55
61
64
84
124
168
216
258
280
278
253
208
160
111
47
-29
-92
-141
-184
-213
-226
-240
-263
-288
-313
-331
-339
-348
-360
-363
-362
-362
-346
-320
-308
-301
-299
-309
-305
-295
-305
-317
-382
-396
48
712
558
-389
-841
-511
-276
-349
-359
-321
-335
-328
-317
-327
-300
-256
-235
-214
-169
-95
-17
12
1
13
27
-1
-30
-33
-58
-111
-149
-168
-179
-194
-225
-239
-215
-208
-237
-253
-256
-269
-270
-260
-257
-229
-180
-183
-224
-221
-201
-206
-200
-183
-171
-188
-256
-84
545
907
302
-490
-487
-97
21
11
69
102
123
160
159
153
194
241
276
345
441
505
542
592
617
598
601
624
588
509
433
350
290
273
240
207
231
244
193
155
161
147
118
123
130
108
111
155
154
104
94
93
47
51
92
47
-11
-45
-83
283
1083
1154
24
-893
-681
-181
-57
-38
14
-4
-15
23
31
23
39
62
97
153
213
267
320
354
360
343
308
243
133
13
-73
-145
-209
-240
-273
-326
-342
-332
-361
-392
-387
-387
-391
-371
-362
-380
-373
-325
-284
-281
-294
-303
-303
-276
-249
-246
-226
-261
-315
79
883
943
-105
-888
-640
-221
-166
-149
-102
-143
-131
-50
-36
-51
-15
34
68
110
166
247
330
360
337
314
305
285
249
215
182
136
94
86
105
106
78
64
79
83
63
46
36
24
9
-3
6
36
41
5
-25
-30
-18
1
-3
-10
-25
-102
32
658
1094
529
-345
-442
-78
16
-48
-9
20
-26
-69
-86
-102
-142
-184
-189
-173
-160
-120
-41
38
82
96
91
68
31
-13
-67
-129
-169
-188
-217
-254
-278
-293
-311
-336
-361
-375
-388
-422
-455
-466
-476
-482
-457
-429
-434
-448
-438
-411
-388
-354
-314
-378
-445
-59
627
616
-208
-671
-359
-42
-20
24
93
82
109
180
196
209
267
300
299
338
423
494
546
605
639
621
586
553
507
449
382
311
272
261
240
222
224
213
192
190
184
157
139
144
152
156
168
187
196
199
195
163
133
149
162
147
122
25
77
692
1283
724
-497
-884
-429
-135
-160
-172
-159
-152
-129
-140
-162
-121
-71
-64
-35
29
82
142
215
230
200
193
173
108
47
-22
-125
-179
-176
-217
-275
-258
-229
-255
-269
-239
-228
-255
-279
-274
-266
-279
-271
-221
-201
-238
-272
-278
-277
-289
-328
-336
-316
-403
-313
363
881
214
-872
-1000
-480
-262
-293
-265
-256
-280
-262
-232
-208
-192
-196
-176
-108
-39
16
79
141
181
199
202
184
136
82
42
-7
-56
-62
-40
-28
-14
8
23
41
73
104
119
132
165
196
203
214
247
267
264
255
261
308
344
317
312
307
234
486
1202
1416
616
-76
96
416
412
409
455
397
343
343
329
310
299
304
361
437
513
591
585
487
434
471
498
463
396
347
301
212
107
21
-75
-168
-221
-259
-314
-400
-501
-550
-553
-625
-774
-867
-900
-968
-1054
-1086
-1074
-1055
-1026
-968
-895
-824
-757
-786
-856
-550
77
143
-559
-1046
-890
-723
-831
-906
-862
-855
-881
-814
-638
-497
-451
-368
-214
-106
-35
88
226
309
351
385
434
481
494
491
520
576
626
651
654
660
684
695
667
626
604
593
570
536
513
497
471
450
441
416
377
340
306
283
268
232
195
127
47
327
995
1095
198
-558
-395
-8
41
11
42
28
8
13
4
-1
6
3
21
82
142
176
205
238
262
260
217
154
99
43
-37
-125
-192
-223
-225
-223
-230
-231
-218
-215
-229
-234
-227
-228
-234
-241
-238
-200
-157
-162
-181
-175
-170
-158
-140
-149
-152
-175
-197
185
953
1022
-26
-877
-671
-191
-90
-100
-50
-46
-57
-39
-34
-35
-12
32
79
120
173
250
325
372
384
360
314
258
192
118
45
-28
-86
-115
-130
-143
-151
-153
-159
-167
-173
-182
-195
-205
-209
-217
-230
-225
-208
-207
-222
-238
-257
-267
-252
-254
-264
-255
-316
-257
327
925
515
-484
-773
-381
-158
-172
-131
-92
-101
-79
-51
-46
-28
6
39
78
132
195
263
327
372
384
361
321
271
213
155
107
73
56
48
48
57
69
78
89
103
109
109
109
