# session 3
-110
-83
-100
-140
-133
-152
-273
-312
-178
-105
-148
-75
68
48
-41
-2
81
81
30
-32
-119
-216
-262
-270
-346
-469
-485
-419
-428
-497
-566
-668
-755
-742
-675
-562
-333
-120
-107
-178
-134
-13
75
128
142
92
19
-4
37
95
115
75
242
931
1540
1082
13
-404
-168
50
186
227
70
-5
54
-91
-324
-281
-54
83
106
157
334
507
473
327
297
374
423
422
433
476
487
448
423
390
289
217
217
185
159
190
82
-194
-331
-265
-240
-262
-228
-241
-306
-292
-270
-321
-367
-412
-483
-469
-365
-304
-327
-409
-539
-657
-702
-673
-585
-458
-341
-318
-309
94
955
1426
928
160
-53
182
389
390
316
335
388
342
275
303
378
401
358
304
257
188
117
80
45
-16
-94
-189
-224
-90
136
275
317
371
414
364
280
231
184
117
23
-102
-177
-193
-267
-374
-409
-435
-493
-453
-302
-231
-296
-350
-324
-278
-257
-261
-259
-249
-272
-288
-231
-166
-193
-268
-266
-249
-336
-123
700
1177
411
-631
-771
-447
-343
-312
-234
-201
-137
-15
87
200
318
369
396
457
498
485
477
506
526
512
510
534
574
650
702
640
544
513
475
397
346
319
252
102
-132
-384
-592
-695
-647
-546
-489
-412
-332
-341
-353
-322
-372
-439
-372
-273
-259
-238
-180
-144
-110
-87
-118
-142
-160
-238
-242
-137
-77
158
656
670
-59
-607
-517
-312
-232
-152
-143
-207
-207
-163
-135
-101
-108
-208
-275
-215
-139
-109
-35
75
136
154
171
183
196
239
306
366
418
454
424
385
421
400
186
-49
-110
-33
44
-5
-129
-117
2
-17
-168
-236
-187
-120
-63
-1
49
79
111
140
124
74
38
19
-23
-96
-128
-80
-50
89
669
1245
883
-65
-381
-66
28
-144
-170
-90
-74
-129
-251
-331
-272
-229
-258
-199
-103
-130
-166
-79
30
78
109
151
188
217
247
280
310
336
361
356
271
130
36
8
-32
-91
-120
-147
-198
-206
-141
-88
-95
-115
-119
-112
-65
-3
4
-22
-27
-23
12
81
74
23
80
128
28
-12
25
-27
204
808
806
-93
-720
-543
-267
-203
-119
-82
-180
-230
-172
-121
-125
-156
-178
-161
-98
-49
-71
-109
-88
-52
-43
-23
12
54
141
227
232
216
256
277
205
88
-19
-97
-138
-179
-240
-263
-236
-232
-257
-235
-180
-165
-190
-208
-199
-173
-157
-144
-107
-102
-144
-135
-85
-101
-139
-131
-110
-75
-101
-209
70
895
1237
436
-454
-458
-84
56
96
147
124
104
146
165
149
166
199
187
172
226
260
163
72
166
304
268
175
205
284
321
356
367
306
247
254
238
124
11
-4
-33
-144
-182
-102
-63
-100
-135
-162
-184
-181
-175
-163
-112
-50
-16
1
12
14
3
-36
-58
-29
-38
-106
-149
-181
-77
398
806
397
-453
-730
-459
-329
-392
-362
-304
-331
-349
-316
-282
-240
-188
-173
-203
-202
-113
17
101
129
137
136
137
156
188
232
277
288
289
315
326
307
296
260
175
102
54
-2
-36
-57
-128
-189
-176
-192
-272
-268
-174
-162
-217
-172
-67
-52
-91
-79
-62
-82
-65
-52
-123
-161
-143
-129
212
911
1022
143
-649
-616
-291
-165
-146
-131
-111
-80
-64
-48
-20
-11
-10
3
-3
-5
39
87
96
96
115
113
65
31
53
79
66
55
71
90
82
5
-135
-226
-202
-138
-112
-94
-48
-24
-52
-52
19
90
104
92
112
170
226
257
259
220
181
203
244
222
158
156
211
168
146
588
1215
1002
-3
-578
-388
-162
-120
-15
74
38
18
51
43
11
1
-14
-40
-43
-29
-17
-3
17
22
5
5
40
48
0
-31
4
68
102
82
49
43
24
-41
-117
-167
-187
-208
-248
-260
-220
-204
-248
-295
-338
-401
-446
-462
-482
-485
-442
-404
-423
-476
-505
-486
-468
-473
-442
-409
-345
112
925
1174
487
-176
-154
75
131
167
215
214
242
290
267
215
210
216
208
207
196
152
105
74
34
-33
-81
-63
-17
-22
-37
33
172
269
267
218
192
176
144
106
77
73
78
36
-21
-10
2
-62
-104
-97
-138
-180
-140
-107
-127
-137
-151
-175
-158
-124
-128
-132
-92
-95
-170
62
796
1176
468
-472
-595
-259
-116
-96
-63
-91
-126
-95
-57
-55
-95
-183
-253
-231
-170
-157
-151
-107
-69
-35
61
173
220
258
344
415
443
466
477
475
481
430
300
226
259
250
155
88
63
29
8
-4
-62
-151
-211
-221
-196
-182
-201
-210
-174
-147
-190
-254
-285
-296
-265
-254
-283
78
899
1105
167
-709
-618
-209
-102
-109
-70
-55
-60
-72
-114
-159
-169
-133
-61
3
6
-11
21
68
70
60
80
110
143
182
205
207
215
220
204
179
143
62
-19
-54
-109
-200
-232
-226
-278
-342
-343
-313
-282
-236
-178
-144
-150
-135
-42
49
53
43
93
140
113
50
31
24
22
327
967
1125
360
-421
-453
-170
-65
-54
-58
-111
-166
-177
-148
-140
-184
-174
-79
-32
-45
-15
30
42
61
100
130
153
180
193
169
152
194
228
163
69
34
-4
-81
-113
-83
-74
-100
-121
-139
-167
-187
-192
-182
-158
-152
-185
-206
-185
-184
-219
-221
-209
-231
-242
-235
-231
-220
-241
-101
498
999
530
-386
-633
-340
-147
-37
79
85
61
90
113
143
202
233
237
253
281
306
323
339
352
358
365
379
374
358
375
387
324
249
222
139
-13
-93
-90
-99
-111
-128
-179
-194
-128
-64
-68
-99
-119
-130
-145
-173
-199
-182
-124
-86
-81
-68
-47
-78
-151
-178
-195
-248
9
726
1035
300
-566
-599
-222
-69
-61
-39
-32
-31
-39
-50
-23
-7
-58
-130
-185
-212
-196
-189
-223
-218
-133
-62
-64
-71
-34
-1
15
46
63
52
102
197
204
123
68
79
137
194
200
184
195
214
222
236
249
256
269
278
253
220
227
214
130
60
8
-122
-293
-408
-268
338
892
517
-407
-712
-371
-159
-198
-202
-180
-206
-212
-179
-167
-175
-160
-151
-162
-117
-50
-102
-211
-223
-170
-133
-103
-81
-55
-4
31
17
-8
-18
-25
-53
-107
-159
-199
-250
-312
-361
-384
-385
-380
-371
-355
-343
-332
-307
-287
-296
-280
-204
-140
-137
-156
-155
-105
-3
115
177
114
191
851
1590
1272
159
-354
-42
249
282
316
344
302
268
269
266
245
237
258
267
231
169
106
58
28
22
62
124
142
121
136
218
328
401
399
348
273
179
109
67
-5
-62
-35
-15
-56
-73
-69
-91
-105
-113
-146
-176
-210
-252
-219
-127
-108
-135
-124
-128
-146
-154
-141
195
897
1071
230
-617
-631
-314
-222
-231
-223
-251
-278
-283
-307
-313
-279
-268
-291
-275
-216
-135
-28
11
-40
32
247
312
196
169
282
387
429
425
427
461
442
337
245
202
162
128
107
85
70
37
-57
-157
-201
-227
-266
-270
-221
-190
-209
-222
-203
-175
-153
-161
-165
-147
-199
-78
591
1162
660
-315
-549
-253
-167
-205
-154
-151
-208
-239
-252
-250
-256
-270
-217
-145
-174
-246
-244
-202
-206
-245
-246
-196
-166
-182
-184
-142
-109
-122
-137
-143
-193
-282
-321
-287
-233
-190
-157
-135
-94
-19
42
69
81
70
78
156
233
269
311
317
269
287
361
356
313
278
184
343
1059
1559
925
-164
-489
-189
-17
-61
-90
-83
-112
-186
-214
-127
-22
-4
-36
-49
-16
46
81
91
114
146
190
240
239
213
233
242
206
214
255
229
149
93
42
-74
-212
-248
-188
-132
-97
-63
-45
-33
-15
-21
-50
-68
-72
-53
-23
-73
-196
-239
-193
-203
-245
-272
-384
-306
353
912
382
-617
-832
-452
-288
-305
-227
-158
-138
-64
24
68
117
174
196
214
262
308
328
346
376
387
378
395
438
465
477
465
428
438
489
445
286
127
36
7
-23
-122
-233
-278
-298
-323
-291
-183
-84
-83
-154
-194
-188
-206
-260
-302
-302
-269
-262
-293
-293
-299
-349
-121
485
683
-2
-722
-737
-445
-310
-273
-264
-276
-258
-243
-274
-288
-245
-200
-197
-216
-220
-211
-209
-198
-171
-169
-192
-182
-134
-77
-16
5
-40
-40
77
198
236
214
144
85
126
195
173
136
176
225
250
291
301
267
283
330
301
239
219
208
197
185
149
146
133
77
411
1196
1305
223
-734
-646
-270
-227
-241
-169
-121
-67
-24
-52
-77
-73
-91
-95
-60
-37
-16
38
72
57
69
130
166
147
121
118
121
107
84
95
139
146
83
23
15
8
-17
-13
10
1
-24
-45
-87
-150
-204
-241
-276
-302
-301
-302
-336
-341
-296
-296
-324
-320
-354
-184
520
1063
504
-512
-750
-358
-111
-65
-25
-4
27
87
138
192
218
207
274
399
427
390
395
413
416
420
404
364
330
291
226
168
134
95
48
15
-32
-101
-144
-141
-110
-89
-105
-125
-123
-137
-162
-161
-162
-165
-132
-109
-126
-109
-77
-152
-267
-250
-181
-202
-226
-257
-324
-30
658
800
33
-627
-561
-329
-318
-330
-289
-277
-285
-305
-346
-370
-365
-367
-387
-393
-365
-326
-286
-241
-216
-202
-151
-53
38
59
50
131
262
294
300
392
426
339
304
349
344
301
298
324
345
330
282
265
289
285
249
239
267
276
207
105
61
22
-50
-59
-104
-188
259
1164
1188
25
-766
-473
-87
-127
-172
-112
-120
-126
-71
-50
-57
-20
24
3
-41
-28
22
40
36
61
118
184
240
249
195
147
156
180
202
227
198
107
41
7
-48
-121
-188
-238
-264
-287
-323
-354
-370
-380
-401
-430
-430
-393
-362
-352
-358
-349
-281
-227
-258
-267
-223
-57
508
1116
860
-9
-338
-45
149
142
162
164
122
117
131
109
89
115
132
66
-39
-85
-79
-78
-68
-56
-88
-104
-31
40
49
70
102
91
82
109
112
63
-3
-52
-50
-41
-89
-111
-45
-26
-93
-110
-107
-152
-125
-54
-113
-204
-175
-139
-151
-135
-146
-199
-219
-267
-210
287
807
503
-318
-623
-356
-143
-119
-107
-93
-93
-108
-158
-183
-148
-116
-85
-23
0
-24
14
87
117
179
295
365
395
458
519
524
511
524
533
501
459
429
361
263
226
221
167
129
162
154
60
-20
-52
-83
-112
-147
-212
-254
-222
-197
-230
-265
-268
-204
-134
-238
-187
561
1234
590
-645
-918
-462
-257
-251
-174
-163
-195
-187
-193
-153
-58
-68
-147
-115
-25
5
18
54
84
104
122
135
157
187
195
171
141
129
116
59
-11
-37
-69
-154
-209
-201
-230
-295
-306
-289
-299
-315
-320
-300
-245
-212
-212
-166
-99
-78
-39
49
75
37
56
90
152
543
1105
1018
217
-296
-106
180
214
198
204
146
82
87
70
-29
-79
-34
-52
-135
-114
-34
-52
-90
-23
82
136
151
156
156
142
129
142
149
114
88
67
-4
-61
-47
-66
-156
-215
-222
-225
-225
-237
-261
-233
-172
-171
-197
-194
-214
-270
-288
-270
-267
-269
-256
-293
-357
-127
466
678
16
-737
-783
-477
-356
-362
-347
-311
-250
-179
-115
-58
-26
5
64
113
165
272
365
383
415
499
547
555
579
602
610
626
634
618
588
539
468
400
354
330
306
262
219
183
119
25
-53
-100
-146
-188
-195
-181
-182
-182
-185
-231
-274
-248
-236
-273
-284
-336
-250
428
1133
676
-495
-889
-500
-243
-193
-102
-91
-155
-143
-113
-128
-115
-53
11
68
86
47
39
110
156
133
126
146
128
84
39
-24
-70
-60
-63
-123
-186
-234
-298
-349
-358
-361
-346
-292
-270
-311
-330
-304
-259
-165
-52
-19
-38
-10
60
98
109
157
210
207
219
225
176
442
1127
1313
530
-207
-159
105
121
87
98
77
35
-62
-183
-185
-138
-217
-328
-291
-171
-98
-58
-24
-15
-10
11
39
96
154
116
21
5
42
55
55
19
-62
-115
-121
-132
-154
-184
-217
-218
-185
-150
-118
-92
-85
-95
-110
-107
-88
-91
-123
-137
-148
-198
-223
-206
-293
-297
235
845
505
-460
-809
-502
-322
-353
-313
-240
-201
-159
-118
-67
19
110
151
161
214
311
378
409
451
516
581
609
606
615
595
506
446
448
414
360
357
313
174
75
74
51
-18
-45
-57
-111
-137
-105
-116
-192
-225
-179
-127
-121
-138
-150
-155
-152
-158
-162
-137
-216
-322
111
980
1045
2
-784
-612
-224
-111
-102
-114
-125
-90
-82
-108
-93
-67
-50
-4
17
-19
-11
78
142
132
100
65
35
62
117
101
42
45
65
-6
-132
-224
-278
-302
-284
-277
-324
-338
-251
-171
-169
-155
-108
-82
-39
48
102
122
151
146
117
153
196
138
95
126
97
243
856
1239
640
-212
-354
-147
-147
-182
-140
-173
-211
-174
-179
-233
-215
-148
-141
-154
-97
-20
0
-2
9
25
63
122
147
127
113
107
75
45
36
-9
-83
-113
-122
-168
-204
-198
-185
-179
-179
-183
-176
-187
-234
-257
-234
-221
-226
-218
-201
-199
-209
-181
-116
-116
-189
-278
-331
-23
734
997
148
-750
-707
-294
-176
-155
-52
2
11
61
135
181
202
233
283
320
345
388
442
479
507
542
563
556
554
565
543
487
459
470
460
401
333
268
175
58
-29
-63
-90
-149
-200
-217
-227
-197
-108
-62
-95
-122
-121
-123
-138
-178
-202
-178
-206
-278
-302
-354
-217
515
1141
510
-734
-1040
-531
-270
-304
-240
-187
-241
-255
-221
-189
-136
-99
-102
-85
-42
-9
21
47
65
104
149
160
149
129
103
90
76
23
-40
-98
-182
-264
-288
-276
-274
-276
-259
-207
-132
-73
-50
-32
3
50
