# session 11
54
-146
499
-133
-3013
-5345
-5323
-4582
-4369
-4186
-3918
-3820
-3722
-3551
-3408
-3277
-3149
-3006
-2786
-2538
-2332
-2137
-1898
-1632
-1402
-1234
-1120
-1033
-946
-882
-910
-1002
-1066
-1118
-1220
-1341
-1365
-1200
-956
-864
-931
-969
-933
-879
-763
-588
-486
-517
-556
-472
-343
-263
-122
-6
-142
-65
666
1106
461
-85
583
1396
1034
47
-395
-246
-56
42
125
181
246
338
431
592
784
778
603
563
672
652
474
362
398
450
425
359
297
220
122
44
8
-1
6
33
92
169
218
242
285
345
398
451
499
516
507
507
523
518
487
488
487
440
465
472
235
65
106
-127
-23
1546
3591
4544
4309
2732
218
-1149
-809
-420
-463
-332
-200
-234
-162
-61
-78
-75
-20
18
86
183
247
317
405
411
343
301
224
55
-45
-58
-183
-367
-404
-395
-471
-461
-283
-161
-201
-235
-178
-129
-112
-41
52
28
-78
-66
69
101
5
-28
-1
-27
-41
-24
14
349
887
748
-244
-934
-711
-253
-52
46
117
139
185
237
225
198
225
280
340
427
514
562
618
706
750
741
738
702
594
458
306
136
-17
-154
-288
-391
-486
-620
-765
-898
-1045
-1205
-1350
-1468
-1571
-1693
-1842
-1963
-1999
-1958
-1883
-1809
-1741
-1649
-1517
-1399
-1305
-1191
-1128
-1018
-497
144
-17
-851
-1227
-941
-700
-697
-690
-641
-578
-526
-517
-451
-296
-170
-43
164
309
305
318
455
634
758
798
802
828
833
752
661
641
619
540
520
612
690
697
711
764
820
867
925
984
965
855
792
835
861
820
791
768
706
686
702
614
525
555
501
557
1189
1696
1014
-144
-437
-79
95
74
96
118
117
124
105
50
5
22
94
157
203
277
337
339
384
521
634
654
622
537
404
292
230
177
120
76
43
12
-21
-61
-95
-95
-92
-145
-224
-272
-306
-350
-415
-521
-575
-512
-501
-637
-730
-728
-754
-775
-772
-652
-44
694
415
-676
-1086
-646
-336
-273
-117
7
50
132
162
121
146
232
309
376
415
423
463
532
573
600
628
606
535
466
374
230
90
-5
-82
-154
-217
-275
-337
-411
-488
-528
-544
-613
-734
-812
-831
-856
-885
-901
-949
-1004
-964
-839
-728
-672
-652
-625
-623
-665
-449
174
491
-37
-681
-679
-363
-233
-239
-216
-154
-116
-134
-113
-34
-42
-132
-157
-156
-203
-215
-194
-247
-287
-194
-70
-14
15
-2
-86
-112
-32
15
-9
22
116
170
222
347
448
447
431
438
428
437
476
479
447
422
410
407
377
336
379
436
376
261
168
277
876
1408
873
-236
-583
-274
-173
-224
-84
90
177
244
265
231
219
238
256
274
296
319
379
491
592
629
645
687
721
707
632
483
315
244
257
236
178
165
182
171
154
169
213
260
263
209
167
179
190
150
72
-43
-192
-317
-396
-434
-378
-317
-327
-12
680
734
-248
-1056
-929
-558
-473
-443
-337
-261
-208
-116
-25
-18
-44
-4
45
47
94
201
283
353
389
302
195
224
269
184
58
-27
-110
-179
-210
-264
-349
-395
-425
-508
-606
-661
-687
-711
-723
-712
-685
-657
-624
-585
-553
-530
-531
-557
-549
-498
-460
-440
-451
-416
-19
659
815
172
-412
-351
-91
-76
-161
-135
-48
-12
-29
-32
1
24
17
17
40
50
37
20
-18
-68
-49
36
77
45
8
-15
-48
-117
-210
-258
-262
-301
-329
-246
-119
-51
5
99
199
288
338
308
266
286
286
206
139
132
126
119
163
204
115
94
631
1398
1237
128
-565
-375
-96
-84
-82
-44
-69
-146
-207
-143
17
103
118
195
284
292
320
441
547
581
597
595
560
533
507
437
347
296
301
311
260
208
275
369
336
268
287
311
305
323
321
293
291
245
155
155
167
43
-94
-127
-168
-285
-390
-235
310
635
41
-883
-1077
-715
-529
-539
-522
-515
-498
-410
-321
-232
-100
-9
24
110
187
152
153
293
397
392
365
282
132
78
149
168
70
-17
-27
-37
-74
-70
-41
-52
-68
-85
-156
-221
-253
-339
-430
-415
-380
-418
-443
-426
-448
-489
-488
-505
-557
-578
-637
-610
-76
623
460
-412
-785
-458
-159
-103
-97
-98
-84
-64
-110
-148
-77
1
-14
-30
33
95
96
113
174
195
171
141
65
-10
-24
-98
-260
-326
-305
-349
-387
-320
-249
-232
-197
-146
-127
-104
-55
-23
19
113
181
191
229
255
202
189
230
166
67
33
-3
275
1040
1327
464
-481
-477
-31
152
142
139
135
120
108
123
157
146
112
132
136
53
16
125
279
366
376
363
399
442
396
310
260
206
137
109
125
134
107
88
157
270
298
260
249
250
228
197
168
144
97
0
-76
-45
6
-54
-130
-97
-83
44
667
1191
541
-689
-1050
-685
-528
-523
-372
-290
-334
-334
-325
-344
-301
-230
-217
-203
-116
-2
81
157
261
366
421
432
417
330
189
101
61
-14
-107
-162
-176
-156
-126
-113
-86
-39
-18
-13
14
36
16
-25
-60
-111
-205
-294
-318
-317
-357
-374
-336
-387
-393
107
822
696
-261
-814
-574
-297
-299
-252
-113
-89
-118
-26
93
81
24
46
108
139
141
163
228
299
356
396
369
293
247
186
44
-102
-173
-225
-314
-421
-522
-594
-624
-625
-585
-473
-349
-309
-341
-379
-398
-387
-362
-357
-345
-279
-189
-106
-21
71
94
-43
-20
636
1330
908
-238
-708
-406
-140
-51
55
112
114
137
153
163
187
196
198
236
287
312
326
347
334
272
258
344
425
411
339
271
219
181
147
109
80
73
87
103
80
36
76
196
254
254
310
339
264
229
270
238
178
191
173
110
129
124
148
666
1370
1096
-81
-745
-516
-225
-195
-204
-228
-296
-358
-418
-472
-479
-421
-311
-214
-165
-103
-11
48
113
242
323
283
231
202
141
78
38
-5
-32
-65
-135
-162
-136
-147
-178
-191
-211
-213
-179
-146
-95
-28
1
14
40
1
-107
-165
-188
-270
-347
-383
-392
-56
639
754
-111
-837
-695
-370
-360
-381
-317
-291
-276
-237
-195
-110
-4
33
31
91
193
234
226
255
303
293
256
260
266
217
147
79
0
-48
-63
-96
-100
-48
-66
-159
-188
-227
-397
-521
-462
-382
-360
-290
-190
-171
-212
-238
-234
-211
-203
-204
-177
-220
-209
330
1062
864
-150
-664
-415
-159
-105
-69
-69
-64
-21
-62
-128
-35
148
234
221
192
195
270
390
449
438
460
510
475
363
241
88
-95
-201
-192
-158
-133
-73
6
53
100
160
175
178
235
289
316
386
476
520
534
500
420
416
463
408
316
239
156
457
1174
1222
167
-720
-651
-343
-310
-322
-310
-314
-223
-120
-173
-282
-334
-374
-357
-203
-16
67
80
104
150
189
210
213
171
73
-33
-92
-122
-173
-213
-168
-85
-70
-89
-73
-71
-103
-107
-81
-70
-89
-115
-90
-37
-56
-109
-82
-31
-63
-120
-97
-69
-149
-76
407
711
165
-651
-843
-633
-580
-617
-570
-509
-471
-440
-431
-425
-395
-340
-258
-191
-172
-138
-23
146
302
396
422
422
427
404
327
239
176
128
77
32
4
-9
9
55
78
48
9
-9
-32
-69
-88
-121
-218
-309
-293
-221
-179
-169
-177
-158
-123
-165
-15
613
986
298
-634
-698
-303
-143
-65
-47
-196
1
603
706
160
-157
-41
18
-43
-35
10
53
127
225
337
411
394
363
377
332
194
108
107
79
21
-6
-47
-160
-298
-357
-303
-236
-236
-234
-166
-101
-88
-73
-46
-52
-75
-38
39
60
79
163
180
298
947
1587
1145
33
-415
-110
175
241
261
268
268
269
255
245
229
194
175
172
165
175
164
78
1
-8
-19
-45
-36
-18
-24
-69
-172
-260
-265
-263
-306
-326
-301
-287
-272
-213
-138
-85
-36
14
20
-26
-93
-163
-184
-147
-142
-188
-199
-159
-138
-217
-212
288
960
778
-182
-677
-406
-144
-151
-177
-213
-278
-290
-302
-367
-403
-377
-342
-311
-274
-232
-171
-84
5
70
104
126
140
128
89
54
40
36
35
38
59
117
188
216
206
228
285
301
286
288
261
194
177
203
184
124
73
48
48
23
-97
-311
-417
-99
436
402
-322
-844
-711
-420
-330
-300
-250
-244
-261
-270
-291
-292
-231
-150
-76
2
59
104
200
311
346
335
338
326
254
160
106
81
36
-8
4
45
31
-31
-47
-7
-1
-36
-44
-52
-100
-139
-181
-254
-247
-126
-52
-58
-42
-50
-111
-122
-156
-187
235
969
931
-50
-741
-569
-182
22
166
261
287
308
338
383
443
461
446
467
519
533
505
500
550
603
604
547
472
413
333
187
10
-171
-348
-428
-383
-350
-355
-307
-269
-325
-365
-319
-283
-300
-309
-304
-303
-260
-198
-214
-254
-204
-152
-161
-153
-233
-304
190
962
778
-312
-899
-642
-344
-268
-207
-169
-151
-101
-62
-36
1
21
33
49
39
22
38
65
73
75
90
98
78
45
5
-65
-164
-244
-274
-282
-302
-307
-259
-188
-158
-162
-131
-34
67
117
140
152
142
140
169
173
142
158
178
126
113
142
151
482
1125
1099
134
-548
-355
-88
-194
-320
-313
-299
-271
-188
-98
-52
-37
-15
25
79
138
168
180
227
293
337
387
447
457
406
342
295
270
229
135
61
79
102
51
21
58
53
7
47
122
121
124
173
139
36
2
13
7
10
-10
-81
-181
-344
-336
219
803
448
-479
-811
-527
-348
-370
-365
-352
-358
-338
-300
-238
-157
-124
-142
-124
-51
15
54
90
139
199
243
238
206
172
124
56
-14
-65
-92
-112
-149
-188
-201
-223
-309
-426
-519
-606
-683
-686
-624
-548
-448
-358
-354
-389
-386
-365
-352
-316
-256
-265
-305
29
817
1165
468
-404
-500
-126
79
90
94
103
83
47
18
12
34
73
120
180
254
320
382
446
486
503
527
525
451
353
253
90
-87
-141
-107
-107
-124
-108
-101
-113
-92
-55
-54
-63
-36
15
56
84
106
136
175
181
171
215
266
273
305
315
393
955
1622
1239
4
-603
-270
110
190
193
189
160
137
124
62
-30
-16
-21
-196
-94
436
602
227
94
281
303
239
251
197
102
42
-45
-110
-101
-93
-90
-60
-45
-35
-2
-8
-55
-71
-80
-111
-109
-89
-127
-172
-152
-137
-166
-168
-150
-149
-105
-79
-112
160
770
822
-23
-716
-634
-399
-412
-433
-406
-435
-450
-417
-401
-396
-371
-343
-333
-324
-292
-252
-224
-161
-40
55
71
71
84
73
38
-18
-87
-130
-137
-145
-171
-210
-244
-253
-253
-280
-317
-329
-324
-340
-398
-481
-549
-591
-640
-693
-721
-747
-779
-740
-647
-573
-237
500
811
77
-741
-668
-247
-139
-89
86
167
154
183
239
285
313
319
340
378
396
427
498
547
547
538
540
560
583
548
460
407
403
372
316
288
295
324
354
322
224
158
163
179
179
196
212
168
97
97
131
85
19
47
94
113
139
98
237
997
1700
1172
-9
-348
85
357
379
433
485
488
463
404
367
389
399
344
296
329
382
360
290
230
158
61
-27
-67
-72
-119
-233
-338
-378
-380
-362
-321
-278
-263
-266
-251
-225
-224
-228
-203
-184
-179
-147
-116
-137
-177
-213
-258
-271
-261
-311
-378
-432
-532
-391
195
494
-86
-757
-739
-471
-420
-404
-334
-339
-381
-430
-534
-629
-622
-568
-540
-517
-460
-364
-260
-174
-97
-12
53
83
90
54
-21
-70
-87
-121
-149
-124
-77
-39
20
78
80
75
134
195
182
135
119
119
102
75
47
10
-11
-17
-93
-216
-298
-411
-416
51
572
216
-716
-1026
-632
-384
-451
-452
-346
-266
-183
-88
-29
12
71
158
265
363
456
538
544
529
621
699
610
519
524
445
282
210
180
96
59
102
118
101
116
135
119
121
155
157
128
131
136
75
24
67
103
64
72
126
82
-9
-87
-125
249
1004
1074
60
-766
-599
-174
-61
10
149
181
164
221
279
283
299
354
435
508
521
519
575
622
610
605
598
515
405
362
328
174
-75
-268
-352
-358
-284
-199
-231
-332
-342
-262
-223
-261
-320
-358
-367
-351
-336
-325
-300
-280
-266
-216
-180
-191
-183
-213
-156
392
1020
677
-347
-730
-389
-173
-199
-161
-96
-86
-79
-75
-75
-65
-64
-78
-82
-55
-6
20
-3
-37
-46
-27
8
29
-6
-86
-135
-131
-146
-200
-227
-231
-250
-256
-245
-243
-218
-164
-133
-116
-76
-29
19
62
79
91
119
135
141
139
104
88
79
19
156
648
857
270
-440
-538
-338
-311
-383
-444
-539
-644
-704
-721
-714
-716
-736
-729
-631
-459
-299
-179
-44
111
228
289
323
351
381
402
386
325
258
229
229
219
215
235
228
182
166
184
189
177
150
120
113
93
46
25
4
-41
-35
-18
-63
-93
-130
-104
390
1063
833
-218
-757
-456
-119
-17
72
105
37
-9
-24
-55
-67
-60
-68
-65
-32
9
77
175
235
249
288
345
366
340
272
181
127
114
85
47
48
85
127
140
122
109
102
75
49
15
-57
-77
3
32
-20
-17
-11
-62
-55
-86
-204
-216
-258
-87
861
1076
-641
-988
1772
2947
559
-1008
-358
-140
-484
-295
-131
-216
-136
-55
-74
-20
36
52
115
159
145
162
198
170
114
82
31
-61
-134
-161
-172
-172
-168
-178
-194
-210
-224
-215
-190
-192
-199
-167
-144
-177
-210
-207
-211
-238
-250
-253
-286
-304
-274
-282
-176
321
726
275
-550
-708
-358
-216
-235
-155
-95
-111
-91
-45
-36
-53
-60
-45
-19
3
