# session 20
-84
-33
-206
-63
673
1304
1328
1157
1166
1207
1164
1122
1109
1113
1137
1151
1119
1062
1012
982
958
909
839
795
770
721
683
680
638
553
495
453
388
347
338
280
209
235
246
204
523
1218
1294
308
-578
-481
-57
15
-21
59
86
51
84
127
105
96
141
177
194
240
292
307
326
377
427
469
537
616
669
684
685
675
613
500
396
311
211
112
32
-36
-90
-150
-234
-297
-318
-342
-384
-421
-445
-459
-465
-478
-500
-527
-558
-583
-592
-596
-603
-610
-616
-621
-625
-629
-620
-597
-584
-582
-566
-539
-527
-520
-505
-491
-481
-458
-433
-425
-416
-380
-343
-328
-316
-296
-281
-255
-211
-182
-167
-145
-122
-106
-83
-56
-64
-99
-75
7
20
-10
60
122
25
-33
79
121
32
18
63
49
35
46
46
78
124
113
79
94
163
228
218
163
157
186
186
176
178
167
154
160
172
172
172
169
152
129
101
55
-10
-134
-324
-410
-239
24
139
136
140
156
168
184
173
137
126
143
137
124
145
125
172
660
1279
1055
86
-435
-231
3
41
19
-110
-244
-225
-167
-167
-142
-90
-73
-64
-24
11
25
56
101
141
204
291
354
429
548
609
572
536
530
467
332
210
158
125
52
-25
-44
-43
-81
-136
-149
-134
-139
-150
-122
-84
-83
-94
-93
-96
-107
-108
-112
-130
-141
-135
-134
-146
-149
-143
-143
-147
-142
-133
-130
-132
-131
-129
-127
-128
-132
-136
-140
-145
-149
-150
-154
-160
-157
-145
-137
-137
-138
-133
-123
-123
-132
-123
-97
-83
-75
-49
-24
-35
-59
-68
-79
-87
-70
-74
-103
-99
-106
10
550
1054
634
-328
-654
-337
-141
-154
-122
-89
-99
-86
-65
-56
-38
-28
-36
-31
-9
13
39
70
102
151
224
301
374
456
535
579
579
541
469
372
274
185
104
46
11
-22
-42
-33
-24
-36
-42
-28
-12
-10
-19
-12
28
58
44
25
35
46
31
14
20
27
7
-14
-13
-17
-43
-72
-92
-92
-76
-81
-113
-124
-109
-110
-122
-127
-151
-178
-165
-154
-194
-226
-213
-211
-232
-226
-191
-183
-237
-302
-297
-273
-316
-353
-318
-268
-238
-243
-169
254
717
425
-412
-737
-430
-199
-211
-219
-189
-164
-149
-151
-119
-50
-37
-78
-85
-48
3
41
41
52
120
193
255
356
458
496
521
566
537
405
290
238
169
80
21
-28
-72
-82
-82
-86
-74
-59
-64
-66
-63
-47
-7
22
20
43
111
176
186
131
54
-9
-71
-128
-136
-105
-80
-70
-52
-24
-17
-32
-37
-45
-72
-67
-31
-38
-62
-18
53
75
82
102
110
126
138
78
25
77
126
99
77
74
59
25
91
566
1183
935
-166
-760
-397
32
106
122
182
239
284
271
243
271
296
291
309
329
313
305
324
334
340
370
423
501
595
653
653
621
561
470
357
228
105
13
-68
-151
-213
-260
-303
-332
-354
-377
-386
-386
-387
-380
-369
-373
-380
-383
-396
-416
-429
-444
-455
-456
-469
-481
-462
-443
-448
-445
-423
-406
-399
-393
-379
-369
-382
-387
-355
-344
-380
-391
-346
-316
-337
-360
-343
-316
-313
-301
-262
-245
-266
-269
-257
-269
-264
-209
-179
-194
-171
-127
-140
-171
-174
-174
-161
-138
-149
-160
-159
-101
277
816
693
-153
-644
-394
-108
-56
18
77
70
129
176
148
214
333
303
254
374
490
445
408
487
565
602
668
758
837
912
969
987
965
894
786
686
584
460
357
303
253
178
110
80
78
75
58
44
41
29
5
10
46
50
12
-7
7
16
16
11
-17
-45
-40
-28
-44
-72
-94
-102
-96
-96
-103
-100
-92
-97
-106
-100
-89
-107
-156
-177
-154
-145
-150
-126
-123
-166
-174
-166
-218
-243
-200
-201
-223
-197
-193
-199
-192
-147
268
959
882
-185
-902
-654
-296
-275
-266
-203
-203
-206
-193
-191
-171
-159
-176
-164
-128
-124
-121
-87
-53
-8
76
158
215
301
415
471
455
427
376
275
164
63
-44
-141
-199
-219
-218
-230
-262
-273
-244
-209
-195
-185
-165
-152
-151
-142
-115
-85
-84
-115
-129
-97
-76
-102
-109
-70
-61
-100
-117
-90
-59
-35
-22
-36
-58
-63
-75
-117
-152
-147
-127
-116
-112
-107
-85
-36
2
-21
-66
-49
20
50
41
64
97
75
45
69
116
149
172
191
215
237
231
210
202
201
203
217
231
233
228
202
161
143
140
119
92
86
88
76
51
32
33
39
36
38
37
12
-12
-11
-11
-30
-44
-48
-56
-57
-39
-12
-9
-28
-21
17
34
28
40
61
66
78
104
118
121
129
130
118
112
110
100
93
92
86
92
110
114
109
121
125
94
60
56
55
37
28
11
-25
-33
-57
-31
347
850
661
-157
-578
-371
-191
-232
-246
-226
-243
-250
-266
-310
-324
-313
-331
-362
-373
-376
-368
-342
-326
-317
-282
-214
-128
-44
17
67
105
119
123
96
25
-33
-54
-102
-177
-224
-241
-239
-217
-197
-185
-169
-151
-134
-108
-77
-49
-35
-33
-10
30
41
41
65
75
59
74
107
108
89
64
17
-15
-7
13
35
72
97
103
118
134
146
195
261
278
267
276
272
228
186
187
231
274
280
279
294
310
361
441
462
423
391
360
317
264
186
117
94
60
-4
-27
-4
11
18
27
32
36
27
1
-15
-18
-32
-42
-44
-64
-86
-74
-50
-56
-79
-87
-86
-96
-107
-119
-140
-160
-168
-181
-203
-208
-197
-198
-215
-219
-207
-211
-236
-256
-279
-295
-281
-279
-305
-303
-294
-169
312
744
359
-506
-813
-534
-337
-330
-308
-287
-283
-260
-256
-265
-247
-237
-240
-205
-157
-154
-160
-129
-89
-46
36
145
241
320
385
437
478
483
457
433
396
316
230
161
92
34
11
6
7
7
-2
-6
10
25
29
38
50
58
70
81
75
64
71
85
79
67
77
89
77
66
79
91
78
61
59
70
81
81
67
60
75
88
71
53
61
62
33
18
39
53
41
29
18
-5
-24
-29
-30
-24
-18
-31
-51
-56
-62
-79
-64
-11
9
-26
-55
-60
-75
-78
-61
-68
-73
-74
-37
347
989
952
-17
-749
-586
-227
-164
-158
-107
-102
-105
-87
-82
-80
-74
-74
-72
-65
-61
-52
-26
5
32
71
128
201
279
349
406
453
467
425
348
252
138
28
-59
-123
-166
-191
-208
-223
-230
-232
-231
-218
-195
-180
-176
-166
-152
-147
-147
-145
-148
-156
-161
-159
-158
-162
-163
-160
-156
-153
-155
-162
-168
-163
-152
-144
-145
-145
-142
-143
-145
-139
-125
-111
-89
-61
-44
-49
-63
-67
-68
-67
-52
-41
-28
-6
-27
88
640
1165
802
-116
-495
-248
1
87
94
72
148
227
131
76
231
294
150
102
205
263
267
269
237
229
300
382
448
533
612
640
636
620
570
479
382
276
136
-1
-105
-224
-372
-504
-611
-680
-668
-566
-402
-225
-123
-122
-134
-112
-114
-138
-124
-96
-98
-103
-80
-36
-42
-202
-442
-556
-509
-418
-347
-314
-303
-251
-167
-125
-106
-56
-21
-31
-37
-30
-9
30
22
-6
35
18
2
479
1227
1120
79
-601
-414
-91
-20
-5
-5
-45
-31
13
3
-20
-6
7
-12
-23
10
49
49
50
107
187
236
293
394
476
498
511
512
439
317
212
121
30
-44
-108
-165
-178
-171
-194
-211
-200
-200
-198
-189
-200
-199
-164
-155
-177
-175
-154
-157
-175
-172
-161
-177
-187
-163
-152
-174
-196
-209
-207
-182
-169
-170
-159
-164
-188
-186
-178
-189
-174
-126
-97
-89
-83
-97
-120
-103
-70
-70
-64
-41
-56
-85
-110
-80
315
1002
1068
212
-507
-422
-112
-40
-25
22
-1
-28
23
64
50
60
96
99
98
128
164
201
232
244
287
380
472
554
626
659
674
680
638
566
499
410
295
202
160
152
143
117
91
86
93
86
65
69
93
91
67
58
56
21
-42
-68
-61
-114
-201
-195
-140
-153
-171
-112
-48
-39
-38
-17
-14
-39
-31
21
29
-23
-53
-58
-93
-158
-254
-355
-366
-301
-287
-310
-275
-228
-222
-215
-210
-224
-227
-236
-268
-277
-282
-332
-378
-380
-371
-360
-359
-363
-320
-259
-263
-272
-208
-166
-205
-214
-158
-139
-165
-152
-116
-116
-111
-63
-30
-35
-28
-3
4
8
27
40
44
52
49
34
35
59
76
61
40
52
80
83
75
81
90
84
84
104
111
94
91
98
74
49
74
100
84
83
124
137
101
67
56
58
57
36
29
57
53
18
-1
13
310
971
1189
398
-483
-520
-164
-58
-79
-26
28
31
11
-2
9
28
34
34
38
46
69
110
145
167
204
268
332
385
440
503
561
588
584
566
516
425
328
238
144
74
43
6
-39
-42
-33
-75
-99
-58
-59
-103
-75
-22
-40
-59
-37
-35
-43
-34
-47
-55
-20
-4
-39
-65
-65
-76
-85
-80
-84
-103
-115
-117
-121
-128
-139
-153
-158
-148
-146
-158
-165
-170
-184
-196
-195
-198
-208
-218
-232
-250
-256
-251
-254
-262
-260
-255
-263
-275
-271
-255
-246
-245
-239
-226
-215
-209
-204
-193
-180
-170
-156
-134
-118
-110
-95
-73
-57
-53
-53
-52
-46
-33
-19
-12
-11
1
33
69
85
82
85
98
98
88
93
94
79
81
82
56
48
34
88
528
1096
882
-49
-535
-289
-53
-67
-58
-25
-37
-23
2
-7
-8
10
14
11
18
31
51
76
101
132
173
221
286
364
428
472
504
515
492
441
370
287
200
119
52
4
-27
-49
-62
-68
-74
-78
-74
-66
-60
-52
-42
-34
-27
-24
-28
-29
-29
-34
-41
-40
-36
-39
-48
-53
-46
-38
-42
-49
-44
-35
-36
-42
-42
-40
-45
-54
-56
-55
-57
-65
-71
-71
-70
-74
-79
-82
-80
-77
-78
-79
-76
-69
-63
-66
-70
-68
-66
-71
-75
-70
-67
-69
-68
-62
-60
-65
-69
-66
-59
-57
-62
-64
-57
-51
-52
-51
-44
-43
-47
-46
-43
-43
-41
-36
-35
-34
-34
-39
-40
-39
-45
-52
-54
-48
-30
-6
5
4
8
14
11
-6
-20
-25
-33
-34
-28
-42
-49
-39
-23
233
786
927
233
-462
-442
-170
-131
-146
-103
-108
-128
-107
-96
-99
-85
-69
-60
-43
-22
-9
7
39
76
110
150
206
269
332
398
454
483
482
463
423
353
269
195
131
69
19
-15
-40
-56
-60
-54
-47
-41
-34
-27
-25
-25
-21
-17
-22
-33
-37
-32
-30
-35
-45
-50
-45
-40
-39
-36
-33
-35
-40
-46
-44
-22
-6
-22
-36
-27
-20
-28
-35
-44
-56
-61
-63
-65
-60
-56
-66
-70
-61
-60
-70
-73
-69
-73
-84
-85
-84
-89
-92
-85
-80
-81
-83
-83
-79
-70
-60
-55
-59
-63
-52
-39
-50
-66
-62
-51
-49
-54
-51
-41
-34
-32
-31
-34
-38
-32
-25
-32
-36
-23
-8
3
11
12
6
3
0
-13
-28
-42
-53
-51
-55
-81
-87
-97
-98
163
639
658
26
-462
-361
-137
-108
-115
-90
-90
-87
-67
-55
-48
-40
-36
-32
-25
-15
6
38
72
104
136
173
220
280
345
404
444
458
453
431
384
308
221
151
98
47
2
-28
-47
-58
-63
-64
-59
-52
-53
-56
-50
-41
-40
-37
-31
-34
-40
-34
-30
-38
-41
-34
-32
-39
-46
-53
-63
-74
-79
-83
-90
-97
-94
-86
-85
-91
-88
-77
-76
-82
-79
-71
-68
-66
-58
-49
-39
-28
-19
-10
-1
2
2
4
10
20
24
24
33
42
29
13
20
35
43
52
61
61
52
32
5
-25
-56
-69
-67
-83
-92
-88
-119
-1
432
674
207
-431
-510
-260
-155
-152
-129
-125
-120
-97
-98
-104
-87
-72
-72
-69
-62
-56
-46
-28
-4
22
53
93
150
215
280
336
373
387
377
350
304
233
155
95
51
11
-22
-40
-46
-49
-49
-48
-45
-37
-23
-15
-17
-18
-17
-21
-21
-20
-27
-38
-41
-42
-50
-58
-58
-55
-52
-53
-54
-50
-47
-50
-51
-48
-51
-56
-57
-60
-66
-69
-67
-61
-41
-22
-13
-6
-9
-31
-51
-56
-59
-58
-55
-68
-70
-80
-84
151
575
562
-54
-514
-404
-178
-143
-152
-134
-136
-138
-131
-133
-128
-115
-108
-106
-100
-89
-74
-57
-38
-9
31
78
134
204
278
341
386
413
417
388
323
240
163
96
37
-10
-44
-68
-84
-91
-87
-81
-80
-79
-74
-71
-68
-61
-55
-52
-47
-45
-44
-39
-35
-40
-48
-49
-50
-54
-57
-58
-57
-59
-64
-65
-61
-59
-62
-64
-51
-27
-6
13
25
11
-8
-9
-11
-15
0
-4
-22
-11
-28
57
524
952
554
-314
-596
-285
-75
-72
-51
-25
-28
-15
-3
-5
-1
2
1
7
15
24
39
59
83
119
167
219
277
344
410
460
484
481
449
384
295
195
100
18
-50
-102
-139
-162
-172
-172
-169
-168
-169
-169
-165
-162
-160
-156
-151
-152
-155
-157
-162
-167
-165
-162
-163
-166
-167
-168
-172
-178
-178
-174
-177
-183
-174
-149
-127
-112
-100
-98
-112
-118
-112
-114
-111
-99
-104
-99
-100
-120
119
689
836
114
-601
-549
-206
-108
-111
-77
-72
-71
-49
-45
-47
-29
-13
-5
4
16
33
56
83
113
152
206
271
343
411
469
508
517
496
449
380
295
205
128
69
22
-13
-37
-52
-58
-55
-50
-47
-44
-40
-34
-29
-27
-31
-37
-39
-37
-36
-38
-45
-54
-60
-62
-65
-72
-77
-81
-86
-88
-84
-86
-89
-81
-76
-92
-105
-101
-93
-83
-63
-40
-25
-11
-6
-22
-43
-44
-32
-27
-27
