# session 37
-4
-23
43
6
-242
-471
-487
-417
-422
-434
-405
-441
-365
201
803
494
-409
-731
-431
-258
-292
-270
-244
-254
-233
-205
-199
-185
-167
-156
-140
-120
-106
-90
-70
-50
-27
0
24
48
77
110
138
162
183
199
207
207
190
148
89
27
-23
-58
-82
-98
-108
-109
-104
-101
-99
-93
-84
-79
-76
-70
-63
-64
-67
-65
-60
-56
-54
-50
-47
-47
-48
-46
-45
-47
-52
-57
-61
-51
-31
-11
7
21
19
3
-10
-7
-3
-9
-4
4
-10
-12
-31
-60
243
912
1080
339
-336
-257
10
15
-22
5
-1
-10
5
9
9
17
21
25
32
37
44
55
66
79
94
110
130
153
174
193
213
232
241
242
241
230
195
140
78
20
-28
-65
-90
-103
-111
-115
-114
-111
-107
-104
-102
-101
-100
-99
-99
-101
-101
-100
-98
-99
-99
-98
-97
-97
-96
-96
-94
-91
-92
-96
-101
-111
-119
-109
-85
-63
-47
-35
-36
-51
-66
-62
-58
-67
-62
-51
-65
-67
-81
-111
169
806
972
256
-399
-316
-48
-42
-74
-40
-44
-53
-35
-29
-27
-16
-11
-9
0
7
13
22
33
46
61
77
97
121
142
163
186
206
216
218
216
208
182
134
75
20
-28
-67
-89
-98
-107
-116
-116
-110
-106
-106
-105
-103
-102
-101
-101
-101
-100
-96
-94
-95
-97
-95
-93
-94
-96
-95
-92
-89
-87
-88
-90
-92
-97
-104
-101
-82
-60
-39
-21
-18
-32
-46
-45
-43
-52
-48
-34
-45
-50
-47
-96
53
646
1033
502
-291
-386
-79
5
-37
-12
-4
-19
-6
2
-2
6
14
18
24
30
37
50
61
68
80
96
114
133
155
179
200
216
231
240
238
229
210
170
111
52
2
-38
-71
-91
-98
-97
-96
-97
-95
-92
-92
-91
-85
-80
-83
-88
-86
-84
-88
-90
-86
-87
-92
-92
-89
-89
-92
-90
-84
-84
-90
-95
-98
-103
-103
-88
-68
-48
-29
-22
-33
-51
-55
-49
-53
-52
-36
-46
-54
-47
-96
14
571
1014
560
-262
-432
-126
-5
-45
-26
-14
-29
-17
-6
-10
-4
5
11
17
24
31
39
47
59
74
86
101
120
141
165
188
203
217
230
230
219
204
171
115
54
0
-47
-80
-94
-100
-106
-110
-111
-109
-104
-101
-101
-104
-108
-107
-100
-98
-102
-105
-105
-105
-107
-106
-106
-106
-107
-103
-96
-97
-104
-105
-102
-110
-114
-98
-78
-64
-44
-26
-38
-68
-71
-56
-65
-72
-51
-51
-62
-48
-80
18
553
1016
568
-336
-579
-237
-39
-47
-23
-7
-24
-13
1
-5
-2
15
28
35
38
43
53
65
78
89
101
118
143
169
191
212
233
250
260
266
262
245
210
150
76
15
-29
-66
-92
-104
-109
-108
-105
-106
-107
-104
-101
-99
-94
-91
-91
-91
-94
-96
-92
-88
-93
-96
-88
-83
-94
-104
-100
-97
-101
-96
-80
-65
-51
-35
-30
-46
-65
-65
-65
-74
-63
-50
-69
-66
-66
-91
191
844
999
205
-539
-456
-107
-34
-51
-18
-18
-29
-14
-5
-1
7
10
17
30
37
41
49
63
78
90
104
123
147
171
196
218
235
247
256
256
240
203
149
84
20
-31
-69
-96
-112
-118
-120
-118
-113
-109
-105
-101
-96
-96
-99
-98
-95
-93
-91
-90
-93
-95
-93
-95
-100
-97
-91
-95
-103
-104
-106
-110
-104
-89
-70
-47
-32
-36
-53
-64
-63
-61
-66
-58
-50
-62
-60
-83
-100
235
876
941
162
-436
-293
-34
-40
-62
-31
-42
-50
-31
-27
-25
-15
-14
-13
-1
8
14
22
31
42
58
78
99
121
145
168
188
202
213
219
216
197
163
112
51
-10
-58
-89
-110
-123
-132
-137
-136
-132
-129
-128
-125
-126
-130
-127
-120
-118
-119
-123
-132
-131
-115
-109
-125
-132
-115
-103
-113
-135
-156
-152
-124
-102
-89
-69
-46
-25
-19
-48
-67
-30
12
20
16
13
43
67
42
303
990
1199
333
-538
-442
6
115
93
129
124
110
130
128
116
123
124
104
91
98
103
92
82
88
102
114
123
129
145
177
200
207
218
235
235
216
180
126
57
-13
-73
-120
-153
-168
-171
-177
-184
-179
-168
-162
-160
-154
-147
-145
-146
-145
-146
-149
-146
-144
-150
-156
-154
-152
-154
-158
-161
-163
-156
-135
-110
-96
-94
-99
-113
-123
-120
-118
-110
-97
-110
-114
-105
-142
43
680
1048
417
-453
-533
-172
-58
-92
-65
-57
-68
-47
-39
-43
-31
-20
-17
-3
9
9
16
36
53
69
93
117
137
162
193
223
245
258
265
267
253
213
154
86
26
-19
-56
-83
-99
-110
-116
-112
-102
-96
-94
-90
-85
-79
-78
-80
-76
-68
-68
-72
-67
-60
-57
-55
-56
-62
-67
-66
-66
-74
-79
-70
-51
-28
-10
2
-1
-19
-29
-18
-19
-28
-15
-15
-27
-25
-64
44
614
1123
705
-177
-408
-99
31
-15
5
20
3
16
27
19
26
39
46
56
62
61
70
86
98
111
130
149
169
198
228
250
270
287
295
293
281
250
196
128
59
6
-29
-54
-72
-86
-93
-91
-88
-89
-88
-85
-84
-84
-85
-89
-92
-93
-96
-101
-103
-104
-107
-113
-117
-117
-120
-130
-140
-149
-161
-164
-157
-147
-134
-117
-114
-134
-159
-165
-163
-175
-180
-168
-184
-197
-196
-248
-108
493
906
367
-467
-585
-277
-200
-257
-240
-239
-258
-244
-236
-245
-244
-242
-249
-248
-242
-248
-251
-240
-242
-250
-215
-161
-145
-120
-37
53
115
177
233
272
310
330
319
317
336
335
309
286
269
258
265
273
268
263
248
207
177
183
194
188
180
165
140
121
117
127
130
113
106
121
124
109
100
94
80
69
61
46
33
25
17
21
39
49
34
0
-28
-30
-38
-68
-73
-57
-76
-86
-75
-93
134
724
912
211
-487
-411
-80
-30
-63
-36
-44
-57
-23
16
36
35
10
-16
-30
-40
-39
-18
9
23
31
45
61
73
87
114
143
165
177
177
171
160
130
75
9
-53
-110
-151
-168
-179
-194
-207
-210
-213
-223
-231
-232
-232
-234
-230
-218
-206
-202
-208
-215
-215
-208
-204
-204
-198
-186
-178
-178
-178
-171
-162
-160
-160
-153
-143
-139
-138
-139
-137
-120
-95
-75
-56
-36
-33
-54
-70
-64
-58
-71
-71
-57
-56
-53
-78
-84
234
795
778
-2
-539
-350
-79
-77
-92
-65
-79
-67
-27
-40
-92
-124
-109
-67
-39
-9
61
157
250
329
372
389
412
430
437
456
481
491
501
521
530
522
500
456
398
351
316
276
241
230
229
206
168
134
90
28
-22
-50
-84
-120
-129
-126
-146
-182
-202
-216
-239
-243
-217
-199
-207
-212
-205
-203
-213
-216
-204
-184
-174
-186
-197
-179
-155
-150
-139
-112
-108
-134
-146
-135
-134
-145
-132
-110
-128
-134
-113
-109
143
780
1012
243
-622
-620
-208
-69
-93
-72
-51
-33
-15
-34
-50
-20
16
22
23
38
47
50
62
73
80
96
113
130
163
201
223
238
256
272
276
267
240
182
101
23
-36
-92
-144
-178
-196
-214
-233
-241
-245
-250
-241
-219
-211
-216
-213
-202
-196
-198
-203
-200
-186
-170
-158
-152
-149
-137
-123
-119
-116
-106
-99
-88
-61
-30
-8
14
32
26
4
-3
5
2
4
28
30
21
40
11
85
612
1156
789
-154
-474
-130
89
64
73
95
84
92
100
90
91
96
96
98
101
105
113
118
122
134
149
157
168
194
224
248
270
292
301
297
287
265
212
137
64
1
-48
-85
-111
-128
-137
-142
-145
-142
-137
-139
-143
-137
-128
-125
-124
-122
-122
-124
-123
-120
-120
-122
-122
-120
-123
-127
-128
-130
-133
-132
-137
-143
-135
-115
-96
-78
-60
-56
-71
-84
-78
-73
-86
-84
-69
-85
-93
-90
-113
118
738
973
280
-453
-407
-89
-45
-79
-50
-56
-65
-44
-40
-43
-29
-22
-18
-9
-2
4
14
26
40
60
78
96
124
156
181
205
232
252
260
263
252
213
154
92
30
-24
-59
-80
-95
-102
-102
-103
-102
-97
-93
-91
-88
-85
-83
-81
-78
-76
-75
-72
-68
-69
-70
-65
-61
-65
-71
-68
-65
-67
-71
-67
-67
-79
-87
-74
-55
-40
-23
-5
-1
-19
-43
-47
-39
-46
-47
-35
-46
-53
-55
-83
137
734
965
311
-379
-329
-37
-18
-58
-24
-29
-41
-21
-17
-19
-4
5
4
7
12
18
27
37
47
61
77
97
123
153
182
208
230
247
256
257
243
209
155
94
38
-11
-52
-81
-96
-105
-111
-114
-113
-112
-110
-106
-104
-105
-104
-105
-105
-101
-98
-100
-100
-93
-88
-89
-87
-83
-84
-86
-84
-84
-83
-79
-80
-90
-95
-94
-100
-105
-92
-73
-60
-45
-27
-27
-46
-62
-59
-57
-66
-59
-45
-58
-59
-62
-77
196
785
896
186
-408
-285
-22
-24
-51
-17
-23
-29
-8
-3
-5
6
15
16
19
25
30
39
55
72
85
101
127
154
179
207
235
255
267
275
278
270
243
191
127
72
27
-15
-44
-55
-60
-67
-65
-59
-58
-58
-54
-52
-56
-61
-55
-43
-46
-62
-68
-65
-69
-75
-72
-71
-78
-80
-75
-70
-73
-83
-92
-97
-104
-109
-107
-107
-112
-118
-127
-135
-133
-121
-107
-92
-75
-65
-80
-107
-108
-91
-92
-88
-78
-90
-88
-88
-92
204
814
908
127
-537
-412
-81
-27
-46
-20
-22
-21
-9
-17
-14
9
11
5
20
30
24
28
46
63
79
95
106
126
160
192
215
237
253
261
264
261
239
185
113
46
-9
-61
-101
-117
-120
-120
-114
-109
-111
-105
-89
-83
-86
-76
-62
-62
-69
-67
-57
-51
-62
-80
-83
-74
-79
-90
-84
-77
-82
-86
-82
-76
-63
-47
-36
-32
-37
-57
-73
-66
-54
-55
-55
-56
-60
-41
-65
-66
344
1006
915
-56
-672
-422
-79
-42
-36
1
-15
-22
-7
-7
-1
14
16
18
28
32
36
48
65
84
92
95
118
156
186
212
243
268
282
290
284
262
224
160
82
16
-38
-86
-114
-121
-133
-145
-141
-131
-127
-126
-119
-112
-108
-108
-107
-106
-108
-105
-96
-96
-106
-103
-92
-92
-97
-101
-104
-100
-97
-106
-113
-101
-82
-68
-53
-43
-44
-54
-63
-63
-62
-66
-57
-50
-66
-63
-77
-81
272
917
934
80
-541
-360
-53
-29
-41
-12
-23
-23
-2
0
0
7
9
13
23
31
37
41
48
62
82
102
119
134
158
190
220
235
241
248
250
232
188
128
63
3
-45
-81
-111
-129
-131
-131
-133
-134
-131
-129
-125
-120
-116
-111
-106
-104
-106
-107
-101
-94
-94
-96
-93
-89
-87
-86
-89
-94
-94
-98
-107
-99
-79
-62
-48
-34
-31
-45
-62
-59
-52
-63
-60
-42
-54
-60
-64
-91
162
799
1014
317
-378
-320
-39
-23
-57
-26
-31
-37
-14
-8
-10
5
17
24
32
39
44
53
66
78
92
111
131
153
178
203
229
254
268
271
266
252
216
158
98
44
-4
-43
-64
-74
-83
-92
-92
-87
-84
-83
-80
-77
-72
-67
-69
-73
-74
-74
-75
-75
-75
-74
-75
-79
-83
-78
-74
-82
-93
-95
-101
-113
-105
-84
-73
-61
-42
-43
-68
-85
-78
-77
-93
-90
-76
-94
-103
-101
-129
83
685
940
306
-391
-363
-84
-65
-103
-66
-65
-76
-53
-45
-49
-44
-39
-37
-32
-28
-22
-12
-4
6
19
31
49
76
105
129
151
172
190
200
198
185
155
104
43
-12
-58
-95
-122
-135
-139
-140
-143
-146
-144
-139
-135
-136
-137
-134
-130
-130
-130
-125
-121
-114
-98
-80
-69
-59
-49
-42
-35
-27
-22
-12
0
3
4
8
13
24
44
62
77
93
92
67
49
57
61
49
55
71
60
62
57
40
309
891
1006
317
-270
-164
90
91
58
80
72
67
81
78
75
79
73
64
62
60
64
74
81
85
90
102
116
126
135
151
169
178
182
189
184
163
136
102
40
-38
-100
-140
-170
-190
-197
-197
-197
-201
-206
-210
-215
-217
-213
-207
-206
-211
-214
-207
-199
-201
-209
-211
-209
-206
-198
-191
-188
-181
-167
-156
-152
-151
-151
-150
-140
-120
-97
-74
-55
-54
-65
-70
-66
-70
-80
-67
-55
-72
-66
-68
-89
207
848
956
144
-563
-441
-83
-11
-29
0
1
-3
17
26
29
43
57
60
60
69
80
88
98
113
126
142
168
196
219
247
275
293
305
314
311
296
271
222
149
73
15
-25
-51
-68
-84
-94
-90
-78
-74
-80
-82
-73
-69
-78
-85
-78
-70
-75
-80
-73
-67
-70
-77
-81
-78
-75
-85
-91
-74
-56
-53
-45
-34
-41
-62
-74
-69
-62
-67
-63
-55
-72
-70
-55
-77
154
808
1082
326
-561
-577
-172
-39
-57
-22
-14
-29
-13
-2
-9
-5
7
10
14
27
41
42
46
65
81
88
107
140
168
187
208
231
248
254
248
230
196
141
72
4
-49
-86
-111
-122
-126
-135
-142
-133
-125
-130
-128
-118
-118
-122
-114
-106
-110
-118
-117
-110
-107
-112
-119
-121
-117
-114
-119
-125
-126
-129
-131
-118
-98
-82
-63
-51
-63
-84
-87
-80
-83
-89
-74
-73
-87
-76
-100
-64
391
986
800
-60
-461
-199
-5
-48
-46
-15
-30
-29
-16
-19
-12
2
1
0
8
14
18
29
42
54
67
84
106
130
154
176
199
216
222
228
228
209
172
123
64
12
-17
-37
-60
-69
-62
-59
-58
-50
-42
-39
-39
-39
-38
-34
-34
-40
-44
-39
-38
-45
-47
-43
-42
-43
-35
-24
-25
-31
-31
-29
-32
-36
