# session 24
200
173
192
220
146
3
-53
-31
-44
-69
-52
-26
-12
-4
-21
-62
-87
-85
-87
-100
-102
-103
-120
-120
-109
-133
-130
-98
-170
-229
-64
233
746
1454
1389
169
-784
-612
-234
-218
-198
-130
-158
-163
-124
-119
-112
-90
-87
-81
-59
-43
-34
-22
-11
3
23
38
47
63
84
100
117
140
156
163
174
187
188
186
192
191
172
144
113
72
27
-14
-51
-85
-113
-134
-150
-163
-170
-171
-173
-176
-174
-173
-176
-179
-178
-180
-185
-185
-181
-180
-182
-182
-178
-173
-169
-165
-160
-156
-151
-145
-140
-135
-128
-119
-114
-111
-107
-102
-98
-94
-91
-88
-84
-78
-75
-73
-69
-63
-60
-58
-57
-54
-49
-43
-40
-37
-36
-36
-34
-29
-23
-22
-22
-22
-22
-21
-20
-19
-17
-15
-15
-14
-12
-14
-19
-25
-31
-29
-14
8
34
54
42
4
-14
-6
-7
-15
-9
-11
-25
-14
-6
-28
-2
12
-85
-91
113
424
1046
1736
1362
5
-692
-348
-57
-94
-58
-8
-40
-26
8
0
8
29
33
42
62
74
84
98
114
129
146
161
176
195
216
235
252
271
289
306
318
325
326
322
315
301
273
230
174
113
54
2
-41
-73
-95
-114
-128
-134
-138
-145
-148
-145
-143
-146
-149
-151
-151
-152
-156
-162
-167
-170
-170
-170
-169
-167
-163
-160
-158
-156
-152
-148
-143
-138
-135
-134
-131
-125
-120
-117
-113
-110
-109
-106
-103
-102
-102
-99
-96
-94
-90
-87
-85
-84
-82
-79
-75
-72
-72
-72
-70
-67
-65
-63
-61
-59
-56
-53
-51
-50
-48
-48
-47
-47
-46
-44
-42
-41
-41
-42
-41
-44
-53
-56
-40
-18
1
21
21
-13
-42
-39
-32
-41
-41
-33
-44
-47
-33
-46
-49
-16
-63
-138
-32
210
640
1340
1533
588
-440
-483
-132
-80
-96
-39
-48
-61
-27
-17
-18
1
15
22
36
50
63
78
92
106
126
144
158
175
195
214
232
249
264
279
293
300
301
302
298
287
267
236
190
135
83
38
-1
-34
-60
-78
-91
-100
-106
-110
-112
-111
-108
-109
-112
-115
-119
-124
-126
-129
-132
-134
-135
-135
-133
-133
-132
-128
-124
-121
-118
-114
-112
-109
-105
-101
-98
-96
-95
-91
-87
-84
-80
-76
-72
-69
-67
-65
-63
-60
-57
-55
-55
-53
-50
-50
-51
-49
-47
-45
-44
-45
-44
-42
-40
-41
-42
-41
-39
-38
-37
-36
-36
-37
-38
-36
-34
-33
-34
-34
-32
-30
-30
-31
-31
-31
-31
-28
-25
-27
-28
-26
-25
-26
-27
-27
-29
-34
-41
-38
-21
2
23
36
20
-16
-36
-30
-31
-41
-38
-35
-45
-39
-30
-50
-37
-12
-86
-125
44
349
871
1459
1233
98
-628
-413
-114
-105
-75
-24
-48
-42
-11
-14
-10
11
19
26
39
49
58
72
88
104
119
132
145
158
172
190
209
224
235
247
258
266
270
267
257
248
236
213
174
127
84
50
17
-19
-51
-71
-84
-95
-104
-110
-115
-119
-121
-121
-125
-132
-139
-144
-146
-148
-152
-156
-155
-153
-154
-154
-152
-148
-145
-143
-141
-135
-128
-126
-126
-122
-114
-111
-112
-107
-103
-105
-105
-97
-93
-92
-88
-81
-80
-80
-75
-69
-67
-70
-70
-66
-64
-61
-60
-62
-61
-58
-56
-56
-55
-55
-53
-50
-48
-49
-50
-50
-49
-49
-48
-44
-40
-41
-47
-50
-53
-61
-60
-42
-17
7
23
6
-32
-44
-33
-34
-42
-39
-43
-53
-35
-24
-50
-32
-17
-106
-112
102
446
1068
1676
1220
-123
-760
-391
-94
-114
-67
-18
-47
-29
1
-4
7
27
28
41
64
74
80
96
112
127
143
159
174
194
216
233
247
264
281
296
310
319
319
316
310
298
274
233
180
125
73
24
-17
-48
-76
-98
-111
-120
-128
-129
-124
-121
-122
-125
-128
-133
-136
-139
-142
-145
-148
-153
-156
-155
-153
-151
-150
-149
-149
-144
-137
-134
-135
-132
-125
-122
-121
-117
-112
-110
-107
-102
-98
-97
-96
-93
-90
-89
-87
-86
-85
-82
-80
-79
-75
-71
-73
-74
-73
-72
-71
-68
-65
-66
-64
-60
-60
-60
-56
-54
-54
-51
-48
-49
-52
-53
-51
-50
-59
-72
-68
-44
-18
5
16
0
-35
-54
-48
-46
-52
-51
-52
-63
-54
-45
-64
-46
-27
-110
-136
35
323
876
1535
1314
130
-606
-379
-93
-105
-85
-42
-67
-58
-26
-27
-19
2
10
19
36
49
63
79
93
110
128
144
162
182
202
222
243
265
285
300
309
317
323
321
314
303
276
230
172
111
53
4
-35
-64
-85
-101
-111
-117
-120
-120
-117
-114
-112
-110
-108
-108
-110
-115
-119
-120
-122
-126
-128
-128
-128
-126
-122
-120
-117
-113
-110
-108
-105
-100
-95
-91
-89
-85
-80
-74
-71
-69
-65
-60
-57
-54
-51
-49
-48
-48
-46
-41
-37
-36
-34
-31
-28
-26
-26
-26
-24
-20
-17
-15
-15
-15
-13
-12
-12
-11
-10
-10
-9
-7
-6
-5
-4
-3
-1
0
0
-2
-2
0
0
-1
-4
-6
-5
-5
-7
-9
-9
-10
-11
-11
-11
-12
-14
-16
-17
-17
-18
-19
-20
-21
-21
-22
-25
-28
-28
-25
-25
-29
-31
-30
-32
-34
-39
-47
-50
-39
-25
-11
11
17
-10
-41
-47
-46
-54
-53
-52
-65
-60
-47
-64
-56
-30
-97
-137
15
286
769
1388
1275
196
-586
-423
-121
-118
-102
-49
-71
-73
-44
-42
-35
-13
-6
-2
12
23
33
49
64
76
89
104
124
141
155
170
188
208
223
235
248
258
262
260
258
255
245
223
188
145
102
59
18
-15
-40
-65
-86
-98
-106
-112
-114
-114
-114
-112
-112
-115
-121
-127
-131
-136
-141
-144
-144
-145
-145
-142
-141
-139
-136
-131
-128
-124
-121
-119
-116
-110
-104
-103
-102
-98
-94
-93
-90
-85
-82
-78
-72
-68
-67
-63
-59
-58
-57
-52
-48
-48
-45
-44
-47
-48
-42
-38
-38
-38
-38
-38
-35
-32
-31
-32
-31
-28
-26
-26
-26
-26
-26
-27
-24
-22
-22
-23
-22
-18
-14
-15
-19
-19
-18
-17
-18
-25
-34
-30
-19
-9
11
35
28
-9
-32
-30
-30
-35
-33
-41
-47
-33
-37
-54
-24
-37
-131
-87
144
505
1115
1501
837
-303
-615
-253
-87
-105
-54
-41
-66
-39
-20
-25
-10
9
16
25
38
48
61
78
96
114
128
142
161
182
200
218
237
257
274
287
298
305
308
306
299
282
251
207
150
91
37
-8
-49
-83
-106
-117
-125
-132
-135
-134
-131
-127
-125
-127
-128
-126
-127
-131
-137
-142
-143
-144
-146
-146
-144
-143
-144
-141
-135
-131
-127
-122
-118
-117
-115
-111
-105
-101
-97
-93
-91
-87
-84
-82
-78
-72
-71
-73
-72
-69
-66
-65
-64
-62
-60
-58
-56
-55
-55
-55
-53
-50
-48
-46
-47
-48
-47
-44
-43
-42
-38
-37
-37
-34
-31
-31
-32
-29
-29
-32
-30
-24
-22
-23
-24
-25
-25
-31
-40
-35
-10
11
24
36
25
-11
-32
-25
-23
-32
-31
-30
-42
-35
-25
-49
-41
-11
-79
-123
51
378
893
1434
1177
47
-662
-429
-113
-97
-66
-16
-42
-37
-5
-8
-3
21
30
35
45
55
70
87
98
109
125
143
159
177
195
212
231
253
274
287
297
307
313
314
310
296
270
234
184
124
69
18
-28
-64
-90
-110
-124
-130
-130
-130
-130
-128
-128
-129
-131
-131
-134
-145
-155
-155
-153
-159
-163
-159
-156
-159
-157
-152
-151
-150
-143
-137
-138
-140
-135
-130
-129
-129
-127
-122
-120
-120
-118
-112
-110
-108
-101
-97
-95
-91
-88
-89
-88
-83
-81
-81
-77
-73
-73
-77
-78
-67
-49
-42
-49
-58
-67
-69
-58
-51
-68
-88
-78
-49
-25
-5
5
-16
-47
-52
-42
-47
-50
-37
-44
-57
-38
-36
-50
-30
-66
-140
-31
258
711
1384
1543
510
-642
-679
-210
-92
-96
-20
-27
-51
-13
1
-3
24
43
46
58
78
92
105
119
129
137
154
180
201
218
237
262
290
326
361
380
379
372
370
367
355
328
282
223
161
91
11
-54
-81
-87
-107
-138
-155
-166
-190
-220
-231
-217
-187
-157
-138
-131
-132
-127
-112
-107
-118
-134
-143
-139
-133
-137
-144
-147
-147
-136
-124
-133
-138
-121
-126
-156
-158
-137
-140
-149
-145
-142
-141
-134
-131
-134
-133
-127
-120
-116
-115
-113
-116
-122
-120
-113
-110
-115
-125
-125
-103
-69
-36
-19
-34
-70
-88
-78
-67
-72
-79
-83
-86
-71
-61
-83
-69
-31
-100
-158
1
319
872
1551
1413
209
-670
-480
-114
-98
-92
-35
-53
-56
-18
-8
-7
9
30
53
64
65
76
97
121
142
153
166
192
220
244
270
294
313
334
358
377
392
401
403
393
366
327
274
199
106
23
-37
-82
-114
-136
-147
-147
-146
-151
-149
-135
-124
-122
-119
-114
-115
-120
-126
-130
-133
-140
-143
-140
-139
-143
-139
-134
-137
-140
-133
-126
-123
-121
-119
-119
-118
-112
-105
-101
-105
-110
-108
-107
-107
-103
-97
-95
-91
-89
-89
-87
-85
-84
-78
-74
-79
-80
-73
-66
-66
-69
-73
-69
-62
-63
-67
-68
-71
-83
-94
-90
-76
-61
-36
-5
-10
-54
-76
-66
-67
-81
-74
-67
-86
-92
-67
-74
-90
-52
-73
-161
-84
179
599
1246
1485
614
-497
-643
-240
-102
-96
-22
-14
-35
-3
12
1
15
39
46
49
62
78
92
110
131
155
183
205
214
234
268
289
298
320
343
351
362
375
373
363
355
331
290
245
180
99
34
-9
-52
-93
-117
-126
-128
-126
-124
-119
-115
-119
-123
-118
-115
-124
-131
-132
-139
-146
-146
-146
-146
-137
-134
-146
-153
-144
-136
-136
-133
-127
-125
-119
-115
-119
-120
-112
-105
-107
-108
-105
-102
-99
-93
-90
-92
-92
-88
-85
-84
-81
-77
-72
-69
-66
-64
-62
-64
-66
-63
-58
-58
-59
-58
-55
-53
-52
-49
-46
-47
-47
-43
-43
-44
-42
-36
-35
-34
-32
-30
-30
-30
-32
-37
-44
-51
-45
-24
2
24
26
-2
-34
-38
-29
-36
-48
-44
-45
-51
-36
-37
-57
-28
-29
-126
-99
131
500
1161
1669
1028
-285
-735
-331
-106
-123
-55
-25
-60
-34
-5
-12
0
19
22
33
53
66
79
93
103
116
136
153
165
181
202
224
246
271
296
314
324
334
344
347
344
335
313
273
220
162
99
38
-11
-50
-80
-101
-118
-128
-133
-136
-135
-130
-126
-129
-133
-138
-144
-147
-150
-157
-162
-161
-160
-162
-165
-163
-158
-157
-157
-156
-153
-150
-145
-141
-140
-139
-135
-130
-125
-122
-122
-121
-117
-114
-113
-109
-106
-105
-102
-97
-92
-89
-88
-88
-87
-86
-86
-84
-82
-81
-81
-79
-77
-76
-76
-75
-73
-70
-66
-64
-64
-64
-62
-61
-62
-67
-76
-75
-56
-28
-3
7
-11
-44
-60
-54
-54
-61
-54
-51
-65
-60
-48
-69
-56
-27
-106
-147
14
297
890
1688
1550
212
-715
-480
-118
-125
-100
-35
-65
-60
-21
-26
-22
5
15
23
39
52
65
82
100
118
135
151
170
194
217
240
266
294
321
347
369
385
396
401
401
389
358
309
241
160
81
14
-41
-84
-114
-134
-147
-153
-151
-148
-147
-142
-136
-133
-131
-128
-129
-133
-136
-139
-142
-143
-141
-142
-143
-140
-135
-131
-127
-121
-120
-120
-117
-111
-106
-104
-100
-93
-87
-82
-79
-78
-78
-75
-69
-63
-59
-55
-52
-49
-45
-41
-39
-39
-39
-37
-33
-30
-28
-28
-28
-26
-23
-21
-20
-18
-16
-15
-14
-14
-12
-9
-6
-6
-6
-5
-5
-4
-3
-2
-1
0
1
3
2
0
0
0
-2
-6
-5
-2
-3
-6
-7
-9
-11
-12
-15
-17
-18
-19
-21
-23
-24
-25
-27
-30
-32
-33
-34
-35
-38
-41
-43
-47
-59
-67
-58
-36
-10
10
9
-13
-39
-53
-52
-53
-59
-57
-58
-69
-61
-54
-74
-58
-41
-120
-141
20
279
828
1522
1341
169
-579
-375
-112
-135
-115
-71
-97
-87
-54
-56
-51
-32
-24
-14
-1
8
22
40
52
65
83
101
117
135
155
176
197
217
237
255
271
286
296
302
305
301
287
261
223
174
117
63
15
-26
-61
-86
-104
-115
-121
-123
-123
-120
-116
-115
-113
-112
-115
-119
-121
-123
-127
-133
-137
-139
-141
-139
-134
-130
-130
-130
-127
-124
-120
-116
-112
-109
-106
-103
-101
-98
-93
-89
-86
-81
-77
-73
-71
-69
-66
-62
-60
-59
-56
-53
-51
-48
-45
-44
-44
-45
-44
-41
-39
-38
-38
-39
-40
-38
-33
-33
-35
-34
-31
-29
-29
-28
-27
-28
-30
-31
-29
-28
-27
-26
-26
-25
-24
-25
-26
-25
-23
-23
-27
-28
-30
-39
-45
-31
-4
15
27
27
1
-29
-33
-25
-32
-39
-31
-34
-43
-29
-32
-49
-18
-29
-121
-72
174
550
1167
1535
831
-328
-626
-254
-95
-111
-50
-35
-60
-34
-19
-27
-9
9
12
24
38
45
56
74
91
104
118
134
154
174
191
209
229
248
266
285
301
312
318
320
317
304
277
235
180
116
51
-4
-48
-85
-111
-124
-133
-141
-146
-147
-146
-141
-138
-138
-138
-140
-146
-151
-153
-158
-163
-159
-156
-162
-166
-161
-158
-160
-158
-151
-147
-143
-138
-136
-134
-128
-121
-117
-115
-112
-109
-105
-99
-99
-100
-95
-88
-88
-88
-82
-74
-70
-68
-69
-71
-71
-63
-52
-48
-51
-49
-44
-44
-47
-42
-36
-41
-43
-36
-37
-48
-42
-16
15
40
38
2
-27
-22
-13
-21
-20
-14
-32
-34
-11
-25
-30
9
-47
-129
6
307
821
1583
1666
476
-650
-585
-143
-85
-86
-9
-24
-39
-3
5
8
29
34
37
54
64
