# session 8
-39
-43
-18
-109
-270
-286
-185
-131
-131
-143
-163
-162
-142
-138
-136
-124
-124
-115
-98
-113
-102
-59
-121
-193
-51
287
879
1554
1363
105
-784
-572
-177
-127
-88
-18
-38
-35
5
6
5
24
37
52
70
79
88
105
124
143
159
173
192
219
245
268
290
308
322
330
336
340
340
327
300
258
204
140
76
20
-28
-68
-96
-112
-122
-128
-131
-132
-134
-133
-133
-136
-143
-146
-147
-151
-159
-165
-168
-169
-171
-170
-167
-164
-164
-164
-162
-157
-154
-152
-148
-146
-144
-138
-133
-132
-126
-117
-115
-115
-112
-109
-106
-102
-100
-100
-98
-95
-95
-94
-98
-111
-116
-93
-56
-27
-12
-25
-60
-77
-67
-67
-78
-72
-67
-75
-64
-53
-70
-47
-30
-122
-157
2
311
966
1686
1343
-5
-737
-417
-103
-115
-75
-25
-57
-46
-12
-12
0
23
28
37
57
73
85
97
108
124
145
162
179
202
228
253
273
288
300
307
310
311
308
297
275
241
190
131
75
24
-23
-58
-79
-94
-104
-108
-108
-111
-113
-114
-118
-125
-126
-124
-129
-135
-136
-137
-140
-142
-144
-143
-139
-135
-136
-139
-135
-126
-123
-126
-127
-122
-116
-113
-110
-106
-102
-100
-98
-94
-91
-89
-86
-81
-79
-80
-80
-73
-65
-65
-69
-68
-65
-65
-64
-60
-58
-58
-56
-53
-48
-46
-48
-49
-54
-64
-67
-49
-23
3
26
23
-14
-46
-44
-37
-44
-48
-48
-56
-53
-38
-51
-51
-19
-66
-136
-51
173
641
1378
1518
514
-493
-501
-150
-91
-92
-36
-46
-51
-18
-14
-14
6
16
23
41
53
63
76
87
102
122
141
156
176
197
213
228
245
260
268
271
275
277
268
248
225
194
148
97
49
5
-35
-60
-75
-89
-96
-95
-98
-106
-110
-108
-106
-107
-111
-121
-126
-126
-129
-136
-138
-140
-143
-142
-138
-139
-139
-137
-135
-132
-131
-132
-129
-123
-119
-117
-112
-106
-102
-100
-100
-95
-87
-83
-84
-83
-83
-86
-82
-74
-73
-75
-74
-70
-69
-71
-75
-73
-66
-60
-58
-57
-58
-58
-54
-51
-53
-51
-46
-48
-58
-68
-67
-48
-21
3
22
18
-15
-43
-42
-40
-47
-42
-36
-46
-37
-22
-42
-34
-3
-79
-138
15
315
874
1589
1455
211
-685
-485
-124
-107
-80
-18
-49
-49
-9
-7
-2
22
30
35
49
61
72
84
95
112
130
144
159
181
205
228
248
265
277
284
289
290
284
273
260
239
203
155
103
53
5
-38
-70
-89
-103
-115
-122
-122
-119
-117
-119
-122
-125
-127
-129
-127
-126
-126
-124
-122
-122
-125
-128
-131
-129
-127
-131
-137
-140
-137
-132
-131
-128
-124
-123
-126
-126
-124
-122
-117
-115
-118
-116
-108
-102
-101
-101
-98
-94
-91
-91
-86
-80
-78
-79
-78
-73
-68
-68
-71
-69
-63
-59
-59
-57
-56
-56
-61
-74
-81
-65
-36
-9
12
17
-8
-41
-50
-45
-48
-49
-46
-55
-55
-39
-51
-58
-21
-55
-138
-70
152
599
1354
1622
700
-396
-507
-153
-78
-93
-33
-33
-45
-17
-11
-9
13
26
36
54
65
75
92
110
126
142
156
172
194
217
237
256
274
285
294
300
297
292
287
272
244
204
153
96
44
1
-38
-67
-85
-97
-103
-104
-104
-107
-109
-108
-108
-110
-112
-116
-121
-123
-125
-130
-137
-142
-141
-134
-134
-140
-138
-129
-125
-129
-131
-130
-125
-119
-114
-111
-109
-109
-107
-99
-93
-91
-92
-91
-86
-80
-76
-76
-75
-72
-68
-68
-68
-67
-65
-63
-61
-57
-55
-55
-54
-56
-57
-53
-47
-48
-52
-52
-47
-46
-49
-48
-44
-42
-42
-40
-36
-33
-29
-28
-33
-37
-36
-43
-49
-33
-5
17
33
31
-1
-31
-33
-30
-32
-27
-33
-52
-40
-25
-47
-33
-3
-82
-129
32
336
910
1590
1375
137
-666
-437
-114
-109
-77
-17
-41
-40
-11
-11
-1
23
30
37
50
59
71
91
108
119
131
150
171
189
207
227
248
268
279
282
286
293
292
281
266
244
207
159
108
57
7
-39
-76
-98
-105
-111
-119
-121
-119
-123
-126
-124
-125
-133
-138
-139
-144
-149
-150
-151
-155
-159
-159
-158
-158
-159
-156
-151
-144
-137
-134
-135
-133
-129
-128
-128
-125
-121
-120
-119
-117
-114
-110
-107
-106
-102
-97
-94
-89
-85
-83
-82
-81
-78
-76
-77
-76
-70
-67
-67
-67
-63
-62
-62
-60
-59
-60
-63
-67
-75
-83
-73
-46
-18
7
19
-4
-44
-55
-45
-47
-50
-43
-49
-53
-38
-44
-48
-16
-54
-137
-64
155
580
1324
1627
730
-399
-541
-169
-74
-91
-35
-35
-50
-20
-8
-6
15
29
37
50
63
75
93
112
128
142
159
181
207
226
243
263
285
302
315
321
319
313
306
292
265
222
163
100
40
-9
-44
-72
-95
-107
-111
-112
-113
-114
-112
-108
-105
-104
-104
-105
-108
-114
-119
-123
-126
-128
-127
-125
-126
-130
-130
-126
-123
-120
-118
-117
-115
-109
-106
-105
-103
-96
-92
-90
-88
-87
-86
-82
-80
-80
-79
-76
-73
-72
-74
-75
-71
-66
-65
-67
-65
-62
-62
-60
-56
-55
-56
-54
-51
-52
-52
-48
-46
-48
-51
-50
-44
-41
-39
-38
-38
-37
-33
-31
-36
-39
-38
-36
-38
-47
-50
-35
-10
10
25
25
-3
-34
-40
-36
-40
-37
-37
-50
-44
-32
-50
-37
-6
-82
-141
11
312
855
1508
1338
163
-642
-442
-118
-109
-81
-21
-42
-40
-9
-9
-3
18
29
38
49
55
68
88
102
115
131
145
161
185
213
235
252
264
275
290
303
303
295
289
278
253
216
170
119
65
11
-33
-64
-86
-105
-116
-118
-118
-118
-116
-112
-108
-113
-123
-129
-131
-134
-141
-147
-151
-152
-153
-154
-153
-152
-152
-149
-144
-146
-148
-145
-141
-140
-138
-136
-136
-135
-131
-127
-123
-121
-119
-115
-111
-106
-102
-100
-98
-97
-94
-90
-87
-87
-87
-83
-80
-81
-79
-74
-71
-71
-69
-65
-61
-59
-60
-61
-64
-73
-78
-62
-35
-10
12
18
-6
-35
-40
-37
-40
-37
-37
-49
-39
-29
-52
-39
-11
-88
-132
21
309
874
1569
1390
174
-637
-419
-94
-96
-80
-25
-43
-39
-7
-6
0
20
30
43
60
71
83
99
113
130
150
169
189
212
233
256
281
301
313
322
329
330
326
315
294
259
211
147
78
20
-26
-69
-101
-118
-126
-130
-129
-125
-123
-121
-116
-114
-116
-119
-121
-126
-130
-129
-128
-132
-137
-136
-135
-137
-135
-130
-126
-126
-126
-124
-119
-115
-113
-111
-107
-106
-104
-101
-101
-101
-95
-91
-92
-92
-87
-84
-85
-85
-83
-81
-80
-78
-73
-70
-70
-69
-67
-66
-67
-64
-60
-58
-58
-55
-54
-54
-52
-47
-45
-46
-49
-48
-47
-53
-55
-41
-19
0
20
23
-7
-39
-41
-34
-42
-45
-39
-46
-44
-34
-51
-46
-17
-75
-135
-14
250
748
1426
1406
331
-563
-467
-132
-99
-88
-30
-46
-52
-22
-15
-7
15
24
32
47
55
62
76
93
110
127
144
165
190
211
229
252
278
294
301
309
317
313
299
285
263
219
158
93
33
-18
-56
-86
-110
-124
-128
-128
-130
-133
-133
-127
-120
-117
-121
-128
-134
-138
-143
-145
-145
-147
-151
-150
-145
-141
-143
-146
-145
-140
-135
-132
-131
-129
-127
-123
-119
-116
-113
-109
-107
-104
-100
-97
-95
-92
-88
-87
-85
-82
-78
-75
-73
-71
-67
-65
-66
-69
-67
-66
-68
-67
-63
-65
-78
-89
-83
-60
-30
-5
9
-6
-41
-56
-49
-51
-57
-52
-58
-68
-49
-47
-65
-31
-37
-141
-113
121
519
1235
1725
982
-368
-754
-310
-98
-124
-54
-25
-60
-33
-4
-8
3
20
30
47
60
66
82
103
119
135
155
175
200
227
253
277
301
324
343
355
357
354
349
336
310
265
199
125
58
-1
-56
-98
-122
-136
-143
-142
-137
-135
-133
-128
-125
-125
-128
-131
-134
-137
-139
-141
-144
-149
-152
-151
-149
-149
-150
-147
-143
-142
-139
-133
-130
-130
-128
-124
-121
-119
-120
-118
-114
-111
-110
-107
-102
-99
-96
-90
-86
-87
-89
-84
-78
-77
-77
-73
-71
-71
-72
-70
-69
-68
-65
-62
-63
-66
-66
-69
-78
-74
-50
-22
-1
12
0
-34
-53
-49
-47
-51
-49
-51
-56
-41
-39
-59
-31
-15
-104
-121
45
351
971
1598
1220
-2
-618
-335
-87
-103
-65
-27
-53
-41
-15
-18
-7
15
26
38
52
64
78
95
109
127
149
171
191
213
237
259
282
304
321
333
342
345
339
324
302
265
209
139
68
8
-41
-81
-109
-125
-132
-132
-129
-128
-130
-126
-120
-117
-115
-114
-116
-120
-122
-125
-129
-135
-138
-138
-135
-134
-138
-140
-137
-134
-132
-130
-130
-131
-128
-121
-116
-115
-112
-106
-101
-98
-93
-91
-94
-93
-86
-81
-77
-73
-73
-75
-73
-70
-65
-58
-56
-59
-59
-57
-55
-52
-48
-50
-53
-50
-44
-41
-42
-44
-44
-42
-44
-45
-42
-40
-44
-45
-43
-49
-59
-52
-29
-7
15
30
11
-31
-49
-43
-43
-43
-34
-44
-58
-41
-37
-54
-23
-27
-127
-109
99
470
1206
1792
1137
-239
-714
-310
-98
-132
-68
-33
-65
-42
-16
-19
-3
17
21
33
49
58
70
85
101
120
140
155
171
193
219
247
278
302
316
328
339
342
340
333
317
281
227
160
95
35
-24
-77
-114
-132
-142
-150
-151
-147
-143
-138
-130
-129
-135
-139
-141
-146
-150
-149
-147
-150
-159
-163
-160
-159
-160
-157
-154
-153
-151
-145
-141
-138
-133
-130
-130
-128
-124
-121
-119
-116
-113
-111
-107
-104
-102
-101
-98
-94
-89
-86
-86
-80
-71
-70
-74
-74
-71
-67
-65
-63
-59
-56
-59
-60
-55
-51
-50
-49
-51
-54
-56
-64
-70
-55
-27
-3
18
21
-8
-39
-42
-37
-43
-41
-36
-47
-42
-25
-41
-39
-7
-68
-138
-29
210
715
1510
1625
521
-510
-471
-116
-86
-91
-33
-51
-57
-21
-15
-13
9
21
29
45
58
71
90
107
120
134
153
174
195
218
244
272
297
318
334
344
348
349
343
325
291
240
176
102
27
-34
-78
-109
-128
-138
-143
-143
-141
-142
-141
-135
-131
-129
-125
-124
-127
-129
-129
-135
-142
-146
-148
-149
-147
-145
-145
-144
-141
-137
-133
-129
-125
-123
-122
-122
-122
-123
-121
-113
-105
-103
-100
-95
-90
-86
-82
-83
-84
-80
-74
-74
-74
-71
-68
-67
-66
-64
-60
-55
-48
-41
-41
-42
-40
-34
-29
-26
-23
-21
-22
-23
-21
-21
-21
-20
-21
-22
-20
-20
-22
-28
-42
-48
-31
-4
19
36
30
-5
-34
-35
-30
-34
-32
-31
-36
-22
-22
-47
-23
-12
-105
-108
83
403
1072
1760
1313
-69
-721
-361
-94
-135
-86
-37
-80
-75
-44
-52
-47
-25
-17
-8
10
25
37
51
68
85
105
128
149
171
200
233
262
289
318
343
354
354
356
357
344
307
256
195
121
46
-16
-65
-104
-131
-145
-152
-153
-150
-150
-152
-152
-145
-137
-133
-137
-144
-146
-145
-149
-158
-164
-161
-157
-160
-166
-164
-158
-158
-155
-147
-143
-145
-143
-137
-134
-132
-128
-121
-116
-115
-117
-115
-108
-103
-103
-103
-98
-93
-91
-90
-88
-87
-87
-83
-73
-69
-78
-85
-73
-59
-64
-75
-75
-71
-70
-64
-60
-70
-85
-89
-79
-57
-27
0
9
-14
-48
-57
-48
-54
-60
-51
-53
-54
-40
-50
-50
-13
-62
-157
-91
116
596
1505
1921
941
-326
-507
-140
-79
-116
-57
-64
-84
-48
-36
-38
-16
0
9
29
43
53
76
98
108
121
147
175
198
222
248
277
308
333
348
354
357
357
351
333
300
247
175
102
40
-17
-69
-106
-126
-137
-141
-138
-133
-131
-128
-124
-119
-113
-109
-110
-111
-113
-117
-115
-114
-119
-126
-127
-127
-124
-122
-125
-127
-121
-115
-116
-115
-110
-108
-107
-102
-97
-94
-89
-85
-86
-86
-85
-80
-73
-72
-72
-68
-68
-72
-70
-62
-60
-64
-67
-65
-60
-54
-49
-50
-55
-57
-56
-55
-54
-51
-48
-45
-45
-47
-48
-45
-43
-43
-43
-43
-45
-41
-32
-28
-31
-35
-37
-35
-28
-26
-30
-33
-34
-41
-53
-51
-29
-3
19
34
25
-9
-32
-34
-38
-47
-45
-47
-57
-46
-36
-57
-41
-20
-100
-135
21
313
873
1497
1250
107
-586
-377
-114
-109
-74
-37
-69
-61
-26
-21
-13
-1
1
13
33
46
54
70
88
103
117
137
158
177
196
219
243
264
276
285
298
309
308
302
296
278
240
188
135
82
32
-13
-51
-73
-85
-95
-101
-103
-107
-110
-105
-101
-102
-102
-104
-110
-114
-115
-116
-118
-118
-121
-125
-124
-124
-124
-121
-116
-114
-112
-109
-107
-102
-98
-100
-99
-91
-87
-91
-94
-91
-87
-84
-79
-76
-78
-80
-77
-72
-71
-73
-75
-74
-69
-66
-67
-64
-59
-63
-68
-64
-62
-63
-61
-62
-65
-60
-55
-59
-63
-62
-62
-58
-51
-50
-59
-71
-83
-75
-45
-19
-5
3
-13
-50
-66
-58
-60
-66
-62
-67
-73
-57
-62
-76
-40
-58
-161
-117
117
509
1198
1608
840
-398
-691
-281
-113
-134
-69
-50
-77
-55
-39
-42
-25
-8
-1
13
27
40
55
69
78
91
109
130
154
181
207
229
250
272
293
303
305
307
309
305
289
255
202
137
74
17
-34
-77
-104
-119
-131
-136
-134
-134
-138
-136
-128
-121
-123
-128
-125
-119
-123
-128
-125
-125
-127
-123
-119
-122
-118
-107
-104
-101
-92
-88
-88
-80
-67
-64
-66
-65
-58
-52
-48
-47
-43
-37
-32
-24
-15
-13
-15
-12
-6
