# session 12
23
36
-1
1
137
575
1248
1338
400
-532
-550
-203
-111
-99
-46
-51
-55
-27
-24
-23
-1
13
21
36
48
60
77
93
107
124
141
152
166
188
210
226
236
244
254
263
269
268
265
260
248
221
182
138
97
58
18
-21
-49
-66
-80
-91
-96
-97
-99
-104
-108
-109
-114
-124
-129
-133
-138
-141
-142
-146
-150
-149
-146
-144
-141
-137
-131
-130
-132
-130
-124
-121
-120
-114
-109
-109
-110
-109
-107
-100
-94
-96
-98
-92
-89
-91
-88
-83
-85
-86
-81
-75
-71
-70
-72
-71
-65
-62
-62
-55
-49
-56
-62
-57
-57
-69
-70
-51
-26
3
26
12
-31
-52
-47
-53
-59
-48
-50
-63
-49
-44
-63
-35
-37
-134
-121
107
514
1172
1559
834
-383
-708
-295
-93
-107
-46
-22
-45
-16
9
5
16
33
41
53
64
73
86
102
120
140
157
169
182
201
219
235
253
269
273
274
283
289
281
274
270
248
206
166
127
80
30
-11
-39
-61
-81
-95
-100
-101
-105
-106
-108
-113
-120
-125
-131
-139
-144
-146
-149
-153
-154
-153
-150
-145
-147
-151
-148
-142
-138
-132
-128
-132
-132
-126
-124
-124
-120
-115
-111
-106
-104
-106
-105
-101
-95
-92
-94
-98
-93
-86
-85
-84
-81
-80
-84
-85
-80
-76
-75
-76
-74
-78
-92
-94
-69
-42
-25
-6
-6
-39
-64
-58
-53
-61
-59
-55
-65
-62
-57
-67
-42
-32
-113
-128
37
349
943
1503
1113
-38
-602
-329
-85
-89
-58
-29
-48
-27
-2
-7
1
21
30
42
59
72
86
101
114
129
148
167
186
206
223
238
254
271
284
287
284
283
284
276
262
241
205
153
101
57
15
-19
-43
-60
-75
-85
-93
-98
-98
-99
-103
-102
-101
-106
-114
-118
-120
-124
-125
-127
-129
-131
-129
-126
-124
-125
-127
-119
-109
-110
-116
-114
-109
-107
-104
-101
-98
-92
-90
-93
-92
-86
-84
-82
-76
-73
-75
-74
-70
-69
-68
-68
-69
-65
-63
-67
-68
-64
-62
-60
-58
-57
-58
-59
-58
-55
-53
-56
-55
-49
-47
-48
-48
-51
-59
-67
-69
-54
-31
-10
10
16
-10
-45
-51
-42
-43
-45
-49
-60
-46
-20
-43
-53
-16
-64
-139
-24
261
760
1423
1409
323
-603
-504
-139
-99
-87
-21
-39
-49
-18
-16
-15
8
22
32
48
59
69
84
98
114
129
141
158
182
198
208
224
242
253
261
269
271
267
263
257
243
216
180
140
99
57
18
-20
-51
-70
-83
-93
-96
-98
-106
-109
-106
-113
-120
-117
-121
-136
-142
-141
-144
-147
-147
-151
-151
-145
-143
-141
-137
-139
-139
-130
-125
-127
-125
-115
-107
-105
-106
-107
-104
-101
-97
-92
-88
-87
-86
-81
-75
-75
-80
-82
-76
-68
-68
-71
-68
-67
-67
-60
-53
-57
-62
-59
-53
-49
-48
-46
-43
-42
-48
-51
-55
-62
-59
-37
-8
14
18
-2
-30
-43
-45
-47
-45
-41
-52
-58
-41
-43
-50
-17
-43
-128
-68
157
549
1203
1499
716
-357
-543
-193
-79
-95
-42
-36
-51
-23
-12
-16
3
18
24
39
57
69
82
97
112
130
148
166
183
199
218
235
250
264
274
274
269
268
264
254
239
214
173
125
79
33
-6
-37
-62
-81
-90
-92
-96
-100
-101
-102
-103
-103
-105
-113
-119
-119
-124
-131
-131
-129
-130
-131
-132
-138
-143
-139
-133
-131
-127
-122
-121
-124
-122
-116
-109
-102
-103
-110
-109
-101
-97
-97
-94
-90
-89
-87
-80
-76
-75
-73
-71
-70
-69
-67
-67
-67
-64
-63
-64
-67
-67
-64
-59
-57
-58
-57
-53
-53
-55
-60
-68
-70
-56
-31
-5
11
-2
-35
-50
-41
-40
-49
-49
-54
-62
-47
-43
-63
-36
-25
-117
-120
83
451
1111
1637
1060
-219
-701
-316
-79
-109
-62
-23
-52
-36
-8
-7
7
27
33
41
54
65
80
95
107
123
147
167
177
191
216
241
255
264
277
289
294
294
292
284
268
241
202
156
108
58
8
-32
-60
-78
-91
-102
-112
-115
-113
-114
-121
-127
-129
-133
-138
-140
-142
-150
-157
-157
-156
-158
-156
-151
-150
-151
-147
-139
-137
-138
-137
-136
-136
-134
-130
-128
-124
-118
-113
-108
-105
-105
-104
-103
-100
-97
-95
-91
-84
-81
-85
-87
-81
-73
-74
-80
-80
-75
-71
-66
-65
-80
-94
-81
-52
-28
-6
2
-23
-53
-56
-50
-58
-61
-55
-63
-64
-46
-55
-60
-23
-58
-139
-64
175
636
1344
1512
555
-466
-504
-144
-78
-88
-31
-37
-48
-15
-5
-5
14
27
38
55
66
73
87
107
128
148
163
178
196
212
231
253
270
281
293
299
295
291
290
278
248
205
154
102
53
6
-36
-64
-81
-95
-105
-109
-113
-117
-115
-108
-108
-116
-122
-124
-127
-133
-136
-138
-141
-142
-140
-140
-144
-143
-138
-136
-135
-129
-124
-124
-125
-126
-125
-120
-113
-110
-109
-104
-99
-96
-93
-92
-93
-92
-89
-84
-80
-77
-77
-75
-71
-71
-73
-71
-71
-74
-73
-68
-63
-59
-59
-62
-64
-73
-80
-67
-37
-11
9
10
-19
-49
-51
-43
-47
-53
-51
-28
15
8
-69
-79
-21
-80
-167
-49
254
808
1481
1359
199
-656
-477
-119
-94
-78
-21
-41
-34
7
1
-6
19
36
44
55
67
82
97
108
129
158
176
186
209
234
236
230
246
276
292
295
298
293
278
266
250
208
149
96
50
2
-39
-68
-91
-107
-115
-127
-137
-131
-125
-136
-147
-144
-144
-156
-161
-156
-159
-163
-162
-167
-175
-168
-159
-166
-168
-157
-153
-155
-147
-142
-147
-143
-125
-121
-133
-137
-126
-114
-110
-112
-114
-108
-100
-99
-97
-91
-87
-91
-91
-85
-82
-82
-81
-88
-103
-99
-68
-38
-17
1
-5
-46
-74
-63
-55
-64
-63
-62
-67
-54
-53
-67
-38
-53
-142
-102
125
538
1235
1595
797
-385
-623
-217
-64
-92
-40
-26
-42
-15
-5
-8
17
34
35
48
67
83
99
116
130
146
166
186
202
218
242
264
278
292
306
306
297
300
300
280
251
214
158
97
47
2
-41
-67
-81
-98
-111
-113
-115
-118
-112
-108
-114
-121
-126
-130
-129
-129
-134
-137
-136
-143
-145
-136
-129
-133
-138
-136
-132
-126
-122
-122
-123
-119
-115
-112
-106
-97
-95
-96
-93
-89
-90
-91
-83
-77
-78
-77
-74
-75
-75
-73
-74
-72
-65
-61
-63
-65
-60
-55
-57
-59
-55
-51
-49
-46
-45
-49
-50
-57
-67
-56
-28
-11
4
19
3
-36
-47
-38
-43
-46
-31
-36
-51
-43
-47
-59
-25
-37
-125
-86
143
555
1200
1462
649
-436
-602
-203
-61
-83
-38
-31
-46
-15
6
4
12
22
33
50
64
76
88
99
118
141
157
168
184
200
211
225
246
266
278
280
279
278
276
274
266
235
182
129
87
47
5
-30
-58
-76
-85
-94
-105
-110
-108
-110
-112
-111
-115
-130
-144
-150
-153
-155
-155
-157
-163
-166
-163
-161
-160
-158
-155
-154
-157
-157
-151
-146
-145
-145
-140
-134
-131
-131
-130
-126
-123
-123
-122
-119
-115
-110
-105
-104
-106
-107
-103
-96
-96
-98
-94
-83
-86
-104
-108
-86
-53
-20
3
-11
-53
-74
-64
-60
-67
-64
-65
-73
-59
-51
-73
-49
-27
-116
-145
34
378
1018
1613
1162
-115
-707
-359
-76
-89
-49
-10
-37
-19
12
7
15
34
44
60
80
90
100
117
134
154
175
194
210
229
248
264
285
307
320
322
318
315
313
306
291
257
199
134
81
39
-6
-45
-67
-79
-92
-102
-104
-100
-102
-106
-108
-112
-116
-116
-116
-122
-124
-121
-127
-137
-134
-130
-137
-141
-136
-133
-134
-133
-129
-128
-126
-121
-118
-119
-120
-114
-107
-104
-105
-105
-102
-96
-90
-89
-90
-86
-83
-85
-86
-82
-79
-78
-75
-72
-76
-80
-72
-63
-67
-75
-73
-66
-62
-61
-60
-59
-60
-63
-62
-56
-56
-71
-80
-61
-34
-13
6
7
-22
-52
-54
-48
-50
-51
-51
-58
-50
-32
-48
-56
-22
-55
-126
-49
187
638
1307
1440
508
-465
-494
-144
-73
-79
-26
-33
-42
-11
-4
-1
21
34
39
52
65
78
96
114
127
141
154
166
181
201
221
236
252
269
280
280
277
275
273
269
250
213
169
124
78
35
-3
-33
-53
-68
-84
-95
-100
-103
-100
-96
-101
-112
-117
-120
-127
-133
-136
-141
-146
-145
-141
-142
-147
-150
-145
-137
-136
-140
-139
-133
-128
-126
-126
-124
-121
-119
-116
-108
-103
-107
-109
-103
-95
-94
-93
-86
-79
-79
-81
-76
-70
-70
-69
-67
-68
-70
-68
-65
-64
-62
-58
-58
-62
-59
-56
-58
-61
-67
-73
-63
-36
-14
4
15
-1
-36
-51
-45
-45
-46
-39
-45
-54
-42
-48
-54
-15
-42
-140
-83
166
611
1314
1567
637
-520
-640
-208
-82
-97
-34
-30
-45
-14
-8
-10
16
32
37
55
72
79
90
103
119
138
156
171
187
207
229
253
272
282
287
293
297
296
288
278
262
232
182
127
80
29
-25
-64
-85
-103
-117
-119
-120
-125
-124
-117
-118
-127
-132
-132
-134
-144
-154
-159
-158
-156
-155
-155
-155
-154
-151
-150
-151
-148
-142
-141
-143
-142
-138
-133
-125
-120
-120
-118
-113
-114
-118
-114
-106
-100
-98
-96
-91
-85
-80
-82
-87
-85
-78
-76
-84
-87
-85
-94
-100
-79
-44
-19
-6
-18
-50
-64
-56
-59
-66
-58
-57
-68
-54
-47
-75
-56
-34
-117
-150
11
331
961
1597
1229
-12
-655
-361
-83
-91
-59
-24
-50
-36
-8
-10
3
25
31
41
58
71
88
107
118
132
155
176
192
211
231
247
267
291
305
308
310
311
305
295
278
242
186
124
66
15
-28
-62
-91
-108
-113
-113
-116
-118
-117
-115
-116
-116
-112
-111
-119
-128
-131
-132
-133
-134
-136
-138
-137
-132
-130
-132
-130
-124
-122
-124
-119
-111
-110
-115
-114
-108
-103
-101
-101
-100
-96
-90
-86
-85
-87
-86
-79
-79
-85
-83
-77
-76
-78
-78
-80
-80
-72
-58
-51
-58
-62
-55
-56
-65
-72
-75
-67
-42
-18
-1
14
3
-40
-69
-60
-49
-57
-68
-87
-106
-87
-53
-44
-17
-28
-137
-147
49
409
1083
1656
1112
-189
-707
-329
-87
-123
-77
-33
-58
-41
-12
-11
-3
8
8
22
56
68
41
35
96
165
184
187
203
224
252
283
295
300
319
338
337
331
334
325
301
276
237
175
109
51
-2
-36
-59
-90
-110
-113
-119
-126
-120
-124
-140
-145
-136
-138
-153
-166
-172
-167
-163
-169
-174
-171
-172
-176
-171
-164
-165
-167
-166
-164
-160
-149
-134
-131
-137
-131
-115
-109
-111
-108
-103
-96
-87
-95
-111
-101
-76
-67
-79
-90
-86
-69
-59
-63
-62
-53
-49
-49
-51
-59
-73
-76
-66
-60
-74
-91
-82
-54
-31
-7
11
-9
-49
-57
-46
-48
-55
-61
-73
-65
-45
-58
-61
-27
-70
-150
-77
141
579
1299
1528
633
-392
-479
-139
-57
-62
-20
-28
-28
-4
-13
-9
23
41
46
51
64
85
96
100
119
137
143
167
203
214
214
238
273
288
284
287
301
301
289
277
253
207
158
106
45
-1
-28
-62
-94
-94
-87
-98
-110
-109
-103
-97
-92
-93
-97
-96
-99
-107
-111
-116
-125
-131
-133
-135
-132
-128
-123
-102
-79
-86
-102
-101
-104
-123
-128
-114
-105
-106
-109
-107
-100
-93
-90
-88
-87
-86
-81
-73
-73
-75
-69
-61
-62
-62
-53
-46
-44
-43
-40
-38
-39
-43
-38
-28
-30
-32
-9
-2
-42
-74
-56
-31
-26
-23
-22
-30
-32
-27
-30
-38
-43
-49
-44
-24
-15
-27
-37
-34
-27
-25
-39
-52
-38
-9
12
31
33
-4
-38
-32
-19
-29
-42
-43
-41
-31
-29
-53
-40
2
-61
-138
-13
284
796
1428
1341
242
-622
-484
-133
-99
-77
-7
-21
-25
4
1
5
29
34
40
61
71
79
100
111
111
126
144
148
164
198
216
229
266
289
269
259
280
279
252
247
255
229
177
133
97
47
-5
-44
-73
-98
-116
-132
-148
-144
-127
-130
-148
-145
-139
-158
-174
-168
-170
-181
-182
-179
-182
-182
-181
-184
-185
-178
-167
-157
-155
-157
-155
-145
-132
-130
-141
-145
-134
-131
-136
-128
-118
-123
-120
-105
-103
-107
-99
-95
-101
-100
-89
-75
-71
-76
-73
-62
-68
-85
-85
-75
-67
-65
-78
-82
-51
-18
-7
6
7
-31
-64
-56
-47
-49
-32
-29
-58
-62
-43
-54
-40
-19
-89
-116
58
374
917
1471
1157
9
-638
-371
-79
-85
-58
0
-12
-10
15
20
29
44
46
51
73
98
114
121
133
154
177
196
215
234
248
263
284
309
330
336
335
337
337
327
310
278
218
150
91
30
-29
-67
-84
-98
-114
-123
-119
-109
-104
-105
-101
-92
-94
-110
-116
-110
-116
-130
-136
-141
-145
-137
-130
-133
-132
-122
-114
-103
-95
-108
-118
-105
-93
-100
-107
-108
-108
-107
-107
-102
-95
-97
-99
-88
-76
-78
-90
-93
-85
-85
-91
-86
-81
-89
-93
-85
-80
-72
-71
-94
-107
-99
-104
-103
-65
-37
-36
-32
-45
-88
-104
-87
-89
-100
-96
-108
-123
-104
-94
-94
-76
-128
-201
-94
187
692
1396
1454
357
-680
-627
-213
-146
-137
-51
-59
-83
-44
-24
-32
-25
-1
30
37
19
22
52
71
90
125
143
142
156
184
217
260
289
288
290
313
328
324
322
320
298
256
193
118
53
-4
-62
-104
-119
-133
-157
-166
-152
-136
-131
-128
-127
-129
-124
-117
-127
-148
-158
-154
-149
-145
-134
-113
-94
-84
-80
-83
-85
-76
-64
-58
-57
-58
-54
-46
-47
-47
-25
