# session 1
-39
-35
-62
53
260
312
242
217
216
192
171
150
128
117
92
73
74
26
-6
98
145
-80
-354
-389
-300
-321
-390
-226
169
384
231
36
30
72
65
68
88
99
122
155
172
188
222
258
291
339
397
450
503
563
627
699
768
805
805
786
747
674
571
451
313
168
36
-71
-158
-234
-299
-343
-360
-358
-352
-349
-351
-351
-343
-329
-319
-316
-314
-313
-313
-304
-292
-291
-295
-293
-299
-317
-320
-301
-288
-292
-294
-284
-271
-257
-244
-238
-239
-240
-237
-234
-228
-218
-217
-224
-215
-197
-192
-177
-162
-175
-157
-122
-194
-256
-126
175
805
1593
1463
186
-748
-584
-219
-166
-137
-102
-144
-136
-76
-46
-25
2
20
41
65
82
97
115
132
149
165
185
212
235
248
259
278
289
283
273
270
262
235
196
156
118
78
42
22
14
11
11
12
11
15
19
16
13
15
8
-8
-14
-7
-10
-26
-39
-43
-47
-50
-47
-39
-35
-38
-38
-34
-32
-31
-31
-31
-27
-18
-15
-16
-13
-4
-1
-5
-3
7
14
12
10
14
11
3
2
6
6
8
11
8
2
3
3
-1
1
8
6
-2
0
6
3
-1
5
11
8
4
3
3
3
3
6
4
-6
-11
-8
-9
-10
0
12
10
-2
-9
-12
-17
-27
-37
-44
-43
-32
-18
-12
-9
-8
-18
-30
-31
-29
-30
-32
-42
-58
-70
-75
-77
-70
-64
-67
-72
-76
-79
-77
-78
-89
-97
-87
-72
-71
-81
-81
-66
-59
-66
-65
-62
-68
-76
-83
-87
-86
-84
-76
-58
-76
-97
-51
-59
-167
-123
113
495
1255
1830
1101
-306
-745
-338
-156
-195
-138
-131
-163
-110
-61
-56
-35
-15
-13
-6
6
16
22
23
28
40
57
82
109
126
136
137
123
110
112
108
87
72
65
55
45
44
34
2
-32
-43
-35
-37
-58
-72
-68
-66
-65
-63
-81
-91
-71
-97
-125
-10
49
-277
-748
-867
-703
-629
-572
-233
176
183
-114
-249
-161
-70
-14
40
58
62
94
131
152
175
205
248
303
350
393
449
512
569
624
680
731
767
771
735
675
593
483
356
226
104
1
-81
-150
-208
-248
-273
-291
-297
-294
-286
-280
-276
-267
-251
-234
-222
-215
-209
-201
-191
-187
-192
-193
-184
-182
-181
-167
-156
-163
-168
-155
-142
-139
-145
-146
-137
-130
-130
-127
-120
-120
-118
-109
-100
-92
-82
-81
-89
-87
-75
-70
-74
-78
-70
-51
-38
-39
-47
-57
-66
-66
-61
-62
-68
-61
-60
-74
-64
-48
-65
-52
-25
-104
-149
10
311
895
1623
1470
240
-626
-460
-150
-144
-131
-98
-133
-123
-69
-47
-24
8
16
18
35
53
64
72
80
89
107
134
156
170
182
199
216
223
219
215
208
192
173
150
119
88
62
29
-10
-36
-44
-52
-64
-67
-61
-62
-66
-67
-83
-88
-73
-113
-150
-25
52
-283
-803
-973
-804
-675
-583
-284
75
122
-84
-188
-124
-46
3
37
46
63
109
145
163
187
220
259
306
357
403
452
506
574
655
728
769
794
811
789
709
597
474
333
182
42
-74
-170
-256
-322
-360
-379
-391
-390
-377
-373
-377
-367
-343
-327
-326
-322
-308
-295
-291
-283
-269
-262
-258
-246
-237
-243
-249
-241
-217
-187
-181
-199
-208
-193
-180
-182
-182
-169
-159
-155
-150
-151
-145
-122
-121
-116
-73
-117
-226
-153
110
596
1426
1784
770
-571
-777
-328
-182
-190
-131
-153
-175
-109
-69
-65
-32
0
10
24
49
69
81
94
120
151
176
201
232
259
274
278
281
289
295
288
280
280
259
217
175
135
91
60
41
24
18
24
22
17
20
18
10
10
8
-8
-23
-29
-40
-54
-56
-52
-59
-73
-72
-58
-57
-71
-75
-70
-65
-59
-56
-56
-51
-48
-53
-53
-42
-36
-43
-47
-43
-40
-36
-26
-17
-13
-13
-24
-39
-38
-25
-24
-31
-29
-20
-23
-28
-18
-11
-16
-21
-20
-21
-23
-22
-18
-15
-19
-30
-28
-10
2
-3
-21
-39
-47
-41
-27
-18
-18
-14
-7
-10
-17
-16
-12
-17
-27
-35
-36
-32
-36
-44
-46
-46
-52
-48
-30
-23
-29
-32
-28
-27
-31
-35
-38
-40
-41
-37
-29
-25
-30
-37
-36
-27
-13
-6
-19
-43
-50
-47
-49
-48
-48
-54
-48
-50
-68
-36
-23
-116
-120
70
378
1000
1658
1284
5
-657
-375
-124
-149
-122
-102
-135
-106
-65
-54
-18
17
15
22
43
40
25
23
24
22
30
49
67
85
102
109
106
98
92
87
86
80
60
40
38
40
30
14
-8
-36
-53
-50
-45
-52
-53
-42
-54
-80
-64
-64
-121
-51
126
-42
-638
-1075
-1042
-883
-776
-463
-23
62
-225
-406
-339
-225
-111
18
86
102
134
169
190
223
271
315
354
396
443
498
559
618
668
724
787
826
820
779
712
617
498
369
245
137
36
-60
-135
-189
-239
-285
-309
-317
-322
-330
-331
-319
-308
-306
-300
-285
-275
-270
-261
-261
-270
-264
-248
-245
-247
-237
-226
-220
-208
-197
-202
-213
-208
-182
-152
-140
-153
-173
-173
-161
-158
-157
-145
-139
-139
-126
-120
-130
-121
-117
-130
-95
-87
-184
-173
42
412
1152
1853
1354
-69
-746
-412
-132
-143
-112
-93
-121
-87
-42
-30
-3
30
48
65
81
94
110
119
125
146
172
188
206
230
245
252
265
273
263
251
252
244
215
180
147
109
66
28
3
-9
-15
-22
-26
-26
-29
-34
-37
-37
-39
-47
-58
-66
-76
-88
-97
-102
-105
-109
-111
-108
-100
-97
-98
-98
-96
-92
-87
-87
-91
-90
-83
-76
-71
-66
-60
-56
-46
-31
-26
-32
-33
-26
-20
-17
-18
-21
-16
-6
-1
-3
-9
-13
-11
-2
5
5
0
3
14
16
5
3
12
11
0
-7
-3
3
4
2
0
0
-1
-1
0
-1
-4
-6
-5
-3
-5
-13
-20
-18
-13
-13
-14
-18
-26
-32
-36
-34
-30
-31
-33
-29
-33
-44
-46
-39
-36
-36
-35
-33
-30
-35
-47
-56
-63
-64
-56
-60
-66
-50
-57
-77
-46
-78
-184
-113
140
564
1388
1925
1067
-367
-727
-301
-153
-195
-131
-127
-163
-124
-88
-79
-53
-36
-32
-22
-17
-14
-3
5
7
15
32
57
87
107
109
104
105
103
90
71
56
40
27
21
14
5
-1
-12
-39
-64
-71
-75
-82
-80
-80
-95
-100
-94
-109
-120
-114
-152
-157
-20
9
-308
-657
-701
-639
-711
-687
-325
73
76
-182
-279
-168
-46
23
61
73
88
116
139
166
202
235
274
332
383
422
475
544
610
675
747
803
827
825
798
732
625
493
350
211
87
-26
-125
-200
-256
-298
-315
-311
-309
-316
-323
-322
-318
-314
-303
-282
-261
-244
-232
-226
-225
-223
-217
-216
-227
-234
-222
-205
-201
-198
-185
-184
-202
-210
-198
-183
-162
-126
-102
-115
-143
-154
-154
-153
-148
-141
-143
-141
-131
-136
-141
-116
-112
-135
-104
-94
-186
-170
49
416
1127
1775
1260
-107
-732
-410
-155
-160
-117
-99
-136
-105
-55
-43
-22
9
28
51
76
87
97
122
146
157
170
194
220
241
261
278
285
282
276
269
256
241
216
177
130
88
53
22
0
-11
-18
-23
-20
-10
-9
-20
-24
-19
-17
-24
-36
-46
-54
-61
-65
-72
-87
-95
-89
-86
-90
-86
-76
-75
-77
-75
-73
-73
-70
-64
-61
-62
-60
-54
-48
-43
-37
-34
-34
-35
-38
-38
-35
-36
-34
-29
-24
-22
-21
-18
-16
-16
-18
-16
-12
-11
-15
-17
-8
2
-5
-20
-22
-13
-6
-7
-13
-15
-11
-8
-12
-11
-3
-3
-11
-15
-15
-14
-14
-15
-12
-10
-17
-23
-21
-16
-15
-21
-26
-27
-31
-37
-37
-34
-35
-37
-39
-37
-32
-30
-38
-47
-41
-26
-28
-48
-58
-61
-67
-61
-58
-74
-70
-59
-84
-70
-41
-133
-176
12
323
950
1798
1657
244
-745
-524
-175
-200
-174
-104
-145
-147
-92
-78
-71
-48
-38
-36
-30
-20
-3
15
24
31
49
77
96
104
114
124
118
105
100
95
80
62
49
36
22
6
-8
-24
-43
-58
-67
-76
-87
-88
-83
-89
-95
-90
-96
-105
-79
-87
-150
-93
57
-50
-423
-636
-578
-576
-687
-558
-122
149
-9
-240
-221
-86
-5
38
66
76
96
127
154
181
215
256
301
343
383
434
492
547
604
674
741
785
797
766
694
593
475
346
213
81
-40
-143
-231
-301
-344
-363
-374
-381
-380
-368
-359
-356
-347
-327
-310
-301
-291
-276
-262
-250
-245
-243
-244
-245
-240
-219
-190
-161
-139
-140
-168
-192
-191
-180
-176
-169
-160
-159
-158
-147
-147
-149
-130
-127
-138
-98
-98
-198
-178
34
421
1198
1856
1247
-183
-768
-403
-152
-163
-114
-90
-116
-85
-48
-39
-14
10
20
39
66
85
105
129
155
182
206
224
244
265
280
292
306
313
304
292
285
263
214
159
113
65
15
-21
-41
-56
-66
-64
-60
-60
-60
-56
-56
-58
-58
-57
-61
-70
-81
-89
-97
-104
-103
-99
-100
-102
-97
-94
-94
-88
-78
-77
-79
-73
-66
-66
-63
-56
-56
-61
-58
-48
-42
-40
-35
-26
-24
-28
-27
-21
-16
-14
-14
-10
-2
4
5
4
1
-7
-14
-17
-18
-21
-20
-17
-17
-22
-28
-30
-31
-32
-32
-30
-30
-32
-36
-38
-33
-27
-33
-43
-44
-48
-60
-60
-36
-12
7
26
21
-11
-36
-41
-43
-52
-55
-53
-60
-61
-44
-52
-67
-26
-42
-154
-117
129
545
1298
1824
1098
-264
-701
-321
-143
-183
-134
-123
-157
-125
-91
-90
-68
-40
-28
-13
3
11
20
24
21
28
47
66
87
116
137
147
152
149
137
124
108
85
57
31
10
-15
-45
-73
-86
-91
-99
-111
-111
-102
-106
-113
-105
-110
-121
-114
-142
-171
-57
51
-183
-618
-790
-689
-639
-601
-306
65
89
-161
-275
-189
-89
-22
29
44
50
80
111
135
169
211
256
302
345
384
434
494
552
608
662
716
754
758
721
654
561
448
325
203
83
-26
-115
-185
-237
-270
-293
-311
-321
-317
-309
-306
-301
-290
-282
-283
-284
-278
-258
-232
-208
-183
-175
-204
-242
-248
-239
-239
-240
-237
-234
-225
-218
-215
-205
-201
-200
-178
-171
-190
-160
-149
-244
-241
-25
359
1101
1792
1290
-134
-820
-489
-200
-197
-153
-125
-155
-128
-84
-70
-42
-12
2
24
47
64
84
107
125
149
182
205
221
248
279
292
293
297
299
292
279
255
212
156
100
53
11
-22
-41
-48
-50
-50
-43
-38
-37
-35
-31
-31
-35
-37
-41
-49
-56
-61
-68
-76
-79
-78
-79
-83
-83
-79
-73
-70
-69
-68
-66
-63
-62
-62
-59
-54
-50
-48
-46
-40
-33
-29
-27
-23
-20
-18
-17
-15
-13
-10
-11
-13
-9
-1
2
1
-2
-6
-10
-8
-3
-1
-2
-4
-6
-8
-7
-5
-4
-5
-5
1
3
-1
-4
-3
-5
-10
-7
-1
-3
-8
-8
-6
-6
-8
-11
-14
-13
-9
-7
-6
-2
-4
-12
-12
-6
-9
-19
-18
-13
-18
-25
-25
-26
-35
-43
-41
-30
-19
-25
-50
-62
-58
-61
-61
-55
-69
-76
-59
-71
-76
-41
-104
-198
-80
194
730
1652
1923
714
-605
-662
-234
-187
-202
-127
-154
-174
-118
-91
-73
-35
-24
-27
-14
-1
2
7
18
32
46
58
79
105
119
122
126
128
119
104
96
91
79
64
48
32
20
4
-20
-42
-57
-72
-87
-91
-89
-96
-104
-100
-103
-127
-125
-121
-172
-153
-8
-30
-328
-533
-473
-467
-638
-607
-193
141
1
-307
-365
-238
-132
-63
-17
-2
17
53
84
115
153
191
227
266
316
373
425
478
542
607
664
715
744
735
689
606
495
374
249
117
-2
-95
-176
-248
-299
-330
-351
-357
-353
-354
-351
-337
-324
-321
-313
-299
-292
-285
-272
-266
-272
-272
-255
-223
-194
-195
-221
-233
-224
-219
-217
-205
-192
-190
-187
-175
-178
-175
-148
-151
-164
-117
-130
-235
-186
51
527
1484
2124
1227
-336
-775
-337
-155
-184
-117
-108
-138
-92
-49
-33
-2
25
44
74
98
113
132
154
176
200
225
253
282
307
329
352
365
368
368
359
334
300
255
192
132
84
35
-14
-40
-45
-49
-52
-47
-44
-42
-38
-32
-32
-36
-40
-45
-54
-65
-75
-83
-90
-95
-99
-103
-109
-113
-107
-103
-109
-113
-107
-103
-102
-101
-99
-97
-92
-86
-77
-65
-59
-56
-50
-45
-45
-46
-45
-43
-42
-45
-45
-36
-29
-32
-33
-27
-22
-19
-16
-9
0
7
9
10
9
9
10
7
-2
-8
-11
-14
-20
-24
-24
-27
-35
-42
-41
-46
-55
-56
-58
-65
-70
-70
-74
-87
-102
-104
-89
-68
-47
-34
-43
-70
-94
-102
-105
-115
-122
-120
-125
-133
-125
-138
-150
-113
-136
-237
-194
14
405
1195
1753
1035
-277
-672
-319
-174
-221
-192
-207
-248
-218
-183
-167
-131
-97
-75
-45
-15
10
32
46
54
71
93
112
135
162
178
181
185
189
189
191
197
196
181
160
134
109
90
70
46
30
24
22
22
17
4
-5
-4
-4
-5
0
9
11
9
7
3
-4
-15
-29
-41
-47
-48
-48
-46
-41
-42
-44
-38
-23
-11
0
11
22
27
26
24
26
24
23
32
44
56
68
77
75
71
74
78
80
84
86
80
71
68
68
62
46
29
23
21
13
2
-6
-13
-23
-37
-55
-70
-82
-97
-114
-127
-139
-149
-154
-152
-143
-127
-116
-113
-118
-127
-124
-99
-71
-47
-21
-20
-52
-70
-59
-50
-54
-56
-52
-47
-37
-28
-24
