# session 18
26
35
21
23
82
152
177
180
194
210
221
237
254
269
285
300
315
331
344
352
357
361
364
365
361
341
303
254
206
157
104
53
11
-22
-46
-61
-71
-79
-85
-87
-89
-93
-97
-98
-100
-110
-118
-120
-124
-129
-129
-129
-133
-134
-130
-128
-131
-133
-129
-123
-120
-122
-122
-119
-115
-114
-112
-107
-103
-103
-104
-104
-102
-97
-92
-91
-90
-90
-88
-84
-83
-85
-87
-94
-104
-96
-71
-43
-15
1
-22
-62
-73
-67
-76
-81
-72
-75
-77
-64
-74
-78
-40
-73
-164
-104
144
637
1371
1546
568
-503
-567
-183
-86
-91
-38
-45
-56
-23
-15
-13
9
23
29
45
59
71
89
107
121
138
157
174
191
207
220
237
256
269
275
280
283
285
284
273
249
211
161
106
53
5
-40
-76
-100
-114
-126
-136
-141
-142
-145
-148
-148
-149
-151
-154
-157
-162
-166
-168
-170
-169
-167
-164
-163
-161
-158
-155
-150
-145
-144
-143
-140
-138
-136
-131
-126
-125
-122
-117
-116
-114
-107
-102
-99
-94
-89
-88
-86
-83
-79
-79
-81
-82
-85
-94
-92
-68
-39
-13
8
-3
-44
-63
-51
-51
-59
-54
-56
-63
-48
-48
-64
-32
-34
-127
-113
109
539
1234
1609
858
-339
-645
-252
-62
-76
-28
-14
-36
-12
8
7
22
38
46
64
83
94
103
116
133
150
166
183
202
219
234
249
262
274
284
289
292
295
292
282
266
234
185
130
75
23
-20
-54
-84
-105
-115
-121
-130
-137
-136
-136
-141
-147
-151
-155
-159
-162
-163
-163
-168
-176
-178
-171
-165
-165
-165
-163
-161
-159
-152
-145
-147
-149
-142
-132
-132
-136
-133
-125
-120
-118
-117
-116
-113
-109
-107
-108
-104
-99
-94
-92
-96
-111
-124
-114
-83
-49
-17
-7
-37
-73
-75
-70
-80
-76
-66
-75
-71
-60
-82
-71
-37
-112
-166
-2
336
980
1734
1481
82
-813
-518
-119
-111
-81
-15
-44
-37
6
5
7
27
37
51
71
80
94
115
130
140
156
175
195
215
231
246
266
287
301
307
312
316
316
313
301
272
224
168
109
48
-7
-50
-83
-110
-128
-137
-144
-146
-146
-148
-151
-153
-155
-156
-157
-162
-168
-171
-172
-174
-174
-173
-172
-171
-170
-169
-164
-156
-153
-153
-151
-148
-147
-147
-144
-138
-136
-133
-127
-124
-123
-121
-117
-113
-108
-107
-111
-120
-129
-131
-113
-77
-36
-12
-24
-58
-76
-73
-73
-78
-73
-77
-85
-71
-71
-86
-54
-55
-149
-150
33
429
1206
1786
1138
-184
-645
-277
-76
-111
-70
-46
-67
-39
-15
-20
-6
16
26
41
60
75
90
105
123
147
166
180
199
222
238
251
270
288
297
302
306
304
298
289
264
216
157
100
48
1
-38
-66
-88
-106
-117
-118
-119
-125
-127
-125
-124
-128
-135
-139
-138
-139
-145
-149
-148
-148
-147
-147
-146
-145
-143
-138
-134
-134
-133
-131
-128
-124
-121
-120
-117
-112
-109
-108
-107
-102
-96
-94
-93
-87
-82
-84
-85
-81
-79
-81
-82
-79
-77
-76
-72
-68
-69
-70
-77
-91
-90
-66
-37
-13
5
-8
-43
-60
-54
-60
-68
-56
-49
-59
-51
-45
-64
-43
-23
-100
-135
8
325
966
1609
1264
55
-593
-332
-72
-84
-59
-25
-48
-34
-7
-11
-1
19
26
37
55
71
86
99
113
132
151
165
177
191
207
224
238
252
264
271
272
273
273
269
257
233
193
148
103
58
14
-25
-53
-73
-89
-102
-111
-114
-115
-119
-129
-135
-133
-135
-141
-145
-150
-157
-157
-156
-158
-158
-153
-150
-154
-156
-152
-146
-143
-140
-138
-136
-133
-128
-126
-124
-119
-116
-114
-111
-108
-106
-103
-99
-95
-96
-96
-90
-82
-81
-84
-82
-76
-74
-75
-74
-71
-68
-67
-67
-72
-82
-88
-77
-53
-23
7
8
-25
-51
-48
-46
-54
-49
-42
-56
-57
-39
-52
-51
-7
-60
-154
-49
244
781
1552
1632
463
-645
-588
-148
-80
-85
-13
-22
-34
0
5
7
31
45
49
63
78
91
105
118
134
151
167
181
194
210
231
251
264
273
276
276
277
277
272
265
249
217
168
115
66
23
-20
-58
-87
-109
-126
-135
-139
-141
-142
-147
-153
-157
-160
-165
-169
-173
-180
-182
-177
-177
-182
-183
-178
-176
-176
-175
-171
-167
-165
-162
-156
-153
-156
-156
-145
-136
-136
-138
-135
-131
-128
-127
-123
-116
-108
-105
-106
-105
-102
-104
-116
-126
-119
-96
-60
-22
-9
-37
-71
-75
-66
-70
-71
-68
-78
-74
-55
-69
-71
-30
-77
-162
-70
192
746
1605
1752
559
-607
-572
-131
-69
-83
-17
-26
-36
-1
4
5
28
44
56
73
87
100
116
130
146
165
182
199
219
239
257
272
286
300
311
314
316
321
318
300
266
214
150
90
36
-14
-57
-86
-104
-121
-133
-138
-139
-143
-145
-142
-138
-139
-145
-150
-152
-155
-159
-162
-164
-163
-162
-162
-162
-157
-153
-151
-150
-144
-138
-134
-132
-131
-129
-128
-125
-121
-118
-117
-114
-110
-107
-103
-99
-98
-98
-94
-88
-83
-80
-78
-78
-78
-76
-72
-69
-68
-68
-69
-75
-84
-91
-84
-63
-37
-5
13
-8
-47
-57
-46
-49
-55
-50
-54
-56
-43
-51
-60
-24
-49
-144
-105
102
543
1344
1756
915
-295
-533
-166
-62
-100
-51
-44
-60
-30
-19
-25
-4
17
25
38
55
68
82
97
113
132
151
168
183
196
210
227
242
251
260
270
273
268
263
259
245
213
167
117
69
23
-18
-51
-74
-93
-110
-121
-126
-130
-133
-134
-137
-141
-148
-153
-158
-164
-168
-168
-166
-167
-169
-169
-167
-164
-164
-166
-164
-158
-155
-153
-149
-144
-140
-137
-135
-131
-128
-125
-121
-115
-111
-109
-109
-109
-103
-94
-92
-98
-107
-118
-121
-106
-75
-41
-12
-12
-46
-75
-76
-74
-78
-70
-70
-81
-69
-64
-83
-58
-46
-131
-150
18
388
1112
1718
1198
-78
-619
-291
-61
-88
-60
-37
-60
-38
-13
-16
-2
22
35
50
68
80
89
98
114
139
161
178
198
215
228
242
258
271
280
287
284
273
265
258
235
190
137
87
41
-1
-39
-70
-94
-110
-122
-132
-139
-141
-141
-142
-143
-142
-148
-160
-167
-164
-161
-164
-166
-165
-162
-159
-161
-163
-158
-151
-148
-149
-150
-150
-147
-140
-136
-135
-132
-129
-128
-126
-122
-115
-117
-132
-140
-122
-91
-63
-35
-26
-55
-87
-86
-81
-93
-92
-86
-92
-84
-74
-91
-77
-53
-122
-171
-36
302
938
1542
1189
-4
-657
-394
-100
-86
-59
-25
-44
-30
-4
-6
5
28
40
53
71
83
98
116
132
147
165
182
197
210
226
243
257
266
275
285
289
285
279
269
246
206
154
104
57
9
-35
-67
-87
-99
-110
-121
-125
-125
-129
-132
-134
-139
-146
-148
-152
-159
-161
-157
-160
-165
-163
-157
-155
-158
-156
-150
-145
-142
-139
-138
-138
-135
-129
-124
-123
-122
-120
-115
-111
-109
-109
-108
-113
-130
-130
-98
-61
-38
-24
-33
-66
-85
-80
-82
-84
-77
-82
-88
-74
-81
-94
-53
-58
-152
-131
113
594
1291
1528
643
-498
-680
-263
-88
-86
-34
-25
-39
-12
2
5
27
42
42
54
74
93
111
124
136
151
169
184
197
214
229
242
255
260
260
268
277
274
270
267
244
198
152
107
57
9
-28
-57
-81
-98
-108
-115
-121
-127
-130
-130
-134
-141
-144
-147
-152
-159
-163
-162
-159
-160
-163
-161
-156
-152
-148
-145
-146
-145
-140
-137
-136
-134
-130
-127
-123
-118
-115
-115
-114
-110
-108
-110
-107
-98
-91
-91
-100
-115
-118
-96
-66
-37
-11
-16
-56
-82
-76
-74
-80
-75
-75
-79
-63
-65
-80
-47
-53
-150
-145
45
446
1194
1686
980
-273
-633
-250
-68
-93
-45
-30
-50
-20
0
-7
10
31
38
50
68
85
100
112
127
144
159
175
191
206
221
238
249
255
261
266
265
261
262
256
232
196
160
121
77
34
-5
-37
-61
-77
-92
-105
-110
-112
-118
-125
-126
-125
-130
-136
-142
-148
-154
-157
-159
-159
-159
-160
-159
-157
-158
-158
-153
-148
-147
-144
-141
-141
-142
-138
-132
-129
-127
-124
-122
-120
-114
-106
-103
-104
-101
-94
-92
-93
-92
-92
-95
-95
-99
-113
-111
-85
-53
-22
3
-13
-60
-77
-66
-69
-72
-62
-65
-70
-57
-64
-66
-27
-56
-144
-94
128
593
1344
1597
684
-405
-519
-153
-58
-72
-22
-23
-35
-7
0
2
24
39
46
61
78
92
107
121
137
155
171
183
197
214
227
236
246
254
259
260
259
254
247
234
210
179
147
110
67
27
-8
-37
-59
-77
-91
-99
-104
-113
-122
-123
-121
-125
-133
-139
-146
-150
-153
-159
-163
-162
-163
-163
-157
-148
-144
-144
-146
-145
-140
-138
-140
-138
-131
-127
-124
-122
-122
-121
-114
-109
-109
-108
-103
-99
-97
-95
-92
-87
-81
-80
-78
-74
-73
-75
-82
-95
-96
-73
-45
-20
5
3
-36
-64
-56
-51
-57
-55
-61
-67
-51
-55
-71
-37
-47
-144
-117
121
583
1316
1652
793
-433
-675
-253
-79
-86
-24
-16
-42
-12
8
4
21
40
49
64
79
89
105
121
133
148
166
177
187
203
221
232
236
242
248
250
248
245
244
242
226
192
153
113
71
29
-8
-41
-67
-84
-99
-113
-120
-121
-126
-130
-131
-136
-145
-150
-153
-160
-160
-158
-163
-171
-170
-165
-162
-162
-164
-161
-152
-148
-148
-141
-133
-136
-139
-134
-129
-128
-125
-119
-116
-115
-111
-107
-104
-99
-93
-92
-92
-90
-85
-81
-81
-84
-92
-105
-110
-90
-57
-22
5
-7
-47
-64
-59
-63
-66
-60
-68
-69
-47
-56
-63
-23
-58
-155
-97
143
646
1453
1704
692
-471
-559
-155
-66
-86
-27
-28
-42
-9
2
2
23
38
47
66
81
91
106
125
143
155
167
185
204
217
229
241
252
262
267
263
261
262
259
247
220
177
129
85
41
-1
-35
-58
-80
-99
-109
-114
-118
-121
-121
-124
-130
-135
-140
-148
-152
-153
-154
-158
-161
-161
-160
-160
-162
-159
-154
-153
-152
-149
-148
-144
-137
-134
-133
-130
-128
-127
-123
-117
-115
-113
-109
-106
-102
-97
-94
-93
-92
-92
-90
-83
-81
-82
-79
-73
-74
-82
-93
-101
-88
-59
-29
-2
6
-23
-58
-58
-51
-57
-54
-52
-60
-48
-42
-63
-44
-24
-101
-140
-3
325
994
1637
1260
44
-579
-310
-57
-70
-48
-18
-40
-25
0
-1
12
33
41
53
72
86
99
114
128
145
163
179
192
203
213
224
237
248
252
253
252
249
246
240
222
190
151
113
71
27
-9
-34
-58
-77
-89
-97
-104
-107
-109
-114
-118
-121
-124
-129
-135
-142
-146
-149
-153
-155
-153
-153
-156
-155
-150
-146
-147
-150
-147
-140
-136
-134
-132
-131
-127
-123
-122
-121
-117
-112
-109
-108
-106
-102
-97
-93
-90
-88
-87
-85
-85
-87
-85
-79
-75
-75
-78
-88
-100
-95
-69
-43
-20
3
-1
-38
-62
-56
-54
-58
-53
-59
-68
-51
-49
-58
-28
-43
-134
-108
104
540
1253
1575
767
-358
-569
-197
-57
-70
-22
-19
-35
-5
12
11
28
44
52
67
82
94
107
123
141
159
172
182
196
213
226
234
244
254
260
259
258
256
252
245
226
190
146
101
58
18
-15
-41
-59
-75
-90
-99
-100
-99
-102
-105
-111
-119
-126
-129
-132
-134
-137
-141
-144
-148
-154
-152
-145
-143
-146
-148
-149
-145
-138
-134
-135
-134
-133
-133
-128
-120
-118
-118
-116
-115
-111
-106
-103
-103
-101
-99
-98
-92
-85
-85
-88
-87
-83
-78
-76
-78
-78
-74
-72
-72
-73
-79
-88
-79
-51
-26
-3
18
4
-38
-55
-46
-51
-56
-51
-57
-56
-39
-49
-52
-19
-61
-143
-63
202
715
1415
1480
464
-497
-479
-125
-62
-62
-11
-22
-33
-4
6
11
28
37
46
64
80
95
111
126
142
159
173
186
199
210
223
237
246
251
259
262
257
255
256
246
220
181
140
100
58
15
-21
-44
-59
-74
-88
-97
-101
-104
-107
-108
-108
-113
-121
-128
-133
-138
-138
-139
-142
-146
-147
-145
-143
-144
-141
-135
-132
-133
-133
-133
-133
-128
-120
-117
-119
-117
-112
-108
-107
-107
-104
-101
-101
-101
-96
-92
-91
-89
-86
-82
-78
-78
-78
-73
-70
-72
-73
-70
-68
-67
-64
-63
-65
-66
-73
-85
-81
-56
-31
-9
10
-1
-38
-56
-49
-51
-55
-50
-56
-59
-44
-50
-59
-25
-52
-142
-92
144
599
1296
1528
650
-416
-538
-165
-54
-66
-17
-19
-32
-3
10
12
30
40
47
67
83
93
107
123
138
156
172
181
191
208
225
235
242
252
259
258
255
255
253
242
220
183
135
88
48
9
-28
-54
-72
-89
-101
-106
-107
-110
-114
-114
-117
-126
-130
-127
-130
-139
-145
-147
-150
-151
-150
-146
-143
-143
-143
-142
-141
-140
-137
-128
-122
-120
-117
-112
-111
-111
-106
-101
-98
-97
-96
-94
-90
-84
-80
-80
-78
-75
-74
-74
-72
-71
-68
-69
-72
-70
-64
-65
-69
-70
-79
-87
-72
-42
-15
6
4
-32
-59
-54
-53
-61
-56
-57
-68
-58
-59
-75
-41
-41
-139
-124
109
548
1265
1663
871
-402
-714
-282
-89
-109
-45
-24
-52
-28
-10
-13
5
21
26
45
63
68
77
95
113
128
142
156
170
186
203
218
231
242
253
258
256
254
251
243
221
183
134
80
24
-28
-70
-103
-126
-141
-150
-154
-152
-150
-150
-148
-149
-154
-159
-160
-161
-162
-162
-163
-165
-164
-159
-154
-150
-145
-139
-134
-128
-119
-109
-100
