# session 21
-42
-46
-30
-54
-127
-163
-137
-109
-114
-131
-144
-146
-146
-142
-133
-136
-132
-115
-122
-122
-86
-125
-195
-95
134
546
1260
1528
643
-415
-513
-169
-109
-130
-72
-76
-86
-50
-40
-40
-15
2
8
22
38
52
70
88
105
124
145
169
193
216
239
266
292
317
338
353
359
366
369
361
337
298
246
180
108
39
-21
-67
-100
-120
-131
-135
-138
-137
-129
-122
-119
-113
-106
-102
-101
-101
-100
-102
-107
-111
-113
-112
-110
-111
-111
-109
-107
-106
-104
-99
-93
-90
-90
-88
-84
-82
-80
-75
-70
-69
-66
-62
-58
-55
-53
-51
-47
-43
-43
-41
-38
-38
-39
-36
-33
-33
-35
-34
-32
-32
-33
-33
-32
-34
-33
-32
-32
-30
-28
-27
-29
-29
-27
-29
-33
-34
-29
-23
-24
-31
-33
-27
-22
-23
-24
-25
-27
-28
-30
-32
-30
-25
-23
-26
-29
-28
-25
-29
-36
-37
-35
-37
-39
-39
-41
-41
-38
-38
-37
-22
-2
-2
-26
-46
-48
-49
-54
-53
-55
-62
-48
-47
-69
-43
-39
-136
-129
91
450
1085
1624
1092
-171
-678
-321
-96
-124
-71
-38
-68
-48
-22
-26
-10
10
11
22
40
48
59
78
97
114
131
147
166
186
210
238
266
289
312
334
352
363
366
364
352
323
278
220
149
77
14
-42
-96
-132
-144
-150
-162
-169
-164
-157
-154
-149
-142
-139
-141
-145
-148
-150
-153
-156
-158
-158
-159
-161
-163
-162
-154
-147
-148
-149
-143
-137
-134
-130
-124
-122
-120
-115
-112
-110
-105
-101
-99
-96
-91
-88
-86
-82
-78
-74
-70
-65
-62
-64
-63
-60
-58
-59
-58
-54
-53
-52
-49
-47
-45
-44
-42
-40
-39
-38
-36
-32
-30
-31
-33
-29
-22
-20
-23
-27
-27
-26
-27
-29
-34
-43
-49
-38
-13
12
29
25
-4
-31
-33
-30
-38
-42
-37
-46
-50
-36
-49
-56
-22
-65
-149
-57
182
628
1407
1712
752
-426
-549
-162
-90
-120
-56
-57
-75
-41
-31
-37
-17
0
7
22
38
50
63
79
97
117
135
156
180
206
233
261
289
316
340
360
373
380
379
367
341
298
236
161
84
7
-61
-111
-142
-161
-171
-174
-174
-172
-167
-158
-149
-142
-139
-136
-132
-132
-136
-139
-139
-141
-143
-141
-137
-135
-135
-132
-126
-123
-121
-118
-113
-111
-110
-107
-99
-92
-88
-88
-84
-78
-75
-73
-69
-65
-60
-56
-54
-54
-52
-51
-48
-43
-40
-41
-41
-39
-37
-36
-37
-38
-35
-31
-31
-32
-31
-29
-27
-27
-28
-29
-28
-27
-26
-27
-28
-27
-25
-26
-28
-27
-28
-27
-25
-24
-26
-27
-25
-25
-26
-27
-28
-28
-26
-25
-25
-28
-31
-39
-47
-39
-18
2
17
23
5
-26
-41
-38
-38
-44
-41
-42
-54
-48
-34
-52
-47
-20
-83
-134
0
265
757
1414
1356
287
-549
-426
-117
-100
-90
-43
-63
-61
-27
-25
-21
0
11
21
37
46
55
72
90
109
127
143
160
180
201
224
250
276
300
320
332
341
345
344
336
315
277
224
160
88
17
-39
-81
-113
-136
-147
-153
-158
-159
-154
-151
-150
-147
-141
-137
-138
-140
-142
-144
-146
-148
-149
-150
-151
-152
-151
-147
-141
-140
-141
-138
-132
-127
-126
-125
-124
-123
-118
-113
-110
-110
-107
-103
-100
-96
-92
-90
-92
-92
-87
-79
-76
-76
-73
-69
-71
-74
-72
-65
-63
-63
-60
-57
-57
-54
-52
-52
-52
-52
-53
-49
-48
-50
-45
-38
-41
-45
-46
-53
-56
-38
-13
5
21
16
-17
-43
-40
-33
-40
-42
-37
-45
-48
-29
-35
-49
-14
-34
-121
-45
231
686
1369
1605
671
-498
-635
-204
-78
-94
-24
-15
-35
-6
7
4
21
36
46
64
74
80
98
117
129
145
163
177
198
227
252
273
298
325
347
363
374
380
380
371
349
305
245
174
94
13
-50
-95
-131
-156
-169
-173
-175
-173
-169
-164
-155
-147
-147
-150
-150
-150
-151
-150
-153
-157
-160
-162
-162
-159
-156
-156
-153
-148
-145
-144
-143
-139
-135
-133
-132
-128
-123
-122
-122
-118
-113
-110
-109
-108
-106
-104
-101
-95
-88
-87
-88
-86
-81
-79
-80
-80
-78
-78
-78
-79
-76
-71
-69
-73
-74
-69
-66
-68
-69
-73
-83
-86
-69
-40
-15
0
-7
-34
-56
-56
-51
-56
-60
-53
-56
-62
-45
-47
-60
-24
-37
-137
-95
136
507
1182
1648
959
-289
-644
-248
-67
-98
-45
-26
-54
-29
-7
-10
7
25
30
42
59
71
87
104
119
136
155
177
203
229
255
280
310
340
367
390
404
409
408
400
377
332
268
191
108
28
-37
-86
-123
-148
-158
-161
-159
-155
-151
-147
-142
-134
-127
-122
-122
-126
-129
-129
-129
-132
-134
-136
-136
-135
-132
-131
-128
-125
-124
-124
-120
-114
-111
-108
-105
-102
-99
-95
-93
-90
-85
-79
-77
-76
-76
-73
-68
-63
-60
-56
-54
-57
-58
-55
-53
-51
-49
-47
-45
-45
-46
-44
-41
-38
-37
-35
-34
-32
-29
-30
-34
-33
-29
-27
-27
-25
-24
-25
-26
-26
-28
-31
-34
-33
-32
-31
-32
-33
-34
-33
-32
-34
-35
-40
-53
-58
-39
-12
9
23
17
-13
-40
-43
-39
-44
-48
-45
-50
-58
-44
-45
-60
-30
-32
-124
-107
90
420
1040
1544
1014
-153
-591
-269
-80
-105
-62
-43
-70
-46
-19
-22
-11
6
13
23
36
48
62
77
92
110
127
143
164
187
209
230
256
282
303
318
332
343
348
347
337
311
266
207
138
68
5
-46
-86
-114
-132
-142
-147
-148
-146
-143
-137
-132
-129
-127
-128
-129
-129
-129
-133
-136
-136
-138
-143
-146
-146
-143
-141
-140
-139
-136
-133
-134
-132
-125
-118
-118
-117
-112
-107
-104
-101
-99
-94
-88
-85
-86
-86
-82
-76
-74
-73
-68
-63
-65
-67
-64
-59
-58
-58
-57
-57
-57
-54
-49
-47
-46
-43
-42
-42
-42
-41
-39
-38
-37
-35
-34
-35
-35
-32
-30
-32
-29
-24
-22
-24
-26
-30
-39
-40
-23
-1
18
36
33
1
-27
-28
-24
-32
-35
-29
-35
-42
-23
-24
-42
-10
-16
-110
-74
172
576
1212
1562
821
-358
-648
-256
-78
-86
-27
-17
-42
-12
6
1
21
40
42
51
67
79
90
105
123
139
154
173
191
211
234
250
260
281
312
336
347
351
348
340
327
299
250
188
118
47
-14
-63
-103
-130
-145
-153
-156
-154
-154
-152
-145
-138
-139
-144
-143
-141
-142
-148
-158
-165
-166
-166
-168
-173
-178
-176
-172
-176
-187
-188
-176
-163
-156
-149
-140
-133
-130
-127
-124
-120
-114
-108
-104
-100
-95
-90
-88
-86
-84
-81
-79
-75
-70
-68
-69
-68
-65
-64
-62
-57
-55
-55
-55
-54
-54
-52
-48
-48
-48
-45
-42
-42
-40
-37
-36
-36
-35
-37
-48
-61
-55
-32
-5
19
30
9
-28
-44
-37
-36
-44
-41
-40
-53
-46
-33
-52
-43
-13
-83
-134
10
284
833
1586
1523
310
-620
-457
-102
-93
-83
-25
-50
-54
-18
-18
-15
9
21
28
43
57
69
83
100
119
140
160
179
199
223
254
282
310
338
361
378
391
401
401
390
362
313
247
170
89
11
-55
-101
-131
-152
-167
-171
-168
-164
-160
-154
-150
-146
-140
-136
-136
-135
-135
-136
-141
-146
-146
-145
-145
-145
-144
-141
-138
-135
-132
-128
-124
-122
-120
-115
-108
-103
-100
-98
-95
-95
-92
-86
-82
-82
-81
-75
-69
-65
-62
-61
-59
-55
-52
-52
-53
-53
-51
-49
-48
-46
-43
-44
-44
-39
-36
-38
-38
-36
-35
-34
-31
-29
-27
-25
-23
-24
-23
-22
-21
-20
-19
-17
-18
-22
-23
-19
-17
-20
-22
-21
-20
-22
-22
-22
-26
-31
-32
-39
-47
-37
-12
11
27
28
3
-28
-36
-29
-33
-43
-41
-38
-49
-44
-32
-51
-46
-17
-79
-130
3
256
746
1435
1421
349
-525
-424
-113
-97
-90
-43
-63
-62
-30
-29
-22
-2
1
8
28
41
50
67
85
97
112
131
151
172
195
218
240
264
290
310
324
337
348
351
344
325
293
246
182
109
39
-18
-64
-101
-127
-142
-150
-154
-153
-150
-148
-143
-135
-135
-138
-140
-141
-142
-140
-140
-145
-149
-152
-154
-154
-151
-150
-150
-149
-144
-138
-135
-134
-129
-123
-120
-118
-116
-114
-110
-104
-102
-104
-104
-99
-92
-87
-83
-78
-74
-74
-76
-74
-70
-71
-71
-66
-62
-59
-54
-49
-52
-56
-55
-53
-53
-51
-49
-49
-47
-44
-44
-46
-44
-41
-40
-39
-39
-41
-41
-38
-38
-42
-48
-52
-45
-23
5
26
25
-4
-34
-38
-30
-36
-40
-32
-37
-50
-36
-31
-51
-22
-16
-119
-116
100
468
1154
1739
1157
-204
-731
-329
-82
-115
-59
-23
-58
-35
-5
-14
-3
18
24
34
52
65
79
94
106
122
142
162
179
199
222
249
277
303
327
351
370
382
384
381
370
341
293
232
161
82
8
-50
-92
-122
-144
-160
-169
-172
-169
-162
-153
-150
-151
-151
-151
-151
-151
-153
-156
-159
-159
-160
-160
-159
-157
-154
-152
-150
-149
-145
-140
-136
-132
-130
-129
-126
-122
-118
-116
-115
-114
-111
-108
-105
-102
-100
-97
-95
-92
-88
-83
-78
-74
-72
-73
-71
-67
-67
-70
-67
-60
-58
-60
-60
-58
-57
-55
-55
-54
-52
-51
-51
-50
-48
-48
-47
-51
-62
-61
-40
-15
7
24
14
-21
-43
-38
-33
-39
-40
-37
-46
-42
-23
-35
-39
-4
-47
-127
-29
220
651
1339
1546
623
-428
-506
-143
-65
-81
-33
-45
-63
-39
-39
-51
-41
-30
-14
8
23
38
60
83
103
121
139
160
184
209
234
261
288
314
336
355
368
374
375
369
349
307
249
182
109
37
-25
-71
-105
-129
-143
-148
-147
-143
-140
-135
-129
-123
-119
-117
-118
-120
-122
-124
-125
-126
-129
-131
-130
-127
-126
-124
-122
-121
-120
-119
-118
-116
-113
-108
-104
-102
-100
-98
-96
-93
-88
-85
-82
-79
-80
-78
-73
-70
-69
-66
-61
-61
-64
-62
-57
-54
-54
-54
-53
-51
-51
-52
-49
-45
-48
-50
-48
-45
-43
-43
-44
-45
-42
-39
-38
-38
-38
-40
-39
-36
-32
-34
-36
-35
-35
-37
-39
-48
-57
-47
-23
-1
16
22
1
-33
-47
-41
-41
-47
-45
-46
-57
-49
-41
-60
-42
-23
-103
-129
45
351
906
1500
1202
32
-633
-379
-101
-105
-76
-38
-63
-49
-17
-19
-13
4
12
22
37
48
62
76
90
108
128
145
163
185
206
227
252
274
294
315
332
341
346
350
343
321
285
233
170
102
39
-14
-58
-93
-115
-127
-134
-138
-140
-139
-136
-132
-130
-127
-123
-122
-125
-128
-131
-135
-141
-143
-142
-142
-143
-143
-141
-136
-134
-134
-129
-124
-121
-119
-115
-112
-109
-106
-102
-97
-92
-87
-84
-81
-78
-75
-73
-71
-69
-67
-64
-61
-59
-59
-59
-56
-52
-50
-51
-50
-46
-44
-43
-42
-41
-40
-38
-37
-36
-33
-31
-31
-31
-29
-27
-26
-25
-24
-24
-24
-25
-26
-25
-24
-26
-28
-25
-23
-26
-30
-33
-42
-46
-29
-4
18
33
30
-1
-31
-34
-25
-30
-39
-34
-38
-49
-38
-35
-53
-27
-24
-113
-96
125
475
1072
1540
995
-184
-629
-289
-78
-97
-52
-29
-56
-35
-12
-18
-5
15
22
34
49
57
67
83
99
114
131
152
172
190
208
229
253
276
297
315
329
338
340
336
325
300
258
206
143
73
12
-38
-86
-124
-138
-145
-158
-165
-163
-161
-158
-154
-156
-157
-151
-151
-161
-167
-166
-168
-172
-174
-173
-171
-170
-169
-167
-164
-162
-161
-158
-150
-145
-144
-142
-135
-131
-131
-130
-128
-124
-119
-115
-112
-108
-105
-101
-96
-95
-96
-92
-85
-82
-81
-77
-75
-75
-74
-69
-66
-70
-70
-63
-58
-59
-59
-57
-61
-71
-70
-53
-23
9
19
-9
-44
-50
-39
-44
-51
-43
-42
-52
-36
-30
-52
-27
-13
-105
-101
120
492
1159
1729
1151
-224
-777
-361
-78
-95
-41
-4
-36
-10
19
6
17
44
53
64
80
89
102
121
137
151
167
186
208
230
251
275
304
334
360
381
395
403
406
402
385
349
293
223
142
59
-13
-67
-110
-142
-161
-170
-174
-176
-174
-171
-169
-166
-163
-162
-162
-163
-166
-171
-174
-175
-177
-179
-179
-179
-179
-176
-172
-170
-170
-171
-168
-162
-159
-157
-153
-149
-146
-143
-139
-137
-135
-133
-132
-128
-122
-117
-116
-116
-113
-108
-108
-109
-107
-105
-104
-103
-101
-102
-109
-118
-112
-87
-59
-36
-25
-44
-79
-93
-85
-82
-88
-86
-88
-96
-83
-71
-87
-71
-50
-127
-157
16
338
929
1574
1301
79
-658
-410
-105
-111
-89
-43
-65
-56
-22
-21
-16
3
15
29
48
61
75
93
110
128
151
174
195
218
242
269
298
327
354
373
388
401
410
406
387
349
294
225
148
70
1
-50
-86
-112
-127
-131
-131
-131
-128
-120
-113
-109
-106
-104
-102
-100
-101
-102
-104
-106
-107
-106
-104
-102
-101
-99
-96
-94
-91
-86
-83
-85
-84
-76
-68
-65
-64
-61
-58
-55
-55
-53
-51
-49
-46
-42
-39
-38
-35
-32
-30
-28
-25
-24
-26
-25
-20
-17
-17
-17
-19
-20
-18
-17
-19
-20
-20
-21
-24
-23
-20
-20
-22
-23
-22
-23
-25
-26
-25
-27
-28
-29
-31
-31
-33
-47
-57
-45
-23
-6
10
15
-12
-50
-60
-54
-60
-71
-68
-67
-78
-72
-69
-92
-76
-59
-141
-171
-3
301
865
1461
1151
-25
-687
-441
-178
-186
-157
-122
-154
-147
-123
-131
-127
-110
-105
-99
-90
-85
-77
-66
-59
-50
-36
-22
-11
2
18
35
51
