# session 11
-76
-89
-65
20
29
-90
-161
-129
-119
-137
-127
-129
-153
-151
-120
-93
-70
-47
-52
-88
-111
-101
-93
-99
-96
-97
-105
-91
-82
-101
-80
-63
-145
-165
0
309
931
1579
1234
0
-652
-374
-109
-126
-94
-55
-81
-66
-37
-39
-25
1
6
13
33
49
64
82
101
117
135
155
177
201
226
251
274
296
315
331
341
347
350
350
342
315
267
202
133
70
16
-24
-56
-83
-100
-107
-111
-114
-114
-115
-115
-110
-107
-110
-115
-117
-119
-123
-128
-128
-127
-126
-127
-124
-120
-117
-116
-114
-110
-107
-104
-103
-101
-97
-93
-90
-88
-85
-82
-79
-75
-70
-69
-70
-69
-65
-62
-60
-58
-55
-52
-50
-47
-45
-45
-47
-44
-40
-42
-47
-46
-41
-39
-38
-36
-37
-43
-43
-37
-34
-38
-40
-39
-39
-39
-37
-35
-35
-35
-35
-35
-33
-31
-30
-30
-31
-33
-34
-32
-31
-34
-43
-51
-46
-22
5
24
27
6
-27
-37
-32
-39
-44
-34
-41
-51
-35
-40
-56
-20
-36
-131
-80
150
542
1224
1582
781
-397
-626
-231
-93
-113
-50
-37
-59
-34
-21
-26
-10
5
14
29
39
46
58
74
90
107
122
136
152
172
196
219
239
255
274
291
301
304
309
311
305
290
264
221
171
121
68
13
-34
-70
-94
-108
-117
-127
-132
-132
-134
-140
-146
-151
-155
-155
-158
-166
-173
-178
-180
-183
-184
-179
-172
-171
-177
-179
-176
-171
-165
-162
-158
-150
-146
-149
-149
-139
-132
-133
-133
-130
-124
-117
-113
-114
-115
-110
-103
-100
-97
-91
-87
-87
-85
-80
-77
-76
-72
-69
-70
-72
-68
-66
-78
-87
-71
-42
-13
10
8
-27
-52
-45
-40
-48
-45
-45
-57
-44
-36
-59
-37
-16
-103
-127
45
350
978
1672
1340
34
-675
-368
-74
-99
-69
-22
-49
-38
-5
-8
2
26
33
41
58
74
88
104
120
139
156
175
197
218
236
257
282
309
331
345
354
363
365
357
343
316
265
200
133
67
7
-40
-76
-104
-121
-128
-133
-137
-138
-139
-135
-130
-131
-136
-139
-142
-149
-154
-153
-152
-154
-152
-150
-153
-153
-146
-140
-139
-141
-143
-139
-129
-125
-125
-124
-119
-115
-111
-106
-104
-100
-95
-92
-91
-90
-90
-89
-85
-81
-81
-82
-82
-81
-76
-72
-73
-75
-75
-75
-74
-71
-71
-71
-69
-69
-68
-62
-58
-60
-63
-70
-79
-72
-47
-25
-6
6
-11
-48
-59
-48
-51
-58
-53
-57
-60
-42
-45
-56
-24
-43
-128
-79
136
531
1214
1556
777
-348
-574
-212
-81
-97
-43
-37
-54
-23
-10
-14
7
24
28
43
60
70
83
100
115
130
150
169
186
204
226
250
273
293
309
323
332
339
344
341
324
297
256
196
131
75
25
-23
-61
-86
-102
-112
-118
-125
-128
-124
-123
-128
-135
-138
-140
-145
-152
-157
-155
-153
-154
-159
-162
-162
-162
-159
-154
-150
-148
-144
-142
-140
-134
-132
-132
-126
-119
-117
-116
-113
-113
-113
-110
-107
-107
-104
-99
-95
-91
-85
-83
-87
-88
-82
-76
-77
-77
-72
-69
-72
-72
-66
-65
-72
-77
-78
-82
-80
-60
-35
-14
3
-5
-38
-58
-54
-56
-64
-57
-54
-62
-50
-46
-68
-44
-39
-131
-120
96
455
1124
1689
1102
-252
-775
-368
-107
-125
-63
-26
-57
-33
-7
-16
3
31
33
38
55
69
81
98
116
132
149
168
191
215
237
258
282
306
327
343
354
357
356
354
348
326
281
217
151
90
32
-21
-62
-89
-111
-125
-128
-127
-127
-126
-125
-125
-128
-131
-135
-143
-149
-150
-151
-152
-155
-158
-160
-158
-156
-155
-157
-157
-154
-147
-142
-139
-137
-133
-128
-123
-121
-121
-119
-117
-116
-111
-103
-98
-98
-98
-98
-98
-95
-90
-88
-89
-88
-84
-82
-82
-81
-79
-76
-73
-69
-68
-71
-73
-76
-84
-85
-66
-40
-16
4
-1
-35
-59
-55
-51
-59
-56
-53
-63
-53
-41
-59
-47
-25
-96
-132
8
286
858
1524
1301
122
-617
-400
-108
-103
-75
-29
-54
-50
-21
-20
-14
3
13
27
45
57
71
90
106
119
138
160
177
193
216
243
263
283
304
322
333
339
343
344
337
313
269
208
142
80
23
-26
-63
-89
-105
-112
-116
-120
-122
-122
-122
-120
-119
-121
-123
-123
-127
-134
-139
-141
-144
-145
-145
-144
-143
-141
-139
-137
-134
-128
-126
-127
-123
-116
-115
-117
-113
-106
-101
-100
-100
-100
-96
-90
-88
-88
-87
-86
-86
-87
-85
-81
-79
-78
-73
-72
-75
-74
-66
-63
-69
-72
-69
-65
-61
-61
-63
-70
-79
-80
-64
-39
-13
10
7
-29
-56
-54
-48
-56
-55
-52
-64
-61
-45
-65
-63
-20
-69
-145
-28
261
790
1491
1450
288
-669
-542
-159
-114
-92
-21
-38
-42
-6
-3
-3
19
29
36
54
68
78
91
107
127
147
160
172
192
221
246
263
282
304
320
332
345
352
349
340
323
289
237
180
117
48
-12
-51
-81
-110
-127
-132
-133
-131
-129
-133
-135
-134
-136
-144
-153
-159
-164
-166
-169
-174
-179
-178
-172
-169
-171
-171
-165
-159
-156
-156
-154
-151
-147
-140
-136
-135
-134
-133
-130
-125
-121
-119
-114
-108
-104
-104
-103
-98
-94
-92
-89
-86
-83
-83
-86
-86
-80
-73
-73
-78
-89
-98
-87
-60
-33
-11
-2
-25
-59
-66
-58
-62
-66
-60
-65
-66
-48
-58
-71
-34
-56
-145
-82
148
561
1298
1669
810
-408
-623
-215
-83
-108
-49
-39
-52
-18
-9
-16
4
21
28
43
57
68
86
104
121
138
156
176
199
222
243
263
285
310
331
343
351
358
359
351
334
300
246
179
111
47
-6
-47
-76
-93
-104
-113
-119
-121
-119
-117
-117
-118
-119
-120
-121
-125
-133
-139
-138
-139
-144
-147
-143
-141
-143
-141
-138
-140
-138
-131
-125
-123
-121
-119
-115
-109
-107
-107
-105
-101
-99
-97
-96
-92
-85
-80
-81
-82
-78
-75
-77
-80
-80
-74
-71
-71
-70
-68
-67
-63
-58
-60
-64
-62
-60
-61
-59
-55
-56
-58
-54
-49
-49
-49
-50
-60
-68
-53
-25
-4
12
16
-8
-40
-47
-39
-42
-47
-45
-48
-46
-31
-44
-51
-14
-45
-129
-62
157
562
1260
1553
706
-388
-540
-181
-84
-98
-40
-39
-54
-23
-13
-19
0
19
27
38
54
68
78
86
102
122
140
159
180
198
212
230
253
274
289
299
306
309
311
310
300
278
239
185
125
71
22
-20
-53
-79
-96
-108
-115
-120
-122
-125
-127
-127
-130
-136
-143
-146
-150
-155
-161
-163
-165
-166
-167
-165
-164
-164
-162
-155
-149
-145
-143
-141
-137
-131
-126
-124
-125
-121
-115
-114
-116
-112
-104
-102
-101
-98
-97
-96
-91
-85
-81
-80
-82
-81
-74
-70
-72
-70
-66
-68
-73
-71
-68
-75
-86
-85
-68
-42
-13
9
-1
-39
-61
-55
-53
-62
-56
-52
-66
-60
-52
-68
-43
-28
-123
-140
52
386
1031
1675
1237
-106
-748
-391
-102
-121
-72
-26
-56
-36
-4
-14
-5
22
32
39
51
61
75
94
113
131
148
163
185
210
233
253
275
299
319
334
346
351
348
344
338
319
274
210
142
80
24
-25
-65
-91
-107
-120
-130
-134
-134
-133
-131
-130
-134
-143
-149
-149
-148
-154
-163
-162
-159
-160
-162
-158
-151
-149
-150
-146
-139
-138
-138
-134
-129
-127
-125
-122
-120
-118
-113
-110
-111
-110
-104
-99
-97
-95
-93
-89
-85
-83
-83
-82
-81
-81
-80
-77
-75
-76
-76
-74
-72
-70
-69
-76
-90
-88
-60
-32
-13
4
-3
-41
-64
-57
-55
-62
-58
-59
-67
-52
-47
-69
-45
-35
-123
-129
41
354
1000
1620
1180
-60
-619
-304
-77
-108
-72
-38
-65
-47
-17
-14
-3
11
17
32
51
62
74
91
107
127
148
166
183
202
223
246
268
284
300
314
324
329
331
326
314
290
246
187
128
73
22
-21
-55
-81
-99
-110
-116
-119
-123
-127
-127
-125
-127
-134
-139
-142
-146
-149
-150
-151
-151
-154
-156
-156
-154
-151
-145
-138
-136
-136
-130
-125
-126
-129
-128
-125
-120
-117
-119
-118
-113
-110
-108
-106
-102
-96
-93
-95
-96
-91
-88
-88
-85
-80
-78
-74
-69
-70
-72
-70
-66
-60
-57
-59
-68
-79
-78
-55
-27
-7
9
9
-20
-44
-38
-33
-41
-42
-46
-59
-49
-37
-58
-44
-16
-93
-139
17
335
935
1592
1309
56
-695
-429
-104
-99
-70
-22
-47
-36
-4
-8
1
26
35
43
55
63
77
99
113
122
138
160
181
196
212
231
251
272
295
314
325
330
329
324
318
301
263
210
151
90
29
-21
-59
-89
-113
-126
-132
-140
-149
-154
-156
-157
-158
-161
-167
-174
-180
-185
-188
-190
-191
-189
-186
-185
-184
-184
-183
-179
-174
-169
-164
-160
-159
-156
-148
-143
-142
-140
-137
-132
-125
-120
-121
-123
-121
-116
-112
-107
-109
-120
-128
-116
-89
-59
-30
-17
-40
-76
-84
-75
-78
-79
-74
-85
-87
-70
-80
-80
-39
-83
-168
-80
172
666
1448
1629
562
-558
-578
-165
-89
-103
-41
-46
-56
-20
-9
-7
15
29
41
58
67
77
98
117
129
147
171
193
213
235
254
274
297
317
332
341
345
344
342
331
301
248
185
125
67
8
-42
-74
-90
-101
-113
-124
-130
-130
-126
-125
-129
-136
-143
-145
-147
-150
-152
-151
-153
-155
-152
-148
-148
-150
-147
-141
-137
-138
-138
-134
-128
-125
-124
-119
-113
-110
-111
-111
-107
-104
-100
-95
-91
-91
-90
-84
-79
-81
-82
-80
-77
-76
-75
-73
-72
-74
-72
-73
-85
-90
-69
-40
-19
-2
-3
-36
-65
-62
-56
-62
-59
-56
-65
-59
-53
-69
-50
-29
-104
-136
8
299
885
1513
1220
53
-610
-370
-101
-102
-71
-32
-56
-46
-17
-18
-12
7
19
33
45
53
67
85
102
122
141
156
172
192
211
228
247
264
276
283
289
296
298
295
285
263
223
172
122
74
27
-13
-44
-67
-81
-93
-105
-112
-114
-115
-116
-121
-129
-134
-138
-143
-147
-147
-150
-153
-154
-154
-155
-152
-150
-149
-146
-141
-141
-143
-139
-133
-132
-131
-126
-124
-123
-120
-117
-115
-111
-107
-109
-109
-99
-92
-94
-97
-94
-90
-86
-84
-83
-81
-79
-77
-78
-87
-93
-75
-46
-25
-7
2
-21
-54
-58
-51
-59
-62
-54
-59
-58
-39
-51
-53
-18
-69
-154
-53
229
756
1484
1510
366
-660
-575
-160
-96
-89
-20
-33
-40
-5
-5
-7
19
37
45
60
70
79
94
110
124
142
158
171
188
211
234
251
268
285
296
301
303
306
305
297
273
234
186
136
85
29
-22
-59
-84
-106
-120
-124
-128
-135
-138
-139
-142
-143
-146
-157
-167
-168
-167
-171
-175
-175
-174
-172
-169
-168
-166
-162
-158
-156
-154
-153
-152
-149
-144
-141
-137
-133
-131
-130
-127
-123
-120
-117
-111
-105
-104
-105
-103
-98
-95
-97
-104
-117
-118
-92
-56
-29
-16
-25
-57
-76
-70
-67
-72
-68
-71
-77
-58
-56
-75
-44
-39
-135
-136
56
422
1128
1698
1099
-217
-704
-315
-77
-101
-55
-25
-53
-33
-7
-7
7
25
35
48
61
71
89
110
127
141
157
180
201
217
235
258
278
293
308
318
321
319
316
308
290
253
199
141
88
38
-10
-47
-71
-84
-94
-102
-108
-112
-115
-118
-118
-118
-123
-129
-131
-133
-136
-142
-145
-143
-140
-142
-144
-143
-141
-138
-134
-132
-130
-124
-118
-116
-115
-110
-107
-107
-105
-102
-99
-94
-87
-85
-87
-85
-84
-85
-83
-78
-76
-75
-74
-71
-69
-67
-66
-65
-63
-62
-61
-57
-51
-47
-46
-49
-50
-48
-47
-47
-45
-42
-43
-41
-37
-43
-53
-42
-16
7
25
32
6
-29
-35
-28
-34
-39
-34
-39
-41
-29
-39
-43
-8
-41
-128
-69
145
559
1260
1530
669
-403
-531
-168
-72
-87
-31
-31
-47
-18
-6
-5
12
24
31
47
56
62
83
105
118
129
146
161
174
191
210
226
241
255
267
276
279
275
270
268
263
237
197
159
124
79
29
-8
-32
-50
-68
-79
-86
-97
-105
-107
-106
-110
-120
-128
-132
-136
-145
-153
-156
-160
-165
-164
-160
-160
-158
-155
-158
-162
-158
-152
-151
-151
-149
-146
-147
-149
-143
-136
-141
-149
-146
-136
-131
-132
-133
-129
-126
-125
-116
-102
-98
-108
-113
-109
-107
-104
-94
-87
-89
-92
-94
-99
-101
-96
-91
-85
-80
-86
-103
-102
-77
-49
-20
-2
-19
-57
-67
-54
-52
-53
-44
-48
-60
-47
-46
-59
-23
-19
-113
-109
76
421
1097
1640
1064
-186
-636
-270
-59
-85
-36
-7
-30
-7
13
11
34
60
61
65
81
100
118
132
149
172
191
205
222
238
255
275
291
304
323
338
342
335
320
309
303
282
241
204
169
121
69
29
-5
-31
-37
-38
-43
-43
-48
-67
-79
-72
-71
-82
-85
-84
-94
-104
-103
-102
-105
-111
-117
-114
-103
-97
-99
-95
-90
-99
-105
-95
-93
-102
-96
-85
-89
-95
-90
-83
-79
-81
-90
-91
-83
-82
-88
-86
-81
-80
-84
-89
-92
-88
-92
-108
-104
-79
-74
-91
-96
-93
-101
-104
-98
-108
-128
-125
-104
-91
-75
-44
-34
-70
-115
-122
-111
-127
-151
-138
-117
-121
-127
-133
-130
-106
-138
-213
-149
78
481
1076
1245
439
-511
-610
-262
-153
-175
-144
-132
-128
-109
-101
-86
-64
-59
-50
-30
-24
-17
6
27
42
58
76
91
103
117
142
173
195
208
215
220
227
235
244
254
249
216
177
149
117
74
41
29
21
6
-5
-4
4
17
26
25
25
32
37
