# session 23
24
27
26
52
100
127
135
148
168
187
206
224
244
268
290
309
330
348
359
365
369
371
363
343
311
268
214
153
97
50
11
-17
-34
-48
-62
-71
-72
-72
-72
-70
-68
-68
-71
-73
-76
-80
-84
-88
-94
-98
-100
-101
-102
-101
-100
-100
-101
-100
-97
-91
-84
-82
-81
-79
-76
-76
-77
-76
-74
-72
-70
-69
-70
-68
-64
-62
-63
-61
-57
-56
-59
-61
-60
-54
-50
-50
-52
-52
-54
-56
-53
-52
-53
-51
-47
-47
-50
-50
-50
-50
-51
-50
-47
-45
-45
-46
-50
-56
-62
-63
-51
-32
-11
12
15
-17
-52
-51
-38
-47
-55
-47
-52
-54
-41
-55
-64
-19
-54
-154
-60
234
696
1396
1612
620
-559
-658
-223
-113
-123
-47
-42
-60
-27
-17
-22
-4
7
14
32
44
51
67
85
99
113
130
147
164
185
206
224
243
266
289
307
318
322
325
328
320
298
264
215
154
91
35
-14
-58
-92
-113
-129
-145
-155
-153
-148
-149
-151
-146
-142
-147
-158
-162
-161
-163
-169
-172
-173
-174
-173
-169
-165
-163
-161
-158
-156
-153
-146
-139
-138
-138
-134
-129
-127
-128
-123
-117
-115
-116
-114
-110
-105
-101
-97
-94
-92
-89
-85
-81
-80
-80
-78
-74
-72
-70
-69
-69
-67
-66
-64
-61
-60
-62
-63
-64
-70
-75
-68
-47
-20
6
9
-21
-50
-49
-43
-50
-50
-44
-55
-53
-34
-50
-52
-13
-65
-146
-28
245
736
1510
1666
547
-594
-585
-158
-90
-97
-25
-36
-51
-13
-3
-4
16
28
35
51
64
77
94
110
125
143
159
178
199
221
244
269
294
315
334
352
365
372
374
372
359
328
281
221
149
77
17
-30
-69
-96
-111
-122
-130
-134
-136
-136
-132
-128
-127
-127
-127
-130
-133
-135
-138
-141
-144
-146
-147
-146
-145
-147
-145
-139
-135
-134
-132
-129
-127
-121
-116
-113
-111
-108
-106
-104
-100
-98
-96
-93
-89
-84
-81
-80
-79
-78
-75
-73
-73
-73
-72
-72
-70
-66
-64
-64
-60
-58
-62
-63
-59
-57
-59
-58
-56
-55
-53
-50
-47
-46
-46
-46
-45
-47
-48
-45
-42
-40
-40
-41
-42
-49
-57
-50
-29
-7
13
21
0
-34
-45
-36
-40
-52
-48
-46
-52
-42
-40
-62
-39
-27
-114
-117
75
388
984
1578
1182
-32
-624
-329
-90
-114
-80
-45
-72
-56
-28
-31
-18
1
6
17
35
44
53
70
89
104
121
139
158
177
196
215
232
254
276
292
303
314
321
322
318
308
285
245
191
131
73
23
-18
-50
-76
-94
-108
-115
-116
-115
-116
-115
-112
-112
-114
-114
-114
-117
-124
-129
-132
-133
-134
-133
-131
-131
-131
-128
-124
-122
-119
-114
-110
-108
-107
-104
-98
-93
-91
-87
-84
-82
-81
-77
-73
-68
-65
-62
-59
-54
-50
-49
-49
-49
-46
-45
-46
-44
-42
-42
-41
-38
-36
-36
-34
-32
-31
-28
-26
-27
-27
-27
-26
-24
-22
-22
-23
-23
-19
-16
-16
-20
-20
-17
-16
-17
-16
-14
-15
-18
-20
-18
-17
-19
-20
-21
-22
-23
-23
-22
-24
-26
-28
-35
-44
-45
-30
-9
11
26
21
-8
-34
-35
-33
-42
-46
-41
-50
-56
-40
-49
-58
-23
-52
-135
-52
195
591
1236
1495
663
-408
-556
-198
-99
-113
-57
-59
-73
-38
-28
-34
-18
-2
4
16
29
39
52
68
82
99
115
130
143
160
179
197
214
235
254
265
275
284
286
283
281
271
245
205
157
111
65
16
-27
-57
-79
-97
-109
-119
-127
-128
-127
-129
-129
-127
-126
-128
-133
-140
-146
-148
-147
-147
-147
-146
-144
-146
-146
-143
-139
-135
-129
-125
-124
-122
-117
-116
-118
-114
-105
-102
-102
-98
-97
-99
-95
-87
-83
-84
-81
-73
-66
-67
-71
-73
-70
-60
-53
-57
-59
-57
-56
-55
-48
-46
-50
-49
-48
-52
-51
-45
-44
-46
-46
-47
-47
-42
-40
-42
-43
-46
-56
-62
-54
-36
-12
16
26
-5
-43
-45
-34
-45
-52
-40
-43
-49
-32
-40
-52
-12
-42
-143
-58
216
664
1430
1775
792
-517
-686
-218
-94
-119
-40
-35
-60
-21
-6
-14
3
20
28
44
57
64
76
93
109
125
141
158
175
192
213
237
258
280
299
313
324
333
338
336
325
304
271
224
164
99
38
-14
-58
-93
-120
-138
-149
-153
-156
-159
-157
-154
-152
-151
-153
-157
-161
-164
-168
-170
-172
-174
-175
-172
-171
-172
-168
-160
-155
-153
-152
-150
-148
-144
-139
-137
-135
-132
-130
-127
-120
-114
-113
-112
-109
-105
-101
-96
-94
-93
-89
-85
-84
-83
-83
-82
-80
-78
-77
-75
-72
-71
-72
-72
-73
-82
-91
-80
-54
-32
-12
0
-18
-50
-60
-54
-60
-63
-53
-56
-64
-48
-48
-68
-37
-35
-127
-103
116
472
1115
1623
1049
-177
-626
-275
-67
-92
-52
-31
-54
-29
-4
-7
7
25
31
44
60
71
85
101
117
135
153
171
191
212
232
254
278
300
320
337
349
356
359
355
344
318
274
216
149
80
17
-33
-71
-97
-115
-127
-132
-133
-132
-134
-134
-130
-124
-123
-125
-126
-127
-129
-134
-141
-143
-140
-138
-138
-138
-137
-136
-135
-134
-132
-129
-127
-125
-122
-117
-111
-108
-107
-104
-100
-98
-95
-90
-86
-85
-83
-80
-79
-76
-73
-73
-73
-72
-71
-70
-66
-63
-65
-67
-65
-61
-59
-59
-58
-57
-57
-56
-54
-52
-52
-52
-55
-54
-50
-48
-45
-43
-46
-50
-56
-63
-55
-30
-8
10
21
5
-31
-46
-39
-40
-48
-42
-39
-48
-40
-33
-54
-38
-17
-96
-122
71
412
973
1519
1158
-38
-686
-405
-113
-108
-66
-21
-49
-37
-6
-9
2
20
21
29
49
61
71
85
98
113
133
148
160
177
198
217
233
251
271
287
298
307
315
312
304
297
277
235
183
131
78
29
-11
-39
-62
-83
-101
-109
-110
-112
-113
-112
-110
-112
-117
-121
-125
-129
-133
-139
-142
-141
-138
-141
-144
-142
-140
-140
-137
-131
-128
-125
-122
-121
-117
-111
-108
-107
-105
-102
-100
-96
-94
-91
-87
-82
-79
-76
-75
-73
-72
-73
-70
-65
-70
-76
-72
-65
-68
-67
-60
-57
-61
-62
-59
-57
-55
-54
-57
-58
-55
-51
-50
-51
-50
-48
-50
-49
-45
-45
-46
-46
-46
-47
-54
-60
-52
-33
-10
14
17
-12
-42
-43
-37
-47
-52
-41
-45
-52
-38
-44
-62
-25
-38
-140
-95
143
535
1253
1732
970
-358
-710
-279
-96
-125
-56
-36
-66
-33
-11
-21
-5
15
21
33
47
56
72
89
102
118
137
153
170
189
210
232
254
273
290
308
324
333
337
335
329
316
293
251
194
134
74
19
-23
-55
-82
-103
-115
-126
-135
-135
-131
-130
-128
-127
-131
-135
-136
-138
-145
-150
-152
-154
-154
-152
-149
-147
-146
-145
-143
-140
-136
-132
-130
-127
-122
-117
-115
-113
-110
-107
-105
-102
-98
-97
-95
-88
-81
-79
-78
-74
-71
-71
-69
-65
-65
-67
-67
-63
-63
-63
-59
-56
-58
-59
-56
-55
-55
-54
-52
-50
-48
-46
-46
-47
-45
-42
-42
-43
-42
-40
-40
-39
-37
-36
-35
-38
-50
-53
-37
-14
5
26
27
-5
-35
-36
-30
-37
-41
-36
-42
-48
-33
-38
-53
-20
-33
-124
-83
130
490
1169
1650
995
-218
-587
-234
-72
-105
-60
-46
-68
-38
-17
-23
-10
5
14
30
44
54
70
88
101
118
140
155
170
191
213
232
250
269
286
300
314
327
330
325
318
300
263
216
161
97
35
-14
-53
-86
-107
-119
-126
-131
-132
-136
-137
-133
-129
-130
-128
-128
-133
-138
-140
-145
-152
-156
-156
-157
-154
-150
-149
-147
-139
-132
-132
-135
-134
-130
-124
-122
-120
-117
-113
-112
-110
-107
-106
-103
-97
-94
-94
-91
-84
-78
-78
-79
-78
-75
-74
-70
-64
-60
-60
-59
-57
-56
-57
-56
-52
-50
-53
-53
-49
-46
-45
-45
-45
-41
-36
-37
-40
-38
-36
-37
-34
-30
-41
-56
-49
-24
-4
15
29
11
-26
-36
-25
-31
-42
-32
-30
-45
-38
-32
-50
-24
-14
-111
-107
124
490
1134
1715
1188
-170
-756
-369
-97
-125
-69
-21
-52
-34
-7
-14
2
26
29
39
56
62
71
91
110
128
141
152
169
191
211
227
247
271
294
311
323
334
343
343
337
323
294
249
192
130
67
6
-45
-79
-102
-124
-141
-147
-147
-148
-151
-152
-151
-148
-148
-155
-163
-163
-165
-173
-178
-176
-173
-173
-174
-175
-174
-173
-168
-162
-161
-158
-152
-148
-147
-142
-136
-134
-130
-126
-127
-128
-122
-113
-109
-107
-102
-97
-96
-97
-95
-88
-82
-82
-82
-79
-76
-74
-69
-68
-71
-70
-65
-64
-66
-63
-57
-52
-53
-56
-60
-68
-73
-63
-38
-10
12
9
-23
-48
-45
-41
-48
-45
-40
-51
-43
-28
-50
-44
-8
-81
-143
7
281
829
1658
1680
404
-657
-512
-108
-97
-98
-27
-46
-50
-13
-12
-9
16
24
27
43
59
71
88
105
123
140
157
175
197
220
244
270
296
323
349
372
391
402
405
400
385
352
297
222
137
58
-10
-67
-110
-139
-160
-177
-186
-190
-192
-190
-182
-175
-173
-172
-171
-172
-175
-178
-181
-183
-184
-183
-182
-185
-188
-181
-167
-165
-174
-177
-169
-162
-157
-151
-149
-148
-141
-136
-135
-132
-129
-125
-115
-109
-114
-117
-106
-101
-105
-104
-96
-94
-97
-96
-93
-92
-91
-94
-104
-113
-108
-87
-56
-26
-14
-30
-61
-75
-67
-65
-72
-69
-73
-82
-68
-64
-78
-50
-59
-150
-114
100
463
1187
1769
1150
-171
-638
-264
-64
-105
-60
-36
-63
-39
-14
-18
-5
16
25
39
56
69
84
100
117
138
159
178
198
218
240
265
291
314
335
353
366
374
376
369
348
312
262
197
121
45
-17
-60
-98
-134
-151
-149
-145
-141
-135
-133
-132
-129
-128
-127
-122
-120
-125
-131
-135
-136
-136
-137
-142
-145
-142
-139
-138
-137
-133
-132
-131
-127
-120
-116
-117
-117
-112
-107
-106
-107
-103
-97
-94
-92
-90
-88
-87
-86
-86
-85
-84
-83
-83
-81
-80
-78
-75
-74
-75
-76
-75
-72
-69
-72
-82
-83
-63
-40
-22
-3
-5
-38
-66
-60
-51
-63
-69
-61
-66
-70
-55
-61
-70
-34
-55
-141
-71
200
645
1257
1396
495
-535
-621
-234
-110
-97
-29
-30
-46
-15
-3
-4
13
24
32
51
65
70
83
104
120
133
147
165
183
202
223
241
260
281
298
311
322
330
334
332
319
294
253
197
135
76
24
-21
-56
-82
-100
-111
-117
-120
-121
-121
-121
-119
-114
-113
-119
-127
-132
-137
-144
-147
-147
-149
-151
-152
-151
-147
-143
-139
-137
-134
-131
-128
-126
-125
-124
-121
-119
-119
-118
-115
-112
-109
-107
-105
-104
-102
-99
-96
-94
-92
-92
-90
-85
-83
-84
-82
-83
-89
-81
-57
-33
-10
2
-19
-56
-72
-69
-70
-74
-68
-67
-78
-71
-57
-74
-66
-34
-93
-147
1
330
863
1412
1164
32
-713
-505
-165
-116
-74
-21
-43
-39
-8
-9
-3
17
25
35
52
64
74
88
103
118
135
151
168
187
210
230
246
264
287
307
320
326
329
331
327
311
278
225
159
92
31
-22
-64
-93
-112
-123
-127
-129
-130
-129
-129
-129
-128
-128
-134
-144
-146
-143
-143
-149
-152
-151
-152
-155
-156
-155
-153
-149
-144
-140
-138
-136
-135
-133
-128
-124
-123
-122
-117
-114
-111
-107
-107
-106
-99
-94
-95
-96
-104
-115
-102
-70
-47
-31
-19
-35
-72
-84
-74
-75
-82
-76
-77
-83
-67
-64
-81
-54
-50
-137
-118
128
558
1176
1462
700
-457
-739
-333
-120
-106
-38
-17
-39
-12
11
7
20
38
46
59
75
85
98
112
123
137
159
178
195
215
236
255
277
299
313
324
335
341
340
334
319
283
231
168
97
27
-30
-72
-105
-128
-139
-145
-149
-147
-140
-135
-136
-139
-136
-135
-143
-152
-155
-156
-161
-165
-167
-168
-170
-170
-166
-162
-162
-161
-156
-153
-154
-154
-151
-146
-143
-142
-141
-139
-138
-142
-149
-151
-138
-111
-81
-59
-61
-92
-119
-119
-109
-113
-116
-109
-113
-117
-100
-103
-116
-81
-97
-190
-127
163
645
1329
1539
556
-677
-832
-350
-160
-142
-57
-45
-66
-34
-20
-22
0
15
23
42
58
65
79
98
116
132
150
172
193
208
227
255
281
298
314
332
345
346
345
342
319
274
221
157
80
9
-42
-80
-109
-124
-131
-140
-146
-143
-135
-129
-128
-130
-131
-134
-139
-141
-141
-147
-149
-142
-138
-142
-144
-144
-143
-136
-128
-124
-119
-111
-107
-105
-97
-92
-94
-89
-78
-77
-81
-80
-76
-72
-63
-55
-54
-54
-52
-52
-50
-44
-48
-61
-57
-31
2
32
40
15
-16
-25
-20
-21
-26
-23
-21
-31
-23
-11
-31
-16
16
-67
-120
51
365
961
1726
1543
168
-770
-504
-104
-95
-66
6
-22
-20
17
10
12
36
43
50
66
76
85
100
112
122
137
153
167
184
204
223
242
262
280
295
308
316
319
317
309
288
250
191
119
46
-19
-77
-125
-160
-185
-203
-215
-221
-227
-232
-237
-240
-243
-249
-255
-258
-262
-267
-273
-279
-282
-283
-283
-284
-285
-282
-277
-272
-266
-262
-260
-256
-251
-248
-244
-239
-234
-230
-222
-215
-208
-199
-190
-184
-177
-167
-158
-149
-139
-127
-118
-110
-100
-86
-74
-66
-56
-43
-31
-20
-7
6
17
31
46
60
76
90
94
101
128
168
210
249
266
254
243
259
283
297
310
335
354
364
393
419
418
455
495
443
432
555
787
1386
2164
2135
1175
106
