# session 22
14
29
-8
88
329
457
413
361
334
274
204
152
101
57
27
5
-11
-21
-27
-32
-35
-34
-31
-29
-29
-31
-34
-39
-45
-47
-48
-52
-58
-60
-57
-57
-61
-62
-59
-55
-51
-47
-46
-46
-45
-43
-40
-38
-37
-34
-33
-34
-35
-33
-32
-32
-32
-30
-27
-25
-25
-25
-23
-19
-20
-24
-26
-23
-21
-23
-26
-26
-25
-23
-22
-23
-28
-31
-30
-28
-27
-26
-26
-30
-36
-36
-33
-32
-33
-33
-34
-35
-34
-34
-34
-32
-32
-36
-37
-35
-34
-35
-36
-36
-38
-43
-52
-51
-36
-18
5
24
11
-29
-55
-52
-49
-57
-59
-54
-64
-66
-48
-57
-64
-32
-76
-156
-37
265
731
1359
1429
432
-565
-564
-193
-124
-119
-52
-62
-72
-34
-27
-29
-9
3
11
27
37
43
57
74
88
106
125
140
156
176
196
217
240
263
281
293
300
307
312
313
301
277
241
191
131
72
19
-29
-68
-96
-115
-128
-136
-141
-147
-149
-144
-138
-136
-138
-140
-139
-139
-146
-154
-157
-159
-162
-163
-159
-151
-146
-148
-149
-148
-141
-132
-128
-130
-131
-127
-124
-122
-119
-115
-114
-114
-107
-100
-101
-102
-97
-91
-91
-90
-86
-84
-83
-78
-71
-68
-69
-67
-65
-64
-61
-57
-54
-55
-58
-58
-54
-53
-52
-47
-43
-48
-50
-46
-44
-45
-47
-51
-52
-40
-17
11
33
22
-18
-41
-34
-30
-39
-35
-27
-36
-33
-20
-39
-32
1
-71
-127
41
354
897
1599
1480
232
-693
-494
-114
-96
-75
-8
-36
-38
0
2
4
25
32
40
59
72
82
96
111
126
142
159
179
198
216
239
266
289
308
326
342
352
358
357
348
329
293
242
181
114
46
-14
-59
-94
-119
-135
-145
-152
-154
-152
-151
-150
-147
-144
-144
-146
-148
-152
-156
-157
-157
-160
-162
-162
-160
-157
-155
-151
-148
-146
-144
-142
-138
-132
-128
-128
-126
-120
-114
-113
-112
-108
-103
-102
-99
-94
-92
-90
-87
-84
-81
-75
-71
-72
-75
-74
-72
-70
-67
-66
-67
-68
-66
-62
-59
-58
-58
-59
-57
-56
-56
-55
-53
-50
-49
-49
-48
-49
-60
-67
-53
-28
-9
8
15
-5
-36
-45
-37
-40
-47
-43
-43
-51
-37
-32
-50
-26
-17
-101
-93
111
432
1008
1534
1087
-92
-618
-306
-72
-90
-53
-22
-46
-29
-2
-4
8
25
30
42
57
69
82
95
107
125
147
165
182
203
223
243
266
290
310
326
341
352
354
348
337
316
281
228
161
91
27
-26
-69
-99
-118
-131
-140
-146
-147
-146
-142
-139
-136
-133
-133
-136
-139
-144
-145
-143
-144
-147
-148
-148
-148
-146
-143
-141
-138
-134
-132
-131
-129
-125
-122
-119
-115
-112
-111
-110
-108
-103
-102
-103
-99
-93
-91
-91
-88
-83
-79
-76
-74
-71
-67
-63
-61
-60
-60
-60
-56
-54
-55
-54
-50
-50
-54
-56
-53
-48
-47
-48
-46
-43
-42
-46
-49
-47
-48
-58
-60
-43
-21
3
22
10
-28
-50
-44
-39
-46
-45
-39
-49
-48
-33
-47
-46
-12
-70
-139
6
318
847
1562
1545
346
-679
-559
-150
-109
-95
-17
-37
-45
-4
0
-2
20
33
40
54
65
73
89
108
123
134
149
172
192
209
229
254
275
295
316
334
345
352
353
348
336
308
259
197
130
62
-2
-54
-94
-122
-139
-150
-159
-166
-166
-161
-157
-157
-157
-156
-157
-163
-166
-164
-167
-174
-178
-180
-182
-181
-178
-176
-174
-170
-166
-163
-159
-154
-149
-148
-150
-151
-146
-139
-135
-134
-130
-125
-121
-119
-114
-109
-105
-102
-99
-98
-96
-92
-89
-87
-88
-87
-84
-81
-79
-76
-74
-75
-80
-90
-92
-74
-45
-17
2
-7
-39
-60
-55
-51
-60
-58
-48
-55
-55
-37
-50
-54
-13
-58
-145
-45
215
681
1452
1687
647
-531
-594
-165
-78
-96
-29
-34
-52
-16
-5
-9
13
27
33
47
62
75
91
107
122
142
161
180
201
225
251
278
303
327
352
375
387
391
391
385
363
321
262
192
113
34
-31
-75
-106
-130
-145
-150
-150
-148
-146
-142
-138
-135
-131
-128
-129
-131
-132
-134
-137
-138
-141
-144
-143
-142
-141
-141
-141
-140
-136
-132
-130
-124
-117
-115
-115
-112
-107
-103
-100
-99
-98
-92
-85
-82
-81
-81
-80
-78
-77
-76
-73
-69
-70
-73
-73
-69
-65
-62
-60
-61
-61
-58
-56
-57
-57
-55
-52
-52
-52
-52
-50
-47
-46
-47
-47
-45
-43
-41
-41
-42
-49
-60
-54
-31
-11
5
22
15
-17
-40
-38
-34
-42
-46
-40
-44
-50
-36
-42
-53
-20
-41
-127
-61
172
549
1197
1538
777
-352
-583
-213
-80
-99
-43
-37
-58
-28
-12
-19
-2
17
24
37
49
57
71
90
106
123
139
155
174
195
217
241
263
281
296
314
331
341
342
336
324
303
266
212
147
80
22
-26
-66
-97
-114
-123
-130
-133
-133
-134
-134
-132
-128
-128
-129
-130
-132
-139
-147
-150
-150
-152
-151
-149
-149
-150
-147
-145
-142
-134
-129
-129
-129
-126
-123
-119
-116
-115
-112
-109
-105
-100
-97
-99
-101
-95
-88
-86
-84
-80
-78
-78
-75
-73
-72
-69
-65
-63
-62
-60
-59
-56
-51
-51
-55
-54
-49
-49
-51
-50
-48
-50
-51
-48
-45
-48
-52
-53
-58
-63
-57
-34
-6
16
13
-18
-46
-46
-39
-45
-50
-45
-52
-54
-35
-45
-59
-16
-40
-141
-67
204
645
1382
1713
764
-516
-695
-232
-95
-114
-33
-28
-57
-19
0
-5
14
29
32
47
64
73
85
101
116
131
146
164
183
202
224
247
270
296
321
338
349
359
362
354
340
319
280
224
157
86
20
-33
-72
-100
-121
-138
-151
-155
-153
-149
-146
-142
-141
-144
-147
-148
-151
-156
-158
-158
-163
-168
-165
-162
-163
-162
-158
-156
-153
-149
-148
-146
-142
-138
-136
-132
-129
-126
-122
-120
-118
-113
-108
-108
-108
-104
-99
-94
-90
-89
-88
-86
-83
-81
-77
-77
-79
-79
-73
-70
-71
-69
-66
-65
-64
-62
-60
-58
-56
-56
-62
-73
-75
-59
-33
-10
9
6
-26
-52
-50
-45
-52
-51
-43
-50
-54
-37
-47
-59
-22
-49
-136
-62
170
568
1285
1650
809
-387
-599
-201
-77
-105
-50
-46
-66
-32
-18
-23
-6
7
12
28
45
56
71
89
108
127
143
161
183
206
227
251
278
303
324
342
356
364
366
363
349
316
265
202
129
54
-9
-57
-93
-117
-130
-139
-144
-145
-141
-137
-133
-125
-119
-118
-122
-122
-121
-123
-128
-132
-132
-130
-129
-129
-129
-127
-125
-123
-120
-116
-112
-109
-104
-100
-98
-96
-90
-87
-86
-83
-80
-76
-70
-65
-64
-64
-59
-53
-51
-50
-49
-49
-48
-46
-43
-40
-39
-40
-41
-39
-37
-33
-31
-31
-31
-30
-28
-25
-23
-22
-24
-23
-22
-22
-23
-20
-15
-15
-17
-14
-10
-11
-16
-16
-16
-17
-14
-11
-15
-20
-20
-20
-23
-24
-23
-25
-28
-27
-26
-28
-31
-36
-45
-48
-33
-9
14
26
12
-21
-42
-42
-43
-47
-43
-43
-60
-58
-38
-54
-55
-26
-85
-150
-14
269
773
1482
1495
367
-611
-518
-151
-123
-117
-48
-64
-73
-39
-36
-34
-12
-4
-2
14
31
42
55
69
84
101
117
129
145
168
191
211
231
254
275
289
301
312
318
315
307
292
264
222
166
106
51
3
-39
-73
-99
-118
-132
-144
-147
-144
-142
-144
-141
-138
-142
-150
-156
-161
-165
-167
-167
-166
-167
-167
-166
-168
-170
-164
-155
-152
-149
-144
-143
-141
-133
-129
-132
-128
-121
-119
-119
-117
-112
-109
-106
-102
-95
-90
-90
-87
-80
-77
-78
-76
-72
-70
-68
-65
-65
-66
-64
-61
-61
-60
-58
-54
-47
-46
-50
-50
-46
-48
-51
-46
-47
-63
-68
-46
-15
9
18
1
-31
-39
-27
-30
-37
-32
-40
-47
-30
-37
-44
1
-37
-146
-60
200
645
1500
1967
983
-437
-677
-207
-85
-124
-41
-30
-62
-28
-8
-12
6
21
26
40
53
64
80
94
111
131
145
159
179
201
225
254
281
303
327
350
367
376
379
379
368
337
286
224
151
71
-4
-64
-109
-143
-167
-181
-188
-190
-190
-190
-190
-184
-176
-173
-173
-171
-174
-179
-181
-180
-182
-185
-187
-185
-182
-178
-174
-172
-170
-168
-164
-160
-156
-151
-148
-149
-149
-144
-138
-133
-128
-125
-123
-120
-114
-110
-109
-105
-103
-102
-99
-96
-96
-95
-93
-91
-90
-86
-82
-78
-77
-77
-82
-92
-94
-78
-51
-24
-3
-7
-40
-64
-58
-52
-60
-58
-50
-59
-57
-40
-55
-58
-21
-71
-148
-38
207
673
1457
1674
622
-511
-541
-137
-75
-96
-37
-47
-58
-19
-13
-16
9
25
30
44
57
69
86
104
119
136
158
181
203
225
249
274
299
322
344
362
375
382
382
375
357
319
262
192
115
42
-14
-57
-91
-113
-125
-136
-143
-141
-136
-132
-129
-127
-127
-126
-126
-125
-126
-129
-132
-132
-132
-133
-132
-129
-127
-125
-123
-121
-118
-114
-110
-106
-102
-98
-95
-95
-93
-88
-85
-82
-79
-77
-74
-68
-62
-59
-59
-59
-58
-58
-57
-57
-55
-51
-49
-49
-50
-48
-45
-45
-45
-45
-45
-46
-44
-41
-38
-39
-41
-40
-37
-36
-35
-35
-37
-37
-35
-34
-34
-32
-30
-31
-32
-31
-30
-28
-27
-28
-30
-29
-27
-28
-31
-33
-31
-35
-49
-53
-32
-5
16
28
17
-17
-41
-40
-37
-44
-44
-41
-50
-47
-33
-52
-56
-19
-65
-142
-35
220
660
1333
1474
519
-477
-501
-153
-95
-102
-48
-60
-70
-37
-29
-30
-12
-2
6
20
30
40
57
75
90
105
119
135
155
174
191
208
226
244
261
275
285
291
295
296
290
273
244
202
153
103
56
11
-27
-57
-77
-91
-101
-111
-120
-125
-125
-124
-124
-126
-127
-128
-133
-139
-141
-142
-145
-148
-150
-149
-146
-142
-140
-137
-131
-124
-121
-121
-120
-114
-111
-111
-108
-103
-101
-100
-96
-92
-89
-86
-84
-81
-78
-75
-72
-71
-68
-64
-62
-62
-58
-51
-49
-52
-52
-49
-47
-45
-45
-47
-46
-42
-44
-47
-45
-41
-37
-35
-34
-33
-37
-41
-38
-34
-36
-41
-39
-32
-28
-30
-34
-31
-27
-29
-35
-42
-47
-44
-24
4
28
30
5
-26
-35
-30
-32
-33
-26
-34
-45
-30
-29
-47
-14
-16
-122
-100
140
531
1222
1737
1067
-276
-725
-313
-95
-121
-53
-21
-55
-31
-6
-14
0
19
21
33
49
57
73
94
106
114
130
148
161
173
191
213
232
250
271
292
306
313
320
324
317
299
274
237
185
128
72
21
-23
-59
-90
-113
-129
-137
-143
-150
-152
-150
-147
-148
-152
-157
-156
-156
-164
-172
-170
-167
-170
-172
-169
-167
-167
-167
-160
-153
-150
-147
-145
-144
-143
-138
-134
-134
-133
-130
-126
-123
-118
-115
-114
-110
-105
-101
-99
-99
-97
-93
-89
-86
-83
-82
-84
-84
-82
-80
-75
-69
-70
-72
-70
-66
-66
-65
-61
-59
-58
-59
-61
-69
-77
-70
-46
-17
10
19
-6
-43
-51
-41
-44
-49
-44
-50
-57
-35
-33
-55
-21
-22
-121
-93
125
477
1162
1715
1088
-230
-676
-274
-61
-96
-46
-24
-53
-27
-3
-9
7
27
32
44
63
76
90
106
120
135
152
170
192
213
232
255
280
302
323
343
357
363
367
368
357
331
291
237
171
101
38
-15
-56
-86
-106
-120
-128
-131
-133
-136
-134
-130
-128
-127
-127
-130
-132
-133
-137
-143
-148
-148
-147
-145
-142
-141
-139
-135
-132
-131
-128
-125
-123
-120
-115
-110
-105
-102
-101
-99
-93
-89
-90
-88
-81
-78
-78
-77
-72
-68
-66
-65
-64
-61
-61
-62
-62
-59
-57
-54
-53
-52
-52
-51
-48
-44
-45
-47
-45
-44
-46
-45
-40
-40
-41
-38
-35
-38
-40
-37
-33
-35
-37
-34
-31
-31
-33
-34
-34
-35
-37
-37
-41
-52
-54
-34
-7
13
24
14
-19
-42
-40
-37
-46
-48
-44
-54
-54
-41
-58
-59
-24
-73
-141
-21
230
668
1353
1490
504
-503
-511
-158
-106
-108
-45
-57
-69
-34
-25
-27
-7
8
18
31
39
48
65
81
95
113
133
151
169
188
206
226
248
267
284
300
312
318
321
322
316
298
267
223
171
117
64
16
-24
-55
-77
-92
-103
-111
-116
-117
-117
-118
-117
-113
-115
-122
-126
-128
-131
-137
-140
-140
-139
-138
-138
-140
-139
-132
-123
-119
-119
-115
-112
-110
-108
-102
-99
-97
-94
-90
-87
-86
-84
-81
-79
-78
-73
-66
-61
-60
-61
-60
-59
-60
-60
-57
-54
-54
-55
-54
-54
-52
-50
-49
-53
-55
-53
-50
-49
-49
-48
-45
-43
-45
-48
-48
-46
-43
-44
-47
-47
-43
-40
-41
-46
-48
-47
-54
-64
-55
-30
-5
14
15
-11
-40
-48
-48
-59
-65
-56
-57
-67
-55
-54
-77
-51
-36
-134
-145
71
439
1077
1647
1148
-160
-742
-387
-124
-144
-95
-54
-81
-62
-36
-45
-33
-9
0
8
21
30
43
60
75
92
108
122
136
155
176
196
217
241
263
280
295
309
316
318
314
301
273
232
179
119
60
7
-38
-72
-98
-120
-136
-141
-144
-148
-144
-133
-132
-138
-137
-133
-133
-133
-132
-138
-146
-147
-144
-143
-138
-133
-134
-131
-121
-116
-114
-107
-99
-94
-91
-88
-84
-76
-68
-64
-59
-53
-48
-44
-40
-36
-35
-33
-30
-23
-17
-15
-11
-6
-2
0
3
8
10
11
15
20
24
25
27
27
27
30
34
33
26
20
15
20
37
62
90
102
78
45
37
41
35
28
30
30
26
25
