# session 14
9
8
24
-25
-126
-160
-132
-124
-131
-129
-129
-129
-119
-111
-111
-114
-115
-109
-99
-95
-96
-91
-85
-82
-78
-73
-71
-67
-62
-64
-67
-60
-52
-51
-48
-43
-44
-44
-38
-37
-44
-43
-33
-27
-31
-31
-26
-26
-32
-33
-28
-26
-29
-29
-24
-24
-28
-28
-26
-27
-28
-30
-30
-29
-28
-28
-24
-22
-25
-28
-26
-26
-26
-26
-28
-29
-27
-28
-34
-35
-30
-28
-29
-35
-44
-53
-57
-47
-24
-5
9
18
-1
-39
-50
-39
-46
-56
-47
-55
-70
-52
-47
-66
-43
-54
-140
-109
82
439
1123
1581
927
-220
-546
-227
-101
-130
-77
-65
-93
-71
-50
-47
-31
-19
-15
0
13
21
39
59
71
87
108
127
147
171
192
207
225
248
268
283
295
304
308
306
299
279
245
198
140
78
23
-24
-64
-90
-106
-120
-131
-130
-121
-119
-124
-123
-117
-113
-115
-118
-118
-119
-126
-134
-136
-133
-131
-135
-139
-132
-119
-115
-116
-113
-110
-110
-108
-103
-102
-99
-95
-91
-88
-86
-86
-77
-67
-65
-65
-61
-61
-65
-61
-52
-52
-57
-58
-55
-54
-51
-43
-39
-44
-47
-46
-45
-44
-44
-45
-40
-36
-43
-48
-39
-34
-41
-42
-36
-37
-40
-37
-35
-35
-37
-39
-37
-32
-27
-27
-34
-39
-33
-29
-36
-40
-38
-45
-52
-38
-16
4
27
29
-7
-40
-38
-32
-42
-42
-37
-49
-46
-27
-45
-50
-11
-62
-144
-28
251
745
1469
1557
470
-567
-530
-150
-113
-122
-49
-56
-70
-35
-23
-22
-5
7
16
27
33
46
69
87
98
110
131
152
173
197
220
239
260
287
308
320
333
340
339
338
326
293
246
189
123
59
6
-40
-77
-105
-124
-135
-140
-142
-143
-145
-146
-137
-128
-132
-136
-135
-140
-145
-145
-153
-162
-155
-144
-147
-152
-148
-143
-144
-143
-135
-127
-124
-124
-123
-119
-113
-110
-110
-107
-102
-96
-87
-83
-89
-90
-80
-73
-76
-79
-76
-72
-71
-69
-64
-64
-69
-67
-58
-55
-58
-60
-60
-60
-59
-54
-47
-45
-52
-54
-45
-41
-49
-50
-45
-46
-46
-41
-40
-43
-42
-37
-37
-48
-59
-48
-20
4
22
30
3
-37
-43
-31
-41
-51
-42
-43
-43
-29
-41
-46
-8
-49
-137
-56
173
577
1273
1560
715
-359
-502
-157
-79
-106
-52
-45
-58
-32
-22
-23
-4
11
18
27
36
48
67
87
105
122
140
160
181
202
226
253
276
294
310
328
343
349
349
345
331
300
251
186
115
51
-3
-53
-94
-116
-124
-127
-134
-139
-139
-138
-138
-134
-129
-129
-129
-129
-133
-137
-139
-142
-146
-143
-138
-136
-136
-134
-134
-133
-128
-125
-125
-124
-118
-115
-118
-117
-109
-103
-104
-104
-98
-93
-90
-91
-94
-90
-79
-74
-75
-75
-71
-67
-64
-64
-65
-62
-60
-66
-70
-63
-55
-55
-54
-52
-56
-58
-53
-51
-52
-52
-51
-47
-39
-36
-42
-49
-51
-46
-40
-36
-36
-42
-45
-42
-46
-58
-52
-25
-1
18
27
7
-24
-35
-34
-38
-33
-25
-39
-45
-26
-35
-44
-6
-40
-133
-49
207
636
1354
1652
735
-454
-610
-195
-79
-101
-35
-27
-45
-18
-10
-15
5
20
23
32
44
59
80
93
99
117
143
159
172
193
218
246
274
297
317
334
348
357
362
360
347
317
271
211
137
60
0
-45
-85
-119
-144
-157
-159
-160
-162
-163
-160
-158
-155
-153
-157
-163
-167
-170
-171
-172
-173
-178
-184
-181
-170
-166
-169
-165
-158
-156
-152
-143
-141
-144
-136
-127
-129
-128
-121
-119
-118
-114
-113
-108
-97
-94
-94
-87
-84
-87
-84
-79
-75
-69
-67
-74
-76
-68
-67
-71
-70
-65
-65
-65
-61
-59
-60
-60
-60
-66
-76
-72
-49
-22
2
17
4
-35
-57
-48
-41
-44
-39
-42
-53
-42
-40
-57
-29
-24
-113
-112
66
397
1075
1684
1188
-76
-611
-285
-68
-99
-61
-34
-62
-40
-16
-25
-10
15
20
28
46
59
72
89
105
123
146
163
176
197
226
252
275
299
325
346
359
365
366
361
344
315
269
204
125
50
-13
-62
-95
-118
-138
-148
-150
-149
-148
-144
-140
-135
-127
-124
-132
-140
-137
-131
-135
-139
-140
-142
-143
-138
-132
-128
-128
-131
-132
-125
-115
-109
-105
-102
-103
-106
-105
-100
-95
-92
-93
-95
-92
-88
-88
-85
-81
-82
-82
-79
-78
-77
-73
-69
-68
-69
-72
-71
-65
-61
-62
-62
-59
-55
-55
-58
-53
-44
-44
-50
-52
-49
-45
-43
-43
-47
-57
-65
-54
-34
-19
3
24
4
-41
-53
-34
-34
-50
-48
-47
-58
-52
-52
-65
-29
-19
-115
-117
83
438
1107
1681
1130
-185
-713
-334
-88
-120
-72
-28
-55
-39
-14
-19
-9
6
12
25
40
52
69
83
94
113
134
150
167
189
215
239
263
288
313
335
350
360
365
365
357
336
301
247
173
91
23
-26
-68
-107
-136
-146
-147
-153
-156
-150
-152
-157
-141
-125
-139
-153
-142
-148
-180
-203
-203
-193
-179
-175
-182
-182
-172
-170
-178
-179
-166
-155
-151
-146
-143
-148
-138
-113
-117
-152
-155
-118
-115
-145
-136
-89
-71
-86
-96
-102
-106
-98
-93
-100
-108
-113
-116
-107
-91
-87
-100
-114
-112
-83
-35
-6
-27
-67
-73
-60
-61
-57
-37
-44
-71
-55
-25
-49
-62
-45
-104
-149
-41
192
771
1634
1683
506
-475
-392
-86
-98
-99
-42
-61
-57
-16
-22
-31
-1
28
43
50
52
66
100
116
115
145
193
199
194
237
276
265
270
322
360
361
369
397
398
360
312
260
189
109
43
-9
-49
-77
-103
-134
-159
-172
-175
-167
-141
-119
-123
-125
-115
-128
-156
-163
-153
-145
-142
-149
-159
-161
-149
-133
-126
-133
-135
-125
-128
-136
-127
-117
-118
-107
-90
-100
-121
-112
-90
-95
-111
-96
-74
-83
-99
-96
-89
-88
-86
-81
-70
-69
-78
-76
-69
-74
-67
-48
-47
-55
-47
-44
-47
-39
-35
-53
-71
-67
-59
-70
-72
-40
-18
-33
-26
10
6
-29
-34
-29
-49
-58
-51
-65
-69
-22
0
-34
-36
-45
-131
-132
62
441
1074
1505
946
-162
-585
-302
-100
-88
-59
-56
-66
-30
-10
-6
22
33
16
23
54
74
77
82
102
120
119
131
169
194
210
234
234
229
260
279
264
274
293
274
261
277
253
182
124
75
11
-23
-21
-47
-98
-112
-104
-107
-106
-106
-125
-122
-93
-108
-147
-123
-80
-114
-164
-139
-105
-137
-190
-200
-182
-166
-154
-141
-129
-127
-132
-135
-135
-128
-117
-111
-109
-108
-112
-107
-93
-91
-100
-96
-93
-101
-104
-92
-79
-77
-89
-107
-108
-90
-78
-85
-99
-105
-98
-81
-67
-58
-49
-46
-47
-45
-44
-33
-10
-10
-29
-11
25
11
-13
6
11
-17
-8
18
0
13
45
-36
-108
47
421
1012
1509
1079
-143
-783
-455
-120
-121
-91
-35
-65
-66
-30
-22
-12
8
13
21
34
40
47
57
65
81
108
131
154
179
201
223
248
264
269
278
290
301
315
323
306
282
274
245
169
83
19
-28
-65
-93
-119
-140
-141
-126
-119
-128
-138
-139
-141
-150
-150
-139
-144
-164
-172
-168
-169
-168
-165
-163
-157
-150
-157
-162
-145
-130
-138
-145
-136
-127
-119
-108
-106
-120
-140
-142
-124
-117
-128
-123
-101
-92
-86
-77
-91
-110
-109
-108
-114
-97
-64
-36
-11
-6
-48
-94
-92
-75
-76
-75
-75
-83
-66
-55
-80
-64
-37
-113
-144
15
313
908
1582
1310
77
-650
-394
-95
-98
-74
-35
-57
-37
-2
-6
-3
13
14
18
39
54
58
69
98
126
139
152
179
206
228
255
287
315
340
362
372
365
353
355
351
307
237
174
108
25
-43
-86
-125
-156
-168
-170
-164
-152
-148
-152
-152
-150
-150
-145
-140
-145
-152
-154
-154
-154
-154
-153
-151
-145
-138
-134
-132
-130
-130
-128
-123
-119
-114
-110
-113
-118
-111
-100
-100
-100
-95
-94
-98
-94
-89
-89
-87
-81
-79
-85
-86
-82
-79
-77
-75
-75
-85
-95
-87
-61
-34
-11
-1
-21
-58
-71
-58
-55
-68
-73
-75
-74
-60
-64
-75
-39
-48
-133
-96
106
458
1118
1577
943
-227
-593
-255
-82
-97
-52
-42
-67
-42
-20
-20
-5
12
21
34
50
63
77
91
108
126
141
154
172
195
221
246
267
286
307
322
331
337
341
338
324
294
243
175
110
51
-9
-61
-93
-110
-124
-133
-137
-135
-134
-139
-148
-150
-143
-141
-150
-160
-167
-166
-158
-156
-166
-166
-155
-150
-147
-145
-164
-184
-166
-134
-126
-107
-72
-91
-153
-165
-128
-123
-145
-131
-92
-89
-122
-128
-101
-93
-99
-93
-93
-96
-80
-63
-60
-64
-80
-100
-102
-91
-70
-30
2
2
-9
-20
-43
-72
-83
-72
-58
-66
-72
-47
-46
-84
-61
-20
-83
-111
30
337
964
1570
1180
-22
-626
-352
-103
-115
-80
-29
-33
-31
-35
-35
0
13
3
32
64
50
44
81
114
120
127
158
195
202
189
201
237
261
280
303
309
305
310
311
302
286
244
176
116
66
13
-28
-53
-77
-94
-102
-110
-116
-115
-118
-125
-121
-115
-123
-138
-147
-152
-151
-148
-150
-150
-133
-128
-150
-159
-144
-142
-150
-139
-125
-128
-126
-115
-112
-116
-111
-103
-100
-102
-101
-96
-92
-90
-85
-79
-79
-86
-86
-80
-75
-69
-66
-72
-75
-69
-66
-68
-61
-57
-72
-88
-73
-39
-22
-15
-2
-9
-45
-64
-55
-53
-63
-64
-62
-68
-61
-51
-67
-60
-37
-91
-123
16
296
783
1325
1136
114
-574
-410
-128
-94
-58
-16
-41
-36
-7
-7
-2
17
22
30
50
65
76
94
112
124
133
146
164
183
202
215
223
236
258
277
288
293
287
277
273
264
236
198
157
105
55
19
-10
-38
-56
-71
-92
-108
-111
-113
-118
-121
-122
-121
-119
-123
-136
-152
-163
-162
-154
-145
-140
-142
-148
-146
-138
-136
-139
-131
-117
-115
-123
-124
-117
-113
-113
-114
-110
-101
-98
-103
-100
-88
-84
-89
-90
-88
-88
-81
-75
-77
-76
-71
-73
-75
-68
-64
-67
-67
-63
-63
-73
-81
-69
-48
-31
-9
7
-13
-50
-61
-52
-52
-53
-42
-44
-57
-53
-56
-66
-32
-28
-108
-92
113
485
1070
1390
742
-305
-587
-252
-80
-78
-27
-11
-29
-8
5
0
14
28
33
43
57
68
79
93
111
128
139
151
167
181
193
212
230
239
247
262
270
265
259
257
253
244
220
175
130
90
43
-3
-31
-51
-76
-100
-107
-102
-105
-114
-114
-117
-133
-139
-132
-135
-148
-151
-146
-145
-148
-143
-137
-141
-148
-146
-140
-139
-131
-120
-120
-129
-127
-116
-110
-108
-105
-103
-99
-94
-89
-87
-85
-82
-83
-84
-80
-77
-78
-77
-77
-78
-74
-67
-68
-73
-74
-81
-87
-71
-41
-18
0
7
-18
-56
-67
-59
-55
-50
-48
-66
-77
-60
-63
-73
-38
-55
-133
-64
211
669
1235
1262
340
-576
-575
-195
-87
-76
-18
-23
-41
-15
2
8
22
30
39
52
60
71
90
106
120
135
148
164
184
199
207
220
237
254
267
277
277
271
269
268
251
219
182
142
102
66
26
-14
-44
-65
-86
-105
-116
-125
-134
-134
-132
-136
-144
-148
-150
-153
-152
-149
-156
-166
-167
-155
-147
-151
-148
-132
-127
-135
-133
-127
-135
-138
-122
-112
-115
-114
-110
-106
-100
-95
-97
-97
-89
-83
-83
-85
-83
-74
-70
-74
-80
-79
-79
-88
-89
-72
-48
-24
1
10
-19
-56
-64
-56
-56
-55
-54
-65
-64
-49
-60
-56
-20
-65
-138
-41
243
748
1343
1265
261
-557
-469
-137
-74
-66
-28
-39
-36
-10
-7
-2
17
37
61
72
67
69
85
99
110
125
141
158
174
187
203
221
235
248
262
265
254
250
257
253
229
195
153
110
73
37
-1
-24
-37
-58
-81
-89
-92
-96
-94
-96
-105
-105
-105
-124
-144
-143
-141
-145
-138
-133
-140
-144
-139
-140
-142
-139
-137
-135
-126
-120
-124
-127
-122
-119
-121
-122
-118
-112
-106
-103
-102
-101
-97
-92
-91
-92
-91
-90
-90
-89
-85
-82
-80
-79
-80
-88
-101
-101
-80
-53
-31
-8
-9
-45
-71
-62
-55
-58
-49
-55
-80
-79
-81
-97
-58
-47
-143
-130
102
509
1167
1555
826
-388
-697
-282
-99
-123
-58
-32
-58
-32
-11
-22
-14
11
31
38
37
50
73
89
103
122
142
163
178
185
196
217
234
247
259
267
268
262
256
259
261
242
208
174
141
100
55
19
-7
-30
-48
-59
-69
-76
-74
-74
-86
-97
-101
-106
-112
-115
-118
-123
-126
-125
-122
-119
-118
-116
-120
-124
-117
-105
-102
-107
-110
-106
-100
-96
-98
-97
-91
-89
-93
-89
-78
-74
-77
-79
-77
-75
-75
-75
-72
-68
-68
-72
-70
-66
-69
-73
-74
-82
-86
-67
-38
-18
-2
-5
-43
-77
-74
-64
-70
-72
-73
-86
-80
-66
-86
-80
-54
-122
-169
-9
328
862
1348
1000
-113
-729
-453
-131
-110
-95
-58
-73
-65
-35
-20
-12
-11
-5
15
20
17
40
75
87
88
104
124
129
133
158
186
195
196
204
214
223
225
215
206
207
192
147
103
75
35
-10
-28
-47
-87
-106
-103
-113
-127
-133
-138
-128
-108
-108
-124
-132
-136
-126
-96
-88
-106
-85
-50
-74
-102
-57
-12
-45
-90
-77
-41
-30
-34
-34
-34
-37
-28
-11
-21
-41
-18
11
-15
-45
-22
-7
-24
-7
27
10
-16
5
28
17
12
29
19
-27
-24
28
43
69
101
4
-64
97
203
78
17
84
70
26
53
73
62
52
16
