# session 25
14
19
9
45
119
142
110
90
86
77
69
67
64
60
59
56
51
43
35
28
20
11
4
-1
-6
-8
-9
-11
-15
-17
-16
-15
-15
-17
-19
-20
-18
-15
-14
-17
-20
-21
-21
-21
-21
-21
-21
-23
-24
-24
-26
-27
-26
-25
-27
-30
-30
-28
-27
-29
-31
-31
-31
-31
-32
-34
-35
-34
-33
-35
-37
-37
-37
-37
-36
-36
-38
-41
-42
-42
-42
-41
-40
-41
-42
-41
-41
-43
-46
-48
-49
-51
-53
-55
-54
-50
-51
-57
-62
-68
-76
-72
-50
-21
0
-1
-27
-57
-65
-60
-65
-73
-68
-64
-72
-67
-63
-85
-69
-47
-126
-147
50
388
956
1531
1180
-48
-719
-428
-131
-138
-101
-52
-78
-65
-34
-39
-30
-6
2
10
26
37
47
59
74
91
106
120
137
155
173
194
215
235
256
276
292
306
313
314
315
313
295
258
210
155
97
46
0
-39
-66
-88
-105
-113
-116
-123
-122
-115
-115
-118
-115
-115
-122
-127
-131
-137
-143
-147
-148
-149
-151
-149
-143
-140
-141
-141
-137
-131
-124
-121
-118
-115
-113
-111
-111
-108
-103
-98
-98
-98
-95
-90
-86
-83
-79
-76
-76
-75
-73
-69
-64
-63
-62
-58
-56
-56
-53
-50
-52
-51
-49
-48
-47
-46
-46
-45
-42
-43
-43
-43
-44
-45
-42
-40
-41
-39
-35
-36
-40
-40
-45
-55
-50
-29
-2
22
24
-7
-40
-44
-34
-37
-42
-36
-40
-47
-31
-31
-53
-22
-23
-122
-97
124
477
1148
1704
1099
-225
-698
-298
-76
-111
-57
-27
-62
-39
-13
-21
-11
11
18
28
41
53
67
83
99
118
134
148
165
188
213
235
256
281
308
328
347
364
375
377
375
363
330
278
211
135
62
-2
-54
-93
-120
-137
-146
-151
-155
-157
-154
-148
-144
-141
-139
-138
-139
-142
-150
-155
-152
-151
-155
-158
-156
-154
-151
-146
-144
-143
-142
-139
-135
-131
-128
-124
-122
-121
-119
-113
-109
-106
-103
-101
-100
-97
-93
-90
-88
-86
-82
-78
-76
-76
-76
-73
-70
-70
-71
-70
-68
-66
-64
-63
-63
-63
-62
-60
-57
-55
-54
-53
-53
-52
-50
-47
-46
-46
-44
-41
-41
-42
-46
-58
-59
-39
-15
5
22
16
-17
-43
-40
-34
-43
-48
-43
-49
-53
-38
-45
-53
-19
-47
-130
-58
168
551
1225
1561
771
-347
-550
-187
-76
-105
-53
-47
-66
-40
-26
-25
-5
9
15
30
44
54
70
87
103
120
137
155
177
199
221
243
264
287
310
332
348
359
366
368
360
338
300
249
184
111
42
-14
-58
-91
-113
-126
-134
-138
-137
-132
-126
-121
-117
-114
-113
-114
-116
-119
-123
-127
-130
-132
-133
-133
-134
-134
-132
-130
-129
-126
-121
-119
-119
-118
-114
-109
-104
-102
-100
-97
-93
-91
-87
-84
-81
-77
-73
-71
-68
-66
-64
-62
-61
-61
-60
-57
-55
-54
-53
-52
-51
-49
-49
-48
-46
-45
-44
-42
-39
-38
-37
-35
-34
-34
-34
-31
-28
-26
-25
-25
-25
-25
-24
-23
-22
-23
-24
-26
-26
-24
-25
-28
-28
-28
-30
-30
-32
-41
-46
-34
-11
10
25
24
-1
-29
-37
-34
-40
-47
-40
-42
-52
-39
-36
-60
-40
-28
-110
-109
91
405
959
1482
1078
-73
-620
-327
-90
-110
-79
-49
-73
-55
-28
-32
-23
-4
1
9
24
36
50
65
77
90
107
126
146
164
181
201
222
242
264
286
301
310
319
324
319
309
291
258
210
151
91
40
-4
-43
-72
-92
-104
-113
-119
-126
-128
-123
-120
-121
-122
-123
-128
-133
-136
-139
-142
-144
-144
-145
-147
-145
-138
-133
-133
-132
-128
-125
-122
-117
-113
-111
-109
-107
-103
-98
-95
-94
-91
-89
-87
-85
-81
-76
-74
-73
-69
-65
-64
-63
-57
-53
-53
-53
-50
-47
-46
-46
-46
-47
-47
-44
-40
-38
-39
-40
-39
-37
-37
-38
-36
-35
-37
-39
-37
-36
-35
-34
-33
-34
-34
-34
-32
-32
-33
-37
-45
-53
-52
-35
-9
16
29
12
-26
-45
-36
-33
-42
-40
-37
-54
-50
-32
-50
-44
-12
-84
-138
28
335
869
1562
1442
210
-698
-499
-130
-118
-99
-31
-55
-57
-20
-21
-21
1
11
21
36
45
53
69
84
97
111
127
145
164
182
203
226
246
265
286
305
318
325
329
331
326
308
278
234
177
117
62
13
-32
-68
-94
-114
-127
-134
-137
-139
-140
-138
-136
-137
-138
-143
-149
-152
-154
-157
-158
-156
-157
-159
-158
-155
-149
-143
-141
-140
-137
-134
-131
-126
-121
-120
-117
-112
-107
-105
-102
-99
-95
-91
-89
-87
-82
-79
-79
-79
-76
-71
-69
-69
-69
-68
-66
-64
-62
-62
-60
-57
-55
-56
-55
-54
-57
-57
-54
-53
-52
-47
-44
-45
-46
-44
-43
-43
-43
-52
-64
-59
-34
-11
9
21
4
-32
-48
-40
-40
-49
-47
-44
-55
-49
-40
-58
-44
-19
-94
-133
23
303
843
1532
1401
236
-584
-403
-95
-99
-90
-41
-62
-59
-26
-26
-21
-1
7
15
30
41
55
73
87
102
120
137
154
175
197
218
241
268
291
309
324
335
338
335
327
309
281
245
195
127
60
12
-27
-72
-110
-128
-137
-148
-151
-146
-145
-144
-135
-132
-145
-152
-144
-136
-129
-119
-125
-151
-168
-171
-165
-145
-134
-144
-152
-153
-157
-141
-105
-84
-78
-73
-68
-62
-60
-70
-73
-61
-54
-60
-55
-29
1
4
-26
-51
-38
-11
-15
-34
-30
-18
-22
-37
-63
-80
-57
-36
-58
-77
-75
-82
-82
-61
-44
-33
-40
-81
-102
-68
-40
-46
-42
-24
-24
-44
-61
-51
-30
-41
-72
-76
-57
-45
-28
13
47
31
-26
-66
-62
-45
-43
-47
-56
-66
-55
-44
-57
-33
-4
-78
-114
45
328
828
1392
1158
57
-625
-397
-104
-112
-105
-56
-62
-52
-28
-27
-20
-8
0
23
46
56
69
77
70
77
117
165
186
181
186
212
230
234
258
309
346
339
310
311
337
339
316
282
220
135
75
43
-7
-60
-75
-76
-105
-136
-136
-133
-145
-161
-162
-136
-109
-124
-158
-167
-158
-153
-153
-158
-157
-149
-159
-182
-179
-159
-158
-170
-166
-146
-132
-132
-134
-122
-110
-120
-139
-145
-135
-113
-102
-118
-121
-95
-92
-113
-110
-91
-85
-79
-81
-98
-101
-76
-61
-71
-81
-80
-82
-91
-89
-69
-43
-10
11
-10
-51
-62
-57
-59
-56
-58
-85
-95
-54
-27
-68
-81
-28
-65
-155
-53
249
765
1474
1544
416
-703
-691
-240
-121
-91
-21
-41
-42
8
-2
-16
29
56
45
45
60
72
86
112
149
164
152
164
204
221
224
254
293
321
338
339
345
364
366
361
375
354
273
196
140
72
20
0
-40
-105
-139
-142
-145
-144
-145
-155
-141
-113
-123
-150
-154
-159
-172
-161
-153
-182
-199
-169
-150
-172
-182
-168
-170
-179
-167
-148
-148
-157
-157
-160
-168
-153
-132
-132
-135
-132
-141
-134
-111
-114
-125
-107
-98
-115
-121
-115
-107
-88
-85
-106
-105
-90
-100
-113
-77
-18
2
-31
-69
-78
-80
-93
-98
-85
-75
-74
-60
-55
-75
-59
-60
-149
-135
98
502
1241
1871
1244
-277
-917
-477
-155
-145
-56
-15
-73
-42
12
-9
-14
23
43
48
62
82
102
116
116
120
149
182
198
216
251
278
293
318
342
353
374
404
414
418
421
392
337
286
218
127
49
-9
-66
-104
-117
-134
-161
-172
-167
-171
-182
-178
-169
-168
-168
-171
-182
-184
-179
-190
-205
-205
-203
-207
-204
-192
-179
-174
-189
-205
-187
-170
-185
-177
-142
-154
-187
-166
-139
-154
-154
-126
-131
-160
-157
-129
-112
-113
-119
-119
-118
-130
-143
-121
-75
-43
-34
-37
-61
-94
-105
-99
-92
-81
-84
-104
-85
-57
-86
-86
-56
-130
-173
-6
294
915
1757
1629
213
-804
-558
-139
-133
-105
-21
-58
-66
-10
-1
-4
19
29
37
59
76
91
110
116
135
173
184
179
217
276
298
298
316
355
391
407
417
440
448
431
413
373
290
205
141
80
19
-48
-122
-158
-145
-133
-146
-161
-167
-165
-157
-142
-138
-161
-178
-159
-141
-147
-157
-172
-191
-191
-179
-170
-162
-168
-176
-158
-143
-160
-173
-161
-149
-140
-127
-121
-128
-138
-139
-123
-105
-106
-124
-130
-113
-97
-90
-88
-101
-112
-94
-73
-86
-104
-91
-73
-79
-87
-77
-69
-74
-84
-94
-90
-68
-51
-38
-8
11
-17
-65
-79
-58
-46
-64
-77
-73
-69
-54
-55
-80
-50
-24
-115
-130
69
438
1117
1691
1136
-176
-692
-320
-96
-131
-74
-38
-67
-36
-1
-17
-10
27
47
41
37
56
80
92
106
125
145
176
203
210
216
235
251
278
319
337
339
363
385
378
369
355
302
236
190
135
66
15
-30
-77
-105
-115
-122
-123
-123
-127
-125
-126
-138
-143
-137
-139
-146
-152
-160
-166
-165
-164
-166
-172
-178
-175
-168
-166
-160
-147
-148
-153
-141
-126
-129
-145
-151
-141
-134
-132
-121
-108
-103
-98
-98
-115
-122
-104
-94
-94
-82
-73
-82
-84
-72
-59
-56
-60
-60
-50
-48
-56
-58
-48
-39
-41
-40
-32
-26
-33
-38
-30
-9
16
37
45
29
-9
-41
-41
-31
-36
-41
-42
-54
-53
-38
-51
-46
-17
-78
-139
-8
269
760
1401
1336
244
-627
-495
-142
-104
-86
-25
-41
-44
-9
-6
-10
7
19
30
45
56
64
77
94
112
129
145
160
177
195
213
234
255
273
287
302
316
323
324
324
320
299
257
204
145
85
33
-7
-42
-75
-99
-114
-123
-133
-139
-139
-139
-141
-143
-146
-151
-156
-162
-171
-174
-173
-174
-175
-174
-174
-175
-175
-175
-172
-167
-164
-162
-157
-150
-145
-144
-142
-139
-139
-137
-131
-126
-127
-126
-119
-115
-114
-115
-111
-104
-98
-96
-94
-93
-96
-103
-100
-82
-60
-37
-13
-12
-46
-76
-76
-68
-74
-74
-66
-77
-82
-62
-69
-77
-38
-75
-171
-80
213
714
1459
1636
549
-651
-700
-235
-117
-108
-24
-31
-47
-2
8
1
25
40
44
61
77
86
101
121
139
154
168
184
202
220
240
264
288
309
328
344
357
365
367
361
350
327
285
225
157
90
30
-20
-61
-92
-112
-132
-147
-147
-144
-149
-151
-147
-151
-158
-162
-164
-171
-178
-181
-182
-186
-190
-188
-187
-189
-188
-180
-176
-176
-172
-167
-167
-164
-156
-151
-149
-145
-139
-136
-135
-131
-128
-126
-123
-121
-118
-114
-112
-111
-109
-105
-106
-115
-121
-111
-89
-65
-37
-17
-32
-70
-85
-74
-75
-87
-82
-78
-84
-71
-65
-85
-59
-45
-137
-142
54
400
1105
1791
1288
-148
-796
-399
-99
-119
-65
-19
-53
-33
1
-6
4
28
35
46
63
77
92
112
131
149
164
180
200
222
242
262
287
311
331
347
360
369
373
377
376
356
312
255
192
126
61
4
-39
-71
-95
-109
-119
-127
-133
-137
-139
-140
-144
-146
-149
-153
-159
-163
-166
-169
-171
-169
-171
-174
-170
-164
-161
-160
-157
-154
-152
-148
-144
-141
-140
-138
-132
-127
-126
-128
-126
-121
-117
-115
-113
-112
-110
-104
-97
-97
-102
-101
-97
-96
-95
-91
-90
-91
-89
-88
-91
-100
-107
-101
-81
-57
-29
-10
-25
-63
-82
-77
-74
-80
-77
-74
-83
-74
-61
-79
-71
-37
-99
-161
-39
216
733
1490
1521
392
-577
-485
-131
-104
-102
-48
-66
-63
-24
-22
-21
1
12
18
33
47
61
79
95
112
129
146
164
184
203
220
240
261
278
290
300
308
314
317
314
302
278
241
193
139
89
48
11
-19
-41
-56
-68
-78
-83
-85
-87
-92
-93
-92
-94
-100
-104
-107
-113
-118
-119
-120
-123
-124
-123
-122
-119
-113
-111
-111
-109
-103
-97
-93
-90
-87
-83
-79
-74
-71
-70
-68
-62
-58
-56
-53
-47
-45
-46
-45
-42
-37
-34
-35
-34
-30
-29
-29
-27
-26
-25
-24
-22
-20
-18
-19
-19
-14
-9
-9
-10
-7
-4
-4
-4
-4
-5
-5
-4
-4
-5
-4
-4
-6
-8
-8
-7
-7
-9
-12
-14
-18
-20
-19
-18
-19
-20
-20
-23
-26
-27
-27
-29
-30
-32
-35
-36
-36
-37
-39
-40
-40
-39
-41
-46
-49
-54
-63
-63
-44
-16
4
10
-8
-39
-56
-57
-59
-62
-57
-63
-72
-60
-60
-78
-52
-52
-137
-118
77
398
1010
1515
988
-182
-621
-295
-107
-132
-83
-58
-82
-59
-36
-42
-31
-14
-8
1
14
25
41
57
68
80
94
108
123
136
148
161
174
188
201
212
218
222
226
231
233
230
222
206
185
159
134
107
76
43
19
-2
-23
-40
-54
-67
-77
-80
-82
-89
-99
-107
-114
-120
-125
-129
-133
-135
-137
-139
-137
-133
-132
-133
-131
-124
-117
-112
-108
-103
-98
-96
-96
-94
-90
-86
-85
-83
-78
-73
-71
-69
-66
-63
-61
-59
-55
-51
-50
-49
-45
-41
-41
-42
-40
-38
-38
-38
-37
-36
-34
-34
-34
-33
-31
-31
-28
-27
-28
-28
-27
-29
-30
-30
-30
-29
-26
-26
-26
-24
-26
-30
-30
-32
-42
-51
-42
-19
5
26
24
-10
-42
-44
-41
-50
-54
-52
-61
-62
-51
-67
-68
-33
-83
-158
-50
199
629
1302
1440
463
-541
-543
-175
-117
-127
-69
-79
-88
-55
-50
-51
-32
-23
-17
-1
10
19
36
54
68
82
97
113
128
143
159
176
191
204
216
226
233
236
238
236
228
212
186
150
110
69
28
-9
-41
-68
-87
-100
-111
-121
-129
-132
-131
-128
-129
-133
-136
-137
-138
-143
-147
-146
-142
-138
-135
-132
-129
-123
-116
-110
-105
-99
-93
-89
-84
-75
-66
-60
-55
-50
-43
-36
-28
