# session 20
-45
-66
-22
43
-37
-227
-298
-246
-232
-244
-227
-217
-220
-208
-193
-191
-192
-187
-179
-174
-169
-160
-164
-173
-159
-124
-95
-72
-65
-94
-123
-117
-103
-108
-106
-98
-105
-99
-80
-96
-93
-54
-112
-180
-46
228
734
1492
1558
411
-619
-530
-138
-102
-95
-24
-43
-48
-3
2
1
24
37
48
72
88
93
105
125
143
157
169
186
206
224
240
253
266
276
284
287
285
284
284
277
255
223
182
132
85
42
-1
-38
-63
-81
-95
-104
-112
-116
-117
-115
-117
-122
-129
-134
-134
-135
-137
-141
-147
-152
-152
-146
-142
-142
-139
-134
-131
-131
-128
-124
-123
-124
-120
-113
-112
-114
-111
-102
-97
-99
-101
-96
-89
-85
-85
-82
-79
-78
-78
-76
-74
-71
-70
-73
-74
-70
-65
-62
-60
-62
-67
-66
-61
-59
-58
-57
-59
-64
-69
-77
-78
-60
-31
-2
12
-6
-43
-59
-51
-50
-54
-50
-55
-59
-41
-44
-57
-25
-47
-144
-103
104
485
1232
1734
1004
-257
-588
-201
-51
-93
-42
-28
-52
-22
-2
-7
11
31
37
50
69
83
97
113
130
148
166
186
206
225
243
263
280
292
299
303
304
303
301
291
265
219
163
107
52
0
-41
-70
-90
-104
-117
-127
-134
-137
-136
-135
-136
-137
-138
-142
-147
-149
-149
-151
-155
-159
-158
-153
-146
-144
-145
-142
-136
-132
-128
-127
-127
-125
-122
-118
-114
-112
-110
-103
-97
-94
-94
-91
-88
-86
-84
-81
-75
-73
-74
-72
-67
-66
-68
-66
-62
-61
-60
-58
-56
-54
-51
-50
-52
-51
-49
-48
-47
-45
-48
-51
-43
-34
-34
-37
-34
-33
-35
-37
-38
-45
-44
-26
-4
15
34
28
-9
-35
-27
-23
-34
-33
-32
-46
-39
-28
-48
-34
-13
-91
-125
36
332
885
1498
1236
86
-593
-352
-72
-76
-54
-16
-37
-24
6
4
13
32
38
48
68
82
93
107
123
141
159
174
191
208
224
239
256
269
275
278
280
280
277
270
254
228
190
142
90
41
0
-34
-60
-81
-98
-110
-116
-121
-124
-125
-124
-124
-128
-135
-137
-139
-146
-151
-151
-154
-158
-158
-155
-151
-149
-149
-150
-148
-147
-145
-138
-130
-128
-128
-126
-122
-120
-118
-114
-108
-103
-101
-101
-98
-94
-91
-88
-84
-82
-83
-84
-81
-76
-73
-71
-70
-69
-67
-64
-62
-61
-62
-63
-63
-61
-59
-56
-54
-52
-51
-49
-46
-45
-47
-52
-59
-56
-38
-16
3
21
15
-20
-44
-37
-31
-38
-34
-34
-45
-34
-26
-47
-26
-10
-96
-102
106
462
1083
1633
1128
-171
-740
-365
-81
-88
-31
12
-23
-6
27
22
33
57
66
78
94
103
112
127
143
160
177
190
207
228
246
260
278
299
312
311
311
315
310
295
277
248
197
135
80
27
-24
-64
-91
-113
-130
-138
-143
-149
-152
-149
-146
-147
-153
-160
-161
-159
-164
-176
-181
-177
-173
-175
-178
-178
-177
-176
-172
-164
-156
-150
-153
-159
-154
-140
-135
-138
-136
-130
-126
-125
-123
-120
-119
-117
-108
-99
-101
-100
-94
-92
-92
-83
-77
-80
-80
-72
-70
-73
-71
-69
-70
-66
-63
-69
-74
-77
-86
-92
-79
-50
-15
9
-5
-45
-60
-45
-42
-46
-41
-48
-57
-40
-45
-64
-20
-30
-139
-92
139
529
1362
2013
1230
-301
-749
-268
-61
-109
-37
-11
-45
-9
16
6
29
54
56
67
88
101
110
128
150
169
183
198
217
242
270
297
315
326
345
366
373
369
366
353
316
262
198
121
40
-27
-78
-120
-153
-172
-180
-186
-188
-189
-187
-182
-177
-176
-177
-176
-177
-182
-185
-188
-192
-192
-190
-192
-196
-194
-189
-185
-183
-179
-176
-176
-173
-164
-157
-157
-157
-150
-144
-145
-143
-138
-136
-136
-133
-126
-122
-119
-116
-113
-111
-106
-100
-97
-97
-97
-96
-94
-97
-109
-119
-115
-97
-68
-32
-11
-29
-63
-75
-67
-67
-67
-62
-69
-72
-55
-64
-75
-28
-44
-151
-113
101
522
1385
1976
1155
-286
-664
-222
-55
-103
-43
-27
-59
-27
-2
-5
13
33
40
57
79
93
109
130
151
173
196
217
241
269
298
326
354
378
395
406
416
420
411
385
343
281
199
109
26
-41
-89
-122
-144
-157
-159
-157
-157
-159
-157
-153
-147
-142
-143
-147
-148
-146
-147
-150
-151
-151
-150
-148
-147
-146
-143
-139
-136
-135
-132
-125
-122
-122
-118
-114
-115
-113
-106
-102
-101
-97
-94
-92
-87
-82
-81
-81
-79
-76
-73
-73
-73
-70
-66
-65
-66
-65
-63
-62
-61
-60
-59
-55
-51
-51
-51
-51
-51
-51
-48
-46
-46
-47
-44
-42
-43
-41
-39
-39
-40
-36
-35
-38
-40
-45
-58
-60
-38
-14
5
24
22
-14
-42
-37
-31
-41
-43
-39
-49
-46
-33
-49
-46
-15
-76
-143
-32
212
730
1526
1611
488
-521
-458
-109
-91
-94
-32
-46
-52
-21
-21
-19
5
18
27
43
54
67
86
102
116
137
158
175
192
215
241
266
283
298
313
324
327
331
332
318
289
246
187
120
57
2
-45
-79
-100
-113
-125
-134
-137
-137
-134
-131
-132
-133
-134
-136
-140
-142
-144
-150
-156
-158
-158
-158
-151
-142
-143
-142
-131
-126
-136
-132
-115
-123
-134
-95
-53
-87
-157
-176
-152
-131
-120
-106
-96
-87
-73
-64
-79
-98
-97
-84
-73
-60
-55
-63
-64
-54
-55
-60
-57
-57
-57
-45
-23
-7
-22
-65
-80
-53
-34
-42
-41
-27
-38
-75
-89
-75
-79
-88
-61
-51
-90
-115
-101
-92
-91
-71
-41
-18
1
27
46
28
-4
-4
1
-12
5
42
37
25
36
14
5
47
-2
-86
17
313
878
1610
1583
447
-502
-423
-93
-68
-59
3
-11
-9
21
-6
-27
14
49
39
39
71
92
87
93
117
135
156
179
188
202
228
240
248
269
285
289
295
301
304
286
232
166
117
68
-1
-70
-111
-131
-154
-185
-203
-195
-183
-180
-166
-158
-181
-186
-152
-146
-175
-173
-162
-181
-189
-172
-170
-168
-156
-165
-178
-173
-174
-181
-164
-148
-157
-156
-135
-135
-155
-154
-133
-128
-139
-136
-120
-112
-111
-114
-121
-96
-58
-76
-123
-118
-93
-90
-77
-64
-75
-71
-62
-82
-72
-25
-20
-28
2
-4
-54
-61
-48
-68
-72
-44
-52
-80
-58
-36
-71
-70
-26
-82
-136
3
301
853
1519
1367
194
-650
-479
-128
-77
-53
-7
-7
22
35
6
18
50
53
71
99
91
85
116
144
152
169
202
225
245
279
309
320
335
362
372
369
372
373
365
345
293
209
127
53
-17
-71
-116
-164
-184
-165
-162
-179
-169
-149
-146
-137
-132
-155
-174
-177
-188
-189
-165
-156
-166
-168
-168
-168
-156
-149
-166
-188
-190
-167
-139
-133
-131
-113
-109
-119
-112
-106
-122
-125
-102
-98
-110
-107
-99
-98
-89
-76
-78
-83
-78
-75
-70
-59
-69
-92
-79
-39
-15
3
20
1
-36
-46
-50
-72
-79
-64
-64
-76
-70
-68
-68
-39
-71
-173
-117
167
643
1342
1606
648
-643
-854
-358
-150
-142
-60
-43
-66
-33
-11
-10
14
28
32
51
75
92
107
122
147
178
191
195
219
255
285
315
345
363
380
401
411
407
400
382
338
272
194
109
29
-37
-86
-123
-154
-174
-178
-172
-171
-173
-165
-152
-144
-143
-149
-158
-162
-168
-187
-197
-191
-194
-204
-201
-196
-202
-204
-199
-198
-203
-200
-194
-192
-187
-177
-170
-164
-154
-145
-139
-139
-138
-130
-118
-114
-116
-115
-118
-122
-109
-76
-41
-19
-27
-63
-85
-81
-78
-83
-74
-73
-85
-74
-68
-89
-62
-46
-145
-168
16
370
1105
1830
1348
-106
-790
-410
-104
-113
-53
-7
-42
-21
12
3
14
41
48
58
81
98
114
135
157
176
197
223
254
282
307
336
373
411
437
453
466
473
467
442
389
307
211
110
12
-74
-140
-181
-202
-212
-214
-210
-204
-200
-192
-179
-171
-171
-172
-168
-166
-171
-178
-183
-183
-181
-182
-186
-188
-184
-180
-179
-179
-179
-178
-174
-172
-166
-153
-145
-148
-154
-153
-149
-142
-135
-133
-134
-129
-119
-117
-122
-121
-116
-114
-119
-129
-131
-112
-82
-59
-42
-38
-62
-89
-92
-86
-93
-97
-87
-85
-90
-81
-87
-95
-57
-74
-167
-126
90
502
1259
1705
910
-359
-661
-256
-91
-112
-53
-38
-57
-28
-15
-19
7
28
33
50
68
77
93
116
137
157
179
203
232
261
289
316
343
366
387
404
418
425
415
387
347
288
203
108
25
-39
-87
-121
-142
-152
-155
-152
-145
-138
-129
-122
-120
-118
-111
-108
-114
-120
-122
-125
-126
-125
-125
-127
-127
-125
-122
-121
-117
-109
-104
-101
-95
-92
-94
-92
-85
-83
-83
-78
-72
-69
-67
-62
-59
-57
-54
-52
-48
-43
-38
-34
-34
-36
-35
-26
-20
-21
-25
-24
-18
-14
-13
-10
-6
-6
-8
-7
-3
-2
-3
-1
2
3
5
7
9
12
14
12
8
7
9
10
10
8
8
9
9
5
1
4
8
7
3
2
4
4
2
-1
-5
-7
-7
-9
-9
-5
-5
-10
-13
-11
-9
-12
-15
-11
-8
-12
-16
-16
-18
-22
-20
-16
-17
-22
-23
-18
-10
-7
-19
-34
-36
-38
-43
-40
-43
-51
-38
-40
-64
-36
-32
-125
-115
77
386
993
1539
1043
-167
-649
-310
-103
-134
-87
-56
-83
-66
-46
-52
-42
-31
-29
-17
-2
7
19
31
38
49
67
81
94
112
136
156
172
191
215
234
243
248
254
260
255
234
199
156
102
40
-18
-68
-111
-145
-165
-177
-191
-206
-209
-208
-211
-211
-210
-210
-206
-213
-229
-218
-219
-262
-214
-84
-163
-492
-709
-645
-534
-538
-462
-150
125
70
-115
-134
-59
-32
-19
0
4
12
33
50
68
92
114
134
158
183
206
231
258
288
325
366
409
455
501
543
569
573
553
512
448
365
275
180
80
-18
-104
-177
-236
-276
-297
-306
-309
-309
-303
-293
-276
-258
-251
-256
-257
-250
-245
-242
-238
-230
-222
-221
-219
-211
-212
-212
-189
-188
-200
-163
-171
-263
-229
-5
426
1184
1615
802
-482
-786
-362
-173
-174
-103
-83
-99
-61
-39
-39
-14
9
17
32
52
70
91
113
135
164
193
217
245
281
315
345
372
392
412
432
439
430
405
356
283
200
117
39
-27
-71
-99
-117
-124
-123
-119
-117
-117
-117
-112
-106
-104
-106
-109
-110
-110
-114
-116
-115
-115
-116
-112
-105
-102
-103
-102
-96
-92
-90
-89
-86
-80
-75
-72
-67
-62
-59
-60
-61
-60
-57
-56
-56
-55
-52
-52
-49
-42
-39
-39
-39
-39
-38
-37
-35
-34
-33
-32
-32
-33
-33
-32
-33
-36
-37
-37
-39
-39
-37
-35
-36
-38
-39
-39
-40
-40
-40
-40
-44
-45
-41
-38
-40
-43
-43
-44
-45
-40
-37
-41
-42
-36
-33
-33
-25
-11
-9
-30
-55
-59
-55
-58
-56
-58
-66
-56
-54
-70
-45
-38
-126
-131
38
324
915
1518
1150
-22
-596
-324
-104
-130
-99
-65
-84
-64
-38
-44
-36
-18
-11
-1
12
24
37
52
67
83
97
111
127
143
158
177
200
219
230
244
262
275
283
296
310
315
306
284
250
205
155
108
65
27
-1
-24
-44
-60
-70
-79
-90
-100
-106
-110
-114
-123
-134
-141
-145
-149
-151
-152
-153
-152
-148
-147
-145
-138
-133
-131
-129
-122
-116
-115
-115
-111
-109
-108
-103
-92
-89
-93
-91
-82
-78
-78
-75
-70
-65
-62
-61
-57
-52
-51
-54
-54
-49
-47
-47
-47
-44
-39
-35
-35
-35
-34
-35
-35
-31
-30
-30
-29
-27
-26
-26
-25
-23
-18
-17
-20
-20
-18
-18
-21
-23
-25
-27
-28
-27
-24
-22
-21
-23
-28
-33
-32
-31
-35
-39
-34
-28
-27
-30
-32
-25
-9
4
-1
-25
-47
-50
-48
-47
-47
-56
-60
-46
-55
-66
-29
-55
-152
-97
126
530
1268
1664
827
-394
-615
-213
-97
-125
-55
-49
-74
-39
-21
-27
-7
10
13
23
35
47
65
79
86
101
123
139
153
172
190
205
222
242
258
264
269
276
282
283
278
261
228
182
131
82
34
-11
-48
-71
-84
-95
-106
-111
-111
-111
-113
-114
-115
-116
-117
-118
-125
-132
-134
-136
-140
-142
-138
-133
-132
-131
-128
-124
-118
-113
-111
-112
-108
-103
-100
-97
-92
-85
-80
-76
-71
-66
-65
-62
-55
-51
-51
-50
-48
-45
-41
-37
-36
-36
-34
-29
-26
-26
-27
-28
-26
-22
-19
-18
-18
-21
-22
-19
-15
-13
-14
-16
-15
-12
-10
-10
-11
-12
-9
-6
-6
-7
-7
-8
-11
-14
-13
-12
-15
-17
-15
-14
-18
-22
-22
-22
-25
-28
-29
-30
-30
-27
-29
-35
-34
-26
-23
-22
-12
0
-7
-32
-50
-53
-56
-56
-53
-64
-69
-55
-66
-72
-42
-82
-158
-76
141
541
1232
1494
636
-405
-513
-174
-108
-129
-76
-78
-91
-58
-47
-49
-35
-23
-15
1
16
27
41
57
74
92
108
125
144
163
181
200
220
236
249
261
270
271
267
259
243
214
168
113
54
0
-47
-84
-110
-125
-134
-137
-139
-137
-134
-130
-126
-120
-118
-121
-122
-120
-121
-125
-126
-126
-128
-128
-125
-122
-121
-119
-115
-109
-104
-102
-99
-91
-85
-83
-77
-70
-66
-64
-57
-49
-45
-43
-39
-35
-31
-27
-24
-21
-19
-16
-11
-7
-3
-1
-2
-2
2
6
8
9
11
15
16
16
17
20
24
27
28
29
30
31
32
36
39
36
34
38
42
39
38
41
43
41
38
38
38
37
34
33
33
31
29
30
32
30
23
20
19
17
14
15
15
13
11
