# session 4
16
-7
52
96
-28
-202
-196
-80
-21
14
72
116
152
191
207
207
208
198
170
125
73
20
-34
-92
-133
-146
-154
-165
-169
-160
-143
-124
-114
-107
-97
-90
-84
-73
-66
-64
-63
-62
-63
-65
-65
-64
-61
-60
-62
-62
-58
-56
-55
-50
-45
-46
-46
-41
-37
-36
-31
-26
-29
-33
-27
-21
-22
-20
-11
-8
-14
-18
-13
-4
0
-3
-8
-7
-5
-8
-10
-8
-7
-9
-6
-3
-9
-12
-8
-11
-16
-12
-10
-14
-14
-11
-9
-10
-15
-18
-18
-19
-23
-24
-24
-26
-28
-29
-31
-41
-57
-56
-36
-19
-3
19
22
-13
-48
-50
-40
-45
-51
-52
-58
-51
-39
-60
-56
-22
-84
-147
-12
259
762
1500
1551
427
-586
-525
-162
-127
-118
-50
-71
-85
-45
-36
-44
-30
-11
4
17
27
38
49
62
81
105
126
148
177
207
233
257
279
300
314
317
308
295
273
236
191
141
83
20
-31
-67
-94
-116
-133
-141
-140
-135
-129
-122
-114
-111
-110
-105
-101
-104
-109
-112
-117
-120
-123
-125
-124
-122
-130
-138
-134
-124
-120
-121
-122
-123
-123
-119
-115
-113
-109
-108
-112
-111
-103
-98
-95
-89
-82
-80
-78
-75
-74
-74
-76
-76
-71
-65
-67
-71
-69
-66
-68
-68
-63
-61
-65
-67
-64
-60
-54
-49
-49
-51
-51
-52
-53
-49
-46
-52
-58
-60
-67
-68
-51
-24
-1
16
11
-21
-45
-41
-37
-42
-38
-43
-59
-45
-33
-58
-37
-18
-112
-122
88
429
1089
1793
1384
-38
-776
-428
-116
-133
-74
-17
-58
-46
-10
-17
-6
24
33
46
70
81
94
118
140
160
179
199
226
256
279
302
334
358
367
372
372
361
340
309
261
199
134
69
6
-52
-96
-126
-148
-165
-171
-168
-164
-158
-144
-130
-125
-126
-122
-119
-125
-130
-128
-128
-133
-130
-127
-134
-138
-135
-138
-140
-136
-132
-132
-129
-120
-114
-117
-115
-105
-105
-116
-116
-104
-99
-102
-100
-91
-83
-84
-88
-83
-75
-74
-76
-74
-68
-62
-60
-62
-62
-58
-58
-61
-62
-59
-53
-54
-57
-54
-50
-51
-48
-41
-42
-48
-46
-41
-38
-38
-40
-40
-36
-39
-57
-62
-35
-7
8
22
19
-16
-43
-39
-40
-49
-44
-43
-53
-41
-39
-59
-31
-22
-125
-136
66
388
1016
1703
1370
80
-634
-369
-104
-123
-84
-39
-71
-65
-38
-37
-24
0
11
24
39
45
55
72
92
112
136
168
196
217
242
278
307
325
341
349
345
339
327
299
256
203
140
72
6
-53
-95
-117
-136
-153
-160
-154
-143
-131
-121
-116
-109
-103
-102
-98
-95
-101
-106
-97
-100
-122
-134
-128
-124
-123
-119
-117
-119
-120
-116
-111
-110
-109
-106
-103
-100
-94
-91
-99
-103
-96
-90
-87
-82
-83
-84
-80
-72
-68
-65
-68
-71
-68
-63
-64
-67
-66
-61
-59
-62
-64
-63
-60
-55
-51
-52
-52
-50
-50
-52
-49
-44
-47
-51
-49
-45
-44
-39
-38
-45
-54
-59
-60
-49
-31
-13
10
26
5
-39
-53
-39
-43
-56
-52
-52
-52
-29
-34
-56
-23
-41
-145
-86
161
548
1281
1777
999
-352
-708
-281
-103
-131
-66
-49
-76
-41
-19
-25
-3
21
30
46
62
71
83
99
115
135
157
179
206
236
263
289
318
341
357
367
365
351
330
296
246
190
130
61
-12
-67
-95
-115
-142
-163
-165
-158
-153
-145
-134
-126
-124
-120
-112
-109
-118
-127
-129
-133
-135
-130
-128
-137
-141
-135
-132
-137
-139
-130
-122
-124
-130
-126
-121
-119
-114
-106
-108
-110
-104
-95
-90
-86
-84
-84
-81
-77
-72
-67
-65
-66
-65
-61
-60
-58
-54
-52
-54
-57
-60
-56
-50
-51
-53
-47
-36
-34
-40
-41
-36
-32
-31
-30
-29
-28
-24
-21
-25
-27
-22
-17
-18
-27
-41
-50
-43
-26
-7
18
36
24
-9
-25
-22
-26
-30
-16
-14
-27
-23
-27
-35
0
-19
-120
-76
140
493
1188
1717
1077
-193
-615
-261
-85
-123
-75
-51
-79
-63
-42
-42
-25
0
11
18
26
37
55
72
87
102
123
151
178
204
232
260
285
309
326
332
332
326
308
277
236
186
126
54
-21
-77
-111
-133
-149
-162
-168
-163
-152
-148
-145
-135
-127
-128
-127
-118
-114
-117
-120
-121
-122
-121
-122
-126
-126
-126
-127
-124
-117
-118
-119
-109
-100
-102
-106
-105
-104
-98
-90
-90
-91
-90
-90
-87
-78
-75
-79
-76
-66
-61
-58
-54
-57
-60
-53
-48
-56
-63
-59
-53
-52
-50
-44
-39
-39
-41
-38
-34
-34
-38
-37
-36
-39
-39
-36
-37
-39
-37
-34
-33
-32
-36
-43
-47
-49
-53
-50
-35
-17
2
21
19
-11
-34
-31
-30
-42
-41
-35
-42
-29
-19
-43
-19
20
-76
-138
57
421
1016
1648
1339
63
-697
-429
-116
-121
-85
-28
-57
-51
-13
-10
-10
2
10
28
48
56
64
82
100
113
133
161
188
213
243
277
304
328
351
367
373
370
353
327
291
238
168
95
25
-35
-75
-104
-135
-159
-163
-155
-148
-142
-135
-134
-133
-126
-121
-119
-118
-123
-132
-132
-130
-139
-151
-152
-150
-154
-156
-155
-154
-150
-144
-145
-148
-149
-147
-143
-135
-128
-122
-117
-116
-115
-109
-108
-112
-109
-103
-102
-101
-95
-90
-88
-86
-81
-75
-75
-83
-86
-80
-70
-64
-62
-61
-60
-57
-52
-51
-59
-64
-60
-56
-55
-53
-54
-63
-67
-56
-34
-12
11
22
0
-36
-49
-46
-49
-46
-37
-50
-61
-46
-54
-61
-21
-55
-146
-61
189
629
1422
1806
870
-419
-633
-213
-94
-123
-57
-49
-71
-46
-36
-30
2
17
22
43
61
69
90
114
124
134
161
195
223
249
279
313
343
369
389
395
389
376
355
316
259
194
125
51
-22
-79
-120
-146
-160
-169
-174
-168
-153
-141
-137
-135
-130
-123
-121
-122
-124
-123
-118
-118
-126
-128
-121
-120
-127
-125
-122
-127
-128
-123
-121
-117
-108
-105
-106
-103
-98
-93
-88
-81
-77
-81
-86
-83
-75
-70
-68
-65
-64
-64
-63
-58
-50
-46
-51
-57
-58
-57
-52
-42
-38
-38
-39
-40
-38
-31
-28
-34
-41
-42
-39
-34
-34
-36
-37
-38
-38
-39
-41
-40
-37
-43
-48
-49
-55
-62
-46
-20
-2
14
19
-8
-43
-52
-46
-50
-52
-53
-65
-63
-46
-63
-66
-27
-76
-161
-54
205
663
1404
1617
624
-488
-564
-194
-121
-127
-64
-74
-90
-60
-52
-48
-22
-8
0
18
31
41
56
74
94
116
136
158
188
223
254
278
301
328
346
354
358
354
335
303
258
199
136
76
12
-51
-95
-119
-139
-154
-150
-138
-135
-134
-122
-110
-111
-113
-108
-105
-105
-105
-106
-108
-111
-116
-121
-126
-127
-125
-122
-122
-122
-118
-113
-112
-111
-109
-109
-112
-107
-98
-103
-109
-101
-89
-89
-96
-96
-87
-79
-78
-79
-76
-71
-70
-68
-61
-58
-61
-64
-62
-59
-58
-56
-50
-48
-53
-57
-54
-51
-49
-45
-42
-45
-48
-47
-45
-46
-52
-58
-51
-31
-7
13
15
-14
-49
-58
-53
-55
-49
-44
-59
-61
-44
-64
-69
-31
-93
-172
-29
273
800
1598
1702
493
-671
-632
-205
-148
-136
-47
-64
-83
-41
-32
-32
-3
11
13
30
47
57
76
102
126
145
160
177
209
250
286
311
337
366
386
388
384
384
365
315
254
196
131
53
-21
-77
-116
-146
-170
-181
-177
-169
-167
-160
-149
-143
-139
-130
-125
-128
-132
-132
-127
-127
-138
-146
-143
-141
-144
-144
-143
-148
-149
-143
-137
-136
-133
-132
-132
-126
-120
-122
-120
-107
-98
-96
-92
-87
-90
-89
-79
-75
-81
-83
-74
-65
-61
-59
-59
-58
-51
-45
-43
-39
-37
-45
-52
-48
-41
-43
-47
-49
-50
-54
-56
-58
-69
-76
-62
-35
-10
15
22
-5
-38
-40
-32
-39
-44
-43
-54
-50
-34
-56
-64
-24
-73
-150
-36
227
717
1515
1726
667
-479
-542
-170
-112
-117
-48
-63
-82
-45
-34
-35
-9
9
15
31
48
61
74
89
111
135
155
181
214
239
261
297
336
360
376
384
378
366
350
316
258
191
122
48
-24
-80
-115
-139
-159
-173
-173
-165
-159
-159
-157
-150
-144
-139
-133
-127
-128
-134
-136
-138
-142
-141
-138
-142
-153
-158
-157
-156
-157
-154
-145
-138
-133
-130
-128
-127
-118
-108
-108
-111
-106
-101
-99
-97
-96
-95
-89
-86
-86
-81
-74
-73
-68
-59
-58
-62
-62
-62
-61
-55
-53
-60
-58
-43
-41
-47
-43
-35
-35
-40
-41
-40
-42
-55
-63
-46
-16
5
22
37
21
-18
-35
-33
-37
-38
-31
-45
-59
-43
-47
-60
-18
-32
-138
-89
169
587
1296
1724
949
-334
-677
-282
-103
-115
-51
-37
-65
-37
-16
-21
-4
15
24
40
58
68
77
88
109
132
150
170
202
235
263
293
327
354
368
376
381
378
366
338
290
230
164
86
4
-55
-96
-133
-157
-163
-169
-173
-166
-159
-155
-142
-133
-138
-138
-129
-130
-136
-133
-132
-142
-152
-154
-158
-165
-165
-158
-155
-158
-157
-154
-150
-143
-142
-147
-147
-146
-152
-154
-148
-144
-143
-143
-144
-137
-130
-133
-135
-126
-120
-118
-113
-111
-113
-108
-98
-96
-99
-93
-85
-82
-83
-83
-73
-43
-4
29
46
32
-7
-29
-27
-35
-46
-33
-33
-47
-39
-44
-56
-18
-46
-163
-106
160
596
1393
1890
1018
-417
-765
-296
-115
-152
-80
-56
-76
-36
-19
-32
-5
22
25
39
64
78
95
118
137
154
175
201
236
272
298
322
353
387
410
417
416
415
400
361
309
243
152
55
-20
-77
-126
-164
-186
-192
-189
-185
-182
-176
-168
-164
-157
-144
-138
-147
-155
-153
-147
-147
-154
-159
-162
-167
-169
-166
-167
-170
-168
-158
-149
-142
-140
-137
-134
-131
-127
-124
-125
-127
-124
-118
-117
-116
-109
-102
-98
-91
-86
-92
-98
-95
-88
-77
-70
-76
-82
-74
-65
-73
-89
-97
-89
-64
-30
1
13
-8
-42
-55
-50
-55
-59
-51
-53
-55
-40
-52
-67
-23
-44
-152
-104
121
540
1372
1923
1107
-290
-663
-255
-97
-132
-69
-56
-86
-57
-41
-49
-28
-2
10
28
47
58
71
88
107
125
146
176
208
235
262
302
341
364
377
392
400
391
369
335
280
209
131
57
-11
-70
-111
-138
-158
-170
-167
-157
-147
-141
-140
-141
-136
-127
-126
-131
-131
-130
-136
-138
-138
-143
-144
-142
-147
-148
-138
-134
-143
-146
-139
-134
-134
-130
-126
-125
-121
-115
-112
-108
-104
-104
-99
-90
-88
-92
-89
-85
-87
-88
-86
-85
-84
-80
-77
-77
-74
-69
-66
-64
-62
-60
-59
-60
-59
-54
-48
-49
-54
-54
-51
-59
-69
-59
-35
-14
7
24
12
-20
-33
-24
-30
-46
-45
-43
-51
-37
-29
-43
-18
-13
-108
-104
107
467
1144
1768
1276
-63
-681
-349
-91
-109
-63
-29
-62
-43
-10
-13
-4
16
25
44
65
72
77
90
105
124
151
175
191
213
247
280
303
324
342
353
357
357
348
327
292
239
170
97
29
-26
-72
-113
-141
-149
-148
-151
-154
-150
-144
-142
-140
-132
-128
-133
-137
-137
-143
-152
-155
-154
-159
-167
-173
-174
-167
-158
-158
-166
-168
-162
-155
-152
-149
-145
-141
-142
-142
-138
-131
-127
-124
-121
-123
-124
-116
-108
-110
-112
-104
-97
-96
-94
-88
-80
-78
-83
-86
-82
-79
-78
-73
-70
-72
-80
-91
-93
-73
-45
-21
2
7
-23
-54
-53
-46
-51
-50
-46
-56
-46
-29
-47
-39
-10
-87
-139
15
311
907
1716
1626
309
-674
-485
-108
-104
-89
-23
-53
-59
-16
-8
-3
19
28
38
61
78
88
101
119
140
162
180
198
223
254
284
314
342
363
377
386
388
375
349
309
254
189
120
50
-12
-57
-86
-107
-124
-134
-134
-129
-126
-125
-124
-122
-121
-120
-117
-116
-118
-117
-119
-128
-134
-130
-125
-130
-138
-140
-138
-135
-134
-134
-130
-124
-124
-128
-125
-117
-113
-111
-110
-109
-106
-99
-92
-90
-91
-88
-84
-86
-86
-79
-74
-75
-78
-79
-78
-75
-70
-65
-65
-73
-76
-69
-63
-61
-56
-52
-57
-62
-59
-55
-53
-48
-48
-55
-58
-55
-48
-43
-42
-53
-69
-70
-51
-28
-11
9
15
-13
-44
-47
-45
-55
-51
-40
-54
-60
-45
-58
-60
-24
-77
-159
-57
192
675
1469
1693
664
-466
-536
-174
-117
-126
-60
-68
-80
-47
-39
-35
-10
3
8
29
45
51
63
84
104
123
145
165
185
213
242
265
289
314
332
339
341
336
323
299
262
215
158
95
37
-11
-48
-75
-95
-110
-117
-115
-111
-111
-108
-100
-95
-94
-94
-94
-99
-103
-99
-95
-98
-107
-116
-118
-115
-114
-114
-111
-108
-108
-107
-103
-100
-98
-96
-93
-88
-85
-84
-83
-79
-75
-69
-66
-67
-65
-59
-55
-55
-58
-60
-57
-54
-55
-55
-52
-53
-56
-57
-55
-49
-42
-43
-51
-53
-50
-49
-49
-47
-49
-53
-53
-48
-44
-42
-46
-50
-49
-47
-46
-47
-51
-53
-57
-67
-73
-59
-35
-16
5
7
-26
-58
-56
-51
-62
-62
-57
-67
-63
-45
-67
-73
-35
-88
-169
-56
210
701
1478
1650
568
-561
-595
-210
-149
-153
-84
-93
-107
-71
-59
-58
-41
-31
-20
-4
2
9
27
47
63
79
98
122
150
171
190
218
248
268
280
290
298
297
284
261
227
184
127
61
0
-45
-79
-107
-130
-144
-145
-141
-138
-135
-131
-130
-130
-126
-118
-110
-109
-114
-120
-120
-117
-116
-112
-107
-106
-107
-105
-98
-91
-88
-87
-80
-72
-67
-65
-59
-49
-41
-37
-34
-29
-26
-22
-14
