# session 17
-41
-51
-32
7
-15
-101
-137
-112
-104
-117
-123
-130
-128
-105
-78
-51
-31
-46
-86
-103
-93
-92
-97
-90
-93
-102
-89
-85
-98
-68
-66
-158
-160
32
415
1113
1634
1051
-169
-621
-290
-91
-120
-91
-71
-90
-68
-47
-48
-33
-15
-8
7
27
43
58
73
91
112
130
142
156
176
196
211
227
246
259
268
280
292
292
284
274
256
218
168
118
70
22
-20
-50
-74
-92
-107
-120
-126
-125
-126
-132
-134
-136
-143
-145
-139
-136
-141
-146
-148
-147
-144
-143
-147
-147
-141
-138
-140
-137
-128
-122
-122
-121
-116
-112
-112
-112
-110
-105
-102
-101
-102
-99
-94
-89
-90
-91
-86
-79
-75
-75
-76
-75
-71
-67
-66
-61
-55
-54
-57
-58
-58
-57
-55
-57
-59
-63
-73
-78
-65
-42
-14
17
15
-26
-54
-48
-44
-51
-47
-48
-60
-50
-44
-61
-35
-20
-118
-142
66
458
1135
1724
1215
-130
-746
-381
-90
-110
-67
-17
-46
-35
-4
-4
8
27
32
44
62
70
84
107
126
138
151
166
185
206
224
238
252
269
288
303
312
317
320
321
317
297
257
209
158
103
46
-10
-57
-87
-103
-121
-141
-150
-150
-152
-157
-158
-156
-154
-158
-166
-171
-171
-171
-172
-171
-172
-178
-179
-173
-169
-170
-168
-164
-162
-161
-156
-150
-145
-141
-138
-135
-133
-130
-129
-127
-124
-122
-123
-123
-117
-107
-101
-100
-98
-94
-91
-88
-86
-85
-83
-82
-83
-86
-95
-104
-98
-73
-42
-8
11
-11
-50
-61
-53
-59
-63
-57
-63
-64
-47
-60
-65
-24
-60
-157
-90
161
673
1503
1776
751
-450
-561
-160
-74
-97
-39
-45
-62
-24
-9
-12
6
22
31
49
66
79
94
110
126
145
166
184
197
211
232
258
278
292
304
312
316
318
319
312
292
256
203
145
90
36
-13
-48
-73
-97
-119
-132
-139
-146
-149
-148
-147
-147
-147
-148
-150
-154
-159
-160
-160
-162
-160
-154
-152
-155
-157
-153
-148
-145
-144
-141
-139
-138
-135
-130
-127
-123
-120
-118
-117
-115
-110
-102
-96
-95
-94
-90
-86
-85
-83
-81
-79
-78
-78
-77
-77
-76
-72
-71
-72
-69
-64
-63
-66
-75
-86
-78
-52
-25
2
11
-17
-50
-52
-46
-55
-56
-49
-57
-54
-42
-58
-50
-16
-78
-153
-48
238
816
1562
1522
382
-536
-433
-102
-77
-73
-26
-46
-48
-17
-16
-12
10
22
29
45
61
76
92
105
120
140
161
177
190
206
223
240
254
267
278
285
289
292
292
287
273
240
191
140
94
50
6
-34
-66
-88
-105
-119
-128
-136
-139
-135
-135
-142
-148
-149
-152
-157
-157
-157
-161
-162
-161
-161
-162
-158
-155
-154
-152
-145
-138
-139
-142
-140
-133
-128
-123
-120
-120
-118
-114
-112
-111
-104
-98
-97
-95
-90
-84
-80
-78
-78
-77
-77
-76
-73
-69
-72
-75
-69
-64
-65
-68
-73
-85
-89
-71
-45
-22
3
8
-22
-52
-53
-52
-58
-51
-48
-60
-53
-41
-59
-46
-17
-89
-146
-13
309
931
1595
1340
143
-603
-386
-87
-82
-64
-23
-44
-36
-6
-6
0
21
35
44
56
71
90
103
115
131
147
160
177
196
210
225
242
257
267
274
278
283
288
287
278
255
218
175
130
82
35
-7
-42
-73
-98
-113
-119
-123
-129
-137
-139
-138
-139
-143
-147
-150
-153
-157
-160
-161
-162
-166
-166
-160
-154
-153
-154
-152
-149
-147
-146
-141
-135
-132
-130
-126
-123
-123
-120
-116
-116
-115
-109
-102
-100
-102
-98
-91
-89
-89
-87
-86
-85
-82
-81
-80
-77
-75
-81
-91
-96
-87
-65
-40
-14
6
-10
-50
-66
-56
-59
-65
-58
-61
-66
-51
-56
-63
-27
-47
-137
-92
151
622
1343
1593
696
-421
-573
-192
-70
-81
-29
-27
-43
-17
-4
-1
18
31
40
56
71
85
101
115
131
149
164
178
197
217
234
247
258
272
286
294
295
296
298
294
278
247
205
157
104
54
14
-22
-56
-83
-99
-109
-116
-121
-126
-129
-128
-129
-134
-138
-139
-141
-146
-151
-157
-158
-156
-153
-153
-153
-151
-151
-151
-149
-145
-143
-145
-141
-134
-128
-128
-127
-123
-117
-113
-112
-112
-107
-102
-98
-95
-94
-93
-92
-89
-85
-81
-81
-82
-81
-77
-75
-73
-72
-73
-71
-67
-66
-68
-73
-82
-86
-71
-45
-23
-1
6
-23
-55
-56
-49
-56
-56
-54
-61
-51
-39
-59
-45
-12
-84
-148
-16
295
882
1549
1359
189
-607
-419
-97
-76
-58
-16
-39
-34
-4
-7
0
27
40
46
60
75
91
105
118
133
152
169
183
199
216
228
238
253
269
279
285
290
292
291
285
266
233
192
148
101
52
3
-36
-61
-78
-95
-109
-115
-118
-121
-124
-128
-131
-132
-137
-142
-146
-150
-154
-155
-157
-160
-155
-147
-147
-150
-147
-142
-143
-145
-144
-137
-130
-129
-129
-125
-120
-118
-116
-114
-111
-108
-103
-99
-98
-97
-95
-93
-91
-86
-81
-77
-75
-76
-76
-75
-73
-69
-67
-67
-67
-66
-66
-65
-63
-62
-66
-76
-80
-66
-42
-17
9
14
-17
-50
-52
-45
-51
-49
-43
-52
-50
-38
-53
-47
-14
-72
-144
-40
243
799
1496
1426
310
-568
-448
-110
-80
-74
-22
-37
-41
-11
-8
-4
17
31
45
60
70
82
100
116
129
145
163
178
192
207
221
235
248
261
273
277
277
278
280
280
270
241
196
149
102
53
9
-26
-58
-84
-97
-105
-114
-121
-121
-120
-123
-128
-132
-133
-135
-141
-146
-149
-149
-149
-150
-150
-150
-149
-144
-140
-138
-136
-133
-131
-129
-129
-128
-126
-123
-119
-115
-112
-110
-107
-104
-101
-100
-100
-98
-94
-89
-87
-85
-82
-79
-77
-76
-75
-75
-76
-73
-69
-68
-69
-67
-66
-65
-65
-65
-65
-69
-82
-87
-67
-40
-18
5
10
-22
-54
-53
-48
-56
-55
-50
-59
-53
-39
-55
-48
-18
-78
-141
-23
268
834
1518
1400
271
-560
-412
-94
-75
-65
-19
-38
-35
-3
-1
3
25
37
47
62
73
87
102
116
131
149
163
177
194
210
223
236
251
265
274
279
281
283
282
276
260
229
187
138
90
43
0
-37
-66
-87
-101
-110
-117
-122
-123
-123
-125
-130
-134
-139
-143
-143
-143
-146
-149
-150
-151
-154
-152
-147
-143
-143
-143
-140
-133
-128
-126
-124
-122
-122
-119
-113
-109
-109
-108
-105
-102
-99
-95
-92
-92
-89
-83
-79
-79
-78
-78
-78
-75
-71
-73
-74
-71
-67
-66
-66
-66
-65
-63
-62
-62
-60
-58
-60
-61
-69
-79
-73
-48
-24
-2
13
-2
-37
-52
-45
-47
-51
-44
-46
-51
-35
-39
-53
-19
-29
-123
-98
118
529
1218
1590
850
-295
-568
-207
-60
-81
-33
-21
-40
-15
0
-2
16
33
39
51
67
80
95
111
127
145
161
174
187
202
217
232
245
258
269
276
279
280
282
280
270
248
210
166
121
72
22
-17
-46
-71
-93
-107
-115
-120
-123
-126
-127
-127
-131
-137
-141
-146
-149
-150
-151
-155
-157
-157
-155
-153
-150
-150
-148
-144
-141
-138
-136
-133
-128
-126
-125
-121
-116
-113
-110
-108
-106
-104
-102
-99
-97
-96
-92
-86
-84
-83
-78
-75
-76
-75
-71
-69
-69
-69
-67
-64
-60
-58
-58
-58
-57
-56
-58
-55
-50
-48
-51
-62
-70
-56
-30
-11
9
24
2
-37
-47
-37
-43
-47
-37
-38
-42
-30
-39
-46
-10
-40
-132
-69
190
665
1356
1534
598
-464
-549
-166
-63
-73
-18
-21
-37
-9
3
4
23
35
44
63
77
84
95
113
131
146
162
176
187
200
219
235
246
257
270
278
280
281
279
273
261
236
195
148
102
55
5
-32
-58
-82
-103
-114
-121
-127
-128
-128
-129
-129
-130
-135
-141
-144
-147
-153
-158
-159
-157
-157
-158
-160
-159
-150
-143
-143
-143
-138
-135
-136
-133
-127
-125
-124
-120
-118
-118
-115
-110
-107
-104
-99
-95
-93
-93
-90
-85
-82
-81
-80
-80
-79
-76
-71
-68
-70
-74
-73
-69
-66
-63
-59
-59
-61
-61
-65
-75
-80
-66
-43
-18
8
15
-11
-40
-44
-44
-50
-44
-38
-48
-43
-32
-54
-43
-8
-85
-139
41
389
974
1637
1396
101
-745
-480
-100
-87
-62
-2
-28
-24
17
18
21
42
53
63
81
93
100
110
124
142
160
172
184
204
225
238
250
265
278
292
306
306
297
295
292
273
237
187
134
81
30
-19
-61
-94
-117
-130
-138
-147
-150
-149
-148
-149
-149
-154
-162
-164
-164
-168
-172
-172
-174
-176
-175
-173
-173
-171
-167
-164
-164
-161
-154
-147
-146
-144
-141
-139
-137
-132
-126
-125
-125
-121
-117
-115
-111
-101
-95
-95
-96
-92
-88
-86
-84
-81
-79
-80
-80
-77
-73
-70
-70
-76
-86
-93
-87
-67
-41
-9
10
-7
-44
-58
-49
-51
-55
-50
-57
-60
-41
-47
-56
-17
-42
-139
-83
150
586
1370
1780
908
-361
-601
-184
-53
-90
-33
-26
-49
-14
3
-4
12
31
40
55
71
82
97
114
132
149
166
184
203
220
236
254
273
289
300
308
314
319
318
309
290
253
200
143
88
35
-14
-55
-83
-103
-120
-130
-134
-137
-140
-141
-143
-146
-146
-147
-150
-152
-152
-154
-158
-160
-160
-160
-161
-160
-157
-155
-151
-147
-144
-141
-138
-134
-132
-129
-126
-121
-118
-117
-114
-110
-107
-105
-100
-97
-96
-93
-88
-86
-85
-82
-79
-80
-82
-81
-76
-72
-73
-74
-72
-70
-69
-67
-66
-63
-58
-56
-56
-58
-64
-77
-78
-58
-33
-9
15
13
-22
-47
-43
-40
-44
-40
-44
-57
-42
-34
-54
-33
-18
-100
-123
41
376
1034
1668
1272
37
-579
-296
-53
-82
-58
-25
-51
-36
-7
-8
-1
18
29
43
59
69
82
97
114
134
155
171
186
203
218
232
248
263
274
281
286
289
290
286
276
252
212
163
115
69
21
-20
-48
-69
-91
-107
-116
-121
-122
-122
-125
-128
-129
-130
-134
-139
-145
-150
-153
-155
-155
-156
-157
-156
-154
-152
-150
-149
-147
-143
-140
-139
-136
-134
-134
-130
-123
-120
-118
-111
-106
-104
-101
-98
-98
-97
-91
-86
-87
-87
-82
-80
-80
-80
-77
-74
-72
-72
-70
-66
-64
-65
-64
-62
-63
-63
-60
-57
-56
-56
-66
-77
-68
-44
-21
5
22
-1
-41
-50
-39
-42
-47
-40
-43
-48
-33
-37
-50
-18
-31
-121
-88
128
541
1242
1612
847
-311
-568
-195
-52
-79
-32
-23
-43
-16
2
2
19
34
43
57
68
78
97
117
131
144
160
176
193
209
225
240
255
266
278
287
289
287
285
281
268
242
203
155
104
54
9
-28
-57
-81
-100
-114
-122
-125
-126
-128
-130
-131
-134
-137
-140
-144
-150
-154
-154
-152
-153
-156
-156
-153
-150
-147
-146
-144
-140
-137
-137
-136
-134
-131
-127
-121
-118
-116
-113
-111
-109
-105
-103
-101
-99
-95
-90
-87
-85
-84
-81
-77
-76
-77
-75
-72
-71
-71
-68
-65
-66
-64
-61
-61
-61
-59
-56
-55
-58
-69
-74
-59
-32
-7
16
20
-14
-48
-46
-37
-42
-42
-40
-51
-46
-32
-48
-43
-7
-64
-135
-25
252
782
1473
1431
335
-553
-443
-103
-72
-67
-17
-38
-41
-8
-3
3
22
30
41
61
74
83
98
115
132
149
164
179
198
214
225
238
254
270
281
285
287
288
288
282
262
225
176
125
75
24
-20
-54
-81
-105
-121
-128
-131
-135
-137
-135
-134
-138
-141
-142
-145
-148
-154
-161
-164
-160
-158
-158
-158
-156
-154
-151
-148
-144
-140
-139
-140
-137
-131
-125
-122
-119
-117
-114
-111
-108
-104
-100
-98
-96
-91
-87
-86
-81
-76
-76
-76
-72
-67
-66
-67
-68
-66
-62
-60
-59
-59
-59
-57
-61
-75
-77
-56
-29
-9
14
18
-16
-47
-44
-37
-46
-47
-45
-52
-43
-35
-54
-35
-8
-82
-128
21
348
954
1575
1273
81
-612
-366
-74
-74
-52
-11
-33
-22
6
3
11
35
44
52
68
82
96
113
127
142
158
174
189
206
224
239
255
271
285
293
296
299
301
296
283
257
213
158
101
50
4
-39
-77
-103
-119
-129
-138
-144
-147
-150
-151
-150
-150
-152
-159
-164
-167
-171
-174
-175
-176
-177
-175
-174
-177
-176
-170
-164
-163
-164
-161
-155
-152
-150
-145
-142
-143
-142
-140
-138
-135
-130
-127
-125
-122
-116
-112
-109
-107
-104
-101
-101
-101
-98
-94
-91
-90
-90
-89
-85
-79
-79
-84
-94
-100
-88
-62
-38
-13
6
-11
-51
-66
-60
-62
-62
-55
-58
-54
-32
-43
-56
-18
-43
-127
-49
231
722
1407
1544
559
-510
-564
-160
-54
-55
5
-2
-16
21
37
37
56
71
78
92
105
119
137
155
173
189
203
218
237
254
271
291
309
325
340
350
353
353
353
347
326
286
233
178
126
76
29
-11
-40
-57
-70
-82
-90
-91
-90
-91
-94
-96
-99
-104
-109
-112
-114
-120
-124
-126
-130
-133
-131
-126
-123
-124
-126
-127
-123
-120
-120
-118
-118
-120
-121
-118
-115
-114
-116
-118
-118
-116
-114
-113
-112
-111
-108
-109
-112
-114
-112
-110
-113
-119
-121
-125
-139
-147
-133
-108
-82
-61
-68
-107
-135
-132
-130
-136
-132
-137
-152
-142
-143
-169
-139
-124
-226
-236
-15
382
1081
1654
1045
-361
-920
-494
-203
-221
-167
-127
-159
-139
-106
-108
-95
-72
-62
-48
-32
-21
-3
15
32
55
78
94
110
134
163
193
217
238
259
278
291
299
304
304
290
257
212
160
101
40
-14
-56
-84
-98
-103
-103
-99
-89
-76
-64
-51
-35
-22
-13
-4
4
8
