# session 37
-32
21
-122
-89
400
840
766
572
656
757
652
529
511
506
473
451
417
371
372
362
279
277
398
388
229
196
239
150
107
209
168
5
19
112
109
121
266
893
2013
2172
462
-1261
-1203
-334
-27
-96
-86
-29
19
6
-90
-133
-67
-15
4
26
12
-4
10
13
57
116
49
-15
101
208
143
63
97
176
206
166
118
138
187
167
81
10
-23
-72
-146
-181
-183
-215
-215
-158
-174
-233
-222
-243
-308
-250
-174
-249
-291
-211
-229
-327
-284
-195
-265
-339
-245
-169
-226
-240
-179
-161
-169
-190
-244
-238
-177
-213
-300
-263
-163
-168
-206
-154
-66
197
960
1722
1222
-474
-1590
-1293
-564
-186
-47
-17
-44
-32
2
16
26
16
-7
14
65
104
142
177
163
151
203
221
167
194
309
343
313
338
370
329
277
280
287
242
168
83
-24
-97
-105
-101
-90
-71
-109
-157
-108
-25
-27
-96
-137
-95
-39
-44
-54
-37
-60
-90
-73
-72
-76
-5
58
25
-19
-32
-55
-67
-59
-57
-48
-48
-68
-58
-56
-99
-21
272
668
1108
1206
310
-1120
-1676
-1126
-489
-214
-56
38
48
83
106
44
31
139
207
167
124
117
134
175
197
208
264
314
303
272
272
327
389
367
331
374
374
269
200
179
99
-13
-93
-143
-144
-140
-187
-201
-135
-114
-166
-184
-155
-135
-129
-123
-110
-117
-173
-203
-149
-110
-142
-165
-158
-168
-190
-190
-147
-86
-63
-79
-106
-131
-139
-155
-195
-175
-108
-110
-135
-124
-149
-132
40
446
1253
1793
775
-1169
-1827
-987
-263
-125
-48
18
-14
-27
1
32
59
66
51
46
95
146
111
74
155
236
207
194
264
316
314
311
321
336
340
330
325
299
202
77
20
-4
-88
-161
-154
-164
-197
-159
-137
-198
-175
-62
-72
-181
-191
-121
-96
-126
-162
-172
-156
-145
-136
-130
-146
-145
-113
-124
-153
-97
-10
-15
-76
-100
-106
-137
-170
-175
-133
-48
-31
-123
-117
62
365
1037
1734
1125
-753
-1834
-1286
-449
-133
-19
34
19
41
38
19
83
120
75
92
167
179
151
143
159
195
244
268
271
296
345
376
381
365
338
337
343
293
235
203
112
3
-16
-40
-130
-162
-130
-130
-142
-136
-126
-95
-109
-199
-204
-82
-45
-136
-172
-121
-115
-164
-159
-97
-91
-153
-183
-139
-80
-82
-131
-123
-51
-44
-112
-138
-100
-75
-90
-111
-89
-58
-105
-128
24
304
789
1419
1236
-284
-1675
-1559
-714
-249
-67
64
68
60
105
109
95
92
84
121
153
103
84
155
175
130
154
218
207
177
221
277
269
255
278
286
265
233
170
104
75
53
0
-78
-158
-174
-129
-127
-156
-144
-138
-150
-117
-89
-113
-123
-119
-128
-105
-83
-120
-142
-117
-127
-158
-133
-80
-65
-95
-119
-98
-96
-144
-119
-14
14
-42
-84
-128
-144
-84
-49
-69
-57
-77
-148
-79
179
634
1299
1422
174
-1456
-1762
-945
-282
-59
23
40
62
111
97
68
99
126
118
121
142
153
144
138
182
253
276
260
264
294
338
374
363
342
366
376
322
268
248
209
108
-11
-70
-78
-122
-184
-177
-129
-121
-131
-116
-123
-177
-183
-97
-39
-84
-119
-100
-117
-151
-123
-110
-161
-161
-108
-114
-142
-110
-94
-139
-156
-123
-109
-118
-102
-83
-97
-92
-29
-5
-88
-144
-81
-40
-95
-108
-48
-38
-69
-15
193
656
1286
1313
113
-1361
-1624
-847
-231
-100
-51
58
97
36
6
79
130
106
118
144
82
54
157
223
183
188
242
248
257
304
310
287
317
358
333
303
336
356
289
178
89
35
-20
-102
-159
-133
-81
-95
-154
-162
-112
-114
-173
-164
-101
-90
-110
-142
-199
-198
-114
-76
-140
-209
-190
-113
-95
-150
-157
-112
-120
-156
-142
-117
-121
-106
-66
-62
-87
-70
-40
-69
-99
-62
-38
-89
-113
-54
-31
-73
-40
69
278
863
1477
976
-581
-1506
-1099
-391
-94
-2
37
15
16
63
87
49
6
39
104
114
94
97
117
138
141
145
186
237
241
223
240
279
301
315
324
306
280
259
195
95
26
-15
-66
-111
-129
-134
-136
-142
-136
-92
-58
-90
-122
-105
-107
-133
-120
-89
-94
-107
-94
-91
-113
-124
-115
-119
-134
-134
-117
-105
-105
-112
-115
-107
-94
-101
-114
-93
-68
-82
-84
-47
-34
-55
-66
-81
-93
-74
-71
-94
-85
-61
-34
68
363
939
1334
680
-734
-1404
-906
-283
-81
0
68
47
28
59
76
72
93
125
122
103
130
172
174
174
188
202
236
277
293
324
347
307
286
337
349
304
287
271
193
100
27
-48
-112
-141
-156
-169
-180
-189
-183
-164
-161
-172
-165
-150
-142
-133
-130
-131
-121
-107
-101
-91
-73
-73
-97
-106
-86
-70
-68
-69
-75
-69
-46
-40
-49
-39
-31
-39
-29
-4
13
29
36
26
21
4
-44
-67
-49
-29
-8
-12
-37
26
193
521
1173
1540
649
-834
-1258
-658
-213
-116
-4
36
-69
-165
-212
-212
-147
-89
-103
-142
-151
-141
-122
-92
-60
-28
17
62
93
135
190
223
238
254
253
235
224
206
150
70
-2
-47
-78
-111
-130
-130
-134
-127
-101
-110
-133
-82
-24
-60
-117
-118
-104
-84
-58
-70
-102
-94
-67
-67
-72
-60
-53
-60
-62
-51
-33
-11
6
10
11
17
11
-9
-13
2
7
13
38
42
14
0
9
-1
-33
-51
-32
-17
-44
-36
60
292
857
1447
1031
-408
-1314
-964
-327
-93
-20
41
36
31
45
44
53
71
76
78
77
80
100
121
127
137
155
171
192
219
239
256
274
284
289
299
301
283
251
208
151
81
0
-75
-119
-123
-119
-137
-158
-145
-120
-122
-132
-123
-124
-137
-133
-126
-137
-139
-130
-140
-154
-142
-131
-148
-163
-155
-153
-162
-158
-145
-140
-136
-130
-126
-110
-87
-74
-60
-44
-54
-86
-99
-90
-82
-97
-119
-107
-87
-104
-84
22
249
749
1222
797
-476
-1259
-949
-364
-114
-36
9
3
7
32
41
49
66
70
66
77
99
109
107
119
134
138
155
188
199
202
229
253
255
267
287
277
253
237
209
152
89
37
-8
-45
-67
-74
-74
-76
-80
-81
-76
-67
-63
-76
-91
-81
-64
-74
-92
-94
-91
-92
-87
-85
-98
-104
-95
-90
-80
-51
-33
-39
-37
-26
-41
-74
-86
-75
-73
-94
-102
-81
-86
-114
-66
58
270
694
1018
533
-590
-1220
-936
-411
-149
-69
-41
-29
-11
3
8
23
35
32
33
47
60
68
79
95
109
118
127
146
167
178
186
201
214
215
213
215
214
206
185
140
76
19
-20
-44
-56
-64
-69
-70
-70
-61
-44
-44
-53
-43
-45
-72
-72
-52
-66
-87
-75
-61
-65
-66
-64
-58
-35
-13
-11
-7
0
-17
-49
-67
-66
-60
-66
-80
-71
-58
-76
-48
111
394
767
970
555
-355
-980
-927
-552
-239
-66
-9
-10
-1
17
27
38
47
47
55
72
82
89
103
114
118
127
140
152
162
168
170
170
175
176
171
165
165
161
138
93
38
-11
-48
-78
-101
-116
-122
-121
-116
-115
-114
-107
-101
-103
-105
-101
-104
-112
-115
-115
-120
-122
-124
-130
-130
-124
-121
-113
-90
-74
-68
-57
-55
-77
-101
-109
-107
-100
-101
-98
-80
-84
-94
-34
107
429
977
1128
257
-905
-1160
-642
-216
-79
-21
-2
-4
17
31
30
42
55
58
64
76
91
103
112
128
149
166
186
211
233
251
270
286
297
304
303
296
284
254
195
121
54
-2
-46
-77
-95
-105
-108
-108
-110
-110
-108
-103
-97
-90
-88
-91
-94
-93
-92
-96
-101
-104
-108
-108
-92
-73
-70
-68
-60
-70
-96
-113
-114
-109
-108
-115
-106
-94
-114
-100
-19
142
599
1198
1002
-226
-1187
-1014
-424
-158
-92
-41
-36
-33
-9
-3
-1
14
23
26
35
46
59
73
87
104
125
146
167
192
217
241
260
273
283
291
293
280
245
188
119
50
-13
-64
-99
-120
-133
-139
-139
-137
-135
-132
-126
-119
-113
-111
-110
-107
-104
-102
-102
-103
-102
-103
-103
-103
-104
-104
-100
-97
-87
-63
-44
-40
-31
-27
-49
-75
-80
-76
-72
-73
-74
-63
-65
-78
-37
69
339
905
1237
522
-744
-1199
-715
-233
-94
-45
-11
-10
5
19
14
20
33
38
45
50
56
75
98
109
119
134
153
179
199
211
236
269
285
284
284
286
278
252
203
133
63
7
-42
-87
-112
-117
-118
-119
-120
-116
-105
-91
-85
-84
-78
-70
-71
-74
-69
-65
-71
-80
-81
-77
-76
-80
-81
-85
-92
-92
-83
-76
-79
-85
-94
-105
-99
-67
-39
-47
-65
-54
-30
-21
-14
-8
-25
-53
-65
-68
-70
-70
-75
-71
-56
-67
-70
17
195
544
1022
1002
63
-954
-1064
-563
-197
-68
-3
21
22
28
25
24
32
37
42
49
54
61
73
85
98
115
133
151
169
187
206
225
242
250
251
253
255
250
229
190
137
82
34
-8
-46
-72
-80
-76
-71
-70
-71
-70
-67
-60
-54
-54
-56
-55
-56
-58
-59
-61
-64
-63
-63
-70
-77
-79
-79
-77
-71
-64
-63
-69
-73
-66
-59
-59
-58
-51
-48
-49
-44
-42
-50
-51
-43
-45
-55
-54
-46
-46
-50
-50
-52
-59
-63
-62
-58
-54
-52
-51
-52
-57
-65
-63
-56
-55
-51
-40
-41
-53
-45
-21
-14
-11
11
20
-8
-38
-41
-29
-22
-33
-42
-24
-25
-50
18
193
479
976
1251
546
-686
-1123
-667
-254
-144
-65
-34
-56
10
96
92
69
49
3
14
120
188
140
76
104
176
167
92
110
235
282
214
204
274
290
268
285
291
254
209
150
106
106
49
-83
-136
-85
-57
-70
-99
-157
-171
-74
-5
-84
-152
-74
2
-44
-85
-53
-42
-55
-44
-69
-112
-85
-78
-133
-111
-51
-81
-107
-107
-158
-118
22
-27
-224
-227
-79
-63
-164
-187
-107
-47
-64
-96
-105
-115
-120
-107
-78
-32
-32
-93
-80
-15
-66
-121
-50
-33
-128
-160
-103
-65
-79
-76
37
286
727
1211
1008
-152
-1101
-895
-285
-120
-111
30
82
30
21
28
57
105
48
-43
34
156
123
61
121
180
124
88
171
248
254
275
289
256
275
349
372
340
290
238
211
144
7
-56
-35
-71
-126
-126
-142
-158
-130
-147
-188
-140
-78
-90
-106
-108
-121
-95
-47
-58
-90
-86
-76
-83
-86
-70
-48
-67
-123
-130
-72
-44
-64
-63
-52
-86
-121
-96
-64
-89
-107
-75
-52
-53
-57
-90
-111
-66
-46
-95
-82
-19
-51
-99
-27
35
-8
-25
3
-35
-78
-57
-55
-68
-41
-36
-53
-39
-37
-14
147
488
954
1101
363
-772
-1115
-603
-146
-46
-8
35
17
-11
14
80
115
84
50
55
69
82
111
132
122
121
152
177
189
214
239
262
307
342
331
316
335
341
297
242
199
137
63
8
-38
-80
-101
-107
-115
-128
-137
-120
-95
-109
-145
-128
-70
-53
-82
-93
-81
-89
-101
-88
-85
-106
-104
-91
-103
-103
-84
-95
-118
-102
-72
-74
-101
-108
-84
-74
-91
-88
-65
-62
-70
-63
-54
-63
-76
-68
-61
-78
-66
-21
-23
-59
-46
-16
-33
-56
-60
-89
-128
-110
-47
-3
-1
-23
-39
-31
-16
-16
-13
17
45
43
35
32
22
18
17
-9
-37
-32
-23
-39
-63
-69
-23
97
347
802
1131
637
-506
-1101
-726
-214
-76
-52
-1
0
-5
28
51
37
10
9
33
46
41
37
51
74
74
65
86
120
131
153
199
218
213
230
265
301
319
297
260
245
205
113
46
46
31
-29
-55
-30
-26
-60
-89
-95
-73
-38
-33
-40
-24
-27
-60
-58
-29
-42
-63
-39
-30
-66
-75
-45
-48
-75
-70
-55
-66
-82
-87
-96
-94
-67
-60
-81
-68
-42
-71
-106
-94
-86
-90
-65
-21
-5
-38
-72
-37
15
-23
-111
-132
-30
101
76
-52
-35
72
35
-66
-55
-2
-19
-91
-138
-91
-5
-3
-58
-45
102
480
964
886
-66
-1006
-1038
-509
-158
-75
-42
-13
-10
-17
-13
-3
16
56
74
24
-34
-14
46
60
55
84
102
87
81
91
126
185
201
183
213
242
192
166
237
264
179
109
86
16
-77
-99
-96
-133
-151
-126
-128
-170
-185
-148
-109
-113
-134
-127
-107
-107
-119
-128
-131
-125
-121
-137
-160
-158
-122
-83
-90
-146
-169
-116
-71
-85
-100
-92
-99
-106
-75
-44
-45
-27
13
-8
-72
-69
-20
-26
-64
-65
-42
-24
-23
-44
-9
159
434
778
984
603
-319
-959
-836
-401
-131
-1
82
106
107
117
118
122
135
129
135
179
195
173
187
212
197
203
246
262
259
273
281
278
298
337
360
343
311
305
304
275
252
224
137
64
92
124
80
40
48
55
50
50
53
36
-13
-33
31
91
70
30
21
7
-14
-14
-13
-26
-31
-32
-45
-62
-62
-43
-41
-74
-91
-68
-76
-110
-80
-17
-16
-45
-47
-50
-82
-126
-160
-149
-123
-157
-207
-182
-158
-212
-213
-51
237
592
726
203
-750
-1255
-987
-504
-274
-234
-225
-218
-221
-235
-236
-193
-163
-206
-234
-191
-172
-186
-155
-133
-158
-159
-136
-120
-89
-68
-73
-56
-54
-80
-37
38
21
-23
3
13
-64
-147
-174
-199
-247
-261
-228
-215
-231
-220
-189
-185
-184
-146
-101
-89
-93
-86
-67
-33
15
46
50
65
75
44
50
147
226
216
211
274
339
367
415
484
471
377
354
454
579
648
649
657
715
703
646
798
1127
1470
1872
1955
1209
316
133
