# session 0
-35
21
39
55
82
80
55
41
34
23
23
39
57
69
83
105
125
137
146
159
173
180
184
192
201
205
206
209
212
209
207
216
222
205
183
179
178
174
178
177
165
164
168
160
154
161
157
141
141
152
139
115
116
128
107
76
99
142
128
104
136
154
126
133
149
92
37
65
92
77
109
151
89
15
75
231
499
893
975
340
-519
-815
-541
-202
-38
0
-6
4
25
20
-2
2
22
12
-19
-26
-11
-4
-8
-10
4
30
38
31
43
97
149
125
59
64
112
102
74
100
128
102
46
-9
-51
-76
-100
-129
-144
-145
-152
-172
-175
-140
-124
-167
-187
-135
-92
-123
-170
-168
-147
-173
-212
-182
-136
-174
-228
-201
-172
-203
-206
-181
-208
-216
-158
-144
-172
-146
-135
-182
-184
-162
-197
-226
-205
-187
-177
-184
-240
-238
-95
128
520
1075
1127
217
-844
-1091
-736
-398
-188
-76
-96
-126
-78
-42
-48
-34
-11
-13
-11
10
21
44
97
123
108
124
192
247
239
213
258
348
373
348
362
380
326
258
250
224
131
71
62
-7
-92
-67
-21
-76
-106
-12
24
-54
-39
47
0
-75
-10
51
7
-15
7
-29
-91
-83
-65
-108
-112
-43
-21
-49
-49
-61
-85
-50
-33
-103
-138
-86
-70
-107
-93
-46
-61
-96
-18
241
694
1190
1233
451
-621
-1036
-705
-286
-104
-15
51
47
9
11
45
33
-20
-12
71
129
102
24
-17
49
134
110
57
96
153
143
129
169
229
244
212
205
234
222
160
94
31
-26
-59
-94
-139
-146
-103
-70
-72
-65
-42
-50
-69
-48
-23
-34
-36
-15
-7
-2
2
-18
-45
-68
-82
-56
-15
-21
-56
-82
-97
-90
-80
-106
-135
-123
-112
-129
-150
-171
-174
-120
-82
-147
-209
-170
-132
-172
-222
-218
-141
-63
-106
-179
-114
92
640
1581
1859
637
-817
-980
-413
-201
-211
-135
-115
-92
23
56
-11
-37
-28
-15
8
27
60
101
104
94
83
73
156
287
261
133
157
289
298
203
170
201
194
134
51
-31
-86
-123
-190
-249
-241
-222
-243
-248
-206
-171
-189
-219
-193
-143
-146
-162
-143
-143
-149
-105
-76
-112
-124
-78
-57
-87
-103
-76
-60
-71
-50
-14
-45
-82
-40
-4
-25
-8
33
10
-31
-36
-40
-31
-20
-50
-68
-53
-82
-95
-61
29
670
1884
2118
580
-898
-865
-310
-182
-161
-92
-128
-134
-79
-91
-110
-70
-47
-51
-32
-16
-23
-16
16
43
60
89
120
132
147
179
211
247
281
281
266
273
249
172
102
52
-10
-60
-77
-87
-100
-111
-114
-101
-88
-104
-131
-130
-105
-86
-75
-64
-56
-61
-68
-68
-73
-82
-81
-81
-87
-79
-66
-76
-96
-106
-101
-92
-92
-92
-82
-77
-57
-4
11
-57
-115
-89
-47
-45
-62
-66
-48
-49
-76
-30
94
317
847
1343
843
-472
-1142
-746
-226
-38
40
56
9
13
48
47
28
30
63
77
48
50
101
120
98
99
123
137
133
133
168
220
231
210
204
207
203
204
197
156
86
14
-20
-15
-56
-156
-204
-166
-130
-116
-95
-92
-122
-147
-141
-116
-102
-113
-116
-93
-88
-111
-128
-125
-114
-106
-107
-108
-106
-115
-135
-148
-146
-122
-98
-106
-109
-73
-65
-109
-128
-115
-118
-117
-107
-113
-118
-126
-140
-78
73
340
819
1097
467
-671
-1107
-696
-269
-146
-88
-7
40
42
27
32
53
50
53
98
130
114
104
137
171
185
206
227
232
243
280
306
296
287
291
283
279
301
299
237
149
82
52
32
-11
-45
-43
-49
-68
-52
-32
-56
-71
-47
-49
-81
-72
-37
-50
-90
-93
-88
-107
-99
-72
-102
-146
-128
-105
-119
-111
-89
-107
-121
-86
-50
-43
-34
-22
-36
-67
-79
-73
-69
-70
-78
-88
-83
-83
-96
-64
91
460
922
873
-19
-959
-1044
-547
-168
-18
44
40
37
66
62
35
47
73
73
67
66
61
77
117
123
89
92
141
149
112
112
149
160
140
122
117
113
101
83
68
43
-4
-56
-87
-93
-93
-100
-105
-108
-111
-93
-64
-64
-82
-80
-68
-67
-58
-47
-62
-81
-69
-47
-47
-65
-69
-54
-45
-46
-39
-29
-26
-10
8
-11
-49
-64
-76
-87
-73
-68
-87
-84
-85
-122
-92
75
365
775
960
402
-586
-1056
-801
-393
-161
-54
-16
-9
7
17
23
39
51
59
71
79
87
105
124
135
146
154
158
171
192
198
192
198
209
206
208
224
225
205
185
156
100
45
11
-16
-40
-50
-49
-42
-39
-59
-81
-71
-48
-36
-30
-36
-56
-68
-68
-65
-60
-60
-69
-76
-78
-80
-82
-80
-71
-62
-64
-60
-42
-46
-83
-108
-108
-103
-104
-107
-102
-87
-95
-105
-47
95
415
907
989
178
-826
-1030
-596
-238
-108
-52
-45
-52
-29
-7
-8
-6
-1
0
6
18
28
37
52
70
85
99
119
141
159
176
195
209
219
228
234
235
231
216
179
124
61
2
-42
-67
-81
-90
-92
-90
-89
-88
-86
-83
-81
-80
-83
-89
-86
-78
-80
-90
-89
-80
-78
-83
-90
-97
-93
-79
-72
-67
-48
-32
-45
-77
-100
-104
-96
-96
-109
-99
-85
-109
-107
-36
121
576
1173
1020
-98
-979
-845
-358
-148
-89
-42
-41
-39
-21
-14
-8
-6
-9
7
29
31
34
56
76
80
88
115
139
145
159
189
210
214
222
234
231
222
218
196
144
85
30
-21
-54
-68
-83
-92
-83
-75
-82
-86
-79
-75
-79
-83
-77
-70
-74
-79
-74
-68
-67
-67
-70
-78
-81
-73
-63
-60
-53
-36
-30
-51
-75
-84
-81
-66
-60
-80
-96
-87
-54
-2
59
291
848
1170
511
-597
-962
-570
-213
-98
-46
-39
-51
-42
-39
-17
30
39
31
34
18
16
56
75
72
74
50
58
150
199
154
153
208
205
177
202
217
195
191
185
121
27
-33
-50
-65
-109
-141
-121
-87
-94
-134
-150
-112
-65
-65
-98
-124
-135
-121
-84
-71
-104
-116
-82
-84
-122
-99
-50
-87
-130
-47
45
-25
-142
-126
-64
-85
-118
-90
-62
-82
-103
-69
14
211
667
1054
631
-451
-1035
-707
-217
-76
-96
-86
-45
3
19
7
11
24
38
68
59
13
53
153
141
60
91
189
208
177
182
209
213
202
208
226
220
218
242
210
105
22
-7
-13
-25
-80
-124
-73
-40
-104
-113
-39
-38
-83
-65
-46
-67
-70
-71
-101
-112
-93
-85
-90
-86
-78
-67
-49
-42
-47
-31
-3
-23
-83
-106
-70
-34
-56
-104
-98
-77
-103
-82
5
166
656
1224
869
-387
-1100
-739
-254
-149
-103
-40
-75
-93
-26
24
18
-9
-20
13
40
18
16
68
98
92
93
103
124
148
158
184
225
220
193
215
245
225
185
149
107
67
27
-24
-61
-67
-79
-115
-124
-84
-44
-46
-77
-97
-88
-85
-112
-129
-103
-73
-78
-98
-99
-108
-149
-156
-103
-70
-84
-85
-63
-49
-57
-90
-106
-80
-65
-81
-82
-75
-87
-102
-106
-88
-23
201
713
1135
700
-419
-1032
-735
-279
-107
-43
-19
-47
-25
26
19
2
19
22
12
26
47
59
74
73
59
82
140
168
159
156
170
188
199
205
212
208
187
176
172
133
71
26
-6
-35
-46
-51
-67
-75
-70
-69
-68
-63
-68
-72
-65
-66
-76
-78
-74
-71
-67
-77
-100
-98
-73
-74
-91
-69
-36
-39
-44
-37
-47
-63
-69
-73
-74
-84
-97
-83
-66
-58
-26
87
425
897
864
17
-836
-904
-486
-177
-62
-30
-32
-16
16
15
2
11
25
32
38
42
49
66
83
92
99
114
133
142
146
165
187
191
200
211
198
190
200
181
137
106
70
23
-9
-28
-46
-45
-39
-44
-43
-34
-36
-44
-49
-53
-57
-49
-33
-29
-45
-65
-81
-87
-77
-71
-85
-84
-53
-31
-23
-1
-3
-58
-86
-58
-58
-90
-79
-45
-60
-106
-99
-31
75
350
786
813
45
-821
-943
-521
-194
-96
-68
-57
-55
-34
-17
-36
-48
2
43
2
-49
-26
28
47
35
32
63
104
112
105
132
172
170
147
154
164
147
142
149
121
65
33
22
-7
-44
-50
-32
-25
-28
-36
-51
-39
1
4
-30
-35
-27
-51
-78
-90
-116
-141
-127
-106
-119
-127
-100
-94
-109
-66
2
-25
-116
-137
-90
-68
-85
-88
-75
-100
-153
-146
-53
133
464
718
472
-189
-693
-763
-548
-245
-15
53
38
47
76
91
101
120
141
155
156
144
136
151
180
190
179
169
169
177
191
194
192
203
214
209
207
215
203
160
107
53
-7
-63
-104
-131
-147
-149
-158
-177
-180
-162
-158
-169
-174
-176
-178
-173
-174
-178
-158
-116
-83
-65
-42
-12
9
25
57
94
111
106
98
94
87
62
34
43
52
11
-3
60
253
781
1380
1118
-63
-891
-725
-280
-104
-40
9
-5
-14
12
22
15
16
29
41
46
46
50
58
69
77
82
95
116
133
147
156
161
167
173
165
157
144
93
23
-29
-83
-149
-195
-227
-265
-288
-286
-286
-289
-281
-259
-230
-199
-181
-169
-145
-112
-90
-87
-90
-91
-107
-140
-157
-146
-145
-173
-201
-210
-216
-215
-196
-188
-204
-213
-213
-210
-194
-188
-192
-174
-167
-181
-140
-10
354
1056
1427
662
-589
-1004
-598
-230
-118
-50
-7
0
20
44
51
44
38
53
82
96
104
125
142
145
153
180
205
226
253
281
307
319
314
316
330
323
288
243
181
101
33
-13
-49
-70
-75
-76
-77
-68
-56
-51
-45
-29
-10
-5
-8
7
39
52
39
27
27
24
15
13
18
22
13
-10
-32
-33
-17
-3
8
24
34
20
-7
-35
-67
-89
-94
-65
17
73
37
-4
-8
204
1035
1940
1480
-151
-1031
-648
-208
-185
-177
-142
-177
-182
-159
-164
-155
-128
-115
-100
-74
-59
-41
14
92
134
129
134
166
182
174
179
196
202
200
186
156
128
98
37
-50
-126
-180
-228
-272
-297
-305
-316
-325
-322
-323
-328
-324
-318
-318
-310
-302
-303
-312
-309
-278
-242
-245
-265
-249
-221
-221
-224
-208
-196
-196
-197
-193
-179
-159
-131
-95
-79
-93
-111
-119
-117
-106
-85
-56
-33
-20
12
68
237
763
1425
1340
327
-502
-426
-10
162
190
231
252
257
270
284
294
298
300
302
295
275
247
220
207
211
211
202
192
187
187
191
196
199
197
186
169
150
123
79
15
-54
-111
-156
-192
-214
-222
-225
-224
-220
-221
-227
-228
-229
-239
-243
-235
-239
-248
-240
-242
-268
-273
-245
-219
-189
-136
-87
-62
-51
-41
-33
-21
9
50
68
55
46
73
122
150
131
98
96
108
100
83
97
119
102
90
127
224
543
1054
1106
306
-596
-770
-441
-179
-76
-18
13
25
37
40
24
2
-6
-5
-14
-24
-28
-30
-22
-5
-5
-22
-9
47
101
109
93
121
188
204
151
101
89
84
56
12
-33
-81
-122
-140
-156
-185
-193
-171
-156
-149
-122
-88
-67
-51
-34
-24
-11
5
-1
-28
-51
-63
-72
-84
-99
-98
-76
-59
-57
-46
-39
-68
-106
-116
-126
-156
-177
-186
-196
-198
-195
-176
-111
44
397
848
851
149
-639
-860
-631
-359
-203
-154
-151
-137
-120
-121
-141
-159
-141
-98
-80
-88
-84
-73
-73
-78
-69
-45
-24
-4
31
65
79
97
125
143
152
162
161
141
107
64
15
-26
-51
-62
-61
-53
-35
-7
24
49
62
76
99
119
134
152
170
176
176
181
183
184
198
214
221
228
249
276
292
303
320
341
360
389
422
425
394
362
340
326
321
306
290
289
269
244
257
333
683
1337
1508
614
-448
-611
-230
-54
-72
-72
-75
-92
-99
-95
-84
-110
-168
-190
-194
-231
-249
-225
-225
-254
-275
-321
-395
-448
-532
-673
-676
-422
-144
-51
-46
-16
2
-20
-62
-119
-179
-218
-248
-279
-298
-303
-310
-319
-321
-328
-343
-353
-356
-360
-362
-356
-353
-351
-345
-343
-344
-336
-333
-345
-344
-324
-330
-352
-339
-310
-324
-367
-386
-376
-357
-340
-320
-282
-246
-223
-175
-80
130
519
757
334
-502
-918
-698
-336
-159
-98
-58
-29
-9
20
69
125
165
194
231
271
303
327
345
362
384
414
456
505
549
598
657
704
739
778
807
805
792
776
732
658
588
530
473
420
377
344
319
305
295
280
268
271
280
274
262
281
335
365
341
301
286
285
281
277
285
293
270
226
181
133
80
15
-48
-49
-26
-63
-79
-7
165
674
1341
1174
-35
-970
-868
-446
-302
-304
-359
-459
-501
-504
-533
-549
-539
-523
-516
-558
-621
-625
-586
-558
-528
-486
-443
-401
-366
-340
-309
-277
-251
-223
-195
-180
-187
-212
-244
-279
-319
-358
-378
-384
-400
-415
-419
-429
-452
-504
-615
-687
-557
-296
-123
-67
-23
26
57
82
99
105
116
126
122
121
129
121
89
50
21
13
21
18
-13
-38
-51
-96
-137
-122
-36
324
979
1172
370
-582
-711
-302
-16
85
137
159
193
252
293
323
340
327
308
311
317
310
299
287
278
278
288
306
323
332
335
337
346
369
377
347
309
284
242
180
126
95
87
81
76
103
147
170
176
155
90
23
-3
-1
10
13
2
-13
-21
-6
35
60
37
-1
6
68
86
-23
-171
-222
-205
-232
-307
-341
-331
-362
-389
-304
-78
389
964
888
-136
-1090
-1124
-705
-469
-382
-319
-306
-291
-244
-213
-193
-159
-124
-102
-91
-84
-72
-59
-54
