# session 35
3
9
6
-33
-58
-18
31
45
62
95
121
141
165
183
193
199
199
185
147
88
24
-35
-84
-120
-143
-158
-164
-158
-151
-148
-144
-138
-132
-125
-116
-114
-115
-112
-108
-106
-104
-101
-100
-100
-98
-96
-95
-94
-92
-90
-90
-89
-85
-80
-77
-76
-75
-72
-68
-63
-55
-48
-50
-45
-19
2
6
18
23
-3
-34
-42
-39
-36
-40
-36
-23
-30
-34
39
215
583
1082
1068
84
-1029
-1182
-607
-155
-16
24
34
41
65
70
65
76
85
83
90
104
114
120
123
132
147
160
169
182
201
220
234
248
263
277
285
287
279
265
242
197
131
65
11
-34
-66
-79
-82
-87
-92
-92
-91
-87
-80
-76
-74
-66
-63
-73
-81
-81
-79
-75
-72
-78
-89
-92
-86
-82
-82
-78
-76
-84
-86
-73
-64
-66
-64
-57
-48
-32
-32
-69
-103
-103
-96
-95
-96
-105
-102
-86
-100
-87
51
332
776
1129
716
-462
-1287
-1111
-551
-222
-88
-26
-20
-8
15
16
16
29
36
43
56
65
72
87
104
116
126
142
161
175
189
206
226
247
261
267
267
263
251
222
172
110
46
-12
-61
-98
-119
-128
-132
-131
-126
-119
-114
-111
-105
-97
-91
-88
-84
-79
-78
-80
-84
-86
-86
-87
-89
-89
-85
-83
-85
-85
-82
-81
-80
-80
-78
-74
-73
-70
-53
-30
-21
-16
-2
-8
-39
-57
-59
-59
-58
-62
-57
-45
-58
-57
34
252
711
1235
1006
-227
-1256
-1111
-437
-99
-40
0
13
10
28
36
34
41
51
55
62
70
80
91
104
120
135
150
167
186
207
229
250
268
284
294
300
302
294
266
216
150
80
16
-36
-75
-101
-113
-116
-115
-111
-108
-106
-103
-100
-99
-98
-96
-94
-94
-96
-98
-100
-100
-102
-103
-104
-105
-106
-107
-107
-106
-107
-108
-106
-106
-105
-102
-98
-84
-60
-44
-36
-23
-24
-52
-77
-82
-79
-77
-82
-81
-66
-70
-80
-20
148
531
1086
1114
86
-1094
-1217
-576
-137
-44
-6
16
14
32
46
44
50
59
63
70
78
86
96
105
114
127
142
157
176
196
214
232
252
269
279
284
285
278
258
216
154
86
23
-32
-69
-93
-110
-119
-115
-110
-108
-106
-104
-104
-101
-97
-95
-93
-90
-89
-91
-96
-98
-97
-97
-99
-98
-96
-97
-100
-101
-101
-98
-95
-95
-92
-86
-85
-86
-77
-56
-40
-32
-17
-10
-33
-60
-67
-68
-70
-71
-74
-66
-65
-85
-55
77
355
847
1158
565
-668
-1301
-938
-364
-108
-32
8
20
29
39
39
42
55
62
66
76
86
89
100
123
138
139
145
160
177
191
208
232
256
264
259
256
258
254
237
202
149
83
22
-21
-55
-87
-102
-100
-104
-111
-101
-84
-77
-79
-84
-83
-80
-85
-95
-93
-81
-80
-91
-93
-88
-91
-95
-91
-87
-88
-83
-75
-73
-74
-67
-47
-30
-22
-12
-11
-32
-55
-63
-72
-73
-66
-73
-71
-58
-74
-61
72
338
784
1169
787
-396
-1251
-1098
-539
-201
-59
0
1
13
42
44
37
46
56
63
73
87
96
99
102
116
134
147
158
174
189
206
224
240
249
252
253
252
242
213
162
98
31
-27
-75
-110
-131
-142
-146
-140
-122
-111
-120
-126
-113
-99
-101
-105
-97
-86
-87
-93
-89
-85
-100
-113
-103
-92
-92
-92
-91
-92
-88
-80
-77
-81
-81
-77
-76
-79
-82
-82
-77
-71
-68
-57
-33
-17
-12
0
5
-13
-38
-53
-54
-43
-42
-44
-29
-31
-46
7
164
532
1101
1188
198
-1029
-1235
-625
-161
-40
1
22
24
44
59
61
70
81
88
91
94
102
115
124
134
149
160
165
180
205
221
231
249
267
278
286
290
283
269
242
189
121
59
3
-44
-75
-93
-103
-109
-108
-105
-104
-100
-92
-90
-92
-91
-90
-89
-85
-84
-89
-93
-93
-91
-90
-92
-92
-91
-90
-92
-95
-95
-93
-94
-95
-95
-95
-98
-99
-96
-93
-94
-94
-91
-90
-88
-85
-81
-68
-44
-29
-19
-4
-7
-35
-56
-58
-57
-57
-65
-66
-54
-64
-69
3
174
562
1097
1044
-21
-1110
-1147
-537
-148
-50
-6
11
16
34
38
35
48
57
57
67
81
85
91
104
115
122
134
155
174
188
204
223
238
249
260
270
277
278
267
235
182
120
56
-5
-55
-86
-103
-118
-128
-119
-101
-98
-109
-111
-100
-90
-87
-85
-80
-76
-77
-84
-92
-96
-91
-86
-90
-95
-93
-89
-88
-89
-90
-90
-90
-83
-74
-77
-87
-84
-77
-78
-66
-36
-16
-6
4
-14
-54
-63
-53
-60
-69
-66
-60
-47
-56
-71
11
229
597
1055
1073
178
-964
-1266
-786
-303
-88
1
26
24
39
53
60
74
83
86
93
101
110
122
135
144
155
165
172
183
200
217
234
246
254
267
276
271
260
249
221
169
104
41
-12
-56
-93
-119
-132
-136
-131
-123
-119
-119
-113
-101
-95
-95
-93
-87
-85
-86
-87
-87
-90
-94
-95
-98
-100
-101
-102
-102
-98
-96
-97
-96
-95
-95
-95
-96
-100
-97
-92
-91
-82
-60
-45
-36
-21
-19
-44
-66
-73
-75
-71
-72
-75
-61
-60
-80
-30
135
480
1056
1282
415
-906
-1287
-713
-201
-67
-21
18
23
28
41
56
65
61
63
70
74
86
89
75
90
124
122
109
133
161
163
171
198
214
226
246
246
232
236
238
200
140
79
16
-38
-70
-92
-107
-112
-111
-108
-105
-100
-97
-92
-86
-82
-79
-75
-70
-72
-75
-74
-74
-78
-81
-82
-83
-88
-92
-92
-90
-92
-94
-91
-88
-82
-68
-54
-44
-29
-31
-60
-83
-85
-88
-89
-91
-97
-85
-77
-98
-63
65
340
917
1366
747
-660
-1345
-903
-319
-111
-39
3
-1
14
36
33
33
43
46
54
67
77
86
95
104
115
132
151
172
198
224
250
277
301
320
334
341
336
309
255
175
86
9
-52
-102
-136
-153
-158
-159
-156
-150
-144
-138
-132
-127
-123
-119
-115
-113
-110
-107
-104
-105
-107
-108
-109
-109
-108
-109
-110
-110
-106
-102
-101
-99
-96
-92
-88
-86
-84
-71
-51
-40
-30
-16
-27
-59
-75
-77
-76
-74
-77
-72
-55
-70
-76
14
240
751
1365
1145
-206
-1306
-1101
-381
-79
-47
0
12
8
32
41
40
52
59
60
68
79
87
96
106
118
132
147
165
187
211
233
256
276
293
307
313
312
301
269
209
132
58
-7
-61
-97
-120
-136
-141
-137
-132
-129
-126
-121
-117
-113
-110
-107
-104
-102
-101
-101
-101
-102
-102
-101
-100
-100
-100
-100
-100
-98
-95
-95
-95
-95
-94
-92
-91
-88
-85
-82
-69
-47
-35
-27
-12
-12
-40
-65
-70
-67
-63
-66
-66
-53
-59
-70
-5
174
568
1134
1156
94
-1110
-1215
-549
-114
-33
3
27
23
40
54
53
60
68
70
78
87
94
104
115
125
137
150
163
180
200
219
236
253
265
273
281
286
278
254
213
157
92
27
-30
-73
-97
-107
-111
-118
-125
-123
-115
-108
-99
-96
-103
-107
-103
-100
-99
-97
-100
-102
-101
-103
-108
-107
-102
-104
-108
-104
-97
-95
-98
-98
-91
-86
-89
-91
-84
-83
-82
-57
-28
-24
-20
-6
-18
-50
-65
-70
-68
-64
-71
-71
-55
-65
-66
28
236
628
1085
945
-97
-1120
-1184
-631
-217
-67
-1
22
25
34
41
49
62
68
74
85
88
86
101
125
132
128
137
158
174
184
199
219
230
227
225
231
239
244
244
227
182
118
54
-1
-44
-70
-81
-88
-96
-98
-90
-85
-85
-83
-77
-75
-72
-69
-69
-73
-75
-73
-74
-81
-87
-90
-90
-84
-77
-84
-95
-93
-85
-80
-78
-81
-79
-61
-40
-32
-20
-16
-46
-79
-85
-81
-80
-83
-94
-88
-72
-90
-81
44
293
748
1209
902
-315
-1256
-1116
-526
-192
-68
-4
1
8
33
38
37
46
53
57
64
73
85
95
104
116
133
147
162
179
195
215
241
258
265
272
279
277
267
240
190
125
58
-3
-50
-83
-111
-122
-116
-115
-120
-117
-108
-103
-101
-96
-90
-81
-74
-79
-93
-96
-81
-74
-90
-106
-101
-89
-86
-89
-91
-86
-81
-89
-99
-93
-84
-92
-98
-93
-93
-96
-88
-82
-83
-76
-65
-54
-27
-2
0
4
12
-14
-52
-57
-42
-31
-32
-33
-19
-24
-43
20
176
468
980
1191
373
-891
-1258
-690
-176
-36
4
27
21
34
49
49
56
64
61
64
72
77
86
101
111
119
130
143
155
167
184
203
220
237
249
254
251
246
246
234
189
122
62
11
-37
-72
-94
-108
-109
-104
-108
-112
-103
-92
-91
-89
-82
-80
-82
-83
-86
-90
-89
-85
-85
-81
-78
-86
-92
-90
-89
-88
-84
-83
-85
-83
-84
-87
-84
-78
-76
-74
-74
-79
-81
-75
-71
-63
-38
-15
-9
-1
6
-14
-43
-55
-55
-46
-44
-58
-52
-36
-51
-41
69
312
746
1066
577
-599
-1275
-927
-314
-54
0
34
35
35
61
67
61
74
88
87
87
96
107
112
112
121
146
164
166
171
185
198
215
234
245
250
254
249
240
231
202
152
102
56
2
-51
-82
-88
-82
-79
-82
-81
-77
-79
-84
-79
-71
-72
-81
-80
-68
-70
-88
-87
-69
-74
-101
-104
-82
-74
-91
-103
-93
-80
-84
-91
-85
-85
-95
-89
-75
-83
-95
-82
-68
-72
-82
-85
-80
-63
-51
-58
-59
-30
0
4
5
3
-20
-44
-54
-59
-56
-54
-59
-47
-36
-50
1
188
507
919
1018
290
-833
-1272
-862
-336
-83
8
35
37
57
79
80
75
80
99
112
108
104
115
127
131
138
153
166
171
179
191
201
213
225
228
228
229
224
219
219
198
146
88
37
-10
-52
-83
-99
-96
-92
-94
-92
-85
-83
-82
-77
-77
-76
-66
-66
-77
-80
-80
-84
-83
-80
-85
-91
-91
-89
-88
-89
-90
-87
-83
-84
-88
-88
-86
-87
-89
-91
-86
-64
-39
-31
-25
-15
-26
-56
-74
-84
-87
-81
-89
-103
-93
-89
-80
15
258
724
1179
850
-396
-1314
-1061
-389
-108
-72
-29
-8
13
52
62
64
80
86
91
96
90
102
128
122
99
107
137
186
250
268
223
208
249
272
266
281
305
295
261
230
174
49
-68
-70
-40
-85
-118
-101
-130
-170
-138
-102
-95
-82
-92
-111
-87
-86
-124
-105
-66
-81
-92
-99
-146
-138
-58
-51
-107
-101
-76
-103
-111
-81
-83
-107
-99
-76
-71
-69
-57
-54
-70
-62
-8
25
-4
-34
-41
-65
-82
-66
-68
-91
-66
-41
-63
-26
128
434
942
1146
340
-920
-1302
-738
-222
-88
-22
49
56
55
57
39
50
76
70
77
106
94
83
128
148
114
126
187
197
183
216
237
213
226
275
281
268
275
260
217
183
132
55
-7
-46
-84
-111
-117
-118
-124
-123
-112
-104
-106
-108
-102
-98
-111
-124
-114
-96
-103
-113
-102
-100
-116
-117
-102
-96
-94
-102
-116
-101
-72
-83
-101
-73
-53
-73
-62
-20
-30
-55
-11
26
-23
-75
-75
-71
-77
-79
-77
-64
-65
-74
-27
113
457
1026
1180
269
-979
-1278
-702
-202
-54
-6
14
6
21
45
52
57
58
49
56
80
76
52
65
116
152
163
161
157
168
193
207
208
222
252
276
281
272
253
223
185
130
58
-12
-56
-77
-100
-132
-141
-110
-77
-83
-104
-98
-80
-82
-96
-85
-62
-78
-106
-85
-58
-77
-87
-81
-100
-91
-67
-117
-153
-74
-21
-62
-51
29
24
-78
-139
-107
-71
-90
-106
-70
-25
-45
-105
-73
114
438
906
1185
645
-540
-1269
-1033
-438
-121
-90
-58
51
58
-42
-42
42
48
11
13
24
41
72
69
37
36
66
86
79
77
100
130
154
166
140
118
166
220
189
124
87
43
-23
-73
-107
-132
-124
-90
-82
-95
-93
-82
-81
-62
-11
18
6
2
8
-9
-26
-34
-54
-49
-12
-7
-28
-24
-18
-27
-35
-53
-60
-22
25
47
50
25
-7
-12
-25
-65
-70
-47
-58
-69
-52
-63
-75
-13
131
514
1149
1254
194
-1100
-1320
-697
-206
-78
-54
-10
48
62
35
37
45
21
26
59
65
71
87
73
70
120
143
118
132
181
187
173
200
228
207
192
226
238
197
158
117
41
-13
-21
-53
-124
-159
-140
-128
-150
-157
-139
-127
-115
-100
-108
-117
-106
-106
-114
-114
-134
-147
-107
-75
-98
-106
-85
-77
-60
-39
-55
-61
-29
-37
-79
-88
-84
-90
-86
-93
-114
-120
-111
-64
32
227
718
1238
876
-417
-1316
-1093
-475
-160
-65
-7
21
30
37
38
51
68
60
45
55
80
113
134
126
129
163
161
126
157
241
264
233
242
284
286
256
252
265
244
197
144
66
-9
-33
-52
-106
-124
-90
-83
-100
-94
-94
-113
-105
-75
-79
-109
-114
-93
-93
-119
-131
-116
-101
-103
-105
-110
-127
-118
-64
-24
-33
-47
-42
-46
-73
-106
-117
-101
-98
-110
-87
-68
-107
-106
-11
150
571
1149
984
-231
-1262
-1155
-525
-174
-75
-26
-16
-10
18
34
32
31
41
60
80
90
74
53
80
141
162
135
128
170
209
198
183
228
282
275
249
260
270
233
183
138
58
-35
-59
-47
-86
-134
-120
-88
-93
-121
-134
-105
-77
-102
-111
-65
-49
-82
-90
-83
-87
-88
-101
-114
-84
-58
-88
-105
-63
-26
-28
-31
-15
9
15
-13
-45
-51
-57
-72
-73
-54
-38
-47
-57
-15
91
381
967
1282
515
-816
-1297
-765
-211
-42
-8
19
