# session 13
15
56
-53
-25
357
736
766
652
628
611
552
515
493
446
371
300
259
224
182
138
80
52
81
168
595
1416
1594
350
-1095
-1271
-640
-259
-168
-89
-39
-12
13
6
-3
12
36
74
116
151
199
261
325
390
437
454
455
431
371
290
193
92
15
-70
-212
-369
-448
-440
-423
-428
-407
-345
-293
-281
-326
-402
-450
-481
-530
-537
-494
-491
-528
-531
-499
-441
-307
-165
-162
-209
-121
6
9
-34
-15
21
37
90
163
162
166
269
407
806
1483
1305
-312
-1708
-1571
-952
-767
-565
-369
-544
-688
-577
-529
-518
-483
-615
-716
-578
-490
-450
-102
278
244
208
674
1217
1248
992
1002
1318
1548
1456
1175
1010
1059
1072
965
991
1123
1134
1104
1064
872
688
612
444
328
486
476
35
-190
58
118
-63
94
330
161
-60
-56
-25
-19
-148
-389
-258
105
16
-250
-187
-227
-509
-553
-523
-561
21
888
430
-1256
-2233
-1962
-1514
-1273
-948
-661
-561
-455
-291
-251
-337
-341
-269
-247
-188
-103
-208
-329
-189
-31
-55
-106
-298
-785
-1191
-1201
-1087
-1150
-1296
-1412
-1591
-1814
-1808
-1449
-1032
-855
-846
-821
-766
-726
-785
-1014
-1201
-1120
-1103
-1443
-1634
-1176
-463
-136
-143
15
446
885
1377
2059
2613
2827
2937
3046
3090
3044
2815
2555
2490
2401
2442
3107
3524
2491
814
-226
-717
-719
-37
701
1028
1252
1419
1381
1298
1210
1033
848
636
261
-180
-468
-509
-283
24
-26
-431
-593
-352
-177
-292
-524
-680
-680
-620
-512
-237
-9
-54
-39
234
388
270
132
95
189
422
603
584
446
348
421
566
437
23
-280
-368
-430
-430
-309
-233
-217
-132
-135
-349
-437
-154
255
631
836
259
-1182
-2286
-2225
-1646
-1269
-997
-728
-614
-513
-169
138
0
-353
-561
-767
-972
-870
-662
-769
-955
-934
-991
-1172
-1176
-1234
-1527
-1553
-1308
-1423
-1713
-1609
-1381
-1381
-1392
-1308
-1218
-1102
-1035
-1122
-1272
-1396
-1528
-1678
-1770
-1653
-1360
-1255
-1474
-1616
-1462
-1328
-1403
-1516
-1548
-1495
-1385
-1348
-1361
-1242
-1067
-941
-757
-518
-12
1077
1906
1460
692
981
1894
2569
3017
3337
3530
3698
3790
3831
4002
4223
4334
4309
4046
3599
3296
3178
3033
3058
3418
3578
3147
2646
2576
2651
2441
1990
1565
1260
988
683
418
263
26
-408
-554
-45
512
536
388
482
681
744
517
1
-569
-966
-1101
-1144
-1445
-1821
-1765
-1548
-1631
-1633
-1349
-1309
-1617
-1845
-1525
-331
767
49
-1870
-2638
-2037
-1665
-1866
-1832
-1447
-1299
-1503
-1598
-1510
-1507
-1456
-1207
-1002
-878
-660
-442
-268
-30
139
127
67
-81
-366
-418
-99
84
-136
-419
-567
-682
-737
-630
-442
-353
-366
-327
-195
-21
157
202
106
175
491
753
1126
2055
2847
2210
577
-299
-1
484
581
442
364
446
510
444
379
524
928
1084
577
130
331
397
-83
-301
29
362
509
541
372
89
-171
-489
-830
-1002
-996
-940
-940
-1000
-1091
-1438
-2146
-2610
-2409
-2112
-2087
-1901
-1406
-736
233
1221
1593
1385
1052
686
259
-98
-349
-542
-686
-834
-925
-806
-732
-1061
-1442
-1415
-1266
-1298
-1353
-1464
-1696
-1736
-1574
-1588
-1702
-1636
-1426
-978
-479
-922
-2379
-3271
-2887
-2203
-1767
-1422
-1340
-1285
-546
540
1103
1404
2037
2700
3087
3493
3974
4260
4360
4400
4346
4256
4254
4231
4035
3746
3356
2775
2336
2377
2511
2317
2116
2231
2377
2311
2138
1890
1554
1303
1224
1239
1336
1420
1248
848
619
838
1396
2053
2378
1652
69
-753
-94
698
774
961
1570
1634
712
-380
-897
-1079
-1409
-1789
-1987
-2132
-2326
-2455
-2525
-2641
-2784
-2904
-2997
-3026
-3038
-3139
-3231
-3217
-3246
-3364
-3386
-3290
-3220
-3165
-3084
-3059
-3093
-3058
-2932
-2845
-2839
-2746
-2466
-2218
-2235
-2389
-2432
-2396
-2478
-2576
-2278
-1523
-717
-40
643
1286
1736
1960
1927
1692
1512
1541
1712
1979
2236
2364
2569
2922
3080
3228
3609
3264
1860
1026
1459
1834
1627
1580
1822
1959
1868
1655
1710
2248
2751
2844
2907
3186
3472
3612
3508
3096
2576
2214
2119
2203
2121
1623
1014
727
641
428
164
73
129
156
-7
-340
-592
-659
-734
-932
-1158
-1331
-1448
-1560
-1735
-1970
-2154
-2239
-2339
-2508
-2583
-2530
-2552
-2617
-2562
-2497
-2482
-2380
-2175
-1803
-1451
-1949
-3390
-4441
-4268
-3394
-2487
-1915
-1825
-1946
-1975
-1952
-2090
-2447
-2699
-2574
-2320
-2164
-1988
-1760
-1509
-1145
-676
-194
186
356
404
440
400
368
538
811
941
793
480
430
789
1075
1088
1191
1351
1297
1255
1382
1428
1390
1412
1404
1398
1536
1715
1805
1814
1727
1568
1380
1199
1166
1289
1500
2029
2611
2156
699
-206
66
657
1059
1437
1776
1948
2025
2104
2170
2168
2075
1961
1927
1978
2085
2237
2300
2258
2365
2597
2612
2459
2392
2280
2027
1818
1630
1361
1171
1105
943
612
280
146
321
640
622
-4
-870
-1451
-1788
-2244
-2656
-2458
-1755
-1208
-829
-288
39
-173
-453
-567
-852
-1213
-1068
-188
732
383
-1298
-2548
-2533
-2315
-2289
-2013
-1921
-2287
-2489
-2418
-2258
-1748
-1281
-1519
-1808
-1421
-1018
-1107
-1140
-917
-850
-987
-1125
-1349
-1641
-1661
-1442
-1465
-1730
-1829
-1918
-2319
-2669
-2565
-2286
-2213
-2262
-2125
-1713
-1280
-1039
-874
-669
-520
-423
-307
-257
-252
-148
-28
0
-3
-102
-374
-614
-521
159
1258
1734
850
-383
-595
20
608
1022
1372
1596
1825
2175
2284
1875
1414
1354
1275
690
-102
-614
-719
-505
-244
-106
152
542
641
539
741
1117
1286
1374
1500
1539
1548
1560
1461
1379
1481
1621
1665
1723
1868
1983
1988
1947
1845
1568
1197
934
737
526
458
538
553
608
879
1225
1755
2417
2090
331
-1162
-1114
-525
-406
-414
-285
-264
-331
-379
-476
-544
-477
-313
-61
166
196
197
359
466
441
532
668
641
595
625
618
622
642
498
225
60
57
123
180
167
54
-87
-117
-27
17
10
116
256
297
380
419
168
-180
-607
-1392
-1977
-1729
-1171
-684
-88
-17
-977
-2037
-2318
-1981
-1364
-760
-454
-480
-801
-1229
-1294
-954
-706
-694
-687
-657
-607
-448
-367
-578
-847
-1053
-1483
-1964
-1923
-1547
-1378
-1285
-1089
-1025
-974
-679
-517
-775
-936
-641
-292
-165
-37
185
373
509
617
685
729
707
620
624
667
438
-14
-295
-366
-423
-424
-213
477
1583
1916
657
-775
-797
-28
408
543
608
593
636
692
569
389
269
121
31
100
164
160
215
305
378
493
572
502
360
202
-17
-234
-371
-476
-544
-512
-436
-410
-401
-370
-340
-305
-273
-285
-296
-283
-328
-414
-425
-378
-374
-421
-432
-370
-344
-427
-511
-516
-313
335
884
209
-1344
-2097
-1654
-1048
-766
-600
-487
-417
-379
-444
-502
-372
-187
-89
62
312
471
519
613
759
890
1020
1140
1205
1254
1325
1342
1265
1196
1210
1261
1305
1370
1484
1621
1734
1836
1964
2082
2125
2144
2220
2293
2265
2202
2223
2291
2336
2379
2356
2180
1996
1991
2293
3111
3978
3624
2041
1006
1349
2017
2273
2405
2544
2555
2538
2530
2352
2029
1673
1140
388
-292
-760
-1137
-1463
-1727
-1996
-2299
-2621
-2908
-3076
-3168
-3338
-3563
-3708
-3818
-3970
-4085
-4127
-4150
-4129
-4024
-3874
-3763
-3778
-3805
-3590
-3247
-3188
-3446
-3686
-3793
-3869
-3882
-3840
-3893
-3815
-3254
-2577
-2070
-1260
-564
-1204
-2552
-2902
-2382
-1937
-1475
-927
-603
-342
-30
120
249
532
738
784
872
1022
1139
1244
1392
1583
1728
1711
1633
1698
1765
1599
1420
1510
1586
1372
1208
1293
1242
1040
1128
1351
1235
946
877
971
1000
903
743
649
670
696
649
553
421
318
361
475
600
1032
1667
1479
155
-954
-899
-376
-121
-9
147
287
352
347
377
521
671
729
761
843
956
1074
1221
1405
1570
1681
1741
1757
1774
1820
1823
1751
1677
1632
1589
1558
1544
1544
1567
1589
1603
1664
1728
1698
1680
1774
1826
1769
1720
1610
1458
1570
1840
1787
1543
1633
2132
2822
3179
2436
983
350
834
1305
1378
1504
1648
1606
1540
1391
870
58
-710
-1198
-1421
-1681
-2137
-2549
-2799
-3024
-3224
-3377
-3566
-3731
-3811
-3936
-4133
-4350
-4612
-4795
-4814
-4849
-4765
-4166
-3343
-2984
-3164
-3568
-4002
-4224
-4122
-3913
-3635
-3188
-2821
-2608
-2128
-1433
-1105
-1057
-717
-177
334
1092
1680
1069
-230
-654
-110
430
721
941
1070
1200
1403
1521
1532
1603
1745
1833
1859
1939
2096
2171
2057
1955
2078
2291
2371
2324
2267
2270
2304
2273
2187
2110
1907
1383
646
-11
-509
-960
-1294
-1343
-1271
-1337
-1448
-1560
-1869
-2306
-2629
-2769
-2594
-2094
-1657
-1393
-1058
-700
-151
870
1260
-147
-1940
-2179
-1447
-1088
-1020
-870
-768
-622
-300
-66
-27
49
203
309
371
402
431
581
803
903
898
947
1046
1086
1083
1123
1168
1191
1265
1302
1178
1098
1236
1353
1300
1319
1528
1709
1741
1752
1823
1856
1811
1810
1857
1831
1804
1863
1887
1919
2116
2408
2816
3263
3039
1950
1131
1288
1795
2106
2265
2307
2331
2429
2431
2362
2458
2627
2761
2956
2877
2096
1068
417
-31
-539
-937
-1218
-1551
-1837
-2016
-2269
-2622
-2870
-2957
-3031
-3180
-3310
-3306
-3241
-3266
-3349
-3376
-3387
-3433
-3443
-3448
-3557
-3655
-3587
-3445
-3217
-2680
-1930
-1290
-748
-149
485
938
644
-648
-1911
-2027
-1492
-1286
-1195
-741
-269
-29
292
654
672
398
139
-39
-165
-221
-221
-204
-192
-177
-180
-276
-470
-653
-765
-876
-1002
-1078
-1125
-1226
-1315
-1313
-1274
-1211
-1092
-981
-931
-943
-1060
-1262
-1433
-1543
-1631
-1622
-1432
-1181
-991
-682
-114
345
435
798
1828
2343
1374
218
404
1336
1850
1958
2029
2067
2036
1991
2029
2203
2415
2601
2780
2891
2931
3041
3274
3525
3714
3837
3914
3927
3839
3696
3552
3282
2740
2094
1617
1266
847
399
31
-318
-646
-788
-753
-701
-590
-389
-363
-648
-999
-1238
-1391
-1495
-1629
-1789
-1806
-1697
-1471
-989
-803
-1648
-2688
-2630
-1881
-1418
-1239
-1068
-807
-349
142
416
530
566
455
187
-170
-551
-873
-1070
-1235
-1478
-1485
-869
35
595
837
1094
1349
1520
1629
1503
999
384
-42
-337
-647
-935
-1122
-1259
-1505
-1885
-2295
-2737
-3059
-2848
-2172
-1652
-1487
-1291
-802
-152
432
1182
2372
3069
2077
243
-512
63
855
1244
1338
1490
1864
2051
1670
1071
708
488
237
41
-49
-111
-177
-194
-112
28
110
77
-13
-101
-181
-241
-285
-340
-378
-363
-329
-306
-302
-324
-360
-422
-528
-628
-670
-693
-742
-800
-836
-838
-777
-639
-512
-439
-291
-14
374
943
1258
515
-883
-1535
-1179
-690
-446
-294
-197
-136
-65
15
131
267
372
468
562
602
605
642
725
806
847
853
836
806
811
830
771
652
573
527
479
443
423
427
458
468
431
372
301
234
211
186
62
-128
-265
-302
-277
-273
-309
-278
-172
19
519
997
476
-874
-1562
-1136
-550
-296
-166
-109
-122
-92
-39
-6
59
117
86
25
49
143
223
304
410
441
352
277
262
194
59
-47
-132
-230
-297
-317
-329
-372
-493
-682
-839
-891
-880
-930
-1065
-1057
-721
-197
230
337
193
191
415
608
916
1430
1728
1994
2606
2455
694
-1033
-1099
-309
109
186
186
79
-32
-62
-102
-179
-243
-340
-529
-749
-898
-992
-1089
-1161
-1133
-945
-584
-185
62
115
-42
-469
-970
-1152
-976
-811
-880
-1093
-1336
-1570
-1762
-1900
-1993
-2052
-2068
-1971
-1720
-1487
-1505
-1715
-1821
-1755
-1657
-1394
-836
-224
523
1526
1781
612
-561
-396
411
912
1160
1327
1441
1571
1603
1524
1568
1744
1872
1978
2112
2206
2305
2484
2633
2685
2742
2827
2879
2946
3054
3111
3110
3118
3107
3075
3051
2968
2848
2750
2451
1836
1226
807
419
31
-238
-418
-641
-935
-1183
-1268
-1275
-1360
-1468
-1480
-1418
-1208
-828
-848
-1722
-2743
-2965
-2537
-2103
-1886
-1858
-1936
-1976
-1948
-1907
-1837
-1740
-1694
-1697
-1661
-1565
-1470
-1387
-1260
-1045
-763
-487
-292
-198
-155
-115
-108
-161
-207
-184
-135
-105
-51
29
89
146
208
212
164
147
177
186
144
71
19
19
0
-94
-108
44
253
720
1510
1593
274
-1120
-1196
-537
-136
26
134
115
69
102
104
14
-62
-76
-101
-141
-125
-56
42
148
176
122
107
99
23
-6
39
28
-21
-60
-154
-237
-210
-176
-232
-306
-343
-352
-335
-294
-251
-230
-237
-264
-316
-413
-524
-578
-609
-684
-682
-530
-296
304
1246
1291
-96
-1276
-1059
-275
371
1027
1488
1572
1638
1751
1622
1334
1154
1058
927
801
742
710
638
544
491
470
441
404
360
308
268
238
225
253
267
268
388
565
633
740
961
966
680
448
334
145
-64
-153
-207
-327
-425
-411
-387
-430
-408
-251
35
508
733
-47
-1386
-1901
-1438
-1014
-953
-888
-821
-877
-796
-356
274
783
1061
1217
1313
1218
890
572
473
551
730
926
937
708
436
195
-115
-429
-600
-667
-727
-793
-854
-885
-865
-842
-839
-795
-706
-640
-590
-509
-436
-423
-454
-487
-491
-470
-461
-449
-394
-225
258
932
931
-181
-1361
-1531
-1065
-752
-643
-566
-542
-530
-470
-421
-393
-329
-228
-115
-5
67
106
154
201
235
290
330
293
235
227
242
241
216
157
90
69
78
66
32
-1
7
107
213
171
79
150
278
261
185
173
183
194
175
92
69
131
311
1036
1992
1650
-122
-1306
-1018
-421
-193
-56
18
-51
-126
-175
-239
-254
-203
-151
-139
-137
-103
-45
4
65
162
239
244
259
349
410
376
355
383
361
285
248
280
327
319
254
220
250
247
184
158
183
164
100
58
30
5
19
36
40
133
281
482
1067
1765
1389
-109
-1121
-951
-501
-297
-150
-88
-159
-193
-197
-249
-288
-277
-221
-148
-131
-97
47
140
124
195
297
231
140
207
303
300
222
100
-10
-33
-2
-27
-146
-253
-228
-175
-263
-377
-357
-320
-341
-297
-214
-229
-298
-382
-542
-727
-850
-896
-850
-716
-362
330
639
-333
-1788
-2128
-1446
-867
-603
-366
-200
-88
99
268
297
267
303
385
418
430
517
629
660
634
576
488
438
435
398
338
296
236
174
159
166
208
324
427
437
443
496
500
419
366
414
462
378
184
-7
-153
-238
-236
-189
-152
-108
-30
