# session 9
113
116
104
161
262
323
400
597
946
1214
909
31
-626
-567
-166
145
322
409
454
501
518
531
614
676
631
591
616
592
495
410
352
292
241
221
223
214
167
119
91
34
-46
-73
-63
-84
-121
-137
-129
-98
-103
-203
-300
-285
-231
-243
-304
-369
-405
-399
-357
-282
-207
-187
-196
-164
0
360
537
-49
-1058
-1472
-1133
-704
-478
-358
-332
-355
-323
-259
-218
-182
-143
-124
-109
-70
-23
8
34
63
99
136
144
119
99
86
56
11
-36
-73
-90
-93
-99
-95
-71
-63
-93
-121
-116
-104
-133
-181
-189
-201
-281
-349
-319
-261
-246
-240
-187
-76
91
420
897
982
260
-610
-734
-282
69
172
208
227
241
276
303
297
283
281
286
304
338
370
391
419
444
425
382
375
378
338
298
283
200
56
-12
9
8
-21
-18
-7
-23
-42
-46
-44
-62
-110
-137
-121
-127
-163
-167
-152
-150
-149
-173
-178
-84
89
403
835
787
-126
-1075
-1166
-717
-375
-202
-101
-72
-47
-6
14
33
61
68
63
58
43
41
68
111
151
177
189
199
201
179
141
104
78
58
33
18
38
70
78
84
110
128
128
122
102
76
82
106
91
57
39
12
-10
-6
-33
-60
-1
121
425
945
978
29
-976
-1020
-509
-202
-116
-60
-43
-48
-32
-17
-11
-2
9
23
55
85
92
99
131
142
108
86
103
109
81
38
-7
-44
-66
-92
-115
-111
-100
-104
-96
-75
-81
-97
-77
-56
-68
-66
-36
-35
-71
-97
-102
-98
-97
-114
-122
-77
63
360
628
376
-423
-1032
-975
-610
-383
-309
-281
-286
-300
-291
-278
-288
-296
-279
-262
-248
-211
-172
-153
-123
-70
-33
-17
14
53
61
31
-3
-26
-38
-31
-9
1
0
18
47
64
84
118
130
117
128
157
161
146
131
111
96
113
131
108
100
175
335
639
991
844
-21
-815
-828
-397
-87
49
116
132
140
159
167
170
185
209
233
258
290
330
360
375
384
392
402
414
409
381
360
337
276
207
169
142
126
138
121
44
-20
-26
-16
-13
-28
-64
-82
-77
-86
-103
-105
-111
-112
-101
-117
-130
-116
-40
372
1020
914
-277
-1250
-1104
-555
-323
-270
-232
-236
-232
-212
-217
-218
-188
-150
-114
-72
-24
14
33
58
94
109
94
86
94
95
65
5
-51
-63
-53
-69
-96
-90
-72
-89
-115
-115
-107
-111
-121
-133
-133
-114
-107
-129
-155
-167
-172
-172
-176
-171
-133
-42
187
508
487
-154
-883
-1020
-673
-353
-215
-163
-149
-143
-116
-94
-91
-70
-26
7
31
71
115
152
195
243
285
327
361
383
402
399
365
337
316
275
241
235
231
214
190
176
181
180
155
136
134
130
117
100
83
78
70
51
45
37
12
30
124
301
624
852
447
-476
-1006
-762
-293
-50
42
103
132
147
176
213
251
291
322
346
382
387
240
-35
-238
-290
-310
-363
-433
-524
-598
-631
-704
-789
-720
-523
-390
-355
-333
-298
-241
-174
-154
-148
-98
-66
-93
-87
-24
8
-10
-28
-29
-9
19
11
5
68
208
532
943
773
-207
-1022
-929
-450
-200
-101
-9
43
84
134
162
179
195
199
198
214
254
307
351
383
406
412
404
395
375
330
272
222
176
129
87
59
43
23
0
-19
-35
-52
-64
-75
-104
-142
-155
-151
-163
-187
-211
-241
-248
-232
-241
-244
-198
-106
226
786
762
-273
-1236
-1155
-585
-279
-161
-64
-40
-32
14
43
55
82
110
133
167
206
249
297
338
371
402
420
422
417
396
361
328
297
265
239
218
202
189
174
155
141
135
131
131
128
109
82
76
92
101
85
53
30
33
35
8
-3
32
96
314
667
582
-247
-1051
-1059
-598
-281
-163
-111
-102
-102
-90
-89
-87
-69
-61
-74
-86
-90
-98
-111
-116
-120
-122
-108
-90
-89
-97
-110
-144
-193
-247
-301
-339
-363
-387
-397
-383
-371
-365
-346
-320
-295
-273
-264
-258
-247
-255
-280
-289
-284
-279
-265
-265
-281
-228
-69
169
451
513
42
-671
-959
-693
-298
-56
60
124
160
185
206
224
253
291
324
342
349
361
400
449
472
476
487
493
482
459
424
380
342
306
269
233
193
166
174
178
162
165
174
161
154
155
122
79
67
62
37
4
-26
-42
-38
-41
-45
2
124
389
795
870
157
-788
-1028
-628
-260
-105
-19
5
-16
-12
8
13
17
32
46
60
75
91
111
130
127
106
84
56
13
-28
-60
-95
-129
-149
-154
-142
-113
-87
-78
-73
-59
-50
-59
-67
-59
-58
-82
-87
-58
-49
-63
-67
-73
-74
-45
-41
-59
-27
70
373
889
910
-55
-1071
-1105
-558
-219
-109
-38
-22
-27
-1
19
20
36
63
84
110
148
190
232
265
284
293
294
279
255
230
184
117
57
19
0
-6
-10
-16
-19
-21
-26
-32
-31
-28
-40
-74
-99
-90
-77
-96
-130
-161
-174
-152
-135
-157
-157
-110
42
461
835
385
-710
-1242
-877
-427
-307
-286
-271
-294
-297
-290
-305
-304
-281
-270
-259
-230
-200
-171
-127
-80
-49
-24
1
15
20
16
-7
-44
-72
-81
-85
-97
-106
-98
-92
-103
-103
-79
-63
-52
-26
-10
-22
-21
7
29
37
38
37
43
48
43
65
150
320
622
897
683
-105
-780
-779
-370
-44
106
178
196
184
185
211
253
292
311
327
361
404
440
473
501
518
537
571
610
610
542
476
487
508
458
405
408
397
343
313
314
296
273
264
257
250
226
172
136
138
123
82
64
74
75
41
-7
-11
8
39
277
677
572
-308
-1097
-1073
-652
-411
-343
-319
-336
-357
-358
-365
-367
-347
-341
-360
-356
-319
-292
-280
-252
-210
-177
-154
-142
-145
-166
-196
-217
-227
-240
-249
-249
-256
-265
-260
-259
-265
-258
-245
-242
-234
-227
-228
-217
-196
-189
-190
-191
-198
-190
-170
-172
-178
-148
-44
252
598
398
-467
-1125
-981
-514
-275
-220
-194
-188
-178
-152
-136
-123
-100
-70
-34
4
47
108
176
215
239
286
340
359
351
342
318
275
238
212
184
167
169
166
151
140
144
139
123
126
147
151
145
164
192
189
167
160
168
178
190
190
187
225
325
541
861
906
313
-488
-734
-412
-46
143
236
273
264
264
297
315
284
256
282
317
325
342
376
394
401
420
429
406
367
321
262
199
142
75
2
-46
-74
-101
-129
-153
-185
-224
-255
-266
-270
-293
-331
-347
-333
-330
-356
-382
-395
-393
-381
-383
-397
-378
-305
-91
300
404
-257
-1130
-1281
-822
-466
-367
-323
-292
-275
-243
-219
-206
-179
-149
-125
-87
-42
-16
0
29
64
82
94
123
151
141
98
68
64
61
50
40
23
4
4
19
36
49
51
54
93
135
122
88
109
161
167
129
117
140
147
129
118
146
215
385
734
959
507
-417
-889
-635
-240
-67
-3
33
43
78
132
158
172
211
267
317
362
418
479
527
566
610
651
671
654
603
537
478
429
369
290
230
205
174
129
98
81
69
58
29
-8
-19
-29
-61
-82
-85
-109
-151
-184
-198
-195
-201
-238
-250
-228
-139
236
698
393
-736
-1458
-1183
-667
-451
-369
-329
-351
-350
-326
-323
-307
-288
-287
-263
-231
-234
-229
-192
-170
-164
-145
-142
-169
-200
-237
-300
-370
-406
-415
-439
-480
-500
-504
-513
-518
-515
-521
-523
-507
-499
-511
-515
-497
-483
-479
-470
-468
-468
-438
-418
-433
-424
-378
-180
335
649
-31
-1160
-1434
-883
-458
-353
-276
-222
-217
-184
-147
-133
-98
-44
-6
29
80
139
199
256
304
346
377
392
397
396
380
350
323
317
328
335
326
322
335
346
357
387
415
429
452
476
472
479
535
587
587
598
681
805
896
917
922
948
996
1290
1905
2041
1071
16
97
822
1187
1200
1203
1192
1159
1166
1189
1197
1206
1237
1283
1314
1324
1340
1361
1364
1346
1310
1259
1239
1276
1320
1352
1424
1542
1674
1842
2043
2193
2233
2168
2021
1833
1640
1444
1222
988
780
612
469
327
163
-30
-230
-413
-568
-704
-845
-987
-1110
-1185
-1066
-766
-814
-1570
-2402
-2547
-2230
-2051
-2084
-2141
-2191
-2258
-2338
-2452
-2636
-2902
-3196
-3448
-3634
-3733
-3724
-3659
-3610
-3570
-3515
-3451
-3390
-3345
-3351
-3433
-3573
-3729
-3873
-4006
-4134
-4235
-4275
-4242
-4121
-3823
-3378
-3077
-3052
-3022
-2796
-2534
-2400
-2362
-2346
-2368
-2473
-2533
-2317
-1897
-1616
-1539
-1419
-1188
-1020
-1117
-1686
-2649
-3411
-3514
-3189
-2910
-2814
-2759
-2879
-3287
-3341
-3124
-3943
-4357
-585
6309
11092
12533
13169
13834
14089
14180
14261
14175
13760
12930
12121
11828
11702
11144
10366
9998
9978
9744
9273
8896
8545
8090
7703
7427
7113
6723
6335
6012
5732
5454
5242
5024
4680
4458
4362
4056
3972
4097
3391
2973
3195
-1819
-14362
-24662
-25729
-23279
-22542
-21938
-20852
-20313
-19843
-19230
-18722
-18163
-17763
-17229
-16236
-15646
-13824
-6955
2903
9088
10347
10251
10296
10300
10554
10889
10944
10897
10929
11050
11139
11075
11068
11154
11035
10833
10674
10398
10345
10241
9184
8277
7558
2591
-7090
-13654
-13135
-10460
-9137
-8015
-6790
-6085
-5483
-4845
-4409
-3888
-3254
-3066
-3666
-4586
-4561
-3400
-3414
-5801
-7780
-7132
-5463
-4362
-3440
-2639
-2325
-2161
-1882
-1674
-1547
-1388
-1208
-996
-745
-508
-302
-120
17
106
175
236
294
351
389
390
371
368
380
392
410
445
487
531
572
592
604
640
681
689
680
680
675
678
724
769
783
826
958
1250
1587
1438
588
-160
-83
460
877
1055
1012
837
761
820
887
952
1035
1118
1226
1357
1469
1569
1667
1738
1784
1806
1789
1747
1702
1645
1572
1500
1429
1358
1303
1267
1235
1212
1206
1208
1212
1220
1226
1232
1245
1236
1205
1192
1188
1139
1054
964
859
745
636
508
385
321
346
575
888
588
-556
-1484
-1350
-768
-560
-629
-631
-569
-545
-582
-650
-691
-685
-661
-632
-592
-547
-512
-489
-484
-502
-525
-535
-562
-624
-685
-716
-742
-768
-775
-768
-759
-735
-687
-632
-584
-532
-470
-411
-364
-327
-316
-322
-311
-293
-303
-329
-348
-357
-335
-288
-249
-202
-136
17
431
826
418
-694
-1298
-929
-381
-185
-151
-145
-183
-215
-237
-281
-316
-333
-362
-381
-363
-337
-340
-366
-405
-450
-500
-581
-706
-851
-1000
-1159
-1324
-1511
-1698
-1780
-1708
-1564
-1408
-1222
-1014
-807
-584
-341
-74
228
504
669
780
916
1010
1020
1014
988
915
857
804
700
639
705
900
1159
1036
91
-1065
-1366
-866
-406
-260
-175
-96
-64
155
704
1227
1368
1284
1249
1252
1219
1185
1175
1158
1112
1066
1043
990
878
777
718
640
538
449
370
305
261
210
168
147
105
71
84
60
-15
-38
-23
-53
-106
-123
-107
-113
-166
-208
-201
-203
-227
-224
-197
-83
305
716
338
-869
-1664
-1333
-641
-328
-233
-133
-107
-133
-97
-33
-5
19
44
53
89
156
192
204
243
281
276
250
224
173
101
41
-8
-71
-120
-131
-134
-151
-156
-145
-147
-161
-155
-148
-163
-158
-136
-168
-224
-217
-192
-214
-235
-235
-251
-248
-219
-234
-262
-234
-79
344
690
132
-1084
-1569
-1006
-412
-242
-176
-119
-120
-104
-73
-67
-45
-4
26
65
120
167
202
237
262
268
265
256
242
223
186
141
107
78
45
23
12
4
-3
-11
-22
-27
-25
-28
-33
-30
-38
-63
-68
-46
-44
-69
-89
-98
-93
-83
-95
-99
-83
-15
368
957
765
-517
-1465
-1106
-347
-81
-56
15
46
50
81
103
121
153
182
209
242
274
302
330
351
353
344
335
323
292
241
187
140
97
61
40
28
14
6
1
-13
-24
-15
-2
0
3
13
5
-19
-21
3
3
-27
-43
-49
-58
-50
-45
-66
-72
-28
210
675
678
-323
-1360
-1255
-505
-118
-66
-4
29
17
37
62
72
96
122
138
157
188
224
254
273
286
298
302
291
270
241
200
150
103
62
24
-5
-20
-30
-42
-54
-63
-71
-78
-75
-69
-73
-76
-69
-74
-90
-78
-52
-60
-87
-100
-109
-111
-97
-102
-115
-86
14
276
566
270
-722
-1390
-1075
-434
-140
-69
-17
-10
-14
10
29
38
59
80
102
136
169
193
220
254
279
287
292
292
271
230
188
144
100
59
23
2
0
3
-4
-10
-14
-20
-28
-33
-38
-47
-53
-45
-35
-47
-63
-54
-45
-64
-87
-98
-108
-106
-99
-113
-112
-58
78
369
563
110
-813
-1233
-843
-327
-120
-61
-20
-17
-16
6
29
46
62
79
101
124
145
172
207
241
266
281
283
273
249
213
163
106
57
15
-25
-54
-67
-76
-92
-108
-115
-110
-111
-123
-124
-109
-99
-98
-97
-93
-83
-74
-90
-121
-135
-133
-134
-122
-96
-95
-93
-28
114
385
645
364
-540
-1200
-1034
-519
-195
-47
27
42
48
71
96
123
146
164
197
238
261
283
326
378
419
444
450
439
416
378
318
254
211
172
122
86
72
57
34
20
18
18
16
9
4
7
9
9
14
15
0
-8
5
5
-20
-38
-46
-57
-50
-43
-66
-47
55
248
591
757
149
-914
-1329
-886
-358
-130
-40
-5
-13
-10
2
6
23
48
67
88
118
148
175
198
216
226
224
212
191
148
90
36
-12
-61
-100
-125
-145
-156
-156
-157
-162
-162
-160
-163
-165
-159
-156
-155
-146
-141
-159
-169
-144
-128
-145
-159
-160
-163
-150
-142
-157
-137
-50
165
595
797
99
-1022
-1341
-778
-259
-112
-63
-24
-18
4
33
45
63
90
112
135
168
205
234
259
284
301
306
308
307
285
234
169
116
75
39
17
17
18
10
13
28
32
29
34
48
64
83
