# session 14
25
-214
565
-79
-3287
-5840
-5748
-5035
-5036
-4927
-4567
-4386
-4178
-3865
-3652
-3484
-3286
-3113
-2928
-2692
-2486
-2364
-2269
-2143
-2005
-1878
-1729
-1567
-1469
-1407
-1280
-1154
-1140
-1165
-1154
-1144
-1091
-976
-908
-857
-697
-520
-442
-387
-303
-167
70
436
1039
1569
1077
-411
-1369
-1100
-500
-149
112
240
192
207
317
353
333
361
416
456
491
501
488
498
514
508
543
634
675
608
522
512
538
506
434
381
322
284
344
418
382
305
276
251
190
98
-17
-100
-139
-230
-360
-381
-324
-318
-293
-171
-55
29
149
423
1035
1566
1052
-273
-941
-541
20
273
390
438
445
479
510
540
621
701
737
771
815
852
895
945
962
930
890
878
877
854
811
765
712
646
592
582
612
630
600
552
518
453
363
344
322
159
10
44
71
-41
-133
-165
-226
-206
-42
43
18
108
248
490
1272
1937
1033
-826
-1546
-1004
-583
-526
-379
-284
-412
-515
-449
-376
-414
-463
-473
-513
-522
-429
-410
-572
-728
-718
-628
-643
-812
-967
-980
-954
-998
-1049
-1022
-938
-866
-830
-749
-541
-332
-345
-435
-290
-107
-207
-299
-120
28
7
2
-16
-74
-33
14
-98
-219
-177
-41
217
722
1062
525
-589
-1090
-685
-195
-55
-33
-2
20
70
110
98
104
159
203
222
237
241
231
231
255
285
283
246
227
248
284
328
365
375
390
418
414
380
383
432
430
315
242
323
374
303
254
221
191
256
234
35
13
178
215
292
492
430
292
646
1072
645
-498
-1359
-1419
-1014
-746
-795
-832
-642
-457
-471
-526
-426
-247
-238
-396
-392
-170
-62
-132
-124
8
123
177
194
171
121
121
206
236
133
97
199
201
96
137
244
209
178
237
203
113
125
128
61
76
171
228
256
296
333
324
249
171
159
289
649
932
490
-594
-1328
-1198
-713
-394
-254
-186
-129
-52
-7
-1
48
121
148
147
123
65
44
114
214
250
168
75
137
232
138
33
165
300
220
180
298
300
113
-56
-152
-238
-282
-314
-425
-539
-527
-481
-442
-246
-2
-42
-227
-211
-82
-51
-93
-159
-189
-2
456
812
509
-398
-1110
-1125
-752
-422
-238
-191
-232
-268
-269
-244
-196
-185
-211
-189
-157
-147
-53
62
63
83
168
148
125
261
377
375
424
514
493
399
331
282
217
164
166
186
153
96
89
92
63
104
273
438
536
650
758
770
725
637
479
399
484
655
1089
1709
1559
317
-752
-769
-298
49
200
207
216
261
191
54
-10
-70
-169
-222
-222
-252
-323
-382
-385
-302
-188
-165
-202
-177
-160
-213
-203
-156
-203
-272
-288
-314
-340
-297
-213
-188
-233
-246
-216
-259
-342
-322
-259
-297
-381
-408
-422
-494
-548
-463
-327
-302
-302
-180
95
455
452
-300
-1169
-1275
-824
-456
-239
-54
42
40
-8
-48
-21
17
-11
-68
-111
-111
-25
81
116
114
93
24
-7
64
123
57
-61
-98
-22
81
74
-48
-136
-163
-286
-565
-803
-790
-669
-734
-870
-850
-832
-915
-921
-914
-1022
-989
-636
-241
-66
-32
-1
-18
-9
276
569
217
-524
-705
-250
201
428
539
582
635
719
789
852
830
652
559
741
989
1185
1519
1946
2171
2179
2216
2332
2348
2219
2063
1914
1788
1732
1628
1345
997
722
528
408
312
181
79
40
-39
-209
-388
-469
-448
-481
-649
-785
-795
-828
-957
-1041
-950
-745
-518
-65
566
391
-1024
-2207
-1995
-1319
-1100
-927
-581
-429
-469
-462
-364
-225
-169
-240
-247
-122
-36
-20
30
95
160
247
256
141
49
65
104
36
-197
-460
-568
-528
-442
-407
-513
-673
-712
-645
-581
-528
-486
-461
-404
-318
-284
-293
-290
-306
-329
-287
-259
-293
-246
-126
130
907
1714
1156
-526
-1387
-925
-375
-247
-178
-118
-140
-141
-108
-84
-64
-52
-45
-52
-73
-14
176
408
656
954
1167
1137
955
823
773
729
680
640
582
503
442
416
418
418
365
259
186
192
224
232
221
178
99
16
-58
-127
-176
-204
-244
-352
-464
-401
-256
-163
284
1008
724
-889
-2107
-1904
-1250
-980
-844
-639
-518
-513
-545
-586
-629
-656
-650
-614
-579
-549
-496
-423
-350
-289
-263
-271
-281
-300
-358
-460
-588
-700
-754
-781
-769
-601
-307
-97
-18
54
104
57
25
127
286
407
486
509
525
626
757
835
921
1026
1104
1227
1419
1765
2465
2950
2198
737
189
701
1183
1277
1235
1128
1045
1096
1185
1219
1232
1234
1195
1107
1012
972
957
895
790
670
525
377
239
66
-149
-358
-540
-692
-811
-931
-1043
-1082
-1060
-1052
-1070
-1077
-1053
-1012
-989
-993
-997
-977
-948
-936
-929
-908
-921
-970
-970
-943
-973
-968
-853
-554
115
620
-130
-1701
-2356
-1819
-1231
-992
-847
-787
-709
-474
-302
-341
-384
-275
-83
60
101
120
201
291
321
325
324
296
276
310
332
279
202
160
149
157
170
180
212
239
208
178
213
252
249
252
277
290
291
307
343
363
337
324
352
326
274
293
335
758
1963
2672
1292
-826
-1260
-425
17
22
96
153
175
222
207
198
259
269
223
244
290
284
297
351
369
370
387
368
341
367
369
315
296
317
294
251
234
201
150
129
114
70
35
8
-15
-10
-32
-98
-101
-65
-97
-152
-188
-192
-137
-163
-307
-308
-137
203
967
1488
540
-1166
-1704
-1049
-525
-414
-349
-360
-436
-407
-348
-364
-380
-372
-421
-508
-518
-444
-420
-461
-437
-384
-433
-498
-461
-434
-515
-612
-659
-701
-760
-806
-827
-840
-853
-863
-866
-852
-829
-830
-853
-860
-853
-855
-849
-820
-803
-815
-839
-869
-887
-877
-886
-916
-907
-850
-539
260
848
207
-1056
-1400
-768
-163
172
482
726
921
1192
1465
1676
1893
2097
2243
2385
2545
2676
2777
2896
3012
3064
3068
3056
2937
2623
2225
1904
1663
1449
1255
1079
913
793
764
790
769
647
462
286
170
76
-70
-191
-194
-203
-331
-449
-473
-505
-565
-578
-585
-639
-645
-528
-212
300
420
-473
-1708
-2063
-1597
-1167
-998
-915
-913
-930
-867
-843
-930
-975
-929
-897
-875
-794
-709
-699
-727
-706
-632
-571
-546
-548
-573
-603
-621
-633
-640
-642
-661
-700
-726
-721
-693
-658
-642
-637
-612
-575
-557
-551
-542
-527
-504
-498
-529
-555
-536
-494
-473
-459
-395
-247
5
421
804
584
-348
-1156
-1116
-532
-65
143
272
356
345
330
394
448
427
414
452
475
472
499
565
631
693
744
761
757
764
767
733
670
621
611
605
574
548
549
544
512
489
486
460
430
446
438
375
411
554
577
439
323
262
211
209
214
146
124
202
353
860
1557
1250
-317
-1452
-1165
-468
-200
-109
-32
-48
-59
-31
-33
-22
14
16
8
35
72
91
104
119
132
128
102
79
65
36
-13
-63
-109
-144
-155
-157
-179
-197
-184
-178
-200
-201
-185
-203
-221
-206
-210
-229
-206
-189
-238
-292
-298
-291
-293
-303
-315
-270
-105
237
687
673
-296
-1477
-1695
-1092
-580
-376
-253
-213
-266
-286
-242
-196
-179
-174
-144
-75
2
57
102
144
165
167
183
210
212
196
185
154
90
37
15
10
29
70
94
72
52
99
168
181
165
168
155
134
159
181
136
101
91
15
-31
95
183
68
10
236
739
1338
1303
108
-1203
-1295
-587
-178
-133
-93
-58
-51
-20
-8
-26
-4
41
26
-2
49
71
4
54
219
204
44
26
112
132
106
71
31
18
13
-25
-64
-63
-31
-5
3
4
-22
-88
-99
4
71
0
-53
7
52
14
-15
26
90
93
29
4
78
306
752
1012
438
-645
-1123
-747
-238
-16
44
64
58
58
84
112
121
136
142
118
138
220
239
185
186
232
229
204
221
242
204
119
45
0
-46
-82
-90
-130
-237
-307
-264
-205
-222
-252
-221
-166
-159
-196
-214
-188
-147
-127
-141
-175
-185
-167
-183
-204
-129
26
238
484
364
-451
-1326
-1370
-785
-361
-282
-281
-250
-216
-190
-180
-189
-213
-221
-146
-3
95
102
75
59
44
32
48
89
119
125
116
83
35
0
-20
-29
-34
-42
-34
-1
15
23
70
93
62
119
283
374
362
348
313
251
246
281
280
253
225
217
273
452
848
1228
911
-166
-966
-835
-316
4
153
231
253
306
348
288
266
344
346
301
396
511
490
466
489
433
350
352
356
313
306
291
165
51
120
262
243
75
-30
-35
-75
-131
-119
-125
-173
-194
-255
-318
-206
-70
-133
-224
-208
-230
-263
-221
-243
-323
-263
-100
131
511
596
-143
-1114
-1344
-949
-600
-420
-287
-255
-300
-295
-253
-246
-247
-219
-197
-200
-188
-134
-71
-42
-43
-43
-23
15
43
31
-19
-73
-106
-122
-143
-183
-222
-231
-230
-252
-264
-228
-192
-199
-198
-159
-134
-133
-109
-79
-89
-110
-115
-128
-135
-116
-129
-164
-112
41
324
732
751
-97
-1163
-1430
-990
-563
-373
-284
-243
-222
-192
-164
-128
-85
-62
-54
-16
37
57
70
121
171
189
227
282
283
238
240
318
449
600
719
773
809
871
923
940
960
984
964
909
859
802
718
649
638
635
573
470
367
271
216
183
118
96
168
374
989
1667
1129
-607
-1634
-1201
-534
-329
-245
-187
-220
-209
-174
-203
-212
-161
-130
-128
-109
-68
-20
32
73
86
77
60
44
16
-30
-88
-155
-221
-248
-232
-227
-249
-254
-238
-242
-267
-276
-258
-234
-229
-250
-262
-248
-246
-267
-263
-247
-262
-271
-257
-275
-295
-238
-66
384
982
830
-439
-1565
-1472
-794
-419
-310
-259
-257
-246
-219
-222
-212
-176
-157
-138
-97
-61
-26
14
31
19
11
9
-1
-4
-4
-40
-100
-128
-121
-113
-103
-79
-60
-59
-63
-60
-54
-45
-21
16
28
1
-4
42
67
31
0
16
35
39
43
38
64
158
338
806
1416
1241
-11
-1063
-968
-370
-26
115
199
219
234
252
252
286
354
386
380
385
413
454
497
534
541
496
441
439
461
433
361
299
247
184
119
60
9
-34
-66
-84
-87
-91
-107
-123
-128
-131
-148
-166
-158
-141
-148
-155
-163
-212
-237
-195
-191
-201
-84
170
672
1298
1076
-389
-1652
-1543
-828
-442
-284
-185
-197
-207
-159
-138
-124
-73
-23
-1
23
89
168
195
203
259
282
193
125
163
155
38
-31
-24
-81
-170
-153
-92
-84
-73
-41
-43
-41
-12
-20
-38
-17
-15
-43
-16
23
-21
-79
-68
-58
-79
-53
-5
15
89
316
858
1550
1373
-129
-1501
-1464
-756
-377
-235
-126
-108
-106
-70
-48
-24
14
41
71
110
144
202
289
341
327
295
273
245
200
144
79
12
-57
-120
-152
-152
-153
-170
-179
-169
-159
-164
-171
-167
-161
-174
-200
-200
-160
-125
-123
-123
-130
-146
-134
-140
-181
-157
-80
236
1163
1871
877
-1046
-1666
-931
-365
-260
-145
-59
-61
-23
18
21
41
70
100
152
200
229
273
324
352
353
326
273
229
210
173
105
42
-6
-56
-90
-92
-86
-95
-103
-99
-84
-72
-72
-75
-73
-84
-108
-96
-45
-21
-43
-69
-80
-62
-34
-57
-77
-11
129
586
1377
1366
-153
-1614
-1490
-606
-188
-112
-32
1
14
49
56
59
83
96
104
125
153
187
221
246
267
271
240
211
214
199
125
68
60
25
-28
-9
45
57
74
116
126
97
55
15
29
88
83
20
25
56
2
-14
72
42
-133
-215
-182
-114
0
136
618
1559
1677
115
-1440
-1378
-600
-280
-229
-174
-198
-210
-155
-127
-125
-114
-95
-58
-23
-12
36
144
199
141
67
54
75
102
94
13
-53
-7
76
114
155
186
105
-49
-134
-141
-154
-173
-174
-190
-217
-201
-183
-227
-245
-166
-118
-181
-248
-242
-208
-218
-258
-234
-176
-72
417
1082
795
-563
-1446
-1124
-544
-356
-290
-184
-114
-49
28
74
82
63
52
73
99
121
164
210
239
265
291
314
340
343
306
273
249
197
143
140
161
155
121
86
78
95
99
81
59
36
24
37
38
6
-2
33
42
11
-13
-29
-41
-29
-34
-55
-12
74
295
852
1202
452
-881
-1368
-886
-391
-223
-143
-94
-94
-76
-49
-41
-21
16
51
91
134
158
186
246
299
313
330
364
364
323
285
249
198
148
108
63
23
0
-18
-44
-71
-88
-99
-115
-132
-140
-140
-143
-160
-171
-149
-143
-187
-217
-214
-220
-215
-213
-245
-203
-65
105
520
1035
717
-563
-1484
-1344
-838
-500
-268
-163
-170
-134
-76
-78
-66
-15
8
23
77
142
197
244
284
321
333
290
239
238
236
174
125
149
135
43
23
84
84
63
91
75
19
29
66
68
93
148
165
164
206
258
250
193
128
71
58
84
41
-56
-19
158
394
826
1197
698
-550
-1270
-972
-439
-200
-98
-23
-10
-24
-46
-66
-27
35
31
17
71
101
74
124
236
226
124
81
58
3
-16
-21
-64
-107
-150
-212
-226
-193
-194
-220
-219
-200
-191
-188
-175
-164
-186
-198
-150
-113
-137
-147
-143
-186
-220
-194
-163
-155
-176
-186
-92
108
457
925
891
-112
-1217
-1338
-759
-304
-122
-48
-34
-2
68
97
92
101
129
182
234
258
289
343
387
440
489
475
415
363
326
314
293
197
99
95
90
26
17
72
79
46
25
12
20
16
-58
-105
-44
-7
-69
-103
-72
-93
-175
-210
-176
-150
-194
-253
-203
-62
170
716
1243
695
-824
-1708
-1353
-740
-419
-195
-102
-173
-181
-99
-70
-96
-101
-30
83
113
86
148
246
279
320
346
276
221
207
116
47
92
73
-52
-107
-66
-6
48
47
-8
-2
78
97
58
97
185
185
87
