# session 7
18
-523
1127
-160
-6940
-12489
-12415
-10925
-10960
-10773
-10045
-9772
-9517
-9006
-8670
-8406
-8019
-7676
-7402
-7079
-6720
-6396
-6108
-5793
-5445
-5124
-4826
-4515
-4222
-3934
-3591
-3120
-2464
-1938
-2133
-2893
-3273
-2916
-2333
-1888
-1573
-1373
-1226
-1045
-858
-699
-526
-335
-159
3
164
323
477
624
753
858
955
1046
1109
1148
1175
1185
1185
1202
1229
1253
1286
1320
1337
1363
1416
1453
1453
1467
1506
1512
1481
1486
1520
1517
1493
1486
1471
1467
1494
1483
1456
1502
1620
1936
2442
2412
1399
390
387
917
1183
1227
1289
1310
1266
1247
1261
1252
1216
1179
1142
1115
1122
1146
1141
1103
1062
1028
989
949
912
863
796
716
630
559
517
484
441
388
326
262
215
184
153
121
80
30
0
-8
-41
-103
-154
-187
-211
-225
-250
-292
-299
-237
-53
245
284
-309
-1119
-1386
-1091
-748
-577
-500
-465
-447
-420
-403
-404
-398
-378
-359
-338
-305
-262
-217
-176
-144
-137
-162
-185
-184
-188
-221
-273
-334
-387
-417
-439
-461
-463
-465
-489
-503
-495
-493
-489
-484
-505
-527
-508
-477
-472
-479
-485
-483
-448
-404
-408
-411
-320
-111
257
587
309
-635
-1352
-1259
-797
-473
-311
-246
-239
-215
-172
-149
-126
-95
-63
-19
29
69
124
189
217
218
237
263
267
256
225
157
86
57
43
19
9
17
13
11
35
42
7
-9
17
25
-3
-12
8
7
-18
-38
-55
-61
-54
-85
-130
-95
21
302
805
931
79
-994
-1124
-549
-163
-77
-23
10
14
44
72
85
115
153
185
229
275
294
319
375
408
394
370
352
335
320
288
231
191
179
168
159
166
171
168
176
187
192
199
218
241
260
277
293
296
281
250
191
122
97
89
31
-11
26
146
464
827
567
-414
-1118
-942
-451
-197
-100
-45
-43
-31
4
11
14
44
71
95
136
181
220
249
264
286
318
325
312
294
246
185
151
118
62
26
17
7
2
-4
-27
-51
-56
-50
-55
-91
-132
-134
-121
-137
-160
-175
-204
-214
-192
-200
-214
-154
-8
360
888
800
-283
-1302
-1296
-754
-411
-269
-204
-216
-222
-191
-182
-182
-154
-120
-100
-74
-22
39
90
142
187
200
196
198
175
112
46
-7
-63
-120
-161
-184
-202
-221
-233
-233
-236
-252
-271
-279
-287
-306
-316
-305
-294
-284
-268
-263
-261
-218
-171
-161
-121
-10
186
582
929
552
-453
-1014
-717
-219
17
106
148
148
148
155
164
191
223
239
254
286
324
350
372
398
406
381
349
324
286
231
168
105
58
32
11
-13
-25
-18
-18
-29
-23
-7
-12
-21
-17
-22
-32
-19
2
0
-9
-8
5
24
28
28
58
125
346
793
954
253
-756
-1018
-557
-136
3
58
87
79
79
98
117
129
147
179
214
242
277
317
344
359
365
361
346
317
269
203
130
62
14
-17
-50
-68
-64
-62
-71
-64
-57
-80
-106
-108
-119
-144
-149
-147
-163
-171
-179
-219
-246
-239
-257
-277
-244
-162
92
493
445
-386
-1215
-1237
-760
-418
-289
-233
-219
-206
-160
-124
-113
-96
-64
-26
13
56
110
163
194
206
212
218
230
239
208
132
46
-14
-46
-74
-107
-124
-122
-129
-152
-159
-134
-97
-70
-67
-92
-111
-94
-78
-94
-102
-87
-100
-123
-106
-86
-77
-6
180
555
956
752
-224
-1051
-1004
-517
-182
-29
58
92
114
151
180
198
229
275
322
360
395
429
463
496
515
512
500
474
426
361
284
198
124
75
35
-4
-33
-50
-55
-53
-54
-58
-57
-51
-51
-63
-81
-87
-77
-70
-79
-101
-120
-120
-117
-133
-133
-89
41
395
806
606
-342
-1108
-1022
-537
-223
-96
-45
-40
-28
-6
-3
8
37
58
81
121
160
190
220
240
238
225
206
173
131
80
3
-78
-127
-166
-210
-228
-222
-231
-252
-251
-233
-214
-196
-179
-167
-160
-151
-135
-118
-120
-143
-150
-128
-110
-115
-116
-84
-25
110
427
704
395
-451
-995
-811
-381
-168
-115
-71
-40
-41
-47
-42
-23
15
50
53
53
90
141
186
246
307
330
344
387
395
323
246
220
201
158
123
107
91
77
70
70
83
91
78
74
95
88
52
61
96
78
53
67
68
59
61
30
16
118
328
607
726
266
-588
-1020
-783
-397
-180
-64
-11
-7
3
25
50
77
96
120
158
180
189
219
267
297
297
288
287
281
240
172
108
60
27
7
-13
-41
-64
-71
-82
-110
-138
-150
-154
-150
-151
-175
-195
-183
-173
-192
-217
-235
-248
-254
-272
-302
-299
-213
52
413
272
-720
-1746
-1863
-1353
-976
-856
-790
-712
-599
-440
-280
-154
-62
19
129
272
394
469
540
615
639
606
580
587
582
529
455
396
338
276
245
236
214
204
218
214
190
188
187
165
149
140
113
109
140
142
106
87
84
80
82
70
57
79
160
426
828
777
-53
-912
-986
-536
-203
-94
-43
-6
13
35
51
45
52
92
74
-57
-153
-81
76
182
238
293
352
415
487
539
535
480
394
299
229
190
145
79
21
-20
-60
-95
-105
-107
-118
-133
-142
-131
-91
-47
-32
-34
-23
6
31
17
-18
5
108
357
815
1008
301
-833
-1254
-858
-401
-201
-111
-61
-53
-58
-60
-59
-65
-65
-40
-13
-2
17
49
70
73
57
24
-19
-72
-142
-223
-296
-369
-447
-513
-551
-571
-587
-608
-635
-658
-671
-690
-710
-708
-702
-726
-749
-727
-697
-691
-680
-667
-662
-627
-591
-592
-543
-439
-264
257
848
469
-816
-1495
-1053
-464
-246
-133
-31
39
152
275
361
462
584
690
797
923
1047
1147
1226
1286
1312
1291
1240
1178
1091
981
870
770
684
624
585
550
514
482
453
427
405
384
351
319
304
277
237
245
293
302
277
274
269
236
219
223
219
219
299
572
884
681
-196
-965
-965
-532
-242
-155
-130
-130
-136
-135
-141
-142
-136
-141
-143
-119
-86
-56
-22
2
-3
-15
-14
-15
-34
-72
-128
-196
-244
-257
-260
-274
-278
-267
-265
-275
-278
-267
-249
-230
-218
-218
-230
-230
-204
-172
-162
-169
-176
-172
-155
-158
-182
-154
-54
137
503
720
166
-890
-1372
-1018
-541
-328
-236
-188
-197
-194
-161
-148
-141
-108
-74
-57
-26
18
58
112
168
173
134
110
103
77
28
-36
-105
-146
-157
-168
-175
-166
-168
-183
-182
-173
-176
-185
-191
-195
-212
-247
-268
-260
-263
-295
-333
-353
-295
-157
-83
-119
-115
-24
197
700
1031
347
-944
-1472
-1029
-523
-319
-225
-204
-237
-234
-214
-200
-163
-126
-118
-107
-74
-23
48
105
109
119
189
208
100
34
121
188
92
-68
-143
-78
98
301
501
697
790
759
775
887
966
954
840
622
452
447
509
600
767
940
1057
1145
1129
990
881
854
989
1454
1728
940
-413
-912
-455
-33
49
76
80
23
-2
12
27
57
113
193
286
375
449
499
539
586
600
532
418
306
186
45
-94
-210
-297
-359
-410
-450
-472
-485
-511
-541
-563
-583
-606
-628
-646
-650
-649
-663
-663
-631
-617
-637
-643
-643
-659
-652
-633
-648
-639
-565
-396
-1
378
40
-977
-1620
-1398
-909
-634
-512
-453
-431
-398
-361
-326
-269
-222
-202
-169
-113
-56
12
92
155
194
216
207
183
167
138
81
22
-24
-60
-77
-69
-57
-61
-66
-56
-47
-49
-39
-25
-28
-21
9
25
22
29
34
40
69
95
89
81
83
91
120
126
98
143
288
541
991
1252
628
-527
-1022
-641
-153
77
187
242
254
264
275
297
333
360
385
426
474
518
560
608
660
685
667
628
580
515
441
364
290
226
176
140
122
118
118
119
116
105
91
76
60
53
50
36
28
31
21
5
-4
-27
-60
-66
-66
-99
-139
-161
-179
-184
-181
-208
-211
-137
27
413
873
657
-417
-1258
-1112
-569
-275
-159
-87
-95
-109
-58
-3
14
31
67
80
77
111
167
200
233
273
274
236
198
157
101
32
-49
-128
-185
-218
-241
-248
-247
-255
-263
-253
-253
-281
-294
-278
-288
-336
-375
-400
-420
-419
-415
-438
-460
-457
-452
-448
-430
-411
-408
-404
-383
-363
-343
-305
-278
-283
-280
-258
-229
-182
-142
-122
-53
92
326
664
781
253
-570
-864
-524
-102
111
193
225
240
267
296
317
336
360
404
455
495
536
579
600
623
674
700
661
603
558
506
434
348
265
198
157
137
128
122
116
109
103
98
90
79
66
53
43
39
30
14
3
-1
-4
-2
-4
-14
-6
12
-9
-51
-53
-24
-18
-38
-47
-47
-57
-57
-44
-49
-64
-61
-54
-65
-79
-83
-85
-89
-92
-96
-99
-97
-98
-109
-106
-82
-86
-120
-102
-39
-50
-122
-124
-66
-57
-87
-82
-66
-77
-85
-73
-79
-112
-147
-168
-171
-176
-193
-183
-121
33
364
649
333
-541
-1122
-978
-573
-341
-249
-198
-181
-171
-150
-128
-107
-82
-50
-9
30
63
101
144
184
223
265
290
289
278
271
263
241
199
154
126
97
62
55
71
64
47
54
68
58
40
35
40
36
20
6
-2
-11
-15
-9
-6
-15
-17
-11
-9
-14
-16
-16
-16
-15
-17
-20
-15
-15
-26
-28
-19
-25
-40
-37
-29
-40
-55
-46
-34
-46
-58
-49
-41
-41
-29
-18
-21
-12
7
-5
-31
-37
-44
-52
-39
-37
-40
28
177
474
926
983
155
-867
-1074
-631
-252
-83
8
32
39
71
88
96
124
151
171
199
228
261
316
374
416
445
462
456
431
385
322
252
180
102
35
-5
-32
-59
-78
-81
-77
-77
-84
-87
-84
-84
-93
-102
-107
-113
-124
-136
-145
-151
-152
-149
-152
-157
-158
-154
-153
-153
-153
-161
-172
-175
-172
-165
-149
-129
-113
-105
-104
-104
-96
-85
-82
-81
-73
-54
-31
-21
-22
-8
6
-14
-48
-62
-69
-72
-58
-62
-81
-34
119
414
772
716
-56
-892
-997
-572
-234
-107
-61
-60
-61
-31
-11
-5
15
38
53
81
124
165
198
245
309
362
391
400
385
342
289
236
178
120
56
-12
-55
-72
-86
-94
-94
-104
-118
-122
-132
-154
-165
-177
-208
-231
-229
-231
-249
-262
-262
-262
-264
-259
-249
-236
-211
-185
-169
-149
-118
-93
-69
-37
-7
19
44
73
109
145
163
181
215
228
202
186
195
189
177
181
173
184
280
502
892
1170
740
-287
-915
-712
-255
5
121
155
137
146
165
150
152
189
208
200
189
190
233
310
365
396
439
459
426
385
352
280
167
71
10
-46
-101
-136
-149
-151
-153
-156
-154
-148
-152
-168
-180
-184
-186
-192
-210
-233
-240
-230
-227
-234
-232
-229
-240
-253
-255
-264
-271
-248
-226
-237
-238
-213
-220
-252
-254
-242
-244
-239
-237
-239
-195
-45
338
809
678
-289
-1133
-1069
-558
-264
-171
-112
-87
-72
-46
-30
-10
23
47
67
102
146
191
253
330
400
454
496
516
504
473
424
345
254
177
110
61
43
36
20
11
20
25
17
10
16
20
10
-1
13
29
6
-22
3
42
36
11
9
23
30
24
9
-1
-16
-54
-93
-119
-155
-184
-181
-190
-196
-109
81
356
613
448
-323
-1077
-1158
-758
-398
-223
-151
-127
-105
-67
-41
-30
-12
11
32
71
133
186
234
304
377
425
462
490
474
416
344
261
170
86
15
-31
-50
-66
-74
-63
-62
-79
-81
-70
-72
-84
-92
-102
-108
-95
-77
-85
-101
-79
-41
-35
-41
-42
-50
-44
-17
-17
-47
-55
-49
-55
-42
-28
-59
-52
56
272
692
1044
597
-545
-1209
-928
-422
-187
-79
-3
11
18
40
53
68
98
125
146
178
225
281
352
443
520
545
538
531
497
413
308
215
135
68
19
-24
-58
-63
-48
-39
-37
-35
-45
-51
-42
-51
-85
-103
-98
-112
-136
-132
-122
-131
-133
-122
-126
-135
-117
-89
-93
-121
-142
-147
-136
-126
-149
-166
-123
-4
341
866
846
-131
-1128
-1173
-659
-342
-260
-223
-222
-222
-185
-165
-181
-186
-160
-142
-137
-131
-205
-365
-340
7
366
471
447
428
363
241
113
11
-56
-106
-159
-195
-192
-178
-170
-149
-108
-70
-52
-53
-57
-47
-30
-29
-40
-41
-35
-27
-17
-15
-13
14
36
26
34
87
123
109
92
80
52
41
53
41
37
97
233
537
887
702
-195
-987
-997
-568
-242
-90
-24
-8
3
13
-1
-9
7
29
54
88
120
149
191
259
327
344
323
305
272
209
141
69
-33
-131
-184
-202
-208
-210
-209
-213
-228
-231
-204
-171
-153
-129
-101
-95
-93
-70
-48
-41
-28
-4
7
14
42
72
83
104
137
149
145
150
151
147
171
189
172
198
308
493
863
1211
873
-123
-782
-646
-244
42
241
338
330
312
368
539
648
461
205
252
421
376
277
363
506
579
623
581
422
309
277
176
2
-136
-208
-203
-149
-140
-166
-159
-149
-166
-195
-233
-252
-251
-287
-355
-399
-418
-414
-355
-275
-244
-174
17
134
61
48
180
199
114
186
381
465
419
373
368
339
258
185
96
-102
-205
77
420
200
-530
-1168
-1376
-1180
-799
-572
-587
-642
-689
-790
-941
-1237
-1539
-1440
-1078
-853
-623
-381
-463
-541
-168
207
209
138
51
-180
-247
-6
164
123
88
102
101
84
8
-95
-123
-105
-101
-123
-196
-240
-186
-113
-19
177
353
355
262
202
151
34
-86
-32
165
165
-129
-312
-166
-43
-185
-324
-230
-82
-107
-200
-91
221
549
896
1146
870
148
-238
53
558
887
1010
951
919
1178
1500
1497
1279
1199
1252
1014
329
-177
-107
-113
-473
-475
-48
220
