# session 41
38
-9
106
-72
-529
-551
-102
155
113
110
149
130
122
143
150
148
139
127
133
147
156
166
176
181
191
212
234
245
246
247
257
272
287
291
275
249
227
193
130
60
1
-48
-74
-76
-90
-115
-120
-107
-99
-102
-105
-104
-104
-115
-122
-112
-106
-118
-131
-132
-129
-127
-124
-125
-132
-133
-126
-125
-125
-119
-116
-108
-82
-59
-49
-35
-31
-60
-86
-86
-81
-82
-86
-84
-69
-71
-83
-34
76
317
830
1162
506
-757
-1281
-795
-218
-26
3
23
35
62
80
65
67
102
112
84
81
112
125
128
159
183
169
168
197
208
210
233
252
250
251
247
227
222
228
206
160
108
50
6
-26
-60
-78
-65
-58
-74
-86
-83
-78
-77
-76
-80
-91
-102
-109
-114
-115
-118
-124
-128
-132
-142
-149
-148
-144
-141
-151
-176
-182
-155
-131
-133
-132
-107
-97
-133
-168
-172
-184
-204
-200
-193
-198
-209
-233
-221
-128
76
536
1014
665
-590
-1479
-1241
-596
-275
-190
-152
-156
-152
-117
-88
-60
-34
-20
-2
19
28
37
60
82
96
113
142
172
189
207
237
260
272
293
317
322
324
334
338
317
265
207
167
131
94
83
93
86
67
65
78
86
83
74
69
76
85
75
56
60
74
61
46
60
72
76
106
151
174
178
182
200
234
250
229
210
215
199
144
94
71
55
39
25
18
24
14
-6
37
162
449
956
1142
339
-891
-1315
-854
-350
-143
-72
-67
-100
-103
-101
-130
-153
-142
-128
-131
-131
-124
-128
-123
-94
-77
-77
-64
-41
-32
-20
1
14
21
25
27
32
37
29
9
-21
-57
-96
-133
-159
-165
-176
-191
-178
-155
-167
-186
-177
-159
-153
-150
-145
-143
-144
-142
-137
-135
-137
-137
-134
-133
-137
-137
-133
-128
-121
-116
-117
-104
-65
-39
-40
-34
-29
-45
-53
-50
-54
-49
-44
-55
-45
-28
-36
13
175
488
987
1234
607
-505
-1002
-673
-215
-15
45
77
93
100
102
111
129
133
128
136
150
151
149
159
169
170
170
177
187
197
199
199
203
208
207
206
206
202
200
193
168
127
80
34
-3
-23
-36
-49
-55
-51
-52
-60
-60
-57
-63
-71
-66
-58
-65
-79
-84
-84
-87
-93
-95
-90
-91
-91
-78
-64
-56
-43
-36
-59
-93
-109
-109
-101
-101
-110
-97
-89
-113
-89
17
217
690
1185
810
-457
-1292
-1010
-398
-134
-78
-35
-22
-19
-9
-5
4
18
24
31
43
50
56
69
81
95
115
135
149
166
184
203
220
231
233
233
231
224
212
182
130
70
12
-39
-77
-101
-110
-108
-106
-114
-117
-110
-105
-103
-102
-104
-110
-113
-112
-113
-117
-115
-112
-118
-121
-118
-116
-115
-108
-106
-104
-85
-62
-50
-39
-35
-59
-85
-91
-88
-85
-89
-94
-79
-74
-93
-61
42
267
766
1162
624
-628
-1270
-878
-305
-86
-31
3
4
13
36
40
40
50
56
63
76
85
89
99
115
134
151
164
177
194
211
228
243
252
255
255
253
248
236
208
159
103
50
3
-36
-61
-71
-72
-72
-73
-73
-70
-68
-69
-69
-68
-70
-74
-78
-78
-78
-83
-88
-88
-87
-89
-93
-96
-97
-93
-89
-90
-92
-90
-80
-58
-37
-30
-20
-11
-29
-63
-79
-75
-60
-60
-80
-83
-75
-89
-70
19
243
743
1151
647
-587
-1257
-894
-314
-81
-34
-7
3
17
26
25
39
55
49
47
64
80
88
93
101
116
130
140
160
185
194
197
215
229
219
203
202
211
213
201
165
108
49
1
-39
-71
-90
-90
-82
-82
-90
-92
-91
-97
-104
-103
-99
-92
-84
-89
-105
-111
-107
-108
-112
-112
-108
-102
-103
-107
-98
-87
-94
-95
-67
-41
-37
-32
-31
-51
-73
-81
-83
-76
-74
-84
-74
-67
-86
-42
109
372
841
1160
593
-615
-1236
-909
-396
-148
-32
22
14
16
36
45
53
60
65
78
95
101
100
108
129
149
160
170
184
193
202
213
219
226
233
228
217
211
206
188
154
102
46
-2
-39
-62
-75
-88
-94
-88
-86
-88
-87
-86
-89
-87
-85
-89
-91
-86
-88
-99
-105
-102
-99
-102
-104
-104
-106
-107
-103
-99
-95
-90
-88
-80
-64
-52
-36
-20
-36
-76
-91
-82
-81
-87
-95
-90
-79
-90
-84
-8
159
579
1142
1020
-131
-1171
-1105
-494
-156
-66
-7
8
4
21
36
39
40
43
53
66
72
75
88
110
129
135
142
159
180
204
229
245
255
267
274
271
264
251
221
178
123
61
4
-37
-65
-83
-89
-91
-98
-98
-88
-79
-81
-87
-89
-87
-83
-83
-88
-89
-89
-92
-95
-92
-92
-96
-99
-101
-99
-92
-92
-100
-101
-91
-83
-85
-90
-87
-79
-79
-82
-71
-43
-23
-18
-12
-9
-30
-60
-73
-71
-67
-72
-70
-54
-65
-87
-35
101
405
958
1163
301
-944
-1231
-633
-155
-46
-5
21
17
36
54
51
57
67
66
70
82
92
102
113
126
141
156
175
199
220
234
251
268
274
281
281
243
211
238
229
127
60
69
41
-36
-83
-101
-118
-129
-121
-77
-32
-39
-74
-88
-91
-86
-66
-48
-46
-57
-73
-76
-70
-90
-115
-105
-90
-94
-91
-91
-117
-130
-110
-106
-126
-123
-92
-77
-90
-100
-96
-90
-87
-79
-64
-63
-88
-100
-73
-55
-63
-43
-16
-29
-36
-12
-15
-44
-47
-37
-41
-52
-76
-92
-85
-78
-47
58
278
756
1279
985
-279
-1219
-1010
-416
-151
-51
33
38
30
29
-6
14
100
109
41
39
99
109
82
104
155
169
171
202
224
207
219
294
333
285
261
319
352
308
266
229
146
61
11
-39
-90
-120
-148
-159
-120
-90
-126
-152
-105
-72
-109
-127
-96
-89
-115
-131
-136
-132
-119
-114
-126
-137
-147
-155
-146
-129
-129
-138
-127
-114
-119
-121
-114
-116
-129
-136
-121
-101
-98
-100
-99
-100
-82
-64
-107
-156
-120
-60
-45
-64
-107
-99
7
239
888
1731
1489
-102
-1257
-955
-287
-95
-63
-2
-16
-27
4
16
23
37
39
40
61
83
84
77
98
142
166
168
183
218
250
267
278
294
324
351
344
309
282
251
169
52
-19
-30
-63
-133
-166
-156
-157
-165
-149
-133
-141
-140
-121
-125
-137
-119
-97
-103
-110
-101
-97
-102
-101
-102
-112
-114
-96
-92
-116
-131
-119
-107
-114
-127
-121
-107
-114
-131
-123
-93
-79
-100
-126
-112
-70
-53
-61
-50
-16
-3
-22
-43
-53
-59
-51
-46
-58
-44
-17
-42
-39
89
343
808
1250
879
-334
-1110
-795
-220
-35
-10
38
47
53
70
53
29
36
53
73
94
89
67
72
101
117
130
157
182
199
215
226
238
262
282
285
289
285
256
217
175
116
46
-8
-42
-69
-95
-108
-105
-105
-110
-104
-101
-114
-112
-89
-83
-98
-104
-92
-87
-103
-119
-112
-98
-101
-104
-98
-102
-114
-111
-107
-117
-122
-118
-112
-100
-89
-100
-116
-107
-99
-109
-102
-63
-39
-43
-38
-24
-32
-61
-80
-80
-67
-60
-74
-72
-52
-69
-69
47
245
599
1077
986
-54
-1046
-1042
-518
-199
-73
3
11
9
20
25
50
72
59
60
89
91
77
93
126
150
167
172
165
170
197
230
248
251
252
252
248
249
247
231
206
161
77
-6
-35
-49
-88
-113
-110
-114
-119
-114
-122
-125
-99
-77
-84
-88
-82
-87
-93
-84
-83
-107
-122
-102
-74
-73
-90
-85
-54
-46
-79
-109
-107
-97
-92
-75
-58
-53
-38
-12
-18
-56
-82
-83
-75
-69
-81
-87
-66
-73
-87
-4
179
559
1158
1247
208
-1010
-1185
-663
-300
-129
-1
31
36
39
-3
-5
60
76
46
49
63
56
62
94
120
119
116
137
176
204
217
226
235
252
282
301
293
265
227
174
101
23
-51
-126
-179
-180
-152
-125
-106
-121
-153
-130
-85
-101
-127
-104
-84
-110
-164
-173
-81
3
-46
-117
-110
-123
-153
-106
-65
-108
-125
-80
-70
-108
-124
-98
-71
-75
-81
-66
-56
-42
-6
15
-1
-13
-12
-26
-27
0
-10
-58
-42
5
-20
28
268
543
913
1309
941
-276
-1016
-718
-234
-25
61
0
-111
-72
9
11
3
4
-10
-8
31
66
37
-22
0
77
72
20
52
124
126
119
167
174
126
147
215
216
180
147
89
37
-1
-70
-120
-108
-108
-135
-138
-135
-136
-125
-119
-105
-76
-90
-113
-84
-85
-133
-93
-15
-52
-128
-123
-94
-89
-87
-87
-72
-59
-97
-110
-41
-6
-38
-23
7
-40
-86
-69
-56
-69
-71
-66
-64
-80
-80
-1
134
408
920
1133
366
-803
-1173
-720
-259
-70
3
22
26
36
12
4
52
78
56
52
72
85
98
109
109
121
147
162
175
206
234
232
224
248
285
284
255
250
246
200
143
100
38
-38
-77
-77
-80
-104
-125
-113
-87
-89
-107
-99
-77
-79
-91
-86
-76
-80
-86
-81
-84
-98
-97
-89
-101
-110
-94
-93
-102
-77
-51
-76
-95
-62
-33
-26
-14
-28
-76
-97
-81
-72
-82
-102
-99
-67
-64
-81
-33
140
551
1076
981
-80
-1103
-1115
-549
-187
-69
-12
-6
-15
-3
4
17
37
33
21
33
52
59
66
78
92
111
133
147
157
176
203
225
236
249
266
272
262
252
237
200
140
67
-5
-58
-89
-110
-123
-122
-116
-118
-122
-117
-113
-114
-110
-99
-94
-102
-109
-112
-121
-130
-111
-84
-97
-131
-123
-84
-82
-107
-108
-107
-122
-99
-45
-40
-31
36
45
-37
-79
-62
-53
-48
-44
-30
-1
-25
-55
37
208
500
1016
1200
387
-784
-1106
-630
-224
-119
-39
42
39
32
60
50
22
45
77
68
51
62
88
106
110
115
129
139
144
158
183
199
198
194
198
200
194
192
186
154
104
57
7
-49
-85
-95
-106
-120
-116
-112
-119
-116
-106
-104
-93
-98
-137
-113
-27
-55
-173
-157
-34
-11
-88
-137
-105
-51
-86
-162
-102
20
-24
-147
-109
29
62
3
-43
-86
-116
-92
-74
-82
-52
-42
-106
-96
67
313
670
962
616
-381
-1114
-1020
-559
-245
-87
-8
1
1
14
17
28
45
46
49
67
79
80
91
114
134
147
159
174
184
197
217
229
228
229
233
235
237
231
201
158
117
70
17
-25
-49
-66
-77
-76
-68
-70
-75
-69
-59
-60
-64
-60
-59
-61
-62
-69
-78
-82
-86
-93
-99
-101
-98
-94
-99
-99
-78
-57
-53
-44
-29
-43
-80
-99
-99
-97
-94
-101
-98
-79
-90
-100
-23
149
532
1117
1155
88
-1106
-1214
-595
-193
-98
-44
-14
-15
-8
-2
4
19
28
28
30
42
62
79
84
94
119
145
163
184
208
228
248
268
283
290
293
291
274
237
181
115
48
-16
-68
-102
-123
-137
-140
-136
-131
-126
-124
-126
-119
-109
-110
-116
-114
-108
-107
-109
-109
-111
-116
-116
-111
-111
-103
-79
-65
-67
-56
-45
-68
-99
-109
-110
-103
-98
-109
-100
-81
-99
-89
8
216
714
1280
974
-330
-1259
-1022
-414
-147
-72
-22
-20
-12
15
18
17
30
39
44
53
64
79
93
105
124
150
172
193
217
242
265
284
299
311
319
322
315
287
231
163
97
33
-26
-68
-95
-117
-129
-123
-116
-120
-115
-100
-101
-112
-109
-100
-97
-92
-83
-87
-109
-122
-110
-107
-116
-102
-83
-78
-55
-36
-50
-44
-26
-82
-161
-141
-64
-58
-116
-120
-55
-70
-157
-99
122
445
926
1089
257
-949
-1234
-662
-196
-90
-72
-50
-15
38
43
6
10
35
10
1
58
86
77
80
51
46
160
266
235
157
160
246
312
298
279
296
287
252
227
165
58
-5
-13
-43
-87
-94
-100
-137
-166
-161
-143
-125
-109
-103
-121
-146
-138
-111
-109
-122
-125
-129
-132
-122
-118
-123
-117
-103
-89
-72
-54
-47
-51
-65
-86
-108
-114
-98
-89
-96
-90
-92
-113
-75
27
235
796
1382
963
-406
-1241
-930
-365
-139
-63
-14
-10
7
34
31
28
40
46
51
72
93
96
102
135
163
164
176
215
239
248
274
305
317
324
330
325
313
290
235
155
79
14
-48
-106
-142
-153
-147
-141
-146
-152
-145
-136
-135
-130
-122
-122
-119
-108
-108
-122
-125
-119
-122
-124
-114
-109
-108
-94
-80
-68
-47
-50
-91
-114
-108
-108
-112
-115
-121
-96
-75
-117
-110
28
242
714
1348
1172
-135
-1217
-1118
-556
-255
-105
-10
-15
-15
18
21
17
31
40
46
56
68
81
91
100
119
142
160
177
202
228
246
258
277
295
298
288
273
250
210
146
66
-4
-55
-99
-130
-141
-143
-142
-138
-139
-141
-134
-122
-114
-111
-113
-114
-108
-108
-115
-117
-113
-119
-128
-126
-122
-126
-130
-125
-118
-117
-123
-123
-114
-107
-106
-94
-69
-54
-52
-42
-35
-55
-80
-93
-93
-82
-83
-98
-82
-69
-95
-59
82
368
982
1480
844
-616
-1285
-810
-270
-117
-53
-10
-18
-1
19
11
20
43
46
43
53
72
86
94
109
134
155
171
197
233
257
271
294
321
333
336
344
342
308
252
188
115
40
-18
-57
-89
-108
-112
-112
-113
-107
-97
-90
-88
-88
-86
-80
-72
-71
-76
-74
-68
-72
-82
-82
-78
-83
-89
-85
-79
-82
-82
-75
-71
-74
-72
-65
-64
-66
-66
-62
-59
-59
-57
-56
-59
-65
-63
-48
-26
-14
-9
1
0
-25
-46
-53
-59
-54
-52
-70
-63
-49
-75
-49
76
319
899
1483
1010
-424
-1228
-835
-280
-128
-75
-22
-35
-35
-11
-13
-14
-6
-1
15
