# session 31
35
41
21
-19
263
1037
1419
462
-1016
-1438
-829
-288
-132
-73
-45
-57
-41
-18
-34
-74
-85
-46
-6
6
29
63
73
77
96
107
108
130
172
188
174
191
266
334
344
323
303
258
171
87
42
3
-63
-132
-164
-165
-171
-193
-212
-205
-170
-138
-139
-148
-137
-119
-105
-105
-128
-131
-96
-76
-93
-112
-118
-103
-100
-146
-170
-113
-80
-123
-122
-75
-97
-145
-116
-68
-53
-16
21
-23
-99
-107
-65
-46
-69
-98
-72
-21
-37
-58
25
284
895
1517
1066
-469
-1404
-944
-218
-49
-81
-43
-33
-42
-30
-11
29
63
52
36
41
49
59
70
66
56
84
143
174
177
190
207
218
242
271
288
278
236
199
196
161
56
-29
-19
3
-44
-103
-101
-84
-115
-157
-157
-114
-60
-33
-47
-69
-68
-68
-99
-124
-99
-47
-24
-60
-120
-126
-79
-71
-103
-105
-95
-94
-76
-75
-112
-119
-90
-84
-71
-22
-6
-36
-32
2
-21
-84
-82
-30
-15
-22
-20
-49
-88
-51
41
163
536
1153
1244
248
-946
-1126
-509
-55
15
-10
-10
26
85
110
113
141
162
143
106
76
71
91
112
120
121
126
148
174
169
151
160
184
212
256
278
227
160
158
169
106
13
-26
-44
-105
-167
-170
-146
-147
-162
-153
-140
-148
-142
-122
-137
-159
-127
-94
-112
-129
-121
-120
-114
-99
-113
-134
-118
-98
-109
-114
-92
-78
-94
-108
-76
-36
-56
-96
-94
-84
-97
-91
-63
-57
-68
-76
-66
-28
2
-1
14
50
32
-26
-49
-30
-22
-44
-51
-11
12
-22
-15
107
387
862
1127
516
-670
-1219
-771
-174
7
1
34
48
37
68
97
78
74
102
104
87
91
100
101
111
128
140
148
163
178
178
176
189
203
208
214
217
212
210
201
165
116
75
36
-8
-44
-64
-75
-84
-87
-81
-82
-104
-116
-91
-66
-75
-92
-87
-73
-77
-99
-112
-100
-88
-89
-89
-86
-97
-109
-104
-101
-105
-99
-87
-83
-75
-70
-96
-120
-82
-24
-29
-66
-67
-67
-92
-80
-36
-43
-77
-53
5
20
9
12
13
2
0
-10
-40
-46
-26
-30
-50
-45
-33
-8
83
304
720
1035
608
-473
-1143
-867
-294
-33
9
31
40
44
58
64
64
69
71
69
71
76
80
87
96
103
112
126
139
146
151
163
181
199
207
207
209
210
206
203
192
155
106
65
27
-13
-39
-49
-53
-55
-58
-62
-62
-62
-63
-65
-66
-70
-77
-86
-91
-90
-85
-90
-103
-109
-107
-113
-119
-112
-107
-112
-115
-111
-107
-106
-105
-104
-100
-92
-89
-88
-81
-75
-66
-42
-17
-7
4
9
-13
-44
-57
-54
-47
-51
-64
-53
-41
-62
-33
109
366
780
1066
601
-486
-1165
-978
-487
-178
-46
-5
-6
10
31
36
41
53
61
65
71
76
78
86
104
119
125
130
141
149
156
166
177
187
198
204
199
195
200
202
184
150
111
63
12
-25
-44
-54
-59
-72
-86
-79
-62
-67
-76
-65
-58
-77
-89
-65
-47
-66
-88
-85
-76
-82
-89
-86
-83
-85
-89
-94
-96
-92
-87
-80
-62
-40
-29
-16
0
-8
-35
-49
-52
-58
-54
-52
-49
-37
-49
-61
27
238
579
965
915
82
-904
-1171
-786
-355
-121
-27
-11
-5
17
28
29
39
46
46
49
63
82
91
92
101
120
134
147
168
188
201
219
240
256
265
270
268
258
240
206
152
89
30
-22
-63
-88
-101
-108
-106
-100
-96
-96
-95
-92
-88
-84
-82
-83
-88
-93
-96
-98
-103
-109
-114
-118
-120
-122
-125
-125
-120
-116
-117
-113
-108
-110
-103
-82
-70
-63
-42
-35
-60
-85
-90
-88
-82
-85
-88
-67
-70
-91
-31
137
562
1314
1544
401
-1083
-1308
-602
-168
-108
-54
-29
-46
-22
-3
-10
-1
13
16
25
40
51
63
78
95
114
138
162
186
210
239
272
302
324
340
349
349
338
303
236
149
65
-7
-68
-112
-139
-157
-167
-170
-166
-161
-155
-149
-142
-134
-126
-119
-113
-110
-107
-102
-98
-94
-91
-91
-91
-91
-93
-96
-95
-94
-91
-75
-61
-58
-47
-32
-50
-86
-102
-103
-100
-97
-101
-95
-84
-100
-94
-4
225
776
1383
1070
-286
-1252
-986
-342
-100
-68
-26
-21
-26
-8
-1
3
16
21
22
29
34
41
53
66
79
95
113
133
158
185
212
239
260
275
287
294
293
279
241
181
112
47
-13
-58
-87
-105
-114
-114
-109
-109
-110
-107
-100
-95
-91
-85
-84
-85
-86
-90
-97
-95
-84
-76
-84
-98
-91
-76
-85
-87
-62
-68
-98
-62
-8
-27
-51
-20
-14
-57
-86
-86
-73
-63
-75
-86
-83
-87
-56
58
323
841
1230
720
-494
-1178
-878
-350
-118
-49
-16
-16
-8
11
15
20
28
31
36
45
50
54
66
77
82
94
115
129
139
157
179
194
207
216
219
220
220
212
190
150
95
38
-13
-52
-78
-94
-100
-98
-94
-90
-86
-83
-84
-85
-83
-81
-80
-83
-87
-88
-87
-91
-99
-103
-102
-101
-100
-99
-95
-95
-99
-92
-68
-52
-47
-30
-18
-37
-63
-72
-77
-75
-73
-79
-72
-66
-90
-72
34
292
882
1392
830
-604
-1351
-905
-292
-100
-55
-14
-21
-15
11
14
17
30
35
40
50
59
68
79
90
105
126
145
165
188
210
234
258
276
287
294
294
286
266
222
157
88
26
-26
-68
-97
-111
-114
-113
-112
-108
-103
-99
-97
-95
-92
-92
-94
-97
-97
-98
-101
-103
-103
-102
-102
-102
-102
-103
-104
-103
-100
-99
-98
-97
-96
-94
-79
-58
-48
-39
-21
-23
-53
-76
-80
-80
-78
-82
-81
-65
-71
-86
-30
139
569
1219
1266
129
-1129
-1209
-531
-129
-66
-26
-6
-13
6
23
24
33
41
41
47
57
66
77
91
103
116
132
151
171
192
213
233
251
266
277
280
277
270
249
202
139
75
19
-29
-64
-86
-96
-97
-97
-95
-90
-87
-86
-84
-84
-85
-86
-85
-85
-89
-92
-93
-93
-93
-94
-95
-95
-94
-95
-95
-95
-94
-93
-91
-88
-87
-86
-85
-83
-82
-81
-81
-82
-80
-65
-44
-33
-24
-8
-10
-38
-61
-66
-63
-58
-61
-60
-48
-59
-65
7
189
611
1182
1112
-24
-1137
-1120
-470
-108
-48
-11
4
-1
18
30
29
37
43
43
49
57
65
75
88
101
114
130
147
165
184
201
219
236
249
256
258
258
252
236
202
151
93
40
-6
-41
-62
-72
-77
-79
-77
-74
-73
-74
-74
-73
-72
-73
-74
-76
-76
-77
-80
-83
-85
-88
-90
-89
-88
-89
-89
-88
-88
-87
-84
-82
-83
-83
-82
-81
-79
-79
-78
-74
-70
-70
-72
-73
-62
-40
-28
-23
-5
6
-14
-42
-55
-56
-53
-55
-56
-42
-46
-59
-6
136
470
1039
1213
318
-922
-1210
-641
-175
-53
-11
12
8
22
34
31
35
42
45
55
63
62
68
87
100
103
116
139
153
162
182
207
215
212
219
233
233
222
210
190
150
98
48
3
-34
-63
-83
-93
-97
-98
-95
-89
-86
-83
-78
-77
-85
-90
-89
-85
-85
-89
-92
-92
-93
-95
-96
-96
-97
-98
-97
-95
-93
-88
-83
-84
-88
-88
-85
-81
-78
-81
-76
-54
-37
-34
-19
-3
-22
-52
-60
-61
-62
-59
-62
-54
-46
-66
-50
57
290
774
1222
815
-420
-1219
-963
-388
-115
-31
11
16
27
48
50
47
52
55
61
71
81
89
97
107
121
136
152
169
188
205
220
234
248
261
268
268
265
254
229
190
135
72
18
-19
-50
-75
-84
-85
-87
-88
-87
-86
-84
-82
-81
-83
-86
-88
-89
-90
-93
-98
-99
-98
-100
-104
-104
-102
-103
-105
-104
-101
-98
-95
-94
-93
-90
-87
-87
-85
-83
-79
-77
-77
-78
-78
-78
-70
-49
-33
-27
-11
0
-19
-48
-59
-59
-55
-58
-63
-49
-49
-66
-17
126
443
1010
1245
390
-908
-1252
-658
-165
-57
-19
11
4
17
35
34
39
49
51
56
65
72
81
92
103
117
134
150
167
185
205
225
243
256
265
272
272
266
252
224
176
117
60
10
-31
-60
-78
-87
-89
-90
-89
-87
-85
-82
-79
-80
-83
-82
-82
-83
-86
-88
-89
-88
-88
-90
-91
-90
-90
-90
-89
-87
-86
-86
-87
-87
-83
-80
-79
-80
-76
-69
-68
-73
-75
-72
-65
-49
-28
-17
-6
4
-12
-45
-61
-57
-49
-51
-59
-48
-40
-59
-39
74
347
870
1206
576
-683
-1246
-807
-260
-75
-30
1
5
19
31
24
28
41
45
50
62
67
71
80
93
110
122
130
148
170
183
194
208
222
230
227
222
226
227
206
168
121
68
16
-23
-52
-79
-93
-91
-84
-83
-84
-84
-81
-77
-76
-80
-86
-87
-82
-80
-86
-88
-87
-90
-95
-92
-88
-89
-94
-95
-92
-88
-87
-89
-89
-85
-80
-72
-55
-41
-33
-17
-7
-30
-64
-78
-76
-70
-70
-77
-68
-61
-79
-50
79
330
791
1144
657
-534
-1241
-976
-435
-152
-41
8
12
21
39
45
50
56
60
66
74
81
89
100
111
124
140
156
171
188
207
227
244
257
266
274
275
268
254
225
176
117
58
5
-37
-64
-79
-86
-88
-90
-91
-88
-84
-82
-82
-81
-80
-80
-80
-80
-81
-85
-92
-98
-97
-96
-107
-121
-121
-119
-131
-135
-104
-66
-62
-77
-88
-109
-133
-119
-74
-56
-77
-87
-69
-56
-68
-86
-75
-30
3
-7
-10
11
-7
-58
-76
-69
-54
-13
-8
-71
-83
-12
35
133
562
1206
1246
226
-926
-1089
-530
-107
2
0
-18
7
51
53
56
52
8
12
81
99
61
54
79
98
110
123
135
143
158
193
204
172
185
258
279
234
219
238
229
173
90
25
-5
-38
-80
-105
-114
-113
-103
-100
-105
-119
-136
-116
-69
-62
-93
-113
-119
-123
-116
-82
-44
-61
-122
-127
-88
-106
-131
-94
-107
-175
-128
-45
-98
-128
-30
-8
-78
-71
-39
-59
-44
-9
-34
-80
-98
-102
-103
-100
-79
-55
-78
-87
-5
165
579
1159
1073
-55
-1117
-1145
-619
-230
-26
32
-19
-6
57
30
-11
42
95
70
44
60
79
101
137
141
124
160
204
186
196
265
275
269
319
299
240
300
335
224
153
149
57
-45
-81
-135
-168
-122
-112
-160
-159
-115
-88
-82
-102
-106
-51
-35
-80
-42
23
-72
-203
-170
-102
-120
-118
-76
-78
-92
-70
-68
-99
-92
-37
2
13
-2
-62
-103
-42
26
-12
-79
-65
8
50
24
-14
-7
14
1
-40
-75
-81
-60
-21
11
-12
-63
-39
116
513
1145
1297
292
-1018
-1264
-639
-185
-84
-29
-11
-47
-55
-40
-28
-11
1
16
40
33
1
0
34
75
110
112
87
117
200
230
218
245
262
235
249
304
308
259
189
109
62
42
-12
-79
-114
-136
-140
-112
-102
-120
-107
-89
-102
-80
-30
-34
-71
-81
-64
-39
-45
-84
-89
-73
-96
-105
-87
-92
-79
-50
-97
-148
-95
-47
-78
-88
-72
-94
-106
-86
-83
-73
-46
-53
-68
-44
-23
-33
-30
-6
8
-7
-48
-78
-51
-23
-66
-84
-18
-7
-55
33
340
858
1276
828
-478
-1297
-919
-259
-68
-63
-1
9
4
39
43
17
29
70
76
36
23
80
131
116
100
131
148
127
154
237
254
204
228
301
284
233
262
304
278
199
95
31
20
-30
-99
-97
-98
-151
-140
-76
-93
-143
-122
-97
-97
-63
-53
-98
-105
-84
-98
-85
-50
-85
-129
-92
-57
-90
-121
-112
-92
-83
-81
-72
-72
-107
-127
-84
-48
-81
-113
-73
-30
-73
-121
-62
9
-15
-38
-4
-14
-64
-61
-48
-70
-68
-49
-58
-64
-63
-44
84
404
911
1234
705
-519
-1283
-1069
-521
-185
-43
5
12
13
26
65
74
33
55
118
79
27
89
131
105
129
157
129
164
239
213
167
224
289
269
241
262
273
237
199
180
144
92
48
-16
-104
-144
-127
-116
-115
-96
-96
-134
-139
-84
-59
-95
-103
-68
-51
-48
-49
-79
-102
-75
-50
-75
-103
-90
-71
-90
-108
-87
-69
-73
-63
-57
-73
-68
-53
-72
-86
-58
-29
-10
14
1
-46
-67
-72
-75
-37
-21
-67
-67
-37
-66
-24
193
568
1117
1322
448
-898
-1330
-828
-328
-87
47
37
-16
25
50
2
8
74
71
23
57
112
70
38
113
171
148
138
163
197
248
275
257
274
333
343
300
285
304
272
149
31
-4
-32
-121
-189
-168
-135
-163
-191
-156
-132
-176
-196
-142
-111
-140
-142
-114
-134
-165
-118
-62
-105
-153
-111
-83
-130
-147
-113
-102
-112
-123
-116
-89
-113
-165
-124
-59
-90
-117
-86
-88
-105
-78
-68
-92
-81
-56
-68
-61
-6
8
-35
-45
-27
-43
-68
-81
-88
-51
-13
-51
-63
37
212
637
1288
1290
115
-1105
-1134
-445
-56
-24
-10
7
4
17
12
1
40
82
73
56
72
99
99
75
75
118
163
196
224
236
240
253
259
277
328
366
361
347
323
255
164
100
55
3
-46
-77
-95
-102
-113
-134
-135
-104
-86
-92
-79
-63
-91
-112
-66
-24
-40
-56
-49
-52
-60
-71
-90
-81
-41
-28
-50
-68
-70
-71
-77
-75
-47
-31
-46
-55
-58
-69
-53
-23
-22
-13
15
11
1
13
-8
-64
-85
-58
-29
-51
-96
-62
-21
-100
-106
153
572
1067
1271
484
-880
-1398
-881
-361
-188
-88
-53
-74
-52
-54
-84
-57
-22
-31
-41
-46
-52
-40
-30
-42
-45
-30
-15
1
15
21
24
