# session 6
174
334
-140
122
2096
4083
4669
4997
5592
5086
3521
2582
2674
2993
3200
3262
3108
2907
2795
2682
2535
2394
2267
2174
2070
1898
1729
1597
1425
1245
1148
1093
1000
835
594
397
279
60
-252
-470
-673
-901
-949
-943
-1155
-1369
-1376
-1422
-1594
-1643
-1521
-1400
-1289
-1096
-962
-1020
-979
-607
-158
327
976
1187
506
-241
-283
9
175
224
185
114
121
148
94
-42
-230
-412
-512
-522
-519
-540
-522
-443
-333
-170
-40
-132
-346
-399
-309
-244
-150
47
273
488
701
881
1028
1139
1128
996
871
753
576
423
324
165
-13
-120
-255
-426
-462
-294
42
295
-94
-1136
-1928
-1929
-1581
-1330
-1177
-1084
-1037
-1010
-996
-946
-889
-971
-1138
-1210
-1202
-1192
-1171
-1159
-1169
-1150
-1124
-1139
-1167
-1202
-1260
-1255
-1107
-890
-659
-353
-14
251
521
900
1212
1269
1234
1364
1579
1637
1532
1418
1382
1413
1413
1327
1247
1233
1334
1684
1950
1416
270
-412
-328
-147
-224
-368
-435
-411
-301
-178
-85
28
167
284
397
570
829
1102
1270
1351
1435
1450
1328
1186
1044
829
633
509
342
137
1
-84
-160
-206
-219
-227
-276
-383
-475
-495
-483
-477
-478
-470
-427
-405
-460
-453
-279
-65
186
411
41
-1089
-2020
-2033
-1623
-1409
-1365
-1371
-1475
-1570
-1454
-1179
-942
-751
-534
-334
-156
79
331
505
654
851
1008
1076
1122
1110
930
642
398
276
250
238
176
61
-78
-166
-173
-178
-223
-243
-255
-380
-635
-857
-892
-751
-563
-424
-316
-148
179
720
1287
1379
826
273
336
779
1084
1146
1096
1035
993
921
812
770
802
792
726
669
597
472
351
258
134
2
-74
-132
-186
-168
-121
-159
-235
-254
-269
-340
-461
-667
-935
-1114
-1184
-1265
-1339
-1349
-1376
-1427
-1421
-1421
-1429
-1325
-1191
-1100
-923
-666
-218
601
1012
166
-959
-992
-336
98
301
415
405
389
393
336
282
293
330
375
411
404
381
376
368
338
307
283
239
204
235
305
339
334
324
327
349
391
448
500
521
529
576
653
715
764
801
799
780
766
709
652
694
773
1004
1583
1823
858
-516
-876
-416
-109
-74
-64
-78
-79
-19
54
100
44
-117
-222
-219
-214
-229
-248
-297
-347
-375
-433
-488
-479
-475
-496
-481
-495
-578
-612
-595
-619
-602
-494
-433
-428
-352
-219
-126
-98
-93
-75
-94
-159
-158
-114
-159
-230
-179
161
810
1032
94
-1173
-1480
-1074
-817
-743
-672
-713
-810
-797
-709
-652
-624
-583
-538
-493
-419
-331
-244
-129
-32
-33
-49
18
89
101
107
101
43
-40
-122
-195
-210
-177
-181
-241
-310
-382
-443
-461
-452
-437
-372
-228
12
370
761
1046
1249
1523
1929
2294
2205
1518
835
836
1337
1687
1669
1508
1396
1321
1201
1055
941
851
780
750
741
729
744
786
797
749
708
706
647
501
362
201
-89
-392
-546
-641
-782
-870
-860
-869
-919
-948
-985
-1051
-1079
-1062
-1071
-1120
-1150
-1114
-1086
-1169
-1285
-1295
-1176
-852
-370
-311
-1048
-1848
-1851
-1291
-789
-437
-142
39
106
138
141
116
104
109
101
88
83
92
137
200
231
264
344
408
416
444
506
513
453
393
336
271
214
146
82
112
198
213
213
296
347
280
209
199
205
206
159
43
-27
67
400
865
845
-61
-1025
-1110
-678
-398
-211
-34
-41
-127
-90
-2
34
52
56
20
-15
-14
-8
8
81
151
112
22
14
59
59
28
6
-4
37
107
125
117
143
187
244
306
320
309
334
351
337
359
404
385
310
239
172
114
109
292
784
1139
595
-554
-1120
-840
-468
-355
-331
-343
-378
-381
-371
-359
-336
-309
-254
-210
-224
-179
-62
-62
-113
-19
76
58
79
125
125
192
255
111
-91
-103
-39
-83
-143
-91
-10
-19
-57
-17
23
-41
-88
2
103
90
52
123
265
325
406
788
1094
594
-373
-802
-630
-392
-206
-87
-148
-234
-198
-167
-184
-155
-117
-166
-312
-499
-624
-624
-575
-562
-541
-477
-414
-318
-116
135
368
592
744
770
768
798
795
747
688
604
519
482
451
354
209
100
32
-71
-163
-177
-262
-398
-248
143
379
376
106
-517
-1072
-1073
-747
-504
-376
-327
-358
-378
-337
-303
-306
-317
-333
-355
-363
-384
-454
-536
-581
-585
-524
-394
-243
-94
59
207
324
387
436
539
646
680
663
618
594
660
709
662
671
744
687
573
585
623
557
461
406
392
425
555
752
650
-73
-939
-1179
-827
-435
-228
-133
-93
-64
11
147
280
362
457
569
607
593
599
590
563
571
562
469
357
276
177
37
-121
-274
-389
-478
-615
-791
-921
-978
-972
-893
-776
-667
-553
-446
-409
-423
-415
-430
-578
-803
-936
-933
-838
-631
-334
-211
-574
-1275
-1732
-1630
-1245
-958
-839
-753
-621
-464
-273
-58
90
190
379
590
675
711
779
784
734
764
839
830
791
807
825
801
781
768
723
660
605
542
458
359
252
172
176
257
338
359
340
336
366
429
518
583
629
759
986
1300
1694
1720
885
-234
-618
-334
-80
-15
-6
-68
-162
-203
-222
-270
-322
-313
-231
-168
-191
-233
-225
-191
-173
-184
-209
-201
-175
-192
-204
-136
-88
-130
-151
-160
-281
-336
-161
-78
-227
-235
-149
-382
-668
-599
-529
-757
-946
-895
-803
-761
-702
-641
-505
-23
589
491
-398
-1036
-926
-563
-270
-77
-66
-105
-61
-98
-259
-370
-387
-381
-400
-436
-421
-354
-316
-305
-289
-312
-373
-375
-292
-216
-187
-159
-147
-176
-119
117
404
637
856
1028
1065
1026
1010
1022
1034
1022
973
922
887
832
755
708
698
720
940
1391
1457
601
-516
-865
-546
-279
-229
-199
-185
-221
-227
-218
-245
-190
-44
-70
-285
-389
-393
-487
-538
-474
-544
-754
-830
-732
-609
-523
-486
-490
-461
-343
-193
-62
111
358
536
594
697
883
992
1033
1133
1239
1227
1093
928
845
857
845
753
782
1154
1543
1187
56
-843
-864
-475
-266
-246
-270
-346
-444
-485
-491
-503
-505
-489
-469
-435
-347
-165
45
169
229
330
456
529
531
485
420
366
331
293
239
160
72
-2
-144
-429
-695
-743
-669
-677
-750
-778
-783
-823
-845
-787
-698
-636
-568
-459
-273
19
150
-295
-1145
-1700
-1683
-1415
-1190
-1061
-1016
-1002
-974
-936
-924
-951
-991
-981
-887
-735
-566
-400
-244
-105
42
236
419
524
639
809
878
791
716
687
597
495
478
497
500
476
408
354
386
434
396
300
182
10
-174
-244
-200
-172
-162
-39
298
770
916
317
-547
-756
-243
354
700
861
949
1026
1085
1109
1115
1079
1024
1051
1106
1066
999
1002
1018
1000
987
959
844
686
596
548
462
414
461
463
356
289
319
327
272
231
228
213
182
167
146
76
-27
-190
-433
-606
-630
-670
-761
-754
-575
-153
265
-112
-1319
-2103
-1824
-1256
-990
-856
-751
-706
-641
-552
-467
-344
-233
-196
-162
-116
-177
-353
-460
-319
7
250
261
178
160
172
125
34
-51
-138
-232
-283
-279
-232
-152
-189
-525
-1016
-1337
-1432
-1468
-1514
-1540
-1518
-1441
-1327
-1205
-1106
-1024
-849
-490
23
564
815
442
-223
-382
102
650
941
1104
1235
1295
1275
1227
1197
1154
1091
1070
1078
1029
947
914
908
870
805
746
704
661
590
515
482
482
463
423
421
454
442
379
339
330
295
223
155
120
99
60
-16
-124
-206
-209
-208
-253
-234
-107
139
582
812
131
-1084
-1634
-1300
-831
-598
-485
-423
-373
-301
-262
-290
-315
-297
-278
-265
-225
-172
-149
-147
-134
-112
-113
-145
-177
-198
-237
-304
-378
-449
-506
-538
-552
-553
-541
-524
-481
-400
-336
-319
-285
-206
-146
-139
-159
-148
-87
-57
-77
-35
64
276
859
1360
770
-540
-1064
-581
-99
33
109
180
191
204
244
284
309
333
370
402
431
492
575
627
650
683
728
758
779
797
786
748
705
652
599
568
539
497
463
428
372
311
249
182
135
113
86
53
29
19
11
-22
-75
-99
-73
50
335
457
-90
-1008
-1400
-1093
-685
-494
-429
-416
-421
-416
-410
-410
-410
-410
-398
-380
-375
-364
-341
-321
-293
-259
-248
-237
-204
-182
-185
-186
-193
-221
-239
-226
-210
-207
-198
-164
-135
-145
-166
-151
-122
-124
-135
-124
-112
-113
-99
-82
-96
-85
11
233
677
1061
674
-404
-1074
-858
-396
-156
-50
-4
-8
-7
-2
-3
15
42
63
90
114
130
161
211
244
243
239
255
274
275
262
234
195
168
156
140
126
135
151
150
142
146
138
104
91
126
150
128
96
76
82
107
94
67
113
250
607
1131
1055
-7
-986
-932
-388
-97
0
57
54
55
88
99
100
117
137
156
181
201
205
188
164
145
115
69
43
38
12
-36
-72
-97
-117
-111
-94
-89
-75
-48
-37
-33
-27
-48
-76
-64
-44
-61
-91
-120
-145
-141
-137
-163
-149
-60
195
715
967
197
-1030
-1392
-871
-390
-204
-98
-57
-52
-10
16
10
27
60
88
121
161
207
266
322
363
400
434
460
487
508
483
407
320
235
140
50
-23
-97
-167
-218
-251
-274
-294
-304
-271
-207
-168
-163
-164
-152
-121
-108
-117
-88
-28
151
638
944
231
-973
-1279
-692
-256
-196
-154
-124
-168
-188
-188
-207
-199
-179
-203
-225
-191
-145
-134
-132
-116
-99
-87
-73
-66
-69
-73
-86
-115
-149
-180
-205
-216
-213
-214
-218
-209
-189
-175
-177
-188
-181
-150
-129
-139
-159
-148
-115
-105
-101
-63
15
253
674
751
81
-711
-808
-385
-51
63
113
152
178
200
225
261
302
334
364
397
432
463
495
529
557
577
608
651
681
692
686
655
597
523
456
406
361
315
289
275
245
205
169
140
129
125
93
48
15
-24
-52
-59
-94
-139
-95
78
381
626
335
-541
-1225
-1169
-736
-417
-260
-187
-167
-156
-143
-133
-112
-84
-65
-50
-29
-9
10
35
66
96
122
140
152
155
138
94
37
-22
-75
-116
-146
-172
-187
-193
-197
-198
-201
-221
-230
-207
-194
-219
-236
-228
-218
-202
-205
-241
-228
-145
50
491
736
21
-1152
-1434
-818
-323
-207
-149
-113
-122
-108
-95
-98
-83
-61
-46
-21
9
35
62
77
80
87
100
105
110
116
104
73
41
7
-30
-55
-68
-70
-55
-33
-21
-1
18
8
-6
15
37
27
7
-3
-3
-3
-15
-11
34
119
390
825
754
-174
-1010
-871
-264
48
116
174
206
211
227
238
252
279
294
296
314
348
378
394
404
423
450
465
462
451
435
415
383
329
265
220
186
143
123
141
132
82
66
83
65
36
44
57
54
54
45
22
23
41
33
17
48
217
530
573
-72
-902
-1040
-574
-198
-87
-52
-47
-63
-66
-78
-94
-91
-92
-103
-113
-130
-140
-166
-285
-472
-601
-643
-610
-459
-254
-150
-157
-180
-233
-365
-506
-560
-543
-505
-462
-427
-399
-365
-336
-325
-306
-267
-234
-221
-209
-187
-161
-139
-118
-82
-17
101
336
615
538
-103
-769
-830
-423
-55
123
203
233
246
267
292
328
354
348
360
400
410
413
457
487
480
489
497
480
477
484
458
402
341
294
263
224
177
149
137
117
99
101
110
89
41
23
55
72
33
-1
5
2
-27
-30
20
98
228
545
915
696
-293
-1111
-1020
-505
-195
-66
6
4
9
48
51
51
86
94
85
119
160
174
192
216
220
220
231
228
200
165
121
75
38
5
-36
-71
-85
-88
-107
-143
-167
-167
-170
-203
-244
-258
-254
-269
-296
-322
-339
-329
-330
-371
-360
-279
-140
250
643
188
-993
-1564
-1111
-544
-357
-310
-268
-250
-230
-219
-216
-192
-160
-136
-111
-80
-45
-14
16
50
68
62
65
81
74
39
3
-27
-50
-67
-91
-114
-112
-98
-90
-78
-65
-62
-68
-65
-32
14
26
5
-3
12
25
14
1
45
99
171
579
1180
946
-304
-1121
-735
-78
137
178
243
262
272
298
312
330
366
406
439
458
477
512
542
557
569
575
575
589
597
567
525
503
479
453
445
441
422
403
403
416
414
384
345
318
296
281
279
264
217
176
161
146
109
64
32
21
76
276
518
394
-258
-896
-954
-602
-310
-200
-175
-187
-209
-218
-223
-232
-230
-214
-199
-187
-160
-134
-133
-128
-94
-65
-56
-50
-51
-63
-87
-135
-191
-224
-251
-300
-346
-365
-373
-389
-404
-412
-421
-435
-452
-467
-470
-464
-473
-502
-532
-554
-559
-554
-568
-568
-486
-322
-102
27
-272
-995
-1535
-1487
-1116
-780
-583
-522
-522
-506
-489
-475
-439
-411
-405
-376
-320
-272
-238
-202
-165
-134
-117
-116
-125
-155
-203
-245
-275
-312
-360
-400
-406
-379
-350
-331
-298
-256
-233
-207
-172
-160
-141
-92
-77
-95
-75
-37
-11
54
114
106
149
302
536
945
1242
743
-315
-778
-373
139
378
511
607
659
711
757
801
868
932
978
1046
1140
1228
1293
1341
1386
1430
1471
1518
1561
1575
1562
1548
1537
1541
1573
1619
1635
1587
1468
1305
1153
1052
1002
966
922
889
877
869
865
857
823
805
858
932
973
1029
1118
1236
1463
1644
1309
486
-40
156
610
836
893
909
791
592
570
705
780
894
1178
1397
1413
1399
1388
1274
1134
1057
985
877
738
541
309
81
-204
-625
-1170
-1824
-2607
-3497
-4372
-4923
-4927
-4726
-4823
-5072
-5095
-5012
-5016
-4983
-4919
-4989
-5117
-5106
-4928
-4639
-4297
-3945
-3539
-3011
-2403
-1864
-1662
-2024
-2682
-2962
-2668
-2308
-2194
-2141
-2208
-2562
-2701
-2152
-1391
-1000
-892
-827
-741
-563
-329
-186
-97
114
473
882
1343
1864
2303
2578
2805
3090
3447
3859
4243
4506
4690
4856
4971
5034
5105
5149
5183
5412
5918
6471
6744
6485
5670
4681
3942
3447
2988
2535
2158
1882
1685
