# session 18
-20
-8
-59
-102
323
1168
1235
-51
-1345
-1395
-759
-380
-264
-202
-224
-259
-213
-161
-162
-168
-149
-126
-131
-143
-118
-76
-59
-45
7
70
112
148
208
284
325
311
289
272
228
163
74
-32
-103
-151
-248
-352
-355
-274
-281
-370
-201
295
675
858
1183
1422
1159
723
536
440
298
215
165
80
19
1
-21
-62
-93
-96
-95
-122
-163
-187
-201
-221
-236
-222
-206
-228
-226
-136
29
444
1136
1227
46
-1302
-1468
-866
-470
-340
-246
-188
-165
-184
-222
-187
-120
-109
-106
-90
-99
-78
-22
-4
21
100
153
184
279
369
391
423
465
427
342
289
220
90
-15
-36
-70
-163
-217
-203
-207
-219
-186
-153
-148
-140
-146
-167
-161
-139
-136
-124
-101
-117
-156
-158
-135
-131
-135
-118
-105
-122
-135
-106
-76
-83
-80
-36
-9
-30
-57
-70
-70
-61
-50
-32
-41
-94
-66
87
338
907
1532
1108
-413
-1382
-1049
-429
-196
-91
-17
-50
-67
-23
-8
-28
-15
43
76
52
48
101
142
166
205
240
281
353
407
433
483
524
502
468
446
374
260
179
118
29
-57
-90
-91
-106
-136
-138
-102
-76
-97
-119
-105
-90
-81
-57
-52
-98
-128
-101
-87
-125
-141
-115
-118
-147
-156
-163
-166
-140
-132
-149
-140
-147
-208
-221
-167
-147
-158
-152
-155
-159
-147
-162
-191
-199
-230
-264
-242
-221
-203
-115
52
372
762
615
-333
-1231
-1274
-782
-408
-274
-258
-309
-304
-190
-165
-183
211
986
1437
1296
977
758
605
491
412
358
336
328
310
283
252
229
217
201
180
154
116
73
20
-46
-94
-111
-128
-150
-166
-170
-140
-83
-58
-80
-99
-69
-3
21
-21
-51
-35
-22
-28
-24
1
20
12
-17
-37
-28
-11
-17
-15
23
40
27
55
83
33
-1
69
103
25
3
61
36
-15
26
56
49
101
208
424
710
602
-112
-829
-952
-632
-316
-159
-69
-7
-32
-112
-127
-68
-42
-88
-119
-52
25
-2
-36
4
-2
-42
39
146
99
8
35
107
124
125
136
105
59
63
52
-35
-118
-138
-135
-148
-194
-244
-229
-172
-156
-174
-174
-165
-165
-166
-167
-180
-191
-174
-158
-193
-229
-205
-165
-158
-158
-148
-137
-123
-106
-91
-69
-38
-6
17
37
62
65
16
-17
34
79
58
77
143
142
149
339
671
886
679
20
-627
-766
-475
-160
-2
52
60
70
103
116
102
101
121
148
172
174
162
168
182
192
208
222
230
243
243
232
252
281
258
216
215
212
162
107
78
39
-25
-61
-34
-9
-49
-103
-95
-62
-57
-61
-56
-56
-63
-76
-87
-79
-79
-112
-130
-111
-102
-100
-70
-47
-60
-44
9
17
-26
-40
-16
-2
-21
-59
-74
-50
-30
-30
-34
-63
-79
3
159
344
555
574
119
-586
-943
-767
-422
-216
-132
-85
-55
-31
-24
-21
18
55
26
3
47
79
65
61
71
93
144
159
111
113
196
235
204
192
197
176
165
179
150
74
23
4
-27
-51
-53
-68
-64
-8
13
-42
-70
-59
-93
-146
-157
-160
-170
-156
-146
-178
-210
-215
-238
-275
-246
-175
-171
-198
-152
-90
-108
-145
-120
-72
-59
-64
-35
9
11
18
131
328
560
771
680
54
-692
-879
-519
-154
17
110
142
155
229
262
198
157
165
161
140
101
60
56
78
90
84
66
78
124
143
151
191
193
119
62
62
61
29
-15
-50
-71
-90
-111
-122
-102
-74
-100
-147
-96
2
-18
-113
-114
-47
-38
-62
-47
-40
-82
-104
-72
-47
-60
-69
-47
-22
-18
-14
18
35
-8
-50
-17
20
-28
-95
-97
-71
-56
0
182
525
812
572
-276
-1053
-1107
-633
-238
-117
-109
-107
-71
15
59
28
49
125
121
91
169
248
193
117
146
221
257
275
307
338
345
334
334
360
367
313
243
214
187
121
62
46
44
34
19
10
17
25
13
2
14
21
-4
-33
-33
-16
-26
-61
-82
-71
-52
-72
-120
-127
-89
-80
-96
-82
-77
-127
-174
-181
-183
-190
-187
-196
-228
-237
-177
-47
201
561
678
145
-748
-1206
-969
-509
-249
-186
-167
-138
-107
-86
-71
-65
-69
-56
-29
-35
-63
-55
-26
-13
-2
19
39
60
78
91
121
154
152
133
132
148
164
158
121
88
80
79
76
79
90
103
115
126
136
140
141
139
134
128
111
80
70
90
94
64
27
-3
-19
-19
-28
-49
-47
-34
-50
-82
-84
-72
-95
-121
-80
-26
-49
-52
61
223
517
936
833
-162
-1140
-1194
-710
-376
-227
-142
-134
-136
-103
-88
-96
-94
-69
-12
32
17
4
45
92
124
174
212
224
269
336
358
356
369
361
324
286
229
154
113
86
22
-40
-55
-68
-87
-66
-43
-65
-75
-40
-16
-35
-58
-59
-57
-68
-62
-35
-36
-60
-60
-67
-86
-49
-6
-39
-62
-16
10
-18
-44
-40
-11
-4
-27
-18
-4
-30
9
155
374
728
919
363
-670
-1151
-824
-345
-128
-82
-79
-70
-41
-23
-43
-64
-54
-30
-11
4
8
25
75
87
62
130
225
187
146
232
291
279
300
291
219
184
184
152
102
58
40
48
27
-8
3
7
-42
-61
-34
-39
-57
-42
-46
-78
-67
-50
-104
-178
-205
-206
-190
-164
-166
-193
-191
-155
-139
-151
-150
-145
-174
-201
-199
-216
-224
-163
-131
-211
-260
-167
-49
73
348
627
438
-282
-939
-1018
-660
-317
-190
-180
-175
-161
-141
-123
-128
-124
-90
-66
-59
-22
27
39
47
84
124
162
214
246
262
310
365
374
366
372
368
347
326
302
270
233
203
190
192
193
191
195
204
210
208
202
194
187
176
155
138
130
112
93
87
67
32
21
28
19
6
4
-2
-13
-19
-24
-31
-28
-17
-7
6
19
16
-10
-41
-54
-55
-65
-72
-66
-82
-94
-22
125
393
812
893
107
-965
-1274
-839
-405
-231
-155
-121
-119
-111
-98
-93
-88
-82
-71
-58
-53
-48
-35
-19
-1
22
43
63
84
109
127
132
136
138
125
97
68
43
9
-34
-71
-98
-118
-126
-125
-125
-122
-111
-92
-56
-19
-19
-49
-61
-45
-30
-31
-34
-28
-30
-44
-51
-49
-52
-57
-55
-59
-58
-37
-22
-30
-31
-15
0
14
36
41
15
-13
-15
-10
-17
-14
-5
-22
-13
70
214
509
887
778
-109
-1022
-1151
-702
-296
-113
-52
-38
-25
-7
-3
5
28
36
34
52
75
79
83
102
126
146
169
197
225
243
252
260
268
259
233
206
180
144
102
64
30
-3
-29
-42
-47
-50
-44
-34
-36
-37
-26
-18
-24
-30
-32
-36
-36
-35
-46
-56
-51
-49
-60
-66
-68
-74
-72
-57
-46
-35
-19
-15
-13
15
37
22
-9
-30
-45
-54
-54
-37
-18
-40
-49
39
184
427
819
883
106
-929
-1212
-785
-357
-161
-68
-42
-60
-57
-38
-31
-31
-33
-27
-11
0
11
29
44
49
66
99
135
172
212
244
261
259
250
245
235
205
163
118
77
47
26
2
-22
-27
-18
-13
-11
-5
1
1
-2
-4
-5
-5
-6
-8
-18
-32
-29
-9
-8
-28
-42
-50
-58
-56
-47
-49
-55
-46
-36
-33
-23
-8
-13
-39
-67
-79
-82
-86
-80
-70
-80
-71
0
148
497
932
769
-250
-1185
-1195
-670
-295
-156
-100
-77
-61
-50
-57
-62
-50
-26
-7
-5
-6
12
41
65
77
95
147
205
216
214
250
287
290
284
268
220
161
122
93
42
-26
-64
-70
-84
-101
-96
-84
-68
-51
-56
-70
-55
-31
-39
-59
-64
-62
-60
-63
-74
-80
-75
-76
-87
-93
-86
-74
-67
-70
-75
-66
-47
-35
-29
-7
23
30
8
-18
-24
-18
-21
-24
-12
-17
-28
21
160
476
966
1035
150
-970
-1205
-682
-237
-89
-34
-16
-13
13
28
26
33
39
39
53
75
85
96
116
137
163
194
216
235
270
308
327
333
335
322
295
258
210
154
102
59
14
-35
-68
-77
-76
-77
-78
-75
-70
-64
-61
-66
-77
-84
-87
-89
-87
-90
-103
-118
-125
-124
-125
-130
-130
-123
-127
-135
-129
-117
-113
-107
-97
-92
-75
-49
-48
-69
-83
-87
-87
-92
-91
-74
-78
-99
-41
113
384
856
1090
388
-823
-1316
-917
-439
-225
-114
-64
-63
-43
-21
-21
-15
1
9
20
37
53
70
91
114
139
168
200
235
272
305
327
336
331
316
290
248
194
136
78
19
-30
-59
-71
-74
-71
-65
-58
-52
-49
-47
-45
-44
-46
-49
-50
-52
-54
-59
-67
-72
-75
-80
-82
-82
-82
-84
-82
-82
-82
-81
-80
-79
-69
-58
-58
-47
-16
1
-14
-40
-54
-50
-48
-54
-44
-35
-55
-31
84
331
840
1256
721
-598
-1313
-926
-342
-132
-74
-29
-28
-20
3
7
12
27
36
46
61
73
86
105
127
150
181
216
253
290
323
347
360
359
344
315
272
213
147
87
34
-14
-53
-79
-93
-97
-96
-92
-87
-82
-77
-74
-74
-76
-80
-84
-88
-93
-99
-104
-109
-113
-117
-120
-122
-121
-122
-123
-123
-123
-119
-111
-106
-107
-108
-105
-103
-98
-96
-101
-100
-84
-73
-67
-47
-22
-28
-60
-82
-79
-73
-78
-67
-55
-74
-62
35
239
669
1102
776
-383
-1234
-1077
-519
-209
-110
-62
-43
-32
-20
-15
-4
15
33
46
52
62
79
94
104
125
165
210
239
256
281
312
330
336
338
329
307
279
237
178
115
63
20
-13
-31
-32
-28
-27
-29
-28
-27
-30
-32
-32
-35
-42
-47
-50
-56
-65
-71
-74
-79
-84
-88
-90
-94
-97
-92
-86
-86
-87
-84
-79
-80
-82
-73
-60
-57
-55
-35
-17
-25
-50
-70
-70
-63
-71
-71
-54
-70
-69
33
225
617
1138
1018
-123
-1196
-1197
-634
-287
-152
-70
-56
-58
-36
-29
-27
-11
1
8
21
36
52
71
94
123
157
195
240
288
334
372
397
405
395
366
316
249
173
98
35
-16
-57
-88
-104
-108
-106
-104
-100
-95
-88
-82
-78
-74
-69
-69
-71
-73
-77
-82
-84
-88
-92
-94
-95
-99
-101
-99
-99
-100
-95
-89
-85
-81
-79
-80
-72
-61
-63
-68
-61
-41
-3
37
44
24
14
6
-28
-79
-101
-73
-48
-72
-85
-61
-73
-83
18
278
774
1198
741
-518
-1248
-899
-350
-177
-139
-87
-73
-57
-39
-38
-16
9
7
18
52
64
71
85
69
63
127
194
201
209
256
291
294
292
287
274
262
237
184
130
94
54
9
-30
-67
-75
-35
-12
-49
-81
-65
-40
-35
-49
-70
-75
-59
-56
-70
-74
-62
-59
-76
-89
-91
-98
-102
-92
-92
-103
-88
-62
-85
-135
-135
-81
-51
-77
-96
-69
-45
-44
-28
-7
-15
-32
-33
-32
-39
-44
-35
-27
-49
-47
39
199
483
834
760
-42
-924
-1087
-674
-288
-111
-27
8
13
25
38
44
57
75
80
87
115
140
138
123
136
175
201
206
217
234
254
293
330
318
277
275
305
281
189
112
86
64
21
-5
12
38
29
-7
-35
-44
-52
-77
-104
-95
-65
-67
-98
-125
-140
-146
-149
-158
-166
-169
-163
-143
-133
-156
-173
-156
-136
-128
-120
-112
-97
-78
-75
-83
-79
-61
-37
-17
-15
-32
-51
-53
-40
-35
-34
-27
-41
-42
44
210
486
832
770
-39
-954
-1138
-722
-316
-124
-60
-51
-43
-22
-5
9
15
12
25
47
51
58
84
98
95
116
155
170
178
217
262
267
252
258
276
271
231
183
145
111
71
21
-27
-46
-33
-24
-45
-64
-51
-29
-33
-49
-44
-33
-36
-47
-49
-46
-51
-63
-67
-64
-64
-71
-79
-80
-72
-72
-82
-80
-62
-60
-68
-57
-43
-42
-32
-15
-15
-29
-41
-48
-46
-53
-65
-46
-34
-52
-2
147
392
834
1118
499
-725
-1293
-909
-394
-169
-73
-27
-20
-4
8
12
28
38
33
42
60
74
91
110
129
153
180
206
239
281
317
340
354
355
338
306
260
198
128
65
10
-36
-66
-85
-102
-112
-109
-101
-96
-92
-91
-93
-91
-88
-91
-93
-91
-95
-103
-111
-117
-116
-112
-117
-124
-124
-122
-122
-119
-115
-111
-110
-108
-98
-84
-80
-74
-52
-35
-44
-66
-80
-81
-79
-83
-75
-66
-85
-76
14
207
638
1116
839
-350
-1267
-1099
-494
-188
-109
-63
-53
-46
-19
-8
-3
12
21
25
41
61
75
89
106
129
158
191
224
259
298
332
352
360
357
340
304
254
192
125
67
19
-23
-55
-72
-73
-70
-74
-79
-71
-57
-55
-61
-58
-52
-55
-64
-71
-78
-84
-82
-80
-86
-96
-97
-91
-91
-99
-103
-96
-85
-87
-91
-81
-68
-66
-66
-50
-38
-41
-29
-2
5
-12
-30
-42
-42
-37
-37
-31
-34
-47
5
150
394
812
1075
514
-648
-1263
-954
-431
-170
-66
-15
-6
8
31
42
46
51
65
80
86
94
115
138
151
162
180
208
244
279
308
334
358
367
358
337
306
264
212
154
99
52
6
-33
-48
-46
-50
-55
-49
-48
-54
-49
-40
-46
-55
-57
-61
-69
-73
-78
-86
-96
-104
-111
-116
-121
-127
-128
-129
-131
-133
-131
-131
-132
-135
-140
-137
-121
-111
-114
-103
-82
-85
-111
-131
-132
-130
-142
-144
-124
-132
-152
-88
75
402
936
1086
195
-1041
-1356
-831
-377
-223
-144
-111
-116
-97
-74
-70
-62
-49
-36
-25
-12
6
26
44
67
99
132
164
205
249
284
311
331
341
336
313
272
215
154
98
49
7
-24
-44
-53
-50
-42
-35
-24
-8
5
14
27
39
41
39
42
48
