# session 3
-171
-144
-243
-181
199
536
552
451
426
395
300
220
202
225
264
254
158
84
34
-160
-455
-623
-595
-456
-401
-558
-693
-651
-653
-692
-574
-444
-408
-329
-210
23
436
506
-107
-695
-612
-218
3
114
248
345
396
470
524
477
416
458
522
510
505
561
592
550
469
431
540
706
722
659
676
638
499
485
585
572
498
513
491
321
231
348
393
250
193
242
145
-43
-213
-455
-631
-573
-496
-518
-490
-380
-215
10
196
282
306
232
59
-102
-210
-203
234
1100
1527
873
-128
-500
-357
-230
-226
-253
-268
-277
-332
-377
-308
-203
-184
-166
-93
-128
-335
-544
-668
-739
-747
-727
-714
-627
-502
-485
-486
-337
-145
-56
-3
94
168
144
71
37
27
-20
-85
-107
-55
15
36
67
177
278
301
331
383
362
303
298
300
267
244
253
303
384
504
881
1450
1409
396
-614
-782
-515
-408
-452
-461
-381
-265
-217
-246
-276
-322
-400
-416
-387
-426
-483
-489
-487
-481
-456
-431
-387
-347
-362
-373
-330
-290
-266
-229
-191
-143
-88
-90
-147
-151
-84
-31
-24
-23
2
77
181
213
153
147
258
348
332
283
266
282
330
367
322
245
267
359
538
977
1312
785
-306
-815
-578
-306
-191
-83
-65
-88
-21
34
37
38
-5
43
283
401
282
261
362
394
446
441
224
84
87
-47
-91
125
200
129
196
194
28
-10
46
-5
-49
3
42
19
-54
-156
-168
-57
8
-10
36
126
126
81
57
16
7
61
56
-8
-23
-5
154
583
846
424
-372
-821
-686
-272
-8
-43
-135
-58
53
-33
-183
-116
48
35
-96
-197
-254
-235
-163
-94
37
203
206
49
-41
-5
18
5
41
63
-18
-82
-29
17
-35
-144
-269
-339
-297
-225
-197
-165
-104
-51
-6
48
83
59
23
57
49
-175
-534
-877
-1138
-1142
-859
-536
-125
471
602
-209
-1103
-1093
-498
-123
-55
35
214
338
374
398
465
586
679
632
534
564
640
576
450
394
332
233
201
208
134
15
-26
14
30
-13
-53
-85
-149
-219
-257
-250
-198
-144
-116
-85
-35
37
72
-6
-83
3
126
97
-4
-55
-81
-94
-83
-108
-151
-104
16
257
765
1132
665
-292
-727
-560
-344
-153
85
189
177
217
267
250
223
226
269
390
500
426
235
152
179
201
197
135
8
-88
-138
-215
-288
-308
-313
-318
-294
-256
-213
-157
-119
-104
-89
-109
-152
-123
-46
-15
7
13
-82
-174
-141
-108
-156
-180
-159
-152
-150
-163
-188
-114
195
623
680
86
-602
-698
-364
-132
-67
-11
-6
-68
-49
43
9
-142
-181
-91
-62
-127
-171
-168
-150
-119
-83
-39
12
16
-30
-33
11
-3
-88
-116
-64
-92
-228
-280
-197
-131
-139
-158
-163
-144
-30
171
241
106
51
167
163
-27
-174
-216
-202
-148
-141
-197
-176
-44
167
553
920
698
-81
-614
-543
-235
46
225
195
140
287
428
433
555
767
755
607
618
706
678
629
670
689
607
493
397
325
325
396
453
470
487
504
524
568
595
560
507
504
538
560
586
641
647
577
526
502
433
375
402
451
451
433
433
425
403
423
446
290
-27
-279
-616
-1411
-2380
-2842
-2830
-2889
-3100
-3281
-3486
-3575
-3167
-2410
-1842
-1570
-1352
-1138
-984
-857
-756
-699
-596
-409
-294
-339
-379
-291
-166
-59
67
151
180
264
351
357
456
670
739
759
997
1224
1168
1049
1096
1220
1206
985
844
1022
1185
1029
856
906
942
853
794
775
786
994
1335
1338
755
-7
-368
-208
147
363
387
348
324
354
458
527
457
340
263
166
31
-67
-113
-140
-133
-71
45
171
244
246
181
47
-94
-221
-374
-466
-441
-451
-556
-639
-654
-607
-505
-430
-396
-304
-156
-86
-142
-245
-332
-401
-465
-564
-672
-687
-661
-750
-856
-804
-596
-170
354
326
-463
-1134
-1037
-604
-346
-210
-70
46
165
347
553
729
904
1051
1067
973
853
716
601
551
515
456
375
284
256
314
348
288
187
95
5
-68
-75
-42
-41
-68
-113
-159
-77
161
345
346
295
292
279
221
153
91
36
1
-7
12
14
-45
-70
30
218
493
652
241
-586
-1059
-978
-720
-461
-301
-349
-375
-225
-128
-127
-32
36
-84
-166
-94
-108
-246
-301
-272
-276
-302
-358
-470
-531
-473
-400
-365
-315
-241
-172
-108
-55
-4
48
43
4
35
112
144
108
34
23
94
130
132
149
44
-150
-178
-88
-102
-163
-150
-51
222
516
290
-476
-1002
-920
-653
-444
-205
-72
-117
-120
-57
-59
-9
190
373
450
495
517
503
482
447
393
342
292
257
273
309
326
352
388
387
356
331
301
266
248
200
101
44
75
108
94
68
56
64
128
264
416
462
386
355
421
409
303
304
430
594
754
614
-76
-915
-1325
-1245
-919
-607
-493
-473
-379
-324
-344
-259
-99
-40
-61
-46
56
170
150
47
30
74
93
103
78
10
-7
8
-38
-68
4
39
-47
-98
-60
-77
-157
-177
-144
-119
-101
-109
-125
-61
58
143
214
269
230
155
160
167
91
35
93
350
876
1247
791
-231
-790
-628
-357
-297
-290
-239
-204
-222
-263
-259
-216
-172
-104
-9
35
9
-46
-138
-230
-219
-174
-253
-377
-368
-286
-325
-497
-651
-678
-624
-589
-566
-513
-457
-395
-294
-209
-166
-102
-43
-16
80
234
308
310
280
213
205
250
188
114
141
117
252
897
1347
688
-456
-919
-728
-466
-258
-88
4
93
206
256
238
248
319
392
469
602
729
759
740
746
778
806
777
707
667
629
551
480
408
310
240
216
175
68
-60
-89
-37
-70
-169
-201
-229
-315
-328
-241
-205
-241
-238
-189
-145
-110
-123
-172
-141
30
426
984
990
-73
-1325
-1640
-1266
-978
-880
-790
-702
-640
-585
-509
-404
-302
-210
-91
43
161
259
324
319
236
176
247
334
264
124
73
95
130
142
106
81
71
1
-41
29
60
-27
-106
-150
-205
-234
-235
-222
-144
-55
-54
-63
6
74
70
10
-22
56
135
231
770
1557
1439
244
-646
-545
-190
-108
-130
-140
-146
-126
-146
-217
-247
-247
-267
-259
-249
-290
-275
-138
-41
-67
-66
21
62
45
50
2
-123
-155
-85
-75
-104
-77
-57
-76
-49
21
59
87
169
272
280
177
127
200
235
198
217
249
250
296
326
288
374
685
984
869
209
-517
-735
-531
-341
-281
-256
-244
-240
-237
-255
-269
-242
-232
-259
-233
-163
-163
-203
-183
-155
-182
-168
-78
-31
-56
-45
12
18
-16
14
82
66
22
98
200
136
19
23
12
-112
-131
32
112
3
-89
-54
4
30
49
52
71
163
291
512
895
1035
545
-108
-336
-295
-242
-117
7
15
29
71
17
-49
4
69
69
80
82
33
35
120
155
131
169
238
203
110
99
181
283
334
317
334
416
415
325
313
336
247
120
63
-12
-181
-407
-599
-652
-572
-508
-513
-505
-437
-364
-348
-339
-254
-54
337
750
634
-100
-711
-719
-432
-216
-110
-48
12
50
26
-33
-85
-134
-169
-198
-255
-302
-270
-192
-184
-283
-350
-262
-132
-111
-158
-180
-176
-160
-132
-98
-63
-46
-77
-151
-201
-149
-23
23
-48
-73
-21
-72
-220
-269
-211
-193
-227
-220
-152
-86
-47
10
206
717
1342
1313
396
-406
-304
137
255
282
430
450
367
408
441
317
205
204
207
163
125
120
90
0
-62
-39
-14
-14
26
60
17
2
111
267
413
555
614
555
523
560
533
427
327
214
87
17
-44
-139
-167
-139
-201
-326
-378
-393
-451
-496
-373
6
425
477
64
-517
-914
-871
-483
-201
-143
-23
136
118
42
48
14
-122
-226
-213
-190
-274
-376
-370
-325
-342
-379
-364
-322
-304
-277
-172
-31
50
101
211
359
440
383
258
208
203
111
-7
-16
40
49
18
8
-15
-81
-119
-118
-146
-191
-243
-317
-328
-71
566
1090
661
-475
-1048
-723
-266
-47
58
82
108
221
311
344
360
297
190
168
188
171
170
185
185
187
147
11
-114
-111
-38
-13
-51
-102
-134
-129
-62
36
90
99
120
149
178
227
223
114
19
-8
-35
-25
9
-92
-249
-255
-217
-275
-313
-181
307
1032
1090
48
-944
-919
-477
-284
-144
66
149
116
114
179
243
220
164
165
150
88
88
111
36
-61
-90
-117
-179
-237
-294
-343
-348
-326
-313
-290
-241
-185
-140
-113
-108
-100
-53
-7
-19
-12
105
240
268
237
224
194
141
130
113
30
-8
74
294
776
1216
860
-199
-905
-823
-495
-331
-279
-266
-294
-303
-231
-139
-131
-159
-123
-71
-71
-70
-52
-58
-45
14
7
-116
-239
-270
-248
-244
-257
-226
-139
-75
-69
-70
-47
3
94
199
278
354
427
452
477
531
521
456
456
494
491
473
456
410
412
783
1559
1828
848
-427
-712
-316
-88
-37
8
-54
-147
-132
-90
-80
-40
11
-7
-48
-27
-1
-33
-40
21
80
110
96
3
-99
-135
-188
-299
-346
-329
-374
-431
-385
-339
-400
-456
-420
-371
-364
-378
-413
-457
-495
-525
-500
-392
-294
-286
-287
-170
9
171
519
1010
925
13
-796
-825
-521
-375
-346
-360
-422
-463
-441
-373
-321
-321
-294
-190
-118
-125
-104
-24
37
75
130
159
127
104
147
215
233
220
245
290
279
230
207
196
173
158
149
111
38
-10
41
150
209
223
242
242
222
218
217
225
304
571
1047
1348
989
233
-162
-17
264
421
446
377
294
255
230
195
183
189
178
161
137
62
-18
-18
11
-9
-28
-19
-43
-80
-76
-70
-67
-35
-7
24
124
231
249
225
226
207
130
60
51
57
12
-75
-160
-257
-377
-475
-568
-691
-730
-651
-516
-79
629
689
-293
-1242
-1327
-980
-706
-507
-412
-465
-519
-487
-469
-502
-476
-366
-291
-292
-306
-339
-389
-365
-254
-183
-228
-340
-425
-428
-386
-390
-415
-351
-213
-94
11
138
300
472
502
332
246
424
637
712
740
753
706
633
570
513
453
399
400
518
802
1212
1332
716
-215
-572
-311
-39
80
193
229
164
161
232
247
223
241
247
164
63
56
95
75
30
15
-26
-98
-151
-214
-291
-315
-316
-343
-317
-217
-171
-174
-79
90
183
213
282
372
396
323
220
186
189
100
-13
29
141
111
0
68
426
769
526
-300
-928
-911
-654
-555
-544
-498
-451
-449
-463
-434
-377
-351
-344
-332
-334
-335
-279
-179
-121
-123
-103
-33
12
11
2
-4
22
71
79
96
177
198
118
84
109
96
78
73
11
-55
-33
-11
-54
-69
-32
-19
-40
-63
-40
75
310
712
1054
748
-218
-917
-825
-448
-260
-195
-154
-148
-150
-179
-271
-359
-338
-206
-96
-82
-36
103
148
54
58
199
246
163
131
161
140
134
231
321
315
310
346
347
314
292
261
205
157
126
96
59
21
-3
-18
-13
49
99
44
58
288
597
1039
1595
1454
251
-811
-799
-358
-136
11
91
-5
-94
-109
-157
-189
-177
-186
-207
-233
-284
-282
-209
-169
-167
-165
-196
-204
-113
-45
-55
-28
1
-32
-11
47
-47
-227
-250
-96
1
-130
-323
-306
-176
-213
-347
-335
-224
-200
-220
-155
-67
-77
-132
-21
485
1124
1092
252
-425
-334
88
342
396
387
372
313
260
274
211
29
-91
-154
-263
-335
-351
-396
-405
-346
-339
-368
-322
-268
-285
-286
-230
-199
-215
-214
-180
-138
-81
-6
45
49
16
-22
-52
-104
-156
-130
-61
-47
-42
18
68
90
124
135
214
571
904
532
-426
-1054
-979
-632
-379
-241
-165
-135
-115
-78
-50
-3
160
371
423
334
304
353
370
349
348
364
348
302
284
303
309
287
263
256
267
269
241
238
297
358
418
539
634
615
615
731
834
829
764
709
675
638
610
582
584
877
1405
1349
362
-598
-754
-510
-387
-398
-485
-647
-831
-976
-1039
-1047
-1074
-1119
-1144
-1164
-1206
-1249
-1222
-1043
-768
-593
-583
-583
-505
-441
-418
-368
-332
-351
-341
-316
-351
-347
-244
-149
-114
-133
-238
-348
-382
-420
-480
-468
-404
-344
-292
-283
-242
-22
229
361
672
1158
1091
288
-347
-235
151
285
240
265
385
430
328
259
321
339
274
307
426
470
465
489
481
411
385
419
387
320
359
444
474
537
622
588
477
408
371
323
262
200
143
93
82
110
103
67
36
-49
-132
-75
12
-38
-88
168
823
1325
867
-262
-854
-652
-400
-327
-248
-290
-403
-330
-184
-152
-178
-243
-343
-413
-469
-480
-355
-184
-109
-98
-72
-11
51
70
99
168
178
141
176
250
251
202
171
165
188
228
207
110
41
19
-16
-20
14
-47
-157
-133
-61
-93
-83
0
-9
170
674
678
-180
-823
-639
-328
-172
155
298
-87
-402
-265
-118
-180
-227
-231
-295
-373
-419
-462
-497
-499
-500
-546
-588
-545
-482
-501
-523
-443
-327
-265
-234
-183
-100
-37
-56
-90
-55
-52
-140
-167
-95
-98
-147
-48
135
213
202
175
134
123
213
490
936
1092
486
-426
-724
-331
122
318
376
408
422
428
443
456
439
431
471
502
496
508
541
556
547
502
439
414
400
353
320
294
198
62
-30
-84
-100
-66
-73
-158
-186
-119
-119
-204
-214
-157
-169
-221
-233
-248
-274
-264
-264
-284
-249
-196
-33
486
906
352
-791
-1251
-906
-571
-462
-368
-326
-343
-288
-190
-150
-142
-122
-101
-75
-28
27
55
41
40
96
135
100
76
107
115
102
155
243
263
222
194
174
119
66
71
88
64
41
59
99
