# session 1
-18
-79
49
-72
-660
-1134
-1116
-962
-931
-886
-800
-748
-698
-604
-465
-289
-103
67
209
318
413
494
543
587
657
718
741
727
668
594
566
581
582
562
553
562
553
518
493
488
457
401
398
439
414
365
433
557
719
1103
1433
1068
197
-298
-173
121
297
365
383
390
378
335
288
251
222
199
164
142
150
119
41
23
50
36
26
58
69
58
42
-13
-62
-65
-116
-235
-307
-335
-419
-535
-608
-646
-674
-671
-644
-644
-658
-618
-556
-555
-583
-553
-495
-482
-512
-525
-501
-480
-486
-488
-465
-440
-429
-423
-406
-378
-355
-356
-376
-387
-363
-331
-333
-339
-326
-328
-323
-263
-128
251
797
792
-80
-925
-968
-583
-332
-237
-212
-228
-197
-155
-188
-205
-147
-118
-110
-59
-91
-244
-278
-117
-1
-24
-21
30
-12
-118
-129
-68
-53
-66
-49
-24
-8
2
-17
-64
-98
-125
-184
-242
-227
-141
-40
56
155
264
392
533
627
655
693
749
717
642
663
726
728
741
795
804
784
792
796
773
754
745
740
749
748
705
658
665
684
732
1051
1558
1526
662
-193
-301
15
202
211
178
156
155
147
106
63
38
17
-1
-13
-32
-64
-83
-81
-81
-83
-64
-44
-58
-87
-105
-133
-176
-212
-241
-283
-331
-373
-418
-477
-539
-581
-597
-601
-602
-592
-577
-563
-548
-533
-518
-490
-457
-440
-435
-431
-429
-433
-436
-426
-403
-382
-366
-345
-320
-310
-321
-332
-319
-301
-312
-332
-319
-306
-310
-272
-141
191
716
906
276
-656
-1008
-765
-460
-300
-224
-195
-182
-162
-145
-128
-112
-106
-101
-92
-82
-68
-57
-49
-35
-11
8
29
60
90
106
128
164
189
198
216
240
237
207
173
138
91
40
6
4
16
21
37
76
105
112
124
140
141
142
151
151
141
137
143
145
133
123
131
136
139
171
194
167
143
158
167
149
147
179
200
182
178
210
370
873
1414
1149
120
-540
-375
-34
85
134
176
182
197
219
218
203
196
213
242
248
249
274
294
296
304
314
321
335
333
307
305
324
310
268
249
254
256
240
198
133
69
25
-18
-46
-20
2
-60
-131
-128
-113
-128
-132
-129
-137
-134
-123
-122
-127
-137
-145
-128
-112
-125
-123
-104
-122
-164
-186
-192
-200
-212
-225
-220
-213
-232
-236
-210
-101
274
742
629
-206
-941
-977
-631
-373
-281
-280
-306
-288
-250
-293
-403
-461
-457
-484
-551
-598
-620
-637
-637
-618
-597
-584
-572
-560
-539
-508
-496
-508
-486
-424
-396
-416
-428
-424
-441
-482
-524
-553
-565
-563
-545
-510
-481
-462
-422
-359
-302
-245
-163
-46
88
185
232
299
411
515
606
714
807
838
821
800
797
801
778
721
683
681
649
601
636
749
967
1359
1567
1059
120
-377
-204
135
284
287
275
282
279
259
254
260
247
224
209
195
189
209
213
176
158
188
202
188
195
207
182
154
156
168
174
177
156
120
105
98
63
18
-8
-20
-17
-3
4
17
44
56
63
90
97
85
104
118
106
126
124
66
115
270
267
105
48
115
131
77
23
-27
-83
-133
-157
-154
-159
-190
-191
-146
-34
312
818
875
176
-627
-815
-526
-279
-217
-197
-174
-181
-195
-212
-277
-352
-396
-445
-479
-478
-546
-668
-637
-447
-305
-253
-196
-168
-199
-176
-100
-163
-383
-538
-542
-498
-456
-418
-416
-435
-435
-433
-448
-461
-461
-450
-429
-405
-390
-383
-377
-359
-330
-307
-303
-313
-322
-307
-266
-236
-231
-217
-190
-177
-174
-179
-187
-161
-115
-105
-97
-49
-4
36
96
251
730
1367
1306
315
-539
-518
-134
57
118
164
181
188
195
195
194
189
193
217
246
272
308
360
409
437
459
496
534
559
590
621
634
655
693
698
666
653
648
592
504
437
393
346
298
260
226
199
188
178
152
127
116
111
105
96
91
84
62
33
22
19
4
-17
-34
-45
-50
-56
-55
-36
-26
-57
-95
-97
-85
-94
-96
-73
-80
-105
-84
-26
244
915
1349
691
-476
-874
-514
-213
-153
-126
-119
-133
-134
-142
-155
-156
-162
-168
-169
-184
-207
-213
-206
-205
-201
-185
-176
-175
-157
-138
-152
-165
-142
-124
-138
-142
-122
-118
-146
-177
-204
-244
-280
-282
-274
-275
-264
-233
-204
-185
-172
-163
-155
-149
-146
-141
-145
-160
-170
-171
-177
-189
-198
-204
-202
-186
-173
-179
-197
-209
-201
-176
-164
-158
-138
-134
-135
-93
3
373
1121
1448
577
-659
-991
-610
-326
-228
-152
-132
-139
-116
-99
-91
-72
-60
-52
-29
-5
5
18
42
65
81
97
121
143
153
164
188
205
210
229
259
275
282
294
307
315
315
303
281
265
263
261
244
222
212
210
198
178
163
160
157
142
114
85
65
58
62
60
43
19
7
10
10
-4
-10
12
30
7
-33
-51
-56
-78
-80
-41
-44
-100
-102
-47
202
959
1657
1096
-357
-1004
-564
-157
-135
-115
-61
-64
-60
-57
-76
-63
-36
-38
-40
-24
-21
-31
-25
-14
-17
-21
-18
-13
-6
1
3
3
2
-1
-8
-20
-26
-19
-25
-52
-74
-89
-113
-128
-119
-107
-105
-104
-104
-105
-98
-92
-96
-96
-85
-83
-96
-106
-104
-99
-95
-98
-107
-109
-108
-114
-109
-97
-99
-94
-69
-61
-79
-95
-99
-92
-86
-86
-71
-65
-87
-72
5
234
822
1334
820
-434
-1002
-593
-164
-98
-77
-28
-41
-46
2
33
24
40
72
24
-49
-22
40
27
-1
24
58
63
57
65
90
99
89
85
85
79
88
113
120
90
50
30
22
6
-6
-5
-9
-21
-16
8
6
-29
-43
-16
0
-15
-25
-20
-25
-34
-28
-24
-39
-53
-49
-45
-48
-43
-38
-43
-39
-23
-19
-41
-71
-74
-58
-74
-98
-73
-57
-91
-104
-18
373
1101
1342
400
-760
-863
-328
-116
-134
-41
-3
-91
-133
-106
-82
-67
-64
-71
-53
-17
2
-5
-22
-21
31
85
39
-62
-76
-19
-13
-41
7
126
217
233
201
154
104
73
55
37
27
21
5
7
38
56
55
65
71
53
44
49
27
-4
-5
2
-7
-12
-12
-24
-31
-19
-14
-20
-12
-10
-42
-62
-40
-26
-44
-54
-36
-34
-85
-129
-92
-40
-63
-116
-35
422
1084
1051
-20
-981
-902
-376
-124
-62
-44
-84
-86
-40
-31
-15
35
48
25
31
58
73
84
91
94
120
150
141
123
152
197
199
165
149
184
237
245
212
198
216
218
192
169
156
132
106
79
39
16
25
15
-48
-114
-146
-172
-210
-240
-261
-284
-293
-277
-268
-286
-299
-290
-284
-284
-271
-251
-244
-239
-236
-257
-280
-258
-225
-223
-212
-206
-228
-187
-54
169
616
1000
587
-473
-1037
-724
-256
-91
-74
-54
-27
-1
16
29
51
74
101
132
153
167
188
206
205
198
204
208
200
198
208
206
197
204
212
201
194
205
203
185
165
131
82
50
38
8
-29
-25
9
1
-46
-48
-10
-23
-83
-98
-67
-53
-44
-33
-66
-111
-96
-70
-69
-50
-36
-58
-46
2
3
-36
-58
-59
-47
-35
-36
-46
-44
-9
71
304
746
969
445
-450
-804
-505
-160
-45
-20
-7
-10
7
38
33
5
7
27
18
-1
11
29
26
39
69
70
54
60
60
48
71
94
68
61
112
135
94
65
76
85
60
7
-36
-41
-33
-31
-23
-40
-93
-84
-24
-63
-153
-131
-89
-138
-134
-44
-57
-135
-109
-54
-83
-106
-64
-27
-27
-46
-80
-101
-81
-68
-88
-85
-71
-110
-115
-20
126
461
922
787
-153
-856
-671
-237
-107
-100
-54
-7
25
7
-41
-31
20
20
-6
20
63
47
19
46
71
50
57
111
134
102
65
38
40
93
129
98
77
95
79
55
64
20
-63
-60
-21
-39
-42
-7
-28
-83
-67
-16
-18
-44
-34
-36
-65
-68
-67
-77
-18
49
-12
-90
-42
9
-23
-41
-35
-61
-67
-40
-52
-88
-88
-65
-22
159
566
869
521
-311
-770
-566
-223
-83
-39
-17
-36
-37
-1
7
-26
-42
-11
23
24
19
23
28
50
62
31
12
33
39
42
73
78
69
109
134
82
61
126
135
41
-8
22
21
0
14
2
-31
1
25
-52
-113
-50
30
12
-28
-4
19
-4
0
27
6
-12
27
39
-10
-23
11
-12
-66
-19
58
15
-66
-59
57
374
760
653
-64
-636
-560
-229
-78
-45
-8
-1
-20
-18
1
14
23
23
15
16
27
33
29
24
23
32
49
45
20
23
56
53
19
22
58
77
76
71
64
53
32
-5
-39
-55
-69
-85
-93
-94
-94
-91
-88
-91
-94
-90
-85
-84
-76
-58
-42
-37
-34
-27
-35
-63
-82
-72
-61
-76
-87
-86
-103
-112
-82
33
351
705
526
-244
-788
-636
-262
-111
-91
-65
-55
-51
-37
-33
-34
-25
-17
-9
5
16
18
23
28
29
34
45
52
55
54
51
47
46
48
57
72
85
90
84
66
43
28
18
4
-6
-8
-9
-14
-12
-3
-2
-7
-3
3
5
8
12
15
25
41
43
26
9
9
15
13
21
34
25
27
73
194
512
913
825
85
-566
-560
-225
-14
64
100
95
82
100
131
142
133
122
122
126
126
129
127
118
124
141
134
123
138
149
134
117
100
75
56
54
63
68
50
14
-11
-30
-63
-101
-121
-128
-138
-152
-167
-175
-176
-182
-198
-209
-211
-212
-209
-206
-213
-229
-242
-262
-290
-308
-311
-318
-323
-313
-312
-328
-312
-252
-103
276
670
460
-360
-937
-813
-425
-208
-143
-115
-97
-72
-42
-27
-17
8
36
49
64
92
111
114
128
145
146
146
154
152
141
139
140
131
121
123
144
177
195
176
143
120
98
83
86
81
61
64
77
66
52
55
55
45
45
51
46
48
65
76
79
87
76
37
11
13
12
7
16
12
-6
21
133
405
842
1029
510
-353
-741
-516
-180
-34
-2
15
28
36
48
62
67
61
52
49
64
90
94
78
90
122
121
107
121
121
87
89
133
133
93
92
112
102
80
60
17
-23
-29
-31
-51
-64
-55
-46
-51
-58
-54
-52
-60
-65
-60
-61
-77
-103
-106
-80
-66
-83
-86
-70
-86
-125
-140
-143
-160
-160
-158
-201
-223
-176
-53
331
871
789
-177
-1016
-958
-498
-258
-203
-180
-180
-168
-136
-124
-124
-109
-92
-85
-79
-68
-58
-48
-34
-18
-5
7
16
23
30
29
18
5
-3
1
20
54
111
135
24
-165
-248
-211
-186
-203
-200
-162
-117
-84
-67
-55
-44
-36
-30
-43
-78
-100
-98
-94
-94
-92
-84
-66
-42
-25
3
55
99
113
127
152
159
148
170
218
208
177
224
367
737
1285
1295
356
-627
-732
-319
-69
-13
14
18
13
12
1
11
44
66
83
103
98
82
94
118
127
134
146
160
177
190
184
161
145
156
180
188
186
189
176
136
105
95
81
64
66
74
79
91
100
82
45
2
-37
-43
-25
-43
-97
-121
-111
-126
-162
-165
-147
-145
-142
-125
-123
-134
-129
-116
-116
-120
-122
-125
-117
-94
-85
-97
-101
-97
-121
-153
-147
-131
-145
-142
-114
-114
-104
-21
212
732
1224
889
-219
-925
-712
-274
-104
-51
-11
-18
-24
-5
8
17
23
19
20
26
23
19
24
19
2
-12
-19
-29
-45
-60
-74
-99
-131
-147
-139
-123
-111
-100
-93
-93
-102
-133
-186
-231
-247
-249
-251
-248
-239
-222
-193
-161
-128
-92
-64
-47
-29
-13
-13
-19
-14
-4
-10
-31
-52
-64
-65
-50
-8
32
13
-38
-24
60
104
60
5
3
36
71
93
87
71
72
74
68
81
101
91
76
84
93
94
87
81
115
158
131
81
94
132
125
95
99
133
118
54
51
95
96
88
140
403
1037
1501
939
-217
-692
-377
-72
-3
28
41
52
87
70
19
20
44
44
52
77
79
79
101
94
57
58
74
53
38
44
27
19
43
51
36
27
25
24
24
2
-43
-83
-102
-109
-125
-151
-158
-142
-136
-150
-152
-132
-118
-112
-102
-96
-108
-118
-105
-85
-84
-101
-107
-95
-86
-86
-94
-111
-115
-102
-102
-112
-102
-98
-122
-131
-103
-86
-105
-124
-114
-94
-93
-110
-111
-92
-79
-80
-83
-81
-67
-56
-62
-66
-50
-34
-35
-38
-35
-30
-23
-15
-13
-13
-12
-11
-11
-12
-12
-5
13
36
44
38
36
38
27
14
11
6
0
17
27
3
0
50
191
598
1106
972
44
-685
-587
-210
-68
-32
16
19
11
29
39
44
47
49
70
79
47
32
55
69
68
76
82
82
79
72
80
107
124
120
112
102
89
89
108
120
104
70
33
7
2
1
-23
-52
-53
-35
-27
-34
-43
-50
-49
-30
-35
-75
-78
-41
-48
-70
-53
-59
-97
-93
-77
-87
-78
-69
-103
-116
-80
-73
-105
-105
-84
-88
-100
-86
-64
-57
-53
-49
-71
-110
-98
-40
-26
-69
-89
-62
-31
-32
-55
-52
-4
29
2
-40
-18
38
23
-24
12
62
23
1
49
57
40
85
245
630
988
682
-187
-672
-462
-147
-51
-10
34
29
21
36
38
33
37
39
31
25
32
49
60
62
66
76
81
79
77
76
76
76
74
67
59
53
50
50
44
26
3
-24
-56
-84
-93
-92
-94
-89
-72
-65
-70
-70
-66
-67
-62
-52
-54
-56
-44
-39
-44
-37
-24
-23
-22
-12
-14
-18
-13
-12
-12
5
11
-26
