# session 12
52
89
-37
59
575
989
949
819
841
805
720
745
803
1144
2004
2280
919
-739
-905
-145
232
255
313
319
251
215
205
208
224
232
251
295
322
324
337
361
367
357
347
344
329
283
226
183
135
71
22
-19
-74
-119
-142
-174
-214
-242
-275
-318
-336
-326
-330
-352
-366
-379
-395
-381
-345
-346
-383
-405
-403
-384
-372
-384
-343
-181
72
475
838
479
-673
-1518
-1340
-715
-349
-237
-158
-89
-68
-65
-48
-25
2
43
88
123
131
121
151
229
299
341
374
393
384
347
285
220
167
123
87
60
21
-34
-67
-68
-75
-91
-89
-86
-89
-73
-56
-66
-83
-108
-144
-132
-78
-80
-126
-111
-41
12
13
-9
44
192
441
948
1384
819
-601
-1389
-997
-366
-93
13
69
59
51
77
104
110
97
92
103
120
150
173
179
207
257
273
254
244
237
204
160
113
43
-24
-26
2
-15
-61
-86
-86
-80
-85
-99
-101
-92
-95
-94
-66
-53
-79
-88
-61
-59
-92
-110
-123
-149
-153
-151
-184
-196
-147
55
585
1016
457
-836
-1478
-1082
-520
-281
-199
-173
-170
-128
-85
-73
-46
-3
29
54
85
128
173
209
245
277
292
306
323
312
285
255
193
117
86
91
93
100
105
73
7
-44
-44
-14
5
10
33
65
59
23
4
7
18
29
20
-8
-22
-36
-58
-39
-21
-62
-51
105
464
1056
1260
285
-1139
-1521
-915
-373
-153
-19
37
53
96
107
92
116
149
157
173
208
239
267
296
306
296
280
258
223
175
116
48
-15
-66
-103
-134
-162
-176
-176
-187
-206
-211
-210
-218
-223
-217
-213
-204
-182
-177
-197
-199
-167
-150
-164
-173
-173
-182
-171
-155
-181
-167
-57
150
672
1304
967
-524
-1586
-1295
-584
-271
-168
-92
-79
-72
-43
-15
24
68
105
153
208
258
305
352
397
435
446
422
386
348
293
217
140
83
55
39
15
-11
-21
-20
-16
-15
-18
-21
-12
-1
-2
-10
-12
-22
-39
-30
3
11
-11
-17
-20
-47
-54
-41
-72
-85
-2
164
577
1132
920
-361
-1387
-1199
-555
-265
-175
-95
-93
-102
-54
-18
-22
-39
-39
-5
40
78
127
182
218
240
258
267
271
281
270
220
161
123
89
56
36
16
-8
-14
-12
-17
-22
-29
-61
-97
-90
-64
-55
-45
-42
-77
-84
-28
-18
-85
-118
-108
-130
-150
-152
-180
-164
-59
131
590
1114
775
-551
-1500
-1276
-653
-349
-245
-175
-143
-94
-34
-9
12
59
108
149
182
219
271
322
349
361
374
375
359
338
307
253
179
109
54
8
-22
-28
-31
-50
-75
-102
-123
-121
-122
-148
-162
-145
-139
-153
-166
-178
-177
-155
-148
-169
-181
-180
-180
-162
-163
-198
-148
20
345
987
1413
596
-977
-1614
-1076
-493
-261
-112
-40
-57
-41
-10
2
35
75
100
135
181
227
281
340
379
395
398
389
366
334
288
223
159
126
116
103
75
51
44
43
29
8
1
1
-6
-19
-27
-24
-24
-47
-81
-89
-80
-95
-130
-148
-164
-172
-140
-126
-153
-105
33
305
907
1323
545
-945
-1500
-923
-360
-201
-118
-60
-69
-50
-11
0
18
54
87
118
153
190
235
288
330
335
313
301
305
298
260
192
108
39
0
-28
-51
-68
-87
-112
-131
-130
-124
-135
-159
-176
-186
-200
-204
-194
-197
-200
-173
-156
-177
-193
-197
-206
-179
-148
-176
-174
-100
70
637
1384
1130
-336
-1393
-1119
-459
-201
-124
-49
-46
-55
-36
-30
-15
26
61
85
110
141
183
230
263
284
298
300
287
271
243
187
114
48
0
-28
-57
-91
-104
-104
-123
-145
-150
-157
-169
-166
-157
-160
-154
-131
-127
-142
-124
-101
-133
-163
-141
-139
-156
-144
-156
-149
-25
231
785
1419
1052
-492
-1571
-1248
-530
-235
-109
6
15
19
77
110
117
144
192
239
280
332
391
437
472
504
511
494
472
427
355
298
256
198
137
98
80
74
63
24
-32
-32
44
92
47
-8
-15
-16
-10
12
0
-42
-41
-16
-45
-100
-125
-155
-192
-194
-192
-150
-6
181
582
1239
1183
-208
-1548
-1491
-762
-393
-264
-148
-128
-128
-84
-65
-56
-19
20
51
85
122
170
230
275
288
271
233
193
155
99
25
-40
-85
-122
-162
-200
-224
-232
-230
-230
-234
-236
-235
-234
-235
-238
-240
-237
-250
-279
-271
-216
-198
-235
-252
-248
-249
-221
-207
-230
-195
-134
84
893
1683
961
-855
-1626
-1002
-406
-286
-206
-135
-132
-100
-75
-67
-10
43
47
70
140
211
264
309
349
374
373
363
364
361
328
267
209
175
152
131
125
132
139
135
128
133
139
131
125
134
131
118
119
117
94
95
127
128
96
80
65
39
39
27
-20
-13
7
169
979
1896
1271
-669
-1626
-1000
-318
-207
-169
-109
-117
-71
-8
-5
7
41
54
73
110
142
175
214
242
254
256
250
236
212
166
103
46
1
-41
-77
-104
-122
-136
-146
-152
-154
-150
-140
-140
-159
-171
-162
-153
-156
-157
-149
-118
-67
-39
-53
-84
-114
-131
-144
-218
-309
-310
-327
-239
472
1298
755
-884
-1623
-1044
-465
-349
-278
-212
-230
-206
-142
-121
-111
-82
-51
-30
-16
15
70
119
162
218
266
289
293
277
243
201
156
104
54
13
-17
-37
-46
-41
-30
-21
-4
13
13
7
23
42
38
41
69
81
61
60
88
89
56
30
14
5
14
5
-16
26
130
371
832
958
85
-1133
-1434
-852
-312
-111
-25
23
33
48
69
95
124
139
154
195
237
258
282
333
404
462
476
460
453
440
378
294
226
141
51
8
-12
-55
-89
-95
-111
-138
-142
-134
-142
-149
-133
-123
-135
-136
-117
-119
-137
-130
-112
-122
-143
-149
-153
-146
-124
-137
-155
-71
130
498
970
886
-209
-1391
-1528
-915
-425
-220
-119
-87
-84
-63
-42
-22
11
47
77
108
150
202
264
338
411
456
472
463
422
347
251
149
69
23
-11
-48
-81
-99
-104
-105
-110
-120
-125
-118
-111
-116
-118
-103
-94
-103
-106
-75
-26
-15
-45
-58
-56
-68
-57
-46
-83
-82
-49
64
720
1589
1095
-768
-1737
-1049
-285
-181
-155
-65
-77
-78
-40
-29
-8
22
32
46
80
119
151
162
160
179
222
253
244
201
176
184
163
88
15
-33
-68
-79
-79
-99
-122
-121
-107
-104
-112
-114
-102
-92
-98
-94
-70
-67
-92
-78
-31
-37
-83
-92
-83
-80
-55
-57
-86
-69
-29
296
1180
1604
357
-1354
-1524
-615
-136
-110
-29
26
23
74
116
120
152
188
202
226
261
291
323
357
385
402
404
386
352
305
246
188
136
78
23
0
-1
-24
-63
-76
-78
-104
-136
-149
-153
-156
-156
-157
-155
-145
-143
-165
-194
-192
-177
-195
-238
-257
-259
-267
-260
-260
-286
-267
-185
35
584
966
228
-1170
-1650
-1027
-436
-276
-204
-144
-132
-100
-60
-33
24
88
127
168
225
286
348
412
477
536
574
584
566
519
443
355
276
216
168
125
87
62
53
55
50
35
25
25
15
-5
-12
-6
-15
-30
-24
-9
-5
5
28
33
14
-8
-29
-49
-47
-44
-70
-80
-54
45
422
914
723
-323
-1173
-1107
-629
-336
-226
-176
-167
-157
-131
-112
-97
-74
-48
-20
19
76
132
178
228
283
337
384
401
370
312
243
163
105
84
62
21
-13
-42
-89
-118
-94
-64
-84
-101
-85
-118
-192
-203
-175
-161
-129
-122
-194
-223
-156
-149
-231
-251
-214
-223
-253
-259
-244
-188
-66
235
749
877
-17
-1256
-1624
-1144
-641
-384
-227
-135
-113
-132
-140
-106
-88
-96
-42
41
77
147
290
380
406
466
527
527
515
489
387
257
193
188
191
184
162
140
149
173
171
161
170
162
126
124
153
149
130
144
163
154
147
160
157
126
98
77
48
45
61
29
6
30
121
687
1621
1459
-298
-1660
-1308
-460
-185
-124
-23
-21
-30
14
28
33
67
98
126
162
202
251
312
364
381
358
314
276
236
175
104
32
-52
-122
-153
-181
-225
-241
-222
-218
-249
-287
-303
-302
-291
-281
-298
-338
-343
-309
-304
-322
-302
-276
-304
-347
-366
-382
-382
-372
-393
-377
-289
-118
431
1207
1010
-509
-1684
-1392
-617
-321
-260
-168
-136
-120
-71
-43
-24
25
85
144
200
259
340
427
478
502
523
514
476
453
427
351
263
196
132
86
82
79
57
50
52
36
26
37
27
-11
-22
-4
-4
-16
-5
11
0
-11
-3
-5
-29
-51
-70
-90
-77
-69
-117
-99
79
361
820
1229
776
-544
-1413
-1176
-596
-265
-88
-10
-31
-30
4
19
46
97
133
155
186
225
272
324
366
392
409
415
392
333
251
160
71
-8
-68
-100
-109
-114
-119
-116
-106
-101
-104
-111
-122
-127
-124
-129
-143
-149
-154
-178
-199
-184
-161
-175
-199
-203
-205
-198
-172
-183
-190
-119
29
496
1289
1283
-204
-1644
-1532
-664
-240
-149
-62
-41
-43
-1
22
31
65
96
123
163
214
273
345
409
437
427
393
353
316
273
212
138
74
28
-9
-36
-40
-34
-37
-39
-33
-33
-39
-39
-40
-46
-45
-41
-39
-35
-41
-66
-63
-16
0
-43
-72
-74
-95
-92
-63
-81
-86
-28
158
773
1471
960
-736
-1685
-1142
-401
-205
-147
-69
-77
-77
-35
-25
-21
11
43
73
117
172
224
271
315
342
339
321
311
298
260
193
119
56
16
-9
-33
-61
-76
-77
-84
-100
-106
-104
-118
-144
-154
-147
-154
-172
-165
-143
-146
-169
-168
-145
-142
-156
-151
-149
-178
-192
-178
-190
-187
-116
28
445
1051
935
-294
-1405
-1338
-682
-286
-144
-65
-41
-27
5
33
77
128
148
168
222
275
304
337
390
441
449
433
449
469
419
316
233
177
119
70
48
27
-12
-49
-67
-72
-78
-98
-124
-131
-131
-152
-177
-194
-212
-208
-183
-190
-220
-208
-177
-193
-223
-206
-192
-206
-188
-178
-207
-157
-33
239
957
1507
629
-1102
-1733
-1070
-418
-177
-22
50
25
33
58
55
72
121
168
211
266
337
426
522
597
626
622
598
546
469
386
289
180
86
14
-36
-47
-43
-51
-55
-58
-74
-75
-61
-61
-70
-85
-108
-114
-123
-166
-187
-171
-188
-213
-189
-169
-181
-178
-181
-212
-208
-181
-197
-185
-89
118
686
1403
1163
-269
-1375
-1222
-635
-323
-127
-9
-51
-48
68
121
141
278
417
387
310
321
339
369
496
565
467
443
567
570
407
273
144
-60
-198
-200
-217
-299
-366
-445
-545
-555
-486
-445
-414
-365
-352
-366
-341
-283
-243
-241
-267
-282
-243
-169
-121
-121
-170
-229
-247
-238
-223
-187
-151
-103
45
418
1012
1264
459
-889
-1422
-970
-461
-225
-11
158
167
134
176
276
373
418
391
294
178
119
147
260
387
416
380
369
319
220
171
119
23
-9
-9
-93
-157
-129
-135
-191
-194
-167
-176
-180
-162
-171
-189
-173
-153
-129
-62
-24
-85
-140
-104
-38
5
35
42
29
33
52
27
-9
58
198
462
1131
1708
982
-713
-1501
-942
-285
-65
60
136
107
112
164
211
289
348
305
271
359
458
483
532
611
597
503
447
424
345
222
136
85
4
-97
-151
-151
-142
-140
-144
-160
-171
-162
-155
-175
-216
-242
-223
-199
-243
-304
-270
-220
-271
-300
-212
-170
-239
-281
-269
-259
-262
-305
-324
-237
-51
471
1304
1297
-164
-1543
-1497
-825
-503
-382
-306
-351
-356
-267
-225
-210
-186
-212
-223
-129
-23
14
43
95
133
155
158
155
185
209
159
101
97
79
20
7
55
98
116
137
153
140
105
81
79
81
65
55
83
114
105
71
22
-24
-26
-8
-34
-59
-34
-46
-99
-92
-78
-121
-65
96
317
862
1411
847
-692
-1545
-1149
-518
-235
-93
-1
27
45
58
76
121
173
226
265
288
348
442
509
564
617
616
576
537
481
420
369
297
218
156
84
33
52
77
54
34
45
44
25
7
-13
-29
-33
-56
-118
-171
-183
-203
-252
-269
-243
-239
-270
-281
-277
-292
-313
-347
-386
-322
-182
-28
522
1428
1336
-311
-1712
-1526
-770
-461
-336
-190
-153
-136
-97
-111
-118
-74
-37
-5
37
88
172
255
285
318
388
392
305
245
234
171
53
-17
-36
-76
-126
-132
-119
-131
-143
-132
-128
-134
-110
-71
-68
-92
-101
-95
-94
-95
-87
-90
-103
-83
-37
-39
-85
-101
-100
-106
-67
-37
-76
-54
63
327
1064
1763
1018
-859
-1728
-1078
-358
-172
-78
7
-4
6
39
44
63
96
114
139
181
232
294
356
410
462
496
489
454
406
334
255
191
128
45
-20
-36
-34
-55
-81
-82
-69
-67
-73
-83
-96
-98
-90
-96
-104
-90
-76
-61
-29
-16
-41
-41
-22
-73
-185
-253
-262
-267
-266
-259
-277
-256
-141
28
450
1102
982
-439
-1732
-1590
-783
-390
-282
-156
-106
-109
-68
-20
11
42
79
135
194
232
272
338
397
425
424
395
353
318
279
223
164
109
58
23
4
-7
-11
-7
-5
-7
-12
-14
-11
-16
-34
-44
-41
-49
-62
-67
-73
-79
-69
-64
-77
-65
-18
2
-29
-69
-85
-81
-56
-10
3
-39
-35
72
351
937
1321
577
-872
-1478
-955
-329
-90
-34
-30
-11
55
81
70
93
125
135
148
167
196
260
337
378
376
362
349
326
285
238
190
136
78
17
-43
-82
-95
-107
-123
-119
-104
-118
-154
-172
-176
-176
-161
-151
-171
-200
-202
-180
-163
-162
-160
-143
-123
-108
-90
-74
-81
-104
-107
-81
-64
-74
