# session 39
4
22
-27
-16
153
319
336
301
311
322
319
330
343
349
361
377
390
402
410
412
415
419
412
391
365
324
256
178
119
72
23
-15
-34
-48
-56
-57
-59
-59
-52
-48
-52
-50
-51
-61
-64
-61
-65
-73
-79
-86
-86
-83
-93
-108
-111
-107
-103
-101
-109
-123
-122
-107
-108
-118
-115
-113
-116
-108
-97
-100
-100
-89
-77
-64
-47
-47
-70
-90
-97
-94
-82
-79
-82
-70
-69
-64
29
227
582
1057
1055
119
-949
-1100
-594
-217
-77
3
27
23
43
55
51
58
69
73
75
82
96
106
107
120
138
140
146
172
189
194
211
227
227
231
240
235
223
209
174
116
55
2
-50
-98
-127
-135
-138
-144
-146
-135
-123
-122
-121
-114
-107
-107
-107
-103
-101
-105
-110
-114
-118
-125
-129
-127
-126
-125
-122
-120
-121
-122
-122
-119
-113
-110
-109
-103
-86
-69
-62
-51
-32
-34
-59
-77
-81
-77
-70
-77
-78
-59
-68
-81
-8
161
589
1296
1405
229
-1105
-1205
-532
-146
-68
-4
13
3
31
44
37
50
61
62
72
87
98
113
130
146
162
186
215
246
275
303
332
359
381
395
398
389
359
301
217
124
40
-25
-76
-114
-137
-148
-154
-152
-146
-139
-131
-121
-111
-108
-106
-103
-103
-105
-106
-107
-109
-112
-115
-118
-120
-119
-118
-118
-119
-118
-117
-116
-113
-110
-110
-109
-107
-106
-104
-103
-103
-101
-98
-96
-96
-94
-91
-89
-89
-87
-82
-78
-67
-46
-32
-24
-10
-6
-28
-52
-63
-63
-58
-65
-70
-50
-57
-77
-17
130
512
1252
1549
505
-943
-1203
-538
-125
-75
-20
10
-7
14
33
27
36
47
48
57
69
77
90
109
124
141
164
187
210
237
268
297
323
347
364
373
377
373
341
274
186
99
24
-37
-83
-115
-132
-139
-142
-140
-133
-124
-117
-111
-107
-102
-97
-93
-92
-90
-89
-88
-89
-92
-95
-97
-100
-102
-102
-102
-103
-102
-100
-100
-100
-98
-94
-91
-87
-85
-82
-79
-76
-76
-75
-73
-69
-65
-65
-67
-64
-59
-59
-61
-60
-57
-56
-56
-55
-53
-52
-49
-45
-43
-41
-36
-34
-36
-35
-30
-23
-8
9
17
26
37
28
0
-20
-26
-23
-24
-31
-19
-15
-41
-17
95
309
784
1232
795
-445
-1150
-797
-249
-65
-18
27
27
29
47
48
40
40
50
67
76
79
89
99
105
120
140
155
170
184
196
212
232
248
256
265
275
277
268
250
216
156
89
32
-17
-59
-90
-108
-117
-115
-107
-105
-107
-106
-96
-89
-90
-89
-87
-89
-89
-83
-87
-96
-95
-94
-101
-105
-102
-99
-98
-100
-103
-102
-99
-99
-100
-91
-86
-94
-97
-89
-88
-93
-90
-82
-82
-85
-81
-74
-72
-74
-72
-65
-60
-52
-35
-20
-11
2
6
-15
-40
-49
-48
-46
-50
-55
-42
-43
-61
0
154
419
896
1172
513
-707
-1219
-801
-298
-93
-3
38
32
47
67
64
62
71
77
83
91
96
103
114
125
139
153
168
183
201
221
241
259
276
286
292
294
289
274
245
195
130
66
10
-35
-69
-89
-99
-101
-101
-102
-100
-96
-93
-91
-90
-92
-90
-87
-87
-86
-85
-87
-89
-89
-92
-98
-100
-99
-98
-98
-96
-94
-96
-95
-90
-87
-85
-83
-80
-77
-75
-75
-73
-72
-72
-71
-67
-66
-67
-69
-70
-66
-59
-56
-51
-34
-16
-6
2
1
-23
-47
-56
-54
-53
-61
-58
-41
-52
-57
18
176
541
1078
1056
21
-1039
-1062
-476
-131
-54
-3
14
7
27
41
34
37
49
56
60
63
68
85
103
110
116
136
152
162
183
208
221
239
266
283
286
283
272
262
252
206
121
46
2
-40
-81
-99
-104
-113
-118
-111
-102
-99
-97
-92
-88
-89
-92
-89
-82
-82
-86
-89
-97
-106
-100
-93
-101
-105
-101
-107
-114
-107
-100
-100
-99
-96
-86
-66
-53
-45
-30
-32
-62
-87
-92
-92
-88
-92
-97
-82
-87
-102
-39
108
424
1004
1240
377
-908
-1266
-737
-267
-106
-27
3
-6
11
28
28
36
46
50
58
66
76
92
108
119
135
154
173
196
222
249
277
304
325
340
347
348
338
307
245
164
84
13
-45
-85
-109
-121
-127
-128
-126
-122
-119
-115
-112
-109
-107
-105
-106
-106
-106
-107
-111
-112
-113
-115
-118
-121
-122
-120
-117
-115
-114
-111
-109
-106
-103
-102
-102
-98
-93
-90
-88
-87
-77
-54
-35
-27
-13
-8
-31
-60
-74
-76
-74
-80
-83
-69
-76
-91
-28
127
501
1145
1305
264
-1042
-1209
-546
-130
-65
-18
7
-4
12
28
28
38
44
41
46
57
68
82
98
113
130
150
172
195
218
241
266
287
304
317
325
326
318
294
245
177
105
41
-12
-53
-83
-100
-105
-104
-101
-98
-95
-91
-88
-85
-84
-85
-86
-86
-86
-88
-92
-96
-97
-97
-96
-97
-100
-100
-101
-105
-109
-111
-111
-114
-119
-123
-117
-110
-113
-109
-85
-65
-63
-57
-51
-70
-89
-85
-80
-92
-102
-82
-54
-70
-82
-12
127
443
983
1119
255
-865
-1089
-576
-165
-43
3
27
32
46
51
52
63
71
75
85
94
100
107
115
122
129
134
143
160
177
188
196
207
220
228
231
231
226
212
191
153
95
34
-14
-55
-92
-115
-119
-110
-104
-108
-113
-102
-88
-88
-94
-93
-91
-93
-97
-98
-101
-105
-107
-106
-107
-110
-113
-116
-115
-112
-111
-101
-80
-64
-55
-43
-47
-74
-94
-98
-93
-88
-94
-96
-80
-90
-107
-50
79
402
993
1178
261
-980
-1251
-692
-231
-86
-28
-8
-10
9
21
20
32
44
46
51
62
74
84
94
108
126
146
164
183
211
241
257
267
282
291
294
303
300
267
217
161
94
30
-16
-52
-78
-87
-88
-89
-87
-83
-83
-82
-78
-76
-76
-72
-74
-86
-89
-83
-86
-96
-97
-96
-102
-103
-99
-103
-107
-100
-93
-90
-77
-58
-53
-48
-21
0
-17
-48
-65
-70
-66
-63
-64
-54
-56
-88
-77
18
254
791
1283
833
-475
-1262
-934
-347
-126
-74
-29
-24
-14
9
3
-7
-4
-4
1
22
40
46
54
69
82
97
123
152
163
165
182
208
219
224
246
264
254
230
204
154
81
18
-31
-80
-114
-127
-132
-132
-127
-124
-114
-100
-102
-109
-106
-105
-108
-105
-105
-108
-104
-107
-121
-118
-101
-96
-95
-82
-63
-50
-41
-46
-67
-86
-96
-102
-94
-84
-95
-93
-78
-99
-74
79
324
765
1281
1054
-175
-1199
-1129
-575
-241
-82
8
14
11
25
31
45
56
59
77
94
93
98
114
124
136
154
168
184
205
217
228
244
250
247
253
260
257
250
229
175
104
45
-1
-49
-87
-94
-90
-111
-133
-121
-105
-118
-133
-128
-117
-110
-107
-112
-121
-123
-123
-128
-126
-117
-123
-139
-131
-107
-100
-102
-83
-63
-63
-71
-91
-123
-129
-101
-95
-123
-133
-107
-111
-140
-77
96
404
978
1344
606
-811
-1375
-842
-281
-124
-67
-14
-5
5
12
8
22
45
55
55
58
79
103
104
111
142
165
171
194
225
241
258
288
308
308
302
302
297
256
185
121
57
-25
-86
-104
-116
-139
-150
-139
-124
-124
-131
-121
-105
-104
-108
-107
-112
-117
-109
-102
-106
-110
-112
-117
-118
-113
-110
-110
-107
-104
-95
-77
-66
-57
-35
-29
-61
-86
-84
-83
-88
-96
-99
-77
-67
-90
-52
86
426
1130
1566
712
-837
-1373
-773
-233
-103
-36
3
-9
12
26
17
32
41
31
51
76
66
70
110
133
127
140
181
213
230
257
287
300
311
331
335
318
299
272
214
128
40
-29
-73
-110
-140
-143
-135
-141
-137
-120
-125
-138
-127
-114
-119
-123
-115
-113
-117
-121
-124
-132
-137
-133
-128
-133
-143
-148
-143
-136
-138
-145
-141
-128
-122
-124
-129
-133
-127
-100
-76
-68
-58
-50
-62
-78
-86
-100
-104
-90
-86
-78
-66
-87
-77
31
282
859
1453
1022
-433
-1305
-871
-209
-46
-40
13
17
16
41
51
55
66
70
77
94
103
103
105
110
128
175
209
181
164
207
220
213
291
371
332
267
260
257
243
219
141
37
-16
-30
-54
-81
-97
-99
-79
-63
-78
-83
-50
-32
-63
-100
-102
-79
-67
-78
-73
-37
-34
-84
-114
-94
-77
-90
-106
-105
-96
-90
-92
-95
-94
-94
-99
-104
-99
-88
-87
-94
-97
-89
-70
-49
-43
-41
-28
-29
-57
-76
-77
-77
-74
-72
-78
-68
-66
-79
-22
131
411
868
1039
298
-845
-1222
-769
-293
-96
-7
27
24
39
53
46
46
58
64
68
78
86
90
105
122
129
134
149
170
189
202
210
219
226
229
230
226
220
216
203
168
115
61
16
-16
-40
-56
-61
-60
-61
-61
-61
-63
-61
-57
-58
-61
-57
-56
-65
-72
-71
-71
-77
-82
-84
-85
-85
-84
-84
-85
-86
-84
-81
-83
-85
-83
-82
-79
-78
-80
-74
-64
-68
-79
-77
-67
-66
-70
-70
-63
-58
-50
-33
-16
-7
7
12
-7
-33
-46
-48
-43
-44
-50
-36
-30
-55
-27
87
340
869
1230
587
-693
-1218
-738
-215
-61
-11
25
17
28
51
46
42
54
63
67
72
80
91
104
108
115
137
161
172
184
203
212
212
225
243
244
239
238
230
210
181
138
80
25
-17
-51
-79
-93
-97
-104
-106
-91
-76
-82
-92
-87
-82
-88
-89
-81
-78
-83
-89
-96
-104
-105
-106
-111
-108
-97
-99
-113
-115
-107
-110
-109
-95
-91
-101
-105
-109
-112
-93
-71
-75
-82
-68
-49
-36
-17
-12
-38
-66
-76
-76
-68
-63
-69
-59
-52
-72
-33
111
351
789
1176
768
-394
-1150
-955
-455
-174
-45
14
23
39
51
45
52
67
77
86
89
90
104
121
128
136
151
170
188
198
202
210
220
224
230
238
234
225
220
211
183
139
85
30
-14
-48
-76
-93
-97
-95
-93
-91
-88
-84
-80
-80
-81
-76
-71
-77
-84
-83
-84
-96
-104
-100
-98
-105
-110
-103
-98
-104
-109
-100
-90
-91
-99
-100
-96
-95
-95
-93
-92
-88
-73
-57
-41
-22
-18
-43
-70
-83
-84
-74
-75
-89
-77
-64
-84
-46
86
343
871
1282
702
-606
-1238
-825
-290
-100
-26
19
13
22
43
42
47
60
63
66
75
85
95
108
119
133
151
171
188
206
227
246
263
277
287
291
288
278
262
233
179
112
49
-4
-45
-74
-93
-104
-108
-106
-101
-98
-97
-95
-90
-86
-86
-85
-83
-83
-85
-85
-85
-89
-92
-94
-95
-97
-96
-96
-96
-94
-93
-92
-87
-85
-86
-85
-81
-78
-77
-75
-74
-73
-71
-69
-68
-68
-67
-65
-62
-64
-66
-63
-59
-56
-42
-21
-12
-5
8
3
-27
-48
-50
-45
-45
-51
-41
-31
-52
-43
50
245
680
1166
893
-285
-1152
-934
-337
-77
-24
21
27
26
48
55
52
59
65
65
69
78
89
97
107
124
141
154
170
188
204
219
235
249
257
260
260
260
258
246
213
162
102
48
2
-37
-65
-79
-86
-87
-85
-85
-86
-85
-84
-87
-87
-79
-70
-69
-75
-77
-76
-81
-87
-89
-95
-98
-93
-89
-95
-100
-98
-99
-106
-108
-106
-103
-99
-93
-90
-91
-88
-83
-82
-84
-79
-74
-80
-81
-67
-61
-70
-71
-63
-62
-55
-29
-12
-11
2
10
-18
-50
-52
-45
-47
-54
-51
-32
-36
-59
-4
144
405
871
1136
499
-668
-1160
-769
-291
-90
-4
29
22
37
56
52
55
74
79
74
84
103
110
111
123
136
142
153
176
193
198
204
210
215
225
234
232
225
224
216
185
135
78
23
-23
-57
-77
-87
-95
-97
-94
-90
-88
-84
-84
-84
-76
-69
-78
-90
-90
-89
-93
-93
-94
-101
-101
-99
-105
-103
-92
-93
-102
-96
-84
-88
-102
-102
-91
-84
-82
-68
-46
-36
-30
-17
-23
-51
-73
-76
-70
-67
-78
-85
-65
-65
-76
-6
158
481
1000
1139
272
-917
-1209
-692
-241
-84
-11
17
15
32
46
44
49
55
60
67
73
79
91
103
111
124
142
158
173
190
207
221
235
247
255
258
256
246
226
194
146
84
19
-34
-68
-94
-114
-120
-114
-111
-112
-110
-106
-102
-97
-93
-93
-93
-90
-89
-90
-91
-92
-94
-99
-103
-99
-95
-96
-97
-93
-89
-89
-86
-84
-84
-82
-76
-77
-81
-78
-72
-67
-47
-25
-18
-9
2
-10
-39
-56
-59
-55
-52
-59
-51
-42
-61
-44
58
275
749
1198
781
-465
-1228
-902
-308
-75
-22
19
20
22
44
48
47
55
61
65
73
81
90
101
114
129
145
161
178
197
214
231
251
267
275
279
281
280
272
247
200
139
77
22
-24
-58
-83
-98
-103
-102
-99
-97
-97
-96
-95
-94
-95
-96
-94
-94
-97
-101
-101
-101
-104
-107
-108
-110
-111
-109
-108
-109
-109
-105
-101
-101
-102
-102
-100
-97
-93
-92
-86
-64
-42
-35
-27
-17
-35
-67
-80
-81
-82
-84
-87
-76
-68
-90
-71
32
243
702
1138
737
-470
-1230
-939
-359
-106
-40
0
3
6
27
34
35
41
42
46
57
67
75
84
95
110
128
144
158
170
184
204
225
237
243
247
247
249
245
225
186
134
78
31
-6
-45
-74
-78
-74
-76
-77
-73
-72
-70
-65
-67
-70
-68
-66
-69
-71
-71
-70
-69
-69
-70
-68
-64
-60
-60
-62
-57
-50
-49
-50
-48
-44
-40
-35
-31
-31
-26
-18
-12
3
27
41
47
56
49
17
-6
-5
-1
-4
-6
-2
5
