# session 36
-28
-79
63
-8
-539
-1006
-1012
-886
-877
-842
-783
-796
-802
-765
-737
-719
-708
-682
-615
-579
-580
-505
-310
124
783
866
-239
-1472
-1532
-860
-463
-368
-286
-248
-242
-207
-185
-176
-141
-105
-95
-87
-59
-25
-7
6
32
73
117
153
186
220
238
247
276
311
312
301
318
335
319
268
201
139
88
36
-4
-16
-18
-14
1
5
5
27
36
14
16
35
12
-6
41
78
47
12
15
24
24
25
32
39
23
0
5
27
24
8
19
58
88
81
63
83
106
76
38
41
45
28
20
39
80
79
-3
-30
101
320
660
1026
817
-163
-965
-837
-313
-86
-64
1
50
48
50
38
17
47
83
60
41
53
33
16
71
124
110
91
100
104
108
127
147
158
166
164
153
159
180
172
127
94
82
43
-35
-98
-101
-78
-82
-100
-99
-93
-96
-103
-108
-100
-87
-97
-115
-104
-78
-81
-116
-137
-120
-103
-116
-131
-139
-149
-140
-117
-116
-126
-116
-107
-114
-100
-69
-83
-125
-126
-109
-109
-97
-89
-108
-108
-95
-99
-51
64
275
707
1012
482
-639
-1191
-834
-310
-91
-37
-12
-2
19
37
28
17
30
57
79
82
76
83
93
98
112
133
142
152
176
189
192
208
231
238
235
238
239
228
213
193
155
101
56
24
-8
-34
-48
-55
-55
-46
-45
-58
-67
-61
-50
-53
-65
-73
-73
-79
-93
-99
-96
-102
-114
-116
-111
-113
-115
-111
-109
-96
-64
-46
-53
-50
-40
-60
-91
-96
-92
-90
-83
-85
-90
-84
-98
-94
0
185
526
944
845
-83
-1016
-1091
-609
-236
-80
-7
11
18
40
50
50
55
58
57
63
73
82
87
92
106
121
128
143
168
186
193
204
224
241
245
240
249
269
256
200
151
125
87
21
-45
-69
-48
-39
-63
-71
-56
-59
-71
-62
-52
-57
-63
-63
-65
-69
-69
-72
-82
-91
-94
-102
-109
-103
-100
-104
-93
-70
-61
-52
-40
-60
-100
-109
-105
-111
-105
-97
-101
-92
-92
-110
-48
120
408
875
1102
428
-739
-1222
-843
-371
-155
-54
-18
-22
-4
14
11
19
33
34
39
51
57
63
76
91
100
112
132
152
170
188
207
223
240
253
255
250
246
232
197
144
86
29
-22
-61
-86
-99
-105
-106
-106
-104
-102
-100
-94
-88
-88
-91
-91
-86
-84
-88
-93
-92
-93
-97
-98
-97
-105
-109
-99
-91
-90
-76
-56
-50
-39
-20
-35
-75
-93
-89
-85
-84
-91
-86
-69
-82
-80
7
189
612
1201
1127
-17
-1098
-1067
-475
-160
-80
-19
-6
-9
13
20
17
29
38
44
58
65
62
71
92
108
118
133
155
182
208
226
246
271
288
293
298
301
290
259
205
134
63
1
-46
-78
-100
-115
-119
-119
-122
-122
-117
-117
-117
-112
-110
-116
-117
-112
-111
-114
-115
-119
-126
-132
-133
-128
-125
-121
-102
-79
-74
-68
-56
-66
-93
-105
-108
-111
-107
-108
-106
-91
-104
-110
-38
118
508
1121
1160
78
-1094
-1166
-558
-185
-90
-31
-13
-16
7
16
13
23
32
35
44
55
61
72
87
103
121
138
154
173
196
221
242
261
279
288
287
285
278
252
201
136
70
12
-35
-72
-93
-106
-113
-113
-110
-109
-106
-101
-98
-99
-97
-90
-87
-90
-92
-88
-86
-90
-92
-93
-93
-93
-95
-90
-70
-53
-49
-42
-38
-62
-90
-97
-95
-89
-83
-90
-85
-77
-96
-82
13
219
712
1244
903
-375
-1234
-962
-374
-139
-75
-25
-25
-21
8
12
8
19
27
30
38
46
53
65
82
96
108
125
148
170
191
214
234
249
264
275
276
277
270
235
174
109
50
-4
-48
-81
-101
-109
-108
-108
-107
-105
-104
-102
-98
-94
-92
-93
-93
-90
-88
-92
-97
-98
-99
-103
-102
-100
-106
-112
-109
-100
-84
-64
-52
-42
-30
-38
-67
-84
-87
-89
-83
-80
-84
-72
-72
-87
-42
82
369
920
1185
409
-835
-1220
-704
-228
-90
-36
-5
-7
10
24
20
26
37
41
46
52
60
73
85
95
109
127
145
165
184
202
223
242
253
260
267
270
268
256
226
175
111
48
-2
-38
-64
-77
-79
-79
-83
-85
-84
-81
-77
-76
-78
-79
-79
-80
-81
-80
-83
-88
-92
-94
-96
-99
-103
-106
-102
-100
-102
-102
-99
-97
-94
-95
-96
-92
-88
-82
-61
-39
-30
-20
-12
-32
-59
-70
-74
-73
-69
-75
-68
-56
-74
-62
36
233
663
1129
829
-341
-1170
-941
-367
-114
-46
5
9
9
31
37
37
46
47
46
55
66
72
80
94
112
126
136
153
174
189
202
216
234
250
261
260
257
256
245
210
159
109
59
11
-26
-50
-66
-74
-73
-72
-73
-73
-72
-72
-69
-65
-67
-74
-80
-83
-85
-86
-88
-92
-97
-101
-103
-106
-104
-103
-104
-103
-100
-102
-102
-97
-92
-90
-89
-90
-92
-81
-56
-39
-38
-32
-21
-36
-65
-78
-78
-72
-69
-80
-78
-64
-80
-76
22
213
599
1083
951
-99
-1064
-1050
-517
-188
-76
-15
-3
-1
21
31
31
40
46
47
55
66
74
82
93
107
121
135
148
162
181
198
207
214
226
234
232
232
234
226
200
157
106
58
17
-23
-51
-55
-55
-64
-66
-61
-61
-62
-58
-58
-63
-65
-67
-69
-69
-72
-77
-81
-85
-88
-89
-92
-93
-92
-90
-89
-88
-89
-87
-81
-78
-80
-80
-77
-74
-76
-72
-52
-28
-18
-11
-3
-18
-47
-63
-66
-61
-58
-67
-63
-49
-64
-56
32
212
634
1134
902
-250
-1143
-971
-390
-118
-54
-9
-5
-6
16
17
15
31
36
31
47
67
68
60
61
89
137
152
125
127
171
194
193
215
237
223
208
220
228
217
191
145
87
29
-23
-66
-92
-107
-115
-116
-116
-117
-113
-104
-97
-91
-90
-88
-80
-75
-81
-85
-80
-77
-81
-84
-86
-91
-94
-92
-91
-92
-94
-92
-89
-89
-82
-65
-53
-49
-38
-36
-59
-84
-93
-97
-89
-82
-87
-74
-63
-83
-51
57
266
784
1313
890
-425
-1208
-896
-358
-142
-50
3
-9
-2
27
28
26
38
46
52
61
67
76
90
101
111
130
151
169
189
212
232
251
268
280
282
283
283
271
238
183
119
56
0
-44
-75
-92
-98
-99
-100
-100
-100
-98
-95
-92
-93
-93
-92
-94
-97
-98
-99
-101
-105
-108
-110
-111
-113
-113
-114
-112
-108
-107
-106
-101
-96
-95
-93
-90
-93
-89
-66
-45
-39
-26
-12
-33
-67
-81
-79
-74
-76
-83
-70
-60
-85
-67
40
257
749
1243
837
-452
-1239
-896
-304
-94
-47
-1
-1
1
23
27
29
40
44
46
54
62
73
86
95
105
125
145
160
179
203
222
237
254
267
275
279
279
273
251
206
142
80
29
-16
-54
-76
-85
-89
-92
-93
-91
-90
-92
-92
-89
-89
-92
-93
-94
-97
-99
-100
-101
-102
-103
-106
-106
-103
-104
-106
-104
-102
-103
-102
-98
-96
-92
-75
-49
-37
-31
-15
-14
-43
-66
-73
-76
-72
-72
-78
-66
-64
-79
-38
81
344
861
1148
445
-784
-1230
-741
-235
-77
-29
-3
-8
8
32
32
37
51
55
52
60
75
85
92
102
115
130
152
172
184
199
220
237
253
270
277
273
271
269
246
191
124
61
9
-33
-61
-78
-90
-97
-93
-89
-91
-91
-87
-87
-87
-83
-82
-88
-90
-86
-91
-100
-100
-98
-101
-105
-107
-107
-104
-100
-98
-97
-92
-80
-64
-55
-40
-17
-22
-59
-84
-86
-87
-83
-80
-85
-73
-71
-102
-69
70
307
765
1170
745
-445
-1196
-980
-485
-219
-77
5
4
4
27
28
21
30
42
61
83
87
77
77
93
112
124
135
155
175
186
189
191
203
224
237
224
198
186
194
176
106
33
-15
-69
-112
-117
-121
-152
-162
-131
-105
-115
-136
-138
-119
-103
-105
-115
-116
-119
-125
-121
-123
-139
-129
-96
-105
-135
-112
-67
-67
-68
-40
-50
-94
-95
-80
-96
-107
-95
-82
-66
-84
-107
-2
254
703
1336
1438
326
-1065
-1345
-779
-350
-158
-8
35
30
64
69
46
63
102
126
126
118
131
156
163
176
210
232
243
273
306
316
324
353
369
359
350
340
304
248
188
119
38
-41
-101
-131
-142
-154
-166
-168
-165
-161
-147
-135
-133
-124
-112
-116
-121
-115
-116
-129
-133
-130
-139
-151
-147
-139
-149
-155
-133
-111
-113
-110
-97
-113
-143
-151
-148
-152
-152
-157
-157
-132
-135
-157
-96
72
507
1304
1584
455
-1049
-1327
-694
-281
-176
-87
-62
-75
-47
-32
-38
-23
-8
-3
12
27
34
45
64
85
103
121
147
179
206
231
262
292
317
333
330
306
266
206
131
53
-36
-128
-173
-173
-193
-214
-173
-123
-138
-168
-150
-126
-130
-131
-111
-102
-109
-109
-115
-141
-149
-131
-132
-145
-133
-128
-149
-149
-122
-91
-60
-57
-75
-45
2
-31
-92
-95
-93
-103
-70
-28
-31
-57
-70
-18
104
356
918
1410
880
-485
-1209
-794
-200
-34
-43
1
53
70
78
65
16
17
108
163
127
108
140
163
173
184
174
178
259
350
330
274
339
438
394
305
330
395
388
317
225
152
117
83
14
-73
-117
-77
-16
-20
-75
-104
-86
-62
-64
-76
-77
-57
-46
-97
-137
-73
-28
-90
-103
-57
-100
-150
-84
-11
-22
-69
-95
-59
12
-4
-103
-138
-94
-75
-84
-79
-94
-122
-105
-69
124
823
1611
1211
-420
-1503
-1141
-426
-207
-168
-108
-141
-119
-23
-92
-214
-127
-5
-63
-131
-74
-26
-72
-153
-157
-38
42
-39
-82
21
72
19
11
45
56
84
120
90
4
-109
-231
-283
-293
-421
-562
-493
-371
-422
-501
-468
-431
-429
-394
-369
-386
-331
-224
-234
-270
-161
-71
-110
-98
-31
-27
-3
70
90
107
170
171
117
142
212
192
139
191
291
251
125
231
540
799
1374
2279
2047
162
-1304
-1028
-277
-51
54
182
152
140
185
120
63
152
232
186
135
179
222
194
223
353
399
337
351
435
438
390
412
481
496
462
447
406
286
163
50
-97
-209
-285
-408
-490
-430
-367
-379
-338
-251
-275
-349
-309
-240
-256
-260
-218
-225
-238
-208
-236
-297
-257
-214
-300
-336
-214
-151
-220
-247
-214
-211
-209
-202
-229
-226
-179
-181
-193
-132
-113
-166
-108
71
527
1577
2269
1073
-1046
-1645
-776
-191
-153
-49
44
-21
-49
-1
3
-41
-55
-31
-20
2
58
71
21
13
71
86
43
62
172
249
248
275
365
435
460
479
483
435
368
332
304
243
168
114
71
17
-58
-123
-127
-89
-87
-120
-130
-129
-142
-137
-119
-122
-133
-130
-133
-144
-151
-156
-158
-153
-159
-170
-174
-177
-177
-180
-218
-254
-235
-228
-290
-347
-349
-330
-303
-286
-292
-297
-324
-345
-245
20
594
1467
1624
197
-1521
-1745
-919
-383
-236
-131
-110
-114
-55
-55
-92
-48
-3
-17
-10
26
45
57
88
140
180
165
132
143
184
224
253
254
251
290
333
324
303
301
269
204
164
151
117
55
-3
-32
-24
10
42
58
95
157
177
135
99
101
121
147
169
183
204
221
191
139
126
134
112
78
69
71
70
74
60
17
-18
-27
-40
-66
-90
-95
-82
-110
-157
-102
85
509
1259
1615
653
-933
-1546
-1060
-507
-279
-170
-119
-123
-125
-121
-115
-100
-87
-78
-72
-62
-38
-11
11
39
75
117
187
273
332
365
385
377
365
375
380
356
318
266
189
100
6
-84
-155
-208
-240
-233
-209
-193
-176
-171
-188
-191
-175
-177
-191
-181
-163
-172
-192
-190
-191
-222
-252
-242
-209
-195
-220
-246
-223
-175
-165
-180
-170
-134
-114
-137
-185
-210
-192
-177
-191
-189
-159
-161
-173
-106
74
524
1321
1640
537
-1103
-1555
-883
-305
-121
-30
-13
-39
-5
28
23
24
26
20
25
40
61
85
104
128
157
169
169
192
233
269
298
330
353
364
371
363
335
286
203
89
-4
-54
-93
-134
-148
-138
-138
-146
-135
-108
-112
-137
-111
-50
-68
-149
-170
-127
-104
-102
-89
-80
-79
-61
-39
-33
-29
-16
-6
5
29
49
49
52
74
65
24
23
35
5
9
31
-32
-39
126
359
845
1607
1618
241
-1215
-1383
-743
-241
-11
9
-86
-16
166
188
109
92
91
93
155
198
154
146
243
289
221
189
222
197
157
231
330
313
269
331
411
374
262
195
180
135
26
-73
-99
-110
-163
-209
-207
-217
-274
-307
-294
-293
-286
-257
-261
-262
-211
-195
-230
-213
-182
-218
-260
-257
-227
-184
-188
-267
-319
-301
-280
-247
-201
-213
-261
-281
-265
-189
-93
-90
-143
-176
-184
-127
49
534
1360
1580
349
-1197
-1454
-791
-350
-227
-125
-80
-100
-96
-73
-69
-67
-22
15
-52
-115
-16
124
115
42
68
163
211
197
194
244
307
335
346
373
393
377
356
333
259
153
88
55
6
-31
-45
-57
-18
37
-23
-115
-56
46
27
-7
1
-52
-105
-52
3
-23
-55
-74
-103
-96
-52
-36
-47
-36
-7
3
-20
-46
-25
-9
-95
-145
-43
-31
-157
-115
-10
-101
-130
82
482
1253
1831
1034
-592
-1265
-850
-406
-166
-8
-66
-158
-58
28
-21
-46
-14
12
54
76
34
38
134
176
154
186
222
196
225
346
395
321
289
379
435
363
308
337
303
153
10
-65
-116
-174
-217
-217
-196
-192
-192
-187
-205
-231
-215
-180
-183
-200
-192
-201
-257
-282
-229
-187
-222
-251
-215
-180
-175
-173
-176
-178
-160
-138
