# session 15
6
-63
158
-83
-1075
-1837
-1811
-1587
-1611
-1650
-1438
-1059
-676
-133
411
-54
-1672
-2735
-2250
-1375
-1075
-983
-856
-871
-857
-690
-618
-644
-561
-464
-445
-352
-202
-135
-77
28
80
51
17
34
56
-13
-124
-144
-111
-122
-154
-137
-62
-35
-105
-97
41
68
-37
-44
7
-38
-76
-11
56
37
-27
-13
90
92
-17
-21
45
34
38
85
78
63
147
597
1521
1864
551
-1185
-1405
-512
15
56
98
133
124
161
196
203
235
277
301
330
376
425
476
518
530
516
480
405
329
322
334
270
172
129
102
39
6
53
105
94
46
14
2
-31
-86
-77
15
68
24
-22
-12
-8
-56
-84
-17
63
27
-54
-51
-23
-34
-51
-74
-80
-19
149
672
1403
1168
-437
-1701
-1392
-539
-202
-129
-46
-40
-46
-5
14
18
45
79
109
137
169
211
254
281
297
309
312
296
259
204
139
77
23
-27
-72
-104
-121
-127
-134
-153
-172
-185
-200
-216
-221
-227
-245
-253
-240
-226
-225
-224
-222
-219
-211
-202
-214
-238
-239
-218
-201
-191
-203
-222
-171
-41
212
649
812
62
-1094
-1460
-952
-413
-193
-115
-80
-68
-47
-25
-2
30
62
98
147
193
234
281
323
367
423
458
454
453
457
414
334
263
194
124
87
77
56
29
6
-25
-42
-29
-31
-52
-52
-50
-70
-67
-46
-60
-76
-54
-47
-67
-62
-46
-61
-75
-72
-86
-95
-73
-84
-97
23
289
675
1056
849
-241
-1298
-1370
-816
-379
-155
-30
1
9
38
46
50
77
112
147
187
214
232
266
317
363
393
402
389
364
321
249
176
123
76
28
-7
-27
-41
-53
-62
-67
-68
-76
-87
-88
-90
-109
-124
-116
-103
-105
-119
-136
-143
-126
-110
-126
-149
-152
-153
-146
-126
-147
-162
-59
134
509
1113
1154
-51
-1418
-1537
-829
-361
-208
-108
-76
-69
-32
-15
-9
26
61
91
134
185
244
317
380
416
425
404
357
301
240
174
108
44
-17
-63
-81
-82
-79
-76
-70
-66
-63
-62
-65
-74
-81
-80
-77
-80
-80
-79
-94
-107
-82
-42
-46
-83
-105
-118
-122
-100
-106
-137
-98
17
412
1264
1632
426
-1259
-1534
-737
-265
-189
-78
-69
-155
-83
51
60
30
60
111
146
170
202
262
328
364
376
366
309
221
151
107
65
18
-46
-109
-121
-90
-73
-68
-69
-104
-149
-167
-164
-122
-60
-61
-115
-143
-160
-180
-160
-109
-77
-88
-138
-142
-60
-33
-112
-148
-120
-121
-109
-58
-18
85
439
1018
1206
313
-1090
-1580
-974
-348
-161
-71
31
49
60
89
75
59
114
216
269
243
240
308
363
405
478
503
435
356
301
261
238
195
124
71
20
-48
-59
-26
-43
-59
-20
-37
-123
-133
-85
-104
-138
-112
-105
-141
-139
-111
-123
-147
-139
-111
-101
-132
-161
-151
-155
-167
-129
-109
-101
24
277
704
1161
849
-491
-1567
-1397
-700
-318
-156
-41
-20
-19
17
28
31
69
117
154
182
205
254
333
396
425
426
380
322
303
259
140
53
38
-8
-87
-115
-123
-145
-134
-106
-112
-132
-131
-125
-130
-146
-161
-158
-146
-154
-177
-172
-142
-129
-124
-100
-96
-131
-151
-147
-155
-148
-119
-136
-151
-75
91
610
1490
1515
-66
-1609
-1492
-594
-195
-131
-44
-22
-16
42
73
76
82
98
170
271
322
352
418
495
537
536
495
440
389
328
250
178
118
60
12
-9
-11
-16
-26
-31
-35
-45
-55
-58
-65
-83
-98
-98
-99
-104
-102
-99
-100
-101
-111
-129
-119
-88
-99
-142
-152
-147
-161
-152
-142
-173
-146
-31
221
858
1411
678
-1027
-1786
-1139
-419
-223
-146
-73
-76
-64
-30
-20
3
38
64
98
146
195
250
309
353
366
354
331
301
260
204
143
77
6
-59
-94
-96
-94
-110
-119
-110
-116
-140
-155
-159
-168
-175
-178
-187
-192
-176
-161
-164
-165
-142
-105
-84
-95
-106
-81
-44
-43
-68
-68
-39
-10
-1
-34
-55
45
246
545
1008
1161
301
-1022
-1472
-940
-373
-132
6
89
82
80
124
154
156
173
213
241
248
271
336
419
465
463
451
455
456
431
372
292
223
170
105
45
24
15
-23
-59
-54
-41
-67
-106
-107
-96
-116
-132
-128
-155
-198
-187
-154
-164
-168
-136
-140
-188
-194
-158
-161
-193
-191
-178
-208
-234
-207
-205
-228
-134
85
439
953
1010
-38
-1362
-1625
-1029
-543
-342
-217
-184
-195
-144
-87
-98
-113
-73
-33
-26
20
114
177
232
366
516
545
459
351
266
227
260
313
291
190
79
34
92
182
195
167
225
331
342
261
190
152
126
118
111
79
37
11
-4
-24
-54
-81
-89
-78
-76
-93
-92
-80
-115
-161
-129
-86
-102
-86
14
323
996
1360
421
-1120
-1569
-905
-331
-173
-106
-82
-86
-41
-3
-3
14
41
59
83
114
152
218
302
367
393
375
329
274
209
152
116
61
-23
-75
-93
-125
-158
-148
-113
-103
-134
-161
-149
-124
-127
-148
-170
-188
-186
-174
-185
-210
-219
-225
-226
-188
-145
-159
-182
-154
-127
-152
-182
-194
-201
-177
-142
-168
-187
-111
37
407
991
951
-236
-1419
-1402
-709
-281
-141
-72
-73
-61
-3
15
4
20
48
91
146
181
222
318
421
462
472
497
492
429
397
439
443
338
226
172
129
81
74
90
69
20
15
61
83
50
27
44
43
-1
-26
-7
-7
-43
-50
-27
-36
-58
-39
-23
-52
-71
-66
-85
-108
-103
-107
-112
-89
-112
-154
-45
173
471
989
1181
216
-1204
-1585
-1000
-482
-246
-95
-77
-101
-28
28
12
28
79
105
127
175
233
288
344
410
463
460
403
347
304
245
181
127
63
4
-19
-34
-65
-84
-90
-102
-101
-97
-132
-161
-131
-102
-122
-139
-130
-140
-155
-149
-155
-178
-164
-125
-119
-134
-126
-109
-105
-105
-109
-130
-145
-119
-86
-101
-97
-5
144
544
1253
1343
84
-1321
-1398
-653
-220
-111
-22
-4
-20
10
29
38
85
128
147
173
216
267
325
384
429
438
408
360
300
230
168
114
44
-38
-98
-119
-123
-136
-147
-141
-137
-141
-144
-145
-153
-161
-164
-168
-183
-204
-209
-198
-197
-208
-212
-209
-210
-212
-208
-191
-168
-164
-187
-208
-214
-217
-201
-178
-189
-180
-90
106
565
1097
820
-461
-1457
-1269
-589
-230
-129
-64
-33
-13
19
36
50
82
121
165
215
254
295
367
449
505
533
534
502
457
412
356
288
216
158
125
101
86
88
69
27
18
52
93
114
97
68
54
28
30
113
211
264
255
124
-40
-41
64
95
76
63
34
45
94
28
-113
-101
20
19
-39
56
263
559
1012
1122
238
-1039
-1468
-1010
-509
-282
-189
-121
-39
-64
-213
-184
-4
-37
-47
302
465
133
20
363
530
390
327
361
354
318
231
101
11
-53
-138
-203
-251
-315
-365
-396
-410
-369
-331
-383
-429
-389
-358
-369
-355
-325
-311
-301
-310
-329
-304
-261
-289
-366
-405
-398
-385
-387
-388
-336
-241
-168
-112
-54
-2
51
186
681
1450
1425
73
-1196
-1136
-475
-140
-10
81
65
57
107
131
135
135
140
188
253
295
335
380
427
494
540
512
460
432
371
263
176
104
16
-31
-23
-36
-75
-69
-23
2
-8
-12
19
60
67
35
2
-10
-6
6
25
40
35
20
4
-30
-59
-29
24
13
-41
-50
-43
-74
-76
-35
-38
-40
25
219
829
1594
1280
-324
-1487
-1213
-500
-212
-147
-106
-107
-86
-49
-47
-44
-17
13
40
74
124
194
273
353
413
425
388
330
269
209
149
80
2
-67
-124
-173
-182
-149
-142
-171
-166
-140
-154
-165
-135
-124
-148
-159
-164
-178
-180
-168
-155
-149
-165
-174
-138
-108
-126
-126
-92
-99
-148
-163
-138
-132
-146
-131
-120
-143
-102
46
320
863
1267
593
-883
-1613
-1179
-578
-306
-138
-40
-48
-57
-39
-12
26
45
52
93
161
216
258
315
404
485
509
481
426
361
302
231
135
52
1
-43
-85
-108
-107
-90
-77
-76
-67
-55
-65
-88
-97
-95
-96
-100
-97
-82
-69
-65
-62
-57
-46
-21
9
16
7
24
63
71
40
28
36
16
0
18
-5
-30
53
262
774
1486
1330
-169
-1479
-1343
-611
-285
-178
-58
-32
-36
-1
9
-2
4
51
163
255
261
272
344
416
483
552
556
478
378
282
185
94
18
-40
-88
-135
-170
-170
-143
-127
-130
-131
-124
-126
-136
-138
-133
-142
-163
-174
-166
-160
-164
-164
-156
-150
-152
-163
-179
-177
-146
-118
-121
-136
-140
-145
-143
-131
-144
-150
-79
66
455
1144
1272
94
-1297
-1416
-681
-249
-173
-92
-50
-67
-53
-25
-5
26
49
69
112
157
191
249
332
389
416
429
408
346
286
233
163
88
24
-36
-81
-101
-105
-99
-87
-87
-94
-90
-80
-79
-84
-92
-98
-97
-93
-95
-103
-110
-111
-106
-102
-99
-96
-89
-74
-63
-63
-52
-30
-36
-69
-82
-66
-60
-61
-49
-63
-78
18
218
546
1010
1010
-27
-1269
-1457
-820
-322
-135
-28
17
20
42
55
59
86
120
148
183
223
271
334
402
462
497
504
492
456
393
331
281
224
150
81
35
7
-9
-14
-17
-28
-33
-34
-48
-62
-63
-71
-93
-109
-111
-113
-120
-130
-138
-136
-129
-135
-148
-145
-120
-105
-114
-126
-120
-101
-108
-142
-157
-146
-148
-146
-125
-140
-135
-17
166
525
1060
932
-342
-1516
-1400
-652
-253
-135
-51
-35
-33
7
26
34
67
100
131
178
232
288
354
423
479
511
510
477
417
344
274
207
140
76
22
-18
-41
-49
-53
-58
-62
-63
-64
-69
-75
-81
-87
-95
-102
-109
-115
-123
-129
-132
-133
-135
-137
-137
-130
-124
-127
-124
-110
-107
-109
-83
-51
-66
-105
-114
-108
-118
-111
-94
-115
-111
-22
169
645
1200
871
-505
-1474
-1161
-455
-172
-112
-52
-41
-36
-5
8
17
43
68
96
139
188
238
290
340
386
412
404
370
328
284
233
180
127
70
15
-26
-52
-67
-68
-58
-44
-39
-51
-66
-69
-69
-76
-76
-71
-74
-82
-94
-111
-117
-109
-104
-104
-102
-104
-106
-101
-97
-98
-91
-70
-49
-51
-62
-46
-15
-22
-60
-73
-70
-84
-75
-49
-77
-61
104
344
699
1031
630
-606
-1476
-1248
-616
-256
-103
-27
-19
-9
18
31
54
87
104
120
156
200
250
311
372
415
442
449
425
379
339
303
253
190
131
73
27
9
4
-15
-33
-26
-17
-28
-39
-37
-37
-43
-53
-69
-81
-83
-88
-95
-93
-88
-92
-101
-106
-108
-104
-93
-86
-81
-70
-63
-67
-57
-31
-31
-63
-77
-67
-73
-78
-56
-63
-85
-11
156
467
981
1072
52
-1246
-1449
-775
-273
-120
-33
1
-4
23
44
48
69
97
123
162
211
263
321
384
445
487
496
469
416
352
283
210
139
71
7
-49
-86
-101
-106
-109
-111
-111
-108
-106
-108
-115
-122
-128
-135
-144
-151
-157
-160
-163
-167
-171
-172
-173
-174
-173
-172
-169
-165
-164
-164
-154
-133
-127
-129
-106
-74
-85
-123
-134
-127
-136
-133
-117
-137
-138
-53
127
557
1085
835
-446
-1450
-1228
-525
-197
-127
-71
-56
-50
-18
0
8
30
57
90
135
181
225
275
336
393
427
436
425
393
351
306
246
177
130
89
31
-7
-5
-3
-13
-9
1
1
3
1
-5
0
1
-20
-30
-14
-6
-18
-27
-26
-31
-37
-33
-16
-1
-5
-9
4
7
-3
11
43
54
51
61
60
30
9
18
18
10
27
27
14
110
329
646
1037
1000
19
-1170
-1383
-785
-300
-117
-3
33
-2
0
28
29
29
40
50
74
125
176
212
251
297
325
328
309
272
235
212
169
89
10
-44
-79
-102
-122
-150
-172
-181
-187
-193
-187
-182
-193
-201
-194
-194
-214
-222
-207
-197
-208
-219
-217
-205
-192
-186
-183
-170
-149
-139
-136
-132
-129
-116
-95
-92
-96
-70
-33
-40
-83
-105
-97
-88
-71
-42
-45
-50
25
216
617
1059
823
-291
-1184
-1010
-381
-77
-15
55
97
102
119
134
142
160
166
167
203
261
304
343
394
434
447
453
449
422
383
346
298
231
166
105
45
7
-9
-26
-35
-24
-19
-27
-30
-33
-40
-48
-60
-75
-83
-86
-96
-109
-121
-133
-138
-138
-148
-158
-151
-145
-161
-176
-172
-162
-158
-147
-132
-130
-123
-98
-96
-135
-165
-159
-156
-155
-134
-130
-141
-88
45
318
787
944
143
-1056
-1418
-887
-355
-154
-71
-34
-33
-8
29
44
62
85
100
129
181
231
269
318
383
441
474
476
451
416
374
322
259
188
116
49
0
-24
-33
-39
-50
-64
-66
-50
-35
-36
-44
-55
-72
-84
-87
-91
-92
-88
-90
-99
-101
-101
-105
-98
-80
-75
-81
-67
-45
-46
-54
-33
-7
-25
-66
-74
-61
-66
-57
-41
-72
-58
90
308
703
1159
821
-505
-1469
-1218
-557
-233
-100
-9
1
11
42
42
43
75
110
144
184
220
264
327
400
463
504
516
499
457
398
325
242
161
90
23
-37
-75
-91
-97
-99
-99
-98
-96
-94
-98
-105
-112
-118
-124
-129
-138
-150
-156
-160
-167
-171
-173
-174
-170
-167
-165
-155
-144
-147
-149
-130
-115
-134
-164
-170
-166
-176
-169
-155
-178
-163
-48
169
644
1143
722
-682
-1594
-1236
-533
-249
-176
-113
-101
-92
-63
-53
-40
-9
18
47
87
130
178
242
317
386
430
441
428
393
337
272
207
140
71
15
-25
-54
-67
-63
-54
-51
-46
-28
-6
-2
-5
9
26
26
25
34
46
55
