# session 2
-13
0
-99
68
521
775
759
865
1342
1915
1795
749
-182
-173
247
422
439
458
436
409
410
395
365
352
340
312
291
289
286
264
240
231
222
204
189
182
171
161
156
143
122
108
102
91
78
58
24
-16
-47
-68
-79
-80
-66
-45
-39
-44
-34
-20
-18
-10
-3
-15
-30
-26
-20
-24
-28
-27
-27
-31
-33
-31
-49
-84
-109
-122
-136
-141
-146
-164
-174
-165
-163
-168
-167
-182
-216
-240
-234
-227
-237
-235
-221
-233
-244
-205
-68
330
862
812
-63
-846
-833
-457
-260
-193
-143
-131
-117
-82
-71
-67
-42
-22
-16
1
21
31
46
65
83
103
127
148
166
182
208
243
265
273
282
287
280
268
247
202
147
107
85
65
53
59
77
91
104
113
108
108
136
173
180
150
110
93
104
108
97
105
107
76
69
104
108
75
60
39
-9
-42
-73
-145
-210
-227
-251
-301
-323
-300
-273
-274
-300
-304
-263
-206
-12
475
851
438
-516
-1012
-794
-527
-581
-629
-409
-118
21
53
74
82
74
65
49
25
1
-2
33
83
108
112
107
88
67
58
53
39
29
32
35
33
36
41
25
-9
-39
-63
-93
-117
-117
-101
-88
-84
-85
-84
-74
-57
-41
-34
-36
-40
-58
-100
-139
-155
-154
-148
-148
-138
-104
-76
-61
-19
0
-81
-181
-189
-145
-118
-88
-43
-18
-15
19
100
263
618
995
886
194
-454
-542
-243
32
138
164
183
187
176
188
219
231
228
241
254
240
231
254
278
274
256
251
259
261
255
259
265
245
214
204
205
201
192
175
136
87
45
5
-29
-39
-25
-11
-11
-14
-11
-14
-34
-62
-80
-92
-106
-122
-136
-150
-158
-161
-164
-167
-165
-172
-175
-147
-108
-112
-151
-160
-123
-110
-129
-126
-125
-151
-132
-31
225
742
1079
522
-566
-1039
-716
-330
-199
-155
-136
-129
-95
-69
-69
-55
-42
-56
-56
-22
-2
-6
6
25
22
17
23
29
36
50
59
57
57
62
62
59
50
25
-14
-58
-98
-130
-152
-159
-152
-141
-124
-102
-93
-90
-71
-47
-43
-48
-51
-55
-55
-57
-69
-80
-78
-77
-86
-95
-93
-76
-60
-62
-79
-101
-114
-117
-120
-119
-118
-130
-124
-109
20
626
1454
1326
42
-905
-719
-256
-137
-104
-40
-53
-70
-37
-18
-19
-11
5
20
30
32
37
47
62
82
101
112
124
141
158
175
189
202
218
226
218
207
198
168
118
78
57
38
24
24
26
23
17
6
-8
-14
-20
-36
-47
-48
-53
-57
-51
-42
-35
-30
-29
-23
-10
-9
-12
1
18
11
-17
-31
-21
-17
-19
-3
-3
-35
-32
4
240
966
1588
996
-366
-917
-495
-141
-124
-109
-89
-116
-107
-89
-96
-72
-23
-6
-11
-10
-3
9
25
35
36
42
55
64
68
73
71
58
51
52
55
58
53
24
-18
-52
-74
-92
-114
-132
-121
-96
-94
-105
-104
-101
-106
-106
-102
-104
-105
-104
-108
-112
-105
-99
-101
-98
-90
-92
-98
-95
-82
-60
-40
-49
-84
-100
-77
-70
-90
-86
-75
-91
-83
-28
200
797
1272
744
-423
-920
-554
-182
-107
-79
-48
-55
-44
-22
-17
-9
4
6
12
22
24
28
38
44
46
53
57
53
56
62
53
46
62
73
62
60
67
54
29
8
-25
-58
-62
-53
-53
-58
-62
-62
-49
-41
-45
-45
-47
-52
-40
-33
-47
-37
-17
-50
-95
-84
-61
-63
-64
-61
-66
-58
-26
6
3
-38
-68
-53
-31
-42
-57
-63
-74
-64
-4
180
636
1095
827
-141
-758
-552
-157
-31
-13
22
29
32
48
57
63
71
70
73
87
96
93
92
98
105
111
115
118
124
123
117
117
122
120
117
122
126
118
94
59
28
8
-14
-40
-45
-29
-29
-41
-37
-29
-27
-24
-35
-52
-46
-31
-29
-25
-23
-34
-35
-21
-14
3
28
19
0
32
68
55
45
60
48
24
47
97
98
44
28
99
238
549
1004
1046
322
-503
-653
-316
-46
37
55
57
46
25
18
26
36
61
80
51
21
28
20
-10
-36
-56
-54
-52
-93
-122
-99
-104
-156
-179
-155
-117
-116
-197
-299
-324
-324
-373
-413
-429
-508
-626
-694
-705
-695
-715
-779
-774
-644
-500
-398
-298
-230
-218
-199
-144
-95
-77
-82
-90
-69
-19
19
16
2
20
47
32
-2
7
45
51
37
44
51
51
141
466
956
1125
563
-296
-557
-103
277
147
-64
14
163
172
141
142
143
157
200
232
198
128
136
215
219
155
152
186
183
178
198
216
215
170
118
166
262
257
215
260
282
205
176
239
252
184
145
192
273
308
293
277
269
290
361
393
323
277
331
377
374
387
396
374
400
480
492
438
429
465
480
458
410
387
409
395
346
342
340
319
366
525
863
1236
1039
142
-543
-407
44
275
344
337
198
5
-142
-261
-381
-515
-676
-821
-904
-980
-1108
-1243
-1325
-1372
-1414
-1463
-1528
-1600
-1644
-1661
-1685
-1711
-1702
-1663
-1622
-1570
-1493
-1430
-1400
-1364
-1307
-1233
-1110
-934
-754
-576
-381
-186
-8
173
370
556
665
678
663
661
645
616
585
570
620
712
735
687
684
745
788
785
773
766
740
678
603
560
523
453
422
511
712
1037
1341
1177
448
-234
-363
-124
104
207
224
201
185
193
198
192
208
254
291
307
338
384
409
407
392
377
369
364
351
330
307
274
237
212
192
162
130
114
92
29
-52
-104
-140
-187
-214
-206
-204
-219
-232
-237
-225
-198
-174
-131
-72
-57
-67
-32
22
42
28
2
13
72
102
84
103
152
150
135
165
177
159
182
170
36
-62
11
161
383
744
875
294
-634
-1024
-771
-489
-399
-304
-233
-287
-349
-348
-324
-272
-238
-289
-325
-259
-190
-204
-226
-181
-137
-172
-224
-187
-111
-102
-130
-140
-185
-274
-328
-343
-360
-352
-317
-312
-308
-250
-202
-220
-205
-108
-40
-67
-123
-148
-142
-129
-121
-116
-117
-129
-123
-81
-53
-66
-64
-36
-44
-72
-52
-6
6
1
8
21
33
41
45
56
73
85
108
225
571
1004
973
272
-466
-627
-358
-83
56
111
130
145
155
136
113
134
166
164
152
166
198
223
221
204
216
260
293
293
282
278
292
313
318
299
278
287
316
282
174
119
155
161
115
100
97
47
-1
21
69
57
7
12
69
78
-3
-91
-103
-73
-66
-74
-74
-78
-88
-95
-95
-95
-107
-135
-158
-166
-188
-228
-258
-278
-300
-291
-230
-141
41
415
705
409
-356
-852
-751
-417
-192
-92
-59
-51
-26
-4
-10
-18
-12
-13
-26
-46
-61
-52
-31
-31
-41
-33
-4
29
53
65
76
83
79
69
66
72
71
40
-8
-46
-91
-148
-173
-158
-145
-124
-86
-76
-81
-43
13
30
21
30
64
79
50
49
119
153
89
38
58
63
26
3
-12
-36
-38
-22
-28
-40
-20
9
12
-12
-43
-52
-35
-22
-6
14
-15
-56
-25
124
565
1209
1247
266
-744
-840
-429
-184
-107
-53
-32
-25
-19
-22
-18
-17
-22
-6
18
19
25
38
32
28
56
85
88
89
107
127
140
151
157
156
150
136
110
66
9
-37
-66
-93
-120
-134
-138
-134
-121
-113
-108
-99
-95
-97
-84
-67
-68
-73
-69
-64
-61
-68
-92
-117
-122
-111
-104
-109
-119
-118
-108
-102
-98
-89
-82
-79
-71
-64
-59
-45
-34
-41
-54
-60
-58
-57
-59
-51
-33
-43
-43
26
191
620
1248
1263
257
-739
-773
-320
-82
-23
16
27
51
82
75
71
90
90
84
103
125
130
131
139
149
156
166
184
202
218
238
254
257
251
251
254
240
201
157
109
50
-9
-57
-95
-115
-113
-110
-118
-123
-116
-113
-116
-112
-105
-110
-117
-118
-124
-139
-149
-154
-157
-157
-166
-183
-179
-152
-151
-191
-223
-203
-156
-147
-180
-194
-170
-161
-187
-202
-181
-161
-174
-195
-206
-229
-223
-173
-104
290
1196
1648
692
-688
-992
-503
-228
-197
-84
22
-14
-109
-139
-95
-50
-21
11
37
72
104
82
34
33
72
104
108
105
165
234
192
132
172
196
147
117
99
55
5
-59
-108
-87
-70
-125
-113
13
30
-24
120
227
16
-96
113
200
74
42
78
59
64
88
47
7
72
158
113
24
41
49
-40
-88
-71
-77
-100
-167
-228
-110
102
167
170
266
280
132
88
212
233
148
200
315
305
276
290
239
216
371
614
775
619
-28
-778
-1039
-881
-764
-800
-841
-855
-878
-897
-889
-838
-737
-598
-459
-347
-255
-167
-96
-61
-50
-29
17
70
112
184
299
376
388
415
484
553
625
691
691
629
555
486
441
436
432
395
351
326
311
300
290
263
227
212
208
178
141
127
106
74
64
56
38
39
34
12
33
49
-44
-147
-144
-157
-267
-338
-317
-304
-302
-263
-240
-256
-254
-232
-223
-210
-183
-154
-119
-97
-90
-53
58
379
924
1102
378
-625
-934
-626
-331
-209
-148
-133
-139
-123
-108
-114
-120
-107
-91
-86
-76
-58
-54
-54
-35
-10
-3
1
16
31
46
68
86
92
97
102
99
76
26
-28
-60
-90
-141
-181
-193
-200
-215
-230
-239
-240
-233
-231
-239
-241
-237
-242
-254
-257
-259
-272
-279
-278
-291
-319
-329
-325
-336
-360
-372
-369
-360
-357
-371
-384
-356
-290
-235
-197
-162
-140
-126
-82
-27
4
45
84
74
96
211
408
842
1407
1340
391
-454
-449
-37
224
328
383
416
457
491
502
509
517
522
531
532
499
451
439
474
511
528
544
567
568
535
521
575
610
569
568
627
595
519
530
470
261
190
310
296
146
162
316
350
262
221
249
271
312
402
463
446
384
325
337
368
242
24
-15
102
146
95
24
-79
-162
-193
-323
-553
-576
-431
-655
-1259
-1557
-1442
-1499
-1739
-1777
-1738
-1638
-1054
-217
-9
-641
-1414
-1698
-1489
-1105
-754
-504
-378
-329
-299
-291
-289
-240
-161
-133
-164
-144
-58
-101
-276
-300
-161
-97
-120
-93
99
445
626
536
462
255
-225
-204
632
1227
967
538
495
596
533
379
327
341
271
152
113
136
105
16
-36
-53
-70
-50
-27
22
224
364
256
319
589
528
366
490
328
-200
-286
-86
-350
-817
-1004
-1084
-1145
-1032
-816
-652
-529
-192
507
933
371
-549
-688
-130
338
453
329
163
138
187
224
331
443
508
599
593
440
311
69
-335
-505
-533
-730
-601
8
262
98
268
657
719
602
592
630
642
558
342
190
195
142
19
41
76
27
300
850
927
482
244
412
757
1178
1364
1124
855
728
470
275
366
250
-103
-21
211
-127
-499
-246
85
-38
-247
-153
38
77
180
546
1031
1590
2025
1731
806
231
303
529
681
689
515
485
687
726
574
526
480
248
79
203
260
-40
-310
-904
-3193
-6440
-7724
-6618
-5539
-5251
-4381
-2501
-633
339
416
195
149
175
85
111
337
416
395
622
817
572
234
167
3
-593
-1149
-1112
-799
-786
-924
-793
-483
-345
-428
-488
-369
-171
-22
82
187
343
590
855
1008
1042
1010
906
794
768
830
1098
1542
1561
848
109
-27
206
451
673
853
904
820
721
742
846
866
814
913
1142
1122
846
793
981
1004
866
712
505
373
343
191
26
61
70
-65
-92
12
93
187
194
-80
-359
-381
-579
-1134
-1440
-1323
-1255
-1301
-1313
-1342
-1183
-701
-267
83
674
1032
401
-678
-968
-411
53
87
122
351
529
497
332
205
215
259
228
191
203
205
185
205
266
281
258
301
337
222
128
320
650
722
504
389
502
503
263
61
13
-21
-64
-79
-158
-321
-448
-540
-620
-566
-443
-467
-526
-431
-263
-54
174
167
-74
-258
-350
-334
-124
-83
-531
-1016
-933
-408
-195
-605
-882
-487
-58
-106
-261
-155
179
396
207
-10
124
221
52
-14
97
117
51
40
15
-52
169
796
1145
651
-115
-333
-70
159
198
171
103
-36
-80
137
419
507
408
205
39
119
344
353
79
-163
-204
-258
-431
-460
-292
-212
-240
-207
-107
97
347
302
57
89
62
-624
-1262
-1012
-654
-992
-1386
-1339
-1204
-1045
-812
-754
-745
-539
-317
-97
221
357
238
191
284
431
606
653
612
688
708
518
398
446
354
75
3
249
500
782
1202
1182
468
-91
-20
174
221
288
336
286
268
403
587
600
491
500
566
485
362
361
361
234
106
96
109
72
74
148
189
187
269
410
411
265
30
-480
-1018
-904
-541
-906
-1342
-798
-275
-853
-1288
-536
33
-500
-804
-242
74
-155
-196
25
239
442
562
588
657
700
596
470
449
411
258
168
174
57
-51
202
680
919
638
-117
-858
-1080
-992
-1018
-944
-586
-412
-524
-372
17
120
13
-4
-49
-179
-203
-115
-148
-346
-373
-287
-660
-1060
-552
147
107
162
759
945
557
298
322
401
251
-168
-338
-206
-377
-678
-561
-332
-332
-326
-193
18
203
143
-33
44
317
509
503
299
215
708
1524
1756
1037
63
-337
-197
-41
40
192
212
10
-35
182
270
132
9
-66
-84
31
133
105
69
77
96
108
67
59
166
200
53
-62
-26
-12
-140
-255
-239
-212
-217
-191
-238
-330
-259
-166
-214
-92
156
-37
-544
-715
-596
-565
-568
-549
-626
-712
-719
-752
-758
-620
-413
-157
121
199
102
139
243
139
-40
-33
112
263
324
214
76
132
399
792
988
501
-338
-585
-258
-80
16
410
792
798
616
503
463
392
248
