# session 29
-11
3
-17
-76
-62
53
108
56
11
-8
-52
-101
-125
-137
-143
-141
-139
-136
-129
-124
-126
-120
-106
-105
-115
-115
-110
-114
-117
-114
-115
-122
-124
-123
-121
-115
-112
-113
-108
-102
-97
-75
-50
-41
-30
-13
-24
-56
-70
-71
-68
-61
-64
-63
-49
-58
-57
33
236
651
1146
961
-199
-1234
-1171
-530
-142
-32
13
22
27
51
59
56
63
70
72
76
83
91
102
113
126
139
149
158
176
199
217
234
253
269
279
285
286
284
275
249
202
143
84
32
-10
-41
-61
-72
-79
-82
-81
-76
-74
-74
-71
-67
-67
-68
-67
-66
-64
-63
-62
-63
-65
-67
-68
-70
-70
-69
-69
-69
-69
-69
-66
-63
-60
-50
-27
-9
2
10
3
-25
-52
-61
-60
-71
-92
-85
-53
-51
-53
10
161
532
1059
1008
-49
-1137
-1174
-546
-140
-54
-33
-34
-56
-62
-41
4
38
28
9
5
2
17
48
51
41
64
99
112
122
135
140
148
173
203
221
218
209
213
213
188
157
133
85
3
-68
-94
-97
-101
-101
-106
-119
-112
-82
-87
-130
-129
-73
-64
-124
-139
-84
-65
-96
-104
-87
-82
-89
-115
-144
-131
-89
-76
-80
-64
-46
-35
-34
-86
-141
-102
-49
-85
-107
-45
0
-44
-125
-111
36
229
647
1329
1340
52
-1277
-1292
-565
-155
-71
-35
-45
-39
32
69
41
-7
-27
29
79
37
25
102
127
80
76
110
157
237
272
200
170
302
415
351
282
339
376
322
274
196
43
-27
3
-51
-143
-122
-94
-137
-138
-106
-110
-96
-82
-118
-124
-72
-54
-74
-74
-71
-107
-128
-81
-55
-114
-131
-71
-85
-152
-118
-49
-73
-107
-87
-101
-120
-57
-2
-27
-45
-37
-51
-67
-89
-124
-93
-24
-63
-156
-144
-82
-46
37
328
1016
1631
1026
-624
-1461
-880
-217
-152
-183
-104
-61
-39
-40
-69
-41
12
9
-2
6
9
30
55
23
14
107
166
107
68
125
193
213
200
209
271
312
275
223
194
169
146
97
-10
-100
-83
-44
-107
-187
-147
-68
-77
-109
-97
-100
-101
-59
-65
-113
-66
-1
-48
-68
-10
-41
-104
-43
10
-64
-108
-47
-16
-56
-76
-68
-79
-86
-67
-64
-74
-65
-56
-38
0
-16
-62
-24
33
-3
-49
-47
-56
-72
-78
-96
-82
-47
-82
-102
-4
142
529
1300
1546
369
-1180
-1414
-613
-137
-154
-113
-40
-82
-52
28
-25
-82
-13
29
-1
2
-1
-32
22
125
130
110
174
211
161
172
271
291
211
187
273
350
328
262
231
200
130
77
40
-48
-88
31
148
132
101
74
-21
-50
23
19
-45
-46
-45
-60
-42
-53
-83
-65
-78
-140
-132
-64
-64
-127
-145
-102
-95
-155
-176
-113
-78
-124
-139
-85
-72
-117
-132
-112
-115
-136
-126
-66
-23
-67
-126
-106
-48
-9
13
0
-47
-55
-17
-43
-135
-141
-41
13
-41
-114
-87
76
380
869
1239
781
-452
-1288
-1095
-524
-204
-78
-8
-3
-11
12
26
11
12
38
56
59
60
65
77
103
129
128
104
107
153
187
179
164
173
204
228
200
170
218
245
166
140
188
102
-39
-32
-34
-120
-94
-24
-50
-41
-19
-101
-142
-93
-69
-32
-1
-63
-123
-121
-114
-80
-40
-49
-71
-95
-108
-90
-128
-173
-68
15
-103
-172
-72
-21
-41
-18
8
10
-16
-68
-95
-130
-153
-13
141
44
-128
-125
-26
99
353
889
1424
1040
-356
-1339
-1146
-625
-332
-65
61
-39
-37
78
52
-15
42
102
77
37
31
77
105
43
36
156
185
126
190
253
173
160
278
332
311
298
260
238
287
281
170
79
12
-72
-81
-66
-146
-176
-102
-131
-206
-149
-92
-127
-135
-136
-159
-99
-37
-143
-239
-135
-48
-123
-142
-89
-152
-199
-99
-63
-146
-146
-79
-79
-109
-108
-102
-81
-36
-26
-43
-18
7
-31
-63
-47
-79
-160
-138
-17
18
-54
-70
34
305
895
1475
1062
-436
-1507
-1195
-429
-138
-69
39
16
-51
39
122
65
44
101
104
113
178
178
149
165
134
109
184
207
129
132
221
257
259
286
285
229
222
291
293
205
169
175
98
-37
-112
-86
-29
-58
-174
-213
-113
-31
-67
-113
-123
-154
-146
-51
-8
-97
-182
-161
-97
-82
-115
-129
-113
-122
-133
-98
-61
-63
-86
-117
-114
-71
-74
-123
-126
-121
-163
-163
-106
-141
-219
-113
118
371
916
1477
925
-699
-1654
-1198
-480
-272
-206
-68
-42
-83
-33
62
89
57
35
40
39
27
49
94
83
66
125
142
89
143
253
240
211
270
290
258
294
348
308
213
139
77
-10
-111
-183
-197
-185
-199
-225
-227
-235
-242
-207
-202
-251
-227
-166
-195
-217
-159
-124
-66
133
326
319
206
141
101
68
85
90
39
18
35
34
68
124
57
-80
-94
-34
-56
-101
-93
-121
-150
-38
159
511
1247
1650
563
-1235
-1732
-887
-225
-124
-34
51
-33
-94
-26
36
37
51
78
42
-1
72
183
149
45
83
213
257
226
220
248
280
319
388
452
441
375
345
362
322
193
96
50
-52
-147
-128
-113
-162
-170
-142
-135
-126
-165
-252
-211
-62
-38
-110
-108
-95
-135
-151
-146
-146
-129
-128
-157
-158
-117
-97
-129
-120
-34
-37
-176
-233
-137
-82
-155
-215
-156
-93
-146
-168
-18
341
1110
1825
1116
-854
-1886
-1238
-416
-200
-129
-71
-103
-104
-102
-125
-66
-19
-80
-81
21
43
-18
-16
28
38
57
111
132
108
94
102
128
179
188
130
132
177
101
-27
-72
-133
-227
-252
-292
-379
-384
-373
-414
-361
-279
-341
-378
-299
-270
-213
-17
91
59
129
278
342
395
462
396
256
242
293
269
230
212
157
123
156
173
154
134
110
142
231
224
155
247
511
989
1715
1825
436
-1313
-1593
-751
-224
-102
93
183
66
13
40
37
74
116
52
-40
-54
-21
13
36
26
14
44
69
62
99
183
226
217
193
180
207
239
201
101
15
-25
-65
-127
-188
-258
-303
-267
-239
-295
-331
-312
-302
-285
-286
-335
-334
-288
-307
-314
-253
-268
-345
-307
-226
-241
-247
-199
-218
-244
-159
-92
-137
-187
-207
-224
-174
-110
-158
-188
-72
-32
-99
59
436
892
1479
1492
134
-1432
-1531
-662
-100
116
233
168
104
181
205
159
165
169
173
223
194
97
141
256
217
130
182
280
287
254
282
344
337
294
325
374
353
305
260
214
174
96
-1
-7
44
20
-43
-44
-32
-79
-119
-104
-113
-172
-185
-153
-154
-166
-161
-179
-203
-213
-241
-237
-163
-132
-182
-202
-180
-199
-237
-235
-226
-243
-253
-228
-177
-127
-136
-174
-56
284
761
1249
1202
86
-1288
-1570
-941
-444
-230
-20
90
55
42
70
49
22
77
153
146
117
143
155
137
179
248
247
209
224
290
342
336
329
368
373
306
266
278
254
193
143
67
-48
-102
-69
-77
-152
-171
-153
-176
-160
-85
-95
-165
-144
-85
-98
-111
-75
-84
-141
-124
-67
-90
-131
-108
-105
-135
-96
-46
-103
-171
-121
-33
-36
-94
-104
-89
-122
-120
61
455
1050
1534
1094
-380
-1526
-1364
-642
-277
-166
-45
0
-36
-15
39
16
-13
53
84
9
2
90
104
66
104
166
169
156
175
215
244
239
238
282
312
288
259
217
138
86
51
-41
-126
-123
-130
-202
-253
-252
-241
-208
-132
-75
-79
-103
-107
-103
-109
-124
-123
-83
-48
-72
-106
-93
-79
-96
-99
-84
-86
-78
-38
-18
-40
-65
-68
-54
-49
-58
-45
-32
-55
-25
111
403
1059
1644
1025
-581
-1414
-947
-334
-149
-72
-15
-30
-22
7
5
9
21
16
17
33
43
49
60
74
88
105
123
141
162
187
214
238
256
271
280
279
271
257
224
161
84
17
-35
-74
-99
-113
-120
-122
-118
-112
-104
-101
-103
-104
-102
-101
-102
-104
-106
-108
-109
-109
-106
-106
-109
-109
-114
-125
-113
-85
-81
-104
-128
-138
-134
-135
-139
-121
-117
-143
-109
1
312
1075
1662
863
-807
-1443
-798
-214
-128
-94
-45
-66
-51
-8
-10
-18
-3
15
31
37
30
44
78
82
68
94
133
137
145
180
197
193
203
214
214
217
218
205
175
127
64
1
-50
-92
-120
-132
-132
-127
-116
-102
-94
-91
-82
-67
-60
-61
-59
-56
-59
-66
-72
-70
-67
-72
-73
-65
-71
-81
-63
-39
-47
-73
-91
-95
-85
-81
-75
-53
-68
-98
-30
129
490
1189
1456
382
-1108
-1381
-673
-196
-110
-52
-23
-39
-20
-2
-8
1
13
16
23
32
37
50
66
80
93
112
134
158
183
209
233
254
271
282
288
291
283
251
195
124
52
-10
-60
-96
-114
-119
-120
-119
-115
-109
-105
-102
-100
-100
-101
-102
-102
-103
-104
-104
-105
-108
-112
-114
-113
-113
-111
-103
-94
-96
-86
-47
-21
-43
-79
-94
-92
-88
-95
-98
-82
-93
-110
-51
103
545
1317
1457
183
-1264
-1313
-516
-118
-101
-52
-22
-36
-12
5
0
11
25
27
36
48
57
68
82
94
109
128
147
166
187
206
225
240
250
256
258
254
243
218
174
115
54
0
-43
-70
-84
-91
-92
-90
-87
-86
-84
-81
-80
-80
-80
-79
-81
-84
-86
-87
-90
-94
-96
-98
-102
-104
-104
-105
-106
-101
-97
-95
-82
-73
-77
-64
-32
-30
-63
-89
-91
-83
-88
-92
-75
-75
-97
-52
95
452
1100
1352
367
-1068
-1378
-671
-151
-72
-37
-2
-16
-2
22
21
27
40
44
48
58
66
74
85
98
112
127
140
156
172
186
198
210
217
220
218
216
210
197
170
129
81
32
-10
-38
-53
-61
-65
-65
-63
-63
-65
-65
-64
-64
-66
-70
-74
-75
-78
-82
-83
-84
-87
-89
-90
-92
-94
-94
-95
-95
-93
-90
-90
-88
-83
-82
-77
-60
-49
-48
-31
-5
-11
-42
-60
-55
-50
-55
-52
-39
-50
-54
18
199
626
1178
1034
-169
-1263
-1168
-465
-94
-39
-5
12
10
29
41
40
47
54
54
57
64
74
86
97
106
118
131
139
147
162
177
186
190
192
192
189
181
171
160
143
115
77
36
1
-23
-35
-43
-52
-60
-65
-63
-54
-52
-63
-73
-74
-74
-80
-86
-87
-87
-87
-87
-91
-98
-96
-89
-91
-92
-86
-90
-101
-92
-73
-70
-73
-69
-68
-63
-51
-43
-36
-17
-9
-26
-50
-60
-59
-62
-63
-49
-48
-70
-25
130
410
852
1077
438
-753
-1318
-941
-383
-116
-21
13
10
22
42
47
50
57
60
67
76
84
95
109
118
123
128
136
147
163
176
181
182
180
173
169
168
161
154
152
141
114
79
47
16
-9
-22
-31
-42
-47
-47
-47
-49
-48
-47
-49
-54
-60
-64
-65
-69
-76
-80
-82
-85
-87
-89
-91
-91
-91
-91
-89
-87
-87
-86
-84
-83
-77
-67
-61
-53
-31
-12
-25
-56
-73
-68
-62
-69
-65
-50
-65
-61
31
234
672
1176
932
-295
-1295
-1140
-472
-122
-40
3
11
13
36
44
42
51
59
61
66
72
80
90
101
112
123
136
148
161
173
184
195
202
205
205
200
191
181
170
147
108
63
20
-16
-42
-58
-65
-69
-70
-70
-70
-70
-71
-72
-72
-73
-74
-76
-79
-84
-88
-89
-90
-95
-98
-97
-97
-99
-99
-97
-97
-96
-93
-93
-91
-86
-83
-78
-64
-53
-46
-29
-14
-26
-54
-67
-62
-59
-67
-57
-46
-64
-52
44
270
767
1227
785
-518
-1325
-987
-345
-86
-38
-2
3
7
25
29
32
44
48
50
58
67
75
83
91
100
114
130
145
160
177
190
200
207
210
208
204
199
194
183
160
122
79
38
0
-26
-39
-46
-50
-50
-48
-49
-52
-52
-51
-53
-57
-60
-63
-68
-73
-76
-79
-82
-84
-85
-87
-87
-85
-84
-83
-82
-79
-78
-80
-79
-77
-74
-69
-61
-52
-37
-15
-7
-27
-56
-72
-66
-65
-75
-69
-61
-75
-50
53
287
770
1133
605
-618
-1287
-954
-381
-114
-37
-8
-4
5
21
25
31
41
46
49
56
67
78
83
87
95
110
128
145
155
166
179
185
184
183
182
180
181
183
182
164
127
87
48
9
-21
-31
-36
-48
-58
-58
-53
-51
-52
-52
-56
-66
-71
-68
-65
-70
-76
-78
-79
-79
-80
-83
-87
-87
-84
-82
-76
-70
-69
-61
-48
-50
-50
-30
-16
-31
-56
-69
-68
-69
-79
-71
-63
-85
-59
74
324
772
1138
701
-478
-1251
-1050
-504
-181
-52
-6
-2
12
31
33
37
46
49
50
58
67
76
85
96
109
119
131
146
159
168
179
188
194
198
198
193
186
182
173
146
104
61
23
-14
-45
-62
-69
-72
-73
-74
-76
-76
-76
-76
-76
-77
-79
-81
-83
-88
-93
-97
-99
-101
-104
-106
-105
-104
-105
-104
-101
-100
-97
-93
-93
-92
-81
-70
-59
-37
-22
-33
-59
-76
-74
-69
-75
-71
-59
-72
-71
5
188
622
1155
981
-185
-1204
-1121
-488
-132
-51
-12
1
3
24
35
34
40
46
50
59
68
73
84
98
109
120
132
148
165
182
199
214
227
235
238
237
234
230
221
196
155
108
61
19
-12
-34
-48
-55
-55
-54
-54
-51
-49
-52
-53
-52
-52
-56
-59
-61
-64
-67
-69
-69
-69
-70
-71
-71
-70
-70
-70
-69
-69
-68
-65
-62
-59
-48
-37
-28
-9
9
0
-30
-52
-52
-46
-52
-50
-40
-55
-59
5
169
576
1118
1014
-89
-1153
-1161
-554
-166
-66
-31
-22
-23
-6
2
1
5
8
11
16
15
3
