# session 38
-34
-65
39
-88
-568
-899
-832
-708
-716
-733
-725
-723
-695
-667
-665
-647
-607
-580
-570
-574
-548
-435
-257
53
550
707
-85
-1220
-1504
-955
-467
-317
-266
-251
-245
-185
-140
-141
-112
-68
-68
-77
-56
-29
-18
-4
45
105
123
126
168
220
238
241
258
294
337
349
327
316
324
302
243
178
127
93
61
14
-30
-34
-6
4
-17
-27
-2
31
36
16
2
9
16
15
16
9
-1
13
18
-17
-20
37
60
33
40
58
17
-28
-14
-4
-25
-22
-11
-17
-6
-11
-41
20
210
577
1137
1277
374
-822
-1096
-608
-225
-86
20
57
24
21
36
36
49
65
57
59
86
88
65
79
117
121
125
162
181
167
187
242
262
239
229
235
234
228
206
156
100
44
-20
-70
-101
-128
-143
-139
-131
-117
-105
-127
-154
-120
-74
-91
-117
-111
-128
-152
-127
-108
-135
-143
-127
-135
-144
-134
-140
-157
-147
-117
-93
-79
-70
-73
-87
-102
-107
-115
-129
-129
-120
-113
-96
-96
-133
-120
10
296
824
1211
659
-610
-1271
-894
-349
-142
-68
-28
-35
-9
18
-6
2
41
29
18
60
74
52
79
127
125
114
134
156
176
217
247
230
204
238
313
335
277
223
218
195
123
65
32
-23
-74
-82
-105
-144
-106
-27
-34
-89
-78
-40
-62
-102
-91
-53
-31
-39
-74
-97
-82
-64
-65
-67
-69
-78
-81
-79
-84
-87
-75
-66
-74
-70
-41
-13
-5
-13
-32
-41
-40
-54
-76
-77
-69
-54
-25
-38
-72
-22
126
464
1024
1130
161
-1027
-1190
-595
-191
-98
-41
-10
-26
-29
-7
30
44
13
-3
24
14
-39
-12
87
121
82
73
104
120
117
125
148
178
209
213
177
158
190
208
174
127
78
18
-14
-12
-35
-77
-80
-59
-70
-101
-93
-48
-36
-65
-68
-39
-33
-49
-59
-64
-62
-45
-34
-48
-67
-69
-57
-49
-54
-64
-66
-61
-61
-62
-57
-53
-45
-32
-21
-15
-10
8
23
-2
-43
-51
-45
-46
-38
-39
-46
-39
-53
-61
38
240
564
976
957
110
-859
-1025
-581
-217
-77
-7
32
44
44
39
35
36
47
70
86
80
70
82
110
118
107
125
163
159
135
157
194
185
166
174
176
173
190
194
162
126
93
32
-50
-100
-86
-71
-120
-156
-121
-96
-103
-92
-90
-103
-79
-71
-124
-149
-117
-106
-117
-115
-128
-150
-121
-82
-112
-150
-129
-104
-111
-115
-119
-111
-62
-54
-132
-152
-46
29
-5
-34
-11
-9
-46
-73
-67
-57
-66
-63
-19
-6
-77
-120
-30
133
390
790
930
317
-623
-958
-600
-184
-27
-12
-18
-6
17
26
31
42
44
46
59
71
68
67
83
102
107
111
126
139
149
161
171
176
181
186
194
200
196
193
191
170
129
87
47
5
-29
-39
-33
-35
-52
-63
-50
-35
-45
-64
-64
-47
-38
-48
-67
-75
-70
-63
-59
-66
-80
-76
-62
-68
-78
-56
-32
-45
-54
-16
13
6
12
28
3
-33
-36
-31
-40
-47
-40
-21
-23
-52
-41
50
240
586
877
596
-270
-952
-938
-546
-245
-117
-71
-54
-42
-28
-16
-6
-2
1
11
21
26
31
42
55
65
75
86
101
116
124
131
143
148
143
143
149
147
144
142
123
87
49
16
-16
-41
-55
-68
-75
-66
-58
-63
-68
-65
-66
-72
-70
-67
-72
-77
-77
-77
-76
-74
-77
-84
-90
-87
-80
-75
-70
-62
-58
-51
-28
-6
0
6
7
-13
-33
-34
-39
-54
-66
-64
-51
-55
-72
-26
100
341
805
1156
664
-492
-1129
-813
-296
-102
-73
-33
-2
-6
-21
-13
4
-4
0
38
62
38
-8
-9
60
120
102
75
124
197
210
196
213
246
267
280
279
267
256
236
189
125
68
23
-21
-61
-84
-95
-91
-73
-72
-88
-88
-71
-65
-84
-105
-95
-72
-81
-98
-88
-82
-100
-111
-108
-107
-107
-105
-90
-63
-54
-62
-55
-45
-66
-96
-114
-125
-123
-111
-114
-111
-100
-116
-113
-29
154
560
1045
868
-218
-1153
-1068
-480
-143
-59
-17
-4
-2
12
16
17
25
28
31
45
55
60
71
86
102
119
138
155
175
199
219
231
242
253
258
259
259
250
222
177
122
64
14
-26
-56
-74
-79
-76
-74
-72
-68
-63
-58
-49
-44
-52
-61
-62
-67
-79
-86
-86
-90
-92
-91
-103
-122
-122
-117
-122
-116
-93
-82
-82
-78
-84
-102
-111
-110
-105
-96
-101
-104
-83
-82
-95
-39
96
393
914
1091
275
-884
-1171
-645
-200
-79
-31
0
-3
5
19
21
24
33
40
48
57
67
78
95
116
127
131
146
166
182
196
212
225
237
247
250
245
239
227
195
144
84
29
-16
-50
-69
-79
-89
-95
-92
-83
-79
-76
-72
-69
-65
-60
-60
-70
-80
-84
-82
-81
-84
-85
-82
-83
-81
-62
-37
-32
-32
-32
-50
-73
-78
-80
-83
-81
-85
-81
-65
-77
-73
13
172
532
1060
1038
41
-994
-1084
-590
-246
-120
-58
-50
-56
-41
-30
-25
-12
5
22
31
36
53
74
85
96
115
129
138
153
171
187
199
206
211
216
217
210
199
178
140
87
35
-9
-47
-75
-89
-93
-94
-94
-89
-86
-86
-87
-89
-91
-91
-90
-91
-93
-96
-100
-103
-105
-103
-102
-103
-102
-97
-98
-98
-80
-55
-44
-34
-21
-37
-70
-82
-81
-83
-83
-84
-78
-63
-74
-79
-15
120
475
1040
1075
75
-1014
-1087
-518
-156
-64
-12
4
3
24
32
26
34
45
49
56
65
73
86
101
116
131
145
159
178
198
214
229
244
254
257
258
258
254
232
187
131
75
23
-21
-51
-68
-78
-81
-82
-82
-80
-75
-69
-68
-69
-68
-76
-95
-111
-118
-124
-133
-140
-142
-143
-141
-131
-121
-119
-116
-106
-94
-78
-61
-48
-31
-17
-35
-70
-80
-77
-77
-76
-79
-74
-59
-65
-65
-4
152
535
1047
961
-66
-1057
-1058
-491
-139
-48
-8
2
0
19
32
32
30
28
34
44
42
47
67
80
83
98
122
141
158
177
194
209
222
231
238
243
240
230
212
177
126
76
31
-12
-45
-55
-54
-61
-67
-62
-55
-55
-56
-53
-49
-52
-56
-58
-66
-78
-77
-68
-69
-83
-90
-82
-79
-98
-121
-116
-92
-86
-106
-109
-83
-63
-68
-74
-69
-49
-2
36
-8
-105
-139
-87
-41
-56
-87
-70
-45
-79
-96
-9
183
570
987
741
-316
-1126
-955
-407
-143
-41
30
4
2
63
37
-17
20
50
14
1
31
59
59
48
82
117
71
52
158
237
199
166
188
190
178
207
260
275
225
159
112
65
27
12
-13
-44
-37
-20
-32
-54
-64
-61
-55
-37
-2
-16
-80
-70
-15
-54
-95
-24
-9
-134
-168
-24
51
-48
-125
-88
-81
-161
-187
-86
12
11
-46
-111
-108
-13
22
-35
-27
16
-26
-73
-73
-85
-74
-12
5
-72
-145
-84
86
303
664
983
657
-289
-960
-877
-412
-78
-51
-98
8
76
1
20
110
57
13
114
118
-21
-12
134
138
45
70
148
119
87
200
276
107
-27
159
329
222
148
199
155
106
126
34
-68
-14
11
-73
-103
-97
-118
-79
-14
-39
-105
-113
-72
-24
-14
-74
-136
-104
-34
-39
-71
-64
-89
-127
-68
-10
-82
-145
-95
-54
-54
-17
2
-40
-47
-18
-65
-161
-190
-136
-78
-91
-141
-128
-85
-103
-95
20
251
695
1041
541
-608
-1167
-771
-262
-103
-45
16
5
3
69
95
45
24
58
75
72
76
80
106
150
154
137
147
156
161
201
234
219
213
237
232
194
185
223
228
160
84
43
0
-40
-43
-45
-71
-83
-74
-71
-72
-69
-67
-67
-72
-77
-74
-67
-74
-96
-109
-97
-87
-88
-76
-90
-155
-162
-71
-27
-83
-117
-92
-84
-99
-86
-56
-56
-66
-37
6
17
11
3
-23
-56
-69
-62
-58
-71
-78
-67
-78
-80
9
177
438
807
898
253
-700
-1056
-739
-350
-159
-65
-20
-12
1
17
19
14
16
30
50
56
53
59
73
83
95
115
132
142
153
161
164
176
192
186
167
164
177
191
187
151
101
63
34
6
-19
-32
-28
-16
-17
-26
-21
-11
-9
-5
7
5
-6
-8
-5
-8
-15
-19
-17
-16
-19
-18
-13
-15
-17
-12
-11
-13
-2
5
3
17
45
59
63
62
38
10
0
-3
-4
-21
-75
-121
-126
-143
-145
-57
131
544
1079
945
-187
-1188
-1086
-468
-160
-104
-63
-72
-116
-126
-131
-151
-164
-162
-151
-138
-129
-122
-108
-82
-56
-35
-8
29
61
84
104
127
160
199
223
232
243
243
211
156
94
30
-25
-66
-100
-118
-115
-104
-96
-87
-75
-58
-39
-32
-39
-42
-31
-19
-13
-17
-26
-21
-12
-24
-35
-27
-31
-47
-38
-26
-38
-42
-26
-23
-19
4
20
26
37
31
1
-23
-33
-33
-24
-28
-43
-35
-33
-45
9
152
465
1016
1218
366
-870
-1170
-600
-148
-55
-17
16
17
34
44
33
38
49
46
50
67
78
84
95
106
117
136
154
172
198
223
237
252
268
271
269
274
265
230
183
124
51
-17
-62
-94
-123
-141
-139
-135
-138
-138
-129
-122
-125
-126
-121
-117
-120
-123
-124
-123
-126
-128
-125
-125
-133
-137
-134
-137
-143
-140
-123
-103
-90
-85
-73
-58
-69
-100
-119
-118
-110
-109
-116
-107
-95
-107
-87
-3
193
674
1158
784
-442
-1226
-936
-355
-117
-57
-10
-5
-5
8
5
11
34
41
39
55
71
68
76
107
128
136
153
176
194
213
235
255
268
281
293
290
272
255
233
178
108
59
16
-40
-82
-84
-70
-68
-74
-73
-68
-72
-71
-56
-49
-69
-78
-54
-45
-86
-115
-85
-51
-71
-108
-95
-48
-27
-55
-103
-110
-49
8
4
-11
-7
-29
-63
-79
-91
-80
-49
-57
-90
-94
-78
-38
38
221
681
1122
717
-470
-1188
-893
-349
-117
-53
-23
-27
-11
13
6
4
15
13
13
32
49
51
50
61
80
95
109
129
156
184
199
203
211
223
227
231
245
244
207
150
96
38
-25
-67
-79
-81
-91
-106
-106
-86
-70
-87
-108
-79
-34
-60
-125
-125
-82
-86
-104
-75
-64
-107
-121
-92
-97
-125
-123
-113
-108
-93
-86
-88
-65
-34
-23
-15
-27
-78
-107
-81
-61
-76
-91
-79
-57
-70
-86
-17
147
469
952
1044
214
-881
-1170
-730
-304
-122
-53
-32
-5
32
25
6
25
51
51
53
82
112
109
101
132
169
167
155
176
208
222
237
265
279
263
248
260
272
253
217
174
106
35
-1
-20
-54
-80
-76
-71
-86
-96
-80
-69
-81
-90
-81
-78
-81
-82
-96
-118
-116
-89
-71
-77
-88
-82
-77
-90
-102
-88
-57
-24
-9
-39
-85
-106
-115
-121
-105
-86
-84
-92
-110
-93
-4
165
578
1160
1079
-78
-1178
-1145
-515
-167
-89
-38
-21
-22
-1
9
8
18
31
37
41
49
61
75
86
101
119
136
156
183
210
231
249
263
275
280
274
257
238
201
134
57
-6
-58
-98
-119
-128
-133
-132
-129
-128
-127
-123
-126
-127
-116
-108
-115
-122
-122
-124
-126
-123
-123
-129
-128
-121
-121
-124
-120
-112
-106
-99
-85
-68
-55
-41
-24
-24
-52
-76
-83
-86
-80
-78
-83
-68
-60
-81
-43
101
410
988
1320
542
-854
-1346
-760
-199
-63
-19
22
16
30
50
47
54
69
73
78
88
98
111
126
139
155
174
193
212
233
251
268
286
297
299
299
298
288
259
207
139
67
11
-29
-61
-89
-103
-102
-99
-102
-102
-96
-92
-92
-93
-95
-97
-99
-103
-107
-109
-107
-109
-111
-112
-116
-126
-126
-116
-112
-114
-118
-114
-100
-89
-87
-74
-48
-31
-21
-18
-44
-76
-83
-81
-80
-77
-75
-64
-59
-79
-56
59
309
803
1196
676
-608
-1336
-974
-357
-93
-21
19
17
18
42
55
57
64
73
81
87
95
106
114
123
141
155
162
175
196
212
220
229
236
235
228
224
222
219
198
151
90
31
-19
-61
-90
-102
-105
-107
-108
-106
-101
-97
-95
-95
-94
-98
-103
-105
-107
-108
-106
-109
-116
-117
-114
-117
-119
-113
-108
-108
-93
-71
-62
-53
-44
-60
-95
-110
-111
-112
-111
-110
-103
-92
-108
-111
-31
134
510
1063
1044
-44
-1197
-1264
-633
-210
-85
-25
-10
-13
11
25
23
33
45
45
49
62
72
85
103
118
130
145
163
180
197
214
231
243
248
252
257
257
244
214
162
100
44
-1
-41
-66
-72
-70
-69
-66
-60
-53
-48
-47
-49
-48
-42
-39
-41
-46
-50
-50
-48
-49
-51
-51
-52
-49
-44
-41
-41
-39
-38
-35
-16
9
19
30
46
31
-8
-24
-22
-27
-34
-37
-26
-16
-34
-31
42
211
647
1180
955
-243
-1188
-1018
-407
-106
-21
28
22
17
30
15
15
43
37
27
62
85
76
95
125
115
104
121
124
115
135
164
168
167
174
176
182
199
209
189
141
79
17
-37
-77
-102
-122
-133
-134
-133
-136
-134
-124
-127
-144
-149
-137
-135
-142
-139
-137
-148
-157
-165
-179
-172
-150
-144
-136
-106
-91
-101
-101
-100
-110
-117
-134
-164
-161
-142
-154
-155
-140
-150
-108
47
296
698
989
522
-575
-1221
-975
-473
-200
-90
-48
-46
-24
15
26
16
11
19
40
65
75
75
89
119
145
155
157
171
197
224
249
265
262
257
269
278
275
271
256
212
164
136
106
63
45
66
74
57
62
79
64
