# session 14
136
134
48
94
392
655
641
493
413
404
422
459
508
601
757
909
1000
1070
1146
1192
1178
1138
1119
1112
1075
1022
1014
1002
909
814
803
791
737
723
738
711
665
593
433
228
66
-50
-157
-251
-300
-366
-536
-702
-768
-841
-883
-773
-671
-478
82
276
-747
-2037
-2278
-1857
-1559
-1301
-1080
-1106
-1162
-1084
-1068
-1128
-1083
-966
-934
-970
-946
-883
-887
-904
-917
-1104
-1254
-746
339
1163
1420
1478
1508
1464
1404
1358
1307
1302
1351
1373
1348
1335
1322
1243
1148
1124
1093
977
852
763
682
627
555
427
401
551
836
1316
1535
663
-822
-1445
-1035
-577
-409
-303
-244
-232
-189
-130
-84
-78
-134
-184
-191
-254
-382
-405
-301
-247
-270
-260
-265
-317
-281
-175
-188
-323
-412
-395
-352
-390
-490
-509
-427
-408
-495
-509
-399
-345
-371
-315
-249
-322
-382
-338
-345
-371
-303
-253
-255
-101
372
869
653
-408
-1268
-1151
-606
-334
-277
-211
-171
-191
-218
-205
-157
-96
-23
66
116
104
109
159
176
156
172
213
240
271
297
299
310
334
329
303
299
326
348
317
260
267
315
317
300
325
340
301
248
217
216
249
266
232
200
198
280
641
1112
945
-59
-951
-988
-552
-256
-170
-143
-134
-128
-92
-57
-98
-184
-209
-189
-188
-178
-179
-227
-223
-108
-23
-61
-121
-110
-72
-68
-72
-66
-73
-64
6
94
108
25
-64
-80
-66
-86
-100
-65
-22
-16
-41
-73
-101
-117
-123
-113
-20
162
367
766
1427
1586
568
-786
-1231
-862
-447
-213
-81
-20
62
199
280
276
274
288
257
191
154
150
153
166
188
216
230
208
237
379
468
407
314
192
1
-116
-151
-234
-277
-216
-213
-282
-281
-233
-223
-228
-227
-220
-227
-285
-316
-276
-333
-439
-308
-92
76
663
1334
780
-727
-1442
-1069
-652
-503
-365
-238
-168
-139
-121
-65
-28
-57
-52
15
32
-29
-50
39
173
265
318
343
335
315
274
190
123
115
134
178
226
209
154
109
47
-6
3
25
41
82
118
142
180
158
58
32
82
42
-22
44
223
606
1071
887
-106
-887
-845
-467
-154
101
231
231
219
206
145
31
-88
-106
-48
-68
-162
-199
-167
-125
-91
-66
-31
11
-6
-81
-113
-106
-174
-277
-292
-247
-186
-67
28
7
-13
28
3
-80
-101
-105
-163
-192
-150
-126
-132
-114
-118
-141
-85
55
344
786
806
-1
-855
-888
-412
-79
26
24
-6
23
64
52
68
133
149
98
43
22
31
18
-14
26
117
136
130
211
298
284
232
196
134
48
-18
-65
-93
-75
-50
-74
-113
-108
-66
-20
38
115
140
-7
-273
-388
-292
-281
-400
-351
-108
291
914
1092
47
-1339
-1609
-972
-443
-192
-47
-61
-115
-42
26
-7
-14
47
92
139
241
319
297
266
336
425
398
312
295
316
310
299
294
254
168
85
50
36
35
91
149
130
68
-7
-88
-95
-28
9
-17
-76
-142
-132
-41
-23
-96
-107
63
600
1378
1451
357
-736
-790
-343
-111
-15
62
65
4
-122
-205
-118
30
160
283
256
108
77
131
197
401
657
742
698
619
487
314
124
-50
-159
-237
-329
-390
-394
-375
-363
-383
-436
-467
-457
-438
-424
-424
-450
-483
-523
-569
-588
-555
-448
-313
-188
177
800
848
-142
-1176
-1288
-836
-503
-356
-265
-246
-294
-331
-310
-232
-107
29
101
67
9
16
46
46
96
251
428
548
609
623
629
626
548
414
316
259
233
269
319
337
384
458
442
352
315
321
273
186
104
36
13
12
-32
-36
60
229
668
1267
1086
-187
-1281
-1284
-825
-552
-383
-274
-291
-322
-317
-332
-352
-359
-362
-328
-251
-200
-199
-175
-113
-86
-82
-8
90
71
-30
-27
85
109
10
-41
-13
-16
-19
43
83
72
86
98
61
56
82
18
-113
-191
-235
-278
-271
-268
-326
-323
-198
88
663
1048
389
-887
-1372
-835
-201
69
129
105
48
-6
-32
-19
18
93
216
308
364
489
660
728
665
577
524
484
465
484
467
402
385
388
347
341
350
304
334
424
350
203
187
140
-33
-130
-115
-122
-143
-161
-226
-270
-224
-187
-221
-233
-139
160
630
701
-93
-1096
-1338
-916
-510
-372
-377
-326
-153
-55
-113
-127
-66
-99
-184
-169
-98
-80
-86
-54
-16
22
103
128
20
-40
23
34
29
167
301
270
205
200
187
133
22
-133
-195
-125
-97
-197
-308
-360
-395
-419
-386
-289
-195
-129
-18
150
427
951
1298
674
-579
-1192
-908
-482
-235
-76
-26
-18
31
37
0
-27
-65
-55
29
25
-85
-111
-35
14
40
83
102
111
154
172
126
97
87
42
34
69
8
-82
-31
61
64
40
13
-13
-5
2
45
129
23
-189
-37
306
217
-83
-20
235
525
1016
1125
261
-772
-986
-607
-225
0
76
74
106
132
53
-91
-163
-111
-59
-94
-96
-9
34
18
41
82
95
121
169
203
216
212
184
144
113
93
84
85
71
38
27
23
16
74
169
188
171
173
111
-2
-41
-26
-53
-91
-55
67
328
697
705
-80
-1085
-1340
-894
-497
-377
-320
-264
-213
-142
-112
-137
-123
-109
-191
-253
-177
-97
-109
-113
-71
4
124
195
130
53
65
92
82
77
83
60
35
78
147
129
57
30
12
-25
9
78
45
-27
-28
-19
-39
-47
-73
-66
83
354
830
1439
1347
138
-1026
-1096
-607
-307
-155
-54
-51
-19
89
155
158
162
167
154
139
136
146
170
229
308
348
341
350
376
387
407
376
200
21
-34
-131
-291
-284
-152
-144
-233
-293
-360
-403
-330
-246
-252
-234
-159
-156
-209
-251
-295
-278
-199
-65
434
1147
980
-305
-1267
-1057
-493
-287
-247
-213
-241
-246
-190
-165
-165
-116
-28
31
17
-37
-55
-30
0
61
168
242
255
282
299
233
164
181
216
201
182
187
168
123
118
141
109
36
6
36
73
72
58
95
143
138
125
148
189
234
340
674
1088
862
-149
-895
-711
-221
-12
49
99
100
120
156
101
3
-47
-92
-146
-153
-119
-100
-135
-206
-224
-168
-146
-197
-234
-213
-178
-176
-233
-331
-391
-371
-296
-206
-160
-182
-191
-148
-143
-210
-268
-262
-192
-119
-131
-162
-106
-77
-139
-112
32
290
873
1334
672
-748
-1395
-987
-507
-353
-254
-140
-81
-33
41
111
147
141
120
126
135
104
93
158
212
217
264
347
380
397
436
432
392
374
362
337
312
289
289
312
326
348
366
315
228
193
208
244
247
144
20
-7
-52
-185
-201
-33
204
624
1045
635
-658
-1499
-1171
-513
-267
-234
-131
-17
-13
-137
-260
-272
-251
-259
-232
-192
-200
-138
48
162
136
135
180
194
245
339
346
285
262
262
257
255
209
111
57
86
133
139
104
97
131
101
20
29
74
13
-25
76
95
-35
-25
151
364
755
1006
328
-941
-1505
-1134
-667
-474
-375
-337
-388
-394
-312
-271
-315
-343
-317
-278
-220
-158
-135
-113
-53
-23
-62
-96
-79
-57
-78
-135
-200
-248
-272
-273
-254
-233
-230
-255
-295
-324
-330
-342
-375
-385
-330
-216
-81
-28
-84
-104
-45
-5
42
90
303
1176
2141
1557
-347
-1362
-896
-274
-58
84
174
175
211
259
279
311
329
299
242
186
172
214
258
270
262
253
258
248
203
195
225
210
189
250
295
244
195
196
184
165
173
186
185
184
198
232
249
220
192
213
237
200
132
123
188
339
751
1285
1134
31
-981
-1048
-588
-266
-157
-107
-85
-144
-274
-373
-381
-329
-291
-331
-388
-332
-186
-65
33
160
254
266
270
303
275
144
-20
-140
-184
-201
-240
-243
-182
-128
-79
-15
-13
-68
-94
-100
-116
-123
-122
-114
-103
-122
-134
-126
-187
-295
-304
-154
163
406
-6
-1042
-1709
-1494
-990
-712
-576
-492
-473
-435
-339
-232
-114
5
70
106
190
295
360
427
519
571
575
597
630
600
496
376
289
250
251
250
225
205
200
199
195
162
112
81
40
-10
-19
-26
-63
-67
-39
-25
-11
-29
-56
36
261
697
1300
1255
38
-1191
-1223
-601
-246
-131
-37
-3
4
21
12
-4
0
3
1
-7
-18
10
88
146
150
149
160
146
115
95
60
7
-4
16
-9
-49
-35
-5
3
11
23
50
103
115
55
7
-3
-37
-84
-116
-153
-178
-188
-243
-295
-253
-112
286
900
877
-258
-1384
-1410
-846
-523
-421
-340
-307
-281
-226
-187
-158
-112
-65
-28
2
31
77
135
186
229
257
278
324
379
395
376
352
329
321
339
350
342
341
343
333
321
317
322
338
350
349
335
296
235
189
157
113
57
-4
-30
12
148
468
812
566
-400
-1185
-1126
-655
-344
-224
-179
-159
-112
-69
-80
-93
-63
-45
-69
-79
-48
-19
-13
-13
-10
-15
-27
-42
-54
-59
-71
-108
-152
-183
-211
-230
-220
-194
-180
-170
-158
-151
-153
-164
-176
-175
-168
-164
-175
-218
-257
-228
-193
-215
-178
-34
225
807
1362
869
-526
-1297
-937
-383
-160
-76
-51
-77
-67
-52
-88
-133
-141
-121
-99
-84
-60
-20
13
38
69
83
74
89
134
149
116
80
67
67
74
97
129
155
173
192
207
216
229
242
242
244
257
268
265
241
217
229
222
173
171
176
353
1210
2156
1556
-317
-1264
-769
-218
-113
-23
67
54
48
33
-32
-70
-79
-117
-157
-161
-159
-154
-108
-54
-47
-51
-13
43
91
126
137
134
139
133
105
79
53
17
0
2
-20
-52
-60
-74
-105
-113
-111
-131
-153
-171
-210
-245
-251
-257
-256
-228
-111
313
861
635
-578
-1525
-1349
-731
-415
-313
-254
-261
-265
-223
-201
-216
-198
-136
-102
-121
-123
-79
-34
-6
29
72
98
116
148
185
196
178
158
152
147
123
86
50
14
-10
-25
-60
-111
-146
-170
-172
-140
-149
-216
-232
-179
-151
-162
-172
-138
-67
26
409
1129
1265
232
-835
-810
-242
37
100
167
214
257
295
288
284
325
370
390
404
418
420
410
405
416
432
440
431
412
405
410
394
356
328
313
280
224
159
89
18
-46
-102
-148
-191
-232
-255
-248
-242
-263
-286
-292
-292
-283
-276
-263
-198
-91
114
569
910
384
-755
-1329
-1034
-586
-367
-262
-233
-256
-247
-226
-220
-190
-154
-142
-119
-78
-61
-48
-14
1
-5
31
81
80
75
101
88
37
25
43
36
23
25
6
-24
-20
0
-8
-45
-85
-107
-109
-105
-102
-101
-102
-99
-80
-58
-45
9
101
246
746
1498
1389
10
-1178
-1098
-510
-219
-103
-31
-53
-73
-58
-70
-81
-63
-43
-14
21
46
69
89
95
115
162
186
173
164
163
136
88
54
41
24
1
-4
8
18
26
23
4
0
11
6
3
29
40
22
12
-4
-37
-43
-58
-96
-69
-21
137
811
1518
926
-681
-1425
-901
-331
-198
-158
-144
-188
-196
-185
-195
-184
-138
-88
-47
-5
60
134
195
249
301
337
366
397
407
388
360
333
303
285
276
244
197
168
154
137
119
103
78
36
-5
-22
-36
-76
-118
-137
-165
-205
-222
-224
-235
-231
-120
224
599
383
-529
-1267
-1190
-711
-398
-272
-195
-161
-157
-141
-115
-93
-85
-89
-88
-71
-51
-31
-3
25
48
78
116
152
188
211
203
166
123
99
88
49
3
-3
-1
-27
-43
-39
-46
-50
-33
-11
3
1
-19
-41
-45
-4
46
5
-56
51
272
535
920
1004
217
-851
-1110
-644
-210
-10
80
82
65
80
92
106
128
124
128
182
226
214
198
202
197
198
212
189
155
174
174
100
56
80
79
41
17
-15
-56
-75
-94
-132
-158
-190
-241
-253
-233
-254
-294
-285
-272
-306
-291
-188
-162
-239
-172
298
1083
1425
569
-874
-1512
-1110
-495
-166
-99
-106
-40
26
13
16
56
85
134
173
165
195
264
283
270
279
297
308
327
350
329
240
152
131
131
110
105
107
77
51
49
35
28
43
16
-48
-73
-64
-71
-76
-70
-82
-78
-48
-58
-81
-46
101
591
1259
1053
-337
-1472
-1358
-769
-486
-371
-291
-301
-307
-278
-280
-277
-233
-199
-184
-155
-113
-68
-20
18
43
68
95
116
130
124
93
63
48
33
14
-2
-9
-6
0
-1
0
10
10
1
6
26
36
36
37
21
1
21
30
-14
-5
42
142
742
1649
1435
-181
-1315
-976
-316
-142
-94
-11
-23
-38
-15
-30
-27
40
104
131
153
175
192
222
267
292
290
284
290
299
298
276
240
212
193
162
129
122
127
107
61
28
24
27
10
-19
-23
-14
-40
-93
-127
-133
-128
-136
-167
-176
-129
10
361
719
414
-589
-1285
-1101
-605
-344
-250
-199
-200
-204
-183
-167
-147
-114
-95
-91
-70
-35
-6
27
68
94
98
99
118
156
172
128
75
60
40
0
-10
0
-12
-24
-19
-19
-26
-21
-11
-6
5
17
9
-22
-59
-87
-90
-86
-119
-147
-91
81
484
982
821
-282
-1252
-1184
-598
-246
-121
-43
-16
-7
22
45
50
68
122
189
226
243
269
290
295
304
322
332
317
286
268
253
195
112
73
73
60
44
39
20
-3
-5
3
2
-10
-28
-34
-30
-39
-58
-78
-104
-114
-131
-184
-174
-137
-102
449
1497
1476
-214
-1571
-1268
-523
-342
-303
-188
-216
-281
-241
-189
-175
-170
-156
-111
-51
-12
35
108
148
134
113
110
128
163
181
168
140
88
35
45
76
53
32
56
51
16
33
73
53
16
37
82
86
62
53
54
37
20
28
34
6
