# session 33
-15
-22
10
-55
-237
-345
-327
-302
-308
-301
-285
-276
-264
-252
-246
-240
-234
-229
-219
-211
-209
-210
-205
-194
-188
-188
-185
-178
-172
-163
-154
-150
-149
-143
-134
-130
-129
-122
-110
-103
-103
-100
-92
-84
-81
-79
-63
-34
-19
-15
-1
5
-15
-36
-42
-45
-41
-39
-40
-30
-33
-43
6
123
406
958
1226
482
-704
-1074
-607
-175
-44
10
34
28
48
70
66
70
82
87
93
104
115
122
131
144
157
169
185
205
230
253
275
300
330
359
380
391
396
394
370
313
239
161
82
10
-40
-72
-94
-106
-109
-107
-103
-100
-97
-92
-87
-85
-84
-83
-83
-83
-83
-85
-88
-90
-92
-96
-100
-101
-99
-101
-102
-99
-95
-96
-99
-98
-96
-98
-100
-97
-92
-92
-96
-98
-90
-86
-89
-76
-50
-42
-39
-28
-39
-69
-83
-83
-83
-82
-87
-86
-72
-85
-92
-24
119
460
991
1018
62
-982
-1069
-534
-183
-95
-51
-32
-32
-17
-6
-2
9
12
12
22
35
42
56
71
78
87
109
131
149
168
192
217
243
269
296
325
346
347
333
306
257
186
104
28
-28
-66
-99
-125
-131
-127
-125
-119
-107
-103
-110
-111
-104
-94
-90
-96
-100
-92
-84
-86
-88
-88
-91
-97
-101
-100
-94
-93
-92
-85
-83
-88
-84
-76
-80
-85
-76
-63
-52
-39
-29
-18
-5
-10
-35
-50
-55
-58
-54
-56
-64
-50
-50
-76
-37
86
314
782
1157
684
-455
-1100
-854
-393
-152
-47
-4
-1
13
31
31
31
38
49
60
65
69
80
91
101
113
122
133
152
177
199
219
244
271
291
312
337
348
338
318
282
215
136
62
-4
-57
-88
-108
-126
-132
-126
-123
-122
-115
-109
-110
-108
-102
-102
-109
-109
-105
-106
-109
-111
-114
-117
-117
-115
-115
-115
-114
-113
-111
-108
-107
-106
-101
-94
-94
-96
-95
-90
-83
-81
-86
-88
-82
-72
-56
-36
-25
-16
-4
-18
-50
-61
-59
-59
-54
-57
-61
-51
-59
-60
6
149
529
1109
1104
58
-995
-1010
-456
-145
-71
-19
-6
-10
10
22
22
30
39
46
54
60
71
85
94
106
124
142
157
174
193
218
249
278
304
328
346
355
360
355
323
261
184
106
34
-30
-75
-100
-117
-127
-125
-120
-119
-116
-113
-112
-107
-100
-98
-98
-92
-88
-91
-95
-98
-100
-100
-100
-104
-108
-105
-100
-101
-104
-101
-95
-94
-94
-93
-94
-94
-87
-81
-86
-92
-83
-75
-82
-86
-79
-64
-42
-26
-22
-12
-9
-32
-60
-67
-61
-55
-61
-69
-54
-50
-72
-41
55
267
758
1152
638
-546
-1133
-772
-275
-96
-47
-15
-9
4
18
16
23
38
42
42
51
65
79
87
92
102
120
141
158
175
193
211
238
275
303
318
333
349
346
325
291
233
149
71
14
-38
-87
-113
-119
-122
-123
-124
-123
-115
-105
-105
-107
-100
-96
-101
-103
-97
-96
-101
-105
-106
-110
-114
-110
-101
-100
-108
-105
-98
-102
-111
-106
-94
-91
-96
-94
-84
-76
-67
-52
-39
-25
-11
-24
-55
-69
-70
-73
-72
-74
-68
-47
-59
-81
-18
130
434
952
1134
362
-760
-1113
-712
-301
-117
-25
4
-1
14
30
32
36
44
52
59
63
70
82
95
104
115
130
149
169
187
206
228
252
277
304
324
333
335
333
313
261
188
112
42
-18
-65
-98
-116
-122
-123
-121
-114
-113
-116
-112
-107
-106
-106
-104
-104
-103
-99
-98
-106
-112
-112
-112
-113
-112
-111
-109
-105
-104
-104
-101
-97
-94
-92
-90
-89
-85
-81
-78
-76
-77
-73
-64
-64
-69
-65
-59
-58
-56
-56
-58
-41
-13
-2
-1
8
6
-19
-40
-46
-42
-43
-56
-50
-32
-47
-45
35
200
621
1179
1035
-96
-1040
-916
-357
-101
-50
-10
-6
-7
19
27
19
25
40
46
49
60
74
80
86
102
117
126
142
168
189
207
232
260
283
303
324
336
338
335
309
253
182
107
35
-23
-67
-98
-113
-116
-120
-119
-115
-115
-114
-105
-98
-97
-98
-96
-91
-89
-92
-96
-94
-90
-92
-100
-103
-101
-98
-98
-101
-100
-96
-93
-93
-94
-95
-90
-85
-87
-87
-79
-79
-84
-79
-72
-75
-79
-75
-69
-67
-69
-68
-65
-57
-36
-16
-11
-9
-2
-11
-36
-55
-57
-47
-47
-61
-49
-36
-62
-48
46
221
646
1129
846
-293
-1089
-881
-356
-118
-43
2
1
9
30
20
16
37
43
37
51
71
78
87
101
102
101
117
142
159
174
199
229
258
282
295
303
323
339
326
296
258
193
107
34
-19
-69
-105
-113
-113
-117
-116
-109
-105
-101
-92
-91
-91
-83
-90
-105
-67
-7
-32
-110
-131
-111
-106
-100
-97
-92
-57
-41
-89
-127
-103
-86
-102
-102
-73
-69
-103
-105
-58
-57
-103
-92
-49
-51
-58
-38
-29
-21
-7
-21
-40
-33
-36
-61
-72
-75
-76
-55
-54
-83
-41
96
328
761
1079
588
-520
-1133
-872
-389
-130
-32
-13
-21
-10
1
10
33
41
37
51
65
65
72
85
100
121
129
129
148
183
205
215
239
277
306
336
372
371
335
317
288
203
120
69
-2
-76
-102
-113
-135
-135
-120
-119
-118
-108
-115
-125
-108
-92
-103
-107
-86
-79
-94
-87
-70
-91
-102
-59
-45
-101
-121
-84
-76
-91
-85
-82
-86
-80
-67
-49
-49
-85
-100
-67
-50
-72
-82
-67
-53
-51
-58
-63
-68
-69
-42
-6
-5
-15
-6
-20
-57
-60
-47
-61
-78
-67
-46
-57
-73
-19
76
268
793
1294
811
-490
-1170
-771
-236
-86
-54
-11
-1
12
16
-7
-4
27
42
38
50
77
83
67
66
82
94
112
144
169
183
208
242
263
278
303
325
324
315
311
280
204
118
55
6
-40
-81
-113
-123
-111
-108
-120
-122
-109
-98
-94
-98
-98
-90
-90
-96
-88
-79
-82
-87
-94
-109
-107
-89
-86
-98
-96
-82
-80
-95
-101
-90
-82
-84
-81
-76
-76
-74
-65
-65
-74
-76
-62
-48
-48
-44
-21
-5
-3
7
7
-20
-40
-46
-56
-61
-59
-55
-50
-56
-44
23
143
449
923
927
32
-953
-1054
-541
-175
-72
-23
4
4
19
36
34
30
38
47
49
53
66
76
78
88
106
121
133
146
164
185
203
220
244
270
281
286
297
300
277
233
178
111
40
-16
-52
-84
-106
-107
-103
-106
-104
-92
-85
-91
-94
-89
-86
-90
-91
-89
-91
-99
-106
-104
-92
-88
-98
-106
-104
-100
-91
-81
-83
-100
-114
-104
-80
-63
-63
-75
-79
-64
-47
-39
-23
-7
-2
19
40
11
-37
-42
-28
-36
-49
-53
-46
-41
-54
-50
26
204
560
973
887
51
-822
-986
-629
-285
-108
-28
-4
4
12
16
24
38
45
44
48
63
80
88
89
98
113
121
128
140
155
171
187
202
218
233
244
257
271
269
248
215
164
95
29
-19
-53
-80
-99
-108
-106
-102
-102
-99
-82
-69
-79
-93
-88
-82
-91
-95
-86
-85
-97
-103
-101
-101
-100
-96
-98
-96
-87
-86
-96
-95
-86
-86
-86
-82
-78
-70
-52
-34
-23
-21
-33
-56
-71
-74
-71
-71
-77
-73
-70
-89
-76
1
147
529
1064
983
-54
-1029
-1026
-503
-184
-81
-22
-10
-18
-5
8
13
18
26
33
39
46
59
71
73
77
97
125
143
159
182
201
218
244
273
296
312
317
316
312
285
220
142
74
9
-51
-92
-115
-131
-141
-135
-116
-110
-125
-130
-111
-91
-90
-99
-98
-83
-78
-98
-113
-96
-80
-104
-125
-107
-90
-95
-91
-86
-95
-98
-95
-99
-94
-72
-55
-48
-37
-19
-5
-14
-41
-57
-62
-62
-48
-43
-47
-29
-26
-61
-45
70
381
950
1185
384
-801
-1111
-612
-203
-94
-35
-8
-19
4
32
30
26
36
45
52
58
65
74
78
84
99
114
129
151
171
182
204
245
276
280
285
308
323
306
269
223
163
87
8
-56
-91
-110
-128
-138
-138
-136
-127
-117
-124
-136
-128
-116
-118
-118
-108
-103
-105
-103
-97
-94
-101
-110
-106
-95
-95
-102
-99
-90
-86
-84
-86
-90
-89
-88
-90
-85
-74
-75
-75
-53
-31
-23
-12
-6
-24
-45
-54
-60
-58
-55
-63
-54
-40
-56
-44
38
221
673
1165
868
-285
-1084
-866
-333
-103
-48
-6
6
12
22
22
28
37
37
45
63
72
75
82
93
102
112
128
148
163
173
192
218
245
273
293
287
292
322
307
231
185
155
60
-43
-80
-104
-145
-162
-156
-138
-98
-83
-128
-152
-113
-94
-125
-132
-103
-92
-105
-111
-101
-87
-84
-89
-99
-110
-109
-98
-96
-92
-81
-85
-102
-97
-77
-78
-77
-50
-32
-33
-19
-14
-50
-76
-69
-68
-78
-81
-80
-63
-48
-65
-41
78
336
838
1201
653
-533
-1106
-782
-359
-183
-67
-4
-12
0
26
30
34
37
37
48
56
65
86
99
99
110
130
139
148
173
201
223
242
250
254
277
308
318
310
298
258
177
90
29
-22
-70
-100
-110
-116
-126
-139
-140
-119
-101
-108
-115
-103
-97
-113
-118
-100
-93
-106
-109
-103
-108
-115
-114
-114
-115
-113
-112
-111
-107
-99
-90
-92
-106
-109
-96
-90
-94
-90
-83
-79
-62
-34
-20
-18
-10
-17
-49
-71
-66
-57
-57
-60
-47
-35
-62
-60
23
173
547
1095
1050
31
-953
-954
-434
-137
-60
-12
0
6
28
28
20
36
53
55
55
57
65
87
108
115
118
130
151
176
192
203
228
265
285
289
307
333
338
322
291
230
150
88
43
-11
-65
-92
-103
-118
-125
-111
-95
-98
-107
-101
-83
-76
-83
-85
-77
-78
-91
-89
-75
-77
-91
-91
-84
-89
-97
-99
-99
-95
-88
-83
-79
-85
-101
-99
-75
-70
-87
-89
-73
-74
-87
-82
-63
-64
-80
-75
-58
-65
-78
-69
-59
-63
-58
-49
-57
-68
-56
-40
-41
-41
-31
-18
-5
11
12
-1
-11
-22
-41
-42
-34
-45
-40
-16
-30
-30
62
238
625
1121
983
-50
-937
-875
-395
-140
-60
-10
-2
5
29
32
30
40
45
51
65
72
70
74
91
115
122
114
127
157
169
182
215
238
245
260
284
302
305
292
276
252
196
117
49
2
-38
-76
-106
-119
-118
-117
-117
-113
-107
-98
-90
-94
-102
-99
-96
-103
-105
-101
-104
-109
-102
-101
-116
-125
-116
-103
-101
-107
-112
-106
-99
-100
-101
-97
-97
-98
-95
-96
-102
-93
-75
-72
-83
-85
-74
-57
-39
-29
-24
-15
-12
-33
-62
-67
-51
-44
-56
-55
-41
-54
-62
10
160
491
1032
1160
308
-788
-1025
-562
-191
-79
-30
-7
-6
10
23
21
24
36
44
48
58
71
81
87
102
122
136
143
154
172
196
222
245
269
290
305
314
319
314
292
249
183
105
32
-25
-63
-95
-121
-127
-117
-114
-122
-119
-108
-108
-114
-106
-91
-78
-69
-78
-98
-94
-75
-79
-94
-90
-83
-86
-92
-95
-99
-100
-92
-86
-97
-99
-82
-98
-136
-109
-55
-68
-101
-88
-77
-91
-96
-87
-78
-81
-93
-90
-69
-53
-45
-36
-22
-4
-9
-35
-49
-63
-82
-64
-39
-53
-60
-58
-80
-45
65
245
693
1183
848
-318
-1036
-742
-245
-98
-67
-8
6
9
27
24
27
54
60
41
46
78
91
85
91
111
127
138
152
168
184
196
211
247
290
312
318
323
324
316
295
244
168
93
24
-48
-97
-112
-121
-137
-141
-131
-124
-129
-132
-122
-105
-102
-112
-113
-100
-99
-111
-106
-92
-98
-109
-107
-111
-117
-103
-93
-110
-121
-103
-91
-99
-98
-86
-87
-96
-96
-82
-56
-30
-19
-16
-13
-26
-51
-59
-56
-53
-52
-64
-69
-41
-38
-71
-21
141
443
952
1224
583
-555
-1041
-713
-302
-126
-48
-16
-15
3
26
38
40
29
22
37
58
69
78
90
96
100
116
140
151
160
181
198
214
248
284
302
309
315
313
299
255
180
98
22
-38
-79
-117
-151
-158
-151
-164
-169
-145
-137
-159
-160
-125
-97
-97
-111
-122
-124
-122
-121
-122
-126
-132
-133
-135
-139
-141
-137
-125
-114
-116
-131
-139
-130
-119
-128
-140
-127
-93
-72
-78
-81
-53
-31
-52
-87
-110
-116
-94
-89
-126
-129
-89
-84
-58
23
155
589
1234
1134
-22
-982
-881
-378
-126
-30
0
-30
-3
51
46
52
85
74
58
85
108
108
117
125
128
148
170
173
181
201
211
226
270
315
330
333
346
353
334
288
217
131
45
-31
-97
-147
-174
-178
-175
-181
-191
-178
-151
-149
-165
-154
-124
-120
-134
-132
-122
-119
-122
-125
-120
-113
-119
-119
-100
-98
-115
-112
-92
-85
-82
-68
-51
-36
-17
-1
-5
-26
-47
-58
-49
-30
-35
-44
-17
-12
-54
-24
103
374
965
1448
915
-361
-1026
-724
-271
-96
-36
-2
9
24
31
26
24
25
28
34
47
59
68
89
115
124
139
170
181
184
219
262
286
305
325
349
375
391
379
333
259
169
84
9
-66
-118
-120
-120
-153
-179
-181
-181
-165
-154
-172
-160
-116
-138
-196
-177
-128
-144
-175
-159
-139
-164
-192
-145
-83
-131
-218
-205
-155
-170
-200
-172
-122
-130
-190
-214
-188
-162
-148
-137
-119
-94
-100
-133
-151
-165
-166
-121
-100
-152
-183
-158
-133
-90
77
533
1120
1044
-26
-1040
-1037
-503
-208
-134
-90
-86
-82
-62
-57
-26
22
10
-21
7
42
41
65
111
96
66
122
197
202
206
250
268
273
334
396
401
419
458
426
354
319
263
184
170
155
59
1
34
59
66
82
80
