# session 3
-44
-32
-61
3
153
235
279
308
175
-37
-69
-14
-102
-229
-250
-259
-341
-454
-508
-425
-278
-237
-322
-439
-529
-517
-407
-372
-475
-518
-306
-8
-36
-220
45
471
495
781
1533
1236
-405
-1482
-1174
-542
-232
-77
-29
-91
-126
-62
15
25
29
46
4
17
165
255
262
361
457
431
430
467
404
316
338
355
231
122
210
323
256
161
194
218
152
107
131
171
177
143
114
109
77
3
-75
-108
-61
-30
-128
-258
-297
-277
-244
-231
-200
-70
133
555
1320
1610
609
-755
-1134
-753
-474
-482
-591
-596
-433
-323
-361
-333
-191
-139
-205
-225
-181
-175
-206
-210
-181
-158
-157
-117
14
105
71
35
51
38
45
129
172
109
60
74
61
13
19
59
75
114
155
104
28
24
24
-4
-18
-45
-96
-123
-135
-140
-119
-134
-181
-134
-18
163
691
1332
1093
-142
-1110
-1100
-670
-346
-176
-154
-167
-101
-50
-34
18
26
-13
59
191
196
127
133
175
188
219
260
248
222
221
170
89
96
172
204
211
266
331
304
213
167
133
30
-67
-97
-124
-148
-140
-157
-187
-159
-120
-130
-147
-142
-139
-134
-99
-62
-56
-15
104
317
832
1504
1370
106
-971
-871
-277
41
205
355
405
403
385
320
282
306
303
246
187
133
80
66
109
193
258
212
90
62
138
145
42
-32
-15
8
-14
-13
28
19
-75
-160
-165
-127
-115
-159
-248
-330
-356
-323
-291
-339
-465
-582
-659
-736
-789
-772
-744
-779
-787
-648
-399
-71
329
404
-259
-1169
-1458
-1152
-873
-802
-752
-683
-634
-568
-461
-357
-290
-263
-254
-225
-174
-134
-87
-34
-30
-51
-21
36
62
81
117
135
151
246
409
561
757
1018
1169
1164
1180
1241
1243
1207
1148
1027
888
745
585
511
555
562
485
443
421
334
259
248
204
151
195
364
845
1541
1450
108
-1118
-1041
-360
-29
72
208
282
284
255
192
214
331
300
83
-75
-92
-75
-92
-149
-184
-167
-167
-217
-290
-384
-470
-515
-561
-622
-652
-613
-530
-489
-514
-518
-465
-407
-361
-334
-330
-302
-243
-214
-210
-194
-219
-304
-341
-306
-336
-438
-460
-403
-386
-381
-246
202
849
889
-134
-1211
-1282
-758
-395
-228
-161
-193
-169
-75
-44
-41
-4
17
41
109
165
170
153
147
188
265
280
231
246
345
379
297
222
243
312
369
404
419
421
411
396
405
408
346
309
413
509
402
228
198
223
148
43
-2
-17
-30
-87
-182
-139
69
313
731
1214
967
-167
-1073
-1026
-548
-266
-216
-206
-160
-156
-181
-108
-14
-45
-100
-65
-20
-8
-2
-28
-75
-66
-24
-38
-81
-94
-119
-175
-206
-212
-224
-221
-203
-192
-162
-112
-109
-175
-207
-130
-71
-151
-235
-202
-180
-202
-145
-73
-76
-19
81
25
-69
-14
37
41
146
320
698
1335
1376
275
-823
-852
-371
-107
2
40
20
109
233
189
90
90
109
75
54
107
198
223
165
120
115
74
1
-37
-28
-2
0
-49
-104
-97
-59
-52
-50
-16
10
0
0
29
40
32
46
53
30
40
98
135
122
74
10
-4
28
-15
-104
-72
78
380
928
1148
324
-896
-1285
-888
-470
-243
-122
-78
-42
-21
-33
-35
-80
-183
-215
-170
-145
-136
-146
-205
-252
-250
-211
-136
-118
-197
-195
-103
-156
-284
-245
-120
-31
59
88
75
189
300
210
130
215
268
232
236
261
253
218
128
49
63
90
88
98
82
79
179
405
876
1323
856
-484
-1293
-1000
-474
-234
-99
-34
-48
-23
36
53
27
-5
18
66
44
11
61
111
94
109
168
154
93
89
100
75
62
63
46
54
96
121
134
155
166
173
185
181
171
163
121
44
-10
-44
-115
-203
-244
-286
-380
-435
-426
-471
-501
-357
-31
625
1358
1010
-610
-1759
-1440
-669
-332
-271
-215
-93
10
-1
28
175
244
212
210
204
179
194
180
92
62
153
257
274
216
157
126
80
-8
-81
-57
37
73
24
-17
-38
-74
-84
-68
-78
-84
-60
-61
-71
-43
-37
-55
-5
43
-32
-86
14
68
-5
-8
111
492
1294
1686
693
-798
-1226
-754
-383
-266
-190
-164
-146
-85
-51
-45
-14
15
9
5
16
0
-34
-42
-53
-107
-164
-172
-167
-200
-250
-277
-275
-250
-221
-184
-103
2
54
71
125
193
235
274
290
256
198
143
189
380
465
304
187
272
343
276
166
117
144
303
828
1493
1260
-115
-1255
-1252
-790
-560
-484
-446
-459
-472
-469
-456
-426
-413
-402
-341
-269
-229
-163
-62
16
69
106
93
68
100
162
196
203
196
208
251
254
211
213
223
160
104
104
67
25
71
121
101
104
170
216
203
200
299
444
447
300
244
371
553
796
1034
784
-164
-1073
-1117
-505
-60
-59
-126
-21
81
54
-12
-53
-78
-86
-84
-73
-52
-55
-80
-83
-59
-5
50
18
-68
-79
-65
-129
-192
-188
-181
-175
-168
-243
-359
-347
-226
-159
-160
-146
-131
-136
-138
-147
-150
-129
-144
-176
-115
-17
-3
-47
-97
-101
11
232
599
1075
1113
278
-762
-1052
-673
-313
-216
-209
-177
-152
-163
-161
-125
-114
-102
-23
13
-65
-57
104
162
69
65
125
65
-30
-47
-85
-149
-149
-150
-195
-165
-14
139
191
181
193
206
194
205
230
249
318
360
247
132
197
287
228
134
115
99
83
124
248
640
1199
1062
-70
-1022
-977
-562
-358
-247
-199
-243
-252
-228
-214
-169
-141
-160
-148
-122
-132
-131
-87
-36
-16
-18
26
100
95
23
-9
5
29
61
106
153
178
170
158
156
147
149
171
175
155
141
128
103
98
114
109
78
63
68
70
77
127
255
523
960
1197
629
-543
-1235
-987
-483
-287
-238
-153
-135
-180
-123
9
15
-70
-40
59
66
75
203
305
262
168
127
127
111
73
25
-49
-93
-28
26
-71
-147
-30
109
97
16
-41
-88
-119
-135
-163
-195
-202
-190
-205
-260
-314
-354
-364
-317
-280
-309
-267
-93
141
650
1338
1191
-121
-1194
-1041
-423
-135
-15
131
195
180
174
183
187
168
136
131
154
146
111
119
166
179
171
193
209
168
94
33
-34
-148
-256
-254
-194
-187
-189
-154
-169
-237
-257
-221
-182
-170
-169
-126
-41
-16
-83
-119
-97
-142
-205
-153
-108
-150
-58
295
734
873
337
-592
-1069
-863
-513
-362
-319
-283
-260
-277
-311
-327
-351
-360
-293
-202
-162
-135
-105
-117
-132
-95
-64
-78
-49
42
106
147
236
333
406
483
532
562
640
692
651
644
708
732
731
727
648
563
561
526
425
389
385
332
298
295
297
361
504
860
1463
1528
392
-959
-1258
-845
-581
-485
-382
-382
-456
-460
-439
-476
-519
-511
-481
-467
-481
-465
-332
-150
-77
-78
-41
12
51
78
58
12
-33
-86
-36
168
274
142
18
58
108
89
104
136
58
-94
-144
-68
-42
-147
-260
-307
-338
-345
-323
-308
-256
-190
-96
448
1362
1349
-47
-1243
-1156
-571
-228
-27
73
48
64
151
204
186
141
158
231
230
152
111
96
48
3
11
41
34
-8
-10
23
20
30
87
60
-29
-3
32
-72
-127
-57
-86
-220
-264
-264
-326
-363
-334
-305
-256
-182
-166
-177
-126
-87
-111
-71
41
137
472
1148
1326
347
-895
-1203
-744
-298
-104
-49
-64
-112
-145
-100
-25
-49
-140
-158
-111
-93
-129
-181
-222
-280
-344
-334
-279
-283
-297
-258
-239
-245
-179
-46
99
256
392
484
575
644
655
669
704
678
596
565
612
661
680
681
637
545
470
407
307
256
312
428
751
1246
1167
132
-903
-1020
-580
-260
-156
-129
-133
-161
-212
-276
-327
-357
-363
-367
-404
-439
-419
-379
-351
-309
-250
-208
-207
-248
-269
-232
-207
-178
-59
44
7
-38
8
57
90
148
168
156
208
277
242
157
139
127
23
-97
-142
-173
-233
-297
-346
-295
-169
10
687
1760
1653
-210
-1753
-1502
-643
-373
-382
-294
-243
-252
-185
-60
-18
-21
103
271
268
158
107
107
157
261
272
150
89
146
130
31
41
127
112
61
108
181
204
190
100
2
66
196
162
30
-23
-21
-6
21
-23
-154
-248
-256
-225
-201
-227
-244
-169
-49
245
782
868
-43
-1082
-1200
-732
-435
-309
-152
-39
-3
-8
-55
-53
54
115
47
-20
5
50
25
-51
-81
-29
17
-19
-101
-195
-297
-341
-290
-213
-152
-97
-59
-41
-12
30
86
171
255
283
283
321
394
437
418
386
385
379
349
349
355
322
356
501
742
1204
1558
1022
-173
-812
-611
-266
-39
173
269
253
262
266
216
126
24
27
128
121
-17
-96
-98
-120
-162
-206
-255
-297
-358
-450
-518
-534
-523
-485
-427
-392
-399
-415
-413
-376
-296
-204
-175
-233
-285
-234
-159
-184
-245
-219
-162
-159
-151
-116
-141
-171
-101
52
443
1046
977
-272
-1521
-1610
-1037
-630
-421
-314
-312
-269
-153
-76
-27
54
133
206
299
378
439
511
547
512
500
547
571
556
546
532
525
566
634
654
616
589
581
524
470
495
502
439
408
406
354
281
225
171
101
-17
-157
-209
-160
-171
-283
-274
-53
249
599
710
-14
-1237
-1720
-1228
-680
-486
-379
-286
-278
-269
-207
-142
-130
-191
-241
-168
-53
-66
-143
-133
-102
-127
-125
-98
-134
-189
-207
-239
-283
-288
-291
-330
-374
-399
-398
-350
-277
-237
-243
-248
-223
-200
-183
-129
-59
-35
-27
34
109
140
189
259
289
350
492
757
1311
1739
1109
-246
-862
-468
26
277
409
370
279
318
359
309
275
291
324
343
306
247
221
202
199
217
165
51
-23
-113
-279
-351
-267
-246
-355
-405
-348
-294
-287
-345
-387
-251
-40
-20
-118
-88
28
43
-23
-24
35
34
4
30
32
15
126
330
723
1510
1888
792
-871
-1354
-811
-394
-269
-221
-340
-472
-396
-295
-335
-381
-354
-313
-269
-236
-232
-190
-117
-118
-132
-65
-17
-21
51
166
214
212
206
273
428
500
442
389
349
331
398
429
333
228
190
181
152
121
159
187
82
-18
-15
-44
-81
-33
77
542
1358
1326
-157
-1522
-1446
-770
-474
-352
-233
-263
-287
-199
-181
-245
-248
-171
-74
-5
9
-8
-21
-8
30
35
6
6
9
-31
-53
-38
-12
32
50
-3
-41
-27
-43
-83
-83
-80
-127
-216
-336
-465
-542
-552
-545
-556
-568
-556
-516
-445
-383
-338
-224
-9
331
915
1384
923
-286
-973
-692
-181
91
234
305
314
353
420
425
374
353
368
346
292
287
314
296
265
296
354
357
300
236
188
139
93
84
131
194
187
118
97
131
88
-38
-115
-142
-193
-203
-123
-43
14
125
195
83
-22
126
308
235
116
252
733
1508
1895
1067
-346
-912
-553
-174
-44
29
44
8
-11
-45
-99
-133
-157
-187
-233
-324
-429
-514
-578
-572
-530
-592
-690
-657
-599
-651
-685
-589
-441
-318
-209
-96
3
56
77
99
147
221
276
268
264
307
305
232
169
118
59
49
56
-9
-67
-28
56
309
809
942
155
-845
-1050
-647
-362
-303
-273
-257
-261
-252
-225
-177
-135
-115
-90
-82
-117
-116
-49
-10
-21
-7
34
55
61
81
125
172
181
187
246
294
278
275
291
233
153
161
187
149
127
158
131
53
68
160
193
162
126
41
-96
-154
-84
93
428
631
63
-1091
-1720
-1433
-913
-610
-428
-311
-253
-190
-132
-89
-21
51
103
155
208
263
352
453
513
549
601
647
649
621
596
595
598
571
515
464
415
359
322
302
248
170
164
250
281
187
155
267
283
124
20
21
-3
-24
-38
-133
-184
-53
197
538
765
328
-678
-1253
-953
-430
-217
-160
-75
-37
-80
-122
-142
-154
-109
-36
-67
-166
-150
-26
31
-31
-99
-118
-137
-160
-158
-182
-274
-360
-382
-394
-432
-459
-470
-492
-491
-432
-380
-376
-369
-333
-302
-277
-237
-171
-104
-78
-82
-96
-121
-116
-49
40
118
226
518
948
941
142
-750
-906
-507
-166
-47
-21
-6
34
89
102
91
118
158
153
132
147
178
194
208
212
163
90
80
115
108
70
43
31
56
87
72
64
65
17
17
69
-8
-71
140
303
106
-52
103
192
39
-75
-63
-41
-43
-91
-123
-7
297
868
1441
1124
-168
-1093
-940
-469
-265
-177
-132
-169
-183
-132
-100
-128
-154
-110
-37
12
78
164
190
176
199
234
246
278
333
356
350
353
384
433
469
461
418
376
356
339
300
269
268
244
197
200
246
267
247
201
165
173
164
58
-44
6
144
309
632
838
239
-960
-1609
-1319
-782
-495
-401
-389
-388
-340
-292
-291
-291
-266
-245
-207
-135
-103
-140
-158
-143
-140
-145
-169
-230
-287
-338
-387
-366
-299
-299
-336
-320
-292
-298
-295
-290
-323
-359
-359
-364
-391
-394
-359
-334
-327
-313
-300
-298
-271
-222
-189
-112
55
272
743
1517
1676
518
-838
-996
-344
107
275
388
430
446
492
498
489
538
592
583
562
597
646
649
623
604
594
583
551
485
423
395
361
318
310
314
279
226
179
131
79
13
-66
-136
-199
-279
-355
-384
-382
-407
-449
-458
-435
-402
-386
-395
-319
-143
57
569
1382
1357
-25
-1301
-1318
-780
-479
-338
-261
-261
-241
-214
-221
-203
-188
-225
-269
-320
-400
-444
-416
-380
-389
-425
-453
-460
-437
-392
-363
-345
-290
-218
-170
-132
-102
-93
-65
-2
61
123
193
241
277
335
384
377
352
352
336
301
325
352
298
309
458
727
1266
1687
1079
-218
-779
-375
87
258
306
272
178
