# session 16
-6
37
-83
-56
361
778
806
678
664
659
599
570
559
523
489
470
448
421
393
371
353
332
308
290
275
260
252
243
233
235
230
189
143
122
99
79
82
61
32
74
195
550
1220
1434
429
-904
-1180
-641
-268
-175
-104
-83
-103
-89
-74
-80
-71
-51
-31
0
42
85
129
188
264
337
390
421
422
379
308
230
149
55
-40
-113
-164
-211
-250
-260
-248
-238
-233
-224
-219
-214
-201
-192
-204
-220
-224
-227
-230
-222
-215
-228
-237
-224
-207
-204
-217
-226
-207
-181
-187
-194
-174
-160
-165
-148
-115
-113
-140
-148
-120
-93
-88
-86
-76
-82
-98
-93
-70
-57
-52
-43
-37
-33
-15
12
11
-34
-65
-59
-69
-74
-40
-47
-68
23
204
586
1213
1269
129
-1124
-1241
-675
-310
-159
-62
-50
-46
-5
14
33
74
95
111
153
200
242
303
383
464
539
609
652
640
580
499
411
309
205
125
65
3
-55
-79
-80
-82
-86
-82
-75
-71
-66
-61
-64
-74
-86
-93
-99
-111
-122
-126
-127
-137
-152
-155
-143
-134
-135
-131
-124
-120
-118
-117
-114
-103
-96
-107
-113
-96
-79
-71
-50
-28
-45
-84
-90
-79
-91
-88
-71
-104
-105
5
218
773
1527
1330
-158
-1333
-1143
-514
-271
-183
-90
-79
-66
-24
-22
-23
6
31
59
102
150
208
288
381
487
595
669
691
669
605
497
361
221
97
6
-58
-117
-166
-187
-187
-184
-174
-156
-142
-139
-135
-124
-119
-131
-148
-154
-152
-154
-161
-169
-173
-175
-173
-170
-171
-179
-180
-171
-167
-169
-170
-169
-161
-142
-122
-116
-107
-84
-83
-115
-135
-129
-132
-132
-109
-123
-145
-80
68
466
1216
1455
343
-1093
-1344
-733
-329
-212
-115
-82
-96
-72
-46
-35
-10
17
42
82
131
183
251
341
445
549
637
683
676
627
545
429
294
172
73
-6
-71
-119
-149
-157
-146
-133
-126
-121
-112
-108
-108
-106
-108
-118
-127
-128
-129
-137
-147
-151
-150
-147
-146
-147
-150
-151
-147
-143
-143
-138
-130
-128
-125
-98
-65
-67
-97
-103
-97
-110
-102
-81
-106
-102
-13
196
808
1564
1242
-318
-1380
-1054
-405
-194
-123
-47
-54
-54
-17
-10
-3
30
60
87
124
169
228
308
400
496
589
654
671
647
585
488
366
243
135
44
-31
-87
-118
-127
-124
-118
-113
-106
-101
-104
-108
-108
-108
-115
-124
-132
-140
-148
-152
-152
-153
-157
-160
-158
-153
-150
-153
-159
-156
-149
-152
-152
-140
-132
-129
-112
-88
-92
-119
-130
-131
-141
-130
-113
-138
-131
-43
157
704
1344
988
-459
-1416
-1089
-456
-231
-158
-84
-81
-81
-52
-41
-30
-4
24
54
93
140
201
274
359
455
543
597
609
588
535
446
334
224
132
50
-27
-80
-100
-106
-112
-109
-100
-98
-99
-93
-87
-92
-109
-122
-123
-125
-135
-143
-138
-137
-146
-151
-147
-152
-158
-149
-135
-134
-136
-134
-138
-142
-133
-116
-102
-98
-100
-99
-89
-74
-60
-40
-26
-42
-67
-65
-62
-62
-39
-40
-64
5
178
469
948
1131
359
-835
-1252
-830
-366
-155
-48
-7
-1
29
51
53
78
112
129
151
190
235
283
337
400
482
558
587
577
548
500
432
343
250
174
102
26
-18
-18
-15
-32
-41
-31
-21
-28
-38
-39
-43
-55
-70
-83
-94
-107
-122
-132
-139
-148
-156
-153
-150
-158
-163
-161
-161
-168
-166
-158
-156
-161
-158
-149
-148
-148
-145
-143
-133
-105
-88
-108
-130
-123
-121
-138
-125
-110
-142
-122
5
262
836
1358
806
-655
-1441
-1046
-488
-286
-175
-99
-109
-99
-62
-50
-32
0
22
54
103
144
189
261
354
453
545
599
600
570
517
432
322
212
114
32
-27
-66
-98
-122
-128
-117
-103
-94
-85
-75
-75
-82
-86
-90
-100
-107
-109
-117
-126
-131
-137
-143
-143
-144
-146
-146
-147
-145
-136
-132
-137
-135
-125
-124
-126
-115
-103
-105
-103
-87
-81
-88
-75
-37
-23
-51
-71
-68
-74
-70
-44
-63
-79
6
190
658
1406
1440
134
-1193
-1213
-566
-242
-148
-51
-35
-46
-13
4
9
39
67
94
135
180
227
293
377
470
564
644
689
687
640
563
463
345
229
134
57
-9
-56
-83
-97
-96
-84
-74
-72
-67
-58
-56
-60
-66
-72
-80
-89
-100
-111
-116
-117
-122
-130
-133
-130
-129
-130
-128
-121
-117
-118
-120
-116
-108
-106
-108
-104
-96
-95
-98
-96
-91
-92
-91
-85
-83
-87
-87
-87
-91
-92
-88
-85
-85
-85
-88
-88
-83
-79
-78
-76
-74
-81
-87
-82
-79
-81
-80
-77
-77
-75
-69
-66
-68
-67
-62
-58
-60
-64
-59
-53
-51
-37
-10
0
-2
11
22
1
-21
-22
-29
-34
-14
-17
-36
23
169
467
981
1164
373
-778
-1099
-637
-234
-106
-36
-1
-8
5
25
31
46
70
94
126
157
182
222
276
333
397
465
514
537
540
523
480
412
332
257
191
130
73
24
-10
-24
-28
-36
-37
-22
-14
-22
-25
-19
-21
-39
-55
-59
-65
-84
-97
-94
-99
-117
-124
-118
-115
-117
-116
-122
-138
-143
-129
-123
-127
-126
-123
-129
-130
-121
-117
-121
-124
-126
-122
-111
-110
-114
-109
-107
-115
-113
-104
-104
-108
-107
-105
-105
-103
-100
-97
-89
-73
-59
-57
-59
-49
-33
-40
-69
-80
-74
-84
-80
-64
-89
-66
76
300
758
1287
972
-330
-1259
-1056
-507
-250
-132
-48
-37
-26
-4
-3
9
37
54
72
105
142
186
241
301
368
446
519
566
572
547
493
406
303
212
135
62
1
-46
-76
-88
-88
-90
-88
-81
-73
-67
-63
-60
-60
-65
-76
-89
-99
-106
-109
-112
-116
-121
-123
-126
-127
-124
-121
-122
-123
-121
-118
-115
-113
-111
-108
-103
-97
-91
-88
-87
-87
-85
-83
-81
-79
-79
-79
-75
-71
-74
-82
-81
-65
-42
-33
-31
-15
2
-17
-54
-63
-64
-78
-64
-50
-80
-56
66
330
961
1560
1016
-501
-1328
-936
-382
-204
-118
-54
-64
-53
-19
-10
4
31
51
78
116
154
202
265
341
433
535
622
678
697
672
604
507
390
266
153
65
-4
-65
-112
-137
-144
-139
-130
-121
-114
-108
-103
-100
-99
-104
-112
-120
-129
-136
-141
-146
-151
-156
-160
-165
-170
-173
-173
-171
-170
-171
-172
-173
-173
-172
-174
-174
-171
-166
-164
-166
-167
-163
-158
-156
-155
-149
-144
-141
-134
-127
-123
-117
-111
-110
-99
-78
-65
-58
-35
-15
-35
-67
-67
-61
-67
-50
-44
-66
-27
93
393
1082
1572
804
-720
-1322
-801
-291
-159
-78
-19
-24
-3
26
28
45
76
97
124
166
212
260
321
396
481
571
654
709
722
698
641
552
439
324
223
134
58
-3
-49
-80
-92
-90
-84
-79
-74
-66
-59
-61
-69
-75
-82
-92
-99
-104
-113
-125
-133
-142
-147
-139
-127
-129
-142
-151
-144
-130
-131
-140
-138
-126
-123
-125
-126
-125
-117
-110
-113
-121
-123
-118
-109
-106
-106
-97
-86
-97
-123
-129
-110
-88
-86
-97
-93
-82
-92
-106
-96
-83
-86
-86
-81
-84
-85
-68
-47
-38
-33
-21
-17
-37
-61
-63
-63
-76
-70
-56
-81
-71
43
234
619
1099
922
-184
-1156
-1134
-612
-272
-132
-62
-42
-27
-10
-2
24
55
57
62
98
138
171
216
272
325
383
457
532
579
579
540
482
414
336
250
171
107
48
2
-20
-30
-40
-44
-40
-35
-27
-22
-24
-21
-16
-25
-35
-35
-42
-65
-78
-74
-70
-75
-82
-90
-93
-84
-75
-80
-90
-93
-88
-75
-66
-73
-87
-89
-82
-80
-77
-71
-75
-84
-76
-56
-41
-29
-14
-17
-55
-97
-100
-87
-95
-96
-94
-121
-96
20
237
758
1329
950
-431
-1355
-1104
-533
-279
-165
-91
-94
-86
-54
-49
-38
-3
19
29
56
96
138
191
266
354
448
546
626
660
644
594
509
393
266
150
53
-22
-84
-131
-160
-175
-180
-174
-165
-161
-154
-143
-138
-141
-142
-146
-160
-173
-175
-173
-182
-199
-207
-210
-215
-219
-225
-225
-211
-205
-219
-222
-199
-191
-200
-194
-183
-183
-180
-172
-177
-178
-160
-141
-134
-129
-121
-120
-120
-108
-90
-82
-72
-45
-20
-12
-5
3
-12
-37
-36
-25
-24
-8
3
-19
12
121
306
778
1338
1056
-185
-1068
-872
-344
-110
-30
30
41
50
76
94
107
116
125
149
183
220
260
304
356
433
522
599
661
700
697
657
605
533
422
314
247
185
99
23
-14
-23
-35
-52
-54
-41
-34
-33
-23
-13
-13
-24
-37
-51
-67
-76
-71
-70
-86
-99
-100
-104
-119
-137
-142
-130
-122
-132
-141
-136
-130
-133
-136
-131
-126
-137
-149
-146
-139
-146
-154
-153
-152
-159
-161
-151
-151
-164
-166
-158
-162
-168
-163
-156
-155
-150
-146
-147
-145
-139
-137
-137
-137
-137
-129
-107
-90
-88
-83
-66
-67
-97
-119
-116
-120
-127
-109
-114
-133
-76
46
351
1016
1398
574
-818
-1283
-796
-360
-235
-155
-103
-99
-81
-61
-57
-43
-22
3
28
50
87
144
200
258
336
433
529
599
624
614
583
522
426
320
228
144
67
9
-40
-81
-98
-95
-95
-98
-90
-75
-63
-54
-48
-44
-37
-32
-35
-39
-40
-44
-48
-41
-32
-40
-51
-46
-37
-36
-36
-33
-31
-32
-33
-28
-19
-17
-23
-23
-19
-16
-11
-7
-5
3
13
15
15
23
28
22
23
36
39
28
28
36
40
43
41
27
14
10
8
10
13
9
3
6
2
-14
-22
-19
-20
-23
-30
-42
-44
-34
-26
-21
-15
-8
-1
-4
-33
-68
-77
-75
-80
-71
-66
-79
-47
51
245
648
971
537
-530
-1153
-903
-429
-215
-142
-89
-74
-73
-62
-51
-33
-17
-20
-21
8
45
69
103
161
218
264
319
390
446
461
450
434
387
301
222
162
76
-23
-76
-91
-110
-122
-127
-143
-147
-131
-128
-138
-125
-94
-81
-96
-113
-116
-120
-143
-162
-151
-129
-121
-118
-127
-169
-198
-159
-103
-95
-116
-134
-145
-137
-130
-134
-113
-85
-102
-125
-103
-88
-99
-83
-57
-64
-70
-57
-57
-53
-20
6
4
12
38
46
22
4
33
78
88
90
100
33
-59
5
186
474
1050
1434
712
-668
-1252
-847
-388
-209
-84
-5
-4
4
3
-31
-21
34
64
86
118
124
140
215
279
316
413
530
578
604
642
608
492
389
313
218
106
8
-61
-104
-136
-152
-147
-142
-144
-140
-131
-118
-103
-113
-139
-138
-122
-122
-129
-133
-143
-159
-168
-169
-176
-190
-187
-171
-178
-188
-158
-129
-141
-150
-133
-140
-173
-167
-120
-97
-113
-109
-71
-52
-75
-97
-92
-75
-46
-12
0
7
32
18
-40
-52
-20
-34
-74
-52
-2
15
30
103
424
1092
1420
579
-777
-1235
-775
-343
-191
-100
-79
-109
-99
-111
-146
-104
-41
-45
-40
20
53
59
119
214
290
374
479
563
603
580
507
465
446
355
246
206
152
20
-81
-101
-106
-103
-71
-62
-91
-87
-62
-86
-103
-43
-6
-62
-110
-97
-86
-92
-96
-125
-165
-159
-122
-94
-89
-137
-220
-219
-123
-92
-149
-161
-144
-178
-183
-135
-148
-179
-108
-48
-122
-173
-82
-2
-56
-151
-172
-153
-179
-209
-160
-107
-114
-72
127
613
1307
1386
256
-1080
-1347
-794
-321
-165
-141
-118
-86
-79
-45
-1
-59
-103
27
156
131
93
125
189
297
404
484
613
734
706
626
639
613
438
266
186
100
-2
-54
-67
-85
-114
-133
-136
-148
-135
-64
-27
-53
-38
-22
-82
-92
-30
-42
-88
-84
-107
-123
-65
-60
-122
-107
-75
-123
-134
-80
-63
-59
-43
-81
-136
-121
-72
-64
-96
-110
-81
-58
-63
-61
-75
-124
-120
-41
2
-19
-42
-61
-66
-42
-34
-37
-35
-94
-156
-68
2
-135
-168
97
421
933
1584
1289
-200
-1266
-1061
-545
-337
-208
-141
-152
-96
-53
-83
-62
-7
-16
-40
-9
60
118
138
176
286
394
453
545
649
635
579
592
537
358
234
166
21
-107
-119
-143
-215
-220
-177
-177
-181
-144
-135
-174
-180
-140
-114
-103
-99
-117
-139
-154
-181
-195
-154
-101
-116
-170
-165
-122
-151
-214
-193
-136
-137
-142
-106
-94
-117
-124
-112
-107
-105
-102
-100
-92
-89
-101
-102
-77
-61
-61
-42
-20
-37
-61
-60
-76
-114
-101
-54
-84
-122
-31
136
497
1233
1552
514
-981
-1353
-798
-392
-271
-169
-134
-152
-116
-65
-55
-60
-56
-36
5
39
61
108
184
255
332
439
552
641
688
685
640
569
479
369
245
130
51
-7
-69
-113
-123
-129
-134
-117
-105
-113
-108
-87
-81
-84
-75
-65
-80
-120
-140
-111
-74
-75
-102
-133
-161
-153
-111
-95
-99
-88
-82
-96
-105
-103
-88
-60
-57
-80
-73
-33
-21
-43
-49
-35
-30
-25
-10
-10
-14
-4
-1
-12
-4
19
34
37
40
56
79
74
40
29
38
25
17
47
33
-15
41
203
590
1405
1864
865
-766
-1253
-683
-257
-162
-78
-39
-47
-30
-27
-19
21
41
44
63
85
114
171
229
284
368
474
578
666
719
713
664
604
529
414
264
125
24
-56
-130
-189
-229
-246
-242
-238
-244
-238
-224
-232
-246
-241
-241
-270
-295
-292
-286
-298
-308
-309
-320
-339
-347
-344
-341
-345
-346
-336
-336
-351
-347
-320
-308
-316
-318
-308
-300
-300
-305
-300
-280
-271
-274
-267
-261
-267
-257
-227
-209
-198
-169
-144
-157
-186
-179
-165
-181
-169
-128
-147
-153
-53
167
824
1774
1651
-5
-1360
-1160
-452
-198
-126
-32
-23
-18
32
67
89
103
116
164
226
268
309
358
423
535
666
765
860
964
1035
1051
1012
911
789
684
564
426
339
302
253
