# session 32
7
33
-28
-56
142
434
508
407
384
440
453
446
469
493
499
507
522
524
494
437
373
305
228
149
91
59
32
5
-6
-2
-10
-20
-9
0
-15
-26
-20
-27
-40
-42
-45
-50
-50
-58
-76
-73
-59
-72
-97
-97
-88
-93
-95
-87
-89
-101
-107
-104
-91
-79
-90
-108
-91
-53
-47
-58
-44
-29
-45
-68
-87
-106
-104
-88
-94
-98
-91
-98
-67
33
250
752
1215
770
-482
-1223
-919
-376
-160
-106
-66
-54
-41
-25
-19
-11
-5
-5
7
24
31
37
51
63
78
97
115
135
161
191
220
247
279
314
342
363
373
361
328
277
202
113
29
-39
-90
-131
-161
-173
-175
-174
-160
-144
-149
-159
-148
-131
-126
-122
-113
-112
-115
-111
-109
-114
-113
-113
-121
-119
-111
-114
-118
-109
-104
-109
-109
-100
-93
-92
-94
-94
-94
-91
-79
-69
-73
-66
-40
-25
-19
-3
1
-26
-51
-56
-57
-52
-48
-50
-41
-37
-43
-3
104
366
897
1221
586
-610
-1120
-734
-265
-88
-25
5
14
41
52
33
38
64
73
72
79
90
103
119
128
135
147
165
189
214
233
254
286
319
343
360
376
386
382
356
298
212
124
49
-18
-72
-107
-130
-141
-139
-135
-135
-132
-126
-121
-114
-108
-107
-107
-98
-91
-95
-101
-96
-93
-103
-109
-108
-110
-115
-112
-105
-105
-108
-102
-93
-98
-108
-102
-90
-89
-87
-80
-82
-87
-79
-75
-85
-78
-61
-63
-60
-33
-21
-26
-14
-6
-25
-43
-59
-72
-65
-59
-66
-54
-52
-68
-21
101
382
936
1220
486
-712
-1104
-654
-232
-106
-47
-8
-8
-9
-2
15
30
17
6
27
46
44
49
62
67
74
91
110
124
142
170
196
221
256
284
287
288
303
303
271
219
154
85
26
-36
-98
-133
-148
-158
-151
-133
-129
-129
-125
-128
-123
-102
-94
-117
-123
-88
-64
-64
-32
2
-29
-72
-57
-27
-25
-28
-25
-26
-26
-25
-34
-44
-42
-36
-34
-37
-37
-39
-50
-58
-49
-46
-56
-43
-13
-6
-7
5
-6
-43
-64
-71
-72
-63
-66
-67
-44
-47
-67
-4
169
504
960
1000
203
-791
-1064
-692
-302
-116
-42
-19
-15
-4
13
26
29
30
39
48
57
69
69
66
86
116
123
126
151
180
196
220
254
282
305
326
341
345
333
298
245
180
99
16
-47
-89
-120
-140
-145
-145
-148
-145
-133
-124
-124
-125
-120
-117
-117
-112
-105
-107
-111
-106
-102
-110
-118
-114
-105
-108
-120
-120
-106
-100
-104
-100
-91
-92
-94
-89
-87
-87
-82
-80
-77
-62
-41
-28
-16
-7
-19
-47
-70
-76
-64
-57
-70
-65
-52
-66
-41
58
281
820
1340
907
-383
-1139
-824
-298
-117
-74
-29
-13
5
13
-3
2
24
30
32
43
46
51
71
88
96
113
132
144
168
207
235
259
293
322
340
362
377
371
348
296
205
108
33
-28
-79
-114
-136
-150
-155
-158
-154
-145
-137
-130
-125
-124
-118
-108
-106
-106
-102
-105
-114
-114
-106
-108
-113
-107
-103
-110
-116
-115
-113
-108
-107
-111
-106
-92
-78
-65
-52
-38
-25
-34
-63
-80
-82
-81
-80
-83
-82
-71
-80
-86
-25
108
455
1059
1210
282
-891
-1105
-588
-212
-108
-50
-24
-27
-13
-6
-4
13
26
26
32
47
57
67
82
92
98
118
150
175
191
216
249
283
316
347
366
376
377
355
304
234
155
66
-14
-66
-100
-129
-148
-153
-154
-152
-148
-143
-136
-124
-118
-120
-117
-107
-105
-109
-105
-98
-102
-110
-111
-107
-103
-103
-104
-104
-103
-98
-91
-93
-96
-91
-85
-79
-57
-32
-21
-12
-9
-29
-52
-62
-67
-66
-65
-73
-65
-54
-70
-52
41
245
723
1199
831
-362
-1127
-878
-352
-126
-62
-20
-13
-5
11
12
15
28
34
35
43
60
72
76
83
101
123
139
152
169
196
231
262
285
306
330
350
360
354
322
266
200
121
39
-26
-72
-109
-132
-141
-144
-137
-128
-129
-129
-117
-115
-119
-108
-96
-104
-112
-107
-105
-111
-116
-114
-107
-104
-110
-113
-112
-111
-109
-109
-115
-110
-89
-88
-101
-96
-87
-94
-92
-76
-70
-67
-54
-48
-46
-23
6
-2
-45
-67
-59
-55
-60
-62
-60
-45
-49
-75
-28
113
361
843
1212
706
-460
-1092
-837
-402
-179
-56
-3
-13
-4
17
15
20
40
50
55
67
75
74
82
103
122
126
129
151
178
199
224
249
265
288
318
334
338
340
325
285
226
149
66
0
-51
-96
-122
-123
-123
-131
-131
-124
-117
-108
-103
-106
-105
-95
-95
-106
-108
-103
-108
-117
-117
-115
-117
-117
-117
-117
-111
-107
-112
-118
-113
-104
-100
-100
-90
-69
-55
-52
-38
-26
-48
-82
-87
-79
-75
-75
-81
-76
-66
-87
-86
0
167
591
1202
1148
26
-1044
-1056
-517
-199
-97
-35
-20
-19
-2
6
9
20
31
34
34
43
65
79
83
95
116
134
152
177
202
224
254
295
333
356
368
375
372
350
300
226
139
55
-15
-66
-104
-131
-146
-150
-147
-142
-139
-140
-137
-127
-117
-113
-112
-110
-110
-112
-111
-111
-115
-116
-110
-106
-111
-112
-111
-111
-108
-102
-103
-106
-100
-91
-88
-87
-85
-84
-79
-72
-74
-77
-74
-71
-71
-70
-65
-50
-28
-12
-5
1
-11
-37
-49
-48
-48
-48
-54
-52
-39
-50
-50
21
159
518
1119
1207
212
-918
-1029
-487
-158
-79
-20
-4
-12
11
24
19
30
43
47
53
55
61
80
101
110
118
135
154
172
192
217
247
280
306
327
348
366
369
359
334
277
194
115
47
-18
-69
-100
-117
-124
-123
-119
-119
-117
-111
-102
-100
-103
-102
-98
-96
-93
-90
-96
-107
-111
-107
-104
-106
-109
-110
-110
-112
-111
-105
-102
-106
-109
-105
-97
-97
-104
-104
-95
-89
-91
-95
-94
-92
-92
-91
-84
-82
-85
-75
-53
-38
-31
-21
-23
-42
-58
-68
-73
-67
-66
-71
-57
-52
-72
-37
72
314
834
1203
611
-601
-1125
-714
-243
-97
-44
-4
-4
9
30
25
20
35
53
60
61
70
87
97
101
110
129
154
171
177
201
244
272
290
320
349
360
367
372
357
310
237
163
94
23
-41
-82
-109
-129
-132
-120
-116
-125
-120
-104
-99
-108
-115
-112
-104
-99
-103
-108
-108
-114
-126
-117
-100
-108
-124
-116
-104
-110
-113
-108
-107
-106
-99
-92
-94
-102
-99
-90
-85
-74
-56
-50
-45
-24
-23
-55
-79
-84
-84
-75
-73
-86
-75
-68
-85
-38
110
398
915
1230
609
-583
-1142
-840
-408
-182
-59
-15
-19
3
24
21
25
35
43
57
65
66
75
91
104
117
134
149
161
174
196
232
265
281
298
329
353
352
341
326
283
206
124
57
-1
-55
-93
-109
-114
-119
-119
-111
-106
-106
-105
-100
-93
-91
-93
-94
-96
-100
-100
-98
-103
-111
-112
-112
-115
-116
-114
-110
-106
-106
-108
-109
-109
-105
-98
-97
-100
-96
-90
-91
-93
-91
-85
-76
-63
-53
-44
-27
-14
-23
-44
-59
-69
-70
-62
-69
-69
-50
-63
-70
4
158
556
1179
1199
115
-999
-1037
-477
-162
-86
-30
-16
-19
2
12
12
25
35
40
49
54
57
69
87
101
114
133
158
179
195
219
251
283
313
339
359
372
377
364
323
258
174
84
8
-45
-84
-118
-137
-141
-140
-138
-134
-129
-124
-119
-117
-112
-105
-103
-103
-104
-106
-105
-100
-101
-107
-111
-110
-110
-108
-104
-106
-110
-106
-99
-98
-98
-93
-91
-91
-86
-80
-80
-84
-81
-73
-71
-61
-37
-19
-17
-10
-8
-28
-52
-64
-62
-53
-59
-66
-50
-53
-69
-18
103
387
940
1194
420
-776
-1125
-640
-209
-82
-30
-7
-7
13
24
16
25
42
46
52
60
67
80
94
100
110
128
146
165
188
210
234
263
290
316
339
352
359
357
330
272
196
114
36
-25
-70
-108
-131
-128
-121
-129
-129
-114
-109
-110
-103
-105
-126
-132
-118
-107
-109
-115
-112
-107
-112
-118
-114
-116
-120
-110
-101
-103
-104
-100
-99
-98
-99
-100
-91
-83
-90
-97
-88
-76
-76
-79
-77
-70
-56
-38
-24
-9
8
-2
-33
-48
-50
-55
-50
-46
-53
-45
-47
-60
-7
124
402
916
1164
467
-674
-1099
-727
-302
-117
-36
-2
5
12
12
17
31
38
47
60
60
58
70
81
85
104
137
151
150
168
198
215
234
270
304
323
336
346
347
328
285
220
142
62
-7
-66
-110
-131
-135
-137
-136
-133
-124
-111
-108
-116
-118
-112
-106
-104
-108
-113
-109
-106
-113
-113
-104
-106
-119
-123
-115
-109
-108
-110
-106
-100
-102
-100
-81
-63
-61
-53
-33
-34
-62
-78
-82
-88
-84
-79
-79
-64
-63
-79
-34
92
395
985
1306
574
-680
-1150
-740
-301
-133
-53
-17
-14
4
15
10
17
30
35
39
45
55
71
84
89
97
117
143
164
186
213
241
267
297
329
354
370
372
353
313
251
165
71
-9
-69
-108
-130
-145
-154
-155
-151
-148
-145
-138
-133
-131
-133
-134
-129
-126
-128
-129
-126
-129
-138
-138
-131
-132
-140
-141
-134
-128
-126
-124
-125
-126
-120
-108
-101
-99
-91
-86
-96
-87
-46
-25
-27
-16
-23
-59
-60
-46
-65
-65
-36
-42
-61
-57
-47
-2
93
332
909
1403
899
-365
-1030
-726
-284
-122
-52
-8
-9
-3
7
5
14
22
23
31
36
36
49
70
77
79
96
120
139
159
184
211
243
277
304
320
336
354
364
352
306
224
129
45
-17
-63
-101
-130
-141
-139
-132
-128
-129
-130
-122
-114
-115
-113
-105
-105
-111
-112
-112
-113
-114
-117
-124
-130
-128
-123
-124
-124
-118
-116
-118
-113
-109
-109
-97
-76
-66
-57
-41
-43
-71
-92
-98
-93
-85
-93
-97
-74
-77
-99
-48
85
417
1049
1308
429
-843
-1156
-629
-218
-110
-48
-23
-37
-20
1
0
6
22
31
37
45
55
68
82
94
113
134
153
175
201
232
264
293
321
351
374
381
379
369
328
251
157
68
-7
-63
-103
-132
-150
-154
-151
-147
-144
-140
-135
-131
-125
-120
-115
-111
-112
-116
-115
-111
-113
-115
-110
-109
-116
-117
-112
-112
-114
-107
-102
-104
-102
-94
-93
-95
-88
-82
-84
-85
-83
-73
-50
-32
-27
-14
-4
-25
-52
-60
-65
-68
-68
-66
-51
-51
-75
-41
66
286
796
1246
761
-483
-1142
-783
-268
-95
-48
-11
-11
0
18
19
27
39
40
47
61
67
72
87
104
117
129
145
167
191
215
237
262
294
324
343
354
363
365
345
288
206
127
58
-5
-63
-101
-119
-126
-129
-128
-125
-119
-114
-112
-109
-105
-103
-98
-96
-98
-98
-97
-103
-110
-106
-100
-102
-105
-100
-96
-102
-105
-99
-94
-93
-90
-86
-85
-83
-82
-84
-85
-82
-80
-77
-75
-77
-75
-71
-69
-57
-36
-19
-5
2
-16
-44
-54
-58
-62
-60
-61
-57
-47
-62
-56
21
174
558
1086
985
-70
-1024
-973
-433
-140
-66
-21
-11
-11
9
20
21
28
35
40
50
58
66
77
90
102
115
131
149
168
187
206
229
259
286
305
323
340
343
328
296
243
164
82
18
-33
-81
-111
-119
-122
-126
-123
-113
-104
-101
-107
-110
-105
-99
-101
-105
-105
-99
-94
-98
-107
-110
-108
-104
-103
-109
-114
-104
-90
-91
-98
-94
-91
-95
-95
-86
-79
-79
-83
-83
-74
-66
-71
-63
-35
-18
-18
-9
-5
-27
-49
-57
-59
-55
-54
-55
-44
-49
-61
-4
127
388
875
1140
510
-607
-1090
-773
-349
-135
-32
2
-1
15
36
40
45
55
59
60
69
84
92
95
107
125
137
144
158
177
194
214
245
274
285
293
315
331
325
307
278
217
132
59
6
-46
-90
-112
-118
-116
-114
-120
-121
-106
-96
-103
-111
-107
-105
-109
-106
-100
-109
-122
-121
-117
-118
-119
-121
-126
-125
-115
-107
-106
-106
-105
-102
-99
-99
-100
-92
-74
-59
-50
-34
-21
-38
-70
-83
-81
-77
-76
-86
-84
-62
-73
-83
-6
147
477
1035
1157
241
-905
-1122
-628
-245
-105
-30
-14
-22
-2
12
10
18
27
33
44
51
56
72
91
94
96
116
142
160
181
212
243
268
296
324
343
353
358
348
308
238
152
66
-6
-59
-97
-125
-143
-149
-148
-145
-139
-134
-133
-131
-125
-124
-128
-127
-120
-122
-128
-128
-124
-124
-128
-133
-132
-126
-123
-126
-127
-123
-121
-120
-115
-108
-106
-106
-103
-99
-95
-92
-90
-81
-69
-68
-76
-75
-64
-51
-34
-19
-10
5
21
13
-17
-36
-37
-28
-25
-33
-25
-13
-30
-14
79
267
729
1259
982
-216
-1060
-832
-284
-63
-9
35
33
34
59
67
69
81
91
100
109
115
123
136
149
160
174
190
209
233
257
278
302
329
352
375
395
402
400
390
354
287
206
123
47
-9
-46
-75
-96
-100
-96
-93
-94
-97
-95
-89
-85
-85
-83
-81
-82
-82
-82
-89
-96
-97
-97
-103
-110
-112
-110
-111
-115
-113
-109
-111
-116
-113
-110
-114
-117
-119
-123
-123
-119
-121
-129
-132
-132
-129
-127
-131
-137
-134
-129
-130
-133
-137
-144
-141
-128
-125
-125
-111
-92
-85
-79
-84
-109
-134
-142
-138
-134
-137
-129
-115
-135
-143
-66
74
390
935
1059
181
-908
-1101
-622
-265
-149
-90
-75
-73
-43
-29
-36
-23
1
15
23
32
42
54
73
96
115
129
147
172
193
219
254
286
311
342
372
395
409
414
409
383
322
249
188
128
78
55
45
34
35
50
66
78
