# session 5
25
45
-28
-43
262
889
1271
670
-628
-1352
-1027
-439
-148
-8
80
79
72
100
105
101
133
172
180
188
229
276
311
344
367
366
346
313
271
231
184
112
24
-51
-97
-126
-150
-155
-139
-132
-130
-109
-89
-94
-116
-148
-148
-83
-35
-66
-89
-70
-87
-123
-117
-121
-140
-118
-121
-149
-92
18
344
1118
1500
452
-1057
-1330
-644
-189
-58
63
86
24
24
42
23
14
32
56
81
110
159
217
261
303
349
363
338
310
277
224
161
89
4
-67
-107
-128
-136
-131
-116
-100
-90
-84
-79
-71
-62
-62
-68
-68
-69
-80
-79
-58
-60
-86
-100
-112
-120
-93
-90
-129
-105
-33
237
1053
1727
927
-788
-1464
-902
-376
-242
-147
-95
-114
-92
-59
-61
-50
-26
-4
27
62
91
124
159
196
240
268
259
228
197
157
94
17
-70
-164
-235
-267
-282
-298
-305
-298
-289
-291
-296
-294
-300
-310
-291
-256
-233
-204
-170
-152
-128
-98
-111
-148
-158
-171
-183
-159
-154
-167
-94
63
432
1126
1362
295
-1135
-1393
-709
-200
-59
15
61
83
118
138
150
183
214
236
272
325
372
414
468
526
563
573
564
529
480
431
365
269
167
79
4
-53
-78
-78
-85
-102
-97
-77
-78
-86
-89
-105
-111
-85
-85
-112
-96
-77
-116
-137
-90
-69
-105
-113
-100
-125
-132
-97
-117
-130
-14
215
768
1579
1482
-79
-1479
-1364
-607
-252
-132
-20
-4
-8
30
48
62
100
130
150
186
234
284
335
381
423
453
452
423
386
339
273
197
115
30
-46
-99
-132
-148
-152
-154
-156
-150
-135
-126
-128
-131
-138
-152
-166
-175
-184
-189
-196
-212
-228
-238
-236
-213
-201
-223
-240
-246
-266
-262
-257
-303
-304
-251
-98
616
1593
1252
-572
-1753
-1352
-686
-526
-459
-368
-376
-368
-315
-295
-282
-253
-222
-184
-131
-68
0
67
131
195
251
281
277
268
271
260
211
147
102
79
58
50
78
124
159
197
246
273
275
286
304
304
295
289
278
257
235
217
200
181
163
146
128
112
95
77
69
78
81
59
28
0
-22
-17
-12
-45
-45
34
229
742
1295
893
-489
-1373
-1049
-435
-209
-148
-91
-89
-89
-68
-62
-56
-35
-11
22
70
111
144
194
256
296
312
321
315
286
253
228
193
135
59
-12
-66
-102
-112
-109
-112
-121
-124
-123
-120
-120
-129
-140
-148
-159
-170
-173
-175
-178
-174
-178
-192
-188
-171
-176
-185
-174
-176
-200
-189
-149
-151
-184
-191
-195
-210
-191
-178
-199
-133
42
353
954
1303
426
-1115
-1646
-1022
-414
-206
-92
-19
-3
29
67
95
120
133
161
217
262
295
345
402
446
478
486
466
436
408
369
316
252
186
116
36
-32
-64
-76
-91
-100
-97
-91
-96
-109
-113
-109
-118
-133
-132
-130
-139
-143
-139
-139
-136
-121
-112
-107
-92
-86
-102
-101
-70
-62
-92
-114
-124
-128
-99
-91
-126
-79
60
343
1004
1494
680
-942
-1556
-930
-317
-138
-40
19
4
24
64
74
89
118
148
182
219
259
304
338
366
404
436
434
407
378
345
299
240
170
92
19
-32
-56
-63
-62
-66
-82
-85
-67
-58
-70
-81
-87
-92
-86
-83
-99
-112
-106
-95
-98
-103
-95
-89
-102
-102
-76
-69
-96
-115
-121
-123
-108
-108
-133
-98
24
289
787
1018
229
-1058
-1477
-913
-359
-192
-140
-102
-98
-83
-62
-54
-34
-8
15
45
80
109
135
170
216
252
259
247
233
213
182
144
98
39
-34
-98
-134
-150
-150
-137
-127
-119
-95
-70
-73
-88
-94
-103
-109
-96
-88
-105
-111
-85
-69
-83
-84
-52
-34
-42
-31
-2
-11
-46
-50
-41
-50
-44
-42
-54
19
214
537
1022
1186
358
-925
-1378
-892
-347
-98
24
66
60
86
126
146
169
192
208
236
276
312
348
390
419
433
448
451
425
388
367
342
279
184
94
24
-29
-62
-79
-98
-122
-130
-126
-135
-147
-141
-138
-155
-170
-175
-181
-182
-171
-164
-161
-156
-163
-180
-170
-144
-146
-169
-176
-176
-172
-140
-121
-156
-138
-10
212
743
1360
991
-512
-1572
-1310
-638
-318
-179
-93
-91
-70
-11
15
32
68
103
137
183
230
273
320
375
428
461
467
453
427
397
354
285
197
109
25
-48
-91
-107
-111
-116
-123
-123
-116
-116
-119
-118
-122
-138
-147
-144
-150
-166
-173
-168
-163
-164
-170
-171
-160
-153
-159
-166
-176
-180
-156
-148
-173
-132
-13
225
787
1252
664
-693
-1337
-909
-364
-164
-81
-37
-42
-24
3
6
15
38
59
88
122
149
188
240
283
315
345
363
352
329
308
276
223
158
88
20
-27
-46
-51
-48
-32
-12
-4
-4
6
15
11
29
73
85
61
60
61
15
-13
27
46
15
16
49
37
-17
-48
-52
-62
-68
-82
-141
-158
-46
135
462
911
804
-232
-1243
-1263
-688
-325
-241
-117
62
80
-50
-108
-62
-34
-12
64
131
128
112
140
154
127
164
254
207
23
-42
14
-82
-290
-349
-350
-484
-582
-508
-410
-338
-260
-213
-168
-191
-338
-305
-71
-130
-300
26
426
256
57
339
472
138
36
335
347
-7
-141
2
46
-69
-224
-368
-360
-116
281
795
992
66
-1510
-2071
-1421
-883
-759
-402
84
263
286
423
617
699
667
753
1067
1359
1486
1590
1628
1483
1398
1504
1449
1149
990
975
758
428
242
97
-83
-194
-299
-401
-326
-221
-251
-124
64
-235
-625
-445
-244
-375
-84
565
567
5
-342
-618
-1212
-1648
-1461
-1020
-767
-660
-621
-678
-790
-862
-882
-977
-1177
-1385
-1660
-1965
-1934
-1460
-878
-456
-284
-369
-523
-567
-547
-523
-455
-349
-205
28
273
408
528
795
1142
1423
1633
1773
1762
1647
1653
1879
2121
2176
2051
1801
1437
1053
770
592
453
313
179
56
-21
7
75
42
-41
-60
-55
-75
-156
-363
-564
-568
-540
-670
-779
-806
-935
-1032
-985
-1082
-1163
-742
-128
280
719
813
-127
-1364
-1681
-1168
-588
-313
-311
-283
-104
-42
-149
-190
-194
-268
-297
-274
-302
-291
-152
-11
43
87
147
161
188
344
572
746
833
813
681
545
499
469
356
225
210
232
121
-16
11
64
5
8
129
170
135
171
219
236
334
394
250
137
106
-155
-396
-277
-307
-605
-399
245
489
145
-646
-1673
-2165
-1719
-956
-451
-279
-362
-405
-222
-82
-101
-53
42
25
3
45
34
1
71
160
131
68
82
65
-6
163
575
713
512
470
569
504
509
717
794
750
858
966
861
674
567
564
590
530
425
388
328
161
44
64
65
-15
-20
110
213
171
90
101
231
606
1195
1224
61
-1346
-1599
-953
-542
-558
-627
-701
-786
-791
-759
-724
-626
-513
-472
-443
-336
-231
-211
-106
198
404
282
94
98
144
68
1
15
-66
-292
-468
-542
-623
-705
-755
-749
-541
-182
-35
-123
-81
109
205
247
326
336
282
267
276
281
261
141
-3
17
86
-43
-223
-163
177
787
1382
1158
-2
-941
-909
-425
-79
49
17
-36
-63
-198
-367
-355
-270
-296
-335
-343
-417
-424
-222
-39
-2
136
370
400
352
451
421
188
135
204
100
0
0
-144
-313
-197
33
90
59
40
-62
-172
-114
-10
-65
-170
-123
32
131
151
204
301
345
350
346
300
338
573
976
1776
2688
2258
288
-1082
-853
-379
-300
-79
153
98
48
117
161
192
203
196
248
324
378
391
261
53
-34
-60
-108
-76
-34
-141
-356
-562
-671
-721
-840
-870
-680
-674
-965
-1045
-895
-913
-930
-714
-550
-577
-594
-499
-330
-209
-207
-171
-41
156
691
1385
1133
-243
-1216
-976
-416
-195
-49
152
275
330
400
504
564
538
563
673
722
708
709
690
676
699
689
676
710
652
468
334
249
102
-3
19
23
-57
-105
-88
-78
-72
-62
-135
-279
-360
-366
-331
-260
-319
-562
-706
-683
-743
-848
-821
-759
-719
-622
-532
-486
-420
-393
-431
-392
-265
-217
-335
-489
-449
-256
-133
222
1083
1366
59
-1574
-1828
-1137
-665
-486
-321
-171
-1
157
171
110
155
289
373
391
455
638
905
1189
1473
1713
1759
1605
1501
1484
1306
1040
925
778
484
348
382
311
203
176
173
274
412
369
315
357
196
-73
-90
-18
-58
-70
-160
-427
-548
-488
-558
-644
-592
-614
-617
-401
-164
166
613
295
-1020
-1936
-1707
-1212
-1002
-756
-507
-572
-769
-788
-734
-755
-770
-743
-728
-686
-591
-480
-345
-156
54
232
373
475
497
435
345
250
201
245
278
242
285
442
556
592
640
698
693
630
583
538
438
338
289
264
301
377
350
275
301
348
328
260
107
-35
-8
104
439
1127
1242
13
-1382
-1555
-939
-469
-316
-399
-524
-413
-199
-136
-158
-158
-154
-155
-147
-57
143
229
57
-79
64
236
192
75
2
-92
-192
-275
-385
-478
-526
-604
-646
-494
-240
-135
-187
-188
-88
0
40
52
59
144
301
415
469
495
465
396
334
281
224
125
40
120
357
817
1527
1661
467
-992
-1254
-641
-152
68
202
262
268
161
-69
-164
-17
52
-158
-379
-309
-16
216
243
185
170
167
147
135
121
124
129
5
-218
-319
-303
-400
-582
-524
-185
-13
-150
-120
109
-9
-310
-236
-115
-339
-451
-269
-229
-333
-303
-275
-321
-221
-74
-78
-14
201
488
1103
1636
903
-749
-1531
-1075
-478
-183
23
96
-2
-49
49
104
22
-35
25
77
52
40
121
252
336
338
319
366
494
599
575
505
499
469
336
220
161
43
-114
-211
-295
-425
-536
-532
-436
-390
-412
-431
-495
-495
-202
99
-20
-293
-307
-193
-105
11
55
-49
-53
434
1383
1814
789
-863
-1496
-1025
-535
-434
-423
-340
-245
-170
-63
79
110
-47
-208
-176
25
295
514
557
577
776
950
891
752
609
430
326
299
253
205
138
28
-15
23
72
150
217
196
175
217
220
177
161
89
-70
-170
-211
-331
-487
-548
-545
-605
-681
-560
-273
42
537
900
263
-1018
-1530
-1127
-736
-556
-348
-220
-233
-251
-228
-212
-203
-98
148
316
215
26
-25
-2
-25
-63
-59
-10
61
137
211
225
156
124
194
231
189
221
336
360
324
408
540
532
446
421
415
367
304
247
216
219
195
103
15
3
13
-2
73
243
363
665
1319
1512
532
-741
-1120
-843
-692
-719
-727
-798
-903
-842
-635
-452
-323
-255
-291
-298
-167
-87
-124
-41
126
155
147
172
64
-22
155
306
166
40
118
104
-92
-211
-215
-246
-271
-256
-266
-261
-222
-253
-321
-276
-162
-117
-141
-161
-145
-72
33
85
100
214
399
610
1113
1696
1277
-216
-1173
-822
-194
-36
-13
115
147
10
-64
51
147
106
104
199
284
322
292
276
382
358
83
38
325
368
134
64
24
-186
-263
-185
-272
-421
-435
-472
-521
-382
-214
-231
-279
-248
-256
-295
-274
-272
-353
-416
-413
-437
-488
-483
-460
-439
-348
-187
146
645
650
-244
-1151
-1186
-700
-302
-50
115
216
303
296
163
82
109
106
109
265
463
534
571
678
767
812
886
961
969
931
901
893
867
781
680
623
584
536
508
503
479
435
392
321
202
145
238
349
322
237
209
179
113
111
159
120
77
153
232
521
1329
1689
471
-1176
-1441
-732
-346
-376
-485
-690
-945
-1111
-1157
-1107
-1041
-982
-865
-718
-621
-538
-442
-391
-350
-253
-180
-210
-333
-562
-812
-889
-823
-809
-842
-854
-884
-904
-852
-791
-739
-637
-515
-414
-291
-172
-138
-138
-80
-25
-29
-9
81
198
333
440
488
580
749
1082
1718
2039
1180
-182
-621
-256
-76
-76
205
627
856
856
742
623
518
409
354
346
320
328
355
274
168
163
148
71
35
47
61
69
29
-57
-127
-191
-278
-342
-357
-362
-385
-396
-364
-335
-377
-447
-447
-393
-374
-384
-350
-262
-135
4
38
-86
-168
-38
218
637
1236
1298
223
-1062
-1292
-728
-297
-151
-49
26
51
71
92
100
118
160
201
226
248
287
369
478
527
495
450
425
394
356
344
365
359
297
252
226
152
118
195
234
179
162
170
92
11
52
137
120
24
-32
-29
-19
4
20
-39
-82
4
161
665
1716
2115
730
-1041
-1325
-678
-335
-234
-122
-106
-113
-129
-189
-128
23
29
-72
-120
-90
-7
13
-57
-19
76
9
-19
119
103
-40
-50
-168
-459
-502
-361
-415
-525
-482
-434
-437
-388
-335
-354
-385
-362
-302
-251
-252
-298
-348
-397
-439
-452
-460
-448
-370
-195
241
862
839
-248
-1278
-1238
-704
-442
-342
-259
-267
-227
-67
25
-10
-29
24
66
58
61
106
173
275
375
364
264
218
244
250
208
156
131
128
107
73
90
166
209
168
153
266
374
308
186
184
194
97
47
92
46
-31
34
56
-50
6
235
540
1161
1629
862
-684
-1351
-928
-464
-285
-169
-162
-229
-196
-134
-141
-133
-92
-64
-14
54
74
102
196
283
342
416
439
397
404
438
383
296
257
193
100
83
119
104
37
-11
-9
15
26
26
21
14
4
-20
-34
-19
-23
-40
-24
-17
-15
53
174
417
782
728
-109
-993
-1104
-713
-394
-210
-150
-248
-305
-207
-114
-74
-8
42
40
61
104
100
90
137
190
198
184
165
128
88
97
152
177
139
64
-54
-169
-141
-9
10
-93
-114
-22
17
-56
-128
-144
-163
-205
-235
-269
-295
-258
-210
-251
-281
-155
84
490
1018
950
-125
-1148
-1102
-522
-186
-8
144
152
124
186
228
208
202
209
207
232
300
351
335
293
279
274
258
239
195
120
70
56
7
-111
