# session 8
144
121
84
94
136
190
345
576
676
555
384
339
315
113
-126
-143
-59
-127
-279
-315
-246
-195
-154
-95
-120
-189
-48
379
901
1235
1252
1217
1317
1259
1006
941
990
851
659
612
742
1064
1316
1077
315
-631
-1284
-1245
-762
-563
-673
-479
-48
83
31
128
211
155
43
-54
221
894
1047
443
93
123
-162
-427
-248
-122
-130
44
110
-77
-156
-147
-305
-560
-729
-720
-594
-544
-591
-594
-579
-672
-841
-935
-913
-910
-959
-919
-767
-611
-454
-259
-86
59
287
544
596
524
684
932
801
471
438
515
357
227
322
338
155
-11
-104
-205
-320
-405
-399
-325
-249
-122
73
321
692
897
324
-861
-1650
-1584
-1157
-860
-770
-867
-1000
-917
-737
-732
-712
-507
-386
-359
-198
-71
-51
119
350
404
372
263
87
157
384
266
-82
-152
-26
-101
-321
-360
-252
-266
-288
-74
173
237
280
345
320
360
581
769
850
1002
1148
1113
1123
1350
1489
1386
1268
1120
827
632
639
572
402
342
374
406
464
661
1168
1674
1320
102
-772
-653
-170
12
-154
-529
-985
-1282
-1276
-1193
-1239
-1207
-939
-650
-504
-475
-517
-513
-415
-322
-225
-91
-36
-84
-138
-170
-192
-235
-352
-514
-634
-690
-718
-714
-625
-462
-289
-92
144
310
318
251
241
297
295
188
133
238
348
314
232
192
153
155
221
213
76
-39
-18
109
397
1046
1687
1270
-235
-1270
-1022
-389
-102
15
92
87
140
386
691
761
577
464
499
456
325
196
29
-43
144
348
310
111
-94
-134
57
170
18
-153
-235
-297
-286
-271
-353
-394
-351
-382
-501
-624
-685
-638
-540
-451
-298
-110
-86
-247
-363
-348
-318
-280
-166
-88
-136
-140
7
127
137
195
360
687
1214
1294
208
-1219
-1561
-1002
-591
-442
-310
-302
-290
-119
-112
-299
-168
271
441
245
84
213
533
688
471
243
380
485
124
-183
80
388
247
-1
-91
-181
-276
-269
-191
-130
-168
-225
-169
-171
-342
-413
-370
-457
-531
-485
-566
-629
-442
-395
-587
-487
-136
-15
-54
-72
-171
-234
-113
101
639
1559
1757
520
-758
-860
-685
-502
1022
3213
3646
2461
1625
1392
1072
798
741
696
627
602
648
699
584
355
296
492
691
570
137
-278
-472
-496
-566
-873
-1169
-1122
-1002
-1082
-1122
-1055
-1016
-863
-621
-607
-704
-564
-367
-421
-549
-518
-437
-427
-424
-381
-363
-417
-462
-461
-511
-506
-260
83
621
1617
2048
749
-957
-1166
-493
-209
-40
341
503
388
317
351
383
366
310
232
135
92
153
239
309
382
441
489
553
621
653
585
439
269
5
-246
-351
-638
-1036
-839
-390
-653
-1163
-1075
-808
-765
-659
-538
-558
-533
-505
-559
-499
-380
-336
-175
235
880
1397
864
-620
-1458
-1073
-543
-377
-266
-258
-350
-250
-122
-218
-188
145
373
370
412
506
521
585
835
1045
946
800
950
1079
861
620
567
475
351
315
216
49
-6
14
0
-26
-44
-31
5
10
27
70
63
101
164
-8
-196
-45
70
-76
-49
43
-201
-400
-298
-326
-485
-481
-522
-617
-415
-100
252
1038
1549
607
-875
-1215
-727
-406
-137
144
66
-112
-38
-14
-130
-75
-45
-273
-295
14
62
-83
129
425
445
567
833
803
578
462
380
320
324
261
232
328
211
-152
-266
-111
-90
-171
-156
-146
-188
-192
-185
-186
-133
-62
-39
8
110
130
50
40
70
-67
-256
-201
162
810
1395
961
-666
-1960
-1788
-969
-646
-761
-692
-393
-353
-519
-326
-29
-256
-562
-353
-105
-210
-256
-74
26
-20
-18
65
108
57
-28
-116
-221
-295
-266
-137
9
75
56
46
50
18
-7
-16
-61
-34
196
493
657
768
950
1008
757
413
240
226
308
384
329
266
357
616
1115
1609
1316
85
-874
-580
176
250
31
150
109
-204
-131
93
-105
-339
-288
-275
-316
-168
54
158
187
173
66
-34
34
94
-98
-371
-524
-595
-515
-324
-355
-606
-697
-597
-566
-597
-523
-407
-432
-534
-497
-326
-198
-162
-159
-145
-126
-134
-112
-14
13
-58
-5
190
512
1278
2109
1706
61
-1045
-785
-172
20
37
111
167
183
176
155
195
306
357
327
356
449
510
585
686
693
638
605
469
191
-55
-161
-126
-91
-252
-445
-410
-348
-437
-468
-419
-454
-523
-589
-682
-673
-540
-451
-416
-344
-290
-324
-387
-397
-316
-190
-167
-272
-314
-198
94
616
942
376
-735
-1235
-884
-415
-206
-110
-68
-100
-107
-31
63
121
155
176
184
190
212
284
424
565
634
686
777
813
774
806
875
776
561
443
404
339
272
251
303
390
355
196
98
57
-41
-126
-132
-102
-84
-149
-251
-258
-233
-250
-243
-283
-375
-345
-187
235
967
1035
-264
-1649
-1778
-1205
-845
-720
-689
-646
-436
-165
8
113
168
173
139
48
-24
-15
-1
34
175
306
345
401
473
441
356
304
244
171
127
96
92
160
238
244
241
314
392
367
294
279
261
178
139
146
21
-182
-221
-138
-144
-208
-156
6
155
461
1187
1740
1062
-489
-1337
-1062
-587
-397
-318
-302
-333
-290
-245
-305
-332
-251
-202
-188
-173
-271
-380
-248
-35
-55
-215
-249
-125
28
65
-72
-274
-394
-429
-466
-532
-553
-462
-362
-398
-470
-411
-352
-446
-523
-431
-285
-174
-86
-60
-99
-164
-220
-178
-53
24
95
282
713
1585
2323
1680
-14
-866
-419
123
270
380
477
470
490
547
508
369
257
255
293
305
339
393
426
529
689
699
569
502
491
408
270
133
-14
-130
-156
-124
-91
-66
-67
-110
-162
-194
-197
-179
-181
-205
-214
-239
-301
-304
-263
-357
-509
-476
-357
-338
-307
-165
205
917
1253
306
-1151
-1589
-1108
-730
-607
-478
-419
-437
-396
-315
-264
-263
-320
-359
-322
-259
-176
-42
84
167
250
320
338
314
277
263
262
234
222
288
383
436
434
422
460
515
509
457
383
283
225
227
158
30
66
243
243
88
129
257
124
-35
105
435
977
1465
903
-596
-1391
-1000
-553
-510
-467
-377
-425
-532
-514
-355
-250
-315
-402
-399
-365
-315
-231
-167
-131
-77
-13
33
67
69
24
-60
-167
-220
-168
-111
-149
-206
-198
-179
-227
-310
-330
-260
-168
-120
-115
-107
-56
-2
-15
-84
-98
-26
-20
-103
-44
171
439
1068
1864
1570
-21
-1208
-1047
-419
-58
134
243
258
231
175
167
265
323
235
172
257
336
324
366
490
564
589
641
670
622
546
484
394
267
186
164
104
10
-19
1
-1
-24
-46
-60
-92
-165
-180
-96
-91
-222
-297
-293
-320
-300
-234
-289
-360
-269
-76
404
1175
1151
-261
-1604
-1593
-973
-671
-542
-428
-411
-380
-322
-334
-354
-364
-398
-364
-246
-135
-25
93
164
204
267
351
413
416
385
342
255
159
117
54
-88
-191
-181
-146
-154
-169
-154
-125
-105
-108
-140
-167
-150
-119
-112
-121
-120
-85
-47
-65
-72
27
196
527
997
939
-5
-887
-855
-397
-168
-77
18
45
48
96
133
136
139
156
177
202
235
272
312
354
396
434
462
475
471
443
386
317
242
167
121
86
15
-52
-56
-59
-102
-107
-67
-81
-144
-168
-149
-147
-176
-216
-246
-248
-242
-274
-303
-234
-51
332
914
1027
57
-1205
-1526
-1035
-578
-365
-243
-207
-212
-151
-54
-5
19
60
74
71
131
205
217
265
378
423
397
389
358
293
274
254
147
45
30
35
12
-9
-15
0
24
38
50
52
35
29
31
10
-15
-26
-45
-70
-77
-83
-113
-105
-2
235
757
1306
941
-473
-1541
-1379
-734
-391
-284
-219
-184
-179
-205
-227
-177
-78
-7
20
41
90
150
187
220
298
379
385
351
342
323
269
229
178
70
8
38
-12
-163
-182
-53
4
-34
-45
-72
-179
-241
-154
-87
-194
-316
-306
-271
-267
-267
-281
-234
-93
98
619
1414
1326
-118
-1358
-1196
-511
-256
-188
-50
-10
-45
-10
47
62
73
81
48
37
118
202
203
221
323
393
370
334
346
367
347
317
299
228
138
120
87
11
70
196
153
54
72
46
-101
-188
-149
-81
-58
-88
-127
-146
-175
-233
-280
-265
-214
-95
300
778
547
-484
-1257
-1161
-727
-469
-371
-318
-261
-192
-169
-205
-231
-204
-160
-141
-131
-102
-81
-69
-15
75
153
209
238
225
202
202
193
156
134
149
170
173
182
233
299
322
309
318
336
302
238
211
201
151
80
44
46
43
-10
-75
-30
150
449
891
1104
461
-736
-1353
-1066
-576
-316
-178
-101
-97
-82
-37
-25
-56
-89
-106
-98
-75
-60
-28
39
103
141
171
202
220
202
150
111
77
1
-67
-69
-64
-78
-75
-100
-152
-65
150
170
-84
-185
74
236
27
-122
13
74
-32
-67
-64
-84
-29
134
597
1314
1301
44
-1214
-1361
-932
-649
-469
-355
-362
-342
-275
-296
-314
-226
-162
-143
-38
102
166
229
345
433
474
508
515
493
486
471
407
327
250
177
135
118
113
128
135
126
155
188
163
127
138
174
193
164
93
30
-10
-65
-163
-243
-192
-37
148
481
783
330
-866
-1607
-1301
-705
-398
-219
-118
-176
-217
-153
-163
-285
-322
-199
-67
-40
-53
-17
30
34
66
158
188
131
111
131
93
11
-55
-98
-128
-167
-238
-311
-327
-293
-260
-226
-180
-165
-192
-204
-200
-208
-190
-131
-91
-70
-11
53
54
73
195
423
886
1452
1288
80
-983
-917
-305
45
172
256
249
200
182
163
138
155
200
227
234
253
306
379
436
466
488
497
467
389
269
122
-22
-126
-182
-217
-223
-173
-120
-134
-180
-190
-176
-166
-146
-96
-56
-107
-201
-193
-151
-219
-225
-87
-92
-177
-12
192
397
1104
1684
841
-745
-1335
-933
-538
-351
-241
-250
-276
-237
-204
-180
-121
-30
74
154
163
121
113
159
186
199
267
333
308
225
130
44
1
-25
-94
-166
-185
-162
-114
-62
-20
33
71
39
-13
-31
-58
-95
-93
-86
-101
-111
-102
-49
14
0
-16
116
410
793
913
282
-750
-1155
-761
-346
-253
-202
-123
-162
-231
-221
-238
-271
-174
-45
-27
4
90
91
69
158
226
193
220
299
258
190
224
207
81
-4
-40
-73
-30
39
-2
-96
-118
-84
-56
-61
-107
-159
-198
-245
-275
-252
-230
-255
-318
-361
-259
-2
329
787
1097
548
-677
-1337
-1012
-469
-170
-6
44
34
117
228
240
229
271
335
384
392
367
387
432
417
381
386
394
386
374
360
368
356
258
173
236
347
292
106
32
76
47
10
52
-36
-217
-208
-173
-310
-307
-74
33
-13
-34
-88
-150
-119
27
495
1121
935
-274
-1238
-1168
-679
-387
-257
-188
-164
-133
-89
-60
-48
-68
-113
-151
-165
-151
-110
-110
-190
-230
-113
23
-15
-127
-101
8
21
-44
-71
-54
-32
1
41
42
-27
-75
-16
38
-15
-71
-70
-77
-83
-46
19
86
136
160
143
90
88
176
382
863
1289
745
-652
-1465
-1117
-511
-282
-185
-23
57
21
39
123
80
-79
-137
-84
-48
-15
45
100
171
258
283
251
226
190
132
120
151
126
38
-8
-9
-47
-96
-66
24
50
-13
-18
67
65
29
150
182
-49
-113
82
17
-290
-354
-219
-173
-104
216
679
779
139
-770
-1107
-797
-388
-179
-119
-109
-90
-83
-108
-104
-40
29
67
75
77
129
232
281
235
198
231
278
309
341
332
256
183
139
90
48
50
96
169
224
232
243
283
302
289
276
239
182
156
122
22
-67
-88
-115
-181
-212
-154
-15
280
690
631
-308
-1350
-1491
-943
-495
-364
-364
-347
-302
-332
-395
-291
-88
-50
-125
-88
-12
-48
-76
15
135
216
268
287
290
283
232
143
61
11
-18
-42
-56
-26
40
67
24
-20
5
67
120
181
254
290
253
155
52
7
15
-6
-90
-119
-5
206
659
1400
1583
468
-965
-1308
-786
-376
-215
-53
61
87
134
198
218
225
249
273
291
279
209
121
69
58
45
-2
-18
50
74
-15
-88
-122
-186
-230
-256
-326
-380
-373
-347
-314
-322
-401
-422
-324
-248
-253
-268
-304
-372
-395
-355
-316
-309
-307
-267
-190
-91
207
726
787
-97
-1127
-1325
-909
-534
-322
-171
-82
-53
-63
-77
-74
-65
-3
139
263
325
390
441
448
471
515
513
495
513
531
521
521
559
599
583
504
464
535
608
556
460
446
480
474
449
439
405
320
221
154
118
71
-6
-114
-248
-297
-167
100
572
1102
842
-485
-1570
-1419
-781
-527
-493
-438
-479
-580
-575
-489
-460
-486
-440
-328
-291
-294
-227
-163
-140
-67
9
7
14
91
175
172
24
-143
-134
-33
-44
-136
-188
-172
-88
-11
-9
-9
5
-53
-105
-21
69
27
-8
72
132
123
123
129
166
275
471
998
1708
1487
10
-1152
-954
-317
-79
20
129
85
38
144
213
155
133
191
238
271
299
319
351
356
353
382
259
-31
-128
-58
-165
-268
-138
-101
-263
-310
-246
-260
-276
-231
-223
-259
-264
-253
-264
-265
-235
-211
-211
-246
-332
-388
-335
-273
-262
-218
-154
-14
453
905
460
-727
-1411
-1171
-734
-561
-535
-561
-602
-567
-434
-270
-139
-69
-51
-53
-65
-84
-69
29
148
195
228
351
510
600
619
614
606
612
638
622
544
511
548
529
469
482
521
511
481
454
449
470
458
410
390
399
426
441
369
284
329
471
776
1254
1180
1
-1311
-1543
-992
-551
-398
-362
-402
-472
-512
-512
-465
-396
-378
-410
-407
-357
-336
-355
-365
-311
-162
26
126
66
-55
-45
91
143
66
-24
-71
-32
80
113
41
-8
-11
-35
