# session 34
-3
-7
16
-66
-238
-319
-280
-233
-244
-272
-225
-100
143
656
1067
565
-621
-1247
-952
-487
-273
-176
-125
-116
-108
-98
-91
-75
-57
-49
-48
-39
-27
-14
16
49
60
70
95
112
131
154
159
176
225
258
269
292
313
298
256
203
149
99
31
-49
-95
-120
-157
-168
-139
-131
-147
-136
-117
-130
-135
-104
-96
-130
-132
-99
-103
-132
-124
-101
-109
-132
-134
-116
-101
-103
-110
-101
-75
-52
-37
-38
-70
-99
-88
-78
-98
-103
-85
-81
-87
-98
-90
-30
86
428
1054
1242
333
-858
-1104
-598
-215
-111
-57
-27
-28
-16
11
32
26
12
39
71
60
57
85
98
106
139
163
166
190
245
287
301
318
344
365
395
428
431
414
390
319
221
158
103
20
-42
-56
-60
-84
-118
-132
-109
-92
-115
-129
-110
-110
-146
-164
-150
-141
-149
-156
-150
-146
-152
-149
-140
-150
-164
-136
-88
-84
-97
-73
-65
-114
-150
-135
-115
-107
-117
-139
-129
-103
-101
-78
0
259
864
1303
705
-543
-1127
-813
-392
-195
-81
-33
-47
-44
-26
-9
7
6
-1
8
17
34
64
70
63
85
111
117
133
163
199
251
283
268
272
319
347
332
306
273
217
144
74
10
-62
-117
-133
-141
-158
-154
-136
-136
-138
-118
-102
-109
-126
-133
-125
-120
-117
-105
-100
-116
-127
-127
-132
-133
-124
-119
-106
-89
-98
-110
-88
-69
-64
-36
-26
-70
-96
-80
-82
-93
-81
-77
-85
-86
-77
-39
34
295
925
1359
695
-602
-1129
-725
-291
-131
-36
0
-25
-11
16
5
-4
10
29
50
62
64
83
106
96
93
134
173
180
194
226
253
275
298
323
348
357
351
352
332
254
166
106
32
-67
-115
-101
-113
-152
-137
-97
-109
-128
-118
-121
-125
-113
-118
-125
-104
-98
-105
-88
-97
-144
-125
-74
-122
-159
-73
-48
-123
-99
-54
-135
-164
-67
-46
-93
-71
-52
-90
-86
-52
-76
-112
-98
-73
-75
-85
-64
-10
145
614
1172
943
-208
-1071
-908
-391
-146
-54
-18
-55
-41
13
-6
-27
21
38
3
6
44
57
52
60
78
97
112
127
152
181
198
202
222
267
288
269
270
293
271
211
161
104
29
-34
-77
-107
-121
-127
-129
-122
-114
-114
-116
-110
-94
-88
-99
-102
-93
-92
-93
-95
-104
-105
-95
-95
-99
-87
-76
-91
-104
-80
-42
-17
-12
-36
-57
-36
-8
-20
-21
3
9
20
59
56
4
-27
-28
-23
-16
-25
-36
-44
-65
-42
56
209
550
980
836
-96
-925
-947
-534
-233
-94
-19
2
-8
-10
1
5
10
39
64
44
24
47
71
66
75
118
140
124
121
148
177
204
232
248
259
271
261
243
255
255
182
87
43
11
-45
-74
-70
-95
-134
-123
-95
-92
-89
-88
-106
-98
-64
-78
-124
-126
-105
-105
-99
-83
-95
-114
-92
-79
-118
-140
-109
-94
-102
-82
-70
-104
-118
-82
-63
-88
-100
-69
-35
-33
-41
-37
-42
-64
-79
-73
-71
-82
-70
-42
-63
-81
-13
145
537
1116
1109
101
-919
-999
-534
-211
-82
-21
-11
-18
-3
29
41
15
0
20
43
58
66
67
81
105
106
114
164
197
179
184
245
284
273
292
347
356
318
301
285
221
128
55
-2
-65
-111
-108
-98
-127
-146
-127
-112
-118
-121
-117
-97
-75
-94
-125
-123
-112
-107
-100
-116
-122
-81
-73
-121
-133
-112
-120
-127
-113
-109
-109
-105
-97
-68
-37
-42
-57
-59
-69
-82
-77
-75
-85
-81
-69
-82
-99
-62
10
170
656
1220
939
-276
-1127
-896
-340
-124
-82
-40
-33
-29
-3
8
13
33
43
35
25
35
62
81
85
93
120
160
184
181
184
222
261
283
317
335
309
298
316
295
240
182
88
-14
-62
-86
-120
-137
-141
-151
-147
-137
-138
-129
-112
-122
-143
-140
-107
-74
-92
-143
-147
-112
-104
-111
-103
-107
-122
-111
-91
-94
-114
-121
-89
-38
-35
-60
-36
-13
-53
-79
-54
-60
-94
-94
-67
-40
-43
-83
-72
28
252
747
1183
740
-430
-1073
-780
-322
-119
-14
21
-18
-9
42
41
20
34
58
57
50
65
96
107
92
91
122
152
163
177
208
237
258
275
293
316
332
328
315
292
234
153
80
18
-39
-77
-97
-106
-120
-145
-151
-120
-101
-114
-120
-108
-102
-111
-117
-104
-93
-109
-126
-121
-122
-130
-123
-112
-117
-120
-117
-126
-135
-127
-120
-114
-94
-78
-76
-62
-47
-49
-38
-23
-49
-94
-109
-97
-84
-92
-103
-83
-78
-107
-74
42
259
730
1108
598
-562
-1120
-753
-284
-120
-48
0
-12
-12
-4
-17
-4
34
44
32
37
51
62
82
110
126
118
107
123
178
238
264
269
282
290
291
318
358
348
288
227
161
72
4
-15
-30
-69
-97
-103
-111
-121
-107
-69
-48
-57
-68
-59
-58
-89
-110
-75
-34
-46
-76
-82
-80
-84
-88
-89
-90
-87
-85
-85
-84
-81
-81
-80
-77
-73
-73
-76
-75
-69
-66
-71
-74
-63
-49
-37
-20
-11
-25
-45
-58
-67
-63
-57
-69
-69
-59
-78
-73
3
170
650
1305
1166
-62
-1036
-836
-259
-87
-99
-54
-40
-51
-31
-5
13
16
-8
-22
13
58
50
32
70
100
76
95
176
204
160
142
181
230
260
266
263
259
255
248
215
135
45
-10
-43
-68
-81
-95
-115
-115
-99
-94
-105
-123
-121
-81
-43
-66
-111
-113
-105
-112
-103
-87
-80
-72
-89
-123
-111
-85
-106
-101
-56
-75
-113
-86
-74
-102
-87
-70
-79
-35
1
-69
-112
-56
-41
-66
-31
1
-15
-2
17
-3
-14
-20
-55
-59
-24
-23
-51
-58
-39
8
120
423
887
936
140
-809
-960
-489
-135
-37
21
44
2
-21
0
23
33
30
21
30
52
62
69
80
82
83
105
129
129
119
139
189
217
206
217
250
227
179
194
223
186
127
93
51
-4
-37
-45
-47
-69
-105
-97
-47
-66
-155
-164
-86
-67
-103
-97
-90
-117
-117
-112
-133
-116
-73
-74
-99
-113
-109
-85
-88
-105
-50
12
-29
-76
-43
-33
-61
-18
47
31
-6
-6
-8
-22
-32
-34
-13
3
-28
-62
-68
-52
16
175
478
856
860
177
-679
-962
-660
-269
-78
-42
-13
34
32
9
31
53
38
28
48
78
93
79
62
92
144
142
106
119
164
167
156
184
206
183
157
162
186
198
170
125
101
68
8
-26
-35
-64
-94
-97
-92
-87
-85
-98
-106
-94
-86
-81
-78
-96
-110
-92
-95
-125
-119
-97
-112
-120
-100
-105
-130
-126
-106
-95
-94
-105
-119
-101
-60
-40
-38
-15
2
-34
-78
-71
-55
-73
-92
-81
-54
-54
-80
-60
16
185
647
1152
834
-321
-1070
-830
-330
-110
-40
-13
-4
35
40
-7
-11
30
46
48
62
74
80
87
104
121
127
139
164
174
179
204
223
229
246
272
285
284
278
262
226
169
104
36
-34
-83
-97
-100
-106
-104
-99
-106
-114
-108
-97
-96
-103
-106
-106
-111
-109
-99
-103
-120
-115
-101
-109
-119
-111
-105
-114
-120
-114
-89
-61
-59
-64
-47
-35
-52
-66
-73
-89
-91
-76
-78
-81
-78
-89
-69
8
183
630
1110
798
-340
-1095
-841
-303
-97
-66
-27
-13
-10
11
21
14
16
29
42
54
69
76
74
80
96
122
151
160
152
175
225
245
242
259
283
289
290
287
266
223
159
87
30
-20
-71
-94
-87
-93
-116
-114
-90
-85
-101
-109
-101
-90
-89
-102
-120
-119
-107
-115
-129
-120
-104
-106
-118
-120
-107
-102
-107
-94
-61
-42
-46
-42
-38
-55
-77
-85
-85
-86
-83
-71
-60
-75
-83
-35
53
293
814
1099
426
-714
-1104
-647
-197
-78
-53
-19
-5
1
1
9
25
22
14
31
48
49
59
78
85
98
129
141
129
140
176
201
217
236
252
261
258
248
248
236
181
106
54
10
-41
-79
-97
-104
-101
-93
-98
-109
-108
-100
-98
-98
-97
-106
-121
-113
-87
-89
-114
-116
-103
-111
-126
-118
-104
-100
-88
-61
-49
-50
-41
-45
-71
-85
-81
-84
-86
-86
-84
-72
-76
-84
-28
99
363
830
1027
359
-700
-1076
-686
-258
-101
-53
-24
-7
17
26
17
25
44
51
61
72
69
80
111
122
113
126
150
169
191
202
204
225
248
248
255
271
270
263
246
190
123
72
16
-39
-66
-70
-69
-82
-101
-104
-93
-88
-90
-97
-102
-97
-90
-99
-116
-117
-111
-115
-116
-111
-113
-113
-104
-97
-87
-61
-49
-58
-62
-68
-90
-101
-95
-92
-99
-105
-91
-80
-100
-87
-3
149
544
1068
926
-138
-1045
-975
-454
-159
-81
-54
-48
-33
-13
-9
-5
9
25
40
39
29
45
71
72
78
109
132
140
161
186
194
200
223
254
278
277
259
252
239
189
122
65
11
-39
-72
-93
-104
-96
-88
-95
-99
-94
-90
-85
-82
-92
-101
-96
-99
-110
-111
-98
-88
-89
-98
-101
-98
-99
-104
-103
-92
-78
-76
-79
-68
-43
-15
-3
-26
-66
-79
-65
-54
-63
-76
-70
-60
-75
-64
3
139
527
1074
977
-82
-1028
-958
-401
-108
-50
-20
-18
-21
2
17
24
37
35
22
32
59
73
73
77
93
115
129
134
153
188
210
217
227
249
272
278
271
270
268
231
154
76
30
-10
-64
-94
-84
-83
-105
-110
-95
-89
-93
-92
-92
-93
-92
-82
-76
-86
-98
-93
-92
-109
-115
-101
-95
-100
-102
-102
-97
-87
-86
-90
-89
-92
-91
-79
-80
-90
-74
-50
-45
-37
-16
-15
-37
-57
-60
-52
-51
-66
-66
-43
-48
-59
-16
107
453
992
1025
90
-931
-1002
-462
-127
-57
-15
6
-3
11
31
36
41
49
48
46
57
74
85
91
101
113
129
153
177
182
183
208
244
254
245
252
272
278
268
242
193
124
54
-1
-37
-58
-79
-94
-92
-83
-86
-90
-88
-88
-84
-75
-78
-90
-90
-76
-73
-92
-110
-96
-80
-97
-111
-87
-72
-95
-113
-106
-92
-81
-84
-96
-82
-61
-76
-97
-87
-74
-79
-74
-55
-55
-77
-82
-58
-49
-67
-75
-59
-46
-50
-56
-49
-24
3
13
6
3
1
-15
-37
-35
-18
-29
-51
-35
-24
-49
-17
86
265
683
1095
734
-348
-1016
-784
-316
-102
-27
13
17
24
36
37
48
63
60
60
70
69
69
92
116
115
113
130
153
165
174
189
206
213
219
232
240
239
245
254
234
184
130
80
31
-16
-58
-84
-84
-76
-76
-75
-70
-75
-88
-93
-89
-83
-79
-79
-82
-90
-98
-99
-103
-112
-110
-105
-111
-108
-102
-118
-129
-105
-87
-107
-125
-106
-83
-89
-108
-109
-99
-97
-97
-84
-63
-51
-50
-39
-23
-37
-69
-83
-83
-76
-67
-75
-82
-67
-73
-73
-1
175
602
1128
955
-143
-1049
-942
-401
-123
-52
-8
5
11
24
22
23
46
58
49
52
79
97
94
97
115
129
147
179
194
192
217
261
273
268
290
317
312
284
262
241
191
108
28
-12
-35
-77
-112
-111
-98
-97
-101
-102
-98
-83
-76
-91
-98
-80
-70
-81
-91
-89
-82
-79
-84
-89
-82
-75
-86
-98
-97
-88
-75
-71
-85
-88
-63
-49
-64
-78
-72
-63
-59
-54
-48
-51
-59
-54
-45
-53
-63
-55
-48
-55
-57
-50
-48
-48
-42
-27
-1
22
24
12
-4
-22
-41
-48
-41
-37
-39
-31
-33
-53
-29
50
232
700
1159
769
-388
-1053
-727
-220
-68
-50
-10
-4
-6
11
20
26
36
34
35
54
70
66
58
66
89
111
120
124
145
177
195
197
207
235
260
265
256
253
250
220
168
113
52
-16
-62
-81
-96
-116
-122
-119
-118
-100
-75
-89
-120
-116
-98
-100
-98
-87
-87
-95
-104
-113
-105
-91
-102
-111
-95
-93
-116
-114
-93
-90
-93
-79
-73
-85
-79
-52
-51
-75
-66
-25
-16
-40
-42
-28
-34
-39
-21
-12
-22
-17
0
2
5
25
41
46
53
38
-5
-26
-15
-13
-26
-26
-10
-12
-46
-46
49
228
548
935
862
48
-815
-953
-562
-222
-80
-21
6
17
23
32
50
56
48
52
67
80
92
95
92
108
133
143
145
157
172
185
200
223
248
259
256
252
258
270
259
204
131
80
40
-7
-50
-72
-81
-83
-84
-87
-83
-73
-76
-84
-81
-90
-129
-139
-89
-53
-83
-116
-98
-77
-95
-112
-106
-114
-118
-93
-99
-149
-152
-98
-80
-115
-135
-121
-109
-115
-123
-125
-123
-124
-122
-114
-106
-107
-107
-86
-58
-52
-52
-32
-11
-25
-68
-97
-86
-60
-57
-58
-48
-65
-95
-56
23
184
687
1253
928
-302
-1089
-805
-283
-131
-97
-4
24
6
27
39
18
23
41
27
28
76
103
95
100
108
103
129
172
167
153
201
266
286
290
289
268
276
326
327
261
203
150
54
-39
-63
-54
-76
-116
-128
-116
-114
-121
-114
-94
-80
-91
-125
-132
-84
-42
-57
-88
-96
-89
-79
-74
-77
-81
-85
-81
-69
-70
-73
-71
-89
-96
-56
-35
-63
-71
-50
-52
-62
-56
-51
-40
-17
-10
-6
18
13
-39
-60
-34
-18
-28
-55
-83
-64
-15
0
15
154
568
1079
945
-106
-1051
-974
-390
-102
-59
-1
28
15
32
50
30
11
25
55
72
79
87
89
90
103
120
127
136
152
166
184
211
235
250
261
270
279
279
260
218
157
85
15
-40
-83
-121
-150
-161
-157
-153
-159
-158
-144
-133
-133
-134
-130
-127
-130
-126
-119
-118
-119
-114
-116
-125
-125
-118
-115
-115
