# session 39
-19
-30
3
17
-94
-272
-301
-164
-128
-262
-301
-215
-213
-230
-177
-198
-238
-116
155
529
743
287
-628
-1051
-733
-331
-203
-151
-98
-118
-104
-10
-27
-131
-97
-16
-39
-4
90
38
-22
59
80
-2
7
84
104
111
153
191
208
227
242
230
207
200
169
113
79
32
-47
-72
-64
-105
-132
-91
-64
-76
-78
-81
-88
-64
-26
-24
-62
-94
-77
-33
-28
-51
-51
-49
-64
-52
-20
-17
-34
-39
-38
-34
-11
30
45
13
-13
2
9
-33
-74
-53
-13
-35
-74
-62
-50
-54
-17
69
294
707
862
293
-559
-869
-593
-261
-108
-50
-29
-30
-27
-3
24
17
-14
4
58
57
14
19
48
47
52
80
80
76
116
146
135
156
212
228
218
233
252
247
228
198
143
78
31
4
-17
-29
-24
-19
-26
-28
-15
-6
-6
-3
-3
-21
-39
-37
-32
-42
-49
-43
-45
-61
-69
-69
-70
-70
-72
-71
-54
-40
-43
-38
-26
-44
-81
-99
-97
-89
-87
-97
-99
-88
-100
-103
-50
67
387
913
1016
222
-754
-952
-544
-230
-144
-94
-51
-37
-30
-35
-49
-35
-1
10
10
19
15
9
45
100
115
99
107
133
129
128
194
247
209
188
250
276
232
202
171
82
-11
-51
-54
-48
-64
-107
-128
-111
-101
-108
-110
-103
-89
-78
-87
-99
-85
-75
-88
-83
-62
-64
-79
-89
-105
-102
-75
-67
-80
-87
-96
-95
-65
-50
-69
-67
-42
-55
-90
-88
-69
-86
-116
-117
-92
-63
-64
-95
-76
22
263
785
1200
703
-482
-1097
-764
-274
-92
-43
-10
-5
-2
9
22
32
26
22
36
48
51
69
93
88
72
94
149
189
204
211
223
250
278
276
268
281
265
211
184
170
102
15
-35
-63
-85
-95
-101
-105
-97
-91
-94
-94
-87
-84
-87
-86
-82
-81
-84
-87
-87
-85
-86
-89
-91
-92
-93
-93
-93
-93
-92
-89
-90
-86
-68
-52
-50
-41
-25
-30
-59
-79
-80
-69
-66
-78
-70
-51
-63
-56
23
210
689
1269
1048
-164
-1079
-873
-294
-72
-47
-11
-9
-10
20
35
32
39
45
40
40
51
71
92
107
115
127
148
165
178
199
221
234
242
251
252
246
231
205
168
112
39
-28
-74
-107
-133
-145
-148
-149
-147
-141
-137
-137
-138
-137
-138
-139
-139
-138
-137
-137
-137
-138
-136
-134
-131
-132
-135
-134
-130
-128
-131
-133
-118
-89
-73
-70
-43
-21
-52
-87
-82
-78
-81
-60
-36
-29
-31
-37
-15
72
274
691
1117
921
-16
-817
-809
-369
-84
-2
33
52
54
54
55
58
60
55
49
48
51
54
58
65
74
85
98
110
124
140
156
168
176
185
191
194
194
188
166
125
74
24
-17
-53
-79
-91
-91
-89
-87
-84
-80
-78
-76
-77
-78
-78
-79
-81
-84
-87
-90
-93
-95
-98
-96
-94
-90
-77
-63
-59
-48
-32
-42
-71
-85
-87
-88
-85
-89
-89
-78
-86
-92
-37
95
453
1020
1073
110
-957
-1047
-497
-147
-73
-35
-16
-18
-3
11
14
22
31
38
47
58
69
82
95
108
124
139
156
176
194
209
225
240
250
251
248
245
226
182
118
54
-1
-47
-81
-104
-116
-116
-114
-118
-119
-113
-109
-112
-116
-118
-121
-125
-123
-120
-120
-121
-122
-124
-123
-120
-120
-116
-96
-74
-64
-53
-40
-50
-77
-89
-88
-84
-81
-88
-83
-68
-75
-70
-1
153
533
1029
926
-65
-992
-999
-490
-157
-54
-15
-3
7
31
41
38
39
45
52
64
80
95
104
113
131
147
153
163
184
202
214
226
235
238
241
242
238
227
198
146
85
31
-15
-49
-68
-76
-82
-86
-83
-79
-80
-81
-82
-85
-89
-91
-90
-91
-95
-96
-95
-90
-76
-62
-61
-59
-44
-47
-78
-101
-106
-106
-102
-104
-106
-92
-97
-114
-55
104
439
969
1107
258
-882
-1149
-655
-242
-112
-58
-38
-39
-22
-9
-8
0
11
17
28
39
49
63
77
90
105
124
142
159
175
191
204
212
216
217
214
205
184
144
88
30
-21
-62
-89
-101
-105
-109
-111
-109
-108
-107
-106
-107
-107
-106
-107
-109
-110
-112
-113
-112
-110
-105
-91
-76
-73
-65
-51
-58
-87
-105
-104
-98
-94
-98
-90
-75
-89
-85
-5
181
642
1216
1035
-153
-1111
-941
-338
-90
-63
-25
-14
-15
7
15
15
26
35
41
54
66
75
87
102
117
133
149
165
184
201
214
225
233
235
233
230
220
193
145
87
28
-21
-58
-81
-92
-95
-94
-92
-91
-90
-90
-91
-91
-91
-93
-96
-97
-99
-102
-100
-99
-94
-78
-64
-61
-52
-41
-58
-89
-102
-100
-94
-94
-98
-86
-78
-97
-76
18
256
805
1264
743
-533
-1165
-751
-224
-85
-63
-28
-29
-23
-3
-2
1
14
20
26
37
48
57
71
86
100
115
131
146
161
177
189
195
198
197
192
186
174
145
95
36
-19
-61
-90
-108
-115
-114
-113
-116
-119
-112
-105
-108
-116
-113
-106
-106
-110
-110
-112
-113
-108
-105
-105
-95
-73
-56
-45
-44
-61
-85
-99
-101
-95
-96
-100
-85
-77
-90
-54
55
305
822
1168
566
-635
-1167
-761
-254
-78
-37
-9
-5
1
19
30
33
36
48
63
69
69
80
103
122
132
139
149
161
174
184
192
205
212
206
204
212
207
176
130
81
35
-7
-40
-62
-68
-67
-70
-74
-71
-65
-64
-63
-61
-60
-62
-63
-64
-64
-65
-70
-71
-69
-74
-71
-51
-38
-33
-21
-18
-40
-60
-69
-78
-82
-88
-99
-85
-78
-104
-73
64
331
799
1094
522
-619
-1145
-773
-287
-104
-49
-20
-19
-9
11
15
2
-9
10
39
48
66
89
78
70
115
164
174
177
188
200
214
224
221
214
215
211
191
161
115
49
-16
-62
-93
-107
-106
-118
-149
-167
-152
-118
-86
-73
-82
-92
-95
-100
-105
-106
-105
-105
-110
-116
-116
-110
-106
-103
-106
-113
-113
-107
-94
-71
-52
-41
-31
-35
-59
-78
-92
-111
-107
-79
-71
-94
-100
-53
15
183
657
1137
788
-356
-1079
-804
-265
-59
-32
-11
-11
2
37
53
50
52
58
71
72
54
65
115
132
114
143
194
187
168
194
213
205
215
232
230
235
237
196
141
102
55
-1
-45
-83
-100
-69
-56
-106
-126
-75
-46
-54
-55
-79
-103
-69
-45
-70
-66
-48
-71
-77
-52
-62
-80
-62
-60
-83
-64
-22
-26
-40
-17
-14
-52
-70
-62
-61
-73
-90
-76
-40
-56
-75
18
208
553
982
867
-96
-1008
-1037
-561
-218
-72
-36
-51
-16
38
26
6
19
34
50
59
50
61
84
92
110
131
128
141
175
183
191
231
244
227
232
236
202
174
148
77
10
-11
-46
-107
-125
-120
-134
-130
-109
-114
-129
-129
-123
-105
-80
-78
-96
-99
-94
-103
-107
-94
-98
-118
-110
-90
-94
-104
-98
-93
-93
-94
-97
-98
-86
-70
-50
-29
-16
-19
-36
-65
-84
-76
-69
-79
-66
-45
-71
-76
11
184
630
1270
1180
-57
-1163
-1048
-397
-102
-52
-1
7
8
35
40
42
60
64
64
82
97
97
105
126
147
164
181
200
221
242
263
282
297
304
306
307
297
259
194
117
40
-27
-78
-113
-134
-147
-151
-145
-138
-133
-125
-115
-107
-100
-94
-91
-92
-91
-90
-95
-102
-99
-92
-97
-106
-104
-100
-103
-109
-109
-107
-109
-111
-103
-93
-91
-93
-89
-84
-77
-74
-78
-74
-57
-50
-54
-42
-23
-15
-3
11
2
-22
-38
-39
-33
-37
-39
-22
-31
-55
-10
117
471
1171
1467
509
-833
-1062
-429
-61
-57
-39
-18
-26
0
13
-2
8
33
39
34
32
46
70
75
74
98
121
123
135
155
163
185
220
223
214
232
239
206
164
115
37
-39
-78
-102
-125
-130
-129
-150
-172
-147
-102
-117
-163
-139
-73
-58
-84
-95
-98
-106
-105
-84
-57
-48
-65
-76
-58
-38
-39
-45
-45
-46
-37
-22
-21
-26
-28
-43
-64
-52
-15
0
-17
-31
-38
-55
-54
-23
-7
-20
-32
-34
-19
7
-4
-48
-70
-66
-65
-75
-83
-68
-58
-65
-15
138
420
802
883
219
-743
-1079
-707
-268
-76
-13
14
18
26
43
52
52
58
76
87
84
88
111
130
132
137
156
178
193
208
226
239
253
272
280
270
262
257
237
197
147
95
41
-8
-38
-53
-66
-71
-58
-60
-72
-28
41
22
-38
-10
36
-28
-131
-139
-71
-31
-59
-94
-97
-111
-139
-131
-112
-124
-118
-88
-97
-116
-99
-93
-109
-97
-87
-101
-57
26
3
-93
-106
-47
-30
-54
-66
-66
-64
-50
-34
-31
-42
-59
-79
-90
-84
-80
-85
-80
-80
-79
-24
111
374
733
778
162
-638
-865
-548
-223
-88
-31
-2
7
17
22
20
24
36
47
54
56
60
69
78
83
92
110
127
137
147
163
174
184
199
211
211
210
215
210
183
144
106
65
19
-17
-37
-49
-56
-53
-53
-61
-62
-50
-50
-62
-60
-48
-51
-62
-65
-67
-72
-71
-67
-66
-65
-69
-79
-77
-69
-74
-78
-66
-57
-64
-66
-60
-56
-55
-57
-59
-54
-46
-44
-48
-50
-45
-32
-32
-46
-48
-39
-32
-13
8
9
13
28
17
-20
-42
-40
-31
-32
-35
-26
-33
-43
18
169
478
950
1053
269
-779
-1045
-601
-199
-58
-3
20
17
28
47
55
54
53
58
65
67
71
85
100
108
118
133
148
160
177
200
222
232
241
253
255
245
236
220
178
113
46
-12
-61
-99
-123
-135
-138
-137
-136
-135
-127
-117
-112
-110
-107
-102
-97
-94
-93
-94
-95
-98
-100
-100
-101
-103
-102
-102
-104
-103
-98
-97
-98
-98
-96
-95
-93
-89
-86
-86
-86
-84
-81
-78
-76
-77
-75
-69
-65
-61
-45
-28
-20
-9
0
-12
-38
-53
-51
-45
-49
-48
-33
-41
-50
10
160
537
1126
1181
172
-937
-1000
-414
-82
-32
8
26
20
39
52
50
58
67
71
78
85
93
105
117
127
139
156
175
193
212
233
253
272
286
293
294
288
273
240
185
115
47
-11
-57
-88
-108
-121
-129
-129
-125
-121
-117
-110
-103
-99
-97
-92
-88
-87
-86
-83
-82
-82
-82
-83
-85
-85
-84
-84
-85
-83
-82
-84
-84
-83
-83
-82
-80
-80
-80
-76
-73
-75
-77
-74
-72
-71
-71
-69
-66
-64
-62
-62
-62
-60
-56
-49
-35
-20
-12
-3
9
4
-19
-39
-41
-34
-39
-44
-28
-27
-46
-6
116
396
913
1150
413
-736
-1047
-530
-114
-39
-12
17
11
22
39
38
43
53
55
59
67
73
82
93
103
114
127
142
158
176
194
211
228
241
250
254
255
249
229
187
129
67
9
-40
-75
-99
-113
-117
-116
-116
-114
-110
-104
-99
-96
-92
-88
-84
-83
-83
-83
-82
-81
-81
-82
-81
-81
-81
-79
-77
-77
-77
-76
-74
-74
-73
-71
-69
-68
-67
-65
-63
-62
-60
-57
-54
-53
-53
-51
-48
-48
-49
-45
-42
-43
-42
-38
-33
-17
1
9
17
29
21
-4
-22
-23
-18
-21
-24
-11
-13
-32
9
135
416
912
1113
376
-733
-1029
-529
-111
-17
11
35
31
41
56
56
62
71
72
74
81
86
93
103
113
125
137
150
164
177
192
208
223
234
240
243
242
234
216
181
129
70
16
-30
-67
-93
-106
-110
-113
-113
-111
-107
-105
-104
-101
-98
-99
-102
-103
-101
-101
-102
-104
-107
-108
-108
-108
-107
-105
-108
-112
-109
-106
-105
-106
-107
-107
-103
-98
-96
-96
-94
-90
-89
-91
-90
-85
-84
-87
-83
-77
-76
-76
-72
-63
-47
-31
-24
-15
-9
-25
-49
-60
-57
-52
-53
-52
-42
-49
-53
11
175
520
972
938
49
-912
-1012
-509
-143
-37
5
23
24
39
50
49
56
66
70
76
87
96
104
112
122
134
146
159
172
186
203
220
232
240
246
248
245
237
220
186
136
82
33
-7
-39
-60
-69
-72
-71
-67
-64
-62
-59
-56
-54
-53
-52
-51
-50
-50
-53
-55
-55
-53
-52
-53
-52
-49
-47
-47
-47
-46
-43
-41
-39
-37
-32
-29
-28
-24
-20
-18
-16
-13
-12
-10
-7
-4
10
31
43
50
62
59
33
11
6
12
12
6
14
19
0
17
113
342
817
1184
684
-476
-1060
-679
-164
-2
22
51
50
53
67
67
66
73
75
77
84
88
90
94
101
109
119
130
142
154
168
181
193
200
205
205
200
191
172
134
78
16
-42
-92
-130
-157
-173
-183
-188
-190
-190
-191
-192
-193
-196
-198
-200
-201
-205
-209
-211
-216
-223
-229
-232
-232
-233
-237
-238
-239
-241
-243
-242
-241
-240
-239
-238
-237
-235
-234
-232
-229
-227
-218
-199
-182
-172
-159
-151
-165
-188
-199
-195
-186
-186
-183
-167
-168
-174
-123
15
347
858
930
64
-974
-1110
-563
-174
-89
-54
-28
-23
-4
15
23
38
53
63
77
94
110
126
143
163
183
202
225
250
273
297
321
341
357
370
378
380
378
366
334
286
235
193
159
136
127
129
133
140
153
166
172
175
181
186
191
199
203
202
201
206
213
216
213
208
207
211
210
206
206
211
212
208
205
202
196
192
193
192
182
176
186
201
201
189
189
189
161
119
94
86
76
59
48
38
8
-9
36
163
471
893
857
5
-955
-1135
-697
-324
-210
-193
-195
-207
-223
-241
-255
-266
-280
-297
-315
-334
-349
-359
-371
-383
-392
-398
-405
-409
-411
-414
-417
-420
-427
-436
