# session 31
-5
-9
-12
37
96
89
59
61
68
62
48
34
28
20
0
-1
15
0
-24
-10
2
-19
-31
-32
-32
-9
7
-30
-61
-47
-33
-25
-4
7
13
28
12
-35
-50
-39
-44
-53
-51
-43
-39
-66
-87
-4
156
425
912
1119
356
-799
-1138
-712
-337
-177
-68
-45
-52
-2
23
-9
-24
-10
-1
9
37
63
63
47
48
68
96
126
145
144
147
183
234
261
270
294
320
316
279
232
180
117
47
-12
-63
-108
-131
-130
-136
-145
-136
-119
-113
-115
-116
-111
-104
-104
-107
-106
-102
-98
-99
-110
-115
-104
-94
-98
-100
-93
-91
-90
-82
-77
-78
-77
-78
-78
-64
-51
-46
-31
-24
-52
-82
-90
-91
-83
-78
-92
-88
-71
-85
-63
45
271
784
1288
890
-355
-1113
-835
-333
-140
-71
-24
-26
-20
-5
-11
-6
12
17
22
38
54
64
75
91
109
121
133
154
181
205
236
277
310
322
330
346
351
330
285
224
147
65
-3
-55
-99
-131
-145
-144
-139
-136
-137
-131
-119
-116
-117
-108
-99
-97
-97
-97
-101
-101
-97
-99
-105
-105
-105
-107
-107
-105
-105
-104
-101
-98
-94
-91
-89
-87
-85
-78
-61
-42
-32
-25
-13
-18
-43
-60
-61
-62
-66
-70
-61
-46
-59
-69
-5
132
444
985
1147
318
-799
-1055
-583
-203
-84
-26
-8
-12
10
23
19
29
41
44
54
66
71
76
90
107
122
136
153
173
194
217
244
273
296
312
327
338
339
323
281
213
135
60
-2
-53
-89
-111
-126
-133
-130
-123
-117
-116
-115
-111
-104
-101
-101
-98
-97
-106
-111
-106
-104
-109
-110
-110
-114
-117
-116
-115
-114
-112
-111
-110
-105
-101
-101
-96
-90
-91
-92
-88
-82
-68
-49
-38
-32
-17
-11
-32
-57
-64
-63
-64
-72
-70
-50
-53
-69
-18
105
394
942
1182
409
-760
-1087
-608
-202
-93
-42
-14
-21
-9
6
7
17
29
32
39
46
53
65
81
92
106
125
143
161
181
203
228
257
284
304
318
327
328
316
279
216
142
69
7
-43
-83
-113
-128
-128
-124
-125
-122
-114
-110
-111
-106
-98
-97
-102
-106
-102
-92
-87
-92
-99
-103
-105
-105
-100
-93
-86
-86
-90
-89
-87
-88
-87
-80
-74
-74
-71
-65
-65
-68
-65
-60
-58
-53
-40
-24
-15
-4
11
10
-15
-35
-43
-42
-34
-36
-44
-29
-28
-48
5
144
392
860
1150
557
-568
-1065
-729
-301
-116
-27
12
7
18
37
37
38
47
53
59
69
77
82
91
102
112
123
139
157
176
197
220
242
267
288
299
305
310
302
273
224
161
93
26
-32
-74
-99
-112
-121
-124
-118
-112
-114
-115
-110
-105
-101
-98
-100
-103
-102
-99
-99
-105
-113
-115
-111
-109
-111
-110
-107
-106
-108
-108
-103
-96
-96
-98
-95
-91
-89
-88
-85
-83
-81
-78
-77
-76
-76
-75
-74
-75
-71
-51
-34
-29
-18
-9
-26
-52
-60
-61
-61
-63
-68
-58
-51
-72
-50
48
249
735
1226
848
-358
-1088
-795
-290
-113
-65
-28
-29
-5
29
16
7
35
49
41
49
74
93
85
66
86
143
164
149
166
210
238
253
276
304
328
341
344
344
330
287
221
151
85
19
-39
-78
-100
-113
-123
-124
-121
-118
-113
-107
-104
-103
-102
-101
-99
-98
-98
-98
-95
-97
-103
-105
-103
-98
-95
-97
-100
-98
-94
-94
-94
-91
-88
-89
-87
-83
-85
-84
-66
-44
-37
-26
-14
-29
-59
-70
-70
-70
-69
-76
-73
-62
-78
-74
1
167
590
1150
1030
-66
-1029
-974
-451
-170
-88
-38
-33
-32
-6
2
-2
9
20
25
35
47
56
66
79
94
109
128
147
166
191
221
250
274
298
321
337
342
332
303
250
177
98
26
-35
-81
-109
-126
-137
-138
-134
-132
-127
-121
-117
-113
-109
-108
-107
-103
-101
-103
-102
-100
-100
-100
-103
-107
-107
-103
-100
-100
-99
-97
-95
-93
-89
-86
-85
-84
-80
-76
-74
-73
-71
-69
-59
-41
-26
-17
-3
3
-17
-41
-52
-56
-52
-51
-57
-46
-41
-60
-33
66
275
753
1181
738
-436
-1085
-765
-273
-96
-44
-6
-7
-2
19
26
33
41
42
48
61
68
74
87
102
113
128
145
162
181
204
230
257
282
305
327
338
338
331
305
249
174
99
31
-26
-67
-95
-113
-121
-124
-122
-118
-115
-110
-104
-101
-99
-95
-93
-95
-96
-93
-91
-92
-94
-97
-96
-95
-96
-97
-96
-95
-94
-92
-91
-90
-87
-85
-85
-84
-82
-83
-83
-78
-72
-74
-79
-78
-76
-70
-51
-30
-21
-12
-3
-16
-43
-59
-63
-60
-55
-58
-52
-42
-61
-55
25
187
589
1109
954
-126
-1025
-918
-389
-130
-64
-17
-11
-13
8
18
18
25
27
35
50
57
61
75
89
98
112
128
143
161
186
212
235
258
280
298
312
320
315
298
261
197
116
39
-17
-60
-95
-118
-123
-122
-122
-120
-114
-111
-110
-107
-106
-106
-101
-96
-96
-96
-96
-99
-102
-102
-105
-110
-109
-105
-103
-103
-102
-102
-102
-103
-102
-95
-85
-84
-89
-88
-81
-80
-83
-79
-70
-63
-63
-62
-53
-41
-28
-14
-3
7
18
12
-7
-21
-28
-27
-26
-34
-24
-4
-19
-14
79
252
616
1088
976
-7
-920
-942
-484
-176
-46
22
35
38
55
61
60
67
72
74
82
92
99
104
112
124
135
147
162
176
191
211
234
255
273
290
302
308
303
285
252
198
123
48
-11
-57
-95
-117
-126
-130
-130
-127
-129
-128
-122
-122
-125
-119
-115
-121
-124
-122
-122
-123
-122
-124
-129
-129
-129
-130
-130
-128
-125
-122
-119
-115
-109
-108
-113
-115
-107
-100
-99
-98
-93
-88
-88
-91
-91
-90
-87
-70
-44
-33
-28
-14
-19
-51
-70
-69
-69
-66
-65
-61
-53
-67
-70
-2
144
509
1068
1086
97
-936
-972
-436
-141
-83
-33
-9
-7
16
30
35
62
81
66
55
82
120
129
126
139
159
172
185
205
229
254
275
298
323
347
361
368
371
361
320
252
174
101
36
-26
-80
-113
-126
-132
-136
-134
-129
-125
-123
-120
-116
-116
-118
-115
-112
-115
-118
-116
-115
-120
-126
-125
-123
-121
-118
-116
-115
-113
-115
-118
-113
-106
-107
-102
-81
-61
-53
-45
-47
-70
-89
-92
-92
-93
-97
-100
-85
-86
-100
-60
43
307
864
1198
526
-685
-1156
-743
-290
-123
-55
-22
-22
-8
1
0
13
25
28
39
57
65
66
75
94
113
129
148
171
193
218
249
283
309
330
349
366
364
337
289
224
142
60
-3
-53
-94
-119
-129
-130
-127
-125
-125
-120
-111
-106
-104
-102
-99
-94
-91
-93
-94
-93
-92
-92
-93
-95
-97
-97
-94
-89
-88
-93
-91
-85
-82
-79
-72
-71
-77
-78
-75
-75
-72
-65
-49
-30
-18
-6
3
-11
-39
-53
-56
-52
-49
-59
-55
-45
-61
-46
42
225
666
1157
876
-272
-1083
-875
-345
-113
-53
-11
-10
-6
16
19
18
28
35
40
48
56
67
82
96
104
116
134
154
173
195
220
246
274
302
324
338
340
329
305
258
184
103
35
-22
-75
-110
-122
-123
-128
-135
-136
-132
-128
-120
-108
-103
-110
-117
-112
-104
-109
-121
-124
-116
-111
-111
-115
-118
-119
-117
-117
-118
-117
-117
-117
-114
-111
-106
-97
-99
-105
-100
-97
-98
-90
-88
-97
-78
-36
-24
-30
-14
-6
-35
-58
-44
-23
-33
-61
-45
4
-2
-19
55
203
508
1030
1189
400
-674
-962
-563
-204
-58
14
32
27
43
51
44
47
50
46
48
57
63
66
72
88
104
110
118
138
156
168
190
221
242
257
279
297
297
283
257
212
149
76
8
-45
-83
-112
-126
-128
-132
-131
-118
-105
-106
-108
-103
-100
-101
-99
-97
-99
-98
-98
-106
-111
-109
-113
-119
-118
-120
-123
-116
-106
-109
-114
-110
-105
-103
-102
-100
-91
-72
-59
-57
-47
-35
-47
-71
-85
-87
-79
-75
-86
-79
-70
-89
-71
19
221
729
1254
884
-359
-1140
-865
-333
-127
-73
-30
-24
-15
6
9
13
23
26
33
48
59
69
81
91
107
127
143
162
193
224
250
281
314
338
358
375
378
364
328
262
177
95
17
-47
-87
-111
-133
-142
-136
-132
-131
-127
-120
-114
-106
-102
-101
-96
-95
-99
-99
-96
-97
-102
-103
-101
-101
-103
-106
-105
-105
-105
-101
-96
-94
-93
-90
-90
-90
-84
-81
-83
-83
-75
-61
-46
-33
-20
-8
-12
-32
-52
-63
-64
-59
-62
-66
-54
-58
-69
-14
114
410
943
1142
351
-790
-1086
-607
-206
-89
-30
-3
-9
6
23
23
30
41
47
54
62
70
80
92
104
118
133
148
170
197
213
228
268
311
325
337
361
363
336
300
242
158
76
11
-44
-84
-104
-118
-130
-134
-130
-124
-120
-114
-110
-107
-106
-102
-97
-95
-95
-96
-97
-100
-100
-99
-101
-104
-103
-101
-100
-100
-99
-96
-92
-90
-89
-85
-79
-76
-75
-75
-74
-72
-70
-69
-67
-67
-68
-67
-64
-66
-65
-47
-24
-14
-10
1
-2
-25
-45
-51
-51
-49
-52
-51
-33
-40
-58
-5
119
412
956
1158
350
-789
-1062
-578
-188
-76
-22
-4
-13
2
16
19
27
34
36
44
53
60
70
80
92
110
128
141
161
187
209
233
263
288
307
326
340
342
331
298
241
173
102
33
-27
-71
-101
-117
-120
-118
-118
-119
-116
-110
-105
-104
-101
-97
-94
-90
-88
-94
-99
-92
-89
-99
-105
-97
-95
-102
-101
-92
-90
-94
-95
-98
-103
-97
-81
-78
-86
-85
-76
-72
-68
-67
-74
-75
-64
-60
-63
-58
-51
-53
-54
-50
-43
-28
-11
-5
5
18
10
-15
-33
-37
-32
-32
-43
-36
-27
-48
-27
78
257
656
1121
894
-169
-999
-903
-428
-160
-59
-8
-1
7
26
25
23
37
50
55
60
63
65
75
97
115
123
134
147
158
178
215
244
258
274
299
325
338
327
304
280
230
147
69
16
-30
-74
-102
-110
-112
-115
-118
-114
-107
-103
-98
-88
-86
-93
-97
-97
-100
-101
-97
-95
-95
-96
-104
-121
-124
-106
-94
-100
-109
-107
-102
-105
-108
-103
-93
-87
-88
-88
-83
-80
-87
-88
-75
-67
-73
-75
-73
-76
-75
-62
-56
-60
-63
-62
-47
-21
-7
-1
13
10
-23
-44
-38
-33
-43
-59
-59
-38
-39
-42
14
153
531
1114
1142
134
-928
-982
-449
-142
-68
-13
5
4
16
16
19
43
49
36
39
58
74
83
88
101
126
146
157
174
201
227
255
286
314
339
362
376
375
360
326
258
168
86
18
-43
-87
-114
-131
-135
-129
-127
-129
-127
-123
-120
-115
-110
-108
-102
-90
-82
-90
-107
-110
-100
-97
-110
-118
-112
-105
-103
-106
-106
-99
-99
-111
-112
-96
-89
-95
-94
-88
-89
-89
-85
-84
-79
-83
-108
-107
-67
-60
-80
-51
-7
-10
-19
-8
-20
-45
-53
-59
-63
-55
-51
-40
-37
-72
-60
55
245
652
1140
924
-175
-1044
-940
-435
-148
-44
-12
-25
0
49
47
25
29
45
67
83
79
82
104
111
105
120
145
158
177
211
237
259
291
317
325
333
350
367
357
299
216
145
74
-9
-65
-89
-115
-141
-148
-141
-135
-140
-147
-134
-127
-138
-123
-89
-96
-118
-112
-105
-111
-112
-112
-112
-105
-109
-117
-111
-114
-127
-114
-90
-95
-102
-97
-109
-118
-88
-67
-97
-110
-74
-60
-91
-92
-53
-33
-26
-9
-16
-55
-77
-67
-57
-68
-92
-82
-38
-47
-79
-20
116
416
990
1234
417
-785
-1084
-567
-167
-95
-58
-1
13
12
15
16
28
40
30
25
55
84
83
84
106
127
134
145
174
211
235
259
296
328
348
374
394
382
354
328
274
182
91
19
-43
-85
-107
-128
-139
-129
-123
-134
-133
-113
-100
-99
-97
-92
-90
-92
-94
-92
-90
-93
-97
-97
-93
-94
-102
-107
-101
-98
-105
-103
-93
-93
-99
-92
-86
-91
-91
-85
-83
-84
-83
-81
-80
-83
-87
-81
-75
-77
-69
-48
-37
-27
-11
-17
-49
-68
-71
-73
-73
-79
-73
-51
-65
-86
-24
122
457
1022
1157
256
-868
-1047
-524
-168
-96
-60
-41
-38
-16
-4
-5
10
21
20
25
36
41
49
65
81
95
114
131
145
170
205
235
261
288
305
318
347
374
363
318
252
169
81
15
-34
-83
-118
-127
-133
-144
-136
-115
-113
-121
-115
-103
-96
-98
-107
-100
-79
-81
-99
-97
-87
-90
-88
-80
-84
-89
-84
-84
-94
-97
-90
-85
-81
-68
-58
-71
-88
-76
-56
-55
-54
-45
-44
-47
-45
-52
-57
-42
-27
-29
-25
-2
12
17
38
42
5
-20
-10
-7
-17
-25
-23
-1
5
-16
26
153
415
920
1229
612
-533
-1014
-676
-270
-94
-5
30
34
54
61
53
68
90
86
83
98
106
97
103
129
145
148
162
186
207
230
252
265
282
313
342
357
366
369
345
286
202
116
49
-7
-68
-125
-150
-151
-154
-162
-168
-169
-160
-146
-145
-154
-152
-141
-142
-158
-164
-152
-146
-161
-181
-182
-169
-165
-175
-184
-192
-190
-171
-173
-204
-207
-174
-159
-170
-178
-181
-180
-174
-174
-166
-141
-118
-101
-99
-122
-144
-144
-149
-161
-159
-148
-129
-121
-149
-143
-57
126
586
1170
1006
-147
-1095
-987
-454
-195
-113
-47
-39
-45
-16
7
12
21
36
52
65
77
94
110
125
149
179
208
232
256
292
336
372
405
448
488
510
527
539
523
472
397
314
240
181
134
102
89
