# session 10
-25
12
-95
-116
225
648
711
561
533
559
508
457
435
394
370
382
353
306
366
537
885
1444
1528
441
-938
-1210
-580
-79
92
179
200
183
196
206
207
229
252
268
299
337
370
413
459
481
473
447
422
393
342
266
181
102
35
-15
-51
-79
-100
-118
-132
-147
-165
-185
-203
-217
-230
-246
-255
-252
-263
-292
-290
-254
-250
-284
-309
-333
-356
-346
-341
-344
-293
-203
154
1046
1574
523
-1171
-1584
-866
-349
-236
-166
-131
-98
-8
36
35
62
84
96
139
184
199
215
262
314
321
279
237
226
227
197
127
62
23
-10
-33
-31
-29
-44
-56
-61
-70
-77
-85
-96
-104
-112
-116
-108
-101
-105
-97
-79
-86
-120
-151
-172
-176
-143
-114
-147
-170
-122
-11
396
1083
1098
-94
-1273
-1256
-612
-261
-177
-124
-110
-105
-77
-66
-55
-23
7
34
67
102
147
199
243
274
290
291
291
295
280
231
166
104
50
14
-4
-15
-24
-27
-33
-43
-48
-51
-59
-63
-57
-55
-65
-70
-54
-37
-45
-55
-38
-23
-44
-70
-82
-89
-72
-56
-85
-77
10
195
701
1252
800
-647
-1505
-1088
-410
-157
-76
2
23
40
70
83
96
113
133
179
242
291
331
373
403
414
420
420
405
380
343
270
171
95
52
12
-34
-58
-62
-72
-91
-100
-109
-127
-141
-155
-167
-151
-130
-139
-141
-127
-146
-172
-150
-131
-160
-178
-173
-186
-181
-168
-194
-170
-57
158
718
1284
720
-856
-1701
-1206
-514
-262
-155
-86
-97
-82
-37
-29
-19
19
58
95
139
187
237
283
317
335
338
330
310
276
227
163
91
27
-18
-45
-65
-81
-90
-93
-92
-95
-105
-112
-114
-116
-117
-113
-112
-114
-105
-96
-105
-104
-72
-59
-86
-101
-100
-108
-93
-85
-113
-83
14
243
885
1438
697
-941
-1591
-930
-277
-113
-33
35
29
51
89
96
121
161
187
221
274
327
378
429
464
476
474
465
450
427
382
309
226
163
119
89
73
61
45
37
41
38
24
10
4
-2
-11
-15
-13
-19
-30
-26
-19
-25
-24
-2
-2
-38
-65
-80
-95
-86
-84
-117
-106
-29
193
769
1213
515
-935
-1521
-957
-366
-203
-142
-93
-101
-93
-72
-73
-60
-29
-4
28
70
103
134
178
221
240
238
233
228
211
164
90
13
-52
-97
-124
-147
-180
-207
-213
-209
-216
-233
-248
-256
-262
-269
-275
-278
-274
-275
-287
-286
-274
-281
-289
-265
-253
-292
-327
-328
-330
-330
-318
-338
-344
-254
-40
424
911
540
-803
-1748
-1475
-788
-440
-301
-215
-213
-213
-175
-153
-134
-88
-41
-10
26
83
150
203
248
292
325
340
343
330
291
219
136
71
27
-14
-41
-48
-60
-72
-56
-30
-34
-47
-33
-14
-18
-20
-5
9
24
47
68
89
111
118
123
157
193
190
177
184
191
208
244
244
261
373
562
1008
1674
1581
217
-1048
-955
-197
222
363
467
494
497
543
581
601
631
669
713
761
809
860
919
973
1008
1018
1012
995
963
911
840
755
669
603
562
531
500
476
462
450
435
421
409
394
370
344
323
306
287
267
249
233
223
205
167
140
142
126
69
20
-17
-58
-76
-104
-168
-169
-109
90
754
1361
592
-1180
-1950
-1332
-715
-620
-602
-579
-634
-667
-674
-706
-737
-759
-776
-777
-775
-776
-775
-776
-784
-811
-864
-932
-1004
-1086
-1187
-1308
-1445
-1585
-1704
-1792
-1861
-1923
-1979
-2027
-2079
-2140
-2194
-2239
-2295
-2359
-2413
-2462
-2519
-2572
-2616
-2659
-2708
-2751
-2775
-2796
-2820
-2804
-2741
-2708
-2725
-2725
-2744
-2825
-2814
-2604
-2267
-1728
-892
105
1081
1541
822
-455
-718
116
793
945
1008
1080
1200
1573
2167
2873
3555
3877
3867
4035
4468
4773
4862
4842
4671
4530
4877
5654
6148
6347
7323
9170
10346
10142
9457
8864
8224
7496
6387
4591
2712
1512
890
481
216
41
-110
-239
-388
-551
-649
-706
-793
-892
-979
-1089
-1241
-1397
-1524
-1633
-1755
-1891
-2040
-2205
-2335
-2412
-2526
-2632
-2591
-2431
-2049
-1422
-1475
-2867
-4265
-4220
-3387
-2893
-2695
-2535
-2472
-2428
-2332
-2266
-2223
-2154
-2083
-2008
-1913
-1811
-1704
-1591
-1479
-1362
-1243
-1151
-1089
-1035
-1002
-1014
-1046
-1055
-1051
-1066
-1074
-1036
-984
-960
-939
-898
-857
-819
-772
-727
-686
-631
-567
-507
-439
-365
-303
-245
-173
-116
-87
-41
35
67
43
43
66
72
111
166
161
207
378
649
1252
1922
1448
-218
-1224
-745
34
336
469
572
579
601
656
681
702
732
759
796
836
873
927
994
1043
1068
1068
1041
992
933
865
779
679
585
507
458
442
431
399
374
373
367
348
334
323
310
300
294
289
288
287
285
292
312
318
306
313
341
340
317
316
311
296
321
329
285
309
391
621
1338
1947
1125
-624
-1302
-665
-81
40
115
168
132
126
150
146
146
157
163
172
188
216
265
312
340
354
343
298
248
209
154
66
-33
-115
-170
-212
-246
-264
-268
-277
-290
-302
-313
-325
-337
-347
-357
-369
-387
-401
-406
-412
-421
-415
-402
-408
-417
-400
-380
-392
-411
-417
-426
-426
-407
-418
-427
-350
-183
202
767
741
-353
-1487
-1555
-965
-559
-407
-320
-294
-287
-254
-232
-223
-193
-147
-111
-75
-23
38
96
158
223
269
279
259
224
185
137
70
-5
-75
-125
-148
-154
-160
-162
-153
-136
-123
-123
-127
-129
-134
-146
-141
-121
-115
-116
-108
-103
-92
-59
-39
-42
-23
6
-3
-14
-2
-7
-8
18
5
2
106
294
730
1412
1382
36
-1323
-1346
-615
-171
-22
79
115
126
156
168
185
227
253
266
311
378
427
470
538
605
621
590
556
523
462
377
291
206
121
59
36
30
12
-16
-29
-23
-20
-22
-23
-30
-45
-57
-67
-86
-101
-102
-98
-97
-95
-100
-115
-109
-66
-33
-53
-96
-110
-111
-116
-96
-90
-127
-84
55
313
986
1627
940
-822
-1681
-1110
-427
-224
-124
-40
-34
-10
27
38
64
93
104
137
190
236
287
358
423
462
463
419
349
274
190
92
2
-70
-132
-182
-207
-212
-210
-203
-189
-179
-180
-183
-185
-191
-198
-209
-226
-240
-244
-251
-251
-241
-239
-240
-227
-224
-236
-213
-167
-167
-194
-191
-185
-183
-169
-189
-207
-139
18
502
1356
1504
169
-1304
-1404
-708
-308
-186
-84
-55
-56
-24
-5
17
70
112
136
174
229
289
357
425
478
516
531
502
443
380
311
231
156
83
13
-28
-37
-38
-32
-11
-3
-15
-26
-23
-13
-11
-20
-28
-40
-61
-75
-75
-80
-93
-95
-90
-85
-83
-94
-111
-101
-79
-92
-126
-148
-162
-163
-142
-142
-159
-112
15
292
822
1107
376
-903
-1394
-920
-390
-191
-109
-67
-67
-49
-21
-4
18
40
55
80
121
161
208
275
347
396
410
389
349
310
257
181
110
46
-33
-99
-132
-170
-199
-169
-120
-112
-118
-107
-112
-130
-114
-92
-115
-140
-125
-116
-129
-126
-107
-93
-87
-86
-77
-61
-66
-66
-23
-3
-43
-60
-43
-55
-45
-10
-50
-70
57
284
808
1578
1470
-34
-1376
-1288
-585
-233
-99
11
35
48
101
134
144
166
207
254
296
337
381
420
460
493
493
469
423
346
253
169
86
3
-63
-120
-172
-190
-165
-135
-136
-154
-158
-151
-147
-153
-179
-201
-179
-144
-153
-184
-194
-191
-193
-196
-197
-188
-171
-165
-166
-147
-122
-135
-168
-171
-162
-158
-137
-140
-173
-122
30
362
1064
1516
650
-949
-1539
-958
-377
-173
-65
-15
-3
42
44
13
52
108
101
94
141
203
260
324
388
440
476
483
453
404
350
285
215
146
81
22
-22
-42
-48
-55
-62
-60
-54
-59
-76
-94
-106
-114
-127
-142
-158
-175
-189
-201
-232
-275
-282
-255
-242
-243
-226
-214
-227
-241
-247
-257
-238
-207
-226
-235
-166
-17
434
1158
1192
-13
-1246
-1298
-695
-339
-215
-111
-76
-84
-58
-19
7
27
58
104
143
182
249
325
378
435
507
545
535
508
464
390
306
230
155
90
59
42
21
20
46
57
44
37
34
20
2
-8
-15
-23
-29
-35
-42
-58
-89
-118
-123
-115
-116
-115
-93
-74
-89
-110
-114
-123
-118
-99
-120
-114
-24
132
664
1574
1619
119
-1332
-1318
-641
-320
-207
-101
-90
-90
-48
-38
-35
-1
28
51
96
151
206
276
359
429
466
464
429
372
289
169
50
-32
-101
-179
-236
-254
-254
-245
-229
-212
-195
-180
-176
-173
-160
-162
-184
-193
-186
-189
-194
-181
-177
-198
-207
-192
-189
-175
-93
6
25
-10
-33
-58
-72
-60
-83
-111
-63
72
528
1310
1399
139
-1183
-1222
-567
-237
-185
-132
-109
-100
-65
-51
-54
-47
-41
-19
27
74
127
201
294
408
519
595
658
701
653
525
400
275
144
57
21
2
15
59
82
69
44
18
-8
-37
-70
-85
-84
-114
-166
-181
-168
-185
-212
-209
-207
-230
-241
-221
-214
-227
-212
-182
-202
-242
-238
-230
-233
-211
-229
-269
-188
-34
330
1189
1680
554
-1226
-1674
-978
-498
-377
-228
-146
-156
-123
-88
-84
-54
0
50
102
151
204
286
384
469
533
566
556
510
441
351
251
162
79
-2
-56
-75
-84
-91
-82
-67
-61
-51
-31
-19
-23
-32
-44
-55
-61
-64
-70
-77
-83
-89
-88
-77
-77
-86
-78
-69
-76
-68
-42
-51
-88
-96
-98
-110
-88
-88
-149
-129
-29
193
956
1829
1297
-523
-1518
-1031
-407
-257
-163
-55
-41
-12
39
52
74
129
168
196
252
324
388
462
559
641
678
676
641
579
505
419
309
190
86
2
-53
-78
-93
-90
-67
-75
-105
-83
-44
-73
-119
-95
-68
-132
-225
-230
-176
-156
-166
-165
-180
-235
-270
-205
-104
-119
-218
-227
-166
-175
-244
-305
-344
-347
-358
-417
-467
-479
-447
-296
28
488
751
242
-885
-1594
-1412
-863
-454
-324
-343
-220
-40
-82
-162
-67
8
-10
10
34
36
135
307
410
447
526
624
616
448
219
134
206
80
-257
-220
163
189
-28
57
135
-133
-333
-220
-73
-81
-159
-148
-31
58
117
244
393
449
354
232
389
727
766
601
651
717
592
596
678
453
123
70
124
8
-194
-291
-228
-99
29
379
913
737
-538
-1633
-1520
-917
-583
-299
-17
-8
-134
-133
52
380
531
341
253
317
82
-121
72
86
-114
54
276
200
291
532
371
-48
-242
-196
-130
-192
-379
-435
-233
-95
-169
-198
-210
-456
-757
-823
-767
-748
-693
-561
-356
-13
309
342
302
446
444
244
415
891
947
559
339
416
393
172
79
194
258
273
518
922
890
25
-1060
-1335
-802
-311
-154
-53
-15
-80
33
294
317
141
93
130
55
-52
-66
-105
-291
-402
-204
12
-119
-318
-216
-65
-164
-290
-239
-207
-341
-480
-433
-278
-239
-276
-200
-183
-440
-679
-611
-394
-214
-96
-31
68
185
176
173
371
485
249
-1
6
-28
-211
-193
38
102
-72
-192
-91
109
435
1105
1520
622
-1002
-1657
-1241
-792
-493
-202
-68
168
520
405
125
370
574
367
576
1158
1214
968
944
814
554
586
766
810
811
746
512
273
130
-32
-190
-221
-196
-276
-470
-596
-466
-285
-465
-780
-694
-438
-490
-625
-522
-295
-71
113
221
285
238
31
-126
-151
-206
-247
-172
-156
-218
-129
96
477
1238
1800
1086
-503
-1356
-1034
-469
-236
-169
-139
-210
-267
-82
204
226
128
255
350
191
152
256
69
-267
-286
-121
-130
-212
-204
-284
-435
-322
-66
-95
-316
-437
-486
-445
-269
-196
-273
-201
-38
-105
-295
-342
-322
-348
-380
-421
-474
-425
-209
55
199
229
286
336
213
-10
-136
-172
-105
160
570
1144
1638
1143
-392
-1392
-1027
-294
13
102
138
77
-6
-47
-21
60
73
32
168
443
564
612
801
897
815
951
1245
1215
902
603
337
137
-3
-174
-244
-226
-421
-641
-478
-220
-245
-262
-62
16
-139
-188
-90
-125
-239
-257
-324
-459
-441
-356
-378
-384
-372
-434
-317
39
243
264
373
603
1195
2033
1778
16
-1388
-1261
-627
-349
-274
-279
-263
-120
-64
-145
-138
-124
-223
-217
-99
-109
-112
105
338
434
555
746
868
857
795
779
674
307
-26
42
220
70
-228
-355
-447
-693
-896
-918
-1002
-1111
-812
-377
-461
-635
-318
-150
-464
-454
-20
55
-226
-294
-136
-38
-68
-147
-158
-45
265
831
1140
473
-673
-1055
-589
-114
112
280
359
323
328
404
390
282
265
306
213
110
153
101
-135
-208
-49
47
24
-12
-74
-163
-242
-300
-305
-268
-213
-99
3
-68
-177
-95
3
-25
68
236
145
-53
-84
-92
-152
-178
-223
-212
-46
32
-116
-182
2
83
-140
-238
-11
236
814
1905
2033
400
-1097
-1084
-625
-432
-73
216
25
-198
-149
-11
247
586
687
570
476
324
109
99
250
315
367
468
468
456
540
403
-30
-257
-174
-221
-419
-391
-163
-102
-268
-344
-197
-35
65
174
220
248
349
268
-52
-154
34
137
235
519
619
311
-78
-282
-224
-6
23
146
1020
1711
737
-969
-1512
-1137
-960
-887
-616
-458
-533
-582
-510
-434
-423
-437
-424
-373
-313
-255
-125
78
206
254
352
449
441
346
199
67
-9
-116
-256
-289
-232
-231
-283
-294
-275
-278
-272
-201
-119
-166
-325
-363
-234
-190
-241
-79
419
1052
1232
378
-870
-1104
-348
164
138
122
205
293
492
603
411
239
302
314
201
213
278
184
167
426
589
443
362
437
302
38
11
61
-93
-266
-250
-182
-220
-289
-252
-175
-216
-286
-226
-153
-167
-118
48
182
193
118
77
124
87
-106
-220
-143
-59
-80
-149
-156
-45
71
85
60
36
-8
-8
30
17
