# session 12
18
-4
43
38
-125
-295
-306
-241
-205
-166
-110
-70
-30
20
69
124
181
210
218
226
226
220
239
264
247
202
172
145
107
85
78
54
26
15
7
6
31
49
21
-20
-23
1
8
-8
-31
-57
-56
-33
-48
-60
15
196
601
1070
765
-523
-1506
-1297
-633
-298
-180
-101
-95
-108
-95
-86
-79
-63
-42
-6
28
44
61
93
131
170
198
209
212
212
206
190
159
112
62
19
-15
-45
-69
-82
-88
-100
-102
-87
-92
-127
-144
-130
-131
-152
-165
-175
-178
-152
-148
-166
-120
5
297
777
743
-390
-1572
-1473
-608
-128
-40
38
77
67
91
113
119
149
179
193
216
244
259
273
292
312
335
351
348
337
331
312
270
219
178
149
120
80
37
14
-3
-32
-51
-47
-58
-89
-97
-88
-102
-127
-149
-173
-165
-142
-166
-180
-168
-118
367
1167
950
-603
-1624
-1118
-348
-181
-162
-69
-64
-68
-21
2
12
44
78
108
139
170
198
222
249
280
302
308
312
317
307
267
206
152
113
71
20
-27
-62
-85
-95
-100
-109
-109
-102
-114
-129
-110
-87
-93
-106
-116
-120
-97
-90
-115
-104
-54
185
752
886
-241
-1584
-1573
-676
-180
-110
-37
-3
-20
9
35
37
61
94
117
145
180
215
246
271
303
348
378
378
376
373
342
289
254
231
170
94
62
41
-8
-2
59
34
-29
22
58
-48
-100
-26
-16
-75
-75
-58
-81
-103
-126
-162
-179
-112
199
588
322
-728
-1448
-1149
-536
-290
-252
-207
-190
-191
-175
-159
-139
-104
-68
-40
-16
11
45
92
146
192
225
247
275
316
338
298
225
172
127
67
31
43
50
17
-17
-23
-20
-13
-3
-8
-8
18
36
41
57
38
-29
-44
2
11
-2
52
253
630
781
135
-915
-1272
-786
-257
-69
-22
12
15
10
15
22
36
60
80
82
92
137
196
243
270
283
292
303
304
289
259
213
144
68
17
0
-9
-33
-56
-61
-62
-74
-72
-55
-64
-93
-86
-63
-74
-93
-96
-103
-100
-91
-92
-74
-88
-29
509
1138
576
-964
-1590
-878
-214
-119
-76
-5
-50
-72
-25
-1
9
41
75
97
119
143
157
173
208
249
267
267
265
254
228
203
179
134
76
37
15
-7
-23
-33
-42
-47
-46
-46
-57
-73
-68
-49
-55
-80
-100
-118
-124
-116
-118
-123
-150
-107
344
969
681
-621
-1417
-993
-349
-170
-141
-79
-80
-86
-63
-53
-33
3
18
35
75
109
133
168
210
240
259
274
285
284
264
214
145
93
67
35
-4
-24
-35
-57
-71
-68
-55
-41
-46
-67
-63
-30
-16
-37
-57
-64
-85
-97
-71
-63
-80
-32
140
478
781
445
-604
-1377
-1214
-644
-269
-91
-16
-20
-29
-12
18
53
73
86
114
143
172
218
270
315
359
394
405
397
383
347
280
205
146
100
60
27
-1
-21
-28
-26
-33
-43
-38
-38
-64
-78
-63
-60
-82
-94
-108
-123
-110
-107
-138
-129
-58
192
714
819
-231
-1499
-1539
-729
-240
-138
-54
-17
-34
-10
18
23
47
87
127
165
198
231
270
300
317
329
334
330
309
264
209
162
120
71
27
-2
-22
-42
-57
-62
-67
-78
-79
-79
-102
-113
-80
-55
-76
-98
-109
-112
-91
-92
-119
-128
-152
108
961
1380
182
-1395
-1432
-514
-111
-126
-50
-11
-42
-10
21
19
41
74
99
129
158
185
210
223
223
222
218
213
206
189
160
124
84
45
11
-17
-34
-46
-64
-74
-70
-81
-92
-77
-76
-103
-92
-58
-78
-109
-94
-93
-117
-104
-87
-96
-127
-115
280
961
765
-661
-1652
-1169
-345
-125
-126
-47
-21
-25
0
12
15
33
62
99
129
149
177
205
221
232
245
253
253
236
204
166
132
94
52
21
-1
-26
-45
-50
-51
-56
-64
-59
-40
-33
-45
-31
-2
-15
-50
-60
-54
-40
-34
-50
-69
-94
6
508
993
464
-843
-1448
-949
-333
-136
-98
-59
-44
-32
-19
-11
15
43
60
92
139
177
213
265
315
349
382
413
417
397
369
315
232
168
135
95
49
27
19
3
-9
-3
1
-9
-22
-27
-22
-20
-37
-56
-61
-77
-86
-63
-61
-86
-51
90
421
821
607
-497
-1459
-1358
-701
-283
-121
-27
-9
-22
10
52
71
88
112
141
178
221
262
292
310
328
349
353
338
310
256
182
113
53
-10
-63
-88
-104
-134
-159
-157
-153
-169
-173
-164
-184
-207
-184
-169
-201
-217
-210
-221
-219
-212
-243
-265
-248
-33
567
887
-8
-1350
-1546
-766
-249
-193
-161
-112
-98
-72
-63
-69
-39
2
23
61
118
156
169
186
214
232
238
251
261
251
228
201
157
113
104
101
70
47
62
68
46
33
34
25
19
28
43
59
76
83
66
38
41
62
47
42
86
208
610
1113
838
-360
-1224
-1012
-433
-130
0
67
57
56
80
83
89
114
137
164
198
231
272
314
331
333
335
332
323
308
279
225
150
78
37
18
-6
-38
-63
-75
-77
-81
-88
-84
-94
-139
-153
-110
-94
-131
-166
-181
-182
-174
-201
-231
-181
-41
284
769
724
-323
-1417
-1463
-853
-434
-261
-147
-114
-112
-78
-47
-27
3
37
74
111
133
163
213
245
241
225
198
160
129
101
48
-16
-59
-89
-117
-123
-111
-101
-88
-78
-83
-74
-35
-28
-59
-48
-5
-3
-25
-40
-72
-86
-73
-106
-130
-126
-81
497
1562
1538
-179
-1537
-1181
-380
-175
-135
-33
-40
-40
19
15
-1
40
88
123
168
212
252
293
318
311
285
264
252
232
194
144
92
51
29
16
2
-9
-8
-6
-13
-21
-18
-9
-15
-44
-56
-33
-26
-59
-101
-132
-134
-130
-172
-192
-192
-175
344
1338
1279
-400
-1656
-1189
-337
-152
-152
-60
-56
-63
-13
4
2
30
69
101
125
151
192
231
243
227
196
175
171
161
135
108
83
57
36
20
1
-19
-30
-32
-31
-38
-49
-52
-55
-76
-92
-72
-52
-70
-95
-111
-120
-105
-101
-125
-133
-157
9
729
1242
279
-1341
-1640
-764
-199
-144
-85
-31
-41
-11
23
27
57
99
122
145
186
231
267
287
293
283
267
258
253
233
187
135
94
61
30
7
-8
-25
-44
-57
-62
-67
-71
-64
-61
-73
-69
-46
-46
-68
-84
-96
-87
-62
-77
-101
-105
-90
282
1054
1057
-342
-1560
-1256
-398
-98
-74
10
25
9
44
63
66
96
123
138
172
211
232
251
279
293
291
290
290
270
231
195
158
100
43
17
4
-19
-38
-48
-58
-66
-70
-79
-77
-66
-76
-92
-83
-79
-101
-115
-122
-137
-135
-137
-163
-186
-191
18
589
841
-4
-1188
-1367
-730
-286
-191
-132
-88
-83
-62
-42
-36
-16
18
52
90
128
160
192
225
258
281
285
280
275
260
222
169
122
81
39
-1
-35
-45
-30
-29
-51
-49
-26
-23
-33
-34
-36
-36
-24
-17
-30
-59
-83
-71
-49
-72
-89
-50
63
424
904
678
-481
-1389
-1201
-559
-201
-74
-3
9
14
49
75
91
113
133
158
201
246
278
306
337
363
382
394
385
347
297
244
190
136
81
33
6
-4
-23
-41
-46
-47
-54
-63
-67
-72
-97
-117
-104
-95
-116
-132
-145
-162
-144
-131
-164
-155
-61
204
769
1037
134
-1257
-1590
-918
-379
-218
-108
-56
-76
-57
-29
-27
-2
41
72
99
140
192
239
266
274
277
278
268
232
175
118
66
13
-27
-40
-53
-81
-100
-95
-87
-83
-79
-79
-78
-74
-91
-117
-100
-64
-66
-91
-109
-114
-88
-86
-129
-121
-115
12
789
1674
1012
-862
-1619
-848
-190
-138
-94
-18
-42
-22
34
39
44
78
117
154
194
237
274
287
281
273
250
218
203
193
166
129
90
48
17
5
-3
-9
-12
-25
-39
-38
-41
-50
-41
-37
-64
-76
-44
-24
-42
-65
-93
-109
-89
-89
-110
-107
-123
139
965
1315
75
-1459
-1448
-531
-126
-117
-34
-1
-27
10
34
34
68
94
104
150
196
204
222
258
258
235
243
253
222
176
137
85
26
-13
-37
-55
-70
-87
-102
-108
-115
-126
-124
-120
-125
-115
-100
-113
-126
-114
-111
-130
-149
-163
-159
-142
-146
-159
-165
-68
371
840
414
-821
-1481
-1044
-415
-168
-83
-30
-27
-8
21
26
51
89
114
149
190
215
250
303
351
393
414
400
381
371
340
286
239
193
133
77
41
21
9
-6
-19
-14
-18
-44
-36
3
-16
-73
-71
-40
-59
-90
-81
-81
-103
-100
-98
-109
-52
158
576
927
506
-705
-1522
-1257
-615
-269
-121
-36
-30
-18
34
53
40
53
99
144
178
216
257
295
338
367
357
338
328
291
237
199
149
71
22
12
-9
-40
-45
-42
-54
-59
-59
-65
-59
-39
-57
-112
-129
-99
-99
-131
-131
-125
-151
-156
-152
-179
-167
-57
252
778
852
-169
-1399
-1511
-805
-324
-189
-98
-54
-58
-43
-27
-12
36
86
118
152
195
238
277
300
305
307
306
289
253
208
159
112
73
39
10
-4
-7
-10
-7
7
21
30
34
34
36
21
-21
-43
-18
-5
-29
-42
-58
-75
-50
-52
-104
-97
-53
224
1086
1633
498
-1289
-1578
-671
-160
-128
-44
-2
-42
-13
19
10
33
66
85
125
184
234
278
304
301
286
253
199
165
144
85
0
-54
-85
-109
-113
-105
-111
-124
-138
-150
-148
-140
-147
-155
-149
-160
-192
-187
-153
-150
-169
-181
-186
-159
-138
-183
-191
-130
-27
527
1420
1202
-504
-1683
-1216
-410
-188
-123
-25
-30
-28
16
26
47
95
120
145
196
251
300
348
377
369
343
321
289
242
204
169
105
35
-6
-25
-30
-16
-8
-16
-23
-33
-54
-74
-81
-79
-81
-96
-100
-80
-77
-106
-119
-120
-131
-120
-115
-154
-159
-122
41
632
1192
552
-957
-1570
-960
-355
-205
-125
-58
-76
-64
-15
0
14
55
97
134
180
231
278
316
341
346
329
307
295
267
207
148
112
76
40
27
29
18
-1
-2
2
-13
-25
-13
-5
-9
-8
-19
-43
-38
-16
-24
-50
-72
-94
-100
-109
-137
-124
-101
4
580
1329
982
-518
-1451
-1076
-441
-219
-141
-75
-81
-73
-26
-3
1
23
77
135
168
197
239
267
282
305
312
301
301
292
232
150
92
60
31
-6
-33
-39
-53
-85
-99
-99
-108
-106
-101
-120
-131
-134
-171
-191
-141
-115
-164
-197
-192
-193
-187
-180
-186
-154
-54
313
1043
1264
127
-1329
-1560
-896
-433
-264
-134
-88
-80
-39
-28
-30
18
69
100
151
210
251
295
339
347
322
296
272
246
215
167
97
31
-17
-38
-32
-34
-65
-78
-49
-40
-67
-67
-43
-51
-75
-71
-70
-92
-86
-53
-56
-80
-90
-102
-89
-61
-97
-109
-24
143
702
1512
1249
-413
-1593
-1217
-449
-167
-59
28
10
11
54
63
73
97
115
146
190
232
278
317
340
352
336
287
246
225
190
127
47
-22
-46
-37
-38
-51
-57
-55
-54
-56
-55
-46
-46
-63
-64
-51
-65
-78
-59
-57
-85
-108
-136
-152
-133
-144
-162
-133
-80
329
1278
1587
241
-1350
-1443
-668
-296
-245
-152
-117
-135
-110
-83
-65
-31
0
31
72
111
153
206
246
257
245
221
191
155
117
77
32
-19
-64
-92
-105
-112
-116
-114
-112
-116
-119
-111
-102
-107
-119
-118
-115
-122
-122
-108
-110
-121
-125
-142
-147
-115
-128
-173
-138
-65
213
997
1502
537
-1093
-1535
-844
-313
-192
-91
-18
-26
-11
23
35
57
102
148
194
248
301
345
384
413
416
402
384
363
336
288
207
135
101
66
24
11
9
-6
-10
-4
-30
-72
-73
-45
-50
-67
-51
-45
-73
-60
1
5
-47
-59
-62
-107
-109
-81
-111
-96
18
241
862
1514
915
-796
-1692
-1160
-475
-272
-176
-84
-89
-86
-47
-32
-16
30
69
91
135
199
250
286
317
327
303
263
233
213
178
116
48
-5
-42
-60
-67
-73
-74
-68
-66
-64
-64
-76
-88
-92
-101
-115
-115
-127
-170
-184
-149
-142
-181
-209
-231
-248
-239
-258
-281
-225
-122
276
1128
1358
21
-1513
-1551
-732
-315
-231
-131
-97
-93
-40
-8
9
54
99
141
202
264
319
379
424
432
410
376
342
309
267
210
139
69
16
-11
-20
-18
-15
-12
-8
-3
-3
-8
-16
-24
-31
-38
-36
-21
-22
-50
-56
-24
-15
-40
-56
-72
-87
-67
-61
-90
-72
17
294
917
1277
484
-867
-1327
-839
-368
-190
-78
-29
-42
-24
6
7
16
44
74
108
148
186
226
263
283
281
266
247
221
191
150
94
31
-18
-51
-70
-77
-79
-90
-110
-122
-116
-99
-96
-112
-120
-109
-99
-97
-92
-91
-93
-75
-51
-54
-76
-94
-101
-84
-77
-111
-98
-5
175
674
1274
928
-504
-1509
-1241
-580
-282
-175
-92
-79
-76
-48
-33
-23
2
43
94
137
183
254
318
342
345
341
317
288
255
194
122
68
18
-40
-79
-86
-92
-100
-89
-80
-92
-92
-75
-77
-95
-102
-101
-92
-81
-95
-120
-107
-81
-90
-112
-118
-123
-120
-91
-94
-111
-42
143
598
1367
1541
285
-1276
-1522
-804
-311
-164
-49
2
-10
13
55
81
100
122
153
197
251
303
339
376
426
449
411
351
305
251
182
114
46
-23
-67
-83
-94
-109
-123
-129
-121
-100
-92
-114
-145
-160
-160
-144
-122
-136
-180
-181
-130
-110
-129
-134
-145
-161
-129
-107
-136
-117
-25
312
1137
1639
631
-1052
-1525
-858
-339
-190
-81
-58
-88
-48
0
