# session 19
59
149
-43
-55
645
1142
248
-1087
-1267
-635
-248
-150
-81
-69
-77
-52
-42
-45
-30
-16
-8
6
22
39
62
86
110
140
177
216
257
300
337
365
383
387
371
334
279
211
138
68
7
-43
-78
-97
-104
-107
-105
-100
-95
-94
-94
-95
-99
-101
-103
-112
-126
-133
-142
-155
-153
-145
-151
-160
-160
-155
-144
-134
-139
-140
-124
-115
-114
-91
-62
-62
-89
-124
-138
-117
-101
-108
-107
-115
-138
-98
52
368
864
1053
335
-817
-1276
-891
-412
-211
-141
-101
-85
-66
-47
-38
-25
-10
0
11
23
37
56
74
92
116
150
188
221
256
298
332
345
354
359
337
295
258
216
149
83
38
4
-22
-30
-27
-24
-21
-18
-15
-14
-16
-17
-19
-24
-32
-38
-43
-49
-57
-63
-67
-69
-71
-71
-72
-72
-71
-68
-64
-62
-64
-68
-68
-66
-64
-63
-62
-57
-46
-40
-43
-29
0
4
-24
-48
-50
-45
-53
-55
-40
-47
-57
7
164
502
1000
1024
69
-1050
-1218
-672
-260
-132
-73
-50
-49
-32
-23
-22
-10
3
10
19
34
51
72
93
115
141
172
206
245
286
324
353
372
379
370
350
315
260
195
133
77
24
-16
-41
-58
-66
-66
-63
-62
-61
-61
-62
-62
-66
-74
-81
-86
-93
-101
-107
-113
-118
-119
-118
-117
-116
-115
-115
-114
-113
-111
-109
-109
-111
-109
-104
-102
-101
-99
-98
-95
-92
-93
-95
-93
-90
-87
-76
-67
-69
-62
-31
-11
-29
-58
-64
-53
-54
-60
-45
-45
-63
-16
121
417
956
1202
409
-855
-1247
-719
-242
-119
-72
-37
-37
-22
-6
-5
6
20
25
36
52
66
85
107
127
152
180
208
238
277
314
337
350
363
370
357
329
294
247
191
136
82
34
4
-7
-13
-20
-23
-20
-15
-17
-25
-29
-30
-33
-39
-47
-52
-55
-63
-79
-84
-73
-71
-86
-94
-87
-81
-87
-93
-92
-85
-83
-88
-86
-79
-83
-92
-90
-80
-77
-79
-79
-76
-68
-67
-73
-73
-64
-55
-56
-60
-59
-53
-54
-61
-62
-54
-47
-48
-54
-55
-52
-51
-48
-46
-53
-57
-48
-42
-49
-52
-44
-41
-49
-51
-46
-43
-31
-10
-3
0
18
28
5
-25
-33
-30
-38
-38
-20
-25
-45
16
184
459
850
966
293
-753
-1164
-816
-378
-159
-52
-12
-22
-13
18
26
13
38
128
192
140
59
74
132
129
120
170
217
229
281
376
417
396
382
387
388
385
381
370
312
194
112
100
58
-12
-15
4
-25
-41
-27
-54
-84
-49
-21
-67
-112
-92
-67
-83
-107
-112
-108
-106
-115
-127
-123
-110
-113
-119
-114
-112
-112
-102
-99
-115
-128
-124
-124
-139
-151
-151
-151
-155
-157
-158
-163
-167
-168
-169
-169
-167
-165
-162
-157
-150
-140
-128
-115
-103
-93
-79
-51
-20
-1
20
51
67
53
35
38
53
53
54
69
61
43
87
220
564
1129
1244
321
-842
-1079
-583
-200
-93
-55
-48
-53
-40
-35
-37
-30
-26
-23
-13
-2
11
30
48
62
83
114
146
177
215
255
288
318
347
358
348
331
302
251
184
119
68
26
-12
-39
-54
-60
-59
-55
-54
-52
-46
-41
-42
-48
-52
-52
-56
-63
-67
-68
-72
-79
-85
-83
-80
-88
-94
-85
-75
-82
-90
-86
-82
-85
-85
-78
-77
-79
-74
-65
-68
-73
-71
-70
-70
-68
-64
-62
-62
-55
-40
-30
-24
-9
-3
-29
-63
-72
-65
-70
-80
-65
-58
-84
-54
87
327
717
1000
553
-524
-1194
-991
-508
-232
-110
-56
-51
-40
-19
-15
-8
7
18
26
38
53
69
84
103
128
156
185
218
257
299
344
385
413
422
418
396
356
299
227
153
88
34
-12
-41
-56
-65
-67
-61
-54
-49
-45
-41
-39
-41
-44
-45
-45
-50
-50
-44
-50
-70
-81
-78
-82
-94
-101
-102
-93
-81
-85
-100
-97
-88
-91
-92
-86
-85
-83
-75
-74
-80
-83
-80
-79
-77
-73
-72
-67
-48
-30
-22
-11
5
-2
-32
-52
-51
-51
-55
-44
-36
-57
-42
54
253
668
1077
749
-368
-1163
-986
-456
-188
-110
-70
-69
-66
-44
-35
-31
-19
-12
-6
5
17
28
45
65
86
110
140
174
208
246
290
325
346
361
370
355
316
269
218
155
87
28
-19
-61
-94
-102
-90
-88
-96
-80
-56
-65
-84
-82
-79
-81
-73
-71
-79
-86
-91
-94
-82
-69
-78
-94
-92
-85
-91
-96
-88
-83
-89
-89
-80
-78
-81
-79
-78
-80
-71
-57
-58
-57
-31
-5
-7
-6
17
22
-7
-32
-34
-29
-37
-44
-31
-35
-50
16
175
449
885
1057
379
-716
-1167
-843
-414
-185
-74
-42
-43
-25
-16
-18
3
19
16
28
52
60
68
92
110
119
145
189
225
254
293
344
390
416
418
404
379
337
276
204
128
64
16
-31
-73
-85
-79
-86
-97
-91
-80
-76
-75
-73
-74
-75
-75
-83
-92
-91
-92
-111
-120
-109
-111
-127
-130
-124
-124
-123
-122
-126
-126
-118
-111
-111
-112
-110
-103
-95
-95
-99
-95
-88
-90
-92
-88
-84
-81
-64
-42
-33
-23
-4
-2
-25
-48
-53
-47
-48
-49
-34
-31
-36
18
152
440
922
1090
352
-743
-1090
-669
-248
-88
-17
14
17
39
61
61
62
70
76
84
95
101
109
125
141
151
163
185
213
241
273
306
330
345
352
342
310
265
208
140
76
21
-32
-77
-107
-135
-157
-156
-146
-139
-131
-122
-122
-126
-123
-116
-109
-112
-124
-130
-126
-132
-147
-146
-133
-127
-134
-140
-133
-118
-115
-121
-108
-83
-78
-86
-79
-64
-60
-57
-54
-57
-58
-46
-32
-31
-37
-34
-27
-28
-30
-21
-14
-19
-18
-8
-2
14
39
47
44
51
41
3
-19
-14
-22
-37
-18
-4
-39
-27
91
280
637
1051
861
-151
-1060
-1101
-649
-294
-117
-50
-54
-43
-2
18
20
25
30
43
58
60
68
99
123
132
151
181
206
235
275
319
358
393
423
436
428
406
368
314
261
204
134
71
36
8
-15
-22
-26
-37
-40
-30
-25
-40
-65
-58
-26
-22
-46
-51
-46
-64
-94
-103
-89
-68
-65
-89
-115
-121
-120
-131
-138
-127
-112
-115
-126
-128
-129
-118
-85
-69
-85
-94
-101
-142
-174
-139
-89
-83
-105
-139
-171
-177
-184
-221
-223
-163
-138
-186
-226
-231
-226
-223
-231
-228
-216
-234
-222
-102
191
858
1572
1200
-339
-1389
-1110
-492
-262
-165
-69
-57
-50
-20
-16
-7
13
21
37
62
75
86
101
116
139
183
229
270
315
372
433
494
549
578
581
574
528
411
296
234
164
65
2
-32
-76
-104
-103
-103
-103
-90
-76
-68
-59
-52
-49
-43
-38
-37
-32
-31
-40
-47
-47
-51
-56
-56
-55
-57
-60
-64
-69
-74
-80
-88
-95
-101
-110
-122
-125
-122
-124
-129
-125
-117
-111
-106
-98
-95
-101
-95
-74
-58
-48
-27
-14
-31
-60
-76
-72
-67
-74
-63
-39
-64
-76
5
206
764
1546
1439
13
-1234
-1139
-506
-241
-181
-111
-101
-98
-67
-63
-63
-43
-33
-29
-11
7
19
37
59
83
112
144
183
235
291
346
401
446
474
482
467
426
363
279
179
87
17
-43
-95
-124
-133
-138
-137
-126
-116
-111
-103
-91
-81
-77
-87
-114
-143
-146
-123
-114
-139
-166
-161
-144
-141
-149
-156
-158
-157
-155
-148
-141
-140
-141
-138
-131
-123
-121
-123
-119
-108
-103
-100
-91
-82
-78
-73
-67
-63
-55
-47
-44
-43
-36
-21
-1
8
10
24
37
23
-7
-15
1
2
-12
5
21
-11
11
156
396
809
1178
794
-339
-1112
-958
-483
-208
-76
-16
-13
3
28
23
22
37
47
51
59
69
82
99
114
131
157
189
223
264
312
364
414
455
480
484
471
445
393
311
218
141
76
12
-38
-67
-75
-61
-48
-68
-97
-97
-86
-90
-101
-100
-95
-99
-109
-109
-104
-103
-104
-109
-124
-137
-134
-121
-113
-112
-112
-110
-103
-99
-105
-104
-93
-95
-107
-98
-86
-99
-114
-113
-112
-117
-117
-113
-113
-116
-120
-123
-121
-109
-94
-86
-79
-64
-57
-72
-95
-103
-96
-97
-102
-84
-72
-94
-63
67
311
780
1161
685
-495
-1147
-840
-362
-184
-115
-67
-71
-60
-31
-33
-39
-26
-5
21
28
7
14
63
95
91
99
135
177
215
256
298
338
371
390
398
397
380
341
281
206
130
67
25
-8
-43
-67
-65
-49
-41
-41
-38
-26
-14
-16
-25
-19
-10
-21
-35
-37
-37
-47
-55
-58
-58
-58
-56
-54
-53
-55
-62
-68
-65
-61
-67
-74
-75
-77
-70
-49
-35
-30
-17
-13
-35
-63
-78
-77
-72
-84
-88
-69
-85
-102
-23
166
564
1116
1070
-24
-1146
-1219
-669
-313
-186
-112
-100
-100
-73
-68
-72
-52
-36
-31
-18
-1
13
33
56
77
103
137
173
216
269
324
373
415
445
452
430
390
333
250
155
79
22
-33
-80
-109
-127
-136
-131
-120
-111
-105
-101
-101
-103
-103
-103
-107
-110
-111
-113
-116
-116
-114
-118
-122
-119
-115
-115
-112
-107
-104
-101
-98
-97
-95
-91
-88
-84
-83
-84
-76
-56
-44
-36
-18
-9
-28
-56
-66
-58
-54
-64
-55
-42
-67
-56
56
284
787
1320
950
-390
-1285
-999
-398
-170
-115
-64
-59
-53
-31
-27
-22
-6
2
14
34
45
56
78
101
121
145
174
209
253
302
348
390
421
434
434
424
388
319
236
155
82
19
-32
-69
-92
-98
-96
-94
-91
-84
-80
-81
-82
-82
-82
-84
-89
-93
-97
-104
-111
-112
-113
-117
-120
-121
-121
-119
-116
-115
-113
-110
-105
-102
-102
-96
-89
-85
-67
-46
-49
-73
-89
-87
-81
-89
-90
-74
-87
-97
-28
148
574
1160
1080
-86
-1200
-1169
-540
-205
-139
-87
-69
-71
-48
-32
-27
-14
-3
5
20
34
47
64
85
105
127
156
192
231
272
315
355
380
392
393
378
338
277
205
132
63
4
-41
-69
-83
-88
-90
-87
-81
-75
-72
-71
-71
-71
-75
-80
-84
-87
-92
-98
-102
-106
-111
-112
-112
-111
-106
-101
-103
-99
-87
-84
-79
-56
-38
-50
-76
-88
-82
-80
-85
-76
-69
-85
-67
23
239
741
1220
796
-488
-1293
-994
-404
-165
-111
-73
-66
-56
-34
-30
-26
-10
4
15
26
38
56
71
87
115
145
167
196
237
272
305
341
363
364
356
342
301
234
165
95
22
-34
-62
-71
-57
-50
-78
-98
-91
-100
-104
-61
-43
-88
-117
-101
-95
-114
-122
-114
-112
-117
-122
-124
-125
-122
-120
-119
-117
-114
-111
-99
-81
-75
-72
-52
-31
-35
-55
-64
-55
-47
-50
-42
-37
-53
-21
114
348
709
949
521
-490
-1166
-1032
-561
-237
-90
-36
-22
-7
6
12
23
34
41
52
65
74
87
102
113
129
157
189
220
247
276
315
358
385
388
380
368
339
280
207
138
73
13
-24
-42
-73
-92
-63
-48
-93
-106
-48
-20
-50
-75
-84
-92
-88
-81
-89
-107
-116
-116
-116
-119
-123
-124
-119
-117
-121
-117
-109
-106
-108
-112
-109
-81
-59
-72
-90
-93
-101
-112
-109
-93
-83
-102
-105
-44
109
587
1326
1300
-27
-1285
-1201
-495
-202
-185
-116
-74
-80
-70
-61
-55
-40
-28
-15
4
15
25
47
75
105
133
153
186
240
285
314
356
393
392
374
364
334
262
179
116
59
-11
-70
-88
-86
-98
-107
-93
-81
-94
-101
-86
-93
-120
-113
-81
-79
-96
-106
-111
-114
-115
-120
-117
-117
-127
-124
-113
-113
-106
-96
-100
-101
-93
-94
-92
-80
-70
-51
-27
-30
-56
-71
-63
-50
-57
-57
-38
-53
-69
-1
163
628
1379
1415
106
-1215
-1177
-458
-147
-134
-77
-44
-44
-23
-22
-30
-6
14
16
28
48
63
74
83
101
131
162
187
222
265
305
336
354
358
356
342
305
249
186
122
61
6
-37
-60
-65
-67
-71
-73
-68
-58
-57
-66
-68
-69
-80
-83
-74
-75
-88
-93
-94
-102
-106
-104
-103
-105
-105
-102
-96
-92
-91
-84
-80
-93
-102
-89
-74
-74
-73
-65
-69
-82
-84
-73
-69
-71
-68
-62
-53
-44
-45
-38
-5
14
-14
-51
-53
-41
-48
-51
-34
-46
-77
-27
131
464
978
1070
153
-1014
-1223
-641
-201
-106
-85
-64
-49
-27
-22
-15
10
17
0
2
30
56
66
69
82
104
126
141
146
167
214
249
257
270
283
273
257
239
197
154
129
89
33
3
-7
-28
-45
-42
-41
-48
-46
-39
-44
-55
-52
-43
-49
-65
-69
-56
-47
-58
-72
-69
-67
-80
-89
-76
-58
-53
-61
-69
-70
-70
-77
-83
-75
-61
-57
-58
-60
-63
-66
-59
-51
-52
-46
-33
-31
-30
-7
10
-1
-19
-31
-34
-30
-25
-14
-11
-30
-2
147
427
827
1041
532
-519
-1148
-967
-516
-225
-73
-10
0
20
40
38
40
52
58
66
82
91
101
125
148
158
179
214
243
265
296
330
356
375
386
384
365
328
277
221
161
95
36
-4
-27
-44
-59
-66
-68
-68
-65
-60
-60
-63
-64
-68
-73
-82
-91
-96
-101
-114
-123
-123
-128
-142
-148
-141
-139
-144
-144
-140
-142
-144
-144
-144
-148
-149
-141
-135
-142
-152
-145
-134
-136
-131
-100
-83
-105
-130
-129
-117
-126
-142
-124
-112
-142
-127
-14
262
861
1318
675
-731
-1363
-890
-352
-206
-158
-122
-128
-107
-77
-80
-75
-52
-42
-39
-23
0
17
31
55
87
104
122
178
241
270
302
352
374
374
374
329
258
220
175
92
33
2
-41
-71
-66
-59
-51
-32
-15
-3
9
15
21
37
55
62
