# session 9
-22
-27
21
-95
-410
-613
-582
-540
-557
-451
-280
-321
-496
-512
-422
-410
-430
-446
-519
-602
-607
-529
-434
-426
-479
-407
-259
-305
-461
-403
-209
-195
-332
-376
-303
-270
-308
-325
-323
-327
-243
-37
301
719
680
-256
-1339
-1544
-1068
-678
-545
-485
-421
-360
-327
-331
-344
-343
-296
-204
-124
-70
-3
90
197
263
253
262
350
432
502
615
685
671
689
748
742
670
616
602
589
578
606
643
634
605
589
556
501
437
350
263
250
265
192
103
159
353
700
1098
890
-237
-1264
-1223
-623
-288
-207
-177
-209
-234
-205
-219
-238
-141
-13
9
-31
-49
-22
89
234
258
191
203
273
276
259
286
279
227
190
126
28
-14
-27
-87
-161
-218
-275
-298
-294
-322
-337
-306
-332
-398
-378
-335
-318
-248
-207
-222
-140
63
575
1469
1625
169
-1438
-1549
-839
-470
-319
-131
-54
-32
26
32
6
18
13
-9
22
83
129
170
189
171
167
186
167
144
203
254
163
19
-49
-78
-69
-14
-52
-171
-164
-69
-74
-132
-116
-76
-108
-201
-265
-243
-206
-236
-269
-238
-172
-76
27
210
789
1443
1052
-340
-1186
-906
-413
-226
-155
-132
-160
-170
-160
-135
-112
-122
-129
-126
-137
-89
30
98
82
78
106
122
130
148
177
225
257
188
47
-10
44
72
47
74
143
182
223
293
336
370
446
470
350
189
107
70
30
-7
-12
49
182
503
1055
1225
369
-810
-1089
-634
-362
-322
-192
-111
-172
-189
-132
-86
-79
-135
-168
-92
-40
-100
-128
-76
-37
-10
15
-10
-43
8
89
69
-28
-61
-41
-94
-174
-137
-14
71
89
72
53
42
21
-13
-45
-72
-84
-76
-73
-86
-139
-245
-286
-158
135
596
901
385
-798
-1489
-1204
-665
-409
-260
-76
37
78
127
157
146
144
150
137
148
183
183
190
269
373
448
508
542
526
487
448
386
282
179
128
114
99
89
75
54
57
61
15
-5
69
135
103
40
5
-24
-21
21
-7
-78
-6
202
550
1121
1252
151
-1268
-1491
-817
-370
-234
-121
-104
-145
-136
-148
-210
-287
-361
-344
-233
-191
-234
-219
-144
-73
9
77
86
77
91
111
121
116
90
48
12
-26
-100
-184
-224
-248
-298
-343
-367
-395
-417
-423
-451
-495
-506
-489
-444
-357
-311
-319
-254
-95
243
915
1289
469
-865
-1227
-682
-262
-120
46
164
192
266
358
404
447
485
490
499
529
545
532
511
492
462
397
323
298
318
326
314
303
284
273
315
383
416
426
434
427
416
410
379
332
303
270
216
166
132
124
145
110
13
5
97
309
874
1340
668
-819
-1574
-1255
-799
-618
-532
-505
-523
-507
-481
-471
-433
-355
-253
-134
-41
-45
-147
-278
-378
-424
-434
-443
-445
-419
-379
-347
-328
-336
-361
-370
-364
-348
-304
-256
-241
-224
-183
-176
-199
-170
-112
-105
-111
-84
-75
-72
-24
-9
-15
91
256
607
1375
1741
674
-879
-1251
-673
-259
-131
-22
37
69
125
140
131
148
167
186
218
235
256
327
412
448
442
422
397
370
340
310
293
290
281
260
240
238
261
298
329
346
354
345
307
261
243
234
204
162
108
43
24
35
-15
-66
-23
111
473
980
819
-354
-1392
-1326
-739
-429
-345
-287
-280
-296
-288
-270
-248
-243
-256
-235
-193
-196
-209
-164
-113
-119
-139
-128
-103
-64
-15
4
6
24
37
30
37
67
96
108
104
95
84
56
10
-20
-15
-27
-101
-174
-188
-174
-158
-158
-180
-137
1
234
728
1200
729
-634
-1449
-1112
-531
-305
-209
-127
-119
-113
-82
-70
-53
-17
10
32
70
116
159
188
197
201
213
216
206
212
236
236
199
157
126
107
104
110
100
79
66
69
73
58
33
28
53
71
53
19
-13
-33
-23
-19
-57
-56
41
268
743
1102
508
-808
-1446
-990
-388
-173
-97
-29
-6
18
55
75
100
134
152
159
180
208
220
220
221
209
179
154
143
134
129
125
108
93
89
77
53
32
23
18
8
-4
2
7
-22
-53
-43
-33
-58
-92
-126
-155
-153
-157
-197
-192
-121
48
474
817
271
-951
-1549
-1119
-503
-231
-142
-101
-97
-85
-74
-78
-63
-32
-7
24
58
76
89
113
132
135
136
143
154
173
196
198
172
130
98
86
73
46
27
32
37
33
33
33
16
2
21
41
22
-5
-18
-35
-39
-36
-67
-66
-1
133
590
1213
957
-395
-1377
-1133
-517
-251
-149
-66
-58
-61
-44
-40
-27
7
34
47
57
62
72
98
120
126
137
161
174
177
195
214
200
166
134
97
60
48
46
29
9
0
-6
-4
1
-9
-12
3
0
-29
-53
-74
-88
-79
-101
-128
-57
77
403
1067
1285
202
-1202
-1398
-716
-272
-162
-90
-82
-103
-74
-65
-81
-65
-34
-8
31
64
71
92
143
172
150
129
144
161
157
148
135
102
65
42
25
13
12
8
-1
-7
-9
-3
2
-14
-29
-13
2
-15
-43
-68
-85
-79
-85
-107
-80
-9
170
611
910
323
-809
-1290
-893
-399
-198
-134
-109
-99
-78
-75
-80
-55
-25
-18
-8
23
53
67
76
93
110
114
122
146
169
179
182
169
140
124
131
125
102
92
85
62
47
57
61
42
15
15
36
27
-9
-29
-48
-71
-57
-60
-111
-86
60
369
904
1061
89
-1242
-1500
-843
-352
-214
-120
-88
-121
-94
-43
-40
-33
6
30
39
73
113
129
149
182
191
180
190
215
221
221
222
187
135
116
99
52
27
41
30
-21
-40
-8
4
-39
-83
-82
-49
-43
-81
-107
-104
-107
-108
-115
-124
-55
198
766
1396
1116
-342
-1513
-1324
-618
-301
-187
-74
-51
-50
-19
-9
12
52
69
83
107
121
155
225
271
251
225
247
266
239
210
201
172
121
80
56
32
6
-1
8
8
-1
-2
-2
-14
-40
-63
-64
-66
-95
-114
-109
-132
-153
-131
-142
-174
-133
11
499
1260
1164
-290
-1532
-1330
-592
-296
-218
-122
-108
-110
-73
-63
-57
-17
15
31
58
92
124
160
191
199
191
191
201
200
184
155
114
70
32
-5
-41
-64
-79
-98
-108
-111
-126
-134
-123
-130
-159
-157
-130
-131
-146
-156
-172
-159
-138
-168
-162
-104
8
612
1549
1306
-445
-1624
-1158
-399
-229
-185
-89
-95
-91
-40
-28
-13
29
56
79
119
159
195
231
258
268
265
258
260
265
252
216
170
131
102
77
51
26
8
-7
-18
-23
-31
-40
-45
-63
-82
-66
-41
-42
-56
-77
-91
-68
-70
-103
-83
-68
123
962
1733
923
-866
-1475
-768
-226
-170
-106
-42
-59
-38
-1
7
31
68
91
116
151
191
227
251
270
283
283
286
295
286
253
217
180
134
90
56
26
-5
-27
-46
-72
-94
-105
-111
-109
-113
-132
-143
-126
-118
-134
-149
-162
-170
-159
-164
-184
-158
-89
129
603
796
43
-1057
-1334
-826
-370
-209
-147
-127
-129
-108
-89
-82
-63
-42
-27
-2
32
59
79
102
135
174
205
218
225
231
223
198
165
128
92
62
33
10
1
-3
-14
-31
-44
-42
-32
-36
-52
-45
-21
-22
-45
-65
-83
-81
-55
-64
-88
-50
59
364
844
787
-233
-1240
-1223
-619
-239
-120
-63
-48
-37
-9
-9
-13
12
37
54
84
120
156
193
216
224
252
287
287
284
302
292
238
194
167
129
95
77
52
14
-4
-1
-3
-7
7
9
-21
-42
-24
-7
-19
-33
-35
-47
-64
-68
-84
-96
-26
158
525
976
852
-218
-1301
-1370
-781
-352
-186
-95
-60
-50
-23
-8
2
32
66
85
107
144
178
194
206
241
296
333
339
321
282
230
179
134
92
55
25
7
-7
-25
-35
-38
-58
-90
-106
-106
-104
-111
-116
-114
-120
-139
-151
-170
-192
-175
-160
-183
-155
-78
133
771
1316
593
-966
-1569
-967
-391
-242
-153
-91
-101
-75
-36
-32
-9
32
54
78
120
159
186
219
255
276
279
280
288
294
277
234
185
146
114
86
62
40
21
4
-15
-28
-34
-45
-56
-58
-72
-94
-86
-64
-73
-103
-128
-137
-124
-121
-150
-146
-86
49
481
1002
704
-519
-1363
-1114
-535
-277
-198
-144
-136
-129
-102
-88
-81
-64
-42
-12
26
66
106
145
178
200
206
212
235
251
233
205
180
141
98
72
51
34
30
29
18
9
3
-4
-5
-5
-22
-47
-44
-24
-25
-46
-66
-85
-91
-79
-89
-105
-61
72
423
945
902
-171
-1295
-1366
-755
-321
-160
-75
-44
-31
-2
13
23
48
76
110
157
194
218
252
293
308
300
300
311
303
271
232
198
163
122
85
61
48
36
22
9
11
22
19
6
11
15
-8
-17
10
17
-15
-35
-48
-68
-59
-54
-81
-48
74
369
980
1289
379
-1077
-1500
-888
-353
-179
-85
-60
-84
-61
-36
-41
-27
-5
6
37
80
109
135
167
187
184
171
161
157
141
99
43
-10
-54
-88
-113
-124
-115
-107
-126
-148
-139
-120
-119
-117
-115
-139
-158
-140
-122
-133
-151
-175
-194
-173
-169
-199
-165
-101
98
802
1443
743
-836
-1427
-823
-300
-220
-171
-107
-93
-66
-49
-43
-4
33
44
78
134
178
219
262
287
293
290
272
247
233
220
179
120
84
68
49
34
32
25
11
8
12
6
-2
0
7
-2
-16
-4
17
8
-21
-51
-79
-82
-67
-86
-98
-55
59
434
977
864
-226
-1178
-1089
-515
-200
-111
-61
-47
-36
-12
-6
1
23
46
75
111
143
178
209
226
240
251
249
243
243
225
179
127
76
25
-7
-16
-28
-48
-65
-83
-98
-97
-97
-104
-99
-96
-123
-151
-139
-115
-121
-137
-152
-174
-172
-165
-187
-155
-26
209
697
1092
485
-914
-1608
-1135
-494
-243
-138
-61
-40
-8
34
53
85
132
167
206
251
286
323
370
394
385
370
356
335
311
279
228
163
105
66
41
16
-8
-21
-29
-39
-43
-43
-48
-51
-43
-47
-78
-101
-85
-68
-88
-117
-139
-155
-133
-117
-164
-166
-92
58
590
1265
886
-618
-1536
-1126
-474
-263
-189
-104
-75
-50
-26
-25
-6
28
55
86
122
153
192
236
265
276
279
273
266
267
255
201
129
80
54
29
2
-17
-25
-27
-32
-44
-55
-61
-67
-71
-73
-80
-91
-85
-73
-77
-92
-110
-130
-120
-110
-135
-116
-71
31
607
1456
1225
-314
-1367
-1030
-408
-248
-207
-133
-136
-131
-88
-75
-66
-29
5
28
56
90
133
175
198
202
198
193
186
181
164
118
57
9
-25
-57
-90
-119
-139
-146
-148
-158
-167
-157
-145
-144
-131
-110
-113
-122
-98
-72
-83
-99
-101
-110
-105
-93
-110
-96
-29
138
667
1251
801
-648
-1494
-1095
-452
-204
-108
-31
-14
-1
22
39
75
116
137
165
201
228
267
314
334
340
357
365
353
339
312
253
197
166
128
79
56
45
10
-20
-16
-18
-37
-40
-34
-41
-44
-36
-48
-77
-77
-59
-60
-73
-85
-108
-108
-81
-96
-106
-22
115
504
1214
1269
-35
-1400
-1403
-665
-268
-156
-55
-33
-49
-19
2
9
38
71
93
122
160
195
228
263
284
278
265
259
242
209
171
126
70
21
-11
-31
-44
-52
-61
-65
-65
-71
-78
-73
-72
-84
-86
-80
-94
-100
-76
-75
-113
-143
-159
-161
-144
-165
-198
-157
-77
259
1084
1465
322
-1255
-1468
-703
-282
-245
-171
-132
-151
-114
-75
-71
-48
-11
18
50
86
123
169
209
223
218
208
206
210
196
161
114
51
-13
-41
-47
-68
-94
-106
-111
-109
-104
-113
-124
-127
-132
-122
-96
-103
-119
-85
-68
-116
-126
-93
-148
-218
-157
-110
-186
-181
-28
269
865
1219
368
-1091
-1532
-896
-341
-181
-87
-28
-30
-13
18
41
78
116
151
195
237
288
353
395
405
406
398
383
366
332
281
224
158
99
62
30
5
-1
-7
-21
-21
-19
-35
-47
-49
-55
-50
-33
-47
-77
-68
-41
-52
-72
-74
-90
-101
-85
-95
-99
-12
172
584
1136
992
-226
-1332
-1300
-694
-311
-139
-35
-14
-7
25
43
60
92
121
154
199
248
296
346
390
421
434
430
416
393
349
285
219
168
129
102
84
69
56
48
39
28
19
11
-5
-23
-28
-28
-51
-89
-99
-79
-76
-94
-105
-119
-131
-107
-92
-105
-66
27
291
934
1325
446
-1060
-1519
-878
-333
-212
-162
-131
-144
-127
-99
-88
-68
-46
-19
24
61
83
110
150
179
181
160
144
139
122
77
19
-38
-83
-117
-141
-156
-164
-173
-184
-191
-191
-191
-202
-215
-217
-216
-220
-225
-228
-217
-191
-187
-217
-245
-264
-275
-266
-273
-283
-231
-139
159
854
1178
165
-1321
-1634
-931
-413
-300
-229
-174
-165
-131
-100
-103
-91
-44
9
53
104
161
206
242
269
273
270
293
309
272
204
144
82
17
-22
-31
-50
-88
-110
-111
-113
-119
-121
-118
-113
-116
-116
-97
-82
-92
-96
-71
-51
-55
-61
-62
-57
-29
-17
-47
-16
121
372
902
1377
821
-638
-1437
-990
-303
-12
108
184
198
226
262
274
315
386
436
477
546
616
651
671
703
722
706
680
666
629
539
442
379
326
270
238
237
243
249
247
238
241
246
226
201
198
190
161
135
112
91
89
89
64
34
6
-27
-40
-45
-82
-93
-27
147
596
1057
642
-665
-1511
-1221
-615
-351
-272
-232
-251
-262
-243
-244
-254
-251
-246
-242
-224
-191
-161
-143
-124
-100
-100
-133
-167
-200
-249
-305
-359
-419
-474
-507
