# session 15
6
-103
214
13
-1231
-2295
-2321
-2070
-2096
-2068
-1928
-1867
-1814
-1743
-1704
-1645
-1575
-1530
-1457
-1360
-1305
-1268
-1225
-1188
-1112
-1024
-1020
-1002
-882
-738
-280
644
894
-396
-1829
-1865
-1144
-751
-605
-465
-411
-376
-296
-243
-204
-139
-75
-13
65
139
206
278
340
372
384
391
399
403
385
345
307
282
259
242
240
238
233
241
247
239
252
287
297
306
360
414
418
397
379
357
311
269
287
302
243
207
209
333
1051
2005
1646
-85
-1100
-631
-29
54
89
158
127
126
178
190
184
200
223
242
253
263
279
297
310
299
268
258
268
256
220
178
127
83
61
41
18
-5
-35
-56
-62
-72
-78
-78
-96
-103
-71
-59
-89
-93
-75
-92
-119
-134
-152
-157
-163
-185
-180
-147
70
727
1236
546
-885
-1476
-1004
-498
-324
-226
-178
-197
-172
-120
-111
-103
-65
-24
6
39
85
128
157
180
196
203
217
224
188
129
78
22
-36
-62
-71
-103
-139
-150
-163
-192
-200
-188
-188
-201
-206
-190
-152
-109
-84
-85
-110
-140
-159
-177
-179
-154
-159
-168
-110
-8
345
1057
1211
44
-1288
-1367
-684
-279
-156
-64
-44
-45
-9
8
19
60
98
119
149
212
311
391
405
399
415
419
393
359
317
259
209
173
136
99
71
50
31
14
-4
-22
-33
-40
-57
-77
-83
-89
-114
-119
-87
-78
-113
-135
-142
-164
-168
-166
-189
-186
-124
96
613
937
264
-958
-1394
-893
-392
-245
-184
-143
-161
-134
-24
58
57
38
53
79
100
125
154
171
181
202
223
224
209
187
155
111
66
63
132
205
202
158
140
146
164
189
161
84
43
38
14
-9
-7
-6
-4
-4
-31
-58
-57
-45
-33
-37
-63
-56
33
312
831
1039
268
-921
-1320
-875
-398
-190
-100
-80
-91
-64
-34
-29
-16
4
26
68
121
164
199
230
249
270
308
334
314
268
223
172
121
84
38
-18
-40
-38
-60
-96
-107
-113
-135
-145
-140
-145
-151
-157
-175
-183
-173
-180
-186
-176
-181
-176
-142
-149
-168
-103
48
456
1108
1121
-69
-1309
-1376
-756
-366
-231
-139
-104
-97
-74
-54
-23
23
56
84
129
172
205
241
278
295
289
273
251
214
159
88
18
-36
-68
-87
-103
-118
-125
-116
-108
-113
-116
-94
-53
-20
-1
13
21
37
65
73
45
15
-13
-34
-25
-30
-53
-25
30
277
1006
1521
676
-861
-1336
-711
-197
-94
-54
-28
-33
-7
23
41
65
83
109
158
204
237
290
362
401
395
393
415
430
417
376
319
270
232
188
153
143
127
80
30
7
-12
-46
-80
-97
-108
-117
-118
-131
-158
-164
-154
-172
-199
-207
-221
-240
-251
-279
-284
-232
-99
360
1038
935
-327
-1414
-1298
-675
-371
-290
-235
-227
-216
-172
-152
-143
-111
-76
-47
-7
37
76
108
132
169
216
229
222
226
197
131
90
57
-7
-57
-77
-111
-147
-166
-191
-222
-237
-244
-255
-264
-259
-235
-219
-244
-273
-253
-226
-239
-256
-260
-271
-267
-258
-271
-254
-201
11
672
1260
632
-842
-1478
-983
-453
-260
-81
55
5
-90
-63
59
162
233
322
397
438
508
591
628
652
689
695
677
652
596
530
492
473
447
392
306
238
212
192
163
149
150
146
125
94
74
68
57
41
45
68
75
56
29
10
16
36
31
22
45
102
380
968
1198
421
-689
-1030
-673
-323
-177
-117
-112
-127
-117
-108
-114
-103
-61
-13
1
-11
14
92
169
200
179
126
91
80
14
-100
-136
-96
-115
-183
-187
-159
-186
-210
-172
-162
-241
-319
-317
-280
-295
-353
-363
-313
-286
-305
-335
-369
-396
-406
-421
-448
-467
-448
-357
-217
-3
386
641
184
-770
-1297
-1096
-653
-342
-170
-89
-108
-170
-139
-37
-19
-36
64
194
203
185
261
343
341
319
326
345
369
379
343
290
248
205
167
162
182
187
171
158
153
153
188
223
197
174
182
138
107
173
184
88
68
110
58
-8
13
29
29
100
281
690
1197
1056
8
-963
-1093
-724
-241
200
238
-31
-9
227
127
-145
-123
51
126
201
293
299
304
332
299
285
329
305
266
285
205
60
53
71
-50
-143
-93
-31
-14
-6
-26
-47
-42
-75
-124
-90
-54
-138
-212
-141
-81
-162
-235
-200
-176
-206
-237
-259
-242
-185
-1
590
1183
642
-857
-1640
-1200
-607
-403
-323
-293
-330
-303
-221
-186
-173
-132
-92
-50
21
77
101
167
255
290
306
308
242
173
156
91
-27
-82
-89
-115
-105
-58
-61
-102
-130
-128
-66
-4
-71
-183
-137
-24
-69
-191
-189
-112
-91
-122
-149
-118
-47
-74
-178
-144
-4
237
896
1575
1086
-401
-1217
-850
-302
-87
17
66
60
81
92
73
89
115
130
190
272
304
314
381
472
472
389
344
343
307
234
159
87
44
17
-37
-64
-20
3
-39
-66
-54
-52
-63
-69
-83
-100
-108
-106
-83
-55
-65
-114
-130
-95
-96
-139
-131
-98
-97
-75
-17
301
1118
1559
505
-1080
-1387
-691
-283
-211
-90
-63
-137
-121
-63
-32
10
27
25
69
128
161
211
283
322
321
299
261
214
170
129
75
19
-16
-41
-67
-74
-69
-85
-111
-114
-98
-95
-121
-146
-145
-155
-181
-173
-146
-156
-163
-111
-74
-120
-172
-167
-148
-138
-144
-164
-140
-72
126
730
1312
748
-743
-1475
-981
-371
-193
-136
-79
-74
-79
-80
-62
-12
25
42
76
118
168
238
278
268
266
290
288
265
260
245
179
102
62
40
20
5
-6
-7
-9
-36
-62
-65
-77
-99
-92
-76
-84
-77
-36
-31
-83
-104
-61
-25
-37
-61
-70
-83
-91
-68
-51
-64
-53
21
293
861
1115
300
-939
-1272
-727
-272
-156
-88
-36
-52
-57
-28
-3
24
64
93
116
161
222
269
303
332
351
364
373
366
337
289
231
165
100
64
60
41
-10
-47
-51
-57
-72
-83
-95
-107
-110
-112
-115
-115
-111
-105
-103
-114
-117
-94
-76
-91
-106
-115
-128
-114
-95
-119
-106
-1
197
660
1149
739
-601
-1476
-1206
-609
-306
-163
-85
-85
-75
-42
-24
-3
33
64
95
136
185
237
288
332
367
384
375
348
306
248
181
122
76
36
4
-16
-30
-42
-53
-58
-60
-67
-79
-89
-97
-100
-95
-95
-100
-97
-96
-106
-97
-68
-69
-94
-103
-109
-112
-88
-92
-117
-62
47
339
1041
1417
421
-1120
-1479
-788
-289
-182
-99
-57
-81
-61
-21
-9
8
47
90
132
177
227
276
319
351
358
346
333
312
270
212
149
82
29
6
-4
-25
-45
-56
-72
-92
-107
-122
-138
-141
-139
-144
-149
-144
-137
-135
-148
-170
-150
-87
-70
-121
-147
-136
-161
-174
-126
-116
-144
-96
74
528
1180
1078
-221
-1370
-1225
-540
-245
-167
-63
-61
-113
-91
-37
3
38
57
66
94
140
196
256
303
332
343
328
300
285
267
218
150
90
43
16
19
30
20
-1
-10
-21
-45
-61
-70
-94
-112
-95
-71
-71
-85
-93
-93
-92
-70
-23
-12
-59
-93
-81
-71
-61
-47
-74
-92
-29
90
365
838
937
145
-892
-1166
-740
-305
-106
-34
-27
-31
11
57
51
33
84
181
227
229
260
285
255
254
340
435
458
410
324
276
286
254
138
37
-19
-63
-54
-17
-58
-139
-161
-151
-158
-169
-185
-206
-204
-184
-168
-162
-173
-183
-158
-128
-143
-172
-170
-172
-185
-166
-155
-170
-91
92
371
889
1237
548
-834
-1481
-1091
-571
-317
-146
-49
-44
-34
-9
15
45
63
83
131
176
201
244
307
346
352
355
345
291
224
187
143
64
3
-9
-22
-55
-63
-48
-44
-41
-29
-26
-32
-40
-49
-52
-50
-46
-38
-42
-63
-63
-36
-29
-52
-71
-85
-105
-101
-84
-117
-133
-56
82
484
1193
1273
76
-1216
-1317
-727
-371
-243
-147
-125
-126
-94
-66
-44
-17
8
46
92
137
201
286
355
400
421
410
368
311
243
171
103
39
-13
-45
-59
-68
-71
-63
-47
-39
-48
-58
-60
-73
-90
-78
-62
-78
-104
-109
-109
-103
-80
-84
-134
-163
-152
-148
-147
-153
-173
-143
-52
195
818
1304
626
-822
-1443
-956
-417
-245
-176
-142
-137
-86
-38
-32
-19
12
58
125
183
226
299
387
438
467
494
476
397
317
264
200
115
35
-40
-92
-82
-40
-45
-85
-94
-70
-47
-54
-100
-135
-113
-83
-94
-114
-119
-135
-143
-107
-73
-98
-129
-120
-125
-141
-112
-108
-146
-104
19
369
1185
1658
632
-1032
-1489
-864
-400
-259
-121
-72
-100
-67
-27
-16
19
64
97
144
208
276
348
421
483
515
501
450
379
298
209
122
45
-25
-85
-122
-131
-126
-120
-118
-110
-98
-95
-103
-110
-118
-133
-146
-151
-153
-156
-167
-187
-190
-159
-139
-164
-187
-187
-192
-184
-163
-185
-190
-127
18
559
1418
1365
-111
-1387
-1229
-546
-284
-224
-141
-123
-119
-93
-73
-26
27
49
82
135
192
285
388
452
509
558
539
469
414
362
271
152
48
-20
-60
-71
-67
-83
-103
-90
-81
-99
-98
-78
-92
-120
-121
-115
-124
-133
-125
-112
-115
-126
-120
-110
-114
-106
-81
-84
-110
-115
-117
-117
-98
-112
-127
-59
87
525
1303
1406
104
-1289
-1345
-678
-326
-215
-108
-89
-98
-57
-31
-26
-1
40
84
130
178
242
325
409
472
492
469
422
359
282
207
134
62
1
-48
-77
-74
-66
-76
-74
-54
-51
-64
-67
-71
-87
-101
-109
-118
-123
-123
-129
-139
-141
-135
-128
-121
-113
-122
-144
-141
-106
-88
-114
-136
-136
-143
-134
-107
-133
-157
-91
60
532
1330
1368
-1
-1340
-1283
-578
-262
-184
-85
-63
-68
-30
-14
-7
28
64
98
150
211
273
342
412
468
493
482
441
382
313
241
167
90
16
-37
-63
-72
-70
-60
-55
-57
-58
-61
-72
-84
-91
-100
-114
-125
-128
-130
-135
-140
-140
-138
-136
-134
-130
-124
-118
-119
-123
-119
-116
-119
-111
-94
-94
-97
-63
-24
-36
-66
-68
-70
-72
-51
-56
-75
-20
112
501
1248
1451
280
-1150
-1307
-623
-226
-138
-51
-25
-41
-13
14
24
51
81
112
157
207
264
336
407
462
499
505
474
421
364
304
235
156
80
21
-13
-28
-36
-38
-31
-26
-30
-35
-39
-50
-64
-77
-89
-98
-107
-119
-131
-141
-148
-149
-147
-149
-151
-147
-147
-155
-156
-151
-150
-148
-140
-133
-130
-125
-121
-116
-108
-100
-99
-100
-94
-88
-92
-97
-90
-71
-51
-41
-49
-50
-19
3
-18
-42
-49
-60
-60
-54
-88
-81
21
205
694
1366
1169
-216
-1313
-1110
-447
-165
-94
-28
-27
-47
-35
-17
4
29
47
71
107
152
212
286
351
394
424
432
398
343
300
255
188
124
77
32
-15
-53
-68
-56
-31
-28
-57
-78
-61
-41
-58
-79
-75
-75
-91
-100
-99
-99
-103
-113
-115
-98
-84
-84
-86
-84
-84
-82
-76
-70
-69
-67
-58
-51
-52
-53
-50
-48
-46
-40
-34
-32
-37
-37
-29
-24
-27
-26
-26
-36
-43
-39
-38
-46
-49
-46
-45
-42
-42
-51
-46
-18
-9
-34
-55
-63
-68
-48
-43
-70
-25
108
363
909
1303
647
-685
-1263
-837
-341
-153
-53
2
-2
12
36
47
62
83
104
133
170
213
271
336
402
454
478
473
441
387
319
256
196
132
73
29
1
-10
-12
-17
-23
-24
-18
-13
-16
-24
-32
-40
-54
-68
-76
-84
-99
-114
-121
-125
-132
-139
-140
-136
-135
-139
-140
-137
-136
-140
-137
-129
-129
-132
-124
-118
-124
-121
-106
-103
-103
-94
-98
-106
-80
-43
-48
-67
-70
-87
-104
-83
-83
-108
-64
54
380
1053
1351
400
-996
-1330
-743
-306
-195
-115
-80
-101
-86
-59
-52
-32
0
30
69
119
174
236
306
379
442
477
476
445
390
320
241
160
90
30
-29
-75
-90
-86
-84
-79
-72
-72
-73
-69
-71
-83
-99
-113
-117
-114
-120
-132
-139
-145
-148
-134
-119
-127
-138
-134
-127
-122
-112
-111
-114
-102
-92
-93
-82
-59
-48
-37
-15
-10
-28
-39
-43
-46
-27
-21
-44
-1
114
289
718
1178
820
-372
-1177
-1000
-499
-203
-52
15
24
41
62
73
93
107
120
158
209
252
301
365
432
493
534
541
513
465
404
330
258
176
72
-5
-26
-44
-78
-92
-86
-86
-88
-85
-91
-108
-120
-125
-126
-107
-83
-102
-154
-172
-156
-155
-172
-181
-181
-176
-163
-156
-178
-203
-185
-153
-170
-215
-229
-227
-225
-204
-210
-246
-214
-116
143
780
1227
492
-928
-1494
-1029
-530
-341
-224
-156
-150
-122
-78
-50
-20
13
45
94
158
214
274
360
459
547
608
625
597
539
457
362
274
192
113
58
37
28
22
28
42
49
48
45
41
40
39
28
6
-7
-13
-23
-32
-37
-43
-44
-41
-43
-42
-27
-11
-7
-7
-8
-21
-47
-65
-69
-71
-68
-68
-84
-71
0
168
559
932
603
-431
-1151
-990
-490
-206
-112
-74
-64
-59
-48
-34
-17
1
16
38
72
110
153
210
281
350
402
432
428
389
338
281
209
132
68
8
-55
-103
-123
-123
-110
-97
-98
-105
-107
-107
-108
-108
-117
-136
-150
-152
-151
-152
-168
-191
-195
-183
-178
-178
-181
-193
-198
-184
-161
-142
-149
-186
-210
-204
-201
-196
-189
-213
-197
-104
52
515
1189
1048
-266
-1365
-1249
-669
-390
-260
-147
-140
-147
-100
-78
-81
-50
2
38
72
122
175
245
351
456
515
542
542
497
422
339
242
149
74
7
-39
-49
-44
-47
-39
-17
11
44
65
66
68
76
80
81
86
87
86
