# session 1
21
36
-17
58
312
490
486
460
476
477
458
439
419
399
388
388
382
344
277
211
156
103
59
40
44
46
38
40
48
39
32
46
50
23
0
4
2
-20
-42
-53
-59
-56
-76
-133
-146
-79
-39
-90
-158
-175
-140
-103
-130
-164
-95
-23
-51
-38
36
-9
-112
-88
-27
-52
-100
-122
-128
-115
-126
-115
118
682
1239
1035
-138
-1242
-1278
-662
-255
-140
-86
-85
-91
-39
-1
-22
-34
-15
-2
-11
-27
-26
8
53
67
60
105
187
180
80
68
187
247
189
169
209
175
93
95
128
75
-18
-71
-113
-152
-137
-91
-76
-97
-123
-121
-69
-10
3
-13
-19
-17
-16
-23
-46
-53
-28
-34
-74
-56
-5
-45
-119
-78
16
24
-10
-15
-28
-35
8
35
20
35
79
84
47
11
16
45
22
-39
-39
-1
-18
-51
-38
-39
-53
13
215
643
1157
1044
-20
-1044
-1057
-487
-146
-74
-32
3
16
23
16
14
24
38
54
59
50
68
110
121
117
152
180
136
97
130
150
139
187
221
150
128
218
227
134
100
67
-44
-81
-20
-30
-60
1
0
-104
-152
-142
-105
1
55
-25
-91
-125
-221
-249
-123
-41
-94
-121
-77
-73
-117
-144
-159
-174
-165
-145
-150
-164
-157
-164
-188
-165
-98
-74
-105
-96
-18
-1
-115
-188
-95
-7
-41
-66
-43
-53
-49
20
283
961
1512
898
-502
-1143
-734
-267
-144
-104
-87
-111
-79
-38
-63
-53
14
7
-13
93
174
109
97
201
233
189
192
212
219
251
282
284
279
254
212
205
224
215
178
123
52
6
-11
-37
-59
-68
-87
-82
-45
-42
-74
-88
-93
-101
-89
-75
-97
-122
-112
-106
-126
-130
-126
-153
-171
-133
-99
-138
-201
-178
-96
-109
-208
-183
-51
-66
-182
-119
36
19
-55
-30
-54
-145
-100
24
38
-21
-52
-35
51
264
668
1032
772
-170
-968
-1022
-598
-196
-25
-4
47
97
37
0
79
110
46
36
85
85
60
73
100
131
187
204
150
132
199
257
279
310
330
304
272
246
184
122
116
103
36
0
2
-28
-62
-66
-87
-105
-70
-42
-66
-74
-28
-2
-54
-114
-100
-66
-68
-89
-133
-172
-128
-63
-77
-110
-105
-101
-92
-77
-98
-111
-69
-66
-118
-92
-18
-8
2
45
40
23
33
-5
-44
-5
-10
-90
-84
-13
8
57
263
725
1292
1193
66
-976
-895
-297
-69
-92
-57
-20
-24
-53
-91
-75
-39
-59
-80
-58
-29
-22
-60
-87
-2
102
75
35
98
106
3
14
156
166
33
6
97
133
73
-26
-101
-99
-75
-113
-157
-145
-119
-117
-126
-127
-120
-137
-161
-122
-56
-47
-61
-58
-73
-88
-74
-65
-72
-86
-110
-107
-79
-93
-118
-82
-33
-20
-5
15
2
-35
-73
-77
-49
-28
-21
-41
-80
-49
57
321
1008
1623
1029
-480
-1276
-952
-435
-154
-2
8
-28
30
82
51
31
67
95
73
40
63
141
185
171
180
195
171
207
255
156
123
320
342
33
-84
149
194
-158
-400
-139
238
187
-96
-103
44
-37
-199
-111
75
22
-141
-89
44
-3
-87
-35
7
-77
-141
-65
42
61
39
17
-37
-49
35
58
-51
-92
-21
-6
20
108
65
-15
49
26
-114
-58
81
5
-138
-110
-32
51
642
1748
1899
310
-1247
-1204
-460
-159
-129
-111
-155
-166
-132
-118
-100
-104
-126
-97
-44
-7
-40
-163
-160
12
36
-53
44
164
125
130
172
82
34
138
165
67
16
2
-51
-115
-170
-194
-159
-151
-205
-195
-102
-85
-165
-191
-115
-43
-50
-101
-125
-85
-26
-33
-68
-13
57
-22
-116
-33
52
-22
-71
-9
57
101
101
64
51
-19
-118
-54
51
-7
-91
-106
-112
-56
150
610
1151
1002
-92
-1028
-966
-479
-252
-206
-169
-157
-141
-115
-116
-124
-117
-114
-118
-128
-135
-127
-110
-95
-78
-46
-2
32
36
34
63
108
138
179
251
295
292
329
405
393
314
314
371
369
345
364
374
359
356
346
323
330
349
341
329
320
301
291
297
290
267
255
247
204
124
49
-29
-154
-287
-342
-300
-246
-253
-292
-315
-347
-354
-283
-143
160
533
311
-783
-1803
-1887
-1375
-912
-647
-528
-476
-391
-300
-249
-190
-114
-58
1
73
121
147
174
194
219
271
315
317
315
336
347
337
320
291
250
216
194
172
151
130
101
65
31
17
21
16
-4
-1
30
38
20
16
21
15
9
6
-6
-22
-32
-40
-38
-28
-25
-25
-15
-9
-21
-40
-55
-69
-77
-69
-76
-123
-133
-41
92
341
832
1085
425
-683
-1108
-735
-296
-103
-25
-4
-4
18
29
14
14
35
61
67
53
64
101
109
96
111
135
139
145
159
160
148
149
159
152
134
141
164
147
88
36
-1
-43
-69
-72
-88
-115
-115
-97
-90
-92
-98
-99
-95
-100
-111
-107
-84
-73
-94
-97
-51
-31
-75
-102
-91
-94
-99
-75
-53
-74
-114
-88
40
303
828
1338
996
-270
-1229
-1122
-567
-220
-66
-9
-22
-27
-30
-28
21
30
-33
-3
118
141
83
91
133
124
88
105
186
242
217
190
232
280
248
162
146
223
223
81
-30
-26
-19
-40
-60
-114
-187
-210
-174
-137
-160
-194
-172
-200
-288
-231
-99
-142
-246
-220
-169
-163
-138
-137
-189
-203
-170
-171
-174
-133
-136
-160
-53
167
600
1365
1614
436
-1075
-1263
-589
-284
-245
-64
29
-27
-1
72
43
-8
26
74
71
91
137
92
6
39
134
152
131
138
158
195
217
181
166
222
236
169
113
71
15
-4
5
-18
-35
-19
-32
-70
-65
-48
-73
-94
-76
-73
-97
-116
-121
-101
-85
-117
-132
-76
-44
-82
-117
-133
-132
-98
-76
-76
-55
-48
-37
67
281
689
1200
1100
47
-958
-990
-507
-216
-93
-1
13
0
22
38
32
40
65
78
78
84
97
110
127
140
147
162
183
194
206
220
217
203
195
198
205
187
145
112
86
33
-35
-71
-69
-67
-86
-98
-91
-95
-104
-94
-77
-72
-76
-79
-73
-69
-88
-117
-112
-83
-85
-130
-171
-178
-175
-185
-184
-178
-203
-206
-112
62
378
803
779
-78
-1033
-1192
-757
-372
-182
-91
-76
-71
-34
-8
-10
-3
17
31
35
35
47
76
100
108
117
135
155
181
204
213
213
212
210
217
229
222
188
138
88
43
-6
-55
-86
-98
-96
-96
-116
-130
-103
-93
-132
-126
-70
-104
-188
-207
-244
-278
-148
-62
-224
-289
-118
-113
-313
-314
-71
69
-57
-216
-175
-96
-145
-145
21
493
1381
1777
648
-964
-1291
-607
-178
-144
-78
31
56
29
48
110
126
111
136
157
137
143
203
251
253
270
339
391
384
395
456
492
473
444
430
431
425
353
206
94
73
41
-30
-30
18
-14
-69
-58
-55
-37
41
10
-122
-88
42
0
-106
-88
-42
-59
-87
-106
-123
-90
-12
-3
-84
-114
-78
-101
-120
-22
41
-70
-197
-204
-200
-243
-233
-211
-310
-399
-324
-147
412
1483
1769
238
-1487
-1552
-777
-503
-461
-275
-249
-378
-376
-258
-201
-229
-238
-199
-197
-229
-221
-196
-169
-96
-42
-61
-34
65
86
57
114
165
106
75
130
122
40
26
53
2
-81
-85
-56
-89
-142
-118
-66
-57
-26
30
3
-23
83
165
106
71
129
154
142
132
83
53
123
183
159
148
172
139
64
50
102
123
97
114
153
109
47
74
112
85
60
80
120
147
113
55
55
47
-7
-6
44
54
65
274
981
1840
1567
-65
-1269
-1004
-339
-138
-95
-23
-54
-96
-53
-18
-35
-35
6
16
-28
-36
23
66
56
45
66
101
128
150
168
176
180
194
207
193
159
131
115
66
-33
-120
-151
-163
-199
-230
-225
-209
-211
-217
-215
-199
-171
-167
-189
-188
-164
-161
-175
-173
-160
-150
-139
-135
-140
-134
-123
-134
-146
-137
-135
-141
-117
-94
-112
-125
-100
-85
-95
-88
-72
-77
-73
-36
-14
-35
-51
-44
-47
-49
-34
-35
-44
-17
12
-6
-16
15
25
1
-3
13
14
12
24
47
66
67
62
68
57
24
17
28
40
88
95
11
31
229
529
1066
1502
891
-503
-1155
-738
-256
-91
-23
-33
-24
101
145
68
42
47
35
78
142
154
133
98
88
139
178
178
219
233
160
147
218
219
195
208
153
109
188
195
72
25
2
-123
-183
-126
-113
-145
-150
-134
-76
-50
-148
-204
-88
-2
-46
-55
-31
-96
-140
-67
-26
-77
-78
-24
-54
-152
-167
-87
-49
-99
-140
-115
-100
-153
-192
-162
-140
-144
-116
-111
-169
-181
-131
-131
-160
-130
-88
-80
-73
-77
-98
-86
-64
-83
-99
-69
-31
-32
-86
-129
-69
42
207
679
1238
956
-277
-1158
-924
-339
-119
-66
28
52
31
72
102
70
62
94
84
50
83
160
188
165
160
178
178
181
219
246
233
236
266
269
244
226
214
200
179
132
63
4
-42
-78
-88
-92
-114
-126
-104
-82
-73
-66
-76
-84
-70
-67
-84
-83
-65
-57
-61
-66
-64
-73
-105
-114
-73
-45
-69
-90
-62
-39
-59
-76
-67
-75
-85
-57
-34
-39
-15
34
38
6
-16
-35
-52
-43
-31
-50
-74
-54
29
163
428
900
1146
493
-720
-1284
-869
-303
-97
-20
69
44
-22
0
16
-3
55
132
117
81
77
67
79
141
195
203
184
180
217
271
317
331
273
215
251
271
179
114
125
76
-31
-102
-153
-192
-159
-111
-149
-181
-116
-76
-120
-123
-101
-140
-151
-98
-75
-74
-70
-138
-223
-182
-77
-68
-110
-100
-91
-119
-110
-88
-124
-131
-66
-69
-150
-152
-83
-65
-78
-74
-75
-69
-47
-32
-11
-8
-71
-119
-71
-35
-110
-183
-117
16
32
43
492
1257
1271
107
-987
-935
-337
-56
-22
-8
-38
-11
86
52
-61
-8
129
113
17
6
29
21
52
109
111
110
143
106
49
103
159
137
153
144
40
55
178
132
-3
13
60
-1
-53
-60
-106
-144
-95
-22
-22
-97
-134
-61
7
-22
-71
-99
-90
8
63
-76
-216
-171
-69
-25
-34
-81
-74
-1
10
0
77
142
121
101
112
98
58
65
118
88
-14
-15
38
3
-34
-2
11
29
101
223
504
815
611
-186
-822
-756
-306
-16
12
-4
39
59
41
45
57
41
28
35
37
33
37
55
77
98
113
106
79
71
94
102
86
82
82
75
89
117
105
68
66
63
-3
-62
-46
-18
-38
-60
-56
-52
-59
-58
-51
-56
-75
-89
-87
-83
-91
-104
-106
-104
-112
-124
-128
-129
-132
-125
-116
-129
-130
-96
-73
-87
-93
-86
-105
-152
-179
-156
-122
-120
-129
-128
-129
-94
23
255
602
771
326
-527
-1010
-820
-375
-85
19
48
56
57
72
89
82
65
64
60
45
45
64
82
107
131
128
111
113
112
92
81
85
89
101
107
95
103
128
109
60
39
35
13
-7
-4
-8
-26
-29
-11
2
5
12
18
10
7
20
27
18
13
18
14
-5
-18
-3
24
24
5
4
21
26
-5
-53
-62
-25
-18
-51
-73
-89
-74
18
179
519
1037
1082
157
-925
-1111
-632
-252
-106
-35
-15
-20
-21
-28
-19
10
28
47
76
85
82
104
144
172
188
211
228
233
262
308
300
250
237
244
213
169
140
97
33
-28
-75
-111
-134
-142
-144
-149
-157
-161
-159
-165
-168
-162
-163
-169
-171
-171
-167
-159
-160
-169
-165
-150
-140
-140
-139
-126
-106
-97
-110
-136
-147
-137
-136
-142
-132
-127
-127
-64
87
358
752
882
287
-656
-1069
-794
-372
-133
-41
-21
-19
3
26
33
39
47
50
57
80
107
123
134
153
175
194
215
237
253
265
279
284
279
277
269
251
236
209
142
72
39
23
-1
-35
-58
-35
0
-22
-56
-32
-11
-49
-83
-72
-60
-63
-58
-54
-84
-117
-105
-82
-103
-148
-159
-133
-102
-86
-96
-128
-152
-150
-139
-122
-111
-122
-106
-17
199
702
1237
949
-253
-1143
-985
-434
-151
-72
-33
-16
6
26
25
32
46
48
52
66
75
86
110
133
142
153
176
191
195
214
237
234
220
215
206
178
140
111
77
14
-50
-76
-88
-119
-143
-133
-109
-101
-104
-101
-97
-98
-103
-109
-109
-107
-113
-120
-116
-116
-123
-125
-128
-137
-135
-117
-111
-134
-169
-183
-172
-163
-155
-139
-141
-139
-86
59
489
1164
1244
182
-1004
-1133
-574
-212
-120
-72
-64
-65
-29
-4
-2
10
31
50
70
86
98
116
137
152
169
190
207
220
242
262
267
266
262
250
231
208
172
116
50
-6
-42
-67
-84
-88
-83
-77
-71
-71
-69
-58
-52
-56
-55
-51
-57
-66
-72
-75
-67
-55
-49
-44
-42
-42
-28
-3
4
-13
-29
-29
-33
-41
-14
18
-18
-46
22
161
550
1209
1296
233
-945
-1056
-500
-152
-61
-9
1
-6
22
44
43
43
46
48
50
53
59
74
93
104
107
116
131
146
165
174
161
154
165
159
129
108
91
49
-12
-65
-106
-137
-158
-167
-172
-175
-169
-161
-159
-161
-164
-169
-169
-172
-182
-179
-167
-176
-189
-181
-184
-198
-183
-162
-175
-178
-145
-129
-150
-168
-162
-153
-161
-163
-139
-138
-148
-86
67
470
1174
1379
352
-975
-1232
-668
-250
-126
-62
-40
-41
-18
-4
-2
13
28
36
49
69
90
113
137
159
175
193
220
241
247
257
273
267
249
245
251
244
219
178
131
89
56
31
22
27
33
40
53
66
