# session 36
3
8
-11
33
140
191
171
170
200
201
176
160
147
115
73
39
4
-38
-71
-88
-101
-114
-123
-118
-98
-85
-92
-102
-86
-64
-73
-92
-90
-80
-74
-71
-92
-118
-108
-90
-94
-95
-93
-96
-90
-81
-93
-108
-106
-89
-74
-68
-56
-26
-6
-15
-23
-20
-27
-44
-52
-47
-52
-65
-51
-33
-51
-42
44
241
662
1014
587
-493
-1108
-820
-313
-86
-16
23
27
28
44
54
56
55
60
78
91
90
100
126
134
133
156
189
205
215
235
261
277
293
326
350
336
310
289
256
207
143
55
-19
-44
-52
-74
-92
-91
-88
-86
-82
-93
-111
-96
-58
-58
-88
-85
-58
-75
-127
-135
-107
-118
-152
-146
-121
-130
-142
-132
-135
-152
-142
-117
-121
-135
-117
-86
-75
-71
-70
-87
-105
-110
-111
-109
-105
-96
-80
-91
-106
-61
45
430
1227
1538
467
-939
-1108
-428
-81
-93
-62
-22
-22
-9
-14
-23
4
22
17
31
55
53
56
93
123
122
132
160
173
181
204
222
233
247
249
239
237
225
176
115
63
7
-47
-84
-106
-117
-116
-113
-110
-101
-98
-108
-113
-104
-99
-104
-97
-79
-82
-102
-106
-104
-112
-115
-104
-98
-103
-100
-89
-86
-89
-90
-92
-91
-89
-91
-71
-27
-14
-34
-30
-18
-41
-75
-84
-67
-54
-60
-54
-38
-57
-67
1
201
699
1251
965
-267
-1129
-865
-271
-59
-40
-2
6
4
25
32
30
43
57
64
68
77
97
114
108
103
127
150
149
154
181
202
209
213
209
204
211
217
195
148
97
48
-7
-59
-88
-98
-107
-114
-108
-104
-107
-105
-102
-110
-119
-126
-135
-124
-101
-104
-114
-89
-67
-86
-101
-80
-62
-63
-61
-52
-47
-43
-40
-39
-38
-27
-4
13
17
24
32
12
-19
-33
-38
-38
-36
-50
-55
-35
-33
-27
66
277
592
811
529
-243
-852
-846
-479
-171
-42
-18
-12
7
20
25
36
43
41
46
59
68
74
87
101
112
124
142
154
160
173
192
200
202
209
215
210
200
190
168
122
66
18
-26
-67
-87
-89
-101
-117
-110
-98
-103
-105
-102
-107
-103
-95
-103
-107
-99
-106
-116
-106
-107
-121
-116
-108
-119
-124
-110
-99
-105
-110
-100
-84
-76
-65
-39
-33
-61
-85
-77
-61
-66
-79
-67
-64
-80
-49
39
264
824
1293
752
-531
-1140
-720
-211
-73
-35
4
-13
-19
13
29
29
41
54
54
52
62
83
104
119
126
136
161
183
192
210
239
255
265
282
288
277
265
241
187
123
60
-6
-58
-83
-103
-120
-118
-109
-111
-114
-109
-107
-108
-111
-116
-122
-122
-115
-113
-124
-130
-123
-119
-122
-124
-126
-130
-126
-113
-101
-97
-90
-71
-55
-64
-87
-96
-85
-83
-99
-91
-63
-77
-88
-23
112
490
1136
1236
205
-949
-1046
-486
-147
-68
-22
-13
-17
6
21
20
24
34
47
56
57
69
90
104
116
131
143
163
189
200
205
232
252
247
259
299
312
274
209
136
65
-6
-73
-110
-108
-109
-138
-150
-125
-124
-157
-158
-126
-114
-105
-86
-91
-114
-134
-157
-151
-114
-103
-108
-89
-98
-130
-114
-106
-142
-106
-23
-50
-128
-105
-46
-59
-119
-144
-107
-70
-87
-96
-31
187
690
1180
875
-247
-1068
-914
-375
-128
-85
11
47
-57
-65
78
107
22
53
116
59
44
133
151
119
136
115
83
161
224
179
183
244
225
203
262
288
248
222
200
135
48
-22
-73
-121
-140
-134
-160
-163
-95
-87
-164
-163
-109
-124
-143
-100
-61
-76
-121
-135
-97
-89
-134
-137
-100
-107
-141
-116
-48
-59
-146
-164
-105
-80
-96
-103
-80
-53
-102
-166
-84
176
739
1509
1465
84
-1177
-1027
-295
-57
-103
-50
-19
-69
-75
-11
41
42
27
24
37
52
44
47
115
184
170
145
185
216
216
264
317
313
320
340
296
245
241
214
123
-21
-147
-128
-16
-32
-166
-193
-121
-147
-236
-196
-92
-106
-175
-191
-217
-236
-168
-125
-184
-192
-133
-150
-184
-143
-119
-145
-144
-113
-80
-56
-79
-128
-125
-96
-132
-158
-60
14
-89
-173
-60
195
726
1397
1254
-11
-1090
-1012
-437
-138
-52
1
0
-18
2
25
19
29
78
101
79
72
67
65
129
193
163
140
207
249
217
224
275
276
264
304
311
245
207
180
80
15
35
-39
-201
-211
-100
-97
-156
-128
-96
-145
-177
-164
-182
-165
-55
-8
-101
-183
-173
-135
-100
-87
-102
-110
-116
-150
-171
-149
-99
-44
-49
-116
-129
-85
-90
-103
-61
-63
-131
-146
-110
-100
-76
19
263
766
1150
679
-465
-1130
-876
-376
-130
-36
15
4
-12
23
58
54
50
70
83
71
68
105
144
143
141
162
175
196
249
276
253
251
287
318
341
341
272
200
210
199
75
-27
-21
-33
-92
-90
-64
-86
-84
-45
-50
-87
-98
-85
-75
-84
-89
-68
-73
-110
-95
-69
-111
-126
-73
-71
-105
-82
-83
-135
-123
-87
-118
-111
-35
-35
-92
-75
-29
-53
-109
-116
-84
-67
-67
-68
-93
-106
-59
56
413
1026
1135
191
-877
-976
-487
-206
-106
-1
2
-52
-31
-15
-64
-72
-10
28
1
-19
31
94
86
62
84
110
115
129
144
165
211
233
213
210
246
264
229
183
154
120
77
46
-6
-79
-104
-73
-60
-72
-66
-47
-46
-74
-120
-131
-91
-61
-69
-81
-88
-98
-80
-65
-107
-132
-86
-60
-84
-82
-63
-78
-102
-113
-114
-87
-49
-41
-39
-21
-21
-35
-33
-43
-78
-81
-29
14
-12
-37
10
73
260
788
1180
620
-520
-1022
-684
-252
-75
-26
-27
-22
11
14
-1
22
40
18
5
20
29
24
28
50
76
87
88
106
140
161
156
156
178
203
210
207
207
197
162
114
66
16
-29
-48
-55
-75
-97
-99
-93
-85
-75
-75
-84
-84
-83
-90
-84
-70
-86
-113
-101
-77
-86
-103
-95
-76
-69
-76
-83
-83
-82
-74
-56
-40
-41
-54
-58
-35
-8
-7
-31
-56
-62
-47
-44
-55
-36
-14
-30
-14
107
390
824
985
386
-570
-981
-717
-325
-98
4
27
12
17
46
61
54
51
64
68
59
76
114
120
93
89
109
130
152
167
166
174
195
204
206
213
208
192
176
150
101
51
18
-17
-61
-82
-69
-71
-100
-114
-105
-94
-87
-85
-88
-87
-86
-84
-80
-88
-105
-109
-103
-103
-103
-100
-97
-95
-101
-109
-104
-97
-96
-97
-99
-96
-78
-68
-73
-54
-19
-23
-61
-81
-72
-61
-66
-67
-55
-62
-74
-29
81
340
821
1052
425
-616
-1022
-682
-274
-97
-27
0
1
14
31
35
37
43
52
61
68
76
84
91
105
119
128
143
164
177
188
210
229
227
229
249
258
240
220
193
137
73
25
-19
-53
-73
-94
-106
-98
-94
-102
-96
-84
-88
-94
-90
-87
-86
-84
-85
-88
-87
-84
-84
-88
-94
-94
-90
-92
-98
-94
-87
-88
-90
-83
-71
-56
-44
-40
-43
-57
-78
-80
-66
-67
-68
-61
-75
-70
-1
152
549
1079
976
-35
-935
-918
-460
-181
-70
-12
-9
-4
18
17
9
20
37
43
47
57
68
75
85
100
117
141
164
168
169
191
221
241
251
256
259
256
236
197
144
81
19
-34
-76
-103
-116
-120
-118
-116
-113
-109
-106
-106
-103
-93
-86
-87
-91
-90
-92
-98
-95
-88
-92
-108
-109
-93
-87
-94
-97
-95
-98
-93
-82
-85
-91
-78
-63
-58
-43
-21
-24
-49
-67
-63
-51
-54
-60
-48
-54
-67
-11
112
381
896
1149
461
-649
-1024
-625
-229
-88
-24
2
-2
14
37
39
30
35
58
71
67
71
84
91
101
118
133
151
174
187
199
220
239
251
268
281
270
249
229
192
126
55
-5
-61
-105
-130
-140
-143
-141
-137
-135
-135
-131
-127
-124
-113
-104
-110
-112
-102
-103
-115
-119
-118
-116
-114
-118
-120
-110
-107
-114
-119
-122
-109
-84
-88
-109
-89
-42
-36
-79
-113
-99
-74
-92
-121
-93
-66
-97
-79
50
308
876
1422
951
-432
-1224
-894
-381
-192
-88
-14
-11
0
10
-1
27
68
57
38
65
97
104
117
143
158
167
190
225
261
285
305
332
359
378
382
364
332
294
234
144
52
-28
-87
-113
-125
-146
-160
-161
-161
-152
-130
-117
-113
-105
-100
-97
-86
-81
-89
-97
-100
-103
-105
-104
-102
-108
-121
-121
-108
-105
-107
-102
-108
-113
-95
-90
-100
-76
-46
-63
-96
-105
-101
-97
-103
-108
-90
-96
-119
-55
102
473
1156
1395
384
-956
-1188
-604
-226
-128
-44
-20
-38
-22
-11
-9
9
18
22
38
51
56
65
83
106
131
151
170
194
220
247
274
302
325
335
331
316
285
232
161
82
6
-56
-98
-125
-141
-148
-145
-134
-129
-130
-121
-107
-108
-110
-99
-96
-104
-106
-104
-106
-102
-99
-107
-111
-104
-106
-114
-111
-103
-100
-99
-97
-96
-91
-83
-85
-91
-87
-80
-75
-65
-59
-61
-46
-14
-5
-33
-63
-67
-53
-53
-59
-40
-37
-65
-28
94
357
946
1406
789
-552
-1130
-680
-202
-77
-21
16
0
11
36
37
43
56
62
70
75
74
87
107
122
135
151
171
194
217
238
265
293
313
325
334
336
326
296
234
153
74
11
-42
-87
-119
-133
-133
-131
-132
-130
-126
-123
-120
-116
-115
-117
-116
-111
-110
-119
-125
-126
-128
-132
-131
-131
-133
-133
-130
-130
-133
-133
-129
-124
-123
-121
-119
-115
-112
-110
-108
-105
-102
-98
-96
-93
-88
-88
-89
-83
-76
-72
-65
-59
-54
-36
-9
-3
-23
-47
-52
-42
-45
-50
-31
-34
-56
-7
130
484
1169
1474
559
-771
-1046
-462
-97
-68
-29
0
-13
6
23
17
29
44
46
53
65
74
88
103
117
136
157
173
191
213
237
267
298
319
329
336
339
331
301
241
162
87
24
-30
-72
-99
-113
-117
-116
-113
-111
-107
-100
-96
-99
-96
-85
-80
-82
-82
-79
-82
-89
-90
-87
-85
-88
-93
-95
-93
-92
-94
-93
-89
-88
-90
-89
-85
-81
-80
-79
-74
-71
-70
-70
-66
-64
-64
-60
-63
-80
-87
-68
-48
-44
-50
-53
-48
-41
-42
-45
-43
-40
-40
-38
-41
-44
-41
-34
-32
-31
-29
-31
-32
-27
-26
-25
-11
6
14
24
36
31
4
-16
-14
-11
-25
-23
-7
-26
-37
29
178
577
1204
1233
158
-923
-893
-307
-62
-60
-20
-6
-17
7
17
8
20
31
30
37
47
51
60
74
86
100
118
134
149
168
187
203
223
243
254
258
262
261
248
214
153
81
21
-28
-76
-107
-115
-116
-120
-120
-117
-114
-110
-102
-100
-101
-96
-90
-87
-82
-80
-91
-100
-95
-88
-89
-91
-93
-97
-94
-85
-82
-85
-84
-81
-79
-77
-76
-76
-73
-68
-64
-63
-62
-60
-55
-54
-59
-62
-58
-51
-50
-47
-39
-40
-46
-41
-33
-33
-21
7
24
32
44
37
6
-7
0
-6
-15
-9
1
-10
-33
-14
70
210
522
928
813
-83
-914
-898
-411
-108
-33
1
25
29
34
44
58
65
59
52
66
99
113
89
71
96
136
161
168
182
218
238
214
204
238
258
247
258
277
241
171
120
60
-16
-62
-91
-127
-124
-92
-115
-166
-159
-123
-122
-133
-129
-123
-126
-127
-125
-119
-114
-113
-117
-120
-118
-116
-118
-119
-113
-108
-106
-96
-90
-94
-89
-77
-82
-89
-80
-74
-78
-74
-67
-72
-72
-61
-58
-61
-61
-58
-44
-19
-1
5
11
7
-18
-44
-50
-40
-37
-38
-22
-21
-47
-17
80
235
577
928
667
-219
-839
-721
-319
-67
32
54
53
70
86
87
96
100
93
104
128
135
133
141
146
145
153
167
177
190
208
218
226
243
263
279
282
270
263
259
222
151
79
21
-25
-55
-82
-112
-131
-131
-122
-110
-103
-108
-116
-115
-106
-90
-82
-101
-122
-116
-109
-120
-118
-112
-129
-124
-86
-95
-148
-162
-143
-141
-141
-132
-134
-136
-124
-116
-109
-96
-85
-74
-63
-69
-89
-101
-103
-105
-110
-111
-95
-83
-93
-78
-7
183
639
1054
671
-420
-1064
-774
-263
-64
-27
3
13
24
36
29
31
52
63
57
54
67
85
92
96
110
127
140
158
182
201
217
233
241
248
264
275
275
263
229
168
102
44
-12
-55
-80
-97
-108
-112
-111
-104
-94
-92
-91
-82
-80
-88
-91
-87
-86
-89
-86
-81
-83
-86
-79
-76
-86
-91
-86
-83
-81
-73
-67
-58
-37
-19
-11
1
7
-11
-32
-35
-34
-44
-49
-36
-17
-31
-54
-14
89
310
756
1049
543
-488
-1014
-758
-327
-101
-14
10
7
16
26
27
33
40
40
44
59
69
71
79
97
112
126
144
163
188
220
239
249
278
309
311
312
320
286
204
123
59
8
-39
-95
-142
-153
-147
-147
-149
-155
-152
-131
-123
-138
-141
-135
-141
-135
-117
-121
-135
-136
-138
-138
-132
-139
-154
-151
-138
-134
-135
-132
-129
-131
-127
-109
-88
-73
-60
-49
-51
-69
-92
-100
-81
-74
-92
-86
-66
-79
-64
22
235
762
1281
864
-413
-1142
-762
-202
-58
-46
4
11
2
10
6
6
19
28
41
60
61
59
82
109
111
114
147
175
188
241
304
291
243
253
304
339
344
304
221
132
48
-13
-23
-34
-93
-120
-70
-56
-126
-178
-150
-98
-96
-138
-149
-95
-52
-102
-179
-167
-87
-47
-58
-55
-42
-75
-119
-104
-71
-74
-53
8
10
-51
-57
-4
25
30
43
36
11
2
