# session 29
-19
-17
-33
16
114
138
97
85
95
88
83
84
77
69
66
57
48
44
37
23
9
4
-1
-13
-19
-10
-7
-13
-5
13
11
-14
-37
-48
-44
-46
-62
-60
-54
-73
-56
23
206
713
1276
950
-315
-1172
-943
-401
-166
-92
-46
-47
-42
-20
-18
-19
-10
-3
3
10
20
32
45
57
73
93
112
129
149
170
189
210
226
229
226
230
228
205
165
112
52
-5
-51
-88
-111
-118
-118
-117
-112
-105
-97
-91
-94
-97
-89
-79
-79
-80
-76
-77
-83
-91
-95
-85
-77
-86
-77
-50
-57
-81
-61
-28
-31
-52
-66
-67
-61
-66
-72
-56
-64
-94
-57
47
303
901
1327
664
-653
-1176
-715
-248
-129
-75
-33
-45
-29
10
6
-14
7
48
45
19
36
77
80
70
93
127
140
149
163
166
172
205
227
214
221
244
226
186
158
102
17
-27
-21
-45
-118
-166
-147
-109
-99
-104
-104
-101
-102
-100
-98
-105
-111
-108
-112
-120
-116
-109
-114
-116
-112
-117
-104
-65
-54
-77
-73
-38
-20
-27
-45
-66
-73
-67
-65
-71
-75
-70
-72
-79
-53
21
195
581
902
539
-414
-1012
-834
-391
-136
-44
-22
-23
-4
18
21
26
39
42
49
69
84
85
87
100
122
144
156
163
177
198
212
217
221
229
236
236
231
225
212
179
135
91
44
3
-18
-24
-33
-41
-38
-35
-38
-41
-40
-40
-43
-46
-50
-54
-59
-65
-69
-73
-80
-80
-73
-76
-85
-86
-82
-76
-65
-56
-50
-35
-20
-28
-51
-73
-80
-73
-76
-80
-64
-68
-89
-45
67
326
857
1150
456
-731
-1163
-742
-298
-133
-66
-39
-39
-21
-9
-14
-8
1
5
16
25
29
40
55
65
79
97
111
128
150
164
178
203
216
205
192
192
194
180
145
96
42
-13
-57
-81
-95
-105
-109
-109
-104
-97
-91
-88
-86
-83
-77
-73
-76
-80
-79
-80
-82
-82
-82
-87
-90
-86
-86
-90
-87
-80
-78
-69
-54
-44
-37
-25
-15
-22
-45
-57
-47
-46
-58
-46
-37
-64
-47
46
232
677
1123
749
-410
-1126
-850
-327
-108
-44
-1
-2
-2
16
23
27
39
46
50
59
70
77
84
92
106
124
143
158
170
186
206
220
229
236
237
232
227
213
179
130
79
27
-24
-64
-89
-100
-100
-99
-98
-97
-94
-89
-86
-86
-89
-92
-96
-98
-97
-99
-106
-107
-103
-109
-119
-118
-111
-112
-112
-105
-100
-104
-98
-82
-68
-51
-34
-35
-56
-79
-85
-77
-76
-77
-61
-63
-87
-53
45
271
783
1158
592
-599
-1147
-771
-289
-110
-49
-16
-14
1
23
27
31
38
41
50
63
73
86
100
106
118
143
163
173
187
206
224
240
254
264
266
262
257
252
230
182
124
67
16
-22
-41
-53
-63
-60
-49
-43
-48
-59
-55
-22
-8
-45
-71
-48
-38
-76
-93
-55
-23
-56
-106
-95
-55
-57
-82
-93
-106
-117
-100
-72
-54
-48
-67
-91
-74
-40
-63
-112
-100
-56
-72
-107
-65
69
369
810
858
87
-857
-1037
-587
-216
-105
-66
-50
-57
-49
-36
-29
-23
-28
-24
10
29
4
-9
14
31
44
71
92
102
121
144
161
173
183
190
196
195
183
165
137
96
49
6
-30
-59
-76
-79
-76
-77
-77
-74
-67
-59
-55
-55
-55
-54
-56
-58
-56
-55
-60
-65
-63
-58
-61
-68
-66
-58
-57
-56
-50
-48
-51
-39
-20
-12
-3
16
18
-5
-29
-34
-26
-29
-41
-28
-18
-41
-26
56
229
660
1124
827
-271
-1035
-857
-362
-118
-43
-1
8
12
26
31
32
37
43
49
55
65
76
82
88
102
117
131
145
160
174
192
211
224
232
237
237
236
227
198
150
95
39
-12
-51
-76
-89
-95
-95
-91
-89
-90
-88
-86
-88
-88
-86
-87
-90
-90
-92
-97
-100
-102
-104
-104
-105
-110
-111
-105
-103
-107
-107
-100
-101
-105
-92
-78
-75
-64
-41
-37
-60
-84
-88
-75
-79
-94
-79
-67
-90
-66
29
235
725
1160
698
-497
-1141
-812
-316
-125
-57
-14
-18
-12
9
12
12
25
38
45
50
60
75
85
90
100
116
134
152
170
185
196
208
227
239
239
233
225
209
178
132
79
29
-15
-53
-78
-87
-85
-83
-82
-78
-72
-66
-63
-63
-63
-61
-59
-64
-67
-65
-68
-75
-74
-72
-77
-79
-71
-65
-67
-69
-67
-68
-66
-61
-59
-62
-63
-65
-61
-45
-35
-31
-14
3
-1
-25
-50
-59
-50
-46
-48
-40
-48
-59
-6
113
388
896
1086
320
-793
-1090
-615
-200
-78
-31
-5
-3
9
19
21
29
39
44
48
49
53
67
83
96
109
119
131
152
173
187
204
221
231
236
238
234
223
204
171
122
59
-3
-48
-78
-101
-116
-118
-114
-112
-109
-106
-105
-97
-87
-90
-102
-102
-96
-99
-101
-100
-107
-115
-113
-112
-114
-105
-89
-87
-106
-114
-94
-80
-92
-93
-72
-72
-82
-63
-38
-39
-48
-43
-19
3
9
22
46
43
11
-11
-5
4
-8
-12
8
2
-15
49
202
498
949
1033
262
-747
-1016
-628
-256
-91
-10
16
18
32
39
36
43
50
50
56
64
67
74
85
89
94
112
130
139
154
173
187
202
218
220
216
219
218
198
167
125
72
18
-28
-62
-81
-89
-95
-101
-100
-96
-98
-98
-88
-81
-85
-87
-86
-91
-96
-96
-98
-102
-102
-101
-101
-100
-99
-98
-96
-99
-102
-96
-87
-86
-88
-84
-82
-83
-82
-85
-85
-71
-57
-56
-47
-21
-8
-27
-56
-69
-58
-51
-61
-59
-49
-67
-55
29
207
656
1183
927
-243
-1090
-882
-336
-108
-53
-8
-5
-4
15
18
16
28
39
45
53
65
76
84
93
108
125
140
160
185
206
224
249
274
287
290
290
285
269
234
177
108
49
-2
-55
-99
-114
-112
-113
-117
-113
-106
-104
-104
-97
-87
-81
-81
-82
-85
-90
-92
-92
-92
-91
-94
-98
-98
-96
-98
-99
-95
-91
-90
-87
-81
-81
-82
-80
-80
-81
-76
-74
-78
-70
-52
-44
-39
-17
-7
-28
-55
-62
-54
-53
-63
-54
-36
-52
-50
24
194
605
1105
915
-175
-1054
-922
-374
-105
-41
1
8
8
29
38
35
41
49
56
64
69
79
96
107
114
128
148
165
184
206
228
247
261
273
281
286
283
270
241
190
126
65
11
-33
-64
-86
-98
-98
-96
-96
-92
-86
-83
-77
-69
-71
-76
-77
-77
-78
-80
-81
-80
-81
-86
-92
-94
-90
-83
-83
-90
-89
-81
-78
-80
-78
-75
-74
-73
-69
-68
-71
-74
-74
-71
-69
-68
-68
-67
-69
-72
-69
-63
-63
-60
-48
-37
-32
-17
3
0
-27
-53
-52
-39
-46
-54
-33
-34
-54
-7
115
397
909
1088
305
-791
-1048
-566
-177
-67
-19
4
2
15
26
28
39
41
37
47
61
67
74
86
97
106
117
136
158
176
190
208
229
247
255
256
258
261
253
224
170
105
53
9
-37
-72
-85
-92
-96
-93
-91
-91
-86
-81
-80
-79
-74
-72
-71
-72
-75
-77
-80
-82
-79
-74
-78
-84
-81
-79
-82
-79
-72
-69
-70
-70
-66
-58
-55
-60
-71
-77
-71
-59
-56
-60
-57
-52
-52
-50
-47
-51
-45
-29
-23
-19
3
15
-7
-36
-43
-33
-31
-43
-40
-31
-46
-26
78
264
652
1096
903
-106
-971
-965
-511
-194
-58
1
14
23
33
33
41
54
53
51
59
69
75
81
90
104
119
130
143
162
180
194
208
229
250
260
259
256
248
224
186
133
69
8
-39
-72
-93
-103
-106
-108
-108
-103
-95
-91
-91
-87
-82
-80
-78
-76
-77
-78
-79
-82
-86
-85
-82
-85
-85
-81
-83
-88
-84
-77
-78
-82
-81
-75
-73
-77
-76
-72
-75
-76
-70
-66
-70
-72
-68
-65
-66
-65
-64
-63
-59
-58
-61
-63
-59
-56
-52
-43
-35
-32
-13
12
3
-32
-56
-55
-45
-45
-47
-38
-48
-54
4
132
451
992
1108
229
-860
-1028
-500
-139
-71
-22
17
1
4
31
36
43
63
58
52
81
102
107
125
138
143
167
193
204
223
250
271
289
308
324
337
340
329
312
282
226
157
89
26
-26
-62
-89
-107
-110
-113
-122
-121
-107
-96
-95
-100
-101
-98
-100
-106
-104
-103
-108
-108
-109
-118
-120
-113
-115
-124
-119
-111
-114
-118
-112
-106
-107
-104
-97
-98
-104
-101
-91
-91
-94
-83
-66
-59
-50
-32
-30
-56
-80
-79
-71
-79
-80
-61
-70
-91
-39
87
369
908
1163
426
-754
-1147
-703
-261
-105
-41
-13
-15
-1
16
16
20
31
41
50
55
61
72
88
102
116
135
155
173
193
219
248
274
295
317
335
336
318
289
245
177
97
28
-25
-69
-102
-121
-129
-130
-128
-124
-118
-111
-109
-107
-100
-90
-85
-87
-88
-83
-77
-78
-83
-86
-86
-88
-88
-82
-78
-79
-79
-75
-73
-73
-71
-69
-68
-64
-62
-63
-64
-61
-57
-59
-60
-53
-49
-51
-51
-50
-51
-39
-17
-6
3
21
20
-8
-29
-33
-33
-35
-39
-33
-19
-36
-40
33
186
553
1086
1052
41
-964
-972
-431
-122
-48
0
10
8
31
37
32
45
56
56
63
72
74
82
98
110
121
140
156
170
189
213
237
264
290
302
305
306
298
272
227
164
92
25
-29
-72
-104
-122
-128
-129
-128
-126
-124
-118
-109
-105
-105
-99
-96
-99
-99
-91
-89
-96
-101
-102
-104
-105
-103
-103
-106
-107
-103
-99
-98
-97
-95
-95
-96
-92
-87
-90
-99
-98
-87
-81
-83
-84
-81
-79
-85
-87
-69
-42
-32
-24
-5
-7
-42
-66
-60
-52
-57
-63
-53
-40
-59
-61
14
163
508
1014
1014
81
-921
-1014
-512
-166
-67
-20
3
12
28
34
33
41
44
45
58
75
89
100
104
108
125
146
163
180
199
219
245
270
289
308
319
315
312
305
265
199
136
71
0
-52
-79
-99
-109
-107
-103
-104
-103
-101
-99
-93
-87
-85
-85
-86
-86
-87
-93
-99
-99
-96
-97
-103
-106
-101
-98
-104
-105
-94
-89
-93
-92
-88
-92
-96
-89
-77
-61
-47
-40
-27
-8
-16
-52
-77
-76
-65
-62
-71
-63
-48
-70
-68
23
201
603
1125
994
-78
-1030
-1004
-508
-207
-83
-9
-2
-5
18
27
24
35
45
49
59
67
69
79
100
116
124
135
157
187
214
237
267
299
320
336
350
349
329
290
231
158
83
16
-39
-80
-107
-117
-120
-121
-119
-112
-111
-113
-112
-107
-104
-104
-102
-99
-99
-101
-104
-109
-117
-116
-114
-122
-128
-122
-118
-126
-130
-124
-117
-117
-121
-125
-122
-119
-120
-120
-116
-115
-114
-111
-111
-113
-111
-105
-101
-104
-106
-93
-78
-82
-74
-41
-32
-42
-19
-10
-56
-68
-18
-13
-54
-47
-6
3
-7
19
95
248
656
1234
1223
227
-789
-857
-377
-84
5
65
78
71
86
90
81
84
91
90
87
89
93
95
98
110
129
141
148
165
186
206
228
254
274
285
292
296
293
277
241
185
113
36
-27
-68
-99
-129
-145
-142
-139
-141
-137
-126
-122
-121
-113
-103
-103
-106
-106
-109
-111
-108
-111
-120
-121
-116
-118
-122
-120
-118
-118
-117
-116
-116
-110
-105
-107
-110
-103
-99
-99
-95
-93
-95
-89
-84
-89
-83
-59
-44
-37
-17
-9
-37
-69
-75
-68
-64
-74
-81
-59
-53
-71
-30
88
384
968
1252
467
-771
-1126
-612
-186
-90
-43
-9
-18
-6
15
18
22
31
36
46
57
64
75
93
105
113
129
151
173
201
232
256
284
319
341
347
352
347
321
275
210
127
47
-13
-58
-95
-122
-135
-138
-135
-128
-122
-119
-111
-100
-97
-96
-92
-89
-87
-82
-80
-82
-85
-88
-92
-90
-86
-87
-90
-91
-90
-89
-87
-82
-79
-78
-78
-77
-74
-67
-63
-64
-65
-65
-68
-67
-61
-59
-62
-60
-54
-54
-45
-21
-7
-4
6
6
-15
-36
-47
-46
-39
-42
-41
-29
-42
-44
31
188
564
1101
1043
3
-988
-958
-408
-118
-53
-6
3
0
21
29
28
38
44
46
56
63
71
86
97
102
116
137
153
171
195
221
247
273
295
313
328
331
321
297
252
185
111
43
-16
-63
-95
-114
-122
-124
-124
-123
-117
-110
-105
-102
-99
-97
-94
-90
-89
-89
-92
-96
-98
-99
-104
-107
-105
-105
-107
-104
-101
-102
-104
-104
-101
-95
-95
-99
-96
-89
-90
-91
-87
-87
-89
-83
-78
-80
-80
-75
-73
-73
-57
-34
-19
-5
4
-14
-43
-53
-54
-59
-62
-59
-41
-29
-58
-54
38
212
602
1087
926
-104
-981
-938
-464
-172
-58
-7
-2
5
22
29
36
44
46
54
73
82
79
81
103
128
135
138
158
184
198
214
248
286
308
319
325
328
332
323
277
206
136
71
7
-55
-101
-117
-111
-113
-123
-125
-119
-110
-101
-97
-101
-104
-104
-105
-106
-107
-108
-108
-108
-111
-115
-112
-108
-114
-120
-115
-108
-108
-108
-106
-105
-104
-101
-93
-75
-52
-31
-22
-31
-46
-48
-59
-90
-100
-84
-84
-89
-85
-102
-92
4
193
618
1155
1014
-90
-1073
-1043
-514
-207
-104
-31
-10
-20
-4
20
16
7
15
23
30
57
92
101
85
76
90
135
191
205
193
232
298
314
315
360
401
396
379
340
245
155
97
15
-77
-117
-126
-139
-147
-145
-132
-112
-107
-113
-109
-109
-110
-88
-70
-96
-119
-87
-58
-94
-139
-122
-87
-93
-110
-104
-88
-80
-84
-97
-97
-66
