# session 0
38
488
-80
-1295
-1891
-1509
-956
-733
-650
-595
-605
-585
-504
-476
-496
-456
-378
-373
-407
-381
-325
-304
-294
-266
-240
-220
-198
-183
-176
-159
-144
-149
-158
-153
-142
-136
-128
-119
-125
-156
-205
-246
-260
-261
-274
-290
-286
-268
-254
-247
-239
-221
-199
-194
-203
-194
-169
-159
-163
-157
-144
-139
-138
-133
-124
-114
-96
-78
-66
-44
-12
-2
-23
-43
-38
-19
-15
-21
2
15
-10
21
134
430
1188
1863
1202
-459
-1244
-733
-157
-15
56
113
97
110
138
134
136
149
154
166
180
187
202
222
235
254
278
292
301
324
353
369
368
360
346
324
305
295
272
223
164
108
50
1
-25
-39
-49
-53
-56
-64
-66
-61
-58
-56
-53
-58
-65
-65
-70
-89
-108
-106
-91
-86
-99
-111
-104
-91
-88
-101
-105
-81
-71
-87
-57
-4
-34
-97
-92
-71
-94
-111
-98
-84
-88
-93
-34
141
510
1061
1215
352
-885
-1247
-739
-273
-137
-91
-66
-63
-41
-28
-34
-27
-21
-27
-19
7
25
29
31
48
74
85
88
106
122
120
125
139
128
100
89
88
79
70
60
37
-2
-41
-70
-87
-93
-93
-98
-108
-104
-88
-82
-87
-89
-93
-98
-97
-94
-97
-104
-108
-105
-101
-98
-95
-93
-86
-70
-60
-59
-44
-22
-35
-76
-96
-85
-82
-103
-102
-74
-86
-102
-16
199
674
1328
1267
-31
-1315
-1292
-559
-164
-78
-3
25
16
35
48
49
56
66
78
91
97
109
132
151
165
180
196
209
221
228
232
230
218
202
187
173
160
149
133
103
58
8
-32
-55
-68
-76
-78
-77
-78
-80
-82
-82
-82
-87
-95
-98
-99
-102
-107
-113
-115
-111
-108
-106
-96
-82
-78
-68
-47
-47
-75
-104
-117
-113
-111
-115
-102
-105
-132
-88
52
378
1088
1571
712
-939
-1539
-883
-271
-128
-69
-29
-41
-16
13
7
15
35
42
53
65
71
85
106
124
143
166
185
201
213
218
220
214
196
180
172
159
141
130
110
65
16
-15
-37
-61
-75
-73
-69
-72
-76
-78
-75
-69
-72
-92
-106
-102
-100
-108
-111
-108
-104
-88
-67
-65
-68
-56
-46
-62
-98
-130
-134
-109
-72
-44
-81
-137
-59
121
391
970
1404
658
-849
-1444
-867
-269
-86
-17
5
-26
-27
-20
-17
11
30
30
50
75
67
51
71
107
126
153
186
159
96
122
209
201
134
156
187
89
-6
59
151
115
20
-37
-58
-59
-70
-97
-83
-41
-65
-125
-140
-144
-172
-153
-69
-22
-71
-145
-164
-148
-101
-4
49
-5
-68
-105
-127
-64
-2
-72
-117
-54
-89
-165
-26
254
616
1141
1244
260
-979
-1143
-514
-149
-111
-45
-31
-81
-52
-6
8
34
19
-17
25
80
76
50
11
23
129
187
148
140
153
129
123
104
59
118
203
149
101
149
93
-46
-63
-21
-54
-80
-59
-79
-128
-108
-46
-46
-98
-107
-73
-67
-94
-105
-95
-73
-35
-18
-60
-93
-76
-65
-68
-91
-161
-162
-42
-10
-112
-100
100
478
1090
1423
654
-763
-1379
-928
-403
-230
-99
22
10
1
63
75
38
39
69
95
101
76
81
144
173
155
167
190
200
226
216
157
148
168
136
112
136
125
76
54
33
-20
-67
-97
-132
-146
-125
-123
-146
-139
-108
-109
-134
-130
-114
-139
-170
-144
-101
-120
-176
-169
-110
-102
-151
-169
-146
-151
-173
-144
-117
-167
-155
0
244
878
1773
1543
-232
-1586
-1266
-465
-203
-142
-51
-47
-42
-5
-10
-12
15
23
28
60
90
102
115
138
164
189
214
234
248
265
283
292
287
275
255
231
201
152
74
-9
-62
-85
-104
-127
-141
-138
-127
-126
-135
-134
-120
-113
-121
-121
-110
-120
-146
-139
-99
-86
-93
-75
-60
-91
-134
-137
-121
-138
-150
-110
-102
-135
-93
42
494
1489
1989
703
-1206
-1565
-677
-149
-126
-74
-33
-58
-35
-7
-11
-2
12
20
42
67
83
98
116
132
149
172
197
216
228
239
245
238
220
199
177
149
107
49
-11
-65
-115
-149
-158
-157
-161
-162
-154
-143
-137
-132
-129
-129
-125
-111
-103
-110
-115
-112
-121
-131
-111
-80
-77
-81
-61
-48
-71
-102
-109
-97
-102
-124
-113
-94
-125
-111
-7
256
1029
1893
1356
-553
-1634
-1059
-301
-149
-105
-25
-47
-49
-4
0
3
26
31
33
52
71
89
112
131
145
165
190
212
226
239
247
241
228
215
201
184
155
112
63
10
-46
-86
-100
-116
-137
-126
-89
-73
-83
-87
-77
-70
-72
-80
-82
-76
-75
-89
-104
-114
-115
-94
-61
-62
-102
-123
-105
-93
-110
-107
-75
-72
-105
-121
-110
-99
-86
-58
-17
2
-25
-57
-66
-78
-82
-55
-40
-42
-41
-71
-80
7
210
810
1680
1546
-77
-1417
-1181
-398
-107
-52
8
-15
-23
29
51
58
55
24
39
107
114
81
108
156
160
182
236
247
225
227
234
214
205
218
202
155
140
163
149
89
44
23
-9
-41
-60
-85
-109
-105
-72
-41
-61
-118
-113
-49
-55
-134
-164
-135
-110
-98
-109
-145
-160
-146
-140
-143
-130
-108
-92
-97
-123
-127
-91
-81
-121
-140
-108
-76
-60
-56
-72
-78
-59
-62
-77
-48
-4
-1
-14
-15
-21
-28
-5
43
52
7
-35
-35
-7
3
-18
-15
2
-18
20
182
453
925
1243
578
-769
-1348
-839
-250
-56
0
29
21
22
33
49
69
72
76
89
73
59
95
125
100
85
130
178
171
152
166
180
163
124
78
50
55
62
59
59
42
-7
-39
-24
-34
-105
-122
-45
-19
-77
-83
-28
-28
-66
-62
-46
-55
-56
-42
-31
-17
-24
-66
-82
-54
-35
-32
-22
-28
-46
-39
-16
-16
-30
-26
-10
-14
-43
-50
-19
-19
-63
-61
6
28
-17
-27
4
1
-27
-53
-76
-62
-26
-52
-88
-69
-74
-60
117
440
910
1276
762
-581
-1378
-1039
-459
-192
-32
40
-25
-34
52
98
75
44
40
54
69
93
115
113
122
162
180
161
170
221
233
189
178
213
208
179
172
134
88
113
112
20
-32
-19
-63
-120
-105
-103
-137
-100
-27
-34
-77
-82
-81
-86
-75
-60
-50
-65
-98
-86
-55
-96
-145
-117
-81
-91
-103
-85
-79
-121
-132
-57
-38
-132
-157
-83
-71
-114
-103
-56
-41
-80
-96
-14
43
-44
-111
-49
-25
-82
-46
55
1
-139
-78
156
436
929
1318
740
-536
-1156
-807
-310
-69
6
-21
-30
33
59
32
29
63
90
78
49
64
111
123
100
105
133
140
146
156
145
152
182
169
127
112
110
98
84
57
12
-47
-123
-193
-225
-239
-253
-245
-224
-224
-230
-206
-167
-141
-125
-105
-99
-124
-143
-107
-56
-56
-88
-89
-73
-75
-74
-53
-35
-31
-19
2
21
37
57
85
97
75
54
55
37
3
-5
8
39
61
27
16
111
310
821
1532
1445
188
-922
-887
-370
-106
3
71
56
50
80
83
79
93
101
99
93
86
103
135
140
136
160
195
221
246
268
285
304
310
298
286
267
228
181
122
37
-54
-121
-172
-220
-255
-273
-284
-289
-281
-272
-274
-272
-257
-249
-248
-240
-232
-234
-233
-221
-216
-217
-210
-207
-211
-209
-206
-214
-216
-208
-212
-222
-214
-200
-201
-201
-187
-171
-161
-140
-114
-108
-117
-124
-130
-128
-118
-121
-110
-79
-82
-85
8
235
665
1104
888
-132
-986
-951
-473
-148
10
98
109
111
150
182
191
200
205
201
186
171
168
184
213
236
241
249
273
282
274
276
278
264
248
229
214
231
253
235
191
143
83
37
17
-3
-22
-22
-9
5
24
40
36
23
25
48
67
58
37
35
46
40
20
11
9
-4
-17
-21
-26
-34
-42
-51
-64
-79
-79
-62
-57
-57
-22
7
-33
-94
-115
-126
-153
-169
-144
-110
-131
-170
-111
72
472
1099
1274
344
-930
-1306
-877
-472
-305
-220
-192
-188
-160
-133
-117
-93
-69
-52
-34
-17
0
18
33
43
59
82
100
112
136
163
173
173
175
166
146
127
107
75
23
-61
-162
-215
-191
-172
-222
-297
-333
-305
-211
-118
-110
-150
-154
-137
-143
-149
-133
-112
-108
-109
-96
-79
-73
-58
-29
-11
-11
-2
21
43
61
88
126
160
175
170
163
165
165
159
157
168
169
147
121
105
80
49
50
83
78
27
37
143
338
769
1263
1064
-8
-915
-884
-396
-105
-8
53
56
28
38
52
44
59
68
36
38
87
101
86
95
113
116
109
108
131
158
159
160
170
155
121
105
99
88
67
26
-34
-86
-126
-164
-194
-205
-202
-202
-204
-193
-177
-172
-168
-156
-145
-138
-129
-124
-122
-109
-98
-97
-96
-88
-83
-81
-80
-82
-74
-62
-64
-60
-44
-54
-92
-116
-114
-109
-116
-122
-115
-121
-132
-81
63
385
931
1179
448
-773
-1275
-891
-400
-168
-73
-43
-39
-15
3
6
18
24
22
34
52
63
77
75
59
67
98
111
106
115
136
157
180
199
197
183
180
181
164
134
102
55
3
-30
-49
-69
-78
-63
-46
-37
-27
-18
-21
-26
-21
-26
-54
-73
-67
-65
-84
-98
-91
-78
-79
-88
-77
-47
-21
5
37
53
66
88
82
46
27
26
17
-2
-11
9
6
-37
-10
121
416
1029
1468
807
-571
-1205
-821
-338
-146
-57
-21
-18
9
19
8
23
54
97
139
109
22
-23
-14
9
48
82
94
121
161
166
146
151
174
177
166
158
147
127
99
55
-5
-53
-75
-91
-107
-115
-113
-103
-91
-91
-101
-94
-75
-72
-79
-77
-68
-68
-73
-74
-73
-77
-84
-88
-88
-84
-83
-90
-90
-71
-50
-44
-42
-40
-54
-79
-94
-99
-99
-97
-96
-101
-136
-159
-86
94
426
870
891
53
-976
-1201
-729
-301
-142
-87
-65
-66
-64
-57
-46
-35
-31
-17
7
17
32
74
109
124
147
181
205
224
244
255
258
262
261
243
222
206
191
170
134
77
22
-11
-39
-71
-84
-74
-69
-75
-73
-59
-49
-48
-45
-46
-59
-63
-48
-51
-79
-92
-82
-87
-103
-97
-81
-84
-79
-50
-31
-43
-64
-87
-111
-123
-103
-68
-64
-76
-72
-101
-129
-67
74
521
1385
1660
465
-1014
-1222
-600
-222
-106
-5
12
-2
35
56
52
60
69
77
98
115
125
146
174
192
210
238
266
283
295
306
311
312
301
272
257
262
237
169
99
34
-43
-111
-151
-175
-190
-184
-171
-178
-201
-199
-158
-127
-140
-160
-153
-141
-144
-144
-140
-150
-171
-178
-163
-149
-150
-148
-134
-142
-175
-202
-208
-197
-182
-177
-159
-145
-165
-125
34
331
922
1444
854
-719
-1620
-1235
-610
-357
-229
-158
-180
-175
-143
-143
-122
-70
-35
7
76
120
129
149
179
202
238
292
341
390
447
493
501
469
423
389
357
301
221
144
78
22
-14
-23
-20
-22
-32
-36
-29
-30
-45
-61
-72
-87
-112
-135
-144
-142
-148
-160
-152
-127
-118
-117
-95
-63
-53
-50
-29
-5
-4
-27
-43
-27
-11
-25
-24
-5
-27
-23
83
308
889
1630
1361
-215
-1416
-1154
-417
-138
-87
-35
-48
-60
-39
-43
-53
-48
-49
-44
-31
-32
-34
-20
1
17
32
48
65
85
109
126
133
133
133
128
125
124
99
48
0
-48
-102
-113
-61
-11
-6
-25
-48
-64
-68
-70
-75
-73
-69
-65
-61
-67
-80
-85
-91
-99
-90
-79
-95
-98
-62
-39
-61
-99
-125
-117
-81
-60
-59
-66
-87
-78
-4
227
856
1525
1090
-473
-1461
-1050
-350
-170
-137
-3
57
39
31
20
18
40
55
61
77
94
93
88
107
148
163
150
159
183
190
194
193
171
148
147
149
133
106
69
19
-27
-55
-67
-66
-62
-73
-82
-56
-35
-60
-97
-113
-127
-142
-145
-148
-155
-160
-157
-145
-130
-119
-101
-66
-47
-68
-102
-103
-75
-67
-75
-57
-46
-65
-31
89
363
904
1217
495
-815
-1335
-845
-286
-95
-48
-21
-12
10
30
27
23
38
63
73
67
74
93
103
113
137
153
162
185
217
225
192
157
182
233
226
181
161
145
95
39
8
-9
-23
-34
-39
-36
-24
-27
-53
-66
-50
-40
-47
-56
-65
-63
-56
-57
-44
-20
-21
-18
7
-2
-35
-28
-16
-46
-74
-80
-117
-166
-134
-39
171
761
1391
973
-460
-1331
-985
-409
-242
-193
-117
-123
-148
-104
-56
-60
-70
-46
-19
-7
20
55
67
76
115
154
158
156
174
187
187
193
187
162
153
162
153
124
90
57
31
12
-11
-28
-32
-36
-38
-32
-34
-43
-45
-47
-55
-60
-60
-53
-41
-40
-50
-45
-37
-61
-99
-116
-120
-129
-134
-126
-117
-129
-141
-91
55
351
699
627
-136
-984
-1155
-748
-332
-138
-82
-74
-69
-59
-46
-20
6
9
6
24
48
54
55
66
80
101
133
158
170
179
177
158
136
120
112
113
109
94
73
45
11
-14
-28
-42
-50
-49
-53
-62
-55
-39
-40
-57
-53
-28
-27
-46
-37
-12
-9
6
40
23
-26
-19
10
-2
-14
15
27
-9
0
134
374
729
1032
782
-107
-861
-882
-483
-167
-22
38
50
56
81
102
102
104
120
135
141
143
142
133
130
141
149
133
108
93
80
64
55
49
34
31
53
79
90
84
63
33
4
-19
-26
-27
-40
-50
-41
-39
-50
-41
-30
-69
-118
-101
-46
-32
-60
-82
-79
-81
-123
-178
-193
-176
-187
-217
-210
-198
-220
-179
2
306
666
753
156
-802
-1257
-986
-514
-215
-83
-45
-41
-27
-11
