# session 2
19
76
-102
58
804
1381
1351
1187
1175
1132
1052
1020
974
896
832
758
681
636
611
585
563
547
529
511
493
469
439
411
384
352
319
294
271
243
215
190
167
150
133
114
99
83
64
52
43
20
2
5
-11
-59
-101
-117
-123
-141
-159
-157
-163
-184
-138
21
346
814
875
-22
-1195
-1448
-866
-377
-240
-193
-165
-167
-155
-140
-136
-124
-112
-110
-102
-91
-80
-60
-34
-16
-5
7
23
36
41
44
43
35
22
11
2
-2
-7
-31
-70
-107
-136
-159
-171
-171
-166
-157
-145
-135
-128
-122
-118
-117
-113
-108
-110
-113
-110
-106
-107
-112
-115
-112
-102
-96
-92
-79
-69
-70
-57
-32
-29
-50
-66
-63
-57
-60
-51
-32
-49
-54
45
264
687
1188
1018
-139
-1199
-1173
-561
-179
-53
12
27
27
50
65
70
84
96
105
119
135
150
166
177
187
198
206
212
221
226
219
207
194
178
161
152
147
131
100
60
20
-11
-30
-43
-52
-54
-53
-54
-54
-49
-46
-50
-54
-52
-51
-57
-66
-68
-67
-68
-70
-71
-70
-65
-61
-58
-45
-38
-46
-43
-17
-7
-33
-61
-63
-53
-61
-63
-45
-54
-68
2
189
592
1148
1120
15
-1162
-1229
-576
-157
-58
-7
14
14
34
46
45
55
66
70
79
92
105
120
134
146
158
171
183
192
196
192
184
171
156
140
127
115
92
54
8
-37
-70
-92
-104
-109
-110
-108
-105
-99
-94
-91
-90
-90
-91
-92
-94
-97
-101
-102
-100
-99
-102
-105
-103
-96
-94
-89
-75
-69
-77
-69
-44
-39
-65
-91
-91
-82
-90
-91
-77
-88
-83
8
231
724
1256
928
-405
-1374
-1098
-394
-87
-25
30
41
47
83
97
102
129
146
148
162
181
190
192
197
205
214
218
218
216
209
198
186
168
144
124
112
103
86
49
2
-36
-61
-86
-104
-106
-106
-115
-120
-113
-107
-110
-114
-117
-126
-136
-140
-137
-135
-137
-138
-134
-133
-142
-145
-133
-126
-124
-110
-94
-84
-72
-59
-62
-89
-118
-113
-89
-91
-98
-87
-91
-70
45
292
717
1029
592
-506
-1233
-1066
-537
-187
-40
10
20
33
45
49
58
75
88
94
100
113
131
150
168
176
181
192
202
203
203
206
202
186
169
164
173
178
163
133
96
52
13
-7
-13
-16
-15
-10
-6
0
6
8
9
14
13
4
-4
-8
-16
-26
-25
-22
-33
-38
-26
-18
-17
-8
-8
-15
-3
10
-9
-43
-58
-53
-58
-71
-64
-62
-85
-44
126
442
910
1106
382
-881
-1434
-990
-401
-150
-63
-20
-14
2
23
23
28
43
52
62
77
89
102
121
137
151
166
182
194
201
202
195
187
182
173
158
141
118
80
33
-14
-57
-87
-98
-106
-113
-115
-112
-109
-107
-102
-101
-103
-105
-106
-108
-112
-121
-127
-128
-131
-140
-144
-142
-144
-146
-139
-135
-135
-126
-114
-111
-103
-83
-79
-104
-134
-141
-127
-124
-131
-124
-126
-134
-70
94
417
894
975
111
-1020
-1259
-685
-183
-23
20
41
58
86
88
78
99
115
95
100
151
174
152
151
179
192
198
215
232
239
243
244
245
246
246
244
245
236
202
153
104
55
5
-29
-39
-41
-45
-46
-40
-34
-31
-27
-25
-27
-32
-38
-43
-48
-54
-56
-53
-60
-72
-71
-64
-65
-58
-48
-51
-48
-24
-15
-34
-58
-72
-73
-75
-77
-62
-63
-87
-44
91
406
1034
1388
565
-860
-1360
-824
-299
-127
-43
-5
-14
11
41
45
55
60
52
51
57
61
64
55
46
60
81
85
98
131
150
153
164
170
156
146
145
119
60
-1
-50
-91
-131
-163
-175
-172
-166
-154
-141
-140
-143
-137
-120
-106
-111
-124
-125
-114
-108
-113
-117
-108
-111
-137
-145
-120
-107
-114
-108
-96
-85
-75
-86
-93
-51
-14
-38
-71
-66
-65
-88
-86
-56
-65
-72
29
274
823
1546
1431
11
-1301
-1269
-594
-221
-86
-17
-19
19
65
21
12
93
111
62
80
132
132
140
195
222
220
249
290
304
318
333
326
321
327
304
262
230
194
143
78
7
-49
-86
-117
-141
-154
-156
-144
-128
-116
-107
-97
-90
-87
-85
-90
-109
-128
-133
-146
-176
-189
-186
-198
-203
-193
-211
-247
-237
-196
-187
-211
-216
-184
-178
-212
-198
-163
-202
-178
65
523
1198
1590
789
-771
-1428
-857
-208
35
162
232
233
261
280
257
256
261
231
196
176
152
123
100
86
88
116
162
199
225
258
285
276
251
231
191
120
46
-23
-97
-165
-206
-225
-227
-220
-216
-211
-195
-177
-169
-160
-142
-128
-128
-131
-128
-133
-148
-158
-159
-159
-168
-178
-180
-183
-190
-189
-193
-203
-182
-136
-120
-148
-173
-164
-151
-163
-157
-128
-145
-148
-49
191
839
1675
1402
-268
-1438
-1018
-262
-115
-121
-19
8
-3
16
33
88
158
169
160
186
220
240
261
294
334
368
389
407
422
421
411
402
368
308
257
200
119
43
-21
-95
-144
-146
-142
-142
-131
-126
-133
-129
-117
-114
-114
-105
-86
-76
-92
-113
-118
-126
-162
-198
-195
-157
-127
-125
-126
-105
-84
-78
-66
-56
-70
-73
-40
-16
-41
-86
-104
-102
-120
-133
-105
-105
-136
-97
46
492
1343
1609
320
-1304
-1453
-589
-106
-59
-1
28
13
38
41
19
34
48
30
25
41
50
63
91
112
124
157
202
222
225
230
241
265
279
234
153
108
70
-12
-87
-116
-137
-161
-157
-141
-139
-131
-109
-96
-83
-49
-23
-36
-55
-49
-44
-63
-76
-67
-68
-91
-93
-70
-65
-83
-90
-88
-90
-94
-100
-105
-112
-126
-131
-108
-88
-101
-129
-134
-117
-117
-127
-103
-88
-90
-5
189
637
1389
1499
144
-1378
-1402
-531
-75
4
83
83
43
77
111
121
149
173
183
190
204
233
260
261
254
261
273
278
277
268
254
242
231
206
171
144
119
72
8
-44
-77
-107
-134
-150
-162
-174
-171
-150
-141
-161
-175
-154
-138
-157
-175
-174
-170
-162
-160
-179
-194
-180
-163
-163
-169
-168
-156
-140
-134
-129
-117
-115
-118
-92
-54
-48
-76
-95
-79
-63
-67
-45
-26
-58
-33
94
397
1164
1867
1165
-615
-1423
-807
-172
-55
-2
49
20
31
60
50
64
94
93
101
129
137
131
133
144
159
163
159
173
188
171
146
140
132
110
96
95
83
49
3
-40
-73
-95
-105
-104
-101
-97
-93
-91
-87
-81
-78
-79
-78
-75
-77
-79
-77
-78
-85
-87
-79
-78
-90
-92
-83
-88
-92
-74
-62
-68
-57
-34
-43
-78
-100
-101
-98
-103
-90
-72
-92
-96
1
231
709
1241
991
-262
-1277
-1130
-487
-163
-84
-28
-17
-14
17
31
33
49
61
65
81
102
114
127
148
173
190
201
211
220
219
204
181
168
163
144
110
95
88
51
-1
-48
-87
-94
-78
-86
-106
-121
-141
-135
-85
-72
-124
-140
-99
-101
-142
-119
-67
-97
-150
-120
-68
-63
-54
-25
-14
-12
-13
-41
-73
-66
-42
-47
-65
-49
-46
-89
-43
186
538
951
1120
547
-535
-1157
-951
-463
-150
-12
35
44
58
76
85
90
100
117
131
134
141
156
173
182
185
193
205
207
196
188
182
168
144
126
122
115
87
42
-9
-60
-100
-120
-130
-140
-141
-128
-116
-114
-110
-96
-83
-84
-78
-59
-57
-84
-104
-101
-98
-104
-108
-110
-109
-99
-94
-94
-77
-53
-55
-80
-101
-100
-98
-112
-105
-89
-120
-112
8
262
882
1578
1140
-524
-1577
-1124
-364
-143
-106
-38
-38
-35
1
12
23
47
57
64
81
100
122
149
170
188
211
235
258
276
284
285
282
271
251
230
203
160
98
31
-27
-77
-118
-138
-142
-142
-138
-131
-131
-133
-130
-128
-129
-130
-135
-139
-139
-141
-142
-142
-142
-132
-122
-127
-126
-103
-95
-121
-151
-152
-136
-141
-144
-118
-131
-155
-75
99
584
1490
1710
273
-1400
-1478
-605
-178
-139
-63
-35
-53
-20
1
-3
18
39
46
63
87
105
126
149
175
201
224
247
272
292
298
295
289
279
263
236
190
124
50
-16
-70
-113
-137
-138
-134
-134
-130
-120
-113
-113
-109
-102
-102
-104
-98
-90
-90
-90
-77
-62
-60
-55
-38
-36
-64
-97
-108
-99
-103
-111
-94
-100
-128
-96
-3
420
1411
1893
620
-1188
-1462
-607
-140
-123
-63
-28
-51
-25
-2
-6
12
30
36
60
83
90
99
119
146
176
197
210
228
243
239
226
215
201
183
160
124
70
8
-51
-99
-130
-144
-148
-145
-136
-127
-120
-115
-112
-110
-102
-95
-98
-105
-109
-102
-85
-76
-85
-86
-68
-69
-107
-137
-126
-118
-144
-150
-126
-144
-156
-118
-9
561
1554
1573
-30
-1421
-1162
-343
-107
-118
-52
-53
-70
-28
-11
-16
4
24
32
41
49
64
89
110
123
137
154
171
180
177
168
154
135
120
113
97
54
-2
-54
-100
-134
-149
-159
-171
-169
-154
-143
-143
-141
-136
-136
-143
-147
-142
-141
-147
-139
-117
-110
-107
-88
-81
-106
-130
-129
-126
-132
-116
-92
-111
-117
-80
-34
387
1359
1676
331
-1232
-1265
-448
-81
-55
7
-1
-34
16
39
14
28
59
66
78
103
123
139
160
186
223
253
261
266
277
273
256
252
257
261
265
252
206
151
114
85
55
44
48
44
38
44
49
43
36
25
10
8
16
15
-1
-8
-3
-1
-2
13
30
19
-11
-27
-32
-51
-71
-59
-44
-69
-76
-20
126
541
1072
902
-210
-1171
-1137
-605
-257
-121
-58
-46
-41
-20
-9
-4
12
18
14
31
57
58
57
69
63
43
55
89
101
73
37
48
83
63
21
39
64
7
-85
-132
-140
-159
-205
-243
-241
-241
-267
-262
-229
-250
-295
-275
-243
-277
-316
-323
-324
-286
-250
-295
-258
-31
165
196
154
71
28
114
138
-2
-55
45
64
-15
-11
114
385
849
1138
682
-339
-1062
-1108
-843
-558
-237
-13
-129
-400
-392
-168
-67
37
251
190
-115
-22
476
713
546
325
173
124
248
336
211
38
-73
-127
-47
65
-16
-205
-265
-177
-107
-177
-293
-290
-285
-448
-567
-411
-252
-362
-470
-300
-109
-130
-122
57
163
151
236
368
425
605
993
1270
1242
1092
983
928
928
925
833
690
587
459
265
210
378
589
850
1049
615
-380
-984
-907
-599
-244
-35
-105
-93
28
-77
-160
-52
-70
-122
-43
-13
86
189
-148
-549
-365
-41
-159
-457
-530
-361
-212
-318
-465
-317
-124
-269
-503
-455
-338
-425
-525
-488
-511
-664
-770
-755
-695
-631
-552
-460
-360
-248
-151
-115
-107
-41
95
260
407
480
497
535
606
679
721
690
569
400
259
167
50
-76
-43
175
495
906
1070
424
-700
-1214
-852
-348
-128
-18
53
-25
-174
-225
-191
-184
-173
-72
10
-53
-137
-130
-99
-43
18
-29
-47
134
248
91
-22
125
196
-3
-96
108
211
7
-183
-200
-210
-247
-245
-270
-323
-322
-315
-357
-371
-305
-185
-92
-122
-206
-187
-91
37
247
432
462
465
555
619
591
510
380
251
200
148
14
-68
-9
161
565
1063
921
-98
-1041
-1071
-572
-295
-267
-152
-81
-278
-343
1
220
21
-83
145
286
145
44
177
265
118
39
222
414
455
401
255
135
240
437
440
275
184
266
340
204
-2
-59
-118
-302
-391
-351
-390
-460
-438
-442
-476
-368
-209
-200
-244
-210
-181
-118
92
278
255
174
175
170
152
202
209
120
146
299
449
849
1393
1102
-157
-1034
-901
-552
-417
-242
-107
-167
-177
-66
-108
-243
-141
52
-18
-175
-132
-65
-129
-128
-16
-19
-147
-183
-124
-115
-93
8
42
7
33
-3
-165
-209
-120
-122
-168
-162
-203
-285
-337
-400
-403
-277
-220
-343
-432
-341
-162
39
273
478
560
522
440
353
255
187
215
289
300
263
257
283
325
408
663
1220
1566
809
-680
-1411
-1075
-649
-501
-368
-307
-365
-348
-266
-213
-128
-51
-92
-133
-56
-17
-114
-165
-43
138
239
243
196
128
39
-20
-4
-29
-153
-136
93
231
162
47
-54
-56
83
115
-3
31
146
48
-101
-76
-32
-55
-72
-132
-170
-63
-33
-173
-143
29
-16
-107
66
265
237
112
31
55
223
438
786
1574
2277
1695
56
-961
-784
-357
-273
-346
-372
-310
-243
-282
-351
-326
-256
-204
-144
-87
-78
-66
-6
-1
-81
-67
37
7
-99
-80
-42
-75
-62
-82
-249
-353
-320
-355
-382
-256
-229
-330
-252
-176
-340
-368
-190
-242
-375
-219
-55
-122
-182
-177
-241
-287
-246
-222
-243
-247
-248
-325
-431
-367
-147
-74
-159
-32
467
1223
1832
1475
130
-772
-418
262
470
486
572
606
585
604
612
525
414
405
455
486
533
584
579
572
600
628
651
623
504
387
299
159
18
-33
-51
-69
-56
-63
-114
-140
-155
-193
-167
-154
-334
-468
-277
-125
-298
-439
-393
-358
-306
-241
-293
-310
-188
-141
-227
-273
-286
-397
-495
-427
-317
-276
-214
-91
236
789
805
-169
-1100
-1080
-613
-290
-59
120
212
277
309
291
258
205
120
42
38
82
11
-142
-90
106
90
-28
46
131
60
39
138
194
157
58
-66
-140
-138
-144
-207
-256
-251
-264
-338
-434
-457
-319
-160
-181
-287
-347
-371
-245
-49
-137
-361
-290
-152
-307
-476
-437
-417
-398
-199
-50
-86
-10
324
830
1239
915
-228
-1124
-1042
-554
-278
-89
134
217
183
220
272
220
188
278
384
423
429
467
560
611
533
426
351
248
175
216
257
209
154
136
122
142
190
187
144
149
211
