# session 18
-15
-2
-18
-99
-128
-38
9
-36
-32
14
-10
-66
-72
-52
-41
-35
-41
-64
-77
-74
-73
-79
-92
-102
-89
-76
-96
-112
-91
-89
-120
-115
-77
-72
-89
-84
-67
-55
-41
-38
-66
-101
-108
-97
-90
-89
-107
-101
-32
137
627
1332
1288
69
-1083
-1106
-581
-299
-202
-119
-92
-97
-94
-79
-47
-32
-48
-36
5
15
23
81
143
153
158
226
327
396
449
519
561
557
569
574
488
356
277
207
97
17
-17
-68
-128
-150
-136
-112
-93
-105
-137
-128
-79
-70
-98
-87
-61
-101
-146
-115
-80
-101
-115
-105
-118
-134
-125
-127
-140
-124
-101
-112
-128
-108
-90
-115
-139
-117
-92
-94
-92
-86
-94
-82
-57
-73
-91
-62
-47
-90
-109
-49
-2
-50
-110
-99
-65
-48
-38
-54
-65
-21
3
-39
-58
-29
2
34
46
14
-10
-11
-39
-67
-45
-14
-36
-54
15
127
391
992
1359
644
-618
-1098
-713
-308
-163
-92
-52
-57
-74
-64
-20
7
0
13
40
34
33
68
99
116
140
191
272
356
407
432
467
526
562
532
472
421
356
267
175
89
19
-35
-83
-109
-115
-120
-116
-117
-133
-126
-102
-99
-85
-55
-82
-130
-118
-99
-119
-133
-124
-98
-75
-109
-166
-164
-135
-145
-162
-135
-96
-107
-146
-144
-125
-144
-136
-78
-83
-139
-130
-99
-115
-114
-95
-111
-124
-104
-91
-98
-102
-93
-79
-86
-104
-85
-41
-26
-40
-37
-6
4
-30
-59
-60
-69
-81
-56
-27
-58
-79
5
137
396
973
1350
683
-578
-1121
-788
-389
-219
-114
-66
-66
-46
-32
-32
-2
19
3
9
41
44
51
108
149
139
166
266
351
388
440
517
552
527
503
508
475
352
212
133
77
8
-33
-31
-34
-72
-114
-127
-114
-81
-48
-53
-85
-91
-69
-64
-69
-53
-52
-95
-119
-83
-62
-97
-121
-108
-103
-116
-109
-79
-71
-101
-117
-89
-64
-82
-103
-80
-52
-77
-107
-85
-63
-77
-78
-63
-74
-82
-71
-81
-96
-67
-46
-70
-76
-55
-61
-68
-50
-50
-66
-61
-51
-55
-65
-76
-59
-25
-34
-61
-45
-32
-57
-57
-18
5
13
23
14
-1
-11
-37
-66
-59
-33
-36
-60
-34
40
119
412
1050
1320
478
-743
-1087
-650
-275
-156
-92
-66
-79
-74
-50
-21
6
8
-6
-5
16
35
48
79
126
162
196
243
291
343
404
457
501
535
518
469
426
353
248
167
103
33
-13
-46
-98
-137
-133
-119
-123
-124
-112
-105
-97
-84
-92
-110
-106
-103
-120
-121
-104
-102
-113
-120
-132
-147
-145
-133
-125
-108
-93
-117
-144
-121
-93
-96
-96
-90
-96
-94
-85
-97
-112
-91
-45
-31
-55
-77
-78
-60
-50
-69
-62
-15
-20
-59
-35
-4
-27
-28
-12
-34
-35
-1
-8
-38
-41
-27
-6
4
-3
10
32
19
8
16
-7
-32
-7
-4
-46
-33
10
-26
-52
48
232
596
1128
1139
180
-872
-1032
-615
-308
-156
-42
-21
-56
-59
-27
17
34
9
1
40
63
58
83
116
105
109
179
259
306
336
352
378
442
475
443
429
401
266
141
132
102
-3
-65
-84
-110
-96
-69
-89
-93
-64
-73
-79
-32
-29
-94
-107
-71
-80
-110
-105
-95
-113
-148
-154
-119
-114
-152
-150
-132
-168
-185
-148
-136
-142
-124
-136
-165
-146
-110
-115
-137
-140
-116
-90
-88
-109
-120
-103
-83
-104
-149
-138
-79
-70
-119
-119
-47
-14
-48
-44
23
36
-26
-58
-40
-28
-27
-31
-45
-47
-58
-76
-10
114
331
930
1510
969
-456
-1174
-809
-353
-200
-99
-41
-61
-71
-59
-33
6
10
0
26
55
61
75
103
141
191
223
239
291
368
437
517
577
582
574
561
498
397
283
167
102
77
0
-95
-101
-91
-160
-200
-139
-98
-119
-115
-98
-117
-126
-112
-122
-133
-107
-85
-105
-145
-166
-156
-126
-109
-119
-141
-157
-151
-121
-107
-125
-127
-108
-118
-139
-116
-94
-111
-115
-90
-90
-117
-121
-95
-92
-110
-62
26
0
-95
-82
-15
-26
-56
-52
-54
-58
-59
-77
-86
-80
-53
28
189
558
1042
936
-75
-1016
-1026
-544
-250
-151
-85
-51
-51
-56
-32
18
18
-26
-7
58
55
22
68
133
127
114
165
249
326
382
413
441
488
518
487
427
388
340
239
137
83
34
-37
-79
-69
-67
-94
-101
-75
-66
-95
-115
-93
-57
-46
-54
-62
-76
-86
-86
-95
-108
-106
-103
-107
-98
-84
-86
-101
-117
-120
-103
-97
-108
-102
-88
-97
-96
-69
-68
-99
-111
-95
-75
-71
-90
-103
-79
-52
-78
-116
-84
-15
-9
-38
-20
-10
-64
-92
-61
-53
-68
-56
-58
-109
-120
-29
130
446
960
1119
355
-754
-1153
-814
-416
-221
-118
-70
-57
-24
2
-19
-36
-8
15
12
28
65
98
137
158
142
166
251
308
346
435
503
496
506
549
525
434
371
309
183
80
71
45
-52
-108
-95
-79
-74
-84
-105
-82
-36
-49
-97
-102
-71
-46
-52
-89
-119
-121
-107
-90
-91
-113
-121
-117
-135
-142
-112
-105
-134
-131
-91
-89
-135
-161
-139
-116
-117
-117
-115
-124
-124
-108
-108
-132
-130
-83
-49
-56
-58
-44
-50
-71
-81
-76
-75
-89
-89
-67
-80
-83
14
161
477
1087
1301
395
-842
-1151
-690
-310
-185
-120
-87
-76
-60
-56
-62
-58
-45
-29
-15
3
19
30
48
86
131
172
211
264
347
424
461
494
541
535
465
399
345
261
166
97
46
5
-23
-51
-76
-80
-70
-52
-29
-28
-63
-89
-75
-55
-49
-54
-74
-81
-56
-49
-88
-121
-119
-99
-80
-82
-102
-113
-117
-113
-81
-44
-60
-118
-147
-125
-95
-93
-93
-71
-55
-73
-92
-84
-73
-74
-75
-72
-68
-58
-57
-79
-85
-57
-44
-69
-87
-69
-48
-53
-71
-66
-42
-27
-16
-12
-19
1
28
-21
-96
-96
-71
-77
-76
-79
-78
-9
125
443
1026
1235
397
-773
-1079
-657
-320
-199
-97
-49
-63
-63
-45
-22
-6
-13
-12
15
36
62
102
113
111
153
214
243
263
322
419
500
519
507
512
520
484
389
288
235
189
97
7
-35
-66
-101
-105
-92
-102
-117
-109
-101
-105
-98
-73
-55
-62
-91
-119
-120
-103
-114
-157
-161
-110
-91
-127
-153
-161
-167
-153
-130
-127
-124
-124
-151
-165
-128
-102
-131
-139
-106
-113
-140
-102
-56
-84
-125
-109
-63
-50
-80
-84
-21
31
10
-36
-85
-121
-83
-19
-38
-69
-47
-58
-44
96
330
792
1340
1054
-249
-1205
-1040
-560
-363
-221
-64
-13
-8
-25
-73
-81
-44
-16
4
11
14
42
59
48
84
162
203
240
309
357
390
456
520
529
500
448
376
301
227
139
58
11
-28
-76
-95
-83
-81
-83
-59
-43
-65
-84
-72
-64
-63
-56
-57
-66
-65
-66
-81
-96
-100
-96
-98
-115
-125
-108
-98
-112
-120
-108
-106
-122
-130
-121
-114
-105
-86
-93
-120
-99
-61
-92
-135
-112
-81
-92
-96
-76
-56
-39
-32
-41
-53
-62
-81
-96
-97
-80
-59
-75
-95
-31
86
375
1034
1463
724
-649
-1203
-811
-389
-234
-141
-97
-102
-90
-73
-67
-56
-43
-33
-21
-1
30
45
43
74
140
191
236
304
384
467
543
582
592
607
602
543
450
342
225
139
86
9
-70
-97
-113
-149
-148
-112
-104
-118
-122
-117
-108
-99
-97
-93
-88
-101
-113
-100
-102
-127
-129
-110
-121
-146
-136
-121
-135
-140
-114
-98
-113
-130
-126
-117
-118
-124
-126
-120
-111
-113
-123
-128
-130
-133
-135
-135
-125
-100
-76
-62
-54
-57
-74
-94
-104
-100
-104
-123
-108
-70
-95
-114
-29
120
533
1283
1444
304
-1012
-1185
-653
-335
-221
-109
-86
-119
-95
-56
-38
-24
-32
-48
-15
41
67
80
94
102
137
209
280
341
407
475
548
600
597
571
569
558
470
298
143
100
101
22
-85
-121
-130
-139
-110
-97
-141
-147
-87
-62
-79
-69
-62
-103
-133
-115
-107
-128
-114
-83
-108
-145
-130
-123
-140
-122
-112
-140
-126
-87
-109
-138
-107
-80
-98
-124
-120
-82
-62
-89
-91
-56
-63
-74
-28
-15
-68
-85
-57
-50
-56
-70
-92
-96
-88
-43
64
304
891
1495
1085
-319
-1238
-1026
-510
-262
-166
-123
-110
-88
-80
-74
-54
-49
-38
-15
-13
4
50
59
54
101
157
197
257
325
400
489
536
531
537
532
465
378
301
200
80
-11
-61
-82
-106
-156
-187
-151
-103
-111
-137
-114
-86
-120
-152
-107
-61
-93
-128
-98
-80
-126
-151
-123
-129
-184
-186
-125
-92
-118
-136
-121
-118
-138
-138
-120
-117
-115
-102
-98
-94
-87
-95
-99
-90
-101
-119
-108
-82
-68
-60
-64
-74
-80
-97
-104
-51
11
5
-26
-14
7
-15
-54
-54
-13
7
-5
-1
0
-15
17
130
511
1286
1655
705
-725
-1127
-649
-294
-200
-122
-91
-90
-54
-44
-64
-56
-38
-32
-21
-9
-2
17
48
85
131
178
227
295
367
432
502
562
584
594
599
554
461
361
269
181
94
10
-47
-76
-100
-116
-111
-109
-120
-115
-95
-89
-103
-108
-91
-80
-98
-126
-133
-123
-117
-124
-132
-131
-135
-148
-156
-149
-144
-145
-140
-134
-137
-141
-134
-127
-129
-135
-132
-123
-121
-125
-125
-121
-117
-112
-109
-108
-101
-101
-115
-113
-95
-98
-108
-95
-83
-86
-92
-91
-85
-76
-72
-75
-73
-61
-55
-65
-68
-47
-22
-14
-9
1
1
-20
-46
-46
-33
-35
-34
-25
-50
-49
41
209
657
1355
1379
217
-956
-1010
-495
-236
-164
-80
-59
-68
-33
-9
-17
-9
13
18
27
51
64
75
117
160
176
213
286
350
393
449
521
578
599
596
581
543
468
375
283
193
106
33
-25
-71
-97
-102
-104
-109
-113
-110
-98
-97
-114
-119
-112
-113
-110
-106
-129
-158
-155
-147
-156
-161
-157
-159
-169
-174
-168
-163
-167
-167
-159
-153
-149
-143
-145
-147
-134
-127
-138
-147
-140
-130
-126
-126
-124
-119
-108
-95
-85
-73
-57
-48
-53
-68
-91
-103
-95
-100
-108
-90
-101
-127
-62
91
433
1101
1427
559
-795
-1225
-785
-393
-242
-137
-100
-105
-83
-72
-71
-50
-36
-34
-17
2
14
35
60
81
114
168
224
277
344
419
485
539
581
596
569
515
436
332
230
150
75
3
-46
-76
-100
-111
-104
-92
-84
-82
-83
-81
-80
-81
-80
-82
-90
-93
-92
-97
-105
-113
-123
-122
-102
-90
-101
-114
-117
-108
-94
-93
-105
-98
-78
-80
-92
-74
-41
-39
-53
-51
-40
-38
-37
-29
-25
-31
-34
-36
-37
-21
-6
-20
-37
-30
-22
-17
-9
-12
-21
-12
8
20
23
28
44
60
48
14
-6
-8
-20
-38
-27
-21
-70
-84
29
211
567
1133
1209
249
-881
-1105
-698
-381
-225
-115
-89
-99
-81
-68
-65
-60
-65
-59
-28
-4
-1
3
15
51
118
169
192
240
322
382
416
469
520
524
505
487
431
322
213
133
68
3
-47
-64
-60
-65
-77
-77
-73
-77
-84
-85
-79
-79
-95
-117
-124
-122
-137
-158
-162
-164
-191
-218
-219
-210
-215
-226
-230
-230
-229
-229
-229
-227
-220
-217
-220
-215
-202
-195
-195
-191
-188
-190
-186
-178
-177
-177
-164
-151
-152
-153
-132
-97
-69
-45
-12
18
19
1
-4
8
5
-4
13
12
-22
-7
115
588
1616
2255
1215
-625
-1214
-585
-151
-136
-78
-18
-32
-7
23
18
31
52
51
53
64
74
87
102
117
143
178
215
262
325
392
455
512
553
571
561
522
452
349
241
157
76
-11
-51
-56
-86
-109
-85
-76
-102
-99
-70
-79
-115
-129
-122
-123
-131
-137
-141
-149
-165
-181
-182
-176
-179
-181
-176
-175
-179
-182
-179
-174
-175
-186
-191
-183
-180
-182
-178
-172
-169
-164
-162
-169
-173
-168
-160
-156
-156
-155
-136
-114
-111
-104
-75
-61
-78
-96
-102
-101
-101
-108
-97
-89
-118
-89
62
329
847
1345
912
-433
-1285
-1010
-467
-238
-135
-65
-67
-58
-24
-17
-13
9
27
41
58
78
98
120
145
176
211
252
301
353
411
470
516
546
561
551
510
445
363
273
183
106
50
4
-42
-69
-68
-59
-53
-53
-60
-60
-47
-47
-57
-56
-51
-54
-56
-63
-82
-93
-89
-85
-87
-91
-101
-108
-101
-93
-95
-95
-92
-93
-94
-90
-87
-88
-91
-98
-103
-100
-92
-89
-91
-95
-94
-84
-70
-69
-74
-60
-35
-31
-33
-11
3
-21
-52
-60
-57
-61
-62
-50
-54
-70
-10
146
395
815
1087
538
-611
-1221
-943
-476
-244
-137
-81
-64
-41
-27
-30
-18
3
14
24
36
48
61
76
93
111
131
161
204
249
287
329
373
398
401
393
373
331
271
204
136
74
20
-24
-53
-63
-65
-67
-68
-66
-63
-61
-62
-62
-59
-57
-60
-65
-73
-83
-89
-89
-92
-97
-101
-102
-100
-101
-110
-114
-108
-105
-108
-108
-104
-105
-108
-104
-98
-94
-93
-96
-94
-75
-53
-48
-40
-24
-26
-51
-72
-79
-77
-84
-92
-77
-74
-98
-54
103
408
921
1188
473
-793
-1303
-864
-373
-202
-126
-81
-82
-67
-47
-47
-39
-19
-8
1
16
33
49
69
98
130
161
197
243
296
353
406
442
461
466
452
413
354
281
199
120
53
-1
-44
-74
-85
-81
-73
-67
-60
-54
-52
-51
-50
-51
-58
-64
-64
-69
-87
-98
-92
-91
-103
-106
-99
-101
-107
-102
-101
-106
-98
-84
-84
-83
-77
-79
-79
-64
-52
-50
-45
-38
-25
-2
9
-7
-24
-33
-47
-51
-49
-52
-41
-14
14
93
294
673
1054
855
-144
-1082
-1114
-595
-246
-134
-67
-38
-41
-26
-6
3
10
21
