# session 6
14
42
-60
-1
334
548
452
319
275
241
258
336
371
371
388
379
335
314
336
367
353
278
203
165
153
209
326
381
369
414
465
398
318
354
400
336
207
81
11
42
63
-41
-82
87
375
954
1695
1476
7
-1147
-1039
-459
-105
2
-93
-181
-127
-121
-201
-249
-305
-356
-327
-296
-293
-230
-113
-23
37
111
186
181
102
75
108
100
101
185
197
74
35
162
238
213
245
309
318
316
219
-44
-247
-273
-280
-281
-265
-407
-636
-613
-384
-223
100
749
897
-125
-1398
-1684
-1141
-589
-314
-224
-234
-256
-201
-80
-3
-14
-7
56
80
73
110
150
155
194
254
229
140
119
166
153
77
42
54
39
2
-3
17
4
-52
-76
-40
-17
-17
-2
-25
-114
-184
-206
-222
-201
-118
-94
-204
-246
-82
140
504
1084
1065
-102
-1258
-1259
-657
-287
-132
-50
-59
-102
-131
-84
43
98
66
88
127
132
180
203
133
113
184
218
203
188
176
160
88
-54
-143
-117
-76
-81
-78
-28
19
28
72
159
169
118
141
220
251
209
133
118
166
94
-35
73
350
811
1710
2167
938
-926
-1420
-795
-387
-279
-128
-56
-43
16
12
-39
-6
37
1
-19
22
38
4
-20
-29
-38
-25
-10
-49
-116
-138
-137
-167
-207
-213
-183
-157
-155
-134
-65
-6
9
27
45
50
98
193
239
186
58
-61
-26
117
154
87
95
463
1373
1957
979
-794
-1439
-921
-510
-485
-474
-453
-469
-478
-475
-458
-437
-420
-382
-352
-327
-205
17
206
323
405
419
368
355
393
394
344
303
281
253
211
176
176
189
171
142
127
95
51
51
79
91
102
102
44
-16
-16
-22
-40
27
156
385
825
1006
266
-904
-1343
-929
-467
-357
-369
-314
-275
-299
-268
-164
-121
-168
-220
-234
-215
-206
-239
-247
-209
-238
-292
-234
-187
-265
-281
-175
-169
-280
-326
-314
-356
-420
-438
-432
-433
-402
-301
-185
-84
60
228
325
345
313
246
224
233
180
171
303
571
1193
1917
1598
88
-1027
-881
-313
-24
95
158
180
221
258
274
298
311
306
301
290
268
242
234
278
328
323
314
345
360
343
333
299
215
148
123
83
24
-21
-73
-134
-139
-104
-107
-116
-64
-21
-93
-228
-343
-430
-435
-346
-283
-243
-149
115
940
1983
1637
-321
-1696
-1384
-669
-398
-241
-149
-235
-255
-133
-75
-103
-60
62
132
112
70
40
-5
-71
-129
-160
-174
-188
-202
-216
-232
-252
-283
-328
-360
-321
-226
-187
-206
-151
-25
53
71
77
111
197
270
289
332
382
353
289
242
226
311
506
855
1332
1341
423
-589
-691
-197
136
195
166
176
228
161
-25
-99
-50
-60
-124
-141
-122
-115
-111
-111
-135
-168
-169
-148
-141
-165
-195
-159
-62
-68
-235
-351
-317
-352
-519
-549
-385
-290
-348
-388
-337
-277
-278
-324
-365
-396
-399
-362
-375
-440
-403
-230
72
482
489
-360
-1366
-1548
-1077
-649
-410
-250
-184
-148
-42
80
122
140
240
400
514
556
589
642
675
683
710
743
723
664
634
640
635
591
533
486
434
381
371
397
416
428
428
397
376
395
387
315
237
178
106
52
34
8
39
197
407
757
1203
937
-363
-1424
-1293
-676
-281
-45
9
-141
-230
-156
-36
11
-70
-152
-120
-108
-165
-134
-50
-79
-161
-172
-148
-130
-124
-158
-190
-171
-164
-218
-290
-367
-425
-389
-297
-268
-283
-266
-259
-295
-295
-239
-201
-177
-145
-149
-152
-84
-14
26
77
165
608
1473
1690
529
-788
-959
-463
-152
-40
22
38
56
60
35
51
92
98
110
163
212
208
172
152
161
176
168
127
79
41
4
-6
33
78
94
80
27
-57
-132
-171
-160
-109
-81
-119
-151
-107
-82
-154
-212
-229
-260
-229
-188
-289
-345
-161
269
1036
1576
802
-801
-1498
-1029
-488
-279
-150
-85
-134
-186
-181
-206
-280
-243
-59
45
-10
-46
-8
17
27
35
30
51
91
88
91
154
190
142
89
72
66
91
159
226
257
251
203
110
16
-30
-46
-73
-114
-158
-153
-69
-24
-69
-34
106
344
902
1374
755
-639
-1312
-966
-517
-334
-214
-136
-151
-194
-190
-109
-13
4
-36
-8
137
289
325
311
367
400
321
286
379
459
408
228
82
172
353
326
177
135
172
198
178
122
121
129
-2
-134
-101
-73
-159
-206
-152
-59
7
-27
-80
-46
40
390
1109
1289
217
-1029
-1175
-655
-371
-317
-244
-198
-192
-153
-84
-49
-59
-41
-12
-47
-45
77
153
108
82
83
37
1
22
71
144
202
192
149
106
22
-89
-135
-68
23
6
-76
-45
82
104
31
38
84
23
-71
-56
14
13
-18
53
185
360
790
1216
784
-453
-1253
-1079
-621
-378
-276
-264
-299
-280
-259
-307
-333
-279
-228
-225
-216
-169
-91
1
37
-13
-58
-47
-69
-169
-266
-327
-388
-421
-409
-436
-503
-491
-410
-334
-242
-167
-176
-180
-109
-17
70
129
145
176
228
271
333
405
479
611
763
1042
1611
1825
864
-513
-896
-409
-16
131
266
319
287
292
284
209
167
184
175
122
55
-18
-66
-58
-26
-26
-57
-105
-148
-146
-117
-134
-200
-243
-243
-238
-271
-320
-301
-212
-141
-109
-86
-88
-100
-54
32
61
7
-24
22
53
73
189
225
140
585
1553
1540
-7
-1385
-1412
-879
-567
-378
-256
-268
-291
-274
-284
-298
-255
-175
-91
-2
58
64
79
123
126
119
175
232
264
341
433
469
473
461
424
384
322
227
167
147
105
74
80
77
101
182
221
188
138
66
29
99
142
78
147
487
935
1326
1297
401
-838
-1255
-777
-302
-161
-82
-2
-25
-82
-70
-62
-152
-221
-157
-84
-134
-263
-338
-271
-122
1
104
113
-53
-144
4
64
-131
-252
-118
23
-67
-273
-331
-290
-383
-544
-612
-658
-687
-585
-469
-495
-536
-498
-498
-499
-372
-251
-225
-100
200
662
1248
1316
272
-980
-1134
-493
-76
47
196
264
210
243
329
283
189
177
169
129
132
153
162
226
320
354
343
278
131
84
209
204
-5
-71
-5
-111
-235
-129
-46
-169
-243
-159
-99
-89
-43
-4
-22
-50
-42
-7
19
7
-33
-47
46
252
575
1006
1097
320
-751
-1012
-533
-152
-47
56
141
126
110
123
113
107
128
118
54
-33
-122
-185
-197
-187
-185
-168
-127
-87
-39
11
8
-34
-30
20
65
123
207
263
282
308
329
300
256
262
289
288
277
269
260
281
315
290
240
261
375
701
1283
1462
576
-658
-995
-506
-78
12
-9
-23
-34
-67
-138
-220
-279
-294
-283
-285
-297
-291
-240
-162
-131
-155
-146
-106
-111
-131
-147
-211
-273
-256
-224
-249
-282
-276
-260
-298
-353
-301
-178
-164
-252
-297
-280
-261
-260
-269
-247
-187
-169
-157
-63
31
344
1181
1590
404
-1300
-1678
-1025
-575
-433
-284
-189
-173
-146
-79
20
79
65
88
193
260
255
285
362
395
375
372
392
379
349
376
430
417
355
308
261
200
167
163
154
160
206
226
173
128
125
69
-41
-99
-105
-94
-60
-73
-121
-45
199
723
1488
1504
60
-1485
-1618
-941
-529
-386
-375
-487
-511
-479
-529
-464
-235
-111
-131
-115
-7
102
106
42
53
139
192
201
187
162
177
215
196
166
204
232
185
133
132
163
192
175
118
88
105
123
110
63
-10
-63
-55
-30
-72
-136
-103
4
333
1172
1826
1069
-552
-1244
-808
-359
-206
-83
-25
-42
-32
-28
-36
-8
13
3
17
43
36
20
26
32
33
45
41
10
-11
-10
-20
-60
-111
-138
-141
-162
-203
-211
-183
-159
-129
-85
-68
-74
-57
-46
-91
-150
-185
-207
-209
-239
-292
-209
-37
141
735
1556
1224
-404
-1464
-1128
-501
-269
-180
-140
-148
-90
-11
-11
-28
14
67
72
92
162
197
190
185
118
-19
-94
-72
-49
-77
-126
-162
-186
-213
-249
-277
-257
-170
-86
-71
-68
-44
-54
-62
-10
23
9
43
81
52
78
168
179
214
395
699
1309
1914
1377
-243
-1223
-889
-272
3
111
128
111
182
230
129
1
14
146
237
232
220
225
208
208
258
287
245
195
184
166
128
100
64
31
55
75
38
59
159
176
93
27
3
5
29
24
-6
-11
-17
-55
-88
-125
-169
-148
-81
69
560
1103
732
-524
-1295
-1012
-499
-303
-256
-277
-375
-445
-488
-544
-555
-541
-571
-590
-555
-535
-516
-422
-301
-243
-232
-203
-146
-87
-39
-5
1
-20
-34
-15
14
18
13
40
91
108
69
17
26
88
97
32
6
8
-32
-35
-8
-56
-64
61
303
832
1292
693
-719
-1394
-984
-493
-294
-119
-3
3
56
141
177
200
215
206
231
282
291
288
324
350
332
311
302
303
325
345
322
297
295
255
181
162
200
227
241
260
278
291
271
229
229
254
225
166
131
96
64
38
-19
-19
89
291
877
1657
1337
-349
-1566
-1284
-590
-321
-233
-193
-234
-219
-155
-141
-144
-132
-126
-111
-80
-62
-62
-59
-48
-51
-77
-111
-139
-156
-164
-176
-207
-255
-304
-328
-309
-286
-282
-256
-197
-157
-135
-111
-118
-127
-69
-41
-124
-164
-77
4
27
14
-30
-11
41
177
914
1941
1634
-136
-1270
-924
-359
-222
-138
-58
-78
-74
-52
-57
-33
-5
-5
19
58
71
94
126
137
154
153
92
63
116
134
81
57
70
58
47
68
82
67
53
54
56
50
34
17
13
12
-13
-51
-92
-144
-186
-196
-214
-236
-199
-82
206
651
683
-172
-1200
-1367
-841
-410
-259
-187
-154
-154
-128
-87
-70
-54
-15
17
30
65
132
176
187
198
207
203
199
205
217
224
208
166
133
126
118
96
86
99
110
94
63
44
29
9
13
31
19
-13
-35
-35
-8
-12
-63
-22
123
413
1129
1738
965
-778
-1543
-989
-400
-232
-135
-79
-100
-78
-30
-20
-14
7
37
82
125
141
156
187
212
227
232
211
184
189
208
209
204
186
129
66
46
47
29
-12
-49
-49
-44
-94
-139
-99
-71
-145
-205
-179
-176
-218
-227
-231
-234
-179
-59
394
1259
1420
44
-1454
-1494
-742
-362
-277
-192
-171
-162
-114
-97
-86
-44
-15
0
31
72
111
145
158
157
158
153
138
147
179
182
146
126
134
119
71
35
36
60
77
60
34
34
27
-9
-23
-12
-25
-52
-78
-108
-100
-64
-77
-75
-17
106
637
1447
1258
-279
-1435
-1159
-466
-200
-135
-101
-118
-91
-56
-72
-62
-7
30
42
55
82
125
152
137
115
124
126
106
118
144
110
53
52
61
14
-41
-59
-72
-98
-113
-124
-157
-195
-203
-178
-141
-101
-71
-75
-113
-141
-136
-130
-140
-121
-69
4
287
830
924
-4
-1100
-1225
-655
-254
-137
-79
-57
-56
-23
21
56
85
104
131
172
200
216
247
285
284
255
260
296
312
310
318
317
278
229
198
170
140
122
96
46
5
-12
-29
-57
-92
-131
-157
-160
-170
-198
-213
-201
-185
-196
-221
-180
-46
179
618
1002
512
-801
-1600
-1276
-654
-352
-216
-129
-106
-67
-3
38
73
107
121
137
164
179
192
221
242
238
236
246
250
251
259
258
239
210
176
137
104
79
62
57
51
34
31
39
15
-17
-11
-2
-29
-53
-63
-79
-71
-66
-106
-95
-14
159
738
1404
912
-692
-1577
-1082
-411
-213
-134
-62
-73
-67
-31
-21
-9
16
30
51
88
116
133
148
155
154
153
151
150
157
162
145
115
85
50
13
-11
-28
-54
-74
-69
-66
-77
-79
-73
-86
-95
-83
-85
-110
-130
-147
-152
-134
-140
-156
-121
-45
305
1068
1302
123
-1324
-1443
-686
-265
-213
-145
-100
-107
-69
-19
-3
6
23
46
79
107
121
149
189
193
162
161
197
211
201
194
178
140
106
77
38
7
-5
-18
-35
-38
-40
-50
-53
-59
-77
-77
-65
-76
-102
-121
-138
-137
-124
-144
-157
-116
-38
276
869
940
-70
-1145
-1167
-578
-236
-148
-86
-70
-72
-35
-1
10
31
75
120
152
188
245
297
322
327
326
319
313
307
291
264
228
174
103
47
13
-12
-23
-17
-23
-47
-58
-48
-48
-72
-88
-69
-53
-76
-105
-124
-148
-150
-131
-154
-171
-111
40
477
1095
934
-376
-1502
-1399
-747
-380
-234
-146
-136
-135
-102
-73
-53
-37
-13
25
56
79
115
146
159
178
201
201
188
181
175
166
148
107
49
4
-23
-47
-68
-81
-85
-87
-93
-90
-80
-99
-128
-114
-86
-100
-116
-109
-117
-120
-97
-110
-114
-22
158
596
1224
1085
-251
-1415
-1275
-567
-196
-59
36
48
58
107
129
141
180
219
252
296
344
394
445
488
515
532
539
538
529
503
455
398
348
303
256
213
179
150
118
89
68
45
18
3
-9
-39
-61
-51
-47
-69
-87
-107
-125
-113
-116
-149
-115
-21
212
849
1364
652
-845
-1444
-918
-394
-249
-171
-124
-136
-121
-101
-100
-78
-50
-37
-10
29
59
83
109
124
117
97
81
79
77
50
-5
-63
-111
-148
-180
-211
-238
-256
-273
-296
-316
-328
-335
-340
-351
-368
-360
-328
-327
-354
-356
-345
-341
-325
-333
-366
-343
-262
-4
592
920
129
-1160
-1537
-998
-524
-379
-304
-261
-263
-247
-215
-180
-136
-101
-64
-6
45
74
117
180
220
230
239
260
288
312
305
276
250
220
190
187
191
181
190
222
232
229
246
274
298
324
346
371
409
447
475
498
506
522
575
617
633
701
831
1124
1771
2254
1595
113
-585
72
