# session 11
-130
-250
152
-126
-1652
-2844
-2765
-2452
-2490
-2418
-2261
-2289
-2315
-2269
-2303
-2389
-2423
-2358
-2198
-2061
-1999
-1944
-1913
-1928
-1926
-1948
-2013
-1968
-1800
-1685
-1587
-1398
-1244
-1176
-1038
-880
-853
-811
-609
-249
332
791
367
-786
-1471
-1178
-583
-285
-226
-214
-212
-211
-181
-126
-62
40
170
260
294
311
330
388
535
700
805
950
1160
1259
1207
1144
1079
936
773
690
680
683
666
660
712
792
838
861
880
903
990
1131
1171
1081
1022
1012
933
851
850
827
809
872
994
1454
2232
2149
665
-665
-649
-133
29
44
28
-146
-331
-379
-370
-395
-416
-386
-364
-347
-210
-41
-24
-9
154
270
238
188
108
-67
-255
-421
-588
-692
-721
-768
-831
-845
-829
-800
-735
-661
-610
-569
-531
-503
-469
-439
-425
-396
-369
-407
-446
-418
-388
-338
-223
-55
454
1218
1125
-151
-1155
-1048
-599
-310
12
324
477
519
537
582
554
374
243
278
343
384
437
481
495
467
429
442
445
361
263
199
117
-12
-162
-226
-146
-67
-93
-107
-56
-32
-50
-86
-153
-209
-198
-156
-137
-141
-188
-236
-73
273
383
211
143
208
472
1238
1673
553
-1149
-1543
-875
-448
-395
-337
-295
-297
-288
-283
-281
-279
-288
-285
-277
-272
-233
-156
-67
41
141
180
187
204
190
117
39
-21
-102
-180
-194
-180
-178
-151
-103
-87
-89
-84
-92
-94
-59
-34
-54
-69
-65
-94
-118
-82
-82
-110
-9
131
420
1288
1937
863
-1096
-1676
-907
-316
-152
-9
18
-69
-66
1
31
30
38
79
153
220
248
275
353
443
479
474
476
474
419
317
211
96
-36
-120
-130
-147
-183
-173
-144
-153
-145
-108
-99
-100
-88
-109
-136
-105
-85
-145
-205
-212
-227
-208
-94
93
544
1207
1135
-105
-1236
-1197
-631
-341
-259
-210
-202
-197
-170
-127
-76
-55
-50
4
100
193
267
307
315
330
381
424
382
298
290
278
114
-77
-120
-99
-94
-44
32
49
19
10
70
155
131
37
58
134
78
-14
12
63
57
51
33
2
33
227
809
1587
1489
105
-1176
-1179
-562
-252
-176
-105
-155
-286
-289
-184
-129
-146
-154
-128
-106
-102
-70
5
76
149
249
312
289
246
220
144
25
-43
-56
-91
-131
-134
-137
-149
-118
-78
-83
-97
-96
-93
-72
-61
-107
-151
-158
-185
-207
-178
-163
-131
0
281
899
1509
997
-574
-1487
-1116
-581
-439
-372
-308
-226
-70
-80
-262
-296
-165
-41
54
85
27
-15
14
114
275
379
343
294
330
337
231
116
92
122
118
59
25
54
62
37
58
84
51
20
19
3
-24
-62
-140
-227
-258
-236
-232
-231
-154
-33
261
916
1243
270
-1275
-1756
-1161
-600
-372
-233
-179
-183
-164
-164
-166
-111
-54
-34
-10
28
71
140
226
284
318
377
433
409
361
364
344
255
181
174
197
194
181
247
372
449
509
606
653
605
535
471
404
345
285
211
160
128
57
-7
47
212
529
987
968
-55
-1248
-1432
-868
-476
-376
-322
-328
-377
-383
-393
-399
-328
-244
-218
-199
-162
-134
-76
51
172
199
162
142
148
143
108
26
-114
-229
-235
-211
-259
-305
-254
-187
-193
-210
-174
-145
-174
-199
-154
-84
-64
-79
-84
-66
-40
-35
-62
-58
54
394
932
1070
250
-871
-1178
-737
-340
-195
-129
-114
-114
-90
-109
-142
-85
-1
15
30
106
193
264
341
396
386
348
330
310
267
234
207
169
149
134
83
52
80
101
87
89
111
104
52
0
-12
-19
-79
-169
-231
-255
-256
-252
-268
-245
-131
36
475
1301
1579
429
-1090
-1415
-823
-393
-241
-90
-1
-13
-18
-13
-35
-40
-10
4
3
35
80
104
145
234
316
333
317
311
285
218
156
104
29
-40
-69
-92
-127
-122
-67
-24
-9
2
-19
-67
-70
-38
-45
-70
-86
-131
-155
-148
-213
-225
-33
174
552
1357
1566
261
-1204
-1310
-705
-385
-228
-100
-145
-232
-228
-237
-287
-242
-79
2
-83
-126
-3
140
209
268
343
393
417
443
450
385
282
197
100
-13
-44
21
57
31
56
137
152
94
49
29
14
11
-8
-49
-71
-97
-150
-206
-287
-332
-246
-81
392
1313
1527
37
-1691
-1857
-1095
-656
-477
-308
-278
-284
-208
-168
-173
-131
-77
-62
-35
37
101
142
211
287
304
298
310
303
265
231
188
107
29
7
23
25
19
49
97
108
106
146
182
113
-22
-54
28
33
-97
-206
-202
-143
-139
-181
-114
82
435
1106
1484
541
-1024
-1457
-796
-281
-126
-3
-16
-145
-164
-144
-210
-190
30
217
183
81
107
227
307
303
314
408
460
408
394
420
318
144
70
57
33
49
92
89
59
34
5
-15
-21
-62
-126
-123
-54
-9
-13
-64
-156
-172
-102
-135
-237
-218
-86
368
1274
1569
323
-1217
-1469
-902
-541
-366
-225
-236
-262
-173
-105
-123
-129
-65
29
83
75
76
167
286
273
133
39
40
38
8
-7
-16
-40
-57
-46
-37
-70
-88
-44
-46
-146
-209
-187
-197
-271
-336
-370
-385
-379
-375
-394
-400
-343
-269
-263
-273
-207
-39
389
1025
1075
71
-1002
-1085
-553
-200
-81
-17
-26
-66
-40
22
67
96
101
97
137
209
251
303
406
474
494
558
644
662
626
587
558
538
492
411
356
333
299
280
302
299
243
214
236
218
122
55
70
97
91
75
64
77
108
100
108
222
405
738
1175
986
-215
-1360
-1420
-877
-513
-369
-350
-430
-475
-497
-561
-542
-441
-410
-387
-284
-210
-175
-83
4
22
42
84
103
86
31
-5
40
94
97
92
80
45
22
-4
-63
-104
-99
-99
-163
-263
-263
-144
-96
-184
-251
-254
-293
-331
-284
-253
-271
-171
58
451
1196
1649
718
-972
-1649
-1143
-588
-377
-263
-182
-107
-21
2
0
39
48
3
2
70
145
199
235
262
319
397
426
414
438
460
428
435
463
342
195
256
318
137
-60
-78
-57
-73
-86
-139
-223
-246
-228
-221
-173
-98
-122
-215
-211
-148
-179
-245
-155
209
776
1052
514
-476
-980
-728
-253
10
76
56
-41
-149
-157
-106
-106
-145
-167
-159
-121
-77
-55
-28
43
140
196
181
154
181
230
258
287
296
229
132
98
116
124
112
78
21
-9
37
117
151
128
120
172
191
92
-32
-61
-26
-44
-118
-73
124
350
825
1523
1428
142
-952
-863
-319
-46
86
169
115
16
-19
-29
-77
-159
-240
-291
-311
-301
-261
-206
-179
-194
-198
-164
-153
-194
-193
-108
-71
-144
-175
-87
-5
7
-33
-147
-218
-105
14
-35
-70
-12
-32
-95
-53
-3
-34
-92
-171
-236
-224
-225
-258
-203
18
616
1352
1041
-553
-1703
-1394
-650
-312
-163
-79
-120
-141
-99
-85
-76
-33
10
43
88
150
227
309
359
340
309
361
426
399
391
451
414
305
323
402
358
288
319
348
300
262
258
226
164
84
8
-7
17
-13
-73
-103
-155
-211
-187
-191
-292
-309
-164
201
878
1177
209
-1251
-1668
-1123
-664
-511
-396
-328
-355
-390
-332
-188
-102
-118
-96
9
96
127
133
150
219
292
280
247
270
252
168
129
113
51
4
0
4
36
87
125
164
193
197
215
213
136
66
66
38
-33
-14
58
45
39
98
98
105
191
339
924
1769
1412
-392
-1606
-1255
-598
-382
-206
-55
-126
-167
-10
105
26
-83
-98
-96
-104
-88
-110
-152
-99
-9
-34
-118
-124
-98
-145
-205
-161
-97
-170
-302
-322
-264
-204
-107
-25
-99
-248
-224
-38
33
-66
-106
-31
-6
-53
-65
-30
13
38
23
38
119
232
605
1261
1306
240
-819
-844
-349
-51
84
144
98
91
171
172
99
113
146
64
-13
32
97
116
136
164
188
211
222
246
271
223
151
149
128
24
-16
63
107
96
162
268
268
220
261
312
258
178
104
-14
-71
-49
-130
-267
-288
-275
-239
-79
147
588
1185
932
-525
-1684
-1517
-854
-469
-251
-184
-316
-410
-406
-440
-409
-227
-165
-333
-343
-86
-19
-177
-85
192
206
27
-19
51
67
-11
-114
-148
-133
-167
-235
-231
-163
-115
-94
-74
-49
-2
39
39
54
89
59
-3
-20
-39
-19
118
185
71
61
283
597
1141
1722
1367
-30
-1067
-940
-393
-147
-77
74
240
283
253
257
279
274
254
229
191
125
56
47
50
-25
-98
-90
-80
-100
-112
-120
-118
-122
-187
-242
-156
-34
-89
-237
-235
-129
-95
-78
-35
-81
-129
-34
30
-39
-34
48
7
-73
-44
2
22
98
316
767
1098
568
-609
-1243
-979
-533
-288
-132
-75
-112
-108
-74
-79
-53
35
86
92
133
187
214
268
339
340
291
272
267
250
251
260
249
246
267
266
241
249
279
250
177
182
259
275
227
235
306
336
295
273
300
290
240
201
125
38
96
355
838
1361
1142
-156
-1373
-1408
-771
-397
-345
-308
-249
-290
-437
-535
-532
-567
-696
-802
-809
-777
-804
-854
-753
-535
-485
-590
-525
-290
-160
-152
-130
-130
-188
-197
-137
-109
-129
-136
-152
-180
-152
-112
-168
-236
-203
-153
-160
-158
-119
-74
-4
79
106
119
207
301
489
1143
1846
1358
-201
-1093
-695
-84
116
210
336
367
316
282
299
306
258
237
298
359
388
422
432
411
421
439
408
355
267
125
48
86
78
-30
-94
-67
-41
-39
-21
18
58
84
97
73
-15
-71
4
76
-16
-196
-309
-272
-171
-231
-347
-232
37
644
1797
2167
600
-1210
-1356
-657
-352
-251
-124
-106
-103
-96
-184
-273
-263
-215
-217
-290
-327
-231
-113
-128
-206
-180
-55
23
2
-43
-88
-144
-159
-149
-190
-218
-158
-103
-69
37
171
251
309
353
331
276
261
283
271
196
121
129
203
259
272
280
332
543
1035
1461
1074
-87
-915
-795
-329
-110
-100
-164
-209
-155
-146
-235
-163
64
108
-59
-203
-275
-319
-334
-340
-347
-321
-264
-233
-254
-273
-242
-200
-214
-266
-286
-276
-275
-266
-258
-293
-299
-221
-161
-162
-129
-73
-92
-172
-228
-230
-209
-189
-167
-187
-234
-171
24
336
855
1161
476
-801
-1316
-839
-297
-97
6
83
100
136
185
204
263
381
462
465
436
401
385
400
410
404
415
414
394
422
460
412
350
355
334
276
291
343
326
238
136
105
147
74
-133
-225
-183
-192
-214
-177
-183
-236
-224
-177
-165
-144
-160
-173
341
1390
1575
149
-1312
-1425
-933
-681
-447
-192
-163
-216
-196
-163
-128
-97
-65
20
84
72
103
175
153
75
63
103
129
124
99
59
2
-73
-142
-168
-143
-102
-69
-18
42
38
-12
-8
28
-27
-126
-95
22
31
-33
-34
-18
-21
-4
-8
21
184
425
758
1069
776
-194
-860
-657
-192
3
51
70
41
99
260
286
124
-3
5
53
67
54
56
79
75
40
30
44
54
71
54
-20
-49
-16
-62
-169
-173
-128
-198
-285
-237
-160
-195
-264
-287
-292
-259
-196
-207
-260
-244
-214
-222
-237
-260
-214
-65
97
458
974
733
-543
-1530
-1369
-780
-450
-297
-224
-218
-167
-76
-19
26
68
85
108
142
130
101
135
199
237
276
323
357
393
402
343
285
276
243
164
128
173
227
245
285
359
377
359
410
509
614
710
690
580
540
503
350
212
167
151
203
404
790
1161
872
-268
-1266
-1290
-816
-531
-421
-357
-379
-413
-379
-331
-310
-321
-369
-393
-307
-169
-115
-146
-149
-119
-120
-130
-121
-125
-104
-27
-6
-66
-75
-35
-74
-174
-239
-230
-156
-80
-62
-65
-54
-62
-110
-165
-172
-117
-86
-120
-115
-39
-14
-40
15
140
383
886
1187
521
-699
-1203
-771
-267
-108
-60
-23
-62
-91
-56
-67
-133
-109
11
95
116
141
171
189
237
316
331
238
129
93
111
116
106
119
129
82
23
10
25
57
79
31
-24
20
108
132
97
75
86
68
-33
-129
-143
-183
-245
-163
-44
163
979
1874
1283
-481
-1334
-852
-283
-48
130
211
201
212
169
67
10
-22
-69
-111
-145
-151
-114
-81
-67
-31
15
44
85
126
131
115
96
56
9
-26
-57
-61
-43
-53
-73
-38
22
23
-27
-38
15
34
-19
-62
-83
-119
-105
-33
-13
-1
125
387
790
1006
428
-692
-1216
-838
-327
-122
-102
-169
-193
-96
-68
-170
-184
-97
-94
-140
-98
-7
12
-43
-71
-43
-38
-75
-84
-70
-78
-94
-121
-165
-183
-174
-169
-143
-111
-147
-209
-190
-108
-32
47
149
231
264
252
214
199
248
302
255
144
87
112
342
890
1112
144
-1355
-1856
-1288
-715
-496
-373
-291
-254
-193
-113
-38
24
58
83
111
143
199
253
280
335
400
393
366
390
403
357
290
231
199
202
209
206
203
206
219
240
252
254
236
174
103
82
84
66
78
128
155
166
155
105
117
229
555
1306
1768
785
-888
-1378
-731
-242
-109
4
11
-69
-67
-44
-50
-29
-10
-29
-60
-80
-82
-73
-66
-59
-55
-62
-60
-39
-49
-81
-71
-50
-86
-127
-121
-113
-122
-125
-121
-117
-119
-136
-154
-167
-192
-219
-228
-249
-303
-355
-371
-352
-331
-347
-361
-306
-181
139
695
807
-153
-1366
-1580
-985
-518
-365
-270
-209
-193
-156
-112
-81
-27
37
75
113
176
238
289
338
384
421
432
424
432
449
433
392
360
332
298
274
268
277
294
291
251
216
212
188
130
114
140
113
41
12
5
-14
-23
-56
-68
31
233
730
1513
1519
73
-1413
-1511
-867
-505
-374
-279
-280
-281
-226
-199
-176
-116
-65
-33
11
54
90
131
164
171
160
143
129
113
80
20
-55
