# session 17
16
24
18
-72
-137
-56
29
19
16
44
45
44
71
90
97
117
149
178
216
275
347
412
469
514
523
499
464
410
331
252
167
67
-13
-59
-100
-125
-128
-139
-137
-91
-60
-78
-91
-94
-109
-105
-84
-97
-125
-127
-127
-143
-150
-156
-170
-174
-154
-131
-126
-137
-138
-122
-111
-109
-97
-88
-101
-123
-128
-132
-139
-115
-92
-112
-95
1
178
608
1088
772
-418
-1288
-1169
-670
-339
-144
-51
-57
-50
-15
-8
-1
25
29
25
62
122
158
184
231
291
355
426
493
535
552
556
527
449
353
277
204
113
32
-10
-30
-60
-90
-83
-56
-58
-70
-60
-55
-69
-75
-79
-96
-108
-114
-123
-128
-129
-138
-149
-149
-148
-157
-159
-150
-145
-140
-131
-128
-115
-82
-64
-89
-121
-121
-106
-111
-111
-91
-104
-118
-56
92
495
1137
1147
-38
-1275
-1309
-636
-242
-151
-94
-74
-72
-44
-28
-21
-7
2
21
61
93
116
154
202
257
326
400
460
503
525
516
479
420
336
233
139
62
-17
-89
-127
-132
-135
-147
-149
-134
-123
-125
-129
-129
-130
-138
-153
-162
-162
-168
-174
-158
-138
-149
-165
-145
-108
-101
-114
-112
-100
-97
-90
-69
-51
-37
-16
3
7
-3
-15
-13
-6
-11
-7
4
-18
-28
24
189
652
1206
980
-202
-1136
-1016
-474
-196
-112
-57
-43
-37
-24
-25
-16
14
34
39
59
96
124
146
190
249
303
359
422
464
473
461
435
392
331
253
172
100
30
-34
-72
-75
-65
-74
-97
-96
-70
-62
-87
-115
-115
-99
-106
-133
-140
-133
-145
-165
-162
-147
-141
-154
-169
-163
-144
-143
-158
-152
-127
-121
-130
-114
-78
-74
-108
-134
-122
-103
-111
-111
-98
-113
-95
7
167
550
1090
964
-157
-1167
-1175
-690
-364
-190
-88
-72
-56
-21
-13
-8
23
51
65
82
109
147
192
237
287
349
416
480
531
553
534
491
435
360
275
198
124
52
-1
-36
-59
-66
-65
-69
-72
-72
-66
-55
-68
-113
-126
-95
-85
-113
-143
-162
-167
-157
-154
-170
-174
-147
-130
-157
-187
-171
-145
-156
-168
-146
-127
-138
-142
-122
-121
-158
-184
-173
-176
-220
-234
-201
-201
-213
-149
93
643
1129
676
-607
-1357
-1020
-455
-252
-197
-130
-91
-66
-48
-38
-14
10
31
74
106
131
207
272
261
302
447
541
556
602
639
602
573
586
556
464
379
335
293
217
152
160
193
174
153
198
262
303
324
290
260
394
541
355
-44
-209
-87
58
61
-97
-265
-277
-214
-163
-83
-106
-293
-378
-310
-304
-265
-121
-148
-238
-78
-47
-416
-616
-446
-383
-451
-395
-361
-406
-316
-78
217
431
119
-780
-1427
-1290
-865
-581
-390
-343
-436
-428
-313
-255
-210
-138
-147
-204
-159
-52
-9
57
215
286
229
238
342
424
490
574
634
603
449
271
196
216
242
216
142
95
128
185
209
208
201
187
180
189
185
165
185
219
172
109
139
173
137
133
183
169
114
123
148
115
81
79
70
57
61
51
28
14
5
21
67
73
13
-32
-34
-52
-87
-86
-65
-79
-111
-104
-70
-20
223
728
944
266
-816
-1230
-843
-361
-163
-133
-134
-120
-85
-63
-50
-18
10
0
-17
3
49
97
142
175
180
200
284
368
368
351
375
369
307
232
155
102
64
-41
-170
-196
-171
-195
-222
-212
-218
-221
-199
-219
-279
-284
-254
-269
-306
-309
-300
-316
-333
-327
-313
-307
-300
-291
-297
-303
-287
-264
-251
-238
-211
-185
-177
-178
-160
-121
-93
-93
-81
-32
6
11
33
86
111
83
54
65
95
102
96
117
139
132
168
294
552
1016
1319
772
-365
-961
-712
-295
-68
81
153
138
130
140
132
133
160
164
145
164
206
213
226
291
357
396
447
495
502
493
496
473
403
325
261
191
116
49
-14
-71
-106
-117
-112
-99
-103
-145
-174
-137
-101
-130
-165
-164
-158
-161
-183
-216
-201
-151
-148
-182
-213
-241
-221
-140
-102
-150
-194
-180
-142
-120
-132
-147
-132
-130
-163
-147
-78
-61
-91
-102
-113
-114
-66
-30
-62
-83
-33
16
-7
-57
-65
-32
-1
3
-16
-22
1
15
7
-8
-28
-27
9
26
8
16
42
22
-18
-17
16
36
27
8
10
47
81
73
35
1
-9
-11
-10
17
18
-41
-17
158
427
875
1238
739
-474
-1127
-823
-377
-199
-102
-58
-69
-45
-18
-18
-2
10
10
30
49
63
104
141
149
172
221
276
351
427
436
382
355
374
341
227
138
128
121
54
-41
-100
-104
-99
-118
-126
-121
-142
-151
-110
-86
-114
-119
-87
-98
-147
-140
-98
-119
-167
-155
-126
-147
-165
-138
-111
-119
-142
-156
-153
-135
-115
-97
-94
-123
-142
-106
-74
-81
-72
-63
-105
-140
-106
-49
-31
-39
-25
-9
-50
-88
-47
-11
-30
-21
15
6
-7
11
5
-1
51
85
32
-17
9
38
10
-24
-6
17
-5
21
158
354
688
1064
841
-172
-1025
-995
-539
-233
-78
-2
-20
-39
10
49
20
1
54
107
109
115
134
132
142
189
244
304
371
406
414
440
456
413
334
266
208
137
43
-33
-50
-42
-55
-81
-110
-125
-108
-97
-98
-44
0
-59
-88
-11
-10
-108
-131
-111
-159
-182
-133
-109
-132
-145
-142
-139
-128
-109
-103
-105
-92
-81
-88
-91
-106
-119
-66
-13
-16
24
53
-54
-119
-57
-61
-103
-63
-75
-164
-169
-124
-123
-100
-44
-37
-45
1
24
-13
-21
-27
-75
-28
88
60
-24
26
99
131
295
611
753
351
-434
-908
-742
-348
-122
-43
-18
-17
9
46
41
35
65
74
63
94
121
79
52
103
157
173
200
244
280
320
367
390
374
344
323
282
191
110
107
115
41
-66
-101
-73
-61
-77
-75
-62
-70
-91
-101
-94
-75
-66
-80
-106
-131
-138
-128
-127
-129
-113
-107
-126
-134
-124
-128
-139
-127
-120
-142
-145
-105
-78
-82
-67
-44
-61
-84
-61
-18
7
17
18
20
49
78
53
10
20
26
-32
-48
24
30
-38
13
203
496
916
1028
295
-780
-1187
-851
-404
-157
-62
-50
-58
-47
-32
-25
-14
10
25
17
24
70
115
131
144
174
222
286
353
398
429
456
443
370
274
184
88
8
-37
-83
-149
-184
-172
-165
-185
-189
-163
-148
-158
-156
-135
-114
-107
-118
-130
-108
-86
-110
-147
-144
-107
-90
-112
-110
-56
-47
-113
-135
-82
-63
-90
-73
-27
-32
-70
-57
-10
-20
-45
11
77
61
31
35
20
-19
-58
-82
-34
44
17
-29
83
296
613
1028
964
26
-976
-1114
-655
-277
-115
-52
-26
3
16
5
16
45
51
56
81
101
109
127
157
188
230
293
368
427
466
502
522
496
434
368
289
185
91
29
-22
-77
-118
-132
-127
-122
-120
-113
-114
-121
-110
-93
-105
-132
-135
-124
-127
-135
-134
-139
-151
-150
-146
-159
-171
-161
-149
-150
-147
-136
-132
-136
-136
-131
-122
-102
-82
-74
-69
-58
-61
-80
-93
-95
-102
-111
-96
-88
-118
-107
-10
200
679
1178
831
-417
-1291
-1092
-536
-259
-159
-109
-108
-94
-69
-72
-65
-38
-22
-12
12
42
72
110
154
206
266
332
403
476
527
545
537
504
444
365
273
179
100
39
-9
-41
-65
-86
-84
-67
-70
-77
-61
-45
-47
-49
-47
-46
-44
-53
-78
-88
-69
-55
-63
-73
-80
-85
-82
-77
-80
-82
-78
-81
-80
-69
-66
-70
-55
-31
-37
-64
-75
-73
-83
-87
-65
-73
-104
-56
67
307
820
1173
552
-693
-1268
-909
-427
-215
-131
-103
-93
-57
-39
-45
-32
-18
-11
17
48
66
94
129
157
208
293
369
417
468
521
539
514
468
404
316
213
118
43
-22
-74
-103
-117
-132
-136
-121
-111
-119
-120
-110
-111
-110
-90
-82
-105
-127
-136
-146
-144
-128
-138
-170
-167
-134
-134
-160
-154
-129
-128
-138
-142
-144
-122
-82
-82
-125
-142
-116
-114
-151
-139
-80
-96
-141
-77
134
639
1318
1223
-65
-1240
-1203
-623
-345
-241
-124
-89
-93
-59
-42
-50
-43
-26
-15
7
42
69
81
118
205
298
351
409
518
611
607
555
529
477
333
171
93
63
-9
-109
-169
-175
-158
-144
-132
-101
-74
-95
-139
-154
-153
-149
-120
-98
-121
-143
-124
-98
-88
-92
-117
-152
-144
-77
-30
-64
-108
-82
-42
-56
-71
-52
-45
-37
7
16
-33
-44
-25
-56
-84
-20
44
-12
-81
-37
90
507
1375
1752
618
-968
-1258
-573
-188
-164
-100
-77
-124
-101
-46
-46
-75
-66
-12
14
14
93
199
184
146
251
385
395
368
402
443
446
419
367
300
221
117
7
-66
-105
-134
-147
-145
-143
-139
-151
-189
-177
-107
-93
-123
-99
-75
-126
-166
-125
-71
-76
-103
-86
-54
-68
-92
-76
-59
-62
-43
-19
-40
-78
-81
-59
-46
-42
-35
-38
-61
-64
-40
-40
-49
-24
-27
-85
-100
-60
-49
-54
-44
-63
-96
-79
-59
-92
-116
-94
-89
-114
-113
-87
-82
-93
-96
-94
-88
-67
-46
-50
-71
-70
-50
-45
-40
-7
27
35
34
36
28
9
-8
-14
-8
6
11
-17
-23
56
198
461
856
880
108
-841
-1074
-685
-297
-115
-41
-24
-16
11
33
42
52
63
74
91
113
138
155
165
187
234
276
300
330
376
412
427
421
399
374
348
306
251
196
149
109
75
45
29
25
13
2
5
4
-6
-13
-16
-21
-28
-43
-53
-58
-73
-86
-82
-78
-93
-108
-110
-109
-113
-116
-115
-115
-121
-121
-112
-109
-114
-114
-107
-108
-116
-114
-106
-108
-115
-115
-111
-109
-111
-109
-94
-68
-51
-49
-47
-43
-60
-95
-114
-108
-109
-106
-87
-91
-102
-44
74
304
714
872
236
-754
-1145
-838
-425
-200
-103
-76
-67
-40
-21
-20
-6
12
19
29
49
70
88
111
143
184
224
266
319
371
405
420
420
405
375
325
257
184
120
73
31
-10
-39
-49
-52
-58
-63
-60
-51
-46
-49
-51
-52
-57
-61
-63
-70
-79
-83
-88
-96
-101
-104
-107
-106
-105
-108
-107
-105
-105
-105
-106
-103
-96
-92
-97
-99
-98
-95
-89
-86
-87
-75
-50
-37
-34
-24
-18
-37
-71
-84
-72
-71
-75
-61
-71
-88
-28
98
359
822
972
241
-808
-1150
-788
-385
-179
-75
-35
-25
-10
-2
6
31
53
60
71
91
118
148
179
214
251
284
324
390
456
494
519
537
519
462
393
321
249
189
131
72
31
7
-19
-35
-23
3
6
-18
-34
-25
-7
-1
-17
-30
-33
-49
-64
-52
-60
-132
-188
-140
-49
-27
-60
-91
-125
-134
-88
-77
-147
-169
-106
-85
-120
-126
-130
-159
-162
-148
-149
-134
-115
-135
-154
-124
-89
-88
-88
-67
-72
-120
-159
-159
-152
-157
-156
-143
-149
-163
-119
-12
180
574
900
511
-503
-1148
-968
-511
-247
-131
-71
-53
-38
-13
2
11
23
37
59
79
87
97
120
145
176
216
261
316
380
432
455
463
462
442
399
343
276
197
115
49
2
-35
-59
-67
-62
-58
-59
-60
-50
-41
-45
-52
-52
-53
-59
-61
-65
-75
-80
-84
-94
-100
-93
-90
-101
-108
-101
-98
-102
-97
-89
-96
-100
-87
-80
-84
-74
-51
-36
-30
-17
0
-9
-45
-70
-62
-54
-67
-64
-49
-65
-58
32
190
539
1014
934
-23
-963
-1052
-633
-310
-155
-79
-61
-46
-21
-12
-6
7
17
25
42
61
80
107
139
168
206
263
332
400
458
493
504
500
476
424
351
268
183
109
55
11
-31
-57
-63
-65
-69
-68
-60
-55
-55
-66
-81
-82
-73
-80
-95
-97
-100
-114
-125
-138
-154
-156
-152
-163
-169
-158
-152
-158
-155
-151
-154
-153
-147
-147
-137
-121
-120
-128
-122
-111
-109
-112
-110
-102
-96
-97
-97
-92
-84
-64
-38
-27
-26
-16
-16
-42
-68
-65
-50
-61
-76
-65
-64
-56
21
183
523
945
804
-170
-1062
-1056
-560
-232
-112
-57
-36
-17
-3
-5
4
23
28
37
64
91
102
116
153
199
232
269
328
388
428
454
472
476
460
428
383
323
247
178
131
86
37
10
5
-8
-25
-17
-8
-17
-6
18
0
-33
-22
-1
-24
-60
-67
-57
-63
-80
-84
-81
-92
-107
-112
-113
-114
-113
-119
-124
-116
-110
-113
-109
-100
-98
-105
-113
-107
-93
-98
-113
-112
-109
-114
-112
-107
-110
-110
-97
-89
-97
-105
-102
-103
-103
-82
-55
-44
-33
-13
-20
-53
-71
-69
-75
-81
-58
-41
-71
-75
13
150
446
937
1014
173
-866
-1104
-694
-326
-162
-72
-36
-32
-20
-2
16
31
28
30
53
77
96
124
150
167
202
256
308
359
411
453
483
493
474
440
400
342
263
181
113
67
31
-4
-29
-41
-47
-43
-31
-30
-38
-36
-25
-22
-30
-39
-42
-45
-53
-64
-74
-82
-87
-93
-99
-103
-108
-107
-100
-99
-107
-110
-106
-101
-94
-95
-106
-107
-95
-93
-99
-98
-95
-97
-94
-92
-98
-97
-89
-88
-91
-89
-86
-87
-89
-90
-87
-81
-80
-80
-71
-48
-29
-29
-25
-11
-16
-49
-70
-67
-71
-82
-68
-69
-95
-58
53
254
725
1168
744
-443
-1147
-899
-441
-239
-141
-73
-59
-51
-36
-35
-44
-51
-29
22
53
54
68
91
107
142
196
243
288
350
410
448
469
474
449
397
331
259
183
113
50
-13
-64
-87
-96
-106
-110
-106
-102
-96
-83
-75
-75
-72
-63
-62
-69
-74
-79
-85
-88
-87
-86
-86
-87
-89
-85
-81
-82
-78
-69
-70
-66
-41
-24
-33
-43
-37
-26
-20
