# session 8
466
502
282
633
1206
531
-900
-1267
-556
-35
-117
-518
-874
-696
-3
480
528
492
253
-239
-407
-352
-767
-1275
-1117
-657
-455
-204
482
1270
1559
1677
2450
2986
1733
4
-37
509
12
-333
449
1066
693
123
-47
-81
-244
-442
-513
-469
-537
-783
-867
-809
-1108
-1338
-562
616
897
470
171
-38
-397
-644
-651
-679
-765
-729
-760
-1002
-1215
-1571
-2089
-1488
748
2628
2380
663
-1095
-2109
-2098
-1415
-898
-997
-1330
-1129
-303
451
937
1598
2507
3368
3458
1894
-553
-1904
-1848
-1510
-1287
-1000
-628
-209
62
39
-152
-428
-640
-601
-307
623
2048
1991
-169
-1434
-205
988
536
-20
271
497
133
-306
-460
-534
-641
-670
-776
-1053
-943
-168
488
475
200
-94
-390
-348
-111
-194
-339
-160
37
-69
-413
-485
-24
-118
-1097
-705
1919
3966
3326
985
-1196
-2049
-1684
-1295
-1341
-1068
-288
334
689
1000
954
682
847
1044
532
-88
-86
167
270
304
291
384
851
1219
717
-188
-530
-582
-814
-775
-347
102
336
-260
-1362
-1010
820
1729
1271
826
330
-490
-611
-40
-142
-844
-924
-543
-464
-364
-122
-236
-303
331
1569
3180
3883
1999
-826
-1500
-714
-547
-593
-442
-573
-566
-683
-1476
-1163
838
1547
171
-626
-293
-267
-451
-298
-192
-198
120
798
1534
1963
1741
1097
661
326
-307
-789
-816
-879
-975
-683
-239
84
450
554
-108
-963
-1067
-760
-735
-423
649
1519
1257
-45
-1545
-1783
-410
1012
1784
2265
1560
-266
-1008
-577
-823
-1364
-1130
-987
-1494
-1690
-1014
-71
360
259
198
434
754
996
1022
663
178
63
124
16
170
177
-1192
-2378
-831
1335
705
-1204
-1544
-911
-700
-765
-801
-863
-819
-494
150
914
1266
999
644
460
68
-406
-440
-331
-720
-1227
-872
334
1536
2609
3437
2705
551
-647
-610
-762
-223
915
13
-1306
555
2307
206
-1613
-185
819
-8
-33
853
1140
973
495
-207
-113
521
287
-290
85
633
213
-519
-725
-731
-857
-876
-826
-835
-584
-233
-454
-832
-896
-1482
-1839
58
2500
2286
344
-1076
-1814
-1786
-976
-328
-80
394
1682
3671
4463
2695
539
117
178
-391
-641
-356
-321
-409
-237
-224
-585
-760
-519
-291
-209
5
297
417
324
107
110
487
559
166
78
-367
-2124
-3157
-1785
-295
-418
-644
-275
-199
-276
-115
-166
-362
-182
120
135
112
173
36
-214
-241
-124
-157
-346
-421
-148
660
2224
3774
3327
683
-1512
-2009
-2304
-2402
-914
785
488
-664
-706
-217
-287
-593
-577
-178
614
1687
2414
2116
1101
380
228
141
-43
-167
-281
-452
-670
-904
-890
-541
-344
-466
-418
-223
-354
-563
-493
-404
-228
151
350
1012
2751
3421
1472
-478
-366
78
-390
-985
-1121
162
2955
3978
1460
-901
-351
1037
1365
1071
610
172
-24
-175
-579
-1281
-1922
-2200
-2385
-2113
-765
166
-519
-821
348
1266
1451
1337
247
-1185
-1470
-1192
-1234
-1144
-965
-1117
-1125
-554
213
568
361
94
60
-142
-468
-416
-294
-530
-695
-557
-446
-344
-106
6
-36
404
1605
2695
2849
2076
463
-733
649
2892
1853
-1032
-1290
145
215
-267
-4
117
-130
-60
-23
-357
-328
219
380
2
-208
-148
-143
-135
-106
-240
-342
-199
-184
-400
-382
-296
-494
-493
-357
-477
-62
251
-1250
-2213
-176
1373
124
-750
-199
-237
-644
-613
-813
-1241
-1150
-71
2052
3756
3152
1108
-49
-112
-34
77
110
-159
-312
-91
135
87
-69
36
312
413
732
1251
1171
1463
2330
18
-4818
-4490
984
2670
-208
-1167
-11
178
13
116
-223
-424
7
373
162
-524
-1032
-865
-608
-573
-241
-25
-539
-868
-427
-149
-410
-573
-470
-124
1012
2647
2962
1208
-1002
-2227
-2318
-1489
-472
58
277
240
7
46
94
-235
-385
-294
-496
-553
98
917
1289
1213
864
594
815
1340
1583
1436
1134
567
-284
-777
-533
-216
-327
-320
-64
-186
-287
-30
-204
214
1722
559
-2950
-2395
1010
522
-1799
-1208
-27
-146
544
2115
2514
1180
-533
-1033
-581
-664
-1257
-1245
-657
-231
-52
68
81
-12
-52
81
282
379
579
942
966
845
1102
930
313
866
1645
508
-731
-73
504
-146
-511
-400
-615
-831
-863
-1056
-1161
-908
-620
-516
-490
-532
-685
-819
-817
-853
-1020
-852
-48
1120
2724
4485
4647
2629
724
392
344
-347
-967
-1285
-2059
-2884
-2156
-549
-708
-2255
-2416
-1074
116
881
1258
901
266
10
77
220
325
305
211
100
-96
-419
-864
-1183
-949
-326
13
3
6
-109
-451
-603
-450
-371
-437
-434
-420
-465
-339
0
138
11
497
2330
4402
4420
2105
-99
-658
-543
-592
-556
-486
-596
-724
-810
-890
-833
-606
-336
-137
-28
126
391
565
582
635
746
863
993
856
401
185
307
356
301
24
-403
-273
-161
-643
341
2360
1391
-816
485
2085
73
-1689
-913
-535
-1068
-1061
-976
-1139
-876
113
1549
2113
725
-1022
-1117
-368
-158
-61
327
513
403
199
-110
-289
-151
-82
-201
-94
185
270
367
679
924
927
539
-477
-1609
-1904
-1414
-885
-476
-63
71
-145
-188
189
569
656
609
542
405
189
-94
-366
-527
-681
-840
-792
-712
-826
-546
546
1540
1355
133
-1105
-1487
-1070
-674
-673
-677
-512
-381
-319
-335
-409
-261
94
259
244
333
480
577
673
701
623
587
597
472
246
131
121
65
6
68
176
218
271
378
394
310
248
21
-614
-1366
-1793
-1792
-1356
-609
41
327
313
196
309
1072
2492
3493
2609
284
-1191
-990
-465
-410
-401
-253
-163
-186
-274
-319
-227
-58
113
328
633
932
1047
965
862
820
755
644
554
504
425
264
82
-44
-173
-365
-511
-560
-627
-734
-805
-856
-844
-693
-524
-379
-138
-8
-165
-270
-286
-539
-664
-119
951
2055
2235
811
-920
-1304
-893
-843
-1006
-1061
-1135
-1152
-995
-756
-453
-83
209
369
563
867
1103
1149
1119
1006
603
68
-169
-189
-402
-708
-812
-819
-768
-491
-207
-199
-272
-310
-495
-681
-605
-515
-664
-763
-559
-314
-221
18
468
601
303
271
1044
2419
3227
2130
-81
-1113
-694
-247
-169
-178
-247
-488
-1108
-1623
-1743
-2507
-2809
134
3884
3937
2247
2414
3180
2963
2330
1363
342
81
141
-127
-297
-270
-564
-1027
-1149
-1082
-1132
-1125
-980
-960
-1091
-1219
-1379
-1498
-1330
-879
-254
483
961
868
565
521
902
1693
1981
620
-1187
-1313
-594
-617
-281
668
427
301
2410
3341
148
-2969
-2534
-1330
-1440
-1311
-396
265
507
727
826
632
431
425
334
191
357
542
367
182
126
-89
-277
-262
-395
-666
-605
-236
-49
-215
-520
-775
-883
-826
-855
-1118
-1223
-937
-468
292
959
10
-2313
-2908
-459
2386
3374
3098
2507
1685
870
378
81
-218
-431
-369
-140
-119
-289
-233
-6
-92
-426
-516
-391
-442
-617
-625
-510
-402
-223
-22
-6
-70
89
439
742
893
837
548
69
-386
-281
263
222
86
1320
2350
615
-2164
-2602
-751
907
664
-864
-1655
-1249
-825
-630
-247
89
279
567
733
575
439
435
204
-140
-82
161
-4
-329
-214
222
521
564
459
305
114
-154
-512
-983
-1434
-1521
-1359
-1402
-1261
-435
292
575
1394
2238
1548
461
1071
2339
2228
1141
441
414
791
1522
2414
2314
395
-1724
-2069
-1350
-977
-841
-739
-877
-925
-635
-383
-339
-288
-206
-159
-19
242
456
600
745
739
458
96
-136
-164
70
305
406
1233
2730
2407
-523
-2800
-2489
-1539
-1270
-995
-666
-655
-561
-253
-221
-401
-243
18
-262
-719
-600
275
2120
4154
3824
835
-1391
-1284
-864
-1118
-1248
-1265
-1424
-1289
-990
-1192
-1643
-1599
-1179
-903
-585
333
1756
2448
1426
205
861
1965
1119
-316
-89
942
1175
728
265
58
112
160
-23
-237
-275
-344
-514
-595
-838
-1321
-1355
-1046
-1295
-1523
-682
436
1138
2107
2669
1163
-1396
-2482
-2005
-1499
-1290
-1022
-815
-608
-335
-534
-920
-203
1460
2687
2907
1934
171
-803
-639
-636
-974
-940
-624
-317
-85
-111
-256
-180
-14
-13
21
337
782
1108
1193
888
330
51
84
-117
-553
-895
-1188
-1044
-247
-132
-1132
-1236
548
3405
6248
5821
625
-2326
2089
5971
2842
-726
396
2066
2032
2069
1529
-202
-1055
-604
-537
-864
-494
145
62
-401
-496
-470
-753
-1117
-1259
-1117
-831
-765
-957
-993
-819
-762
-801
-737
-672
-723
-776
-807
-969
-1241
-1434
-1502
-1455
-1368
-1513
-1538
-321
1886
3254
3340
2878
1374
-1137
-2700
-2616
-2221
-2066
-1784
-1476
-1270
-1024
-728
-364
23
215
351
745
1170
1331
1438
1521
1302
934
733
607
416
163
-128
-280
-218
-189
-285
-389
-625
-1000
-1081
-854
-843
-886
-626
-694
-1029
-362
832
1083
1333
2601
3197
2401
2195
2838
2124
123
-682
-21
255
-198
-511
-626
-824
-1024
-1140
-1134
-1038
-1010
-949
-650
-397
-493
-645
-614
-636
-744
-636
-323
-37
172
232
115
124
396
756
1176
1590
1970
2483
2465
1135
-325
-687
-925
-1564
-1587
-1107
-995
-980
-764
-648
-529
-21
1228
2918
3247
1404
-233
101
870
734
370
192
-153
-536
-577
-395
-331
-408
-448
-483
-646
-815
-820
-813
-882
-766
-390
13
252
38
-577
-785
-273
528
1551
2338
1984
1020
522
276
-45
-241
-476
-817
-969
-971
-885
-657
-695
-1157
-1379
-928
330
2392
3603
2001
-830
-1783
-1112
-788
-885
-787
-675
-609
-434
-259
-129
-41
-148
-312
-138
211
361
875
2250
3110
1993
109
-565
-393
-622
-1043
-1040
-776
-492
-256
-252
-456
-608
-620
-510
-245
57
253
544
1088
1473
1223
539
19
-102
-1
501
1883
3213
2488
76
-1328
-996
-665
-1060
-1335
-1214
-1225
-1286
-917
-508
-638
-1047
-1203
-444
1339
2294
1170
-124
-49
352
401
453
436
419
595
517
14
-403
-566
-718
-867
-845
-625
-423
-492
-774
-1028
-1173
-1202
-1086
-887
-828
-1036
-1237
-1115
-468
1136
3030
2920
551
-1188
-1020
-429
-68
581
1721
2935
2807
780
-1050
-1169
-788
-777
-605
-311
-196
-8
141
-119
-440
-300
141
494
760
1093
1410
1536
1506
1380
1012
449
105
33
-265
-866
-1213
-1061
-704
-372
-219
-484
-998
-1263
-1255
-1004
-150
1120
2411
3488
2533
-1095
-2753
379
2894
1016
-979
-360
143
-510
-751
-449
-248
-85
64
100
113
175
243
148
-89
-108
58
-101
-536
-734
-700
-675
-521
-202
-1
33
-26
-325
-720
-783
-652
-654
-599
-555
-633
-87
894
1018
1153
2406
2452
433
-113
1559
1701
-421
-1762
-1383
-777
-533
-386
-429
-656
-728
-550
-291
6
386
718
771
509
187
71
47
-210
-557
-560
-346
-354
-521
-556
-464
-289
-32
159
170
-23
-235
-35
339
302
500
867
-511
-2371
-941
1848
1369
-614
-507
435
632
933
1463
1467
677
-547
-1127
-695
-321
-422
-383
-216
-256
-345
-396
-558
-741
-705
-449
-229
-135
-20
5
-251
-452
-216
188
323
175
-43
-175
-202
-187
-149
-105
212
1410
2937
2853
946
-499
-486
-340
-639
-743
-616
-564
-485
-432
-569
-673
-523
170
2004
4256
4496
2225
134
-244
-242
-679
-861
-650
-621
-994
-1557
-1901
-1723
-1129
-438
42
108
-29
24
185
295
535
659
479
610
474
-890
-1285
715
1583
-222
-1127
-146
241
-122
-131
-191
-478
-520
-439
-468
-527
-580
-632
-764
-930
-811
-343
642
2329
3147
1406
-1008
-1382
-568
-382
-525
-434
-290
-147
-216
-549
-493
-49
187
695
1625
1905
1891
2266
1391
-836
-1599
-672
-240
-363
-312
-426
-453
27
417
311
-18
-306
-275
122
426
418
385
434
419
253
-50
-272
-242
-216
-310
-30
1062
2539
2989
1433
-900
-2045
-1969
-1644
-1370
-1174
-965
-778
-886
-720
-469
-2009
-3774
-1640
2157
2292
447
528
1203
775
405
413
125
-185
-216
-231
-307
-290
-200
-177
-223
-227
-158
-59
13
7
-66
-219
-473
-670
-636
-442
-247
-135
-104
-72
174
1082
2666
3692
2865
618
-960
-147
1550
1190
-6
556
804
-896
-1690
-744
-347
-598
-425
-173
-93
-29
-135
-199
48
291
503
1028
1519
1395
901
504
164
-172
-350
-376
-308
-131
-5
-92
-251
-326
-405
-557
-696
-796
-890
-942
-895
-715
-384
202
1260
2305
1637
-1257
-3634
-3047
-1141
-449
-583
-399
-172
-133
45
294
430
575
725
676
397
17
-372
-646
-653
-493
-438
-516
-555
-499
-390
-258
-160
-79
45
147
144
94
46
-48
-110
-7
136
202
253
151
-6
265
633
743
1502
2430
1516
17
702
1829
534
-1457
-1693
-1099
-904
-672
-210
12
10
167
440
557
770
1396
1911
1728
1211
887
683
514
554
700
550
59
-375
-581
-817
-1209
-1592
-1843
-1923
-1716
-1162
-594
-401
-308
-84
-435
-1283
-823
1186
2169
1183
348
505
511
493
1238
2035
1737
296
-1207
-1526
-756
-86
12
-50
-98
-242
-397
-401
-267
-108
5
73
157
295
406
406
391
484
620
658
560
322
-6
-246
-359
-490
-484
-243
-275
-264
1115
2827
1843
-1174
-2380
-1357
-700
-844
-804
-744
-840
-790
-693
-535
68
1290
2767
3216
1646
-554
-1293
-791
-372
-312
-381
-491
-537
-557
-584
-506
-402
-375
-222
85
205
41
-177
-347
-498
-601
-563
-386
-189
278
1025
315
-2772
-4556
-1736
2060
2265
778
628
732
91
-218
-84
-195
-337
-193
70
252
210
38
137
977
2506
3195
1580
-769
-1411
-955
-935
-1071
-1091
-1381
-1572
-1235
-727
-368
-141
-17
14
-45
-28
195
238
-75
-338
-756
-1263
-330
1805
2231
634
-220
146
93
-419
-704
-985
-1216
-893
-242
71
-70
-278
-252
-47
99
70
-28
-30
119
672
2218
4239
4535
2351
56
-558
-421
-467
-439
-311
-249
-170
-150
-187
-232
-455
-527
-202
-145
-20
915
1144
164
248
1076
521
-183
312
573
161
-32
-118
-233
-90
130
249
288
99
-212
-355
-440
-607
-656
-552
-462
-436
-568
-821
-869
-526
517
2360
3310
1801
-268
-533
-32
-225
-479
-342
-245
-324
-554
-631
156
1819
3093
2539
479
-991
-909
-394
-197
-93
-147
-361
-351
-141
-58
-114
-172
-202
-173
-58
142
451
776
818
484
64
-211
-358
-399
-377
-406
-507
-658
-848
-908
-717
