# session 28
-38
-56
-18
22
-74
-251
-311
-271
-272
-294
-282
-274
-286
-292
-288
-285
-286
-291
-287
-277
-274
-272
-268
-263
-256
-250
-245
-236
-224
-221
-224
-221
-210
-200
-197
-193
-183
-176
-175
-170
-161
-157
-155
-148
-149
-164
-176
-171
-152
-120
-72
-32
-26
-51
-82
-96
-92
-96
-99
-78
-82
-112
-79
-61
-166
-156
279
1254
2528
2969
1686
-38
-460
-76
-52
-193
-137
-112
-146
-110
-85
-91
-64
-31
-14
11
35
58
94
129
160
198
244
298
361
417
456
487
513
525
525
508
461
390
306
202
86
-12
-90
-163
-221
-247
-259
-265
-259
-254
-261
-261
-250
-244
-248
-246
-238
-235
-237
-240
-245
-251
-251
-252
-255
-250
-245
-249
-251
-246
-240
-235
-233
-235
-232
-220
-211
-208
-205
-201
-199
-201
-199
-184
-169
-168
-171
-173
-185
-201
-193
-158
-112
-72
-56
-70
-97
-121
-135
-144
-149
-136
-127
-141
-121
-99
-178
-209
77
873
2203
3084
2124
118
-700
-267
-70
-229
-187
-122
-169
-147
-103
-111
-90
-49
-40
-28
10
45
74
118
166
193
219
270
334
394
453
501
524
534
542
531
479
391
295
200
97
-18
-122
-186
-225
-274
-314
-316
-296
-291
-291
-281
-274
-275
-265
-248
-248
-256
-257
-259
-259
-253
-265
-284
-275
-259
-262
-268
-263
-258
-258
-261
-254
-240
-239
-248
-249
-247
-240
-224
-197
-156
-111
-107
-153
-198
-200
-185
-184
-174
-156
-179
-190
-152
-184
-246
-59
626
1939
3127
2572
438
-866
-524
-99
-210
-227
-140
-175
-169
-107
-98
-91
-67
-50
-15
27
52
84
125
166
215
271
327
392
454
504
548
581
584
566
538
483
381
251
130
23
-82
-179
-251
-290
-307
-319
-326
-318
-307
-305
-306
-300
-289
-279
-268
-257
-252
-252
-251
-261
-270
-265
-271
-297
-308
-294
-280
-268
-261
-270
-275
-262
-259
-269
-260
-234
-206
-166
-128
-130
-166
-189
-185
-188
-206
-192
-167
-189
-180
-131
-196
-271
-32
728
2090
3236
2552
389
-797
-423
-99
-254
-239
-145
-193
-188
-134
-130
-111
-79
-72
-48
-2
30
56
98
150
197
240
301
384
457
503
541
573
583
581
562
493
376
252
135
16
-97
-186
-248
-288
-315
-333
-340
-339
-332
-320
-306
-294
-281
-276
-279
-276
-266
-265
-268
-267
-267
-269
-270
-272
-275
-270
-265
-266
-268
-261
-257
-266
-276
-264
-239
-214
-177
-137
-126
-154
-187
-189
-177
-186
-188
-169
-185
-193
-137
-171
-289
-164
443
1670
3059
3038
1142
-498
-493
-95
-212
-288
-188
-206
-225
-173
-165
-161
-118
-94
-79
-47
-17
13
53
95
142
203
270
335
404
470
519
550
566
573
564
510
401
274
157
41
-76
-174
-246
-297
-328
-344
-354
-351
-341
-336
-334
-324
-312
-304
-299
-296
-291
-282
-281
-287
-285
-281
-285
-285
-281
-282
-285
-290
-298
-292
-273
-252
-217
-177
-165
-185
-208
-211
-200
-202
-206
-183
-186
-206
-160
-161
-289
-255
274
1449
2868
3097
1435
-321
-531
-119
-168
-277
-191
-192
-218
-163
-148
-155
-119
-91
-81
-50
-15
13
51
95
136
184
247
316
379
431
476
511
529
528
504
454
371
262
144
33
-71
-162
-224
-264
-297
-317
-317
-314
-314
-309
-299
-288
-276
-268
-268
-268
-261
-254
-254
-255
-255
-258
-258
-253
-253
-254
-248
-244
-254
-263
-262
-254
-236
-203
-167
-147
-148
-166
-187
-185
-177
-185
-181
-169
-183
-169
-136
-215
-290
-17
846
2215
3090
2187
250
-620
-275
-91
-244
-220
-159
-198
-179
-135
-140
-130
-99
-79
-53
-19
7
37
75
111
151
208
274
334
383
424
457
474
476
475
458
401
308
204
101
-5
-102
-173
-226
-269
-288
-288
-290
-291
-278
-273
-285
-278
-252
-244
-256
-256
-247
-248
-255
-251
-243
-244
-252
-257
-255
-249
-242
-235
-234
-246
-257
-249
-230
-207
-171
-135
-131
-160
-183
-172
-162
-183
-190
-173
-181
-167
-131
-200
-277
-55
733
2122
3131
2286
237
-723
-332
-98
-257
-220
-134
-190
-187
-134
-137
-132
-94
-73
-55
-20
16
48
82
118
155
198
247
302
361
410
438
457
476
475
447
400
322
213
109
18
-82
-173
-225
-261
-295
-301
-289
-295
-304
-288
-271
-267
-263
-258
-261
-265
-266
-267
-276
-283
-276
-263
-264
-274
-280
-286
-294
-291
-275
-246
-201
-169
-178
-210
-228
-228
-235
-239
-211
-203
-231
-207
-179
-251
-260
71
1028
2564
3297
1865
-298
-864
-302
-162
-300
-224
-194
-241
-191
-150
-157
-119
-70
-60
-53
-24
20
65
105
155
215
266
313
375
443
488
507
523
535
518
465
383
278
161
44
-65
-153
-215
-268
-307
-318
-315
-317
-312
-299
-294
-293
-281
-264
-256
-255
-260
-264
-264
-265
-270
-271
-274
-274
-266
-273
-298
-298
-271
-259
-246
-205
-170
-175
-206
-225
-220
-215
-218
-204
-201
-228
-194
-142
-229
-298
-14
888
2426
3423
2309
59
-825
-340
-130
-293
-240
-177
-228
-198
-154
-165
-141
-102
-91
-62
-12
23
48
86
138
198
256
312
373
437
492
528
538
531
517
479
393
279
170
62
-53
-160
-230
-271
-308
-338
-338
-329
-330
-322
-302
-294
-293
-280
-268
-270
-276
-275
-271
-271
-278
-280
-274
-274
-283
-287
-279
-273
-278
-285
-280
-269
-256
-231
-196
-171
-176
-203
-214
-208
-220
-216
-182
-196
-217
-161
-182
-306
-214
360
1611
3122
3218
1281
-497
-544
-112
-216
-294
-181
-198
-225
-168
-156
-158
-116
-86
-70
-37
-2
28
64
105
153
211
273
338
405
462
504
533
549
547
525
470
374
254
138
25
-83
-170
-233
-282
-316
-329
-332
-332
-322
-304
-294
-291
-282
-274
-270
-267
-263
-261
-263
-268
-270
-268
-270
-273
-272
-267
-266
-266
-262
-258
-264
-276
-277
-262
-244
-220
-185
-156
-153
-173
-192
-191
-190
-194
-174
-165
-197
-172
-129
-234
-293
65
998
2406
3281
2292
260
-602
-234
-81
-254
-223
-163
-204
-180
-138
-142
-119
-80
-63
-42
-9
26
62
98
136
189
251
314
376
436
486
523
544
552
551
523
450
343
223
102
-7
-98
-174
-230
-262
-281
-294
-296
-291
-283
-275
-264
-255
-250
-249
-246
-238
-234
-235
-235
-234
-234
-235
-238
-238
-233
-229
-227
-224
-219
-217
-214
-207
-199
-194
-192
-191
-185
-177
-172
-167
-160
-157
-156
-147
-137
-137
-138
-133
-128
-131
-143
-153
-152
-134
-97
-52
-22
-24
-50
-75
-82
-84
-99
-93
-71
-95
-100
-55
-122
-220
16
766
2017
3109
2661
780
-445
-269
-7
-169
-204
-129
-163
-165
-120
-117
-103
-70
-60
-39
1
27
49
87
126
162
210
266
320
370
419
460
485
499
507
501
469
401
306
199
91
-13
-104
-175
-229
-266
-285
-290
-290
-290
-288
-282
-276
-273
-269
-265
-258
-252
-255
-263
-264
-261
-263
-267
-271
-271
-267
-265
-265
-260
-253
-249
-242
-235
-233
-228
-217
-215
-218
-212
-200
-192
-189
-184
-178
-171
-169
-173
-172
-170
-177
-184
-171
-132
-88
-59
-55
-71
-102
-120
-113
-112
-118
-107
-112
-132
-91
-81
-186
-151
327
1375
2685
2993
1520
-189
-472
-64
-76
-198
-136
-131
-149
-99
-87
-95
-59
-34
-25
2
31
51
80
116
157
205
251
295
351
405
438
464
492
506
493
461
420
353
247
125
25
-57
-139
-210
-251
-268
-282
-297
-302
-289
-277
-278
-278
-268
-261
-263
-264
-265
-268
-272
-274
-275
-275
-272
-267
-265
-268
-271
-266
-260
-260
-260
-252
-240
-230
-224
-225
-235
-243
-234
-200
-156
-128
-119
-126
-152
-176
-171
-167
-181
-174
-167
-181
-150
-124
-198
-199
152
1106
2545
3140
1710
-300
-768
-232
-124
-250
-158
-119
-167
-132
-101
-105
-72
-33
-21
-3
28
60
93
133
178
225
266
309
365
424
465
482
488
491
487
458
391
296
196
93
-11
-102
-173
-229
-267
-284
-290
-291
-286
-274
-264
-263
-261
-253
-244
-240
-238
-237
-240
-245
-248
-252
-255
-254
-248
-247
-251
-251
-249
-249
-244
-232
-224
-215
-204
-205
-220
-229
-226
-212
-185
-144
-107
-95
-108
-133
-150
-150
-149
-150
-138
-146
-164
-124
-116
-221
-206
220
1245
2637
3063
1583
-246
-581
-126
-113
-243
-165
-149
-185
-140
-116
-121
-89
-63
-52
-24
7
32
71
114
151
195
254
314
369
422
468
496
507
509
504
474
405
307
199
92
-11
-105
-181
-237
-276
-298
-305
-303
-301
-296
-290
-285
-277
-265
-262
-266
-261
-257
-265
-270
-268
-271
-276
-273
-272
-275
-270
-263
-260
-252
-242
-242
-249
-250
-253
-259
-253
-225
-184
-142
-113
-113
-142
-174
-176
-165
-172
-168
-157
-179
-174
-130
-189
-274
-54
712
2024
3025
2332
389
-641
-322
-65
-220
-219
-142
-183
-175
-120
-117
-108
-76
-56
-31
2
28
62
106
143
182
235
293
346
397
443
475
493
502
497
468
418
345
247
139
33
-67
-149
-205
-246
-274
-283
-281
-278
-277
-270
-260
-249
-244
-245
-247
-251
-253
-249
-245
-247
-253
-255
-253
-255
-257
-253
-245
-241
-245
-246
-240
-237
-245
-255
-249
-222
-178
-132
-108
-116
-147
-173
-174
-166
-172
-170
-162
-179
-167
-121
-182
-277
-84
656
1961
2985
2327
399
-643
-327
-59
-213
-218
-140
-180
-176
-124
-124
-117
-84
-65
-42
-2
28
52
84
125
172
220
271
326
377
415
443
466
481
479
457
410
335
239
137
40
-53
-135
-202
-250
-275
-287
-289
-280
-270
-269
-269
-260
-249
-251
-256
-252
-244
-247
-258
-262
-261
-263
-261
-261
-266
-266
-254
-245
-244
-243
-246
-254
-254
-243
-223
-182
-134
-120
-150
-187
-192
-178
-185
-190
-173
-177
-181
-151
-179
-253
-150
398
1627
2939
2696
742
-681
-500
-88
-191
-233
-137
-162
-172
-120
-114
-114
-83
-59
-31
7
31
53
86
124
168
216
264
318
377
419
431
440
460
467
446
400
332
243
143
42
-52
-131
-192
-233
-253
-266
-282
-285
-271
-256
-255
-254
-243
-237
-241
-245
-241
-238
-240
-246
-251
-253
-257
-257
-253
-253
-254
-247
-238
-235
-235
-241
-246
-240
-228
-212
-178
-139
-127
-145
-167
-171
-171
-179
-169
-149
-170
-169
-124
-174
-266
-98
601
1925
3050
2450
450
-681
-366
-63
-207
-212
-136
-178
-170
-122
-128
-115
-73
-53
-33
-1
20
45
87
131
173
219
274
329
371
406
443
469
474
466
444
399
324
227
122
21
-67
-140
-203
-247
-263
-267
-277
-281
-271
-260
-256
-252
-244
-239
-244
-247
-239
-238
-248
-252
-250
-253
-256
-250
-246
-252
-257
-252
-246
-239
-232
-226
-222
-221
-231
-242
-237
-221
-197
-161
-124
-112
-130
-155
-158
-153
-163
-153
-133
-156
-157
-108
-159
-249
-54
668
1951
3002
2394
457
-627
-313
-30
-190
-206
-126
-160
-154
-104
-103
-90
-55
-42
-23
11
42
77
114
141
177
234
292
343
392
436
468
484
488
484
467
423
350
254
149
47
-44
-124
-189
-232
-256
-270
-276
-270
-261
-256
-248
-241
-244
-244
-237
-238
-245
-243
-241
-250
-257
-254
-250
-253
-257
-254
-248
-246
-248
-242
-231
-227
-228
-220
-210
-211
-213
-203
-192
-197
-218
-229
-215
-188
-154
-111
-81
-87
-121
-144
-139
-138
-146
-133
-126
-146
-125
-105
-187
-201
164
1111
2438
2954
1677
-116
-579
-156
-86
-214
-149
-119
-156
-124
-100
-102
-71
-45
-35
-5
26
48
76
114
157
205
252
302
358
405
440
469
486
488
481
461
410
326
227
131
35
-60
-138
-194
-234
-257
-266
-270
-270
-263
-255
-253
-248
-243
-242
-242
-241
-243
-247
-244
-240
-244
-253
-259
-257
-254
-251
-249
-248
-248
-241
-231
-226
-222
-212
-204
-204
-203
-198
-195
-197
-207
-213
-201
-167
-120
-78
-64
-82
-111
-129
-129
-133
-140
-125
-116
-139
-122
-94
-172
-206
120
1012
2324
2956
1815
-21
-600
-169
-47
-194
-147
-99
-135
-107
-73
-77
-54
-25
-15
9
47
77
106
140
177
220
268
319
370
414
450
479
499
504
497
475
424
343
248
146
44
-46
-122
-189
-238
-261
-267
-265
-263
-264
-261
-251
-247
-250
-249
-244
-246
-255
-260
-262
-265
-266
-268
-269
-268
-271
-276
-272
-269
-270
-260
-248
-251
-257
-253
-248
-238
-224
-219
-224
-229
-241
-251
-236
-192
-145
-116
-108
-124
-157
-179
-172
-170
-185
-180
-170
-173
-144
-142
-230
-221
176
1194
2543
2865
1354
-372
-612
-151
-140
-245
-158
-156
-196
-141
-118
-134
-98
-58
-47
-22
15
38
64
107
147
177
222
284
337
376
412
442
462
469
463
442
395
318
226
130
26
-74
-144
-186
-220
-250
-269
-268
-251
-237
-242
-251
-241
-224
-221
-228
-223
-209
-208
-222
-231
-228
-229
-236
-233
-215
-205
-214
-223
-212
-194
-187
-192
-197
-193
-179
-151
-118
-93
-72
-63
-87
-124
-132
-121
-120
-111
-99
-115
-103
-69
-121
-169
44
785
2151
3145
2229
103
-829
-339
-30
-160
-121
-40
-84
-71
-26
-26
-5
30
42
64
99
126
158
190
220
261
309
354
402
451
487
510
522
518
500
467
409
320
216
114
15
-78
-158
-221
-267
-293
-300
-296
-294
-304
-312
-305
-295
-293
-296
-297
-300
-306
-309
-310
-319
-327
-328
-337
-357
-366
-360
-356
-362
-367
-360
-355
-371
-387
-379
-369
-364
-334
-291
-277
-297
-324
-338
-339
-342
-335
-318
-334
-335
-290
-334
-430
-284
355
1621
2855
2487
519
-798
-568
-214
-349
-371
-275
-313
-316
-253
-244
-236
-196
-168
-135
-95
-67
-37
10
62
116
175
239
305
374
436
484
512
530
544
539
499
425
329
227
131
43
-29
-79
-109
-122
-120
-107
-89
-68
-43
-18
4
22
41
63
89
