# session 17
-78
-94
-60
-41
-149
-310
-353
-312
-304
-316
-311
-321
-349
-369
-378
-382
-379
-367
-344
-325
-319
-313
-301
-290
-291
-301
-302
-279
-242
-209
-175
-157
-174
-197
-211
-227
-220
-211
-240
-220
-179
-293
-380
-38
944
2525
3623
2618
241
-939
-590
-333
-452
-371
-255
-275
-246
-195
-188
-134
-39
38
124
248
403
588
781
936
1016
1014
945
823
663
489
326
183
55
-64
-168
-250
-311
-353
-371
-364
-347
-334
-331
-332
-333
-330
-328
-332
-338
-339
-339
-341
-340
-331
-323
-318
-310
-301
-298
-293
-282
-270
-261
-257
-258
-265
-274
-280
-267
-223
-169
-130
-110
-117
-148
-174
-190
-205
-200
-208
-242
-214
-195
-328
-373
52
1117
2646
3406
2093
-115
-935
-526
-359
-466
-378
-301
-314
-260
-200
-173
-112
-38
31
132
274
452
658
856
1002
1076
1069
1000
887
725
534
364
224
90
-41
-152
-244
-319
-367
-381
-373
-363
-359
-358
-359
-356
-343
-325
-311
-303
-305
-315
-322
-325
-328
-330
-326
-313
-291
-279
-283
-282
-265
-249
-242
-238
-238
-239
-240
-242
-251
-253
-237
-216
-193
-164
-159
-201
-242
-255
-266
-258
-244
-264
-241
-189
-283
-372
-80
811
2345
3545
2690
288
-1025
-685
-347
-458
-406
-286
-307
-280
-195
-151
-106
-40
27
124
254
401
569
748
901
994
1012
963
867
738
584
435
305
187
68
-45
-144
-220
-279
-317
-322
-302
-288
-295
-302
-299
-302
-320
-334
-339
-338
-332
-334
-352
-356
-345
-357
-380
-377
-359
-346
-333
-318
-314
-323
-321
-296
-281
-293
-297
-282
-266
-244
-205
-166
-150
-163
-180
-182
-195
-214
-203
-210
-225
-170
-177
-302
-231
319
1552
3171
3477
1480
-694
-966
-414
-394
-457
-308
-291
-312
-228
-181
-151
-67
5
69
188
344
517
712
888
1000
1058
1056
966
815
661
510
340
172
49
-47
-149
-242
-300
-335
-356
-347
-323
-307
-300
-308
-321
-307
-289
-310
-333
-329
-331
-338
-331
-340
-367
-371
-355
-345
-337
-323
-311
-304
-296
-289
-281
-271
-261
-254
-262
-281
-264
-201
-156
-150
-145
-142
-156
-166
-180
-200
-184
-169
-191
-164
-144
-264
-269
266
1479
2889
3113
1403
-568
-952
-447
-334
-412
-314
-263
-276
-236
-198
-167
-99
-21
69
188
328
497
701
899
1045
1110
1095
1018
885
698
502
343
211
78
-52
-167
-250
-296
-330
-363
-377
-361
-332
-315
-313
-310
-305
-307
-306
-300
-312
-336
-340
-332
-343
-352
-343
-344
-362
-366
-348
-338
-341
-329
-309
-309
-317
-303
-283
-275
-273
-275
-278
-265
-253
-263
-274
-261
-232
-203
-171
-138
-129
-155
-173
-168
-182
-190
-164
-172
-185
-118
-137
-295
-200
479
1805
3291
3395
1431
-557
-792
-325
-341
-408
-277
-262
-282
-203
-150
-124
-58
18
103
221
361
530
731
923
1057
1114
1100
1032
924
776
607
451
316
182
51
-49
-115
-172
-232
-274
-274
-252
-240
-236
-223
-204
-198
-207
-216
-221
-225
-231
-238
-246
-253
-252
-247
-247
-247
-241
-236
-232
-219
-209
-211
-205
-189
-180
-180
-173
-164
-161
-156
-148
-143
-139
-133
-128
-126
-121
-115
-114
-112
-109
-107
-106
-104
-103
-104
-101
-94
-92
-93
-88
-79
-79
-86
-92
-96
-99
-99
-97
-95
-96
-97
-95
-94
-93
-91
-89
-88
-84
-77
-75
-77
-79
-82
-80
-74
-70
-72
-72
-66
-64
-66
-65
-65
-65
-69
-81
-89
-75
-50
-26
6
28
17
-6
-24
-51
-55
-44
-79
-82
-29
-121
-255
18
905
2367
3661
3193
971
-635
-582
-276
-409
-424
-314
-330
-319
-247
-222
-190
-120
-62
-1
94
210
352
522
676
777
834
850
814
734
635
520
394
276
178
84
-14
-108
-193
-260
-295
-306
-308
-303
-296
-293
-292
-288
-288
-290
-292
-299
-310
-318
-320
-324
-326
-325
-327
-333
-330
-320
-315
-316
-312
-301
-291
-284
-278
-269
-257
-245
-236
-228
-222
-223
-223
-215
-207
-198
-186
-175
-171
-169
-166
-162
-155
-150
-145
-138
-130
-124
-121
-117
-113
-110
-108
-102
-94
-91
-96
-106
-118
-115
-91
-57
-22
7
7
-17
-39
-61
-76
-59
-60
-92
-61
-51
-182
-190
277
1373
2894
3560
2162
4
-740
-372
-276
-393
-313
-270
-299
-236
-167
-147
-98
-31
24
99
200
321
477
655
808
909
953
942
880
773
636
494
361
245
139
24
-98
-194
-254
-296
-325
-333
-326
-312
-307
-315
-320
-313
-310
-317
-327
-328
-318
-311
-322
-340
-351
-356
-359
-352
-341
-343
-347
-332
-305
-293
-299
-303
-293
-278
-268
-269
-268
-251
-234
-238
-239
-226
-232
-255
-258
-239
-217
-180
-131
-107
-123
-140
-151
-174
-176
-165
-202
-208
-148
-202
-299
-94
646
2099
3527
3046
650
-975
-754
-328
-430
-421
-295
-307
-282
-203
-181
-142
-72
-32
28
157
306
447
617
813
957
1008
1010
969
848
673
516
385
245
102
-4
-80
-173
-259
-291
-293
-299
-296
-285
-290
-304
-309
-307
-300
-296
-306
-322
-330
-328
-339
-369
-393
-399
-398
-391
-369
-350
-347
-351
-342
-324
-314
-309
-306
-322
-343
-319
-263
-216
-178
-155
-176
-206
-202
-192
-191
-186
-190
-167
-148
-253
-341
-72
758
2185
3333
2571
257
-1088
-759
-365
-455
-395
-246
-277
-293
-221
-176
-133
-46
43
119
216
363
555
753
934
1081
1150
1126
1040
910
740
556
381
224
90
-33
-153
-246
-296
-321
-334
-333
-320
-310
-304
-289
-279
-283
-281
-272
-279
-290
-291
-304
-322
-311
-295
-309
-329
-325
-314
-305
-291
-281
-280
-278
-273
-279
-289
-280
-252
-227
-216
-209
-211
-228
-247
-275
-302
-285
-266
-307
-300
-229
-297
-396
-98
840
2300
3286
2355
102
-1076
-715
-376
-481
-444
-337
-350
-324
-274
-271
-231
-159
-99
-4
133
281
458
667
865
1014
1089
1075
987
850
692
532
362
194
48
-74
-175
-242
-286
-317
-328
-322
-312
-295
-270
-254
-250
-251
-251
-255
-256
-257
-267
-276
-269
-267
-280
-288
-289
-289
-284
-276
-266
-252
-247
-262
-255
-208
-174
-187
-206
-198
-184
-193
-202
-182
-146
-122
-105
-81
-76
-99
-118
-126
-139
-138
-132
-154
-149
-175
-357
-445
-37
1002
2533
3467
2341
1
-1087
-723
-496
-635
-574
-476
-501
-465
-389
-342
-266
-181
-113
-6
151
327
529
753
952
1091
1153
1138
1065
950
799
635
480
340
217
109
7
-80
-139
-172
-186
-182
-171
-160
-147
-131
-122
-121
-123
-127
-135
-146
-154
-161
-174
-185
-184
-178
-182
-197
-205
-205
-201
-194
-186
-185
-183
-169
-150
-138
-127
-118
-122
-140
-157
-168
-188
-219
-249
-266
-274
-280
-284
-284
-283
-278
-269
-256
-242
-228
-223
-231
-236
-228
-219
-216
-215
-211
-209
-214
-220
-219
-211
-204
-203
-199
-192
-187
-181
-170
-154
-137
-124
-121
-131
-146
-136
-80
-7
30
24
7
1
9
4
-22
-16
5
-22
-11
41
-69
-202
102
1043
2562
3811
3180
890
-605
-464
-173
-305
-296
-194
-220
-202
-127
-100
-64
3
54
115
204
310
444
609
772
904
986
1000
947
861
762
641
504
378
262
141
27
-64
-137
-198
-240
-270
-292
-307
-312
-312
-314
-318
-319
-318
-318
-320
-326
-335
-340
-337
-337
-339
-333
-327
-330
-337
-336
-334
-329
-317
-306
-303
-299
-292
-285
-277
-269
-264
-260
-256
-257
-263
-263
-257
-249
-242
-236
-231
-227
-223
-220
-217
-211
-207
-204
-200
-193
-187
-183
-179
-168
-155
-147
-148
-150
-148
-142
-137
-142
-155
-151
-111
-58
-28
-19
-20
-30
-38
-46
-63
-54
-37
-71
-82
-51
-146
-256
8
845
2262
3495
2959
772
-711
-590
-284
-409
-412
-303
-312
-286
-206
-178
-145
-73
-8
56
149
264
398
554
716
863
971
1016
992
914
813
698
570
439
317
204
94
-12
-103
-172
-216
-244
-263
-263
-240
-234
-261
-278
-272
-275
-287
-289
-289
-291
-293
-306
-326
-324
-313
-328
-355
-364
-362
-362
-351
-331
-327
-330
-322
-308
-299
-291
-288
-293
-296
-295
-290
-282
-273
-266
-259
-249
-241
-237
-230
-221
-218
-214
-208
-218
-223
-191
-148
-124
-101
-83
-95
-101
-87
-99
-113
-94
-98
-87
-37
-97
-189
26
782
2240
3659
3178
795
-832
-633
-227
-335
-322
-189
-196
-179
-118
-97
-47
21
57
119
226
337
463
622
797
954
1064
1106
1079
998
884
746
598
463
330
181
42
-57
-132
-204
-251
-262
-258
-257
-258
-262
-276
-286
-284
-287
-306
-324
-336
-351
-367
-384
-396
-401
-409
-426
-440
-449
-453
-447
-436
-436
-443
-446
-442
-435
-428
-420
-410
-408
-419
-432
-435
-436
-439
-434
-415
-405
-417
-427
-431
-451
-454
-435
-457
-458
-398
-461
-585
-387
373
1823
3282
2925
589
-1144
-1032
-614
-717
-727
-598
-605
-598
-539
-518
-484
-432
-334
-90
217
450
650
882
1105
1282
1402
1445
1414
1330
1201
1036
868
713
568
430
302
194
108
41
-4
-24
-27
-30
-34
-31
-32
-44
-58
-67
-78
-93
-107
-121
-136
-151
-165
-177
-188
-201
-211
-217
-222
-225
-226
-229
-231
-231
-231
-233
-234
-239
-252
-269
-275
-254
-217
-187
-167
-158
-177
-205
-216
-231
-239
-221
-236
-262
-215
-242
-395
-314
296
1534
3025
3253
1401
-605
-919
-478
-482
-556
-438
-422
-435
-362
-321
-303
-242
-180
-120
-31
75
200
363
546
713
834
890
882
822
717
574
418
272
134
4
-115
-218
-299
-356
-395
-414
-414
-400
-384
-372
-363
-355
-349
-347
-345
-343
-342
-344
-346
-346
-345
-343
-341
-339
-338
-333
-324
-316
-307
-295
-283
-272
-259
-248
-240
-231
-221
-210
-203
-204
-212
-223
-224
-196
-147
-102
-73
-59
-74
-102
-111
-116
-124
-110
-113
-134
-91
-86
-220
-208
288
1407
2901
3440
1924
-179
-781
-366
-282
-380
-282
-242
-269
-210
-157
-145
-97
-32
25
100
200
323
466
625
788
919
975
969
935
866
746
602
464
338
215
93
-26
-126
-194
-239
-273
-287
-280
-273
-277
-275
-263
-257
-261
-272
-291
-305
-301
-291
-297
-313
-310
-300
-304
-317
-320
-314
-308
-305
-305
-299
-283
-269
-265
-263
-261
-258
-255
-255
-250
-239
-237
-236
-216
-203
-219
-234
-224
-212
-200
-163
-112
-91
-118
-146
-146
-157
-175
-151
-148
-187
-152
-129
-257
-263
182
1248
2844
3627
2144
-229
-1006
-513
-349
-454
-345
-281
-311
-263
-223
-211
-151
-88
-38
45
144
246
384
550
708
846
933
940
902
848
754
613
470
346
226
104
-15
-122
-203
-250
-266
-265
-265
-270
-268
-264
-264
-261
-266
-292
-310
-303
-302
-330
-353
-346
-338
-354
-372
-368
-357
-352
-346
-340
-338
-329
-315
-306
-300
-291
-282
-275
-265
-252
-246
-251
-258
-258
-246
-218
-177
-132
-103
-110
-140
-157
-164
-178
-166
-148
-180
-176
-116
-188
-301
-82
693
2157
3592
3152
782
-884
-716
-312
-423
-410
-277
-303
-300
-224
-202
-175
-108
-51
15
108
210
333
499
681
839
947
992
973
902
793
655
506
365
236
113
-6
-109
-188
-246
-285
-301
-299
-289
-279
-271
-268
-269
-269
-268
-270
-274
-280
-289
-299
-307
-312
-316
-320
-319
-318
-317
-314
-307
-299
-292
-284
-278
-271
-261
-252
-248
-244
-238
-234
-230
-223
-215
-208
-203
-198
-192
-186
-183
-180
-176
-177
-186
-197
-199
-182
-146
-105
-70
-52
-64
-93
-107
-114
-125
-112
-104
-132
-106
-72
-190
-258
112
1107
2648
3645
2597
307
-796
-481
-272
-403
-348
-264
-290
-252
-190
-173
-131
-69
-20
47
140
243
372
534
702
850
949
986
970
913
816
689
552
422
297
177
62
-40
-125
-192
-237
-259
-263
-258
-250
-243
-241
-239
-234
-231
-235
-239
-243
-251
-256
-256
-256
-262
-266
-265
-263
-262
-259
-252
-246
-240
-234
-226
-218
-211
-204
-197
-190
-186
-181
-177
-172
-168
-163
-156
-152
-149
-145
-139
-137
-136
-134
-128
-121
-117
-118
-116
-111
-105
-102
-100
-100
-101
-98
-90
-85
-85
-83
-78
-74
-72
-69
-67
-67
-65
-60
-60
-64
-67
-67
-64
-62
-65
-68
-69
-73
-83
-88
-83
-63
-29
-1
9
2
-17
-36
-47
-70
-87
-65
-66
-105
-74
-61
-199
-214
253
1346
2868
3554
2160
-26
-783
-401
-303
-429
-345
-289
-317
-269
-223
-211
-158
-95
-56
2
84
177
291
432
581
714
813
867
873
831
761
679
575
457
354
254
137
26
-70
-165
-236
-257
-256
-263
-269
-271
-279
-283
-268
-261
-276
-290
-294
-308
-319
-322
-338
-354
-341
-328
-344
-359
-352
-343
-340
-329
-313
-304
-301
-302
-303
-293
-274
-259
-254
-242
-224
-224
-233
-220
-204
-209
-210
-197
-196
-194
-177
-168
-167
-159
-155
-157
-154
-151
-145
-125
-117
-127
-126
-120
-128
-124
-93
-62
-33
-3
-8
-43
-64
-71
-73
-57
-67
-102
-64
-34
-154
-187
217
1265
2850
3665
2270
-70
-900
-436
-267
-381
-274
-203
-245
-203
-145
-128
-79
-20
22
85
168
256
373
522
677
816
924
976
963
902
814
697
553
411
290
179
66
-41
-132
-198
-241
-259
-260
-258
-257
-255
-255
-259
-263
-268
-276
-282
-288
-298
-309
-320
-332
-343
-350
-354
-356
-356
-357
-356
-351
-344
-338
-333
-329
-324
-315
-308
-304
-299
-293
-288
-285
-279
-272
-271
-267
-260
-258
-264
-273
-274
-254
-215
-174
-142
-129
-148
-175
-187
-200
-203
-182
-196
-216
-165
-194
-339
-241
380
1623
3100
3283
1403
-571
-845
-409
-427
-496
-371
-351
-365
-295
-252
-230
-170
-112
-59
19
110
219
362
534
713
868
969
1006
986
915
801
657
505
363
232
104
-17
-116
-189
-246
-288
-308
-305
-291
-275
-261
-251
-243
-234
-226
-219
-211
-203
-202
-205
-207
-204
-199
-194
-189
-183
-177
-170
-160
-145
-130
-115
-99
-86
-77
-70
-60
-50
-41
-35
-31
