# session 20
-46
-34
-66
58
284
303
140
29
-44
-162
-265
-314
-349
-370
-361
-345
-344
-348
-338
-325
-320
-314
-305
-305
-312
-318
-322
-324
-323
-322
-320
-318
-316
-306
-295
-303
-319
-309
-280
-257
-235
-197
-166
-174
-201
-202
-186
-194
-193
-169
-182
-190
-144
-177
-266
-131
513
1866
3212
2798
621
-853
-627
-222
-324
-322
-209
-236
-234
-175
-164
-136
-80
-51
-17
38
92
151
218
286
379
488
573
639
692
705
680
651
610
527
417
310
203
90
-8
-87
-154
-190
-192
-197
-217
-227
-226
-228
-228
-227
-239
-247
-247
-262
-281
-278
-279
-302
-317
-321
-327
-318
-297
-302
-314
-282
-231
-222
-254
-278
-269
-258
-260
-250
-251
-269
-239
-225
-306
-283
116
1157
2729
3356
1735
-508
-1036
-468
-355
-466
-341
-296
-341
-279
-230
-238
-204
-153
-116
-60
3
60
127
200
289
400
508
595
660
682
660
620
564
477
369
255
137
23
-83
-177
-240
-273
-295
-311
-315
-307
-297
-294
-289
-284
-303
-329
-322
-306
-329
-355
-341
-333
-357
-364
-340
-343
-366
-347
-288
-248
-258
-296
-311
-304
-303
-285
-264
-292
-283
-225
-288
-362
-88
768
2261
3436
2586
224
-1016
-616
-283
-432
-405
-309
-342
-311
-244
-242
-219
-162
-122
-78
-18
48
118
194
291
416
536
627
701
754
762
726
659
559
435
311
190
62
-62
-169
-252
-297
-310
-323
-339
-333
-304
-293
-317
-332
-312
-292
-297
-310
-322
-332
-342
-354
-358
-341
-332
-341
-332
-289
-269
-296
-321
-311
-312
-320
-289
-277
-302
-263
-246
-357
-325
169
1300
2865
3435
1815
-371
-898
-408
-357
-483
-367
-321
-355
-309
-275
-261
-206
-164
-140
-83
-10
63
148
242
344
462
574
659
717
738
721
687
626
513
381
264
138
-3
-113
-189
-255
-300
-315
-323
-330
-321
-307
-306
-308
-300
-302
-319
-325
-316
-316
-324
-323
-325
-339
-344
-337
-338
-330
-291
-256
-258
-281
-293
-285
-283
-277
-252
-264
-289
-229
-218
-361
-346
159
1359
3033
3611
1891
-332
-830
-361
-346
-469
-365
-347
-379
-311
-270
-266
-223
-182
-152
-98
-36
31
115
208
313
437
547
621
667
688
677
643
579
479
368
262
145
18
-95
-184
-252
-296
-313
-318
-320
-317
-313
-307
-299
-295
-301
-303
-299
-299
-306
-313
-319
-321
-322
-325
-331
-341
-349
-344
-330
-318
-290
-244
-214
-218
-239
-249
-241
-242
-244
-219
-224
-248
-198
-199
-348
-334
194
1427
3067
3543
1794
-344
-774
-314
-314
-437
-331
-304
-334
-278
-243
-237
-192
-144
-110
-61
-4
60
139
227
326
437
543
624
671
685
676
644
583
493
384
269
154
40
-69
-161
-229
-272
-296
-306
-307
-301
-292
-287
-286
-285
-282
-282
-283
-287
-294
-300
-303
-304
-308
-309
-307
-308
-313
-311
-302
-303
-315
-315
-297
-273
-243
-201
-171
-178
-205
-213
-205
-212
-211
-187
-201
-217
-160
-185
-339
-261
371
1649
3099
3202
1344
-489
-675
-259
-310
-394
-293
-288
-301
-238
-214
-203
-153
-114
-83
-29
27
83
158
245
340
444
544
617
660
677
668
636
577
490
386
280
172
61
-46
-131
-194
-239
-264
-272
-273
-272
-269
-269
-269
-266
-263
-267
-270
-271
-275
-278
-280
-286
-291
-290
-289
-292
-293
-292
-290
-284
-275
-271
-281
-296
-296
-274
-243
-207
-169
-147
-161
-188
-190
-185
-195
-186
-168
-191
-185
-138
-216
-327
-91
735
2125
3215
2548
481
-733
-492
-213
-349
-345
-257
-289
-283
-225
-207
-183
-141
-112
-72
-19
28
86
163
244
332
430
516
579
616
619
594
558
509
432
335
236
140
41
-51
-130
-192
-233
-254
-262
-259
-253
-253
-255
-253
-255
-261
-261
-261
-266
-270
-271
-277
-290
-304
-308
-301
-297
-300
-295
-288
-287
-290
-293
-291
-281
-265
-234
-185
-152
-165
-195
-205
-201
-210
-207
-183
-192
-197
-151
-190
-309
-212
373
1666
3128
3025
964
-731
-676
-233
-326
-383
-268
-273
-282
-223
-203
-189
-138
-90
-58
-24
25
94
163
226
303
395
489
572
621
632
622
595
547
479
396
298
193
84
-20
-102
-165
-209
-230
-239
-250
-256
-252
-243
-234
-237
-254
-269
-267
-265
-281
-305
-306
-291
-296
-313
-314
-313
-329
-329
-309
-307
-315
-310
-294
-259
-202
-182
-216
-235
-215
-217
-247
-234
-199
-218
-211
-165
-237
-329
-108
687
2183
3446
2683
307
-999
-608
-245
-387
-363
-262
-299
-264
-189
-202
-194
-132
-95
-62
0
54
100
179
282
376
458
535
596
632
638
613
564
496
411
317
213
95
-15
-103
-179
-236
-264
-272
-272
-269
-268
-264
-260
-265
-265
-261
-270
-287
-287
-282
-293
-307
-309
-309
-310
-305
-305
-312
-313
-311
-311
-301
-287
-276
-249
-205
-181
-194
-215
-215
-216
-229
-215
-201
-227
-204
-162
-267
-346
-32
906
2468
3530
2467
131
-905
-477
-254
-417
-355
-268
-313
-286
-226
-220
-191
-141
-108
-66
-9
48
114
191
278
381
490
581
642
675
676
650
604
533
435
325
216
104
-4
-100
-181
-242
-273
-283
-285
-283
-277
-273
-269
-265
-264
-267
-271
-273
-274
-280
-291
-297
-298
-301
-307
-308
-306
-305
-303
-303
-310
-316
-309
-293
-275
-241
-196
-169
-179
-210
-223
-213
-217
-219
-196
-209
-226
-169
-197
-347
-263
358
1637
3125
3245
1343
-524
-692
-261
-320
-402
-293
-292
-312
-249
-223
-215
-168
-127
-95
-42
15
72
141
228
330
441
543
625
680
703
695
663
607
520
411
298
185
69
-41
-134
-206
-255
-281
-290
-293
-293
-291
-286
-283
-280
-277
-276
-278
-280
-281
-284
-288
-292
-297
-298
-298
-299
-301
-296
-288
-282
-278
-270
-266
-273
-282
-279
-261
-235
-202
-164
-139
-150
-181
-189
-179
-186
-185
-165
-185
-189
-136
-195
-323
-139
599
1908
3145
2822
837
-646
-562
-210
-318
-353
-256
-275
-276
-215
-199
-184
-140
-107
-70
-16
33
87
160
242
335
437
529
596
637
650
639
609
555
474
378
276
168
59
-39
-124
-195
-241
-261
-270
-272
-268
-262
-258
-254
-251
-251
-251
-248
-250
-256
-262
-266
-271
-275
-280
-286
-288
-284
-282
-286
-283
-265
-251
-262
-284
-291
-276
-256
-231
-189
-147
-139
-167
-187
-182
-180
-190
-175
-162
-186
-168
-141
-250
-329
-16
902
2342
3238
2222
123
-803
-431
-223
-362
-327
-259
-285
-250
-201
-203
-180
-132
-96
-57
-12
34
95
169
246
328
415
498
562
596
610
610
583
525
446
352
252
155
53
-54
-142
-192
-217
-241
-262
-268
-262
-252
-248
-256
-264
-263
-263
-265
-268
-281
-298
-301
-298
-296
-298
-313
-326
-320
-310
-313
-312
-306
-296
-258
-206
-195
-218
-224
-216
-233
-255
-230
-206
-235
-225
-170
-227
-308
-118
589
2017
3351
2751
429
-966
-630
-249
-387
-369
-258
-298
-277
-199
-205
-195
-121
-79
-69
-27
39
97
158
243
342
438
522
578
601
612
613
585
528
452
352
228
115
29
-60
-157
-218
-238
-253
-262
-261
-261
-259
-257
-264
-274
-279
-282
-277
-273
-291
-311
-311
-307
-318
-334
-335
-322
-318
-328
-327
-315
-303
-274
-224
-206
-236
-261
-258
-263
-266
-235
-224
-239
-195
-190
-308
-287
197
1376
2949
3323
1505
-583
-895
-352
-318
-416
-289
-256
-286
-226
-188
-190
-157
-110
-73
-25
34
91
153
245
357
448
520
604
680
706
690
661
614
525
399
273
157
40
-67
-146
-209
-259
-284
-288
-290
-291
-286
-283
-285
-284
-284
-291
-292
-286
-298
-323
-331
-328
-332
-337
-339
-348
-350
-335
-326
-322
-300
-264
-239
-240
-261
-272
-272
-283
-271
-238
-251
-247
-201
-269
-357
-121
683
2177
3482
2807
455
-928
-612
-261
-398
-379
-286
-336
-322
-248
-232
-202
-149
-128
-102
-40
27
91
166
252
350
459
559
629
668
679
660
616
543
440
327
222
107
-15
-112
-179
-240
-288
-304
-296
-294
-298
-290
-272
-265
-270
-274
-279
-287
-289
-290
-299
-308
-309
-310
-319
-333
-343
-335
-319
-314
-300
-260
-224
-219
-236
-251
-247
-250
-266
-245
-219
-243
-229
-202
-318
-385
-23
990
2606
3621
2456
105
-881
-464
-278
-435
-369
-298
-348
-317
-262
-254
-218
-167
-141
-105
-51
9
83
171
266
370
478
571
638
672
675
653
608
537
438
320
200
86
-22
-123
-207
-265
-296
-309
-312
-312
-307
-298
-294
-293
-289
-284
-285
-287
-287
-290
-298
-301
-302
-305
-307
-304
-300
-299
-300
-305
-309
-304
-288
-266
-227
-184
-162
-172
-195
-201
-190
-196
-199
-177
-190
-205
-146
-173
-327
-235
406
1689
3163
3290
1407
-469
-662
-237
-293
-379
-273
-271
-290
-229
-204
-197
-153
-115
-84
-35
18
73
144
230
325
426
525
609
663
683
679
654
600
515
412
302
187
68
-43
-137
-208
-256
-285
-299
-303
-303
-302
-299
-295
-292
-290
-289
-289
-289
-293
-298
-301
-304
-307
-310
-309
-308
-305
-303
-298
-291
-285
-280
-274
-268
-259
-254
-261
-275
-274
-254
-225
-190
-150
-128
-141
-169
-175
-167
-176
-173
-150
-171
-177
-121
-175
-301
-108
637
1915
3102
2780
847
-605
-528
-183
-290
-329
-232
-247
-251
-192
-176
-164
-124
-90
-53
-2
44
96
166
244
329
424
514
584
628
646
642
618
571
500
410
310
208
105
4
-87
-157
-205
-233
-246
-249
-250
-249
-245
-246
-248
-245
-238
-239
-249
-257
-262
-268
-270
-270
-272
-275
-277
-280
-283
-278
-266
-256
-250
-243
-236
-236
-236
-231
-220
-218
-235
-250
-240
-213
-182
-139
-100
-99
-129
-149
-150
-161
-171
-149
-141
-162
-129
-118
-238
-236
224
1281
2682
3179
1747
-217
-735
-303
-237
-365
-283
-239
-269
-230
-199
-201
-163
-114
-94
-67
-11
49
101
161
239
327
415
493
558
605
617
598
574
535
458
369
284
175
50
-51
-125
-190
-241
-270
-277
-264
-257
-270
-269
-257
-259
-263
-258
-269
-290
-290
-283
-292
-298
-299
-310
-319
-312
-307
-313
-311
-308
-317
-318
-296
-279
-264
-232
-208
-205
-198
-194
-204
-221
-232
-218
-208
-227
-198
-155
-241
-305
-29
840
2371
3443
2370
7
-1002
-512
-253
-393
-300
-208
-269
-247
-196
-189
-137
-93
-92
-47
33
86
138
205
271
357
465
561
633
676
680
646
592
533
462
353
218
106
16
-80
-167
-226
-264
-283
-283
-275
-277
-291
-297
-282
-271
-283
-295
-293
-296
-309
-308
-300
-312
-334
-338
-324
-315
-328
-350
-338
-302
-294
-295
-259
-231
-240
-249
-242
-232
-233
-242
-233
-231
-253
-220
-186
-281
-308
83
1103
2586
3262
1862
-328
-1002
-457
-264
-397
-313
-230
-253
-218
-189
-198
-149
-88
-73
-29
56
107
145
233
340
433
541
651
719
748
745
712
664
588
468
332
205
77
-43
-134
-202
-263
-303
-308
-295
-291
-293
-293
-297
-295
-282
-281
-287
-281
-280
-290
-296
-307
-324
-318
-305
-318
-332
-317
-306
-320
-316
-275
-245
-246
-252
-258
-263
-270
-276
-256
-241
-274
-261
-201
-271
-350
-32
941
2444
3332
2201
-25
-958
-508
-258
-394
-355
-293
-325
-279
-224
-221
-179
-130
-116
-79
-11
43
100
194
306
414
524
630
701
730
741
732
680
591
482
359
229
91
-46
-155
-225
-278
-311
-317
-322
-337
-336
-312
-296
-306
-313
-297
-282
-289
-307
-318
-323
-324
-320
-318
-330
-342
-329
-318
-339
-351
-322
-296
-294
-278
-241
-214
-221
-244
-244
-238
-254
-248
-228
-241
-208
-170
-301
-373
22
1037
2575
3566
2481
155
-886
-464
-231
-395
-348
-266
-313
-290
-226
-211
-188
-147
-112
-69
-17
38
107
193
291
391
496
603
682
716
718
704
667
594
488
375
264
142
15
-89
-163
-222
-269
-295
-303
-304
-298
-287
-282
-281
-274
-273
-280
-275
-264
-275
-295
-297
-293
-302
-306
-297
-296
-305
-306
-299
-292
-283
-271
-271
-283
-284
-265
-245
-232
-209
-174
-150
-161
-186
-185
-180
-195
-180
-155
-183
-173
-131
-237
-310
48
993
2465
3498
2566
317
-792
-432
-195
-360
-328
-245
-283
-254
-195
-195
-174
-128
-100
-63
-10
44
106
183
268
364
466
564
642
685
691
678
648
587
494
386
272
152
35
-72
-166
-236
-281
-307
-317
-317
-315
-313
-310
-309
-308
-305
-304
-306
-309
-312
-320
-325
-326
-329
-336
-341
-345
-347
-344
-339
-334
-331
-328
-331
-341
-343
-331
-311
-284
-246
-214
-209
-229
-247
-243
-240
-250
-235
-222
-245
-218
-187
-309
-366
33
1048
2521
3347
2207
71
-798
-416
-253
-397
-343
-283
-320
-282
-230
-228
-197
-147
-116
-77
-26
26
92
170
254
349
457
556
624
663
678
668
634
573
484
378
269
160
51
-52
-134
-192
-231
-252
-257
-256
-253
-247
-240
-233
-225
-220
-219
-216
-214
-215
-216
-215
-215
-215
-215
-214
-210
-209
-208
-202
-193
-185
-176
-168
-168
-178
-184
-174
-152
-119
-80
-47
-39
-62
-85
-80
-76
-86
-72
-63
-88
-62
-37
-153
-192
221
1239
2643
3299
2069
61
-650
-254
-124
-259
-203
-155
-193
-161
-120
-116
-87
-52
-33
5
56
103
156
222
298
385
468
538
597
633
633
612
581
525
431
322
219
114
0
-109
-198
-262
-304
-330
-345
-356
-356
-351
-354
-363
-366
-369
-380
-389
-393
-401
-417
-433
-440
-434
-434
-452
-470
-470
-457
-448
-451
-457
-455
-452
-464
-475
-467
-448
-429
-398
-359
-339
-354
-383
-389
-382
-387
-381
-371
-382
-358
-331
-429
-484
-163
763
2256
3186
2083
-117
-1012
-567
-351
-489
-422
-342
-374
-324
-255
-252
-225
-166
-121
-78
-18
48
115
188
279
380
479
573
657
715
743
749
742
713
659
585
500
414
336
257
183
137
115
98
98
116
138
158
177
190
