# session 3
-488
-172
-1004
372
3455
3921
2524
1760
1672
3641
5751
2247
-3154
-1912
2013
652
-2557
-2051
-153
531
1173
2623
6346
11523
9334
-2654
-8870
-884
6780
4390
538
328
-529
-2766
-4024
-4378
-4385
-4311
-4632
-4840
-4869
-5720
-6498
-6148
-6368
-6396
-4057
-4338
-9037
-6980
3956
9193
5582
3763
4721
3461
1585
1597
3379
6081
7358
6695
7147
10314
15009
19829
22995
22412
17653
10964
6192
5006
4424
1461
-2044
-3499
-3975
-4841
-5495
-5629
-5385
-5258
-6287
-7197
-6688
-7333
-8191
-4950
-2544
-5980
-7079
-3145
-3745
-7934
-7458
-5376
-5472
-3235
1520
4186
4898
4785
2168
-1969
-3970
-3359
-3097
-4870
-7019
-7535
-6813
-5877
-4753
-3734
-3417
-3563
-3675
-3712
-3570
-3129
-2729
-2403
-1660
-1087
-1600
-1871
-150
3106
6942
10184
10437
7239
3304
1006
810
1501
1103
-165
-353
613
1879
3962
7192
10871
14476
17139
17240
14682
11493
8636
5436
2614
1408
1139
816
-411
-2569
-2962
-2549
-5362
-5408
38
-4944
-19581
-16940
791
4436
-4018
-4641
-952
-1148
-215
2703
2645
595
-278
-584
-1619
-3011
-4110
-5009
-5934
-6571
-6687
-6423
-5713
-4780
-4282
-4027
-3485
-3137
-3116
-2664
-2170
-2097
-1534
-1258
-2295
-2487
-3452
-9597
-13652
-5976
5118
8313
7587
7761
6168
3263
1887
1055
-662
-2405
-2843
-1540
494
1782
2254
3148
4950
6268
5990
5968
8272
9538
4221
-4405
-5870
990
5330
1775
-2197
1602
11253
17050
14149
9398
8603
7311
2926
-72
-314
105
974
1514
446
-1103
-2070
-2913
-3756
-4605
-5568
-6166
-6364
-6608
-6630
-6291
-5960
-5447
-4854
-4401
-2440
1821
5477
6502
6328
5601
3330
-320
-4126
-6580
-6418
-4277
-2259
-1432
-1205
-711
35
349
73
-214
-236
-106
246
659
615
40
-530
-451
130
-149
-1959
-3871
-4418
-3990
-4022
-4806
-4879
-4414
-5168
-4492
1484
9202
12129
8064
-499
-4597
2412
9513
3618
-5163
-1838
7416
11250
9686
4515
-2150
-4894
-3908
-3454
-3383
-2981
-2727
-1919
-2082
-2563
2349
9036
7108
1543
3558
8204
7782
6802
7590
5287
675
-1488
-1898
-2946
-3684
-3493
-3470
-3465
-2848
-2177
-1309
77
245
-1434
-2882
-3534
-3736
-3267
-4163
-5016
776
9095
7661
-420
-3109
-1508
-1758
-2358
-1871
-2033
-2496
-2446
-2560
-2873
-3025
-3153
-3134
-2842
-2447
-1800
-786
117
550
744
898
816
439
22
-491
-1383
-2392
-3084
-3667
-4547
-5710
-6753
-6965
-6048
-4758
-3776
-2890
-2028
-1483
-1097
-553
140
979
2387
4852
7352
7467
5027
2852
2397
2614
2927
3561
4289
4849
5185
5123
4463
3177
1938
1730
2197
2441
2762
2851
1974
2330
5456
7981
8015
7831
7366
5901
5769
6244
4639
4005
6995
9184
7311
4040
1937
770
-274
-1443
-2486
-3240
-3791
-4249
-5032
-6228
-6927
-6678
-6260
-6072
-5648
-5010
-4791
-5084
-5302
-4779
-3394
-2525
-3915
-6498
-7469
-6384
-4558
-2925
-2211
-1752
-745
-776
-1070
562
64
-2460
1916
7379
-1097
-14142
-14572
-9525
-9255
-8486
-5112
-3770
-3766
-2940
-2455
-2211
-444
2776
5520
6577
6713
6980
7315
7546
7867
8096
7841
7042
6042
5285
4697
3776
2636
1857
974
-1016
-3091
-2969
-1016
428
1498
3743
5883
5958
5609
7014
8249
6839
4588
3621
2547
1036
1177
2123
1254
-504
-765
161
524
-405
-1990
-3110
-3374
-3317
-3548
-4243
-5039
-5272
-4815
-4438
-4727
-5212
-5336
-5308
-5260
-4816
-3915
-3021
-2499
-2148
-1373
-175
581
420
-59
-100
-44
-406
531
3849
5797
4349
3758
3836
-971
-6879
-5480
-245
1356
775
568
-671
-1911
-1313
-461
-625
-1213
-1879
-1882
-773
-13
-397
-600
39
741
1082
1171
1101
1024
984
902
777
613
558
878
1379
1555
1354
1002
538
142
173
351
-96
-1111
-2228
-3825
-5117
-3672
-391
1140
2029
5550
9079
8520
5784
4329
3543
1755
-178
-531
490
1243
1118
1116
2108
3354
3429
2456
1637
1110
557
302
183
-356
-1002
-1377
-1732
-1899
-1562
-1249
-1460
-2233
-3647
-4660
-3845
-2391
-1287
1791
6255
7004
3637
540
-1260
-2633
-2848
-2402
-2431
-2245
-1582
-1388
-1556
-1482
-1598
-2141
-2229
-1472
-776
-650
-528
-283
-430
-868
-1140
-1297
-1505
-1592
-1390
-861
160
1582
2334
1397
-292
-829
-64
453
-131
-1142
-1711
-1653
-1410
-1756
-2139
-1148
-921
-4309
-7011
-3867
1337
3884
5529
7227
6952
5106
3544
2716
2351
1868
1141
901
1002
572
-29
-35
145
-85
-512
-785
-928
-1078
-1249
-1356
-1335
-1181
-880
-478
-164
21
116
-127
-670
-1022
-1016
20
2249
2600
253
271
1954
-1450
-5677
-2802
584
-2029
-4110
-2584
-2052
-2400
-1364
-419
-454
-721
-1063
-1014
-81
1066
1638
1591
1399
1596
2017
2093
1953
1922
1691
1123
590
261
314
961
1560
1427
1030
623
-180
-578
143
705
652
926
812
-23
-388
-1004
-1821
-585
1498
2593
4274
5196
2792
185
20
223
-8
86
12
-182
-190
-539
-863
-547
-226
-147
263
840
1042
875
534
67
-556
-1290
-1834
-1862
-1429
-1046
-1115
-1246
-1039
-902
-765
-203
-153
-594
635
2688
2169
31
-715
-1008
-2197
-2779
-2092
-1230
-707
-638
-1180
-1931
-2393
-2347
-1681
-553
1132
3431
4632
3075
677
165
754
668
322
385
350
-13
-332
-566
-868
-1078
-1008
-778
-547
-392
-457
-762
-1026
-908
-477
-495
-1140
-910
394
224
-1388
-1039
986
1400
789
1371
2078
1626
1135
1334
1489
1310
1211
1101
554
-238
-831
-1207
-1262
-770
-185
-137
-412
-154
1197
2609
1937
-638
-2347
-2231
-1658
-1141
-638
-584
-721
-715
-940
-1087
-774
-712
-674
417
1845
2412
2082
773
-805
-1108
-560
-400
-343
-358
-727
-516
428
740
85
-688
-1052
-796
-36
704
1172
1406
1307
925
576
443
420
267
-35
-205
-250
-542
-891
-545
689
2211
3003
2120
100
-1223
-1385
-1490
-2084
-3100
-4066
-3958
-2917
-1892
-329
2076
3705
3796
3277
2772
2392
1908
1031
442
657
773
310
21
152
295
421
529
414
231
204
141
-66
-216
-199
-69
66
55
-44
-33
-66
-368
-732
-1140
-1960
-2891
-3023
-1767
695
2710
2532
1462
1437
778
-1806
-3522
-2851
-1971
-1829
-1364
-674
-406
-330
-419
-866
-1103
-789
-664
-1006
-788
552
1866
1909
1282
1221
1428
1113
829
1174
1461
1184
828
613
405
502
867
750
189
104
295
-344
-921
918
3856
3121
-1315
-3596
-1649
675
1320
1170
444
-78
920
2484
2793
1678
70
-990
-1154
-991
-937
-1144
-1722
-2180
-2001
-1536
-1155
-757
-451
-444
-500
-414
-451
-748
-955
-825
-497
-125
201
319
187
-73
-369
-612
-693
-579
-249
365
1320
2258
2027
92
-1855
-2057
-1309
-1018
-961
-659
-427
-370
-309
-533
-1345
-2220
-2343
-1458
559
3420
5164
4113
1908
986
939
596
361
534
613
458
154
-303
-592
-481
-341
-477
-619
-586
-655
-795
-752
-978
-1603
-1641
-1199
-1275
-839
1220
3284
3944
3731
3139
2560
2426
2220
1508
829
679
965
1149
747
-13
-721
-1424
-2015
-2166
-2119
-2228
-2133
-1554
-694
611
1900
1421
-776
-2246
-2322
-2464
-2923
-3108
-3178
-3112
-2578
-1763
-749
572
1911
3442
4975
4144
273
-2660
-2385
-1557
-1566
-1187
-768
-953
-744
-21
279
360
649
643
349
440
790
935
1052
1284
1505
1772
1881
1523
1158
1214
1151
661
290
165
-34
-234
-368
-148
1012
1888
651
-1044
-777
225
834
1811
1764
-31
-156
2140
2902
1415
529
635
557
376
350
290
-44
-820
-1543
-1509
-988
-686
-678
-648
-492
-446
-699
-995
-1014
-869
-814
-857
-913
-989
-1135
-1287
-1286
-1241
-1279
-959
-329
-335
-583
-225
-643
-1420
1049
5152
5203
2388
1039
-205
-2485
-3108
-2218
-2103
-2297
-2025
-2013
-2131
-1666
-890
-367
-182
-215
-347
-400
-182
206
433
495
637
777
784
912
1215
1273
966
639
424
252
111
-267
-949
-1201
-773
-611
-812
-425
216
828
2399
3244
994
-386
2747
4865
1808
-1122
-405
938
1678
2576
2266
559
-438
-449
-637
-822
-563
-421
-672
-784
-592
-666
-1149
-1435
-1412
-1332
-890
-389
-569
-139
2112
3703
2388
306
-307
-377
-596
-378
-288
-182
2054
4721
3041
-641
-580
195
-2605
-4735
-3569
-2793
-3135
-2550
-1807
-1870
-1786
-1172
-618
-325
-2
573
1584
3300
4957
4813
2896
1224
497
-195
-895
-914
-346
224
571
787
962
1119
1144
849
374
30
-273
-614
-905
-1560
-2391
-2204
-1759
-2989
-4276
-2959
-780
-246
-171
656
1044
461
53
463
1037
1094
871
733
427
-126
-536
-734
-787
-527
-158
-55
0
333
1168
2676
3608
2225
-223
-999
-337
23
111
338
365
287
175
-164
-273
-160
98
1965
3874
1190
-2930
-1150
2589
1002
-1979
-1551
-696
-1110
-1162
-976
-1006
-929
-1074
-1341
-1095
-624
-387
-210
-124
-322
-521
-470
-374
-492
-793
-705
412
1963
2366
1216
130
593
1670
2108
2991
4192
2919
-273
-1621
-837
-332
-857
-1353
-757
-238
-851
32
2548
1839
-1693
-2594
-1286
-1273
-1489
-504
91
-201
-230
-14
18
289
800
935
786
799
747
336
-123
-310
-380
-655
-1137
-1396
-1097
-454
96
326
245
40
-193
-564
-995
-1354
-1502
-653
1299
2660
3148
4014
3249
-1000
-4357
-3298
-1283
-1142
-1274
-983
-1066
-1199
-950
-561
-260
-213
-314
-288
-313
-554
-653
-484
-383
-394
-282
-87
58
304
804
1398
1858
2096
1992
1510
1022
885
933
1047
1229
929
206
94
-23
-844
-8
1943
177
-2952
-586
3855
3738
2206
2713
2109
-136
-998
-607
-543
-685
-770
-933
-1142
-1362
-1391
-1153
-956
-764
-310
121
173
-6
-239
-531
-830
-1112
-1365
-1418
-1194
-842
-489
-192
40
275
410
320
225
231
223
253
61
-231
853
2950
2732
-113
-1799
-1212
-546
-600
-880
-1136
-844
270
1889
3266
2931
779
-677
-159
604
485
180
109
84
-7
-197
-338
-278
-198
-401
-1053
-1905
-2185
-1588
-921
-841
-959
-789
-475
-321
-304
-188
-30
-320
-1258
-2215
-2251
-1168
11
250
-21
99
327
112
-121
76
351
280
-42
-230
-56
277
446
453
477
854
1912
2695
1596
-501
-1067
-205
122
-230
-317
-106
173
449
411
60
-89
42
-19
-264
-250
-38
72
317
1154
2475
3192
2285
755
451
955
759
161
37
110
92
180
259
175
128
214
341
485
553
492
585
934
1062
771
489
356
101
-45
638
1990
2278
414
-1793
-2176
-1470
-1231
-1269
-1082
-938
-958
-925
-705
-375
-23
490
772
-154
-1777
-2204
-1256
-535
-575
-626
-285
259
538
156
-465
-499
-85
37
-106
-108
-80
-152
-199
-327
-583
-673
-612
-776
-1126
-1294
-1334
-1507
-1594
-1322
-1006
-984
-1018
-491
1098
2912
2818
636
-1033
-1127
-1240
-1543
-185
2737
4064
1850
-1354
-2244
-1459
-1128
-1216
-1022
-696
-345
19
223
304
344
312
302
387
563
898
1225
1175
879
763
726
451
128
65
135
144
177
348
597
770
775
673
573
607
849
1090
1189
1326
1607
2094
2050
-298
-3581
-3154
310
1218
-375
-465
411
342
257
545
490
361
396
291
111
-49
-262
-415
-469
-525
-623
-813
-1025
-1049
-925
-844
-731
-440
-182
-298
-680
-885
-764
-519
-296
-179
-248
-316
-139
125
281
561
1265
2329
2954
2012
-16
-1032
-526
129
846
2217
2708
1040
-806
-882
-279
-254
-355
-337
-473
-481
-222
-50
128
493
575
186
-126
-171
-254
-370
-499
-923
-1501
-1673
-1371
-988
-649
-279
58
335
580
697
648
444
69
-209
-470
-1609
-3197
-3013
-917
496
300
-40
112
318
398
216
-84
83
769
1657
2361
1880
87
-1163
-847
-242
-346
-717
-787
-519
-226
-137
-79
8
-75
-194
-141
-108
-142
-13
173
195
211
426
798
965
407
-356
318
2290
2904
1217
-463
-728
-636
-781
-672
-421
-433
-507
-379
-226
-248
-332
-277
-82
174
379
360
235
389
1080
2356
3434
2752
535
-819
-526
-202
-483
-621
-566
-644
-700
-746
-890
-851
-753
-907
-728
-226
-400
-376
1002
1559
-42
-1059
-253
323
124
107
53
-272
-368
-275
-311
-312
-217
-307
-536
-590
-569
-711
-717
-311
61
-33
-320
-424
-399
-424
-479
-439
-116
883
2364
2697
942
-941
-952
-83
132
-2
55
231
769
1473
1130
-300
-1123
-855
-685
-844
-700
-456
-444
-322
-29
21
-178
-259
-174
-128
-107
43
289
503
652
765
884
968
834
512
374
508
517
236
-62
-241
-417
-589
-612
-543
-697
-988
-790
117
1481
2835
2663
-15
-2805
-2841
-1156
-88
346
744
752
338
45
99
374
705
917
916
821
805
885
954
905
706
471
292
103
-42
39
268
398
399
375
318
159
-28
-60
-11
-170
-351
-73
422
591
757
1274
1384
455
-883
-1922
-2659
-2910
-2382
-1500
-491
939
1711
369
-1686
-2125
-1397
-909
-628
-383
-394
-480
-485
-488
-407
-261
-192
-117
-47
-222
-617
-873
-826
-681
-607
-485
-242
-23
93
48
-181
-274
-179
-282
-231
258
389
608
1819
1949
-115
-1186
-72
511
-48
-285
-267
-339
-115
165
93
-19
155
750
1954
2949
2031
-411
-1732
-1206
-625
-685
-628
-382
-327
-355
-289
-202
-174
-182
-160
-136
-147
-57
200
415
526
836
1489
2146
2439
2338
1914
1190
416
-80
-337
-512
-541
-456
-429
-449
-516
-717
-863
-745
-574
-561
-566
-431
-180
22
-30
-258
-341
13
1239
3023
3355
1299
-777
-983
-570
-667
-765
-627
-387
-164
-186
-64
314
217
432
2052
3057
1800
404
351
354
-133
-440
-544
-650
-642
-521
-404
-385
-477
-525
-484
-560
-767
-854
-831
-922
-1016
-865
-617
-542
-558
-457
-260
-107
7
123
53
-286
-529
-309
661
2482
3788
2700
166
-1157
-1038
-868
-801
-571
-548
-730
-753
-700
-742
-715
-600
-623
-735
-691
-479
-204
80
245
237
199
205
162
71
59
141
169
90
70
213
322
229
87
26
-59
-172
-171
-78
-14
-94
-333
-396
-199
-250
19
1862
3587
2172
-595
-407
1859
2137
455
-375
-68
16
-202
-283
-371
-482
-432
-349
-363
-349
-294
-344
-428
-333
-94
66
86
53
3
-75
-139
-128
-85
-105
-197
-399
-661
-693
-575
-618
-219
1014
1655
695
-580
-987
-957
-976
-924
-704
-398
-223
-334
-518
-566
-596
-580
-246
567
1889
3046
2615
695
-578
-358
33
-33
-21
133
170
148
116
59
22
-17
-79
-86
-42
-49
-107
-116
-48
12
-20
-65
78
347
347
-62
-516
-658
-489
-256
-154
-89
54
169
345
774
1029
598
-128
-520
-617
-686
-747
-721
-634
-639
-739
-659
-138
1052
2499
2518
508
-1243
-1085
-391
-318
-280
-89
-79
-41
92
61
