# session 2
53
131
-100
252
1364
2029
1795
1414
1329
1479
2060
3201
3933
2974
1073
236
537
655
453
417
413
335
320
313
259
229
218
197
187
187
183
196
225
244
259
294
328
338
347
353
335
318
313
280
221
158
59
-62
-148
-221
-307
-358
-365
-378
-398
-398
-395
-403
-416
-426
-431
-430
-429
-430
-423
-412
-416
-430
-432
-416
-406
-419
-435
-425
-396
-391
-416
-423
-393
-364
-329
-263
-232
-274
-314
-321
-317
-291
-288
-317
-263
-212
-336
-381
-15
787
1880
2438
1484
-115
-627
-257
-163
-285
-233
-200
-237
-205
-164
-152
-121
-96
-85
-55
-16
25
72
100
114
154
218
265
288
310
335
344
338
347
363
325
231
150
103
45
-33
-85
-100
-124
-158
-158
-131
-129
-150
-150
-130
-130
-149
-154
-149
-154
-152
-139
-146
-162
-158
-158
-164
-150
-131
-129
-133
-138
-147
-149
-155
-175
-178
-144
-103
-71
-30
-4
-27
-71
-98
-106
-96
-94
-103
-77
-69
-136
-110
210
942
1910
2175
1090
-224
-455
-106
-68
-160
-122
-108
-121
-95
-91
-92
-54
-3
19
15
27
66
84
91
136
181
196
225
271
293
302
317
306
272
258
251
216
175
134
57
-36
-84
-101
-132
-158
-163
-167
-173
-168
-167
-184
-198
-196
-197
-205
-207
-205
-211
-211
-205
-214
-228
-227
-218
-217
-227
-233
-219
-211
-242
-266
-235
-183
-156
-151
-161
-163
-158
-171
-186
-186
-192
-176
-152
-207
-240
-16
631
1683
2354
1582
9
-624
-273
-112
-236
-188
-122
-180
-189
-144
-124
-97
-65
-58
-38
7
44
72
100
126
158
199
238
269
290
304
326
339
320
300
287
251
194
129
45
-29
-61
-91
-143
-184
-198
-199
-195
-197
-205
-203
-206
-226
-234
-233
-259
-287
-278
-255
-248
-255
-265
-264
-251
-242
-241
-240
-237
-240
-244
-222
-174
-148
-162
-167
-169
-207
-223
-194
-209
-219
-151
-161
-247
-125
396
1477
2680
2515
725
-606
-433
-72
-196
-220
-124
-177
-194
-126
-106
-88
-49
-40
-19
30
55
68
102
150
206
263
308
341
364
375
374
363
345
332
322
291
224
130
31
-41
-92
-163
-226
-230
-209
-211
-209
-197
-214
-245
-248
-243
-259
-267
-250
-261
-302
-303
-268
-271
-295
-277
-255
-277
-289
-251
-217
-223
-241
-252
-264
-274
-277
-280
-243
-200
-274
-352
-158
436
1533
2611
2265
476
-700
-462
-138
-273
-291
-189
-219
-229
-154
-103
-74
-48
-31
5
58
89
98
131
193
240
273
339
400
406
404
418
395
346
315
283
222
133
36
-31
-66
-118
-182
-215
-212
-203
-218
-255
-259
-225
-221
-246
-231
-204
-231
-279
-297
-308
-322
-326
-326
-319
-295
-278
-270
-240
-204
-206
-222
-219
-238
-271
-246
-217
-238
-212
-195
-311
-312
82
918
2101
2698
1623
-103
-592
-158
-76
-222
-162
-118
-158
-139
-113
-109
-89
-79
-77
-63
-41
13
87
116
128
195
289
345
356
353
357
362
346
312
289
265
208
128
50
-35
-131
-195
-212
-215
-216
-214
-221
-225
-206
-194
-211
-210
-179
-173
-195
-205
-210
-229
-238
-232
-226
-228
-234
-227
-202
-182
-172
-173
-192
-203
-184
-185
-204
-179
-162
-190
-174
-189
-311
-269
140
944
2089
2603
1450
-219
-612
-198
-162
-304
-259
-252
-285
-217
-148
-141
-138
-102
-28
29
21
19
72
114
118
142
190
232
265
283
283
282
274
250
237
215
136
43
-5
-39
-94
-144
-171
-186
-185
-173
-182
-216
-227
-202
-185
-197
-227
-255
-254
-223
-214
-245
-276
-277
-248
-215
-215
-234
-233
-222
-207
-169
-131
-129
-135
-130
-156
-184
-147
-112
-123
-92
-71
-149
-113
258
1008
1979
2270
1152
-253
-506
-125
-81
-154
-87
-113
-184
-158
-129
-118
-75
-47
-37
-1
36
62
108
142
147
175
230
270
285
278
266
296
335
290
209
186
164
97
56
58
44
13
1
-14
-60
-126
-195
-244
-247
-214
-184
-185
-201
-194
-174
-168
-164
-160
-170
-171
-158
-186
-259
-310
-316
-297
-273
-266
-261
-229
-201
-205
-218
-237
-258
-251
-250
-274
-260
-268
-332
-250
161
1045
2233
2532
1143
-429
-590
-148
-194
-334
-256
-256
-291
-213
-156
-159
-120
-48
-3
13
26
60
85
70
82
178
259
236
210
251
257
181
143
200
244
190
107
80
69
11
-65
-107
-123
-145
-158
-123
-87
-140
-218
-200
-142
-151
-192
-188
-156
-134
-126
-130
-152
-175
-166
-139
-153
-201
-231
-251
-271
-245
-181
-168
-199
-195
-167
-163
-156
-139
-121
-112
-175
-260
-153
325
1361
2580
2551
865
-546
-470
-84
-202
-271
-154
-153
-167
-111
-99
-100
-75
-81
-90
-48
-1
16
57
137
203
238
274
306
326
345
347
318
288
277
251
192
117
31
-58
-117
-134
-133
-148
-183
-196
-172
-159
-188
-218
-228
-245
-267
-274
-283
-301
-307
-307
-321
-329
-319
-320
-322
-294
-266
-273
-274
-233
-191
-193
-223
-238
-241
-241
-216
-194
-201
-163
-121
-197
-212
76
761
1888
2669
1843
79
-627
-242
-83
-227
-203
-175
-218
-176
-123
-121
-88
-34
9
56
72
67
110
180
207
216
251
292
314
330
338
321
290
270
256
208
127
50
-15
-78
-132
-171
-191
-199
-215
-222
-193
-175
-204
-226
-217
-213
-213
-206
-213
-226
-215
-208
-234
-252
-228
-194
-197
-229
-244
-228
-210
-180
-124
-105
-147
-173
-172
-190
-186
-157
-176
-185
-142
-183
-240
-17
641
1669
2365
1687
121
-598
-278
-79
-185
-165
-140
-191
-147
-83
-94
-84
-46
-32
-14
13
36
74
122
157
183
207
240
277
284
260
256
277
272
239
206
158
85
38
11
-62
-145
-147
-118
-160
-214
-196
-170
-182
-166
-122
-118
-142
-153
-163
-181
-192
-199
-208
-205
-185
-173
-183
-194
-193
-206
-239
-254
-233
-201
-175
-140
-106
-111
-134
-123
-119
-153
-172
-178
-177
-140
-173
-279
-184
287
1174
2184
2221
833
-458
-470
-92
-138
-210
-136
-156
-176
-108
-90
-112
-76
-32
-19
7
36
48
89
169
221
243
277
306
310
313
314
291
263
258
261
240
177
91
14
-54
-122
-171
-186
-180
-187
-206
-208
-201
-209
-229
-251
-255
-224
-209
-248
-272
-248
-245
-274
-277
-262
-266
-273
-262
-241
-220
-199
-178
-162
-160
-170
-173
-177
-208
-222
-187
-177
-192
-154
-166
-276
-233
181
1133
2414
2699
1195
-438
-598
-155
-165
-257
-190
-209
-217
-139
-126
-144
-100
-59
-41
2
42
52
77
137
190
216
248
295
327
342
333
296
268
267
238
174
117
59
-14
-59
-81
-143
-219
-233
-208
-198
-192
-187
-205
-212
-183
-178
-224
-254
-240
-232
-246
-250
-239
-235
-238
-226
-205
-205
-233
-257
-245
-219
-207
-174
-113
-96
-135
-147
-142
-161
-159
-152
-173
-132
-91
-182
-181
201
1060
2234
2651
1392
-237
-515
-59
-42
-182
-117
-96
-118
-78
-75
-89
-48
-20
-24
10
58
72
88
138
198
248
295
327
325
302
285
281
282
270
231
166
84
1
-73
-134
-179
-213
-236
-225
-201
-227
-285
-294
-265
-256
-257
-254
-257
-247
-224
-241
-295
-312
-282
-269
-276
-254
-226
-236
-262
-271
-264
-238
-197
-161
-139
-140
-157
-173
-185
-173
-148
-170
-191
-155
-191
-268
-110
375
1212
2144
2085
671
-510
-415
-45
-125
-188
-100
-125
-168
-116
-69
-55
-30
4
37
57
67
99
144
181
223
265
286
293
300
308
328
343
311
265
253
223
131
41
-5
-39
-77
-113
-144
-155
-147
-151
-173
-178
-168
-178
-194
-188
-186
-192
-170
-149
-169
-200
-214
-222
-220
-204
-192
-180
-165
-174
-198
-198
-190
-205
-213
-174
-114
-97
-143
-190
-189
-168
-156
-166
-208
-204
-155
-212
-281
-70
564
1611
2409
1797
165
-645
-329
-105
-221
-203
-142
-170
-136
-83
-102
-114
-78
-35
9
48
76
115
156
183
218
269
309
336
355
350
337
349
351
317
283
252
168
54
-18
-52
-85
-101
-107
-144
-199
-220
-200
-185
-194
-185
-154
-165
-228
-269
-255
-230
-239
-262
-248
-216
-226
-266
-283
-271
-246
-219
-209
-186
-136
-134
-204
-250
-237
-213
-204
-226
-228
-175
-202
-312
-222
234
1177
2409
2635
1111
-476
-575
-130
-181
-290
-187
-162
-186
-151
-147
-160
-121
-72
-37
5
33
34
47
92
149
196
234
257
266
284
307
295
256
228
193
123
55
0
-76
-154
-184
-193
-222
-249
-240
-213
-202
-220
-236
-221
-213
-241
-251
-218
-206
-232
-231
-213
-239
-282
-278
-247
-231
-238
-256
-251
-213
-176
-162
-166
-179
-193
-210
-215
-190
-184
-223
-203
-167
-256
-291
-6
679
1770
2510
1718
45
-615
-248
-100
-224
-179
-139
-172
-138
-121
-141
-97
-41
-20
16
47
45
65
118
164
207
249
268
295
339
343
307
294
291
257
209
167
122
83
49
-2
-63
-120
-145
-118
-86
-106
-124
-91
-76
-116
-148
-151
-153
-163
-182
-194
-177
-162
-181
-197
-196
-203
-206
-194
-173
-127
-70
-67
-115
-138
-129
-125
-118
-112
-124
-95
-53
-110
-132
115
708
1610
2212
1570
167
-441
-149
6
-94
-56
-2
-35
-19
30
46
63
85
100
129
163
185
210
255
311
367
428
480
488
462
452
457
436
392
361
326
254
148
51
-18
-85
-162
-202
-200
-223
-280
-307
-283
-248
-243
-268
-280
-265
-262
-291
-320
-325
-321
-323
-323
-323
-350
-399
-423
-416
-401
-368
-329
-330
-355
-369
-407
-457
-466
-468
-479
-447
-445
-530
-519
-242
478
1672
2291
1172
-598
-1092
-633
-510
-633
-563
-515
-549
-514
-494
-535
-515
-443
-419
-422
-387
-336
-309
-281
-243
-224
-212
-169
-104
-68
-74
-78
-66
-84
-132
-156
-176
-253
-340
-359
-341
-354
-376
-359
-325
-306
-304
-316
-338
-352
-338
-310
-306
-318
-292
-235
-216
-233
-211
-152
-126
-116
-49
30
38
29
49
44
54
128
144
90
122
180
166
257
658
1619
2954
3218
1607
-57
-128
392
397
321
445
484
469
526
579
623
701
771
804
834
901
987
1042
1065
1110
1190
1257
1290
1318
1352
1362
1330
1289
1276
1260
1194
1112
1055
987
894
833
834
845
818
787
793
805
797
784
749
690
659
645
592
532
516
489
406
335
307
255
194
204
245
277
360
446
394
286
290
331
337
386
369
210
214
583
1367
2528
2967
1525
-532
-1190
-885
-939
-1197
-1209
-1300
-1685
-2013
-2003
-1979
-2208
-2279
-2095
-2152
-2315
-2251
-2322
-2459
-2157
-1806
-1742
-1469
-1164
-1430
-1777
-1738
-1847
-2201
-2253
-2089
-2085
-2189
-2477
-3060
-3526
-3711
-4116
-4812
-5316
-5455
-5314
-5032
-5002
-5417
-5353
-3352
-850
-2695
-9827
-16021
-16825
-14747
-12903
-11399
-10049
-9107
-8550
-8233
-7618
-6454
-5606
-5742
-6600
-7859
-9140
-9795
-9061
-6207
-2524
-1472
-2165
3121
17511
31506
35293
32421
31616
31037
23351
13671
14589
23774
28143
26266
25202
25324
24194
23138
22835
21809
19910
18086
16044
13045
9568
5416
-898
-8087
-12704
-14518
-15374
-15658
-14687
-10490
-3100
864
-3813
-12090
-16508
-16696
-16024
-14234
-6796
6883
18467
21206
19623
19750
18034
9130
-3621
-13078
-16981
-17391
-16612
-15947
-16103
-17030
-17201
-15871
-15540
-17575
-19777
-21851
-24757
-26419
-26091
-24853
-21830
-18735
-16659
-10717
-5012
-8728
-8524
10054
27480
26647
23218
25880
23754
19361
21718
24802
23409
22284
22509
21773
21018
20290
17898
14026
9276
3865
-802
-3829
-6015
-7769
-9177
-10941
-12462
-12864
-13832
-15667
-15740
-16001
-20955
-26668
-25479
-18537
-13188
-12734
-14007
-13165
-9432
-1108
12776
25262
28664
24488
16685
6019
-4800
-11063
-12106
-11830
-12856
-13884
-14136
-14988
-16151
-16427
-16753
-17821
-18576
-19025
-20049
-20419
-18679
-16966
-15845
-9393
2985
11183
13871
21311
31883
34969
32497
31784
31767
30562
29919
29691
28886
28235
27850
27130
26543
26240
25456
24862
25037
22826
15689
6877
-75
-6022
-11640
-15886
-18988
-21587
-23897
-25769
-25860
-25918
-29411
-29189
-16456
-3424
-5499
-11749
-8448
-7261
-16137
-15219
7246
30331
36157
33078
31615
32462
32879
24185
3490
-14080
-18304
-18504
-22329
-26541
-29370
-31708
-32317
-31501
-31594
-32089
-31787
-32272
-32966
-31536
-30157
-28003
-19041
-8077
-2445
6865
23416
33960
37691
43548
46655
43599
42077
42567
41082
40265
40185
38282
38400
39231
28544
5538
-13682
-21106
-23735
-27096
-30317
-32125
-32991
-33903
-33869
-32036
-30669
-29035
-25635
-26893
-29477
-14407
11570
17292
6217
4075
2963
-10491
-21043
-24510
-28861
-15757
23540
54695
56408
50051
52385
52364
37023
11185
-10115
-20655
-25411
-27541
-27123
-26457
-26464
-25588
-24325
-23915
-23221
-21950
-21749
-21302
-19396
-19856
-20294
-9686
11228
30265
44175
54858
58976
55974
52600
54042
52841
39926
30320
38954
44151
33479
33200
42797
28981
-2141
-19142
-22587
-25699
-27273
-27534
-29916
-31239
-29945
-29304
-29032
-27530
-27067
-27131
-24203
-21417
-21159
-16386
-5953
4180
15153
19733
2223
-22726
-26522
-18744
-17043
-2871
31357
53639
51972
49328
47915
30185
2680
-15930
-24274
-26500
-21706
-14794
-13798
-18250
-22898
-25385
-25556
-24242
-22839
-21309
-19047
-16555
-14567
-13646
-13341
-14001
-20503
-29420
-20357
9005
26350
19550
13987
14589
8096
9625
26951
31173
16650
10774
13563
6498
-4674
-8579
-9326
-10489
-10340
-9199
-7235
-4845
-4571
-6610
-8815
-10574
-11555
-11091
-10142
-9806
-9791
-9267
-7978
-9436
-16837
-19418
-3244
17416
15114
-5523
-20767
-23957
-12030
18378
46722
52223
45872
44446
46797
44176
30181
9502
-4758
-9824
-11768
-12254
-12665
-15070
-16251
-15093
-15987
-18791
-19754
-19608
-19581
-18749
-17973
-15275
-6102
5264
12029
16611
20429
22689
30238
42255
43602
32113
25046
30493
34385
24803
14938
19047
22143
7722
-10828
-16653
-14191
-12226
-11368
-10881
-10879
-10605
-10139
-10611
-11948
-12725
-12517
-11105
-7858
-7168
-12339
-13368
-6819
-7902
-11006
5524
19898
1472
-21288
-20736
-19660
-18877
10244
48960
59888
54453
51780
39757
15786
-2140
-9187
-13237
-16261
-17364
-17838
-18027
-17581
-16868
-16406
-16732
-17881
-19362
-20771
-21588
-21882
-21073
-15605
-4626
6059
12288
14819
15777
20834
34085
47065
45854
31246
22134
27589
31345
26810
28737
30347
11282
-15577
-28137
-32107
-36251
-37293
-35738
-34023
-32616
-34330
-37495
-37610
-37209
-37420
-34353
-28959
-19010
1350
19658
18874
7258
-1451
-8525
