# session 16
-91
-120
-59
12
-133
-417
-516
-451
-442
-461
-432
-421
-436
-425
-400
-380
-366
-363
-353
-335
-341
-354
-319
-262
-233
-211
-187
-195
-233
-255
-242
-239
-272
-249
-188
-266
-383
-181
635
2174
3461
2711
319
-1072
-756
-364
-437
-381
-263
-282
-240
-133
-88
-38
74
216
387
595
805
968
1044
1018
913
765
601
433
270
126
14
-69
-151
-241
-308
-328
-311
-284
-261
-241
-229
-236
-253
-269
-292
-320
-331
-320
-315
-331
-355
-360
-345
-335
-338
-339
-323
-308
-312
-318
-306
-287
-277
-274
-272
-270
-273
-278
-260
-215
-170
-150
-155
-150
-141
-175
-213
-193
-181
-186
-140
-165
-299
-219
438
1855
3380
3246
1081
-749
-767
-307
-365
-400
-262
-250
-247
-163
-117
-72
35
157
300
499
716
890
986
994
923
797
635
467
316
177
51
-46
-124
-209
-286
-320
-314
-300
-288
-271
-253
-244
-249
-262
-278
-297
-317
-334
-344
-344
-340
-349
-364
-359
-340
-329
-329
-327
-318
-303
-291
-289
-294
-287
-270
-260
-261
-269
-282
-282
-254
-215
-180
-145
-133
-151
-176
-199
-201
-176
-188
-204
-147
-182
-341
-249
407
1782
3419
3582
1505
-580
-816
-354
-387
-448
-319
-307
-306
-211
-155
-108
-4
110
241
429
644
825
934
954
899
789
640
472
311
176
67
-33
-124
-203
-266
-311
-327
-311
-279
-258
-251
-250
-252
-259
-275
-292
-307
-318
-327
-334
-336
-338
-344
-345
-337
-325
-320
-316
-307
-297
-288
-279
-270
-264
-257
-249
-244
-239
-233
-231
-236
-247
-250
-228
-187
-143
-107
-100
-116
-134
-153
-159
-137
-145
-174
-127
-124
-274
-266
252
1456
3086
3654
1991
-239
-834
-401
-339
-433
-319
-279
-296
-216
-147
-108
-18
94
215
382
580
763
891
937
902
811
679
525
372
234
116
15
-78
-162
-229
-277
-302
-297
-274
-255
-246
-242
-242
-248
-258
-269
-283
-298
-306
-309
-315
-321
-322
-322
-319
-313
-308
-305
-297
-290
-283
-274
-269
-265
-260
-254
-251
-246
-238
-233
-229
-227
-232
-247
-254
-234
-189
-139
-104
-97
-111
-130
-153
-166
-150
-153
-171
-130
-131
-257
-243
241
1369
2835
3241
1655
-325
-801
-398
-338
-411
-304
-263
-275
-208
-142
-92
-8
88
199
353
537
717
854
917
906
834
715
580
444
309
189
90
0
-92
-174
-228
-247
-242
-228
-217
-215
-220
-222
-225
-242
-264
-272
-277
-298
-318
-321
-321
-330
-335
-333
-330
-323
-313
-308
-305
-297
-293
-299
-301
-286
-262
-243
-230
-220
-218
-226
-227
-221
-225
-230
-211
-169
-122
-91
-94
-117
-144
-168
-160
-148
-180
-164
-99
-179
-289
-81
667
2143
3562
3016
617
-924
-684
-315
-419
-376
-260
-287
-246
-148
-115
-65
26
126
277
465
638
793
911
940
876
757
616
484
368
258
144
25
-82
-160
-218
-252
-247
-227
-227
-243
-255
-262
-275
-294
-313
-323
-330
-355
-387
-385
-370
-382
-390
-368
-366
-382
-373
-360
-364
-354
-326
-319
-330
-336
-336
-333
-314
-270
-226
-208
-205
-193
-188
-221
-245
-216
-206
-228
-183
-169
-299
-322
118
1292
2921
3393
1608
-579
-1012
-471
-356
-408
-293
-269
-276
-182
-112
-71
14
114
236
417
634
839
983
1030
990
889
735
547
374
237
109
-19
-120
-187
-243
-281
-287
-284
-288
-282
-268
-270
-282
-288
-296
-312
-330
-350
-365
-363
-357
-365
-376
-364
-345
-349
-357
-341
-317
-312
-313
-308
-313
-324
-308
-266
-225
-189
-171
-182
-210
-233
-234
-213
-223
-239
-179
-169
-291
-254
289
1570
3204
3507
1570
-555
-881
-389
-360
-414
-286
-277
-290
-199
-144
-113
-26
84
221
407
611
799
935
978
932
836
697
530
366
222
95
-6
-85
-166
-241
-281
-289
-288
-280
-264
-253
-257
-270
-284
-302
-326
-340
-343
-352
-369
-380
-383
-381
-374
-374
-376
-363
-343
-342
-348
-342
-339
-340
-323
-289
-258
-223
-191
-194
-215
-229
-243
-236
-222
-247
-230
-179
-277
-392
-119
793
2371
3632
2829
409
-978
-687
-360
-477
-433
-322
-341
-303
-217
-177
-112
-8
101
250
451
661
836
934
936
866
748
591
419
262
133
24
-72
-161
-237
-294
-322
-322
-306
-285
-269
-263
-266
-270
-277
-287
-297
-308
-317
-324
-330
-335
-337
-337
-337
-333
-325
-315
-306
-299
-296
-300
-311
-306
-272
-226
-186
-160
-158
-174
-192
-211
-215
-194
-209
-223
-167
-195
-346
-263
369
1679
3188
3288
1333
-594
-803
-370
-393
-444
-321
-305
-301
-218
-171
-125
-25
81
203
374
570
752
883
926
888
799
673
519
362
225
105
-6
-105
-184
-244
-289
-313
-309
-288
-272
-268
-264
-261
-265
-274
-283
-293
-301
-307
-311
-317
-322
-321
-317
-313
-311
-305
-294
-284
-279
-274
-267
-264
-270
-281
-276
-242
-192
-149
-127
-130
-144
-160
-185
-192
-175
-187
-195
-148
-185
-321
-226
399
1651
2992
2934
1064
-630
-743
-346
-372
-401
-281
-270
-266
-190
-143
-90
9
105
221
385
554
707
834
889
854
765
646
507
372
250
132
20
-71
-152
-223
-265
-275
-275
-276
-274
-272
-273
-272
-273
-281
-295
-305
-306
-309
-320
-325
-321
-325
-337
-337
-328
-320
-310
-307
-307
-290
-274
-282
-288
-269
-253
-248
-244
-259
-274
-248
-204
-176
-139
-109
-126
-156
-173
-185
-167
-153
-184
-167
-140
-238
-284
40
1029
2716
3749
2440
-33
-1006
-548
-330
-439
-356
-287
-301
-230
-159
-124
-47
43
140
292
472
650
814
909
917
874
778
636
498
366
230
124
42
-61
-163
-221
-243
-240
-230
-235
-241
-240
-245
-255
-267
-293
-326
-341
-334
-334
-368
-395
-367
-338
-373
-403
-373
-347
-359
-358
-339
-333
-331
-331
-344
-331
-282
-249
-230
-203
-202
-224
-230
-240
-247
-225
-233
-245
-193
-226
-362
-243
466
1878
3281
2965
747
-958
-852
-351
-373
-377
-254
-260
-251
-162
-110
-63
24
126
256
431
644
862
1000
1012
955
871
737
561
387
230
94
-15
-107
-191
-259
-302
-316
-302
-275
-253
-251
-264
-270
-271
-282
-300
-316
-331
-340
-337
-337
-350
-368
-374
-362
-347
-348
-349
-335
-319
-316
-317
-311
-306
-299
-282
-259
-236
-212
-192
-178
-180
-212
-237
-209
-195
-227
-194
-155
-280
-356
31
1125
2772
3658
2338
-28
-967
-542
-335
-451
-370
-287
-310
-265
-194
-148
-67
35
138
285
487
697
864
958
973
919
802
642
480
329
185
58
-39
-122
-200
-261
-299
-312
-297
-271
-258
-256
-253
-251
-258
-270
-283
-302
-320
-323
-324
-335
-342
-336
-332
-339
-344
-336
-320
-309
-304
-298
-285
-270
-261
-258
-255
-249
-242
-240
-254
-268
-254
-217
-183
-153
-130
-132
-145
-158
-177
-170
-150
-174
-165
-111
-206
-331
-57
852
2395
3682
3010
646
-839
-629
-302
-428
-408
-294
-309
-273
-186
-155
-102
0
103
234
414
615
805
939
981
943
849
714
554
398
265
152
43
-61
-150
-220
-274
-304
-302
-283
-264
-254
-254
-258
-262
-265
-270
-280
-294
-307
-317
-322
-325
-325
-325
-324
-322
-318
-311
-304
-296
-287
-278
-273
-268
-261
-254
-247
-240
-234
-230
-225
-220
-213
-207
-206
-210
-220
-232
-229
-201
-158
-115
-85
-84
-104
-121
-141
-144
-123
-140
-156
-100
-133
-283
-181
473
1808
3357
3474
1475
-511
-746
-329
-373
-434
-310
-295
-295
-213
-163
-118
-27
66
172
326
508
690
847
932
932
873
773
641
489
343
217
106
0
-98
-178
-242
-285
-301
-295
-280
-268
-258
-255
-258
-264
-270
-280
-293
-303
-310
-315
-321
-322
-324
-326
-326
-321
-315
-308
-300
-295
-292
-284
-273
-266
-261
-255
-247
-241
-238
-237
-233
-227
-222
-218
-217
-223
-239
-245
-222
-175
-127
-92
-82
-99
-121
-140
-152
-140
-134
-155
-129
-103
-206
-253
108
1093
2575
3386
2214
70
-819
-469
-291
-397
-327
-254
-270
-216
-142
-107
-45
43
140
267
425
600
764
874
911
886
812
703
569
425
295
191
94
-8
-104
-182
-238
-266
-270
-256
-234
-226
-243
-255
-249
-247
-260
-277
-292
-298
-301
-314
-321
-308
-301
-314
-315
-303
-301
-298
-281
-269
-269
-266
-259
-255
-251
-241
-229
-219
-210
-206
-212
-231
-247
-230
-188
-154
-122
-96
-106
-131
-142
-155
-158
-145
-169
-171
-116
-171
-279
-121
531
1936
3496
3248
897
-896
-782
-337
-424
-412
-276
-298
-285
-196
-160
-109
-12
80
190
326
473
647
816
902
901
844
746
616
459
297
177
101
6
-112
-194
-233
-255
-256
-246
-256
-273
-271
-273
-296
-306
-295
-308
-356
-391
-388
-380
-394
-410
-403
-390
-392
-391
-382
-382
-381
-365
-357
-358
-344
-331
-336
-345
-334
-304
-279
-267
-229
-176
-175
-200
-199
-219
-249
-223
-202
-207
-165
-193
-324
-234
387
1701
3183
3136
1022
-864
-884
-336
-354
-397
-242
-219
-230
-153
-106
-64
34
137
248
406
598
805
976
1054
1066
1030
899
709
540
390
245
117
-9
-127
-203
-243
-267
-276
-283
-286
-264
-231
-231
-256
-261
-241
-251
-295
-316
-306
-304
-316
-321
-324
-334
-342
-337
-323
-303
-286
-286
-295
-288
-263
-251
-262
-271
-253
-210
-176
-166
-164
-162
-167
-179
-191
-195
-204
-218
-179
-139
-237
-323
1
1022
2527
3243
1957
-187
-994
-558
-326
-410
-337
-267
-287
-232
-161
-133
-65
39
135
252
427
649
867
1002
1037
1022
959
806
599
415
260
111
-24
-135
-225
-292
-341
-377
-394
-388
-360
-327
-314
-321
-325
-321
-317
-320
-339
-372
-386
-370
-362
-379
-390
-375
-362
-362
-359
-350
-345
-339
-320
-301
-293
-283
-276
-292
-306
-281
-241
-212
-178
-154
-173
-200
-206
-208
-196
-189
-218
-195
-143
-257
-358
9
1048
2633
3694
2687
312
-908
-589
-322
-441
-387
-297
-319
-271
-192
-161
-96
-2
88
221
404
603
799
955
1033
1028
952
822
662
491
329
193
79
-31
-133
-212
-268
-308
-325
-314
-291
-280
-275
-269
-271
-278
-279
-287
-304
-312
-313
-321
-325
-321
-323
-334
-332
-323
-321
-323
-317
-304
-300
-298
-284
-266
-260
-252
-236
-231
-240
-240
-229
-224
-229
-239
-243
-223
-188
-155
-122
-101
-112
-134
-145
-162
-159
-130
-148
-160
-104
-162
-314
-135
661
2123
3600
3390
1174
-662
-701
-300
-389
-421
-295
-298
-292
-208
-166
-124
-38
51
159
317
505
705
881
985
1004
961
866
732
575
419
283
165
53
-51
-140
-212
-264
-290
-290
-275
-259
-250
-247
-246
-247
-252
-261
-273
-284
-292
-297
-303
-306
-307
-312
-315
-310
-302
-298
-292
-283
-274
-269
-264
-256
-245
-237
-234
-230
-224
-217
-210
-206
-205
-202
-197
-192
-190
-187
-181
-173
-168
-165
-160
-154
-150
-149
-148
-143
-136
-131
-126
-122
-126
-139
-141
-121
-89
-52
-14
-3
-25
-46
-63
-82
-73
-64
-93
-71
-33
-153
-247
93
1078
2642
3732
2782
463
-754
-489
-267
-401
-354
-265
-287
-247
-176
-147
-92
-10
68
173
310
470
650
809
900
919
878
791
672
537
398
273
166
68
-29
-117
-194
-253
-281
-280
-270
-263
-259
-256
-254
-256
-261
-271
-282
-293
-302
-310
-318
-322
-325
-329
-332
-331
-326
-319
-311
-303
-298
-294
-287
-278
-269
-261
-253
-249
-245
-243
-241
-238
-231
-225
-221
-214
-206
-200
-198
-197
-192
-182
-177
-189
-206
-211
-189
-143
-96
-63
-53
-71
-95
-114
-127
-119
-116
-146
-124
-77
-172
-250
63
997
2515
3558
2596
334
-813
-523
-297
-416
-359
-260
-274
-245
-187
-148
-81
-5
67
174
315
477
656
812
912
948
917
835
726
594
448
321
215
104
-13
-114
-191
-241
-255
-258
-271
-283
-283
-280
-272
-268
-286
-312
-319
-319
-330
-334
-330
-344
-361
-352
-344
-355
-357
-342
-335
-330
-320
-323
-323
-301
-289
-299
-302
-285
-265
-261
-278
-288
-267
-236
-210
-173
-138
-140
-156
-175
-207
-208
-166
-178
-207
-160
-181
-300
-208
350
1613
3231
3410
1319
-750
-915
-397
-405
-440
-292
-277
-280
-202
-170
-142
-65
3
96
257
430
587
756
903
963
948
891
777
622
473
318
157
32
-65
-160
-228
-266
-291
-293
-289
-295
-277
-241
-249
-274
-264
-256
-287
-307
-300
-312
-333
-324
-320
-348
-364
-355
-347
-333
-314
-326
-340
-324
-314
-324
-311
-288
-285
-267
-213
-176
-184
-202
-222
-249
-238
-199
-220
-249
-194
-210
-330
-203
483
1825
3167
2874
724
-942
-833
-349
-399
-406
-258
-254
-254
-177
-149
-124
-31
81
189
317
493
711
915
1046
1094
1068
963
793
615
455
280
103
-15
-100
-203
-293
-333
-333
-308
-291
-307
-318
-295
-269
-264
-271
-283
-292
-302
-323
-339
-333
-330
-338
-340
-335
-338
-340
-333
-323
-313
-301
-295
-304
-307
-284
-249
-228
-215
-193
-176
-184
-205
-224
-220
-202
-214
-215
-167
-217
-348
-208
504
1873
3228
2954
836
-856
-823
-366
-393
-412
-303
-302
-296
-232
-196
-144
-64
13
123
273
444
659
886
1022
1051
1020
941
796
621
452
285
126
-2
-109
-203
-273
-327
-373
-386
-366
-348
-336
-319
-312
-317
-314
-315
-336
-351
-345
-349
-373
-387
-377
-366
-372
-382
-377
-365
-358
-354
-346
-332
-321
-326
-330
-317
-309
-324
-319
-278
-242
-219
-189
-185
-209
-223
-235
-242
-222
-230
-243
-182
-206
-366
-261
442
1805
3332
3435
1430
-589
-835
-384
-406
-466
-337
-324
-334
-252
-199
-162
-82
0
97
241
419
621
830
988
1056
1045
973
850
690
517
362
230
108
-6
-100
-172
-225
-262
-281
-276
-256
-238
-226
-216
-204
-197
-198
-201
-202
-208
-217
-219
-216
-217
-218
-214
-208
-202
-194
-185
-177
-167
-156
-146
-134
-122
-116
-109
-98
-88
-81
-74
-67
-61
-56
-48
-40
-37
-41
-52
-55
-37
-2
39
76
93
82
58
41
36
35
33
29
