# session 26
-52
-55
-72
23
165
159
78
72
82
53
34
30
12
-5
-14
-29
-46
-52
-56
-70
-88
-95
-94
-95
-97
-100
-109
-120
-126
-136
-150
-142
-103
-65
-49
-48
-63
-98
-128
-128
-131
-148
-143
-140
-166
-142
-118
-225
-254
138
1115
2497
3142
1913
-42
-674
-258
-157
-306
-247
-205
-250
-220
-182
-185
-159
-126
-118
-95
-57
-27
10
57
105
159
229
302
372
432
475
504
520
517
485
420
330
230
123
11
-89
-174
-246
-296
-319
-330
-337
-342
-342
-334
-318
-306
-301
-294
-285
-276
-271
-266
-261
-259
-261
-258
-252
-259
-271
-268
-260
-262
-261
-252
-248
-251
-252
-258
-261
-241
-198
-155
-125
-115
-129
-161
-182
-176
-174
-182
-168
-160
-178
-150
-128
-227
-261
115
1111
2498
3063
1775
-108
-654
-237
-141
-265
-200
-167
-202
-159
-130
-144
-116
-77
-62
-35
5
35
69
119
171
223
284
352
416
464
500
525
532
521
489
428
340
242
140
33
-69
-147
-200
-241
-280
-306
-309
-302
-298
-293
-283
-272
-268
-267
-259
-247
-245
-249
-243
-236
-241
-251
-252
-248
-246
-247
-247
-247
-247
-256
-267
-258
-226
-183
-142
-118
-126
-161
-192
-197
-188
-189
-185
-169
-180
-183
-145
-185
-292
-182
437
1706
2997
2772
864
-597
-497
-118
-231
-283
-182
-208
-230
-170
-149
-143
-107
-83
-67
-39
-8
31
78
116
159
224
293
356
416
462
485
499
510
503
457
376
284
194
97
-11
-109
-181
-227
-254
-274
-295
-307
-305
-293
-276
-267
-271
-267
-251
-244
-247
-244
-241
-255
-263
-249
-240
-250
-253
-246
-248
-259
-270
-276
-267
-246
-221
-184
-142
-131
-163
-197
-198
-187
-204
-219
-194
-194
-215
-178
-173
-254
-184
326
1526
2979
3011
1039
-729
-710
-189
-246
-315
-193
-208
-236
-166
-145
-151
-119
-94
-74
-31
7
42
87
132
183
245
301
356
424
481
513
535
540
517
477
414
312
193
91
-5
-105
-186
-234
-267
-294
-314
-321
-312
-296
-281
-270
-267
-272
-266
-245
-236
-246
-255
-252
-242
-241
-255
-265
-258
-256
-264
-274
-284
-282
-260
-246
-229
-177
-141
-166
-204
-210
-204
-213
-221
-202
-193
-214
-188
-159
-248
-290
20
942
2459
3339
2130
-50
-818
-332
-163
-319
-250
-185
-236
-211
-166
-162
-135
-101
-84
-59
-30
1
49
99
143
200
264
329
400
463
502
518
521
512
488
435
344
233
122
13
-87
-166
-228
-273
-297
-306
-307
-304
-302
-298
-292
-281
-267
-254
-249
-247
-246
-247
-247
-243
-244
-245
-239
-241
-255
-259
-253
-252
-253
-248
-255
-264
-252
-229
-210
-180
-142
-128
-145
-168
-170
-164
-173
-167
-149
-169
-167
-115
-175
-286
-99
613
1926
3181
2811
792
-609
-437
-96
-231
-262
-173
-207
-203
-144
-146
-144
-102
-75
-53
-18
13
47
94
146
198
256
323
398
465
510
535
551
557
547
501
416
308
198
92
-9
-102
-178
-230
-259
-274
-283
-290
-289
-279
-270
-267
-262
-251
-243
-239
-234
-232
-234
-235
-233
-232
-236
-238
-235
-233
-240
-242
-233
-226
-227
-224
-216
-209
-206
-205
-201
-194
-188
-186
-185
-181
-170
-165
-168
-164
-152
-147
-148
-144
-148
-164
-171
-159
-137
-100
-50
-25
-39
-70
-94
-99
-94
-101
-98
-82
-101
-102
-50
-108
-222
-34
664
1899
3086
2802
931
-460
-362
-39
-168
-216
-133
-166
-176
-120
-109
-100
-63
-46
-29
12
46
71
110
154
197
251
317
382
443
495
532
557
568
563
540
488
400
296
194
91
-10
-95
-157
-202
-234
-253
-258
-254
-251
-253
-249
-241
-238
-236
-227
-221
-221
-223
-226
-228
-224
-222
-231
-238
-236
-236
-239
-238
-235
-230
-224
-221
-220
-214
-206
-202
-198
-193
-194
-195
-187
-177
-172
-169
-166
-164
-157
-149
-144
-139
-138
-139
-135
-126
-122
-122
-122
-121
-117
-108
-101
-102
-103
-99
-101
-118
-129
-113
-76
-33
-1
2
-18
-46
-69
-69
-60
-77
-87
-68
-80
-89
-50
-97
-194
-16
671
1931
3129
2803
907
-456
-347
-44
-173
-209
-130
-163
-165
-111
-107
-105
-70
-43
-21
5
26
53
94
139
179
223
277
337
399
458
498
515
527
532
511
463
397
317
225
120
12
-80
-151
-208
-249
-267
-271
-276
-275
-263
-259
-264
-257
-249
-253
-245
-228
-234
-246
-239
-234
-247
-252
-247
-250
-251
-244
-242
-245
-247
-244
-235
-228
-228
-224
-214
-210
-214
-208
-190
-179
-183
-186
-179
-173
-170
-163
-153
-149
-149
-148
-144
-139
-137
-136
-129
-121
-120
-118
-118
-129
-132
-109
-69
-29
-6
-15
-46
-76
-88
-85
-90
-92
-72
-77
-97
-64
-73
-170
-102
402
1524
2900
3059
1340
-376
-509
-77
-129
-223
-126
-128
-162
-119
-101
-99
-64
-35
-14
12
36
66
108
147
186
238
301
365
418
461
503
540
558
552
530
491
419
317
211
111
14
-74
-150
-209
-246
-268
-282
-289
-293
-290
-275
-263
-260
-252
-244
-245
-241
-226
-227
-241
-240
-231
-234
-240
-239
-240
-245
-247
-245
-241
-237
-233
-230
-228
-224
-214
-206
-208
-208
-200
-195
-191
-183
-178
-176
-170
-165
-164
-159
-149
-147
-151
-145
-138
-139
-147
-159
-158
-128
-84
-45
-23
-28
-59
-90
-96
-95
-107
-105
-85
-98
-109
-66
-99
-201
-80
504
1675
2949
2860
1053
-465
-446
-64
-156
-217
-124
-143
-162
-111
-101
-97
-61
-41
-28
5
37
65
105
151
194
241
303
373
438
493
532
553
559
556
538
491
406
302
202
100
-12
-107
-171
-222
-264
-288
-298
-301
-296
-288
-283
-273
-262
-256
-248
-242
-246
-248
-240
-233
-237
-243
-244
-243
-243
-241
-241
-243
-243
-243
-244
-241
-231
-223
-220
-214
-208
-204
-201
-197
-195
-191
-183
-177
-177
-175
-169
-166
-171
-180
-184
-172
-133
-80
-45
-45
-69
-96
-112
-116
-126
-130
-108
-105
-135
-110
-81
-167
-190
171
1105
2437
3025
1806
-51
-612
-192
-88
-225
-169
-129
-165
-134
-99
-101
-80
-56
-42
-9
30
61
94
132
169
214
273
338
402
461
509
539
551
554
543
501
426
335
236
130
21
-79
-158
-213
-253
-284
-303
-308
-302
-290
-277
-269
-265
-263
-254
-242
-240
-244
-244
-244
-244
-242
-241
-248
-249
-245
-246
-249
-244
-238
-236
-234
-230
-227
-223
-215
-209
-209
-206
-194
-186
-192
-202
-207
-203
-189
-159
-112
-68
-60
-89
-121
-136
-140
-145
-147
-133
-127
-151
-136
-103
-174
-223
55
873
2199
3066
2138
143
-736
-335
-102
-237
-196
-119
-159
-148
-110
-111
-88
-50
-32
-6
24
43
73
115
157
205
263
320
377
436
488
526
544
543
533
506
442
344
241
139
30
-69
-143
-204
-252
-279
-293
-301
-294
-278
-274
-275
-271
-265
-258
-250
-247
-246
-245
-243
-241
-239
-238
-243
-249
-249
-247
-248
-250
-248
-244
-244
-241
-234
-229
-225
-216
-210
-213
-220
-222
-216
-191
-147
-106
-85
-90
-116
-149
-160
-153
-159
-161
-138
-144
-159
-121
-137
-230
-132
445
1664
2963
2797
895
-618
-524
-101
-192
-248
-144
-165
-185
-125
-111
-115
-79
-47
-30
-3
28
59
98
141
188
240
299
365
429
483
519
536
543
537
507
448
365
265
156
49
-46
-127
-191
-237
-273
-298
-302
-296
-291
-285
-274
-264
-259
-253
-243
-234
-235
-240
-239
-238
-240
-240
-238
-239
-247
-254
-247
-236
-234
-237
-237
-235
-232
-225
-218
-210
-205
-209
-214
-210
-211
-216
-192
-138
-92
-72
-80
-114
-148
-152
-142
-147
-147
-132
-146
-152
-111
-142
-239
-126
451
1627
2876
2737
926
-542
-484
-96
-187
-243
-147
-164
-183
-135
-120
-107
-70
-53
-36
2
30
55
96
142
188
244
303
361
426
490
531
547
551
548
523
463
374
271
163
55
-44
-125
-189
-237
-270
-286
-290
-290
-284
-275
-269
-264
-256
-251
-246
-241
-242
-244
-237
-234
-240
-240
-237
-244
-251
-248
-247
-251
-252
-246
-242
-240
-234
-225
-223
-222
-208
-201
-215
-232
-232
-210
-167
-119
-86
-78
-97
-130
-150
-143
-141
-155
-144
-133
-154
-138
-104
-185
-237
75
954
2268
2984
1944
56
-665
-266
-94
-231
-193
-141
-180
-154
-115
-120
-100
-67
-51
-25
11
38
73
115
158
206
261
323
392
452
489
513
531
534
517
479
411
319
218
116
12
-80
-150
-203
-245
-275
-289
-291
-285
-275
-265
-258
-253
-252
-251
-244
-233
-225
-227
-236
-239
-234
-236
-240
-236
-233
-239
-239
-234
-235
-236
-230
-225
-221
-212
-203
-199
-198
-196
-194
-195
-203
-211
-196
-157
-114
-84
-74
-93
-130
-149
-133
-126
-144
-141
-126
-138
-122
-98
-179
-223
89
976
2305
3004
1928
46
-644
-246
-88
-223
-186
-143
-184
-156
-109
-106
-91
-63
-41
-12
12
37
78
125
161
201
256
318
376
430
479
509
518
521
520
496
433
339
234
133
35
-55
-130
-190
-237
-265
-274
-272
-266
-264
-264
-255
-241
-237
-238
-234
-230
-230
-228
-232
-241
-241
-234
-236
-244
-246
-245
-245
-241
-234
-233
-239
-247
-244
-234
-226
-219
-212
-223
-262
-293
-278
-230
-189
-167
-156
-169
-214
-243
-219
-191
-188
-170
-158
-172
-148
-129
-204
-199
194
1226
2654
3087
1547
-378
-737
-213
-144
-264
-167
-133
-174
-132
-98
-97
-65
-42
-36
-4
36
63
101
149
193
236
288
344
402
459
509
541
551
547
527
484
412
317
209
102
1
-87
-158
-212
-247
-268
-286
-293
-284
-273
-271
-266
-254
-246
-245
-244
-238
-231
-228
-229
-231
-232
-234
-240
-248
-257
-261
-255
-245
-244
-249
-244
-230
-222
-220
-214
-209
-213
-224
-228
-218
-184
-134
-99
-99
-123
-152
-168
-170
-179
-182
-156
-149
-165
-137
-137
-227
-179
291
1396
2826
3110
1423
-427
-651
-159
-153
-257
-163
-159
-196
-142
-117
-121
-87
-55
-42
-17
16
47
85
130
178
230
289
351
412
469
521
554
564
558
532
474
393
295
180
65
-31
-113
-190
-247
-275
-290
-298
-295
-288
-284
-281
-272
-262
-256
-252
-247
-246
-248
-245
-240
-238
-238
-240
-245
-248
-249
-248
-242
-233
-232
-239
-242
-239
-233
-226
-219
-214
-207
-198
-192
-186
-180
-181
-191
-200
-203
-190
-157
-108
-65
-56
-85
-123
-139
-133
-133
-138
-121
-118
-149
-126
-88
-174
-218
125
1030
2346
3040
1971
80
-624
-232
-85
-227
-182
-131
-172
-148
-110
-112
-89
-55
-38
-10
25
54
89
127
171
231
297
352
409
471
518
546
566
574
562
525
457
363
260
157
52
-47
-123
-179
-223
-253
-270
-278
-276
-267
-262
-260
-251
-238
-232
-228
-227
-227
-221
-215
-223
-233
-233
-230
-232
-231
-228
-229
-231
-230
-229
-228
-223
-215
-209
-201
-190
-189
-198
-200
-191
-186
-184
-175
-159
-148
-153
-163
-165
-166
-175
-182
-165
-123
-73
-42
-45
-71
-105
-127
-119
-109
-121
-119
-113
-138
-115
-63
-140
-206
84
916
2215
3050
2153
228
-629
-269
-69
-212
-185
-133
-184
-164
-113
-116
-107
-71
-47
-30
-9
21
66
105
136
184
245
297
352
417
469
500
520
530
527
510
463
374
267
167
68
-39
-130
-191
-239
-279
-297
-297
-301
-303
-292
-279
-272
-265
-253
-246
-255
-267
-263
-251
-253
-262
-260
-252
-249
-254
-263
-273
-278
-272
-261
-256
-259
-256
-242
-234
-234
-233
-233
-236
-233
-232
-225
-193
-145
-114
-106
-105
-119
-153
-169
-155
-158
-169
-155
-151
-155
-115
-128
-211
-120
392
1533
2923
2995
1116
-651
-686
-157
-179
-253
-134
-133
-162
-109
-92
-87
-40
-17
-10
24
61
91
137
184
224
278
347
407
462
525
578
601
601
591
559
498
407
295
178
66
-39
-128
-197
-246
-277
-290
-299
-313
-317
-304
-291
-282
-267
-250
-246
-248
-244
-239
-236
-237
-240
-241
-241
-249
-260
-261
-259
-261
-256
-250
-252
-250
-241
-240
-242
-233
-224
-221
-211
-201
-204
-209
-213
-218
-211
-183
-143
-103
-78
-82
-109
-144
-161
-153
-153
-157
-138
-144
-154
-107
-129
-239
-121
468
1642
2992
3031
1201
-487
-536
-100
-179
-263
-158
-165
-193
-146
-132
-130
-94
-70
-50
-12
21
48
87
136
190
244
303
372
445
510
561
593
607
612
593
531
433
317
190
68
-43
-140
-214
-259
-290
-315
-328
-330
-330
-322
-308
-301
-298
-288
-275
-269
-263
-255
-252
-254
-256
-257
-256
-255
-256
-252
-246
-256
-268
-261
-249
-245
-241
-234
-228
-221
-213
-208
-208
-206
-195
-182
-180
-184
-181
-175
-179
-190
-198
-184
-142
-90
-57
-56
-73
-89
-105
-115
-115
-124
-125
-102
-113
-125
-72
-95
-209
-69
569
1729
2939
2857
1109
-411
-425
-42
-130
-204
-113
-127
-147
-92
-74
-70
-35
-13
4
42
73
93
130
178
224
276
337
405
475
538
583
610
624
621
599
554
472
355
236
126
17
-79
-147
-198
-236
-256
-268
-280
-279
-267
-264
-267
-262
-250
-241
-232
-224
-221
-223
-226
-229
-227
-222
-224
-235
-243
-242
-239
-241
-243
-242
-241
-235
-228
-227
-225
-213
-203
-208
-214
-210
-204
-201
-196
-191
-188
-188
-186
-179
-177
-177
-173
-171
-181
-193
-201
-197
-168
-118
-77
-64
-81
-113
-143
-151
-140
-143
-157
-148
-150
-173
-141
-127
-229
-216
231
1238
2538
2959
1621
-143
-574
-190
-158
-280
-211
-186
-220
-185
-157
-155
-133
-115
-96
-60
-33
-15
19
64
111
164
223
288
355
418
473
511
527
537
539
510
443
353
252
147
44
-53
-129
-182
-220
-244
-253
-253
-251
-245
-236
-223
-205
-194
-192
-185
-169
-159
-156
-149
-143
-141
-136
-129
-129
-129
-121
-115
-112
-102
-91
-88
-83
-71
-60
-56
-51
-41
-27
