# session 21
-25
1
-50
-8
235
464
512
501
517
496
433
367
286
198
110
2
-109
-186
-233
-266
-284
-295
-300
-298
-294
-283
-266
-265
-279
-277
-258
-258
-281
-296
-295
-292
-286
-277
-278
-285
-281
-273
-280
-292
-288
-276
-258
-226
-183
-151
-148
-178
-203
-197
-193
-193
-172
-182
-206
-154
-144
-255
-226
237
1372
2925
3315
1531
-529
-832
-290
-260
-365
-245
-217
-252
-194
-156
-151
-105
-66
-52
-11
51
104
154
217
302
402
487
544
596
644
653
622
587
546
468
364
262
160
57
-39
-117
-171
-208
-231
-231
-221
-228
-241
-235
-228
-239
-246
-239
-237
-245
-251
-257
-271
-292
-306
-309
-308
-298
-285
-298
-325
-317
-283
-260
-243
-220
-204
-212
-242
-253
-234
-226
-227
-230
-244
-212
-174
-255
-299
42
1041
2596
3391
2017
-266
-1022
-491
-290
-411
-317
-255
-292
-235
-193
-219
-185
-121
-97
-65
-4
52
104
169
247
342
444
528
594
646
663
637
588
517
411
297
198
94
-29
-136
-203
-256
-305
-322
-310
-297
-294
-297
-304
-304
-294
-291
-291
-281
-276
-290
-307
-320
-328
-327
-322
-319
-322
-332
-336
-326
-325
-329
-300
-253
-228
-231
-248
-257
-258
-265
-254
-230
-256
-257
-192
-244
-359
-154
624
2050
3384
2917
660
-876
-662
-253
-369
-370
-243
-272
-285
-220
-200
-190
-142
-102
-76
-28
47
117
176
248
336
435
544
632
670
682
684
656
595
512
403
277
164
56
-62
-162
-217
-255
-292
-304
-294
-296
-298
-284
-278
-288
-286
-271
-270
-287
-293
-284
-281
-293
-304
-308
-311
-311
-313
-319
-317
-312
-314
-311
-295
-276
-249
-214
-184
-174
-192
-224
-226
-209
-212
-201
-186
-207
-188
-158
-268
-328
37
1034
2610
3621
2505
179
-828
-419
-223
-383
-323
-251
-294
-257
-205
-212
-184
-132
-106
-70
-15
41
106
178
255
347
450
546
620
665
680
672
642
582
493
388
277
160
40
-67
-151
-218
-266
-293
-304
-308
-307
-302
-295
-290
-288
-289
-290
-289
-285
-280
-283
-291
-297
-300
-307
-311
-311
-309
-307
-304
-300
-294
-287
-281
-273
-265
-267
-279
-280
-262
-238
-210
-173
-144
-144
-167
-182
-175
-179
-188
-167
-165
-190
-146
-134
-272
-258
245
1347
2821
3389
1925
-144
-717
-286
-225
-358
-276
-242
-277
-229
-189
-185
-148
-110
-87
-47
5
55
116
189
273
366
462
549
617
657
666
655
625
566
478
372
259
144
33
-71
-158
-220
-260
-288
-304
-308
-304
-300
-296
-289
-282
-278
-276
-274
-272
-272
-274
-278
-280
-281
-282
-282
-281
-281
-280
-277
-271
-263
-254
-249
-244
-238
-236
-244
-256
-258
-241
-212
-176
-138
-117
-130
-159
-165
-154
-163
-162
-138
-157
-171
-117
-158
-290
-131
568
1796
3010
2843
1004
-544
-559
-183
-264
-324
-229
-238
-249
-193
-176
-165
-124
-95
-70
-24
25
72
131
201
280
368
455
529
582
610
613
594
556
495
410
310
207
104
-2
-94
-164
-215
-253
-272
-278
-279
-279
-276
-268
-260
-256
-257
-256
-256
-259
-260
-260
-263
-266
-267
-269
-271
-271
-269
-269
-270
-270
-264
-257
-250
-244
-243
-253
-261
-254
-235
-206
-167
-130
-120
-147
-174
-172
-167
-171
-154
-156
-188
-155
-131
-250
-271
176
1242
2650
3160
1765
-182
-717
-291
-212
-333
-254
-226
-271
-221
-169
-173
-153
-112
-79
-41
-4
31
86
157
231
313
398
466
519
561
581
579
557
506
430
347
261
161
52
-51
-134
-193
-231
-257
-270
-273
-279
-280
-270
-267
-268
-259
-255
-269
-281
-282
-283
-281
-277
-288
-302
-301
-294
-301
-306
-301
-299
-299
-291
-286
-276
-233
-179
-179
-222
-229
-200
-208
-233
-209
-194
-225
-207
-181
-249
-236
132
1132
2680
3349
1819
-385
-944
-391
-262
-380
-278
-242
-292
-244
-195
-178
-135
-104
-86
-39
8
49
108
172
243
339
438
509
561
595
598
580
558
526
451
330
211
119
20
-83
-154
-206
-256
-277
-267
-269
-281
-277
-261
-254
-256
-260
-263
-258
-255
-270
-291
-293
-288
-300
-312
-310
-311
-314
-310
-308
-292
-254
-232
-239
-245
-248
-251
-253
-257
-244
-239
-255
-223
-195
-276
-271
131
1166
2697
3355
1835
-407
-1016
-441
-279
-411
-320
-267
-306
-249
-201
-208
-172
-122
-103
-71
-18
44
124
198
260
354
473
560
614
658
675
657
609
529
427
314
184
61
-35
-128
-218
-273
-303
-328
-329
-312
-304
-303
-296
-291
-288
-279
-278
-288
-292
-289
-292
-306
-321
-320
-312
-320
-333
-334
-335
-320
-282
-256
-259
-266
-267
-272
-287
-280
-261
-274
-262
-199
-244
-341
-161
527
1875
3280
3004
813
-838
-690
-245
-359
-398
-280
-300
-303
-233
-219
-206
-155
-121
-87
-34
10
60
143
237
327
429
532
610
661
690
695
669
605
509
401
294
168
22
-102
-179
-232
-282
-316
-329
-326
-319
-319
-319
-303
-281
-282
-293
-291
-283
-282
-284
-293
-311
-318
-317
-325
-328
-317
-312
-304
-266
-231
-243
-274
-274
-266
-279
-274
-250
-274
-273
-210
-265
-373
-168
582
2012
3448
3083
801
-827
-651
-255
-397
-415
-291
-322
-331
-269
-257
-236
-181
-149
-116
-66
-22
41
127
206
291
407
516
587
638
666
654
620
571
485
369
254
134
5
-103
-181
-250
-306
-328
-333
-346
-353
-339
-323
-320
-314
-305
-304
-304
-293
-284
-291
-300
-299
-295
-297
-301
-304
-308
-315
-318
-312
-300
-277
-241
-208
-200
-222
-241
-226
-214
-225
-210
-202
-225
-186
-162
-307
-352
91
1193
2806
3644
2292
-2
-813
-368
-237
-391
-322
-272
-314
-269
-219
-218
-188
-145
-116
-71
-17
33
93
170
259
359
461
554
631
679
691
678
642
574
474
359
241
121
2
-105
-188
-249
-292
-320
-334
-338
-336
-326
-315
-307
-300
-291
-283
-281
-282
-281
-278
-280
-285
-287
-287
-290
-292
-291
-290
-288
-280
-272
-269
-264
-255
-250
-245
-236
-229
-235
-249
-254
-241
-214
-183
-150
-119
-116
-145
-162
-149
-153
-164
-141
-145
-172
-120
-123
-273
-196
421
1568
2928
3271
1709
-209
-620
-206
-201
-322
-233
-211
-241
-189
-154
-149
-113
-77
-52
-9
40
87
146
215
294
385
480
567
635
676
693
692
669
615
532
433
328
216
102
-2
-85
-145
-185
-210
-224
-231
-233
-232
-228
-223
-217
-213
-210
-210
-210
-208
-209
-214
-217
-216
-219
-226
-228
-225
-226
-226
-220
-214
-209
-201
-195
-192
-188
-182
-178
-173
-163
-151
-149
-152
-151
-146
-143
-140
-134
-130
-126
-123
-123
-119
-109
-110
-123
-126
-115
-109
-107
-103
-97
-94
-94
-97
-99
-100
-96
-90
-88
-92
-92
-88
-86
-87
-84
-83
-81
-80
-87
-97
-90
-65
-40
-20
3
13
-12
-51
-60
-59
-77
-78
-73
-90
-62
-45
-168
-204
189
1149
2597
3477
2388
232
-676
-310
-163
-321
-265
-203
-251
-226
-184
-185
-155
-106
-80
-55
-21
18
63
113
175
255
342
422
487
535
589
630
616
577
557
522
442
346
250
149
52
-45
-141
-209
-243
-258
-265
-274
-285
-276
-258
-260
-269
-263
-267
-287
-290
-281
-289
-303
-310
-320
-328
-326
-323
-327
-334
-336
-329
-319
-318
-315
-303
-297
-297
-291
-279
-268
-261
-259
-250
-231
-230
-247
-250
-235
-232
-235
-210
-164
-127
-107
-102
-126
-170
-178
-159
-169
-172
-154
-168
-156
-115
-186
-233
108
1057
2520
3383
2222
-22
-933
-456
-191
-314
-262
-189
-214
-179
-135
-130
-103
-67
-34
14
60
107
169
225
282
374
485
583
670
752
794
784
749
697
608
492
373
257
133
6
-104
-183
-242
-286
-312
-321
-315
-302
-304
-310
-292
-272
-275
-281
-273
-269
-272
-273
-277
-285
-285
-282
-290
-300
-296
-297
-312
-316
-302
-292
-286
-273
-264
-264
-260
-259
-265
-269
-266
-250
-217
-178
-147
-127
-129
-160
-189
-193
-197
-195
-173
-182
-208
-159
-150
-266
-209
351
1558
3043
3304
1488
-514
-790
-266
-241
-351
-253
-232
-258
-205
-173
-164
-124
-86
-56
-15
28
75
135
213
312
416
503
595
700
774
787
768
735
677
580
455
322
191
58
-65
-154
-224
-287
-314
-306
-320
-347
-337
-309
-308
-315
-307
-295
-286
-278
-276
-279
-285
-293
-294
-289
-298
-310
-307
-303
-309
-308
-297
-288
-285
-287
-287
-281
-275
-266
-253
-253
-263
-255
-232
-210
-182
-151
-137
-136
-144
-170
-190
-193
-189
-168
-168
-196
-159
-140
-259
-247
234
1315
2815
3453
1978
-211
-837
-339
-223
-352
-264
-225
-266
-221
-185
-184
-139
-97
-74
-27
19
47
106
194
271
352
463
580
671
730
761
768
747
689
597
485
363
232
99
-14
-102
-184
-259
-303
-320
-328
-329
-321
-311
-306
-296
-278
-270
-279
-288
-288
-284
-284
-285
-281
-282
-297
-307
-301
-304
-319
-314
-293
-289
-299
-294
-273
-261
-265
-266
-259
-269
-283
-257
-201
-168
-157
-142
-138
-167
-190
-183
-188
-204
-182
-178
-213
-171
-137
-263
-268
190
1220
2714
3482
2137
-108
-853
-357
-208
-363
-288
-230
-272
-233
-187
-184
-150
-110
-89
-48
4
46
98
169
245
334
446
559
643
704
749
762
735
681
604
498
371
244
125
9
-103
-192
-239
-267
-299
-322
-319
-307
-300
-290
-277
-269
-266
-267
-270
-270
-269
-273
-280
-282
-288
-296
-289
-283
-293
-298
-285
-279
-288
-283
-267
-265
-269
-257
-241
-235
-231
-226
-227
-231
-229
-228
-226
-203
-156
-118
-108
-113
-127
-149
-156
-156
-173
-170
-148
-172
-164
-102
-182
-294
-30
768
2130
3409
2970
782
-721
-527
-164
-308
-325
-218
-256
-254
-181
-169
-164
-123
-95
-67
-19
30
77
137
210
294
391
496
594
670
716
732
725
702
653
562
445
325
202
75
-40
-131
-199
-250
-281
-297
-304
-305
-302
-296
-286
-279
-280
-280
-271
-260
-257
-262
-276
-290
-293
-290
-291
-293
-294
-296
-303
-303
-296
-288
-280
-268
-258
-255
-250
-243
-237
-231
-223
-215
-209
-204
-201
-195
-192
-201
-214
-210
-182
-141
-100
-76
-76
-97
-129
-143
-135
-140
-146
-124
-134
-152
-101
-128
-264
-149
466
1652
3097
3344
1560
-369
-626
-187
-236
-341
-235
-230
-257
-194
-171
-177
-136
-94
-69
-35
3
48
111
182
254
340
437
537
628
692
725
727
705
662
591
487
370
257
142
23
-84
-170
-231
-266
-285
-296
-298
-292
-287
-283
-274
-267
-264
-266
-266
-265
-267
-274
-278
-282
-290
-294
-293
-294
-297
-297
-295
-291
-283
-273
-269
-267
-262
-256
-249
-240
-233
-229
-223
-214
-207
-204
-200
-193
-192
-205
-221
-218
-189
-146
-103
-78
-78
-95
-118
-132
-129
-137
-141
-119
-128
-151
-99
-106
-243
-172
399
1539
2936
3245
1606
-291
-628
-212
-230
-339
-244
-238
-271
-213
-184
-187
-145
-105
-82
-40
12
59
113
182
259
343
434
527
613
677
707
710
697
663
596
502
392
277
162
51
-56
-147
-213
-250
-266
-274
-281
-280
-269
-259
-261
-264
-257
-248
-247
-254
-257
-259
-263
-272
-281
-281
-276
-280
-285
-283
-282
-282
-278
-278
-278
-258
-236
-240
-252
-246
-233
-226
-219
-211
-206
-200
-196
-203
-219
-222
-200
-162
-124
-96
-85
-97
-129
-153
-148
-149
-160
-146
-145
-167
-131
-126
-234
-194
287
1383
2853
3279
1641
-373
-756
-261
-222
-338
-243
-219
-248
-195
-167
-171
-133
-97
-77
-41
7
53
105
164
227
304
399
490
561
615
652
662
653
630
580
495
388
274
166
58
-50
-138
-196
-242
-273
-278
-280
-285
-280
-275
-282
-273
-243
-236
-258
-268
-259
-261
-277
-288
-291
-291
-289
-293
-302
-299
-289
-288
-290
-284
-273
-269
-270
-265
-253
-246
-247
-250
-251
-245
-223
-190
-158
-128
-115
-129
-156
-172
-176
-185
-182
-154
-156
-184
-150
-137
-233
-196
272
1366
2852
3289
1628
-428
-814
-282
-222
-339
-236
-204
-240
-187
-151
-152
-115
-71
-43
-8
32
74
126
184
252
337
426
510
588
649
685
691
667
619
553
465
361
253
145
34
-68
-149
-210
-251
-269
-274
-274
-265
-257
-258
-256
-248
-246
-247
-246
-251
-260
-263
-264
-269
-274
-278
-284
-288
-290
-291
-290
-283
-278
-276
-271
-261
-255
-255
-251
-240
-231
-227
-229
-235
-243
-236
-200
-151
-119
-108
-115
-142
-171
-171
-166
-177
-167
-156
-182
-161
-122
-219
-277
68
996
2430
3336
2307
158
-788
-397
-189
-340
-297
-226
-265
-236
-188
-190
-167
-121
-94
-61
-19
23
75
134
200
281
375
471
560
631
672
685
679
650
588
495
388
278
163
46
-63
-152
-221
-267
-292
-302
-303
-300
-295
-290
-283
-280
-278
-274
-273
-275
-278
-281
-286
-290
-292
-295
-295
-295
-299
-302
-298
-290
-286
-283
-276
-270
-265
-257
-252
-256
-267
-265
-233
-184
-143
-124
-125
-146
-175
-182
-174
-182
-182
-162
-177
-185
-130
-168
-293
-152
513
1775
3092
2949
1014
-597
-584
-182
-269
-322
-216
-229
-240
-180
-164
-153
-109
-81
-57
-11
31
73
130
196
269
359
457
546
619
670
692
688
663
611
530
430
325
217
104
-5
-96
-166
-221
-256
-270
-273
-273
-270
-262
-253
-248
-246
-244
-245
-249
-250
-250
-255
-261
-264
-266
-270
-273
-273
-273
-273
-271
-265
-260
-260
-258
-250
-251
-267
-278
-264
-228
-182
-141
-121
-127
-156
-187
-193
-188
-201
-203
-182
-199
-204
-158
-216
-334
-150
585
1905
3101
2674
652
-745
-580
-223
-338
-374
-288
-310
-311
-258
-244
-226
-191
-172
-141
-92
-48
-2
41
81
151
250
341
411
469
516
544
548
524
477
413
330
232
130
29
-69
-156
-225
-271
-289
-289
-286
-284
-278
-269
-251
-228
-218
-215
-205
-197
-193
-180
-166
-163
-157
-143
-136
