# session 24
-15
-11
-24
-23
11
36
22
6
9
3
-13
-22
-31
-43
-51
-58
-71
-81
-89
-99
-102
-98
-101
-112
-114
-110
-112
-118
-118
-111
-108
-116
-122
-114
-107
-112
-118
-115
-113
-118
-119
-117
-119
-120
-116
-113
-116
-119
-117
-114
-114
-112
-111
-113
-117
-116
-111
-113
-118
-122
-130
-132
-113
-77
-42
-18
-19
-52
-84
-90
-97
-110
-94
-93
-121
-93
-82
-194
-182
263
1282
2690
3254
1877
-81
-607
-191
-152
-293
-209
-178
-225
-182
-144
-153
-130
-93
-75
-49
-12
23
63
108
155
209
274
339
393
433
458
467
463
450
423
374
304
223
143
62
-23
-103
-167
-214
-245
-259
-263
-264
-262
-256
-251
-248
-245
-242
-242
-246
-250
-252
-254
-256
-260
-264
-269
-272
-272
-273
-276
-278
-275
-267
-257
-249
-244
-240
-238
-234
-223
-214
-210
-204
-197
-196
-192
-183
-177
-180
-189
-198
-189
-150
-99
-61
-46
-59
-94
-116
-108
-112
-129
-114
-109
-130
-94
-79
-192
-156
352
1368
2572
2881
1521
-188
-569
-162
-115
-230
-165
-141
-170
-128
-98
-99
-74
-43
-17
17
46
75
121
172
224
285
351
413
470
513
533
533
519
491
444
375
288
194
99
6
-78
-148
-204
-241
-263
-276
-280
-273
-265
-261
-255
-248
-245
-243
-241
-241
-238
-232
-234
-242
-244
-246
-252
-250
-247
-254
-255
-246
-242
-241
-234
-228
-226
-221
-213
-206
-201
-201
-208
-218
-226
-210
-160
-102
-72
-71
-93
-130
-145
-136
-143
-149
-129
-141
-158
-113
-134
-236
-80
585
1707
2723
2473
819
-496
-454
-104
-179
-237
-155
-167
-182
-133
-116
-110
-76
-50
-31
1
35
71
115
160
208
267
332
388
428
459
474
471
456
430
379
311
235
149
56
-26
-95
-160
-208
-232
-243
-248
-246
-242
-239
-233
-231
-231
-227
-220
-220
-223
-223
-222
-226
-231
-235
-236
-239
-242
-243
-239
-236
-234
-231
-224
-217
-214
-215
-218
-221
-226
-231
-218
-170
-112
-82
-83
-104
-136
-155
-151
-148
-148
-139
-152
-173
-139
-130
-218
-193
251
1305
2590
2759
1181
-473
-651
-189
-174
-271
-180
-159
-187
-147
-121
-120
-88
-55
-34
-7
23
57
95
132
180
241
295
343
385
413
426
432
424
402
367
311
241
173
95
4
-75
-133
-182
-217
-231
-235
-238
-239
-236
-232
-223
-216
-217
-217
-215
-219
-228
-236
-235
-229
-237
-254
-256
-248
-249
-250
-244
-238
-236
-239
-241
-228
-196
-154
-120
-122
-155
-181
-183
-191
-198
-180
-180
-206
-178
-142
-193
-186
154
1114
2570
3145
1632
-488
-992
-388
-207
-319
-224
-169
-208
-168
-130
-136
-109
-74
-51
-16
19
50
95
146
193
246
303
356
402
435
449
445
430
403
354
282
204
129
48
-39
-115
-175
-220
-248
-259
-262
-260
-252
-243
-239
-236
-229
-224
-224
-223
-221
-225
-230
-232
-239
-249
-254
-252
-254
-258
-258
-258
-265
-276
-276
-260
-233
-194
-151
-133
-159
-198
-207
-203
-209
-198
-182
-211
-206
-150
-220
-322
-81
720
2096
3242
2616
505
-733
-442
-141
-299
-300
-207
-251
-250
-193
-187
-173
-130
-106
-80
-40
-1
42
94
154
223
296
367
436
491
520
528
523
505
461
386
292
191
82
-27
-120
-191
-245
-283
-304
-308
-303
-297
-291
-284
-280
-274
-263
-259
-263
-263
-258
-258
-263
-267
-267
-266
-270
-273
-274
-280
-285
-276
-251
-216
-176
-148
-155
-192
-218
-213
-211
-217
-199
-193
-211
-182
-165
-265
-276
142
1209
2661
3159
1706
-226
-696
-253
-192
-319
-245
-217
-254
-209
-174
-175
-141
-105
-89
-56
-12
23
62
115
174
234
298
362
416
451
466
466
453
424
373
298
212
125
31
-64
-143
-201
-243
-270
-280
-281
-278
-272
-266
-258
-249
-245
-243
-242
-245
-243
-235
-232
-242
-255
-260
-257
-256
-257
-266
-285
-289
-264
-232
-203
-166
-140
-156
-191
-204
-199
-206
-206
-189
-195
-203
-166
-180
-265
-187
336
1514
2887
2925
1125
-539
-615
-187
-244
-324
-220
-215
-237
-184
-164
-166
-133
-101
-77
-45
-15
16
65
122
168
220
291
353
384
401
425
439
426
388
339
285
228
155
55
-53
-132
-182
-220
-250
-266
-272
-268
-252
-236
-233
-236
-236
-238
-243
-241
-233
-229
-230
-239
-256
-265
-256
-254
-270
-273
-248
-238
-248
-221
-166
-158
-199
-215
-196
-200
-214
-196
-191
-217
-190
-157
-219
-214
148
1154
2683
3324
1799
-401
-966
-385
-225
-347
-249
-194
-233
-189
-151
-161
-137
-101
-69
-25
5
23
68
127
177
235
302
352
383
413
439
443
426
391
338
272
203
124
34
-55
-128
-182
-227
-263
-277
-275
-276
-277
-263
-244
-239
-241
-236
-226
-225
-231
-234
-235
-236
-240
-246
-251
-253
-259
-267
-269
-270
-271
-266
-257
-242
-210
-167
-146
-162
-191
-200
-197
-207
-197
-177
-202
-204
-150
-209
-320
-135
597
1980
3257
2757
603
-765
-496
-141
-291
-306
-209
-248
-246
-185
-180
-167
-122
-100
-79
-38
4
45
94
147
207
277
348
413
463
491
503
504
491
452
382
293
199
100
-2
-96
-170
-225
-263
-288
-299
-298
-294
-289
-280
-270
-263
-258
-251
-248
-248
-249
-249
-252
-256
-259
-260
-261
-263
-266
-266
-271
-282
-285
-272
-257
-237
-199
-163
-154
-171
-191
-193
-189
-195
-180
-164
-189
-171
-124
-221
-310
13
961
2413
3332
2353
249
-713
-350
-140
-289
-259
-195
-235
-210
-163
-161
-135
-99
-83
-50
-2
33
73
128
187
252
325
398
460
505
527
531
524
506
459
378
281
181
79
-20
-106
-177
-231
-268
-289
-298
-301
-300
-292
-279
-267
-256
-242
-231
-229
-229
-227
-224
-225
-229
-233
-232
-235
-238
-234
-228
-231
-233
-227
-222
-218
-212
-207
-201
-195
-191
-186
-177
-172
-170
-166
-162
-158
-151
-151
-165
-178
-177
-158
-119
-68
-32
-28
-53
-87
-104
-100
-104
-108
-94
-107
-121
-71
-89
-206
-97
495
1601
2787
2786
1147
-390
-478
-93
-152
-233
-144
-149
-171
-121
-104
-103
-66
-37
-20
13
46
75
117
167
218
273
333
390
440
479
502
504
492
474
444
385
307
229
149
54
-41
-109
-152
-185
-213
-225
-224
-220
-219
-222
-220
-218
-216
-206
-195
-202
-216
-214
-209
-216
-224
-224
-225
-230
-230
-227
-228
-230
-233
-232
-222
-209
-208
-215
-214
-206
-196
-187
-185
-186
-182
-178
-182
-174
-157
-155
-161
-154
-144
-147
-152
-156
-156
-155
-154
-140
-102
-60
-44
-50
-62
-81
-104
-115
-124
-127
-109
-108
-122
-95
-102
-182
-117
336
1398
2819
3128
1428
-467
-693
-165
-155
-271
-166
-149
-191
-147
-119
-112
-73
-52
-40
-1
29
50
97
147
184
238
306
362
408
453
480
486
483
472
444
394
325
242
154
66
-24
-110
-174
-215
-242
-260
-265
-260
-257
-259
-255
-247
-246
-245
-238
-235
-240
-243
-244
-248
-255
-263
-271
-270
-266
-274
-283
-280
-272
-268
-263
-261
-257
-250
-244
-241
-236
-236
-242
-239
-216
-182
-146
-111
-96
-114
-152
-173
-166
-164
-171
-151
-144
-172
-147
-117
-213
-240
143
1152
2630
3298
1918
-187
-794
-282
-145
-282
-203
-157
-202
-162
-118
-118
-89
-56
-40
-6
37
74
117
166
217
281
356
425
485
534
561
567
556
531
480
402
308
207
106
7
-84
-159
-213
-249
-273
-288
-292
-288
-280
-273
-265
-254
-242
-237
-234
-229
-225
-225
-223
-223
-228
-233
-233
-236
-245
-248
-245
-242
-243
-241
-236
-231
-225
-216
-209
-207
-205
-198
-192
-193
-191
-185
-186
-199
-208
-194
-153
-104
-70
-60
-71
-99
-125
-127
-126
-137
-127
-113
-140
-128
-84
-168
-238
78
933
2216
3073
2243
297
-658
-323
-90
-236
-221
-148
-184
-169
-122
-121
-102
-67
-49
-22
15
43
84
138
182
232
302
374
438
495
528
532
525
515
487
430
347
254
164
72
-24
-107
-167
-214
-249
-273
-289
-290
-278
-273
-276
-270
-256
-247
-247
-249
-247
-241
-241
-245
-243
-240
-249
-259
-258
-251
-247
-253
-265
-259
-238
-235
-246
-241
-227
-222
-224
-224
-225
-223
-209
-179
-135
-101
-100
-121
-148
-165
-162
-161
-170
-166
-170
-181
-140
-133
-229
-190
263
1321
2763
3182
1558
-428
-774
-242
-182
-290
-196
-185
-226
-168
-136
-142
-101
-59
-48
-26
11
51
97
148
201
263
330
390
446
497
529
534
523
501
455
380
287
191
91
-11
-104
-178
-236
-278
-300
-308
-309
-304
-295
-287
-278
-270
-263
-256
-247
-243
-244
-242
-239
-240
-243
-247
-251
-255
-257
-257
-259
-259
-258
-259
-255
-246
-247
-261
-267
-248
-215
-179
-144
-123
-134
-169
-187
-178
-180
-190
-172
-175
-198
-151
-147
-284
-253
295
1487
2970
3327
1662
-298
-648
-193
-198
-320
-223
-207
-247
-199
-167
-167
-135
-103
-80
-43
-6
29
83
145
208
284
368
449
524
582
611
617
605
570
504
409
296
177
58
-54
-151
-225
-275
-311
-334
-343
-342
-337
-328
-318
-311
-302
-290
-281
-277
-272
-269
-269
-270
-272
-274
-274
-276
-278
-278
-274
-273
-272
-270
-267
-265
-269
-278
-275
-254
-217
-172
-139
-140
-169
-195
-195
-188
-198
-195
-173
-194
-196
-138
-200
-327
-120
666
2048
3301
2862
767
-659
-471
-123
-269
-302
-206
-238
-240
-182
-176
-166
-121
-97
-75
-33
5
46
104
165
227
302
382
457
520
565
582
578
561
524
453
354
245
131
15
-94
-183
-245
-283
-309
-323
-323
-317
-312
-304
-293
-284
-278
-274
-271
-265
-259
-258
-259
-260
-263
-264
-263
-262
-264
-265
-261
-256
-255
-255
-249
-237
-232
-238
-251
-255
-238
-202
-158
-119
-103
-120
-154
-170
-159
-159
-167
-147
-147
-172
-133
-121
-245
-231
272
1426
2910
3315
1702
-255
-627
-166
-159
-290
-202
-187
-229
-180
-147
-150
-117
-81
-62
-29
13
50
93
145
204
273
349
425
489
535
562
571
565
541
489
407
306
196
84
-24
-120
-195
-249
-285
-302
-305
-304
-300
-296
-293
-287
-277
-270
-268
-264
-263
-267
-269
-270
-273
-277
-281
-284
-283
-281
-282
-281
-277
-273
-268
-265
-264
-260
-262
-271
-265
-234
-192
-155
-130
-133
-165
-192
-188
-183
-197
-187
-167
-191
-186
-138
-211
-307
-47
822
2242
3243
2394
301
-739
-378
-123
-283
-266
-188
-232
-218
-163
-158
-140
-103
-83
-54
-11
25
65
114
168
231
302
371
434
485
516
530
529
510
469
406
323
229
130
28
-69
-146
-198
-236
-262
-270
-267
-264
-262
-253
-244
-238
-236
-235
-234
-234
-235
-239
-240
-242
-248
-255
-258
-259
-262
-262
-259
-253
-249
-246
-241
-235
-241
-254
-252
-227
-194
-158
-124
-111
-134
-166
-171
-160
-168
-165
-145
-161
-164
-111
-150
-261
-99
621
1935
3094
2631
650
-661
-449
-95
-220
-249
-157
-190
-197
-145
-141
-132
-91
-68
-52
-17
21
59
103
152
210
273
335
397
448
472
482
485
472
436
382
308
219
127
35
-57
-135
-192
-234
-260
-270
-269
-264
-256
-248
-243
-240
-235
-230
-232
-234
-230
-231
-237
-240
-240
-246
-253
-253
-253
-258
-258
-251
-244
-249
-263
-270
-260
-241
-217
-179
-141
-137
-167
-191
-190
-187
-190
-178
-171
-189
-174
-151
-218
-242
96
1057
2417
2932
1618
-232
-725
-268
-151
-277
-218
-182
-217
-179
-142
-146
-119
-85
-70
-42
-3
29
66
111
155
201
256
312
355
382
400
408
399
377
347
300
230
150
74
-1
-80
-152
-197
-214
-226
-239
-238
-224
-217
-224
-226
-218
-210
-202
-202
-211
-218
-215
-220
-229
-228
-224
-227
-231
-230
-227
-224
-228
-233
-227
-219
-202
-159
-115
-110
-140
-169
-175
-169
-171
-165
-151
-163
-163
-133
-159
-194
-8
685
2024
3102
2336
178
-958
-531
-139
-264
-265
-162
-190
-192
-131
-111
-109
-88
-59
-30
-1
36
79
109
142
200
260
297
323
353
383
399
391
366
339
306
250
174
96
21
-61
-144
-199
-222
-238
-257
-263
-251
-246
-254
-244
-223
-227
-237
-228
-230
-235
-216
-223
-269
-283
-259
-256
-272
-271
-248
-229
-212
-175
-154
-203
-267
-254
-207
-218
-243
-219
-210
-226
-208
-222
-279
-192
290
1488
3031
3186
1231
-667
-779
-264
-282
-372
-277
-271
-284
-231
-208
-196
-167
-154
-120
-62
-30
-6
43
98
164
254
318
346
408
479
486
478
482
429
331
258
191
109
14
-106
-216
-279
-316
-331
-330
-350
-361
-320
-288
-299
-297
-290
-318
-323
-274
-245
-271
-298
-295
-273
-288
-349
-370
-327
-298
-284
-243
-223
-238
-233
-228
-262
-286
-261
-215
-202
-232
-224
-206
-288
-296
166
1378
3022
3612
2064
-57
-648
-247
-230
-399
-306
-236
-283
-285
-256
-214
-146
-128
-160
-153
-92
-3
88
136
163
226
303
394
529
607
560
517
550
547
455
359
288
171
7
-117
-174
-223
-280
-321
-344
-348
-332
-308
-284
-270
-278
-278
-240
-215
-237
-258
-256
-251
-237
-221
-226
-233
-239
-265
-284
-273
-260
-242
-185
-129
-132
-163
-158
-141
-173
-212
-171
-121
-172
-206
-120
-122
-282
-217
511
2020
3474
3231
1233
-341
-425
-194
-304
-315
-230
-261
-277
-247
-229
-183
-153
-174
-149
-75
-38
-13
45
95
128
193
277
338
373
396
408
411
381
326
299
252
115
-6
-33
-88
-213
-299
-326
-349
-370
-365
-326
-303
-332
-337
-288
-282
-327
-330
-292
-292
-320
-302
-260
-289
-352
-341
-302
-335
-370
-321
-275
-312
-341
-283
-204
-197
-250
-280
-265
-256
-261
-255
-263
-265
-228
-253
-354
-315
145
1302
2772
2997
1325
-400
-631
-276
-325
-409
-324
-332
-360
-305
-280
-280
-251
-229
-214
-174
-138
-115
-73
-15
26
51
89
146
196
224
