# session 18
-58
-82
-44
71
44
-185
-317
-271
-253
-281
-271
-261
-268
-262
-256
-256
-250
-245
-246
-246
-250
-255
-254
-250
-242
-231
-220
-210
-200
-190
-185
-180
-176
-170
-162
-153
-148
-144
-141
-137
-133
-138
-161
-179
-161
-115
-78
-73
-91
-113
-128
-140
-162
-165
-140
-152
-167
-103
-114
-263
-176
450
1661
3088
3365
1670
-284
-685
-311
-332
-433
-328
-291
-295
-237
-212
-198
-133
-76
-37
28
109
194
299
430
576
718
831
902
920
895
848
773
661
537
431
329
215
104
5
-92
-184
-251
-279
-274
-258
-261
-279
-277
-249
-232
-244
-266
-276
-279
-286
-289
-277
-273
-283
-282
-271
-279
-299
-299
-283
-268
-260
-268
-282
-281
-271
-266
-253
-235
-229
-231
-226
-220
-222
-224
-213
-198
-192
-190
-183
-180
-191
-193
-173
-159
-160
-160
-149
-141
-144
-148
-146
-150
-155
-143
-125
-119
-123
-136
-151
-141
-109
-80
-53
-47
-77
-99
-92
-95
-94
-93
-124
-114
-82
-175
-222
132
1073
2594
3655
2630
235
-937
-549
-263
-389
-327
-223
-257
-251
-202
-172
-122
-72
-35
25
100
186
295
427
579
733
861
955
1002
983
907
800
665
504
344
215
106
-13
-123
-191
-241
-299
-333
-322
-306
-304
-299
-291
-292
-299
-302
-305
-306
-301
-304
-323
-342
-350
-355
-358
-361
-376
-388
-372
-354
-365
-374
-355
-338
-342
-339
-319
-304
-305
-307
-293
-276
-279
-289
-273
-231
-200
-185
-156
-142
-176
-198
-183
-196
-212
-192
-200
-189
-133
-212
-326
-50
819
2252
3450
2788
462
-996
-719
-320
-432
-415
-294
-314
-296
-232
-219
-177
-106
-67
-15
72
162
278
437
610
788
959
1065
1089
1060
992
869
704
528
367
222
80
-46
-138
-213
-288
-339
-351
-343
-336
-330
-321
-311
-303
-296
-289
-288
-292
-292
-291
-299
-312
-319
-321
-326
-334
-337
-334
-330
-324
-315
-307
-303
-298
-289
-275
-266
-262
-251
-238
-239
-249
-253
-252
-242
-211
-172
-140
-116
-111
-136
-160
-163
-175
-176
-151
-168
-182
-123
-173
-322
-150
581
1920
3415
3441
1361
-612
-776
-336
-396
-453
-328
-329
-344
-274
-243
-228
-172
-125
-78
-4
81
183
320
490
676
850
976
1034
1028
970
864
718
555
397
250
106
-29
-144
-232
-299
-351
-384
-397
-397
-390
-380
-368
-360
-352
-345
-339
-335
-334
-336
-339
-339
-337
-336
-334
-335
-336
-334
-332
-330
-327
-320
-311
-303
-297
-286
-275
-267
-262
-256
-249
-242
-240
-247
-259
-258
-231
-183
-139
-113
-102
-115
-146
-158
-155
-167
-161
-144
-168
-158
-107
-198
-294
29
918
2283
3365
2730
606
-747
-573
-267
-376
-366
-266
-282
-262
-196
-176
-148
-89
-43
11
86
169
274
409
566
732
880
981
1020
1002
942
846
720
575
431
295
162
35
-71
-145
-194
-231
-261
-274
-270
-261
-257
-256
-249
-235
-222
-221
-224
-219
-208
-206
-211
-212
-206
-200
-203
-216
-222
-214
-208
-212
-211
-195
-176
-168
-165
-160
-157
-157
-152
-144
-141
-136
-129
-125
-118
-114
-122
-126
-116
-112
-112
-101
-93
-100
-106
-103
-100
-98
-95
-91
-86
-86
-92
-90
-75
-67
-77
-79
-72
-80
-88
-72
-58
-65
-67
-63
-65
-65
-64
-73
-70
-51
-41
-43
-42
-50
-67
-65
-50
-55
-69
-68
-65
-69
-63
-62
-78
-81
-61
-48
-51
-50
-27
0
-5
-24
-30
-62
-104
-84
-79
-121
-84
-65
-201
-188
329
1497
3080
3636
1970
-279
-868
-412
-351
-449
-328
-301
-341
-270
-225
-236
-199
-146
-104
-32
46
100
175
314
487
643
764
853
904
895
835
763
683
565
421
294
187
82
-21
-120
-200
-248
-273
-289
-299
-300
-291
-280
-283
-286
-277
-278
-303
-314
-304
-315
-343
-349
-355
-373
-369
-365
-386
-385
-359
-360
-368
-349
-343
-354
-344
-315
-288
-275
-288
-301
-284
-261
-252
-248
-245
-237
-220
-209
-210
-213
-207
-182
-158
-167
-193
-197
-170
-132
-108
-89
-59
-55
-86
-97
-102
-128
-112
-86
-125
-113
-58
-153
-204
205
1204
2574
3255
2017
-150
-980
-493
-241
-360
-290
-207
-243
-207
-148
-155
-135
-66
-9
37
103
187
291
432
607
789
951
1065
1113
1099
1034
918
766
596
418
247
92
-44
-151
-233
-307
-370
-396
-385
-373
-381
-381
-359
-349
-352
-341
-325
-323
-327
-334
-346
-350
-349
-359
-370
-369
-373
-380
-377
-368
-365
-364
-357
-345
-332
-324
-323
-320
-313
-304
-291
-271
-233
-187
-171
-193
-211
-215
-233
-232
-200
-217
-233
-167
-204
-351
-209
472
1806
3379
3496
1407
-644
-836
-373
-432
-501
-363
-350
-365
-288
-244
-225
-179
-129
-63
23
98
190
333
509
696
881
1036
1127
1140
1091
997
855
670
489
332
176
23
-98
-187
-256
-309
-352
-383
-389
-373
-355
-343
-331
-324
-319
-312
-312
-315
-312
-310
-319
-327
-322
-316
-317
-320
-324
-333
-338
-324
-306
-308
-309
-292
-282
-286
-279
-266
-263
-260
-251
-246
-244
-246
-256
-259
-235
-198
-169
-147
-127
-134
-167
-181
-176
-189
-186
-166
-195
-190
-129
-224
-349
-41
868
2331
3637
3154
871
-755
-655
-311
-439
-445
-327
-346
-334
-258
-240
-215
-152
-102
-50
25
107
209
348
512
689
857
983
1051
1062
1012
913
777
623
466
314
166
27
-97
-195
-267
-318
-355
-376
-379
-371
-363
-353
-342
-334
-331
-329
-324
-321
-320
-319
-318
-318
-319
-319
-319
-320
-319
-316
-314
-309
-301
-291
-282
-276
-269
-261
-253
-250
-248
-240
-230
-227
-231
-240
-251
-247
-213
-162
-123
-102
-100
-124
-155
-160
-162
-173
-157
-154
-183
-143
-124
-265
-263
253
1340
2783
3461
2159
6
-801
-432
-309
-435
-358
-297
-326
-279
-227
-216
-174
-118
-75
-16
57
136
241
376
527
688
834
929
966
956
901
801
667
520
376
237
102
-24
-131
-213
-271
-313
-344
-359
-358
-347
-337
-330
-324
-315
-312
-315
-310
-298
-299
-308
-308
-301
-301
-303
-302
-304
-308
-305
-298
-288
-274
-268
-273
-269
-253
-240
-233
-225
-219
-219
-217
-207
-201
-202
-198
-187
-184
-199
-211
-194
-148
-102
-72
-70
-98
-119
-114
-123
-146
-128
-117
-143
-109
-98
-235
-238
238
1308
2809
3522
2158
-48
-821
-413
-292
-426
-352
-300
-326
-269
-217
-214
-175
-117
-71
-17
43
115
217
343
488
645
784
880
932
935
889
809
705
577
440
308
175
44
-75
-177
-253
-300
-332
-349
-335
-314
-319
-331
-322
-309
-308
-309
-309
-311
-313
-315
-327
-337
-334
-326
-333
-346
-347
-338
-338
-341
-325
-312
-323
-327
-295
-267
-276
-290
-277
-259
-255
-259
-264
-260
-242
-215
-181
-143
-124
-136
-154
-159
-170
-192
-178
-153
-189
-195
-130
-182
-285
-78
655
2067
3501
3120
772
-932
-766
-313
-400
-401
-280
-299
-282
-211
-211
-192
-115
-63
-27
40
126
214
326
474
633
774
893
980
999
951
871
766
624
469
330
195
62
-50
-149
-239
-287
-299
-314
-326
-314
-297
-295
-299
-295
-286
-281
-290
-301
-305
-314
-325
-328
-331
-345
-356
-353
-349
-353
-352
-341
-329
-326
-327
-317
-298
-285
-279
-272
-270
-275
-280
-275
-252
-216
-185
-157
-137
-155
-193
-194
-182
-192
-184
-183
-207
-166
-152
-293
-299
176
1290
2924
3731
2254
-133
-932
-465
-339
-474
-374
-316
-354
-302
-252
-242
-192
-136
-98
-37
40
120
225
361
519
689
838
932
970
961
908
813
681
533
387
248
112
-17
-129
-215
-277
-320
-340
-340
-331
-325
-318
-309
-302
-297
-294
-294
-295
-296
-300
-304
-306
-306
-308
-308
-307
-309
-311
-305
-297
-293
-285
-273
-264
-257
-248
-240
-235
-230
-226
-222
-216
-211
-212
-218
-229
-237
-220
-173
-125
-101
-93
-103
-133
-150
-146
-158
-160
-142
-165
-166
-105
-176
-312
-89
698
2067
3426
3173
1046
-656
-650
-281
-389
-423
-309
-322
-320
-247
-225
-208
-154
-107
-61
6
80
166
282
423
578
730
855
930
951
926
863
762
631
488
349
216
86
-34
-134
-211
-268
-307
-327
-330
-326
-322
-314
-306
-302
-299
-297
-301
-305
-305
-306
-310
-313
-315
-315
-312
-308
-306
-304
-302
-296
-289
-280
-272
-264
-258
-251
-243
-237
-233
-229
-224
-219
-215
-212
-210
-204
-197
-193
-189
-186
-193
-205
-207
-187
-143
-98
-69
-59
-74
-106
-121
-121
-135
-130
-110
-133
-129
-75
-153
-273
-37
767
2146
3401
2972
854
-664
-577
-251
-362
-373
-269
-287
-278
-213
-198
-179
-123
-75
-29
33
106
196
300
420
559
701
817
892
919
893
833
753
650
523
389
262
143
27
-83
-171
-233
-272
-292
-296
-289
-279
-278
-288
-294
-287
-280
-282
-284
-289
-302
-311
-308
-309
-319
-318
-314
-322
-330
-324
-316
-312
-305
-300
-294
-282
-276
-275
-262
-247
-249
-251
-237
-228
-228
-223
-218
-219
-215
-203
-205
-222
-228
-203
-160
-118
-90
-83
-106
-140
-152
-155
-162
-141
-135
-177
-155
-104
-207
-284
26
908
2408
3562
2673
298
-946
-585
-281
-412
-363
-263
-293
-265
-206
-198
-164
-111
-76
-20
50
115
201
310
423
557
702
814
872
890
875
826
742
626
494
370
255
134
8
-104
-183
-232
-263
-281
-282
-274
-266
-263
-264
-267
-271
-273
-277
-284
-292
-298
-306
-316
-324
-329
-329
-326
-327
-330
-327
-323
-314
-299
-292
-292
-284
-273
-269
-263
-251
-240
-233
-232
-230
-215
-202
-210
-229
-230
-208
-169
-120
-80
-69
-96
-136
-144
-141
-156
-149
-131
-158
-149
-104
-195
-289
-10
864
2371
3569
2775
442
-869
-574
-276
-410
-380
-286
-321
-294
-225
-213
-182
-124
-88
-41
28
98
185
298
427
569
715
832
895
909
888
832
735
607
476
351
224
96
-20
-119
-199
-255
-286
-297
-297
-295
-291
-283
-279
-282
-282
-275
-271
-275
-281
-287
-292
-297
-302
-308
-311
-312
-314
-315
-312
-307
-300
-291
-288
-287
-282
-274
-269
-265
-257
-252
-246
-239
-235
-231
-225
-222
-230
-243
-243
-216
-171
-127
-98
-92
-114
-145
-151
-151
-162
-148
-135
-163
-144
-106
-210
-279
63
997
2453
3424
2461
270
-805
-486
-262
-391
-344
-264
-296
-265
-204
-192
-161
-109
-72
-25
42
115
203
314
442
583
723
831
893
910
886
823
720
592
460
336
214
93
-21
-119
-198
-249
-276
-293
-304
-300
-285
-276
-278
-282
-281
-280
-280
-284
-292
-297
-299
-307
-317
-316
-309
-313
-320
-312
-297
-290
-288
-282
-273
-265
-259
-254
-251
-247
-240
-231
-222
-217
-213
-208
-207
-208
-211
-220
-220
-191
-148
-119
-102
-96
-116
-142
-144
-146
-161
-148
-139
-165
-139
-123
-236
-247
176
1230
2752
3424
1988
-184
-853
-402
-293
-422
-324
-252
-276
-239
-203
-193
-143
-82
-47
-4
57
130
218
318
432
571
717
821
865
869
851
807
726
612
482
358
244
127
3
-112
-197
-238
-251
-266
-284
-282
-265
-263
-280
-288
-278
-274
-286
-299
-305
-311
-324
-336
-339
-343
-348
-347
-342
-340
-340
-334
-324
-318
-316
-311
-301
-288
-284
-287
-283
-268
-265
-281
-288
-264
-227
-192
-152
-128
-149
-187
-195
-194
-207
-190
-171
-205
-194
-137
-213
-291
-19
818
2289
3468
2649
307
-962
-608
-289
-424
-381
-269
-299
-277
-212
-204
-176
-118
-78
-30
38
104
183
288
409
543
678
785
847
866
849
796
703
583
462
344
220
98
-11
-111
-192
-234
-252
-266
-273
-267
-260
-257
-254
-255
-261
-265
-265
-271
-285
-292
-292
-299
-313
-319
-318
-322
-324
-319
-312
-305
-295
-287
-283
-277
-270
-264
-256
-243
-232
-229
-231
-238
-247
-245
-219
-177
-140
-112
-95
-111
-148
-160
-156
-163
-152
-142
-171
-154
-114
-212
-283
37
936
2389
3418
2504
283
-835
-503
-254
-385
-341
-255
-285
-257
-200
-194
-161
-104
-67
-22
43
111
196
308
434
572
712
823
886
899
872
814
722
602
472
346
221
102
-9
-109
-188
-239
-268
-282
-283
-279
-279
-277
-273
-272
-275
-279
-283
-288
-295
-302
-312
-318
-319
-319
-320
-323
-325
-325
-320
-311
-305
-301
-295
-285
-277
-272
-267
-261
-258
-259
-269
-280
-275
-240
-191
-152
-133
-136
-164
-192
-198
-202
-210
-195
-197
-222
-187
-178
-299
-298
157
1223
2655
3169
1720
-287
-848
-428
-338
-443
-357
-310
-330
-280
-239
-229
-185
-136
-99
-46
17
86
176
287
413
549
672
757
799
802
770
708
613
495
372
252
131
15
-89
-179
-248
-289
-304
-307
-305
-304
-304
-305
-302
-298
-294
-291
-292
-299
-308
-314
-316
-318
-316
-310
-308
-316
-318
-303
-290
-286
-280
-266
-251
-243
-237
-230
-224
-219
-217
-222
-223
-196
-142
-95
-69
-65
-90
-123
-127
-122
-131
-116
-105
-133
-118
-83
-167
-209
127
1077
2571
3432
2251
48
-833
-419
-224
-340
-257
-179
-211
-177
-130
-120
-74
-21
10
58
123
193
282
382
487
616
751
849
897
913
902
863
790
683
554
429
305
171
46
-45
-112
-161
-184
-192
-206
-226
-237
-227
-216
-227
-243
-239
-235
-255
-280
-291
-299
-317
-331
-325
-323
-335
-337
-331
-340
-351
-348
-340
-337
-340
-351
-356
-331
-284
-246
-233
-239
-262
-293
-309
-322
-333
-319
-316
-339
-310
-300
-416
-439
-44
1020
2604
3270
1699
-585
-1219
-683
-530
-629
-519
-469
-508
-454
-403
-399
-363
-314
-271
-209
-139
-69
17
122
244
383
513
597
628
627
604
543
442
325
209
96
-6
-104
-208
-296
-340
-350
-350
-351
-349
-340
-323
-309
-303
-298
-293
-289
-282
-274
-268
-260
-252
-248
-242
-232
-215
-192
-167
-146
-121
-92
-67
-43
-12
19
40
52
75
124
194
261
312
348
360
358
376
400
416
458
496
492
547
622
548
506
797
1646
3209
4408
3570
1519
154
