# session 14
-81
-128
-14
133
-182
-911
-1318
-1238
-1093
-926
-657
-487
-410
-218
-19
8
3
314
1430
3207
3835
1912
-716
-1499
-972
-804
-932
-820
-688
-688
-709
-755
-814
-784
-703
-715
-570
433
2211
3208
2276
422
-777
-1135
-1140
-1022
-1061
-1378
-1556
-1256
-724
-344
-177
-164
-346
-517
-289
38
-199
-587
-304
121
22
-27
127
236
1037
2047
1456
58
-60
505
419
-11
-368
-683
-648
-97
423
232
-577
-1187
-1114
-645
75
1525
3171
2918
513
-1290
-1168
-718
-803
-812
-649
-539
-389
-245
-180
-129
-113
-122
-91
-17
247
671
728
568
1454
3294
3787
2094
426
131
-18
-602
-739
-399
-219
-119
41
24
-92
-106
-142
-225
-153
57
173
125
321
1435
3051
3230
1232
-922
-1548
-1438
-1614
-1862
-1891
-1770
-1493
-1082
-682
-369
-168
-201
-487
-701
-719
-744
-444
214
204
-25
1154
2374
1386
-205
-287
117
-43
-249
-324
-407
-285
-47
-7
-58
5
27
-181
-529
-857
-1166
-1322
-580
1424
2929
1904
-318
-1006
-367
-1
78
97
-343
-869
-816
-488
-321
-148
83
176
345
957
1993
3177
3710
2521
167
-1267
-1169
-805
-812
-805
-612
-354
-157
-155
-268
-273
-219
-286
-346
-220
-70
-74
-73
80
168
-88
-363
136
1290
1605
277
-1373
-1838
-1373
-926
-672
-446
-349
-467
-710
-1020
-1357
-1578
-1582
-1404
-1050
-432
604
2203
3788
3847
2012
264
14
147
-266
-498
-265
-176
-319
-424
-565
-780
-885
-827
-693
-558
-549
-723
-893
-911
-891
-902
-787
-172
1383
3215
3330
1315
-500
-675
-337
-354
-295
-43
44
57
262
340
66
289
1705
3414
3820
2285
-54
-1222
-878
-409
-418
-417
-278
-160
-8
155
206
159
85
-21
-193
-294
-85
300
405
126
-181
-280
-425
-970
-1579
-1453
-326
1455
2829
2117
-489
-2261
-1988
-1241
-929
-587
-190
-12
-6
-20
77
148
3
42
595
1056
822
242
-51
91
399
525
401
232
123
26
-76
-238
-502
-703
-661
-455
-292
-347
-714
-1249
-1641
-1708
-1482
-1152
-899
-659
-370
77
1149
2365
1968
-3
-1241
-1004
-605
-521
-236
275
540
567
1084
2192
3028
3126
2321
688
-492
-354
42
-98
-251
-150
-6
79
-15
-284
-487
-525
-472
-308
-22
207
277
351
452
324
-39
-346
-500
-584
-672
-897
-1312
-1632
-1193
243
1287
346
-1391
-1614
-774
-447
-344
-71
-155
-339
-428
-880
-477
1971
3897
2753
620
126
467
391
178
-23
-316
-387
-257
-277
-446
-681
-942
-1028
-947
-848
-553
-34
277
180
-89
-293
-415
-580
-736
-666
-520
-578
-563
148
1818
3468
3149
821
-898
-770
-264
-131
141
284
120
643
2299
3720
3078
565
-1349
-1236
-423
-209
-249
-183
-163
-162
-186
-328
-442
-393
-315
-329
-297
-29
365
559
431
133
-170
-384
-520
-726
-958
-930
-702
-661
-801
-748
-20
1769
3527
3073
734
-688
-388
62
-16
-347
-1200
-2565
-3269
-2489
-1213
-728
-728
-480
-157
104
484
659
390
162
236
277
131
-50
-189
-303
-444
-591
-599
-494
-466
-489
-443
-416
-480
-567
-665
-761
-758
-707
-755
-863
-900
-408
1291
3402
3682
1650
-496
-714
917
2718
3438
3295
2442
799
-467
-485
-189
-219
-154
-14
-61
-76
3
-88
-348
-525
-485
-284
-81
55
236
482
579
467
355
289
121
-100
-222
-317
-495
-693
-845
-933
-979
-1055
-1065
-757
80
1434
2276
1218
-753
-1321
-999
-1336
-823
1791
3778
2725
391
-640
-523
-573
-873
-905
-716
-510
-264
-14
140
191
208
208
98
-106
-242
-332
-423
-347
-146
-113
-253
-420
-661
-982
-1278
-1549
-1713
-1533
-1082
-761
-655
-684
-808
-207
1607
3005
3060
3170
3083
1722
931
1209
33
-1846
-1779
-899
-903
-998
-840
-842
-647
-186
77
145
169
112
85
174
263
320
374
327
170
58
37
18
-46
-165
-367
-606
-776
-859
-926
-1000
-990
-825
-642
-659
-850
-855
-79
1638
3198
3562
3474
3405
2032
-440
-1558
-921
-400
-500
-568
-669
-880
-851
-607
-346
-2
353
454
325
212
140
21
-57
-37
-48
-96
-26
107
72
-166
-387
-454
-463
-472
-412
-336
-331
-297
-188
-104
-58
-59
-96
3
321
966
2001
2436
1254
-348
-706
-404
-505
-738
-815
-933
-1022
-931
-732
-574
-427
-159
-50
-120
261
466
-247
153
2236
2442
250
-656
9
-4
-301
-80
-52
-252
-226
-185
-200
-94
-20
-86
-155
-230
-313
-337
-462
-753
-861
-450
770
2558
3189
1567
-382
-691
-250
-252
-356
-320
-368
-400
-330
-260
-167
-25
91
171
252
315
321
272
229
228
231
218
213
212
202
190
156
105
78
58
-34
-193
-307
-333
-375
-480
-539
-491
-397
-330
-391
-558
-421
515
1895
2276
906
-742
-1020
-517
-403
-474
-354
-289
-314
-282
-226
-120
55
183
248
318
370
357
291
228
189
132
60
25
21
0
-44
-86
-93
-83
-127
-223
-309
-375
-420
-431
-449
-492
-515
-493
-417
-336
-378
-424
38
1208
2162
1632
-5
-955
-677
-278
-301
-353
-328
-359
-378
-344
-303
-251
-173
-47
132
301
392
368
223
24
-125
-195
-251
-342
-412
-409
-404
-442
-445
-385
-344
-350
-339
-285
-249
-276
-316
-317
-313
-300
-264
-327
-508
-419
390
1613
2036
984
-413
-767
-424
-331
-423
-400
-399
-440
-421
-407
-390
-328
-297
-227
-79
-60
-56
77
-119
-346
652
2460
3355
3067
1976
128
-968
317
2513
3189
2779
2852
2746
1171
-781
-1380
-1131
-1177
-1222
-1053
-1188
-1297
-871
-306
870
3531
5856
5649
4821
5584
5234
1481
-2154
-2594
-1939
-2065
-2062
-1707
-1628
-1608
-1455
-1400
-1405
-1402
-1468
-1531
-1519
-1491
-1459
-1391
-1317
-1249
-1174
-1115
-1079
-1022
-947
-908
-870
-748
-609
-586
-644
-680
-698
-676
-615
-661
-811
-832
-506
438
1669
1761
305
-922
-871
-575
-664
-696
-618
-632
-626
-558
-511
-468
-411
-336
-230
-138
-88
-65
-86
-130
-129
-78
-24
17
53
69
6
-111
-176
-235
-321
-259
-147
-144
46
177
-166
259
1978
2497
758
-703
-719
-599
-388
726
1881
1584
-20
-1266
-1122
-602
-921
-935
874
3084
3675
3330
3258
3273
3193
3045
2892
3078
2800
956
-1055
-1502
-1238
-1253
-1285
-1346
-1273
-1032
-1480
-1509
1331
5172
5954
4803
5237
5677
2781
-1382
-2881
-2394
-2351
-2578
-2393
-2317
-2461
-2393
-2021
-1182
26
280
-1201
-2766
-2853
-2350
-2291
-2234
-1972
-1892
-1828
-1637
-1608
-1496
-1160
-1272
-1251
408
2593
3275
3192
2948
1294
-886
-1441
-1072
-1160
-1226
-1153
-1341
-1298
-1224
-1626
-1020
1443
3453
3388
2802
3123
3281
1708
-819
-2072
-1847
-1692
-1884
-1646
-746
458
851
-338
-1741
-1924
-1612
-1465
-1284
-1543
-1651
626
4947
7476
6071
3244
1821
815
-906
-1662
-1087
-953
-1299
-1258
-1221
-1379
-1349
-1257
-1267
-1216
-1152
-1173
-1147
-1087
-1119
-1123
-1092
-1161
-1057
-679
-330
513
2314
3770
3874
3606
3629
3536
3490
3479
2446
206
-1760
-2340
-2005
-1710
-1644
-1548
-1480
-1432
-1232
-1189
-1221
-788
-737
-1285
122
3931
6855
7266
5373
1511
-1587
-1734
-1041
-1282
-1407
-1130
-1102
-1135
-1070
-1119
-1191
-1195
-1233
-1283
-1251
-1210
-1247
-1217
-1063
-994
-879
-618
-811
-1043
415
3090
4367
3920
3432
2865
1271
-532
-1209
-1035
-916
-918
-844
-829
-852
-750
-599
-502
-407
-304
-250
-248
-271
-285
-262
-232
-234
-242
-234
-231
-246
-271
-305
-335
-346
-361
-384
-363
-282
-222
-234
-246
-223
-228
-201
-111
-169
-349
-270
348
1603
2837
2510
622
-656
-490
-221
-369
-377
-285
-313
-298
-229
-199
-143
-52
24
98
147
123
64
34
35
33
19
14
24
30
40
59
48
1
-3
42
33
-28
6
140
191
116
56
25
-34
-31
12
-97
-235
-82
462
1350
1982
1405
68
-493
-196
-67
-189
-186
-188
-248
-212
-150
-164
-185
-173
-147
-95
-27
1
-15
-21
8
64
128
161
147
133
131
98
40
-1
-26
-45
-70
-125
-172
-163
-161
-201
-205
-190
-219
-219
-221
-368
-545
-452
289
1761
2701
1668
-234
-879
-520
-436
-519
-407
-361
-378
-299
-243
-221
-135
-54
-14
52
114
108
76
74
82
89
105
119
115
113
105
65
9
-48
-124
-184
-198
-218
-264
-273
-256
-282
-322
-326
-325
-306
-246
-284
-447
-454
-13
1033
2177
2009
295
-1002
-805
-368
-444
-431
-245
-240
-258
-140
-52
-21
59
182
303
383
378
309
233
170
129
99
49
-2
-21
-45
-88
-97
-86
-106
-125
-116
-130
-181
-214
-217
-231
-266
-290
-309
-354
-386
-371
-391
-453
-319
330
1416
1990
1108
-436
-985
-545
-252
-273
-211
-139
-146
-101
-20
29
91
187
281
361
426
450
416
341
249
172
129
98
52
17
21
25
-8
-51
-75
-91
-111
-131
-160
-191
-187
-158
-166
-214
-257
-272
-246
-245
-361
-458
-214
672
2025
2623
1450
-282
-771
-384
-284
-362
-275
-233
-245
-177
-118
-93
-18
93
196
277
294
239
158
83
16
-34
-62
-86
-107
-103
-91
-106
-129
-129
-127
-138
-145
-150
-161
-158
-164
-210
-234
-221
-239
-229
-178
-261
-369
-151
489
1399
1891
1069
-416
-913
-475
-271
-348
-277
-210
-226
-172
-93
-46
22
111
192
252
255
183
66
-55
-142
-185
-213
-240
-243
-222
-197
-166
-133
-123
-119
-90
-53
-42
-39
-9
12
-28
-76
-94
-131
-141
-93
-167
-362
-369
95
1243
2511
2344
610
-644
-535
-277
-398
-396
-294
-303
-288
-225
-182
-107
0
85
156
204
189
118
32
-27
-49
-64
-90
-106
-99
-77
-54
-41
-47
-60
-58
-49
-66
-104
-113
-90
-103
-164
-198
-203
-220
-202
-197
-333
-494
-368
340
1565
2218
1219
-435
-990
-655
-523
-565
-466
-385
-342
-242
-169
-134
-54
45
120
181
206
165
95
45
22
16
4
-38
-77
-82
-86
-111
-129
-149
-203
-272
-299
-291
-313
-347
-301
-245
-278
-247
-167
-283
-298
61
99
-438
-571
206
1450
2254
1343
-784
-1046
1748
4513
4221
1665
-348
-667
-387
-413
-431
-263
-174
-136
-47
-10
-36
-68
-97
-92
-85
-122
-134
-107
-106
-119
-189
-288
-150
107
-10
-363
-453
-395
-433
-432
-387
-438
-486
-458
-450
-457
-442
-495
-582
-363
533
1756
1985
644
-776
-918
-505
-443
-445
-318
-285
-270
-189
-136
-78
26
128
249
372
411
386
359
310
225
126
39
-10
-25
-51
-108
-156
-180
-236
-330
-364
-333
-331
-340
-313
-314
-356
-351
-318
-335
-350
-298
-281
-398
-488
-209
660
1691
1723
391
-868
-898
-449
-361
-355
-217
-156
-150
-97
-44
18
134
281
438
577
620
556
471
412
337
240
182
158
121
90
89
66
-3
-68
-102
-120
-142
-185
-236
-246
-217
-216
-227
-198
-185
-187
-141
-169
-340
-352
136
1153
2065
1733
242
-721
-493
-158
-230
-261
-185
-162
-104
-19
18
73
182
296
391
439
418
359
283
186
101
65
59
57
64
57
12
-31
-55
-101
-155
-174
-191
-238
-260
-234
-235
-298
-330
-294
-283
-268
-180
-198
-391
-378
237
1305
1928
1217
-202
-784
-451
-273
-390
-364
-280
-267
-221
-154
-102
-31
36
101
181
210
163
111
72
28
11
22
20
9
-4
-39
-83
-107
-119
-139
-161
-158
-134
-138
-173
-173
-141
-165
-232
-245
-243
-269
-229
-197
-348
-477
-172
680
1606
1584
345
-727
-636
-223
-224
-275
-201
-193
-187
-133
-108
-71
15
95
152
191
197
164
117
79
76
110
148
163
155
125
79
39
13
-18
-53
-70
-77
-97
-116
-108
-91
-119
-171
-166
-142
-168
-152
-105
-225
-422
-316
376
1534
2138
1186
-330
-708
-274
-170
-267
-196
-174
-212
-149
-69
-13
81
182
243
263
241
195
160
148
157
178
186
164
123
75
21
-36
-90
-133
-162
-176
-172
-165
-179
-201
-176
-125
-133
-198
-234
-237
-239
-198
-168
-284
-442
-332
343
1418
1783
675
-665
-816
-381
-309
-341
-242
-224
-224
-151
-109
-62
48
135
177
219
228
184
139
118
108
110
120
110
74
45
27
-14
-72
-113
-139
-169
-200
-216
-215
-211
-207
-204
-217
-237
-252
-291
-298
-232
-280
-498
-536
-81
875
1759
1469
71
-783
-520
-242
-327
-292
-186
-193
-151
-60
-27
11
88
159
217
261
264
220
171
158
172
189
203
193
148
96
50
-4
-65
-105
-114
-123
-132
-126
-147
-198
-199
-161
-167
-188
-206
-270
-280
-220
-328
-526
-351
397
1408
1813
902
-458
-805
-379
-206
-234
-133
-88
-105
-26
57
88
148
223
276
348
408
387
311
265
291
345
344
278
218
205
184
104
25
0
-41
-135
-173
-129
-127
-190
-214
-184
-169
-185
-208
-230
-217
-151
-125
-216
-261
46
850
1701
1579
308
-711
-593
-186
-170
-193
-102
-68
-23
55
78
128
258
377
454
503
499
442
348
232
144
107
67
12
-6
10
0
-48
-82
-84
-108
-173
-220
-233
-252
-277
-285
-290
-301
-305
-322
-376
-391
-333
-373
-558
-575
-78
970
1862
1464
-4
-872
-643
-365
-412
-396
-343
-361
-324
-247
-180
-75
19
55
96
136
114
51
-38
-138
-174
-170
-220
-270
-259
-283
-347
-347
-339
-402
-439
-418
-445
-507
-519
-502
-490
-491
-525
-544
-531
-529
-483
-445
-601
-767
-466
477
1574
1726
511
-770
-927
-554
-470
-492
-398
-335
-318
-224
-70
-19
-50
62
274
322
244
210
169
79
26
14
-1
-2
17
27
41
64
69
44
27
37
44
31
21
48
99
108
71
74
101
94
142
206
75
-110
42
769
2011
2801
1959
315
-261
112
222
93
152
224
230
292
361
421
516
613
686
746
773
751
691
627
589
563
514
459
429
409
376
342
307
259
208
174
164
159
130
93
106
137
95
15
-16
-51
-92
-58
-96
-334
-482
-115
1020
2410
2501
812
-731
-815
-520
-660
-747
-646
-630
-635
-575
-488
-429
-466
-511
-446
-382
-412
-454
-486
-541
-578
-559
-540
-581
-648
-676
-685
-734
-821
-898
-916
-869
