# session 10
-40
-59
-24
219
197
-406
-877
-803
-659
-638
-544
-437
-419
-432
-465
-525
-558
-563
-567
-570
-573
-569
-547
-516
-494
-479
-469
-476
-503
-531
-540
-529
-499
-451
-402
-360
-331
-330
-323
-281
-265
-283
-257
-265
-380
-390
-34
885
2146
2508
1143
-536
-918
-583
-539
-571
-439
-357
-302
-192
-108
-42
41
101
163
269
371
417
418
401
372
337
306
280
224
121
25
-21
-40
-38
-23
-32
-68
-95
-124
-165
-179
-171
-180
-187
-158
-111
-96
-131
-159
-149
-166
-186
-159
-231
-418
-403
122
1397
2956
3080
1185
-551
-609
-192
-264
-303
-159
-148
-174
-119
-74
-34
39
127
234
334
375
379
379
343
260
185
131
66
-5
-58
-109
-129
-96
-104
-168
-167
-210
-346
-293
-309
-634
105
2500
3783
2043
-264
-793
-547
-644
-708
-638
-643
-596
-595
-722
-580
128
1303
2213
1615
-244
-1319
-967
-563
-633
-600
-449
-426
-415
-351
-293
-227
-140
-35
81
181
249
268
228
159
78
-10
-82
-145
-219
-268
-268
-267
-277
-253
-214
-208
-218
-219
-233
-252
-251
-248
-272
-302
-316
-321
-339
-372
-384
-377
-382
-346
-289
-352
-438
-220
569
1881
2702
1775
-92
-860
-485
-297
-400
-321
-236
-257
-201
-108
-60
1
74
143
251
381
464
484
453
392
331
277
217
157
104
38
-35
-70
-68
-74
-98
-121
-138
-154
-174
-194
-213
-239
-263
-270
-270
-268
-263
-283
-310
-284
-271
-291
-238
-305
-617
-341
1262
3135
3366
1629
-371
-1027
-666
-437
-480
-430
-365
-363
-299
-209
-154
-65
60
168
274
384
454
455
395
308
219
136
61
1
-46
-86
-120
-151
-168
-168
-173
-191
-197
-194
-216
-253
-265
-266
-294
-326
-323
-298
-292
-329
-365
-361
-381
-423
-376
-350
-457
-420
15
964
2345
2948
1624
-243
-680
-262
-241
-361
-281
-265
-290
-219
-159
-128
-59
20
102
205
295
346
353
320
269
218
162
102
42
-19
-72
-107
-124
-135
-138
-137
-146
-175
-205
-230
-275
-325
-339
-321
-294
-249
-188
-141
-128
-128
-100
-67
-69
-53
-31
-135
-281
-171
479
1721
2648
1943
149
-776
-543
-343
-426
-383
-298
-282
-226
-164
-135
-72
12
79
146
202
220
210
176
113
47
5
-26
-69
-115
-149
-174
-186
-178
-171
-186
-202
-198
-207
-242
-264
-265
-285
-308
-293
-270
-270
-254
-213
-203
-242
-276
-277
-277
-254
-186
-201
-304
-224
246
1175
2208
2203
771
-545
-608
-279
-310
-338
-227
-210
-222
-160
-95
-47
12
87
184
283
354
385
374
324
258
210
204
207
164
95
54
27
-16
-59
-94
-126
-145
-154
-174
-196
-214
-246
-283
-300
-305
-309
-302
-284
-250
-215
-224
-250
-239
-245
-256
-212
-242
-353
-291
148
1257
2757
2948
1102
-642
-703
-290
-384
-444
-313
-305
-314
-231
-165
-116
-37
57
154
244
313
345
330
285
231
173
123
86
46
1
-33
-57
-81
-104
-111
-122
-166
-209
-214
-217
-255
-292
-291
-278
-287
-302
-301
-278
-255
-279
-329
-311
-267
-300
-309
-260
-337
-439
-198
624
2000
2946
2043
10
-896
-507
-290
-412
-343
-259
-286
-232
-145
-98
-22
72
159
278
390
437
436
406
350
287
219
129
46
-7
-56
-103
-117
-116
-137
-160
-165
-186
-221
-235
-242
-274
-305
-304
-296
-302
-309
-298
-274
-274
-310
-321
-291
-297
-306
-261
-303
-430
-323
245
1332
2452
2249
486
-875
-733
-306
-356
-371
-268
-276
-255
-173
-139
-74
48
142
224
329
398
399
345
248
131
39
-8
-36
-72
-104
-113
-110
-111
-116
-120
-127
-141
-160
-172
-169
-179
-212
-235
-234
-231
-219
-184
-157
-181
-233
-234
-199
-221
-226
-162
-229
-385
-242
412
1668
2988
2784
826
-652
-548
-221
-360
-385
-284
-313
-302
-215
-176
-125
-24
68
150
235
296
310
277
215
154
110
75
29
-39
-110
-155
-171
-181
-198
-216
-221
-214
-212
-218
-223
-226
-224
-213
-208
-213
-200
-169
-154
-170
-214
-245
-241
-250
-255
-215
-252
-378
-329
167
1314
2624
2569
814
-632
-602
-254
-322
-329
-232
-268
-275
-198
-164
-119
-24
52
116
198
264
289
278
235
170
114
91
74
24
-35
-64
-74
-92
-110
-128
-153
-172
-181
-190
-204
-222
-243
-257
-256
-248
-236
-205
-162
-135
-146
-179
-191
-186
-207
-216
-187
-238
-357
-294
186
1192
2176
1915
405
-645
-515
-241
-304
-281
-181
-198
-197
-141
-116
-77
4
77
149
226
282
302
281
218
156
133
108
43
-26
-58
-82
-110
-118
-121
-154
-187
-186
-178
-185
-190
-200
-221
-230
-220
-216
-214
-186
-148
-131
-143
-173
-182
-163
-176
-204
-192
-245
-382
-370
30
1058
2359
2445
806
-656
-651
-273
-330
-325
-164
-145
-152
-79
-30
4
62
121
184
260
328
357
316
243
195
165
129
90
40
-7
-22
-29
-58
-75
-74
-99
-134
-142
-155
-197
-231
-234
-229
-229
-232
-240
-256
-261
-236
-225
-265
-290
-272
-291
-302
-242
-270
-395
-305
241
1377
2593
2373
478
-946
-773
-342
-429
-446
-304
-294
-286
-202
-151
-100
4
118
219
309
378
413
388
307
220
155
99
50
15
-15
-46
-65
-62
-61
-87
-120
-132
-141
-167
-193
-212
-229
-237
-242
-263
-279
-261
-229
-229
-269
-285
-238
-217
-240
-191
-169
-319
-361
13
881
2151
2768
1571
-286
-799
-355
-271
-395
-312
-265
-277
-204
-134
-98
-25
61
139
230
312
345
316
253
195
138
70
13
-29
-77
-119
-135
-146
-159
-153
-143
-164
-199
-219
-227
-239
-255
-269
-280
-287
-276
-244
-220
-234
-281
-301
-270
-270
-289
-230
-229
-379
-374
54
1004
2257
2588
1179
-442
-662
-259
-274
-356
-256
-237
-247
-174
-123
-91
-21
59
141
228
288
309
301
262
202
149
113
81
33
-29
-80
-102
-107
-116
-132
-150
-163
-173
-185
-196
-210
-225
-223
-203
-185
-160
-120
-97
-116
-160
-187
-174
-179
-216
-188
-176
-331
-424
-94
816
2069
2552
1365
-282
-704
-346
-294
-375
-282
-244
-277
-250
-217
-178
-88
0
66
150
234
279
282
256
213
162
117
93
64
8
-42
-56
-69
-103
-133
-150
-168
-181
-189
-200
-211
-220
-226
-219
-201
-188
-184
-172
-155
-174
-222
-230
-210
-224
-212
-180
-279
-389
-171
545
1696
2460
1658
-98
-842
-426
-192
-314
-264
-174
-193
-157
-86
-44
31
122
177
231
307
365
369
316
244
199
170
128
86
47
-7
-47
-57
-77
-129
-175
-193
-203
-225
-248
-264
-300
-344
-343
-308
-298
-294
-269
-258
-286
-326
-337
-310
-286
-267
-245
-307
-393
-214
450
1540
2276
1541
-160
-940
-535
-240
-322
-271
-187
-213
-176
-91
-38
39
129
201
302
414
476
504
501
428
330
274
240
179
96
27
-12
-45
-82
-105
-127
-152
-157
-173
-223
-247
-237
-241
-237
-217
-244
-286
-266
-225
-227
-259
-294
-306
-287
-262
-256
-285
-335
-242
288
1273
1898
1183
-307
-939
-521
-214
-298
-252
-104
-111
-138
-65
14
70
176
327
449
535
614
657
616
527
430
315
218
173
102
-30
-109
-103
-120
-183
-215
-206
-204
-197
-149
-126
-192
-243
-214
-208
-243
-223
-188
-225
-270
-266
-282
-334
-338
-291
-262
-260
-283
-318
-135
580
1515
1588
396
-812
-885
-397
-233
-239
-145
-108
-139
-100
-2
81
133
198
306
398
468
560
588
501
431
408
315
192
127
36
-109
-181
-194
-257
-323
-323
-302
-266
-212
-224
-276
-265
-236
-250
-225
-134
-76
-89
-133
-163
-188
-246
-264
-159
-82
-117
-91
-37
-92
-139
-84
547
2335
3756
2519
-83
-1050
-649
-630
-784
-601
-564
-668
-458
-155
-155
-228
-122
-55
-37
184
419
466
496
415
100
-88
-68
-166
-242
-52
134
153
167
155
85
96
151
140
96
-5
-238
-491
-599
-643
-823
-910
-433
335
620
291
-196
-500
-680
-1045
-1326
-927
-540
-1119
-1624
-843
535
1917
3205
2963
723
-1042
-874
-233
-68
64
184
137
88
80
186
378
319
107
261
717
918
751
612
679
605
198
-177
-279
-306
-344
-323
-347
-443
-471
-437
-388
-225
5
115
102
30
-162
-422
-498
-325
-173
-254
-353
-166
88
-42
-400
-538
-500
-472
-451
-304
606
2173
2277
138
-1532
-1182
-395
149
820
819
145
111
634
696
288
-163
-480
-542
-351
17
345
276
-17
31
283
286
320
657
828
637
508
435
140
-89
-13
69
106
269
262
-56
-406
-891
-1386
-1301
-996
-746
305
1358
558
-915
-1067
-720
-826
-917
-1090
-1332
-916
-218
-170
-432
51
1815
3776
3562
1164
-506
-531
-584
-914
-801
-630
-623
-477
-375
-375
-300
-369
-442
-81
368
622
938
766
-394
-1394
-1213
-253
983
1904
1618
501
-80
96
156
-210
-410
-137
-32
-433
-442
421
1123
928
490
388
366
256
253
351
422
496
485
273
76
-38
-315
-593
-453
254
1393
1825
65
-2744
-3733
-2804
-1974
-1557
-1004
-728
-654
-220
-15
-361
-20
1243
1845
1422
1088
983
746
803
1192
1206
809
521
290
-86
-288
-176
-129
-234
-258
-315
-521
-604
-462
-218
18
-372
-2045
-4003
-4011
-1471
1429
2258
1221
291
185
-27
-638
-677
60
512
393
431
769
1438
2611
2991
1331
-652
-894
-298
-241
-299
-19
318
581
644
404
47
-400
-848
-942
-754
-180
1204
2188
1184
-510
-876
-448
-368
-566
-889
-1205
-1040
-327
565
1199
1092
418
-53
-368
-884
-928
-240
81
-311
-528
-337
-232
-266
-268
-351
-510
-445
-224
-47
645
1679
1316
-9
465
1996
1512
33
14
278
-438
-770
-227
-34
-528
-952
-869
-563
-401
-76
688
1206
988
607
481
354
59
-317
-516
-232
360
762
755
361
-267
-786
-948
-944
-1088
-829
771
2621
2287
76
-1334
-1276
-1132
-1330
-1422
-1307
-922
-258
301
444
223
-77
-60
222
315
413
1162
2395
2917
1690
-580
-1906
-1723
-1266
-1130
-897
-653
-636
-320
437
591
-472
-1661
-1386
336
1797
1929
1306
581
26
58
506
651
185
-890
-2072
-2311
-1603
-1070
-937
-591
-59
221
216
138
93
133
398
893
1249
1150
768
573
678
294
-926
-1131
1138
3456
2700
-61
-1533
-496
1704
2502
704
-1360
-1305
-432
-292
-72
248
-384
-1298
-1306
-777
-505
-551
-476
77
765
1118
1290
1249
707
165
52
-91
-181
412
988
185
-1575
-2317
-1265
112
398
48
-35
101
167
101
-231
-813
-1334
-1484
-1209
-886
-803
-558
65
437
268
33
-142
-422
-583
-249
1037
3009
3646
1762
-352
-428
92
-821
-2081
-1714
86
1947
2751
1811
-94
-1116
-971
-926
-1309
-1307
-725
-162
201
629
988
997
729
198
-517
-831
-529
-268
-318
-194
199
530
682
516
27
-275
-207
-64
385
1223
1480
653
-672
-1926
-2297
-1201
62
141
-165
-29
223
814
1935
2322
1135
-314
-596
-294
-567
-1118
-1048
-484
-105
-25
63
263
347
143
-20
115
217
173
-66
-1116
-2303
-1572
800
2450
2652
1846
214
-1127
-1194
-917
-1240
-1696
-1668
-980
168
1075
1279
1000
575
351
543
658
226
-244
-217
-94
-322
-540
-405
-345
-591
-644
-301
664
2440
2708
-703
-3773
-1590
2461
2764
818
254
399
-73
-219
163
-93
-658
-519
-512
-1123
-955
-159
-344
-826
-284
298
0
-465
-610
-453
-49
50
-190
-6
303
369
1002
1184
-684
-1858
319
2985
3333
2154
300
-1327
-1458
-1025
-1473
-2178
-2296
-1796
-715
303
486
559
1707
3063
2538
304
-1245
-1336
-1282
-1424
-1069
-392
30
155
48
-164
-145
119
455
974
1505
1655
1891
2655
2876
1744
583
575
797
327
-350
-842
-1056
-675
-319
-822
-1143
-341
375
351
526
762
122
-985
-1709
-2033
-2058
-1785
-1530
-1426
-1211
-708
-10
181
-589
-579
1872
4515
4440
2431
297
-1401
-1982
-1418
-987
-1279
-1832
-2205
-1941
-944
111
668
725
501
360
402
283
-72
-321
-326
-198
22
335
547
415
133
-50
-307
-449
-152
174
575
1085
80
-1888
-1054
1773
1727
-436
-680
167
-139
-684
-544
-158
200
191
-186
-189
221
904
2499
3922
2747
16
-1048
-618
-765
-1415
-1827
-2100
-2051
-1705
-1477
-964
-368
-986
-1869
-849
1040
1969
2475
2283
424
-1316
-1104
-89
312
90
-560
-1275
-1372
-726
92
552
524
235
131
318
330
10
-109
71
-77
-547
-541
-88
-5
-119
229
501
262
221
715
2141
4511
4388
-105
-2866
538
4110
2564
-311
-604
152
216
33
-91
-295
-287
41
207
-4
-158
70
428
647
838
944
550
-222
-597
-372
-169
-295
-428
-483
-661
-693
-397
-270
-261
62
28
-296
726
2356
1928
214
-114
328
-252
-1004
-804
-528
-746
-653
211
1620
2721
2039
-70
-1107
-510
-66
-180
-3
292
259
110
-66
-327
-492
-497
-353
4
304
437
772
1053
1018
1201
577
-1789
-2507
435
2420
854
-588
-316
-295
-641
-604
-576
-574
-481
-669
-1065
-1384
-1631
-1727
-1694
-1627
-1310
-744
-392
-495
-891
-1278
-1317
-596
1096
2629
1930
-705
-2297
-1867
-1614
-2335
-2463
-2277
-3130
-3070
-312
2210
2292
1800
1480
422
-544
-652
-650
-765
-754
-889
-1106
-936
-563
-552
-849
-1052
-1154
-1332
-1544
-1668
-1670
-1537
-1256
-924
-766
-808
-732
-399
-135
-134
-161
-116
-73
100
280
263
729
1962
2743
2755
3000
2903
1450
-39
-265
-140
-456
-662
-382
73
324
319
260
169
24
78
252
131
-95
35
393
724
999
1052
880
825
937
936
761
567
454
223
-307
-582
-313
-291
-28
2072
4625
4829
3441
2648
2283
1743
1459
1428
1246
871
436
274
640
1348
2427
3624
3433
1449
-14
393
1115
1157
1210
1190
471
-346
-409
-49
184
391
560
586
781
943
770
1232
2005
907
-393
1584
3412
940
-500
3160
5116
1439
-1730
-1362
-1126
-1972
-2085
-1835
-2078
-2426
-2677
-2958
-3242
-3564
-3827
-3730
-3297
-2943
-2959
-3217
-3319
-2920
-1951
-933
-1144
-3243
-5351
-4710
-1737
332
-145
-2132
