# session 35
-14
-30
-3
49
-5
-172
-258
-220
-202
-228
-213
-185
-200
-193
-159
-217
-282
-56
728
2049
2915
2037
163
-631
-232
-34
-198
-187
-129
-172
-157
-117
-127
-114
-78
-62
-43
-12
13
40
75
108
145
188
232
279
325
357
374
389
404
409
390
330
236
133
31
-72
-160
-228
-284
-320
-332
-336
-334
-324
-316
-318
-314
-300
-291
-289
-282
-272
-270
-273
-275
-278
-277
-268
-263
-268
-268
-253
-242
-250
-264
-260
-241
-215
-177
-134
-118
-141
-182
-200
-185
-181
-198
-191
-177
-188
-169
-154
-214
-213
123
1105
2557
3034
1507
-384
-684
-142
-88
-215
-124
-99
-138
-91
-65
-77
-48
-13
3
26
54
83
119
151
186
234
282
320
364
408
435
450
462
463
445
397
316
210
97
-6
-95
-178
-246
-288
-307
-312
-313
-313
-308
-297
-285
-277
-270
-261
-252
-249
-249
-244
-240
-247
-256
-258
-256
-256
-258
-254
-248
-255
-268
-262
-244
-231
-211
-172
-146
-155
-185
-204
-201
-203
-201
-181
-187
-201
-161
-164
-260
-217
258
1411
2824
2929
1172
-443
-464
-39
-133
-226
-130
-145
-173
-121
-109
-112
-77
-55
-43
-9
24
48
76
113
157
207
257
303
345
384
416
434
445
449
433
376
281
169
56
-53
-146
-213
-262
-301
-323
-332
-336
-330
-318
-309
-300
-287
-277
-273
-270
-268
-273
-275
-269
-265
-268
-265
-254
-249
-254
-262
-271
-268
-254
-237
-208
-165
-143
-161
-197
-222
-225
-224
-227
-206
-181
-187
-163
-134
-214
-275
14
938
2362
3077
1925
45
-559
-156
-64
-221
-174
-135
-181
-159
-129
-140
-126
-95
-64
-20
21
51
85
121
162
210
260
308
359
398
419
436
448
444
417
354
265
174
84
-8
-85
-145
-203
-250
-271
-279
-289
-294
-288
-285
-293
-302
-298
-285
-275
-265
-255
-253
-260
-261
-259
-263
-273
-282
-287
-291
-287
-268
-234
-199
-175
-155
-135
-125
-126
-120
-113
-124
-152
-183
-197
-190
-188
-187
-185
-206
-210
-171
-202
-274
-108
576
1845
2925
2436
649
-401
-154
80
-102
-152
-110
-172
-173
-116
-109
-102
-75
-67
-50
-15
7
25
57
93
129
171
229
301
379
456
524
558
547
519
490
431
333
223
117
6
-107
-205
-275
-320
-346
-354
-349
-339
-327
-310
-288
-264
-245
-239
-242
-239
-238
-254
-276
-281
-268
-253
-247
-243
-232
-220
-214
-213
-216
-216
-211
-201
-179
-142
-107
-95
-105
-125
-142
-157
-171
-173
-155
-144
-154
-171
-195
-216
-220
-227
-240
-213
-173
-156
-108
-73
-130
-124
232
1201
2541
2906
1462
-200
-385
115
129
-13
28
-13
-110
-117
-131
-172
-172
-162
-160
-132
-78
-16
44
101
157
212
255
285
319
360
394
414
427
434
431
410
361
281
183
81
-21
-115
-187
-231
-260
-295
-330
-326
-276
-225
-212
-231
-256
-262
-252
-262
-291
-286
-255
-260
-283
-268
-250
-261
-257
-247
-270
-287
-269
-256
-248
-226
-202
-168
-121
-95
-102
-119
-133
-129
-89
-42
-57
-132
-204
-260
-293
-274
-244
-227
-173
-153
-224
-209
-115
-172
-235
103
1119
2586
3149
1724
-209
-618
-106
-59
-213
-113
-78
-145
-80
15
19
9
19
26
29
24
43
124
184
175
204
280
298
298
355
393
391
423
455
430
403
371
270
153
94
32
-80
-184
-244
-278
-295
-297
-288
-283
-293
-305
-301
-282
-272
-287
-299
-286
-273
-279
-280
-261
-248
-255
-263
-265
-271
-268
-245
-221
-196
-166
-165
-184
-176
-154
-158
-156
-130
-110
-94
-77
-103
-175
-232
-258
-258
-191
-88
-62
-111
-141
-142
-150
-155
-130
-78
-50
-96
-133
-75
-59
-159
-117
354
1394
2649
2843
1355
-230
-441
-57
-70
-169
-98
-76
-83
-63
-96
-121
-83
-50
-32
-3
22
53
97
127
144
174
220
277
331
366
395
440
464
426
388
384
326
211
144
80
-61
-167
-182
-226
-277
-262
-286
-351
-311
-246
-278
-268
-186
-209
-268
-211
-183
-253
-244
-176
-201
-240
-230
-258
-278
-250
-271
-286
-220
-218
-276
-218
-139
-186
-245
-232
-206
-201
-225
-247
-210
-159
-166
-173
-125
-79
-82
-92
-91
-126
-171
-165
-173
-220
-197
-145
-156
-135
-117
-218
-195
301
1376
2626
2788
1271
-283
-381
56
-35
-185
-61
-12
-54
-30
-40
-77
-29
34
36
31
57
104
133
116
137
251
339
335
332
369
393
398
406
408
399
360
273
158
46
-61
-148
-194
-224
-253
-266
-274
-297
-308
-284
-256
-257
-274
-261
-219
-203
-224
-244
-251
-259
-280
-311
-312
-269
-235
-242
-253
-236
-224
-242
-255
-231
-214
-232
-252
-250
-228
-200
-177
-145
-106
-110
-157
-176
-149
-134
-141
-136
-145
-191
-187
-131
-169
-235
-47
642
1926
2978
2285
244
-817
-380
-13
-155
-162
-77
-111
-110
-82
-100
-86
-50
-36
3
55
73
85
109
140
187
242
288
332
373
408
458
511
518
483
441
382
284
163
32
-103
-184
-196
-219
-281
-317
-312
-316
-330
-318
-288
-260
-233
-225
-243
-239
-218
-236
-264
-247
-216
-218
-230
-221
-216
-238
-247
-214
-195
-211
-215
-212
-226
-228
-222
-241
-251
-214
-162
-119
-90
-102
-146
-157
-139
-164
-192
-155
-149
-189
-150
-133
-241
-202
290
1383
2710
2885
1277
-329
-433
-28
-111
-221
-136
-152
-193
-145
-123
-118
-77
-44
-32
-30
-43
-21
60
118
123
153
232
309
364
396
402
431
507
556
533
470
373
240
111
9
-94
-197
-262
-288
-309
-338
-348
-329
-308
-304
-298
-281
-275
-279
-267
-251
-258
-265
-248
-240
-262
-276
-265
-264
-271
-263
-258
-261
-241
-203
-188
-194
-204
-210
-196
-149
-87
-42
-40
-69
-97
-111
-112
-109
-124
-141
-162
-215
-232
-201
-257
-313
-41
766
2017
2835
2029
229
-582
-218
-24
-197
-178
-87
-130
-149
-110
-82
-58
-45
-39
-14
17
40
78
127
171
202
230
272
329
387
436
463
463
467
470
427
344
261
164
40
-71
-151
-215
-261
-290
-307
-303
-294
-302
-302
-282
-259
-243
-239
-251
-256
-243
-243
-256
-250
-232
-237
-250
-250
-246
-246
-237
-229
-232
-227
-208
-205
-219
-231
-244
-250
-228
-187
-139
-92
-70
-77
-96
-120
-137
-134
-133
-136
-140
-173
-184
-134
-160
-246
-100
515
1656
2716
2378
651
-531
-339
6
-110
-172
-99
-110
-108
-61
-59
-64
-30
13
52
78
81
93
139
175
180
218
296
342
351
371
391
394
409
433
418
357
284
192
72
-41
-126
-195
-248
-284
-314
-316
-287
-272
-277
-268
-246
-241
-260
-277
-266
-237
-233
-253
-251
-227
-228
-252
-262
-260
-261
-241
-213
-218
-238
-234
-227
-237
-241
-238
-240
-240
-219
-172
-130
-111
-108
-129
-171
-181
-160
-167
-176
-144
-125
-125
-119
-183
-255
-85
545
1738
2828
2387
542
-602
-329
-11
-169
-187
-72
-107
-141
-88
-60
-62
-46
-17
8
36
67
86
100
137
189
237
281
312
332
376
426
427
401
413
442
400
288
184
105
12
-94
-178
-232
-274
-316
-324
-284
-270
-308
-315
-270
-249
-255
-247
-250
-277
-277
-245
-231
-239
-247
-261
-278
-279
-264
-241
-223
-228
-256
-276
-269
-254
-243
-217
-174
-150
-161
-172
-172
-189
-206
-178
-157
-199
-202
-137
-163
-227
-60
592
1890
3020
2375
312
-777
-349
3
-159
-172
-91
-145
-155
-108
-106
-88
-38
-8
19
55
84
105
120
146
200
246
257
284
355
408
411
411
425
425
393
334
252
149
31
-66
-123
-174
-234
-269
-284
-308
-328
-327
-327
-320
-283
-258
-275
-281
-257
-252
-265
-262
-267
-288
-286
-265
-267
-274
-260
-252
-261
-264
-263
-276
-272
-235
-202
-178
-144
-136
-179
-211
-191
-185
-212
-202
-171
-179
-158
-128
-224
-296
-24
789
2126
3043
2188
261
-584
-199
-3
-171
-162
-105
-145
-128
-82
-81
-67
-46
-38
-15
13
26
60
120
163
183
225
289
332
357
399
436
436
438
458
431
342
246
147
34
-64
-146
-224
-260
-254
-267
-297
-305
-298
-285
-267
-263
-268
-255
-239
-237
-243
-252
-254
-243
-246
-262
-256
-249
-264
-268
-259
-265
-271
-272
-280
-264
-211
-166
-150
-145
-164
-200
-203
-190
-211
-211
-171
-180
-205
-162
-190
-306
-194
411
1585
2776
2601
877
-448
-354
-28
-149
-194
-114
-163
-180
-100
-72
-76
-56
-43
-27
13
44
60
93
132
162
205
261
295
316
360
402
409
412
426
405
331
245
157
51
-56
-135
-199
-256
-284
-287
-285
-285
-290
-294
-279
-268
-278
-266
-230
-232
-259
-252
-226
-216
-215
-222
-231
-236
-251
-256
-226
-204
-218
-228
-236
-262
-258
-206
-169
-161
-147
-135
-148
-175
-189
-183
-175
-174
-182
-188
-152
-128
-213
-265
3
812
2112
2915
1998
170
-570
-195
-28
-180
-158
-99
-148
-159
-116
-85
-66
-51
-23
16
36
39
49
75
120
174
212
241
282
319
345
377
396
387
380
371
312
214
118
12
-86
-143
-199
-284
-325
-290
-264
-282
-294
-284
-258
-197
-126
-99
-118
-142
-162
-196
-222
-213
-199
-214
-232
-224
-213
-222
-229
-213
-203
-239
-281
-265
-222
-218
-213
-165
-129
-141
-164
-181
-209
-236
-229
-201
-201
-192
-135
-155
-264
-199
299
1437
2771
2747
924
-612
-524
-66
-151
-217
-114
-133
-149
-91
-83
-80
-44
-36
-28
14
53
77
106
140
177
221
259
287
325
375
399
402
417
423
389
341
287
186
48
-57
-110
-168
-246
-293
-295
-297
-306
-295
-280
-283
-281
-266
-254
-236
-216
-219
-233
-229
-227
-236
-245
-256
-266
-261
-255
-257
-245
-225
-237
-261
-260
-246
-239
-219
-190
-172
-158
-157
-183
-208
-212
-205
-191
-195
-217
-195
-184
-261
-253
115
1096
2531
3081
1687
-170
-559
-112
-92
-210
-107
-100
-170
-127
-82
-92
-76
-34
-10
1
27
70
100
125
174
225
254
293
348
379
390
408
428
436
435
393
290
177
86
-16
-126
-198
-237
-275
-302
-307
-322
-339
-323
-298
-297
-298
-276
-249
-236
-235
-239
-237
-231
-235
-238
-229
-227
-236
-236
-237
-254
-252
-227
-229
-260
-263
-230
-207
-194
-162
-122
-120
-167
-205
-185
-146
-150
-163
-158
-168
-154
-123
-187
-238
46
932
2300
3025
1950
97
-537
-122
-9
-193
-166
-108
-144
-129
-98
-96
-67
-33
-26
-11
26
69
107
136
174
227
265
298
356
400
404
418
446
440
407
375
317
218
101
-23
-128
-176
-192
-233
-281
-297
-290
-292
-304
-306
-287
-267
-270
-276
-254
-229
-241
-260
-239
-215
-222
-228
-219
-223
-228
-215
-204
-210
-213
-199
-192
-211
-215
-178
-159
-189
-200
-165
-144
-153
-161
-160
-153
-144
-155
-184
-191
-162
-130
-109
-79
-44
-49
-96
-126
-115
-107
-107
-85
-86
-115
-82
-64
-163
-144
321
1363
2591
2758
1296
-202
-319
90
41
-85
-24
-43
-113
-89
-45
-30
-18
-3
23
53
68
85
123
163
190
211
238
270
301
335
372
408
436
453
441
391
324
251
154
36
-63
-130
-190
-250
-282
-281
-291
-312
-293
-247
-236
-250
-249
-240
-240
-236
-227
-231
-253
-266
-249
-226
-231
-244
-239
-231
-236
-243
-241
-228
-212
-221
-247
-239
-195
-178
-203
-218
-201
-177
-170
-179
-182
-175
-173
-173
-152
-131
-146
-172
-167
-136
-99
-54
-24
-53
-115
-127
-90
-83
-115
-116
-98
-121
-120
-77
-132
-210
6
747
1989
2893
2194
396
-496
-177
31
-129
-124
-64
-119
-115
-58
-41
-36
-32
-20
27
65
73
102
138
145
169
239
299
322
349
383
402
413
424
430
428
389
296
196
116
21
-87
-167
-212
-244
-270
-286
-289
-288
-292
-290
-277
-265
-253
-243
-245
-248
-236
-227
-234
-245
-247
-239
-229
-229
-241
-245
-231
-214
-212
-217
-211
-206
-209
-201
-183
-190
-208
-192
-163
-173
-201
-198
-173
-144
-105
-78
-80
-95
-111
-129
-140
-151
-159
-143
-128
-141
-125
-103
-163
-181
99
929
2269
2979
1832
-69
-643
-152
-9
-162
-113
-75
-125
-94
-53
-57
-37
-4
18
49
74
94
132
161
171
205
262
306
342
383
410
416
421
416
395
371
322
232
128
19
-101
-183
-210
-243
-297
-317
-302
-299
-300
-280
-260
-258
-250
-231
-225
-238
-244
-226
-207
-213
-230
-230
-217
-215
-223
-228
-232
-233
-229
-238
-256
-253
-240
-229
-207
-188
-200
-207
-183
-172
-183
-178
-157
-148
-150
-164
-176
-153
-104
-65
-45
-52
-94
-121
-95
-73
-97
-117
-119
-147
-148
-111
-179
-275
-78
614
1835
2890
2405
586
-491
-210
75
-70
-83
-21
-79
-82
-43
-57
-38
12
22
36
67
74
97
153
190
215
260
299
336
397
439
434
431
443
432
388
321
228
131
49
-30
-112
-176
-216
-246
-271
-290
-301
-301
-302
-298
-274
-252
-255
-250
-221
-212
-233
-235
-224
-234
-243
-230
-226
-237
-235
-222
-226
-238
-226
-199
-193
-200
-193
-186
-195
-198
-181
-172
-174
-172
-187
-210
-184
-120
-86
-76
-58
-69
-119
-144
-132
-134
-153
-142
-124
-141
-139
-120
-163
-173
135
1030
2324
2834
1624
-74
-508
-100
-26
-151
-103
-84
-123
-88
-52
-56
-45
-26
-17
2
36
73
105
134
167
209
250
274
307
370
425
430
423
440
444
397
316
220
119
24
-71
-159
-219
-270
-317
-323
-308
-326
-338
-310
-293
-297
-283
-276
-288
-282
-256
-241
-234
-231
-241
-253
-256
-257
-255
-257
-269
-269
-247
-238
-245
-232
-215
-217
-217
-205
-196
-194
-205
-222
-210
-161
-112
-85
-74
-75
-93
-106
-97
-96
-121
-118
-92
-104
-96
-39
-64
-130
71
786
1925
2611
1798
170
-479
-86
103
-49
-32
40
7
10
49
50
56
81
104
123
134
