# session 34
-18
-30
24
-34
-262
-417
-375
-287
-238
-179
-109
-55
-9
33
63
84
97
93
64
7
-73
-159
-241
-311
-368
-411
-435
-442
-441
-435
-420
-398
-376
-358
-339
-321
-307
-294
-278
-265
-259
-252
-243
-235
-230
-224
-216
-210
-203
-192
-181
-175
-170
-160
-148
-139
-130
-120
-110
-106
-108
-117
-120
-103
-65
-20
17
29
11
-21
-36
-30
-30
-39
-29
-28
-47
-17
2
-88
-107
258
1225
2570
3055
1743
-3
-393
24
51
-89
-23
-3
-47
-12
15
9
29
51
63
88
113
134
165
199
228
263
305
350
394
433
462
480
490
494
486
446
370
272
168
60
-42
-129
-199
-249
-280
-301
-310
-305
-296
-291
-287
-281
-274
-267
-261
-261
-265
-270
-274
-278
-282
-283
-282
-281
-277
-274
-273
-271
-264
-260
-258
-255
-251
-245
-238
-235
-236
-231
-222
-218
-222
-237
-246
-228
-186
-138
-101
-89
-107
-142
-162
-159
-158
-167
-155
-145
-164
-146
-120
-196
-227
104
1002
2270
2821
1688
-22
-517
-115
-32
-179
-137
-105
-146
-115
-78
-82
-62
-31
-16
6
35
62
92
125
160
201
245
291
337
378
409
432
446
453
448
418
356
269
167
64
-32
-118
-185
-231
-258
-273
-280
-284
-284
-277
-267
-259
-250
-241
-233
-225
-218
-217
-218
-216
-213
-215
-216
-212
-211
-214
-214
-210
-207
-205
-199
-195
-195
-192
-181
-172
-173
-176
-172
-166
-159
-152
-150
-155
-168
-179
-167
-127
-78
-44
-36
-54
-87
-109
-111
-112
-124
-116
-98
-110
-106
-76
-132
-193
37
808
2080
2921
2096
279
-529
-171
21
-134
-127
-81
-127
-105
-58
-64
-54
-24
-13
7
44
73
97
124
156
192
228
267
317
367
397
415
433
446
444
425
379
297
198
97
-5
-106
-185
-232
-263
-290
-304
-306
-302
-298
-293
-287
-281
-273
-264
-259
-261
-266
-268
-266
-264
-266
-265
-260
-259
-263
-263
-258
-251
-246
-247
-246
-235
-225
-223
-217
-207
-212
-227
-228
-213
-192
-162
-120
-89
-96
-132
-163
-165
-157
-163
-162
-145
-153
-160
-130
-154
-220
-109
435
1648
2936
2673
714
-688
-470
-44
-155
-186
-74
-105
-126
-71
-61
-48
-6
0
8
54
94
117
149
180
212
263
317
354
393
436
462
482
510
515
474
404
320
221
114
6
-96
-176
-232
-274
-301
-306
-310
-320
-316
-293
-275
-272
-269
-260
-253
-251
-245
-234
-229
-236
-246
-254
-251
-247
-248
-246
-241
-241
-242
-238
-234
-230
-219
-211
-213
-216
-213
-208
-199
-174
-132
-98
-104
-141
-167
-163
-156
-167
-169
-164
-178
-162
-123
-174
-235
-36
687
2033
3092
2321
249
-764
-334
-31
-184
-165
-82
-131
-123
-76
-79
-62
-24
-13
6
42
72
104
137
168
209
259
306
356
408
446
466
481
491
479
436
370
283
173
56
-49
-138
-206
-254
-292
-320
-328
-323
-318
-311
-296
-285
-283
-278
-269
-259
-250
-244
-245
-247
-247
-248
-250
-248
-243
-241
-239
-234
-230
-229
-225
-220
-216
-213
-208
-204
-201
-199
-199
-205
-209
-197
-164
-119
-85
-81
-106
-139
-150
-142
-149
-153
-133
-139
-154
-109
-121
-234
-165
365
1505
2846
2948
1250
-357
-421
-14
-104
-202
-111
-125
-156
-107
-91
-90
-59
-39
-24
8
39
65
99
137
179
225
275
329
385
430
462
487
505
510
498
451
359
242
123
8
-97
-181
-243
-288
-317
-332
-337
-336
-331
-321
-309
-298
-287
-276
-266
-258
-252
-250
-248
-245
-244
-245
-246
-246
-246
-246
-244
-237
-231
-228
-225
-220
-216
-214
-212
-207
-202
-203
-213
-225
-222
-195
-153
-110
-87
-94
-121
-148
-153
-146
-153
-153
-136
-149
-156
-109
-143
-246
-103
542
1734
2862
2567
801
-459
-310
11
-125
-177
-94
-121
-131
-82
-76
-69
-34
-17
-1
31
59
84
118
155
195
241
289
338
388
431
461
482
493
493
475
423
329
216
104
-3
-102
-178
-232
-270
-294
-307
-312
-312
-306
-297
-288
-279
-270
-260
-252
-248
-245
-242
-241
-239
-238
-238
-237
-236
-236
-237
-235
-233
-230
-223
-216
-212
-209
-203
-198
-194
-191
-187
-181
-174
-174
-181
-191
-195
-180
-143
-95
-61
-55
-74
-104
-123
-121
-120
-131
-123
-114
-133
-114
-80
-157
-204
111
972
2223
2873
1873
132
-489
-113
3
-153
-120
-76
-118
-95
-59
-64
-45
-15
-2
19
51
73
98
132
168
206
250
298
346
390
427
451
462
468
469
446
382
286
180
75
-26
-116
-187
-237
-272
-294
-303
-303
-301
-297
-287
-278
-272
-266
-259
-253
-245
-239
-238
-240
-239
-235
-235
-237
-238
-237
-235
-232
-228
-225
-220
-217
-213
-206
-200
-199
-197
-194
-191
-187
-181
-173
-166
-164
-171
-180
-184
-175
-143
-94
-51
-34
-48
-80
-110
-121
-121
-128
-123
-103
-115
-124
-81
-103
-199
-97
461
1594
2766
2598
892
-431
-327
26
-91
-156
-71
-97
-117
-66
-52
-51
-24
-5
11
38
63
91
123
155
189
227
268
315
359
396
426
445
456
461
455
422
353
253
145
44
-47
-128
-198
-255
-289
-299
-298
-294
-285
-281
-280
-273
-263
-266
-269
-262
-253
-252
-254
-254
-254
-250
-241
-239
-246
-249
-245
-238
-233
-231
-229
-220
-212
-213
-209
-200
-199
-203
-201
-197
-196
-199
-199
-186
-156
-119
-83
-70
-93
-132
-151
-144
-145
-162
-157
-142
-157
-147
-114
-158
-189
60
875
2246
3041
1936
-57
-737
-236
-41
-180
-117
-67
-134
-113
-58
-56
-39
-4
13
32
55
78
119
164
192
222
270
325
375
417
445
462
477
489
495
474
405
297
188
90
-9
-108
-195
-255
-284
-300
-315
-320
-312
-302
-291
-280
-276
-272
-259
-251
-250
-243
-239
-248
-250
-239
-235
-243
-246
-243
-241
-236
-229
-227
-230
-231
-227
-224
-217
-208
-205
-205
-205
-213
-222
-206
-168
-134
-109
-91
-96
-125
-152
-155
-149
-159
-159
-145
-163
-164
-119
-155
-230
-52
655
1981
3095
2468
442
-676
-315
1
-165
-173
-80
-120
-125
-76
-71
-55
-23
-14
6
46
76
103
139
176
211
255
307
357
404
445
474
491
501
498
474
416
322
208
94
-13
-110
-186
-239
-279
-306
-320
-324
-320
-309
-300
-291
-277
-260
-252
-252
-252
-245
-239
-238
-240
-240
-239
-241
-243
-244
-242
-240
-238
-232
-225
-223
-223
-216
-209
-205
-203
-199
-195
-190
-185
-180
-180
-187
-197
-199
-181
-141
-94
-69
-72
-92
-118
-136
-134
-134
-141
-129
-128
-149
-117
-99
-196
-194
223
1227
2570
3017
1655
-101
-469
-51
-40
-180
-112
-96
-137
-98
-71
-77
-51
-24
-13
13
46
72
103
138
173
216
267
319
371
418
454
481
504
517
508
472
403
302
183
65
-42
-133
-205
-254
-286
-306
-318
-319
-314
-308
-303
-292
-279
-270
-264
-256
-250
-250
-250
-245
-243
-246
-247
-246
-248
-248
-245
-243
-242
-238
-230
-224
-219
-214
-210
-209
-205
-197
-192
-190
-187
-183
-179
-183
-196
-201
-177
-131
-86
-59
-62
-84
-111
-127
-124
-122
-132
-126
-115
-134
-120
-85
-158
-206
102
939
2167
2859
1933
183
-504
-137
8
-151
-129
-79
-121
-102
-61
-64
-48
-16
-1
18
46
71
102
138
172
207
254
306
356
402
443
469
484
494
494
472
414
323
214
100
-11
-106
-179
-233
-271
-292
-298
-299
-300
-295
-285
-279
-272
-262
-254
-251
-248
-243
-240
-240
-240
-238
-238
-240
-241
-240
-240
-238
-232
-226
-220
-215
-211
-208
-205
-202
-201
-195
-185
-181
-182
-180
-174
-175
-187
-197
-182
-139
-89
-60
-62
-84
-109
-125
-121
-120
-137
-135
-118
-135
-132
-97
-153
-218
27
789
2008
2852
2118
339
-524
-200
12
-137
-135
-79
-121
-108
-64
-71
-57
-19
-7
6
33
60
94
133
162
188
227
277
331
381
416
438
456
471
476
461
415
329
221
115
18
-81
-168
-226
-263
-292
-304
-301
-300
-302
-296
-286
-282
-275
-263
-259
-262
-260
-253
-253
-256
-255
-254
-260
-263
-259
-255
-249
-239
-235
-237
-235
-232
-226
-209
-203
-222
-234
-225
-216
-204
-175
-142
-114
-101
-110
-133
-155
-163
-171
-183
-170
-150
-163
-156
-131
-173
-189
82
928
2311
3037
1824
-174
-765
-218
-41
-189
-122
-70
-128
-98
-52
-62
-41
-2
17
42
70
89
124
167
199
237
286
333
382
432
464
482
504
515
497
456
392
293
176
68
-29
-125
-207
-261
-293
-314
-327
-329
-320
-307
-295
-286
-281
-276
-264
-254
-258
-263
-256
-245
-246
-257
-262
-256
-257
-267
-262
-243
-238
-245
-243
-232
-229
-230
-219
-210
-225
-240
-224
-193
-167
-133
-106
-114
-145
-165
-162
-162
-175
-167
-151
-170
-163
-123
-170
-221
15
813
2199
3138
2190
139
-719
-264
-29
-185
-148
-84
-141
-127
-76
-77
-63
-30
-17
3
40
75
109
139
169
211
260
306
356
407
445
467
484
496
490
460
394
291
172
63
-38
-134
-212
-264
-300
-324
-333
-333
-326
-315
-304
-293
-283
-274
-268
-265
-259
-252
-251
-253
-252
-253
-257
-257
-256
-256
-255
-250
-247
-246
-244
-238
-232
-228
-231
-241
-246
-234
-208
-169
-129
-109
-120
-150
-173
-175
-172
-179
-167
-152
-173
-161
-122
-193
-252
25
866
2226
3101
2169
221
-586
-190
-20
-193
-166
-109
-156
-136
-93
-97
-80
-47
-36
-13
24
50
77
115
156
197
245
298
354
407
451
478
495
507
504
471
398
291
169
50
-59
-152
-223
-273
-304
-324
-336
-336
-329
-321
-314
-304
-294
-286
-278
-270
-266
-262
-258
-257
-257
-255
-254
-257
-258
-256
-253
-250
-248
-247
-243
-240
-249
-258
-249
-223
-186
-142
-118
-130
-161
-184
-184
-175
-182
-187
-169
-176
-184
-138
-157
-263
-171
407
1596
2855
2742
985
-441
-382
-16
-130
-204
-118
-136
-154
-105
-94
-90
-59
-39
-22
9
36
63
98
132
171
221
273
321
371
417
448
469
484
486
465
408
315
202
88
-20
-118
-196
-250
-285
-306
-320
-324
-319
-312
-307
-299
-289
-282
-275
-266
-258
-257
-259
-256
-250
-248
-249
-249
-248
-250
-252
-249
-243
-237
-232
-231
-241
-251
-246
-228
-198
-151
-113
-118
-150
-176
-180
-173
-178
-180
-162
-167
-178
-139
-151
-253
-187
346
1500
2776
2754
1062
-408
-403
-19
-111
-196
-113
-128
-153
-104
-88
-88
-59
-37
-21
6
32
60
94
128
166
212
259
306
356
398
425
444
457
459
441
394
312
204
91
-15
-109
-184
-239
-275
-300
-311
-311
-306
-301
-294
-288
-280
-270
-263
-261
-255
-249
-246
-246
-245
-243
-243
-241
-238
-237
-240
-239
-233
-230
-228
-223
-228
-245
-245
-224
-204
-176
-133
-109
-130
-163
-172
-161
-162
-176
-165
-154
-165
-139
-119
-208
-238
113
1078
2434
2954
1673
-97
-528
-100
-47
-193
-136
-109
-148
-118
-93
-96
-66
-36
-25
-4
25
54
90
123
149
185
233
286
341
383
406
423
441
451
445
409
339
246
141
28
-76
-153
-209
-253
-286
-307
-313
-305
-296
-293
-290
-283
-272
-260
-252
-250
-255
-258
-255
-253
-260
-264
-257
-252
-257
-255
-243
-240
-248
-246
-230
-229
-246
-254
-242
-220
-184
-135
-109
-125
-159
-177
-175
-176
-187
-173
-159
-181
-172
-137
-190
-240
-11
788
2188
3087
2073
54
-712
-241
-37
-193
-156
-100
-148
-123
-78
-82
-65
-33
-19
4
34
61
97
135
163
197
245
293
335
374
408
430
443
449
444
414
350
251
140
41
-49
-140
-217
-260
-284
-305
-315
-307
-297
-290
-279
-268
-263
-256
-248
-242
-238
-236
-235
-235
-237
-240
-240
-238
-239
-241
-239
-235
-228
-219
-215
-214
-211
-216
-230
-231
-214
-195
-167
-125
-99
-109
-135
-149
-146
-146
-154
-145
-142
-159
-132
-112
-198
-225
121
1091
2495
3051
1731
-93
-524
-84
-40
-188
-126
-102
-144
-106
-74
-80
-57
-30
-16
12
42
67
99
133
166
208
258
307
355
397
428
449
464
467
454
415
341
237
123
14
-83
-164
-224
-267
-295
-311
-318
-317
-309
-301
-295
-288
-281
-275
-268
-261
-260
-258
-254
-252
-254
-254
-255
-258
-258
-255
-254
-252
-247
-242
-239
-235
-231
-232
-242
-253
-252
-239
-217
-182
-144
-130
-146
-172
-179
-174
-180
-183
-167
-177
-189
-145
-156
-261
-198
325
1458
2730
2734
1066
-410
-418
-34
-126
-215
-132
-144
-166
-118
-106
-107
-74
-49
-35
-8
19
44
79
118
156
196
242
292
340
378
406
427
439
442
425
375
291
188
81
-20
-112
-188
-242
-277
-298
-308
-313
-314
-306
-293
-282
-272
-260
-250
-242
-235
-230
-228
-227
-224
-222
-218
-214
-212
-212
-211
-205
-199
-195
-191
-183
-174
-169
-163
-155
-149
-145
-136
-127
-123
-118
-116
-126
-136
-128
-100
-56
-8
15
3
-27
-48
-47
-41
-54
-53
-31
-43
-47
-5
-45
-128
54
738
1939
2940
2434
652
-410
-154
119
-33
-61
12
-24
-28
17
19
25
54
67
85
114
134
156
191
225
258
297
341
385
427
460
479
492
501
499
482
441
361
252
144
39
-66
-151
-210
-257
-288
-298
-301
-310
-317
-312
-306
-305
-304
-300
-298
-301
-305
-308
-310
-315
-322
-328
-331
-337
-345
-348
-347
-351
-354
-350
-347
-347
-345
-345
-348
-347
-347
-354
-357
-356
-363
-370
-360
-333
-296
-257
-240
-260
-301
-332
-333
-328
-332
-323
-318
-330
-307
-294
-366
-364
-3
971
2338
2770
1349
-413
-713
-234
-199
-323
-238
-216
-253
-201
-161
-165
-138
-101
-77
-41
3
43
85
129
176
225
275
330
391
446
488
525
556
575
583
569
515
432
343
253
170
103
52
19
7
5
8
25
52
76
98
122
