# session 39
-13
-18
-12
79
164
126
83
133
191
212
239
285
341
389
424
447
460
467
463
420
337
245
140
16
-88
-161
-220
-260
-277
-281
-275
-271
-276
-271
-258
-253
-245
-235
-244
-249
-234
-224
-225
-223
-225
-227
-221
-216
-211
-201
-202
-211
-201
-182
-186
-206
-205
-194
-188
-162
-108
-78
-86
-95
-101
-124
-141
-139
-132
-137
-159
-153
-99
-108
-198
-154
312
1453
2770
2684
851
-619
-475
-15
-103
-154
-49
-87
-103
-30
-43
-66
-4
36
32
57
102
145
178
189
208
267
323
359
401
439
457
476
493
490
478
448
366
245
126
9
-107
-186
-232
-279
-316
-325
-335
-343
-318
-290
-293
-295
-278
-265
-272
-277
-261
-252
-267
-277
-273
-276
-276
-276
-285
-273
-252
-263
-276
-251
-237
-260
-272
-256
-243
-227
-184
-136
-123
-145
-182
-206
-205
-203
-201
-181
-178
-192
-175
-189
-254
-172
313
1437
2760
2737
932
-591
-492
-26
-118
-195
-93
-125
-154
-83
-66
-78
-47
-14
8
30
50
91
135
155
189
250
300
337
376
403
429
468
493
488
470
424
329
205
84
-17
-95
-179
-264
-301
-298
-310
-327
-317
-306
-308
-296
-273
-267
-276
-276
-265
-253
-246
-243
-248
-260
-266
-259
-252
-262
-272
-255
-229
-232
-241
-228
-215
-222
-232
-236
-235
-229
-227
-201
-136
-94
-113
-149
-164
-160
-151
-143
-136
-147
-168
-146
-137
-205
-175
244
1255
2534
2789
1342
-236
-425
-26
-60
-166
-91
-109
-139
-60
-22
-38
-24
-7
5
39
73
91
119
155
180
217
287
355
394
425
456
479
497
505
492
452
365
251
145
37
-77
-160
-210
-259
-298
-306
-307
-318
-315
-297
-295
-296
-269
-243
-251
-267
-261
-243
-236
-245
-255
-253
-251
-255
-247
-240
-256
-260
-237
-231
-244
-235
-214
-218
-230
-217
-198
-204
-215
-210
-209
-210
-190
-145
-97
-74
-95
-138
-157
-139
-129
-148
-146
-125
-136
-135
-113
-171
-213
40
782
1962
2733
1948
232
-516
-151
38
-130
-126
-57
-96
-93
-42
-27
-24
-3
25
53
71
93
127
156
178
214
266
322
365
400
443
477
488
496
506
478
405
319
219
97
-14
-95
-168
-223
-246
-265
-288
-291
-288
-298
-292
-264
-250
-256
-262
-262
-254
-238
-225
-229
-237
-241
-244
-245
-240
-238
-239
-237
-231
-233
-235
-224
-211
-215
-214
-192
-184
-196
-189
-174
-184
-191
-172
-161
-166
-169
-179
-198
-192
-147
-91
-57
-52
-71
-95
-106
-107
-115
-126
-121
-121
-136
-109
-84
-159
-184
138
983
2181
2733
1684
35
-463
-65
26
-132
-105
-68
-97
-65
-38
-50
-21
25
28
24
61
115
144
158
183
224
270
311
351
399
442
463
469
472
484
490
439
322
204
116
16
-91
-164
-214
-260
-290
-296
-294
-293
-291
-284
-277
-276
-268
-253
-257
-276
-275
-250
-238
-246
-257
-262
-259
-248
-242
-245
-243
-237
-239
-238
-224
-212
-204
-199
-208
-226
-219
-187
-172
-178
-177
-171
-176
-182
-171
-167
-181
-174
-134
-96
-67
-47
-69
-121
-139
-117
-114
-133
-124
-109
-128
-121
-88
-126
-148
97
869
2154
2890
1825
-65
-676
-155
38
-129
-96
-35
-75
-61
-37
-41
-9
30
38
49
74
100
140
190
231
261
280
307
365
428
450
453
475
500
502
479
421
330
229
121
5
-90
-156
-218
-274
-303
-307
-301
-300
-306
-297
-270
-264
-281
-280
-260
-246
-238
-238
-249
-254
-255
-261
-259
-249
-249
-258
-260
-247
-232
-232
-237
-230
-224
-227
-218
-203
-199
-202
-200
-195
-184
-172
-174
-184
-183
-175
-181
-182
-141
-82
-64
-88
-105
-100
-106
-124
-136
-139
-120
-108
-135
-132
-97
-141
-178
77
892
2210
2953
1910
50
-583
-129
23
-139
-98
-41
-86
-73
-39
-36
-14
4
14
46
82
109
140
165
193
246
302
336
374
425
458
471
488
501
498
480
433
334
210
101
6
-93
-180
-239
-277
-306
-321
-318
-311
-312
-310
-291
-269
-259
-255
-248
-245
-250
-252
-250
-249
-247
-246
-253
-259
-251
-237
-231
-241
-249
-237
-221
-224
-228
-213
-198
-206
-217
-202
-187
-195
-195
-172
-167
-179
-179
-183
-198
-181
-125
-80
-63
-65
-85
-119
-134
-121
-118
-137
-134
-126
-139
-118
-108
-189
-164
269
1254
2463
2708
1325
-217
-412
-5
-32
-160
-84
-65
-94
-61
-47
-52
-25
3
22
48
69
90
123
166
214
256
288
327
374
416
458
494
501
496
504
487
411
306
194
72
-41
-131
-207
-261
-283
-295
-314
-329
-324
-304
-291
-291
-284
-267
-259
-261
-255
-246
-246
-248
-241
-236
-243
-253
-255
-250
-239
-228
-230
-236
-227
-213
-209
-211
-212
-207
-198
-200
-203
-192
-178
-177
-193
-212
-203
-158
-117
-101
-85
-70
-84
-121
-141
-134
-135
-146
-137
-138
-153
-114
-95
-183
-159
282
1267
2425
2563
1136
-310
-401
8
-39
-146
-64
-68
-109
-71
-52
-42
0
17
22
59
92
101
128
177
209
231
276
336
380
410
447
485
506
508
501
468
389
276
159
47
-51
-127
-193
-247
-278
-295
-306
-304
-299
-298
-288
-276
-276
-272
-256
-246
-241
-240
-246
-247
-238
-238
-244
-242
-241
-249
-252
-244
-232
-227
-225
-217
-209
-207
-206
-204
-202
-200
-199
-198
-193
-191
-200
-202
-174
-132
-95
-71
-80
-117
-141
-131
-125
-148
-156
-130
-138
-165
-120
-98
-186
-132
371
1413
2515
2460
918
-429
-393
31
-35
-152
-83
-70
-82
-47
-42
-40
-3
19
24
48
81
110
140
174
211
247
281
316
361
411
450
474
490
500
500
472
394
277
163
55
-63
-162
-213
-246
-282
-299
-293
-292
-302
-301
-281
-269
-274
-271
-257
-265
-277
-264
-254
-264
-260
-248
-249
-247
-242
-247
-245
-232
-231
-237
-229
-226
-230
-218
-206
-212
-216
-202
-192
-205
-217
-196
-146
-102
-89
-102
-124
-144
-160
-169
-164
-145
-136
-162
-173
-128
-131
-192
-102
407
1542
2732
2475
643
-669
-445
-9
-105
-154
-52
-69
-90
-47
-41
-36
-3
16
40
73
102
140
173
183
205
251
298
355
418
453
468
494
516
509
489
452
363
239
126
14
-98
-169
-212
-273
-321
-319
-307
-318
-328
-309
-283
-279
-285
-280
-273
-273
-270
-261
-249
-238
-241
-257
-263
-255
-252
-259
-267
-262
-247
-241
-237
-224
-221
-226
-215
-208
-225
-228
-208
-193
-174
-143
-122
-120
-129
-150
-167
-173
-181
-168
-137
-154
-184
-144
-132
-207
-146
345
1479
2770
2705
909
-583
-488
-27
-104
-176
-68
-72
-100
-61
-54
-55
-23
0
20
56
98
133
152
167
214
281
325
357
408
459
489
511
531
529
503
456
369
241
108
-1
-95
-188
-259
-294
-321
-348
-346
-323
-314
-322
-322
-308
-289
-275
-268
-265
-270
-273
-261
-250
-260
-272
-269
-262
-257
-256
-263
-265
-250
-243
-253
-258
-247
-233
-232
-247
-251
-228
-198
-172
-138
-110
-121
-156
-178
-178
-181
-181
-154
-149
-188
-174
-140
-206
-205
177
1156
2496
2934
1550
-207
-531
-67
-45
-181
-100
-91
-153
-110
-61
-60
-35
-4
4
17
53
97
132
163
198
233
275
342
406
441
480
529
546
534
529
502
407
268
138
26
-82
-179
-252
-290
-309
-336
-358
-350
-329
-325
-320
-302
-292
-287
-275
-265
-260
-256
-268
-282
-264
-239
-245
-258
-258
-256
-252
-246
-248
-249
-238
-228
-222
-224
-234
-238
-236
-242
-236
-198
-155
-125
-104
-110
-149
-174
-166
-167
-175
-148
-132
-169
-161
-121
-197
-248
71
943
2205
2855
1834
83
-513
-115
1
-154
-120
-86
-128
-93
-58
-69
-36
5
-3
4
59
107
125
145
186
232
268
310
378
445
477
498
517
512
508
508
443
307
179
72
-40
-135
-200
-252
-289
-309
-323
-331
-324
-310
-301
-299
-288
-262
-248
-258
-261
-256
-260
-263
-255
-254
-258
-254
-254
-262
-252
-228
-223
-240
-247
-232
-214
-213
-217
-207
-198
-205
-216
-216
-216
-224
-211
-156
-94
-75
-92
-115
-134
-149
-152
-151
-147
-128
-132
-151
-121
-119
-211
-161
325
1350
2496
2565
1103
-307
-376
14
-45
-153
-71
-62
-95
-69
-57
-45
-5
11
20
57
90
111
148
184
205
240
297
345
386
440
486
499
502
518
524
484
399
287
167
52
-52
-140
-206
-253
-286
-300
-299
-298
-299
-294
-292
-284
-263
-249
-256
-257
-248
-246
-250
-250
-251
-255
-256
-252
-247
-244
-244
-245
-240
-232
-225
-219
-214
-209
-206
-210
-219
-215
-189
-170
-181
-194
-180
-164
-167
-177
-187
-193
-168
-105
-53
-56
-90
-112
-119
-114
-114
-131
-123
-105
-132
-137
-86
-123
-195
36
790
1953
2691
1938
273
-501
-183
30
-83
-76
-37
-84
-71
-27
-31
-16
21
27
36
75
107
121
148
189
229
274
326
372
410
445
475
497
509
511
493
442
358
248
131
26
-62
-144
-208
-244
-265
-281
-284
-284
-289
-279
-260
-268
-277
-253
-234
-245
-247
-234
-234
-236
-234
-242
-248
-238
-239
-246
-236
-231
-242
-232
-205
-201
-209
-200
-190
-200
-206
-188
-175
-186
-196
-190
-182
-168
-149
-146
-155
-160
-169
-176
-160
-121
-81
-52
-42
-62
-110
-132
-104
-89
-118
-124
-105
-119
-112
-74
-133
-206
-5
689
1883
2762
2069
309
-531
-170
57
-105
-113
-57
-97
-80
-36
-55
-51
-6
12
24
63
99
120
152
191
220
254
302
341
372
417
455
459
463
490
505
466
376
261
150
46
-65
-162
-223
-270
-306
-311
-300
-303
-306
-300
-298
-291
-268
-252
-259
-269
-265
-263
-274
-275
-262
-264
-282
-276
-251
-252
-269
-259
-244
-254
-254
-233
-236
-244
-225
-214
-228
-219
-204
-227
-240
-196
-148
-131
-114
-99
-113
-153
-184
-176
-157
-161
-165
-156
-156
-146
-145
-181
-138
243
1280
2645
2828
1141
-538
-600
-69
-73
-176
-81
-64
-83
-36
-27
-34
-4
19
37
66
86
117
170
203
232
294
349
373
410
466
504
522
537
542
522
471
392
276
137
19
-65
-149
-229
-280
-312
-332
-333
-331
-332
-325
-317
-305
-277
-272
-301
-299
-260
-246
-261
-266
-267
-276
-279
-269
-264
-274
-279
-272
-276
-276
-241
-212
-222
-234
-226
-225
-232
-231
-230
-228
-193
-134
-103
-112
-140
-169
-173
-160
-171
-182
-159
-158
-174
-145
-157
-234
-151
356
1501
2819
2771
962
-541
-449
-8
-99
-169
-81
-115
-126
-50
-46
-66
-27
7
22
47
69
95
140
183
214
257
314
371
416
452
492
527
534
530
523
470
358
239
135
19
-101
-195
-257
-289
-309
-332
-338
-322
-316
-322
-312
-301
-303
-291
-267
-257
-262
-262
-256
-249
-248
-255
-266
-270
-261
-251
-262
-277
-255
-230
-245
-260
-232
-208
-224
-242
-240
-234
-222
-179
-122
-100
-125
-169
-191
-169
-149
-170
-177
-155
-170
-166
-128
-186
-245
13
811
2088
2902
2029
211
-543
-174
-10
-153
-122
-80
-124
-98
-69
-79
-48
-15
-11
10
44
75
107
129
159
225
283
316
363
424
466
494
522
541
540
509
433
315
181
55
-57
-147
-208
-260
-317
-344
-328
-314
-328
-333
-314
-299
-299
-295
-279
-257
-254
-269
-268
-253
-256
-263
-253
-256
-268
-255
-234
-241
-250
-243
-242
-246
-230
-207
-206
-223
-241
-246
-234
-212
-184
-141
-103
-102
-126
-142
-147
-145
-148
-164
-155
-134
-160
-158
-98
-151
-245
5
832
2080
2833
1977
211
-532
-148
38
-128
-121
-73
-116
-89
-44
-56
-43
-1
16
32
63
93
127
165
190
223
277
323
365
429
480
493
508
538
542
506
442
340
209
85
-21
-127
-219
-262
-283
-318
-332
-307
-296
-310
-306
-288
-281
-273
-259
-260
-265
-257
-251
-260
-271
-265
-255
-258
-258
-245
-239
-245
-243
-236
-238
-236
-231
-234
-231
-211
-201
-210
-211
-198
-201
-216
-217
-202
-181
-142
-95
-76
-94
-120
-140
-150
-146
-144
-145
-141
-149
-133
-96
-159
-234
-9
703
1861
2727
2102
378
-512
-187
48
-110
-120
-67
-118
-90
-21
-35
-42
-5
12
25
61
96
118
143
189
234
257
291
368
440
473
488
505
519
529
516
456
357
238
116
7
-86
-174
-241
-264
-271
-297
-314
-300
-290
-300
-300
-277
-256
-255
-262
-260
-252
-249
-246
-245
-256
-261
-248
-251
-264
-246
-227
-242
-249
-223
-210
-223
-220
-197
-198
-209
-196
-183
-195
-193
-167
-162
-165
-147
-136
-154
-168
-158
-133
-92
-42
-20
-41
-71
-84
-94
-100
-104
-114
-110
-98
-115
-112
-89
-144
-175
111
920
2125
2753
1767
67
-499
-71
62
-112
-91
-42
-80
-56
-14
-13
1
25
41
57
74
109
165
194
200
239
303
347
381
424
461
485
501
510
521
518
462
362
252
129
12
-70
-140
-210
-256
-284
-306
-304
-287
-280
-278
-284
-292
-277
-256
-258
-265
-259
-255
-255
-251
-252
-260
-265
-265
-262
-261
-265
-262
-260
-270
-267
-240
-231
-244
-237
-220
-225
-232
-222
-215
-217
-211
-209
-219
-213
-190
-191
-214
-221
-213
-199
-160
-107
-80
-87
-106
-131
-157
-162
-151
-155
-156
-144
-172
-182
-119
-133
-215
-38
654
1824
2702
2076
343
-549
-210
35
-137
-151
-65
-85
-78
-51
-69
-47
6
18
29
62
87
116
159
190
220
264
299
335
396
455
482
500
525
538
530
504
435
317
192
91
-11
-108
-162
-185
-221
-257
-256
-238
-234
-237
-230
-223
-229
-229
-203
-179
-188
-197
-180
-168
-173
-173
-161
-143
-131
-136
-143
-131
-123
-128
-120
-98
-91
-93
-88
-81
-78
-66
-59
-73
-78
-52
-38
-64
-87
-69
-30
10
56
78
51
17
6
-5
-9
9
18
8
5
6
9
27
