# session 19
-50
-28
-78
-28
167
256
143
27
-8
-47
-86
-83
-83
-107
-117
-106
-99
-104
-119
-136
-143
-148
-166
-187
-196
-198
-206
-218
-227
-237
-241
-231
-226
-235
-230
-213
-215
-225
-218
-208
-211
-213
-203
-183
-156
-127
-100
-89
-111
-144
-152
-157
-169
-149
-133
-163
-145
-107
-207
-261
94
1056
2572
3522
2376
33
-984
-532
-261
-394
-346
-263
-283
-245
-193
-182
-140
-91
-63
-15
54
119
201
314
451
597
730
824
871
885
870
811
707
585
462
332
194
66
-46
-142
-220
-274
-302
-307
-298
-293
-299
-298
-285
-282
-293
-295
-287
-293
-311
-320
-317
-322
-337
-347
-344
-345
-349
-343
-330
-326
-324
-313
-305
-301
-292
-283
-280
-272
-259
-250
-245
-242
-241
-245
-256
-257
-229
-182
-148
-129
-113
-120
-153
-169
-166
-177
-171
-145
-173
-183
-121
-181
-306
-95
667
2048
3450
3186
1000
-702
-642
-247
-361
-393
-275
-293
-296
-226
-204
-185
-133
-93
-50
9
71
147
250
370
507
653
779
864
906
905
866
792
685
560
430
298
163
37
-71
-162
-234
-280
-304
-313
-315
-313
-310
-306
-299
-291
-291
-296
-296
-294
-297
-302
-303
-308
-315
-316
-315
-317
-319
-317
-311
-304
-294
-286
-280
-273
-264
-256
-250
-243
-235
-227
-221
-216
-209
-202
-197
-191
-188
-185
-179
-175
-183
-195
-196
-181
-145
-97
-63
-55
-68
-99
-121
-117
-120
-126
-112
-123
-140
-85
-106
-250
-159
451
1652
3095
3363
1633
-316
-668
-263
-276
-370
-271
-253
-271
-212
-181
-170
-120
-75
-42
9
71
139
228
331
449
582
710
805
858
872
851
799
717
606
480
356
235
112
-4
-101
-180
-242
-280
-297
-301
-298
-294
-292
-290
-286
-283
-280
-279
-281
-285
-285
-286
-292
-297
-300
-302
-300
-299
-301
-301
-296
-290
-279
-263
-254
-257
-260
-258
-252
-237
-224
-224
-222
-211
-205
-203
-197
-193
-194
-192
-186
-184
-179
-167
-155
-153
-156
-155
-164
-186
-189
-155
-107
-79
-65
-52
-59
-94
-111
-108
-117
-116
-109
-131
-111
-71
-167
-243
62
938
2393
3488
2643
399
-792
-482
-224
-369
-341
-255
-287
-259
-198
-187
-153
-95
-66
-35
17
78
155
248
349
466
598
716
793
830
848
844
796
714
614
483
341
229
124
-4
-116
-188
-238
-275
-292
-297
-296
-293
-285
-279
-283
-285
-279
-291
-315
-308
-294
-322
-350
-331
-315
-337
-352
-342
-338
-342
-341
-340
-332
-312
-305
-309
-288
-267
-280
-286
-258
-243
-253
-249
-243
-246
-233
-209
-195
-172
-135
-113
-123
-155
-174
-164
-166
-178
-162
-162
-174
-128
-143
-262
-180
368
1559
3069
3291
1361
-660
-866
-338
-337
-405
-264
-249
-277
-206
-167
-160
-116
-70
-33
19
75
142
234
337
448
582
719
812
856
868
851
793
699
584
455
326
204
79
-46
-144
-207
-251
-281
-290
-291
-289
-279
-269
-264
-260
-260
-266
-270
-269
-272
-277
-286
-295
-302
-307
-315
-320
-320
-319
-319
-311
-299
-292
-289
-280
-271
-267
-263
-256
-249
-243
-237
-232
-227
-224
-230
-238
-229
-197
-158
-125
-101
-96
-123
-155
-158
-156
-166
-151
-145
-174
-143
-111
-234
-277
139
1167
2673
3508
2299
78
-813
-422
-260
-400
-334
-269
-304
-262
-209
-205
-171
-120
-86
-37
27
90
169
273
392
526
668
791
872
907
899
853
770
655
522
386
251
119
-6
-113
-198
-260
-303
-328
-333
-328
-323
-319
-315
-312
-309
-306
-306
-306
-305
-306
-311
-316
-319
-322
-326
-327
-325
-323
-321
-317
-312
-305
-296
-287
-280
-274
-264
-253
-245
-240
-232
-223
-219
-223
-236
-246
-235
-196
-146
-108
-88
-89
-118
-148
-150
-146
-154
-142
-138
-164
-136
-110
-223
-255
148
1124
2519
3265
2122
61
-767
-403
-241
-367
-309
-245
-274
-237
-185
-175
-142
-94
-59
-15
43
104
179
272
381
507
638
748
823
857
853
814
744
639
512
387
268
148
29
-76
-162
-225
-262
-280
-287
-290
-289
-283
-276
-272
-269
-268
-268
-270
-273
-275
-273
-272
-279
-289
-293
-288
-282
-283
-289
-288
-281
-279
-273
-260
-251
-248
-246
-240
-236
-234
-225
-212
-208
-211
-207
-201
-200
-199
-203
-217
-213
-168
-118
-91
-77
-90
-136
-158
-145
-153
-158
-138
-160
-174
-126
-169
-268
-99
550
1842
3235
3023
897
-772
-687
-264
-360
-386
-261
-273
-276
-212
-198
-187
-137
-95
-55
0
60
128
205
297
413
537
653
754
817
839
831
790
713
617
500
365
243
136
13
-113
-203
-254
-281
-280
-272
-285
-301
-294
-282
-283
-284
-276
-271
-281
-301
-309
-313
-324
-324
-312
-325
-350
-348
-340
-345
-334
-313
-319
-328
-310
-298
-303
-291
-278
-285
-275
-248
-235
-205
-151
-135
-161
-176
-178
-199
-224
-212
-189
-210
-202
-133
-177
-290
-128
551
1885
3251
2917
685
-967
-784
-287
-357
-373
-245
-259
-256
-181
-164
-146
-88
-52
-24
35
105
178
268
378
497
622
744
837
887
890
849
772
672
550
403
261
145
29
-96
-191
-247
-289
-315
-317
-312
-308
-300
-295
-298
-295
-286
-288
-302
-306
-298
-299
-313
-323
-325
-330
-340
-345
-338
-328
-327
-328
-319
-309
-304
-299
-290
-282
-280
-287
-290
-275
-247
-212
-170
-140
-140
-162
-185
-192
-197
-209
-190
-174
-210
-189
-138
-244
-314
51
1022
2546
3568
2514
163
-928
-520
-271
-419
-362
-274
-316
-288
-229
-221
-185
-131
-98
-48
20
80
154
259
384
522
661
782
868
910
909
870
792
674
535
394
255
119
-7
-117
-205
-268
-310
-334
-339
-335
-331
-324
-311
-305
-307
-306
-302
-302
-304
-306
-310
-314
-314
-315
-319
-324
-323
-319
-318
-316
-312
-305
-296
-285
-275
-267
-260
-256
-262
-273
-273
-246
-198
-154
-131
-125
-141
-172
-187
-184
-195
-189
-169
-193
-191
-136
-216
-340
-87
732
2094
3320
2876
757
-736
-605
-256
-375
-392
-286
-303
-296
-231
-213
-191
-140
-105
-68
-10
50
123
219
329
453
592
721
814
864
875
849
782
680
557
425
290
155
26
-87
-177
-244
-292
-321
-334
-334
-328
-320
-311
-306
-303
-297
-292
-291
-294
-293
-289
-290
-296
-297
-295
-297
-299
-294
-289
-288
-286
-280
-273
-267
-260
-253
-244
-237
-232
-227
-222
-218
-218
-229
-242
-233
-191
-139
-103
-91
-97
-122
-149
-153
-155
-167
-153
-142
-172
-151
-110
-212
-269
98
1031
2397
3236
2257
202
-755
-430
-228
-358
-318
-247
-275
-241
-187
-182
-153
-102
-69
-30
26
86
156
245
349
467
593
705
785
823
828
803
738
639
527
411
290
167
48
-59
-146
-210
-251
-277
-296
-301
-290
-281
-287
-290
-279
-272
-275
-275
-276
-285
-288
-282
-283
-291
-295
-300
-303
-296
-287
-288
-288
-282
-282
-280
-265
-251
-247
-240
-231
-232
-236
-226
-210
-210
-225
-232
-226
-212
-180
-137
-111
-100
-104
-138
-169
-157
-154
-173
-162
-158
-173
-136
-148
-266
-206
309
1477
3010
3338
1525
-502
-807
-329
-326
-416
-298
-273
-294
-236
-209
-202
-146
-96
-76
-41
25
100
174
253
354
473
594
708
796
834
822
789
734
632
509
402
290
157
30
-78
-172
-238
-274
-296
-304
-295
-285
-288
-288
-273
-264
-272
-289
-297
-293
-297
-312
-316
-312
-326
-338
-329
-322
-332
-339
-335
-322
-306
-307
-318
-307
-284
-278
-284
-282
-276
-261
-228
-187
-152
-131
-138
-173
-206
-224
-224
-193
-179
-219
-204
-133
-198
-282
-18
837
2309
3401
2466
110
-1063
-622
-275
-391
-324
-216
-263
-247
-192
-190
-143
-74
-52
-15
58
118
182
281
394
506
628
751
838
873
870
833
754
643
517
382
253
128
-4
-118
-185
-231
-279
-307
-305
-299
-299
-296
-289
-283
-274
-266
-269
-273
-274
-282
-295
-303
-310
-318
-322
-328
-331
-327
-324
-325
-321
-310
-300
-293
-290
-284
-273
-268
-273
-279
-276
-254
-217
-183
-159
-139
-140
-173
-199
-195
-195
-201
-187
-201
-221
-166
-176
-309
-239
318
1536
3138
3520
1656
-491
-844
-346
-339
-435
-317
-301
-328
-265
-231
-218
-166
-124
-96
-45
16
81
167
274
397
536
673
783
851
881
877
836
754
636
500
366
235
101
-25
-125
-202
-268
-313
-332
-334
-329
-322
-316
-311
-306
-305
-303
-295
-291
-297
-304
-308
-311
-314
-320
-326
-327
-327
-328
-327
-321
-315
-308
-298
-288
-280
-273
-269
-275
-288
-284
-248
-195
-156
-142
-140
-153
-181
-192
-186
-195
-191
-173
-200
-196
-140
-227
-349
-80
762
2155
3381
2874
701
-766
-597
-256
-383
-389
-283
-308
-302
-235
-219
-200
-152
-116
-74
-14
43
112
205
312
434
572
701
798
852
866
843
785
690
566
433
300
165
33
-82
-174
-243
-293
-323
-335
-335
-333
-330
-324
-316
-312
-309
-305
-303
-302
-302
-303
-306
-310
-310
-309
-309
-308
-305
-305
-304
-297
-287
-280
-275
-265
-254
-248
-249
-256
-265
-258
-217
-162
-124
-109
-114
-140
-170
-174
-169
-180
-172
-159
-184
-170
-131
-230
-310
24
941
2307
3190
2290
239
-785
-477
-242
-369
-338
-257
-283
-260
-205
-193
-164
-117
-84
-43
13
69
137
222
321
436
559
667
747
791
797
772
714
622
511
393
271
149
31
-77
-166
-230
-272
-299
-307
-303
-297
-295
-292
-286
-284
-287
-284
-274
-270
-277
-286
-289
-290
-297
-302
-296
-286
-286
-290
-289
-285
-280
-270
-263
-266
-267
-267
-271
-265
-232
-190
-156
-131
-124
-153
-195
-205
-196
-196
-185
-187
-218
-190
-159
-272
-321
49
1022
2478
3273
2076
-77
-906
-481
-291
-406
-333
-275
-315
-270
-207
-199
-176
-139
-112
-67
-1
64
127
198
294
417
537
631
707
759
764
733
692
632
532
406
280
158
37
-78
-172
-233
-268
-287
-287
-285
-294
-296
-287
-289
-288
-270
-272
-299
-306
-291
-294
-311
-315
-317
-329
-336
-328
-326
-338
-350
-347
-334
-321
-296
-257
-222
-215
-234
-254
-256
-258
-251
-226
-240
-261
-210
-213
-313
-233
306
1569
3165
3297
1211
-780
-876
-358
-400
-454
-313
-315
-335
-250
-218
-225
-182
-132
-101
-49
34
110
173
260
382
510
619
709
778
812
791
723
635
534
420
291
147
12
-89
-168
-242
-294
-312
-312
-312
-311
-299
-287
-295
-303
-294
-287
-291
-299
-312
-323
-326
-329
-329
-323
-336
-364
-365
-345
-342
-335
-295
-254
-248
-267
-281
-276
-276
-274
-247
-251
-283
-234
-203
-330
-356
64
1139
2751
3515
2032
-278
-987
-477
-328
-456
-369
-314
-346
-300
-259
-251
-205
-157
-125
-68
2
65
138
232
348
485
618
708
751
775
779
738
654
548
426
290
158
39
-72
-174
-249
-293
-319
-329
-324
-317
-314
-308
-298
-294
-293
-292
-292
-294
-303
-314
-319
-321
-326
-329
-340
-356
-355
-343
-338
-318
-271
-232
-230
-257
-277
-269
-263
-269
-250
-246
-272
-232
-215
-348
-363
101
1250
2884
3561
2004
-244
-883
-420
-341
-473
-378
-335
-369
-315
-270
-263
-220
-173
-140
-87
-26
37
120
225
345
480
610
711
776
802
788
740
661
550
420
287
156
27
-89
-184
-253
-299
-327
-341
-341
-334
-329
-325
-318
-310
-308
-308
-306
-305
-308
-311
-311
-312
-315
-317
-316
-316
-317
-318
-323
-327
-319
-302
-276
-235
-192
-174
-186
-210
-219
-208
-212
-214
-193
-205
-217
-162
-198
-351
-244
432
1738
3145
3137
1217
-566
-694
-280
-338
-408
-298
-293
-305
-242
-215
-202
-154
-115
-80
-25
34
98
182
282
393
514
626
711
761
777
761
713
633
525
404
282
160
40
-67
-155
-220
-263
-284
-293
-296
-295
-292
-291
-286
-280
-280
-282
-281
-282
-286
-288
-288
-293
-297
-295
-291
-294
-300
-299
-289
-279
-273
-269
-263
-257
-251
-241
-238
-251
-269
-265
-238
-206
-175
-141
-119
-127
-153
-162
-162
-171
-159
-143
-172
-169
-123
-206
-298
-13
832
2176
3209
2523
461
-748
-502
-215
-343
-341
-256
-285
-274
-216
-197
-169
-125
-98
-60
-5
50
114
192
275
371
480
580
656
705
726
716
672
599
514
422
313
187
65
-35
-117
-190
-246
-270
-275
-284
-287
-276
-272
-285
-290
-281
-281
-286
-284
-292
-310
-308
-303
-318
-331
-330
-331
-331
-321
-310
-303
-304
-321
-335
-324
-305
-289
-265
-232
-209
-193
-193
-217
-233
-228
-224
-210
-209
-247
-225
-162
-240
-324
-38
901
2477
3515
2403
37
-997
-546
-286
-421
-353
-266
-311
-278
-205
-199
-189
-138
-79
-33
1
55
134
213
303
430
559
645
699
740
757
731
664
573
476
370
250
133
29
-77
-176
-232
-255
-272
-270
-249
-251
-273
-272
-259
-259
-265
-268
-269
-269
-280
-297
-300
-306
-326
-333
-319
-305
-296
-297
-318
-335
-323
-296
-279
-267
-235
-194
-192
-225
-229
-213
-232
-237
-198
-210
-234
-175
-199
-332
-221
421
1748
3226
3136
1002
-822
-799
-299
-355
-398
-275
-296
-308
-230
-212
-205
-141
-96
-74
-24
36
95
185
299
405
518
650
745
773
781
775
720
629
524
387
234
108
2
-109
-212
-282
-316
-325
-334
-345
-341
-326
-321
-321
-317
-313
-311
-315
-329
-343
-345
-347
-359
-366
-361
-364
-376
-380
-376
-377
-380
-372
-350
-330
-324
-307
-265
-236
-251
-281
-283
-271
-269
-252
-236
-275
-271
-194
-254
-383
-174
620
2084
3475
3027
724
-861
-658
-266
-411
-433
-317
-341
-329
-250
-230
-218
-173
-127
-72
-17
34
107
204
309
429
560
674
756
804
822
804
750
665
560
440
317
199
84
-28
-121
-188
-227
-239
-235
-234
-231
-217
-211
-214
-204
-190
-191
-194
-187
-188
-202
-207
-197
-195
-206
-215
-208
-195
-186
-179
-169
-162
-158
-154
-156
-156
-138
-105
-68
-34
-10
-12
-34
-46
-40
-31
