# session 37
-59
-72
-56
8
5
-112
-183
-164
-161
-178
-166
-148
-141
-144
-159
-158
-141
-144
-161
-165
-164
-173
-179
-184
-192
-197
-193
-191
-192
-187
-176
-168
-177
-197
-208
-203
-192
-175
-143
-109
-98
-113
-140
-148
-133
-130
-129
-122
-144
-151
-102
-139
-252
-122
517
1741
2932
2658
847
-448
-286
39
-124
-189
-95
-116
-129
-80
-73
-72
-40
-21
-10
16
50
79
103
147
211
260
289
336
389
419
441
470
485
478
442
358
245
147
56
-50
-149
-219
-269
-308
-326
-327
-330
-337
-334
-322
-307
-286
-267
-261
-257
-252
-255
-261
-256
-249
-254
-260
-256
-255
-268
-273
-253
-228
-227
-238
-234
-219
-214
-212
-208
-205
-198
-199
-220
-236
-220
-189
-152
-97
-63
-84
-126
-145
-143
-141
-144
-133
-121
-142
-138
-104
-164
-237
8
822
2103
2900
2052
268
-507
-153
26
-138
-129
-74
-128
-118
-48
-30
-35
-16
14
42
68
93
109
133
187
247
288
328
367
394
431
471
476
469
478
454
363
260
172
73
-35
-125
-192
-246
-282
-293
-295
-301
-297
-286
-289
-290
-264
-241
-242
-244
-242
-244
-240
-234
-241
-245
-239
-235
-236
-235
-234
-234
-235
-230
-217
-209
-213
-212
-210
-207
-189
-174
-184
-189
-172
-165
-171
-171
-176
-188
-191
-178
-144
-85
-35
-38
-80
-120
-131
-116
-116
-128
-122
-128
-142
-105
-100
-188
-145
316
1340
2550
2682
1198
-282
-381
17
-38
-143
-60
-76
-125
-60
-14
-31
-17
23
42
55
81
108
137
175
206
232
277
339
389
415
433
451
468
471
454
417
347
239
129
37
-52
-134
-193
-239
-268
-270
-277
-297
-288
-260
-261
-271
-256
-239
-234
-230
-229
-227
-221
-225
-229
-221
-226
-248
-244
-217
-213
-227
-225
-219
-219
-212
-204
-205
-205
-202
-200
-191
-183
-197
-205
-177
-150
-156
-164
-156
-154
-162
-168
-170
-168
-138
-77
-36
-51
-79
-91
-108
-118
-117
-130
-131
-111
-130
-145
-107
-128
-179
18
735
1979
2864
2123
323
-526
-174
41
-125
-133
-69
-101
-93
-52
-42
-23
-5
1
25
56
77
107
148
185
221
261
307
348
372
395
434
464
469
464
440
378
294
207
99
-23
-114
-169
-223
-271
-296
-318
-329
-303
-280
-296
-304
-279
-264
-269
-265
-254
-250
-245
-244
-249
-249
-255
-279
-282
-240
-210
-226
-244
-239
-226
-215
-209
-213
-216
-208
-211
-223
-208
-179
-183
-206
-203
-173
-135
-91
-66
-86
-121
-135
-136
-146
-165
-165
-141
-139
-150
-126
-134
-192
-109
408
1581
2818
2578
713
-648
-445
-9
-105
-150
-52
-92
-117
-43
-20
-29
4
37
53
78
109
137
171
208
240
272
322
391
451
482
493
503
507
496
462
399
303
184
71
-25
-117
-195
-244
-278
-308
-325
-327
-317
-301
-292
-295
-288
-269
-256
-250
-243
-236
-233
-238
-245
-243
-236
-240
-244
-237
-235
-241
-237
-224
-225
-232
-223
-211
-219
-227
-207
-191
-198
-195
-176
-173
-187
-198
-204
-198
-171
-127
-86
-72
-92
-116
-124
-122
-125
-140
-140
-122
-135
-145
-104
-134
-227
-101
478
1613
2784
2606
886
-421
-298
42
-91
-154
-76
-114
-130
-63
-46
-53
-25
1
20
43
58
79
132
193
231
254
294
353
407
441
467
492
504
504
483
420
319
209
93
-26
-120
-183
-241
-288
-309
-317
-323
-325
-330
-330
-303
-267
-261
-273
-271
-256
-245
-241
-237
-234
-242
-252
-247
-232
-230
-240
-243
-241
-242
-241
-226
-206
-205
-218
-215
-193
-181
-188
-190
-190
-204
-217
-206
-168
-110
-65
-73
-100
-108
-116
-132
-139
-143
-136
-127
-154
-154
-96
-131
-226
-48
657
1849
2762
2181
443
-525
-230
45
-109
-143
-76
-110
-95
-32
-47
-59
-6
27
29
54
92
118
141
176
226
277
316
361
415
444
455
476
490
482
460
402
293
169
63
-32
-124
-200
-248
-275
-303
-328
-323
-299
-293
-301
-290
-266
-256
-253
-250
-251
-241
-223
-232
-252
-239
-216
-222
-236
-233
-224
-223
-228
-231
-229
-226
-216
-198
-192
-198
-197
-190
-184
-176
-176
-189
-200
-203
-194
-154
-96
-63
-62
-73
-94
-128
-147
-130
-120
-139
-139
-129
-133
-111
-113
-184
-125
358
1408
2551
2515
970
-383
-378
8
-53
-142
-84
-97
-100
-43
-39
-44
-2
22
25
46
83
118
142
163
208
258
287
330
399
439
440
459
494
500
471
419
336
220
100
3
-78
-156
-224
-271
-296
-300
-297
-307
-313
-290
-270
-280
-283
-263
-248
-248
-250
-244
-232
-232
-247
-246
-233
-239
-243
-228
-220
-237
-245
-223
-199
-204
-225
-223
-201
-196
-208
-202
-184
-179
-186
-194
-203
-191
-143
-89
-71
-92
-112
-115
-124
-139
-139
-134
-127
-125
-143
-135
-106
-154
-203
42
857
2135
2828
1841
75
-573
-165
7
-137
-116
-71
-111
-86
-41
-46
-36
-6
6
25
63
97
120
149
190
235
276
317
365
408
441
464
478
476
462
437
383
287
174
70
-35
-138
-210
-250
-284
-315
-330
-328
-319
-308
-293
-280
-282
-283
-262
-249
-262
-265
-252
-253
-261
-253
-241
-244
-258
-258
-236
-227
-241
-241
-219
-208
-217
-227
-223
-213
-206
-209
-216
-209
-181
-142
-108
-88
-97
-139
-170
-160
-151
-170
-168
-137
-150
-176
-136
-131
-222
-178
313
1449
2736
2695
943
-550
-483
-22
-86
-169
-82
-92
-107
-55
-51
-51
-5
21
20
42
89
129
154
178
218
268
318
364
403
435
465
491
503
502
479
409
302
196
99
-12
-122
-191
-228
-273
-311
-315
-309
-322
-324
-298
-278
-280
-271
-252
-251
-256
-242
-232
-243
-242
-232
-240
-248
-233
-226
-241
-245
-226
-220
-233
-228
-210
-211
-215
-201
-192
-198
-198
-195
-203
-217
-213
-179
-125
-77
-61
-79
-114
-145
-152
-147
-156
-150
-122
-138
-160
-111
-119
-222
-137
414
1530
2703
2596
934
-428
-360
23
-75
-156
-75
-94
-115
-66
-62
-66
-23
6
14
47
85
106
129
160
200
252
308
350
384
427
472
493
494
493
479
425
329
211
99
0
-102
-201
-259
-282
-299
-313
-324
-332
-322
-300
-297
-298
-276
-253
-252
-259
-262
-258
-250
-251
-258
-250
-237
-246
-259
-247
-227
-232
-249
-243
-220
-222
-236
-216
-196
-212
-222
-206
-208
-219
-201
-160
-118
-88
-86
-108
-130
-145
-154
-157
-152
-133
-135
-165
-144
-103
-177
-238
44
876
2112
2776
1815
90
-542
-156
-2
-136
-105
-68
-111
-82
-38
-46
-35
-1
20
43
70
83
104
153
212
249
268
304
375
440
459
459
477
495
481
442
384
288
164
41
-67
-154
-211
-245
-278
-305
-307
-298
-299
-295
-283
-280
-278
-269
-264
-251
-238
-247
-249
-224
-220
-238
-233
-225
-240
-243
-227
-226
-233
-228
-226
-227
-210
-187
-185
-194
-195
-190
-185
-182
-192
-209
-206
-180
-153
-110
-58
-53
-92
-119
-121
-116
-125
-152
-150
-118
-129
-139
-97
-130
-205
-17
674
1844
2727
2110
377
-552
-243
33
-94
-112
-53
-88
-83
-42
-49
-44
1
29
26
29
73
138
170
182
219
270
310
355
406
437
453
474
486
467
437
393
297
178
94
16
-96
-189
-231
-263
-296
-299
-295
-306
-304
-286
-274
-261
-245
-244
-246
-242
-242
-239
-233
-235
-236
-232
-240
-245
-228
-218
-226
-231
-220
-209
-209
-213
-208
-198
-192
-193
-196
-187
-170
-172
-185
-172
-152
-160
-176
-180
-173
-144
-92
-51
-35
-47
-86
-122
-126
-120
-122
-120
-109
-115
-120
-82
-82
-171
-149
270
1261
2468
2654
1229
-274
-420
0
-20
-138
-69
-62
-98
-57
-30
-39
-27
3
33
53
64
87
135
180
207
235
282
334
377
416
443
455
481
499
468
417
368
279
152
34
-67
-155
-216
-253
-283
-306
-315
-311
-301
-293
-288
-283
-281
-282
-274
-259
-256
-265
-269
-275
-276
-248
-217
-227
-250
-255
-253
-248
-240
-235
-226
-217
-240
-263
-231
-182
-181
-199
-192
-182
-185
-179
-168
-175
-180
-176
-193
-207
-147
-55
-32
-63
-83
-99
-123
-122
-110
-120
-121
-100
-106
-112
-84
-102
-145
15
674
1921
2901
2233
360
-608
-244
56
-93
-120
-43
-63
-68
-33
-19
-5
10
31
69
88
89
125
181
209
233
283
333
370
408
447
471
476
470
461
450
415
333
210
86
-6
-84
-165
-224
-254
-287
-316
-307
-280
-273
-280
-278
-264
-245
-240
-252
-248
-223
-219
-237
-240
-227
-221
-224
-234
-243
-230
-213
-222
-233
-217
-198
-202
-211
-203
-191
-191
-186
-171
-171
-179
-167
-153
-163
-170
-156
-154
-158
-141
-129
-141
-145
-142
-154
-150
-101
-45
-26
-43
-63
-76
-97
-113
-108
-101
-92
-90
-121
-120
-68
-113
-195
24
792
2029
2855
2083
318
-494
-155
32
-122
-105
-51
-103
-86
-32
-34
-28
-6
1
24
59
81
107
140
171
210
266
315
347
387
437
466
472
481
492
474
413
307
178
75
0
-88
-185
-251
-282
-305
-326
-336
-336
-331
-319
-300
-291
-288
-279
-269
-269
-272
-270
-268
-261
-245
-231
-234
-238
-238
-245
-252
-242
-232
-235
-233
-226
-222
-210
-200
-203
-195
-186
-196
-182
-127
-88
-74
-38
2
5
0
16
30
22
17
24
14
-16
-28
-25
-42
-75
-91
-83
-64
-37
-9
2
-13
-41
-73
-98
-104
-105
-114
-124
-137
-135
-96
-104
-193
-159
262
1250
2475
2683
1262
-250
-415
-12
-39
-158
-92
-96
-144
-98
-51
-45
-32
-14
9
40
54
70
118
163
181
211
265
315
362
417
459
471
480
501
509
480
406
303
196
90
-27
-135
-196
-218
-240
-271
-290
-294
-298
-298
-287
-273
-267
-257
-235
-222
-228
-231
-219
-215
-234
-249
-231
-200
-197
-216
-224
-212
-203
-212
-223
-216
-201
-194
-192
-186
-179
-175
-176
-176
-169
-165
-165
-153
-138
-135
-135
-135
-142
-142
-129
-124
-135
-139
-120
-99
-99
-107
-101
-99
-107
-104
-96
-103
-114
-123
-130
-109
-64
-24
6
15
-11
-49
-77
-87
-78
-75
-83
-78
-80
-83
-54
-75
-148
-23
589
1758
2775
2344
629
-439
-199
91
-58
-98
-34
-81
-77
-16
-25
-25
24
46
53
78
103
130
158
174
212
277
311
332
396
463
482
495
510
498
487
480
414
292
174
68
-40
-127
-187
-241
-284
-299
-292
-287
-291
-298
-296
-281
-266
-263
-264
-258
-246
-239
-237
-234
-233
-237
-234
-230
-236
-241
-239
-238
-234
-228
-223
-216
-212
-215
-209
-198
-203
-207
-189
-179
-192
-190
-166
-159
-170
-167
-155
-155
-153
-143
-135
-135
-138
-138
-129
-120
-124
-128
-132
-151
-157
-123
-70
-30
-14
-29
-52
-62
-73
-86
-92
-95
-87
-76
-98
-100
-61
-97
-170
17
747
1984
2816
2050
304
-492
-149
47
-98
-81
-36
-96
-74
-17
-29
-21
21
35
46
82
116
138
167
208
244
270
305
365
426
464
488
509
519
516
506
463
371
265
164
51
-60
-140
-203
-255
-286
-308
-316
-300
-296
-314
-306
-276
-265
-258
-240
-240
-254
-252
-247
-250
-252
-260
-269
-255
-239
-255
-268
-247
-227
-238
-251
-242
-233
-234
-231
-212
-196
-197
-202
-197
-194
-197
-192
-170
-156
-160
-162
-157
-159
-153
-137
-139
-155
-161
-145
-108
-60
-26
-26
-54
-86
-104
-106
-106
-108
-97
-92
-111
-103
-75
-117
-158
29
710
1964
2881
2100
225
-631
-217
48
-101
-94
-24
-66
-59
-14
-17
-7
22
35
59
90
101
124
176
219
246
288
338
374
412
463
501
511
518
530
515
458
372
267
139
13
-80
-156
-225
-267
-293
-323
-325
-299
-302
-322
-302
-264
-260
-275
-273
-257
-249
-253
-249
-237
-244
-255
-242
-230
-242
-246
-237
-244
-254
-237
-218
-219
-221
-210
-199
-197
-198
-202
-200
-187
-176
-179
-175
-155
-145
-154
-165
-171
-173
-162
-142
-113
-69
-38
-47
-69
-92
-117
-122
-113
-120
-124
-115
-120
-111
-101
-161
-178
112
946
2203
2811
1738
18
-515
-107
2
-135
-85
-54
-109
-77
-27
-35
-28
-2
14
35
65
101
134
155
185
236
286
330
383
432
465
493
522
542
541
507
440
345
228
106
-2
-108
-207
-260
-272
-295
-327
-337
-332
-326
-320
-320
-317
-293
-269
-265
-269
-269
-265
-262
-256
-248
-253
-268
-265
-248
-238
-238
-248
-268
-264
-230
-213
-227
-240
-234
-213
-202
-215
-220
-204
-194
-192
-185
-194
-221
-217
-166
-115
-91
-81
-92
-134
-164
-149
-127
-139
-150
-137
-143
-153
-119
-128
-209
-133
393
1485
2604
2460
855
-437
-372
-7
-83
-145
-71
-98
-123
-74
-50
-36
-6
13
49
101
134
158
193
228
261
290
318
367
431
483
520
540
549
565
570
520
421
308
190
62
-54
-132
-182
-227
-269
-296
-307
-314
-318
-301
-276
-281
-299
-276
-241
-252
-275
-256
-226
-217
-216
-227
-249
-248
-233
-242
-256
-236
-214
-223
-226
-207
-200
-210
-210
-204
-203
-205
-210
-214
-197
-152
-102
-77
-89
-123
-152
-159
-150
-157
-166
-151
-152
-172
-145
-124
-176
-140
278
1342
2659
2744
1025
-600
-624
-102
-95
-173
-89
-104
-131
-71
-46
-50
-33
-22
-3
38
67
92
132
175
213
247
286
346
412
460
492
514
527
540
532
466
360
244
117
-21
-142
-226
-284
-337
-378
-394
-395
-386
-369
-368
-376
-362
-338
-333
-328
-304
-290
-301
-309
-296
-279
-275
-279
-289
-296
-291
-282
-280
-272
-266
-274
-269
-248
-235
-232
-234
-249
-257
-233
-191
-147
-109
-98
-110
-126
-147
-160
-148
-141
-141
-139
-150
-128
-67
-114
-213
-47
626
1893
3067
2635
685
-550
-261
97
-59
-89
16
-18
-40
6
23
40
71
86
108
145
168
