# session 36
-78
-103
-40
-15
-198
-450
-511
-459
-479
-515
-474
-405
-362
-337
-325
-333
-352
-357
-345
-337
-322
-292
-294
-304
-266
-276
-374
-322
193
1398
2806
2881
1155
-414
-452
-59
-151
-245
-163
-180
-200
-141
-124
-125
-84
-53
-33
3
39
55
71
117
185
230
252
296
360
397
399
411
450
463
419
360
299
190
63
-18
-84
-171
-229
-244
-259
-271
-261
-251
-250
-244
-232
-219
-222
-233
-221
-192
-186
-195
-192
-192
-199
-196
-202
-225
-223
-193
-182
-190
-186
-186
-197
-197
-200
-217
-212
-169
-117
-74
-60
-98
-150
-158
-149
-162
-161
-132
-135
-161
-136
-118
-189
-204
133
1129
2496
2827
1368
-260
-469
-46
-56
-171
-101
-90
-119
-89
-78
-72
-42
-29
-11
29
49
65
108
142
162
201
239
266
317
374
383
376
391
399
381
344
276
181
82
-16
-103
-163
-210
-251
-269
-277
-293
-291
-272
-281
-301
-276
-243
-245
-240
-220
-228
-245
-242
-238
-239
-238
-247
-254
-243
-233
-232
-226
-220
-220
-220
-218
-210
-207
-225
-236
-221
-213
-205
-151
-88
-79
-104
-130
-155
-171
-174
-167
-146
-138
-164
-153
-106
-149
-229
-80
572
1805
2781
2154
366
-552
-223
24
-130
-141
-71
-108
-102
-61
-73
-62
-17
-8
0
53
99
111
127
164
201
232
268
308
344
370
390
394
380
376
381
342
255
160
63
-36
-107
-160
-221
-266
-275
-276
-283
-286
-278
-264
-250
-246
-247
-241
-235
-241
-248
-240
-228
-233
-242
-235
-223
-225
-232
-233
-230
-226
-220
-213
-209
-209
-205
-202
-214
-219
-189
-148
-116
-88
-84
-122
-153
-145
-148
-180
-179
-145
-143
-146
-119
-147
-226
-143
394
1603
2817
2504
662
-595
-382
-13
-122
-161
-77
-106
-119
-72
-64
-62
-38
-14
18
47
61
85
131
173
200
230
273
317
350
367
374
384
397
393
368
324
261
182
87
-16
-106
-174
-231
-266
-277
-293
-308
-290
-272
-286
-289
-255
-235
-246
-252
-243
-240
-247
-246
-240
-239
-240
-242
-245
-247
-247
-236
-217
-222
-247
-240
-211
-214
-230
-216
-189
-161
-120
-100
-121
-147
-165
-185
-191
-169
-143
-156
-185
-154
-123
-195
-233
43
947
2383
3026
1721
-167
-629
-152
-58
-182
-121
-105
-152
-117
-85
-77
-42
-21
-25
-7
43
89
106
117
155
206
253
304
347
367
385
407
418
422
410
359
286
204
92
-24
-91
-144
-215
-262
-281
-304
-315
-300
-293
-294
-280
-265
-261
-252
-240
-240
-243
-238
-233
-235
-236
-232
-235
-241
-239
-240
-242
-228
-218
-230
-230
-211
-214
-230
-226
-213
-200
-160
-109
-94
-125
-164
-170
-148
-150
-161
-140
-138
-154
-123
-128
-222
-175
315
1445
2721
2696
1012
-421
-390
-14
-108
-177
-95
-126
-139
-65
-59
-85
-55
-17
2
25
45
64
96
139
187
236
272
304
351
388
400
414
429
421
402
363
271
163
76
-27
-145
-207
-221
-249
-284
-299
-302
-295
-284
-282
-273
-262
-266
-260
-235
-231
-241
-234
-229
-238
-239
-232
-231
-239
-242
-234
-227
-233
-231
-212
-206
-215
-211
-200
-203
-219
-229
-217
-186
-149
-112
-94
-114
-147
-160
-156
-157
-153
-129
-125
-143
-119
-113
-200
-188
227
1239
2498
2723
1279
-272
-439
-20
-48
-171
-92
-81
-129
-96
-58
-47
-35
-33
-12
35
63
83
123
153
175
218
259
293
349
396
399
399
425
435
410
371
299
188
91
21
-63
-156
-221
-251
-270
-290
-302
-291
-270
-272
-280
-262
-235
-234
-256
-266
-248
-227
-226
-235
-234
-228
-227
-236
-239
-233
-242
-253
-231
-201
-202
-207
-197
-191
-193
-193
-201
-216
-215
-198
-188
-177
-128
-71
-68
-110
-132
-127
-130
-145
-137
-126
-147
-142
-96
-137
-220
-56
623
1832
2760
2144
399
-520
-220
21
-125
-135
-68
-107
-101
-54
-62
-54
-2
21
27
53
77
100
147
183
190
225
297
340
354
387
418
418
416
424
406
348
266
172
72
-26
-113
-178
-222
-255
-278
-288
-288
-279
-269
-262
-255
-245
-240
-244
-249
-246
-238
-236
-235
-238
-244
-235
-222
-228
-236
-231
-229
-231
-221
-209
-206
-201
-191
-190
-201
-195
-169
-166
-198
-218
-206
-181
-148
-107
-75
-73
-94
-115
-126
-134
-137
-138
-137
-146
-155
-120
-102
-186
-217
100
966
2222
2782
1658
-43
-519
-100
-17
-159
-99
-61
-111
-90
-60
-70
-50
-10
18
34
43
71
124
158
169
201
259
296
313
351
398
408
397
415
434
401
332
255
158
44
-51
-125
-193
-248
-277
-284
-279
-276
-277
-274
-267
-260
-253
-247
-244
-250
-255
-241
-222
-228
-244
-247
-246
-246
-237
-226
-224
-225
-227
-230
-223
-206
-199
-200
-196
-195
-206
-210
-207
-211
-193
-130
-81
-86
-106
-117
-136
-153
-154
-152
-145
-140
-155
-153
-140
-179
-183
116
1027
2378
2875
1539
-238
-613
-128
-36
-164
-113
-83
-103
-75
-62
-50
-6
9
10
41
71
84
109
152
191
219
253
300
344
371
382
392
409
413
387
341
280
199
114
27
-67
-149
-197
-230
-264
-279
-277
-285
-287
-267
-253
-257
-249
-227
-225
-236
-232
-221
-221
-225
-225
-228
-234
-233
-226
-225
-225
-223
-221
-214
-203
-200
-205
-201
-194
-194
-197
-196
-202
-211
-201
-166
-118
-75
-60
-90
-143
-160
-135
-122
-138
-139
-137
-148
-121
-100
-181
-219
60
883
2166
2840
1793
34
-532
-120
-7
-155
-117
-86
-128
-92
-54
-61
-34
-5
-8
10
52
82
107
135
158
189
236
288
338
377
394
401
415
428
414
371
313
241
136
19
-68
-129
-192
-248
-281
-296
-302
-299
-298
-297
-276
-250
-249
-257
-254
-254
-252
-240
-241
-254
-249
-238
-241
-241
-238
-248
-250
-234
-225
-226
-220
-213
-213
-214
-220
-227
-218
-201
-185
-147
-94
-76
-117
-165
-163
-140
-151
-165
-145
-141
-149
-126
-155
-233
-134
396
1518
2679
2479
781
-483
-350
1
-103
-163
-97
-119
-109
-49
-53
-60
-32
-13
16
58
69
74
119
172
200
232
281
316
337
378
419
427
423
420
396
348
278
175
66
-18
-104
-193
-244
-261
-280
-289
-285
-285
-280
-261
-251
-257
-260
-252
-237
-226
-227
-232
-225
-218
-223
-234
-232
-220
-220
-242
-247
-217
-196
-203
-211
-208
-203
-190
-181
-198
-223
-222
-211
-203
-165
-96
-60
-82
-125
-147
-140
-137
-152
-147
-141
-160
-145
-126
-191
-194
154
1083
2355
2749
1442
-188
-492
-69
-35
-159
-117
-115
-127
-71
-63
-70
-27
-4
-3
26
55
81
114
131
154
215
268
291
325
369
392
404
420
426
416
380
303
209
119
24
-69
-137
-193
-248
-281
-290
-290
-281
-280
-293
-282
-251
-251
-264
-248
-230
-231
-237
-248
-255
-243
-236
-241
-230
-217
-227
-237
-231
-224
-218
-216
-217
-208
-208
-234
-247
-228
-202
-166
-112
-84
-104
-141
-163
-163
-160
-164
-159
-156
-161
-137
-125
-192
-203
104
1024
2394
2880
1492
-300
-630
-122
-48
-168
-94
-83
-130
-89
-66
-71
-30
2
5
38
82
104
130
162
184
210
257
306
336
357
385
417
432
421
391
345
280
190
86
-13
-89
-145
-206
-271
-297
-280
-269
-281
-286
-277
-265
-259
-257
-245
-230
-233
-242
-237
-228
-229
-225
-222
-238
-251
-235
-221
-230
-233
-218
-210
-213
-214
-214
-211
-211
-221
-230
-218
-192
-156
-116
-96
-113
-140
-147
-149
-166
-165
-135
-137
-162
-134
-121
-200
-188
204
1212
2525
2798
1327
-274
-455
-27
-44
-168
-106
-100
-135
-100
-65
-59
-56
-35
19
59
59
70
108
148
188
229
263
302
349
386
411
431
441
433
412
378
304
192
87
-2
-95
-170
-217
-260
-296
-311
-308
-294
-282
-280
-277
-262
-249
-242
-241
-243
-239
-228
-225
-229
-234
-236
-231
-226
-237
-242
-220
-207
-228
-237
-209
-196
-215
-210
-178
-179
-210
-214
-196
-198
-208
-187
-141
-108
-91
-81
-98
-130
-138
-140
-154
-141
-123
-144
-128
-96
-174
-222
91
961
2211
2793
1714
8
-508
-97
0
-155
-110
-61
-100
-81
-46
-44
-27
-8
6
41
74
86
111
156
197
229
262
302
350
392
412
422
443
459
449
406
333
242
145
43
-53
-133
-201
-259
-282
-271
-266
-279
-283
-272
-265
-260
-252
-245
-246
-250
-249
-246
-238
-221
-205
-211
-231
-239
-229
-220
-227
-238
-229
-207
-204
-223
-231
-207
-179
-174
-185
-189
-182
-176
-174
-170
-165
-167
-178
-186
-176
-157
-139
-101
-43
-24
-65
-107
-115
-107
-113
-119
-101
-94
-125
-120
-87
-139
-170
129
996
2238
2773
1666
1
-474
-72
7
-139
-82
-48
-110
-80
-26
-35
-36
-3
27
53
76
94
123
157
183
214
260
305
339
373
410
437
447
451
448
414
347
265
171
67
-30
-111
-180
-236
-269
-275
-266
-268
-279
-276
-268
-268
-263
-242
-229
-239
-243
-231
-237
-250
-225
-197
-220
-252
-238
-214
-224
-241
-236
-229
-216
-187
-177
-208
-227
-200
-173
-170
-163
-154
-161
-168
-162
-164
-176
-175
-160
-151
-135
-94
-49
-37
-52
-71
-99
-129
-136
-127
-115
-96
-101
-130
-121
-106
-142
-117
201
1113
2418
2742
1244
-461
-656
-122
-49
-141
-68
-67
-106
-65
-41
-36
-9
-8
-12
39
101
127
144
177
209
226
262
326
370
387
417
439
419
411
431
399
303
212
133
33
-71
-150
-202
-236
-265
-285
-278
-257
-254
-269
-282
-281
-272
-263
-244
-222
-236
-248
-192
-146
-202
-270
-252
-220
-235
-236
-208
-203
-221
-222
-216
-220
-218
-217
-225
-221
-203
-185
-179
-211
-248
-226
-191
-193
-169
-101
-69
-93
-135
-157
-150
-154
-180
-155
-108
-137
-162
-119
-167
-276
-123
519
1779
3113
2968
1105
-340
-252
61
-127
-223
-150
-181
-179
-117
-124
-117
-52
-37
-54
-19
32
51
80
145
198
225
273
345
405
449
492
524
532
520
494
438
329
185
42
-81
-171
-233
-297
-354
-366
-356
-372
-386
-361
-338
-335
-325
-324
-339
-318
-274
-278
-297
-275
-256
-271
-281
-279
-278
-270
-271
-287
-277
-249
-244
-246
-229
-228
-248
-241
-224
-253
-281
-235
-161
-125
-109
-102
-131
-178
-179
-144
-145
-165
-147
-149
-169
-111
-101
-239
-212
323
1490
2858
3013
1350
-299
-412
8
-69
-194
-119
-124
-150
-86
-50
-54
-34
-13
-1
24
56
87
130
176
216
267
329
388
443
484
513
543
562
558
544
483
348
201
82
-43
-171
-257
-301
-332
-362
-382
-385
-371
-360
-366
-371
-346
-311
-306
-311
-299
-290
-291
-283
-285
-308
-303
-266
-257
-283
-291
-267
-251
-262
-275
-264
-245
-247
-264
-267
-240
-201
-162
-135
-133
-152
-181
-219
-234
-197
-158
-162
-181
-179
-142
-123
-178
-191
139
1143
2538
2917
1457
-254
-510
-46
-36
-168
-80
-48
-96
-71
-39
-35
-14
4
19
63
106
112
127
193
269
305
320
378
481
559
579
569
555
548
550
504
372
217
89
-40
-160
-228
-268
-319
-346
-334
-340
-369
-356
-310
-316
-348
-318
-278
-301
-322
-297
-282
-289
-281
-275
-282
-284
-286
-291
-290
-290
-290
-279
-276
-286
-288
-284
-281
-248
-187
-149
-162
-200
-218
-200
-185
-212
-235
-212
-199
-204
-169
-178
-270
-208
295
1413
2692
2706
1010
-491
-456
-7
-88
-194
-116
-127
-145
-101
-100
-89
-40
-45
-55
12
81
93
111
163
213
246
293
357
396
404
443
509
533
513
473
395
285
173
50
-76
-163
-210
-253
-303
-342
-344
-318
-309
-314
-301
-279
-269
-258
-251
-258
-256
-236
-240
-264
-252
-229
-255
-277
-241
-208
-224
-250
-257
-256
-249
-222
-171
-120
-115
-165
-216
-210
-167
-154
-165
-168
-185
-184
-138
-163
-252
-140
475
1727
2885
2485
654
-520
-300
-2
-147
-175
-99
-143
-145
-89
-97
-99
-48
-15
-10
8
44
71
80
117
196
256
280
315
360
388
411
428
421
403
376
310
210
106
4
-99
-185
-243
-282
-310
-325
-316
-301
-303
-306
-294
-289
-295
-292
-285
-277
-257
-248
-266
-271
-250
-244
-256
-257
-257
-274
-281
-266
-250
-250
-250
-220
-163
-132
-154
-192
-207
-196
-198
-224
-220
-192
-194
-188
-168
-221
-268
-19
842
2197
2850
1710
-90
-630
-185
-58
-203
-156
-113
-164
-142
-94
-99
-95
-50
-1
21
28
62
106
122
141
188
237
283
329
361
386
407
410
419
440
410
309
199
106
5
-95
-172
-236
-286
-301
-296
-302
-312
-308
-288
-269
-264
-261
-249
-244
-261
-268
-246
-233
-247
-255
-242
-228
-232
-246
-249
-238
-234
-236
-222
-192
-158
-131
-128
-156
-184
-178
-168
-182
-178
-162
-168
-153
-139
-203
-213
104
1038
2470
3054
1633
-326
-736
-178
-77
-204
-110
-77
-129
-95
-76
-80
-27
11
4
22
71
114
146
179
218
254
287
342
411
458
475
481
487
489
461
389
296
194
73
-52
-144
-205
-261
-306
-326
-328
-330
-335
-330
-310
-295
-299
-295
-272
-259
-266
-271
-272
-282
-290
-281
-272
-283
-290
-276
-265
-274
-282
-284
-295
-300
-272
-222
-185
-180
-202
-220
-212
-207
-235
-239
-197
-197
-232
-198
-195
-314
-311
108
1142
2561
3007
1543
-241
-536
-99
-132
-276
-177
-149
-194
-157
-135
-150
-119
-77
-71
-65
-23
27
48
72
132
197
232
258
305
369
417
418
403
420
432
370
262
163
59
-55
-145
-209
-272
-309
-301
-291
-301
-299
-282
-276
-270
-243
-221
-226
-226
-204
-196
-207
-200
-182
-181
-183
-173
-168
-167
-156
-139
-131
-132
-125
-105
-108
-133
-120
-90
-95
-68
27
78
43
6
8
14
9
15
34
35
33
51
18
-48
72
648
1837
3018
2789
1063
-258
-143
285
87
