# session 4
-60
-2
-107
35
550
830
575
251
196
295
428
530
487
302
103
-40
-146
-256
-350
-388
-426
-483
-494
-524
-649
-659
-243
721
1743
1596
4
-1319
-1221
-721
-697
-744
-641
-603
-602
-569
-548
-527
-506
-495
-459
-417
-406
-367
-268
-186
-172
-191
-210
-206
-156
-72
22
100
125
107
101
91
43
1
-12
-38
-72
-81
-68
-43
-36
-74
-103
-102
-104
-58
-30
-167
-244
76
862
2066
2862
1986
158
-578
-208
-77
-240
-216
-148
-103
4
42
12
52
122
150
183
243
290
309
300
249
156
62
12
15
41
67
87
92
78
70
88
117
111
40
-93
-264
-431
-514
-472
-400
-380
-317
-176
-107
-105
-97
-221
-417
-311
353
1629
2825
2519
809
-295
-107
152
35
20
77
40
44
74
57
70
130
180
209
221
226
248
270
261
232
211
211
229
257
290
322
340
321
275
246
226
169
104
80
62
24
12
48
102
121
80
45
65
86
95
87
-23
-245
-307
342
1669
2102
442
-1686
-2250
-1897
-1907
-2035
-1940
-1887
-1885
-1823
-1782
-1746
-1648
-1539
-1446
-1341
-1222
-1071
-840
-546
-306
-171
-34
155
275
312
385
451
395
301
273
244
169
100
72
94
115
78
60
126
147
72
44
66
31
35
95
-35
-302
-240
558
2096
3284
2541
465
-581
-258
-75
-256
-190
-53
-51
-3
74
143
275
376
398
482
641
751
782
778
777
788
775
748
784
859
853
772
704
608
451
335
291
227
135
92
87
49
-15
-71
-145
-250
-340
-396
-447
-473
-432
-388
-469
-570
-249
737
1722
1535
147
-978
-941
-476
-345
-387
-360
-352
-379
-309
-194
-208
-126
310
584
281
-42
-28
-64
-193
-120
2
-53
-111
-41
10
-40
-105
-147
-203
-258
-291
-348
-416
-419
-384
-386
-400
-400
-409
-430
-485
-556
-549
-495
-487
-477
-464
-540
-496
49
845
949
15
-972
-1038
-555
-320
-340
-324
-301
-306
-258
-182
-121
-29
104
219
282
309
321
334
350
349
318
289
281
256
222
224
229
210
206
170
126
180
173
136
626
1411
1308
340
-223
-129
-85
-209
-237
-250
-358
-435
-423
-456
-511
-260
508
1361
1408
438
-481
-484
-104
-26
-64
-5
9
-14
25
75
102
144
197
238
280
332
368
365
334
272
167
48
-44
-102
-133
-154
-192
-249
-294
-305
-285
-262
-255
-245
-220
-216
-232
-227
-202
-209
-260
-285
-270
-292
-302
-228
-277
-504
-465
170
1250
2136
1831
396
-561
-367
-92
-227
-272
-194
-219
-214
-138
-115
-110
-65
-16
25
66
95
113
125
116
80
29
0
23
75
109
112
88
34
-27
-67
-103
-147
-177
-179
-163
-139
-107
-72
-38
-46
-117
-167
-158
-193
-228
-167
-231
-463
-414
171
1228
2299
2177
615
-564
-369
-16
-179
-258
-154
-157
-166
-118
-133
-181
-169
-108
-59
-48
-50
-50
-65
-98
-136
-162
-174
-202
-238
-219
-158
-137
-167
-200
-222
-222
-186
-147
-136
-133
-122
-111
-84
-29
-10
-70
-127
-137
-176
-216
-180
-221
-413
-461
10
1143
2272
2024
428
-626
-413
-120
-235
-244
-145
-162
-181
-165
-160
-100
3
60
78
78
60
51
62
72
81
96
109
133
181
223
224
194
158
124
84
34
-32
-117
-199
-244
-254
-253
-240
-207
-194
-248
-308
-291
-268
-290
-273
-285
-443
-562
-257
795
2231
2578
1141
-407
-584
-216
-246
-335
-262
-245
-244
-196
-179
-164
-113
-63
-18
28
52
63
78
83
68
53
55
77
122
185
229
217
156
75
-13
-90
-140
-177
-217
-235
-218
-209
-233
-247
-215
-188
-216
-246
-227
-218
-226
-200
-214
-307
-285
184
1301
2347
1889
153
-823
-497
-199
-314
-275
-145
-156
-161
-104
-52
-13
-1
13
81
136
117
74
34
-12
-18
30
76
107
154
195
187
139
95
68
26
-52
-138
-201
-230
-215
-173
-155
-180
-215
-232
-241
-262
-283
-285
-281
-263
-243
-289
-338
-65
778
1702
1589
268
-827
-756
-319
-245
-240
-146
-137
-146
-99
-68
-35
32
90
130
184
241
281
299
288
251
217
194
157
111
89
73
32
-12
-42
-81
-121
-141
-151
-166
-177
-174
-169
-186
-212
-206
-181
-196
-233
-246
-257
-255
-215
-238
-349
-309
183
1159
1934
1444
-42
-858
-530
-178
-224
-215
-146
-178
-169
-103
-83
-53
10
42
71
139
195
221
251
261
214
165
157
154
135
118
94
46
-12
-54
-78
-98
-126
-149
-152
-151
-168
-187
-181
-157
-155
-198
-226
-209
-236
-266
-200
-231
-422
-360
236
1290
2304
2125
556
-641
-491
-145
-275
-330
-227
-242
-250
-176
-134
-106
-54
-15
14
53
86
100
88
42
-17
-66
-98
-108
-99
-91
-93
-97
-110
-135
-167
-199
-227
-247
-264
-280
-285
-272
-257
-235
-196
-182
-206
-212
-216
-228
-176
-181
-380
-505
-140
991
2571
3098
1627
-168
-499
-136
-181
-293
-212
-211
-234
-161
-107
-97
-73
-32
14
39
40
55
77
63
23
-6
-19
-30
-32
-16
-7
-29
-64
-93
-117
-136
-159
-196
-229
-227
-215
-224
-229
-195
-152
-156
-192
-188
-172
-200
-192
-152
-264
-446
-346
278
1427
2302
1708
139
-598
-312
-154
-269
-227
-158
-171
-128
-59
-30
-12
5
30
70
93
97
100
82
30
-24
-56
-69
-65
-48
-29
-25
-35
-45
-60
-95
-141
-167
-170
-165
-154
-143
-148
-152
-129
-115
-162
-209
-199
-211
-247
-201
-203
-360
-380
35
973
2056
2074
608
-656
-551
-126
-177
-210
-94
-99
-115
-54
-29
-21
13
40
73
123
158
180
197
182
133
77
30
23
68
112
105
61
10
-41
-100
-149
-185
-255
-344
-359
-315
-311
-323
-277
-222
-238
-275
-255
-244
-280
-241
-177
-290
-411
-142
719
1981
2552
1418
-286
-711
-248
-156
-289
-219
-175
-201
-147
-87
-60
-10
34
58
95
133
148
153
147
114
70
48
51
59
49
27
15
0
-55
-126
-152
-156
-200
-245
-240
-214
-210
-219
-222
-205
-196
-224
-259
-270
-294
-311
-264
-239
-326
-335
87
1078
2039
1783
270
-838
-682
-286
-329
-375
-269
-237
-226
-160
-98
-33
47
96
120
178
270
318
303
286
265
198
139
130
113
63
5
-47
-74
-83
-110
-138
-146
-176
-211
-198
-185
-213
-238
-234
-224
-220
-232
-256
-267
-264
-243
-212
-259
-360
-167
662
1738
1920
749
-559
-771
-354
-218
-273
-224
-189
-190
-129
-67
-47
-8
59
115
171
239
294
317
307
263
201
149
118
94
62
18
-20
-39
-41
-48
-73
-99
-111
-117
-129
-134
-130
-130
-141
-144
-142
-165
-196
-190
-188
-194
-141
-134
-269
-268
208
1194
2174
2037
587
-582
-476
-80
-137
-216
-145
-140
-134
-64
-12
29
90
141
187
247
300
326
315
274
211
139
84
61
55
43
29
14
-10
-46
-88
-125
-153
-185
-228
-252
-238
-218
-210
-189
-158
-166
-204
-212
-213
-250
-222
-157
-297
-525
-361
437
1723
2617
1914
171
-668
-379
-231
-401
-396
-340
-372
-348
-300
-285
-234
-162
-124
-98
-72
-63
-73
-95
-136
-186
-220
-227
-226
-231
-233
-232
-253
-286
-309
-330
-359
-381
-416
-471
-494
-472
-463
-476
-459
-412
-397
-432
-461
-465
-489
-482
-421
-488
-692
-686
-123
1130
2367
2085
311
-912
-809
-601
-746
-739
-645
-673
-659
-597
-577
-543
-516
-468
-206
228
543
658
703
736
745
731
703
685
689
696
708
737
745
720
698
679
633
572
529
509
497
473
438
426
447
456
411
355
346
330
280
301
327
186
60
312
1074
2062
2330
1252
-51
-258
108
143
80
177
213
198
222
177
59
-27
-71
-94
-111
-135
-156
-183
-243
-316
-370
-398
-384
-355
-368
-384
-329
-283
-350
-468
-551
-614
-663
-684
-698
-713
-710
-702
-702
-682
-635
-624
-673
-693
-639
-599
-577
-512
-548
-724
-702
-217
759
1800
1750
334
-815
-719
-375
-421
-426
-337
-357
-358
-300
-272
-216
-128
-85
-59
-1
52
73
74
57
14
-40
-61
-21
45
77
72
51
12
-34
-64
-86
-101
-93
-92
-125
-139
-115
-107
-122
-119
-91
-70
-91
-126
-124
-127
-135
-90
-114
-259
-222
307
1448
2686
2605
908
-451
-332
64
-30
-81
6
-26
-41
19
40
61
114
155
196
249
288
314
317
273
205
158
135
125
125
125
113
101
92
66
21
-26
-59
-72
-75
-83
-93
-101
-119
-147
-152
-123
-108
-147
-184
-171
-186
-220
-179
-199
-366
-366
71
1012
2140
2248
771
-637
-621
-169
-203
-269
-169
-172
-193
-139
-108
-78
-15
32
75
138
185
188
161
114
53
-14
-63
-74
-62
-62
-83
-108
-129
-153
-189
-226
-249
-278
-334
-376
-381
-392
-411
-394
-354
-341
-361
-390
-377
-322
-312
-302
-224
-267
-449
-382
173
1252
2430
2376
735
-633
-596
-275
-396
-449
-336
-315
-297
-238
-211
-166
-89
-34
11
59
84
82
55
21
9
5
-15
-28
-19
-22
-43
-55
-64
-84
-103
-121
-145
-152
-142
-145
-156
-151
-140
-128
-107
-78
-64
-88
-119
-122
-141
-155
-96
-103
-277
-349
26
1033
2293
2500
1103
-302
-417
-92
-148
-211
-136
-155
-164
-88
-65
-74
-34
21
76
142
194
217
221
192
133
92
76
56
35
26
15
-7
-26
-45
-75
-116
-161
-191
-213
-252
-284
-274
-253
-252
-248
-227
-206
-204
-212
-199
-193
-229
-220
-180
-288
-425
-225
529
1734
2450
1566
-105
-715
-341
-198
-305
-241
-177
-196
-169
-134
-94
-11
37
43
76
118
132
137
128
79
13
-17
-1
23
32
40
32
-14
-74
-121
-156
-186
-215
-238
-248
-262
-275
-267
-258
-273
-281
-252
-224
-253
-284
-257
-254
-292
-263
-267
-407
-399
53
1053
2292
2502
1010
-527
-603
-146
-167
-239
-125
-95
-78
21
72
85
137
201
249
268
248
219
175
94
19
-24
-67
-86
-42
-4
-32
-79
-100
-119
-148
-172
-190
-206
-221
-248
-271
-257
-239
-262
-281
-252
-203
-196
-236
-259
-246
-264
-264
-205
-279
-469
-384
212
1342
2486
2278
561
-675
-489
-151
-283
-321
-234
-259
-250
-175
-147
-114
-41
12
49
93
125
134
121
83
38
16
12
8
-1
-11
-23
-36
-60
-97
-125
-138
-156
-184
-206
-217
-219
-212
-207
-203
-180
-133
-98
-111
-149
-148
-134
-166
-163
-107
-196
-400
-340
389
1887
3152
2581
618
-491
-285
-111
-279
-285
-222
-252
-231
-171
-143
-106
-57
-15
27
67
95
99
58
4
-18
-26
-47
-55
-42
-32
-26
-21
-35
-71
-123
-167
-167
-141
-150
-200
-240
-246
-239
-249
-266
-242
-182
-158
-195
-226
-218
-231
-253
-218
-233
-399
-493
-112
1026
2420
2571
1008
-470
-571
-239
-301
-359
-260
-248
-262
-224
-189
-138
-68
-24
12
52
88
127
144
115
69
38
28
39
62
70
47
1
-37
-61
-94
-138
-167
-192
-229
-252
-256
-274
-297
-287
-272
-275
-261
-219
-202
-234
-260
-262
-282
-272
-208
-243
-386
-343
194
1381
2592
2334
536
-734
-562
-218
-308
-293
-165
-180
-182
-105
-58
-29
17
67
130
196
241
262
260
229
174
121
118
152
143
85
45
28
2
-27
-52
-86
-131
-165
-179
-189
-207
-215
-202
-190
-196
-212
-217
-203
-214
-261
-262
-227
-253
-268
-210
-253
-374
-187
602
1821
2482
1543
-185
-844
-422
-178
-226
-142
-106
-178
-137
-42
-8
32
91
134
187
254
312
369
399
347
259
223
210
154
77
14
-50
-113
-150
-149
-144
-163
-177
-161
-145
-155
-187
-222
-225
-202
-208
-240
-252
-258
-297
-327
-311
-309
-327
-292
-269
-357
-380
23
995
1935
1676
196
-877
-709
-292
-283
-290
-201
-208
-208
-138
-102
-82
-25
40
97
150
191
224
248
231
170
98
48
28
20
3
-32
-72
-100
-118
-137
-154
-164
-174
-184
-194
-207
-213
-205
-207
-220
-220
-201
-189
-216
-254
-238
-225
-259
-227
-195
-334
-400
-31
860
2093
2647
1491
-239
-673
-230
-171
-315
-243
-202
-234
-193
-147
-120
-65
-17
21
81
131
151
158
147
110
64
34
23
16
-4
-37
-78
-121
-159
-188
-208
-221
-231
-234
-229
-235
-245
-235
-218
-208
-178
-128
-96
-98
-124
-138
-124
-130
-122
-65
-121
-310
-297
260
1539
2947
2891
1091
-381
-388
-113
-253
-301
-201
-201
-178
-90
-41
6
75
126
172
228
263
273
265
232
175
118
82
68
60
40
6
-25
-46
-62
-65
-54
-51
-69
-86
-92
-109
-144
-163
-149
-129
-110
-81
-56
-66
-107
-127
-109
-112
-118
-74
-106
-278
-328
76
1084
2193
2129
644
-596
-584
-273
-333
-369
-280
-268
-259
-213
-201
-180
-130
-90
-53
-16
8
37
49
10
-47
-80
-98
-104
-102
-123
-169
-202
-220
-253
-299
-337
-365
-383
-387
-387
-397
-417
-432
-437
-443
-446
-421
-374
-359
-400
-442
-441
-444
-449
-396
-403
-553
-585
-210
701
1883
2153
803
-685
-824
-394
-387
-458
-369
-362
-372
-302
-257
-218
-136
-75
-39
22
84
106
109
105
75
26
-1
15
45
43
15
-5
-16
-36
-57
-76
-96
-108
-116
-139
-168
-183
-176
-149
-126
-134
-139
-99
-61
-85
-125
-98
-57
-93
-110
-54
-96
-186
30
783
1969
2728
1924
191
-533
-106
142
29
81
173
153
182
254
305
370
447
515
578
630
677
725
737
696
630
571
536
517
492
450
399
348
299
265
242
208
161
123
96
71
45
14
-15
-27
-37
-57
-65
-64
-91
-140
-162
-167
-207
-234
-199
-237
-375
-290
316
1317
1969
1353
-159
-980
-685
-343
-386
-407
-362
-382
-370
-318
-305
-310
-299
-268
-216
-153
-97
-62
-57
-81
-142
-241
-321
-348
-398
-515
-629
-684
-710
-723
-711
