# session 1
31
203
-245
170
2079
3479
3237
2671
2585
2448
2187
2077
1975
1806
1691
1599
1473
1356
1263
1184
1119
1056
980
889
787
686
592
505
447
414
358
306
282
187
65
141
595
1599
2721
2565
861
-508
-484
-173
-292
-385
-347
-392
-423
-398
-407
-418
-402
-404
-422
-421
-394
-371
-364
-347
-319
-295
-250
-180
-131
-112
-98
-90
-94
-106
-158
-252
-337
-396
-458
-532
-605
-688
-776
-830
-825
-787
-749
-717
-686
-659
-626
-580
-542
-532
-543
-555
-562
-579
-611
-626
-618
-618
-610
-547
-457
-388
-322
-240
-169
-110
-66
-63
-67
-75
-153
-191
93
946
2244
2886
1769
-90
-734
-313
-144
-266
-217
-160
-192
-165
-124
-117
-89
-57
-49
-30
14
73
145
226
313
413
528
638
720
767
786
779
760
744
716
651
546
412
273
150
55
-8
-46
-85
-131
-150
-137
-129
-135
-140
-146
-159
-177
-198
-220
-239
-248
-250
-264
-284
-281
-259
-251
-249
-213
-159
-143
-159
-165
-176
-191
-174
-174
-204
-189
-212
-329
-241
285
1196
2193
2325
1008
-432
-582
-145
-138
-259
-207
-213
-256
-229
-228
-255
-234
-207
-199
-166
-122
-95
-47
42
139
236
344
457
561
640
685
708
710
670
576
427
249
88
-44
-170
-279
-349
-402
-450
-470
-465
-456
-437
-410
-395
-385
-368
-355
-357
-365
-378
-401
-415
-408
-407
-429
-445
-447
-453
-453
-438
-412
-360
-298
-275
-282
-284
-295
-306
-284
-273
-292
-249
-214
-307
-300
153
1188
2500
2908
1587
-107
-464
-28
25
-124
-95
-94
-180
-237
-296
-354
-388
-445
-489
-420
-249
-71
77
201
304
393
483
568
624
657
695
721
701
652
586
487
388
331
287
223
165
122
91
91
108
105
99
113
119
111
115
124
119
109
103
91
13
-188
-432
-585
-659
-713
-722
-692
-669
-639
-580
-501
-422
-372
-341
-291
-259
-289
-316
-300
-311
-351
-324
-260
-277
-310
-281
-321
-369
-108
607
1671
2422
1783
99
-787
-434
-102
-160
-74
105
143
180
253
251
212
193
175
156
152
159
179
211
245
298
397
505
562
570
566
553
545
566
589
562
499
428
336
219
120
50
-30
-117
-173
-207
-269
-342
-382
-422
-514
-614
-636
-570
-492
-450
-409
-330
-234
-149
-69
0
42
42
-2
-56
-117
-213
-309
-355
-371
-382
-384
-401
-469
-550
-569
-532
-512
-506
-455
-410
-436
-475
-529
-666
-803
-842
-841
-841
-772
-583
-296
204
1228
2302
2000
283
-925
-844
-633
-792
-822
-694
-640
-590
-496
-398
-323
-352
-470
-498
-342
-89
136
267
324
389
469
517
568
682
799
831
809
782
714
599
504
441
371
307
246
147
35
-37
-62
-23
80
160
171
172
191
200
204
210
196
170
170
206
233
206
149
142
197
251
302
408
522
532
475
447
433
397
365
342
337
365
370
325
324
377
361
314
359
385
336
461
922
1795
2882
3011
1487
-111
-249
217
232
168
291
338
360
445
452
391
355
297
194
91
-13
-117
-186
-216
-229
-252
-283
-283
-224
-77
192
488
648
690
689
573
359
226
211
188
86
-108
-376
-639
-800
-849
-889
-981
-1058
-1145
-1339
-1485
-1390
-1171
-863
-354
-28
-387
-1028
-1300
-1444
-1824
-2048
-1873
-1708
-1697
-1618
-1632
-1960
-2291
-2330
-2237
-2245
-2440
-2808
-3239
-3708
-4167
-4250
-3796
-3306
-3150
-3006
-2506
-1748
-1129
-974
-1090
-839
236
1904
2948
2190
519
-105
276
322
-57
-309
-493
-699
-796
-749
-553
-277
23
519
1191
1834
2716
3987
5026
5525
5661
5080
3850
3298
4066
5197
5941
6387
6372
5583
4445
3661
3187
2505
1592
880
434
-144
-992
-1723
-1968
-1773
-1135
271
2247
3716
3988
3466
2750
2075
1594
1355
1215
1097
972
704
221
-356
-846
-1134
-1232
-1251
-1247
-1278
-1513
-1978
-2412
-2640
-2760
-2879
-3007
-3111
-3042
-2644
-2037
-1560
-1386
-1375
-1393
-1480
-1579
-1536
-1481
-1417
-566
1343
2636
1872
335
-215
-193
-472
-807
-1004
-1249
-1441
-1540
-1671
-1629
-1222
-756
-550
-482
-351
-215
-168
-161
-138
-101
-3
167
267
237
227
250
138
-22
-108
-407
-949
-1135
-771
-398
-283
-233
-204
-265
-386
-604
-974
-1338
-1446
-1294
-1077
-850
-526
-200
-97
-200
-295
-328
-396
-494
-529
-557
-711
-923
-1020
-1006
-952
-821
-590
-346
-138
53
216
330
411
496
613
742
838
891
905
896
900
896
893
985
1112
1164
1298
1702
2435
3327
3436
2056
429
79
464
539
482
561
604
672
835
945
999
1045
1008
908
834
772
695
635
600
589
597
579
533
535
578
557
462
384
349
293
177
51
-20
-72
-182
-320
-420
-511
-625
-699
-671
-581
-497
-436
-391
-343
-261
-145
-40
10
-10
-42
-23
0
-59
-176
-256
-281
-298
-331
-376
-441
-502
-518
-514
-567
-691
-834
-1000
-1232
-1450
-1535
-1534
-1487
-1337
-1205
-1198
-1046
-526
393
1527
1815
454
-1151
-1355
-861
-773
-772
-572
-458
-410
-310
-251
-253
-280
-339
-364
-304
-212
-126
-8
193
452
640
710
786
931
1035
1050
1056
1064
1024
956
880
758
596
452
340
230
107
-28
-157
-280
-408
-511
-572
-630
-661
-591
-458
-342
-238
-145
-79
-28
12
73
184
261
242
200
168
146
172
120
-139
-338
-178
138
312
388
459
496
532
586
582
543
512
357
107
78
427
1192
2118
2117
697
-638
-665
-259
-277
-355
-311
-390
-535
-634
-726
-750
-640
-485
-378
-299
-214
-128
-38
58
111
131
199
290
325
342
385
411
421
432
377
247
140
66
-74
-255
-350
-365
-410
-463
-446
-392
-352
-299
-230
-195
-197
-197
-216
-296
-401
-483
-531
-542
-535
-530
-496
-405
-296
-207
-139
-91
-49
3
39
39
42
88
110
27
-95
-168
-195
-183
-170
-199
-184
-141
-205
-182
214
982
1971
2438
1457
-147
-652
-240
-114
-241
-196
-168
-212
-161
-82
-47
-31
-37
-20
41
53
37
108
214
248
260
306
347
360
369
371
352
323
280
204
110
22
-71
-164
-219
-227
-204
-151
-103
-98
-76
2
46
14
-8
9
5
-18
-23
-51
-125
-170
-159
-158
-179
-164
-128
-150
-224
-279
-310
-346
-368
-370
-388
-405
-365
-304
-276
-261
-254
-215
-87
-13
-93
-49
356
1190
2336
2748
1466
-256
-670
-295
-263
-342
-236
-218
-251
-173
-107
-92
-33
30
39
39
69
108
142
176
210
249
315
374
367
323
310
329
358
368
319
248
212
163
47
-74
-155
-233
-310
-364
-405
-436
-435
-414
-407
-401
-364
-329
-332
-340
-324
-302
-279
-254
-233
-199
-149
-121
-131
-160
-177
-169
-173
-197
-190
-173
-217
-275
-270
-233
-181
-125
-131
-130
-62
-140
-328
-186
397
1319
2330
2309
718
-770
-813
-400
-440
-509
-424
-409
-386
-329
-335
-326
-258
-194
-138
-95
-86
-60
-8
35
102
205
275
293
322
400
480
503
505
547
562
473
356
301
258
181
108
45
-21
-43
-13
-2
-29
-32
-2
2
-26
-41
-46
-69
-78
-57
-66
-108
-117
-99
-107
-129
-135
-155
-191
-195
-177
-174
-149
-94
-90
-139
-162
-174
-211
-217
-207
-281
-354
-331
-399
-551
-428
95
982
1950
1923
528
-664
-618
-276
-297
-289
-216
-259
-238
-130
-108
-126
-87
-38
-14
19
70
89
68
80
145
188
196
234
309
373
403
402
396
409
414
367
281
205
147
83
8
-62
-117
-164
-195
-180
-144
-153
-192
-177
-122
-115
-160
-193
-185
-155
-148
-167
-144
-84
-89
-148
-147
-95
-86
-115
-132
-126
-109
-107
-118
-111
-103
-131
-163
-170
-190
-210
-181
-166
-183
-144
-137
-231
-155
289
1119
2222
2646
1525
21
-286
93
100
-41
-2
-6
-69
-65
-52
-70
-103
-151
-185
-193
-194
-174
-151
-168
-176
-108
-25
17
72
142
169
186
224
216
149
92
41
-47
-153
-243
-312
-363
-420
-474
-483
-469
-479
-491
-471
-443
-424
-410
-417
-450
-465
-440
-402
-356
-306
-302
-320
-301
-290
-309
-289
-242
-215
-157
-82
-90
-152
-170
-148
-112
-54
-32
-74
-62
-19
-101
-151
102
760
1890
2796
2125
296
-605
-249
1
-107
-64
-13
-74
-44
27
21
16
36
50
78
114
135
175
226
236
253
341
398
351
324
380
419
422
433
420
386
337
224
82
1
-55
-138
-194
-210
-243
-293
-320
-337
-372
-371
-293
-260
-343
-393
-336
-286
-278
-262
-245
-225
-183
-172
-203
-211
-181
-158
-147
-104
-9
70
61
31
58
88
84
90
86
86
156
172
89
175
598
1429
2515
2755
1399
-130
-347
7
-45
-177
-143
-170
-216
-206
-212
-180
-104
-102
-124
-70
-15
-30
-52
-38
-16
16
66
98
105
136
174
159
120
106
74
-3
-78
-124
-162
-219
-306
-383
-403
-407
-458
-526
-550
-541
-538
-546
-561
-579
-602
-628
-648
-641
-608
-573
-533
-481
-449
-442
-413
-364
-342
-308
-229
-187
-231
-266
-249
-256
-277
-238
-186
-171
-133
-119
-176
-118
234
947
1857
2100
1060
-198
-422
-102
-78
-151
-90
-81
-120
-103
-72
-46
-10
23
72
142
191
220
260
310
355
395
436
479
516
536
561
596
615
606
593
587
564
500
402
312
250
199
153
112
69
30
7
-12
-41
-63
-71
-84
-113
-142
-156
-171
-211
-262
-295
-314
-320
-300
-275
-275
-268
-219
-173
-182
-219
-226
-211
-208
-216
-222
-208
-185
-228
-268
-103
386
1309
2266
2044
497
-631
-488
-166
-252
-281
-208
-245
-262
-215
-201
-186
-159
-157
-139
-98
-86
-71
-10
43
58
83
129
160
190
226
230
207
207
223
214
179
122
29
-74
-135
-171
-221
-259
-252
-248
-277
-284
-260
-265
-298
-295
-266
-267
-291
-303
-308
-320
-323
-306
-292
-298
-301
-271
-233
-222
-229
-239
-253
-248
-227
-240
-242
-191
-210
-269
-120
401
1432
2546
2354
611
-724
-593
-198
-264
-289
-193
-211
-203
-135
-151
-174
-112
-60
-60
-28
37
70
95
145
184
212
274
340
365
373
390
392
374
351
310
239
165
91
7
-69
-121
-158
-178
-180
-191
-217
-226
-208
-199
-207
-207
-201
-212
-231
-239
-232
-223
-222
-225
-227
-224
-194
-142
-127
-159
-177
-178
-186
-182
-191
-215
-176
-161
-252
-204
198
1008
2121
2552
1374
-235
-573
-153
-123
-249
-175
-156
-196
-154
-124
-125
-80
-29
-16
-8
15
49
94
142
177
206
254
298
304
307
342
363
334
297
278
238
156
71
3
-70
-153
-206
-214
-209
-223
-242
-243
-235
-232
-230
-232
-240
-243
-244
-270
-308
-312
-294
-290
-283
-250
-224
-226
-232
-241
-265
-253
-204
-221
-262
-214
-204
-275
-140
374
1264
2198
2124
719
-488
-467
-140
-208
-266
-201
-222
-229
-173
-165
-169
-128
-89
-68
-42
-13
14
45
86
127
159
186
218
244
244
227
215
205
191
180
163
108
21
-49
-100
-155
-189
-194
-208
-222
-198
-169
-183
-212
-211
-194
-197
-222
-238
-227
-219
-252
-293
-281
-229
-209
-234
-255
-265
-276
-264
-242
-263
-261
-216
-262
-305
-66
558
1550
2363
1887
316
-610
-389
-144
-244
-230
-141
-167
-167
-104
-93
-117
-102
-49
-8
7
25
65
112
157
216
262
259
249
287
326
316
295
298
292
263
227
176
97
21
-39
-97
-141
-167
-197
-219
-214
-214
-230
-227
-198
-188
-211
-240
-250
-233
-207
-211
-233
-211
-155
-139
-169
-207
-240
-232
-197
-211
-222
-184
-236
-305
-75
617
1765
2701
2132
321
-709
-417
-138
-291
-312
-220
-238
-247
-210
-198
-178
-141
-119
-98
-68
-39
-6
35
80
132
182
215
249
296
315
296
290
303
282
224
165
89
-15
-101
-156
-206
-249
-264
-256
-246
-251
-268
-274
-268
-273
-282
-279
-284
-311
-322
-302
-297
-305
-282
-246
-241
-251
-263
-278
-266
-255
-291
-292
-253
-309
-331
-39
668
1828
2769
2140
276
-727
-423
-167
-278
-238
-170
-230
-213
-134
-118
-118
-98
-79
-46
0
39
70
114
175
226
261
305
339
341
349
379
384
356
322
279
213
135
42
-62
-144
-192
-229
-257
-251
-231
-230
-230
-214
-214
-233
-238
-240
-256
-262
-254
-272
-309
-316
-293
-285
-287
-254
-209
-206
-225
-231
-229
-210
-206
-241
-206
-131
-210
-263
53
779
1874
2708
2055
312
-562
-265
-81
-227
-219
-184
-234
-209
-167
-179
-166
-130
-107
-71
-37
-24
-3
29
60
110
168
196
215
256
286
284
285
295
279
222
145
63
-22
-106
-176
-218
-236
-253
-271
-274
-257
-227
-204
-202
-204
-191
-180
-185
-195
-205
-212
-212
-214
-221
-220
-207
-194
-190
-198
-210
-227
-234
-210
-169
-138
-101
-71
-84
-108
-112
-138
-168
-166
-172
-150
-106
-187
-270
-9
699
1738
2464
1850
292
-498
-234
-42
-152
-137
-94
-125
-83
-26
-47
-60
-19
28
50
51
72
120
143
132
147
202
254
287
320
350
354
339
328
324
307
269
216
151
79
13
-34
-73
-113
-130
-118
-115
-132
-136
-118
-113
-128
-142
-158
-167
-152
-138
-160
-187
-178
-159
-166
-181
-180
-181
-193
-196
-191
-186
-178
-178
-200
-215
-197
-181
-193
-206
-206
-203
-189
-170
-164
-141
-95
-89
-132
-173
-186
-158
-131
-168
-186
-143
-191
-255
-34
598
1600
2357
1785
209
-632
-362
-118
-222
-235
-172
-186
-193
-167
-145
-131
-124
-100
-57
-33
-13
34
71
79
106
159
206
241
272
300
320
316
295
291
297
276
214
121
17
-57
-95
-144
-212
-256
-256
-239
-236
-252
-261
-254
-253
-265
-270
-266
-269
-279
-283
-270
-250
-249
-266
-278
-275
-261
-244
-230
-226
-227
-224
-205
-159
-106
-96
-133
-164
-156
-125
-118
-153
-138
-74
-121
-191
10
624
1765
2874
2494
651
-525
-260
77
-63
-103
-22
-40
-30
30
45
55
97
142
