# session 6
-161
-28
-420
-17
1731
3072
2866
2056
1646
1696
1820
1509
884
779
1390
1925
1848
1431
1255
1719
2633
3179
2897
2335
2066
1912
1628
1318
977
561
238
13
-227
-258
357
1976
3993
4264
1916
-467
-734
-189
-276
-548
-735
-1027
-1069
-776
-562
-449
-354
-447
-542
-463
-399
86
1304
1935
1090
-10
-503
-748
-670
-311
-297
-439
-313
-394
-818
-934
-628
-333
-199
-234
-403
-500
-491
-509
-456
-268
-225
-447
-583
-442
-180
561
2126
3087
1808
-411
-1248
-936
-784
-818
-755
-735
-767
-847
-991
-1091
-1228
-1319
-918
-308
-289
-544
-275
238
499
717
1004
1077
741
199
-44
60
-10
-227
-149
14
-106
-354
-606
-830
-773
-485
-405
-564
-643
-638
-661
-610
-568
-712
-821
-585
237
1658
2355
936
-1054
-1270
-580
-550
-268
832
1515
1411
1134
559
-543
-1592
-1736
-862
60
295
253
310
286
249
393
509
336
46
64
379
477
220
8
-39
-86
-17
198
233
98
126
202
-40
-520
-976
-1374
-1597
-1471
-1250
-1203
-990
-365
586
2078
3404
2834
1148
924
1489
733
-247
35
568
615
529
256
-31
119
384
384
345
386
455
608
639
273
-194
-345
-309
-317
-327
-359
-482
-550
-461
-426
-615
-814
-790
-694
-698
-588
-206
165
264
236
284
405
549
741
1159
1739
1556
268
-204
1280
2176
596
-1209
-1267
-786
-862
-983
-901
-857
-795
-698
-724
-726
-411
77
353
331
149
-54
-95
69
184
52
-161
-220
-200
-319
-547
-655
-461
-15
321
294
81
-150
-374
-455
-420
-356
-176
-307
-1103
-1427
-409
679
690
341
469
918
1427
1945
1931
829
-480
-655
-68
181
33
-241
-593
-756
-677
-656
-691
-637
-586
-555
-451
-360
-349
-314
-233
-126
89
360
489
419
235
76
97
206
208
243
540
1211
2148
2277
715
-955
-880
-150
-244
-471
-333
-436
-633
-465
-232
-88
182
673
1744
3082
2859
722
-824
-607
-287
-611
-658
-297
-96
-112
-173
-207
-229
-394
-712
-906
-817
-591
-399
-259
-176
-244
-386
-353
-332
-490
-219
307
-117
-681
340
1545
1051
177
154
118
-130
4
260
261
170
92
-44
-293
-609
-846
-934
-690
301
1720
2086
643
-1166
-1646
-1105
-757
-832
-903
-791
-512
-136
104
-39
-381
-469
-328
-246
-121
71
231
800
1819
2492
2666
2441
1255
-318
-789
-446
-444
-604
-483
-328
-254
-164
-111
-110
-112
-92
-29
3
-58
-115
-134
-161
-171
-252
-498
-685
-351
843
2175
1874
-149
-1519
-1174
-566
-445
-191
277
533
451
106
-242
-304
-165
-86
-143
-414
-1061
-1742
-1572
-411
655
900
753
644
522
374
193
-5
26
253
263
77
88
192
87
-91
-245
-495
-683
-660
-616
-600
-488
-435
-635
-851
-708
-44
1363
3184
3611
1667
-546
-1008
-552
-361
-235
123
598
978
1185
1294
1046
319
-271
-439
-552
-578
-390
-276
-289
-224
-119
-73
-118
-260
-353
-252
-11
254
375
228
11
-54
-161
-464
-663
-578
-460
-470
-558
-708
-840
-801
-595
-418
-443
-396
137
933
1816
2812
2699
970
-133
-140
-1410
-2764
-1297
820
788
436
1031
1044
393
234
372
299
203
130
-105
-481
-852
-942
-563
-154
-321
-816
-955
-715
-505
-433
-423
-453
-470
-423
-331
-234
-174
-140
-87
-90
-209
-321
-347
-221
202
727
1238
2130
2743
1829
820
1739
2535
849
-1119
-1153
-704
-929
-986
-639
-469
-555
-616
-477
-236
-100
15
207
283
277
467
696
607
350
255
237
132
29
-38
-150
-251
-294
-425
-657
-730
-646
-608
-461
-233
-322
-404
-195
-385
-466
710
1510
290
-997
-833
-368
-19
779
1790
2313
1538
-317
-1360
-889
-389
-531
-659
-649
-705
-702
-616
-514
-413
-407
-460
-373
-198
-128
-116
-47
30
95
199
285
296
283
222
83
88
291
285
256
1270
2908
2690
68
-2056
-1911
-1065
-868
-909
-932
-1068
-1064
-797
-493
-363
-491
-698
-621
206
2128
3902
3213
602
-778
-351
-113
-451
-519
-389
-309
-154
-17
-70
-254
-378
-413
-513
-445
-149
-346
-397
1260
2912
1971
-38
-1174
-1160
1600
5263
4011
-254
-281
2485
2412
674
200
68
-493
-759
-712
-656
-617
-754
-1018
-1062
-865
-800
-1034
-1289
-1317
-870
450
1837
1348
-758
-1879
-1369
-876
-905
-804
-578
-440
-263
-131
-224
-392
-448
-365
-105
236
376
415
1050
2557
3545
2141
-776
-2170
-1482
-802
-784
-600
-380
-538
-694
-602
-483
-443
-482
-617
-697
-545
-248
-23
81
122
119
112
122
69
-25
87
873
2488
3520
2054
-888
-2311
-1881
-1495
-1556
-1406
-1240
-1265
-1100
-805
-644
-147
787
1376
1910
3084
3456
1905
328
151
275
76
-18
-166
-384
-244
-18
-155
-372
-395
-379
-379
-332
-323
-367
-288
-68
30
-140
-366
-446
-498
-636
-730
-807
-1032
-1161
-764
320
1934
3071
2379
435
-530
65
537
90
210
1697
2763
2097
703
-477
-1214
-1123
-578
-395
-396
-201
-77
-151
-164
-15
170
229
87
-165
-327
-271
-114
-75
-108
-49
19
21
73
88
-158
-581
-909
-1065
-1140
-1177
-1140
-1055
-932
-718
-614
-708
-479
193
1060
2586
3793
2151
-737
-583
1299
970
-287
-52
334
-100
-305
-215
-434
-687
-562
-164
174
198
-11
-206
-300
-212
98
256
-28
-357
-407
-468
-658
-670
-496
-417
-462
-518
-548
-493
-326
-109
133
292
252
220
289
272
374
523
88
-4
1535
2673
1453
599
2072
2694
675
-1058
-917
-611
-901
-1018
-861
-710
-519
-326
-232
-186
-162
-144
-87
-23
48
172
272
296
355
378
145
-199
-341
-356
-393
-385
-392
-488
-508
-445
-423
-281
-116
-334
-621
-570
-499
14
1449
1997
476
-824
-414
77
-182
-313
-158
225
1209
1891
929
-681
-1022
-417
-191
-325
-349
-378
-498
-620
-766
-912
-959
-897
-763
-581
-388
-238
-177
-189
-184
-86
118
446
853
1136
1230
1314
1390
1294
918
121
-495
481
2617
3103
1036
-1002
-1217
-689
-549
-569
-556
-652
-695
-537
-404
-453
-457
-95
898
2351
2922
1492
-517
-1016
-507
-425
-586
-472
-378
-379
-216
-1
7
-153
-275
-311
-357
-298
-52
12
-71
182
311
123
572
443
-1824
-2645
545
2788
1043
-519
81
402
14
-126
-431
-879
-852
-634
-615
-583
-447
-396
-428
-405
-388
-470
-450
19
1129
2283
2013
125
-1328
-1193
-720
-758
-800
-713
-732
-757
-790
-856
-694
-345
-134
98
608
1142
1535
1568
782
190
1428
2995
2162
-4
-847
-590
-489
-419
-241
-270
-363
-306
-233
-209
-185
-173
-131
-43
-55
-188
-259
-259
-304
-311
-299
-453
-592
-325
665
2457
3713
2537
-92
-1337
-1014
-812
-852
-610
-483
-578
-415
-149
-342
-871
-1173
-1066
-661
-49
530
801
827
815
753
566
339
178
73
-13
-62
-53
17
143
264
274
187
126
136
164
192
222
204
109
5
-66
-149
-214
-221
-302
-404
-233
285
1159
2141
2096
615
-653
-643
-452
-793
-1002
-842
-706
-635
-508
-366
-163
144
395
502
619
807
887
746
500
301
207
182
134
48
10
-7
-133
-357
-570
-742
-869
-920
-914
-858
-705
-509
-405
-383
-363
-367
-408
-449
-468
-427
-403
-502
-555
-315
444
1832
2794
1830
-184
-998
-630
-484
-612
-557
-525
-592
-568
-499
-448
-359
-260
-205
-150
-57
27
61
70
79
101
171
274
323
279
196
131
90
53
11
-7
29
78
85
63
43
39
98
231
300
171
-74
-278
-393
-444
-511
-599
-492
74
1204
2342
2111
298
-1042
-789
-468
-679
50
1681
2533
2454
2357
2316
2269
2177
1382
-1
-729
-560
-368
-405
-423
-450
-483
-446
-443
-521
-566
-576
-613
-640
-628
-617
-605
-619
-684
-657
-589
-710
-726
-545
-726
-799
-369
-830
-1249
1227
3747
1822
-1267
-1095
368
1134
1839
1530
-196
-1174
-777
-499
-654
-654
-601
-642
-607
-534
-515
-476
-391
-310
-222
-98
31
82
36
-26
-54
-79
-102
-102
-101
-123
-158
-169
-133
-98
-119
-176
-226
-267
-290
-270
-238
-231
-210
-153
-126
-145
-142
-136
-140
-98
-110
-286
-349
162
1340
2406
2096
511
-616
-546
-239
-290
-436
-403
-268
-378
-407
6
-144
-488
1103
3001
1911
-153
-147
380
1
-188
-52
-166
-242
-197
-278
-347
-320
-305
-273
-229
-243
-257
-220
-160
-121
-152
-172
-102
-150
-300
-245
-322
-682
-165
1452
2489
2435
2261
2130
1966
1757
746
-758
-1226
-805
-704
-869
-881
-816
-766
-868
-880
-606
-878
-1130
1286
5441
6260
2748
-484
-1012
-715
-835
-846
-700
-706
-708
-651
-682
-748
-776
-818
-879
-916
-922
-902
-861
-806
-751
-693
-618
-562
-581
-621
-616
-631
-668
-645
-692
-899
-984
-656
246
1508
1898
571
-1020
-1113
-456
-618
-902
355
2178
2075
441
-360
-148
-104
-177
-49
7
-7
10
-37
-41
-37
-132
-11
125
-123
32
358
-426
-3
3647
5542
2242
-1032
-773
-128
-554
-566
-335
-440
-424
-334
-419
-428
-362
-377
-328
-263
-412
-596
-430
400
1824
2580
1478
-254
-717
-331
-250
-271
-91
0
3
94
178
170
122
88
87
98
94
90
91
59
-4
-57
-84
-83
-55
-28
-29
-52
-80
-111
-143
-183
-225
-250
-257
-259
-255
-237
-210
-181
-173
-203
-229
-219
-221
-229
-176
-166
-313
-417
-151
616
1486
1480
339
-663
-642
-328
-354
-425
-379
-345
-302
-266
-286
-286
-240
-198
-147
-71
15
94
127
93
32
-17
-55
-81
-97
-119
-143
-184
-245
-267
-267
-307
-279
-214
-361
-367
489
1820
2382
1740
584
-197
-322
-220
-276
-336
-235
-201
-347
-412
-188
494
1628
2139
1010
-550
-852
-445
-416
-488
-354
-288
-277
-194
-140
-115
-41
33
82
142
196
204
167
113
58
13
7
52
114
142
122
80
37
2
-4
2
-42
-124
-160
-152
-167
-217
-251
-231
-183
-157
-140
-104
-92
-124
-137
-149
-241
-326
-187
442
1593
2302
1381
-355
-986
-544
-320
-414
-359
-287
-298
-250
-182
-145
-80
5
76
158
247
310
333
298
210
131
98
77
45
9
-36
-85
-113
-111
-93
-81
-97
-140
-179
-199
-210
-220
-241
-257
-245
-249
-306
-343
-330
-329
-303
-261
-346
-429
-134
693
1747
2088
1018
-428
-750
-302
-164
-257
-223
-217
-254
-218
-187
-188
-161
-125
-92
-30
55
122
140
103
44
12
23
47
63
87
109
101
82
91
109
104
74
23
-47
-123
-184
-222
-234
-216
-202
-227
-240
-232
-279
-306
-243
-310
-523
-458
162
1410
2777
2741
925
-593
-572
-233
-354
-403
-293
-285
-270
-197
-159
-119
-42
26
68
90
101
89
27
-48
-87
-99
-96
-65
-25
15
64
101
104
90
61
6
-62
-123
-148
-133
-134
-177
-213
-208
-196
-206
-218
-226
-242
-214
-160
-243
-387
-277
199
1042
1861
1587
174
-738
-486
-171
-254
-239
-122
-125
-118
-33
45
107
167
216
260
292
298
288
272
248
220
195
170
130
76
23
-27
-66
-75
-71
-80
-93
-110
-137
-151
-149
-151
-156
-140
-113
-115
-145
-147
-128
-136
-113
-66
-157
-323
-262
167
884
1384
902
-253
-796
-516
-296
-341
-290
-174
-125
-72
-9
13
17
33
60
96
142
185
174
100
7
-84
-156
-155
-104
-76
-56
-26
-38
-64
-70
-126
-205
-217
-224
-267
-252
-200
-205
-214
-171
-162
-217
-246
-255
-298
-278
-189
-265
-457
-389
160
1185
2043
1579
72
-728
-456
-247
-353
-315
-226
-243
-218
-127
-69
-29
42
122
169
209
274
303
258
196
166
157
158
175
214
226
164
79
29
-6
-31
-40
-67
-108
-114
-87
-63
-55
-57
-55
-54
-79
-108
-120
-135
-120
-93
-188
-312
-190
409
1561
2457
1776
47
-754
-421
-217
-306
-254
-208
-243
-189
-109
-76
-30
30
93
172
232
247
222
155
67
4
-11
2
-5
-35
-41
-39
-85
-151
-184
-193
-202
-215
-234
-254
-274
-301
-322
-321
-315
-342
-396
-411
-395
-403
-388
-362
-443
-493
-161
709
1752
1919
685
-625
-663
-129
-38
-112
-41
-50
-120
-108
-80
-54
18
109
204
323
430
465
429
357
261
163
117
122
113
72
25
-40
-123
-183
-205
-218
-235
-235
-220
-228
-266
-297
-288
-256
-255
-291
-294
-279
-312
-295
-230
-362
-576
-369
529
1933
2844
2019
152
-704
-388
-233
-383
-330
-237
-263
-247
-189
-127
-27
54
97
168
246
269
245
194
121
69
60
69
73
52
2
-49
-81
-110
-140
-165
-202
-264
-318
-334
-334
-338
-309
-232
-188
-221
-236
-214
-244
-244
-166
-253
-503
-477
141
1321
2263
1672
-69
-929
-522
-220
-336
-300
-197
-209
-164
-68
-22
21
82
138
199
251
267
252
199
106
25
-1
-15
-67
-130
-167
-187
-175
-108
-47
-67
-128
-164
-170
-154
-139
-167
-204
-193
-194
-260
-283
-222
-206
-228
-193
-255
-451
-463
-76
835
1985
2072
601
-670
-565
-170
-234
-261
-156
-164
-170
-113
-83
-39
39
118
217
324
381
380
342
277
203
141
83
17
-43
-65
-44
-16
-10
-17
-21
-46
-113
-188
-238
-253
-219
-146
-79
-54
-74
-104
-124
-171
-170
-51
-28
-217
-296
95
1114
2232
2090
527
-615
-448
-102
-153
-130
-22
-44
-46
18
40
47
89
157
254
349
381
350
285
200
121
107
155
178
133
76
49
36
6
-56
-136
-197
-229
-245
-253
-248
-242
-241
-223
-185
-185
-236
-257
-240
-258
-262
-237
-321
-453
-351
172
1061
1597
875
-495
-969
-568
-373
-464
-423
-356
-364
-332
-252
-161
-75
-27
27
126
191
181
155
128
76
19
-9
-10
-22
-76
-150
-203
-242
-283
-295
-262
-236
-256
-283
-284
-292
-324
-331
-296
-282
-339
-411
-416
-391
-383
-314
-255
-375
-500
-291
468
1774
2605
1657
-162
-802
-407
-290
-404
-322
-270
-286
-213
-138
-89
11
123
215
307
383
423
416
362
305
279
285
313
323
282
245
250
246
213
193
175
126
98
143
195
165
94
85
125
148
