# session 25
59
21
73
163
-31
-375
-222
688
2158
3316
2689
571
-703
-460
-189
-359
-370
-287
-327
-318
-255
-249
-240
-200
-169
-140
-105
-73
-32
26
87
146
210
278
339
386
424
446
446
431
401
347
267
175
77
-24
-118
-194
-251
-290
-311
-318
-314
-305
-297
-289
-278
-272
-268
-261
-261
-266
-263
-259
-261
-260
-256
-263
-268
-259
-255
-265
-263
-249
-245
-247
-240
-236
-234
-219
-201
-205
-218
-225
-226
-220
-199
-163
-126
-98
-89
-104
-121
-125
-130
-135
-117
-116
-133
-98
-95
-207
-197
276
1423
2893
3251
1662
-196
-538
-122
-126
-247
-171
-164
-202
-157
-128
-128
-96
-67
-51
-19
20
53
93
144
193
237
291
354
404
430
442
443
434
419
389
333
257
175
91
12
-63
-137
-193
-215
-224
-240
-249
-243
-233
-225
-219
-214
-212
-214
-216
-214
-213
-216
-221
-227
-233
-235
-234
-232
-231
-231
-230
-226
-222
-220
-217
-215
-214
-206
-197
-198
-199
-200
-212
-224
-214
-180
-134
-94
-80
-97
-128
-143
-140
-144
-146
-130
-135
-146
-122
-151
-234
-131
475
1736
2913
2507
613
-646
-443
-93
-206
-241
-150
-171
-183
-135
-117
-105
-81
-69
-45
-5
27
55
92
133
185
249
297
319
338
360
382
399
393
349
292
245
201
150
86
-5
-98
-148
-164
-184
-206
-220
-235
-235
-206
-190
-199
-200
-205
-220
-214
-201
-209
-222
-224
-224
-226
-227
-230
-231
-225
-218
-221
-227
-224
-225
-235
-233
-218
-201
-174
-141
-126
-143
-165
-166
-162
-175
-178
-175
-186
-168
-151
-197
-171
183
1143
2559
3076
1581
-441
-896
-325
-175
-292
-212
-169
-205
-167
-132
-133
-111
-89
-66
-21
15
40
82
131
174
216
265
323
371
390
391
392
385
368
338
279
197
125
56
-35
-127
-182
-212
-243
-270
-278
-274
-266
-257
-251
-247
-238
-230
-231
-236
-234
-232
-233
-236
-241
-246
-249
-250
-248
-247
-253
-256
-255
-258
-262
-256
-241
-212
-174
-149
-154
-180
-191
-185
-189
-187
-164
-176
-191
-140
-153
-274
-232
262
1469
3028
3261
1406
-450
-586
-134
-211
-314
-210
-217
-247
-188
-169
-173
-137
-102
-77
-44
-12
23
69
120
180
247
310
372
434
477
490
491
484
457
403
326
231
128
21
-81
-157
-210
-261
-299
-310
-307
-305
-298
-290
-282
-275
-270
-263
-255
-256
-260
-260
-264
-268
-267
-267
-270
-276
-291
-303
-290
-277
-277
-253
-199
-171
-192
-222
-227
-217
-225
-229
-203
-200
-211
-175
-193
-297
-230
316
1573
3064
3148
1280
-461
-558
-146
-228
-325
-240
-248
-266
-209
-192
-188
-148
-119
-102
-62
-19
15
53
105
168
233
296
359
411
443
457
460
449
422
368
285
194
100
-1
-99
-175
-227
-262
-285
-299
-302
-294
-283
-271
-263
-260
-259
-257
-252
-245
-239
-241
-246
-248
-246
-248
-249
-246
-246
-254
-258
-262
-270
-268
-253
-233
-203
-160
-134
-147
-177
-187
-183
-188
-178
-159
-174
-171
-130
-186
-280
-109
610
1975
3156
2606
586
-641
-402
-111
-254
-260
-176
-220
-220
-161
-160
-151
-104
-79
-65
-29
8
44
94
147
193
244
306
364
409
432
435
431
425
397
344
275
191
100
15
-63
-140
-199
-233
-252
-264
-263
-250
-240
-239
-239
-230
-223
-220
-216
-215
-218
-218
-220
-227
-227
-224
-228
-234
-234
-239
-253
-264
-262
-251
-238
-211
-169
-141
-149
-174
-186
-186
-196
-200
-182
-193
-214
-178
-181
-284
-253
225
1363
2766
2964
1295
-425
-606
-183
-217
-306
-203
-198
-232
-186
-167
-167
-129
-102
-90
-52
-9
24
63
106
155
217
271
305
346
396
410
392
387
387
351
280
207
132
44
-43
-116
-175
-217
-239
-256
-264
-255
-250
-257
-252
-232
-224
-231
-227
-220
-234
-242
-230
-231
-246
-242
-233
-245
-253
-242
-239
-251
-253
-242
-240
-236
-208
-166
-144
-150
-167
-182
-181
-176
-178
-171
-174
-190
-159
-139
-217
-216
147
1138
2624
3215
1717
-354
-835
-297
-190
-311
-211
-169
-212
-167
-130
-138
-108
-66
-47
-26
7
50
97
135
178
236
290
337
391
432
440
445
453
426
367
310
249
166
72
-19
-105
-172
-220
-259
-278
-273
-263
-262
-259
-244
-232
-236
-241
-232
-223
-229
-235
-231
-230
-240
-246
-245
-247
-252
-253
-252
-249
-244
-247
-262
-266
-246
-231
-221
-188
-145
-136
-162
-186
-182
-173
-178
-171
-169
-189
-159
-130
-225
-272
37
963
2477
3343
2132
-19
-766
-293
-137
-294
-233
-177
-223
-193
-146
-144
-123
-95
-78
-44
-5
25
61
111
167
223
285
350
401
435
458
465
454
438
410
350
261
170
85
-4
-90
-157
-207
-245
-268
-274
-273
-271
-265
-257
-253
-247
-239
-234
-233
-228
-221
-219
-226
-231
-229
-232
-242
-242
-233
-232
-236
-235
-231
-227
-223
-214
-205
-203
-202
-195
-193
-205
-218
-217
-207
-186
-148
-111
-90
-92
-115
-134
-131
-134
-135
-115
-123
-140
-96
-115
-235
-147
429
1608
2960
3040
1295
-375
-492
-99
-171
-255
-162
-174
-204
-153
-133
-129
-93
-70
-54
-16
22
53
93
140
196
260
321
376
432
474
491
497
500
482
436
370
285
190
93
-1
-90
-161
-212
-245
-263
-270
-274
-275
-271
-263
-250
-241
-240
-238
-228
-222
-224
-226
-224
-221
-219
-222
-227
-224
-222
-234
-241
-228
-215
-215
-215
-208
-205
-202
-193
-187
-188
-185
-177
-171
-168
-163
-152
-145
-149
-155
-146
-131
-129
-131
-128
-130
-138
-146
-146
-127
-81
-33
-11
-16
-42
-73
-80
-71
-80
-85
-66
-76
-96
-55
-73
-186
-107
445
1601
2940
3047
1362
-287
-436
-63
-133
-226
-142
-150
-174
-123
-107
-108
-69
-39
-30
-6
30
67
108
152
197
249
310
369
419
462
491
497
486
471
447
397
318
227
138
50
-41
-122
-182
-217
-239
-258
-273
-271
-258
-250
-248
-248
-244
-236
-229
-229
-234
-238
-237
-232
-232
-242
-251
-249
-248
-255
-259
-252
-246
-242
-238
-238
-240
-233
-224
-220
-212
-204
-206
-207
-199
-195
-196
-188
-178
-177
-176
-168
-161
-159
-157
-150
-141
-139
-148
-161
-166
-153
-113
-59
-24
-23
-39
-65
-93
-95
-88
-99
-97
-83
-103
-97
-60
-127
-201
46
837
2154
3121
2382
449
-559
-272
-55
-208
-201
-134
-177
-164
-112
-113
-99
-57
-33
-11
27
61
93
133
180
236
298
355
407
459
497
511
518
519
496
452
392
313
221
135
47
-46
-122
-171
-201
-220
-231
-237
-235
-226
-216
-210
-211
-210
-198
-189
-196
-201
-192
-187
-196
-201
-200
-208
-215
-209
-206
-214
-220
-218
-214
-210
-203
-200
-201
-194
-183
-183
-189
-188
-181
-174
-167
-160
-159
-158
-151
-144
-139
-139
-143
-143
-141
-140
-137
-130
-132
-138
-139
-134
-121
-98
-67
-36
-20
-34
-72
-100
-98
-98
-109
-93
-81
-108
-98
-71
-151
-191
115
981
2346
3141
2087
115
-638
-230
-75
-234
-189
-127
-174
-159
-116
-115
-96
-59
-36
-12
12
37
83
134
166
199
256
319
368
412
449
468
472
474
460
416
353
285
198
88
-10
-84
-154
-218
-254
-270
-278
-275
-273
-277
-277
-269
-264
-254
-239
-236
-243
-244
-238
-237
-241
-243
-246
-251
-254
-250
-246
-247
-246
-241
-238
-239
-237
-233
-232
-224
-211
-203
-202
-202
-200
-194
-179
-164
-168
-184
-193
-192
-180
-148
-104
-65
-47
-57
-90
-117
-114
-107
-118
-109
-91
-116
-117
-71
-126
-214
-15
707
2021
3136
2539
512
-668
-367
-57
-208
-209
-111
-148
-153
-100
-93
-77
-35
-22
-12
25
65
99
138
185
239
300
364
427
484
523
539
536
524
503
459
383
289
190
91
-4
-90
-159
-205
-237
-262
-278
-282
-280
-277
-274
-264
-251
-245
-244
-239
-235
-233
-233
-237
-241
-239
-235
-235
-234
-231
-226
-226
-232
-235
-226
-219
-222
-225
-215
-204
-200
-200
-199
-192
-182
-177
-181
-179
-168
-164
-169
-175
-186
-190
-166
-116
-72
-49
-53
-81
-112
-118
-113
-125
-129
-112
-123
-134
-90
-111
-220
-134
420
1570
2846
2827
1091
-460
-497
-98
-167
-239
-147
-162
-185
-129
-115
-119
-79
-50
-40
-12
27
63
102
144
190
245
308
375
435
477
506
531
540
520
478
415
326
229
138
41
-57
-136
-191
-230
-254
-271
-279
-269
-255
-259
-265
-253
-239
-236
-232
-229
-231
-233
-231
-230
-232
-237
-236
-232
-237
-251
-254
-243
-235
-235
-234
-228
-222
-218
-212
-204
-200
-195
-181
-171
-175
-182
-183
-188
-198
-196
-167
-119
-73
-50
-56
-85
-114
-126
-127
-133
-125
-110
-132
-147
-100
-116
-216
-128
423
1573
2836
2790
1052
-469
-484
-91
-170
-239
-141
-154
-180
-127
-114
-121
-91
-67
-53
-22
15
53
101
153
202
256
317
380
442
491
517
525
523
510
472
408
326
233
131
33
-57
-139
-201
-238
-261
-278
-287
-285
-276
-267
-260
-249
-239
-234
-231
-225
-223
-223
-225
-229
-228
-228
-237
-244
-243
-244
-252
-255
-250
-246
-242
-234
-227
-222
-218
-215
-214
-209
-210
-223
-229
-203
-153
-110
-89
-87
-106
-137
-153
-149
-157
-165
-147
-147
-165
-134
-133
-239
-231
216
1298
2650
2896
1339
-361
-593
-165
-165
-262
-173
-158
-190
-149
-123
-116
-78
-50
-35
-2
32
57
92
135
176
225
287
358
420
464
490
503
512
503
462
393
312
226
135
39
-55
-133
-187
-221
-242
-259
-275
-276
-261
-252
-254
-253
-240
-228
-225
-228
-232
-236
-235
-232
-235
-247
-254
-249
-240
-243
-250
-245
-231
-227
-232
-230
-225
-219
-217
-226
-242
-237
-201
-150
-102
-74
-79
-113
-147
-155
-149
-160
-163
-153
-164
-154
-113
-161
-244
-100
537
1848
3089
2610
531
-791
-514
-128
-246
-255
-149
-183
-191
-128
-116
-113
-80
-53
-31
1
36
76
120
160
200
257
327
386
428
466
493
498
486
461
414
345
267
178
77
-23
-107
-172
-222
-255
-272
-281
-282
-275
-265
-264
-259
-243
-234
-237
-233
-222
-220
-221
-221
-227
-232
-226
-225
-238
-245
-241
-240
-239
-231
-226
-228
-225
-219
-218
-222
-228
-231
-214
-174
-130
-100
-90
-109
-146
-164
-158
-164
-173
-160
-168
-179
-137
-154
-266
-207
318
1495
2889
2985
1206
-495
-593
-152
-200
-286
-192
-195
-218
-165
-141
-137
-103
-77
-54
-16
20
51
90
135
187
246
309
376
443
490
507
510
505
491
458
390
293
195
104
8
-87
-162
-215
-251
-273
-286
-292
-293
-287
-278
-269
-261
-252
-243
-239
-237
-232
-231
-235
-233
-233
-239
-239
-236
-242
-246
-241
-241
-247
-240
-230
-231
-235
-239
-246
-241
-212
-168
-127
-102
-112
-150
-178
-173
-164
-173
-170
-156
-172
-166
-124
-178
-267
-75
661
1982
3060
2452
486
-662
-401
-108
-240
-253
-177
-210
-202
-146
-139
-129
-92
-67
-46
-20
8
48
95
139
186
245
310
375
434
478
499
498
484
456
409
339
252
157
59
-40
-128
-191
-231
-266
-287
-286
-281
-289
-292
-277
-262
-256
-247
-235
-230
-228
-227
-230
-230
-226
-233
-241
-238
-230
-227
-221
-220
-227
-225
-213
-213
-222
-223
-224
-238
-242
-221
-185
-136
-87
-78
-112
-147
-161
-159
-157
-158
-153
-162
-171
-122
-103
-197
-196
207
1255
2701
3114
1522
-405
-730
-210
-156
-267
-168
-144
-187
-146
-111
-101
-73
-63
-51
1
48
72
99
131
173
237
307
366
419
465
505
538
544
516
469
416
353
269
155
35
-54
-126
-198
-252
-280
-293
-296
-292
-286
-278
-275
-279
-271
-251
-246
-264
-278
-264
-240
-245
-272
-277
-267
-279
-298
-292
-277
-278
-279
-280
-292
-298
-287
-279
-273
-240
-185
-157
-168
-197
-226
-226
-213
-228
-232
-203
-210
-215
-176
-214
-264
-33
734
2124
3227
2422
182
-982
-550
-172
-287
-254
-159
-212
-209
-144
-132
-108
-58
-44
-39
4
62
103
140
197
266
336
407
481
545
584
600
612
606
558
481
391
281
160
44
-74
-179
-241
-273
-299
-324
-339
-328
-303
-296
-295
-275
-266
-274
-256
-228
-225
-232
-230
-233
-237
-236
-236
-232
-227
-237
-251
-253
-249
-242
-239
-241
-234
-225
-229
-228
-214
-191
-149
-109
-115
-147
-163
-162
-173
-198
-186
-152
-172
-176
-120
-173
-261
-9
796
2137
3216
2524
366
-871
-513
-131
-249
-242
-143
-175
-176
-132
-123
-96
-58
-42
-15
26
62
105
150
197
267
348
414
482
558
609
622
619
604
568
507
414
295
168
39
-68
-140
-203
-268
-305
-314
-322
-328
-325
-319
-311
-299
-284
-273
-264
-258
-256
-260
-260
-252
-249
-258
-263
-263
-270
-275
-272
-277
-291
-290
-276
-268
-270
-273
-269
-260
-264
-281
-282
-260
-241
-227
-193
-153
-144
-178
-215
-215
-205
-216
-208
-195
-220
-196
-146
-248
-315
39
954
2380
3387
2478
294
-754
-371
-138
-311
-283
-201
-247
-235
-181
-174
-157
-120
-93
-64
-31
6
53
103
155
218
289
365
450
523
569
597
611
607
580
517
414
295
178
57
-58
-144
-205
-254
-283
-295
-306
-314
-307
-293
-289
-285
-267
-248
-245
-248
-241
-229
-227
-235
-238
-234
-234
-237
-238
-237
-233
-225
-221
-222
-221
-213
-201
-190
-181
-177
-177
-173
-162
-157
-168
-182
-181
-167
-145
-111
-74
-57
-63
-86
-104
-102
-101
-100
-85
-102
-129
-78
-77
-216
-158
404
1507
2864
3249
1757
-121
-534
-130
-132
-270
-196
-176
-214
-173
-141
-142
-116
-90
-73
-42
-11
17
58
108
163
226
291
358
432
499
534
543
548
543
501
421
321
207
83
-38
-145
-230
-289
-330
-360
-378
-380
-375
-371
-369
-363
-354
-344
-336
-331
-325
-315
-300
-292
-293
-292
-284
-276
-272
-263
-252
-246
