# session 11
-179
-133
-196
-132
132
134
-191
-180
255
506
521
534
333
-110
-444
-595
-702
-795
-859
-741
-260
177
-106
-818
-1012
-560
24
384
45
-966
-1527
-1213
-942
-986
-862
-706
-578
-295
-430
-661
664
2932
3897
3681
2820
543
-1691
-1692
-807
-801
-856
-504
-425
-547
-506
-361
-68
299
373
247
398
695
692
716
1044
867
-112
-781
-637
-441
-580
-792
-845
-496
248
859
890
388
-307
-783
-844
-622
-355
-254
-180
293
661
229
426
2311
3306
2059
1697
3027
2588
199
-863
-448
-489
-837
-830
-939
-1274
-1402
-1324
-1200
-998
-764
-617
-524
-333
9
345
457
353
266
300
321
217
1
-240
-326
-228
-181
-107
215
359
279
1014
2207
1868
135
-944
-1125
-1310
-1372
-1197
-1064
-787
-468
-554
-717
-288
1077
3127
4097
2447
-65
-796
-233
-122
-569
-935
-977
-826
-814
-921
-840
-660
-606
-522
-226
127
270
256
407
605
280
-428
-672
-255
336
868
1242
1253
945
507
128
20
14
-194
-347
-252
-284
-478
-526
-571
-638
-430
-380
-983
-1404
-911
-215
531
2012
2930
1430
-898
-1420
-727
-505
-553
-293
-132
-428
-833
-906
-701
-496
-329
-138
78
369
762
1400
2546
3543
2969
1098
-78
-117
-280
-745
-855
-706
-545
-381
-430
-615
-583
-470
-439
-272
-60
-26
36
151
102
2
-250
-967
-1505
-750
1141
2548
1982
11
-1158
-744
-163
-273
-550
-742
-890
-774
-606
-634
-551
-710
-1202
-181
2345
2845
759
-335
417
953
923
851
602
402
292
-90
-359
-227
-284
-639
-800
-791
-849
-880
-775
-593
-513
-604
-603
-373
-47
332
418
-243
-1016
-847
349
2104
3237
2089
-505
-1606
-1026
-993
-1310
52
2561
3503
2170
564
-29
-293
-649
-686
-409
-60
232
167
-155
-230
-133
-97
135
456
408
116
-142
-448
-727
-739
-518
-329
-374
-531
-557
-561
-721
-863
-874
-887
-813
-516
-398
-735
-929
-491
587
2466
4140
3807
2338
1621
703
-1035
-1770
-1213
-646
-201
-21
-395
-474
-27
10
-350
-404
-122
236
170
-775
-1660
-1273
-353
-105
-194
-137
-205
-344
-335
-299
-61
481
703
285
-322
-791
-988
-849
-579
-19
910
1331
1409
2498
3340
1733
-477
-583
606
1826
2710
1952
-245
-1459
-1295
-1271
-1409
-1040
-505
-295
-370
-317
131
430
52
-381
-181
202
148
-156
-362
-569
-909
-1159
-1087
-796
-451
37
755
1393
1342
435
-643
-1183
-1150
-721
-114
156
-150
-558
-514
-74
281
390
456
343
-80
-159
775
2217
2629
1113
-964
-1666
-1426
-1507
-1446
-803
-418
-525
-548
-452
-412
-285
-14
337
596
469
118
54
234
336
418
467
427
561
684
646
1473
3127
3249
1274
-233
-157
45
-361
-815
-881
-588
-425
-736
-1073
-1022
-811
-676
-632
-553
49
1550
3177
3248
1348
-594
-976
-678
-922
-1378
-1541
-1567
-1449
-1143
-906
-698
-332
-157
-366
-370
74
452
615
772
954
1389
1672
678
-535
240
1574
957
-189
-57
166
-326
-696
-573
-322
-448
-969
-1185
-1056
-1295
-1574
-1171
-790
-1215
-1653
-1179
204
2222
3605
2504
-147
-1408
-961
-530
-485
-444
-469
-451
-371
-360
-135
224
352
982
2605
3566
2539
946
418
462
237
-38
-137
-299
-569
-735
-757
-785
-770
-549
-279
-70
318
670
420
-138
-336
-364
-590
-719
-635
-715
-812
-457
135
896
2251
3162
2037
42
-789
-950
-1319
-1435
-1228
-896
-601
-907
-907
381
917
158
1040
2903
2323
432
-61
253
462
726
660
187
-134
-232
-282
-315
-471
-832
-1300
-1633
-1492
-917
-434
-295
-261
-176
-122
-173
-277
-272
-162
-196
-367
-200
783
2334
2986
1374
-1441
-2529
-480
2672
3458
1349
-642
-899
-894
-1267
-1213
-981
-1008
-697
-50
56
-347
-393
-50
-31
-226
65
557
547
369
512
552
202
-26
77
-7
-401
-537
-345
-297
-320
-68
321
546
466
174
-197
-872
-1619
-1406
-159
1330
2435
1412
-1984
-3050
437
2930
1287
-366
61
387
171
198
-52
-572
-556
-197
-195
-469
-571
-557
-766
-1092
-1108
-742
-308
-62
-9
68
281
412
338
242
168
60
11
-54
-154
44
353
304
530
1616
2680
2884
2101
378
-1149
-1061
384
2017
2560
1123
-886
-1371
-964
-1111
-1418
-1297
-932
-374
170
277
24
-268
-429
-316
-74
-105
-380
-530
-550
-608
-516
-201
-39
-121
-78
215
518
539
140
-365
-516
-336
-87
69
74
240
784
1087
674
147
41
-78
-525
-633
212
1562
2315
1537
-382
-1487
-901
-215
-514
-850
-626
-541
-946
-1268
-1054
-584
-269
-29
330
544
288
-151
-269
-140
-101
-101
-47
-88
-159
-200
-498
-695
228
2005
3061
2654
1417
323
-170
-419
-788
-975
-814
-662
-638
-620
-661
-721
-618
-116
1280
3131
3338
1290
-506
-547
-161
-256
-457
-592
-517
-254
-306
-628
-708
-548
-306
21
256
306
244
112
34
-43
-257
-322
-557
-1694
-2234
-52
3053
3510
1389
-564
-1092
-838
-446
-80
63
-94
-278
-352
-416
-404
-321
-419
-625
-490
388
1943
2715
1032
-1723
-2558
-1566
-864
-821
-774
-662
-524
-408
-457
-485
-226
282
683
705
752
910
363
-183
967
2413
1845
635
502
318
-406
-568
-241
-172
-276
-386
-556
-592
-358
-119
-136
-141
294
750
457
-233
-492
-496
-593
-86
1504
2792
2058
97
-795
-290
44
-436
-787
-309
149
-432
-1258
-1136
-669
-598
-239
466
621
550
707
150
-1029
-1341
-870
-514
102
841
621
-127
-219
49
61
13
-167
-616
-696
-178
53
-452
-997
-1059
-916
-850
-787
-610
-249
575
2192
3793
3473
1196
-512
-471
-78
-171
-192
64
56
-550
-818
609
2693
2734
747
-680
-657
-340
-293
-296
-313
-324
-240
-195
-348
-515
-366
41
352
491
538
470
429
482
287
-76
-70
58
-301
-849
-1014
-824
-537
-376
-377
-224
468
1605
2049
718
-1147
-1542
-1032
-868
-635
-448
-563
636
2757
2312
-551
-1818
-801
95
309
472
483
357
304
226
65
-148
-351
-426
-532
-890
-1254
-1347
-1282
-1157
-939
-719
-608
-574
-537
-466
-405
-444
-618
-771
-707
-559
-555
-544
-234
660
2191
3189
2309
901
1475
3169
2942
724
-795
-712
-438
-562
-478
-183
-77
-71
-1
100
215
294
319
398
532
553
359
24
-197
-103
38
-239
-795
-1106
-1137
-1184
-1204
-1059
-874
-781
-772
-760
-613
-355
-241
-446
-633
-279
389
1126
2571
3765
2258
-306
277
2554
2108
-45
-671
-351
-419
-335
-129
-337
-483
-402
-646
-982
-860
-606
-682
-863
-795
-589
-547
-605
-566
-563
-563
-233
235
449
649
915
733
156
-124
-41
-176
-535
-496
-173
-30
733
2394
2810
1048
-382
435
2366
3181
1808
-374
-1197
-859
-832
-1185
-1330
-1234
-1035
-801
-466
-27
175
105
185
388
403
351
404
457
436
314
96
-169
-605
-1234
-1670
-1703
-1553
-1328
-1093
-953
-605
-23
183
304
942
1063
471
1204
2817
2290
191
-417
409
1162
1893
2084
737
-916
-1227
-855
-890
-1065
-984
-816
-749
-871
-1162
-1328
-1081
-520
-15
126
-103
-339
-243
61
294
406
401
216
-89
-291
-257
-135
-24
76
-240
-857
-188
2168
3507
2061
-16
-542
-384
-714
-988
-772
-615
-694
-469
407
1778
2808
2232
262
-1078
-940
-532
-544
-551
-424
-285
-121
-106
-354
-578
-554
-389
-204
-34
51
61
98
110
-20
-189
-348
-649
-901
-792
-598
-446
-50
49
-362
310
2316
3072
1653
256
122
366
316
112
-102
-307
-369
-152
288
1096
2254
2418
658
-1175
-1214
-623
-962
-1660
-1738
-1337
-990
-839
-737
-621
-561
-535
-445
-346
-302
-164
13
-31
-36
219
181
32
887
2250
2467
1584
768
338
40
-282
-606
-711
-556
-411
-454
-639
-793
-725
-543
-505
-465
-147
567
1986
3615
3549
1370
-548
-818
-614
-727
-776
-755
-859
-907
-781
-577
-382
-232
-160
-163
-95
41
-32
-170
-2
316
929
2017
2202
675
-656
-546
-178
-128
146
441
305
-93
-384
-396
-317
-385
-506
-670
-998
-1226
-1100
-868
-748
-332
1010
2607
2432
211
-1636
-1737
-1149
-681
-387
-595
-1062
-997
-557
-413
-448
-343
-237
-42
394
697
1024
2012
2727
1825
383
-3
88
-266
-670
-720
-610
-424
-133
6
-238
-536
-482
-326
-413
-407
59
650
901
793
496
226
214
698
1957
3339
2974
617
-1327
-1587
-1460
-1733
-1809
-1437
-897
-303
331
767
749
514
227
-449
-686
966
2905
2167
-174
-1048
-587
-360
-335
-242
-246
-124
116
126
42
30
-98
-298
-411
-596
-904
-1110
-1140
-1053
-833
-627
-691
-894
-850
-319
972
2581
2668
634
-1116
-999
-494
-623
-658
-593
-878
-1032
-868
-692
183
2179
3564
2783
1086
381
498
481
323
204
11
-129
-120
-150
-252
-349
-475
-543
-426
-260
-170
30
403
558
290
-13
-126
-280
-488
-624
-868
-1134
-1065
-570
634
2340
2620
618
-1225
-1146
-583
-670
-709
-474
-446
-344
328
831
196
-648
-228
699
647
77
-18
55
-79
-41
222
260
99
137
360
526
606
482
9
-452
-492
-415
-634
-988
-1219
-1259
-1083
-876
-808
-728
-647
-749
-841
-522
604
2327
2895
1141
-967
-1205
-247
474
907
1680
2869
3108
1315
-776
-1147
-647
-551
-480
-230
-233
-339
-277
-228
-200
-64
3
-79
-93
-52
-76
-24
80
-2
-139
-107
-48
-54
-41
-132
-424
-714
-874
-898
-710
-493
-485
-323
277
1169
2483
3198
1381
-873
370
2455
1041
-476
1131
1739
-394
-1415
-662
-404
-481
-269
-277
-308
-61
105
131
116
-45
-232
-337
-528
-780
-899
-898
-871
-798
-638
-432
-310
-340
-402
-359
-262
-195
-137
-149
-299
-382
-303
-335
-471
-456
-125
1120
2928
3005
1506
1762
3057
1476
-1657
-2452
-1666
-1432
-1285
-860
-697
-610
-371
-246
-203
-73
52
122
155
84
-4
75
191
136
95
220
267
200
263
305
106
-57
26
179
267
207
-38
-264
-311
-212
-12
92
-54
-186
39
916
2359
2965
1536
-563
-1532
-1707
-1654
-1004
-118
234
298
527
670
496
249
149
122
47
-49
-84
-92
-180
-330
-390
-333
-299
-335
-360
-366
-393
-406
-392
-385
-362
-305
-243
-187
-217
-461
-790
-928
-893
-789
-578
-407
-350
75
1298
2995
4011
2977
328
-1440
-1259
-673
-650
-625
-447
-445
-548
-603
-611
-546
-375
-65
307
535
593
608
586
566
683
860
854
607
338
234
98
-258
-511
-405
-227
-144
4
162
156
-1
-208
-346
-410
-530
-583
-518
-791
-1084
-20
2089
2773
1143
-821
-1333
-688
-18
205
146
-14
-97
116
465
596
559
501
318
152
281
425
239
26
87
116
-159
-503
-591
-363
2
225
179
11
-134
-298
-457
-470
-400
-389
-335
-165
48
336
595
698
915
1025
100
-1303
-1024
1008
1906
277
-1627
-1842
-1265
-1036
-885
-622
-504
-460
-345
-165
113
438
713
930
973
834
825
1012
1074
936
657
124
-426
-529
-309
-156
-81
-36
-125
-331
-524
-580
-516
-558
-734
-903
-1122
-1147
-932
-1383
-1801
71
2555
1974
287
1069
2083
669
-967
-964
-508
-349
-195
-149
-225
-249
-336
-414
-201
97
67
-181
-263
-130
-20
-29
-55
-47
-58
-73
-15
69
65
-4
-47
-52
-63
-149
-276
-269
-126
109
572
1004
1261
2176
3232
1983
-1025
-2220
-1304
-778
-676
407
2027
2580
1386
-274
-699
-264
-217
-387
-251
-35
106
210
247
296
289
55
-303
-658
-941
-915
-583
-338
-305
-261
-157
-73
12
77
68
40
49
100
263
442
342
239
677
921
-96
-1372
-1388
-734
-441
-265
-62
2
315
1018
1794
2333
1891
291
-992
-1057
-837
-909
-876
-777
-896
-1082
-1144
-1110
-1070
-1106
-1130
-936
-546
-195
31
183
224
140
58
49
86
275
648
864
790
1092
2292
3389
2687
396
-1237
-1180
-733
-794
-818
-583
-485
-430
-158
24
-43
52
555
1586
2982
3289
1578
-275
-465
25
21
-90
-61
-164
-342
-465
-582
-724
-942
-1152
-1091
-781
-488
-231
-12
21
-81
-256
-356
190
880
-30
-2017
-2426
-1206
-475
-366
9
228
-1
-51
210
321
169
8
-2
63
8
-285
-677
-908
-650
626
2546
3106
1487
-159
-353
-290
-689
-852
-797
-936
-953
-680
-445
-255
29
253
399
474
325
419
1115
1580
1709
2290
2140
115
-1632
-1369
-554
-334
-207
-105
-281
-482
-516
-418
-203
-16
-12
-132
-270
-335
-270
-229
-316
-237
126
636
1683
2993
2706
539
-982
-796
-451
-548
-513
-431
-445
-436
-421
-190
51
-140
84
754
31
-1073
116
1481
258
-1035
-439
109
-39
122
262
-20
-274
-344
-254
6
168
145
148
165
38
-222
-501
-699
-761
-660
-469
-401
-511
-581
-253
876
2246
2044
-3
-1544
-1391
-936
-913
-748
-498
-365
-66
134
222
1296
3021
3031
1004
-534
-444
0
-28
-159
-71
154
244
76
-151
-298
-455
-589
-543
-335
-131
13
158
237
85
-176
-230
-161
-369
-777
-873
-633
-555
-745
-876
-648
455
2450
3467
1906
-449
-1130
-708
-622
-692
-522
-231
194
584
421
-432
-1332
-1511
-1022
-413
149
583
595
258
3
-9
82
205
353
427
358
249
200
142
32
-16
-32
-196
-419
-580
-818
-964
-871
-1022
-1032
195
1554
1281
571
1014
1881
2856
4168
3983
1144
-1917
-3028
-3102
-3102
-2421
-947
282
554
227
80
358
653
649
538
546
552
414
229
106
84
251
543
642
388
-75
-627
-1068
-1016
-504
-16
280
461
409
189
53
-108
-423
-661
-757
-828
-784
-697
-761
-752
-413
459
2089
3244
2215
464
465
858
-350
-1514
-1060
-226
27
159
294
234
113
34
23
133
234
196
133
122
85
8
-90
-245
-412
-452
-329
-178
-120
-128
-150
-220
-325
-402
-456
-525
-649
-862
-1028
-1006
-926
-854
-685
-615
-811
-958
-729
251
2122
3343
2187
14
-709
-256
-95
-269
-379
-477
-517
-452
-427
-470
-497
-446
-296
-130
12
184
295
221
118
160
262
319
361
382
314
134
-63
-104
38
183
225
236
265
304
319
198
47
125
166
-102
-506
-1517
-2771
-1601
1811
3361
3316
4944
5657
2511
-528
-359
491
21
