# session 41
-50
-72
-35
31
-41
-237
-322
-285
-287
-309
-293
-286
-292
-277
-269
-280
-278
-262
-249
-243
-250
-259
-246
-231
-236
-230
-218
-241
-268
-238
-181
-145
-117
-99
-114
-154
-178
-171
-165
-191
-196
-153
-151
-172
-140
-167
-247
-75
597
1769
2750
2274
536
-512
-254
27
-131
-163
-77
-110
-126
-82
-66
-46
-20
-20
-2
49
85
103
131
169
209
255
304
349
390
433
478
515
530
527
518
483
389
258
142
34
-85
-179
-227
-267
-309
-328
-329
-331
-329
-318
-304
-291
-274
-257
-257
-266
-263
-257
-258
-253
-243
-247
-256
-256
-261
-269
-256
-230
-220
-229
-236
-232
-221
-216
-216
-209
-201
-201
-199
-189
-182
-176
-168
-186
-220
-206
-139
-84
-62
-56
-72
-101
-118
-128
-134
-132
-130
-131
-136
-120
-76
-102
-191
-93
458
1555
2658
2474
835
-423
-303
41
-86
-142
-38
-63
-87
-29
-20
-29
5
30
36
67
109
123
130
180
251
286
301
345
410
461
494
517
532
540
530
483
405
311
195
65
-50
-144
-215
-258
-289
-321
-334
-315
-297
-296
-294
-283
-274
-266
-259
-259
-259
-256
-267
-279
-264
-254
-276
-279
-252
-246
-262
-261
-252
-253
-249
-242
-235
-231
-240
-243
-217
-197
-205
-207
-194
-192
-205
-214
-206
-168
-114
-84
-96
-114
-126
-143
-142
-134
-159
-170
-141
-143
-149
-118
-164
-228
-7
710
1888
2741
2058
304
-556
-198
42
-126
-136
-58
-90
-94
-52
-39
-23
0
9
27
56
83
116
150
180
222
269
310
354
407
454
482
499
523
537
506
438
367
278
155
27
-84
-174
-237
-273
-297
-319
-331
-322
-310
-306
-294
-286
-300
-298
-272
-266
-279
-275
-268
-272
-269
-263
-269
-270
-258
-254
-260
-255
-246
-251
-254
-245
-234
-224
-219
-233
-241
-217
-175
-134
-107
-116
-144
-155
-155
-166
-183
-190
-176
-165
-172
-153
-134
-192
-214
57
902
2238
2883
1687
-172
-678
-166
-24
-165
-107
-69
-114
-81
-50
-51
-16
6
7
47
95
114
134
168
214
265
298
332
390
441
465
486
512
527
525
496
428
318
186
70
-27
-130
-214
-256
-289
-327
-337
-324
-314
-306
-297
-290
-277
-267
-270
-271
-264
-260
-264
-268
-266
-262
-264
-265
-259
-257
-260
-257
-257
-258
-245
-230
-230
-233
-233
-241
-251
-248
-226
-185
-133
-108
-124
-143
-152
-176
-189
-175
-166
-172
-184
-185
-141
-131
-220
-201
230
1257
2507
2686
1200
-327
-446
-30
-71
-166
-75
-92
-142
-82
-46
-61
-37
7
27
39
64
96
125
158
207
245
274
327
391
431
466
499
502
501
516
488
394
284
176
61
-49
-145
-223
-272
-298
-318
-332
-335
-326
-308
-291
-281
-275
-272
-271
-272
-277
-276
-266
-262
-271
-273
-276
-287
-279
-255
-251
-262
-257
-242
-235
-233
-241
-260
-264
-228
-179
-152
-131
-107
-125
-182
-196
-165
-167
-189
-168
-159
-180
-156
-149
-228
-181
304
1389
2575
2522
917
-436
-386
-6
-99
-173
-76
-93
-137
-96
-68
-63
-38
-17
-7
22
70
108
129
157
199
239
280
326
373
419
455
464
465
487
497
444
343
236
131
29
-63
-152
-222
-264
-297
-318
-308
-294
-298
-293
-276
-277
-289
-277
-249
-234
-244
-255
-246
-241
-259
-266
-252
-254
-263
-251
-240
-242
-231
-219
-231
-246
-248
-251
-247
-218
-172
-135
-117
-115
-134
-171
-188
-170
-172
-183
-164
-163
-185
-149
-143
-220
-143
381
1470
2577
2390
756
-493
-374
-4
-90
-161
-93
-103
-115
-81
-66
-42
-14
-13
5
45
63
75
117
165
199
238
286
331
374
409
438
466
480
473
462
431
349
238
124
9
-91
-161
-214
-262
-293
-299
-295
-296
-297
-292
-290
-288
-276
-268
-273
-274
-270
-271
-265
-259
-261
-262
-261
-264
-263
-255
-251
-250
-247
-240
-238
-252
-264
-254
-225
-182
-132
-107
-127
-167
-179
-167
-179
-206
-181
-150
-189
-188
-123
-179
-277
-77
618
1805
2752
2152
348
-616
-272
17
-139
-167
-91
-108
-96
-53
-55
-57
-37
-11
22
48
75
116
151
170
198
246
298
342
382
416
438
454
470
477
460
404
311
213
120
9
-101
-178
-237
-285
-300
-296
-307
-322
-313
-297
-292
-280
-255
-252
-270
-276
-270
-274
-279
-278
-287
-293
-270
-246
-256
-267
-257
-251
-249
-244
-245
-247
-234
-210
-180
-145
-128
-150
-190
-208
-199
-193
-188
-174
-177
-179
-152
-171
-230
-141
373
1544
2766
2493
638
-663
-437
-23
-119
-157
-71
-107
-119
-68
-71
-65
-13
10
13
40
78
118
158
183
207
251
303
337
369
423
466
464
461
482
460
381
306
224
98
-16
-94
-175
-249
-287
-300
-301
-303
-315
-308
-281
-275
-282
-264
-243
-253
-260
-248
-255
-280
-272
-247
-249
-258
-257
-266
-272
-253
-240
-253
-256
-236
-228
-241
-250
-247
-238
-211
-170
-140
-128
-141
-178
-185
-157
-161
-187
-178
-169
-170
-138
-158
-246
-155
383
1488
2645
2524
877
-448
-357
25
-82
-171
-85
-87
-105
-68
-61
-53
-17
-1
7
40
83
120
149
169
202
258
310
336
366
419
461
474
489
502
483
436
364
255
124
15
-66
-145
-214
-246
-258
-277
-298
-302
-285
-270
-276
-279
-259
-252
-277
-280
-247
-236
-258
-272
-272
-270
-263
-259
-266
-262
-249
-246
-248
-241
-234
-231
-226
-222
-230
-245
-244
-225
-211
-192
-142
-97
-103
-132
-152
-159
-156
-164
-179
-163
-141
-150
-138
-128
-196
-207
98
915
2121
2683
1623
-18
-490
-96
-23
-166
-105
-57
-105
-95
-59
-39
-14
-3
4
35
65
89
122
156
184
214
257
313
365
403
432
453
464
469
470
456
403
314
205
87
-19
-93
-154
-207
-234
-254
-283
-289
-259
-242
-259
-272
-256
-235
-226
-227
-250
-278
-257
-217
-226
-251
-242
-234
-247
-246
-234
-231
-228
-221
-222
-223
-220
-228
-235
-213
-186
-183
-186
-177
-173
-183
-198
-208
-206
-178
-121
-71
-62
-87
-116
-135
-138
-129
-130
-135
-135
-143
-127
-92
-140
-199
-6
654
1804
2707
2128
420
-498
-197
58
-94
-124
-62
-95
-97
-57
-62
-66
-30
15
50
74
91
111
139
180
219
253
290
320
350
402
455
468
457
459
461
431
364
260
136
34
-40
-118
-203
-259
-278
-281
-286
-298
-307
-290
-269
-281
-288
-256
-243
-267
-268
-250
-263
-285
-279
-266
-268
-281
-282
-263
-247
-250
-245
-228
-224
-231
-224
-207
-202
-211
-211
-209
-223
-222
-194
-191
-192
-134
-80
-93
-114
-114
-136
-157
-157
-149
-132
-140
-167
-135
-118
-194
-153
307
1357
2580
2622
987
-522
-510
-21
-51
-146
-58
-66
-101
-47
-19
-35
-23
14
52
84
109
127
151
186
223
258
299
341
371
400
434
456
462
461
455
431
363
254
152
64
-37
-137
-211
-265
-290
-280
-279
-300
-298
-270
-255
-261
-264
-258
-250
-244
-245
-246
-242
-238
-248
-260
-250
-241
-260
-271
-250
-244
-256
-231
-198
-216
-236
-215
-202
-216
-213
-198
-194
-194
-195
-202
-199
-185
-164
-125
-78
-70
-100
-125
-133
-142
-154
-150
-135
-144
-151
-108
-108
-197
-148
304
1292
2471
2633
1209
-256
-380
-1
-63
-163
-68
-74
-118
-62
-33
-46
-22
6
24
58
80
87
116
159
204
255
295
321
366
417
439
451
472
486
481
449
377
287
192
80
-40
-136
-199
-236
-262
-286
-290
-278
-274
-275
-272
-270
-271
-268
-260
-247
-243
-256
-264
-256
-253
-255
-248
-246
-258
-265
-260
-249
-236
-235
-245
-242
-224
-213
-208
-206
-210
-209
-200
-196
-203
-213
-210
-192
-167
-127
-76
-65
-107
-138
-131
-130
-152
-160
-136
-125
-143
-124
-101
-178
-216
82
896
2070
2633
1630
10
-489
-86
19
-128
-87
-41
-87
-74
-36
-32
-24
-3
29
66
86
105
139
172
200
240
277
299
329
381
421
435
457
478
468
439
398
317
214
121
25
-73
-148
-206
-251
-265
-267
-279
-284
-269
-257
-257
-251
-238
-240
-250
-247
-240
-238
-235
-240
-249
-246
-237
-237
-240
-244
-242
-228
-215
-218
-223
-213
-203
-215
-220
-194
-178
-195
-196
-174
-178
-199
-200
-190
-175
-138
-80
-44
-64
-110
-131
-123
-115
-133
-159
-148
-124
-124
-105
-96
-163
-154
217
1138
2289
2497
1171
-265
-426
-19
-10
-119
-72
-64
-78
-43
-40
-43
0
25
22
44
85
116
143
167
189
222
271
312
339
374
412
423
426
447
452
418
373
303
182
68
0
-73
-164
-216
-233
-260
-281
-277
-271
-270
-263
-260
-255
-242
-251
-276
-265
-230
-227
-245
-245
-236
-239
-253
-254
-240
-245
-265
-250
-214
-216
-231
-219
-209
-220
-218
-195
-187
-194
-198
-213
-234
-211
-147
-97
-78
-80
-103
-130
-148
-152
-149
-150
-147
-145
-152
-128
-111
-181
-190
153
1035
2211
2588
1389
-168
-497
-77
-7
-129
-90
-74
-104
-68
-39
-41
-15
13
18
25
56
104
151
179
200
231
270
312
356
392
409
417
437
451
442
432
407
320
191
84
-1
-90
-175
-235
-271
-295
-307
-298
-286
-291
-293
-269
-251
-258
-260
-249
-255
-273
-266
-249
-263
-284
-271
-257
-268
-274
-255
-241
-238
-232
-221
-215
-221
-230
-230
-222
-220
-229
-221
-175
-131
-114
-103
-111
-153
-173
-160
-167
-177
-164
-173
-175
-134
-153
-219
-81
583
1864
2847
2115
200
-717
-295
1
-145
-137
-61
-106
-94
-46
-57
-38
18
34
43
84
120
141
171
206
236
273
308
336
387
446
459
449
468
489
469
404
311
207
107
-1
-111
-189
-232
-275
-318
-327
-306
-295
-299
-289
-273
-277
-284
-269
-258
-270
-273
-262
-269
-274
-256
-256
-277
-273
-259
-264
-262
-242
-236
-239
-230
-225
-236
-245
-243
-231
-212
-191
-155
-113
-108
-140
-167
-172
-172
-175
-165
-150
-174
-190
-146
-159
-226
-61
634
1881
2822
2131
286
-627
-247
13
-151
-134
-43
-99
-111
-62
-61
-45
-2
13
27
66
96
120
160
198
219
249
301
350
384
414
438
455
476
486
454
387
303
193
71
-26
-99
-167
-232
-288
-308
-287
-281
-306
-307
-281
-273
-274
-262
-255
-256
-247
-238
-247
-262
-271
-276
-271
-252
-238
-248
-262
-250
-229
-235
-254
-247
-229
-237
-252
-241
-219
-195
-153
-114
-121
-153
-166
-162
-165
-181
-188
-165
-152
-169
-153
-130
-197
-222
109
1024
2247
2625
1404
-150
-479
-82
-29
-154
-115
-92
-112
-79
-60
-60
-29
2
19
45
71
92
115
144
180
226
275
317
350
387
422
443
458
467
449
411
360
273
158
52
-49
-152
-216
-236
-262
-295
-292
-284
-305
-308
-271
-248
-255
-264
-265
-249
-231
-246
-267
-252
-226
-232
-254
-254
-234
-234
-254
-252
-237
-238
-233
-219
-229
-252
-251
-221
-172
-122
-100
-115
-153
-183
-177
-164
-176
-173
-148
-168
-185
-145
-165
-235
-87
506
1600
2564
2143
481
-535
-279
5
-142
-157
-49
-78
-105
-55
-34
-34
-15
8
27
46
73
113
146
169
201
241
289
342
378
394
420
451
460
447
427
391
318
210
93
-9
-98
-174
-223
-258
-303
-332
-315
-289
-292
-296
-285
-277
-270
-260
-261
-271
-269
-263
-261
-260
-267
-277
-263
-244
-256
-271
-254
-241
-256
-260
-248
-255
-263
-236
-191
-157
-135
-138
-172
-201
-198
-190
-195
-186
-177
-197
-185
-143
-183
-239
-60
606
1839
2784
2066
198
-693
-284
-4
-154
-146
-65
-111
-114
-66
-54
-34
-10
-13
9
65
96
115
158
199
227
271
317
352
390
431
456
475
493
489
457
401
298
158
45
-29
-113
-199
-253
-294
-325
-317
-297
-311
-329
-299
-265
-277
-291
-271
-261
-272
-272
-264
-261
-254
-249
-257
-263
-262
-259
-257
-260
-264
-259
-242
-240
-247
-217
-160
-140
-166
-191
-198
-194
-190
-191
-193
-199
-180
-141
-173
-236
-87
559
1838
2940
2322
298
-808
-397
-23
-154
-139
-47
-112
-109
-33
-40
-52
-4
33
41
59
103
152
187
212
255
314
365
403
445
485
506
513
525
526
476
381
281
176
41
-93
-182
-242
-302
-348
-363
-365
-366
-362
-355
-349
-338
-319
-301
-294
-295
-301
-300
-292
-296
-308
-303
-291
-301
-316
-309
-290
-289
-303
-306
-305
-299
-259
-207
-196
-218
-243
-262
-259
-244
-235
-232
-241
-238
-206
-243
-316
-163
482
1756
2947
2498
522
-708
-404
-45
-199
-232
-138
-174
-188
-138
-123
-117
-96
-72
-34
1
19
43
85
138
193
243
284
325
378
430
460
473
490
491
448
361
242
110
1
-90
-181
-257
-301
-333
-358
-362
-350
-344
-339
-321
-303
-293
-281
-267
-264
-266
-258
-244
-231
-228
-241
-246
-231
-225
-231
-223
-207
-201
-204
-218
-225
-205
-179
-153
-111
-77
-79
-104
-120
-111
-102
-113
-103
-84
-109
-103
-50
-108
-176
110
967
2276
3061
2139
308
-437
-78
78
-58
-23
17
-25
6
39
21
42
84
98
120
161
188
213
253
291
331
391
447
484
523
573
607
609
598
593
562
464
333
216
102
-12
-105
-172
-221
-256
-280
-287
-277
-267
-274
-283
-274
-256
-245
-247
-261
-276
-274
-266
-274
-286
-286
-288
-304
-324
-329
-314
-303
-306
-307
-310
-324
-329
-324
-321
-317
-320
-335
-337
-319
-309
-319
-332
-333
-318
-311
-329
-338
-323
-332
-363
-357
-315
-277
-246
-227
-238
-265
-294
-312
-301
-293
-304
-292
-289
-311
-278
-261
-356
-306
199
1225
2380
2518
1112
-328
-461
-104
-172
-282
-202
-189
-201
-149
-129
-131
-93
-49
-25
-8
22
80
140
173
206
262
321
374
431
493
552
597
626
657
684
671
608
524
430
329
240
174
115
72
65
75
75
86
127
