# session 30
-14
-55
57
34
-381
-827
-880
-750
-765
-789
-694
-681
-776
-687
-144
1078
2507
2489
549
-1106
-1014
-487
-533
-586
-460
-461
-464
-382
-363
-367
-315
-266
-236
-195
-155
-116
-61
-7
42
101
161
212
273
336
378
409
437
441
424
397
337
235
126
30
-68
-156
-214
-249
-276
-288
-280
-270
-264
-251
-229
-215
-212
-206
-196
-191
-191
-188
-183
-180
-183
-190
-193
-187
-181
-179
-175
-170
-170
-169
-163
-167
-180
-180
-163
-142
-113
-76
-58
-76
-106
-109
-97
-107
-110
-89
-103
-113
-63
-99
-218
-95
523
1760
3103
2989
1077
-476
-405
-13
-137
-202
-105
-136
-157
-100
-90
-89
-56
-38
-22
11
37
59
93
133
178
229
282
337
397
452
491
517
532
534
518
474
387
270
153
39
-74
-171
-240
-287
-319
-339
-344
-337
-330
-329
-322
-310
-303
-299
-292
-286
-284
-287
-289
-290
-293
-298
-300
-295
-293
-296
-295
-287
-280
-275
-267
-261
-263
-275
-283
-278
-262
-239
-203
-166
-153
-166
-187
-196
-188
-186
-189
-171
-167
-185
-149
-141
-254
-237
228
1270
2600
2990
1586
-170
-525
-112
-104
-233
-157
-139
-177
-132
-103
-108
-80
-53
-39
-7
30
56
88
127
166
213
269
325
380
433
473
498
515
526
525
496
429
332
225
116
9
-83
-150
-197
-234
-257
-264
-263
-261
-259
-253
-244
-236
-230
-229
-228
-225
-219
-217
-218
-221
-222
-221
-219
-222
-224
-218
-214
-214
-208
-199
-196
-196
-190
-184
-181
-177
-174
-168
-160
-158
-158
-153
-146
-143
-140
-135
-133
-131
-126
-120
-117
-117
-113
-107
-112
-129
-137
-128
-109
-77
-34
-3
-6
-38
-69
-75
-75
-90
-89
-73
-94
-91
-49
-119
-209
27
770
1993
2985
2442
623
-455
-231
2
-157
-177
-106
-141
-138
-96
-100
-92
-56
-39
-25
2
29
59
99
134
157
190
243
298
345
384
413
433
454
468
462
440
397
322
225
127
32
-58
-134
-196
-243
-266
-262
-258
-272
-287
-279
-263
-264
-270
-261
-249
-254
-264
-263
-257
-262
-277
-290
-292
-288
-282
-272
-264
-265
-266
-253
-239
-241
-248
-244
-236
-231
-222
-215
-220
-220
-218
-226
-225
-197
-159
-124
-93
-88
-118
-155
-168
-163
-165
-166
-148
-153
-168
-134
-138
-218
-152
322
1423
2779
2886
1131
-531
-569
-92
-143
-233
-130
-135
-159
-97
-78
-92
-60
-25
-9
16
49
79
108
138
177
222
268
317
369
417
456
479
486
496
508
482
413
334
246
126
-2
-101
-170
-222
-261
-293
-303
-288
-276
-274
-266
-261
-264
-258
-250
-255
-249
-231
-236
-258
-260
-247
-252
-266
-260
-247
-248
-253
-245
-237
-243
-246
-230
-214
-214
-224
-227
-224
-212
-188
-164
-138
-107
-96
-124
-160
-170
-166
-170
-169
-163
-173
-159
-118
-161
-219
-23
665
1960
3071
2442
365
-808
-434
-66
-201
-195
-94
-135
-134
-74
-75
-75
-39
-10
15
44
68
98
133
171
217
261
304
354
406
451
487
502
508
518
504
437
343
248
144
35
-64
-153
-228
-275
-295
-309
-319
-312
-298
-293
-286
-272
-269
-269
-258
-255
-264
-264
-259
-268
-280
-280
-277
-280
-283
-283
-281
-278
-275
-268
-259
-254
-255
-257
-261
-266
-266
-251
-218
-175
-142
-137
-156
-184
-196
-183
-184
-200
-185
-174
-192
-166
-156
-252
-242
172
1202
2652
3162
1680
-242
-627
-149
-120
-251
-160
-138
-181
-132
-101
-111
-80
-41
-23
3
37
66
100
140
182
227
276
333
396
451
495
529
549
557
552
516
439
336
220
101
-9
-106
-189
-247
-280
-300
-314
-316
-306
-294
-287
-282
-273
-266
-262
-258
-254
-255
-258
-258
-261
-264
-264
-262
-265
-267
-266
-261
-255
-251
-248
-243
-237
-232
-238
-255
-263
-242
-201
-161
-130
-119
-134
-162
-176
-169
-169
-180
-164
-150
-174
-155
-120
-214
-268
71
975
2318
3088
2074
160
-586
-203
-62
-219
-181
-129
-174
-152
-111
-114
-96
-66
-50
-25
4
28
61
102
140
182
237
299
359
414
461
494
515
523
519
493
434
338
222
105
-4
-103
-185
-244
-285
-308
-318
-318
-315
-313
-308
-300
-293
-287
-279
-275
-275
-271
-266
-269
-274
-273
-273
-273
-272
-270
-267
-263
-258
-251
-247
-245
-240
-230
-228
-238
-247
-243
-224
-187
-138
-100
-97
-121
-149
-162
-155
-153
-160
-146
-144
-165
-134
-115
-217
-222
201
1203
2510
2932
1595
-143
-529
-113
-79
-211
-145
-123
-161
-121
-87
-90
-68
-40
-25
-2
26
56
90
123
159
203
250
304
364
416
449
471
488
497
490
459
397
307
201
92
-11
-104
-183
-238
-271
-290
-299
-299
-293
-288
-283
-275
-266
-259
-258
-260
-259
-252
-250
-255
-258
-258
-258
-260
-263
-260
-253
-246
-244
-244
-238
-233
-227
-220
-220
-235
-248
-236
-197
-150
-111
-94
-106
-138
-165
-162
-148
-156
-156
-141
-153
-150
-107
-152
-237
-56
639
1898
2954
2402
512
-592
-313
-26
-178
-195
-108
-138
-144
-98
-82
-68
-51
-49
-27
13
44
73
101
129
170
221
265
308
355
395
423
447
461
451
424
389
326
230
133
43
-55
-146
-209
-252
-281
-295
-310
-326
-321
-294
-282
-293
-295
-280
-273
-278
-279
-275
-277
-279
-279
-284
-284
-269
-254
-260
-274
-271
-256
-253
-256
-253
-253
-255
-236
-202
-175
-150
-127
-136
-172
-185
-172
-180
-197
-176
-162
-188
-171
-146
-207
-211
119
1096
2581
3135
1619
-369
-748
-192
-105
-224
-133
-114
-161
-110
-80
-91
-57
-20
-10
20
63
88
108
145
185
220
267
325
376
421
462
487
495
495
480
442
385
306
204
97
-5
-105
-190
-242
-269
-287
-299
-304
-298
-284
-273
-267
-261
-254
-255
-261
-267
-270
-265
-254
-257
-277
-286
-277
-273
-276
-271
-265
-260
-248
-242
-259
-265
-245
-233
-228
-192
-141
-133
-170
-198
-191
-190
-205
-192
-175
-197
-184
-146
-207
-248
26
894
2335
3179
2029
-76
-825
-319
-102
-243
-197
-141
-176
-144
-107
-114
-83
-39
-26
-12
15
44
86
135
169
199
246
306
367
423
460
478
496
509
499
460
396
306
194
79
-21
-104
-180
-249
-291
-304
-308
-308
-296
-285
-279
-270
-259
-254
-255
-255
-256
-259
-258
-251
-250
-263
-272
-269
-268
-276
-277
-271
-268
-270
-274
-283
-287
-276
-259
-238
-208
-176
-161
-173
-193
-190
-182
-197
-195
-175
-199
-200
-142
-188
-282
-94
634
1996
3198
2640
565
-657
-356
-53
-216
-219
-131
-179
-178
-126
-130
-118
-79
-65
-48
-14
14
41
76
116
162
213
265
325
388
439
475
497
511
515
498
442
345
229
113
2
-98
-179
-242
-287
-313
-323
-323
-317
-309
-301
-292
-284
-278
-271
-268
-270
-267
-261
-262
-268
-272
-272
-270
-266
-263
-264
-264
-258
-258
-270
-275
-260
-242
-223
-186
-152
-149
-171
-191
-190
-185
-197
-191
-169
-186
-183
-129
-186
-298
-108
619
1918
3080
2640
708
-542
-335
-41
-197
-228
-145
-178
-179
-128
-126
-117
-80
-61
-43
-12
15
45
85
126
170
221
276
335
394
442
476
497
508
507
488
434
340
224
110
1
-100
-180
-234
-274
-301
-312
-310
-305
-299
-292
-283
-275
-268
-264
-262
-262
-260
-256
-253
-256
-260
-260
-256
-253
-253
-253
-247
-243
-243
-240
-232
-227
-225
-220
-220
-234
-248
-243
-222
-195
-162
-128
-113
-131
-158
-160
-148
-157
-158
-137
-152
-158
-104
-140
-252
-98
554
1727
2854
2596
836
-468
-348
-22
-150
-201
-117
-146
-156
-104
-95
-91
-58
-41
-25
6
33
62
97
131
173
222
268
316
370
418
450
469
478
480
472
436
364
267
162
61
-35
-125
-194
-236
-261
-274
-275
-267
-259
-258
-258
-256
-254
-252
-249
-246
-246
-245
-244
-248
-254
-257
-260
-261
-259
-254
-247
-236
-230
-233
-235
-223
-210
-207
-205
-207
-224
-237
-226
-208
-187
-145
-105
-103
-128
-148
-150
-144
-147
-141
-132
-154
-148
-97
-146
-238
-44
664
1901
2940
2409
537
-580
-314
-25
-175
-190
-107
-150
-156
-103
-101
-100
-66
-44
-27
-2
23
52
86
120
156
196
239
290
338
376
403
421
430
432
424
391
325
235
140
45
-54
-141
-198
-237
-270
-288
-291
-289
-280
-272
-275
-276
-265
-257
-260
-262
-264
-272
-275
-269
-265
-264
-264
-264
-267
-267
-258
-247
-244
-246
-242
-237
-243
-246
-235
-225
-218
-188
-145
-126
-145
-172
-178
-172
-179
-175
-155
-164
-165
-127
-161
-235
-91
548
1848
3024
2475
440
-742
-396
-44
-188
-194
-96
-131
-130
-76
-78
-75
-40
-18
4
36
62
91
127
161
196
238
282
329
374
409
430
440
444
445
432
388
313
222
129
34
-58
-136
-194
-234
-259
-272
-276
-272
-264
-256
-250
-248
-247
-244
-242
-242
-244
-244
-246
-253
-256
-253
-254
-260
-259
-249
-243
-244
-244
-238
-231
-234
-247
-254
-245
-229
-202
-162
-132
-131
-152
-176
-181
-174
-177
-169
-154
-173
-169
-127
-181
-262
-52
700
2007
2997
2290
372
-610
-281
-43
-201
-196
-124
-165
-157
-111
-111
-95
-63
-51
-28
6
31
60
98
133
172
218
267
319
370
409
433
445
451
451
434
388
310
211
105
5
-84
-159
-216
-252
-271
-280
-282
-279
-274
-269
-260
-254
-254
-255
-251
-249
-253
-257
-258
-257
-259
-262
-264
-263
-260
-255
-249
-245
-241
-240
-237
-236
-244
-255
-250
-233
-211
-177
-140
-128
-144
-167
-171
-163
-167
-168
-153
-163
-169
-125
-150
-250
-144
451
1653
2856
2619
820
-514
-384
-33
-154
-211
-126
-150
-160
-108
-100
-96
-61
-40
-22
8
35
61
95
131
170
215
260
306
352
391
418
434
441
442
431
395
328
234
133
38
-52
-135
-197
-236
-256
-267
-270
-267
-264
-264
-262
-254
-248
-248
-249
-250
-251
-250
-251
-255
-259
-257
-257
-258
-255
-252
-250
-246
-241
-238
-238
-247
-256
-251
-234
-215
-183
-143
-125
-138
-160
-173
-170
-169
-170
-159
-162
-172
-135
-134
-231
-203
254
1336
2650
2810
1226
-366
-491
-72
-114
-217
-134
-136
-169
-122
-98
-100
-71
-46
-34
-7
27
55
84
115
152
195
239
284
330
368
391
402
410
414
405
375
324
247
154
58
-31
-115
-186
-234
-257
-267
-274
-269
-257
-254
-253
-244
-241
-248
-252
-249
-247
-246
-248
-253
-250
-243
-245
-253
-258
-254
-244
-236
-238
-249
-251
-233
-219
-220
-202
-157
-131
-148
-179
-187
-172
-165
-171
-177
-196
-196
-151
-159
-235
-172
309
1467
2803
2729
893
-614
-533
-96
-168
-226
-132
-157
-181
-127
-110
-104
-67
-53
-47
-14
23
49
75
109
155
201
234
268
315
354
369
379
397
410
400
365
301
216
126
31
-71
-154
-205
-241
-273
-296
-299
-282
-265
-265
-266
-259
-261
-266
-267
-269
-268
-255
-250
-267
-276
-268
-268
-277
-276
-275
-278
-266
-247
-232
-203
-168
-165
-197
-216
-203
-197
-212
-208
-201
-221
-199
-152
-202
-249
-23
761
2184
3154
2128
-22
-872
-363
-111
-251
-196
-135
-184
-144
-101
-122
-92
-39
-37
-25
22
59
88
127
167
209
258
302
345
389
423
443
464
476
464
429
363
264
158
59
-37
-123
-196
-253
-278
-273
-275
-286
-282
-268
-261
-259
-253
-246
-241
-239
-237
-237
-243
-250
-254
-255
-257
-252
-250
-265
-272
-246
-223
-229
-220
-178
-148
-163
-200
-216
-207
-206
-201
-188
-205
-208
-162
-192
-274
-152
433
1728
3112
2828
743
-718
-489
-89
-231
-259
-145
-180
-195
-138
-132
-132
-97
-72
-52
-26
-1
32
72
113
159
203
243
292
343
383
411
430
434
427
405
350
255
147
47
-51
-153
-238
-293
-327
-349
-356
-351
-340
-328
-323
-319
-311
-305
-306
-302
-296
-298
-301
-302
-306
-310
-309
-308
-310
-314
-324
-331
-319
-305
-296
-268
-227
-212
-230
-253
-257
-248
-253
-249
-229
-244
-248
-191
-223
-348
-248
366
1657
3075
2988
1052
-531
-483
-104
-230
-293
-195
-221
-235
-176
-166
-162
-124
-102
-85
-47
-12
17
55
99
146
202
262
324
383
430
463
489
507
513
495
437
344
235
121
10
-81
-153
-207
-241
-259
-268
-268
-258
-243
-230
-216
-201
-189
-181
-173
-167
-165
-164
-161
-160
-162
-160
-155
-153
-150
-146
-142
-143
-151
-156
-148
-131
-105
-66
-30
-20
-40
-66
-68
-57
-65
-62
-43
-63
-66
-12
-62
-181
-15
698
1996
3174
2775
869
-410
-232
66
-84
-122
-43
-80
-83
-31
-31
-27
7
21
35
67
92
112
145
184
223
268
317
366
412
450
474
486
490
485
456
388
286
167
48
-61
-161
-245
-306
-343
-370
-390
-400
-402
-402
-398
-392
-389
-386
-384
-387
-395
-401
-406
-413
-420
-426
-436
-445
-449
-452
-455
-457
-458
-458
-457
-457
-459
-461
-460
-457
-453
-452
-451
-450
-446
-441
-437
-437
-436
-430
-422
-418
-415
-410
-404
-399
-396
-401
-411
-414
-402
-372
-325
-278
-256
-264
-289
-308
-302
-295
-302
-287
-269
-282
-256
-217
-294
-333
-5
875
2205
2996
2059
233
-500
-161
-39
-188
-145
-85
-113
-78
-26
-14
21
66
95
133
178
217
262
313
363
420
481
544
608
671
724
768
806
834
853
863
847
795
716
628
539
456
387
334
300
285
283
289
299
307
317
330
342
351
359
366
371
373
375
373
370
365
359
353
345
339
336
331
324
318
310
295
280
270
258
243
229
212
183
149
121
98
75
50
21
-10
-43
-75
-109
-148
-193
-237
-279
-326
-375
-422
-470
-525
-587
-660
-734
-782
-797
-813
-861
-940
-1035
-1135
-1224
-1299
-1379
-1465
-1538
-1617
-1707
-1773
-1849
-1997
-2117
-1897
-1006
245
670
-250
