# session 31
-25
-44
-15
53
8
-164
-251
-204
-159
-134
-94
-83
-111
-143
-160
-158
-158
-169
-158
-150
-172
-154
-128
-208
-236
98
1000
2312
2915
1752
-39
-567
-159
-77
-221
-164
-128
-170
-138
-103
-111
-91
-58
-42
-21
8
36
67
101
135
176
223
271
321
375
426
462
478
483
485
474
433
356
253
143
38
-61
-148
-215
-262
-293
-308
-315
-317
-310
-294
-285
-284
-277
-260
-251
-257
-263
-259
-253
-253
-256
-259
-265
-266
-252
-244
-257
-264
-250
-240
-243
-238
-230
-230
-223
-207
-201
-206
-201
-187
-180
-185
-190
-195
-201
-195
-166
-123
-79
-54
-63
-104
-139
-139
-128
-139
-149
-140
-143
-132
-97
-133
-198
-62
515
1733
2945
2568
611
-683
-420
-30
-156
-187
-83
-115
-130
-69
-58
-65
-33
3
18
32
63
105
135
161
204
254
297
349
412
456
477
505
538
550
534
493
423
330
223
103
-17
-108
-179
-250
-303
-319
-309
-298
-300
-305
-297
-281
-274
-273
-273
-269
-259
-257
-264
-265
-264
-277
-290
-281
-269
-272
-274
-267
-261
-257
-250
-250
-255
-249
-230
-226
-242
-242
-207
-169
-145
-125
-131
-174
-204
-196
-184
-178
-175
-192
-184
-141
-178
-253
-107
506
1755
2986
2588
534
-839
-542
-79
-185
-214
-100
-121
-133
-84
-84
-75
-29
-14
-3
38
73
89
125
185
233
263
304
373
445
497
523
533
541
546
529
474
380
264
145
30
-86
-188
-251
-288
-322
-346
-341
-327
-326
-325
-312
-300
-297
-293
-283
-280
-281
-279
-279
-285
-286
-281
-279
-278
-274
-275
-275
-266
-257
-258
-262
-263
-259
-249
-234
-205
-170
-148
-148
-171
-199
-206
-206
-215
-203
-191
-209
-184
-152
-233
-261
87
1057
2522
3204
1871
-166
-733
-229
-108
-244
-168
-135
-184
-140
-103
-116
-92
-56
-39
-9
26
50
84
126
164
208
264
327
394
456
499
526
548
561
555
524
453
339
204
77
-36
-135
-215
-273
-311
-336
-345
-343
-333
-322
-313
-305
-294
-282
-275
-271
-268
-266
-267
-270
-273
-274
-277
-279
-273
-268
-271
-277
-276
-274
-276
-275
-266
-248
-212
-164
-140
-156
-190
-210
-203
-197
-204
-192
-181
-203
-181
-149
-244
-300
25
951
2396
3230
2131
112
-630
-219
-93
-255
-200
-150
-203
-181
-143
-148
-124
-91
-82
-61
-28
-2
32
77
123
169
222
286
358
428
482
519
546
563
563
530
452
341
215
84
-42
-148
-228
-286
-323
-340
-341
-335
-328
-322
-316
-307
-300
-295
-290
-285
-283
-281
-279
-281
-283
-282
-283
-286
-284
-280
-277
-276
-283
-295
-294
-278
-262
-236
-193
-162
-167
-193
-211
-205
-201
-219
-216
-202
-209
-179
-148
-242
-290
52
1000
2411
3148
2021
89
-587
-189
-74
-227
-181
-137
-178
-147
-108
-112
-90
-59
-49
-28
5
35
68
106
146
194
249
307
367
426
475
505
523
534
533
503
432
326
207
90
-20
-117
-189
-236
-269
-289
-297
-296
-292
-288
-282
-273
-264
-256
-250
-250
-251
-248
-243
-239
-238
-239
-241
-240
-238
-238
-244
-247
-241
-237
-240
-239
-233
-229
-228
-229
-239
-248
-238
-218
-190
-144
-100
-98
-136
-172
-178
-167
-169
-164
-144
-156
-160
-110
-141
-244
-103
519
1669
2799
2575
840
-477
-370
-28
-145
-201
-117
-143
-153
-96
-83
-82
-53
-34
-17
13
37
61
98
135
171
217
268
316
362
409
446
466
476
483
477
444
375
280
171
62
-38
-121
-187
-235
-263
-277
-279
-276
-274
-271
-265
-260
-255
-250
-247
-243
-238
-235
-241
-249
-252
-248
-248
-250
-247
-244
-247
-250
-246
-237
-226
-222
-222
-211
-194
-193
-203
-200
-186
-185
-199
-211
-210
-195
-163
-120
-84
-74
-95
-128
-146
-142
-142
-148
-130
-124
-147
-116
-83
-170
-188
187
1126
2426
2949
1708
-71
-531
-98
-37
-189
-129
-95
-135
-96
-62
-75
-62
-30
-6
17
37
64
102
137
171
210
244
281
335
391
429
457
485
506
504
482
442
368
263
155
55
-50
-146
-213
-259
-291
-303
-305
-313
-320
-311
-298
-293
-292
-294
-297
-288
-270
-269
-283
-291
-292
-285
-275
-277
-283
-277
-271
-269
-261
-258
-258
-237
-209
-215
-229
-216
-204
-217
-218
-198
-186
-170
-131
-97
-103
-140
-175
-182
-179
-188
-179
-160
-180
-182
-148
-197
-244
-12
737
2074
3085
2261
171
-824
-376
-56
-186
-158
-83
-139
-134
-85
-81
-59
-20
-3
19
57
93
121
143
174
228
284
324
363
416
471
507
518
521
519
493
441
373
285
173
56
-50
-145
-220
-264
-285
-295
-294
-285
-279
-276
-267
-257
-248
-239
-234
-240
-245
-240
-238
-247
-257
-258
-260
-270
-274
-262
-252
-249
-242
-234
-230
-222
-213
-210
-210
-205
-201
-209
-225
-226
-203
-167
-133
-115
-121
-150
-176
-177
-172
-178
-167
-158
-177
-155
-122
-199
-242
54
924
2342
3199
2111
60
-687
-224
-60
-222
-167
-115
-171
-143
-96
-105
-92
-62
-48
-23
5
26
61
106
141
176
223
277
335
393
439
472
498
514
514
494
444
358
244
126
11
-104
-199
-258
-288
-305
-315
-316
-308
-293
-283
-278
-270
-258
-248
-245
-243
-240
-239
-241
-244
-244
-244
-248
-251
-249
-243
-236
-236
-240
-240
-235
-232
-230
-223
-216
-212
-209
-213
-229
-235
-219
-195
-165
-121
-89
-97
-128
-151
-150
-144
-154
-149
-128
-145
-146
-94
-143
-249
-65
630
1861
2988
2607
746
-508
-318
-9
-159
-197
-111
-143
-148
-98
-98
-97
-65
-46
-27
5
34
62
97
135
179
231
284
339
396
447
485
514
531
535
522
478
395
285
166
50
-56
-145
-214
-262
-292
-307
-314
-316
-311
-304
-297
-285
-274
-268
-264
-260
-257
-256
-257
-261
-264
-263
-263
-266
-267
-265
-262
-257
-252
-249
-246
-238
-232
-230
-225
-220
-217
-212
-212
-224
-232
-219
-194
-156
-109
-81
-92
-123
-145
-143
-137
-146
-142
-125
-145
-143
-97
-153
-238
-8
734
1948
2895
2301
483
-541
-262
-5
-159
-174
-98
-133
-132
-88
-88
-77
-44
-27
-6
29
57
85
122
160
199
245
297
351
404
452
486
504
516
523
509
462
384
282
168
54
-51
-140
-207
-254
-284
-300
-304
-304
-300
-292
-281
-270
-262
-257
-251
-245
-244
-244
-241
-243
-247
-249
-249
-250
-250
-247
-247
-247
-245
-241
-238
-234
-227
-222
-222
-221
-216
-208
-203
-211
-231
-237
-223
-200
-164
-115
-89
-107
-141
-156
-149
-150
-159
-146
-139
-160
-135
-105
-188
-206
164
1090
2360
2876
1687
-48
-527
-118
-42
-183
-131
-100
-137
-103
-73
-79
-55
-26
-15
9
39
63
92
127
161
202
251
299
349
397
437
462
476
483
483
465
417
336
234
128
25
-70
-149
-210
-253
-276
-285
-288
-287
-282
-275
-272
-268
-262
-255
-252
-252
-254
-255
-254
-256
-259
-258
-256
-257
-258
-254
-249
-245
-240
-233
-227
-222
-222
-222
-219
-225
-240
-244
-230
-207
-172
-128
-104
-115
-145
-162
-156
-152
-158
-153
-155
-167
-135
-124
-216
-213
193
1204
2517
2843
1417
-244
-506
-85
-85
-203
-126
-115
-153
-112
-88
-95
-63
-33
-25
-3
32
62
91
121
154
193
237
281
328
372
405
431
448
451
445
430
386
305
207
102
-3
-94
-167
-223
-258
-275
-284
-280
-269
-266
-270
-268
-261
-257
-256
-254
-257
-256
-249
-250
-263
-267
-262
-262
-262
-260
-260
-250
-238
-243
-247
-227
-220
-242
-253
-243
-229
-196
-150
-126
-137
-164
-176
-167
-171
-183
-174
-179
-180
-132
-141
-232
-177
276
1375
2754
2843
1041
-620
-614
-105
-136
-210
-112
-126
-149
-95
-88
-93
-51
-23
-11
17
47
75
109
147
187
223
255
302
356
392
420
447
459
458
456
426
355
267
179
79
-25
-121
-199
-248
-270
-285
-295
-291
-280
-281
-290
-285
-272
-269
-275
-276
-270
-266
-267
-269
-272
-275
-276
-274
-270
-265
-262
-258
-257
-263
-268
-258
-242
-227
-201
-163
-144
-160
-191
-197
-186
-191
-193
-176
-187
-195
-150
-170
-265
-180
370
1611
2978
2812
851
-647
-486
-55
-166
-218
-116
-145
-162
-107
-103
-103
-65
-41
-21
15
44
66
100
140
180
221
266
316
369
415
445
460
464
461
448
415
343
237
125
20
-80
-170
-233
-270
-293
-307
-312
-309
-302
-295
-290
-284
-277
-271
-266
-266
-270
-271
-269
-274
-281
-281
-279
-279
-276
-270
-268
-271
-280
-287
-276
-258
-238
-202
-164
-155
-177
-201
-206
-200
-203
-201
-186
-198
-202
-156
-187
-294
-193
391
1621
2929
2769
915
-523
-420
-51
-173
-232
-140
-166
-179
-120
-105
-99
-65
-46
-31
-3
22
46
82
122
162
208
259
313
365
408
440
460
465
460
445
408
338
243
137
33
-63
-142
-202
-241
-268
-284
-284
-277
-270
-264
-259
-261
-264
-262
-259
-261
-262
-261
-263
-264
-260
-257
-257
-258
-255
-250
-249
-247
-246
-255
-267
-263
-250
-233
-201
-159
-141
-157
-188
-201
-191
-187
-186
-168
-171
-182
-138
-146
-254
-194
334
1477
2773
2811
1138
-393
-439
-46
-122
-209
-120
-130
-155
-103
-84
-95
-84
-79
-77
-48
-2
36
68
105
144
179
219
272
326
365
394
417
433
440
434
404
341
248
143
41
-55
-139
-204
-248
-276
-289
-290
-288
-285
-282
-279
-277
-274
-271
-270
-267
-261
-257
-255
-256
-255
-255
-255
-254
-252
-248
-241
-235
-229
-224
-227
-242
-249
-239
-221
-195
-154
-119
-117
-139
-161
-169
-173
-182
-176
-160
-174
-170
-124
-170
-265
-101
578
1814
2872
2384
557
-560
-319
-29
-167
-192
-115
-144
-142
-94
-90
-79
-45
-31
-14
19
49
78
111
144
181
226
271
314
355
387
413
432
441
438
426
387
313
220
123
24
-73
-153
-206
-242
-270
-286
-284
-269
-262
-268
-269
-259
-251
-253
-254
-253
-250
-247
-248
-252
-254
-256
-260
-259
-251
-244
-241
-238
-232
-225
-225
-228
-224
-224
-234
-238
-226
-201
-163
-125
-110
-128
-154
-160
-156
-162
-158
-142
-156
-156
-120
-162
-233
-59
627
1911
2947
2285
348
-664
-306
-22
-174
-176
-105
-150
-142
-89
-86
-74
-40
-25
-7
20
39
70
115
152
189
230
265
297
341
384
406
412
418
429
425
388
323
247
152
45
-40
-108
-189
-250
-262
-260
-267
-266
-260
-257
-254
-258
-251
-225
-230
-262
-258
-239
-255
-271
-254
-243
-255
-263
-254
-240
-238
-246
-252
-252
-251
-241
-228
-212
-182
-142
-128
-159
-195
-197
-187
-194
-187
-174
-187
-179
-155
-199
-208
96
987
2312
2828
1454
-479
-923
-322
-130
-246
-161
-99
-143
-109
-61
-77
-71
-24
8
15
35
75
113
146
188
232
269
306
340
368
399
424
418
394
375
348
288
207
126
38
-54
-132
-191
-237
-265
-274
-276
-275
-267
-261
-254
-241
-238
-247
-239
-222
-224
-233
-232
-234
-241
-243
-241
-238
-241
-249
-252
-252
-255
-251
-236
-223
-206
-182
-163
-162
-179
-193
-194
-203
-209
-187
-189
-206
-163
-160
-268
-240
222
1354
2853
3164
1439
-404
-579
-106
-160
-271
-166
-169
-207
-155
-141
-147
-106
-75
-60
-25
10
33
68
114
158
202
252
310
364
405
439
470
485
485
470
422
333
225
110
-4
-106
-187
-253
-303
-331
-341
-343
-339
-331
-323
-315
-310
-309
-307
-302
-296
-292
-293
-298
-298
-293
-292
-293
-293
-302
-313
-311
-297
-281
-248
-211
-199
-217
-240
-245
-234
-237
-244
-222
-213
-229
-191
-179
-299
-316
112
1210
2730
3264
1786
-132
-547
-124
-128
-272
-193
-174
-214
-171
-143
-145
-111
-81
-69
-40
-3
25
58
101
147
196
250
310
369
417
452
476
492
499
486
439
355
244
130
18
-87
-172
-232
-275
-304
-318
-321
-321
-314
-301
-288
-278
-268
-260
-255
-252
-251
-249
-248
-252
-258
-258
-252
-247
-246
-248
-250
-258
-271
-272
-255
-231
-202
-167
-151
-166
-195
-215
-213
-208
-211
-198
-189
-202
-168
-145
-247
-282
93
1090
2504
3118
1863
-11
-549
-134
-65
-214
-155
-120
-164
-134
-92
-87
-69
-49
-33
0
33
53
80
119
161
201
244
291
337
378
413
438
452
455
445
414
352
261
158
54
-50
-146
-222
-273
-300
-311
-319
-324
-314
-303
-311
-317
-299
-281
-286
-300
-304
-302
-303
-308
-309
-308
-315
-320
-311
-304
-310
-309
-303
-317
-332
-311
-281
-270
-251
-216
-203
-227
-246
-233
-224
-237
-232
-228
-247
-218
-186
-268
-306
-3
892
2330
3101
1890
-128
-745
-244
-107
-264
-201
-155
-204
-169
-125
-126
-102
-68
-50
-24
6
37
80
118
150
191
244
300
352
388
419
457
477
481
491
475
396
300
214
108
-3
-71
-124
-193
-239
-242
-238
-247
-248
-230
-204
-194
-201
-196
-179
-182
-201
-200
-182
-175
-180
-185
-192
-193
-179
-165
-166
-174
-176
-175
-170
-160
-147
-125
-94
-70
-67
-83
-96
-100
-110
-108
-84
-96
-120
-76
-75
-169
-117
361
1519
2985
3128
1262
-516
-558
-45
-90
-182
-86
-98
-122
-62
-52
-65
-33
-10
0
36
70
86
112
159
207
244
279
318
362
411
441
442
439
442
425
373
286
168
43
-59
-145
-240
-326
-368
-382
-400
-411
-401
-394
-401
-402
-395
-391
-387
-382
-386
-395
-403
-409
-413
-417
-429
-439
-434
-424
-430
-441
-433
-419
-419
-433
-447
-447
-429
-412
-401
-373
-335
-327
-358
-381
-368
-356
-364
-354
-347
-363
-323
-287
-380
-406
-45
928
2409
3149
1872
-156
-742
-265
-176
-333
-250
-194
-233
-192
-152
-154
-111
-54
-22
15
58
97
146
206
262
316
376
446
518
583
638
683
712
735
752
742
689
606
510
410
321
250
193
152
135
138
151
