# session 27
-69
-71
-62
-85
-156
-218
-239
-251
-275
-295
-299
-301
-299
-282
-263
-255
-250
-240
-237
-230
-210
-197
-206
-208
-195
-190
-196
-200
-199
-198
-199
-211
-229
-224
-189
-142
-99
-78
-87
-113
-137
-143
-137
-142
-151
-134
-129
-144
-106
-92
-195
-166
306
1321
2578
2907
1513
-210
-565
-144
-106
-223
-150
-127
-162
-122
-88
-92
-72
-49
-35
-10
20
46
73
109
150
196
252
319
384
440
490
524
534
533
532
505
432
330
225
117
7
-91
-163
-213
-251
-279
-294
-300
-299
-290
-280
-273
-262
-249
-243
-241
-236
-229
-217
-207
-211
-221
-219
-213
-213
-219
-224
-222
-218
-218
-217
-212
-206
-197
-189
-189
-192
-188
-181
-177
-175
-169
-159
-153
-153
-155
-160
-171
-174
-150
-104
-62
-40
-46
-75
-107
-122
-117
-115
-127
-121
-116
-144
-134
-99
-169
-216
91
946
2246
3021
2052
132
-668
-279
-84
-226
-198
-143
-178
-146
-105
-123
-111
-72
-54
-35
2
39
66
97
142
190
232
287
361
433
487
521
533
538
543
528
472
381
273
163
55
-51
-143
-215
-267
-296
-305
-317
-331
-321
-301
-296
-301
-296
-290
-287
-276
-260
-257
-259
-252
-249
-262
-272
-267
-262
-265
-267
-261
-252
-241
-232
-229
-227
-220
-218
-221
-214
-199
-200
-217
-221
-199
-158
-114
-89
-90
-105
-123
-141
-145
-139
-149
-150
-137
-155
-155
-111
-152
-217
-8
721
2053
3162
2474
330
-855
-461
-88
-231
-227
-122
-156
-152
-102
-106
-90
-49
-37
-12
37
63
77
119
173
219
272
342
407
460
516
569
594
596
588
559
493
395
276
154
41
-58
-145
-214
-259
-287
-313
-329
-325
-311
-302
-293
-283
-277
-271
-263
-258
-254
-249
-244
-240
-241
-247
-251
-251
-254
-255
-253
-255
-256
-250
-239
-230
-229
-231
-227
-216
-209
-208
-203
-196
-200
-215
-225
-211
-165
-116
-93
-92
-99
-119
-147
-154
-144
-151
-156
-139
-150
-157
-102
-125
-244
-130
480
1667
2939
2858
1047
-500
-482
-74
-165
-236
-133
-148
-183
-139
-120
-112
-79
-58
-41
-6
24
49
85
128
176
238
304
366
431
498
551
584
602
603
579
526
440
328
209
94
-14
-108
-181
-240
-279
-293
-301
-317
-319
-307
-301
-297
-284
-272
-265
-258
-253
-257
-256
-250
-249
-253
-253
-251
-252
-256
-258
-253
-248
-255
-259
-241
-223
-227
-236
-231
-221
-216
-211
-204
-198
-196
-196
-195
-201
-211
-194
-148
-104
-76
-71
-86
-106
-121
-130
-126
-129
-135
-119
-121
-138
-97
-91
-196
-144
364
1427
2675
2849
1310
-328
-522
-101
-118
-216
-130
-130
-159
-108
-94
-105
-65
-29
-17
9
43
74
111
151
192
243
300
359
426
488
532
557
574
580
566
526
460
368
257
146
43
-52
-132
-189
-228
-256
-270
-276
-278
-273
-264
-263
-263
-253
-244
-240
-232
-225
-229
-234
-231
-226
-226
-229
-234
-239
-238
-236
-238
-236
-226
-220
-224
-227
-224
-221
-215
-210
-208
-203
-197
-195
-194
-187
-184
-184
-179
-172
-165
-159
-162
-178
-185
-165
-128
-86
-50
-40
-63
-91
-109
-114
-110
-112
-114
-101
-108
-122
-88
-98
-194
-120
392
1465
2737
2891
1309
-327
-500
-84
-114
-224
-149
-141
-163
-118
-94
-89
-63
-48
-33
2
25
38
72
117
151
188
248
315
371
421
463
494
522
543
541
504
436
352
265
164
50
-52
-135
-206
-256
-278
-293
-303
-299
-292
-295
-294
-285
-273
-258
-245
-246
-253
-255
-250
-243
-238
-235
-240
-249
-244
-237
-248
-258
-247
-238
-244
-239
-219
-215
-223
-216
-207
-214
-217
-207
-204
-202
-198
-198
-190
-162
-129
-97
-69
-72
-109
-141
-146
-140
-148
-147
-121
-125
-154
-121
-111
-189
-120
372
1464
2825
2999
1239
-569
-692
-152
-151
-246
-131
-123
-164
-112
-86
-94
-68
-40
-18
20
53
77
113
157
196
239
298
366
427
478
523
561
582
581
561
519
446
339
217
101
-3
-96
-173
-226
-268
-300
-311
-308
-309
-307
-296
-284
-279
-269
-255
-251
-254
-251
-247
-250
-250
-246
-251
-256
-253
-255
-266
-268
-264
-260
-255
-249
-247
-245
-234
-221
-217
-220
-219
-215
-211
-209
-212
-223
-223
-190
-136
-96
-85
-91
-108
-140
-159
-151
-151
-158
-140
-140
-161
-120
-112
-220
-191
275
1328
2694
3056
1539
-275
-590
-139
-127
-248
-163
-149
-188
-139
-108
-114
-85
-50
-37
-17
14
46
82
123
170
225
285
347
416
486
540
576
598
602
586
548
478
378
261
141
29
-70
-152
-213
-256
-283
-295
-298
-304
-305
-296
-287
-280
-270
-260
-254
-253
-250
-245
-242
-243
-243
-240
-241
-249
-254
-248
-243
-248
-250
-241
-232
-232
-231
-225
-219
-211
-196
-192
-201
-202
-192
-190
-197
-204
-203
-182
-138
-90
-65
-71
-95
-121
-137
-135
-130
-138
-134
-125
-143
-128
-97
-174
-219
93
940
2205
2943
1990
131
-636
-256
-69
-212
-182
-122
-163
-145
-101
-101
-81
-45
-29
-6
24
45
72
114
157
198
250
312
378
446
500
531
547
557
557
537
481
387
282
180
71
-40
-125
-184
-231
-266
-286
-290
-283
-277
-280
-275
-257
-250
-250
-244
-238
-239
-234
-234
-245
-250
-242
-242
-249
-247
-242
-243
-246
-243
-234
-233
-241
-240
-226
-217
-216
-212
-208
-203
-191
-180
-187
-200
-204
-202
-185
-140
-93
-71
-70
-85
-118
-143
-136
-129
-141
-133
-118
-143
-137
-98
-165
-229
41
838
2104
2978
2185
282
-649
-304
-64
-210
-202
-136
-179
-169
-121
-121
-104
-60
-40
-30
-6
24
57
95
136
177
223
281
347
410
462
498
520
536
541
520
470
392
291
183
75
-30
-126
-198
-245
-273
-288
-295
-297
-298
-299
-288
-267
-255
-252
-245
-237
-235
-235
-241
-250
-247
-240
-242
-247
-248
-247
-241
-233
-234
-235
-228
-221
-222
-224
-223
-217
-208
-200
-201
-211
-222
-205
-158
-110
-80
-71
-90
-129
-153
-149
-149
-164
-155
-134
-153
-154
-112
-151
-208
-11
694
2029
3151
2464
331
-840
-461
-103
-233
-218
-119
-163
-167
-112
-107
-98
-62
-42
-20
18
53
81
111
152
205
256
304
359
418
471
518
551
560
551
526
472
384
278
163
48
-51
-129
-199
-258
-292
-305
-310
-311
-302
-290
-285
-282
-268
-255
-253
-252
-243
-240
-244
-243
-239
-243
-248
-246
-244
-249
-253
-249
-245
-243
-239
-233
-227
-221
-213
-210
-210
-203
-193
-198
-212
-221
-214
-185
-142
-103
-82
-84
-110
-139
-148
-143
-154
-160
-138
-140
-157
-117
-119
-226
-175
309
1369
2708
2994
1434
-324
-572
-124
-127
-240
-160
-154
-186
-138
-118
-125
-93
-61
-44
-18
10
38
75
115
159
213
272
331
396
462
513
543
560
570
562
526
453
348
234
127
22
-82
-164
-222
-264
-292
-304
-306
-297
-288
-288
-287
-272
-259
-253
-248
-244
-244
-246
-243
-238
-235
-240
-248
-249
-245
-243
-242
-242
-242
-236
-229
-229
-227
-219
-212
-208
-204
-203
-202
-200
-205
-216
-214
-182
-130
-89
-77
-89
-109
-136
-151
-146
-146
-150
-136
-138
-148
-109
-119
-222
-150
374
1469
2723
2799
1170
-412
-516
-101
-144
-235
-146
-145
-173
-129
-107
-101
-69
-48
-34
-4
23
48
85
128
170
216
268
327
394
455
497
521
536
543
531
491
420
322
214
109
8
-89
-170
-226
-259
-281
-297
-299
-292
-289
-290
-280
-263
-257
-258
-255
-249
-245
-242
-238
-236
-235
-239
-241
-239
-238
-242
-241
-233
-228
-226
-220
-213
-212
-211
-206
-201
-199
-195
-188
-185
-190
-198
-205
-198
-163
-111
-71
-61
-79
-113
-138
-137
-131
-142
-135
-111
-134
-152
-101
-126
-224
-74
570
1749
2866
2563
761
-551
-412
-55
-164
-215
-130
-155
-170
-119
-105
-98
-71
-56
-34
7
37
64
100
134
171
218
269
331
397
446
484
520
538
534
525
494
419
321
221
111
1
-92
-168
-228
-263
-277
-283
-288
-291
-287
-274
-263
-264
-262
-249
-239
-239
-243
-248
-249
-245
-243
-248
-254
-255
-251
-249
-251
-246
-229
-214
-223
-239
-238
-225
-214
-207
-203
-205
-202
-191
-194
-213
-211
-174
-133
-105
-87
-89
-115
-144
-152
-149
-157
-154
-132
-142
-161
-122
-122
-208
-145
345
1464
2820
2923
1160
-547
-634
-146
-157
-234
-142
-153
-181
-120
-98
-108
-80
-51
-35
-3
33
62
91
131
177
222
275
336
394
447
497
534
553
562
556
523
455
359
248
134
22
-83
-165
-218
-253
-281
-300
-306
-309
-308
-291
-271
-267
-272
-267
-261
-263
-258
-249
-251
-256
-254
-257
-265
-267
-270
-279
-279
-269
-264
-261
-258
-254
-244
-234
-238
-245
-245
-243
-234
-208
-168
-130
-113
-121
-144
-165
-171
-169
-177
-171
-151
-166
-169
-122
-165
-254
-69
640
1949
3117
2601
554
-716
-427
-70
-217
-238
-139
-174
-181
-122
-112
-109
-76
-55
-35
2
37
64
94
135
186
245
311
376
434
484
524
551
566
565
537
478
388
279
168
57
-50
-136
-195
-244
-283
-303
-309
-308
-299
-290
-285
-273
-260
-257
-256
-247
-241
-242
-238
-234
-238
-241
-240
-242
-247
-247
-246
-247
-243
-239
-237
-232
-223
-218
-215
-211
-209
-210
-215
-224
-224
-201
-158
-112
-84
-86
-109
-138
-153
-146
-146
-157
-144
-137
-154
-130
-115
-210
-217
174
1136
2461
2968
1670
-147
-613
-178
-103
-232
-166
-139
-180
-143
-112
-117
-90
-60
-46
-17
15
40
75
117
154
195
247
308
373
434
483
517
536
541
530
502
442
349
241
138
35
-71
-158
-214
-250
-275
-289
-296
-297
-291
-280
-267
-260
-260
-260
-256
-251
-245
-240
-240
-243
-243
-241
-240
-245
-253
-254
-247
-244
-244
-238
-229
-225
-217
-208
-209
-213
-207
-208
-222
-230
-215
-182
-140
-100
-77
-81
-115
-154
-160
-145
-148
-152
-136
-147
-159
-116
-130
-226
-130
414
1519
2724
2681
1008
-465
-481
-87
-148
-218
-138
-153
-168
-116
-106
-105
-66
-46
-36
1
36
53
79
121
167
211
261
323
386
435
474
505
520
520
513
485
411
308
207
106
-3
-98
-163
-211
-253
-280
-285
-281
-279
-272
-262
-260
-260
-249
-239
-240
-241
-236
-234
-235
-237
-241
-240
-235
-239
-247
-245
-240
-240
-237
-232
-227
-218
-210
-214
-218
-209
-199
-206
-223
-220
-198
-173
-141
-97
-76
-100
-141
-161
-152
-148
-163
-153
-132
-154
-149
-103
-162
-241
-15
738
2020
2994
2268
301
-715
-357
-77
-219
-200
-118
-171
-175
-125
-120
-102
-60
-45
-36
-9
26
64
101
133
173
223
278
339
398
446
482
509
524
527
511
464
384
286
187
90
-17
-123
-202
-246
-275
-294
-300
-297
-289
-282
-279
-276
-265
-253
-246
-240
-240
-250
-259
-257
-253
-256
-263
-260
-253
-254
-259
-262
-260
-250
-236
-235
-235
-227
-233
-247
-234
-212
-211
-201
-158
-122
-123
-147
-164
-162
-160
-170
-163
-152
-164
-146
-118
-184
-214
76
949
2369
3163
1974
-121
-839
-325
-113
-242
-177
-118
-163
-139
-103
-105
-78
-48
-38
-7
35
59
82
124
174
221
273
329
381
433
487
528
547
549
536
502
438
345
235
127
30
-65
-155
-219
-252
-275
-295
-299
-293
-286
-278
-272
-263
-246
-237
-241
-245
-241
-237
-234
-236
-241
-243
-244
-248
-254
-255
-256
-256
-254
-248
-239
-233
-230
-225
-215
-210
-215
-212
-195
-193
-213
-224
-214
-201
-187
-151
-106
-87
-97
-119
-137
-141
-145
-144
-124
-128
-145
-105
-107
-219
-165
345
1428
2737
2945
1355
-339
-527
-87
-116
-234
-154
-147
-175
-131
-111
-112
-84
-62
-43
-10
19
50
89
121
154
206
265
325
391
453
496
526
551
560
548
514
451
349
229
116
12
-81
-159
-220
-263
-287
-298
-299
-299
-296
-285
-270
-265
-263
-256
-253
-254
-248
-244
-248
-248
-243
-245
-252
-248
-243
-248
-253
-247
-244
-246
-241
-231
-227
-226
-219
-209
-208
-219
-228
-227
-219
-202
-167
-125
-102
-109
-136
-149
-134
-136
-162
-152
-131
-152
-137
-101
-180
-218
136
1044
2307
2904
1808
5
-614
-214
-80
-215
-168
-124
-167
-137
-94
-100
-87
-57
-40
-14
16
40
67
104
147
196
248
301
355
411
460
494
511
518
512
478
419
337
232
123
25
-73
-164
-223
-256
-285
-304
-303
-292
-290
-289
-279
-266
-262
-265
-265
-262
-258
-260
-263
-258
-253
-259
-267
-267
-270
-279
-278
-267
-259
-257
-251
-244
-240
-234
-223
-210
-203
-203
-214
-227
-225
-210
-194
-168
-125
-93
-94
-119
-140
-135
-121
-133
-136
-119
-137
-138
-83
-120
-211
-14
699
1907
2902
2373
534
-582
-329
-27
-158
-171
-86
-129
-146
-102
-90
-68
-31
-24
-11
27
59
81
115
153
190
236
294
351
403
454
501
534
546
539
522
488
417
323
228
127
12
-90
-161
-212
-249
-262
-264
-274
-281
-270
-254
-246
-241
-243
-246
-238
-232
-241
-242
-231
-231
-238
-242
-248
-251
-248
-250
-256
-248
-231
-220
-227
-253
-268
-254
-233
-215
-181
-144
-135
-149
-170
-183
-191
-202
-197
-176
-189
-199
-162
-186
-253
-114
502
1792
3059
2625
504
-891
-592
-137
-248
-282
-176
-199
-210
-160
-153
-141
-99
-78
-63
-38
-18
12
59
107
155
208
261
314
376
439
478
489
496
512
505
439
330
217
108
-8
-130
-229
-288
-319
-347
-379
-395
-380
-360
-362
-361
-336
-317
-318
-310
-300
-307
-308
-299
-305
-311
-294
-282
-294
-303
-295
-280
-274
-283
-281
-255
-239
-236
-205
-159
-147
-163
-177
-172
-166
-179
-176
-149
-156
-146
-86
-120
-189
29
805
2192
3269
2458
264
-835
-369
-5
-147
-123
-23
-73
-73
-8
14
38
73
85
104
139
166
