# session 12
-122
-145
-78
47
-530
-1404
-911
-13
-375
-32
1299
662
74
2265
2620
-666
-2108
-906
-736
-1160
-804
-666
-874
-885
-937
-932
-739
-744
-887
-853
-781
-758
-698
-687
-631
-496
-659
-715
406
2297
3426
3118
1580
-262
-1129
-1071
-1057
-1145
-1088
-904
-89
1217
1467
538
635
2486
3722
2441
-84
-1474
-1418
-1182
-1213
-1158
-1041
-950
-747
-517
-410
-351
-297
-312
-385
-436
-449
-527
-701
-790
-724
-672
-661
-595
-498
-395
-324
-368
-287
512
2178
3469
2775
751
-717
-1534
-1463
597
2817
3215
3374
2864
-246
-1838
2165
6857
6104
1509
-1863
-2353
-1826
-1815
-1981
-1945
-1978
-2021
-1919
-1784
-1561
-1221
-990
-854
-621
-465
-596
-788
-902
-1044
-1004
-776
-970
-1157
181
2488
3083
1268
-771
-1345
-1140
-1532
-1959
-116
4230
7154
5069
918
773
3359
2344
-336
1867
5485
3537
-582
-913
513
30
-1624
-2579
-2499
-2093
-2016
-2119
-2126
-2174
-2213
-2074
-1892
-1672
-1228
-785
-650
-607
-581
-804
-937
-819
-1117
-1290
121
2278
3317
3279
2222
-97
-1653
-1111
-658
-1004
-32
1855
3131
3989
2638
-815
-88
4769
4748
-348
-2419
-1295
-1405
-2057
-1798
-1467
-709
842
1331
-230
-1926
-2149
-1719
-1631
-1636
-1523
-1450
-1309
-1138
-1236
-1460
-1436
-1225
-977
-686
-524
-435
-225
-366
-649
394
2530
3896
4140
3789
3492
4080
3790
1331
767
3292
3200
-138
-1406
-647
-903
-1404
-1263
-1372
-1545
-1371
-1278
-1215
-962
-826
-843
-629
149
1399
1912
528
-1476
-1992
-1416
-1190
-1162
-819
-538
-583
-743
-820
-698
-424
-219
-157
-69
98
91
-66
23
76
-251
171
2128
4251
4937
3706
1204
-592
-652
-342
-539
-588
-471
-638
-844
-847
-776
-690
-591
-512
-459
-408
-367
-407
-462
-286
340
1589
2916
2723
725
-888
-890
-622
-926
-1087
-813
-516
-372
-350
-401
-428
-408
-353
-221
-61
10
31
100
134
89
108
214
226
112
31
21
5
-20
-28
-44
-67
-75
-96
-163
-233
-250
-230
-226
-237
-227
-214
-201
-167
-218
-396
-452
-25
1239
2950
3308
1432
-599
-915
-516
-546
-592
-449
-428
-427
-317
-241
-198
-106
-6
75
166
254
298
278
215
135
64
27
-40
-195
-265
-220
-307
-314
-133
-333
-404
163
-386
-1208
1772
5845
4298
-184
-1111
-50
-316
-626
-266
-330
-657
-711
-547
169
1619
2530
1461
-630
-1568
-1312
-1187
-1271
-1103
-895
-796
-653
-501
-416
-354
-289
-198
-76
-8
-47
-123
-169
-195
-230
-288
-363
-417
-442
-466
-499
-513
-494
-456
-421
-414
-432
-453
-482
-503
-463
-387
-366
-376
-366
-390
-415
-388
-470
-664
-605
38
1385
2754
2553
649
-784
-684
-382
-552
-524
-404
-577
-481
-217
-569
-312
1900
4056
4403
4264
3880
2172
137
-974
-532
2815
7117
6931
2162
-1332
-1422
-974
-1221
-1262
-1141
-1217
-1239
-1166
-1160
-1167
-1131
-1066
-1016
-1028
-1034
-1004
-1004
-966
-888
-962
-1053
-782
12
1236
1995
1073
-764
-1445
-962
-741
-858
-759
-629
-625
-563
-468
-413
-322
-205
-127
-41
84
158
137
101
76
22
-22
-4
14
-21
-59
-71
-108
-183
-237
-255
-293
-344
-329
-269
-239
-215
-169
-173
-219
-211
-180
-182
-162
-163
-276
-303
81
1004
2075
2179
833
-540
-642
-220
-202
-259
-125
-52
-51
-2
74
180
279
287
297
430
547
514
448
440
392
277
205
197
182
143
134
159
112
-29
-115
-116
-176
-255
-223
-189
-259
-297
-248
-241
-291
-293
-276
-299
-294
-259
-307
-354
-18
896
1726
1385
17
-882
-684
-276
-213
-190
-106
-82
-47
16
55
127
238
326
408
475
460
393
357
345
300
206
124
106
96
51
31
44
36
30
46
8
-106
-203
-225
-207
-201
-201
-191
-200
-236
-252
-244
-232
-208
-224
-318
-314
68
917
1674
1317
-69
-970
-749
-397
-459
-515
-442
-400
-311
-156
-54
10
105
213
284
296
268
220
140
42
-27
-53
-52
-27
2
10
8
10
2
-16
-38
-77
-129
-168
-200
-244
-266
-245
-239
-267
-267
-266
-303
-269
-221
-383
-563
-320
558
1925
2713
1716
-114
-781
-433
-350
-497
-448
-400
-410
-339
-254
-197
-132
-94
-68
1
82
131
157
165
162
166
168
144
110
85
44
-36
-110
-131
-138
-175
-207
-214
-230
-259
-260
-220
-180
-185
-205
-193
-203
-220
-167
-182
-349
-396
-51
877
2122
2343
885
-551
-587
-194
-238
-265
-139
-123
-100
0
49
82
143
181
227
302
321
254
171
128
115
93
47
14
13
11
-11
-31
-40
-48
-61
-75
-78
-67
-65
-80
-82
-54
-21
-30
-70
-96
-135
-189
-193
-236
-412
-516
-273
511
1635
1966
785
-596
-798
-458
-461
-527
-419
-355
-329
-247
-167
-112
-40
71
203
293
295
234
147
64
16
2
-17
-52
-68
-60
-64
-82
-98
-126
-165
-189
-202
-210
-202
-196
-203
-183
-137
-133
-173
-183
-191
-225
-197
-179
-330
-480
-281
593
2047
2748
1522
-290
-755
-368
-321
-403
-304
-280
-297
-227
-171
-125
-38
34
92
169
215
202
163
110
70
70
68
36
17
9
-7
5
7
-66
-122
-123
-183
-264
-250
-214
-218
-190
-147
-163
-199
-201
-207
-213
-153
-115
-198
-227
-5
626
1712
2307
1287
-357
-807
-385
-284
-377
-286
-240
-263
-198
-125
-91
-30
47
115
184
234
247
226
179
147
158
160
115
61
27
-7
-50
-99
-158
-218
-261
-279
-269
-241
-211
-165
-103
-83
-122
-138
-133
-178
-192
-162
-290
-491
-398
198
1339
2339
1856
150
-818
-583
-371
-478
-439
-360
-374
-318
-227
-181
-110
-16
46
98
140
140
105
56
9
-5
5
-6
-33
-40
-34
-44
-56
-52
-62
-91
-95
-70
-62
-73
-64
-31
1
14
5
-6
-24
-44
-20
-30
-179
-304
-110
645
1817
2318
1276
-193
-575
-274
-230
-293
-215
-192
-206
-147
-83
-37
29
90
137
181
206
192
137
61
-4
-50
-87
-111
-131
-160
-176
-172
-175
-191
-207
-220
-221
-207
-207
-226
-235
-220
-210
-236
-276
-303
-331
-328
-275
-312
-445
-403
29
911
1820
1623
157
-921
-734
-342
-379
-384
-262
-238
-226
-147
-60
21
78
107
157
218
231
188
123
68
43
56
93
110
88
76
107
124
97
79
83
58
6
-26
-43
-79
-112
-116
-145
-199
-211
-217
-245
-211
-206
-356
-444
-191
637
2059
2886
1751
-216
-871
-474
-376
-495
-396
-311
-309
-239
-161
-112
-29
78
187
293
348
334
292
251
215
185
145
80
19
-2
-1
-1
-2
-7
-28
-59
-90
-129
-172
-218
-267
-294
-294
-319
-367
-394
-416
-411
-385
-457
-558
-378
387
1696
2511
1572
-309
-1075
-659
-415
-515
-472
-366
-308
-244
-229
-214
-97
34
121
241
372
424
398
323
208
124
101
53
-48
-120
-136
-137
-129
-132
-175
-210
-202
-203
-235
-262
-276
-280
-269
-266
-286
-302
-322
-356
-330
-257
-282
-361
-184
552
1730
2331
1360
-310
-927
-533
-293
-338
-289
-240
-239
-160
-56
9
89
209
357
502
589
606
580
507
383
263
187
98
-20
-79
-75
-90
-111
-94
-93
-136
-158
-147
-155
-188
-212
-209
-188
-192
-240
-270
-263
-264
-246
-233
-339
-430
-79
915
1926
1782
383
-752
-708
-323
-301
-331
-243
-206
-184
-115
-45
45
170
280
381
487
544
524
469
394
283
173
96
15
-79
-124
-120
-126
-137
-132
-150
-203
-235
-230
-250
-311
-352
-341
-342
-383
-390
-365
-404
-428
-322
-298
-470
-476
20
1056
2166
2109
524
-842
-781
-337
-361
-400
-283
-266
-268
-192
-118
-40
60
158
268
366
390
350
282
201
127
77
40
3
-31
-52
-47
-30
-34
-57
-76
-105
-145
-169
-188
-235
-296
-327
-322
-327
-368
-389
-388
-406
-377
-340
-476
-604
-343
456
1782
2807
2081
111
-847
-486
-280
-449
-408
-313
-330
-272
-196
-182
-114
9
99
170
231
236
191
146
120
103
77
34
-13
-46
-62
-75
-97
-133
-173
-192
-184
-181
-192
-200
-201
-184
-131
-70
-44
-51
-58
-54
-66
-71
-21
-19
-172
-283
-5
937
2300
2786
1493
-211
-642
-320
-295
-374
-283
-243
-246
-172
-86
-17
64
154
249
329
362
346
293
224
161
120
95
64
15
-28
-51
-68
-88
-111
-141
-167
-179
-188
-198
-183
-146
-134
-160
-171
-152
-173
-250
-286
-262
-261
-251
-222
-326
-477
-315
380
1509
2239
1475
-187
-930
-603
-404
-498
-448
-380
-404
-359
-269
-207
-119
-7
85
164
220
216
148
60
6
7
22
8
-18
-29
-41
-59
-79
-109
-138
-154
-171
-203
-223
-215
-213
-241
-278
-292
-283
-276
-299
-325
-322
-325
-327
-316
-385
-488
-387
182
1447
2707
2315
362
-874
-619
-288
-407
-397
-289
-305
-280
-180
-110
-34
71
160
232
296
331
329
294
232
182
164
121
41
10
37
21
-42
-82
-101
-114
-112
-125
-167
-187
-175
-183
-209
-219
-208
-204
-221
-226
-209
-221
-241
-213
-207
-252
-160
376
1459
2283
1605
-103
-925
-533
-212
-289
-254
-153
-146
-98
-25
10
95
222
330
470
611
636
592
568
498
343
205
136
91
58
40
26
13
6
6
2
-39
-104
-125
-100
-96
-126
-156
-172
-175
-180
-207
-228
-232
-258
-276
-242
-266
-351
-216
416
1393
1840
927
-590
-1133
-711
-435
-462
-407
-348
-360
-313
-238
-188
-107
9
136
271
375
404
369
294
187
71
-27
-107
-176
-226
-246
-252
-258
-261
-258
-251
-244
-240
-233
-222
-220
-234
-237
-219
-215
-255
-288
-274
-281
-298
-243
-247
-411
-432
24
1040
2200
2278
793
-630
-702
-332
-371
-418
-307
-285
-272
-189
-132
-73
33
137
228
308
332
299
249
189
117
64
41
18
-19
-48
-60
-67
-73
-75
-82
-97
-114
-140
-175
-192
-179
-161
-143
-104
-64
-81
-116
-88
-59
-85
-58
-33
-204
-386
-144
839
2414
3244
2017
-43
-765
-403
-316
-435
-353
-314
-350
-285
-208
-160
-61
49
129
216
280
269
216
163
126
113
93
26
-54
-85
-83
-87
-99
-103
-108
-122
-146
-173
-196
-209
-213
-209
-198
-193
-175
-141
-154
-215
-231
-227
-270
-261
-237
-380
-506
-265
433
1430
1918
1020
-420
-816
-411
-282
-350
-267
-227
-248
-188
-130
-115
-61
14
73
136
195
203
162
111
73
52
56
62
41
21
28
23
-11
-47
-80
-116
-143
-167
-208
-249
-265
-260
-246
-234
-227
-205
-168
-167
-200
-202
-199
-218
-191
-189
-322
-420
-163
795
2313
2927
1533
-322
-738
-350
-321
-397
-299
-268
-271
-201
-133
-52
49
114
181
286
367
378
335
275
230
195
158
124
87
53
42
35
-6
-55
-71
-92
-152
-197
-202
-216
-243
-257
-267
-268
-243
-222
-251
-302
-300
-265
-291
-309
-246
-264
-366
-232
383
1462
2290
1645
-144
-1085
-688
-303
-353
-313
-223
-243
-210
-117
-47
29
107
191
302
392
432
416
325
206
137
95
36
-17
-44
-65
-93
-126
-150
-146
-132
-153
-213
-253
-248
-256
-309
-335
-306
-303
-339
-331
-296
-309
-342
-330
-272
-214
-228
-283
-187
260
1132
1971
1722
284
-814
-700
-294
-261
-251
-147
-133
-136
-82
-4
97
182
243
356
507
596
588
515
422
329
238
156
79
6
-45
-70
-86
-85
-71
-81
-103
-120
-159
-211
-227
-211
-195
-197
-222
-235
-209
-194
-220
-226
-206
-222
-230
-188
-209
-296
-189
441
1607
2388
1587
-166
-956
-581
-308
-383
-327
-235
-250
-217
-144
-110
-52
64
192
315
418
466
431
323
201
111
48
-10
-62
-108
-151
-175
-168
-160
-173
-192
-201
-205
-215
-235
-245
-239
-246
-273
-281
-266
-276
-321
-342
-317
-315
-313
-253
-274
-423
-363
229
1370
2412
2080
365
-837
-647
-268
-348
-375
-282
-302
-309
-243
-202
-159
-76
12
102
200
268
270
212
146
114
110
100
64
9
-32
-44
-47
-62
-82
-96
-114
-134
-156
-178
-187
-183
-185
-189
-173
-137
-118
-155
-191
-183
-199
-211
-149
-189
-394
-399
223
1664
3203
3107
1128
-509
-579
-296
-415
-453
-355
-359
-334
-239
-187
-131
-24
82
177
265
309
297
252
193
136
96
64
16
-31
-51
-54
-71
-108
-146
-173
-200
-229
-251
-278
-306
-302
-274
-260
-248
-215
-178
-174
-213
-237
-214
-213
-224
-179
-212
-384
-370
117
1040
1885
1657
282
-733
-603
-273
-311
-306
-197
-189
-181
-114
-69
-26
40
98
156
229
275
255
202
176
174
147
96
59
40
22
6
-6
-22
-50
-85
-123
-167
-214
-244
-262
-279
-286
-281
-263
-225
-194
-202
-234
-232
-186
-160
-146
-86
-85
-218
-269
25
821
1873
2093
897
-404
-569
-250
-248
-290
-201
-183
-187
-127
-79
-36
25
69
120
194
238
227
180
108
48
32
23
-17
-45
-25
-8
-34
-70
-88
-104
-129
-155
-188
-231
-240
-203
-172
-167
-155
-120
-81
-69
-96
-109
-91
-95
-85
-44
-119
-292
-264
262
1317
2171
1681
180
-651
-450
-264
-352
-308
-223
-240
-213
-132
-81
-27
52
128
197
248
261
230
169
106
64
36
9
-15
-29
-36
-45
-57
-76
-96
-112
-130
-155
-179
-199
-211
-208
-212
-231
-223
-174
-155
-206
-244
-230
-239
-245
-197
-246
-389
-284
275
1239
2103
1781
243
-822
-630
-270
-317
-312
-196
-182
-174
-112
-62
-13
43
102
188
269
279
233
187
152
113
80
66
54
32
7
-13
-28
-41
-63
-101
-145
-182
-205
-221
-236
-234
-222
-231
-241
-211
-197
-256
-293
-262
-266
-280
-232
-285
-446
-367
246
1493
2701
2347
429
-860
-649
-320
-441
-422
-305
-347
-332
-210
-145
-100
-6
90
174
261
316
304
253
202
157
120
90
58
26
-11
-58
-82
-70
-66
-83
-114
-166
-205
-196
-185
-188
-177
-170
-169
-142
-132
-172
-188
-173
-190
-174
-118
-186
-288
-15
904
2124
2470
1240
-298
-633
-241
-121
-151
-84
-37
1
