# session 5
63
54
30
146
343
400
315
200
176
439
1246
2454
2901
1648
-58
-458
-12
90
3
84
111
70
96
106
103
165
231
256
300
375
437
459
436
378
311
266
245
223
182
126
64
0
-58
-98
-135
-174
-190
-200
-242
-281
-282
-292
-321
-334
-345
-362
-350
-328
-344
-362
-329
-286
-302
-334
-312
-295
-313
-285
-265
-347
-357
-6
995
2434
2859
1290
-605
-925
-417
-342
-425
-321
-281
-286
-210
-147
-110
-47
19
81
158
237
309
353
327
222
106
34
-24
-103
-180
-253
-342
-396
-365
-321
-333
-346
-314
-300
-330
-330
-299
-311
-356
-364
-337
-320
-325
-324
-295
-252
-247
-289
-305
-265
-260
-288
-252
-227
-291
-241
239
1340
2523
2361
617
-763
-652
-207
-234
-263
-159
-154
-148
-82
-48
-6
73
139
203
297
399
484
531
528
488
428
355
281
209
135
61
-18
-96
-148
-155
-139
-134
-150
-172
-182
-186
-200
-219
-235
-248
-252
-252
-256
-250
-224
-204
-220
-263
-268
-242
-259
-267
-222
-272
-373
-163
621
1898
2771
1968
46
-879
-476
-173
-294
-274
-186
-203
-173
-116
-103
-61
10
62
130
226
314
377
402
377
324
269
215
159
99
28
-48
-116
-174
-210
-213
-209
-228
-246
-244
-251
-273
-282
-292
-325
-343
-328
-320
-327
-317
-285
-252
-260
-300
-297
-276
-305
-283
-231
-346
-432
-81
807
2119
2985
2089
113
-760
-384
-202
-362
-324
-258
-290
-248
-183
-160
-106
-34
21
86
161
224
273
291
270
234
197
158
122
78
8
-76
-147
-194
-223
-239
-245
-255
-270
-279
-282
-286
-289
-285
-289
-310
-326
-316
-301
-286
-249
-198
-175
-195
-226
-223
-206
-225
-220
-169
-230
-364
-237
427
1699
2858
2475
662
-544
-403
-134
-240
-248
-174
-189
-163
-95
-65
-21
44
94
150
221
281
320
333
313
271
223
179
148
126
90
33
-26
-69
-96
-117
-141
-165
-179
-190
-210
-231
-243
-250
-252
-247
-258
-277
-270
-246
-239
-231
-195
-160
-160
-200
-244
-249
-255
-286
-265
-254
-360
-396
-81
743
1947
2470
1317
-371
-802
-361
-245
-334
-253
-200
-207
-153
-113
-93
-25
48
88
141
218
283
321
333
314
267
220
191
170
138
96
61
23
-35
-79
-78
-91
-152
-201
-212
-224
-242
-254
-264
-279
-295
-306
-296
-272
-261
-252
-226
-208
-207
-205
-222
-259
-258
-239
-247
-228
-212
-271
-256
77
947
2209
2623
1214
-571
-879
-339
-218
-285
-178
-144
-162
-95
-57
-50
11
74
114
178
252
301
332
330
281
220
166
114
76
63
43
5
-31
-58
-95
-133
-153
-163
-180
-202
-216
-227
-246
-261
-259
-258
-264
-251
-222
-211
-210
-192
-170
-172
-203
-229
-214
-207
-236
-209
-175
-265
-295
26
873
2164
2803
1612
-266
-790
-300
-169
-293
-221
-176
-203
-145
-87
-72
-24
41
96
166
242
305
345
350
315
257
194
138
98
61
8
-59
-118
-151
-165
-175
-190
-204
-211
-218
-229
-240
-250
-259
-261
-266
-282
-288
-274
-267
-265
-243
-212
-212
-250
-275
-251
-243
-272
-240
-210
-315
-344
-9
810
2015
2596
1458
-317
-811
-356
-241
-353
-270
-216
-238
-187
-128
-96
-38
17
63
135
212
272
322
342
307
244
197
168
134
88
33
-40
-118
-164
-174
-182
-198
-205
-209
-224
-237
-238
-241
-256
-271
-284
-310
-323
-306
-294
-287
-251
-212
-215
-248
-279
-273
-243
-248
-243
-218
-293
-369
-154
530
1736
2723
2089
188
-838
-508
-205
-304
-276
-184
-192
-152
-79
-45
8
69
112
191
290
350
393
430
417
376
358
343
300
261
221
138
42
-20
-80
-132
-126
-118
-165
-196
-212
-267
-270
-190
-167
-220
-235
-208
-203
-218
-222
-197
-150
-130
-158
-167
-127
-107
-111
-78
-104
-220
-162
217
990
2228
2923
1736
-292
-962
-462
-251
-370
-335
-277
-279
-231
-143
-93
-151
-191
-28
183
238
225
212
210
272
252
66
-2
170
252
97
7
164
331
324
278
248
82
-177
-273
-158
-90
-217
-333
-320
-353
-415
-372
-483
-854
-1048
-1069
-1440
-1931
-1823
-1176
-544
-218
-187
-216
-201
-351
-552
-163
1155
2465
2117
298
-682
-133
246
-20
-2
47
-426
-883
-918
-510
355
939
610
149
221
180
-372
-754
-298
707
1210
660
-61
138
830
878
388
272
531
596
604
813
751
231
-98
25
203
307
394
437
652
1034
1073
508
-727
-2536
-3781
-3409
-2186
-1290
-731
-115
474
513
-58
-349
77
858
1837
2158
864
-596
-540
-92
-424
-811
-814
-548
39
237
-150
28
109
-1048
-653
2652
4059
1506
-299
640
1035
-185
-299
1489
2262
737
-536
-410
-487
-1153
-1761
-2041
-1460
-395
371
1490
2705
2375
1057
420
306
388
901
1152
731
335
-9
-665
-1045
-847
-605
-307
26
-386
-1336
-1508
-728
134
847
1452
1209
-259
-1502
-1121
-58
314
306
172
-629
-1478
-1172
-214
175
20
-172
-376
-566
-581
-364
63
483
582
356
101
-27
-212
-529
-724
-790
-873
-914
-1401
-2392
-1849
1120
3364
2384
152
-795
-782
-1039
-1381
-899
66
116
-754
-1103
-578
13
375
395
-205
-981
-1198
-975
-721
177
2475
4519
3650
747
-1082
-1329
-1432
-2287
-3479
-2508
1248
2885
-423
-3844
-3436
-1673
-1260
-1294
-281
1412
2528
2943
3335
3578
3326
2672
1647
893
1232
1775
1375
768
662
457
84
63
114
-62
-33
190
54
-229
16
494
326
-329
-744
-1484
-3251
-4401
-3280
-1434
-609
-158
154
-307
-889
-735
377
2490
4006
3021
945
194
295
101
63
380
406
7
-357
-331
-46
222
515
610
245
42
-303
-2112
-3315
-533
3310
2802
-525
-1836
-1081
-698
-939
-717
687
2899
4318
4046
3055
2257
1459
613
-1
-507
-1073
-1474
-1403
-961
-676
-812
-1115
-1412
-1593
-1229
-36
1309
1342
-132
-970
-313
-1124
-4757
-7050
-5095
-1966
-463
369
1008
993
789
194
-846
-747
442
869
800
1209
1248
815
967
1253
793
149
-35
47
53
-127
-285
-334
-501
-746
-1012
-1255
-849
-102
23
1065
3756
3853
-298
-3183
-2099
-993
-1488
-1268
-367
-177
365
1765
1950
635
71
293
-379
-1171
-758
-236
-62
1169
2664
1984
-46
-805
-513
-596
-834
-883
-865
-386
374
781
1114
980
-644
-2284
-1722
109
1109
953
396
154
185
171
733
1787
1780
839
646
1120
1268
1125
865
569
436
224
-22
73
-8
-393
-75
430
-21
-247
-148
-1539
-2093
917
2845
57
-2787
-2572
-2053
-2202
-1656
-688
689
3369
5783
5143
2304
554
408
184
-382
-791
-1114
-1065
-492
-113
-91
122
339
181
63
182
164
94
251
588
1073
635
-2204
-5122
-3879
-55
1231
51
-552
-684
-1109
-1273
-1555
-1872
-965
322
166
-673
-765
-498
-469
-518
-684
-1044
-1206
-1097
-1140
-1155
-644
-22
72
-206
-330
331
1460
1292
291
1574
4030
2915
-981
-2735
-1952
-1378
-1612
-1882
-1554
-192
1723
3126
3288
2214
999
743
958
665
129
-37
-84
-254
-160
121
-16
-276
81
608
474
74
256
862
843
-561
-2234
-1670
950
2127
1008
250
8
-1130
-1675
-851
-569
-708
-124
40
-277
284
778
577
1562
3702
4287
2387
-154
-1362
-1216
-1117
-1144
-310
68
-1420
-1689
1521
3656
1185
-1881
-1991
-1157
-1108
-1075
-829
-594
-88
687
1392
1863
2045
1773
1014
439
538
416
-575
-1293
-982
-636
-797
-663
-20
274
-84
-545
-760
-675
-524
-743
-684
289
581
-136
830
2807
2109
-51
-320
453
993
1596
1045
-853
-1775
-1320
-884
-584
-446
-746
-805
-503
-531
-688
-599
-556
-476
-130
-27
-434
-542
67
508
467
510
-90
-1502
-1232
885
1388
-26
-832
-1175
-1728
-1564
-1042
-987
-856
-673
-748
-111
1312
1885
1214
516
299
184
-84
-587
-1056
-973
-541
-353
-181
303
724
1369
2739
3208
1241
-1010
-974
125
165
-509
-1164
-2031
-2420
-1356
206
818
568
222
330
865
989
511
348
563
492
394
625
784
648
342
7
-104
-9
64
200
328
136
-250
-575
-731
-592
-510
-593
-372
-874
-2630
-2347
1151
3114
1563
96
-27
-371
-717
-502
-335
-203
826
2954
4424
3519
1497
405
73
-103
-58
-242
-730
-750
-347
-282
-595
-814
-815
-733
-621
-474
-241
98
266
135
60
-54
-179
804
2251
1589
-332
-547
102
-212
-483
-295
-477
-651
-750
-1294
-1315
-290
318
30
-86
-24
-414
-861
-868
-732
-824
-1049
-1193
-1467
-1834
-1208
725
2338
2812
2849
2164
597
-350
-415
-900
-1493
-1221
-769
-857
-977
-811
-659
-500
-70
479
840
1004
1061
1054
1058
1000
684
226
46
130
-22
-388
-410
-128
-3
39
138
27
-162
-113
-208
-372
113
394
-263
227
2194
2110
-259
-1087
-15
342
-200
-524
-568
-120
1263
2605
2140
-34
-1729
-1632
-625
-34
-238
-784
-1059
-946
-671
-363
-197
-260
-335
-372
-385
-188
-4
109
659
803
-389
-697
1318
2628
1500
291
145
12
-199
-209
-383
-694
-899
-1047
-1012
-658
-255
-20
174
331
275
87
-79
-367
-759
-871
-740
-844
-1071
-893
-167
1226
2876
2867
516
-1435
-1199
-634
-815
-772
-513
112
1673
2279
693
-427
228
585
135
100
363
430
475
383
7
-400
-702
-770
-430
-41
-52
-139
-7
-124
-598
-762
-482
-351
-485
-450
-260
-350
-555
-447
-460
-614
254
1717
1775
708
290
397
236
-6
-348
-672
245
2410
3146
1012
-1403
-1666
-902
-651
-534
-200
-151
-530
-927
-1039
-962
-914
-850
-699
-578
-420
-148
52
318
652
518
602
1857
2455
921
-500
-409
-310
-482
-177
102
204
512
494
15
-157
-85
-370
-751
-787
-673
-504
-125
95
-201
-416
-138
-63
-442
-469
395
2073
3575
3038
622
-891
-534
-93
-113
303
750
425
-63
-53
132
271
410
301
-54
-286
-379
-436
-280
75
326
395
519
887
1198
915
200
-262
-332
-307
-303
-348
-411
-414
-399
-367
-306
-169
385
958
242
-1310
-1679
-977
-686
-502
256
1100
1866
2311
1429
-325
-1112
-782
-568
-701
-760
-797
-934
-1024
-951
-838
-861
-848
-462
174
628
764
709
587
521
469
295
182
277
355
584
1271
1670
964
-200
-764
-653
-389
-397
-679
-841
-750
-735
-907
-996
-866
-646
-530
-595
-687
-690
-722
-796
-854
-1027
-1245
-962
339
2117
2537
878
-756
-718
-328
-690
-884
-616
-653
-948
-1286
-1786
-1451
311
1557
997
257
417
630
613
693
656
442
270
26
-300
-407
-335
-448
-812
-1170
-1299
-1219
-1086
-886
-515
-182
-152
-211
-49
174
187
98
183
391
442
482
775
832
673
1801
4237
5247
3761
1923
678
-514
-388
821
-612
-3820
-2732
2275
5055
4923
4467
3130
1326
1153
1517
727
-176
-611
-1082
-1059
-657
-1168
-1888
-887
1037
1734
1418
1359
1485
1400
1322
1325
1162
936
1047
1043
-105
-1881
-2668
-2460
-2384
-2499
-2409
-2298
-2233
-2076
-1982
-1963
-1712
-962
430
1709
1232
-829
-2088
-1770
-1388
-1491
-1437
-1236
-1159
-1047
-866
-786
-786
-721
-588
-498
-399
-170
29
52
83
178
185
179
199
76
-89
-142
-300
-563
-615
-509
-437
-321
-244
-239
-66
-16
-253
-30
136
-625
431
4807
6900
3177
-838
-1040
-377
-479
485
2197
2499
1089
-450
-856
-503
-368
-470
-431
-337
-289
-249
-274
-324
-293
-192
-51
69
122
220
379
454
474
551
589
503
353
180
19
-106
-288
-514
-597
-543
-540
-551
-440
-316
-336
-430
-491
-501
-448
-383
-405
-499
-570
-544
-487
-568
-654
-293
731
2152
3000
2099
53
-1016
-691
-381
-481
-416
-280
-296
-229
-150
-237
-88
386
397
-234
-567
-215
223
416
519
564
526
471
375
223
119
7
-290
-595
-596
-456
-516
-678
-714
-697
-735
-778
-842
-911
-713
-380
-602
-942
56
1900
2591
2278
2344
2402
2043
2215
2501
1389
-391
-862
-160
-105
-887
-45
3432
5830
3846
197
-985
-143
452
470
319
159
204
259
19
-314
-546
-725
-857
-908
-835
-789
-1014
-1292
-1370
-1411
-1344
-1211
-1432
-1295
-26
720
-394
-1584
-1460
-1128
-1290
-1470
-1579
-1642
-1521
-1435
-1346
-800
144
1297
2509
2600
855
-910
-990
-353
-223
-304
-249
-201
-190
-240
-363
-406
-336
-236
-93
110
343
535
557
400
257
250
304
358
356
81
-515
-975
-914
-547
-275
-244
-347
-407
-447
-586
-710
-659
-529
-514
-618
-650
-554
-334
442
1794
2398
1648
1279
2448
3382
2265
188
-799
-657
-526
-615
-568
-514
-625
-693
-544
-296
-141
-116
-143
-152
-76
77
197
316
537
731
773
803
864
787
565
331
130
-37
-158
-146
31
18
-244
159
1349
1665
549
-310
-202
-131
-313
-330
-342
-312
-158
-319
-614
-312
766
2545
4025
3240
772
-403
-18
-49
-477
-445
-454
-805
-1020
-1008
-940
-805
-620
-438
-262
-118
-77
-154
-261
-311
-268
-86
195
398
475
540
624
605
255
-356
-490
244
966
921
606
447
149
-256
-434
-491
-577
-571
-537
-636
-785
-862
-856
-750
-233
1143
2546
2063
-40
-1208
-787
-410
-623
-746
-704
-825
-1033
-1063
-926
-772
-606
-521
-451
61
599
288
-83
281
159
-807
-1122
-643
-445
-528
-511
-450
-238
62
28
-235
-229
10
181
304
347
133
-95
-43
-78
-495
-915
-1236
-1687
-1779
-1042
121
1462
2509
1846
-292
-1460
-1033
-672
-796
-659
-426
-520
-701
-751
-745
-594
-170
346
684
810
865
927
873
668
613
768
749
574
553
448
82
-86
13
-105
-341
-309
-257
-408
-456
-374
-441
-557
-550
-522
-469
-338
-232
-127
-33
-125
-237
-1
820
2372
3695
3000
842
-40
971
1894
1509
446
-179
-108
71
109
222
319
321
442
630
690
721
835
945
959
959
1112
1305
1196
819
515
348
181
40
-2
-7
-91
-275
-450
-498
-417
-296
-242
-288
-366
-445
-560
-612
-543
-612
-835
-647
272
1678
2990
3055
1397
-260
-329
270
280
-5
-131
-218
-295
-358
-542
-798
-956
-1062
-1232
-1281
-1051
-852
-936
-1052
-995
-876
-746
-666
-780
-916
-812
-655
-708
-846
-923
-996
