# session 29
-26
-41
-15
24
-28
-147
-178
-113
-68
-72
-94
-127
-151
-154
-155
-154
-141
-151
-164
-130
-136
-219
-164
291
1379
2757
2924
1194
-527
-618
-127
-156
-246
-139
-145
-188
-137
-111
-113
-83
-61
-47
-11
23
46
79
117
151
190
236
283
334
384
421
444
460
465
456
429
377
296
191
84
-11
-96
-175
-238
-276
-293
-297
-296
-294
-287
-278
-273
-265
-257
-257
-258
-252
-248
-252
-256
-258
-258
-254
-251
-255
-258
-256
-256
-254
-248
-240
-236
-233
-227
-220
-214
-206
-200
-198
-191
-183
-182
-183
-173
-171
-189
-201
-184
-152
-118
-80
-54
-60
-94
-120
-118
-113
-126
-121
-105
-127
-125
-77
-133
-219
-11
719
2003
3055
2440
492
-594
-288
-15
-172
-175
-93
-131
-123
-74
-77
-68
-34
-18
4
41
65
88
128
169
209
260
317
370
423
471
509
536
550
549
534
496
419
311
197
90
-13
-106
-180
-230
-262
-282
-291
-290
-284
-280
-276
-267
-254
-248
-247
-245
-241
-241
-245
-243
-241
-247
-257
-257
-250
-251
-255
-251
-245
-242
-240
-238
-230
-219
-212
-213
-211
-206
-203
-197
-187
-183
-185
-182
-172
-165
-163
-160
-161
-172
-182
-171
-134
-83
-45
-41
-66
-97
-118
-120
-115
-124
-123
-112
-130
-119
-78
-143
-214
34
810
2079
2981
2216
335
-578
-238
-21
-179
-165
-95
-141
-135
-89
-87
-73
-43
-27
-2
35
59
85
121
157
196
247
308
368
418
463
506
534
543
542
533
493
414
313
207
97
-12
-101
-169
-223
-263
-287
-297
-296
-288
-280
-272
-267
-262
-256
-248
-242
-240
-239
-239
-240
-244
-244
-242
-247
-256
-258
-254
-252
-251
-248
-240
-231
-225
-224
-221
-213
-208
-207
-203
-195
-189
-190
-188
-178
-172
-176
-182
-190
-193
-170
-123
-81
-60
-66
-94
-125
-136
-131
-133
-137
-123
-127
-149
-116
-99
-197
-199
200
1168
2477
2937
1614
-151
-550
-112
-65
-206
-140
-110
-151
-115
-79
-79
-59
-33
-17
11
39
63
95
137
181
225
268
314
371
427
467
500
527
537
533
518
470
382
276
168
59
-44
-131
-194
-239
-271
-291
-298
-300
-293
-276
-270
-274
-267
-253
-250
-255
-260
-258
-246
-242
-258
-267
-258
-258
-268
-268
-257
-250
-244
-243
-250
-249
-232
-218
-218
-219
-213
-206
-199
-199
-205
-205
-202
-202
-183
-141
-102
-82
-80
-100
-130
-147
-148
-156
-161
-140
-136
-157
-129
-111
-187
-178
201
1191
2575
3002
1509
-347
-682
-172
-104
-221
-141
-113
-147
-111
-89
-86
-53
-28
-15
17
48
68
99
141
189
235
274
319
380
441
485
513
530
538
540
523
469
377
266
150
41
-57
-138
-205
-257
-287
-294
-293
-294
-290
-277
-266
-261
-259
-258
-253
-248
-244
-242
-243
-251
-257
-256
-257
-260
-259
-256
-257
-260
-259
-249
-238
-234
-236
-236
-229
-219
-212
-209
-204
-196
-193
-201
-214
-211
-176
-127
-94
-83
-88
-109
-141
-153
-143
-146
-151
-134
-143
-158
-117
-127
-220
-136
393
1543
2860
2846
1049
-516
-491
-59
-142
-215
-113
-130
-158
-105
-92
-91
-52
-32
-25
11
51
75
104
146
190
237
296
358
414
467
514
545
560
567
558
522
453
352
231
113
6
-90
-168
-222
-268
-299
-305
-302
-302
-299
-291
-281
-267
-259
-261
-261
-251
-250
-256
-255
-252
-258
-264
-265
-263
-262
-261
-263
-263
-256
-246
-238
-236
-233
-229
-222
-211
-202
-201
-202
-200
-199
-203
-212
-214
-195
-155
-110
-81
-74
-87
-115
-142
-149
-146
-148
-138
-130
-153
-137
-102
-175
-219
87
936
2217
2934
1935
97
-599
-204
-47
-194
-161
-111
-151
-129
-87
-84
-62
-35
-25
-4
30
58
89
128
165
203
252
313
375
431
483
520
536
543
549
533
479
396
294
180
65
-38
-121
-188
-240
-270
-281
-290
-298
-291
-280
-274
-268
-261
-257
-253
-247
-246
-248
-246
-243
-244
-246
-247
-250
-255
-255
-251
-247
-239
-234
-237
-234
-223
-218
-217
-211
-204
-203
-201
-198
-199
-210
-219
-207
-169
-123
-86
-71
-87
-121
-146
-143
-140
-158
-156
-132
-148
-154
-113
-160
-241
-35
682
1894
2847
2255
435
-599
-317
-33
-168
-185
-114
-148
-140
-88
-86
-80
-48
-32
-16
19
55
89
122
152
190
235
281
338
402
453
487
515
533
535
522
481
409
320
213
89
-24
-107
-172
-224
-258
-284
-301
-302
-294
-284
-269
-254
-246
-247
-256
-260
-253
-248
-252
-254
-255
-258
-251
-246
-255
-258
-248
-250
-253
-235
-225
-240
-247
-234
-223
-218
-211
-207
-204
-202
-211
-218
-199
-159
-124
-104
-94
-106
-139
-159
-154
-154
-159
-143
-143
-161
-132
-122
-198
-175
227
1247
2623
2953
1376
-428
-668
-155
-120
-235
-142
-112
-144
-109
-88
-84
-48
-23
-17
7
41
68
97
134
182
233
283
335
385
431
478
518
536
539
539
524
472
377
259
138
22
-74
-151
-224
-278
-298
-305
-315
-312
-299
-296
-295
-281
-266
-265
-267
-264
-256
-251
-254
-271
-279
-267
-262
-277
-282
-275
-272
-263
-244
-240
-246
-245
-248
-250
-237
-234
-254
-249
-209
-179
-163
-131
-107
-130
-173
-187
-182
-188
-185
-152
-152
-178
-152
-145
-213
-152
321
1433
2792
2878
1069
-669
-723
-173
-153
-223
-120
-122
-154
-104
-82
-76
-37
-6
15
38
58
94
145
183
218
267
323
387
461
519
551
577
601
606
589
540
443
323
209
92
-27
-125
-200
-264
-305
-320
-328
-332
-328
-321
-313
-307
-295
-278
-271
-269
-260
-253
-264
-277
-274
-267
-265
-266
-271
-277
-271
-260
-262
-270
-267
-255
-249
-252
-249
-242
-250
-258
-242
-207
-169
-139
-132
-154
-180
-189
-183
-187
-195
-178
-176
-198
-160
-129
-233
-248
155
1153
2587
3208
1838
-174
-695
-193
-107
-260
-183
-149
-195
-148
-113
-129
-101
-63
-52
-26
14
42
72
119
167
214
272
340
408
471
530
575
603
615
610
576
497
380
249
120
1
-103
-193
-262
-303
-328
-351
-359
-346
-334
-330
-319
-301
-287
-278
-270
-266
-267
-265
-259
-260
-266
-266
-262
-263
-264
-263
-261
-260
-257
-254
-251
-245
-239
-238
-241
-248
-258
-254
-226
-184
-144
-121
-121
-139
-164
-174
-170
-178
-181
-157
-164
-182
-132
-140
-260
-177
386
1506
2812
2961
1318
-346
-490
-76
-136
-237
-144
-148
-179
-123
-99
-106
-79
-49
-33
-10
19
53
93
132
172
223
289
360
422
478
534
578
595
599
593
548
451
331
208
83
-32
-128
-207
-266
-299
-319
-336
-345
-346
-340
-325
-306
-292
-287
-284
-278
-270
-265
-263
-264
-265
-265
-261
-262
-265
-263
-259
-261
-264
-260
-252
-245
-239
-231
-227
-225
-222
-221
-231
-247
-241
-203
-156
-116
-94
-103
-133
-157
-157
-149
-159
-162
-142
-150
-161
-113
-137
-246
-114
510
1629
2738
2593
930
-450
-416
-47
-134
-203
-120
-135
-151
-101
-90
-84
-49
-33
-20
16
49
73
104
144
189
237
289
349
410
462
507
540
554
562
563
523
436
329
216
96
-15
-103
-171
-224
-260
-284
-303
-313
-311
-296
-281
-275
-271
-261
-251
-249
-249
-248
-252
-258
-258
-254
-254
-255
-252
-246
-245
-250
-252
-248
-245
-238
-225
-219
-217
-210
-202
-205
-217
-225
-224
-218
-207
-180
-138
-102
-91
-100
-123
-152
-166
-161
-158
-148
-145
-173
-156
-100
-162
-236
8
773
2068
3044
2282
281
-714
-329
-56
-214
-199
-109
-149
-151
-107
-104
-95
-59
-29
-6
18
55
96
118
141
184
236
295
365
426
479
525
545
551
571
574
523
424
305
191
87
-25
-142
-225
-268
-303
-333
-338
-327
-323
-325
-316
-297
-286
-285
-280
-272
-272
-274
-275
-276
-273
-270
-276
-283
-282
-282
-281
-270
-264
-269
-267
-258
-260
-269
-269
-260
-240
-211
-178
-148
-138
-157
-184
-197
-206
-218
-212
-187
-193
-210
-165
-157
-246
-191
299
1410
2788
2960
1189
-627
-750
-191
-163
-251
-150
-141
-163
-111
-104
-109
-63
-37
-32
7
52
82
120
165
207
262
332
400
460
517
575
615
629
632
619
564
472
358
220
74
-50
-144
-215
-267
-307
-338
-344
-335
-339
-342
-318
-286
-282
-284
-270
-255
-249
-242
-242
-250
-253
-251
-255
-258
-258
-259
-256
-248
-248
-252
-248
-237
-230
-229
-223
-217
-219
-218
-205
-176
-134
-104
-114
-152
-180
-182
-178
-192
-194
-174
-193
-204
-150
-178
-277
-121
511
1732
3045
2872
886
-673
-539
-104
-221
-270
-155
-188
-217
-161
-147
-144
-110
-82
-41
13
42
67
109
153
195
246
304
369
439
505
560
594
611
623
620
569
461
331
210
96
-21
-129
-205
-255
-299
-334
-347
-354
-362
-357
-340
-325
-313
-305
-296
-277
-256
-245
-238
-232
-228
-221
-222
-235
-243
-243
-248
-253
-247
-246
-248
-243
-238
-240
-234
-225
-225
-229
-232
-239
-246
-242
-226
-198
-156
-119
-113
-135
-163
-177
-166
-161
-182
-184
-173
-201
-186
-139
-231
-305
16
875
2211
3186
2420
426
-589
-279
-80
-255
-245
-182
-227
-207
-158
-164
-144
-95
-62
-25
20
55
94
143
191
242
304
370
437
507
573
626
664
685
690
670
603
491
360
226
93
-26
-119
-193
-246
-274
-288
-298
-299
-291
-285
-280
-266
-250
-249
-256
-255
-247
-242
-245
-248
-250
-252
-255
-259
-260
-257
-256
-260
-260
-251
-245
-243
-236
-229
-227
-223
-215
-213
-214
-205
-196
-195
-194
-190
-186
-181
-177
-173
-168
-169
-183
-191
-180
-157
-118
-70
-46
-58
-82
-105
-118
-115
-120
-129
-113
-113
-134
-95
-92
-209
-165
330
1348
2639
3046
1683
-67
-451
-67
-71
-206
-138
-124
-160
-118
-90
-92
-65
-40
-27
0
32
59
92
128
167
213
264
322
389
453
505
550
584
599
598
580
526
428
307
184
67
-40
-130
-200
-245
-269
-286
-301
-301
-291
-284
-278
-270
-264
-259
-253
-251
-249
-244
-240
-242
-248
-253
-250
-241
-241
-253
-256
-245
-234
-234
-237
-232
-221
-216
-214
-209
-204
-201
-197
-192
-189
-184
-179
-177
-174
-170
-171
-169
-157
-147
-151
-155
-148
-144
-143
-134
-127
-131
-138
-142
-136
-108
-67
-41
-36
-49
-78
-103
-103
-103
-110
-96
-93
-122
-97
-68
-166
-199
152
1060
2429
3179
2071
124
-561
-155
-43
-203
-156
-116
-157
-123
-94
-111
-83
-36
-21
-5
25
54
84
117
150
190
241
301
363
420
468
513
555
588
604
598
562
490
379
246
123
19
-79
-169
-238
-279
-299
-308
-310
-305
-295
-285
-279
-277
-276
-275
-266
-251
-249
-260
-254
-240
-253
-277
-276
-266
-268
-267
-259
-258
-257
-249
-242
-238
-237
-240
-240
-239
-239
-232
-223
-225
-231
-234
-231
-210
-177
-147
-118
-104
-122
-154
-171
-173
-175
-173
-160
-161
-186
-162
-127
-199
-230
77
923
2270
3079
2004
-47
-816
-318
-90
-237
-186
-120
-166
-138
-92
-103
-87
-49
-30
-1
31
51
80
122
162
211
268
320
379
449
506
546
579
598
595
567
507
413
294
169
50
-59
-156
-235
-288
-316
-331
-341
-338
-324
-315
-311
-304
-293
-282
-270
-262
-261
-264
-265
-262
-255
-252
-255
-261
-262
-259
-255
-248
-239
-231
-222
-216
-217
-217
-211
-206
-202
-195
-183
-173
-167
-167
-179
-188
-175
-142
-101
-67
-54
-63
-85
-111
-119
-114
-127
-133
-111
-124
-139
-86
-117
-235
-99
526
1707
2986
2923
1116
-429
-413
-31
-143
-213
-116
-139
-163
-110
-98
-95
-63
-44
-27
9
44
75
113
155
194
234
289
358
421
477
534
575
592
605
606
568
486
375
243
110
-11
-119
-209
-269
-305
-331
-345
-346
-340
-335
-327
-314
-307
-304
-294
-283
-283
-282
-278
-282
-289
-286
-283
-289
-295
-293
-287
-283
-281
-275
-268
-264
-261
-256
-251
-248
-244
-240
-241
-251
-260
-256
-236
-204
-162
-125
-114
-135
-171
-192
-184
-177
-190
-182
-167
-191
-179
-134
-207
-271
31
870
2129
2931
2082
227
-618
-269
-70
-222
-207
-147
-186
-171
-128
-129
-118
-89
-68
-41
-13
13
51
96
144
203
266
324
391
460
515
554
584
604
613
600
549
463
353
231
113
8
-89
-166
-211
-242
-264
-267
-261
-261
-253
-237
-237
-246
-242
-233
-234
-233
-225
-225
-234
-243
-248
-245
-238
-242
-248
-239
-231
-230
-222
-214
-221
-223
-207
-197
-198
-195
-190
-195
-207
-210
-196
-163
-119
-80
-68
-86
-115
-135
-135
-132
-141
-134
-125
-149
-139
-99
-163
-221
41
817
2086
2983
2186
268
-646
-283
-45
-188
-176
-120
-169
-151
-103
-118
-122
-92
-73
-49
-15
8
33
73
112
148
195
247
297
352
412
459
490
513
523
514
475
397
294
185
67
-56
-152
-211
-263
-313
-338
-337
-336
-338
-330
-312
-297
-296
-301
-296
-282
-281
-288
-294
-298
-298
-295
-300
-306
-306
-306
-308
-308
-305
-293
-276
-278
-297
-299
-275
-238
-196
-166
-164
-184
-210
-221
-217
-223
-221
-191
-191
-204
-163
-168
-256
-184
329
1517
2910
2872
933
-713
-621
-104
-163
-228
-112
-124
-151
-99
-90
-89
-46
-17
1
31
60
90
128
165
208
258
309
365
423
467
500
533
557
561
547
505
431
336
229
110
-4
-92
-161
-220
-259
-269
-269
-272
-269
-256
-243
-233
-222
-218
-220
-218
-209
-207
-211
-213
-215
-223
-232
-232
-223
-216
-215
-218
-217
-212
-208
-209
-217
-223
-216
-197
-166
-124
-91
-91
-118
-151
-166
-162
-169
-175
-161
-175
-193
-148
-167
-282
-199
343
1494
2841
2898
1124
-507
-547
-131
-223
-313
-220
-243
-280
-232
-221
-228
-200
-183
-177
-154
-131
-113
-88
-60
-32
6
56
108
159
209
249
270
275
272
256
208
120
3
