# session 13
27
176
-183
183
1343
1218
-356
-1111
-614
-326
-470
-434
-299
-267
-258
-208
-104
-14
31
166
367
450
437
434
399
334
284
199
82
14
-26
-78
-104
-98
-119
-166
-195
-209
-236
-263
-262
-254
-256
-235
-224
-272
-301
-260
-252
-314
-340
-308
-312
-351
-334
-305
-361
-362
11
879
1728
1528
169
-907
-788
-327
-273
-297
-194
-149
-142
-87
-24
48
146
253
363
459
519
545
520
438
332
230
141
66
-6
-62
-73
-56
-50
-66
-93
-110
-116
-138
-170
-185
-179
-158
-136
-137
-148
-146
-140
-150
-186
-210
-194
-207
-243
-204
-209
-346
-312
152
1065
2113
2152
648
-765
-727
-249
-292
-364
-224
-181
-181
-107
-42
24
122
204
288
391
458
452
390
295
196
118
65
24
-28
-91
-133
-142
-144
-154
-159
-161
-174
-187
-188
-197
-219
-228
-227
-236
-242
-222
-189
-178
-223
-272
-252
-234
-252
-191
-157
-315
-372
21
954
2287
2918
1694
-196
-755
-369
-321
-445
-357
-316
-341
-284
-231
-199
-120
-33
52
153
218
219
194
151
81
18
-19
-60
-119
-178
-216
-226
-226
-237
-253
-262
-271
-275
-258
-235
-223
-224
-237
-241
-222
-209
-204
-169
-119
-113
-157
-194
-190
-188
-199
-166
-148
-245
-310
-54
742
1874
2270
1153
-332
-679
-303
-215
-296
-231
-180
-171
-107
-37
10
64
125
203
301
378
406
389
339
287
245
190
119
62
26
-6
-38
-62
-74
-86
-108
-130
-140
-159
-185
-190
-189
-210
-209
-161
-129
-143
-146
-117
-95
-103
-136
-159
-148
-149
-156
-122
-142
-257
-233
190
1170
2301
2260
660
-713
-667
-257
-294
-329
-223
-210
-195
-121
-82
-40
39
113
181
253
315
340
297
216
156
111
53
4
-22
-50
-90
-120
-134
-156
-192
-219
-231
-244
-262
-274
-287
-315
-336
-320
-296
-294
-301
-291
-266
-257
-295
-329
-312
-310
-323
-283
-288
-375
-306
177
1248
2418
2235
449
-916
-758
-314
-350
-367
-271
-266
-229
-148
-120
-69
31
123
220
317
369
366
312
222
137
76
25
-16
-52
-89
-110
-104
-103
-122
-143
-150
-154
-166
-179
-183
-194
-209
-204
-195
-204
-207
-185
-165
-182
-225
-230
-202
-221
-225
-160
-212
-355
-210
438
1595
2679
2318
481
-767
-556
-204
-307
-307
-198
-209
-178
-76
-20
41
146
240
319
395
443
445
393
293
198
150
111
48
-5
-29
-55
-79
-82
-90
-113
-123
-129
-157
-182
-181
-190
-227
-248
-237
-223
-199
-161
-149
-165
-176
-213
-306
-373
-319
-248
-309
-367
-113
668
1882
2570
1619
-163
-872
-494
-283
-339
-273
-256
-255
-152
-214
-342
-135
152
128
86
304
436
264
138
275
371
197
-25
-48
44
98
145
191
168
162
194
56
-176
-158
12
-57
-391
-686
-666
-267
116
-54
-445
-325
-105
-432
-673
-534
-741
-987
-523
9
8
-119
-155
167
1253
2072
1163
-632
-1401
-1104
-697
-246
168
50
-242
-34
299
256
305
752
863
208
-484
-679
-674
-579
-331
-247
-333
-231
-94
-161
-186
-81
-81
-203
-285
-213
57
414
693
830
776
627
676
816
564
-40
-589
-1063
-1442
-1325
-634
-43
-149
-431
-118
252
95
37
426
1458
3383
4056
1650
-761
-524
36
-466
-422
2
-316
-587
-223
49
9
-7
-21
-20
148
309
429
728
784
250
4
317
99
-281
356
717
-386
-1173
-683
-393
-652
-637
-572
-737
-639
-195
107
55
-57
108
382
337
10
-214
-292
-385
-360
-192
-183
-406
-827
-1173
-396
1383
2021
1142
654
576
-306
-1263
-1200
-585
-281
-325
-184
85
12
21
509
846
799
776
742
547
285
11
-176
-244
-339
-432
-407
-349
-320
-287
-286
-212
121
392
322
526
1004
384
-1106
-1319
-398
-365
-890
-607
-164
-335
-607
-789
-897
-519
57
132
-35
229
1315
2989
3552
1688
-775
-1430
-841
-561
-850
-1502
-1873
-1122
11
223
-158
-410
-545
-337
131
253
322
634
611
607
1284
1617
1061
831
998
503
-146
-59
73
-323
-567
-308
-94
-220
-362
-363
-437
-517
-446
-453
-368
99
124
-618
-706
480
1917
2549
1569
-400
-1267
-901
-641
-383
-372
-1188
-1288
-120
350
-3
181
415
181
254
685
959
1110
1098
787
490
351
7
-553
-786
-653
-643
-522
29
79
-829
-1397
-938
-457
-651
-987
-649
254
656
298
105
191
23
45
490
495
-12
-184
-24
-25
-193
-370
-427
-213
530
1863
2521
1177
-617
-547
527
626
-233
-1116
-1309
-614
4
-309
-713
-189
503
237
-152
492
1039
407
-13
654
1155
916
641
516
383
327
261
82
-47
-80
-145
-291
-687
-1364
-1347
204
1786
1379
-136
-742
-617
-796
-976
-763
-778
-1044
-573
322
195
-741
-874
565
2613
2915
645
-1455
-1319
-591
-679
-751
-507
-524
-644
-538
-401
-308
-53
577
1522
1747
196
-1694
-1427
243
680
39
-97
-54
-322
-274
-13
-74
-145
-9
52
44
154
313
353
291
180
-144
-587
-763
-816
-658
137
100
-1889
-2712
-210
2279
2280
1484
1437
2521
3846
2744
-504
-1871
-647
181
8
34
-75
-650
-928
-808
-774
-695
-481
-576
-892
-846
-610
-540
-281
73
216
697
1004
122
-207
1214
1833
740
-27
-457
-1026
-368
864
551
-467
-362
341
613
499
82
-645
-1126
-814
-103
154
-212
-761
-1082
-1010
-631
378
1950
1843
-836
-1965
796
2841
1128
-822
-731
-601
-1010
-768
-426
-527
16
1041
1040
205
-242
-155
217
706
821
447
-29
-542
-1129
-1457
-1320
-1053
-1002
-913
-568
-386
-232
504
1093
828
717
1055
869
335
49
-228
-501
-538
-403
-267
-446
-754
-502
88
800
2484
4262
3495
733
-724
-348
-59
-238
-332
-732
-1216
-638
111
-766
-1379
810
3083
2135
34
-466
-235
-427
-379
307
847
826
725
449
-390
-982
-726
-468
-560
-315
156
5
-819
-1566
-1779
-1634
-1419
-1173
-759
-275
-50
543
2048
1949
-1562
-4115
-2078
797
1707
2865
3516
1262
-1131
-944
-203
-342
-462
-489
-722
-981
-1407
-1877
-1771
-950
193
915
627
207
550
293
-795
234
3095
3264
637
-571
-46
-234
-838
-682
-419
-471
23
1161
1797
1403
591
143
361
567
-117
-1004
-1008
-700
-677
-433
-354
-1061
-1368
-433
1037
2693
3300
1360
-197
1321
1713
-1396
-3009
-1456
-648
-1022
-664
-252
-302
-120
-4
27
658
1249
929
410
311
201
73
156
87
-127
-224
-471
-551
-359
-1323
-2601
-741
3057
3769
1302
-607
-959
-727
-449
-534
-750
-639
-417
131
1173
1469
553
-210
-449
-653
163
2091
2405
38
-2145
-2195
-1520
-1301
-1059
-842
-1006
-793
-233
-585
-637
1658
3568
1760
-905
-787
564
953
789
419
-351
-949
-888
-593
-542
-585
-531
-511
-389
-6
134
-238
-525
-441
-370
-439
-418
-235
-122
-196
-207
-488
-1326
-840
2009
3772
2120
572
1926
3450
2273
-265
-1566
-1436
-1227
-1230
-837
-27
796
1230
911
199
-76
59
98
146
276
183
-23
-26
187
381
98
-400
-273
-140
-307
681
1080
-1824
-3466
80
2702
496
-1133
109
699
155
87
-65
-636
-767
-651
-926
-1008
-451
-57
-166
-203
203
1431
2876
2250
-456
-1986
-1529
-1333
-1569
-1085
-617
-413
885
2707
2893
1543
400
-17
-105
-36
87
251
469
432
32
-344
-481
-346
56
178
-333
-743
-529
-293
-482
-843
-1149
-1301
-1185
-839
-501
-351
-157
125
-8
21
906
488
-2097
-2545
699
2878
2429
2288
2041
170
-1212
-872
-468
-575
-661
-1052
-1737
-1921
-1517
-1138
-942
-637
-210
26
5
77
357
451
413
639
495
-149
616
2766
2955
742
-369
441
942
658
375
41
-280
-375
-531
-784
-945
-1020
-910
-725
-655
-334
141
22
-364
-251
109
794
2077
2493
963
-735
-1063
-1070
-1346
-683
500
2
-1321
-342
2013
2330
1169
926
1068
556
128
150
230
492
947
1027
644
262
-110
-668
-1014
-892
-787
-897
-816
-502
-219
89
390
509
643
676
30
-939
-1793
-3037
-3286
-516
2608
2918
2648
3563
3899
3530
2837
780
-1273
-1328
-804
-1120
-1333
-1024
-872
-981
-1074
-1153
-1098
-510
532
1273
1311
1004
643
281
283
832
1235
677
-672
-1926
-2514
-2439
-2087
-1927
-1642
-900
-1148
-2576
-1743
1851
3388
1732
741
936
181
-861
-926
-661
-648
-807
-1027
-960
-322
786
1659
1049
-946
-2315
-2049
-1123
-423
-325
-894
-1269
-919
-638
-735
-565
-164
-28
-39
92
363
533
405
377
616
479
479
1727
2743
1762
355
158
285
149
76
-214
-695
-753
-525
-424
-246
9
-148
-733
-1187
-1169
-899
-787
-884
-798
54
1889
3422
2705
402
-768
-453
-411
-764
-642
-441
-491
-341
-437
-1064
-341
3005
6533
6745
3476
112
-426
1119
2386
2883
3159
2736
1247
-300
-985
-1059
-1032
-1105
-1206
-963
-461
-410
-853
-1047
-851
-771
-908
-1016
-1124
-1251
-1257
-1415
-2017
-2509
-2228
-1014
1053
2697
2168
398
-322
-210
-464
-695
-557
-432
-218
102
65
-283
-505
-432
-110
186
293
611
1286
1648
1359
919
656
409
127
-41
-50
-20
-108
-268
-268
-122
-133
-312
-392
-438
-648
-833
-886
-1067
-1323
-1351
-1298
-1346
-1255
-1054
-903
-158
1500
2490
1367
-527
-1101
-609
-375
-473
-423
-322
-372
-487
-564
-582
-532
-421
-252
34
444
782
849
775
772
749
608
521
561
526
323
41
-226
-327
-206
-132
-240
-283
-272
-466
-693
-551
-9
586
748
297
-347
-702
-773
-790
-589
405
2037
2740
1524
-145
-516
-127
-146
-339
-252
-163
-217
-254
-272
-255
-113
80
212
320
529
916
1314
1405
1201
964
670
254
10
66
62
-210
-493
-544
-422
-360
-471
-601
-587
-489
-359
-132
142
335
375
206
-70
-280
-459
-558
-227
854
2520
3547
2564
430
-642
-454
-349
-636
-880
-922
-763
-609
-604
-481
-148
85
126
134
141
103
33
-17
-29
-95
-259
-315
-118
72
-38
-258
-242
-54
86
206
254
52
-213
-250
-270
-524
-704
-514
-222
-97
2
67
-174
-508
-170
1305
3135
3266
957
-1129
-699
200
-864
-2288
-1884
-641
-312
-715
-943
-977
-1113
-1040
-438
161
79
-438
-714
-659
-552
-375
-66
101
-86
-350
-335
-148
-60
-67
-164
-147
650
1941
2317
1854
1808
1508
-162
-1550
-877
449
542
-7
-67
260
941
1934
1857
99
-1393
-1419
-1230
-1398
-1201
-767
-564
-369
-70
172
330
362
307
354
476
431
140
-130
-22
342
518
539
596
410
123
367
904
1311
1790
1666
289
-929
-960
-841
-1010
-910
-775
-851
-755
-662
-924
-1018
-510
120
656
1737
3158
3218
1337
-561
-978
-814
-1132
-1504
-1405
-1143
-1006
-847
-634
-538
-550
-574
-560
-387
-53
201
301
390
467
568
755
496
-593
-1413
-847
280
860
1223
1550
1244
578
343
317
24
-321
-575
-852
-893
-529
-340
-792
-1347
-1333
-572
1261
3481
3622
1185
-841
-891
-532
-627
-639
-606
-717
-735
-669
-658
-573
-392
-187
248
823
896
684
1236
2337
3051
3457
3225
1531
-472
-1144
-1045
-1088
-1047
-897
-847
-757
-706
-797
-633
-27
362
-83
-766
-708
-399
-862
-1439
-1092
-219
965
2499
2669
512
-1601
-1894
-1642
-1730
-1439
-684
-123
123
380
698
790
628
518
505
464
472
497
462
522
591
382
86
-61
-290
-598
-663
-616
-781
-1040
-1179
-1184
-1028
-757
-607
-682
-781
-742
-640
-492
-243
-111
-230
-295
-29
894
2486
3104
1373
-836
-1258
-635
-366
-472
-596
-371
304
1302
2779
3790
2669
395
-605
-424
-330
-218
135
364
408
327
99
-71
-92
-73
60
287
293
96
79
250
316
156
-280
-821
-1026
-857
-682
-549
-368
-363
-663
-942
-927
-564
547
2195
2462
587
-1022
-906
-517
-435
-189
-373
-518
512
1121
15
-712
-89
168
-127
107
393
126
-47
83
-111
-620
-821
-599
-224
137
128
-484
-1066
-957
-570
-485
-519
-446
-419
-457
-434
-429
-515
-573
-591
-603
-397
-162
-239
532
3011
4792
4111
3288
3269
1786
-579
-1177
-664
-636
-576
-355
-594
-833
-585
-229
-11
87
60
1
-93
-189
-52
152
-15
-456
-857
-1172
-1234
-892
-420
-40
207
0
-700
-1091
-702
-217
-234
-492
-675
-597
-126
85
-335
82
1917
3051
2735
2539
2077
145
-1611
-1547
-746
-340
-92
170
227
-5
-423
-868
-1168
-1081
-656
-456
-569
-386
47
232
387
728
869
626
142
-389
-596
-411
-273
-340
-387
-371
-340
-302
-311
-89
631
1352
1962
3128
3823
2068
-874
-1972
-1217
-132
1337
2610
1868
-242
-1236
-969
-861
-928
-665
-374
-239
-31
192
145
-213
-564
-621
-524
-508
-551
-703
-949
-861
-304
139
117
-68
-178
-313
-548
-796
-1012
-1265
-1344
-741
350
860
462
160
594
955
299
-877
-1362
-1035
-552
-1
838
1858
2507
1954
375
-845
-1204
-1314
-1318
-1152
-1063
-1088
-1173
-1198
-879
-412
-247
-254
-132
66
238
369
351
102
-222
-433
-537
-332
327
841
1201
2427
3687
2761
465
-510
-282
-474
-897
-837
-597
-465
-362
-344
-477
-623
-545
-140
767
2573
4394
3892
991
-1273
-1416
-905
-798
-832
-833
-790
-665
-576
-546
-437
-261
-180
-173
-74
-49
-311
-476
-380
-504
-636
-382
-356
-269
1062
2602
2739
2622
3409
3680
2434
968
418
240
-114
-263
-269
-653
-1026
-953
-966
-1140
-634
881
2487
2449
337
-1599
-1593
-804
-516
-435
-432
-757
-1095
-1089
-865
-645
-456
-203
77
272
649
1595
2917
3856
3446
1506
-416
-869
-627
-911
-1331
-1188
-756
-572
-749
-1006
-1027
-826
-634
-622
-836
-953
-533
52
-7
-480
-560
-286
295
1618
2556
1316
-872
-1469
-912
-851
-1066
-1103
-1472
-1984
-1881
-1439
-1257
-1128
-1024
-1034
-130
1920
3065
2337
1243
538
-95
-266
-142
-609
-1210
-1103
-723
-535
-412
-407
-531
-633
-799
-1061
-1257
-1333
-1257
-1036
-847
-874
-1127
-1356
-1133
-10
2013
3518
2668
238
-1114
-910
-647
-711
-605
-331
52
797
2194
3804
3855
1540
-781
-921
-90
41
-173
-187
-150
-71
15
-15
18
272
600
796
781
699
769
906
873
741
727
833
907
798
504
281
304
