# session 22
-24
-18
-31
-22
76
210
240
173
126
101
35
-30
-48
-55
-65
-56
-48
-55
-51
-37
-34
-32
-20
-16
-21
-23
-15
4
25
32
31
34
32
23
20
26
20
-1
-20
-33
-52
-69
-63
-49
-44
-29
-4
-1
-23
-39
-36
-31
-38
-33
-18
-30
-45
-63
-75
219
863
1006
195
-562
-470
-122
-83
-122
-87
-82
-88
-67
-66
-74
-64
-55
-53
-45
-35
-25
-8
14
37
69
117
174
220
260
305
337
341
333
311
255
179
111
54
4
-35
-60
-72
-75
-80
-79
-66
-58
-59
-58
-48
-43
-46
-48
-46
-48
-56
-61
-58
-53
-52
-53
-52
-52
-54
-51
-46
-44
-35
-24
-34
-52
-43
-15
4
19
31
21
-10
-34
-29
-11
-9
-10
6
2
-20
-30
-40
161
726
1020
430
-343
-382
-35
64
33
61
59
34
30
11
-2
5
-16
-50
-49
-40
-48
-46
-40
-53
-47
-15
-9
-30
-21
3
-1
-12
18
111
231
272
212
159
147
105
47
20
-1
-27
-28
-20
-29
-43
-48
-54
-69
-91
-116
-135
-135
-116
-106
-128
-161
-178
-189
-213
-230
-214
-185
-179
-201
-220
-219
-225
-243
-234
-205
-211
-228
-191
-139
-142
-162
-159
-162
-172
-162
-154
-150
-131
-130
-137
-112
-115
-23
431
832
433
-426
-772
-576
-417
-379
-322
-290
-280
-245
-221
-201
-152
-102
-61
-30
-38
-53
-8
56
87
129
201
255
292
343
398
440
478
506
507
477
428
383
349
309
257
207
179
193
234
269
297
321
324
330
353
334
269
250
278
237
119
47
57
64
35
19
32
46
65
100
133
137
109
87
119
171
178
179
228
258
227
223
279
305
295
317
339
312
280
245
337
805
1224
737
-377
-948
-754
-501
-529
-668
-720
-677
-681
-730
-697
-621
-561
-466
-393
-386
-320
-214
-238
-320
-293
-235
-239
-215
-135
-87
-75
-39
12
28
5
-23
-60
-130
-210
-251
-266
-286
-303
-305
-292
-258
-214
-168
-132
-133
-147
-121
-75
-54
-49
-45
-36
0
38
20
-18
-1
32
27
35
75
85
75
94
121
150
183
178
140
127
124
118
136
126
100
136
122
109
512
1098
923
63
-382
-186
0
2
4
-17
-71
-123
-192
-153
66
253
279
272
302
308
289
290
329
377
398
407
428
459
496
506
472
447
444
413
331
218
121
66
5
-66
-90
-106
-170
-210
-193
-195
-228
-241
-232
-221
-254
-333
-360
-330
-377
-448
-409
-380
-460
-496
-471
-532
-597
-523
-437
-451
-445
-383
-354
-307
-217
-218
-251
-181
-159
-235
-186
-80
-132
-204
-240
-278
87
776
742
-153
-688
-461
-213
-193
-132
-63
-77
-53
13
14
6
78
139
88
-26
-137
-219
-244
-192
-62
121
271
338
397
504
634
754
791
667
477
359
279
171
77
37
31
28
28
40
68
104
132
137
143
174
197
183
161
152
163
193
222
238
254
247
207
185
175
121
77
102
135
134
135
135
138
160
146
74
39
66
66
60
90
72
15
-4
-28
132
696
1020
386
-521
-663
-303
-132
-137
-124
-126
-140
-138
-152
-174
-188
-201
-197
-172
-152
-132
-102
-85
-83
-69
-44
-27
-8
29
68
91
100
98
74
21
-47
-114
-175
-231
-269
-286
-292
-291
-280
-257
-235
-221
-209
-188
-166
-153
-140
-128
-129
-133
-128
-129
-139
-140
-137
-143
-146
-144
-151
-167
-171
-155
-129
-112
-104
-98
-99
-114
-124
-116
-115
-129
-124
-116
-127
-124
-134
-110
222
713
623
-97
-520
-319
-95
-100
-97
-56
-62
-66
-45
-38
-38
-31
-29
-27
-10
11
25
48
84
117
150
193
243
297
353
399
426
437
435
411
361
300
238
179
131
96
66
42
32
28
20
12
9
10
16
21
20
17
14
8
7
15
23
22
20
25
27
18
7
-1
-6
-6
-3
-2
-3
0
18
46
53
23
-11
-15
-2
-11
-28
-21
-23
-38
-36
-72
0
502
1020
656
-305
-684
-376
-132
-117
-100
-87
-101
-89
-79
-87
-84
-76
-73
-62
-51
-48
-31
-2
17
34
68
115
170
230
276
311
344
356
334
294
235
148
62
-2
-57
-107
-140
-162
-181
-183
-170
-165
-169
-167
-155
-145
-138
-137
-145
-152
-150
-141
-141
-150
-158
-160
-163
-171
-173
-166
-162
-175
-192
-191
-177
-160
-136
-111
-109
-129
-145
-137
-121
-120
-114
-95
-103
-110
-94
-107
69
655
1004
406
-457
-569
-215
-80
-102
-66
-42
-54
-49
-39
-31
-18
-9
-5
-2
5
27
56
80
113
169
225
267
316
383
449
488
495
488
484
466
404
314
243
199
172
162
159
144
128
129
133
130
128
125
125
134
126
86
54
48
34
-6
-32
-23
-13
-37
-75
-94
-105
-129
-157
-192
-235
-263
-280
-309
-328
-317
-307
-321
-338
-347
-359
-362
-339
-322
-341
-371
-388
-376
-339
-331
-202
280
685
314
-425
-587
-293
-182
-222
-174
-133
-143
-122
-104
-115
-106
-83
-80
-72
-42
-16
0
27
68
109
134
159
220
304
360
377
386
392
375
324
258
201
147
83
25
-8
-21
-29
-39
-41
-32
-24
-17
-12
-19
-32
-39
-41
-31
-19
-30
-43
-37
-36
-48
-54
-62
-77
-76
-60
-50
-56
-68
-66
-67
-91
-96
-58
-27
-23
-6
10
-5
-19
-1
14
-1
-2
29
25
-6
-10
-23
155
790
1257
686
-332
-586
-203
24
31
63
101
110
113
110
126
157
163
167
198
216
214
234
268
284
291
307
331
368
419
462
477
462
417
358
312
263
167
61
8
-30
-106
-169
-171
-152
-151
-163
-175
-177
-173
-171
-169
-175
-195
-200
-179
-172
-201
-223
-215
-212
-234
-251
-258
-272
-274
-258
-267
-294
-289
-267
-275
-280
-251
-226
-226
-216
-212
-238
-229
-134
-45
-43
-63
-61
-77
-89
-104
-140
77
629
777
82
-606
-563
-265
-209
-222
-175
-169
-192
-188
-184
-188
-173
-145
-130
-122
-104
-91
-82
-40
20
58
91
147
200
239
291
340
356
351
340
312
265
201
128
75
42
5
-18
-6
-9
-56
-98
-111
-126
-147
-142
-126
-130
-139
-127
-112
-119
-123
-97
-63
-57
-71
-67
-48
-33
-18
-4
-8
-7
15
34
41
48
47
47
68
90
100
123
149
146
113
90
89
89
98
111
89
79
99
77
283
930
1224
465
-432
-434
-41
41
1
46
58
40
52
63
55
41
35
49
58
56
74
95
93
102
137
174
208
247
287
327
354
357
343
317
272
205
128
54
-10
-62
-99
-120
-133
-146
-151
-144
-134
-134
-142
-144
-136
-129
-135
-146
-150
-151
-154
-157
-161
-174
-189
-193
-190
-200
-224
-234
-224
-225
-244
-257
-258
-261
-259
-240
-215
-193
-175
-163
-162
-163
-157
-153
-152
-124
-90
-104
-115
-95
-83
133
657
839
222
-430
-385
-78
-20
-50
-22
-16
-14
11
13
3
11
18
26
44
52
56
81
107
118
151
210
245
262
303
354
385
400
410
406
384
334
262
193
140
101
77
57
30
10
4
0
-4
1
-2
-18
-30
-35
-41
-51
-65
-83
-98
-105
-107
-108
-115
-126
-129
-126
-131
-138
-134
-131
-141
-147
-141
-145
-158
-161
-165
-183
-194
-183
-166
-153
-140
-131
-137
-154
-163
-161
-170
-185
-174
-168
-180
-178
-184
-77
373
768
393
-390
-603
-293
-121
-142
-131
-115
-111
-89
-97
-114
-86
-62
-68
-58
-31
-20
-12
17
57
83
95
121
176
235
288
339
379
393
355
280
230
194
104
4
-26
-41
-100
-150
-157
-161
-160
-122
-86
-110
-152
-125
-67
-77
-115
-91
-57
-79
-90
-55
-47
-68
-52
-5
19
13
-11
-40
-50
-33
6
41
42
32
52
86
116
111
24
-27
105
276
310
306
339
320
291
287
211
363
1065
1530
854
-184
-376
2
189
191
189
162
161
187
170
157
182
183
175
201
217
204
220
253
250
234
247
279
314
327
303
278
272
259
220
139
30
-54
-109
-169
-230
-277
-317
-352
-397
-448
-462
-454
-495
-551
-522
-437
-397
-391
-378
-387
-405
-383
-350
-346
-339
-318
-309
-301
-290
-296
-305
-296
-284
-274
-257
-240
-224
-205
-180
-151
-141
-165
-182
-175
-174
-177
-171
-167
-150
-165
-178
113
654
672
-58
-628
-511
-224
-151
-148
-133
-139
-128
-104
-98
-97
-95
-102
-102
-78
-48
-32
-21
3
15
20
63
124
159
194
250
302
334
323
262
207
185
146
78
30
5
-18
-28
-13
8
36
68
79
73
84
109
119
119
138
173
181
161
157
189
212
196
172
176
176
148
138
165
181
183
199
189
144
151
211
221
187
191
190
139
125
165
152
104
102
103
86
75
122
491
1075
1002
88
-549
-361
-49
-26
-28
12
-9
-7
52
48
-12
-10
26
13
2
30
56
73
80
75
98
143
167
221
309
328
298
324
346
269
160
91
25
-64
-143
-205
-250
-274
-286
-302
-332
-360
-356
-319
-303
-325
-340
-343
-382
-444
-454
-368
-253
-221
-288
-364
-392
-406
-425
-419
-394
-388
-398
-390
-341
-310
-357
-385
-309
-247
-261
-261
-255
-269
-231
-189
-223
-254
-275
-201
333
1014
755
-329
-827
-447
-150
-188
-166
-94
-106
-83
3
44
34
32
44
67
94
101
114
170
223
228
235
304
386
401
402
483
558
521
464
454
402
299
238
213
184
161
128
96
127
189
197
188
225
258
253
231
199
173
161
112
42
31
46
28
33
77
84
64
80
118
136
146
164
187
209
224
235
245
220
159
112
94
89
93
81
57
70
45
-52
125
698
880
150
-617
-574
-194
-106
-159
-151
-164
-191
-165
-136
-142
-148
-161
-214
-276
-293
-278
-261
-245
-219
-176
-126
-84
-34
31
77
90
97
110
107
67
-5
-73
-120
-157
-193
-218
-231
-242
-249
-247
-244
-234
-207
-183
-184
-187
-175
-165
-165
-168
-173
-175
-171
-172
-176
-168
-159
-158
-153
-149
-155
-160
-154
-152
-162
-169
-159
-141
-130
-117
-92
-74
-79
-93
-93
-79
-73
-71
-58
-56
-45
-19
-48
39
527
941
510
-325
-531
-207
-38
-49
-20
-8
-27
-7
15
16
22
29
34
42
48
63
90
108
122
151
193
240
290
336
377
409
430
443
438
407
357
296
228
161
96
43
22
18
3
-2
14
15
-3
1
23
30
29
36
35
19
13
22
25
18
22
31
28
25
27
25
25
30
28
17
10
13
24
35
47
63
78
72
46
28
31
30
23
27
17
7
13
-27
76
630
1104
610
-387
-692
-335
-94
-77
-45
-19
-30
-24
-12
-13
-15
-19
-21
-18
-14
-10
-4
5
23
48
72
96
126
167
211
242
252
251
239
203
138
54
-35
-117
-188
-241
-275
-296
-307
-306
-304
-306
-299
-287
-285
-285
-270
-252
-248
-247
-239
-237
-248
-253
-252
-258
-268
-269
-268
-264
-254
-244
-240
-239
-235
-220
-193
-162
-137
-118
-108
-110
-112
-102
-96
-106
-101
-78
-78
-82
-84
-106
98
661
910
289
-457
-475
-127
-7
-19
12
29
36
54
53
50
65
71
76
94
104
104
123
151
165
176
205
249
299
352
403
442
463
470
462
436
385
313
243
187
139
98
70
52
36
26
28
31
25
23
34
48
44
30
22
20
12
7
8
9
6
1
-9
-24
-35
-38
-40
-49
-60
-64
-57
-44
-32
-26
-32
-46
-64
-78
-79
-83
-91
-91
-102
-116
-109
-134
-60
378
789
426
-375
-617
-312
-136
-166
-162
-147
-155
-142
-129
-136
-134
-123
-119
-116
-103
-81
-62
-48
-25
10
39
68
113
165
210
242
258
257
251
232
182
106
27
-33
-75
-115
-151
-169
-171
-172
-170
-162
-157
-149
-134
-128
-129
-123
-116
-116
-111
-105
-108
-109
-98
-89
-88
-86
-85
-85
-86
-89
-85
-72
-53
-36
-23
-16
-18
-34
-46
-40
-35
-36
-24
-25
-39
-20
-32
12
469
1039
764
-228
-695
-372
-65
-41
-28
3
-5
7
33
43
48
52
58
74
85
90
103
124
148
178
206
235
283
341
386
418
440
442
428
398
337
254
169
92
27
-24
-62
-80
-84
-94
-100
-94
-97
-111
-110
-95
-87
-88
-96
-104
-102
-99
-103
-108
-108
-105
-103
-107
-116
-124
-124
-122
-119
-105
-79
-58
-50
-51
-65
-80
-76
-67
-73
-69
-61
-80
-81
-73
-106
114
737
968
216
-613
-594
-204
-92
-115
-87
-84
-89
-70
-69
-77
-72
-70
-73
-68
-60
-51
-39
-25
-8
17
53
93
135
181
226
256
266
262
242
199
135
60
-8
-61
-105
-141
-164
-172
-177
-182
-178
-165
-156
-151
-145
-137
-133
-134
-130
-121
-119
-122
-122
-118
-114
-112
-112
-114
-118
-116
-109
-104
-102
-91
-69
-46
-30
-22
-27
-42
-51
-45
-38
-41
-34
-28
-41
-41
-51
-26
314
837
758
-11
-477
-255
8
6
-5
32
30
33
55
56
55
62
65
69
76
82
94
113
131
148
171
204
244
284
322
353
371
375
367
341
290
223
156
96
46
8
-23
-45
-51
-51
-48
-43
-38
-40
-40
-35
-33
-37
-38
-38
-39
-41
-41
-43
-46
-46
-43
-44
-46
-44
-45
-51
-55
-58
-67
-67
-49
-28
-13
0
0
-20
-41
-43
-46
-64
-66
-59
-78
-85
-86
-113
79
588
734
84
-558
-487
-179
-134
-171
-147
-154
-172
-161
-159
-167
-168
-172
-181
-182
-179
-175
-169
-161
-153
-143
-126
-96
-58
-27
-8
