# session 24
-32
-47
-9
-52
-228
-358
-350
-315
-317
-310
-291
-280
-269
-256
-247
-236
-225
-218
-210
-202
-201
-198
-184
-163
-149
-150
-156
-154
-147
-140
-122
-92
-66
-48
-39
-49
-65
-62
-55
-61
-47
-28
-43
-45
-52
-49
301
934
905
-49
-746
-528
-124
-49
-57
-24
-23
-15
11
19
33
51
54
65
90
102
114
139
158
174
205
237
262
299
353
405
439
460
474
470
434
377
308
219
127
61
12
-30
-54
-63
-70
-70
-64
-61
-60
-55
-49
-47
-51
-53
-49
-50
-59
-66
-70
-75
-79
-83
-89
-95
-99
-101
-102
-105
-114
-119
-117
-122
-135
-135
-120
-105
-94
-83
-75
-84
-103
-105
-94
-103
-112
-101
-108
-111
-106
-111
157
797
970
127
-726
-659
-231
-112
-125
-85
-83
-92
-68
-56
-54
-40
-32
-30
-22
-11
3
19
35
58
89
119
151
197
250
297
337
365
375
369
343
290
215
135
61
0
-48
-86
-112
-122
-123
-122
-119
-116
-112
-106
-101
-99
-97
-95
-93
-94
-94
-96
-99
-99
-99
-102
-105
-106
-108
-111
-111
-107
-102
-101
-104
-105
-104
-105
-103
-90
-70
-47
-25
-17
-29
-46
-49
-44
-52
-53
-37
-42
-57
-51
-74
51
585
1004
518
-365
-559
-206
-46
-84
-61
-39
-53
-41
-25
-23
-14
-6
-5
2
15
22
33
51
72
93
121
156
195
236
276
306
323
332
330
310
267
202
128
57
-4
-53
-89
-114
-129
-134
-133
-129
-124
-119
-113
-106
-99
-95
-91
-85
-82
-80
-77
-73
-71
-69
-67
-66
-65
-63
-60
-59
-58
-57
-55
-52
-51
-52
-54
-55
-58
-63
-65
-55
-38
-19
0
14
10
-10
-22
-16
-14
-21
-12
-5
-19
-14
-27
6
389
919
762
-69
-511
-261
-19
-38
-44
-13
-24
-23
-5
-5
-2
10
14
19
28
36
44
54
65
84
109
134
162
198
238
274
300
311
309
296
271
223
156
83
16
-39
-80
-109
-127
-136
-141
-143
-139
-132
-125
-121
-117
-114
-113
-111
-106
-101
-96
-91
-89
-88
-88
-93
-99
-99
-94
-92
-95
-95
-91
-88
-89
-91
-92
-90
-86
-91
-103
-106
-106
-113
-109
-88
-66
-52
-43
-44
-61
-74
-71
-67
-75
-69
-58
-71
-71
-77
-79
206
764
803
28
-586
-429
-110
-81
-101
-59
-61
-73
-50
-36
-33
-24
-19
-17
-8
0
2
16
46
69
78
99
136
176
220
264
293
312
330
331
312
274
215
139
68
11
-36
-75
-105
-124
-126
-114
-100
-90
-83
-82
-81
-73
-63
-62
-58
-46
-44
-50
-51
-45
-41
-37
-28
-25
-35
-46
-49
-50
-49
-43
-39
-43
-48
-47
-49
-61
-71
-60
-36
-17
-2
12
7
-16
-30
-22
-22
-31
-15
-10
-34
-28
-35
10
470
1082
828
-240
-798
-473
-116
-67
-42
-3
-16
-10
11
9
16
32
33
41
67
84
90
102
119
139
165
195
233
275
317
362
403
424
426
417
385
317
222
127
49
-13
-67
-108
-131
-142
-154
-160
-156
-150
-146
-141
-144
-149
-146
-141
-142
-144
-144
-148
-155
-160
-160
-160
-169
-178
-178
-172
-168
-169
-173
-177
-172
-162
-164
-172
-166
-143
-120
-104
-94
-99
-119
-125
-112
-111
-113
-99
-105
-113
-100
-119
44
630
996
369
-568
-695
-272
-80
-97
-72
-58
-68
-49
-33
-32
-19
-6
-2
7
19
30
43
59
79
104
133
167
209
255
302
346
378
391
388
369
324
252
170
92
25
-27
-64
-89
-104
-112
-115
-113
-109
-103
-98
-94
-91
-90
-88
-86
-87
-88
-86
-83
-83
-84
-83
-81
-83
-86
-84
-80
-80
-79
-73
-69
-72
-75
-74
-75
-70
-55
-35
-14
5
9
-3
-17
-18
-14
-18
-16
-3
-10
-15
-13
-23
194
754
970
324
-394
-370
-40
27
-5
35
46
35
52
63
65
76
85
88
97
106
113
122
133
145
157
167
184
214
252
287
310
322
327
317
286
235
170
95
23
-37
-82
-113
-132
-146
-154
-155
-153
-151
-145
-138
-133
-129
-128
-128
-126
-124
-125
-128
-132
-137
-141
-143
-141
-139
-144
-150
-151
-148
-149
-150
-147
-145
-149
-152
-152
-157
-161
-147
-123
-104
-87
-75
-79
-96
-103
-96
-98
-103
-89
-83
-95
-88
-100
-55
332
815
604
-193
-553
-277
-53
-73
-70
-37
-50
-45
-21
-21
-23
-12
-2
3
10
21
34
48
63
84
107
128
159
200
239
273
298
312
318
316
289
232
160
89
29
-21
-66
-98
-111
-119
-127
-126
-119
-113
-103
-89
-81
-79
-72
-64
-57
-45
-40
-44
-43
-34
-30
-33
-31
-24
-20
-24
-30
-26
-19
-24
-34
-29
-20
-26
-34
-27
-13
-6
6
24
30
13
-6
-6
-4
-18
-19
-4
-23
-43
-26
-36
126
712
1076
416
-577
-726
-280
-63
-76
-55
-41
-46
-21
-6
-4
15
22
11
17
35
46
54
69
91
114
137
169
212
256
300
348
385
401
400
379
335
275
200
111
32
-24
-73
-112
-124
-125
-135
-144
-140
-133
-129
-130
-133
-134
-134
-129
-125
-130
-134
-133
-134
-137
-134
-134
-145
-153
-152
-146
-143
-150
-160
-161
-155
-152
-150
-143
-130
-111
-90
-80
-90
-109
-114
-102
-99
-97
-88
-98
-102
-82
-97
59
636
1012
407
-533
-676
-259
-66
-80
-48
-31
-47
-29
-11
-11
0
13
17
25
37
44
58
79
99
121
151
183
217
261
309
347
371
385
388
371
327
255
173
99
35
-20
-58
-80
-96
-108
-108
-103
-96
-90
-89
-88
-83
-78
-80
-87
-89
-86
-88
-93
-95
-97
-102
-107
-111
-112
-109
-106
-110
-114
-113
-114
-117
-120
-124
-130
-126
-110
-92
-72
-58
-59
-74
-86
-82
-77
-80
-73
-65
-76
-70
-75
-65
264
837
823
22
-538
-347
-56
-47
-62
-25
-29
-30
-10
-6
-2
13
18
22
36
48
57
71
88
106
125
152
187
225
265
303
333
348
351
343
318
266
195
122
57
1
-43
-72
-91
-104
-113
-115
-111
-104
-98
-94
-88
-82
-77
-74
-71
-69
-68
-66
-64
-64
-64
-61
-59
-59
-59
-59
-60
-58
-54
-54
-55
-55
-56
-55
-51
-50
-55
-59
-63
-70
-64
-44
-24
-8
6
9
-8
-26
-26
-21
-29
-26
-16
-30
-32
-27
-33
205
745
865
167
-483
-392
-77
-33
-65
-34
-34
-45
-31
-25
-24
-18
-18
-18
-10
-4
4
16
26
38
61
86
111
144
184
221
249
266
271
266
245
203
145
80
14
-44
-89
-122
-148
-168
-175
-170
-164
-165
-162
-151
-141
-139
-137
-136
-136
-136
-129
-118
-114
-118
-118
-116
-119
-121
-116
-112
-112
-113
-112
-102
-88
-86
-90
-90
-84
-75
-69
-67
-62
-52
-50
-53
-51
-42
-34
-30
-27
-25
-22
-19
-16
-19
-22
-1
36
58
66
72
63
44
45
51
39
42
54
36
40
47
54
379
988
974
42
-667
-473
-77
-5
-18
14
4
-3
25
37
27
27
40
49
44
45
67
79
77
95
128
144
162
211
261
295
329
360
373
373
366
334
273
197
115
36
-27
-72
-105
-122
-124
-122
-126
-126
-117
-109
-110
-113
-112
-108
-102
-93
-93
-102
-107
-104
-108
-118
-118
-116
-126
-135
-134
-128
-125
-125
-122
-115
-112
-117
-117
-102
-93
-102
-112
-106
-100
-102
-102
-96
-86
-72
-51
-32
-34
-59
-75
-65
-65
-73
-59
-60
-80
-73
-90
-12
490
1022
650
-352
-734
-363
-80
-82
-65
-30
-41
-31
-8
-6
1
15
20
26
38
49
58
71
88
109
135
166
203
244
290
335
371
392
397
386
353
298
222
140
67
8
-38
-73
-95
-110
-119
-121
-120
-119
-114
-106
-100
-98
-97
-95
-94
-96
-100
-103
-106
-109
-117
-126
-130
-131
-134
-138
-142
-142
-138
-136
-136
-134
-131
-128
-125
-122
-120
-117
-118
-122
-124
-127
-131
-125
-108
-88
-69
-51
-43
-53
-69
-72
-64
-64
-61
-45
-51
-57
-49
-49
155
693
922
307
-413
-409
-80
-4
-37
-4
5
-3
17
30
32
46
58
64
73
83
93
107
124
141
159
182
214
249
288
329
367
394
408
409
392
356
296
219
143
79
28
-14
-44
-63
-75
-82
-85
-86
-86
-83
-79
-76
-72
-70
-73
-73
-71
-71
-72
-70
-71
-72
-71
-71
-74
-74
-74
-77
-78
-77
-77
-78
-77
-75
-75
-75
-74
-75
-77
-77
-80
-84
-90
-95
-90
-72
-54
-41
-25
-15
-26
-51
-59
-54
-59
-59
-53
-66
-70
-70
-83
140
679
832
154
-525
-462
-139
-81
-112
-81
-80
-90
-73
-67
-66
-52
-43
-39
-30
-25
-23
-11
4
20
39
62
87
126
172
210
243
277
296
297
284
250
191
120
49
-16
-67
-108
-139
-155
-162
-170
-172
-166
-160
-159
-153
-142
-133
-130
-131
-130
-119
-107
-101
-100
-95
-88
-86
-89
-86
-79
-74
-68
-57
-49
-48
-42
-27
-25
-36
-38
-31
-31
-37
-41
-39
-27
-11
8
28
39
31
11
1
-6
-12
10
31
6
-2
9
-8
254
909
1082
210
-666
-594
-148
-14
-21
18
21
15
36
37
33
50
54
50
62
81
88
92
100
115
142
177
205
234
285
351
394
416
441
451
421
369
308
219
117
38
-21
-73
-113
-139
-150
-151
-152
-155
-156
-147
-138
-142
-150
-147
-140
-139
-138
-134
-135
-140
-136
-131
-141
-150
-141
-138
-146
-145
-138
-135
-129
-122
-120
-123
-127
-132
-132
-124
-105
-80
-57
-45
-54
-78
-86
-76
-80
-87
-73
-75
-84
-72
-91
54
631
1041
450
-538
-731
-299
-68
-81
-69
-55
-59
-37
-27
-34
-24
-12
-13
-11
0
13
25
34
49
73
99
129
169
216
267
321
362
378
378
370
339
274
191
110
38
-24
-72
-102
-119
-129
-137
-140
-137
-131
-124
-116
-109
-101
-94
-90
-88
-85
-82
-80
-80
-81
-82
-83
-83
-84
-84
-83
-83
-84
-82
-78
-78
-80
-79
-77
-76
-77
-83
-89
-83
-64
-43
-22
-8
-9
-25
-38
-34
-32
-38
-25
-15
-31
-30
-35
-13
348
939
886
30
-535
-314
-10
-3
-16
23
19
17
37
41
45
58
66
73
82
88
94
103
110
119
135
159
188
222
261
299
332
352
356
348
323
272
195
111
39
-22
-72
-106
-129
-147
-159
-164
-164
-161
-156
-152
-149
-144
-138
-136
-135
-132
-129
-129
-128
-127
-129
-130
-129
-130
-130
-129
-128
-127
-126
-126
-125
-120
-114
-110
-109
-107
-103
-99
-101
-104
-102
-104
-109
-115
-121
-120
-106
-84
-66
-50
-36
-38
-56
-66
-60
-60
-64
-51
-50
-61
-49
-54
24
452
892
578
-226
-500
-197
-10
-39
-27
-2
-14
-4
14
17
27
39
41
48
59
68
77
88
101
119
141
168
202
238
275
315
353
378
386
379
355
310
244
169
100
43
-2
-36
-59
-74
-82
-84
-82
-83
-83
-79
-76
-75
-73
-70
-69
-67
-63
-62
-64
-62
-60
-62
-67
-68
-64
-60
-60
-59
-56
-53
-52
-53
-54
-54
-50
-46
-43
-42
-40
-37
-36
-35
-34
-31
-27
-24
-21
-21
-20
-16
-13
-15
-16
-15
-15
-16
-15
-14
-14
-11
-11
-13
-13
-12
-13
-14
-10
-7
-8
-10
-11
-11
-11
-10
-11
-14
-17
-19
-20
-20
-21
-24
-22
-20
-22
-26
-27
-28
-27
-26
-27
-26
-24
-24
-27
-28
-30
-31
-27
-24
-29
-37
-39
-41
-47
-43
-22
4
10
0
-1
9
1
-26
-37
-33
-38
-38
-36
-51
-46
-44
-44
240
794
833
81
-507
-366
-83
-63
-79
-46
-52
-58
-39
-33
-33
-24
-20
-19
-13
-5
4
16
31
49
67
85
104
130
164
202
236
262
284
308
320
308
279
232
163
88
33
-7
-48
-82
-99
-102
-98
-95
-95
-91
-76
-62
-54
-52
-49
-43
-39
-38
-36
-30
-31
-39
-44
-47
-53
-55
-51
-53
-64
-66
-62
-68
-81
-82
-73
-70
-71
-73
-76
-77
-71
-67
-70
-67
-52
-40
-34
-29
-30
-34
-29
-22
-20
-15
-10
-17
-28
-34
-38
-37
-29
-29
-35
-33
-31
-37
-41
-37
-35
-40
-48
-53
-51
-40
-18
5
13
9
6
6
-2
-19
-29
-28
-37
-41
-31
-42
-47
-39
-48
193
823
1062
289
-608
-634
-223
-73
-81
-48
-42
-51
-33
-27
-28
-14
-6
-5
7
21
25
32
45
59
78
107
139
172
211
261
316
362
394
412
414
392
349
286
197
104
36
-15
-62
-97
-116
-124
-126
-121
-115
-113
-110
-103
-94
-89
-88
-85
-79
-79
-82
-81
-79
-80
-80
-78
-81
-83
-81
-82
-86
-84
-78
-78
-81
-82
-79
-71
-65
-63
-61
-59
-57
-57
-58
-58
-56
-54
-54
-53
-51
-51
-51
-50
-49
-48
-45
-45
-47
-46
-43
-43
-43
-44
-43
-39
-37
-38
-39
-39
-37
-32
-32
-38
-45
-47
-36
-11
11
14
11
15
17
-2
-22
-23
-24
-30
-18
-16
-36
-33
-42
26
484
1029
769
-153
-576
-283
-39
-60
-60
-30
-43
-39
-18
-16
-12
-2
3
6
12
18
26
37
50
66
83
101
122
152
192
236
280
318
343
352
344
316
264
192
110
32
-31
-72
-102
-126
-140
-144
-142
-137
-133
-131
-128
-122
-114
-105
-97
-94
-92
-87
-80
-75
-75
-77
-76
-72
-69
-69
-70
-69
-67
-65
-62
-58
-52
-49
-48
-47
-43
-39
-39
-38
-32
-25
-23
-22
-18
-14
-13
-11
-5
-1
1
5
10
14
15
16
16
16
12
10
19
39
59
77
89
86
70
58
54
55
55
55
57
49
20
