# session 5
19
45
-52
59
504
840
823
726
713
672
610
607
593
532
498
426
367
753
1436
1365
408
-185
55
334
303
275
298
264
239
242
225
209
209
209
209
213
216
225
244
266
286
300
297
269
234
204
166
107
39
-28
-86
-130
-167
-193
-202
-211
-227
-235
-234
-242
-249
-253
-265
-282
-283
-275
-275
-277
-258
-220
-201
-209
-222
-235
-243
-225
-211
-220
-213
-254
-249
224
923
773
-241
-781
-448
-116
-121
-127
-82
-86
-78
-53
-48
-39
-21
-3
25
56
72
93
132
185
236
267
273
267
251
225
197
153
83
8
-55
-107
-135
-141
-150
-151
-132
-136
-167
-165
-137
-145
-166
-156
-155
-175
-167
-146
-156
-148
-107
-93
-104
-108
-121
-120
-98
-96
-100
-148
-174
308
1176
1140
-93
-927
-588
-101
-57
-70
-22
-41
-45
-12
-19
-34
-21
1
21
37
55
92
136
174
222
268
272
248
230
214
186
143
75
-3
-61
-99
-126
-128
-118
-122
-125
-106
-90
-98
-115
-122
-119
-114
-114
-118
-118
-120
-119
-87
-48
-51
-74
-83
-85
-63
-32
-27
-16
-51
-97
317
1143
1184
76
-719
-416
42
59
17
78
101
112
132
131
141
169
188
202
216
231
255
283
313
350
376
390
399
392
354
302
255
210
148
77
26
-18
-71
-89
-66
-67
-100
-123
-133
-144
-154
-167
-184
-197
-211
-227
-234
-225
-204
-184
-178
-181
-186
-207
-219
-194
-186
-205
-208
-264
-236
268
880
601
-347
-714
-375
-161
-204
-188
-149
-160
-147
-129
-139
-130
-99
-79
-67
-53
-34
-7
23
58
94
115
119
119
115
101
75
29
-38
-101
-148
-188
-205
-194
-177
-168
-169
-171
-162
-152
-157
-164
-166
-162
-149
-131
-114
-87
-49
-13
9
4
-19
-43
-60
-55
-51
-76
-81
-109
-170
178
1010
1217
215
-725
-611
-135
11
16
48
49
57
82
92
107
133
143
151
176
209
238
270
311
353
398
448
471
446
403
370
325
239
131
33
-36
-67
-54
-33
-48
-74
-69
-51
-40
-26
-20
-25
-15
-9
-26
-34
-20
-8
8
31
36
20
-6
-20
8
21
-32
-58
-79
-140
220
1099
1290
181
-823
-676
-196
-124
-165
-111
-97
-124
-137
-140
-123
-97
-88
-81
-65
-41
-3
46
96
142
170
176
179
177
146
91
34
-22
-84
-137
-174
-208
-233
-231
-210
-195
-188
-182
-170
-152
-148
-171
-196
-199
-197
-200
-200
-191
-172
-147
-133
-141
-175
-208
-184
-138
-135
-130
-158
-170
300
1111
1036
-100
-765
-405
-49
-96
-107
-45
-49
-37
-14
-28
-23
1
15
42
71
83
121
190
241
271
305
322
311
295
276
242
197
135
50
-10
-11
-16
-67
-100
-81
-69
-85
-92
-90
-99
-112
-115
-113
-113
-117
-124
-139
-152
-131
-89
-84
-113
-133
-142
-134
-117
-136
-145
-137
-184
44
806
1190
365
-654
-673
-222
-99
-122
-69
-60
-61
-14
8
13
42
43
17
40
97
119
134
197
260
275
289
322
316
268
238
222
162
65
-10
-46
-60
-61
-59
-57
-39
-24
-42
-63
-49
-22
-16
-34
-62
-75
-65
-54
-56
-45
-15
-9
-41
-65
-77
-100
-94
-77
-99
-100
-114
-147
239
1033
1096
61
-708
-472
-84
-59
-72
-34
-58
-76
-61
-58
-50
-32
-20
-1
34
71
104
133
163
203
239
255
258
248
225
210
200
156
81
23
-3
-8
-14
-40
-58
-40
-20
-29
-39
-34
-34
-44
-56
-69
-86
-102
-107
-97
-70
-47
-55
-89
-121
-144
-141
-124
-144
-168
-171
-235
-153
384
817
331
-526
-682
-325
-176
-211
-186
-169
-187
-180
-170
-172
-166
-160
-151
-127
-102
-78
-44
-1
51
105
140
160
181
189
176
158
122
55
-13
-56
-81
-92
-93
-98
-97
-78
-62
-65
-69
-60
-54
-60
-62
-59
-60
-57
-46
-35
-22
-3
7
5
-14
-37
-26
-5
-31
-38
-34
-88
175
946
1230
309
-689
-652
-173
-27
-39
8
17
2
23
45
52
57
68
88
110
136
180
221
253
303
353
359
352
363
350
299
247
180
77
-16
-67
-105
-131
-127
-119
-128
-138
-132
-117
-110
-120
-134
-140
-145
-153
-156
-159
-168
-154
-114
-100
-122
-140
-146
-139
-121
-129
-126
-131
-210
38
913
1364
405
-810
-846
-276
-89
-121
-73
-56
-64
-37
-31
-34
-9
13
26
53
82
112
157
209
258
298
316
312
296
267
227
177
101
13
-52
-90
-124
-142
-132
-122
-117
-104
-90
-89
-88
-87
-89
-85
-81
-92
-104
-104
-91
-74
-65
-66
-45
-2
6
-30
-66
-82
-67
-79
-144
85
801
1157
436
-455
-464
-51
62
28
73
99
97
120
149
171
180
172
159
130
109
138
179
186
194
225
244
220
145
56
38
56
-35
-211
-307
-345
-460
-577
-571
-505
-460
-426
-414
-437
-440
-384
-281
-162
-90
-83
-58
13
44
-34
-195
-335
-358
-308
-271
-220
-180
-217
-285
-398
-390
163
817
455
-627
-1029
-575
-125
-16
-38
66
314
373
143
-27
-46
-103
-129
-15
129
265
367
270
57
66
340
595
647
563
483
414
313
239
178
20
-131
-115
-75
-146
-200
-166
-123
-80
1
82
83
44
172
450
534
386
316
302
157
35
105
304
454
319
-24
-79
198
240
106
506
1138
907
18
-363
-128
95
207
282
218
107
87
167
331
418
298
228
371
467
395
266
111
71
200
221
233
522
601
132
-222
-155
-151
-258
-235
-240
-351
-391
-387
-417
-412
-433
-581
-733
-755
-739
-796
-889
-979
-1050
-1012
-867
-851
-1038
-1135
-1016
-911
-856
-730
-612
-524
-397
-379
-320
316
1127
967
2
-523
-353
-88
68
128
64
55
145
157
161
269
298
222
244
306
308
389
504
524
620
776
697
508
511
603
636
634
512
239
16
-56
-127
-230
-180
-26
-90
-323
-313
-51
68
-64
-202
-175
-35
77
73
4
-14
-11
-111
-236
-172
-20
-70
-250
-345
-361
-79
653
992
237
-661
-663
-247
-93
-72
-15
-8
-20
94
360
562
491
300
241
291
332
303
226
242
385
492
498
512
559
570
529
463
370
285
267
271
233
223
308
435
509
448
286
174
128
22
-150
-270
-315
-336
-320
-239
-212
-388
-597
-582
-505
-608
-703
-577
-415
-462
-540
-152
556
554
-418
-1183
-1060
-760
-828
-924
-797
-708
-783
-793
-664
-572
-504
-336
-150
1
188
334
355
386
513
637
702
722
730
766
747
567
355
293
286
185
97
136
167
96
58
129
177
138
87
55
48
67
10
-125
-129
43
163
139
89
47
-54
-166
-162
-132
-311
-388
240
1048
774
-406
-1092
-852
-396
-223
-282
-370
-369
-285
-168
-104
-151
-206
-171
-96
-12
73
90
49
38
59
72
83
132
246
349
325
229
180
149
110
98
49
-45
1
187
254
171
183
362
484
357
136
133
303
362
309
283
231
119
62
76
63
-23
-138
-221
-294
-319
-25
514
523
-313
-1097
-1070
-629
-390
-354
-328
-318
-343
-304
-179
-101
-133
-202
-258
-290
-263
-168
-49
34
74
117
171
208
245
278
224
69
-76
-152
-205
-265
-310
-332
-333
-340
-398
-478
-501
-457
-367
-228
-84
-21
-11
85
301
469
447
330
302
382
428
374
331
387
413
425
883
1718
1827
809
-146
-194
137
310
398
433
359
319
353
274
77
4
90
119
30
-3
91
200
284
381
455
459
410
320
225
155
65
-47
-143
-265
-394
-382
-272
-284
-403
-430
-365
-334
-348
-370
-414
-456
-446
-423
-438
-465
-485
-539
-649
-790
-873
-807
-673
-586
-527
-568
-641
-153
876
1102
37
-830
-606
-181
-88
58
152
-65
-226
-200
-281
-266
105
402
317
188
246
340
371
382
416
494
549
488
392
385
361
191
12
-27
-4
-50
-149
-196
-167
-138
-149
-163
-182
-238
-259
-166
-80
-155
-280
-294
-286
-303
-186
-21
-107
-360
-428
-298
-201
-215
-305
-171
576
1313
857
-379
-870
-485
-163
-104
-42
-17
-45
-18
12
-8
1
56
98
126
160
201
297
494
692
737
724
851
928
749
638
733
634
352
280
330
257
201
258
264
164
107
154
169
110
132
189
93
-13
23
-7
-173
-230
-133
-90
-156
-178
-147
-216
-304
-296
-319
-110
632
968
58
-955
-890
-462
-441
-424
-235
-221
-330
-337
-314
-306
-296
-353
-375
-226
-93
-142
-226
-262
-306
-336
-347
-368
-315
-168
-56
-44
-84
-126
-133
-96
-70
-97
-137
-97
19
122
167
135
51
49
152
224
243
258
245
239
273
271
216
171
141
107
60
13
-36
-51
258
952
1135
228
-681
-587
-120
43
154
265
125
-76
-97
-94
-207
-284
-177
-7
44
20
26
69
172
287
258
149
161
235
205
122
76
11
-120
-218
-224
-232
-271
-234
-165
-191
-237
-231
-258
-305
-294
-283
-308
-306
-263
-203
-158
-160
-174
-180
-183
-108
24
97
183
253
160
305
958
1196
421
-293
-121
236
204
125
192
215
179
197
213
105
-53
-89
-21
-18
-139
-262
-229
-71
47
139
305
451
495
515
466
267
101
111
60
-197
-373
-287
-172
-223
-336
-361
-299
-249
-263
-279
-240
-208
-208
-184
-172
-219
-217
-142
-136
-198
-200
-152
-125
-205
-368
-155
637
1026
212
-831
-859
-256
-28
-206
-264
-144
-54
64
208
207
185
289
258
45
41
328
560
564
510
575
684
666
570
519
493
433
293
94
-49
-138
-216
-183
-103
-161
-210
-56
127
155
96
29
-46
-132
-224
-278
-264
-197
-105
-90
-218
-293
-184
-118
-235
-399
-463
-145
624
966
220
-670
-690
-315
-226
-253
-189
-164
-217
-269
-283
-279
-301
-338
-317
-219
-125
-80
-74
-95
-35
166
281
198
171
235
222
243
287
132
-19
59
89
-10
13
89
53
37
104
120
83
85
106
99
69
33
19
1
-111
-260
-281
-252
-335
-374
-235
-134
23
683
1395
1063
-74
-658
-375
-33
-46
-163
-125
27
83
-25
-163
-157
36
174
32
-155
-99
40
88
170
286
278
232
308
385
339
243
110
-67
-186
-230
-268
-304
-338
-345
-287
-262
-301
-211
-18
23
-14
51
83
48
120
202
177
190
221
147
109
189
236
176
113
379
1084
1386
572
-464
-628
-262
-76
-53
11
66
3
-118
-124
-11
78
114
152
176
157
117
107
136
126
73
110
188
119
-9
-19
-13
-92
-198
-325
-442
-429
-347
-338
-365
-374
-406
-427
-390
-368
-398
-392
-320
-264
-252
-238
-245
-314
-364
-311
-198
-125
-113
-114
-191
-334
-52
787
1129
353
-480
-494
-167
-2
8
-71
-50
130
204
122
41
-20
5
144
209
170
199
280
292
291
359
428
411
340
292
263
206
61
-214
-444
-366
-91
32
-12
-13
15
-11
-40
-52
-68
-44
-8
-53
-153
-205
-164
-84
-112
-268
-348
-304
-275
-238
-207
-231
102
882
1037
51
-830
-710
-294
-185
-127
-3
32
22
41
39
21
39
76
91
87
115
211
329
402
427
472
575
640
579
494
465
388
259
205
205
174
156
173
169
148
151
189
249
261
179
127
196
246
207
192
178
116
120
124
-2
-88
-144
-385
-438
-77
-8
-343
-353
-299
-685
-838
-438
-177
-221
-236
-226
-199
-109
-104
-168
-141
-98
-105
-47
59
125
182
177
32
-76
22
154
128
40
26
37
-26
-146
-243
-272
-242
-226
-282
-347
-364
-405
-466
-414
-272
-215
-258
-270
-232
-232
-264
-262
-251
-252
-195
-122
-139
-143
-102
-124
145
927
1261
403
-639
-738
-268
25
100
48
-277
-644
-494
4
78
-360
-696
-548
-24
455
579
537
584
658
701
758
796
796
788
737
619
484
379
281
160
68
33
-24
-102
-99
-49
-38
-30
-21
-81
-182
-235
-225
-212
-230
-242
-237
-273
-317
-300
-285
-276
-275
-373
-180
687
1227
439
-615
-678
-303
-200
-155
-82
-88
-34
85
123
118
145
189
225
254
294
344
381
430
499
538
545
557
559
518
451
372
282
187
80
-42
-149
-212
-229
-209
-186
-203
-244
-268
-254
-208
-176
-191
-219
-217
-213
-238
-267
-246
-187
-189
-227
-203
-201
-85
569
1271
890
-227
-663
-315
-75
-90
-66
-37
-63
-77
-93
-131
-147
-137
-133
-140
-151
-170
-191
-178
-120
-56
-14
-2
-11
-17
-31
-96
-181
-239
-297
-339
-299
-231
-213
-190
-118
-52
-23
-6
16
22
4
12
66
101
85
71
72
48
16
29
44
19
-10
-70
-61
352
926
765
-118
-625
-432
-232
-268
-252
-196
-222
-231
-190
-175
-137
-52
-6
11
59
88
93
156
254
328
402
460
454
423
410
385
312
201
91
5
-56
-93
-117
-137
-134
-108
-87
-88
-94
-78
-62
-87
-115
-90
-49
-63
-122
-158
-155
-180
-214
-202
-256
-253
305
1088
886
-276
-937
-633
-244
-190
-187
-129
-100
-91
-61
-22
-5
29
141
271
333
350
357
382
473
584
616
596
589
569
529
492
408
259
137
82
57
51
16
-88
-170
-179
-197
-222
-204
-195
-216
-189
-132
-145
-217
-252
-247
-278
-318
-321
-334
-340
-347
-387
-59
808
1162
309
-566
-468
-117
-128
-139
-40
-69
-128
-71
1
4
-22
-15
38
73
67
87
135
141
136
166
166
98
21
-48
-129
-202
-260
-316
-348
-345
-344
-363
-367
-346
-334
-333
-323
-295
-244
-172
-108
-67
-23
38
67
36
5
30
78
115
151
138
67
253
860
1188
597
-242
-386
-57
103
69
43
4
-63
-98
-98
-104
-114
-109
-66
22
96
101
