# session 9
30
45
34
23
86
189
224
208
159
72
46
34
-17
315
1033
1043
30
-696
-487
-159
-147
-154
-129
-150
-148
-144
-152
-105
-52
-20
30
-7
-165
-198
-35
82
76
70
78
68
67
53
-9
-83
-128
-147
-155
-172
-217
-287
-353
-368
-345
-390
-513
-576
-543
-520
-526
-505
-469
-435
-395
-388
-440
-461
-373
-301
-282
113
940
1135
178
-693
-550
-116
-32
-24
35
14
19
109
143
92
36
11
39
117
199
249
276
320
394
437
409
369
364
345
255
137
66
35
5
0
37
51
14
-10
2
0
-31
-61
-72
-75
-90
-102
-89
-75
-41
55
82
-25
-36
32
-20
246
1016
1170
186
-644
-519
-135
14
69
75
60
89
98
85
114
159
173
175
256
422
473
350
273
311
333
331
360
369
325
262
204
140
45
-46
-67
-33
-33
-61
-29
37
29
-16
10
54
47
41
25
-60
-124
-75
-30
-90
-137
-74
-84
-203
71
798
972
175
-524
-435
-137
-62
-21
64
88
53
44
73
40
-68
-154
-221
-301
-331
-305
-284
-251
-199
-188
-222
-258
-288
-316
-345
-377
-380
-343
-317
-314
-277
-217
-196
-201
-189
-176
-165
-133
-116
-134
-128
-81
-73
-119
-137
-117
-142
-198
-171
-147
-206
49
724
888
81
-657
-619
-404
-433
-443
-360
-331
-359
-372
-310
-189
-110
-80
-25
43
92
163
264
354
415
449
464
471
460
416
340
252
187
156
134
116
128
154
130
36
-57
-102
-145
-212
-240
-208
-170
-138
-105
-140
-242
-270
-233
-249
-247
-241
-299
53
935
1151
111
-832
-713
-257
-94
-43
-15
-65
-87
-27
31
43
31
22
24
41
69
100
217
491
774
877
848
793
700
597
531
438
313
253
257
274
330
393
386
357
356
324
273
296
334
297
262
261
181
26
-76
-132
-247
-377
-382
-369
-397
11
857
945
-145
-994
-765
-326
-261
-231
-130
-113
-116
-98
-101
-89
-66
-65
-30
26
46
107
151
-59
-359
-301
35
227
229
190
117
61
57
15
-52
-58
-48
-64
-64
-65
-88
-94
-86
-97
-114
-128
-142
-147
-167
-223
-261
-238
-241
-335
-425
-468
-516
-322
283
590
-22
-774
-748
-365
-275
-322
-282
-248
-228
-186
-178
-202
-212
-215
-223
-227
-211
-168
-119
-80
-45
-27
-38
-47
-34
-30
-84
-162
-180
-157
-172
-183
-137
-108
-100
-26
28
-42
-116
-82
-21
-1
23
77
91
31
3
57
81
45
66
108
18
35
572
1147
812
-108
-434
-102
120
96
97
137
157
165
155
145
145
145
166
209
238
273
351
429
462
466
461
464
480
464
387
299
230
156
84
44
36
45
54
54
49
46
41
36
30
32
50
59
51
45
17
-38
-53
-50
-85
-104
-154
-190
273
1127
1118
-62
-927
-704
-268
-188
-179
-137
-151
-145
-99
-96
-115
-91
-44
-13
23
81
135
177
224
266
275
249
209
153
70
-22
-97
-159
-203
-211
-207
-216
-217
-211
-226
-249
-241
-211
-205
-225
-226
-202
-196
-208
-219
-230
-228
-212
-223
-220
-187
-240
-118
559
1091
497
-540
-752
-375
-219
-243
-216
-212
-224
-210
-219
-219
-180
-160
-156
-118
-70
-37
9
72
116
126
124
127
128
112
85
59
41
36
50
69
82
95
110
116
101
77
67
75
83
84
83
77
67
55
19
-24
-31
-30
-51
-63
-122
-129
296
882
689
-167
-542
-279
-121
-189
-191
-171
-191
-178
-150
-138
-105
-55
-10
38
94
152
217
282
336
373
382
364
344
329
294
230
163
122
110
100
76
56
44
23
-1
-12
-23
-29
-16
-4
-4
1
6
6
-9
-48
-72
-63
-76
-92
-105
-172
16
704
1068
314
-672
-754
-344
-203
-220
-174
-162
-180
-164
-155
-155
-131
-103
-81
-49
-13
22
67
120
160
172
158
137
117
77
22
-33
-97
-152
-163
-166
-188
-181
-164
-197
-230
-207
-187
-203
-219
-219
-200
-165
-147
-145
-139
-139
-129
-113
-119
-106
-137
-192
231
1090
1123
-31
-854
-568
-119
-67
-56
11
14
14
37
45
65
95
120
159
193
220
266
315
343
367
372
341
305
279
232
160
98
57
26
13
20
23
15
14
18
10
-3
-12
-24
-42
-45
-25
-3
3
-8
-38
-66
-65
-78
-106
-92
-146
-216
214
997
957
-47
-649
-381
-97
-119
-119
-80
-94
-85
-66
-68
-46
-16
-17
-13
13
32
55
94
120
129
137
139
131
121
99
60
27
7
-5
4
20
16
2
-2
-2
-7
-15
-26
-32
-30
-34
-44
-52
-62
-90
-136
-167
-171
-185
-203
-237
-312
-184
326
608
79
-607
-617
-288
-197
-232
-206
-194
-198
-178
-170
-173
-155
-133
-120
-102
-73
-31
22
73
115
144
145
125
115
109
77
22
-25
-43
-46
-61
-80
-75
-65
-75
-94
-106
-107
-91
-75
-71
-50
-14
2
3
5
-9
-10
20
31
25
2
-83
87
760
1135
431
-492
-537
-118
22
-6
21
36
33
40
27
15
36
70
94
117
150
191
231
276
309
311
304
307
293
242
172
117
80
44
8
-9
-11
-19
-29
-37
-62
-102
-118
-99
-87
-110
-132
-126
-104
-77
-70
-115
-144
-106
-100
-134
-153
-231
-91
617
1068
288
-801
-851
-316
-124
-150
-96
-67
-81
-60
-29
-16
-8
13
63
116
146
172
212
254
278
282
280
285
274
223
153
96
46
-13
-55
-55
-38
-37
-40
-34
-40
-60
-68
-62
-65
-79
-75
-48
-28
-32
-49
-75
-90
-71
-69
-99
-122
-211
-183
389
1020
624
-420
-737
-328
-116
-178
-164
-126
-138
-124
-104
-104
-87
-61
-43
-20
6
28
62
110
142
139
125
118
107
80
44
0
-52
-88
-96
-92
-94
-94
-85
-79
-85
-97
-100
-95
-94
-89
-66
-38
-32
-39
-47
-71
-85
-64
-65
-100
-124
-190
-151
335
854
535
-285
-519
-210
-67
-107
-81
-65
-83
-56
-21
-15
3
29
48
72
106
141
178
216
237
243
252
254
224
178
134
82
24
-16
-38
-57
-72
-84
-97
-105
-109
-123
-139
-141
-137
-136
-130
-117
-107
-104
-107
-119
-130
-126
-128
-140
-132
-175
-229
71
649
654
-92
-582
-359
-62
-44
-50
-5
2
9
36
48
67
100
115
131
171
212
241
275
310
335
349
340
312
296
278
214
125
74
60
36
6
-1
3
-9
-31
-39
-44
-63
-73
-61
-65
-84
-70
-39
-45
-75
-91
-88
-88
-107
-112
-129
-232
-102
582
1042
356
-680
-792
-311
-113
-136
-108
-109
-126
-88
-58
-53
-32
-16
-11
20
74
121
171
221
244
240
233
224
199
151
84
15
-35
-68
-100
-125
-131
-126
-128
-141
-145
-136
-145
-167
-164
-152
-166
-173
-146
-123
-127
-150
-173
-162
-148
-165
-162
-199
-263
101
863
899
-130
-862
-581
-162
-128
-132
-76
-89
-91
-48
-32
-22
7
25
52
100
137
166
216
265
281
278
271
254
223
177
120
64
17
-10
-17
-20
-24
-20
-23
-42
-52
-44
-42
-52
-63
-70
-62
-40
-25
-25
-42
-71
-70
-46
-58
-77
-98
-202
-108
521
1012
490
-405
-528
-141
-9
-54
-19
0
-19
1
22
31
61
90
100
127
171
198
224
277
326
331
306
279
251
213
166
112
66
37
18
2
-9
-17
-29
-45
-55
-63
-78
-94
-99
-100
-102
-91
-73
-71
-86
-112
-135
-136
-133
-140
-148
-234
-309
22
613
571
-195
-642
-407
-160
-173
-179
-142
-149
-147
-126
-123
-117
-92
-66
-39
-10
20
56
100
146
172
169
154
135
109
74
32
-16
-56
-82
-107
-129
-136
-129
-124
-131
-133
-122
-129
-151
-150
-133
-127
-111
-76
-55
-68
-96
-112
-99
-94
-105
-96
-157
-228
148
856
828
-128
-736
-442
-64
-42
-61
-15
-19
-29
-5
16
34
59
79
102
142
189
229
273
321
343
328
308
294
261
203
144
88
39
15
6
-14
-28
-22
-20
-32
-37
-40
-50
-48
-39
-48
-60
-53
-42
-36
-23
-23
-52
-48
-11
-26
-48
-60
-168
-43
688
1170
406
-689
-750
-219
-44
-85
-32
-10
-36
-16
12
22
37
52
74
111
150
190
229
262
290
301
285
259
227
177
113
44
-18
-53
-71
-95
-108
-102
-102
-111
-114
-121
-135
-136
-129
-133
-146
-153
-134
-107
-101
-111
-129
-148
-142
-131
-145
-150
-212
-295
55
785
815
-144
-806
-532
-152
-140
-161
-114
-120
-120
-92
-86
-76
-45
-21
2
40
78
113
157
204
230
223
199
181
162
125
71
17
-17
-30
-36
-45
-54
-60
-61
-62
-65
-71
-79
-89
-92
-90
-85
-73
-51
-38
-41
-52
-70
-85
-77
-71
-76
-84
-169
-201
230
854
702
-164
-578
-284
-42
-69
-68
-28
-32
-22
2
9
21
44
67
94
123
151
192
241
269
274
273
261
236
211
171
107
56
31
5
-19
-26
-31
-42
-44
-46
-59
-72
-79
-89
-100
-106
-106
-101
-84
-60
-54
-72
-96
-114
-115
-103
-104
-110
-158
-263
-99
497
772
147
-567
-525
-175
-93
-109
-69
-73
-83
-48
-30
-29
-6
18
38
71
109
147
189
235
276
286
263
251
254
219
143
74
31
-5
-34
-48
-54
-62
-72
-84
-92
-95
-98
-109
-123
-128
-123
-122
-132
-133
-107
-84
-95
-120
-133
-126
-115
-129
-133
-134
-231
-144
525
1083
485
-622
-846
-363
-112
-129
-98
-69
-77
-57
-38
-30
4
38
47
70
123
173
217
280
337
345
322
304
282
233
162
86
20
-13
-17
-35
-73
-86
-64
-53
-72
-92
-93
-84
-80
-82
-87
-99
-116
-113
-80
-53
-57
-79
-94
-83
-60
-77
-92
-73
-151
-126
482
1128
647
-505
-829
-338
-49
-68
-36
-7
-32
-9
24
29
52
83
97
125
168
205
242
284
314
322
309
287
262
226
168
93
30
-6
-26
-39
-44
-46
-54
-61
-61
-66
-79
-88
-98
-106
-107
-118
-137
-134
-112
-101
-100
-106
-129
-147
-137
-136
-149
-165
-257
-228
325
932
582
-381
-687
-314
-104
-143
-122
-90
-101
-85
-61
-52
-33
-9
16
50
79
109
153
199
226
237
236
222
190
144
96
50
6
-23
-34
-50
-69
-71
-67
-75
-87
-93
-102
-112
-113
-117
-127
-133
-132
-130
-112
-93
-96
-112
-127
-147
-151
-139
-128
-115
-172
-240
74
679
669
-129
-640
-404
-110
-110
-125
-83
-83
-77
-36
-12
-2
24
61
95
120
148
199
258
299
325
340
326
299
283
249
166
78
38
22
-8
-36
-37
-32
-43
-55
-59
-67
-77
-81
-83
-87
-86
-88
-104
-109
-80
-53
-57
-69
-88
-114
-109
-95
-92
-97
-196
-176
449
1171
762
-443
-882
-421
-93
-89
-37
14
-25
-35
-14
-26
-26
17
54
77
123
184
236
292
354
372
342
320
310
259
176
105
33
-42
-71
-68
-83
-104
-110
-111
-110
-115
-132
-141
-130
-122
-120
-108
-99
-109
-112
-93
-82
-86
-102
-128
-118
-78
-86
-88
-73
-159
0
745
1148
293
-774
-773
-259
-93
-91
-31
-44
-67
-20
-6
-30
-3
56
82
91
126
187
245
280
298
309
300
260
214
178
126
47
-24
-61
-72
-87
-109
-107
-91
-97
-111
-105
-97
-114
-130
-131
-141
-166
-173
-149
-125
-130
-143
-151
-173
-189
-170
-171
-184
-185
-285
-262
350
1022
679
-275
-565
-234
-89
-146
-123
-93
-104
-78
-51
-55
-40
7
50
88
139
200
259
315
359
383
387
375
351
322
281
224
169
130
103
91
85
74
57
32
-1
-28
-46
-58
-65
-75
-98
-114
-109
-104
-109
-116
-129
-154
-184
-205
-200
-194
-207
-208
-252
-302
0
567
539
-243
-748
-538
-266
-257
-258
-220
-217
-193
-154
-152
-147
-106
-63
-39
-18
23
95
184
251
273
274
286
286
246
184
130
83
35
-1
-20
-34
-40
-21
-1
-17
-40
-32
-17
-23
-26
-15
-12
-20
-23
-4
24
25
6
3
-5
-22
-6
2
-20
-12
-58
-32
556
1325
1020
-196
-767
-379
-31
-31
-28
5
-15
-9
22
15
2
19
44
66
106
170
223
261
309
341
319
277
248
194
101
14
-53
-122
-178
-198
-193
-185
-181
-173
-156
-147
-155
-160
-148
-160
-205
-217
-185
-168
-162
-137
-130
-151
-169
-188
-191
-169
-168
-171
-200
-293
-23
825
1156
180
-859
-774
-270
-147
-147
-87
-112
-147
-101
-55
-27
8
17
7
45
128
183
200
220
246
261
271
270
241
190
125
60
18
-7
-39
-66
-72
-71
-71
-70
-69
-64
-63
-81
-108
-113
-99
-95
-79
-25
5
-28
-32
13
-9
-71
-46
-1
-15
-36
-109
-85
474
1158
840
-228
-646
-272
-15
-29
-3
13
-14
20
61
53
58
83
119
176
208
197
228
318
386
399
385
350
294
231
166
101
45
-5
-47
-68
-73
-76
-70
-53
-52
-63
-51
-37
-57
-84
-83
-82
-90
-74
-38
-27
-45
-65
-80
-94
-101
-104
-104
-90
-126
-152
201
813
756
-137
-724
-500
-200
-215
-253
-223
-228
-234
-209
-180
-148
-110
-71
-35
-3
35
84
127
162
196
207
187
155
117
65
7
-62
-135
-170
-171
-182
-196
-187
-185
-207
-216
-201
-199
-222
-233
-220
-207
-204
-203
-186
-158
-152
-163
-157
-151
-163
-152
-139
-145
-115
-140
-150
364
1161
980
-182
-765
-373
-47
-85
-62
8
-19
-25
14
16
13
57
116
146
169
221
289
344
389
418
406
358
312
275
219
136
56
-6
-55
-73
-54
-38
-33
-17
4
13
33
63
70
61
61
61
56
51
