# session 2
14
78
-110
2
742
1399
1427
1262
1273
1265
1161
1105
1086
1027
958
921
885
853
809
703
847
1558
2013
1224
38
-145
326
487
416
425
405
350
348
333
285
265
264
250
236
222
209
204
197
186
185
192
194
199
218
230
223
216
212
194
168
131
61
-25
-93
-147
-204
-251
-277
-286
-282
-284
-303
-311
-297
-291
-306
-322
-320
-309
-304
-312
-317
-316
-319
-323
-324
-329
-332
-326
-323
-329
-329
-313
-305
-315
-325
-319
-311
-312
-303
-269
-238
-234
-243
-243
-240
-251
-251
-219
-211
-223
-199
-215
-114
520
1176
722
-426
-777
-316
-68
-123
-87
-40
-75
-68
-31
-32
-33
-11
15
36
43
42
60
87
100
117
146
168
184
204
222
241
266
280
273
260
244
208
148
85
40
0
-43
-70
-74
-69
-59
-45
-39
-37
-25
-14
-22
-33
-31
-21
-14
-13
-12
-11
-19
-21
-4
1
-27
-51
-47
-37
-32
-23
-16
-12
-3
3
-2
-1
7
3
-6
4
18
12
-5
-9
-1
6
12
27
37
29
15
13
22
38
50
57
74
88
69
39
34
32
25
39
42
28
30
-13
58
623
1246
920
-60
-431
-115
74
30
37
44
10
17
34
27
20
10
1
21
58
85
100
106
115
127
126
122
134
146
147
147
137
98
54
26
10
-6
-31
-75
-122
-155
-182
-210
-221
-210
-193
-187
-194
-196
-183
-174
-176
-176
-177
-186
-188
-181
-180
-181
-177
-173
-172
-167
-161
-160
-166
-169
-165
-160
-158
-149
-135
-132
-135
-132
-129
-128
-118
-103
-102
-105
-97
-84
-74
-65
-57
-39
2
41
55
65
86
93
85
87
86
64
47
59
77
80
82
86
84
84
82
52
10
-8
-6
-10
-10
-1
-2
-12
-9
-2
-8
-11
-1
11
32
65
85
90
96
83
46
25
26
17
18
41
38
37
44
0
201
919
1356
644
-392
-517
-75
92
55
84
95
68
77
87
82
94
108
112
123
134
126
115
119
125
122
127
142
136
118
140
199
238
233
213
201
182
150
113
68
5
-64
-116
-139
-148
-163
-186
-193
-185
-179
-178
-176
-173
-170
-162
-153
-153
-159
-158
-153
-156
-164
-166
-162
-158
-156
-162
-171
-167
-155
-155
-163
-162
-161
-158
-147
-142
-144
-142
-138
-142
-141
-132
-126
-123
-115
-100
-94
-97
-100
-97
-92
-93
-98
-96
-88
-83
-71
-40
-13
-15
-19
-6
-5
-25
-34
-34
-39
-29
-25
-36
-23
-45
-6
473
1111
931
18
-438
-180
38
8
7
30
11
14
34
38
45
54
54
60
69
75
84
95
107
120
134
153
178
201
223
246
265
279
287
280
260
241
212
151
79
21
-21
-52
-76
-93
-98
-93
-88
-85
-77
-68
-64
-59
-56
-59
-63
-66
-73
-76
-73
-76
-85
-81
-72
-73
-77
-71
-66
-72
-76
-71
-65
-61
-64
-70
-68
-55
-47
-56
-63
-53
-46
-53
-54
-43
-39
-41
-39
-37
-41
-38
-31
-29
-30
-30
-30
-32
-35
-36
-32
-16
14
37
32
15
12
6
-15
-30
-38
-41
-29
-32
-43
-37
-78
-11
494
1029
722
-136
-445
-159
12
-27
-27
-12
-20
-8
-1
-7
6
20
21
30
42
48
59
72
79
88
99
111
129
150
170
190
207
217
223
226
216
186
142
90
32
-28
-84
-126
-145
-155
-169
-174
-164
-154
-151
-144
-140
-141
-136
-128
-126
-120
-113
-120
-128
-118
-105
-107
-112
-108
-103
-103
-105
-104
-102
-101
-100
-98
-97
-98
-98
-92
-83
-81
-81
-73
-64
-67
-70
-60
-53
-54
-54
-51
-53
-53
-47
-49
-54
-49
-49
-55
-46
-26
-12
8
28
16
-13
-20
-24
-28
-19
-24
-29
-22
-55
85
665
1101
605
-259
-431
-102
26
-16
9
28
8
15
30
34
39
41
45
59
69
73
83
97
113
126
138
158
184
206
227
254
278
289
289
289
284
257
202
140
84
30
-21
-55
-72
-87
-97
-92
-84
-87
-85
-71
-66
-71
-70
-62
-61
-66
-68
-67
-65
-68
-74
-76
-74
-77
-80
-76
-71
-74
-74
-72
-74
-76
-73
-70
-69
-70
-73
-77
-80
-87
-93
-90
-72
-49
-32
-23
-20
-34
-53
-58
-61
-62
-55
-66
-77
-80
-118
31
598
990
486
-324
-455
-142
-39
-85
-62
-53
-74
-61
-47
-53
-53
-46
-43
-36
-26
-20
-10
1
8
19
38
56
71
94
124
150
171
183
185
182
174
146
91
23
-45
-98
-130
-154
-175
-183
-183
-180
-167
-150
-141
-133
-121
-111
-101
-90
-84
-81
-76
-74
-79
-79
-75
-73
-68
-59
-55
-57
-54
-51
-56
-57
-45
-38
-43
-43
-34
-27
-23
-23
-28
-28
-15
7
34
58
58
29
9
11
7
2
16
5
-10
5
-33
61
649
1190
717
-295
-576
-181
43
14
30
51
29
32
48
46
51
68
76
78
83
93
102
110
123
141
161
188
213
229
251
287
317
322
314
312
301
254
169
81
11
-50
-100
-134
-161
-179
-171
-151
-148
-151
-137
-116
-107
-109
-112
-112
-109
-107
-104
-101
-104
-107
-104
-101
-104
-107
-108
-112
-117
-119
-119
-119
-122
-129
-137
-146
-151
-144
-128
-107
-86
-82
-108
-130
-126
-127
-132
-119
-125
-133
-120
-159
-9
663
1175
564
-498
-702
-266
-76
-117
-92
-70
-84
-69
-58
-61
-50
-40
-34
-19
-3
5
17
35
56
77
99
124
153
183
213
242
266
278
281
278
257
210
145
78
13
-45
-86
-108
-122
-128
-122
-111
-103
-98
-91
-81
-74
-70
-66
-55
-48
-49
-52
-51
-47
-46
-48
-47
-43
-40
-41
-42
-42
-42
-44
-43
-37
-33
-39
-45
-46
-46
-38
-20
3
25
36
20
-4
-5
-2
-14
-7
4
-17
-15
-21
-21
352
1048
1092
205
-444
-254
35
7
-28
9
-1
-7
14
10
6
21
31
31
33
39
47
61
78
90
96
110
138
163
184
210
230
236
240
239
219
188
141
69
-2
-45
-78
-114
-133
-135
-141
-148
-141
-141
-150
-143
-124
-120
-128
-134
-146
-154
-150
-151
-160
-163
-160
-155
-147
-138
-135
-139
-151
-167
-169
-154
-146
-146
-138
-133
-137
-130
-111
-100
-94
-86
-84
-88
-92
-95
-85
-60
-39
-22
-1
-6
-38
-49
-39
-41
-32
-18
-37
-40
-41
-65
227
910
1090
296
-446
-366
-60
-37
-66
-29
-26
-17
19
27
25
37
45
45
42
38
47
66
77
82
90
100
113
135
164
183
196
208
218
224
226
212
178
133
78
18
-30
-57
-71
-76
-74
-71
-64
-53
-54
-63
-60
-51
-52
-57
-61
-63
-54
-36
-28
-31
-30
-25
-25
-26
-20
-13
-11
-8
-8
-14
-14
-10
-10
-8
-4
-5
-9
-8
-6
-10
-15
-17
-20
-24
-29
-36
-40
-30
-12
-2
6
13
0
-29
-42
-47
-58
-51
-49
-73
-67
-79
-103
228
873
888
12
-621
-418
-88
-63
-77
-44
-57
-62
-44
-48
-47
-29
-24
-28
-19
-8
-2
4
15
33
54
73
93
119
149
180
209
223
225
231
237
216
167
117
61
-6
-61
-91
-121
-152
-162
-160
-157
-136
-98
-72
-61
-47
-25
-11
-15
-26
-28
-30
-43
-51
-49
-57
-72
-71
-67
-72
-65
-49
-50
-61
-60
-54
-49
-49
-54
-51
-42
-48
-60
-56
-52
-58
-67
-76
-75
-64
-66
-80
-83
-84
-94
-98
-90
-80
-71
-56
-41
-50
-83
-98
-97
-106
-99
-88
-114
-111
-102
-110
253
1018
1129
125
-737
-594
-172
-88
-92
-38
-32
-37
-14
-5
2
24
38
51
75
89
91
107
130
151
176
197
210
233
273
306
327
350
369
377
373
356
315
244
163
86
15
-45
-88
-113
-123
-124
-122
-115
-107
-106
-107
-97
-88
-88
-89
-84
-80
-77
-75
-83
-95
-96
-95
-101
-104
-101
-102
-104
-98
-94
-102
-113
-114
-108
-106
-102
-82
-54
-36
-41
-66
-86
-85
-88
-100
-84
-73
-100
-91
-93
-132
231
1029
1144
132
-694
-515
-115
-62
-74
-37
-53
-59
-35
-34
-31
-14
-8
0
16
21
26
46
66
77
95
123
150
177
213
249
274
289
301
305
295
262
202
121
42
-20
-68
-104
-128
-144
-152
-144
-134
-129
-116
-97
-87
-81
-69
-60
-54
-49
-49
-49
-41
-34
-37
-38
-31
-27
-28
-24
-19
-20
-27
-27
-20
-19
-21
-19
-21
-32
-46
-62
-79
-94
-101
-93
-73
-55
-46
-47
-63
-84
-89
-90
-104
-102
-86
-100
-107
-112
-123
169
827
999
225
-502
-415
-103
-88
-129
-90
-97
-115
-94
-85
-94
-94
-85
-71
-61
-55
-40
-27
-24
-1
30
35
45
91
121
126
162
219
238
229
224
216
184
134
67
-11
-76
-107
-118
-134
-150
-146
-125
-110
-113
-119
-116
-106
-95
-88
-91
-88
-74
-68
-62
-35
-9
-6
-5
10
24
30
39
47
44
36
32
28
10
-9
-19
-25
-25
-17
-4
15
35
35
7
-16
-17
-22
-29
-13
-19
-42
-31
-64
16
637
1318
913
-227
-622
-197
56
-6
-13
8
-11
1
18
14
27
47
53
63
78
90
103
115
125
138
158
187
216
236
258
286
306
312
308
294
263
207
127
42
-31
-92
-139
-169
-188
-196
-193
-189
-189
-184
-172
-160
-149
-142
-138
-133
-133
-136
-136
-141
-154
-158
-154
-159
-167
-166
-161
-164
-172
-174
-170
-175
-184
-187
-189
-190
-178
-156
-132
-107
-93
-107
-126
-118
-106
-117
-114
-101
-111
-101
-103
-102
283
1008
1047
68
-684
-483
-98
-60
-84
-44
-47
-53
-34
-27
-22
-8
-1
3
15
30
46
62
77
94
118
147
175
208
248
284
311
334
347
343
325
290
222
134
54
-8
-59
-97
-124
-140
-141
-134
-132
-130
-120
-105
-96
-94
-90
-80
-78
-80
-73
-66
-70
-70
-57
-53
-62
-69
-62
-47
-44
-57
-64
-58
-54
-58
-59
-59
-55
-32
-1
18
21
5
-17
-5
31
42
43
61
49
36
51
18
176
828
1282
652
-352
-515
-107
49
-2
9
15
4
31
49
58
74
34
-43
-59
-55
-120
-157
-82
-46
-118
-133
-41
16
20
66
166
269
334
359
374
381
385
405
392
292
157
72
55
73
84
95
132
139
62
0
10
-33
-118
-33
160
162
26
48
125
-20
-213
-218
-244
-413
-499
-512
-620
-702
-666
-687
-787
-805
-729
-669
-668
-682
-665
-637
-590
-504
-485
-554
-563
-563
-527
6
799
653
-465
-1117
-841
-504
-453
-402
-318
-226
-32
122
100
115
311
497
530
475
439
504
671
862
976
921
797
813
922
943
883
781
661
669
820
916
886
854
888
881
750
634
614
586
616
790
902
851
771
683
602
568
456
206
-89
-351
-444
-390
-541
-931
-1119
-1012
-958
-986
-861
-667
-629
-679
-677
-686
-747
-783
-814
-890
-948
-963
-997
-1075
-1065
-638
163
528
5
-683
-830
-590
-302
-127
-105
-140
-246
-357
-93
446
569
280
228
464
584
491
304
164
200
305
298
268
356
475
532
563
572
521
464
468
440
332
356
568
625
407
226
158
8
-190
-334
-445
-499
-543
-628
-569
-380
-395
-546
-471
-290
-306
-377
-295
-188
-193
-231
-214
-179
-198
-285
-354
-357
-358
-375
-366
-400
-476
-444
-374
-286
244
1054
1022
45
-541
-278
73
238
403
485
509
572
515
365
332
312
230
312
521
560
451
407
437
446
431
440
437
373
346
432
492
422
328
320
399
467
371
151
40
68
70
9
-61
-118
-123
-90
-139
-304
-398
-303
-248
-395
-478
-315
-153
-196
-352
-476
-467
-352
-340
-468
-500
-380
-302
-326
-403
-524
-579
-520
-500
-549
-591
-585
-237
468
670
-21
-643
-532
-182
-29
59
200
309
330
339
364
323
250
224
202
198
258
273
214
218
274
285
301
341
327
343
462
525
480
472
468
390
341
298
154
32
42
75
10
-172
-306
-211
-137
-354
-434
-131
-62
-393
-450
-185
-138
-279
-310
-257
-181
-100
-88
-132
-149
-110
-56
-84
-174
-178
-117
-179
-356
-447
-462
-550
-409
339
1004
581
-409
-731
-367
-6
121
109
223
587
653
183
12
408
457
55
56
389
402
238
234
247
220
261
265
192
215
307
305
290
347
322
202
155
120
-11
-113
-164
-286
-371
-350
-434
-606
-607
-514
-534
-574
-558
-539
-495
-446
-446
-432
-440
-535
-546
-406
-308
-290
-269
-305
-363
-306
-232
-276
-305
-243
-234
-320
-433
-491
-108
822
1275
499
-439
-414
33
176
223
336
368
432
646
832
837
698
571
598
686
635
524
541
571
482
445
516
495
417
445
434
334
379
463
286
39
34
129
136
121
95
-9
-75
-24
-20
-80
-18
28
-130
-247
-238
-323
-343
-204
-242
-356
-193
-86
-309
-448
-351
-329
-401
-413
-422
-456
-431
-385
-421
-503
-543
-597
-615
-244
405
441
-323
-825
-578
-269
-211
-61
170
239
238
317
427
491
450
312
197
79
-161
-303
-72
280
439
529
606
527
413
425
451
441
446
409
349
379
399
258
71
-11
-30
-37
-11
29
64
60
-15
-69
-68
-139
-238
-205
-167
-324
-520
-513
-422
-464
-476
-268
-100
-187
-307
-322
-328
-305
-256
-278
-292
-269
-261
72
806
1004
159
-730
-824
-552
-415
-384
-401
-413
-361
-332
-323
-230
-149
-186
-215
-112
57
154
178
273
427
377
130
89
365
598
604
536
506
502
496
455
385
313
230
112
-35
-123
-58
53
-18
-254
-387
-285
-91
13
25
77
197
239
155
93
84
29
