# session 10
20
57
-51
72
613
1089
1161
1091
1097
1088
1042
1016
990
962
959
961
951
948
958
972
988
1002
1002
972
904
822
739
647
547
454
374
315
279
253
228
210
194
169
146
126
98
66
44
23
-2
-20
-21
-14
-26
-62
-101
-138
-163
-157
-161
-191
-212
-279
-254
257
869
558
-424
-782
-423
-218
-276
-256
-214
-237
-228
-198
-194
-184
-159
-136
-106
-67
-32
2
42
82
101
86
51
13
-32
-78
-121
-169
-213
-232
-231
-231
-234
-233
-234
-239
-239
-235
-235
-237
-237
-232
-225
-214
-196
-176
-173
-193
-221
-240
-231
-208
-212
-220
-229
-325
-295
222
738
380
-454
-673
-335
-164
-197
-175
-147
-155
-140
-122
-120
-104
-79
-56
-29
1
40
91
140
176
196
198
190
179
149
99
49
13
-13
-29
-34
-27
-14
-5
-8
-13
-11
-5
4
7
9
24
44
54
71
92
88
66
59
53
47
59
61
59
44
-53
54
710
1204
591
-416
-555
-113
62
41
85
100
89
114
110
94
132
172
179
197
236
273
306
346
385
398
364
314
281
236
160
84
25
-27
-61
-73
-82
-88
-87
-88
-97
-115
-132
-127
-112
-124
-147
-150
-140
-131
-125
-130
-135
-136
-152
-164
-168
-184
-176
-207
-279
71
895
1016
-84
-990
-746
-235
-160
-180
-117
-113
-120
-91
-80
-73
-46
-15
17
48
86
147
215
254
262
262
249
205
141
79
8
-68
-120
-149
-169
-176
-174
-174
-165
-149
-145
-146
-136
-125
-123
-124
-126
-123
-103
-74
-64
-74
-81
-90
-101
-83
-70
-84
-88
-149
-155
349
1068
847
-235
-731
-329
-12
-51
-45
13
0
2
33
43
54
80
104
133
169
205
246
297
341
355
337
302
261
215
159
95
37
-3
-28
-39
-33
-23
-23
-22
-19
-29
-39
-34
-35
-51
-58
-50
-42
-29
-16
-27
-51
-69
-90
-101
-97
-107
-115
-146
-234
-51
597
913
250
-523
-493
-145
-91
-127
-77
-67
-82
-61
-48
-49
-31
-9
8
33
66
103
145
186
210
208
186
153
109
54
-5
-61
-109
-140
-156
-161
-160
-159
-160
-158
-156
-165
-177
-177
-175
-179
-175
-157
-140
-122
-108
-117
-138
-151
-159
-154
-143
-150
-148
-179
-265
-43
625
877
150
-589
-482
-103
-46
-79
-29
-11
-6
28
42
48
75
104
136
180
216
242
284
342
380
380
357
326
282
224
163
100
43
8
-13
-29
-32
-32
-44
-50
-43
-48
-69
-74
-64
-70
-88
-89
-74
-55
-39
-48
-81
-99
-105
-110
-96
-89
-97
-140
-264
-123
629
1132
384
-715
-789
-265
-83
-107
-51
-39
-57
-22
-2
-1
18
41
81
139
171
200
265
327
351
353
338
306
262
194
113
38
-30
-80
-93
-89
-95
-102
-102
-102
-106
-108
-105
-98
-105
-117
-111
-106
-119
-110
-75
-73
-99
-105
-112
-133
-124
-112
-121
-131
-220
-200
391
1056
617
-537
-873
-363
-67
-112
-93
-55
-68
-48
-29
-30
1
36
48
75
123
168
214
263
300
306
285
252
208
152
91
28
-34
-76
-91
-101
-109
-105
-102
-103
-99
-95
-100
-107
-110
-112
-112
-109
-108
-104
-80
-49
-50
-78
-100
-116
-114
-97
-105
-116
-140
-234
-76
612
1035
374
-525
-542
-120
-22
-76
-30
-9
-25
1
28
42
63
83
104
136
172
211
255
291
313
315
291
248
207
163
102
42
2
-26
-46
-55
-55
-51
-45
-44
-48
-47
-47
-59
-66
-64
-72
-83
-75
-57
-46
-35
-30
-46
-74
-99
-107
-94
-97
-111
-123
-212
-213
256
812
534
-322
-618
-291
-99
-141
-129
-99
-111
-98
-80
-86
-74
-44
-22
-4
23
60
107
154
186
201
201
181
146
105
57
1
-53
-94
-114
-120
-120
-114
-102
-99
-105
-106
-105
-108
-105
-90
-80
-86
-97
-97
-82
-55
-26
-14
-27
-38
-49
-69
-63
-42
-54
-54
-81
-182
55
804
1049
140
-742
-584
-109
-42
-87
-23
-2
-17
3
22
39
64
73
84
126
177
212
248
303
347
337
296
269
245
198
128
37
-45
-78
-86
-102
-99
-80
-88
-104
-94
-87
-94
-94
-98
-105
-94
-85
-94
-96
-88
-83
-65
-44
-50
-75
-92
-86
-62
-68
-81
-59
-125
-127
437
1138
749
-457
-899
-401
-42
-55
-32
15
-9
-1
37
48
61
88
111
136
171
214
268
327
365
369
348
317
279
225
157
86
20
-29
-59
-73
-84
-93
-95
-91
-89
-92
-88
-82
-90
-107
-115
-118
-125
-136
-143
-133
-105
-89
-100
-120
-132
-150
-157
-143
-146
-149
-164
-254
-113
543
955
312
-578
-610
-200
-96
-138
-91
-75
-86
-56
-36
-25
5
28
44
75
108
139
184
237
273
276
249
208
165
120
70
9
-47
-74
-87
-103
-110
-98
-90
-93
-96
-99
-100
-99
-103
-108
-111
-113
-120
-126
-124
-111
-93
-73
-56
-58
-80
-101
-116
-117
-100
-102
-106
-107
-182
-127
393
867
445
-412
-600
-236
-67
-105
-82
-52
-56
-35
-14
-8
10
32
62
98
124
156
214
267
299
327
337
313
277
241
188
115
47
2
-21
-32
-39
-41
-33
-26
-28
-31
-25
-30
-43
-40
-34
-46
-58
-56
-58
-63
-69
-79
-71
-30
3
-11
-38
-51
-69
-77
-61
-70
-78
-80
-155
7
732
1177
389
-714
-793
-274
-81
-110
-69
-49
-57
-37
-27
-17
12
30
49
92
129
159
211
276
325
344
328
288
245
193
119
38
-39
-97
-124
-134
-153
-162
-143
-127
-134
-142
-131
-117
-120
-141
-152
-138
-128
-140
-151
-143
-140
-145
-121
-78
-65
-78
-99
-130
-128
-85
-84
-106
-95
-151
-34
655
1190
483
-710
-888
-322
-54
-72
-29
-5
-27
-9
14
23
53
86
111
142
179
224
281
338
379
394
376
335
291
245
179
97
23
-28
-53
-64
-76
-87
-83
-72
-67
-69
-72
-72
-67
-71
-85
-92
-87
-89
-103
-109
-93
-75
-64
-51
-49
-67
-82
-92
-97
-88
-87
-89
-88
-152
-61
532
1049
532
-474
-685
-243
-37
-83
-57
-25
-34
-14
5
3
18
44
68
100
133
164
207
252
288
311
302
256
205
160
101
34
-26
-75
-110
-125
-128
-127
-125
-131
-139
-135
-129
-140
-157
-162
-162
-164
-168
-173
-178
-181
-178
-163
-138
-117
-117
-139
-159
-175
-185
-171
-158
-169
-164
-197
-229
113
736
704
-161
-721
-466
-131
-113
-122
-76
-73
-66
-34
-15
3
28
57
97
129
154
205
276
326
351
363
356
336
302
240
166
103
46
-5
-23
-22
-36
-55
-46
-24
-21
-33
-38
-35
-31
-31
-37
-44
-45
-51
-65
-65
-55
-50
-33
-6
-11
-33
-37
-55
-80
-57
-42
-61
-59
-128
-111
482
1179
755
-460
-891
-408
-67
-77
-59
-22
-27
1
23
12
34
79
99
120
163
206
254
322
377
395
393
375
333
279
212
122
34
-27
-70
-99
-108
-100
-86
-81
-90
-97
-91
-89
-93
-86
-79
-93
-101
-95
-99
-106
-103
-112
-117
-84
-56
-76
-106
-116
-116
-112
-122
-126
-108
-175
-143
444
1093
630
-566
-939
-414
-84
-127
-115
-69
-91
-91
-68
-61
-42
-8
19
47
81
129
188
236
260
270
270
250
209
153
100
47
-24
-101
-144
-148
-140
-141
-145
-134
-117
-119
-134
-135
-125
-120
-121
-122
-121
-120
-120
-121
-121
-108
-74
-54
-71
-93
-106
-117
-104
-91
-106
-100
-139
-196
185
946
940
-133
-870
-560
-111
-73
-94
-43
-45
-51
-27
-12
11
44
64
87
123
165
214
272
322
349
347
321
289
252
189
102
30
-14
-51
-85
-99
-96
-95
-92
-79
-64
-61
-62
-56
-49
-55
-71
-78
-70
-70
-85
-83
-47
-17
-23
-39
-42
-56
-72
-56
-50
-62
-61
-135
-97
508
1165
712
-431
-746
-233
40
-36
-36
-1
-17
4
33
28
46
80
93
114
157
200
244
295
335
352
339
297
251
209
143
58
-4
-40
-71
-96
-102
-95
-92
-94
-92
-92
-95
-94
-94
-100
-101
-99
-106
-110
-110
-110
-91
-60
-61
-86
-95
-102
-109
-102
-108
-115
-136
-242
-120
561
1050
439
-516
-612
-189
-59
-113
-79
-61
-74
-46
-20
-23
-23
-6
22
54
83
124
179
228
255
254
229
197
162
111
42
-26
-78
-116
-143
-158
-167
-169
-159
-148
-150
-152
-147
-150
-163
-166
-166
-182
-192
-175
-153
-138
-120
-110
-126
-146
-156
-159
-148
-142
-139
-143
-241
-278
164
782
609
-244
-622
-319
-86
-109
-103
-65
-69
-59
-39
-27
-3
24
39
64
103
145
194
250
298
321
320
306
284
248
200
140
75
28
12
12
20
30
30
20
17
26
38
45
39
30
31
35
32
24
25
44
76
94
86
72
65
51
45
49
31
22
3
-102
42
726
1121
372
-633
-676
-178
10
-15
19
35
26
47
55
52
67
88
108
141
181
226
280
334
372
380
359
326
279
208
121
29
-60
-127
-165
-185
-199
-210
-212
-204
-198
-204
-213
-211
-211
-218
-224
-230
-240
-246
-240
-225
-208
-206
-219
-220
-223
-238
-227
-210
-217
-210
-271
-313
187
1000
826
-425
-1135
-731
-256
-200
-194
-141
-142
-135
-105
-91
-73
-53
-36
8
73
125
180
250
312
355
376
349
286
229
168
75
-23
-97
-146
-170
-178
-184
-183
-169
-155
-151
-147
-136
-124
-126
-135
-131
-126
-139
-155
-146
-118
-93
-87
-90
-92
-103
-104
-79
-78
-81
-65
-141
-77
602
1273
735
-472
-791
-275
24
10
54
90
51
67
132
167
190
225
271
339
404
430
471
563
630
644
661
654
579
499
438
329
185
85
5
-86
-126
-119
-124
-127
-165
-289
-384
-372
-337
-303
-255
-252
-249
-150
-62
-79
-70
-2
-11
-27
97
220
209
221
339
358
136
-37
393
1307
1546
640
-81
298
760
502
217
355
422
242
149
107
-69
-143
-16
-32
-231
-318
-293
-283
-225
-113
-84
-157
-213
-223
-258
-270
-238
-366
-669
-822
-753
-706
-759
-906
-1097
-1133
-1098
-1281
-1457
-1293
-1066
-1083
-1204
-1233
-1109
-868
-605
-380
-264
-242
-188
-186
-167
356
1058
779
-278
-706
-299
110
265
348
456
634
711
539
351
385
627
960
1177
1164
1100
1162
1289
1324
1142
824
661
699
617
372
276
294
166
-4
-20
93
271
415
434
411
410
390
355
301
228
176
76
-77
-131
-107
-141
-241
-248
116
556
96
-1085
-1428
-745
-512
-1004
-1122
-733
-595
-702
-618
-432
-316
-182
-103
-200
-327
-340
-265
-135
0
73
107
121
113
131
138
29
-92
-59
91
326
632
862
950
910
696
485
453
386
284
398
408
101
33
264
215
-10
-83
-218
-325
-109
90
-14
-95
19
99
32
-101
-236
-326
-319
-310
-426
-517
-488
-540
-500
-107
-66
-902
-1625
-1376
-789
-539
-333
32
86
-242
-271
12
-96
-293
55
314
26
-26
377
579
562
673
761
711
707
735
644
471
314
268
326
185
-222
-359
18
437
551
423
223
170
233
164
75
158
210
133
41
-102
-207
-109
-16
-87
-105
28
166
190
111
80
102
96
414
1069
1026
-28
-803
-640
-334
-373
-484
-515
-535
-562
-539
-450
-401
-387
-245
-64
-35
60
347
419
210
164
188
-40
-187
-39
7
-130
-183
-235
-354
-355
-307
-341
-319
-250
-266
-301
-452
-825
-1036
-818
-457
-181
7
69
35
-5
-32
-97
-247
-311
-113
19
-128
-145
-7
-60
143
959
1401
707
-244
-429
-101
80
93
165
240
246
269
307
293
264
228
122
10
4
29
-25
-93
-97
-7
224
407
374
355
335
178
440
1107
988
96
-276
-121
-194
-265
-70
39
65
228
349
294
252
305
324
277
241
204
125
68
56
-10
-139
-137
74
196
188
642
1458
1374
195
-549
-284
-69
-209
-41
215
6
-144
117
66
-386
-421
-69
47
44
222
363
341
362
471
529
488
362
153
-71
-269
-473
-608
-615
-711
-993
-1142
-1041
-956
-886
-706
-670
-827
-763
-478
-386
-440
-335
-192
-260
-455
-552
-492
-396
-344
-274
-203
-235
-277
-248
-256
-91
467
728
61
-749
-816
-594
-695
-819
-638
-393
-293
-210
-71
74
248
396
309
96
148
404
475
461
626
714
584
532
517
341
280
420
392
222
209
254
196
158
199
219
187
125
41
-38
-90
-113
-98
-69
-68
-72
-46
12
70
75
68
156
253
234
224
289
385
738
1217
969
-22
-561
-244
163
305
373
372
307
267
249
279
320
219
69
60
77
42
76
136
165
298
498
549
472
399
287
99
-65
-128
-152
-268
-415
-399
-297
-279
-207
-68
-121
-239
-105
104
148
153
186
177
189
259
322
392
450
394
236
102
107
173
128
234
724
794
-188
-1173
-1130
-660
-556
-690
-744
-659
-550
-607
-683
-485
-312
-568
-798
-557
-339
-429
-312
93
349
434
483
431
320
238
160
48
-150
-369
-465
-545
-673
-591
-324
-259
-370
-351
-258
-222
-193
-212
-257
-181
-107
-186
-272
-307
-357
-333
-248
-257
-267
-127
-42
-120
141
942
1308
544
-373
-413
5
222
273
256
186
199
217
45
-134
-63
82
76
77
268
514
603
513
407
461
629
693
609
524
399
108
-149
-160
-126
-171
-90
43
-41
-135
55
257
225
201
272
239
198
254
131
-261
-596
-654
-534
-470
-553
-627
-586
-505
-451
-322
214
1040
1115
64
-809
-655
-253
-165
-125
-123
-199
-106
76
92
49
78
82
58
107
209
287
353
458
610
761
831
808
716
527
329
280
243
75
5
73
43
