# session 13
-14
-63
33
39
-198
-321
-95
135
138
110
138
146
159
187
189
195
230
260
281
318
368
419
464
487
482
466
446
395
314
236
168
109
79
70
51
32
36
44
36
27
38
54
42
20
21
19
-5
-12
-2
-7
-10
2
-2
-23
-38
-55
-56
-35
-41
-52
-67
-157
-17
666
1089
335
-729
-798
-272
-71
-103
-64
-47
-68
-48
-25
-20
-10
2
26
63
97
139
195
239
255
260
250
211
155
103
48
-16
-74
-116
-143
-156
-160
-160
-156
-150
-144
-143
-147
-156
-165
-171
-172
-174
-178
-187
-190
-174
-147
-142
-159
-174
-185
-186
-168
-168
-178
-187
-278
-219
385
953
478
-510
-714
-277
-85
-134
-102
-70
-85
-65
-37
-30
-11
12
36
77
124
169
220
270
294
288
265
233
197
152
99
45
0
-25
-33
-40
-46
-41
-30
-27
-29
-28
-26
-23
-25
-34
-37
-34
-38
-39
-24
-4
15
32
23
-6
-20
-24
-25
-20
-23
-27
-80
-157
111
783
972
215
-481
-360
-34
-22
-64
-23
-20
-29
-13
-13
-10
16
38
49
65
94
135
177
207
219
211
187
153
108
54
0
-51
-94
-123
-141
-150
-147
-137
-134
-137
-137
-138
-142
-145
-148
-155
-160
-159
-156
-150
-138
-116
-82
-54
-56
-77
-89
-94
-91
-74
-75
-78
-74
-148
-116
409
964
592
-342
-617
-231
-14
-55
-43
-5
-7
6
28
35
50
75
100
128
160
197
239
287
330
346
326
282
237
199
151
80
6
-40
-55
-69
-88
-95
-87
-82
-88
-91
-90
-96
-97
-88
-93
-110
-108
-98
-106
-115
-108
-103
-91
-56
-40
-64
-82
-87
-95
-81
-73
-77
-70
-149
-131
457
1120
664
-524
-903
-407
-80
-82
-43
-5
-31
-21
11
20
40
62
73
98
140
186
240
296
336
347
332
308
278
225
151
79
18
-39
-85
-102
-98
-98
-110
-109
-89
-79
-94
-101
-89
-87
-105
-118
-114
-108
-114
-129
-133
-123
-109
-89
-69
-74
-91
-100
-105
-103
-102
-112
-95
-117
-186
128
856
940
-46
-821
-575
-129
-85
-116
-62
-58
-63
-34
-23
-19
4
28
58
101
142
183
234
282
305
296
268
237
200
145
79
19
-31
-72
-96
-103
-99
-89
-81
-79
-78
-78
-83
-88
-85
-83
-90
-93
-94
-99
-103
-103
-107
-111
-104
-88
-62
-37
-38
-54
-64
-69
-60
-53
-67
-61
-79
-123
191
904
1037
147
-615
-458
-86
-53
-76
-27
-33
-40
-7
-1
-1
33
74
107
135
162
206
259
299
322
330
309
269
232
188
127
65
14
-30
-58
-64
-60
-58
-56
-56
-58
-61
-69
-80
-84
-85
-90
-92
-92
-103
-112
-109
-109
-117
-116
-110
-116
-122
-123
-130
-141
-143
-138
-133
-123
-99
-66
-51
-59
-71
-87
-98
-86
-82
-88
-72
-111
-101
312
830
564
-330
-716
-402
-130
-115
-94
-53
-58
-55
-30
-13
6
31
53
76
114
162
207
256
320
369
380
365
343
307
261
206
133
53
-3
-33
-55
-65
-62
-58
-52
-47
-52
-54
-47
-49
-55
-51
-52
-66
-70
-64
-71
-86
-82
-64
-60
-75
-82
-76
-83
-100
-99
-83
-65
-34
-11
-22
-52
-80
-91
-65
-54
-67
-36
-51
-59
425
1180
977
-240
-940
-600
-174
-102
-76
-29
-36
-33
-8
6
17
28
41
75
123
168
217
284
361
409
418
410
379
304
220
148
64
-28
-90
-123
-136
-135
-146
-167
-162
-139
-132
-129
-116
-116
-129
-129
-121
-127
-138
-143
-144
-148
-159
-167
-160
-150
-152
-160
-155
-135
-119
-118
-121
-130
-142
-123
-99
-117
-119
-129
-143
259
1038
1034
-110
-953
-689
-205
-92
-64
-17
-16
-4
-29
-102
-97
-29
11
49
107
154
207
277
337
387
433
444
419
364
244
102
38
11
-57
-58
31
-7
-169
-174
-24
-15
-164
-213
-139
-133
-184
-166
-156
-229
-248
-136
-24
-37
-143
-192
-126
-98
-160
-154
-101
-155
-215
-179
-173
-199
-143
-64
-60
-98
28
577
1166
903
-108
-728
-512
-44
153
97
89
253
399
441
508
560
452
297
305
446
534
445
221
137
357
528
333
107
138
168
86
75
64
-35
-41
41
24
-38
-9
45
35
-19
-82
-142
-150
-69
-51
-265
-550
-685
-726
-755
-780
-771
-564
-312
-461
-705
-430
-48
-86
-109
103
107
-71
-94
-84
18
556
1016
609
-155
-318
-45
109
166
231
206
120
71
55
116
307
461
391
282
366
447
349
334
567
842
975
884
637
486
391
113
-161
-182
-133
-179
-230
-220
-187
-232
-374
-449
-448
-560
-736
-839
-999
-1222
-1246
-1150
-1321
-1666
-1741
-1540
-1395
-1343
-1152
-767
-412
-268
-256
-206
-70
102
164
82
259
875
1121
408
-452
-573
-224
36
134
177
234
292
291
294
322
273
173
106
102
270
599
867
1077
1356
1546
1576
1596
1418
919
645
813
789
459
376
391
150
84
332
351
143
141
280
342
367
384
380
369
297
170
97
81
12
-128
-269
-378
-497
-627
-683
-636
-532
-471
-584
-673
-248
509
733
230
-382
-716
-655
-154
353
344
-3
-192
-155
-95
-52
3
43
96
170
207
258
372
416
365
387
448
324
46
-132
-101
10
11
-100
-112
-27
-92
-235
-247
-301
-477
-509
-390
-302
-238
-250
-360
-387
-342
-384
-432
-396
-376
-357
-255
-165
-207
-285
-250
-158
-139
-209
-369
-476
-185
304
203
-539
-1082
-1082
-920
-767
-500
-226
-142
-136
-26
112
160
179
208
178
98
45
11
3
114
287
345
325
374
412
301
137
59
33
-9
-60
-110
-158
-187
-222
-265
-204
16
230
301
317
376
409
395
428
427
251
76
33
-69
-202
-111
68
66
-6
17
0
-105
142
959
1442
763
-283
-544
-177
154
276
255
203
191
115
-17
-23
27
-33
-40
116
172
92
201
451
505
424
465
575
590
484
313
174
138
132
57
-60
-113
-45
71
89
23
39
129
143
107
123
127
60
-5
-54
-197
-470
-709
-708
-522
-379
-331
-292
-291
-326
-334
-402
-389
152
856
661
-306
-804
-513
-175
-165
-245
-211
-126
-97
-90
-43
-10
6
79
169
205
276
447
590
615
586
548
467
297
33
-192
-244
-268
-475
-730
-764
-589
-404
-267
-95
75
115
130
284
371
230
105
-10
-315
-486
-312
-277
-493
-474
-242
-185
-243
-221
-185
-152
-94
-156
-179
359
1104
839
-388
-1108
-816
-327
-156
-231
-367
-333
-132
-3
0
-60
-134
-116
-53
-108
-189
-107
128
379
473
372
284
314
330
304
296
243
129
52
26
8
26
98
182
238
232
159
60
-16
-51
-63
-73
-62
-60
-129
-210
-207
-130
-36
-36
-170
-247
-197
-219
-248
-138
-65
137
771
1106
457
-287
-246
55
95
117
201
181
116
95
90
74
-1
-107
-77
45
-54
-358
-431
-156
107
217
345
490
550
554
452
216
102
224
228
-65
-219
28
198
-76
-348
-207
-4
-61
-102
15
62
46
146
253
197
91
131
266
298
222
159
83
-25
-125
-282
-269
331
962
558
-495
-888
-517
-166
-50
27
96
134
147
143
164
187
154
107
112
155
225
365
562
719
773
745
638
415
150
-20
-148
-381
-603
-643
-624
-681
-733
-763
-815
-799
-724
-699
-679
-692
-867
-1044
-1030
-921
-707
-346
-135
-209
-228
-42
107
120
161
248
160
-91
30
779
1305
747
-274
-618
-341
-138
-90
38
160
142
76
-8
-179
-306
-226
-61
37
126
214
237
288
452
619
681
640
552
476
400
308
240
171
36
-115
-185
-184
-190
-195
-122
0
54
23
-32
-61
-58
-118
-299
-445
-420
-373
-496
-719
-811
-653
-378
-209
-155
-103
38
498
1185
1257
392
-401
-374
-31
85
109
226
302
226
137
138
136
112
137
145
102
161
368
551
602
598
619
607
498
363
256
115
-42
-133
-207
-320
-383
-359
-355
-444
-510
-396
-190
-131
-152
-13
163
161
125
144
87
-28
-208
-496
-605
-372
-131
-45
62
124
-11
50
728
1343
857
-281
-755
-409
-45
-8
-56
14
100
84
97
192
187
138
251
424
532
655
694
551
449
456
353
199
172
144
18
-72
-143
-313
-475
-474
-378
-326
-338
-358
-340
-309
-324
-309
-168
-50
-90
-138
-132
-203
-254
-120
47
75
7
-93
-186
-198
-116
-93
-283
-344
179
672
200
-715
-983
-683
-445
-400
-401
-350
-270
-235
-185
-70
7
-8
-31
18
119
161
111
71
62
-5
-80
-64
-66
-191
-296
-278
-248
-252
-223
-139
-46
-43
-117
-94
18
20
-92
-178
-195
-123
-2
0
-137
-194
-78
39
-4
-132
-128
37
157
173
186
132
190
849
1654
1396
267
-339
-133
142
230
244
164
91
146
205
197
290
521
641
530
429
524
661
680
643
617
607
618
570
414
270
167
3
-120
-65
2
-102
-239
-220
-114
-56
-13
33
11
-7
39
-16
-182
-254
-301
-440
-498
-473
-523
-475
-266
-215
-312
-315
-250
70
751
938
84
-829
-929
-638
-486
-448
-431
-424
-465
-538
-485
-290
-148
-120
-137
-149
-70
79
151
208
386
550
564
479
314
178
224
212
-59
-217
-89
-102
-324
-362
-209
-93
9
83
-5
-111
-13
140
121
38
29
-4
-110
-218
-333
-433
-401
-271
-215
-233
-226
-174
100
666
895
297
-447
-595
-450
-436
-429
-396
-509
-670
-670
-559
-432
-241
-73
-84
-111
85
357
481
504
530
563
582
536
437
365
282
115
-28
-33
4
-8
13
108
149
91
64
110
146
165
164
138
206
371
423
368
349
259
98
62
-10
-279
-368
-192
-188
-123
522
1018
477
-371
-517
-201
75
256
302
286
367
423
374
362
341
233
223
339
333
226
277
454
537
540
557
507
377
267
133
-66
-207
-297
-454
-582
-555
-497
-505
-494
-451
-457
-477
-453
-419
-352
-206
-91
-94
-127
-130
-135
-109
-40
-53
-159
-175
-136
-195
-9
659
1016
406
-399
-510
-228
-96
-78
-32
7
-8
-70
-109
-98
-103
-104
-53
-54
-182
-334
-393
-338
-249
-217
-201
-162
-197
-305
-376
-408
-442
-449
-427
-400
-365
-325
-278
-237
-229
-200
-116
-87
-141
-142
-61
-12
-23
-8
58
68
-19
-115
-253
-387
-365
-532
-785
261
2388
2753
646
-1104
-1059
-574
-495
-480
-422
-393
-327
-228
-122
-36
-15
29
141
215
252
330
418
529
690
784
773
750
710
617
484
281
89
52
53
-81
-197
-152
-93
-89
-11
107
117
84
173
324
410
488
568
527
461
543
652
636
579
568
524
345
293
815
1490
1332
397
-449
-483
811
2534
2508
773
-328
-189
-26
-90
17
113
68
69
152
240
304
328
335
341
346
351
282
81
-159
-368
-611
-858
-975
-949
-910
-948
-1014
-1006
-953
-947
-978
-991
-996
-996
-960
-894
-850
-858
-867
-855
-876
-885
-837
-843
-888
-879
-922
-825
-170
484
168
-656
-853
-527
-371
-400
-373
-319
-292
-289
-320
-357
-385
-420
-442
-435
-400
-306
-165
-56
18
107
151
98
39
9
-83
-219
-275
-236
-165
-90
-26
22
90
193
297
352
364
402
474
515
563
672
723
650
599
643
693
700
662
606
597
556
537
983
1732
1683
646
-118
8
332
372
317
303
277
218
149
103
75
40
50
116
140
142
246
418
521
553
610
702
725
603
401
253
210
182
101
45
54
51
38
76
135
167
174
168
164
182
210
220
207
187
173
138
73
32
4
-64
-112
-181
-314
-123
483
583
-271
-1057
-1010
-647
-483
-415
-365
-398
-452
-447
-429
-424
-347
-194
-83
-64
-77
-63
31
193
300
279
225
217
202
140
77
18
-50
-86
-109
-189
-296
-343
-329
-330
-401
-511
-571
-580
-639
-761
-850
-865
-840
-799
-750
-691
-622
-577
-563
-518
-472
-513
-362
286
777
298
-495
-526
-96
52
-1
-7
-33
-81
-89
-78
-52
-3
55
112
147
163
208
286
356
393
417
427
371
232
71
-102
-300
-446
-509
-557
-545
-439
-397
-468
-480
-406
-349
-288
-194
-137
-121
-79
16
151
270
330
385
482
515
443
432
478
436
653
1350
1635
869
44
73
421
483
460
537
571
502
427
380
322
267
252
233
157
62
38
136
285
359
343
326
337
312
192
12
-121
-154
-147
-144
-103
-40
-44
-86
-76
-31
-2
19
31
38
79
136
161
164
166
152
141
149
119
56
45
17
11
370
845
493
-585
-1163
-956
-735
-754
-753
-730
-744
-706
-602
-503
-441
-414
-382
-313
-221
-105
76
292
440
527
644
755
729
586
451
359
313
330
340
297
274
298
308
293
280
268
246
209
157
101
38
-53
-165
-274
-396
-539
-636
-656
-633
-562
-529
-591
-346
378
689
-5
-755
-714
-384
-302
-293
-242
-225
-170
-73
-81
-155
-113
-3
4
-39
-6
47
90
191
279
247
195
222
232
160
72
-10
-106
-217
-377
-589
-751
-768
-672
-592
-579
-567
-540
-541
-536
-493
-453
-401
-307
-236
-226
-211
-141
-43
55
107
50
103
627
1214
951
16
-504
-365
-113
43
128
109
92
165
265
360
439
485
514
514
482
471
467
424
383
371
377
449
582
631
536
413
349
304
258
250
263
244
225
230
195
146
158
169
133
126
165
214
265
278
237
189
128
11
-90
-101
-114
-43
496
1196
968
-162
-838
-619
-297
-245
-271
-317
-386
-458
-539
-568
-542
-559
-599
-581
-545
-524
-450
-313
-187
-113
-92
-114
-145
-176
-229
-266
-239
-218
-246
-226
-120
-36
-25
-34
