# session 23
3
17
-63
150
629
824
698
630
642
600
562
553
528
505
500
503
510
500
463
432
416
396
371
353
336
315
295
282
273
260
240
232
240
243
230
196
140
102
94
63
35
56
15
-110
-225
-276
204
1536
2389
1400
-167
-513
-160
-150
-248
-191
-195
-232
-201
-190
-205
-196
-188
-187
-176
-166
-157
-141
-127
-115
-96
-73
-51
-29
-7
10
21
25
19
12
5
-20
-68
-119
-158
-190
-219
-238
-239
-238
-244
-238
-211
-195
-204
-212
-204
-194
-190
-188
-187
-185
-180
-175
-174
-174
-169
-161
-154
-149
-146
-143
-142
-141
-137
-130
-121
-111
-106
-105
-102
-98
-96
-97
-96
-88
-76
-65
-57
-53
-51
-49
-42
-34
-32
-29
-16
-3
-6
-4
21
45
54
53
31
2
3
4
-15
8
27
-44
-125
-179
8
967
2168
1974
461
-440
-230
-26
-121
-117
-79
-114
-106
-79
-82
-68
-50
-54
-44
-18
-3
8
30
53
72
90
113
135
150
166
189
200
198
198
181
134
95
72
27
-32
-63
-72
-88
-106
-109
-107
-111
-120
-123
-115
-108
-108
-103
-91
-92
-103
-98
-85
-86
-86
-75
-70
-73
-71
-63
-63
-68
-71
-67
-67
-70
-61
-49
-56
-69
-72
-69
-59
-60
-74
-57
-2
17
-18
-41
-28
-19
-31
-43
-42
-40
-42
-42
-42
-42
-31
-11
3
6
-14
-41
-41
-38
-49
-35
-41
-103
-149
-175
97
1119
2097
1577
129
-454
-173
-72
-154
-102
-82
-122
-99
-77
-89
-78
-57
-50
-38
-22
-9
12
36
49
61
76
91
109
136
160
176
184
180
166
158
146
113
61
12
-23
-47
-63
-70
-73
-81
-84
-72
-62
-61
-63
-77
-96
-91
-76
-86
-99
-95
-100
-122
-125
-118
-133
-148
-133
-121
-136
-150
-145
-141
-143
-150
-152
-132
-101
-104
-136
-149
-140
-138
-140
-139
-148
-158
-151
-144
-152
-155
-143
-131
-123
-116
-106
-85
-65
-60
-63
-87
-130
-137
-114
-122
-129
-110
-142
-211
-281
-261
321
1453
1825
743
-425
-543
-236
-176
-182
-141
-157
-176
-161
-157
-154
-139
-131
-115
-59
-2
14
9
14
21
40
56
40
86
296
511
547
529
570
540
453
497
632
679
659
672
669
546
345
192
119
75
49
49
49
36
32
47
53
29
-7
-41
-79
-119
-142
-147
-148
-154
-183
-210
-172
-89
-65
-111
-152
-174
-176
-140
-113
-139
-174
-178
-177
-185
-188
-179
-167
-154
-140
-138
-163
-180
-161
-151
-151
-136
-167
-245
-317
-383
-65
993
1806
1115
-278
-771
-483
-310
-307
-271
-265
-274
-248
-234
-232
-215
-201
-193
-176
-161
-149
-133
-109
-81
-58
-40
-17
14
43
64
83
100
104
95
79
51
3
-60
-124
-174
-194
-194
-208
-237
-252
-250
-248
-244
-236
-229
-221
-218
-220
-212
-200
-189
-159
-132
-137
-106
-4
49
-4
-28
60
177
247
275
297
359
464
538
543
533
534
510
454
406
389
377
349
323
317
314
293
264
228
172
133
124
93
63
67
12
-113
-233
-308
88
1255
2033
1186
-253
-644
-296
-169
-221
-207
-224
-262
-248
-229
-228
-221
-203
-183
-172
-166
-144
-111
-84
-63
-47
-33
-9
24
54
83
110
121
117
113
106
78
21
-49
-116
-168
-200
-227
-253
-261
-250
-249
-257
-249
-233
-227
-224
-220
-216
-207
-192
-180
-174
-175
-169
-151
-139
-141
-141
-137
-135
-130
-128
-132
-131
-123
-120
-120
-119
-119
-119
-113
-93
-69
-58
-61
-55
-27
6
17
0
-29
-42
-40
-52
-65
-37
-28
-102
-213
-294
12
1150
2315
1932
346
-531
-321
-77
-94
-75
-54
-78
-60
-40
-43
-31
-24
-16
28
69
84
110
139
140
143
165
186
207
239
267
286
303
304
297
311
313
249
144
56
-13
-73
-111
-129
-144
-154
-157
-158
-160
-157
-151
-146
-145
-144
-140
-134
-132
-134
-138
-140
-135
-129
-132
-138
-138
-133
-134
-139
-142
-141
-142
-144
-143
-136
-133
-137
-140
-135
-131
-134
-131
-107
-81
-76
-79
-86
-113
-124
-112
-132
-135
-84
-123
-253
-360
-370
297
1870
2646
1298
-401
-586
-151
-183
-273
-191
-202
-231
-189
-180
-189
-170
-156
-142
-108
-82
-68
-43
-26
-26
26
124
114
83
376
869
1012
778
592
538
454
346
245
130
31
-31
-79
-120
-146
-161
-169
-174
-181
-186
-190
-195
-196
-194
-191
-186
-184
-183
-180
-173
-172
-176
-178
-176
-172
-169
-170
-174
-175
-171
-168
-170
-171
-151
-110
-86
-93
-99
-77
-43
-33
-58
-76
-68
-71
-84
-51
-2
-6
-34
-42
-68
-106
-100
-97
-117
-81
-74
-180
-257
-312
-153
962
2458
2250
408
-633
-321
-96
-240
-222
-167
-198
-151
-100
-133
-146
-128
-128
-122
-96
-70
-39
16
78
115
144
177
204
283
443
536
468
378
360
334
268
208
143
52
-24
-54
-64
-77
-86
-92
-104
-120
-132
-141
-146
-150
-153
-155
-154
-153
-153
-152
-149
-144
-137
-132
-133
-135
-135
-135
-133
-132
-132
-132
-132
-131
-130
-130
-129
-121
-106
-98
-99
-100
-97
-95
-92
-89
-85
-82
-78
-71
-60
-50
-46
-34
-8
12
13
2
-21
-40
-27
-23
-49
-30
-10
-91
-195
-281
-133
844
2174
2097
538
-479
-297
-64
-156
-155
-107
-138
-132
-102
-103
-90
-68
-62
-49
-27
-12
4
24
40
58
83
107
128
152
172
185
197
206
206
200
185
148
91
27
-32
-72
-95
-115
-132
-134
-130
-130
-122
-109
-108
-113
-111
-107
-105
-102
-103
-106
-101
-97
-100
-95
-81
-75
-77
-82
-85
-80
-73
-72
-71
-72
-79
-78
-61
-48
-58
-73
-70
-61
-67
-74
-68
-65
-68
-62
-53
-55
-59
-54
-45
-34
-14
4
7
3
-16
-55
-68
-46
-52
-60
-24
-40
-132
-238
-319
107
1384
2247
1341
-195
-594
-228
-120
-165
-111
-108
-135
-106
-92
-101
-88
-78
-79
-60
-35
-21
-2
26
45
63
95
127
149
177
210
229
238
248
255
247
215
156
81
8
-52
-95
-117
-128
-140
-143
-122
-92
-83
-90
-93
-93
-101
-106
-102
-101
-102
-94
-90
-96
-99
-95
-96
-101
-103
-105
-110
-109
-103
-100
-101
-101
-103
-101
-95
-90
-91
-92
-86
-78
-76
-76
-65
-51
-52
-56
-48
-29
-5
14
13
-4
-34
-62
-59
-60
-83
-56
-30
-121
-251
-380
-279
768
2323
2349
602
-605
-392
-75
-162
-163
-99
-131
-126
-90
-99
-99
-81
-75
-65
-46
-33
-20
0
23
52
83
110
136
168
205
240
263
272
272
268
243
181
96
18
-45
-98
-135
-151
-157
-166
-170
-164
-160
-162
-154
-140
-130
-122
-111
-107
-112
-113
-109
-110
-113
-109
-102
-102
-108
-111
-108
-107
-105
-103
-104
-104
-99
-96
-90
-78
-70
-73
-72
-65
-65
-70
-67
-61
-63
-65
-62
-61
-65
-65
-60
-56
-56
-53
-37
-15
-5
-4
-13
-43
-57
-42
-63
-71
-4
-16
-155
-293
-382
126
1697
2794
1685
-177
-574
-118
-97
-211
-130
-129
-167
-121
-107
-124
-104
-89
-86
-66
-42
-24
-5
13
34
62
91
122
153
181
213
248
270
277
282
273
242
186
108
26
-31
-64
-93
-116
-122
-118
-118
-121
-119
-114
-112
-112
-112
-110
-107
-103
-99
-95
-94
-96
-101
-105
-104
-103
-105
-106
-105
-103
-104
-105
-102
-99
-97
-98
-99
-99
-97
-91
-85
-86
-92
-91
-84
-81
-82
-79
-78
-82
-83
-80
-72
-66
-74
-80
-57
-27
-21
-24
-37
-73
-80
-63
-87
-92
-55
-117
-248
-356
-331
481
2081
2569
1018
-486
-460
-74
-162
-209
-120
-144
-158
-114
-116
-115
-81
-70
-66
-43
-26
-15
8
31
47
66
90
117
145
170
191
213
228
230
222
203
168
118
59
2
-41
-69
-88
-98
-98
-96
-98
-96
-91
-95
-98
-92
-91
-92
-80
-67
-78
-93
-94
-89
-84
-80
-82
-76
-62
-68
-84
-84
-82
-92
-91
-81
-84
-92
-89
-85
-87
-85
-81
-81
-80
-76
-73
-72
-74
-66
-42
-30
-44
-50
-37
-48
-76
-69
-31
1
2
-28
-44
-20
-10
-30
-15
-6
-103
-220
-307
-276
454
1861
2317
1004
-358
-441
-104
-112
-162
-132
-150
-148
-123
-122
-96
-75
-86
-52
-10
-33
-20
74
100
41
41
106
147
169
194
202
200
213
232
238
223
176
111
60
23
-26
-64
-80
-106
-120
-88
-70
-95
-96
-87
-111
-112
-85
-97
-121
-114
-113
-119
-106
-116
-143
-135
-111
-114
-125
-123
-121
-126
-131
-131
-125
-119
-120
-124
-124
-118
-107
-105
-116
-114
-94
-80
-80
-78
-78
-82
-76
-62
-57
-60
-61
-48
-24
-9
-7
-6
-21
-59
-73
-53
-59
-65
-36
-58
-134
-218
-267
233
1518
2198
1089
-425
-672
-232
-116
-156
-104
-99
-119
-88
-54
-36
-32
-34
-3
52
74
69
77
95
109
124
144
167
189
214
245
273
286
282
268
250
226
178
102
25
-28
-66
-96
-115
-127
-133
-130
-125
-121
-115
-110
-112
-117
-115
-109
-103
-101
-104
-102
-99
-103
-109
-109
-107
-108
-109
-109
-106
-101
-98
-96
-91
-92
-99
-97
-87
-83
-78
-70
-73
-74
-60
-52
-60
-59
-38
-20
-8
-3
-21
-58
-68
-57
-75
-80
-42
-75
-182
-287
-370
111
1541
2459
1357
-369
-718
-243
-134
-199
-137
-133
-157
-121
-108
-119
-102
-79
-66
-58
-45
0
56
80
90
106
118
133
166
202
226
247
257
249
242
237
201
129
47
-22
-75
-113
-147
-171
-169
-163
-171
-170
-152
-145
-146
-132
-118
-117
-96
-41
-5
-18
-42
-53
-68
-90
-100
-101
-102
-102
-102
-108
-116
-118
-124
-142
-150
-146
-145
-149
-148
-140
-122
-111
-126
-143
-130
-99
-78
-73
-68
-43
-10
8
13
0
-39
-56
-39
-49
-47
10
13
-48
-116
-178
329
1774
2638
1478
-223
-547
-133
-87
-160
-107
-125
-151
-110
-103
-116
-95
-86
-97
-92
-75
-62
-50
-34
-17
0
20
44
69
97
122
141
159
175
181
166
124
72
26
-25
-91
-146
-169
-171
-154
-117
-82
-66
-51
-14
60
159
239
276
278
240
157
69
15
-20
-52
-72
-90
-114
-120
-90
-58
-58
-75
-90
-109
-131
-145
-151
-155
-158
-163
-166
-164
-163
-170
-176
-176
-177
-179
-173
-159
-157
-168
-165
-137
-113
-108
-120
-151
-177
-171
-179
-196
-163
-171
-277
-372
-450
-157
1109
2368
1768
-19
-744
-371
-217
-328
-280
-248
-296
-272
-230
-240
-230
-186
-185
-184
-110
-121
-163
281
1117
1410
985
613
556
509
442
433
403
352
332
305
252
190
118
39
-27
-71
-103
-130
-145
-143
-140
-144
-147
-147
-151
-155
-157
-157
-155
-153
-151
-147
-143
-142
-142
-140
-141
-142
-138
-134
-133
-130
-128
-131
-136
-134
-129
-127
-125
-125
-126
-126
-124
-123
-122
-121
-108
-86
-75
-79
-82
-82
-86
-83
-73
-66
-49
-15
7
-4
-39
-74
-81
-74
-88
-77
-56
-115
-210
-313
-285
501
1909
2200
747
-544
-494
-134
-160
-186
-126
-144
-144
-104
-104
-108
-85
-65
-43
-9
22
48
70
82
90
108
134
156
177
200
223
246
264
265
256
252
232
171
90
17
-49
-96
-113
-121
-139
-145
-129
-119
-124
-123
-113
-103
-93
-83
-86
-100
-107
-105
-101
-95
-90
-94
-95
-85
-74
-78
-83
-78
-70
-70
-76
-81
-85
-83
-76
-72
-73
-72
-77
-87
-84
-71
-68
-70
-60
-52
-58
-52
-26
-5
-2
-5
-22
-62
-76
-60
-76
-82
-38
-70
-188
-316
-410
158
1739
2636
1328
-483
-732
-209
-146
-221
-141
-140
-157
-104
-91
-99
-76
-69
-75
-57
-35
-19
3
24
43
78
115
146
217
332
403
394
362
348
334
311
275
207
111
17
-62
-116
-144
-157
-170
-179
-179
-177
-179
-181
-179
-176
-167
-155
-145
-141
-133
-126
-125
-123
-120
-120
-120
-118
-121
-126
-124
-117
-115
-119
-121
-118
-114
-110
-106
-103
-101
-102
-103
-98
-93
-97
-100
-93
-86
-87
-87
-76
-68
-69
-68
-56
-37
-19
-12
-16
-29
-64
-88
-62
-55
-76
-42
-39
-139
-246
-350
-12
1378
2654
1906
35
-627
-214
-82
-183
-117
-90
-131
-101
-79
-91
-73
-45
-28
-12
3
21
45
62
77
104
137
167
197
232
267
293
304
306
318
346
344
272
157
55
-22
-76
-102
-117
-135
-142
-139
-154
-175
-166
-148
-158
-163
-131
-113
-136
-134
-91
-88
-136
-155
-126
-104
-106
-113
-124
-146
-159
-137
-105
-107
-128
-133
-130
-138
-139
-118
-97
-103
-122
-120
-103
-96
-95
-93
-93
-86
-74
-69
-70
-65
-67
-74
-61
-40
-39
-33
6
29
13
7
9
-21
-38
-17
-25
-39
-6
-29
-125
-204
-250
169
1434
2341
1487
-44
-457
-125
-75
-156
-101
-96
-128
-95
-73
-79
-64
-49
-45
-36
-28
-24
-10
9
27
42
50
57
82
120
146
157
167
176
180
180
164
120
63
14
-38
-88
-114
-120
-128
-137
-137
-127
-118
-122
-131
-125
-112
-111
-114
-108
-100
-92
-82
-78
-78
-72
-70
-74
-76
-77
-80
-75
-68
-75
-86
-85
-77
-72
-71
-77
-84
-72
-47
-45
-57
-48
-31
-41
-59
-53
-43
-47
-50
-51
-53
-42
-24
-24
-28
-9
11
14
8
-17
-57
-57
-27
-44
-64
-24
-40
-144
-252
-340
61
1382
2380
1512
-145
-621
-218
-87
-154
-106
-101
-138
-109
-85
-92
-86
-79
-76
-64
-51
-37
-15
6
21
46
80
106
131
172
213
237
259
284
290
280
262
216
135
51
-17
-67
-106
-135
-148
-148
-149
-153
-150
-143
-141
-137
-131
-127
-120
-111
-106
-102
-99
-95
-90
-87
-88
-79
-61
-60
-77
-79
-55
-41
-50
-61
-59
