# session 29
39
153
-207
365
1607
1410
198
-89
246
167
19
97
102
64
93
78
47
73
88
85
109
119
99
104
118
108
126
179
190
162
159
181
219
272
319
333
317
295
282
245
166
77
5
-46
-76
-102
-124
-123
-117
-126
-135
-131
-120
-109
-113
-128
-127
-110
-111
-127
-125
-108
-101
-104
-103
-107
-114
-107
-93
-91
-95
-97
-99
-98
-93
-97
-97
-84
-77
-83
-83
-79
-80
-77
-76
-80
-74
-57
-54
-64
-65
-57
-55
-55
-56
-61
-64
-58
-54
-50
-38
-35
-29
14
49
17
-14
24
38
-35
-86
-62
-67
-95
-53
-49
-160
-252
-281
37
1147
2172
1620
148
-436
-199
-152
-246
-193
-178
-214
-186
-161
-165
-145
-120
-118
-118
-95
-53
-28
-34
-36
-4
37
53
53
68
99
131
164
198
216
231
258
268
234
172
98
28
-23
-75
-121
-129
-124
-137
-151
-153
-146
-124
-108
-121
-134
-127
-124
-121
-108
-101
-95
-77
-78
-97
-94
-83
-94
-98
-79
-71
-76
-73
-61
-50
-52
-68
-68
-39
-31
-57
-63
-35
-30
-53
-58
-43
-35
-36
-34
-22
-6
3
10
23
19
-9
-31
-28
-26
-38
-29
-5
-34
-161
-336
-145
890
1999
1677
239
-546
-360
-168
-189
-141
-84
-85
-87
-98
-90
-56
-84
-161
-176
-100
0
44
24
20
56
70
84
148
196
196
241
328
357
346
365
382
368
348
309
203
58
-36
-76
-131
-174
-141
-101
-127
-153
-141
-146
-169
-162
-147
-150
-147
-139
-137
-136
-144
-145
-119
-119
-171
-182
-121
-99
-151
-183
-163
-139
-127
-117
-115
-133
-150
-134
-109
-113
-114
-92
-97
-128
-122
-89
-85
-107
-125
-130
-113
-80
-63
-67
-60
-35
-20
-20
-30
-47
-36
0
-37
-138
-228
-308
56
1317
2343
1604
21
-512
-197
-110
-189
-139
-116
-143
-132
-119
-97
-76
-98
-106
-66
-27
7
49
54
47
97
159
158
142
165
182
178
196
234
264
293
324
328
285
211
128
22
-86
-110
-72
-108
-197
-201
-141
-114
-108
-97
-79
-36
10
5
-33
-50
-60
-94
-117
-97
-84
-107
-115
-101
-117
-140
-128
-113
-124
-125
-104
-96
-106
-112
-113
-116
-107
-91
-93
-108
-111
-103
-100
-99
-91
-77
-73
-82
-85
-72
-51
-25
-10
-13
-13
-23
-65
-90
-74
-80
-103
-112
-157
-227
-312
-274
489
1859
2184
825
-437
-446
-131
-152
-175
-127
-150
-147
-100
-92
-101
-99
-95
-75
-50
-39
-27
-3
14
27
47
73
93
118
161
208
237
263
303
335
350
360
353
303
213
111
16
-57
-108
-146
-168
-173
-169
-162
-154
-157
-164
-159
-144
-135
-136
-134
-122
-115
-121
-123
-112
-109
-122
-126
-116
-109
-100
-86
-90
-109
-109
-100
-102
-100
-91
-89
-86
-81
-82
-81
-68
-54
-38
-20
-21
-38
-50
-59
-61
-56
-77
-90
-59
-77
-169
-283
-327
242
1593
2281
1168
-336
-619
-249
-154
-172
-119
-127
-137
-99
-86
-89
-76
-69
-60
-33
-14
-9
5
30
51
72
102
130
151
182
228
272
307
342
370
384
388
373
308
194
76
-20
-96
-149
-181
-200
-212
-219
-218
-211
-202
-195
-190
-182
-174
-168
-166
-163
-154
-146
-145
-148
-144
-136
-130
-128
-130
-128
-124
-124
-120
-109
-104
-107
-104
-95
-91
-92
-90
-86
-80
-76
-72
-57
-33
-11
-4
-12
-28
-49
-58
-48
-58
-69
-33
-38
-136
-242
-340
-62
1152
2374
1868
200
-550
-252
-92
-176
-138
-110
-144
-123
-96
-102
-88
-66
-60
-46
-28
-16
-1
18
34
50
70
94
119
147
177
207
236
263
287
303
312
307
271
195
96
2
-70
-118
-146
-162
-173
-178
-175
-170
-167
-165
-161
-158
-154
-149
-144
-140
-137
-135
-132
-125
-120
-120
-120
-119
-118
-115
-109
-109
-113
-111
-103
-100
-101
-97
-90
-89
-94
-94
-91
-90
-88
-83
-76
-70
-64
-49
-27
-11
-15
-29
-45
-65
-64
-53
-70
-67
-31
-81
-197
-302
-298
370
1788
2380
1151
-283
-440
-111
-136
-193
-128
-140
-161
-125
-113
-113
-98
-88
-76
-53
-37
-26
-10
5
22
46
68
84
106
137
165
188
216
249
269
271
274
273
239
165
75
-3
-58
-90
-109
-120
-123
-123
-122
-119
-113
-108
-103
-97
-89
-87
-90
-87
-77
-74
-73
-67
-65
-67
-64
-63
-69
-70
-65
-68
-76
-76
-73
-73
-72
-70
-68
-64
-68
-79
-79
-71
-74
-82
-78
-76
-75
-62
-52
-59
-54
-27
-12
-19
-25
-36
-69
-89
-75
-78
-89
-54
-62
-164
-269
-362
-88
1103
2304
1803
169
-553
-260
-114
-200
-161
-137
-173
-148
-122
-133
-124
-102
-92
-83
-76
-67
-45
-21
-10
1
27
54
73
96
130
160
186
223
259
277
281
282
264
204
108
8
-65
-112
-145
-169
-178
-171
-160
-155
-152
-148
-149
-151
-149
-144
-137
-126
-125
-135
-136
-125
-116
-113
-111
-112
-111
-101
-94
-93
-90
-86
-80
-70
-62
-66
-71
-69
-66
-67
-64
-60
-61
-61
-52
-47
-52
-53
-40
-20
-2
5
0
-15
-43
-59
-47
-55
-64
-23
-46
-177
-309
-397
47
1513
2687
1818
2
-569
-178
-87
-197
-142
-117
-148
-123
-100
-95
-78
-72
-70
-49
-25
-3
18
33
47
70
91
110
133
162
194
226
256
282
307
327
333
322
280
193
79
-19
-85
-133
-164
-178
-185
-187
-186
-182
-175
-165
-166
-176
-173
-155
-145
-153
-161
-146
-124
-119
-128
-136
-135
-130
-125
-128
-132
-128
-121
-121
-119
-109
-103
-104
-109
-116
-115
-98
-86
-93
-98
-92
-84
-82
-83
-83
-74
-66
-67
-64
-40
-7
-1
-19
-35
-55
-67
-48
-47
-71
-44
-41
-150
-270
-371
-128
1101
2502
2143
386
-512
-238
-73
-190
-161
-122
-157
-134
-104
-114
-104
-84
-75
-56
-35
-27
-21
-2
23
43
53
73
107
135
153
180
216
240
256
279
295
286
254
196
112
21
-55
-107
-136
-149
-156
-156
-155
-158
-160
-154
-145
-140
-139
-141
-140
-132
-122
-115
-117
-119
-114
-108
-105
-101
-97
-98
-100
-98
-96
-95
-94
-90
-84
-82
-87
-88
-78
-70
-73
-75
-68
-64
-66
-64
-60
-63
-64
-55
-46
-43
-43
-45
-41
-18
7
8
-2
-10
-36
-57
-41
-42
-61
-32
-38
-142
-248
-333
-45
1170
2386
1878
243
-465
-180
-67
-171
-134
-113
-148
-118
-87
-94
-83
-70
-72
-60
-39
-23
-7
11
27
45
70
95
112
126
153
188
210
226
252
275
279
271
247
186
98
18
-38
-77
-108
-132
-148
-152
-147
-140
-136
-130
-127
-134
-144
-147
-139
-128
-120
-115
-108
-104
-106
-110
-109
-102
-98
-103
-109
-109
-105
-100
-94
-92
-97
-98
-91
-85
-86
-90
-94
-92
-90
-93
-95
-89
-79
-76
-79
-83
-83
-80
-75
-68
-66
-65
-57
-35
-7
7
-4
-28
-50
-55
-43
-55
-77
-43
-27
-111
-215
-325
-165
881
2177
1966
408
-489
-279
-80
-157
-144
-107
-127
-107
-86
-95
-80
-61
-65
-60
-38
-18
1
16
21
30
53
76
97
126
163
198
227
256
280
287
292
305
294
233
146
63
-9
-71
-109
-120
-124
-133
-143
-140
-130
-129
-135
-134
-129
-132
-133
-127
-124
-124
-123
-123
-120
-113
-111
-116
-117
-111
-104
-99
-101
-105
-100
-92
-91
-91
-87
-81
-81
-84
-84
-78
-74
-77
-77
-68
-63
-66
-63
-55
-54
-54
-47
-32
-9
6
0
-22
-48
-61
-48
-52
-76
-49
-32
-117
-237
-368
-208
905
2324
2150
482
-514
-296
-78
-170
-156
-115
-149
-134
-100
-107
-100
-74
-63
-58
-46
-29
-7
10
21
38
65
86
103
131
159
180
206
242
271
285
290
283
256
198
112
25
-48
-104
-138
-156
-167
-170
-168
-169
-165
-154
-146
-147
-150
-149
-142
-137
-133
-129
-126
-122
-118
-121
-125
-121
-114
-114
-117
-119
-119
-110
-105
-111
-111
-96
-84
-89
-98
-93
-78
-74
-83
-85
-70
-59
-64
-72
-67
-59
-57
-62
-62
-49
-37
-37
-37
-15
15
14
-15
-39
-49
-47
-42
-65
-74
-37
-61
-164
-270
-344
135
1540
2466
1450
-189
-538
-131
-84
-164
-88
-79
-111
-71
-47
-51
-31
-14
-12
2
21
36
53
70
84
97
115
135
151
168
197
226
245
266
287
295
294
289
262
196
108
30
-33
-86
-119
-134
-145
-152
-153
-151
-147
-143
-144
-147
-145
-144
-144
-136
-121
-115
-116
-118
-122
-121
-113
-116
-128
-126
-118
-123
-127
-114
-101
-103
-112
-112
-112
-117
-115
-101
-93
-99
-108
-105
-95
-91
-95
-98
-96
-89
-84
-86
-89
-81
-66
-54
-49
-37
-20
-19
-34
-56
-80
-80
-60
-76
-88
-42
-58
-171
-286
-362
61
1376
2331
1460
-123
-546
-174
-91
-166
-110
-98
-130
-113
-96
-84
-60
-57
-59
-38
-11
4
16
29
45
66
94
118
136
160
197
232
253
277
314
347
351
328
290
222
126
33
-36
-84
-111
-130
-149
-152
-141
-141
-146
-137
-125
-123
-127
-126
-124
-124
-121
-113
-114
-121
-119
-105
-98
-104
-112
-110
-99
-93
-97
-100
-97
-95
-90
-84
-93
-104
-98
-90
-98
-100
-84
-71
-74
-81
-80
-71
-64
-70
-75
-53
-21
-12
-20
-32
-61
-81
-60
-58
-85
-53
-33
-136
-269
-398
-233
920
2409
2234
476
-581
-347
-98
-176
-159
-119
-149
-124
-88
-92
-81
-66
-72
-63
-44
-34
-16
12
30
42
62
89
115
140
171
207
241
268
288
306
324
333
300
214
106
12
-60
-117
-154
-168
-170
-173
-180
-177
-163
-156
-162
-162
-151
-146
-146
-139
-128
-123
-121
-121
-120
-118
-118
-121
-119
-114
-114
-113
-104
-98
-103
-108
-101
-90
-88
-92
-92
-89
-85
-81
-77
-72
-70
-73
-71
-63
-58
-61
-63
-56
-46
-44
-40
-21
6
12
-1
-14
-36
-56
-45
-46
-65
-37
-37
-132
-236
-352
-119
1126
2485
2031
263
-558
-239
-76
-184
-148
-114
-152
-131
-105
-114
-101
-81
-75
-62
-46
-36
-18
5
22
39
61
86
111
138
165
190
217
251
280
293
299
300
271
207
125
34
-49
-99
-120
-135
-153
-162
-155
-148
-154
-159
-151
-145
-144
-141
-134
-127
-126
-131
-130
-118
-111
-111
-110
-106
-103
-103
-105
-108
-105
-98
-92
-92
-93
-90
-85
-80
-78
-76
-72
-71
-76
-77
-71
-67
-65
-64
-64
-61
-55
-52
-53
-52
-48
-40
-35
-28
-7
19
26
15
-3
-29
-37
-18
-29
-51
-13
-15
-121
-214
-294
-37
1149
2374
1871
210
-512
-203
-65
-167
-136
-114
-145
-118
-96
-105
-89
-73
-73
-60
-36
-22
-11
3
18
38
57
76
104
130
149
174
208
237
251
258
267
270
246
187
108
25
-49
-97
-123
-142
-160
-169
-170
-166
-154
-143
-144
-152
-157
-152
-139
-125
-121
-125
-124
-121
-125
-127
-120
-115
-115
-115
-114
-110
-104
-106
-108
-102
-98
-100
-96
-86
-85
-91
-95
-87
-77
-79
-84
-77
-70
-71
-70
-68
-67
-58
-46
-45
-49
-43
-24
0
10
0
-12
-29
-52
-51
-51
-77
-61
-28
-86
-191
-317
-261
654
2115
2263
699
-524
-414
-90
-137
-151
-98
-126
-124
-84
-87
-89
-67
-57
-49
-27
-6
7
26
49
62
75
104
140
164
185
216
256
293
319
331
339
341
318
262
177
76
-20
-91
-132
-151
-161
-170
-173
-168
-164
-162
-157
-153
-155
-159
-156
-144
-136
-139
-141
-133
-124
-124
-126
-124
-120
-117
-118
-119
-117
-115
-112
-110
-109
-105
-98
-95
-99
-97
-89
-85
-87
-88
-85
-80
-75
-73
-70
-66
-67
-66
-55
-43
-43
-45
-37
-17
2
4
-7
-27
-48
-47
-33
-53
-60
-24
-67
-190
-306
-351
237
1731
2570
1401
-239
-512
-112
-102
-188
-120
-121
-148
-108
-91
-97
-79
-64
-59
-46
-30
-11
12
29
44
64
84
106
132
156
182
214
242
265
291
309
310
296
260
184
83
-5
-67
-110
-140
-157
-165
-166
-162
-162
-165
-162
-153
-148
-149
-148
-143
-138
-132
-124
-117
-114
-111
-108
-107
-111
-112
-105
-99
-99
-102
-100
-95
-91
-89
-90
-90
-89
-85
-82
-82
-82
-76
-69
-66
-64
-62
-61
-60
-58
-57
-59
-60
-58
-55
-54
-51
-47
-44
-42
-40
-29
-5
15
9
-8
-23
-43
-49
-37
-53
-52
-5
-39
-166
-281
-312
253
1656
2437
1329
-224
-483
-98
-87
-179
-128
-133
-156
-117
-103
-110
-97
-88
-75
-46
-35
-40
-22
14
41
57
74
100
125
138
155
189
224
249
270
288
295
288
259
197
109
21
-45
-85
-111
-129
-137
-140
-144
-142
-137
-132
-130
-131
-131
-128
-123
-118
-114
-113
-109
-100
-94
-93
-93
-96
-97
-93
-88
-86
-88
-84
-78
-78
-82
-77
-66
-61
-62
-68
-74
-73
-66
-65
-65
-60
-58
-64
-63
-57
-58
-62
-57
-49
-51
-61
-64
-55
-43
-36
-33
-27
-10
11
14
-2
-32
-57
-44
-24
-45
-43
-9
-62
-177
-296
-284
484
1940
2341
911
-474
-483
-100
-113
-155
-108
-131
-123
-74
-79
-85
-65
-68
-65
-33
-18
-14
15
48
55
59
81
107
127
153
187
212
233
262
286
296
304
304
261
174
81
-1
-82
-146
-172
-171
-174
-185
-191
-184
-169
-162
-168
-173
-165
-155
-155
-161
-167
-167
-156
-142
-138
-141
-140
-135
-129
-127
-127
-124
-117
-111
-108
-105
-105
-104
-102
-105
-110
-101
-86
-86
-95
-95
-86
-80
-84
-83
-73
-66
-66
-60
-48
-36
-14
10
8
-14
-29
-41
-42
-30
-46
-52
-7
-32
-158
-296
-368
200
1736
2676
1532
-200
-527
-77
-15
-96
-26
-14
-34
3
21
20
36
51
64
