# session 22
-33
-30
-40
-12
58
94
69
36
31
37
32
21
17
18
18
14
11
14
10
2
11
26
7
-23
-20
-8
-12
-11
-6
-16
-18
9
33
34
32
13
-23
-21
-12
-47
-27
10
-111
-293
-455
-390
784
2727
2944
901
-593
-353
-27
-212
-215
-113
-166
-168
-115
-125
-126
-96
-89
-82
-60
-40
-19
0
16
41
69
96
129
164
203
245
262
250
248
246
206
138
60
-24
-91
-127
-150
-160
-158
-164
-172
-156
-139
-152
-175
-178
-166
-156
-151
-149
-145
-136
-132
-139
-142
-134
-130
-134
-135
-131
-125
-118
-117
-123
-126
-131
-130
-107
-97
-125
-139
-120
-113
-115
-100
-94
-107
-104
-95
-95
-84
-66
-74
-94
-89
-71
-71
-78
-63
-30
-11
-8
-22
-58
-74
-57
-77
-88
-38
-78
-230
-381
-453
184
1851
2796
1503
-277
-524
-95
-137
-235
-141
-148
-183
-137
-123
-129
-102
-90
-92
-74
-50
-30
-9
13
33
50
71
99
130
156
180
199
209
208
202
187
153
97
33
-20
-57
-80
-97
-106
-103
-94
-90
-88
-84
-81
-83
-84
-82
-79
-78
-77
-77
-73
-66
-60
-59
-58
-54
-46
-41
-43
-46
-44
-42
-42
-40
-39
-42
-41
-34
-29
-29
-24
-18
-19
-25
-30
-29
-27
-23
-17
-14
-14
-15
-16
-14
-6
1
2
2
10
30
52
45
2
-14
19
8
-42
-20
-11
-109
-231
-358
-86
1211
2514
1939
173
-543
-196
-76
-195
-148
-119
-159
-134
-110
-120
-104
-85
-81
-65
-45
-29
-7
6
10
28
61
89
109
126
146
170
188
188
172
151
121
77
24
-32
-80
-110
-128
-129
-117
-120
-140
-143
-132
-137
-143
-130
-123
-129
-126
-119
-124
-134
-137
-131
-123
-127
-146
-158
-150
-136
-137
-152
-156
-140
-135
-147
-143
-118
-110
-125
-135
-132
-126
-118
-112
-117
-131
-131
-127
-204
-372
-487
-460
-371
-300
-239
-179
-122
-66
-24
4
39
79
97
83
57
60
76
56
53
106
82
-34
-136
-172
336
1697
2541
1520
-48
-369
0
19
-73
-17
-9
-32
-12
-9
-10
9
12
15
32
38
41
59
80
97
113
128
143
160
176
188
189
177
159
144
133
113
76
27
-17
-49
-77
-94
-93
-91
-101
-105
-86
-75
-89
-101
-98
-88
-77
-69
-70
-74
-75
-74
-67
-55
-49
-51
-47
-43
-52
-49
-28
-29
-58
-73
-68
-66
-68
-64
-61
-73
-79
-60
-50
-80
-104
-86
-68
-72
-75
-78
-91
-91
-75
-72
-78
-65
-42
-30
-26
-42
-77
-85
-76
-94
-89
-58
-109
-206
-274
-214
481
1733
2035
760
-423
-413
-122
-180
-214
-156
-181
-190
-150
-142
-139
-116
-105
-99
-80
-59
-40
-19
-2
12
31
50
66
82
101
116
119
117
111
96
75
51
18
-16
-45
-70
-89
-98
-94
-86
-83
-85
-80
-75
-77
-73
-62
-59
-63
-62
-54
-45
-45
-54
-55
-45
-40
-41
-39
-37
-39
-36
-32
-34
-36
-39
-46
-50
-42
-37
-42
-48
-47
-47
-50
-47
-38
-37
-43
-44
-42
-48
-52
-47
-40
-36
-31
-24
-10
8
11
-13
-37
-38
-49
-77
-60
-27
-71
-144
-187
-100
547
1616
1804
674
-321
-316
-89
-126
-135
-87
-97
-96
-76
-68
-41
-11
0
20
45
55
66
85
101
115
130
141
150
166
180
175
163
158
153
135
112
91
65
24
-19
-41
-54
-68
-70
-68
-83
-98
-97
-99
-108
-104
-99
-109
-108
-90
-86
-100
-102
-92
-89
-87
-77
-76
-90
-100
-102
-103
-108
-111
-105
-98
-115
-143
-131
-91
-79
-94
-97
-86
-87
-94
-91
-85
-83
-73
-56
-58
-73
-66
-43
-27
-10
-1
-29
-59
-54
-57
-82
-73
-68
-108
-149
-201
6
913
1835
1435
113
-521
-306
-143
-178
-149
-122
-135
-120
-109
-115
-106
-91
-81
-65
-40
-13
3
9
20
40
59
76
95
115
132
145
151
152
147
139
126
102
62
20
-11
-32
-46
-55
-62
-68
-69
-62
-53
-53
-58
-57
-51
-51
-52
-51
-47
-42
-44
-53
-56
-50
-47
-48
-48
-52
-58
-55
-43
-40
-49
-53
-46
-44
-50
-52
-52
-53
-50
-52
-59
-59
-55
-50
-27
0
9
2
-24
-53
-52
-51
-65
-43
-34
-99
-178
-245
-1
1018
2048
1597
137
-513
-227
-69
-145
-117
-92
-125
-109
-86
-92
-82
-65
-58
-45
-28
-17
-1
20
37
53
75
96
112
127
144
157
153
136
119
102
77
41
0
-39
-73
-102
-119
-121
-121
-126
-128
-123
-121
-121
-114
-107
-109
-109
-104
-104
-107
-103
-99
-100
-100
-95
-93
-94
-93
-95
-98
-98
-98
-101
-99
-92
-92
-95
-94
-91
-91
-94
-97
-96
-92
-93
-100
-102
-87
-61
-40
-27
-37
-78
-97
-82
-87
-86
-55
-87
-166
-208
-134
457
1574
1948
855
-319
-396
-90
-106
-151
-94
-100
-109
-70
-58
-57
-31
-14
-8
11
34
51
68
85
101
119
133
143
158
179
195
193
180
167
155
136
108
74
38
4
-21
-34
-44
-52
-56
-57
-53
-49
-49
-52
-56
-61
-63
-64
-65
-67
-65
-62
-62
-62
-60
-60
-59
-55
-58
-64
-64
-61
-62
-65
-67
-65
-62
-65
-72
-77
-80
-78
-76
-75
-74
-71
-73
-76
-73
-59
-37
-15
-7
-24
-63
-94
-97
-104
-106
-73
-79
-161
-237
-276
34
1072
1969
1382
-16
-527
-227
-114
-185
-141
-125
-161
-134
-97
-89
-71
-59
-60
-48
-37
-33
-14
14
27
35
57
82
99
113
126
131
124
110
98
88
69
38
4
-28
-54
-75
-88
-95
-99
-100
-98
-96
-94
-92
-91
-92
-91
-93
-93
-84
-77
-80
-80
-75
-73
-72
-70
-71
-72
-68
-64
-65
-66
-69
-73
-68
-61
-59
-58
-55
-54
-53
-48
-45
-45
-38
-28
-28
-29
-6
26
37
33
18
-12
-25
-17
-31
-34
-4
-35
-125
-204
-187
365
1525
2008
958
-284
-420
-101
-98
-151
-94
-95
-114
-87
-74
-71
-55
-46
-42
-26
-9
2
18
37
52
69
88
104
119
138
149
145
139
137
124
99
73
44
7
-30
-59
-81
-94
-95
-92
-94
-96
-94
-92
-90
-86
-83
-84
-87
-86
-81
-78
-81
-81
-74
-68
-65
-63
-64
-68
-68
-67
-67
-64
-62
-61
-58
-52
-50
-55
-58
-57
-55
-49
-40
-37
-47
-60
-63
-52
-43
-45
-45
-33
-24
-23
-15
0
10
15
-2
-43
-70
-71
-90
-98
-60
-77
-177
-281
-354
6
1157
2023
1283
-152
-587
-258
-149
-203
-154
-141
-167
-136
-102
-92
-79
-66
-50
-26
-12
1
27
50
62
79
111
141
161
178
194
200
193
182
173
165
144
99
44
-3
-37
-63
-76
-79
-81
-83
-82
-79
-76
-75
-79
-82
-77
-64
-55
-58
-67
-70
-65
-62
-69
-72
-64
-58
-63
-65
-59
-57
-61
-61
-62
-67
-66
-62
-61
-58
-53
-52
-55
-53
-49
-47
-46
-45
-43
-43
-45
-43
-37
-40
-39
-16
7
11
2
-23
-49
-47
-56
-78
-43
-28
-125
-236
-311
-97
956
2194
1903
317
-526
-269
-98
-209
-180
-135
-178
-165
-130
-133
-118
-93
-89
-83
-64
-44
-22
-2
12
33
61
82
100
128
153
162
167
168
156
136
118
85
31
-18
-51
-76
-91
-95
-97
-100
-99
-97
-92
-89
-93
-96
-86
-76
-77
-77
-73
-73
-71
-63
-63
-66
-63
-63
-67
-66
-63
-67
-72
-69
-67
-70
-73
-72
-68
-67
-68
-69
-69
-66
-62
-62
-65
-63
-57
-52
-53
-55
-55
-55
-58
-57
-53
-49
-47
-40
-23
-2
9
1
-28
-51
-47
-51
-65
-39
-44
-131
-206
-233
69
1107
2070
1542
107
-476
-208
-111
-194
-151
-143
-179
-142
-121
-136
-113
-97
-95
-58
-46
-85
-76
-14
19
32
61
85
100
122
143
157
169
172
163
148
126
92
52
16
-11
-31
-45
-52
-53
-51
-49
-50
-45
-28
-7
-3
-24
-42
-27
-6
-16
-29
-15
-3
-13
-26
-31
-30
-17
-7
-14
-20
-8
-3
-23
-35
-13
11
-1
-28
-28
-3
10
1
-5
2
1
-12
-15
-2
8
3
-8
-14
-5
11
14
1
-7
9
36
49
30
-11
-39
-29
-26
-48
-33
-21
-88
-140
-138
45
835
1821
1632
326
-450
-282
-121
-193
-166
-122
-154
-151
-131
-140
-131
-109
-102
-92
-70
-63
-74
-68
-41
-21
-8
10
18
20
38
49
33
11
-4
-28
-50
-67
-104
-149
-167
-180
-214
-236
-228
-216
-215
-216
-213
-205
-199
-201
-200
-190
-187
-196
-200
-196
-195
-193
-180
-171
-170
-163
-153
-158
-169
-170
-167
-169
-168
-166
-172
-183
-194
-203
-214
-231
-263
-300
-315
-309
-306
-299
-276
-258
-258
-259
-254
-240
-219
-207
-207
-187
-135
-77
-39
-40
-75
-85
-34
14
16
33
70
52
-1
-74
-56
574
1770
2144
1050
-56
-91
217
237
233
297
288
276
312
337
354
376
389
407
440
465
478
499
529
552
565
579
598
618
640
664
679
672
651
634
620
594
556
515
474
438
421
411
389
373
386
390
364
348
355
346
325
324
323
297
257
214
174
152
137
113
95
89
76
56
45
37
22
9
3
-7
-20
-26
-28
-40
-54
-52
-41
-35
-31
-26
-22
-11
0
-8
-34
-59
-85
-118
-142
-156
-183
-223
-275
-346
-399
-414
-447
-493
-511
-575
-697
-805
-875
-536
531
1280
480
-931
-1361
-1126
-1145
-1292
-1328
-1417
-1531
-1588
-1684
-1813
-1895
-1963
-2037
-2091
-2124
-2140
-2129
-2146
-2237
-2341
-2406
-2462
-2490
-2441
-2402
-2495
-2679
-2831
-2934
-3054
-3191
-3318
-3474
-3565
-3409
-3201
-3289
-3546
-3670
-3674
-3655
-3649
-3617
-3457
-3351
-3345
-2756
-1546
-969
-1355
-1626
-1376
-868
-213
256
782
2070
3441
4154
4916
5692
6039
6989
8408
8888
9849
12735
14575
14163
15712
19837
21860
21625
21822
20237
15714
12627
12415
11902
10382
9209
8016
5999
3407
1185
-19
-1106
-3117
-5246
-6506
-7159
-7456
-7371
-7259
-7371
-7670
-8286
-9022
-8911
-7763
-7187
-8166
-9239
-9088
-8464
-8167
-7888
-7463
-7108
-6779
-6391
-6028
-5703
-5386
-5100
-4852
-4631
-4436
-4240
-3991
-3689
-3391
-3126
-2862
-2566
-2254
-1992
-1816
-1653
-1425
-1179
-980
-821
-689
-588
-499
-415
-338
-252
-140
-9
132
266
371
446
528
626
710
801
946
1066
1074
1037
1000
946
988
1162
1247
1165
1111
1136
1146
1150
1174
1188
1198
1217
1235
1259
1276
1258
1227
1221
1231
1234
1220
1191
1157
1129
1118
1129
1137
1126
1094
1045
1010
1002
972
933
939
911
804
690
600
924
2065
2985
2256
740
240
538
583
471
502
475
395
420
456
418
405
456
481
453
428
420
403
383
372
371
402
448
457
448
434
364
329
477
646
566
336
196
150
104
35
-42
-100
-155
-221
-208
-102
-66
-139
-195
-224
-287
-334
-337
-354
-374
-359
-347
-340
-275
-190
-184
-232
-277
-340
-420
-476
-517
-564
-595
-606
-620
-639
-647
-645
-647
-649
-641
-634
-633
-630
-629
-630
-612
-573
-544
-532
-530
-552
-586
-579
-552
-540
-507
-489
-539
-595
-656
-512
380
1543
1423
46
-798
-622
-440
-531
-524
-473
-488
-471
-437
-436
-425
-398
-375
-349
-320
-290
-254
-219
-140
102
556
1087
1431
1399
1092
797
634
524
429
363
302
230
161
93
42
18
-6
-42
-52
-17
34
58
37
-10
-44
-59
-67
-72
-78
-83
-71
-55
-60
-76
-83
-88
-96
-91
-85
-92
-96
-88
-83
-84
-84
-80
-64
-38
-28
-37
-42
-30
-18
-13
-14
-18
-21
-7
13
11
-3
8
47
82
88
59
24
21
28
14
27
55
9
-46
-69
-78
411
1589
2121
1035
-279
-407
-23
13
-43
10
2
-14
47
84
49
26
71
133
137
98
89
106
110
114
130
134
135
162
193
191
168
155
154
147
121
78
23
-31
-75
-111
-141
-154
-150
-138
-123
-106
-91
-76
-57
-50
-61
-77
-84
-87
-94
-110
-123
-124
-123
-129
-131
-120
-109
-107
-112
-118
-122
-122
-124
-128
-133
-139
-152
-163
-166
-163
-163
-171
-173
-157
-147
-160
-145
-69
-12
-27
-51
-42
-52
-93
-107
-100
-121
-119
-80
-113
-207
-319
-339
323
1706
2197
908
-446
-479
-104
-142
-210
-148
-152
-160
-122
-110
-99
-70
-56
-47
-25
-9
-1
13
38
64
79
87
105
131
153
169
188
208
218
209
183
141
90
41
-10
-59
-86
-95
-114
-132
-128
-118
-122
-129
-130
-128
-122
-120
-127
-126
-115
-114
-113
-87
-61
-64
-75
-78
-79
-77
-76
-83
-87
-83
-85
-92
-83
-65
-65
-75
-77
-70
-62
-51
-45
-47
-46
-43
-43
-46
-43
-34
-30
-34
-28
1
26
30
19
-5
-19
-14
-26
-29
27
32
-73
-176
-242
53
1186
2248
1675
137
-450
-138
-48
-162
-117
-85
-119
-100
-72
-71
-58
-45
-41
-31
-21
-7
16
37
50
63
82
102
122
139
147
149
156
161
149
129
106
74
34
3
-25
-55
-76
-83
-87
-89
-87
-85
-87
-89
-86
-86
-86
-79
-70
-75
-89
-94
-88
-89
-93
-90
-89
-89
-77
-59
-54
-56
-58
-66
-76
-78
-78
-84
-87
-87
-91
-94
-92
-90
-92
-93
-90
-89
-92
-92
-85
-81
-81
-83
-86
-87
-82
-66
-45
-22
0
0
-27
-31
-7
-11
-13
23
5
-81
-174
-240
176
1349
2069
1170
-199
-495
-175
-132
-199
-155
-146
-163
-147
-142
-133
-104
-87
-82
-73
-67
-60
-45
-29
-13
10
31
47
65
82
87
86
89
86
73
64
56
34
0
-37
-72
-91
-88
-81
-83
-94
-102
-100
-91
-79
-65
-59
-42
5
46
38
11
1
-3
-12
-12
6
45
83
86
59
46
50
45
32
32
43
39
21
9
6
11
23
33
28
