# session 7
77
64
63
218
367
278
145
151
169
152
164
175
163
148
128
128
133
106
111
137
67
-77
-295
-359
523
2083
2323
792
-365
-221
21
-93
-86
-27
-76
-70
-32
-49
-44
-11
-7
4
40
62
66
79
94
97
88
67
34
11
10
5
-33
-97
-159
-203
-234
-265
-293
-298
-291
-303
-336
-359
-364
-373
-386
-389
-397
-410
-416
-420
-417
-396
-391
-401
-389
-389
-424
-424
-407
-426
-407
-371
-439
-613
-902
-865
380
2043
1846
1
-956
-593
-370
-486
-432
-370
-398
-357
-306
-303
-275
-227
-192
-162
-129
-91
-55
-26
17
60
62
46
42
31
7
-15
-55
-120
-177
-204
-206
-194
-183
-173
-154
-137
-129
-108
-80
-65
-49
-21
5
25
52
78
101
140
188
231
266
283
306
366
399
409
517
644
594
399
106
68
1162
2836
2836
1031
-107
138
339
181
232
334
285
309
427
496
532
583
622
635
649
662
674
778
996
1152
1160
1147
1168
1178
1175
1140
1061
1022
1113
1244
1234
1135
1157
1142
997
1233
1935
2836
4879
7991
8227
2973
-3447
-5561
-4355
-3930
-4895
-5302
-4808
-4332
-3723
-2454
-956
1
-154
-1335
-2333
-2167
-1190
-267
117
370
873
372
-1863
-3823
-4275
-4701
-5517
-5200
-3546
-1906
-940
-480
-557
-954
-681
542
1516
1626
1683
2015
2394
3037
3083
1188
-1040
-1066
217
734
448
-67
-693
-1477
-2485
-2972
-2484
-2292
-2962
-3438
-3630
-3763
-2920
-1253
-195
82
438
1294
2525
3369
3108
2263
1755
1627
1518
1228
700
146
-189
-319
-267
-77
16
20
184
430
703
1211
1645
1831
2657
3945
3723
1900
766
901
962
672
572
594
552
527
514
472
440
446
489
528
519
461
373
288
261
310
397
473
521
572
644
691
665
589
512
432
334
240
169
100
24
-22
-27
-46
-109
-168
-191
-218
-269
-312
-334
-343
-334
-312
-303
-312
-299
-251
-205
-178
-178
-200
-194
-172
-231
-322
-348
-376
-474
-713
-881
-77
1626
2089
501
-857
-695
-335
-454
-465
-357
-388
-409
-383
-392
-378
-326
-297
-284
-268
-260
-255
-233
-200
-182
-180
-174
-166
-166
-168
-189
-247
-322
-384
-422
-437
-435
-423
-411
-414
-421
-411
-397
-393
-379
-362
-365
-369
-347
-323
-311
-291
-266
-253
-248
-240
-231
-219
-190
-146
-144
-221
-280
-259
-259
-285
-257
-267
-369
-528
-745
-384
1123
2243
1232
-480
-761
-252
-186
-260
-165
-144
-149
-81
-39
-7
63
125
164
196
233
288
337
363
405
459
477
464
474
511
515
446
337
229
132
62
43
47
40
54
107
140
123
108
135
173
189
194
213
230
222
197
177
163
149
142
157
194
211
186
147
119
115
143
153
137
156
149
43
-127
-387
-294
935
2388
1992
212
-598
-248
-86
-195
-138
-90
-114
-65
-18
-22
-11
4
12
54
106
124
139
186
205
142
55
14
-5
-40
-76
-98
-119
-150
-195
-245
-277
-281
-278
-278
-281
-285
-288
-282
-271
-267
-276
-291
-301
-287
-260
-259
-273
-259
-237
-253
-278
-263
-239
-239
-226
-199
-213
-236
-214
-212
-233
-199
-209
-321
-485
-745
-499
1041
2495
1722
-178
-735
-286
-233
-365
-274
-236
-266
-221
-183
-172
-145
-120
-83
-26
14
52
118
176
211
250
290
305
300
292
280
257
213
150
86
41
16
1
-2
7
15
10
-2
-10
-12
-18
-37
-55
-56
-48
-48
-60
-73
-76
-80
-94
-112
-131
-148
-145
-133
-135
-114
-75
-91
-122
-95
-82
-77
-9
-14
-139
-292
-525
-236
1347
2766
1933
81
-416
-47
-92
-219
-111
-93
-124
-70
-51
-49
4
40
50
72
101
138
185
213
222
230
223
196
173
153
114
69
31
-14
-55
-71
-75
-92
-119
-135
-128
-115
-105
-98
-99
-106
-95
-71
-63
-76
-91
-89
-71
-71
-82
-67
-51
-68
-65
-40
-82
-168
-192
-165
-152
-154
-179
-216
-218
-220
-240
-220
-235
-351
-484
-625
-399
789
1977
1421
-178
-773
-457
-385
-468
-381
-363
-403
-345
-302
-312
-273
-207
-169
-142
-110
-73
-26
26
89
166
210
204
202
228
247
234
199
149
95
57
44
46
49
48
45
45
44
44
51
52
29
8
25
57
68
66
74
88
107
126
133
135
149
163
176
207
244
264
268
252
241
271
272
176
42
-100
-256
-455
-723
-477
901
2116
1357
-338
-824
-389
-247
-299
-231
-163
-45
108
137
130
185
212
195
202
228
254
278
277
254
255
274
265
241
229
191
93
-33
-144
-226
-287
-340
-377
-376
-348
-333
-347
-363
-351
-323
-308
-303
-296
-286
-271
-267
-279
-277
-256
-247
-254
-256
-248
-233
-223
-228
-221
-187
-186
-226
-226
-194
-203
-189
-131
-160
-290
-479
-536
215
1659
2017
613
-630
-516
-119
-133
-133
-53
-79
-85
-42
-48
-56
-17
17
43
93
151
186
206
246
303
322
293
271
264
215
131
65
3
-85
-156
-182
-196
-203
-183
-155
-143
-135
-117
-93
-86
-94
-92
-72
-62
-75
-92
-87
-62
-38
-19
-1
3
2
21
45
65
92
104
88
89
92
69
89
114
33
-124
-346
-328
714
2257
2241
559
-473
-172
105
-4
23
95
51
57
105
107
112
140
169
192
201
211
245
284
305
319
326
313
285
247
199
143
78
9
-47
-93
-122
-137
-160
-179
-179
-238
-388
-540
-663
-774
-774
-617
-453
-381
-343
-302
-275
-256
-238
-228
-226
-226
-219
-206
-204
-208
-231
-298
-333
-270
-216
-208
-151
-121
-206
-361
-600
-370
1111
2580
1870
-69
-715
-290
-251
-403
-264
-145
-126
-51
1
13
58
99
121
161
191
186
186
201
208
208
201
170
118
75
48
17
-37
-105
-163
-199
-216
-218
-209
-194
-184
-176
-170
-166
-161
-151
-146
-147
-143
-140
-141
-140
-138
-137
-135
-136
-140
-140
-143
-151
-141
-98
-43
-21
-57
-93
-84
-87
-93
-47
-57
-152
-280
-515
-266
1274
2736
1995
158
-345
105
145
31
142
170
114
123
108
80
113
153
164
176
199
230
252
263
282
305
309
294
272
246
216
183
135
67
-5
-53
-71
-77
-81
-91
-118
-136
-121
-127
-194
-234
-202
-184
-217
-244
-242
-233
-229
-236
-241
-220
-187
-174
-174
-164
-145
-131
-115
-86
-79
-111
-130
-130
-157
-173
-177
-244
-352
-503
-564
93
1364
1661
469
-507
-400
-192
-298
-280
-187
-213
-208
-131
-91
-101
-125
-126
-96
-61
-2
89
154
189
229
257
261
261
263
262
253
209
119
30
-5
-5
-18
-41
-45
-51
-80
-105
-106
-96
-87
-83
-89
-91
-83
-73
-64
-57
-48
-41
-39
-33
-22
-24
-35
-35
-24
-14
-3
-12
-46
-57
-43
-65
-75
-34
-57
-151
-305
-497
-49
1418
2280
1152
-379
-545
-123
-107
-155
-70
-68
-78
-25
5
20
56
88
117
145
163
186
218
238
240
236
223
198
161
109
45
-13
-68
-134
-216
-282
-313
-323
-323
-301
-269
-248
-238
-230
-226
-219
-200
-183
-187
-201
-199
-183
-167
-158
-160
-169
-169
-156
-144
-138
-130
-121
-127
-157
-174
-153
-150
-170
-143
-124
-185
-306
-526
-418
759
2116
1696
-9
-738
-333
-114
-188
-130
-85
-96
-36
18
40
99
155
172
200
246
285
322
365
394
396
392
389
368
325
271
207
133
64
7
-39
-71
-90
-99
-102
-101
-96
-94
-97
-97
-88
-83
-90
-98
-97
-95
-99
-104
-106
-110
-116
-121
-127
-125
-114
-108
-102
-90
-100
-123
-116
-118
-134
-100
-96
-191
-339
-587
-446
905
2394
1879
48
-661
-259
-140
-261
-192
-159
-195
-149
-111
-112
-82
-53
-44
-14
24
52
89
130
161
178
184
171
141
106
68
23
-30
-83
-119
-140
-165
-174
-139
-100
-105
-118
-113
-112
-118
-117
-112
-101
-94
-97
-85
-67
-81
-64
42
120
68
-22
-49
-34
-21
-8
13
16
-11
-15
2
-12
5
55
3
-132
-341
-503
190
1754
2213
755
-531
-433
-140
-253
-261
-181
-217
-213
-161
-153
-123
-64
-39
-23
10
44
77
112
145
175
189
181
161
133
93
49
3
-52
-113
-158
-185
-202
-203
-190
-182
-181
-169
-153
-153
-158
-157
-155
-153
-152
-151
-143
-126
-109
-101
-101
-100
-91
-89
-99
-100
-104
-145
-201
-234
-259
-243
-160
-94
-70
-29
-43
-129
-238
-435
-186
1223
2498
1690
-117
-610
-127
-12
-105
-16
27
5
60
136
159
108
45
67
132
162
208
274
293
290
311
312
278
244
199
130
58
-14
-87
-143
-184
-216
-221
-210
-211
-214
-198
-177
-168
-164
-161
-162
-165
-159
-148
-145
-142
-129
-118
-114
-109
-109
-118
-113
-97
-92
-92
-82
-66
-52
-53
-79
-93
-79
-90
-97
-64
-91
-182
-314
-484
-25
1485
2382
1163
-503
-660
-148
-115
-187
-100
-99
-117
-67
-54
-60
-22
22
51
82
118
150
181
219
249
250
232
219
197
154
105
44
-33
-104
-147
-171
-192
-203
-199
-189
-180
-173
-169
-167
-161
-155
-153
-152
-150
-147
-143
-138
-137
-131
-118
-116
-124
-118
-103
-99
-85
-58
-49
-46
-36
-46
-58
-50
-63
-64
-19
-46
-145
-259
-411
-19
1388
2324
1273
-304
-508
-57
-41
-108
-8
-3
-40
-15
-11
-11
21
44
62
91
114
140
179
213
243
269
274
259
231
188
139
93
44
-7
-56
-95
-110
-102
-99
-104
-98
-83
-81
-84
-79
-72
-74
-83
-98
-115
-123
-129
-140
-147
-149
-162
-186
-190
-169
-156
-166
-164
-142
-118
-96
-98
-128
-137
-134
-157
-144
-107
-162
-259
-383
-440
244
1624
1943
548
-634
-502
-171
-242
-240
-150
-180
-184
-128
-118
-105
-55
-31
-30
0
54
97
124
140
137
124
121
128
120
86
43
1
-62
-142
-191
-205
-217
-216
-193
-183
-183
-168
-161
-168
-148
-112
-105
-113
-109
-98
-70
-31
-16
-14
-5
-19
-49
-43
-5
14
22
45
68
72
59
37
31
27
-10
-11
51
43
-43
-153
-221
333
1664
2152
768
-677
-611
-47
19
-9
72
62
47
99
117
112
130
158
190
223
251
288
334
373
397
404
391
360
318
263
193
106
3
-92
-159
-202
-238
-259
-263
-259
-258
-256
-253
-254
-256
-248
-235
-229
-231
-237
-246
-252
-252
-254
-257
-255
-251
-243
-218
-196
-194
-196
-203
-214
-206
-205
-220
-185
-156
-217
-313
-491
-441
671
2189
1953
109
-855
-446
-141
-226
-180
-118
-149
-116
-69
-66
-39
-4
18
62
114
148
187
239
288
325
339
316
270
217
152
72
-8
-76
-132
-175
-197
-199
-191
-196
-217
-229
-209
-171
-141
-120
-103
-88
-72
-56
-49
-56
-57
-46
-40
-40
-31
-25
-33
-27
-4
8
16
22
8
1
12
4
11
47
12
-80
-212
-332
222
1661
2324
1116
-259
-329
3
-50
-81
4
-21
-47
2
33
3
-70
-102
-37
46
84
110
145
186
220
234
240
235
184
109
15
-203
-501
-619
-485
-328
-282
-270
-246
-228
-208
-187
-177
-173
-177
-186
-180
-167
-171
-181
-177
-162
-149
-147
-153
-157
-163
-166
-150
-123
-103
-85
-87
-118
-126
-108
-116
-99
-60
-116
-232
-396
-483
322
1984
2393
710
-733
-548
-96
-161
-174
-77
-96
-80
-15
-13
-9
27
47
71
112
161
216
264
300
344
386
397
386
362
312
226
116
4
-85
-137
-166
-197
-221
-209
-184
-178
-176
-157
-136
-134
-142
-139
-117
-103
-110
-114
-101
-95
-94
-82
-75
-86
-89
-70
-60
-51
-34
-43
-65
-54
-60
-91
-60
-44
-131
-268
-486
-309
1083
2593
1984
-29
-815
-329
-118
-218
-139
-91
-134
-102
-66
-62
-31
-3
12
50
95
134
183
233
268
297
313
301
268
226
163
73
-26
-112
-175
-210
-232
-249
-252
-245
-239
-228
-210
-201
-203
-202
-197
-192
-187
-183
-184
-180
-171
-167
-167
-160
-148
-146
-143
-120
-92
-80
-67
-55
-78
-97
-85
-97
-102
-51
-70
-181
-325
-507
-82
1505
2631
1522
-289
-610
-135
-109
-195
-103
-108
-143
-93
-77
-79
-38
-12
-5
29
75
112
157
206
246
277
294
284
255
217
167
97
15
-63
-119
-152
-171
-178
-176
-168
-160
-152
-141
-133
-133
-137
-138
-134
-126
-121
-123
-126
-124
-123
-126
-126
-119
-115
-117
-124
-137
-141
-125
-104
-86
-74
-93
-128
-126
-122
-136
-103
-93
-185
-311
-521
-457
709
2207
1945
252
-565
-314
-282
-414
-272
-178
-218
-182
-138
-136
-97
-61
-60
-33
16
51
92
154
218
265
288
279
256
244
220
168
108
25
-62
-67
-45
-110
-167
-108
-45
-53
-51
-24
-9
21
68
80
54
19
-8
-7
4
-13
-24
16
57
63
79
105
78
21
8
28
28
18
4
-38
-66
-38
-21
-61
-80
-41
-1
17
12
-35
-166
-422
-289
1020
2619
2427
694
-339
-252
-167
-233
-196
-253
-320
-240
-229
-307
-277
-202
-190
-174
-168
-199
-151
-17
61
84
144
211
223
182
87
-51
-184
-280
-330
-341
-348
-345
-305
-254
-228
-240
-293
-324
-285
-254
-304
-383
-396
-321
-220
-157
-122
-107
-136
-170
-144
-71
-4
18
-3
18
133
228
242
239
161
1
-43
13
-54
-231
-239
385
1637
2224
1169
-260
-522
-107
-8
-123
-129
-82
-66
-122
-205
-181
-95
-64
-45
-43
-136
-196
-99
11
12
-15
-5
41
137
251
315
316
282
209
103
9
-51
-91
-81
-25
-31
-99
-79
-6
-43
-139
-169
-187
-231
-247
-269
-296
-228
-114
-70
-50
-55
-177
-286
-235
-168
-150
-51
89
136
133
122
73
38
13
-78
-146
-219
-337
183
1557
2115
873
-424
-417
-53
-107
-209
-195
-173
-130
-112
-130
-134
-171
-194
-144
-165
-267
-249
-110
-21
-3
11
