# session 12
-21
-27
-47
100
324
366
322
355
389
390
422
472
513
531
498
455
447
410
305
200
136
79
22
5
31
63
98
149
168
115
58
62
63
16
2
40
27
-41
-46
38
123
123
21
-86
-85
-31
-10
37
50
-95
-312
-486
-222
1147
2741
2430
474
-663
-455
-240
-311
-262
-223
-272
-256
-236
-264
-254
-212
-185
-155
-122
-80
-16
29
44
62
85
103
117
74
-23
-50
-23
-101
-239
-257
-195
-178
-164
-120
-108
-114
-87
-65
-77
-79
-59
-53
-77
-98
-86
-63
-79
-119
-129
-102
-79
-71
-75
-106
-140
-128
-148
-275
-429
-627
-559
713
2649
2778
783
-663
-560
-319
-412
-389
-365
-436
-441
-432
-424
-356
-299
-275
-218
-157
-124
-82
-38
-12
25
83
113
94
89
133
148
76
-16
-55
-82
-144
-201
-216
-207
-182
-152
-144
-152
-140
-106
-67
-31
-13
-21
-22
10
21
-20
-26
14
-4
-55
-57
-72
-80
0
-6
-204
-461
-627
18
1936
3203
1822
-405
-877
-342
-293
-377
-223
-165
-167
-89
-52
-44
-5
4
5
59
122
170
228
283
319
340
331
307
317
321
277
259
278
210
65
-3
14
15
4
18
17
-22
-51
-39
-22
-30
-39
-43
-64
-90
-95
-94
-122
-176
-217
-221
-216
-221
-205
-191
-247
-281
-209
-214
-339
-449
-607
-252
1438
2961
1982
-239
-919
-424
-330
-408
-244
-214
-293
-235
-177
-200
-192
-159
-139
-100
-56
-46
-33
13
30
-1
-10
17
29
24
26
13
-28
-90
-169
-216
-198
-182
-235
-301
-277
-160
-55
-46
-98
-127
-114
-99
-95
-88
-64
-35
-31
-56
-66
-45
-41
-55
-42
-29
-29
19
36
-99
-278
-413
-174
1172
2835
2506
339
-921
-632
-388
-529
-484
-413
-484
-488
-448
-477
-492
-456
-428
-401
-346
-297
-271
-225
-121
49
214
281
277
276
234
117
-13
-125
-223
-274
-223
-68
82
131
118
100
126
262
368
280
218
343
350
122
-22
31
99
130
162
167
126
99
121
124
115
192
239
148
18
-177
34
1593
3368
2765
410
-696
-320
-168
-324
-244
-192
-254
-217
-173
-186
-155
-106
-111
-122
-85
-45
-34
-5
47
48
2
-5
18
-4
-52
-61
-61
-110
-179
-215
-233
-254
-257
-241
-224
-205
-188
-187
-202
-221
-236
-243
-245
-251
-255
-249
-228
-197
-167
-139
-107
-96
-98
-85
-95
-121
-90
-100
-228
-389
-570
-264
1254
2774
2150
176
-664
-367
-285
-392
-306
-268
-313
-285
-262
-281
-274
-244
-223
-199
-173
-159
-151
-124
-77
-37
-6
21
35
45
57
44
1
-50
-98
-141
-164
-167
-172
-183
-184
-173
-160
-148
-143
-148
-159
-173
-190
-196
-196
-201
-201
-188
-175
-182
-214
-226
-190
-182
-201
-153
-139
-254
-409
-600
-312
1285
2974
2364
215
-691
-268
-81
-173
-77
-8
-8
55
100
123
190
273
367
437
421
400
452
497
505
538
567
522
442
381
313
212
99
-1
-86
-146
-173
-178
-178
-174
-164
-155
-153
-158
-173
-192
-192
-177
-180
-198
-192
-164
-153
-170
-174
-166
-186
-199
-183
-206
-228
-175
-190
-317
-468
-609
-27
1838
3111
1781
-386
-830
-289
-218
-292
-193
-209
-252
-200
-186
-188
-143
-122
-119
-86
-47
-11
36
84
126
155
157
142
131
117
90
33
-46
-80
-63
-49
-2
90
89
-29
-107
-116
-142
-168
-160
-156
-169
-175
-179
-191
-195
-179
-157
-149
-142
-129
-145
-171
-155
-155
-184
-152
-152
-287
-466
-680
-437
1108
2797
2228
107
-785
-367
-237
-391
-305
-245
-294
-260
-220
-233
-210
-168
-155
-139
-103
-65
-29
7
36
55
63
62
58
61
60
39
18
8
-15
-45
-50
-56
-87
-99
-82
-74
-80
-74
-65
-73
-93
-114
-131
-138
-137
-131
-114
-101
-102
-96
-90
-100
-95
-98
-125
-95
-67
-154
-267
-442
-431
735
2565
2606
663
-554
-257
-2
-138
-87
-15
-76
-60
-10
-22
-14
22
38
46
62
87
121
151
171
183
190
197
200
196
200
203
166
95
36
6
-15
-40
-48
-34
-40
-61
-61
-65
-100
-122
-115
-117
-125
-132
-154
-164
-144
-130
-124
-124
-157
-191
-179
-181
-190
-147
-157
-280
-468
-656
-202
1376
2502
1439
-393
-789
-302
-217
-299
-199
-163
-196
-172
-152
-152
-130
-102
-78
-39
-8
-3
34
109
143
120
111
128
125
100
84
64
7
-57
-71
-71
-113
-156
-141
-116
-133
-148
-136
-144
-164
-146
-122
-138
-154
-148
-155
-162
-141
-124
-110
-89
-106
-146
-154
-152
-135
-109
-180
-341
-525
-531
321
1896
2290
754
-614
-517
-143
-191
-148
-44
-123
-138
-43
-36
-66
-35
7
37
70
95
125
168
196
207
225
224
195
177
171
131
72
42
26
1
-17
-20
-20
-16
-10
-20
-36
-38
-37
-45
-53
-55
-57
-58
-52
-40
-32
-32
-21
-2
-14
-39
-41
-55
-75
-69
-102
-223
-485
-737
-131
1555
2440
1229
-299
-454
-114
-166
-213
-130
-149
-165
-117
-105
-100
-76
-72
-75
-59
-39
-23
-8
5
13
17
16
10
11
25
33
12
-24
-61
-94
-113
-112
-111
-119
-127
-127
-125
-125
-128
-125
-122
-131
-143
-145
-149
-151
-140
-126
-114
-106
-127
-149
-148
-168
-175
-122
-139
-281
-500
-702
-174
1475
2484
1276
-451
-690
-269
-293
-363
-286
-334
-362
-262
-202
-179
-118
-63
-40
-26
-6
29
61
76
90
105
99
79
73
94
129
143
120
88
77
85
102
124
153
190
228
256
263
243
202
159
133
121
106
80
59
51
36
16
6
-20
-56
-61
-71
-101
-75
-53
-141
-293
-518
-445
709
2179
1899
176
-632
-245
-65
-203
-152
-99
-152
-132
-92
-106
-98
-74
-75
-69
-37
-4
18
46
65
51
23
16
13
-9
-24
-12
-12
-42
-69
-74
-81
-95
-107
-121
-135
-132
-117
-119
-140
-152
-151
-152
-157
-158
-153
-147
-151
-148
-125
-127
-160
-157
-139
-150
-128
-112
-207
-393
-685
-682
443
1974
1850
259
-567
-284
-148
-273
-227
-180
-212
-177
-143
-151
-132
-102
-90
-66
-34
-8
15
31
44
57
57
54
69
92
106
109
91
48
13
0
-10
-27
-35
-36
-43
-52
-60
-80
-127
-196
-261
-289
-288
-303
-340
-363
-369
-334
-217
-61
87
216
284
384
654
811
541
72
-350
-367
722
2163
1927
304
-468
-175
-88
-233
-174
-134
-184
-157
-124
-136
-117
-79
-61
-40
-9
22
49
76
98
113
115
115
128
152
172
171
142
93
49
22
4
-13
-28
-44
-66
-83
-91
-99
-106
-111
-121
-132
-138
-146
-148
-137
-128
-120
-105
-104
-112
-99
-99
-100
-59
-64
-155
-324
-602
-381
1012
2232
1432
-255
-670
-230
-166
-252
-162
-145
-181
-142
-117
-111
-75
-45
-26
6
37
65
93
106
104
97
82
62
48
42
38
27
-2
-47
-84
-97
-94
-99
-115
-131
-143
-146
-148
-161
-175
-169
-156
-155
-164
-174
-171
-156
-141
-127
-124
-141
-145
-134
-151
-145
-103
-150
-296
-532
-682
103
1828
2392
831
-637
-540
-124
-205
-241
-137
-147
-154
-99
-80
-76
-52
-28
3
46
81
103
127
156
173
172
160
144
134
136
133
107
61
16
-18
-39
-48
-50
-57
-67
-69
-68
-78
-89
-91
-84
-82
-94
-104
-89
-67
-72
-80
-65
-60
-68
-61
-81
-104
-63
-67
-194
-389
-623
-317
1105
2254
1338
-388
-715
-168
-73
-168
-71
-53
-96
-48
-15
-24
3
40
56
73
99
126
151
169
181
181
163
142
136
141
140
118
73
25
-3
-18
-37
-53
-57
-55
-53
-55
-63
-67
-70
-82
-88
-79
-75
-80
-74
-61
-49
-39
-53
-82
-88
-100
-121
-90
-87
-199
-409
-741
-630
817
2472
2007
76
-711
-288
-151
-291
-218
-176
-230
-198
-156
-164
-145
-107
-85
-58
-18
19
41
47
47
45
45
45
30
9
8
13
-1
-18
-36
-71
-92
-72
-51
-64
-79
-57
-25
-35
-72
-94
-97
-77
-38
-19
-3
43
69
38
-17
-36
8
33
-21
-49
-42
-127
-332
-644
-603
585
2138
2017
447
-397
-190
-94
-201
-163
-155
-194
-158
-148
-163
-126
-110
-113
-66
-29
-37
-23
12
13
-9
-28
-33
-21
-8
-17
-33
-56
-104
-152
-171
-182
-202
-214
-223
-241
-250
-251
-268
-285
-283
-282
-295
-313
-319
-307
-287
-276
-267
-268
-284
-284
-285
-301
-273
-252
-350
-559
-891
-945
177
1864
1918
285
-682
-352
-46
-119
-148
-174
-202
-79
94
210
305
373
430
524
634
736
854
983
1098
1185
1216
1211
1250
1274
1122
828
582
428
298
187
110
50
-4
-60
-112
-145
-174
-216
-247
-257
-275
-299
-316
-333
-338
-323
-311
-319
-347
-377
-377
-363
-368
-349
-330
-392
-564
-858
-824
300
1701
1388
-292
-1047
-604
-332
-400
-333
-272
-304
-269
-224
-222
-184
-134
-121
-100
-63
-42
-18
31
72
79
68
58
55
65
69
39
-19
-75
-113
-135
-140
-140
-138
-132
-128
-125
-114
-101
-97
-101
-102
-98
-101
-112
-108
-91
-81
-71
-59
-75
-87
-74
-95
-106
-49
-66
-225
-496
-754
-152
1649
2650
1318
-380
-481
-26
-87
-148
-37
-66
-97
-25
0
-6
22
53
89
136
153
154
178
212
223
208
182
157
143
139
135
117
83
44
14
2
-4
-18
-34
-42
-50
-60
-64
-66
-72
-81
-83
-81
-92
-107
-98
-72
-53
-38
-38
-61
-72
-78
-95
-64
-42
-142
-360
-712
-731
491
2180
2096
415
-479
-210
-98
-240
-173
-116
-172
-161
-133
-141
-115
-75
-66
-63
-37
6
39
47
47
51
48
39
31
28
32
29
2
-39
-71
-88
-95
-106
-120
-121
-118
-129
-144
-149
-150
-148
-142
-139
-146
-161
-163
-137
-103
-75
-63
-92
-122
-111
-116
-131
-98
-107
-229
-486
-811
-391
1298
2472
1387
-326
-554
-82
-96
-193
-105
-111
-135
-75
-63
-75
-42
-20
-4
48
97
112
127
150
169
180
172
147
137
151
153
115
61
28
0
-56
-106
-109
-95
-98
-101
-94
-99
-107
-108
-112
-98
-49
-37
-97
-137
-100
-54
-43
-55
-76
-83
-80
-88
-67
-34
-86
-248
-548
-666
254
1871
2115
559
-587
-378
-69
-157
-149
-80
-121
-115
-68
-75
-71
-32
-9
3
31
64
93
120
145
155
137
102
77
77
81
60
16
-29
-65
-95
-117
-130
-137
-133
-125
-124
-128
-127
-124
-123
-119
-114
-113
-119
-125
-115
-97
-95
-88
-72
-83
-100
-97
-114
-110
-61
-104
-258
-493
-699
-72
1642
2508
1201
-370
-471
-96
-158
-194
-85
-98
-121
-77
-64
-60
-36
-24
-13
10
41
90
122
102
76
91
107
74
20
-5
7
21
11
-18
-32
-19
-23
-55
-70
-57
-56
-64
-59
-50
-51
-53
-46
-31
-29
-56
-84
-77
-60
-41
-6
2
-32
-52
-68
-77
-33
-48
-184
-382
-633
-346
1161
2493
1668
-147
-625
-192
-178
-319
-221
-176
-202
-159
-132
-137
-109
-71
-50
-28
-4
11
20
44
74
76
49
26
18
22
33
36
5
-52
-89
-87
-83
-99
-117
-136
-144
-130
-133
-164
-170
-151
-150
-154
-151
-153
-148
-132
-114
-73
-52
-124
-200
-166
-112
-123
-116
-103
-177
-332
-629
-721
338
2021
2040
256
-793
-401
-87
-196
-143
-79
-148
-124
-65
-80
-50
23
22
-13
-1
38
65
86
104
113
114
102
74
60
62
28
-41
-101
-144
-162
-158
-178
-199
-181
-184
-201
-109
91
280
415
520
606
670
644
489
323
239
185
142
136
97
12
-28
-46
-86
-86
-92
-177
-360
-646
-357
1219
2571
1652
-238
-684
-218
-195
-279
-158
-187
-251
-170
-140
-178
-168
-144
-117
-70
-54
-45
3
21
-8
-14
-16
-42
-38
-12
-32
-70
-98
-146
-174
-140
-135
-183
-186
-164
-193
-206
-163
-147
-170
-175
-165
-148
-123
-129
-155
-145
-128
-130
-100
-84
-135
-145
-93
-100
-116
-79
-124
-284
-564
-717
174
1957
2437
878
-480
-435
-147
-199
-180
-106
-119
-125
-122
-128
-103
-64
-30
9
58
98
87
58
70
89
88
105
95
46
67
117
74
23
33
-4
-71
-65
-48
-70
-56
-35
-86
-132
-103
-80
-94
-81
-56
-75
-108
-106
-90
-76
-48
-54
-132
-171
-112
-83
-91
-34
-52
-237
-497
-836
-614
1012
2545
1663
-398
-908
-286
-143
-258
-167
-156
-182
-83
-31
-52
-26
6
13
56
132
179
185
190
209
224
229
211
153
105
111
107
44
-16
-31
-37
-66
-98
-111
-121
-127
-108
-88
-99
-109
-97
-110
-152
-154
-116
-100
-91
-53
-32
-62
-95
-110
-111
-98
-91
-82
-54
-70
-227
-559
-656
276
1748
1784
188
-817
-447
-41
-80
-57
-4
-56
-36
38
47
51
88
119
140
167
201
238
261
261
252
262
274
240
190
200
212
128
15
-27
-36
-53
-61
-70
-73
-44
-37
-77
-96
-76
-67
-76
-78
-78
-78
-72
-59
-43
-33
-44
-64
-66
-56
-78
-133
-128
-58
-79
-236
-523
-764
-108
1571
2245
749
-773
-639
-102
-158
-207
-59
-51
-93
-54
-32
-52
-51
1
75
98
78
95
140
159
168
177
146
104
114
133
81
4
-39
-84
-141
-153
-133
-136
-162
-181
-193
-203
-201
-189
-187
-192
-180
-176
-205
-202
-144
-129
-172
-181
-165
-180
-196
-215
-240
-204
-171
-258
-446
-760
-784
378
1962
1703
-168
-1052
-539
-208
-297
-237
-175
-222
-184
-122
-129
-124
-82
-37
-3
28
97
194
244
247
249
236
195
170
169
156
130
103
66
27
-3
-32
-54
-42
-5
15
15
28
54
66
71
81
78
57
39
49
87
124
138
140
148
166
169
143
156
223
212
64
-181
-263
528
2118
2630
1072
-384
41
