# session 6
-63
-47
-96
22
274
303
122
24
6
-61
-115
-104
-97
-104
-109
-139
-175
-179
-179
-185
-167
-154
-141
-91
-78
-151
-184
-140
-128
-154
-168
-197
-187
-96
-109
-271
-466
-736
-384
1528
3352
2435
6
-859
-370
-233
-343
-228
-156
-152
-81
-32
-10
25
22
27
111
179
164
165
238
302
339
393
433
438
460
484
413
248
98
17
-30
-80
-125
-125
-86
-77
-100
-94
-76
-97
-134
-143
-133
-130
-137
-133
-132
-164
-187
-174
-193
-228
-205
-199
-235
-211
-223
-370
-510
-601
-257
1181
2591
1852
-224
-1018
-531
-309
-388
-287
-216
-243
-230
-232
-236
-189
-158
-162
-152
-128
-79
-5
44
60
81
104
111
104
89
81
83
60
3
-41
-38
-24
-51
-96
-96
-54
-40
-80
-131
-152
-138
-104
-70
-62
-93
-124
-99
-47
-26
-24
-26
-31
5
56
27
-56
-142
-247
-345
-460
-318
775
2301
2320
680
-475
-384
-200
-300
-267
-190
-200
-142
-64
-86
-119
-95
-79
-73
-24
38
54
72
149
227
249
249
253
236
174
93
40
-11
-118
-212
-206
-181
-219
-235
-188
-177
-210
-193
-141
-139
-161
-149
-145
-175
-186
-178
-178
-123
-20
7
-24
12
62
43
2
-89
-236
-368
-554
-369
1040
2704
2326
352
-620
-294
-122
-239
-187
-154
-199
-159
-116
-132
-135
-115
-82
-42
-5
43
106
143
163
206
259
284
290
277
229
187
172
121
4
-108
-172
-241
-333
-381
-386
-404
-410
-387
-387
-395
-361
-329
-313
-277
-272
-330
-335
-249
-193
-175
-113
-87
-141
-140
-132
-246
-389
-584
-500
874
2887
2890
723
-698
-449
-166
-318
-285
-176
-206
-183
-116
-121
-109
-48
-24
-6
90
195
211
195
244
328
368
378
399
414
405
372
293
173
72
34
15
-69
-166
-125
-50
-157
-310
-281
-190
-175
-166
-153
-173
-163
-119
-130
-181
-184
-168
-201
-237
-200
-160
-180
-172
-162
-280
-422
-513
-355
752
2353
2308
401
-847
-537
-156
-232
-220
-163
-209
-210
-197
-221
-202
-163
-132
-76
-30
-29
-23
6
27
41
84
153
198
203
165
110
150
273
228
-7
-104
-7
9
-83
-90
-15
-3
-74
-139
-152
-142
-146
-163
-152
-97
-73
-105
-95
-45
-74
-140
-106
-67
-140
-158
-82
-140
-325
-534
-514
564
2384
2626
737
-712
-546
-210
-303
-274
-190
-251
-274
-246
-230
-177
-137
-146
-137
-114
-94
-50
-11
6
47
116
189
255
270
237
212
167
57
-28
-20
-19
-111
-210
-214
-154
-126
-132
-117
-91
-90
-101
-98
-78
-56
-63
-94
-91
-64
-111
-198
-191
-152
-169
-139
-91
-173
-362
-583
-284
1265
2841
2224
204
-628
-255
-124
-220
-129
-98
-155
-123
-72
-56
-45
-64
-83
-12
122
164
80
51
149
203
155
141
163
128
72
65
54
-15
-95
-117
-117
-174
-255
-276
-242
-213
-194
-171
-172
-206
-233
-236
-257
-299
-301
-266
-253
-251
-231
-223
-218
-190
-206
-255
-201
-144
-249
-403
-548
-376
911
2635
2537
649
-492
-248
-30
-151
-121
-57
-92
-91
-84
-112
-102
-61
-33
-11
50
144
197
194
207
232
232
251
284
265
210
167
115
49
-19
-83
-114
-116
-145
-183
-159
-105
-106
-141
-119
-39
-7
-63
-92
-30
16
-23
-64
-80
-128
-161
-128
-114
-126
-101
-143
-297
-482
-546
175
1860
2650
1169
-671
-877
-383
-369
-448
-357
-344
-367
-342
-329
-286
-202
-144
-110
-87
-77
-24
89
178
200
207
228
222
178
142
110
40
-43
-97
-154
-231
-280
-310
-354
-358
-312
-303
-323
-294
-244
-226
-198
-154
-153
-173
-153
-108
-84
-69
-53
-42
-23
-23
-44
-14
13
-65
-213
-454
-387
942
2820
2766
730
-571
-343
-56
-146
-155
-135
-159
-124
-89
-89
-81
-63
-24
23
39
46
70
95
132
191
251
293
313
323
307
234
124
15
-89
-170
-195
-186
-186
-174
-128
-89
-86
-84
-69
-81
-126
-133
-64
17
45
69
133
160
122
137
189
153
116
168
140
-20
-198
-259
376
1823
2476
1266
-172
-312
38
24
-23
30
-8
-42
-15
-23
-29
-3
25
94
139
-38
-372
-586
-618
-601
-628
-733
-854
-877
-847
-889
-980
-1061
-1162
-1218
-1048
-684
-371
-217
-138
-75
-38
-28
-14
27
73
78
46
43
89
121
117
115
101
54
38
65
68
74
101
78
6
-135
-132
816
2460
2657
787
-718
-528
-34
-69
-96
-17
-71
-126
-83
-37
-24
-35
-39
-3
34
32
39
87
127
128
127
150
185
231
276
287
248
166
64
-16
-50
-55
-60
-69
-62
-37
-34
-51
-30
24
31
-21
-56
-33
11
24
33
80
95
26
-59
-114
-107
-3
58
-66
-299
-492
-137
1240
2495
1911
239
-490
-262
-146
-196
-194
-265
-332
-290
-237
-188
-135
-135
-149
-126
-112
-99
-36
48
103
116
106
112
135
114
47
-14
-88
-180
-214
-198
-226
-277
-270
-231
-208
-189
-179
-189
-184
-154
-137
-142
-151
-151
-139
-139
-157
-167
-188
-217
-198
-187
-223
-220
-227
-332
-489
-708
-453
1136
2865
2351
303
-593
-277
-230
-410
-345
-274
-242
-137
-95
-127
-126
-113
-100
-53
-4
21
57
120
170
175
171
190
213
224
217
176
103
25
-51
-122
-159
-156
-158
-190
-222
-220
-200
-198
-207
-202
-193
-198
-195
-175
-167
-173
-154
-118
-113
-121
-111
-119
-125
-91
-135
-268
-430
-690
-347
1494
3195
2226
-136
-911
-396
-260
-341
-214
-208
-284
-232
-187
-186
-144
-101
-70
-14
35
52
86
170
276
343
345
331
361
397
371
301
205
74
-15
4
24
-30
-67
-67
-89
-80
-21
-11
-26
23
65
38
35
79
74
35
39
46
25
35
48
10
5
7
-114
-300
-493
-377
825
2487
2364
411
-785
-488
-195
-295
-257
-209
-264
-222
-166
-198
-197
-143
-113
-102
-105
-122
-102
-58
-84
-174
-222
-223
-323
-589
-824
-760
-456
-222
-168
-152
-101
-67
-54
-27
0
6
11
19
7
-1
45
104
84
5
-29
-17
-37
-79
-94
-101
-94
-45
-44
-98
-82
-65
-164
-313
-472
-157
1308
2759
2165
310
-482
-237
-177
-262
-189
-163
-178
-135
-117
-126
-121
-115
-84
-51
-47
-23
16
18
34
101
146
137
126
133
141
119
46
-49
-106
-124
-145
-190
-232
-241
-221
-200
-180
-148
-120
-117
-128
-129
-114
-96
-98
-119
-143
-183
-214
-197
-208
-259
-219
-175
-296
-475
-652
-447
955
2622
2143
-57
-1116
-656
-339
-370
-242
-175
-221
-178
-140
-135
-68
-19
-9
61
144
173
214
296
364
410
452
476
467
430
387
345
268
164
89
43
-6
-22
1
-3
-28
-12
22
16
2
21
32
-3
-30
-4
23
10
-19
-63
-133
-172
-164
-169
-145
-85
-159
-344
-489
-483
250
1819
2416
865
-850
-918
-393
-380
-435
-320
-292
-291
-233
-179
-142
-155
-201
-164
-70
-1
86
176
186
174
199
203
175
168
172
158
125
74
13
-34
-61
-94
-147
-184
-164
-113
-83
-93
-124
-145
-139
-124
-122
-124
-109
-83
-54
-39
-102
-256
-336
-270
-228
-243
-214
-228
-317
-414
-459
194
1863
2787
1504
-238
-513
-158
-196
-210
-47
-61
-158
-142
-92
-62
-30
-6
-6
-32
-65
-69
-43
-7
17
16
9
12
13
5
-12
-48
-97
-137
-191
-276
-343
-349
-321
-292
-264
-246
-247
-252
-247
-245
-254
-260
-245
-220
-209
-192
-167
-177
-195
-177
-177
-170
-99
-106
-206
-288
-450
-113
1561
3040
2009
-189
-756
-151
-24
-154
-69
-68
-136
-97
-69
-81
-47
9
55
98
127
160
220
289
343
380
402
409
411
410
390
330
252
190
126
48
-1
-12
-30
-57
-64
-63
-75
-93
-108
-119
-135
-152
-149
-135
-135
-130
-115
-143
-176
-145
-136
-176
-145
-125
-250
-460
-678
-296
1389
2930
2087
-43
-778
-343
-251
-368
-272
-251
-303
-251
-216
-229
-201
-169
-153
-116
-84
-72
-40
15
57
81
94
96
90
78
55
18
-34
-97
-157
-196
-221
-243
-251
-241
-232
-232
-237
-243
-243
-232
-230
-242
-241
-216
-202
-205
-190
-172
-196
-202
-159
-154
-150
-82
-105
-240
-367
-514
-50
1662
2927
1764
-236
-651
-184
-185
-276
-151
-135
-166
-115
-103
-114
-80
-53
-34
3
31
47
77
117
150
170
179
182
178
170
161
139
96
48
21
9
-4
-15
-15
-11
-4
2
3
13
27
12
-36
-74
-78
-60
-26
8
30
36
29
32
38
10
2
35
-25
-194
-410
-550
70
1644
2427
1184
-358
-527
-180
-222
-269
-183
-196
-208
-157
-148
-147
-120
-113
-107
-70
-34
-10
20
52
78
104
125
125
109
89
72
47
2
-61
-123
-164
-179
-189
-203
-206
-203
-218
-237
-229
-222
-252
-283
-281
-270
-266
-259
-249
-240
-250
-274
-254
-218
-230
-206
-149
-211
-324
-449
-485
431
2245
2615
664
-952
-715
-209
-311
-336
-210
-230
-244
-192
-182
-176
-146
-129
-115
-91
-57
-8
41
79
119
163
189
194
185
168
145
98
26
-41
-86
-118
-138
-133
-113
-104
-97
-69
-35
-10
18
54
77
100
151
205
243
294
340
335
327
350
332
312
354
295
89
-176
-453
29
1900
3274
2031
-128
-612
-131
-133
-254
-148
-145
-194
-151
-139
-158
-140
-125
-116
-93
-69
-45
-14
10
16
17
26
33
21
-3
-25
-51
-95
-153
-209
-250
-269
-271
-268
-269
-263
-252
-254
-269
-274
-273
-280
-288
-285
-277
-268
-260
-250
-240
-252
-263
-246
-248
-255
-199
-186
-293
-425
-593
-376
955
2383
1874
80
-649
-296
-200
-329
-262
-225
-266
-241
-226
-244
-235
-230
-230
-197
-163
-145
-115
-80
-59
-44
-28
-14
-10
-19
-25
-17
-22
-54
-92
-114
-117
-106
-106
-100
-46
-3
-50
-115
-96
-47
-44
-54
-39
-21
-5
32
88
117
90
78
133
153
127
180
212
101
-101
-418
-238
1405
3179
2506
263
-599
-118
18
-136
-57
-27
-91
-54
-24
-44
-31
-13
-3
36
77
102
142
183
197
202
215
213
192
172
152
118
66
-3
-75
-120
-137
-152
-161
-156
-153
-160
-160
-151
-153
-165
-165
-158
-167
-174
-158
-145
-142
-136
-159
-190
-174
-163
-174
-141
-146
-255
-405
-603
-321
1149
2531
1758
-170
-780
-309
-197
-307
-207
-168
-217
-187
-164
-180
-159
-126
-112
-87
-51
-24
-2
15
23
22
14
2
-16
-32
-35
-36
-61
-104
-145
-174
-189
-188
-185
-193
-203
-198
-188
-188
-190
-180
-170
-180
-197
-199
-189
-181
-168
-140
-127
-147
-147
-118
-131
-143
-91
-100
-223
-396
-591
-210
1288
2493
1703
105
-332
-67
-128
-226
-134
-130
-162
-112
-78
-66
-45
-45
-40
12
72
108
134
156
178
201
213
211
196
178
174
177
144
76
24
6
-7
-24
-30
-18
-4
-5
-22
-32
-30
-32
-42
-44
-37
-41
-57
-52
-22
-7
-40
-74
-53
-38
-82
-76
-25
-84
-243
-448
-402
651
2235
2242
449
-730
-424
-53
-140
-150
-95
-126
-101
-53
-68
-58
-13
0
1
25
58
99
154
187
191
201
210
187
159
152
131
72
0
-67
-126
-162
-171
-174
-178
-173
-167
-172
-179
-178
-174
-182
-195
-204
-207
-201
-192
-186
-178
-188
-224
-224
-193
-209
-216
-178
-221
-365
-591
-719
95
1852
2435
859
-650
-590
-202
-297
-331
-230
-251
-261
-215
-213
-207
-175
-161
-140
-105
-82
-58
-27
-3
16
24
11
-2
0
0
-8
-20
-47
-89
-124
-139
-139
-137
-134
-126
-112
-100
-91
-87
-82
-73
-69
-80
-90
-98
-102
-92
-69
-52
-53
-73
-76
-50
-51
-46
11
-13
-138
-279
-441
-14
1555
2702
1676
-63
-393
19
-8
-112
-12
-6
-43
7
38
31
47
71
88
109
133
159
184
201
215
224
219
208
195
181
177
182
164
115
64
34
16
0
-15
-28
-34
-34
-45
-67
-76
-72
-71
-65
-50
-50
-63
-65
-57
-44
-39
-69
-103
-95
-97
-109
-49
-23
-122
-260
-461
-284
1067
2506
1864
-60
-710
-202
-61
-200
-143
-141
-211
-196
-223
-297
-300
-287
-310
-310
-277
-256
-246
-207
-125
-38
12
16
-12
-48
-75
-98
-135
-197
-270
-317
-335
-348
-358
-362
-377
-403
-405
-377
-342
-301
-249
-211
-200
-187
-156
-126
-111
-98
-89
-101
-108
-84
-76
-83
-35
-14
-110
-284
-525
-336
1002
2421
1901
128
-557
-152
-2
-102
-35
0
-35
4
39
37
63
95
116
141
164
187
228
273
300
309
302
278
250
234
225
200
150
92
38
-3
-26
-38
-48
-52
-45
-35
-35
-38
-32
-24
-34
-57
-75
-82
-90
-103
-103
-84
-77
-103
-139
-143
-140
-179
-184
-123
-149
-273
-434
-612
-116
1485
2463
1272
-394
-599
-193
-229
-287
-182
-198
-224
-164
-144
-143
-102
-70
-54
-18
29
68
93
110
133
153
150
133
119
116
127
131
102
57
24
1
-14
-12
-5
2
10
-1
-30
-46
-45
-45
-47
-51
-58
-62
-67
-73
-74
-66
-53
-54
-85
-108
-110
-144
-174
-152
-189
-303
-413
-519
-149
1119
2028
1159
-321
-654
-321
-304
-365
-282
-279
-313
-281
-265
-261
-231
-209
-180
-108
-28
18
50
92
132
152
145
122
105
107
120
123
106
79
47
9
-22
-36
-45
-55
-62
-70
-77
-78
-83
-96
-100
-91
-88
-96
-98
-84
-67
-58
-37
-14
-26
-38
-4
4
-23
16
44
-46
-190
-376
-177
1066
2277
1525
-323
-883
-333
-141
-245
-189
-173
-207
-156
-127
-138
-119
-102
-91
-54
-17
10
44
84
124
153
162
160
150
142
160
183
149
68
-2
-44
-64
-55
-46
-63
-74
-55
-40
-44
-44
-39
-40
-35
-22
-22
-27
-17
-9
-11
5
15
-21
