# session 27
-16
-43
46
-3
-335
-640
-679
-610
-590
-597
-579
-528
-529
-606
-687
-737
-333
908
1850
1106
-334
-739
-431
-384
-453
-385
-363
-376
-336
-311
-299
-261
-235
-227
-205
-178
-156
-131
-104
-79
-54
-33
-7
31
71
103
128
155
187
215
232
239
231
203
153
85
17
-27
-47
-56
-59
-63
-71
-71
-61
-50
-37
-28
-34
-40
-34
-27
-28
-26
-21
-18
-16
-18
-16
-8
-5
-8
-10
-4
1
-1
-3
4
9
2
0
9
9
2
8
16
17
14
7
5
15
18
15
27
37
27
19
25
23
20
40
58
50
34
12
-13
-11
-7
-27
-15
-3
-81
-200
-326
-167
870
2173
1999
448
-481
-280
-63
-135
-129
-104
-141
-125
-90
-97
-99
-83
-75
-73
-70
-58
-34
-15
-3
19
58
93
113
133
168
206
237
268
288
287
281
274
239
164
70
-19
-85
-127
-154
-176
-189
-187
-173
-162
-166
-173
-175
-175
-172
-165
-164
-168
-168
-164
-164
-164
-160
-154
-152
-152
-150
-145
-137
-132
-135
-137
-133
-128
-126
-123
-118
-114
-112
-107
-103
-101
-97
-93
-95
-92
-83
-82
-87
-81
-66
-60
-62
-51
-22
-5
-10
-21
-39
-58
-49
-45
-65
-41
-20
-103
-217
-326
-194
791
2140
2087
563
-431
-263
-53
-149
-146
-98
-129
-123
-92
-94
-88
-69
-60
-50
-38
-30
-11
14
31
47
71
92
110
135
166
193
217
240
258
271
280
274
242
183
102
21
-39
-76
-100
-115
-119
-115
-110
-107
-106
-108
-109
-104
-101
-98
-98
-103
-106
-98
-90
-90
-90
-88
-92
-95
-94
-92
-89
-88
-89
-87
-87
-88
-89
-87
-85
-84
-88
-88
-78
-71
-73
-75
-68
-65
-69
-70
-66
-63
-63
-58
-48
-45
-47
-37
-14
5
8
2
-18
-47
-48
-36
-56
-56
-19
-62
-171
-271
-289
293
1621
2252
1163
-194
-376
-82
-115
-177
-119
-135
-155
-117
-106
-109
-89
-76
-70
-55
-42
-32
-17
0
18
42
67
88
109
131
155
181
205
222
231
235
237
223
178
105
30
-29
-75
-109
-124
-119
-112
-117
-128
-126
-117
-114
-114
-113
-110
-105
-102
-105
-105
-96
-93
-97
-100
-95
-94
-100
-103
-97
-90
-87
-90
-96
-97
-88
-84
-91
-99
-101
-95
-83
-76
-83
-90
-80
-74
-81
-82
-72
-71
-74
-65
-50
-48
-52
-43
-17
7
9
-2
-25
-58
-59
-38
-52
-61
-31
-65
-171
-285
-310
285
1621
2236
1117
-257
-425
-91
-102
-168
-110
-110
-127
-96
-87
-87
-65
-53
-51
-39
-27
-17
7
30
37
49
82
110
126
149
181
213
242
255
260
281
294
266
213
150
67
-13
-61
-90
-110
-113
-109
-111
-116
-114
-111
-106
-103
-105
-109
-107
-109
-115
-112
-104
-105
-112
-112
-107
-105
-106
-107
-107
-104
-100
-101
-104
-102
-99
-97
-98
-98
-101
-101
-98
-95
-94
-92
-87
-83
-82
-83
-82
-81
-78
-72
-66
-64
-54
-31
-10
-10
-26
-50
-69
-57
-47
-70
-59
-33
-101
-220
-344
-265
639
2033
2159
688
-432
-326
-69
-151
-167
-115
-143
-143
-109
-104
-96
-78
-72
-65
-52
-36
-16
5
19
31
46
71
103
131
155
180
206
234
258
271
275
274
245
176
92
23
-33
-78
-103
-110
-113
-118
-118
-115
-111
-108
-105
-104
-105
-106
-104
-102
-101
-99
-97
-96
-98
-99
-95
-94
-98
-98
-88
-85
-91
-90
-85
-87
-88
-81
-77
-78
-77
-75
-73
-71
-67
-62
-58
-59
-57
-52
-51
-50
-49
-51
-52
-50
-44
-35
-31
-33
-24
-1
19
21
6
-23
-39
-25
-30
-51
-22
-15
-106
-213
-308
-100
963
2169
1860
348
-434
-209
-68
-170
-151
-118
-148
-135
-109
-109
-99
-86
-80
-68
-53
-41
-26
-12
2
23
45
63
82
107
135
161
183
199
216
232
236
224
197
141
58
-20
-71
-98
-114
-131
-144
-136
-123
-131
-144
-133
-120
-127
-128
-113
-110
-121
-123
-109
-102
-108
-108
-101
-101
-107
-106
-100
-96
-95
-93
-86
-84
-86
-82
-78
-82
-81
-73
-68
-63
-52
-44
-46
-47
-40
-39
-51
-58
-55
-57
-53
-40
-38
-45
-36
-18
-10
-5
6
12
11
-6
-33
-40
-35
-53
-42
1
-41
-158
-285
-316
311
1690
2295
1129
-267
-427
-86
-88
-146
-94
-104
-120
-93
-95
-94
-59
-43
-49
-41
-36
-46
-29
15
39
37
51
87
111
126
163
209
238
254
267
280
299
285
206
111
44
-29
-103
-132
-138
-164
-177
-152
-140
-156
-155
-135
-135
-143
-128
-116
-120
-122
-120
-125
-130
-126
-114
-106
-110
-109
-99
-92
-89
-90
-101
-105
-91
-83
-89
-95
-95
-89
-83
-85
-87
-79
-76
-86
-87
-74
-70
-78
-79
-66
-60
-69
-68
-51
-45
-51
-41
-20
-18
-19
-18
-46
-71
-48
-41
-58
-24
-25
-129
-253
-372
-57
1268
2516
1875
132
-528
-169
-48
-155
-110
-89
-127
-98
-78
-97
-88
-69
-67
-61
-46
-36
-27
-7
23
51
70
95
128
156
180
213
246
269
290
310
319
305
261
175
69
-19
-78
-119
-147
-161
-161
-154
-154
-162
-163
-157
-155
-153
-146
-139
-134
-130
-127
-122
-111
-103
-109
-118
-114
-105
-104
-106
-105
-105
-102
-94
-90
-94
-97
-97
-93
-87
-85
-83
-75
-69
-73
-75
-66
-61
-65
-67
-65
-62
-59
-57
-54
-54
-58
-60
-54
-46
-41
-39
-33
-16
7
19
17
1
-32
-47
-31
-39
-53
-17
-36
-147
-266
-350
83
1439
2434
1560
-43
-470
-119
-81
-182
-129
-124
-154
-117
-95
-105
-94
-79
-72
-57
-41
-28
-9
12
29
44
59
78
102
129
158
191
221
241
257
275
283
268
225
160
84
8
-55
-95
-116
-130
-138
-137
-134
-134
-134
-132
-130
-126
-119
-114
-110
-100
-91
-90
-92
-88
-84
-85
-86
-84
-82
-81
-82
-88
-90
-81
-73
-80
-85
-80
-78
-78
-74
-69
-74
-75
-66
-62
-68
-67
-56
-54
-61
-60
-54
-54
-56
-54
-53
-50
-40
-32
-18
2
7
-9
-36
-54
-47
-48
-72
-55
-39
-112
-217
-325
-193
784
2097
2000
470
-497
-308
-92
-184
-182
-140
-169
-152
-118
-121
-112
-91
-86
-76
-56
-45
-32
-9
13
27
46
75
104
127
149
179
210
236
255
268
273
268
241
180
92
5
-54
-90
-123
-145
-145
-137
-141
-146
-142
-137
-134
-129
-126
-131
-130
-113
-101
-107
-118
-116
-106
-98
-96
-97
-93
-84
-84
-93
-92
-85
-89
-93
-81
-73
-79
-81
-77
-81
-85
-79
-70
-69
-70
-72
-71
-63
-51
-42
-34
-14
9
12
-3
-20
-41
-45
-33
-49
-56
-22
-59
-168
-264
-300
223
1570
2336
1276
-236
-504
-124
-86
-165
-116
-107
-120
-95
-91
-90
-71
-65
-56
-28
-14
-13
4
30
47
59
78
104
131
157
184
216
251
274
281
285
289
264
199
111
19
-60
-111
-140
-162
-171
-167
-168
-173
-171
-161
-152
-149
-149
-147
-143
-140
-135
-135
-141
-136
-120
-116
-122
-116
-102
-98
-103
-102
-95
-93
-96
-93
-85
-84
-87
-84
-76
-74
-78
-78
-75
-74
-72
-68
-66
-64
-58
-50
-48
-41
-18
8
16
11
-6
-38
-50
-34
-45
-55
-24
-51
-151
-250
-310
152
1476
2346
1401
-131
-477
-128
-98
-176
-115
-115
-141
-105
-93
-104
-87
-72
-66
-51
-36
-25
-8
13
30
43
60
84
110
132
157
187
216
239
253
260
265
255
207
131
52
-18
-71
-100
-117
-130
-135
-135
-133
-125
-116
-118
-124
-120
-111
-110
-113
-118
-123
-117
-101
-98
-105
-103
-95
-93
-95
-94
-94
-94
-93
-95
-97
-93
-83
-78
-82
-86
-83
-77
-78
-78
-70
-65
-65
-64
-63
-63
-60
-58
-61
-60
-52
-46
-44
-39
-29
-13
6
14
0
-31
-55
-45
-39
-63
-49
-17
-77
-182
-282
-221
577
1890
2079
705
-417
-341
-67
-135
-160
-108
-130
-130
-97
-97
-91
-68
-62
-60
-45
-23
-2
16
30
44
62
82
103
126
148
172
196
217
231
240
251
254
235
188
117
42
-18
-61
-91
-105
-108
-112
-119
-120
-121
-121
-112
-106
-111
-117
-113
-104
-101
-100
-101
-98
-89
-84
-90
-97
-100
-97
-90
-88
-93
-94
-89
-90
-93
-88
-75
-72
-79
-82
-81
-83
-83
-76
-67
-69
-77
-76
-67
-63
-66
-73
-76
-72
-58
-48
-44
-33
-13
-6
-18
-37
-56
-60
-54
-69
-70
-32
-52
-145
-244
-300
155
1413
2211
1290
-169
-499
-150
-85
-149
-107
-104
-114
-82
-80
-82
-55
-46
-47
-23
-4
-7
4
35
55
57
69
99
127
150
174
195
221
255
276
276
271
262
225
154
72
0
-52
-84
-106
-123
-132
-133
-130
-129
-132
-135
-130
-126
-131
-133
-128
-127
-132
-132
-127
-126
-126
-123
-122
-124
-122
-115
-112
-113
-114
-107
-100
-102
-102
-95
-96
-102
-96
-87
-89
-92
-85
-80
-83
-84
-84
-83
-76
-65
-61
-61
-51
-23
3
3
-18
-45
-64
-52
-39
-67
-69
-33
-76
-183
-300
-285
473
1902
2297
912
-412
-409
-66
-117
-161
-98
-115
-123
-86
-82
-83
-62
-53
-50
-36
-20
-5
14
35
56
72
84
105
133
159
181
208
238
258
271
284
288
261
199
118
39
-26
-74
-106
-119
-121
-122
-122
-120
-116
-113
-110
-107
-106
-107
-107
-104
-102
-101
-99
-96
-97
-99
-101
-100
-97
-93
-92
-95
-97
-97
-96
-94
-93
-96
-97
-95
-91
-88
-83
-81
-85
-87
-82
-76
-77
-78
-74
-72
-73
-72
-67
-64
-61
-56
-46
-29
-8
-1
-12
-35
-60
-61
-51
-72
-72
-35
-75
-178
-271
-276
334
1671
2243
1068
-298
-428
-102
-131
-184
-120
-136
-154
-117
-110
-108
-82
-72
-68
-48
-30
-18
-1
16
35
57
71
85
112
139
161
188
216
235
245
253
253
239
199
132
54
-11
-57
-90
-111
-115
-114
-119
-122
-116
-114
-115
-106
-94
-95
-102
-101
-97
-95
-90
-84
-83
-85
-84
-83
-81
-78
-76
-75
-73
-74
-80
-81
-79
-82
-85
-78
-72
-77
-79
-70
-63
-65
-63
-59
-64
-70
-63
-54
-55
-57
-54
-50
-47
-44
-41
-34
-21
-1
19
25
11
-19
-42
-33
-30
-55
-40
-10
-69
-156
-231
-171
586
1842
2021
706
-363
-306
-71
-141
-152
-105
-139
-140
-97
-91
-93
-78
-74
-74
-60
-43
-26
-6
12
21
31
50
73
91
107
133
169
194
201
210
229
233
204
153
91
22
-44
-87
-100
-110
-129
-138
-132
-132
-135
-129
-120
-116
-122
-127
-118
-107
-116
-125
-116
-103
-100
-102
-108
-110
-102
-99
-103
-93
-75
-73
-83
-84
-80
-82
-83
-78
-69
-64
-70
-74
-66
-55
-56
-65
-71
-66
-52
-48
-56
-54
-34
-26
-33
-29
-7
13
20
16
2
-23
-41
-32
-31
-46
-24
-17
-95
-207
-334
-130
981
2221
1865
265
-548
-272
-68
-143
-119
-88
-123
-112
-87
-89
-77
-68
-76
-64
-38
-21
-7
9
24
43
65
87
111
134
157
188
219
241
257
267
274
273
243
170
79
-1
-66
-111
-133
-144
-150
-143
-136
-142
-149
-145
-138
-131
-128
-131
-131
-127
-127
-128
-124
-116
-111
-111
-115
-114
-109
-107
-108
-105
-100
-98
-96
-98
-99
-96
-92
-91
-88
-86
-87
-87
-81
-74
-69
-68
-68
-65
-64
-64
-58
-50
-46
-43
-35
-17
6
17
6
-22
-47
-44
-30
-50
-55
-16
-45
-155
-270
-322
199
1552
2346
1328
-166
-453
-107
-92
-169
-114
-116
-135
-100
-92
-97
-74
-63
-59
-41
-29
-22
0
24
36
51
75
97
121
147
171
196
225
250
265
274
274
257
211
134
51
-17
-68
-107
-126
-131
-132
-135
-137
-133
-128
-128
-129
-127
-121
-114
-113
-114
-114
-111
-109
-104
-99
-100
-103
-99
-90
-91
-98
-96
-87
-87
-93
-91
-84
-82
-83
-83
-84
-82
-75
-72
-76
-80
-75
-65
-61
-68
-72
-63
-56
-59
-56
-50
-55
-60
-53
-43
-35
-24
-8
9
16
7
-15
-40
-42
-27
-44
-53
-12
-30
-130
-227
-292
112
1350
2235
1412
-49
-428
-115
-83
-163
-111
-113
-139
-105
-89
-94
-76
-62
-57
-39
-23
-16
-2
18
38
58
76
92
111
138
167
192
212
231
249
260
265
253
215
150
75
3
-53
-88
-110
-123
-125
-126
-130
-129
-123
-125
-130
-124
-114
-115
-116
-109
-108
-110
-107
-103
-99
-95
-95
-99
-97
-93
-91
-91
-93
-91
-85
-85
-88
-84
-83
-92
-94
-80
-70
-75
-85
-86
-83
-79
-75
-73
-72
-69
-65
-62
-66
-75
-76
-71
-69
-66
-56
-51
-46
-28
-4
11
6
-13
-31
-48
-51
-34
-37
-57
-38
-40
-114
-217
-333
-71
1079
2183
1654
121
-515
-222
-77
-140
-102
-95
-135
-109
-80
-81
-63
-47
-49
-41
-20
-3
8
18
40
68
89
110
138
165
188
213
237
260
281
300
314
310
273
202
113
31
-27
-66
-98
-123
-134
-135
-133
-129
-124
-121
-120
-119
-117
-117
-119
-117
-110
-104
-105
-111
-108
-96
-93
-99
-93
-83
-88
-94
-86
-78
-80
-78
-71
-71
-76
-82
-82
-72
-61
-62
-72
-74
-67
-61
-58
-59
-62
-65
-66
-70
-72
-66
-56
-50
-43
-30
-16
-12
-19
-33
-58
-75
-64
-68
-83
-53
-55
-157
-276
-392
-158
1022
2301
1889
237
-549
-259
-98
-198
-166
-132
-173
-161
-131
-129
-118
-104
-101
-91
-73
-61
-49
-31
-7
12
24
42
71
101
130
157
184
212
236
255
265
256
214
139
51
-32
-95
-134
-159
-172
-169
-167
-169
-167
-161
-158
-150
-138
-127
-116
-107
-99
-86
-75
-72
-70
-61
-53
-52
