# session 20
-339
-394
-290
-294
-679
-1091
-1129
-1044
-1051
-997
-991
-1135
-1281
-1390
-799
1130
2532
1241
-996
-1483
-942
-894
-992
-871
-839
-848
-788
-775
-757
-656
-545
-479
-467
-483
-477
-459
-430
-312
18
711
1629
2102
1709
975
564
395
218
123
13
-262
-155
660
1272
1130
1106
1577
1750
1496
1491
1745
1838
1820
1790
1570
1247
1218
1590
2098
2431
2319
1712
983
505
221
-23
-200
-308
-412
-493
-533
-578
-608
-582
-568
-628
-668
-613
-558
-580
-616
-604
-590
-592
-532
-469
-549
-696
-836
-761
264
1921
2083
271
-1111
-936
-568
-643
-643
-564
-592
-589
-560
-583
-597
-584
-581
-572
-556
-551
-547
-529
-497
-472
-459
-417
-334
-252
-168
-141
-394
-950
-1374
-1302
-945
-690
-580
-483
-384
-306
-235
-185
-153
-103
-39
14
48
63
77
105
119
111
106
109
118
140
158
154
151
170
197
209
204
204
213
207
187
188
209
206
170
149
166
197
228
253
230
154
115
148
149
118
151
154
54
-56
-210
23
1455
2991
2358
275
-553
-76
102
-34
44
78
-5
10
38
1
-12
-4
-2
25
59
72
98
157
206
227
257
313
359
384
413
429
416
402
390
334
218
85
-23
-101
-170
-230
-256
-254
-263
-284
-294
-307
-332
-346
-345
-345
-344
-355
-411
-464
-433
-352
-317
-334
-351
-350
-340
-335
-357
-401
-433
-446
-459
-470
-463
-448
-444
-455
-472
-467
-411
-358
-378
-411
-403
-435
-474
-419
-420
-573
-771
-977
-569
1178
2741
1878
-233
-970
-610
-565
-668
-586
-588
-604
-441
-65
469
786
1002
1955
3082
2875
2142
2527
2943
2025
936
664
559
334
258
215
119
80
50
-34
-118
-191
-271
-354
-422
-463
-484
-490
-476
-455
-450
-454
-449
-433
-409
-391
-391
-394
-371
-329
-302
-294
-270
-239
-239
-258
-270
-282
-276
-237
-212
-220
-213
-177
-142
-114
-93
-86
-75
-48
-32
-43
-54
-36
7
55
78
49
7
23
58
70
100
79
-52
-194
-327
-65
1287
2790
2396
569
-345
-100
42
-23
44
50
-6
25
51
57
107
144
163
201
223
264
336
175
-446
-1279
-1871
-2099
-2156
-2134
-1880
-1355
-839
-540
-351
-184
-104
-86
-51
-39
-64
-39
46
111
137
126
61
11
34
49
20
44
121
168
183
158
80
52
97
90
48
81
120
110
138
163
68
-27
49
187
198
133
130
157
135
118
154
168
138
151
220
260
242
207
191
192
186
206
251
195
56
-72
-173
376
2052
3145
1835
-231
-658
-124
-35
-98
15
9
-51
1
29
0
-3
7
6
19
40
54
68
78
91
130
187
231
267
310
348
370
379
373
340
271
167
40
-91
-196
-262
-296
-306
-303
-305
-307
-305
-300
-287
-280
-295
-295
-262
-243
-259
-270
-266
-273
-304
-333
-331
-318
-324
-337
-340
-351
-372
-376
-368
-361
-349
-330
-307
-279
-239
-195
-188
-222
-225
-192
-206
-206
-155
-224
-389
-533
-631
16
1791
2780
1367
-520
-745
-247
-234
-301
-207
-199
-188
-119
-117
-127
-89
-70
-68
-38
-2
22
54
98
139
179
222
265
314
367
410
450
490
503
482
438
340
199
105
85
68
38
35
54
44
3
-21
-14
-4
-4
-8
-11
-12
-13
-16
-12
0
7
2
-4
-3
0
2
3
-4
-19
-28
-32
-43
-62
-85
-113
-126
-116
-120
-156
-176
-155
-128
-104
-79
-96
-150
-166
-163
-194
-183
-148
-233
-393
-548
-464
592
2281
2491
732
-658
-552
-231
-303
-290
-214
-248
-242
-207
-217
-201
-168
-172
-166
-133
-118
-112
-88
-61
-43
-17
23
56
82
118
155
171
177
185
184
168
129
55
-26
-77
-102
-122
-135
-129
-118
-112
-107
-94
-75
-60
-51
-43
-38
-43
-49
-37
-22
-26
-35
-30
-31
-50
-63
-70
-83
-86
-73
-69
-72
-67
-52
-36
-31
-42
-51
-51
-50
-39
-4
41
58
25
-2
25
26
-12
22
39
-88
-270
-477
-251
1267
3040
2636
527
-518
-194
-49
-190
-116
-61
-113
-94
-72
-99
-98
-88
-98
-108
-108
-82
-39
-10
18
62
108
164
236
291
317
342
370
376
352
301
221
97
-47
-167
-245
-298
-329
-342
-350
-355
-347
-334
-338
-349
-343
-332
-331
-334
-333
-328
-317
-310
-308
-302
-304
-310
-296
-281
-284
-283
-268
-258
-252
-241
-229
-216
-208
-208
-195
-163
-128
-94
-89
-125
-133
-105
-120
-114
-48
-93
-260
-456
-510
404
2385
3186
1484
-398
-513
-55
-98
-150
-55
-69
-72
-38
-76
-80
-7
36
51
81
101
103
115
140
166
190
219
261
308
345
371
387
401
410
395
337
248
147
55
-13
-48
-60
-65
-66
-59
-54
-62
-68
-61
-64
-90
-107
-90
-67
-63
-69
-84
-109
-115
-107
-120
-147
-164
-178
-186
-175
-152
-138
-125
-102
-82
-75
-74
-69
-66
-72
-82
-80
-64
-39
-18
-28
-72
-89
-74
-100
-138
-133
-185
-286
-353
-386
145
1671
2713
1636
-187
-638
-244
-225
-340
-245
-179
-180
-169
-179
-164
-127
-147
-191
-183
-142
-105
-85
-79
-55
-2
39
53
75
105
114
109
111
110
88
50
6
-42
-90
-120
-122
-113
-111
-113
-102
-80
-63
-52
-36
-15
-4
-7
-10
-5
-2
-10
-25
-39
-46
-47
-52
-67
-87
-105
-121
-132
-132
-119
-115
-132
-143
-133
-133
-153
-170
-165
-163
-188
-208
-179
-140
-134
-133
-136
-143
-111
-82
-98
-75
-59
-159
-310
-480
-255
1131
2734
2305
279
-727
-373
-143
-222
-144
-82
-105
-51
1
0
18
38
49
82
108
111
127
162
192
222
260
293
325
383
472
550
575
573
573
534
427
291
156
25
-76
-131
-165
-185
-201
-241
-270
-235
-208
-255
-290
-260
-252
-289
-285
-251
-259
-281
-273
-276
-292
-281
-259
-251
-249
-244
-228
-200
-184
-184
-178
-163
-151
-137
-122
-119
-117
-98
-62
-20
6
-22
-66
-58
-52
-83
-48
-15
-140
-326
-491
-332
929
2666
2619
699
-567
-397
-169
-275
-257
-222
-269
-238
-199
-233
-257
-250
-241
-216
-185
-154
-110
-65
-41
-15
36
95
143
187
237
293
339
364
376
376
336
241
133
50
-14
-63
-83
-92
-105
-107
-100
-101
-102
-102
-103
-98
-92
-100
-105
-92
-89
-99
-97
-92
-102
-105
-93
-94
-108
-107
-98
-94
-88
-78
-73
-69
-64
-64
-62
-50
-39
-36
-38
-39
-34
-12
24
58
66
33
3
9
-8
-44
-14
-28
-183
-368
-518
-175
1301
2759
2136
180
-667
-351
-224
-314
-237
-200
-223
-167
-123
-123
-98
-77
-75
-56
-36
-31
-12
21
42
54
74
99
128
170
207
217
218
230
236
215
173
110
30
-45
-97
-125
-133
-128
-129
-143
-145
-128
-118
-130
-136
-127
-124
-132
-134
-136
-143
-145
-141
-147
-161
-163
-154
-144
-138
-127
-104
-73
-60
-57
-36
-16
-24
-34
-22
-13
-22
-31
-28
-20
-20
-29
-30
-10
-4
-50
-91
-87
-97
-103
-76
-137
-282
-412
-404
391
2067
2696
1065
-746
-862
-351
-329
-385
-311
-329
-336
-278
-265
-261
-225
-191
-157
-125
-108
-77
-31
-2
26
78
142
204
267
327
378
420
447
457
450
411
320
197
87
6
-47
-81
-112
-133
-129
-120
-120
-114
-99
-92
-90
-82
-70
-58
-52
-54
-58
-62
-62
-56
-56
-64
-67
-65
-69
-71
-72
-76
-78
-75
-74
-73
-72
-80
-89
-83
-51
-8
22
29
8
-30
-38
-37
-66
-54
-23
-126
-323
-520
-455
676
2549
2858
959
-608
-508
-132
-211
-206
-99
-117
-116
-70
-64
-60
-50
-53
-40
-21
-17
-6
14
27
39
57
79
113
151
173
188
201
198
178
150
102
17
-91
-189
-255
-300
-337
-356
-356
-354
-356
-349
-338
-333
-326
-306
-285
-274
-266
-256
-246
-231
-214
-208
-211
-208
-197
-194
-197
-191
-175
-159
-145
-129
-119
-111
-96
-73
-52
-41
-37
-34
-29
-17
8
40
67
83
67
37
45
57
31
53
94
1
-152
-305
-251
831
2673
3021
1239
-256
-227
32
-94
-103
-30
-68
-59
-12
-27
-34
-10
-4
0
22
41
55
69
82
105
135
165
197
229
258
282
289
281
276
266
212
119
33
-37
-109
-173
-214
-240
-254
-246
-221
-191
-155
-117
-91
-68
-40
-26
-29
-20
-6
-17
-46
-64
-71
-82
-98
-119
-141
-158
-171
-196
-232
-254
-257
-266
-293
-313
-315
-322
-336
-343
-341
-332
-314
-294
-280
-289
-323
-328
-300
-315
-317
-256
-285
-403
-495
-505
217
1939
2760
1235
-613
-744
-200
-172
-220
-120
-124
-124
-64
-69
-72
-19
15
27
60
100
130
154
176
210
258
296
330
379
424
449
464
477
474
451
396
302
188
87
4
-53
-77
-85
-101
-114
-110
-105
-108
-107
-104
-108
-106
-93
-81
-83
-95
-104
-98
-89
-87
-88
-88
-88
-79
-59
-48
-50
-47
-37
-32
-29
-24
-26
-36
-41
-31
-4
33
58
31
-23
-36
-44
-91
-95
-94
-227
-426
-615
-467
805
2585
2563
601
-685
-436
-130
-232
-212
-149
-192
-177
-136
-153
-157
-136
-131
-126
-121
-122
-111
-93
-84
-70
-48
-34
-20
9
43
56
44
24
24
18
-54
-165
-232
-262
-317
-370
-353
-298
-274
-268
-237
-203
-190
-172
-139
-112
-87
-62
-55
-54
-35
-22
-29
-24
-14
-43
-69
-21
54
73
53
51
67
82
95
96
75
55
58
71
76
83
94
113
130
106
63
67
77
55
76
79
-39
-192
-373
-226
1097
2839
2680
757
-361
-156
-51
-230
-184
-129
-192
-169
-111
-115
-121
-123
-119
-74
-32
-35
-41
-24
13
62
80
64
83
125
137
150
173
150
101
70
20
-75
-178
-263
-316
-330
-338
-357
-340
-278
-239
-237
-216
-183
-172
-169
-161
-156
-145
-136
-142
-146
-154
-188
-207
-175
-150
-180
-208
-193
-175
-189
-216
-225
-199
-167
-173
-185
-157
-139
-163
-176
-151
-121
-94
-66
-70
-106
-118
-119
-145
-106
-28
-101
-250
-357
-374
416
2180
2874
1256
-488
-557
-120
-177
-219
-114
-151
-195
-139
-100
-95
-86
-68
-35
1
32
69
103
114
125
169
221
244
258
303
361
390
395
399
388
343
267
161
48
-33
-78
-107
-107
-80
-74
-96
-106
-101
-102
-103
-100
-92
-77
-71
-76
-68
-51
-47
-45
-35
-27
-18
-2
9
13
19
25
26
29
33
30
22
13
-5
-18
-7
14
22
11
-34
-82
-88
-100
-115
-62
-46
-145
-279
-445
-87
1592
3253
2543
384
-470
-70
40
-89
-9
18
-37
-4
14
-15
-11
-11
-38
-53
-65
-94
-121
-137
-150
-169
-183
-186
-184
-193
-214
-242
-276
-319
-369
-427
-495
-575
-653
-709
-733
-731
-710
-680
-641
-587
-524
-467
-408
-342
-290
-257
-227
-201
-179
-155
-136
-130
-124
-110
-100
-98
-87
-56
-22
1
16
37
62
79
90
99
105
108
117
130
134
130
123
123
139
164
181
170
129
103
111
95
81
124
100
-27
-166
-306
113
1674
2938
2020
138
-439
-94
-71
-167
-81
-71
-107
-62
-39
-49
-26
2
23
51
76
102
135
167
200
231
249
270
298
312
306
302
309
314
290
238
192
153
94
19
-39
-68
-79
-96
-128
-142
-122
-104
-110
-117
-107
-97
-102
-107
-98
-83
-70
-68
-86
-105
-99
-92
-108
-117
-102
-93
-107
-125
-138
-148
-146
-130
-116
-115
-117
-117
-124
-133
-124
-99
-82
-94
-130
-153
-153
-168
-163
-132
-192
-326
-461
-472
296
1905
2487
941
-738
-815
-308
-276
-347
-293
-293
-296
-260
-238
-194
-139
-124
-114
-82
-53
-38
-28
0
46
78
99
140
187
212
217
213
227
254
225
131
50
5
-51
-129
-213
-281
-299
-271
-256
-269
-259
-213
-194
-226
-244
-213
-181
-167
-139
-111
-115
-129
-126
-131
-152
-156
-135
-136
-157
-133
-87
-113
-164
-119
-22
22
47
106
135
84
29
39
61
21
-20
12
24
-33
-101
-241
-65
1184
2615
2146
199
-781
-447
-188
-224
-131
-65
-101
-81
-64
-92
-77
-32
-26
-41
-9
73
122
113
121
156
178
218
298
359
383
407
430
426
396
350
257
108
-18
-79
-132
-190
-204
-192
-202
-205
-156
-101
-117
-171
-156
-97
-95
-122
-110
-94
-99
-95
-98
-125
-130
-117
-144
-146
-32
41
-80
-214
-191
-141
-149
-137
-130
-166
-146
-55
-24
-48
-6
58
3
-81
-49
-34
-111
-110
-101
-262
-432
-427
167
1756
2984
1993
-39
-700
-296
-205
-297
-217
-202
-230
-189
-177
-170
-127
-132
-161
-140
-116
-91
-25
9
-32
-35
58
153
185
192
209
243
291
303
244
168
121
65
-8
-55
-85
-129
-148
-135
-166
-241
-259
-214
-196
-217
-229
-228
-209
-173
-172
-211
-232
-236
-248
-246
-221
-176
-144
-182
-246
-223
-155
-155
-196
-206
-191
-169
-141
-118
-100
-87
-97
-127
-135
-108
-105
-139
-113
-51
-122
-281
-398
-341
461
2020
2632
1245
-401
-637
-241
-202
-233
-107
-78
-153
-156
-78
-25
-52
-72
-5
59
33
10
63
105
92
108
182
245
276
305
323
336
371
364
300
279
249
105
-26
-51
-79
-117
-106
-109
-145
-159
-143
-106
-86
-123
-133
-69
-55
-116
-113
-73
-130
-190
-132
-80
-125
-146
-106
-85
-81
-95
-168
-190
-72
0
-87
-119
2
51
-53
-105
-32
-38
-147
-125
-28
-109
-248
-301
-152
867
2503
2681
860
-609
-499
-89
-135
-208
-182
-166
-121
-101
-138
-122
-63
-92
-155
-86
32
26
-9
39
69
52
90
169
209
220
253
296
285
223
184
164
83
-29
-76
-105
-183
-210
-152
-156
-238
-245
-169
-151
-227
-260
-163
-97
-184
-240
-139
-82
-167
-235
-219
-190
-181
-176
-155
-147
-208
-238
-120
