# session 18
-13
5
-45
32
294
488
500
485
522
562
597
638
681
728
772
798
804
776
691
552
390
241
129
50
-7
-43
-61
-74
-85
-81
-76
-85
-94
-85
-75
-74
-77
-76
-77
-81
-83
-76
-63
-64
-81
-92
-91
-87
-88
-96
-100
-92
-87
-98
-109
-105
-96
-94
-100
-106
-102
-94
-90
-88
-88
-91
-91
-88
-87
-86
-84
-85
-77
-53
-47
-67
-63
-24
-5
-11
-19
-50
-78
-64
-69
-87
-45
-61
-216
-384
-465
103
1853
3223
2133
-106
-813
-306
-164
-277
-193
-168
-217
-176
-141
-144
-119
-97
-86
-50
-15
1
31
75
114
153
203
262
321
375
413
434
426
374
277
154
25
-85
-159
-207
-239
-254
-256
-258
-258
-252
-243
-233
-226
-219
-207
-195
-196
-194
-179
-172
-176
-170
-160
-158
-154
-148
-150
-145
-134
-132
-135
-125
-119
-127
-127
-113
-107
-113
-107
-91
-88
-97
-98
-89
-86
-86
-80
-71
-71
-74
-68
-56
-56
-65
-68
-61
-54
-49
-40
-30
-31
-30
-10
12
22
15
-21
-49
-35
-44
-66
-19
-30
-191
-361
-438
83
1774
3230
2328
128
-708
-287
-141
-266
-210
-182
-222
-184
-151
-156
-134
-111
-100
-69
-37
-22
2
43
86
126
176
235
288
336
384
420
419
384
328
244
132
36
-24
-72
-107
-112
-114
-131
-139
-129
-121
-113
-106
-109
-109
-96
-86
-84
-78
-79
-93
-97
-89
-90
-93
-88
-83
-78
-71
-66
-65
-66
-76
-91
-95
-91
-88
-84
-76
-62
-48
-44
-51
-53
-48
-58
-77
-85
-88
-93
-95
-98
-112
-119
-109
-98
-94
-89
-87
-86
-73
-53
-45
-62
-96
-109
-96
-114
-132
-96
-118
-245
-376
-437
86
1638
2825
1866
-112
-811
-407
-216
-263
-207
-189
-216
-184
-161
-158
-126
-93
-78
-59
-42
-25
8
47
79
122
185
251
316
373
415
442
448
404
304
179
59
-54
-145
-198
-222
-238
-247
-245
-242
-243
-233
-207
-195
-206
-205
-186
-173
-171
-168
-161
-148
-131
-123
-123
-125
-128
-127
-125
-123
-117
-111
-110
-105
-95
-87
-85
-87
-88
-79
-67
-61
-59
-57
-52
-44
-34
-27
-27
-26
-20
-13
-7
-3
-1
4
17
33
34
37
64
92
94
85
58
26
38
51
26
51
75
-47
-227
-360
-68
1392
3156
2842
624
-674
-357
-40
-141
-110
-52
-94
-63
-16
-23
6
39
21
25
70
94
109
139
154
173
243
320
355
383
442
506
505
417
345
332
216
-33
-196
-223
-234
-206
-167
-247
-357
-357
-329
-326
-312
-316
-331
-302
-276
-289
-293
-288
-300
-285
-230
-237
-301
-285
-213
-224
-265
-253
-259
-273
-223
-209
-295
-319
-233
-228
-315
-302
-220
-238
-280
-242
-236
-300
-307
-249
-222
-224
-228
-256
-283
-276
-267
-238
-159
-132
-217
-272
-222
-186
-207
-192
-129
-89
-79
-67
-75
-120
-125
-71
-55
-47
-10
-80
-245
-396
-376
520
2332
3026
1420
-375
-556
-136
-97
-84
-14
-58
-35
47
33
18
55
57
42
78
147
178
175
214
278
337
464
603
661
821
1117
1201
1018
867
744
516
328
277
228
109
-15
-91
-99
-13
118
227
392
689
945
926
651
335
123
10
-61
-123
-181
-222
-249
-273
-285
-295
-332
-368
-373
-389
-428
-430
-410
-434
-469
-456
-441
-465
-473
-445
-445
-487
-510
-503
-497
-488
-465
-437
-412
-396
-385
-356
-305
-263
-250
-250
-253
-251
-242
-264
-296
-257
-220
-313
-465
-520
-116
1107
2220
1647
-35
-787
-443
-206
-239
-176
-132
-155
-124
-89
-75
-41
-16
1
36
63
87
136
197
267
343
387
414
485
564
591
598
623
621
535
373
194
55
-37
-109
-147
-156
-187
-224
-209
-179
-201
-236
-231
-209
-173
-120
-105
-146
-171
-155
-144
-145
-138
-136
-148
-159
-161
-155
-144
-132
-121
-116
-117
-115
-105
-94
-82
-70
-58
-47
-47
-68
-98
-121
-127
-110
-91
-100
-120
-126
-132
-119
-67
-28
-20
24
102
127
96
101
139
134
144
219
186
6
-154
-165
567
2337
3357
1987
11
-331
113
16
-183
-109
-93
-131
-90
-87
-130
-98
18
121
114
26
-22
-4
25
46
70
101
143
195
244
276
286
274
232
145
22
-106
-222
-313
-360
-380
-400
-418
-417
-400
-383
-382
-384
-366
-348
-355
-358
-337
-310
-293
-288
-289
-278
-263
-269
-268
-230
-200
-218
-237
-221
-202
-197
-183
-171
-177
-173
-149
-141
-133
-83
-44
-73
-108
-94
-70
-55
-34
-22
-20
-9
-11
-27
-16
17
25
12
28
82
110
87
68
63
29
17
60
49
0
23
-15
-189
-329
-351
250
1971
3269
2171
45
-562
-76
17
-100
-12
19
-10
35
42
23
76
119
95
93
137
131
59
29
90
168
220
277
332
372
412
442
447
431
383
316
222
67
-62
-61
-31
-72
-109
-92
-69
-75
-99
-98
-67
-54
-67
-77
-97
-121
-128
-142
-175
-190
-186
-189
-193
-189
-195
-196
-180
-184
-212
-214
-206
-230
-246
-226
-226
-247
-246
-252
-284
-293
-267
-251
-261
-278
-272
-256
-275
-324
-334
-288
-254
-279
-312
-293
-263
-266
-269
-274
-306
-306
-271
-282
-292
-290
-393
-546
-667
-587
379
2041
2414
797
-664
-668
-332
-367
-364
-294
-320
-305
-250
-248
-238
-205
-211
-232
-227
-198
-174
-177
-155
-57
25
27
54
155
252
321
346
278
220
247
192
32
-43
-104
-207
18
627
1152
1456
1612
1391
896
637
652
664
684
762
803
815
833
780
645
519
440
398
376
343
281
226
196
172
154
147
121
68
11
-42
-88
-111
-124
-152
-180
-190
-203
-231
-251
-259
-292
-360
-413
-426
-431
-452
-488
-534
-556
-554
-588
-607
-559
-588
-724
-856
-897
-244
1393
2276
911
-937
-1187
-658
-586
-643
-540
-521
-528
-458
-419
-409
-371
-329
-292
-252
-216
-178
-135
-97
-51
12
79
147
220
288
346
391
408
384
313
199
69
-36
-100
-139
-164
-168
-158
-148
-133
-109
-95
-95
-95
-88
-76
-59
-44
-41
-35
-18
-10
-20
-21
1
26
38
38
35
33
34
36
34
26
25
34
41
36
33
37
36
33
40
43
38
53
86
93
77
81
104
116
127
129
91
69
99
89
62
108
84
-75
-220
-267
309
1944
3074
1924
-40
-502
-51
-35
-161
-76
-78
-140
-105
-86
-105
-92
-75
-63
-34
-20
-29
-24
-8
-3
2
24
57
104
160
198
207
202
181
122
31
-58
-134
-205
-260
-283
-288
-303
-313
-299
-275
-260
-249
-239
-234
-222
-208
-209
-213
-212
-220
-242
-256
-254
-254
-266
-279
-274
-254
-240
-243
-249
-238
-215
-209
-230
-250
-258
-266
-240
-136
-11
49
69
98
110
90
76
67
55
66
79
67
89
164
203
168
141
166
170
145
176
196
109
17
-45
135
1162
2506
2354
693
-385
-261
-111
-256
-258
-210
-252
-241
-201
-234
-274
-268
-252
-242
-225
-191
-160
-149
-140
-111
-71
-23
38
102
157
188
195
211
243
223
120
6
-62
-97
-127
-149
-157
-155
-156
-153
-138
-119
-105
-93
-81
-74
-75
-79
-77
-66
-56
-53
-54
-54
-52
-51
-55
-57
-48
-36
-36
-41
-41
-39
-36
-31
-37
-54
-63
-62
-61
-60
-57
-55
-51
-45
-41
-36
-32
-31
-15
16
35
37
53
82
99
91
54
18
20
15
-15
10
33
-59
-167
-215
4
1010
2261
2082
535
-425
-284
-132
-236
-227
-190
-217
-193
-156
-150
-130
-105
-90
-62
-33
-13
12
41
64
75
83
100
126
143
148
149
157
168
154
106
49
4
-31
-52
-62
-79
-98
-91
-62
-47
-49
-46
-42
-54
-62
-51
-42
-47
-50
-48
-52
-67
-88
-117
-141
-150
-151
-162
-176
-176
-167
-165
-168
-171
-177
-183
-187
-191
-182
-178
-215
-281
-317
-319
-322
-325
-317
-311
-306
-297
-296
-289
-251
-192
-148
-140
-134
-8
285
557
627
504
216
82
776
1921
1894
455
-651
-623
-369
-389
-406
-374
-382
-369
-343
-342
-333
-310
-292
-277
-267
-251
-204
-134
-44
69
147
177
254
374
398
338
331
341
257
135
63
6
-60
-90
-89
-91
-92
-82
-83
-96
-98
-76
-42
-16
-8
3
25
32
16
-11
-24
20
107
134
85
64
90
104
117
138
122
91
116
201
291
351
394
454
521
546
522
490
476
458
400
333
316
298
236
241
346
410
417
440
392
241
104
-12
-121
-183
-283
-447
-595
-621
74
1657
2382
1004
-656
-833
-465
-534
-601
-504
-525
-565
-531
-525
-522
-479
-445
-420
-384
-355
-333
-305
-275
-246
-209
-167
-130
-98
-66
-35
-14
-9
-19
-42
-88
-159
-215
-213
-175
-166
-200
-240
-259
-260
-253
-240
-228
-225
-220
-197
-171
-169
-178
-172
-157
-143
-127
-112
-103
-94
-81
-72
-69
-65
-63
-61
-51
-37
-28
-20
-11
-6
-3
8
21
29
37
50
57
59
60
58
59
66
73
75
84
105
132
154
160
134
89
79
98
90
97
150
143
54
-53
-2
747
2091
2487
1228
-67
-195
53
20
-1
51
19
-3
30
39
38
54
53
46
64
88
75
48
56
91
114
122
131
141
144
136
119
90
37
-15
-48
-94
-161
-203
-223
-239
-207
-137
-122
-194
-274
-256
-136
-64
-159
-316
-405
-445
-480
-499
-504
-508
-499
-476
-463
-468
-484
-495
-495
-495
-502
-502
-498
-491
-465
-450
-454
-339
-26
298
469
569
681
746
740
716
713
717
683
595
508
483
488
457
384
305
253
219
153
83
65
37
-41
-153
-278
97
1396
2357
1458
-232
-780
-464
-385
-475
-449
-449
-476
-466
-478
-485
-449
-425
-431
-424
-394
-364
-342
-313
-280
-259
-214
-90
53
120
145
176
174
140
139
161
157
139
103
16
-90
-160
-194
-226
-264
-272
-226
-166
-136
-122
-108
-96
-80
-72
-94
-112
-100
-90
-96
-93
-89
-93
-65
23
149
283
408
466
384
242
194
266
448
772
1137
1401
1502
1308
800
312
121
111
83
-9
-137
-256
-328
-375
-413
-410
-380
-389
-447
-513
-573
-605
-596
-600
-604
-560
-576
-689
-795
-803
-245
1145
2019
1045
-511
-877
-542
-505
-559
-476
-462
-478
-428
-391
-372
-333
-301
-273
-229
-178
-121
-65
-17
33
90
154
227
281
300
386
656
914
867
720
791
906
983
1171
1162
740
359
238
126
23
37
124
275
377
278
121
73
65
59
55
-14
-103
-151
-236
-336
-317
-240
-245
-273
-231
-183
-182
-183
-181
-211
-240
-213
-178
-207
-253
-239
-209
-214
-205
-182
-203
-217
-170
-136
-161
-171
-134
-113
-116
-112
-121
-126
-76
-20
-21
-48
-82
-122
-134
-102
-73
-90
-136
-207
-345
-148
951
2093
1646
83
-675
-413
-191
-221
-197
-144
-146
-186
-211
-151
-41
37
55
-52
-253
-314
-234
-273
-324
-132
71
108
196
266
184
251
417
337
231
252
143
-39
-257
-460
-212
70
-379
-752
-449
-409
-593
-266
-226
-832
-782
-41
43
-417
-469
-332
-417
-270
260
623
789
1222
1643
1409
792
463
413
311
120
-53
-115
-38
24
-87
-280
-389
-400
-395
-429
-476
-481
-463
-456
-438
-400
-368
-352
-369
-403
-390
-359
-397
-444
-407
-371
-435
-594
-668
-70
1344
2140
1099
-486
-874
-476
-318
-319
-226
-174
-168
-128
-89
-46
19
69
96
116
128
155
199
229
248
275
315
378
463
564
690
805
859
866
835
736
585
446
358
319
310
306
294
295
321
353
379
397
388
349
326
350
377
372
360
374
408
446
477
493
503
516
515
494
495
528
541
511
488
496
496
460
425
423
412
375
364
380
367
326
302
298
294
275
244
223
221
214
196
168
101
16
-16
-33
-81
-94
-114
-240
-433
-660
-448
969
2555
2023
-141
-1240
-909
-691
-825
-820
-819
-907
-932
-954
-1020
-1050
-1069
-1124
-1179
-1211
-1235
-1260
-1287
-1315
-1339
-1349
-1351
-1352
-1343
-1333
-1350
-1396
-1461
-1564
-1728
-1923
-2111
-2305
-2468
-2539
-2604
-2687
-2662
-2712
-2877
-2432
-1397
-1108
-1599
-1306
-299
-77
-471
-310
120
-13
-447
-637
-600
-418
-119
97
143
112
47
18
102
215
263
297
397
583
790
929
1020
1144
1264
1332
1385
1439
1474
1517
1592
1637
1607
1561
1577
1698
1850
1809
1601
1609
1851
1931
1788
1593
1727
3005
4849
4884
2853
1396
1496
1745
1658
1706
1770
1709
1711
1732
1684
1659
1661
1628
1571
1496
1411
1365
1372
1418
1510
1645
1802
1941
2048
2155
2262
2326
2395
2461
2357
2100
1820
1412
1022
1018
851
-319
-1895
-2775
-3092
-3432
-3710
-3778
-3892
-4017
-3691
-2921
-2126
-1117
339
1334
972
-128
-901
-1307
-1810
-2387
-2746
-2888
-2989
-3066
-3046
-2967
-2911
-2875
-2811
-2735
-2683
-2633
-2561
-2481
-2403
-2309
-2204
-2105
-1996
-1867
-1748
-1621
-1445
-1294
-1244
-1206
-1121
-1053
-963
-833
-806
-869
-956
-888
145
2061
2609
831
-800
-668
-143
-125
-44
138
157
214
317
379
682
1219
1472
1333
1192
1150
1056
975
995
1020
1022
1075
1161
1214
1266
1346
1407
1425
1416
1359
1233
1070
909
780
701
649
602
570
560
553
540
531
531
531
529
530
533
539
548
552
544
528
512
493
465
433
407
386
356
325
312
297
261
232
225
192
127
96
89
28
-34
-29
-61
-73
160
424
324
45
-84
-146
-209
-247
-366
-532
-677
-574
553
2313
2369
267
-1273
-1027
-565
-628
-627
-535
-553
-526
-453
-426
-377
-301
-258
-236
-210
-185
-163
-145
-127
-102
-78
-53
-18
20
53
89
114
114
103
70
-22
-147
-246
-309
-353
-382
-392
-381
-357
-337
-322
-307
-296
-288
-271
-249
-230
-206
-184
-172
-146
-107
-89
-86
-71
-61
-67
-65
-50
-50
-60
-59
-51
-44
-34
