# session 39
-80
-231
234
-61
-1897
-3497
-3554
-3149
-3160
-3128
-2917
-2820
-2746
-2578
-2436
-2356
-2265
-2148
-2045
-1962
-1870
-1774
-1699
-1619
-1511
-1402
-1339
-1311
-1248
-1144
-1075
-1042
-968
-877
-828
-775
-682
-612
-576
-515
-436
-404
-428
-419
-344
-291
-267
-208
-186
-272
-368
-142
867
2192
2230
719
-452
-317
85
122
142
214
221
246
289
329
423
495
464
435
474
508
503
513
551
579
598
638
693
734
776
840
905
946
966
977
995
1010
968
837
656
476
323
217
152
107
78
61
58
70
78
68
70
91
91
67
62
70
57
44
50
41
15
13
34
41
24
1
-11
-10
-10
-24
-41
-45
-42
-53
-64
-51
-28
-27
-42
-68
-96
-97
-97
-128
-126
-102
-179
-328
-472
-339
748
2353
2450
679
-659
-515
-176
-256
-267
-202
-243
-251
-208
-210
-217
-200
-190
-185
-173
-154
-130
-109
-88
-53
-11
15
26
46
78
104
135
179
216
242
277
299
259
159
27
-113
-234
-312
-355
-381
-394
-400
-410
-415
-402
-381
-365
-360
-361
-356
-337
-324
-325
-323
-316
-307
-291
-271
-260
-257
-250
-243
-240
-238
-227
-210
-202
-206
-199
-163
-117
-96
-92
-98
-132
-152
-124
-131
-161
-106
-101
-260
-443
-563
-97
1619
3155
2279
123
-581
-105
-36
-200
-117
-94
-150
-99
-61
-75
-54
-29
-29
-17
11
43
80
108
121
133
159
189
210
234
281
327
353
379
415
439
449
447
400
300
182
77
-15
-93
-146
-165
-167
-175
-183
-180
-181
-187
-176
-163
-168
-177
-179
-177
-165
-139
-136
-163
-176
-160
-143
-139
-143
-146
-141
-134
-138
-140
-132
-127
-121
-100
-79
-81
-102
-120
-119
-120
-126
-49
81
29
-197
-389
-496
2
1636
2899
1869
-129
-666
-185
-113
-241
-162
-143
-182
-129
-87
-82
-53
-44
-59
-50
-31
-13
19
47
55
62
87
123
150
169
201
250
302
352
386
390
389
390
336
197
36
-86
-162
-199
-196
-183
-192
-214
-222
-223
-229
-231
-232
-241
-242
-227
-223
-231
-222
-213
-223
-230
-230
-230
-206
-183
-218
-261
-236
-184
-164
-172
-192
-202
-166
-103
-77
-100
-118
-114
-114
-125
-144
-145
-95
-77
-173
-330
-494
-214
1140
2549
2036
188
-635
-267
-79
-186
-137
-98
-144
-120
-86
-103
-95
-53
-14
21
47
62
75
86
104
135
155
154
167
210
258
293
324
353
371
376
382
377
325
230
130
43
-32
-87
-120
-144
-161
-165
-162
-165
-172
-173
-165
-155
-151
-153
-155
-156
-154
-150
-149
-154
-162
-164
-158
-154
-154
-153
-151
-151
-149
-146
-140
-130
-127
-134
-135
-119
-94
-77
-71
-78
-105
-127
-112
-109
-132
-99
-81
-192
-341
-482
-270
1018
2583
2282
406
-550
-176
60
-73
-69
-38
-70
-39
-21
-48
-36
-22
-32
-21
-6
-2
15
19
6
30
71
78
81
112
137
146
164
190
215
233
231
212
182
112
-1
-104
-160
-191
-217
-238
-249
-250
-245
-236
-229
-227
-226
-228
-232
-228
-218
-212
-207
-202
-200
-197
-196
-198
-188
-164
-156
-168
-168
-154
-147
-144
-130
-111
-103
-98
-84
-81
-98
-94
-59
-35
-36
-35
-45
-69
-54
-36
-81
-83
-17
-70
-224
-368
-363
488
2162
2657
1067
-403
-314
62
-66
-118
-27
-71
-104
-60
-59
-65
-32
-10
-5
8
26
42
61
83
104
121
132
148
179
215
245
283
328
345
327
305
297
281
233
155
70
1
-46
-75
-92
-107
-114
-113
-112
-111
-110
-115
-121
-118
-113
-114
-110
-102
-101
-101
-93
-84
-83
-84
-79
-70
-64
-67
-72
-72
-70
-68
-63
-58
-61
-65
-60
-55
-64
-77
-62
-26
-7
-11
-20
-52
-84
-65
-52
-96
-88
-50
-143
-292
-429
-378
592
2177
2317
617
-588
-362
-76
-218
-226
-157
-205
-211
-172
-174
-167
-145
-139
-130
-116
-105
-89
-82
-83
-73
-63
-62
-53
-35
-24
-14
0
9
19
34
35
17
-9
-57
-140
-226
-287
-333
-371
-393
-406
-420
-429
-426
-415
-407
-411
-419
-418
-426
-450
-452
-425
-418
-430
-425
-424
-425
-372
-267
-166
-78
5
63
94
121
160
211
264
306
337
366
399
440
471
470
451
440
426
392
343
297
287
288
246
226
263
220
98
-16
-37
632
2114
2705
1355
-98
-119
288
251
169
168
111
106
116
164
373
464
233
69
188
230
59
-27
29
22
-24
12
33
-44
-128
-149
-104
6
118
157
156
164
152
94
13
-65
-132
-183
-220
-269
-342
-408
-445
-474
-488
-450
-371
-308
-281
-267
-250
-237
-226
-218
-226
-247
-252
-248
-276
-322
-348
-356
-363
-369
-374
-375
-367
-361
-361
-354
-341
-332
-323
-312
-302
-292
-283
-243
-135
-20
3
-56
-110
-115
-112
-138
-134
-99
-151
-262
-369
-377
315
1745
2219
858
-477
-420
-25
-79
-115
-20
-23
-18
39
57
78
127
147
148
153
156
165
181
188
184
190
218
257
282
287
294
302
302
299
301
305
311
303
251
166
89
35
-10
-53
-85
-102
-102
-98
-105
-114
-111
-108
-111
-108
-101
-99
-98
-94
-91
-86
-80
-79
-86
-93
-92
-90
-90
-90
-90
-92
-91
-91
-95
-96
-89
-83
-82
-82
-84
-83
-80
-81
-79
-64
-45
-26
-11
-23
-62
-72
-51
-70
-84
-41
-62
-171
-280
-327
181
1504
2232
1140
-327
-493
-77
-73
-156
-89
-91
-115
-81
-71
-72
-50
-36
-26
-7
12
36
55
55
57
77
99
113
123
139
159
176
186
197
208
221
232
222
174
98
18
-50
-98
-128
-152
-174
-186
-183
-175
-173
-174
-168
-161
-162
-166
-168
-164
-159
-158
-159
-155
-147
-145
-147
-146
-140
-136
-136
-136
-135
-133
-130
-129
-125
-117
-111
-111
-109
-101
-96
-98
-101
-91
-66
-44
-38
-43
-61
-83
-77
-71
-93
-78
-49
-110
-214
-321
-198
758
2061
1942
373
-562
-271
-8
-119
-118
-63
-94
-85
-53
-61
-47
-14
-5
0
16
32
49
69
89
104
114
126
148
170
186
203
227
244
248
256
268
264
232
172
87
2
-57
-97
-132
-152
-151
-153
-160
-159
-150
-145
-143
-142
-145
-147
-137
-123
-122
-132
-139
-138
-133
-123
-120
-128
-130
-124
-121
-116
-101
-92
-100
-105
-95
-84
-83
-91
-93
-83
-76
-78
-76
-68
-63
-52
-30
-12
-3
-6
-32
-55
-45
-48
-72
-41
-24
-112
-225
-345
-159
952
2214
1807
151
-581
-206
-25
-139
-100
-60
-101
-90
-69
-65
-30
-8
-17
-9
16
36
50
61
77
95
107
118
135
156
179
202
215
220
228
238
247
242
207
145
67
-15
-82
-120
-142
-161
-173
-175
-174
-173
-169
-162
-155
-147
-140
-138
-138
-141
-147
-143
-132
-132
-141
-144
-141
-141
-140
-136
-130
-128
-127
-122
-119
-121
-124
-118
-111
-109
-105
-100
-99
-98
-90
-82
-80
-83
-86
-81
-54
-23
-12
-18
-34
-54
-48
-40
-65
-60
-29
-90
-206
-326
-287
556
1980
2162
631
-535
-335
0
-102
-128
-58
-88
-87
-41
-41
-39
-15
-3
8
26
42
60
77
88
100
117
136
158
180
196
209
223
239
253
261
263
263
248
191
96
3
-61
-100
-130
-152
-157
-155
-165
-173
-165
-158
-157
-153
-145
-138
-134
-134
-129
-122
-126
-134
-125
-111
-115
-131
-131
-111
-102
-113
-117
-110
-108
-108
-106
-106
-101
-92
-87
-76
-60
-68
-92
-92
-78
-77
-78
-67
-60
-59
-46
-18
-5
-4
0
-15
-53
-58
-45
-63
-51
-16
-83
-208
-329
-279
585
2013
2156
593
-553
-330
-2
-112
-134
-62
-89
-89
-55
-60
-50
-21
-13
-7
9
27
47
64
74
90
109
118
123
128
136
149
175
204
228
241
227
196
177
141
59
-22
-66
-101
-134
-152
-167
-178
-177
-185
-205
-197
-165
-149
-158
-165
-150
-132
-119
-97
-100
-160
-194
-144
-115
-148
-147
-125
-154
-168
-131
-118
-113
-89
-109
-139
-90
-34
-50
-64
-45
-46
-61
-78
-99
-82
-40
-44
-80
-83
-42
-6
-14
-25
16
41
-23
-93
-73
-11
26
22
-43
-109
-138
-171
183
1258
1969
1158
-122
-373
-65
-75
-151
-54
-30
-75
-41
-2
-29
-56
-28
28
39
18
47
112
131
117
121
127
125
147
195
237
259
265
255
250
269
305
304
228
132
93
49
-58
-125
-105
-127
-215
-233
-153
-110
-162
-209
-197
-192
-187
-136
-123
-192
-220
-173
-162
-185
-170
-156
-176
-170
-140
-150
-173
-149
-118
-130
-151
-145
-137
-140
-131
-121
-125
-119
-91
-53
-23
-25
-69
-109
-112
-94
-87
-104
-108
-78
-89
-154
-230
-284
97
1201
1950
1160
-206
-594
-285
-161
-159
-90
-90
-118
-89
-76
-76
-43
-28
-43
-31
-1
15
22
35
75
137
170
178
205
232
253
303
356
368
367
391
411
395
335
228
104
8
-66
-140
-193
-204
-197
-192
-185
-183
-185
-166
-128
-116
-129
-121
-98
-98
-111
-122
-141
-153
-140
-125
-125
-129
-133
-137
-131
-121
-119
-119
-103
-84
-97
-129
-138
-116
-96
-90
-85
-69
-51
-46
-58
-79
-91
-82
-90
-128
-116
-74
-115
-213
-354
-366
435
1876
2184
764
-511
-510
-180
-159
-145
-89
-112
-118
-91
-93
-82
-44
-30
-31
-3
30
28
31
72
104
106
130
181
215
242
289
338
372
395
413
437
452
408
304
193
85
-33
-132
-189
-218
-230
-236
-244
-236
-208
-199
-213
-211
-192
-180
-174
-166
-165
-166
-161
-159
-165
-169
-168
-162
-155
-159
-158
-142
-136
-152
-157
-138
-125
-130
-135
-118
-87
-62
-55
-65
-94
-125
-124
-119
-146
-136
-94
-146
-270
-419
-397
511
2142
2529
913
-600
-623
-226
-209
-207
-137
-163
-171
-129
-120
-114
-84
-63
-56
-51
-40
-16
12
39
75
111
138
174
227
281
329
376
429
480
514
529
527
474
347
185
41
-77
-168
-223
-248
-261
-275
-282
-267
-251
-259
-257
-220
-190
-196
-198
-177
-169
-179
-174
-156
-159
-176
-166
-138
-129
-135
-136
-137
-140
-135
-130
-133
-132
-119
-91
-58
-46
-56
-65
-82
-111
-102
-86
-120
-114
-68
-147
-296
-443
-458
496
2400
2963
1143
-595
-579
-133
-193
-231
-144
-166
-180
-147
-142
-123
-95
-92
-79
-51
-38
-21
8
34
61
96
124
150
197
259
315
371
428
471
508
545
543
459
319
165
15
-104
-179
-236
-276
-276
-259
-264
-277
-275
-273
-268
-247
-224
-216
-218
-221
-215
-192
-179
-192
-197
-178
-174
-192
-194
-182
-184
-188
-177
-168
-170
-164
-149
-145
-155
-149
-107
-66
-64
-78
-70
-70
-107
-122
-98
-114
-125
-82
-130
-283
-447
-525
256
2203
3211
1639
-389
-641
-158
-186
-253
-141
-165
-204
-140
-122
-137
-116
-102
-89
-47
-20
-18
2
34
58
89
132
173
215
258
304
369
449
507
537
566
576
517
382
221
74
-48
-139
-188
-214
-238
-241
-223
-221
-237
-235
-219
-212
-212
-215
-209
-190
-176
-179
-183
-183
-182
-181
-186
-184
-160
-143
-152
-161
-159
-159
-150
-133
-134
-146
-139
-120
-111
-116
-116
-104
-90
-80
-78
-90
-95
-71
-46
-45
-43
-35
-61
-91
-70
-67
-113
-85
-46
-168
-341
-492
-335
1008
2939
2916
736
-710
-446
-116
-245
-224
-137
-185
-188
-147
-152
-141
-109
-104
-97
-64
-40
-29
0
39
65
86
117
154
205
273
332
377
441
517
568
593
597
528
368
192
47
-77
-166
-212
-245
-265
-261
-271
-293
-288
-271
-265
-253
-234
-226
-223
-214
-208
-207
-203
-199
-203
-201
-188
-177
-178
-181
-182
-175
-163
-160
-162
-154
-145
-148
-151
-146
-137
-129
-125
-129
-125
-109
-103
-113
-113
-99
-86
-65
-44
-50
-55
-47
-76
-109
-79
-74
-108
-65
-64
-216
-385
-531
-105
1665
3308
2412
107
-712
-240
-118
-247
-160
-132
-176
-125
-94
-113
-97
-74
-71
-52
-14
6
13
38
74
98
125
167
200
235
303
374
417
457
510
559
594
590
507
348
165
16
-67
-119
-180
-215
-204
-215
-266
-281
-248
-228
-235
-234
-223
-218
-214
-197
-176
-177
-188
-183
-173
-170
-170
-176
-176
-156
-142
-160
-178
-164
-146
-147
-144
-132
-130
-113
-68
-67
-136
-183
-163
-129
-114
-112
-123
-133
-123
-102
-92
-100
-107
-90
-58
-51
-61
-55
-65
-106
-105
-83
-122
-122
-57
-125
-308
-483
-498
455
2432
3164
1405
-449
-531
-108
-203
-266
-158
-172
-192
-143
-131
-131
-107
-93
-84
-69
-55
-31
-1
18
46
94
128
141
180
242
283
315
374
444
483
499
520
516
428
266
104
-14
-97
-154
-193
-220
-222
-208
-217
-243
-243
-217
-200
-204
-212
-202
-180
-172
-177
-175
-173
-178
-175
-164
-162
-164
-158
-147
-135
-124
-130
-139
-120
-103
-123
-132
-101
-88
-105
-106
-101
-103
-82
-58
-77
-99
-84
-65
-62
-54
-46
-55
-54
-38
-37
-42
-20
18
38
32
23
6
-32
-47
-27
-39
-39
8
-48
-210
-373
-417
390
2254
3149
1632
-254
-495
-75
-105
-175
-96
-120
-152
-110
-92
-87
-75
-74
-61
-44
-39
-18
12
19
34
84
122
130
157
208
245
284
350
403
432
476
517
497
411
291
151
12
-103
-183
-219
-221
-237
-266
-261
-242
-259
-277
-259
-244
-246
-237
-235
-240
-222
-214
-241
-246
-216
-210
-226
-222
-197
-189
-205
-208
-192
-192
-194
-170
-153
-173
-188
-175
-159
-156
-156
-154
-148
-134
-115
-113
-127
-134
-126
-120
-114
-104
-99
-99
-91
-78
-63
-43
-40
-51
-52
-66
-87
-70
-69
-102
-57
-21
-145
-291
-415
-253
1016
2754
2625
624
-609
-363
-103
-184
-124
-72
-135
-112
-56
-68
-73
-48
-28
-9
7
19
37
68
115
144
127
