# session 8
-82
-85
-94
54
260
266
144
104
144
143
81
95
180
109
-36
-7
-13
-273
-570
-487
552
2219
2576
929
-612
-714
-467
-584
-618
-505
-479
-472
-407
-309
-226
-261
-361
-327
-153
5
134
287
392
417
455
535
619
707
738
624
434
301
236
182
109
19
-80
-187
-289
-325
-262
-165
-109
-84
-54
-19
41
120
147
117
89
41
-32
-63
-61
-73
-67
-40
-48
-60
-3
56
35
37
111
90
-58
-257
-390
269
1971
2837
1448
-353
-660
-303
-241
-157
-88
-277
-361
-224
-163
-123
13
-21
-263
-332
-169
-112
-232
-301
-260
-233
-242
-228
-206
-210
-237
-297
-368
-393
-402
-438
-444
-407
-387
-357
-283
-239
-249
-207
-78
30
44
24
32
64
125
175
120
30
66
151
140
82
46
33
72
116
96
77
95
118
186
225
98
-116
-313
-186
853
2154
1930
334
-570
-320
-52
-47
-7
-13
-17
110
182
125
112
163
177
143
113
130
174
212
274
346
332
260
207
116
-20
-97
-147
-258
-371
-434
-500
-573
-603
-614
-668
-736
-759
-752
-747
-720
-677
-663
-657
-596
-489
-390
-319
-287
-297
-310
-288
-240
-203
-215
-253
-226
-112
5
99
185
199
185
269
302
166
44
-137
-80
1356
3421
3245
917
-377
7
283
193
273
261
165
240
271
190
199
233
201
216
283
324
358
411
492
597
645
607
561
521
418
271
141
30
-60
-122
-186
-268
-344
-427
-537
-602
-551
-468
-515
-652
-670
-569
-544
-581
-562
-576
-667
-676
-596
-581
-628
-608
-511
-434
-421
-413
-379
-368
-344
-252
-198
-242
-250
-217
-241
-303
-390
-54
1382
2827
2192
175
-657
-162
137
83
185
285
255
257
292
308
355
403
385
397
480
434
222
134
268
405
444
460
469
446
417
392
343
240
94
-11
-22
-9
-36
-51
-38
-67
-136
-170
-175
-195
-209
-209
-232
-259
-240
-218
-268
-367
-436
-461
-473
-486
-527
-645
-785
-804
-722
-699
-719
-670
-636
-668
-604
-493
-572
-763
-924
-894
27
1681
2039
351
-1147
-1064
-627
-659
-653
-468
-331
-192
-48
26
85
170
268
386
482
543
629
726
789
836
850
848
922
993
899
738
650
557
409
298
230
157
107
104
105
107
144
181
166
139
146
163
154
114
64
49
77
75
15
-18
27
75
79
108
176
168
31
-140
-264
-339
-373
-357
-319
-347
-460
-649
-836
-367
1194
2373
1463
-381
-1022
-672
-509
-545
-481
-444
-447
-376
-268
-201
-161
-93
9
105
179
240
299
350
369
387
443
473
440
429
390
191
-31
-113
-195
-317
-308
-236
-252
-243
-147
-108
-146
-137
-51
15
-26
-106
-94
-37
-50
-94
-103
-100
-100
-111
-151
-160
-91
-23
-8
8
36
21
-3
-5
-96
-273
-340
-314
-357
-472
-649
-398
1081
2711
2190
74
-944
-577
-367
-451
-293
-215
-448
-586
-487
-431
-463
-439
-409
-411
-350
-268
-254
-228
-151
-110
-104
-76
-34
-12
-40
-159
-335
-477
-551
-555
-447
-260
-121
-44
58
167
228
264
287
308
349
362
335
351
388
365
318
288
248
231
277
319
300
244
197
165
137
111
91
92
137
146
32
-111
-255
-151
1014
2812
2965
1052
-409
-300
29
-39
-34
58
67
76
134
205
207
157
163
131
-23
-93
25
174
250
235
151
114
165
166
-1
-246
-399
-481
-592
-650
-612
-642
-745
-723
-607
-586
-630
-612
-537
-479
-458
-450
-459
-510
-554
-510
-432
-405
-385
-313
-248
-221
-173
-99
-88
-161
-184
-57
54
17
12
61
-34
-188
-322
-193
1157
3260
3383
1088
-535
-279
99
-40
-60
-31
-121
-113
-39
-8
32
38
-11
-11
50
102
141
175
178
163
167
187
212
247
244
159
53
-11
-87
-217
-300
-251
-194
-258
-323
-266
-198
-225
-308
-378
-377
-329
-318
-330
-316
-312
-319
-294
-269
-278
-287
-276
-266
-233
-161
-114
-144
-188
-202
-253
-340
-342
-298
-335
-367
-397
-349
604
2433
2892
1008
-703
-552
25
-11
-32
109
57
7
137
230
217
222
258
279
306
360
402
409
404
424
473
509
504
479
443
354
197
27
-95
-148
-136
-91
-66
-79
-74
-33
-32
-97
-124
-64
-25
-80
-162
-197
-195
-183
-195
-281
-373
-304
-122
-99
-265
-335
-258
-247
-296
-279
-265
-273
-251
-305
-440
-601
-731
-81
1707
2681
1222
-723
-952
-383
-306
-345
-200
-150
-165
-115
-44
39
107
128
148
175
195
250
310
316
323
384
444
453
419
381
366
327
216
87
10
-35
-88
-149
-195
-212
-221
-249
-278
-282
-277
-285
-283
-242
-193
-182
-187
-179
-197
-267
-344
-401
-452
-486
-491
-484
-476
-489
-548
-584
-548
-543
-580
-600
-742
-991
-991
-573
349
1674
2197
981
-601
-973
-720
-731
-762
-678
-705
-748
-688
-654
-687
-699
-735
-819
-373
1273
3187
3472
2316
1666
1814
1583
944
600
484
288
54
-107
-155
-138
-152
-179
-198
-239
-259
-247
-255
-218
-74
70
138
180
219
267
354
447
536
697
906
1029
1041
982
796
480
193
54
-12
-103
-168
-177
-265
-437
-599
-645
65
1746
2569
1139
-687
-968
-588
-597
-619
-517
-530
-525
-465
-488
-506
-425
-323
-253
-234
-273
-280
-187
-66
4
42
59
49
40
20
-60
-186
-308
-406
-458
-453
-435
-426
-407
-388
-386
-389
-391
-402
-413
-412
-394
-348
-293
-268
-257
-214
-166
-176
-199
-162
-120
-132
-158
-168
-152
-81
-33
-69
-46
30
-49
-224
-358
-278
727
2456
2778
984
-574
-533
-151
-180
-180
-119
-133
-85
-28
-51
-36
9
-5
12
98
110
63
116
224
270
334
446
459
326
166
91
97
73
-22
-89
-95
-100
-95
-77
-90
-111
-114
-134
-152
-122
-86
-94
-112
-109
-126
-174
-193
-161
-120
-79
-27
-12
-57
-92
-102
-141
-188
-216
-237
-205
-175
-250
-324
-364
-190
932
2554
2509
568
-727
-449
-65
-119
-88
-15
-51
-33
16
18
45
86
72
56
95
137
141
164
233
286
301
341
407
407
312
192
106
33
-64
-174
-248
-268
-282
-329
-363
-338
-298
-283
-257
-204
-185
-232
-283
-273
-215
-171
-158
-143
-122
-97
-63
-83
-187
-226
-158
-171
-250
-198
-148
-276
-456
-615
-324
1133
2655
2016
-118
-1079
-660
-374
-406
-348
-339
-365
-268
-163
-115
-63
-15
23
66
111
177
257
321
393
474
513
497
467
446
420
360
265
173
117
75
22
-7
9
11
-31
-54
-40
-37
-57
-79
-84
-71
-55
-55
-78
-113
-131
-140
-158
-152
-124
-140
-186
-206
-223
-232
-196
-207
-286
-289
-243
-306
-503
-712
-312
1247
2637
1935
68
-635
-263
-162
-307
-254
-190
-217
-221
-230
-248
-225
-199
-201
-195
-169
-142
-121
-76
25
128
157
136
131
121
56
-52
-150
-213
-246
-254
-248
-251
-271
-275
-246
-203
-170
-150
-118
-63
-22
-18
-30
-39
-33
-11
5
16
25
29
31
24
-2
-23
-60
-107
-95
-90
-168
-251
-344
-97
1187
2630
2193
315
-619
-324
-143
-238
-217
-221
-259
-206
-184
-209
-148
-58
-29
-7
30
50
93
182
263
309
316
301
336
414
414
314
207
119
26
-58
-114
-139
-152
-190
-243
-250
-198
-172
-216
-256
-238
-215
-229
-254
-272
-291
-309
-305
-264
-208
-162
-124
-106
-124
-117
-81
-85
-53
42
10
-144
-321
-382
508
2482
3273
1532
-397
-551
-108
-114
-106
-7
-70
-94
-25
-38
-76
-60
-51
-49
-11
40
79
120
166
207
249
294
318
309
260
170
57
-61
-164
-225
-247
-254
-227
-176
-192
-271
-290
-220
-176
-230
-308
-317
-282
-278
-295
-282
-244
-189
-128
-118
-157
-157
-115
-94
-108
-143
-142
-71
-69
-215
-418
-601
-223
1231
2386
1444
-428
-978
-552
-445
-519
-438
-421
-438
-368
-321
-297
-229
-171
-142
-105
-60
19
121
165
154
178
239
263
224
162
114
44
-39
-55
-31
-54
-89
-96
-119
-129
-59
35
64
41
27
30
52
139
284
386
385
313
220
128
62
28
8
1
-6
-40
-64
-67
-87
-72
-36
-115
-244
-359
-324
628
2360
2718
955
-554
-478
-137
-224
-220
-141
-185
-177
-139
-185
-201
-134
-74
-52
-38
-6
49
103
170
266
325
304
289
343
388
316
146
5
-45
-70
-127
-174
-194
-212
-224
-224
-230
-252
-282
-308
-320
-324
-331
-329
-328
-334
-313
-265
-239
-235
-228
-240
-271
-266
-254
-285
-270
-210
-280
-428
-552
-524
419
2240
2702
792
-988
-915
-366
-356
-362
-261
-275
-254
-187
-201
-203
-131
-78
-64
-31
32
99
172
261
339
377
398
421
412
344
256
182
101
18
-24
-41
-69
-78
-70
-84
-94
-64
-27
-6
11
-8
-74
-114
-102
-109
-148
-159
-146
-144
-126
-81
-77
-118
-98
-22
-42
-120
-70
-3
-115
-335
-529
-108
1619
3317
2709
600
-369
-96
14
-86
-24
-10
-33
45
54
-69
-161
-174
-188
-224
-237
-221
-202
-175
-130
-77
-30
8
47
86
89
11
-127
-228
-241
-243
-278
-290
-282
-286
-255
-189
-162
-158
-126
-93
-83
-90
-109
-111
-86
-63
-46
-26
-22
-21
-16
-27
-13
34
28
7
31
-27
-182
-331
-367
312
1865
2563
1203
-414
-552
-138
-187
-270
-165
-158
-180
-114
-103
-174
-189
-127
-74
-58
-69
-98
-110
-89
-74
-71
-52
-35
-42
-63
-98
-150
-214
-282
-344
-392
-432
-452
-417
-339
-285
-273
-267
-269
-290
-283
-248
-254
-295
-300
-273
-260
-247
-213
-165
-119
-102
-103
-69
-31
-15
72
166
75
-71
-161
-133
801
2644
3124
1239
-497
-444
18
-17
-19
74
39
28
55
25
25
61
62
76
127
138
128
193
307
367
377
395
403
359
287
208
102
-9
-79
-133
-176
-165
-136
-157
-204
-212
-174
-131
-128
-162
-185
-179
-166
-161
-156
-146
-147
-175
-198
-195
-208
-258
-301
-330
-349
-306
-276
-366
-502
-595
-278
1018
2411
1949
32
-935
-556
-244
-282
-216
-153
-167
-92
-5
-11
-34
-19
28
101
158
177
203
272
345
376
388
420
437
399
345
295
220
143
93
39
-16
-32
-30
-27
5
45
47
27
17
21
36
34
-4
-28
-20
-42
-82
-83
-92
-146
-185
-200
-230
-225
-185
-180
-174
-161
-264
-486
-724
-679
288
1843
2148
684
-621
-667
-421
-468
-479
-446
-488
-487
-467
-494
-458
-360
-316
-303
-254
-194
-138
-68
-7
27
56
87
97
84
59
6
-79
-143
-158
-162
-173
-186
-193
-165
-107
-87
-100
-68
3
29
4
-14
-18
-23
-19
0
7
3
4
-24
-89
-112
-78
-96
-140
-100
-93
-228
-426
-567
-67
1493
2621
1600
-250
-740
-328
-240
-258
-121
-96
-102
-7
38
39
101
170
200
220
224
236
310
408
461
480
490
486
482
462
382
254
143
64
-12
-90
-150
-177
-182
-188
-208
-228
-239
-247
-258
-266
-271
-292
-316
-299
-244
-187
-140
-112
-103
-67
-37
-65
-61
-6
-11
9
102
49
-141
-323
-353
550
2443
3115
1419
-316
-394
-39
-122
-140
-53
-94
-105
-70
-95
-90
-32
-5
-12
-25
-36
-20
22
59
87
110
117
105
80
50
0
-81
-149
-174
-211
-274
-287
-265
-291
-316
-270
-234
-254
-247
-206
-208
-238
-241
-223
-218
-241
-267
-270
-260
-266
-289
-303
-289
-295
-339
-319
-263
-341
-511
-652
-570
342
1824
2023
452
-793
-648
-302
-351
-334
-237
-234
-206
-140
-92
-24
28
40
86
140
146
165
226
266
285
316
332
319
304
278
223
161
109
50
-4
-22
-8
2
-12
-35
-36
-19
-22
-61
-120
-169
-167
-127
-117
-141
-131
-88
-66
-60
-46
-62
-118
-135
-97
-89
-107
-91
-122
-235
-371
-515
-155
1337
2742
2049
49
-830
-492
-284
-320
-265
-280
-336
-268
-196
-191
-176
-159
-145
-99
-38
31
128
240
346
438
499
534
548
524
457
356
240
151
98
48
0
-23
-19
-8
-13
-35
-42
-33
-25
-17
-11
-26
-58
-85
-106
-125
-130
-113
-92
-81
-82
-115
-160
-156
-143
-172
-153
-122
-222
-389
-570
-451
786
2546
2546
670
-566
-419
-241
-344
-292
-244
-279
-253
-251
-277
-229
-166
-140
-126
-126
-125
-109
-100
-84
-34
29
67
59
26
19
24
-13
-71
-128
-200
-255
-259
-274
-322
-325
-279
-253
-241
-211
-182
-149
-115
-132
-179
-174
-149
-167
-177
-140
-108
-83
-46
-30
-24
2
6
16
60
14
-147
-328
-376
278
1694
2290
1077
-336
-499
-192
-228
-277
-208
-228
-262
-237
-234
-231
-185
-145
-132
-111
-73
-28
25
88
146
182
202
200
169
152
160
122
47
8
-17
-62
-79
-74
-81
-64
-45
-84
-116
-89
-83
-124
-137
-125
-140
-159
-144
-130
-153
-183
-178
-151
-165
-228
-223
-117
-65
-89
-37
11
-67
-147
-213
65
1406
2861
2270
187
-741
-260
51
-17
47
111
83
116
162
147
125
128
148
161
159
175
214
256
314
363
375
381
363
278
206
188
119
-15
-105
-147
-195
-215
-205
-208
-198
-163
-162
-168
-130
-106
-126
-131
-136
-180
-211
-200
-195
-207
-182
-124
-118
-179
-202
-175
-198
-208
-159
-227
-408
-558
-609
49
1659
2453
1102
-576
-765
-361
-364
-395
-295
-292
-297
-250
-244
-242
-191
-130
-87
-61
-32
10
52
94
141
169
168
153
148
165
171
116
19
-59
-106
-141
-160
-172
-198
-217
-213
-220
-223
-166
-111
-163
-257
-278
-253
-244
-256
-287
-314
-303
-287
-306
-312
-290
-294
-293
-250
-238
-244
-186
-178
-283
-434
-595
-167
1420
2714
1848
3
-589
-252
-187
-239
-123
-87
-126
-109
-90
-82
-52
-27
-8
28
70
123
201
273
311
343
392
424
422
405
372
316
252
186
