# session 35
-31
-43
-8
-12
-131
-263
-289
-262
-256
-252
-239
-236
-230
-220
-215
-206
-191
-186
-191
-187
-174
-164
-158
-151
-142
-133
-131
-131
-128
-122
-116
-113
-106
-95
-85
-76
-65
-46
-24
-19
-31
-47
-63
-65
-53
-68
-78
-36
-47
-148
-249
-337
18
1304
2384
1644
12
-521
-169
-77
-168
-118
-105
-133
-97
-79
-89
-70
-50
-48
-38
-23
-8
14
35
49
68
94
116
134
157
185
213
240
269
294
317
336
344
332
292
211
104
14
-42
-83
-115
-127
-128
-133
-137
-136
-133
-130
-128
-129
-129
-126
-124
-124
-122
-115
-108
-106
-106
-103
-101
-102
-100
-96
-97
-96
-94
-91
-93
-96
-95
-88
-85
-88
-90
-86
-81
-78
-78
-76
-73
-72
-69
-63
-63
-66
-63
-59
-60
-60
-54
-49
-51
-51
-42
-34
-31
-27
-14
6
21
16
-3
-23
-43
-41
-29
-51
-62
-27
-57
-155
-250
-311
171
1505
2313
1301
-202
-487
-123
-100
-178
-123
-124
-145
-111
-101
-107
-88
-74
-67
-48
-32
-26
-13
10
34
53
68
87
112
139
162
187
220
253
278
304
332
340
315
255
166
71
-14
-78
-111
-125
-145
-159
-159
-157
-156
-149
-149
-156
-150
-140
-143
-146
-140
-138
-143
-143
-135
-126
-121
-119
-117
-117
-119
-117
-111
-109
-109
-106
-96
-88
-91
-98
-92
-82
-82
-86
-85
-84
-83
-76
-67
-68
-75
-77
-71
-63
-58
-58
-63
-59
-44
-37
-36
-24
0
15
12
-6
-29
-50
-50
-39
-57
-62
-22
-44
-146
-269
-355
155
1572
2440
1388
-214
-542
-145
-85
-160
-108
-107
-127
-86
-72
-83
-65
-49
-48
-38
-22
-7
11
30
46
66
92
119
139
158
187
230
270
298
320
342
360
364
342
277
172
61
-24
-84
-130
-160
-167
-170
-177
-175
-167
-165
-164
-157
-153
-153
-151
-148
-145
-138
-133
-135
-136
-134
-132
-128
-120
-113
-108
-106
-107
-107
-106
-106
-104
-99
-99
-102
-97
-88
-85
-89
-93
-94
-88
-80
-76
-75
-72
-69
-69
-71
-70
-65
-61
-65
-66
-51
-36
-35
-35
-23
-1
14
6
-12
-29
-48
-50
-44
-60
-46
-13
-72
-179
-286
-304
403
1882
2403
1035
-394
-443
-75
-119
-174
-109
-126
-139
-100
-95
-91
-64
-58
-58
-43
-26
-9
9
25
48
77
95
104
122
152
187
223
254
280
305
327
341
345
321
251
152
56
-26
-92
-134
-154
-158
-155
-152
-157
-161
-153
-149
-157
-156
-145
-146
-152
-142
-132
-133
-130
-122
-116
-114
-116
-115
-105
-98
-102
-107
-103
-95
-96
-101
-100
-91
-85
-86
-87
-82
-78
-82
-83
-76
-72
-72
-71
-69
-68
-66
-62
-61
-61
-59
-53
-54
-62
-62
-49
-44
-41
-23
-1
13
17
10
-10
-39
-56
-39
-31
-53
-36
-20
-94
-192
-298
-199
751
2104
2058
509
-497
-297
-58
-148
-143
-95
-128
-120
-91
-101
-90
-62
-57
-50
-29
-13
4
24
34
43
66
95
118
140
167
196
227
259
289
317
336
342
341
320
243
126
26
-37
-82
-120
-149
-159
-154
-145
-145
-149
-152
-154
-156
-154
-147
-143
-144
-141
-130
-126
-135
-140
-133
-125
-123
-122
-117
-117
-125
-126
-112
-104
-112
-116
-103
-86
-86
-100
-104
-96
-89
-75
-54
-50
-71
-85
-77
-66
-67
-72
-76
-78
-70
-56
-51
-56
-64
-64
-51
-35
-31
-23
2
21
12
-13
-40
-53
-42
-40
-59
-40
-20
-89
-188
-302
-263
593
2020
2207
693
-519
-405
-70
-119
-143
-94
-117
-110
-77
-86
-79
-48
-44
-41
-18
-4
0
17
37
55
76
102
130
156
184
216
252
285
318
346
371
396
396
346
258
159
56
-36
-104
-147
-163
-167
-178
-184
-175
-166
-169
-171
-166
-160
-161
-163
-157
-143
-136
-137
-140
-139
-135
-131
-133
-136
-135
-130
-127
-124
-119
-112
-112
-119
-122
-112
-105
-108
-109
-97
-89
-94
-97
-90
-86
-88
-86
-79
-77
-74
-70
-71
-73
-64
-54
-54
-51
-33
-10
4
-1
-16
-32
-51
-53
-36
-46
-57
-30
-63
-171
-280
-365
101
1528
2515
1526
-147
-530
-127
-84
-181
-119
-116
-148
-106
-84
-94
-79
-65
-61
-45
-31
-22
-2
21
41
62
82
103
132
164
192
220
255
291
322
347
367
373
346
279
183
79
-12
-79
-125
-155
-168
-166
-164
-169
-172
-164
-153
-154
-157
-149
-141
-142
-138
-127
-123
-122
-114
-109
-112
-110
-104
-105
-106
-99
-98
-102
-98
-90
-90
-92
-90
-88
-87
-83
-82
-82
-75
-70
-79
-86
-77
-67
-67
-66
-63
-64
-60
-56
-60
-56
-47
-55
-66
-55
-41
-40
-35
-17
3
17
12
-4
-19
-38
-48
-35
-43
-59
-22
-26
-127
-228
-318
-30
1185
2346
1746
98
-529
-182
-66
-175
-131
-107
-144
-119
-96
-101
-81
-64
-67
-55
-36
-27
-9
14
26
39
62
85
108
136
166
197
231
262
286
311
332
341
333
293
207
98
5
-56
-100
-137
-156
-154
-154
-158
-152
-147
-159
-167
-153
-144
-152
-152
-139
-128
-127
-129
-131
-128
-122
-124
-128
-123
-110
-104
-109
-112
-106
-105
-114
-114
-100
-93
-92
-85
-81
-85
-91
-92
-84
-75
-73
-76
-78
-81
-80
-72
-67
-72
-80
-73
-51
-39
-42
-37
-17
1
15
19
9
-5
-22
-43
-37
-26
-54
-56
-18
-55
-155
-269
-286
389
1761
2221
952
-356
-412
-84
-105
-144
-94
-112
-118
-86
-89
-89
-61
-48
-47
-41
-30
-9
15
24
39
68
92
112
138
159
183
224
271
305
324
335
348
362
344
268
157
53
-29
-92
-133
-151
-159
-165
-165
-160
-154
-153
-153
-149
-144
-145
-151
-150
-142
-139
-140
-139
-134
-131
-134
-135
-130
-123
-122
-123
-120
-115
-111
-106
-102
-101
-102
-101
-100
-98
-91
-82
-79
-87
-92
-83
-74
-76
-78
-75
-74
-73
-70
-67
-63
-58
-49
-27
-1
1
-19
-35
-53
-64
-56
-69
-81
-43
-53
-158
-271
-377
-35
1279
2441
1746
62
-538
-186
-74
-169
-125
-108
-142
-111
-85
-93
-81
-55
-42
-40
-40
-23
4
21
31
51
77
104
129
156
188
223
256
285
312
336
359
371
354
292
191
76
-19
-80
-120
-152
-170
-171
-167
-169
-171
-165
-158
-156
-157
-153
-145
-137
-132
-128
-122
-116
-113
-114
-115
-117
-116
-109
-105
-108
-108
-102
-98
-100
-99
-95
-94
-97
-97
-90
-87
-90
-89
-82
-79
-82
-83
-78
-75
-78
-77
-69
-66
-72
-71
-61
-54
-51
-41
-22
-4
4
0
-12
-31
-57
-60
-43
-59
-66
-28
-59
-167
-270
-322
195
1580
2398
1333
-217
-490
-108
-91
-173
-109
-108
-135
-106
-97
-97
-72
-61
-60
-39
-16
-8
0
16
37
57
77
100
122
148
180
212
245
280
313
335
345
348
331
271
171
65
-21
-81
-121
-146
-160
-161
-158
-157
-158
-161
-164
-159
-149
-144
-144
-140
-131
-125
-124
-123
-117
-110
-107
-106
-105
-104
-101
-97
-94
-94
-100
-103
-96
-86
-83
-86
-84
-78
-77
-78
-75
-73
-73
-70
-66
-64
-66
-70
-71
-67
-64
-64
-64
-61
-58
-53
-47
-43
-35
-16
4
6
-5
-22
-48
-59
-44
-52
-68
-35
-42
-141
-245
-345
-56
1154
2285
1685
77
-534
-197
-72
-170
-137
-116
-144
-117
-97
-106
-94
-75
-65
-52
-40
-26
-6
11
29
54
73
88
112
144
174
203
237
276
311
336
350
360
356
307
213
109
17
-54
-101
-133
-151
-157
-159
-160
-155
-148
-145
-148
-156
-154
-145
-148
-155
-148
-131
-119
-113
-116
-123
-120
-112
-112
-115
-112
-103
-101
-108
-110
-100
-93
-99
-103
-94
-89
-92
-90
-80
-77
-80
-77
-75
-81
-80
-74
-73
-70
-59
-47
-34
-14
-2
-14
-31
-46
-64
-62
-45
-64
-85
-50
-66
-162
-253
-360
-50
1241
2377
1642
-47
-595
-199
-86
-185
-133
-110
-143
-120
-101
-101
-80
-65
-60
-46
-38
-30
0
28
39
54
79
102
126
159
196
231
260
289
325
361
382
384
359
297
204
92
-18
-97
-139
-162
-174
-176
-181
-188
-181
-168
-171
-179
-171
-156
-152
-153
-149
-141
-133
-125
-126
-136
-137
-129
-128
-129
-120
-110
-109
-106
-101
-104
-109
-109
-107
-104
-97
-91
-92
-94
-90
-78
-69
-71
-67
-48
-28
-15
-13
-29
-59
-77
-62
-50
-74
-71
-40
-84
-185
-320
-347
398
1857
2276
880
-461
-449
-82
-121
-170
-110
-121
-128
-95
-95
-93
-67
-53
-43
-26
-16
-9
5
26
53
76
93
115
144
172
203
244
285
317
344
363
369
356
308
213
98
3
-65
-117
-149
-162
-168
-174
-175
-173
-170
-167
-167
-164
-154
-143
-139
-143
-145
-138
-129
-125
-126
-127
-125
-118
-113
-114
-116
-112
-100
-93
-101
-110
-105
-99
-98
-95
-92
-91
-84
-74
-73
-77
-78
-79
-79
-76
-70
-61
-49
-45
-49
-42
-30
-19
-1
11
1
-26
-50
-50
-33
-49
-62
-21
-39
-146
-249
-345
3
1295
2365
1596
-31
-526
-160
-77
-166
-115
-111
-144
-109
-91
-98
-75
-54
-52
-41
-26
-13
0
16
36
59
80
103
128
151
177
215
251
277
301
325
339
341
323
264
169
71
-6
-64
-107
-132
-141
-147
-152
-151
-147
-148
-151
-150
-146
-143
-144
-142
-136
-130
-128
-127
-122
-117
-119
-119
-110
-105
-109
-107
-104
-106
-106
-96
-88
-86
-87
-93
-97
-93
-86
-83
-79
-75
-76
-79
-73
-66
-67
-69
-69
-73
-74
-67
-61
-57
-50
-43
-32
-21
-12
-1
3
-7
-23
-43
-57
-53
-65
-75
-40
-49
-141
-244
-356
-38
1231
2328
1619
0
-539
-190
-90
-172
-120
-108
-144
-115
-90
-93
-79
-61
-52
-41
-33
-22
-5
13
34
62
86
100
117
143
173
203
235
267
293
315
338
351
332
273
185
87
0
-66
-115
-146
-153
-148
-151
-165
-172
-164
-157
-159
-154
-139
-136
-149
-154
-144
-135
-136
-132
-119
-116
-127
-129
-111
-103
-115
-116
-96
-89
-106
-113
-99
-94
-99
-95
-87
-88
-85
-78
-77
-77
-72
-71
-74
-68
-62
-62
-57
-47
-41
-34
-14
5
6
-13
-41
-61
-47
-40
-76
-72
-28
-78
-197
-329
-363
355
1872
2429
1058
-406
-477
-99
-127
-181
-114
-123
-133
-97
-96
-94
-65
-60
-65
-46
-26
-12
10
33
45
62
87
106
129
162
196
230
267
298
319
340
359
358
317
232
123
20
-58
-112
-144
-161
-167
-167
-170
-171
-166
-160
-157
-152
-148
-149
-148
-137
-132
-136
-131
-120
-118
-120
-117
-114
-112
-109
-106
-106
-105
-104
-104
-102
-98
-94
-90
-85
-80
-78
-78
-77
-73
-70
-69
-65
-64
-70
-72
-63
-57
-58
-60
-59
-55
-49
-47
-47
-37
-15
8
17
7
-13
-39
-60
-48
-36
-60
-52
-19
-83
-203
-323
-312
477
1967
2369
929
-417
-395
-60
-131
-172
-103
-128
-143
-105
-99
-95
-74
-65
-55
-37
-23
-10
5
18
35
60
86
109
130
151
177
207
237
269
298
315
323
327
303
231
132
37
-40
-94
-124
-140
-151
-156
-155
-156
-162
-163
-156
-150
-147
-141
-134
-128
-126
-125
-127
-127
-124
-122
-118
-112
-111
-112
-109
-105
-105
-104
-100
-98
-98
-99
-96
-89
-84
-85
-86
-78
-70
-76
-80
-71
-64
-67
-70
-67
-63
-62
-63
-63
-58
-53
-54
-54
-51
-47
-45
-38
-26
-9
12
22
10
-10
-28
-44
-38
-33
-55
-43
-18
-79
-180
-297
-252
601
2004
2186
720
-443
-338
-49
-127
-153
-99
-122
-121
-86
-86
-81
-59
-53
-43
-23
-14
-5
18
39
52
69
93
116
135
158
187
218
250
279
296
306
321
333
310
238
143
53
-25
-88
-120
-127
-134
-143
-146
-145
-146
-152
-156
-151
-144
-145
-147
-142
-137
-131
-123
-121
-128
-130
-125
-121
-123
-126
-125
-124
-123
-120
-113
-108
-111
-109
-98
-96
-107
-111
-103
-93
-82
-70
-70
-81
-85
-76
-69
-71
-75
-78
-77
-69
-65
-70
-66
-55
-50
-39
-22
-12
-3
8
0
-30
-59
-59
-37
-50
-72
-37
-36
-127
-227
-343
-92
1133
2362
1803
107
-588
-238
-72
-157
-120
-95
-116
-89
-82
-93
-65
-47
-51
-30
-7
-4
7
29
47
75
103
113
127
162
197
224
258
290
314
344
373
381
364
316
227
114
7
-72
-117
-141
-162
-176
-179
-179
-179
-172
-168
-168
-166
-165
-167
-167
-167
-171
-168
-160
-159
-157
-154
-155
-157
-148
-139
-141
-146
-144
-137
-132
-132
-130
-122
-118
-118
-115
-110
-107
-103
-98
-95
-97
-100
-95
-85
-80
-80
-81
-79
-73
-66
-57
-50
-42
-22
-1
-2
-17
-38
-61
-58
-48
-63
-49
-23
-86
-196
-325
-287
605
2105
2330
775
-484
-372
-47
-121
-141
-77
-109
-116
-75
-72
-70
-44
-32
-23
-3
13
26
46
71
88
98
117
148
175
197
226
260
292
323
349
367
378
374
336
259
164
69
-10
-62
-92
-112
-126
-130
-124
-121
-124
-125
-122
-123
-121
-111
-106
-110
-110
-106
-103
-99
-97
-98
-98
-96
-95
-91
-89
-95
-100
-96
-89
-86
-86
-85
-83
-84
-89
-95
-94
-88
-86
-92
-94
-89
-87
-90
-91
-92
-94
-93
-92
-95
-97
-92
-89
-88
-81
-64
-42
-29
-36
-57
-82
-109
-112
-98
-115
-122
-85
-115
-222
-330
-392
113
1479
2291
1247
-282
-560
-189
-171
-250
-187
-187
-213
-179
-166
-169
-146
-130
-131
-123
-104
-81
-61
-44
-23
-1
17
41
69
97
129
161
190
221
248
266
289
308
294
242
167
77
-10
-71
-103
-115
-117
-121
-120
-107
-98
-100
-94
-81
-78
-78
-69
-53
-33
-14
-8
-11
-3
