# session 28
0
-11
23
98
92
-11
-43
20
59
73
102
121
110
74
5
-83
-162
-215
-244
-259
-267
-267
-264
-257
-243
-232
-227
-219
-204
-192
-182
-173
-166
-160
-150
-142
-138
-137
-131
-122
-115
-113
-111
-107
-103
-99
-92
-85
-81
-81
-82
-80
-77
-69
-59
-51
-47
-42
-37
-38
-43
-40
-33
-29
-26
-23
-22
-20
-17
-16
-17
-13
-8
-3
0
5
19
44
58
49
26
1
-6
12
5
-19
10
13
-84
-192
-292
-78
1043
2316
1970
361
-441
-178
-31
-145
-124
-90
-122
-102
-75
-78
-66
-48
-38
-20
-8
-8
4
30
53
68
80
100
130
158
179
204
233
255
272
287
295
292
272
215
122
30
-32
-74
-101
-110
-115
-125
-131
-131
-130
-123
-116
-120
-126
-119
-110
-110
-110
-103
-98
-95
-88
-81
-84
-90
-91
-91
-91
-89
-89
-90
-90
-85
-83
-90
-95
-89
-82
-78
-74
-75
-80
-74
-65
-77
-89
-73
-45
-44
-68
-81
-74
-68
-71
-73
-76
-81
-77
-68
-65
-64
-53
-36
-29
-33
-47
-79
-92
-66
-66
-93
-72
-79
-173
-260
-323
-17
1154
2252
1683
124
-501
-213
-104
-177
-126
-121
-175
-149
-108
-107
-101
-89
-83
-73
-68
-60
-37
-20
-25
-21
12
53
76
86
106
146
187
211
226
251
269
256
227
186
103
-5
-71
-89
-93
-83
-86
-143
-178
-125
-77
-102
-120
-98
-89
-97
-92
-89
-97
-95
-87
-87
-88
-81
-79
-82
-79
-73
-80
-87
-78
-65
-54
-35
-25
-47
-86
-99
-70
-38
-43
-54
-41
-46
-78
-85
-67
-66
-72
-65
-60
-56
-45
-47
-53
-30
-4
-14
-40
-60
-60
-41
-44
-61
-45
-55
-126
-227
-342
22
1321
2356
1576
-35
-554
-214
-106
-170
-119
-103
-128
-103
-87
-87
-71
-62
-60
-51
-47
-32
-2
13
22
50
79
102
137
178
210
238
275
308
329
352
377
368
307
218
121
22
-66
-125
-158
-170
-161
-158
-185
-186
-137
-121
-170
-192
-157
-133
-141
-136
-113
-108
-134
-143
-108
-81
-105
-129
-108
-89
-104
-115
-106
-99
-97
-84
-76
-82
-90
-92
-88
-79
-74
-79
-86
-84
-77
-69
-63
-62
-69
-71
-66
-69
-74
-69
-67
-71
-64
-54
-40
-1
25
3
-29
-46
-59
-70
-93
-96
-34
-29
-153
-290
-382
-39
1236
2414
1816
171
-490
-201
-114
-224
-184
-158
-184
-155
-133
-138
-121
-107
-103
-94
-86
-65
-29
-13
-3
27
46
59
93
117
115
129
174
227
279
314
321
320
307
246
140
34
-48
-107
-137
-148
-157
-164
-157
-146
-141
-128
-108
-99
-98
-92
-83
-79
-78
-77
-75
-65
-52
-50
-57
-59
-55
-50
-54
-59
-54
-48
-50
-49
-46
-51
-57
-56
-58
-60
-52
-45
-45
-44
-38
-35
-31
-27
-37
-63
-74
-58
-40
-39
-41
-29
-9
7
19
23
0
-49
-84
-71
-48
-62
-56
-15
-61
-182
-291
-335
188
1516
2278
1297
-124
-422
-138
-129
-187
-153
-177
-193
-156
-151
-153
-128
-118
-116
-96
-77
-69
-50
-15
10
6
4
40
84
101
121
164
182
164
168
206
225
214
186
125
38
-38
-92
-131
-146
-140
-142
-164
-195
-208
-174
-114
-92
-118
-140
-131
-115
-110
-112
-113
-100
-74
-64
-79
-95
-93
-77
-67
-73
-73
-55
-47
-56
-59
-57
-59
-55
-47
-44
-36
-26
-29
-35
-26
-22
-32
-34
-19
-5
-1
8
33
57
59
42
15
-6
3
7
-11
10
25
-53
-159
-259
-119
840
2128
2073
630
-322
-200
-29
-120
-116
-75
-103
-99
-73
-75
-81
-98
-129
-139
-128
-117
-112
-106
-88
-62
-43
-28
-5
18
44
77
106
124
148
179
197
192
170
121
38
-53
-118
-155
-179
-196
-205
-202
-193
-187
-181
-173
-170
-172
-172
-164
-154
-152
-155
-149
-130
-118
-123
-128
-117
-101
-93
-87
-82
-87
-92
-86
-76
-70
-65
-59
-55
-60
-66
-60
-42
-27
-24
-20
0
19
15
-9
-33
-32
-18
-39
-57
-22
-30
-121
-237
-317
105
1366
2262
1439
-67
-517
-207
-113
-161
-117
-113
-129
-95
-78
-82
-66
-52
-42
-25
-14
-4
18
41
58
76
94
117
147
179
208
240
271
293
314
332
335
310
249
155
52
-29
-86
-129
-155
-163
-168
-176
-175
-167
-161
-159
-154
-152
-152
-148
-146
-148
-144
-137
-136
-133
-127
-129
-130
-122
-119
-123
-120
-117
-119
-120
-117
-114
-110
-109
-109
-101
-90
-88
-92
-81
-56
-35
-26
-27
-41
-72
-86
-70
-78
-93
-53
-55
-164
-285
-365
-10
1258
2400
1789
172
-470
-190
-103
-201
-160
-144
-179
-151
-127
-135
-120
-95
-88
-79
-63
-50
-36
-17
4
24
46
71
93
117
152
190
218
242
265
281
287
273
220
131
37
-37
-88
-120
-138
-148
-151
-149
-147
-148
-150
-147
-141
-137
-137
-133
-125
-121
-115
-110
-107
-102
-96
-91
-88
-86
-87
-85
-81
-82
-83
-81
-81
-79
-75
-74
-73
-70
-69
-69
-67
-66
-67
-61
-55
-54
-43
-15
3
1
-8
-30
-57
-50
-35
-60
-57
-22
-81
-207
-319
-276
493
1901
2317
1022
-263
-336
-78
-145
-188
-132
-153
-165
-130
-124
-121
-98
-87
-82
-66
-48
-36
-19
3
25
43
63
88
112
137
164
192
216
236
252
263
259
231
174
96
13
-55
-98
-119
-128
-130
-127
-128
-135
-139
-133
-124
-121
-121
-122
-120
-117
-110
-103
-102
-104
-103
-99
-94
-87
-86
-93
-94
-87
-83
-83
-85
-89
-85
-74
-67
-67
-67
-65
-64
-62
-63
-67
-66
-56
-55
-61
-61
-57
-54
-53
-56
-59
-50
-39
-35
-33
-26
-13
5
15
8
-18
-48
-43
-32
-62
-66
-26
-66
-185
-318
-308
434
1841
2289
1010
-308
-400
-102
-126
-165
-117
-131
-137
-108
-107
-107
-88
-78
-74
-60
-43
-30
-18
-1
28
55
70
89
115
142
170
199
224
250
274
291
298
284
231
143
51
-27
-85
-123
-145
-150
-143
-139
-142
-142
-142
-140
-133
-132
-137
-133
-125
-130
-131
-117
-111
-121
-121
-108
-108
-114
-104
-93
-98
-106
-105
-101
-99
-95
-93
-91
-85
-84
-86
-84
-79
-80
-78
-72
-71
-72
-65
-59
-62
-60
-50
-45
-49
-51
-37
-6
17
10
-12
-32
-51
-44
-32
-57
-54
-17
-75
-214
-362
-346
490
2065
2546
1098
-341
-389
-61
-131
-182
-111
-129
-146
-110
-108
-114
-98
-90
-83
-67
-47
-28
-13
-1
23
52
69
86
112
141
168
199
232
260
281
296
301
281
217
117
17
-57
-107
-141
-162
-173
-176
-173
-169
-164
-159
-157
-156
-149
-141
-136
-135
-130
-121
-116
-113
-107
-102
-100
-99
-96
-94
-94
-94
-91
-91
-89
-84
-81
-80
-79
-76
-76
-75
-72
-72
-71
-69
-71
-71
-64
-58
-57
-58
-57
-54
-52
-50
-48
-47
-49
-46
-35
-28
-27
-21
-1
21
23
8
-15
-39
-37
-25
-48
-50
-9
-58
-196
-324
-338
324
1816
2556
1387
-127
-372
-72
-117
-195
-135
-146
-166
-129
-120
-121
-100
-88
-79
-58
-45
-35
-17
1
19
39
58
77
99
122
149
180
209
233
253
268
276
265
221
143
53
-21
-75
-110
-127
-133
-140
-145
-143
-141
-141
-140
-140
-139
-133
-127
-125
-123
-119
-114
-105
-97
-96
-98
-94
-88
-88
-88
-87
-88
-87
-83
-82
-83
-78
-74
-74
-73
-71
-72
-70
-69
-71
-70
-64
-62
-65
-64
-58
-56
-56
-53
-54
-56
-53
-47
-45
-42
-40
-39
-37
-35
-34
-31
-27
-23
-12
11
30
27
14
-7
-32
-32
-25
-45
-34
-1
-63
-185
-292
-230
557
1909
2228
947
-233
-276
-64
-145
-171
-115
-141
-146
-107
-105
-110
-92
-75
-61
-49
-40
-23
-4
4
18
42
59
74
96
124
153
178
196
215
235
244
241
232
199
124
31
-40
-84
-118
-145
-156
-156
-159
-163
-156
-144
-142
-147
-147
-141
-134
-130
-125
-120
-118
-113
-106
-103
-101
-98
-99
-102
-99
-96
-96
-91
-88
-89
-84
-80
-85
-82
-69
-68
-77
-75
-67
-62
-55
-52
-61
-62
-49
-46
-54
-55
-46
-38
-38
-44
-51
-48
-40
-31
-23
-9
15
31
14
-27
-52
-37
-29
-60
-48
-5
-60
-188
-314
-288
475
1889
2318
1018
-299
-394
-104
-121
-147
-105
-136
-140
-94
-87
-91
-74
-66
-60
-44
-31
-17
5
28
49
70
85
98
121
153
185
216
249
282
305
320
327
308
243
147
50
-32
-98
-147
-171
-175
-176
-181
-181
-173
-167
-168
-168
-160
-147
-144
-149
-147
-140
-136
-133
-131
-130
-123
-120
-123
-117
-104
-103
-108
-105
-102
-102
-95
-87
-86
-87
-85
-85
-86
-80
-73
-71
-71
-70
-67
-62
-59
-59
-61
-59
-55
-55
-55
-50
-41
-37
-39
-33
-11
10
14
4
-13
-39
-41
-25
-46
-56
-16
-55
-190
-325
-358
268
1770
2602
1483
-97
-404
-86
-109
-190
-129
-139
-165
-128
-114
-116
-96
-83
-77
-60
-44
-29
-11
3
18
39
60
81
109
137
164
193
224
254
279
296
306
297
252
165
61
-25
-83
-125
-154
-168
-172
-173
-170
-166
-168
-167
-157
-149
-147
-145
-137
-129
-124
-120
-115
-110
-105
-100
-97
-96
-96
-95
-95
-94
-94
-95
-93
-92
-91
-88
-83
-83
-82
-79
-75
-74
-72
-69
-68
-67
-63
-57
-56
-55
-52
-48
-46
-44
-42
-42
-41
-39
-36
-32
-28
-25
-23
-17
0
22
30
22
4
-24
-28
-9
-27
-42
-4
-32
-159
-281
-324
184
1554
2477
1587
60
-358
-92
-97
-185
-134
-134
-158
-128
-119
-123
-97
-80
-76
-60
-45
-37
-20
-1
12
30
54
76
94
117
147
179
205
223
242
263
271
265
234
164
71
-16
-83
-129
-151
-159
-164
-168
-166
-156
-151
-156
-159
-152
-147
-149
-146
-133
-124
-126
-126
-112
-98
-103
-113
-111
-102
-101
-101
-97
-94
-93
-93
-97
-98
-87
-79
-81
-79
-72
-69
-69
-70
-73
-70
-61
-59
-60
-54
-50
-49
-46
-46
-50
-44
-38
-42
-40
-32
-32
-29
-12
-3
0
15
26
7
-20
-31
-25
-32
-58
-41
-4
-65
-194
-322
-289
494
1916
2321
1006
-296
-373
-89
-126
-169
-129
-144
-141
-103
-103
-108
-90
-76
-61
-42
-33
-27
-5
27
51
59
71
99
129
156
188
223
259
296
328
346
351
334
277
178
65
-27
-84
-128
-168
-188
-185
-184
-189
-185
-176
-174
-174
-167
-156
-154
-154
-144
-134
-137
-143
-139
-132
-127
-122
-118
-118
-117
-113
-110
-113
-112
-93
-75
-87
-111
-109
-97
-97
-95
-89
-89
-87
-77
-72
-72
-65
-57
-56
-57
-56
-58
-53
-40
-40
-50
-47
-36
-32
-31
-20
2
20
21
10
-5
-27
-27
-12
-36
-50
-9
-40
-177
-326
-383
222
1757
2676
1588
-62
-423
-86
-89
-182
-126
-125
-145
-111
-104
-107
-80
-67
-64
-50
-45
-40
-13
13
22
38
65
86
107
140
177
208
238
274
312
335
341
331
285
194
86
-9
-83
-133
-162
-176
-183
-180
-177
-183
-189
-183
-172
-163
-159
-155
-149
-141
-135
-129
-121
-116
-117
-116
-111
-110
-112
-108
-105
-109
-111
-106
-103
-103
-103
-102
-100
-99
-101
-99
-94
-94
-94
-88
-81
-82
-80
-76
-76
-76
-73
-69
-67
-65
-64
-60
-52
-49
-49
-52
-59
-62
-52
-40
-36
-35
-31
-23
-5
15
20
12
-5
-29
-26
-12
-38
-41
2
-49
-193
-326
-332
363
1882
2604
1400
-118
-357
-65
-110
-177
-117
-134
-153
-113
-104
-110
-92
-75
-64
-49
-38
-25
-7
9
27
48
65
83
107
138
170
201
230
260
287
308
322
315
272
193
97
8
-61
-107
-135
-146
-150
-156
-164
-163
-159
-155
-148
-142
-140
-135
-123
-120
-119
-110
-99
-99
-99
-92
-90
-93
-92
-87
-80
-77
-82
-83
-76
-75
-78
-74
-73
-78
-79
-78
-75
-65
-63
-75
-72
-60
-64
-72
-65
-57
-60
-64
-59
-47
-44
-54
-58
-48
-45
-53
-51
-41
-37
-40
-41
-40
-37
-29
-17
-1
18
20
-4
-34
-46
-31
-30
-61
-54
-21
-85
-219
-352
-307
532
2015
2407
1014
-328
-387
-94
-143
-182
-131
-154
-159
-118
-116
-124
-109
-97
-84
-66
-58
-46
-19
4
16
28
46
76
108
132
161
204
243
271
301
329
342
330
284
196
83
-22
-101
-153
-182
-204
-220
-217
-204
-204
-213
-208
-193
-186
-184
-174
-163
-160
-155
-144
-138
-137
-130
-122
-122
-126
-122
-113
-110
-113
-117
-115
-108
-104
-105
-104
-98
-92
-86
-81
-83
-91
-87
-71
-62
-66
-66
-58
-54
-54
-53
-52
-49
-41
-34
-33
-35
-33
-29
-23
-17
-9
-1
1
8
34
59
55
35
16
0
3
11
-8
6
40
-40
-196
-343
-275
695
2343
2691
1087
-321
-294
6
-102
-141
-67
-95
-111
-74
-69
-65
-49
-52
-48
-25
-9
0
13
32
57
79
92
112
143
176
207
241
276
313
347
370
381
372
317
213
94
-4
-72
-120
-152
-168
-174
-178
-180
-179
-175
-170
-169
-167
-159
-150
-147
-144
-140
-134
-127
-124
-123
-119
-112
-112
-114
-116
-121
-126
-128
-130
-129
-128
-132
-135
-132
-131
-136
-137
-136
-135
-131
-129
-132
-134
-133
-132
-133
-134
-132
-127
-126
-131
-133
-130
-133
-135
-130
-130
-135
-134
-125
-121
-120
-115
-115
-114
-93
-68
-63
-69
-81
-110
-116
-95
-109
-116
-68
-104
-248
-380
-425
139
1643
2627
1625
-24
-431
-117
-128
-224
-157
-150
-178
-141
-121
-120
-92
-70
-61
-41
-20
-3
20
51
75
91
111
144
183
212
238
274
317
360
400
429
449
466
456
390
287
196
128
80
56
