# session 13
-33
-26
-75
70
400
557
495
461
489
486
477
497
523
549
577
579
558
543
517
458
396
350
296
230
173
134
105
77
50
37
34
22
7
12
19
8
-7
-10
-16
-29
-28
-17
-22
-40
-41
-48
-88
-105
-80
-97
-112
-55
-71
-230
-488
-684
32
1896
2755
1153
-658
-656
-103
-154
-201
-69
-108
-150
-79
-66
-78
-38
-5
9
38
67
101
147
179
191
187
154
113
90
63
20
-24
-77
-133
-154
-160
-178
-182
-172
-187
-199
-178
-172
-193
-189
-165
-161
-163
-155
-153
-148
-129
-116
-133
-164
-174
-174
-190
-159
-110
-190
-379
-646
-724
306
2161
2447
553
-860
-557
-119
-230
-223
-115
-171
-186
-114
-94
-95
-73
-58
-47
-27
0
36
71
94
115
122
106
82
53
19
-9
-38
-87
-130
-145
-141
-138
-151
-158
-136
-124
-142
-133
-104
-115
-131
-108
-101
-108
-75
-46
-58
-60
-57
-79
-78
-73
-90
-61
-55
-176
-383
-665
-461
1061
2662
2007
-52
-772
-230
-57
-190
-93
-34
-84
-55
-20
-26
-4
25
39
65
99
130
154
181
200
181
127
88
77
67
45
14
-27
-65
-100
-148
-195
-212
-200
-175
-149
-132
-126
-115
-98
-86
-79
-72
-73
-70
-54
-39
-25
-11
-26
-51
-50
-67
-84
-35
-40
-180
-430
-769
-426
1345
2829
1823
-208
-663
-130
-92
-222
-121
-108
-151
-99
-76
-87
-61
-42
-35
-9
16
33
60
83
85
74
55
24
-10
-28
-29
-34
-57
-83
-97
-103
-106
-105
-105
-111
-115
-114
-115
-120
-118
-110
-104
-109
-116
-103
-81
-69
-54
-46
-66
-79
-84
-105
-84
-52
-130
-322
-665
-789
333
2220
2394
543
-665
-330
-9
-148
-124
-36
-95
-118
-82
-62
-21
27
39
52
113
176
163
122
141
168
138
94
63
22
9
46
45
-48
-129
-106
-68
-111
-150
-115
-101
-135
-134
-136
-196
-223
-179
-156
-160
-133
-130
-190
-202
-130
-100
-124
-110
-98
-104
-45
-11
-151
-468
-766
-333
1190
2289
1466
-23
-377
-81
-101
-172
-58
-24
-69
-43
-2
-15
-61
-94
-54
78
196
196
117
67
93
158
170
115
79
71
20
-55
-94
-116
-139
-125
-89
-99
-155
-188
-141
-39
21
-5
-66
-111
-134
-140
-153
-177
-183
-191
-251
-285
-219
-194
-286
-320
-261
-293
-454
-692
-688
220
1604
1745
447
-464
-297
-14
18
60
-16
-249
-356
-292
-181
-55
31
51
84
141
172
183
166
126
141
205
200
134
123
140
77
-21
-38
5
59
195
454
681
701
609
583
518
292
82
7
-53
-116
-105
-67
-80
-155
-239
-277
-307
-360
-385
-386
-374
-298
-232
-295
-510
-669
-72
1365
1956
656
-809
-891
-450
-379
-366
-296
-333
-311
-198
-202
-258
-156
10
34
-23
2
81
141
203
263
291
329
381
343
208
158
254
282
148
58
114
177
200
217
188
131
112
82
13
-25
-17
-16
-12
36
104
103
34
-19
-95
-204
-183
-89
-162
-230
-89
-9
-106
-235
-280
357
1675
1873
218
-1160
-988
-527
-524
-506
-460
-549
-541
-424
-389
-404
-376
-301
-199
-140
-154
-170
-147
-113
-86
-92
-122
-133
-152
-192
-192
-155
-155
-179
-165
-103
-41
-43
-131
-205
-132
59
227
365
522
581
473
440
604
583
212
124
631
973
715
421
355
245
106
40
-35
-187
-303
297
1825
2523
1103
-613
-780
-291
-235
-277
-211
-256
-304
-229
-167
-206
-289
-335
-335
-327
-296
-249
-237
-235
-228
-231
-166
-95
-205
-353
-310
-249
-343
-442
-452
-430
-411
-434
-471
-448
-427
-474
-494
-430
-364
-355
-406
-461
-428
-346
-330
-326
-224
-80
38
162
258
295
353
408
353
239
49
7
1000
2797
3172
1422
-94
-45
285
160
148
312
341
318
299
157
-25
17
287
501
520
483
511
607
731
795
751
638
468
231
-28
-221
-286
-266
-285
-401
-554
-615
-521
-381
-317
-307
-321
-344
-297
-236
-315
-438
-447
-465
-560
-566
-516
-575
-642
-600
-544
-493
-456
-561
-764
-975
-963
53
1871
2291
503
-1104
-1002
-459
-405
-403
-294
-217
-123
-119
-264
-319
-219
-121
-44
57
171
266
272
215
257
404
488
464
392
301
248
256
181
-1
-94
-70
-72
-65
-12
-20
-71
-56
-13
3
46
130
206
234
195
125
70
-17
-119
-110
-38
-55
-93
-91
-142
-168
-103
-122
-260
-432
-335
802
2513
2578
717
-600
-499
-312
-387
-285
-207
-242
-201
-187
-247
-245
-220
-239
-233
-158
-61
1
18
34
88
172
248
261
206
159
164
145
36
-70
-65
-24
-40
-53
-22
-6
-18
-24
-61
-130
-111
5
62
71
172
257
180
86
104
152
163
124
59
25
-20
-95
-202
-385
35
1782
3202
2051
-267
-953
-381
-177
-237
-139
-118
-145
-78
-49
-67
-25
14
-2
18
96
123
97
117
145
96
31
-13
-96
-170
-177
-304
-708
-1153
-1314
-1263
-1231
-1153
-920
-715
-674
-642
-522
-426
-425
-452
-436
-414
-446
-476
-435
-365
-312
-246
-172
-114
-56
-6
-5
-11
10
-27
-121
-254
-418
81
1833
3269
2446
533
-216
6
158
275
336
156
108
299
296
61
-52
14
58
21
23
134
288
391
415
437
559
697
644
430
249
127
-17
-181
-308
-367
-409
-502
-601
-628
-616
-667
-791
-825
-694
-610
-606
-457
-310
-396
-488
-472
-389
-57
278
238
292
777
1192
1281
1266
1255
1213
1315
2310
4038
4119
1589
-652
-709
-255
-415
-451
-243
-294
-531
-659
-648
-629
-645
-621
-591
-606
-522
-290
-80
33
79
88
142
236
227
102
-30
-164
-298
-349
-330
-347
-419
-498
-550
-533
-476
-468
-485
-428
-334
-309
-346
-376
-395
-406
-379
-344
-334
-292
-245
-304
-380
-359
-339
-337
-301
-335
-442
-631
-770
220
2515
3411
1374
-811
-941
-428
-426
-390
-253
-270
-220
-110
-137
-175
-130
-122
-161
-169
-148
-112
-53
0
9
-10
-26
-41
-56
-62
-65
-90
-143
-193
-199
-156
-97
-50
-20
-15
4
63
61
20
202
549
624
383
208
240
316
297
176
79
70
29
-114
-240
-223
-136
-184
-350
-496
-590
-20
1729
2987
1809
-351
-993
-537
-456
-575
-241
313
560
550
704
956
970
939
1161
1451
1534
1347
1004
740
637
560
424
243
55
-91
-217
-366
-471
-496
-530
-599
-635
-652
-678
-675
-660
-692
-712
-661
-615
-609
-578
-546
-585
-621
-568
-497
-460
-407
-373
-404
-395
-326
-317
-295
-190
-211
-411
-637
-654
301
2262
3048
1334
-642
-853
-345
-272
-292
-221
-226
-225
-224
-285
-298
-234
-169
-137
-131
-82
51
169
186
180
224
271
283
287
270
185
51
-71
-160
-235
-280
-245
-159
-133
-179
-193
-177
-194
-192
-142
-141
-186
-191
-162
-138
-129
-141
-96
45
192
288
291
135
-24
-49
-131
-365
-626
-589
523
2419
2773
796
-920
-821
-346
-394
-388
-241
-222
-190
-89
-22
39
102
120
122
138
199
321
402
385
387
425
383
300
272
248
204
186
194
213
192
111
104
173
100
-40
19
175
192
145
170
221
186
48
-57
-27
41
44
22
-18
-101
-125
-81
-162
-266
-160
-236
-791
-1237
-1156
-451
1170
2533
1607
-635
-1439
-837
-502
-523
-318
-18
122
49
-142
-238
-197
-170
-206
-232
-187
-84
0
30
47
88
150
199
185
105
5
-97
-195
-243
-235
-254
-322
-329
-244
-192
-199
-164
-102
-86
-71
-24
2
1
12
16
-19
-108
-195
-157
-28
27
-33
-123
-121
9
19
-217
-433
-489
-66
1386
2781
2112
111
-769
-447
-319
-429
-303
-121
5
187
344
383
357
339
356
359
295
241
268
293
236
152
116
111
86
21
-59
-89
-46
-9
-42
-86
-79
-87
-171
-246
-244
-247
-295
-298
-249
-242
-278
-295
-299
-328
-371
-411
-438
-420
-352
-281
-233
-221
-222
-196
-216
-315
-422
-578
-334
1145
2837
2412
325
-795
-595
-482
-607
-540
-502
-600
-623
-546
-450
-364
-338
-396
-419
-316
-283
-383
-198
295
515
562
962
1263
1058
1159
1801
1868
1053
328
105
-12
-208
-366
-416
-432
-471
-376
-198
-278
-408
-94
301
175
-181
-307
-329
-415
-482
-507
-514
-532
-590
-530
-308
-237
-358
-420
-199
1084
3379
4119
1959
-259
-349
195
146
108
245
268
255
218
155
132
-8
-248
-344
-375
-408
-235
-12
-73
-215
-178
-125
-159
-201
-260
-320
-350
-454
-645
-781
-728
-415
-64
-41
-209
-239
-294
-482
-511
-417
-493
-619
-595
-546
-563
-589
-608
-599
-593
-657
-581
-205
201
545
952
981
344
-324
-594
-320
996
2351
1530
-708
-1418
-621
-323
-502
-418
-403
-353
29
173
72
351
695
795
1186
1704
1662
1318
1156
1026
890
836
611
287
263
305
129
223
615
507
-92
-440
-505
-604
-611
-474
-421
-446
-413
-383
-412
-435
-438
-448
-424
-370
-347
-326
-286
-319
-415
-435
-407
-411
-359
-284
-375
-633
-822
-272
1493
3007
2216
101
-801
-518
-426
-432
-162
-95
-356
-502
-422
-314
-255
-217
-186
-153
-120
-65
23
99
125
130
139
147
173
179
69
-92
-140
-121
-201
-307
-245
-45
118
172
135
50
-6
-5
-25
-98
-140
-129
-111
-59
51
108
21
-104
-128
-117
-171
-196
-184
-289
-476
-683
-638
585
2667
3051
1014
-652
-511
-115
-213
-202
-125
-197
-186
-114
-125
-116
-61
-27
25
89
112
152
237
278
283
358
443
427
363
328
291
226
154
93
54
24
-6
-19
-31
-70
-94
-77
-69
-82
-76
-84
-154
-237
-275
-298
-333
-366
-410
-504
-627
-689
-645
-600
-621
-603
-573
-718
-987
-1127
-671
980
3199
4075
3174
2051
1543
1281
1158
1128
853
386
93
52
72
33
37
132
95
-125
-299
-357
-237
-16
-241
-505
642
2570
2838
1430
351
-9
-376
-652
-677
-756
-918
-992
-1018
-1067
-1104
-1140
-1209
-1263
-1264
-1268
-1297
-1295
-1275
-1309
-1381
-1423
-1417
-1439
-1536
-1588
-1527
-1540
-1682
-1849
-1989
-1445
312
1543
276
-1910
-2437
-1874
-1755
-1778
-1542
-1577
-1702
-1155
-409
-489
-1056
-1228
-1132
-1149
-1149
-1090
-1076
-1018
-912
-897
-941
-937
-811
-322
665
1802
2678
3245
3561
3684
3784
3956
4130
4254
4332
4417
4584
4776
4887
5002
5145
5156
5227
5491
5137
3592
1856
917
416
-67
-374
-547
-711
-820
-982
-1252
-1556
-1739
-966
1034
2098
576
-1468
-1839
-1463
-1528
-1637
-1512
-1413
-1406
-1448
-1449
-1347
-1306
-1372
-1351
-1251
-1222
-1217
-1162
-1099
-1045
-996
-967
-961
-972
-975
-953
-945
-975
-997
-986
-979
-988
-969
-910
-860
-849
-848
-837
-822
-779
-718
-678
-623
-510
-423
-435
-471
-465
-430
-370
-334
-361
-330
-246
-321
-494
-657
-718
211
2320
3207
1383
-661
-807
-314
-306
-268
-130
-197
-240
-156
-111
-73
18
81
132
260
349
197
-23
41
280
380
395
465
491
423
340
277
237
208
146
78
76
119
133
109
73
60
65
58
51
68
64
16
-18
4
55
58
-13
-72
-86
-137
-187
-161
-184
-316
-463
-468
264
1845
2497
945
-897
-1041
-445
-335
-309
-148
-147
-91
117
123
50
306
668
714
588
613
764
960
1282
1601
1601
1340
1146
1027
818
569
400
295
195
83
-3
-46
-104
-212
-314
-370
-392
-388
-351
-308
-297
-323
-344
-334
-319
-318
-300
-268
-283
-326
-312
-286
-290
-241
-203
-319
-528
-704
-339
1233
2911
2493
469
-624
-430
-303
-435
-398
-317
-300
-279
-278
-283
-252
-230
-249
-282
-287
-235
-154
-103
-83
-74
-83
-103
-119
-146
-191
-237
-283
-331
-372
-382
-345
-300
-264
-133
87
167
37
-116
-205
-271
-299
-303
-334
-353
-315
-296
-360
-406
-352
-313
-339
-312
-295
-422
-625
-829
-541
968
2589
2045
-74
-1043
-574
-294
-389
-210
57
61
-31
-22
37
52
36
46
85
124
156
206
282
351
377
370
367
348
277
199
138
-17
-241
-305
-196
-151
-194
-183
-174
-197
-18
346
493
327
177
178
195
185
215
290
309
194
25
-58
-83
-161
-216
-166
-196
-353
-523
-733
-284
1625
3214
2075
-270
-936
-437
-379
-490
-378
-381
-460
-450
-436
-405
-364
-376
-339
-234
-218
-261
-241
-198
-165
-117
-96
-104
-102
-145
-220
-255
-295
-352
-357
-381
-404
-130
400
699
657
649
787
853
806
762
681
496
317
245
214
160
114
92
81
51
2
23
72
-29
-253
-510
-537
564
2635
3265
1419
-432
-590
-286
-399
-452
-387
-422
-420
-380
-410
-405
-320
-250
-220
-203
-196
-173
-121
-82
-73
-66
-46
-37
-55
-92
-143
-199
-250
-304
-357
-377
-356
-333
-323
-298
-267
-272
-280
-249
-229
-256
-266
-230
-187
-144
-105
-119
-170
-176
-155
-155
-101
-29
-100
-254
-458
-535
481
2518
3054
1059
-749
-668
-220
-331
-335
-182
-210
-245
-196
-193
-198
-140
-87
-94
-87
33
184
219
189
235
336
390
378
330
248
125
-16
-129
-170
-162
-166
-178
-160
-134
-120
-104
-90
-80
-54
-41
-69
-98
-93
-77
-62
-47
-56
-85
-82
-72
-97
-75
-26
-111
-314
-552
-495
711
2609
2756
667
-878
-596
-102
-200
-260
-183
-183
-158
-116
-132
-118
-56
-6
36
78
115
163
236
306
338
332
308
261
198
151
104
34
-14
-51
-138
-214
-200
-157
-145
-132
-114
-113
-115
-105
-92
-83
-80
-66
-47
-63
-109
-132
-144
-162
-146
-139
-184
-189
-181
-260
-366
-486
-267
1082
2711
2266
32
-1149
-708
-336
-416
-369
-302
-344
-315
-251
-246
-254
-255
-240
-194
-155
-132
-91
-44
-23
-12
30
79
73
14
-41
-88
-156
-237
-312
-372
-398
-391
-377
-354
-303
-231
-163
-117
-88
-58
-38
-32
-6
23
11
30
118
159
143
169
215
285
371
295
73
-88
11
933
2551
2981
1395
-139
-205
147
142
106
162
