# session 26
-66
-105
17
-70
-541
-917
-924
-847
-813
-714
-645
-678
-691
-655
-628
-596
-558
-546
-552
-557
-545
-515
-511
-502
-441
-437
-530
-623
-684
-295
995
2072
1377
-204
-753
-412
-238
-244
-205
-151
97
537
828
873
792
614
405
278
221
179
149
133
129
133
139
143
154
173
195
224
251
265
272
282
285
260
196
102
9
-60
-107
-141
-162
-170
-170
-166
-159
-155
-155
-153
-148
-147
-147
-143
-141
-131
-107
-89
-91
-98
-103
-100
-87
-81
-93
-93
-70
-57
-66
-72
-70
-74
-74
-63
-60
-66
-67
-63
-58
-53
-51
-51
-52
-55
-53
-43
-40
-46
-42
-31
-28
-31
-20
5
20
18
8
-12
-38
-37
-30
-50
-38
-6
-72
-193
-310
-278
529
1994
2360
936
-383
-385
-78
-142
-179
-116
-139
-149
-107
-88
-79
-66
-69
-69
-54
-36
-22
-7
7
22
40
63
88
109
130
158
188
215
234
244
250
244
213
149
65
-17
-79
-116
-136
-147
-151
-152
-155
-153
-148
-144
-144
-145
-142
-136
-129
-127
-128
-123
-117
-114
-108
-102
-99
-100
-103
-107
-106
-103
-101
-100
-110
-112
-60
23
70
75
59
22
-13
-26
-37
-45
-40
-42
-45
-9
41
52
41
39
31
18
22
30
32
48
63
46
30
38
35
10
-18
-49
-62
-59
-74
-68
-34
-87
-208
-315
-331
278
1645
2267
1109
-299
-474
-162
-199
-266
-205
-218
-243
-207
-195
-201
-188
-179
-174
-160
-147
-137
-116
-94
-87
-75
-34
21
68
104
130
142
147
153
160
159
146
124
76
-8
-95
-153
-198
-239
-259
-261
-265
-268
-271
-283
-284
-271
-266
-264
-257
-263
-265
-243
-249
-239
-55
258
491
613
679
633
485
351
254
155
72
30
-2
-41
-69
-95
-117
-76
36
105
67
4
-6
15
18
-15
-64
-95
-104
-114
-127
-126
-113
-112
-132
-157
-170
-170
-168
-165
-158
-147
-140
-140
-139
-152
-181
-188
-160
-137
-102
-29
102
384
652
547
636
1757
2723
1795
82
-338
103
134
-53
-52
-67
-123
-114
-122
-150
-138
-135
-159
-159
-138
-121
-103
-86
-78
-66
-41
-14
10
37
68
101
135
167
186
195
205
195
136
50
-36
-116
-183
-223
-242
-246
-245
-247
-248
-241
-235
-232
-225
-219
-222
-224
-217
-208
-200
-196
-197
-196
-189
-188
-190
-186
-177
-174
-178
-175
-171
-171
-170
-161
-156
-160
-158
-150
-146
-144
-144
-149
-144
-119
-101
-106
-108
-94
-84
-84
-87
-93
-95
-87
-84
-90
-86
-61
-36
-33
-44
-64
-95
-97
-77
-98
-113
-70
-102
-232
-358
-410
148
1614
2486
1381
-244
-545
-174
-167
-193
-28
17
-50
-78
-6
322
834
1127
1014
732
518
398
324
278
246
219
207
206
204
209
227
244
254
267
277
277
266
235
165
65
-30
-106
-159
-191
-211
-223
-225
-228
-231
-222
-209
-209
-212
-209
-207
-205
-199
-194
-195
-195
-189
-184
-184
-184
-180
-179
-182
-182
-178
-176
-176
-172
-166
-162
-162
-160
-155
-153
-152
-144
-135
-133
-129
-121
-114
-113
-111
-105
-105
-108
-104
-94
-92
-91
-87
-85
-85
-82
-79
-75
-66
-55
-48
-43
-31
-12
5
7
-6
-33
-49
-35
-37
-57
-24
-9
-104
-218
-319
-142
930
2271
2069
466
-452
-230
-48
-152
-135
-97
-133
-120
-93
-94
-78
-60
-56
-40
-23
-16
-2
17
35
58
81
97
118
146
179
219
260
282
284
280
284
285
257
192
108
31
-30
-74
-100
-115
-125
-126
-121
-120
-126
-126
-120
-122
-125
-116
-106
-103
-97
-92
-93
-92
-90
-96
-101
-95
-89
-90
-92
-89
-81
-76
-78
-78
-73
-74
-80
-81
-77
-76
-70
-60
-58
-64
-67
-63
-59
-57
-53
-52
-53
-54
-56
-60
-62
-60
-52
-48
-56
-63
-55
-41
-36
-31
-14
6
7
-7
-24
-47
-54
-37
-49
-69
-34
-39
-140
-258
-359
-21
1234
2318
1633
27
-536
-200
-90
-174
-130
-118
-148
-114
-92
-101
-86
-65
-55
-43
-31
-14
14
30
37
58
84
98
116
156
200
230
253
280
301
311
316
307
261
179
84
3
-54
-96
-127
-145
-154
-155
-148
-143
-142
-141
-141
-147
-149
-142
-135
-133
-136
-136
-131
-125
-126
-130
-126
-119
-119
-123
-120
-114
-113
-111
-112
-120
-114
-87
-75
-88
-98
-97
-94
-84
-80
-92
-99
-84
-73
-79
-83
-82
-84
-79
-66
-65
-71
-65
-49
-33
-23
-23
-33
-56
-78
-67
-59
-86
-74
-42
-115
-243
-370
-309
605
2108
2325
767
-492
-397
-94
-179
-206
-142
-166
-165
-126
-119
-91
-36
-21
-35
-33
-14
8
27
41
62
91
119
145
174
207
239
264
287
311
330
337
330
300
234
141
57
12
3
10
13
6
-4
-1
20
44
68
105
148
172
190
211
216
198
168
131
119
151
168
115
42
-3
-42
-89
-120
-143
-173
-194
-202
-214
-234
-248
-254
-261
-271
-279
-281
-283
-292
-305
-310
-308
-310
-316
-320
-322
-325
-326
-325
-328
-331
-329
-327
-332
-335
-330
-322
-321
-319
-303
-285
-281
-286
-302
-332
-341
-329
-347
-350
-313
-356
-476
-594
-618
15
1461
2149
949
-534
-713
-401
-461
-503
-436
-450
-242
137
185
63
252
538
497
288
295
525
711
765
807
841
802
777
825
881
939
1012
1043
1041
1049
1027
944
817
664
513
375
233
98
2
-53
-91
-136
-164
-140
-92
-74
-79
-88
-116
-159
-195
-218
-235
-246
-252
-259
-269
-282
-290
-290
-288
-292
-293
-288
-285
-291
-290
-283
-283
-285
-278
-273
-276
-277
-272
-263
-252
-245
-240
-233
-231
-231
-223
-210
-202
-194
-190
-196
-195
-180
-174
-173
-160
-143
-134
-126
-113
-90
-64
-57
-72
-88
-105
-104
-85
-94
-96
-58
-90
-200
-302
-355
132
1482
2338
1349
-200
-526
-148
-101
-175
-116
-121
-155
-117
-93
-103
-91
-69
-56
-42
-26
-11
4
20
41
64
82
102
128
154
187
226
254
276
307
330
331
322
306
265
198
113
20
-48
-65
-60
-71
-96
-117
-130
-128
-124
-134
-149
-153
-153
-151
-147
-152
-160
-162
-165
-172
-172
-169
-173
-174
-170
-172
-184
-189
-186
-183
-173
-148
-136
-152
-168
-161
-158
-177
-183
-143
-100
-99
-95
-47
4
10
-15
-42
-68
-95
-117
-135
-148
-141
-110
-76
-60
-58
-42
21
142
270
313
285
309
341
266
218
259
460
1356
2681
2695
1028
-278
-228
57
-3
7
92
44
-34
-77
-123
-153
-164
-178
-180
-164
-144
-117
-84
-44
6
52
71
67
70
88
103
111
132
168
191
185
163
125
54
-41
-130
-201
-255
-286
-291
-279
-254
-229
-222
-221
-202
-188
-196
-200
-195
-207
-228
-228
-216
-209
-205
-192
-170
-149
-137
-130
-125
-128
-138
-144
-142
-144
-154
-158
-153
-152
-154
-150
-140
-133
-130
-131
-129
-121
-114
-115
-113
-108
-105
-100
-92
-86
-82
-76
-71
-70
-72
-69
-58
-48
-41
-35
-25
-5
18
28
21
0
-22
-17
-6
-30
-21
20
-36
-156
-259
-244
473
1918
2440
1130
-272
-363
-35
-81
-134
-69
-86
-107
-73
-56
-43
-29
-32
-22
4
13
17
35
55
72
94
118
140
164
194
229
260
284
305
321
329
331
314
263
184
100
30
-21
-61
-87
-94
-94
-98
-100
-98
-97
-91
-82
-84
-93
-92
-83
-81
-84
-88
-89
-80
-71
-76
-81
-79
-91
-115
-119
-110
-113
-116
-115
-117
-119
-121
-130
-131
-117
-107
-107
-102
-89
-82
-93
-106
-109
-106
-104
-96
-81
-72
-77
-86
-88
-82
-79
-78
-75
-77
-81
-77
-67
-58
-51
-44
-32
-16
-17
-27
-29
-47
-75
-72
-73
-83
-42
-47
-160
-256
-337
-71
1186
2464
1808
-83
-783
-280
-71
-202
-155
-110
-157
-134
-95
-98
-90
-72
-55
-39
-40
-39
-14
10
33
72
102
110
131
184
240
269
292
334
372
379
390
417
397
294
155
35
-46
-96
-144
-191
-202
-184
-178
-187
-190
-203
-220
-199
-150
-137
-167
-184
-166
-144
-138
-134
-117
-116
-140
-117
-13
69
29
-77
-101
-7
50
-28
-75
31
121
60
-20
-34
-52
-82
-82
-79
-95
-112
-121
-123
-119
-115
-118
-131
-139
-123
-87
-35
25
43
-2
-57
-85
-98
-93
-80
-76
-71
-86
-140
-168
-158
-179
-171
-122
-198
-364
-452
-326
542
2112
2683
1353
-90
-242
-8
-127
-201
-159
-220
-211
-46
78
106
114
100
61
43
35
2
-27
-24
-10
-5
3
25
49
73
109
150
184
218
249
262
276
296
263
158
37
-66
-142
-177
-186
-203
-218
-213
-208
-217
-218
-197
-179
-177
-176
-164
-155
-153
-146
-134
-128
-124
-114
-103
-96
-94
-97
-98
-92
-92
-95
-87
-77
-76
-77
-76
-73
-68
-63
-63
-62
-59
-64
-67
-60
-56
-63
-59
-45
-43
-50
-52
-52
-51
-43
-41
-45
-42
-33
-24
-15
-10
-9
-5
11
36
52
49
36
13
-14
-11
6
-14
-11
20
-39
-143
-219
-212
407
1733
2255
1044
-310
-426
-98
-107
-146
-88
-104
-123
-92
-83
-86
-76
-65
-50
-32
-19
-3
16
27
33
48
75
100
116
139
176
201
209
228
257
276
289
291
261
197
118
35
-37
-77
-92
-103
-114
-118
-123
-131
-134
-132
-134
-135
-125
-115
-121
-124
-118
-120
-122
-110
-106
-117
-121
-121
-122
-115
-112
-117
-115
-108
-111
-113
-108
-109
-114
-106
-99
-99
-93
-89
-94
-90
-78
-80
-89
-80
-66
-70
-78
-69
-57
-56
-55
-48
-48
-51
-36
-11
-2
-12
-31
-59
-73
-62
-71
-82
-51
-76
-187
-296
-366
61
1422
2462
1574
-155
-661
-250
-134
-214
-153
-136
-171
-145
-128
-143
-136
-119
-107
-93
-84
-73
-49
-19
5
21
49
99
144
168
202
247
274
296
336
364
356
335
301
216
82
-39
-114
-163
-197
-209
-215
-225
-218
-201
-206
-215
-206
-199
-204
-198
-182
-177
-181
-181
-174
-163
-164
-172
-166
-165
-173
-148
-118
-129
-59
167
344
323
230
167
103
46
18
-5
-28
-43
-55
-64
-69
-71
-82
-76
17
199
336
351
310
264
189
108
62
25
-17
-40
-60
-72
-83
-157
-256
-353
-360
371
1900
2455
1040
-475
-564
-200
-255
-321
-248
-265
-286
-240
-220
-220
-198
-175
-167
-164
-151
-126
-105
-91
-70
-49
-35
-11
23
52
85
132
174
203
231
253
254
240
184
76
6
43
90
52
-18
-56
-76
-97
-102
-80
-53
-58
-84
-98
-102
-111
-114
-107
-103
-103
-103
-104
-106
-108
-106
-100
-96
-97
-94
-88
-89
-91
-83
-77
-80
-80
-76
-74
-72
-70
-72
-72
-68
-65
-64
-65
-70
-75
-72
-64
-59
-57
-55
-48
-32
-12
-7
-16
-36
-64
-71
-62
-80
-80
-47
-92
-200
-296
-292
341
1682
2226
1042
-306
-435
-133
-177
-237
-174
-185
-207
-181
-170
-165
-154
-149
-137
-119
-98
-48
-7
-14
-14
27
54
46
44
65
96
127
159
219
318
426
513
552
490
333
171
61
-13
-72
-115
-143
-157
-161
-164
-170
-169
-148
-117
-112
-132
-137
-131
-144
-153
-142
-133
-110
-36
45
62
37
9
-30
-73
-79
-58
-48
-54
-67
-92
-126
-140
-116
-67
-16
24
83
183
254
213
109
38
2
-23
-38
-54
-73
-68
-43
-33
-44
-63
-71
-69
-67
-72
-94
-103
-60
-44
-98
-127
-183
-104
782
2074
2016
487
-537
-382
-151
-233
-241
-199
-227
-221
-193
-197
-194
-178
-169
-161
-151
-126
-77
-41
-45
-52
-31
-3
15
33
66
109
143
174
226
292
324
299
251
195
102
-14
-91
-122
-143
-164
-176
-182
-180
-172
-166
-164
-160
-159
-161
-157
-151
-150
-140
-124
-121
-130
-131
-123
-116
-110
-109
-110
-100
-69
-30
-10
-23
-43
-47
-47
-54
-59
-58
-56
-44
-31
-37
-48
-40
-27
-27
-27
-18
-4
15
28
28
14
-17
-32
-13
-13
-24
11
-5
-125
-258
-352
57
1444
2578
1791
86
-470
-123
-46
-143
-90
-82
-121
-87
-60
-73
-73
-67
-63
-53
-41
-29
-12
5
21
42
65
87
112
142
181
224
255
268
278
294
303
282
218
122
21
-58
-113
-157
-189
-200
-199
-200
-201
-196
-195
-199
-201
-200
-201
-202
-203
-203
-203
-197
-191
-195
-198
-191
-190
-200
-196
-183
-187
-184
-144
-109
-118
-137
-140
-139
-149
-168
-156
-91
-36
-56
-106
-118
-104
-100
-102
-91
-70
-46
-9
50
106
115
74
16
-18
-4
7
-40
-65
-30
-58
-161
-283
-281
443
1857
2295
935
-440
-504
-194
-263
-323
-262
-264
-245
-192
-198
-214
-203
-195
-181
-165
-153
-95
-10
37
109
290
503
647
728
771
776
753
712
660
609
557
489
415
350
272
157
33
-58
-113
-151
-181
-196
-205
-217
-231
-245
-253
-240
-207
-181
-184
-206
-226
-233
-236
-247
-256
-251
-245
-254
-252
-217
-183
-186
-208
-218
-219
-218
-210
-187
-156
-129
-106
-88
-78
-76
-79
-83
-90
-95
-93
-86
-85
-98
-105
-78
-37
-15
4
33
43
27
10
2
-12
-29
-24
-18
-46
-49
-12
-56
-170
-275
-285
316
1629
2195
1060
-271
-411
-112
-154
-213
-150
-159
-177
-143
-132
-130
-111
-101
-95
-78
-62
-49
-32
-12
6
25
47
69
88
108
134
163
186
202
219
236
242
224
177
107
34
-26
-69
-98
-108
-107
-107
-107
-105
-103
-102
-99
-97
-94
-89
-86
-87
-88
-89
-85
-75
-71
-69
-59
-51
-54
-55
-45
-36
-38
-45
-44
-32
-24
-26
-26
-15
-10
-17
-16
1
10
4
1
9
20
23
19
21
33
48
57
61
69
80
95
114
118
98
75
62
66
86
78
53
84
72
-111
-210
22
