# session 32
417
386
384
399
352
242
178
178
169
142
128
120
107
92
79
79
92
98
83
56
19
-23
-34
-25
-56
-77
-52
-102
-227
-345
-393
170
1563
2297
1176
-324
-565
-229
-243
-319
-260
-271
-299
-266
-258
-268
-256
-246
-239
-223
-213
-205
-188
-169
-155
-139
-121
-101
-78
-52
-22
8
35
62
90
111
123
124
96
28
-62
-150
-225
-279
-308
-324
-335
-334
-326
-325
-326
-318
-309
-308
-302
-285
-271
-267
-265
-261
-254
-243
-232
-221
-211
-210
-212
-205
-195
-193
-192
-182
-171
-166
-162
-155
-146
-135
-126
-119
-115
-112
-108
-102
-95
-88
-81
-74
-67
-63
-62
-60
-55
-49
-44
-34
-25
-25
-23
-4
23
37
42
46
45
24
-1
8
23
-2
2
47
5
-116
-256
-264
486
1951
2422
1076
-288
-340
-6
-45
-89
-18
-24
-36
-5
5
12
30
37
41
55
73
93
112
123
133
149
171
200
232
266
306
341
364
392
424
440
451
457
416
315
190
78
-4
-63
-108
-135
-141
-141
-143
-146
-143
-137
-135
-136
-140
-143
-140
-134
-136
-142
-138
-136
-141
-146
-149
-149
-141
-135
-142
-151
-144
-134
-135
-141
-141
-136
-134
-136
-138
-138
-134
-135
-158
-186
-182
-154
-140
-126
-85
-56
-68
-86
-75
-50
-38
-45
-56
-77
-117
-129
-102
-103
-101
-58
-86
-203
-344
-401
221
1689
2409
1217
-303
-510
-145
-143
-205
-140
-143
-159
-128
-124
-121
-98
-96
-95
-65
-40
-33
-17
10
32
52
71
93
121
156
189
219
254
291
318
338
357
355
308
212
92
-16
-94
-137
-152
-158
-163
-165
-165
-166
-161
-160
-164
-161
-147
-138
-140
-144
-137
-121
-112
-115
-113
-102
-99
-107
-108
-99
-95
-100
-101
-92
-83
-81
-80
-77
-75
-73
-70
-70
-67
-59
-65
-75
-62
-48
-65
-77
-67
-66
-77
-72
-60
-54
-41
-22
-2
19
25
12
-1
-24
-50
-39
-30
-50
-27
-8
-94
-211
-330
-183
889
2288
2130
490
-479
-249
-48
-161
-148
-101
-136
-118
-84
-97
-88
-55
-46
-47
-42
-33
-18
-3
-1
6
43
95
128
143
166
192
220
260
304
344
380
393
363
296
200
90
3
-53
-99
-129
-138
-149
-164
-156
-133
-131
-145
-151
-146
-146
-146
-140
-129
-128
-137
-136
-117
-104
-117
-129
-118
-104
-112
-128
-130
-127
-127
-124
-119
-118
-118
-118
-121
-130
-138
-132
-114
-104
-105
-101
-93
-93
-98
-97
-97
-99
-95
-90
-93
-89
-74
-59
-41
-23
-25
-42
-64
-78
-67
-63
-91
-80
-54
-126
-260
-395
-253
807
2253
2190
529
-553
-335
-65
-159
-159
-99
-121
-111
-83
-91
-78
-64
-89
-88
-45
-21
-16
7
34
57
89
116
137
172
218
265
314
358
404
463
506
504
461
372
239
89
-46
-137
-178
-205
-231
-237
-226
-216
-212
-210
-205
-197
-189
-176
-164
-155
-126
-102
-126
-150
-133
-129
-156
-165
-158
-154
-139
-113
-104
-113
-116
-101
-87
-94
-108
-107
-101
-98
-87
-77
-79
-84
-83
-85
-86
-76
-69
-72
-59
-7
32
-1
-74
-101
-68
-50
-76
-57
-4
-54
-172
-292
-304
416
1902
2406
975
-523
-576
-148
-132
-172
-115
-123
-116
-78
-91
-96
-66
-51
-43
-24
-11
0
21
50
77
86
94
140
210
261
295
333
362
367
370
394
420
401
316
200
95
-4
-107
-183
-206
-204
-217
-239
-244
-233
-213
-185
-169
-171
-161
-150
-170
-187
-156
-105
-96
-134
-181
-201
-188
-167
-160
-171
-181
-170
-141
-120
-126
-148
-149
-119
-113
-138
-134
-95
-78
-87
-84
-69
-63
-65
-52
-21
3
-2
-12
-4
6
-2
-10
6
39
50
32
14
0
-6
-1
-23
-39
14
12
-123
-286
-395
49
1521
2702
1850
47
-540
-176
-83
-179
-142
-137
-158
-119
-91
-90
-88
-91
-81
-61
-50
-39
-18
2
11
14
30
49
47
50
81
118
143
168
191
205
217
217
181
126
68
-10
-94
-137
-147
-159
-166
-161
-155
-149
-144
-138
-116
-98
-110
-134
-138
-124
-117
-122
-120
-100
-86
-85
-79
-78
-96
-110
-112
-123
-136
-134
-128
-127
-129
-138
-140
-129
-131
-144
-130
-94
-84
-85
-66
-56
-70
-76
-67
-62
-61
-53
-37
-18
-5
0
3
12
4
-29
-35
10
49
89
151
134
16
-141
-206
429
1901
2564
1262
-331
-521
-105
-91
-172
-126
-136
-150
-120
-131
-137
-108
-106
-112
-77
-47
-47
-35
-7
13
22
44
90
136
158
184
239
301
342
367
396
430
439
382
265
130
8
-89
-163
-216
-242
-240
-236
-239
-238
-228
-219
-214
-211
-209
-201
-192
-195
-205
-201
-176
-159
-163
-166
-161
-163
-171
-170
-164
-159
-152
-153
-161
-164
-153
-143
-140
-137
-132
-130
-127
-114
-101
-101
-91
-64
-51
-57
-62
-80
-102
-89
-84
-105
-81
-74
-172
-294
-415
-161
1144
2590
2141
246
-681
-335
-102
-190
-156
-114
-137
-109
-83
-91
-81
-65
-52
-26
-5
7
28
53
73
89
108
137
170
198
233
282
330
363
384
406
433
440
392
293
176
61
-41
-110
-143
-165
-189
-201
-197
-192
-192
-194
-188
-173
-166
-177
-177
-154
-140
-146
-146
-137
-137
-139
-133
-128
-134
-137
-124
-114
-122
-126
-119
-114
-111
-108
-111
-111
-101
-103
-113
-106
-86
-81
-86
-85
-77
-76
-77
-65
-36
-13
-17
-36
-60
-75
-63
-56
-82
-68
-47
-136
-273
-408
-303
800
2491
2606
769
-573
-385
-63
-182
-191
-107
-135
-138
-106
-114
-109
-85
-77
-62
-38
-27
-17
7
39
58
59
66
95
136
170
193
217
254
298
323
328
339
336
276
175
79
-10
-90
-141
-166
-186
-196
-189
-182
-186
-189
-182
-167
-160
-162
-166
-167
-160
-150
-153
-163
-144
-107
-109
-137
-138
-125
-137
-154
-151
-137
-125
-118
-116
-113
-106
-99
-101
-110
-108
-95
-94
-103
-97
-84
-80
-78
-68
-54
-34
-16
-14
-21
-29
-52
-62
-42
-57
-78
-29
-41
-177
-303
-369
84
1589
2828
1948
59
-529
-128
-76
-215
-155
-130
-159
-128
-116
-120
-102
-107
-109
-66
-40
-46
-33
-5
5
19
50
77
93
112
137
167
197
218
233
251
265
266
244
187
102
18
-54
-115
-151
-155
-151
-161
-172
-166
-155
-155
-155
-150
-150
-155
-146
-130
-131
-142
-136
-123
-122
-119
-111
-110
-112
-107
-102
-101
-100
-102
-98
-81
-72
-80
-84
-77
-72
-71
-68
-61
-57
-61
-67
-63
-48
-35
-35
-33
-12
15
24
19
7
-27
-52
-34
-30
-49
-20
-29
-139
-252
-346
-25
1282
2523
1909
194
-479
-163
-76
-194
-148
-126
-160
-130
-110
-121
-102
-83
-81
-69
-53
-43
-27
-10
5
25
41
53
72
98
122
145
169
189
209
231
250
250
221
162
85
7
-64
-125
-165
-176
-177
-187
-188
-167
-157
-171
-179
-171
-165
-166
-165
-159
-152
-148
-144
-141
-139
-135
-125
-118
-123
-131
-125
-107
-99
-107
-109
-101
-98
-97
-90
-83
-80
-81
-79
-67
-56
-57
-57
-40
-16
-1
5
6
-15
-54
-58
-35
-52
-63
-27
-59
-170
-288
-314
339
1803
2452
1177
-356
-522
-122
-103
-161
-101
-107
-123
-94
-92
-84
-51
-42
-44
-26
-8
6
26
43
55
77
104
121
136
160
189
218
248
272
287
298
310
304
254
160
57
-28
-92
-133
-150
-160
-168
-173
-178
-174
-162
-162
-171
-168
-159
-159
-157
-149
-145
-145
-142
-140
-139
-137
-135
-131
-123
-120
-124
-123
-112
-108
-113
-110
-101
-99
-99
-95
-91
-91
-86
-79
-73
-68
-54
-28
-2
5
-9
-31
-59
-72
-55
-61
-74
-35
-44
-153
-268
-375
-45
1313
2586
1921
130
-554
-198
-80
-185
-138
-122
-158
-122
-94
-101
-84
-68
-64
-49
-33
-19
5
16
17
37
61
67
76
104
130
149
171
198
221
241
259
261
227
150
55
-35
-109
-162
-192
-203
-205
-200
-191
-182
-175
-170
-168
-162
-153
-151
-152
-145
-138
-136
-130
-120
-124
-130
-122
-110
-106
-106
-104
-98
-93
-97
-103
-95
-84
-79
-72
-67
-72
-72
-63
-52
-43
-39
-44
-40
-25
-22
-29
-18
9
28
30
23
0
-33
-35
-12
-30
-51
-8
-28
-153
-268
-354
61
1517
2715
1850
24
-526
-127
-78
-207
-138
-121
-170
-139
-111
-113
-92
-77
-78
-60
-37
-26
-13
3
13
34
66
84
91
113
145
167
180
201
228
242
241
237
221
162
68
-23
-88
-129
-151
-166
-173
-172
-171
-169
-162
-159
-162
-157
-148
-150
-152
-144
-137
-132
-127
-122
-120
-116
-113
-115
-117
-111
-107
-109
-111
-103
-98
-100
-96
-86
-82
-86
-87
-81
-72
-69
-71
-65
-55
-57
-58
-47
-38
-42
-41
-23
0
14
21
19
-11
-51
-46
-21
-42
-43
-10
-71
-187
-275
-244
492
1939
2405
1044
-317
-352
-46
-131
-182
-113
-134
-149
-115
-115
-116
-92
-81
-76
-59
-42
-30
-18
-4
19
41
54
66
82
103
131
158
175
187
203
218
221
202
169
126
55
-33
-90
-103
-111
-134
-144
-135
-139
-152
-140
-123
-137
-152
-140
-123
-121
-124
-125
-123
-117
-111
-109
-110
-111
-109
-104
-98
-89
-83
-89
-98
-91
-79
-83
-92
-87
-78
-80
-77
-71
-76
-84
-78
-69
-68
-65
-55
-48
-42
-26
-1
12
1
-28
-60
-66
-50
-64
-76
-36
-39
-134
-250
-332
85
1381
2332
1477
-121
-585
-218
-107
-166
-111
-101
-132
-107
-89
-89
-71
-56
-53
-47
-35
-15
5
22
64
122
144
146
177
218
248
285
322
336
347
357
347
323
282
196
84
-10
-83
-136
-157
-166
-184
-190
-187
-192
-191
-184
-187
-194
-186
-173
-169
-174
-179
-173
-163
-164
-171
-166
-154
-152
-152
-145
-140
-143
-139
-131
-130
-128
-119
-116
-115
-111
-109
-103
-92
-90
-93
-84
-73
-76
-76
-57
-30
-8
-5
-17
-35
-57
-57
-41
-54
-58
-25
-61
-173
-306
-326
407
1943
2521
1127
-377
-441
-45
-84
-143
-69
-90
-115
-77
-67
-66
-46
-37
-23
2
12
15
31
44
50
66
90
108
120
143
178
210
232
252
269
277
278
266
220
135
40
-31
-82
-130
-162
-165
-160
-164
-163
-157
-158
-161
-156
-149
-147
-146
-144
-144
-142
-137
-136
-136
-134
-133
-126
-116
-119
-125
-118
-118
-132
-131
-115
-109
-103
-84
-83
-110
-122
-105
-97
-99
-88
-78
-81
-81
-66
-52
-50
-47
-29
-3
11
9
3
-20
-55
-48
-25
-56
-60
-12
-66
-206
-346
-358
444
2063
2576
1047
-439
-417
-49
-150
-209
-133
-163
-174
-127
-124
-124
-97
-88
-83
-64
-46
-24
-1
6
13
31
43
57
84
113
135
156
177
197
214
227
243
248
202
111
25
-45
-104
-138
-155
-170
-171
-154
-143
-143
-137
-120
-102
-89
-78
-78
-96
-101
-76
-56
-55
-38
-2
18
14
0
-12
-24
-40
-45
-32
-24
-39
-51
-44
-46
-46
-19
-18
-81
-130
-116
-96
-95
-73
-38
-30
-43
-47
-12
30
-6
-94
-121
-119
-149
-136
-76
-47
-48
-78
-156
-295
-355
294
1768
2420
1102
-486
-619
-139
-124
-231
-162
-136
-163
-147
-130
-133
-133
-120
-101
-99
-93
-43
-4
-31
-48
-5
37
60
99
128
152
229
306
292
250
273
317
316
276
197
77
-34
-94
-121
-145
-177
-183
-140
-108
-131
-145
-134
-148
-149
-96
-83
-145
-172
-139
-137
-158
-121
-65
-85
-139
-148
-140
-125
-88
-90
-136
-137
-113
-115
-105
-90
-89
-42
-4
-77
-125
-43
-18
-107
-102
-12
-13
-65
-58
-26
11
57
49
-8
-40
-53
-79
-86
-41
17
-23
-159
-263
-359
-168
1035
2556
2300
412
-635
-291
-26
-155
-134
-79
-134
-116
-63
-80
-85
-55
-48
-47
-26
3
33
50
51
68
97
102
99
124
159
184
207
231
254
288
317
314
277
211
104
-10
-75
-124
-186
-203
-175
-172
-183
-172
-165
-168
-156
-144
-149
-146
-137
-146
-165
-172
-160
-144
-150
-169
-160
-144
-162
-176
-154
-145
-163
-163
-138
-122
-129
-131
-113
-105
-124
-130
-114
-105
-100
-88
-84
-93
-96
-84
-73
-72
-88
-111
-114
-88
-66
-62
-54
-41
-26
24
119
189
186
151
107
35
8
48
3
-143
-282
-339
224
1677
2531
1446
-143
-449
-104
-114
-190
-117
-129
-168
-138
-121
-107
-73
-75
-88
-67
-41
-25
-3
15
31
60
78
80
111
172
206
213
232
256
267
277
276
264
240
149
8
-66
-80
-128
-187
-210
-223
-224
-208
-212
-221
-209
-205
-200
-151
-110
-141
-172
-158
-175
-216
-191
-158
-188
-175
-98
-105
-179
-160
-80
-72
-127
-160
-151
-125
-109
-101
-91
-87
-89
-90
-85
-69
-52
-58
-63
-28
11
-3
-43
-39
7
38
42
30
-13
-57
-42
-19
-39
-28
2
-52
-160
-285
-141
898
2279
2192
620
-387
-214
7
-75
-75
-35
-56
-47
-32
-34
-9
6
-4
23
75
76
47
50
74
91
113
143
165
192
233
257
266
303
358
377
365
364
335
225
100
33
-45
-161
-205
-183
-217
-271
-241
-185
-186
-209
-205
-189
-184
-177
-166
-171
-184
-177
-172
-187
-186
-160
-150
-164
-179
-178
-176
-198
-210
-165
-118
-141
-174
-155
-145
-160
-142
-125
-164
-187
-150
-120
-124
-132
-139
-138
-122
-121
-130
-124
-122
-121
-78
-39
-74
-116
-72
-8
-24
-74
-82
-82
-104
-102
-96
-116
-88
-56
-157
-314
-452
-348
728
2410
2580
801
-551
-383
-51
-179
-214
-129
-144
-140
-96
-95
-87
-65
-75
-81
-39
21
44
46
78
119
117
107
133
183
240
274
264
268
321
362
381
407
377
266
171
132
98
45
