# session 37
-9
8
-59
139
553
659
445
306
276
218
174
163
136
114
116
111
95
89
85
74
60
54
55
50
36
25
26
30
20
1
-9
-10
-10
-12
-15
-22
-26
-28
-37
-46
-47
-45
-45
-47
-50
-54
-58
-61
-59
-55
-56
-59
-58
-56
-63
-71
-68
-58
-55
-57
-51
-36
-14
-1
-14
-43
-67
-80
-71
-70
-95
-80
-51
-123
-242
-374
-320
638
2192
2351
678
-596
-427
-86
-172
-188
-117
-147
-153
-116
-119
-117
-93
-83
-75
-58
-43
-28
-9
10
30
48
64
83
107
134
162
192
225
260
287
307
321
319
286
213
110
10
-67
-127
-168
-181
-182
-189
-193
-186
-179
-178
-176
-173
-172
-168
-163
-157
-151
-150
-154
-153
-143
-135
-134
-132
-130
-128
-124
-117
-114
-113
-112
-109
-105
-102
-100
-99
-95
-90
-88
-88
-83
-78
-78
-78
-77
-75
-71
-66
-62
-63
-65
-65
-60
-51
-43
-39
-33
-18
4
20
13
-8
-26
-39
-35
-30
-49
-40
-6
-62
-173
-285
-310
393
1892
2441
1062
-394
-441
-57
-101
-160
-87
-102
-122
-83
-74
-75
-57
-48
-41
-22
-7
5
24
43
59
76
96
116
137
165
199
226
248
275
304
325
341
346
324
266
178
80
-4
-65
-109
-136
-147
-152
-156
-158
-157
-154
-152
-153
-150
-142
-138
-139
-138
-135
-132
-127
-121
-116
-115
-117
-116
-111
-110
-112
-109
-106
-105
-102
-99
-101
-104
-99
-93
-96
-100
-96
-91
-92
-90
-79
-71
-78
-86
-84
-82
-80
-71
-65
-68
-66
-56
-47
-38
-22
-2
8
-2
-28
-52
-60
-54
-60
-82
-63
-34
-97
-201
-325
-333
455
1943
2306
822
-533
-480
-91
-121
-161
-103
-124
-133
-98
-93
-89
-68
-56
-44
-27
-17
-6
10
26
50
76
92
110
142
169
189
225
272
299
313
339
368
376
345
273
169
58
-32
-91
-127
-148
-155
-165
-177
-176
-163
-153
-150
-149
-146
-142
-141
-142
-140
-136
-130
-120
-117
-124
-125
-118
-116
-116
-112
-106
-101
-99
-101
-97
-90
-95
-97
-84
-79
-88
-90
-84
-83
-80
-78
-82
-82
-77
-80
-83
-77
-69
-67
-67
-60
-42
-22
-10
-13
-28
-51
-75
-72
-55
-71
-76
-44
-81
-187
-314
-395
207
1730
2505
1246
-378
-576
-137
-106
-169
-102
-112
-135
-94
-83
-87
-60
-40
-37
-26
-9
7
26
44
64
83
100
120
148
179
208
241
278
312
338
358
372
374
349
281
176
64
-27
-90
-133
-160
-170
-172
-177
-180
-177
-169
-161
-156
-157
-160
-160
-155
-147
-140
-138
-136
-133
-131
-129
-126
-124
-125
-124
-121
-119
-116
-115
-112
-105
-103
-107
-103
-92
-89
-97
-98
-92
-87
-88
-88
-84
-78
-75
-76
-76
-74
-72
-67
-61
-57
-52
-45
-33
-13
7
4
-13
-33
-54
-54
-37
-52
-62
-23
-50
-163
-276
-363
97
1537
2546
1546
-160
-549
-129
-78
-174
-108
-103
-136
-100
-83
-90
-71
-56
-52
-36
-17
-1
16
31
46
66
82
101
127
153
177
208
241
270
302
330
344
350
340
284
187
82
-11
-83
-128
-149
-162
-169
-169
-168
-170
-169
-167
-165
-157
-151
-155
-158
-147
-134
-131
-133
-131
-127
-125
-126
-124
-118
-116
-117
-117
-112
-105
-104
-108
-108
-101
-94
-93
-95
-93
-87
-84
-85
-84
-81
-77
-75
-72
-68
-67
-67
-65
-63
-63
-59
-51
-44
-40
-33
-18
4
18
11
-8
-31
-50
-42
-30
-58
-60
-15
-54
-169
-288
-340
276
1744
2441
1203
-314
-469
-83
-101
-170
-100
-109
-133
-96
-85
-83
-57
-48
-49
-35
-17
-2
15
27
42
67
89
108
132
157
184
216
245
270
297
321
336
340
323
269
174
63
-29
-87
-122
-145
-160
-168
-167
-167
-171
-166
-153
-153
-165
-162
-145
-138
-143
-145
-143
-140
-136
-131
-127
-128
-131
-126
-118
-117
-117
-118
-121
-116
-106
-102
-105
-105
-102
-100
-99
-95
-93
-92
-86
-76
-72
-77
-83
-80
-69
-61
-63
-68
-65
-54
-47
-45
-38
-17
8
18
5
-13
-27
-45
-51
-45
-59
-54
-20
-66
-179
-304
-337
342
1814
2386
1051
-421
-504
-101
-102
-147
-76
-92
-117
-86
-81
-76
-48
-41
-36
-8
6
3
18
44
57
76
106
127
142
175
212
240
272
307
330
350
374
388
366
292
181
68
-20
-77
-121
-162
-188
-185
-172
-170
-171
-166
-163
-161
-154
-151
-158
-161
-150
-142
-147
-152
-150
-146
-143
-140
-136
-134
-135
-132
-127
-126
-129
-127
-122
-120
-116
-108
-101
-100
-100
-100
-94
-88
-91
-94
-90
-88
-91
-84
-77
-81
-79
-64
-56
-58
-49
-24
-3
-5
-19
-35
-59
-69
-50
-58
-75
-38
-50
-160
-279
-393
-20
1382
2555
1733
-41
-584
-169
-69
-180
-124
-101
-132
-103
-89
-97
-71
-49
-46
-34
-21
-10
13
37
50
65
87
107
127
154
187
217
249
286
317
335
350
363
351
292
191
80
-11
-73
-117
-147
-160
-163
-165
-166
-163
-159
-157
-158
-155
-146
-139
-137
-133
-127
-124
-122
-120
-119
-119
-115
-113
-113
-112
-108
-106
-107
-106
-103
-101
-99
-95
-91
-88
-86
-84
-84
-85
-83
-79
-74
-75
-77
-72
-67
-71
-71
-63
-65
-69
-61
-51
-52
-47
-29
-6
7
1
-15
-36
-58
-57
-41
-60
-66
-31
-72
-182
-295
-353
237
1712
2469
1261
-298
-486
-90
-103
-183
-117
-128
-152
-110
-96
-100
-77
-63
-61
-50
-35
-20
-7
9
32
49
75
128
158
141
146
195
231
253
289
314
326
335
316
255
173
71
-28
-78
-104
-152
-178
-157
-151
-167
-144
-115
-142
-176
-157
-128
-130
-139
-138
-132
-120
-107
-105
-112
-116
-117
-115
-113
-113
-108
-102
-105
-108
-102
-97
-96
-92
-86
-83
-78
-76
-81
-82
-78
-78
-80
-76
-71
-71
-69
-64
-62
-63
-60
-52
-48
-47
-38
-20
0
12
9
-7
-30
-51
-46
-36
-55
-51
-23
-67
-153
-252
-279
362
1704
2165
926
-349
-393
-69
-101
-146
-91
-108
-124
-93
-86
-84
-62
-44
-35
-25
-11
7
22
34
49
66
87
113
134
149
172
205
236
261
280
294
309
317
295
230
137
44
-29
-82
-119
-138
-145
-152
-154
-150
-152
-155
-147
-136
-135
-141
-145
-144
-137
-129
-128
-132
-133
-127
-121
-122
-122
-116
-113
-114
-110
-106
-106
-104
-97
-92
-90
-92
-96
-97
-92
-84
-79
-82
-81
-73
-68
-70
-74
-79
-76
-65
-60
-65
-63
-46
-27
-13
3
12
1
-25
-53
-65
-43
-36
-63
-52
-34
-98
-190
-299
-195
753
2059
1955
396
-588
-357
-69
-131
-132
-82
-103
-99
-72
-71
-64
-48
-42
-32
-20
-6
17
35
45
67
92
105
126
162
187
206
235
267
300
332
351
360
361
323
234
126
29
-47
-100
-126
-140
-154
-163
-163
-163
-166
-160
-150
-146
-145
-144
-151
-155
-144
-138
-149
-153
-144
-138
-138
-138
-136
-131
-126
-128
-132
-127
-119
-116
-117
-115
-110
-101
-95
-100
-106
-99
-92
-89
-79
-78
-99
-102
-69
-53
-61
-44
-17
-18
-26
-31
-46
-59
-57
-69
-100
-90
-33
-46
-138
-242
-371
-72
1211
2368
1686
11
-578
-202
-73
-171
-132
-106
-132
-107
-91
-97
-78
-56
-44
-29
-16
-4
16
32
48
71
90
108
136
162
185
220
261
285
303
332
357
354
321
263
178
77
-14
-77
-120
-148
-159
-163
-164
-160
-159
-159
-155
-150
-148
-146
-138
-129
-129
-132
-128
-123
-123
-120
-121
-123
-114
-103
-106
-107
-99
-97
-102
-104
-101
-94
-86
-87
-90
-82
-71
-72
-79
-82
-79
-73
-65
-62
-67
-74
-68
-57
-55
-54
-42
-21
0
10
6
-8
-32
-57
-53
-45
-70
-60
-19
-70
-182
-298
-293
453
1891
2292
890
-446
-433
-76
-119
-158
-94
-118
-137
-104
-92
-82
-66
-66
-58
-37
-28
-18
8
30
41
59
86
108
123
143
169
197
231
265
282
295
317
323
289
219
125
24
-52
-98
-134
-164
-180
-187
-183
-177
-176
-172
-164
-162
-162
-161
-160
-154
-139
-136
-142
-134
-120
-126
-137
-132
-129
-132
-120
-106
-107
-104
-95
-100
-110
-103
-90
-87
-91
-86
-71
-66
-81
-83
-61
-55
-73
-76
-65
-59
-51
-42
-47
-45
-14
14
8
-6
-17
-41
-50
-36
-55
-65
-17
-40
-164
-300
-379
170
1662
2546
1392
-288
-576
-141
-97
-167
-91
-95
-128
-90
-72
-78
-63
-53
-50
-31
-6
10
13
20
45
75
96
117
139
159
188
230
269
300
327
356
374
365
329
266
165
44
-53
-115
-154
-178
-191
-196
-194
-190
-189
-183
-175
-176
-180
-176
-169
-164
-155
-150
-152
-148
-137
-135
-142
-141
-133
-129
-129
-130
-130
-126
-120
-116
-113
-111
-111
-104
-96
-96
-99
-94
-85
-84
-89
-82
-71
-72
-79
-67
-49
-48
-52
-41
-21
-6
-5
-16
-31
-48
-50
-39
-57
-69
-26
-44
-155
-263
-356
4
1332
2447
1667
-31
-563
-169
-65
-168
-122
-107
-138
-106
-88
-94
-73
-55
-50
-34
-18
-7
12
31
45
61
81
105
131
158
187
218
247
273
297
318
332
337
318
261
174
79
-9
-78
-117
-138
-155
-163
-161
-164
-165
-154
-147
-151
-155
-150
-142
-137
-138
-140
-131
-122
-124
-127
-124
-121
-116
-111
-110
-111
-106
-99
-96
-97
-97
-97
-97
-94
-90
-89
-89
-83
-74
-69
-72
-76
-73
-68
-66
-68
-67
-65
-64
-56
-41
-35
-33
-21
-1
11
12
7
-2
-25
-46
-35
-26
-54
-48
-17
-73
-175
-281
-274
447
1815
2183
848
-417
-411
-78
-115
-154
-99
-121
-131
-95
-91
-92
-68
-54
-46
-32
-18
-7
8
23
40
62
82
101
123
147
174
201
226
250
274
293
307
307
282
225
137
37
-42
-89
-122
-145
-152
-153
-158
-163
-163
-163
-162
-156
-148
-147
-148
-143
-137
-136
-134
-133
-132
-128
-122
-117
-115
-116
-114
-109
-106
-106
-102
-98
-96
-94
-91
-91
-90
-84
-81
-84
-81
-74
-76
-83
-75
-59
-52
-55
-48
-23
3
5
-8
-22
-50
-68
-51
-51
-72
-45
-42
-125
-217
-309
-50
1090
2207
1667
90
-550
-223
-75
-159
-120
-100
-136
-105
-75
-93
-94
-69
-49
-36
-28
-15
7
26
39
54
70
89
115
144
172
200
225
253
284
305
314
320
306
250
168
75
-19
-93
-132
-151
-162
-165
-169
-176
-176
-165
-162
-168
-166
-158
-155
-152
-145
-140
-137
-135
-133
-129
-127
-130
-130
-127
-122
-116
-113
-112
-109
-106
-106
-106
-107
-108
-98
-87
-82
-74
-68
-72
-66
-37
-10
-13
-27
-38
-55
-67
-55
-62
-86
-58
-41
-121
-225
-343
-193
853
2166
1945
327
-597
-332
-77
-146
-135
-100
-130
-111
-83
-94
-81
-54
-47
-36
-16
-3
9
27
46
65
85
102
124
153
184
214
243
270
296
315
325
328
312
254
157
57
-21
-81
-128
-152
-157
-161
-166
-167
-163
-158
-155
-153
-149
-146
-144
-142
-142
-140
-135
-132
-134
-133
-128
-126
-124
-116
-112
-110
-105
-103
-108
-108
-100
-96
-97
-95
-90
-84
-77
-75
-78
-83
-81
-68
-59
-63
-56
-28
-4
-5
-18
-32
-53
-67
-55
-54
-85
-70
-33
-93
-195
-291
-253
531
1913
2176
743
-487
-410
-75
-128
-162
-105
-126
-130
-95
-91
-85
-67
-63
-52
-31
-21
-9
15
36
50
68
88
110
137
163
187
212
239
263
280
293
305
301
259
183
94
13
-55
-103
-127
-137
-144
-148
-146
-145
-146
-143
-139
-142
-144
-140
-136
-133
-127
-121
-117
-110
-107
-111
-111
-107
-105
-102
-98
-97
-96
-88
-84
-89
-90
-80
-75
-81
-81
-73
-71
-74
-70
-60
-56
-62
-66
-63
-60
-59
-56
-52
-46
-39
-39
-37
-17
9
17
7
-2
-12
-36
-45
-29
-39
-59
-23
-24
-114
-204
-287
1
1172
2247
1619
36
-531
-177
-58
-153
-109
-87
-125
-108
-85
-80
-61
-53
-59
-42
-17
-4
7
28
53
71
77
87
115
144
162
181
207
229
245
265
283
285
270
237
171
75
-15
-71
-103
-131
-153
-158
-151
-151
-160
-165
-165
-165
-163
-157
-148
-137
-134
-144
-153
-149
-138
-131
-129
-132
-135
-129
-120
-120
-126
-126
-120
-118
-117
-114
-109
-108
-112
-114
-108
-102
-102
-104
-96
-87
-91
-97
-89
-81
-86
-87
-75
-65
-61
-59
-50
-25
5
3
-27
-49
-61
-63
-48
-58
-79
-53
-64
-156
-253
-357
-69
1178
2356
1718
17
-617
-227
-67
-162
-117
-83
-113
-94
-74
-71
-48
-35
-36
-17
4
14
28
48
69
91
114
136
152
174
216
258
280
304
341
369
388
404
391
327
232
134
34
-51
-96
-112
-132
-150
-147
-141
-145
-145
-136
-131
-135
-137
-135
-128
-118
-114
-114
-112
-111
-112
-111
-104
-100
-102
-102
-100
-104
-108
-99
-92
-101
-100
-82
-80
-95
-97
-86
-81
-83
-86
-90
-87
-80
-77
-74
-67
-53
-31
-15
-22
-39
-55
-77
-81
-72
-91
-90
-53
-100
-222
-355
-394
282
1772
2374
1040
-450
-540
-139
-148
-200
-132
-146
-160
-121
-120
-128
-106
-90
-83
-64
-44
-32
-22
-8
13
36
59
76
92
123
164
200
229
257
282
300
311
308
273
191
78
-24
-97
-150
-187
-206
-215
-217
-215
-214
-212
-203
-194
-194
-196
-192
-186
-179
-168
-162
-163
-158
-151
-151
-147
-133
-121
-116
-114
-109
-96
-87
-84
-72
-59
-57
-56
-51
-47
-39
-23
-20
-21
-8
5
6
10
23
42
57
65
80
114
148
160
157
144
119
115
142
144
135
172
171
92
-6
-138
139
1409
2638
2118
442
-384
65
