# session 33
-9
-27
19
112
79
-97
-189
-148
-111
-88
-35
10
39
81
125
142
132
116
91
34
-46
-123
-196
-252
-261
-243
-243
-252
-242
-217
-197
-197
-206
-190
-159
-158
-174
-164
-141
-138
-131
-108
-104
-115
-107
-95
-99
-95
-81
-77
-77
-66
-46
-34
-36
-41
-44
-56
-66
-51
-23
-17
-29
-33
-20
-2
0
-20
-25
1
12
-11
-27
-17
5
23
31
47
76
82
58
44
34
7
3
22
-4
-25
21
10
-96
-209
-286
165
1553
2582
1712
49
-462
-141
-79
-164
-105
-80
-99
-80
-75
-77
-52
-32
-20
-11
-24
-32
1
50
73
68
68
90
117
140
168
186
190
209
245
267
278
279
243
179
106
16
-70
-109
-126
-155
-175
-171
-172
-178
-175
-170
-165
-148
-129
-128
-143
-152
-149
-144
-148
-143
-128
-129
-138
-133
-122
-119
-118
-118
-118
-110
-105
-114
-119
-113
-108
-107
-103
-98
-95
-93
-94
-87
-75
-77
-92
-101
-98
-95
-96
-95
-91
-87
-85
-81
-76
-66
-51
-35
-15
5
1
-28
-59
-76
-66
-47
-60
-63
-29
-62
-159
-256
-296
252
1645
2441
1364
-212
-543
-170
-101
-160
-108
-104
-124
-97
-88
-95
-74
-54
-57
-56
-31
1
19
28
33
27
38
97
152
149
140
187
255
285
287
299
315
310
274
208
115
13
-75
-130
-149
-150
-156
-163
-163
-165
-165
-146
-128
-133
-138
-121
-109
-129
-146
-130
-112
-112
-114
-118
-128
-120
-92
-78
-83
-87
-94
-100
-92
-81
-72
-61
-66
-90
-98
-87
-74
-58
-51
-64
-74
-71
-69
-70
-68
-65
-58
-44
-41
-45
-42
-38
-23
18
39
2
-43
-52
-45
-46
-61
-59
-34
-67
-163
-292
-348
315
1882
2668
1401
-264
-523
-127
-110
-174
-120
-161
-185
-113
-94
-115
-92
-70
-70
-56
-39
-25
4
28
31
39
75
118
139
141
156
199
236
244
264
308
328
307
267
188
66
-36
-83
-121
-173
-203
-201
-199
-213
-214
-189
-169
-171
-174
-167
-165
-168
-154
-131
-136
-154
-144
-118
-114
-124
-125
-119
-111
-105
-103
-102
-98
-91
-89
-98
-106
-95
-81
-82
-88
-85
-77
-73
-78
-82
-69
-53
-51
-51
-50
-63
-65
-46
-51
-79
-74
-41
-31
-36
-24
-1
20
35
32
14
3
-17
-47
-42
-23
-36
-33
-27
-90
-198
-317
-94
1077
2446
2171
474
-505
-292
-70
-135
-121
-106
-155
-133
-92
-102
-94
-65
-59
-52
-26
-9
-2
12
22
35
70
102
112
126
157
189
215
236
256
279
298
308
295
241
156
59
-34
-90
-110
-138
-174
-182
-174
-175
-173
-163
-156
-155
-158
-156
-143
-143
-157
-149
-124
-115
-120
-121
-121
-120
-120
-121
-106
-85
-95
-123
-124
-101
-89
-91
-87
-82
-96
-108
-93
-74
-69
-68
-67
-72
-82
-84
-74
-69
-77
-79
-72
-74
-69
-46
-38
-51
-55
-58
-67
-60
-44
-42
-38
-22
-13
-11
6
22
20
2
-34
-62
-45
-29
-40
-30
-41
-113
-212
-319
22
1313
2441
1764
113
-514
-206
-84
-156
-117
-105
-128
-98
-78
-86
-72
-42
-24
-28
-30
2
36
44
51
66
81
103
130
153
176
200
234
280
313
323
328
330
314
273
196
85
-20
-83
-114
-135
-151
-159
-169
-185
-191
-176
-158
-160
-163
-144
-134
-157
-164
-140
-147
-188
-197
-175
-187
-211
-179
-148
-176
-174
-118
-114
-130
-106
-129
-164
-105
-57
-94
-111
-118
-154
-106
-1
1
-53
-43
-15
-21
-36
-71
-97
-18
123
147
41
-35
-16
2
-40
-71
-34
-2
-24
-55
-67
-36
20
12
-46
-62
-75
-122
-111
-40
-38
-100
-162
-294
-123
997
2258
1932
391
-419
-237
-100
-155
-96
-64
-117
-105
-61
-57
-34
-11
-69
-130
-78
17
45
44
66
72
60
68
76
91
165
231
208
193
262
320
322
315
292
228
153
73
-14
-80
-129
-185
-211
-193
-192
-210
-209
-215
-219
-180
-162
-201
-202
-161
-171
-194
-152
-99
-107
-146
-160
-144
-138
-155
-150
-121
-115
-134
-145
-131
-72
1
-2
-68
-101
-87
-74
-75
-81
-92
-99
-96
-85
-75
-74
-82
-84
-66
-52
-67
-78
-59
-40
-25
11
43
44
38
50
87
118
116
99
69
16
5
41
29
-7
-13
-60
-155
-270
-237
564
1983
2309
923
-338
-342
-61
-125
-152
-90
-120
-139
-103
-88
-87
-81
-79
-63
-38
-32
-28
-4
16
25
45
67
79
98
125
150
189
234
252
253
279
317
313
249
160
80
1
-82
-144
-179
-201
-214
-212
-201
-195
-192
-187
-193
-203
-187
-156
-149
-162
-155
-133
-123
-124
-128
-132
-133
-126
-110
-98
-104
-113
-105
-100
-109
-109
-99
-94
-89
-81
-83
-85
-81
-82
-81
-70
-69
-84
-86
-71
-65
-72
-73
-71
-72
-63
-51
-47
-31
-2
9
-2
-11
-15
-25
-40
-41
-33
-51
-58
-25
-51
-152
-257
-322
144
1467
2335
1397
-145
-520
-163
-93
-156
-101
-98
-127
-97
-81
-88
-71
-51
-39
-21
-10
-7
11
43
67
81
96
115
139
164
200
255
306
331
348
376
389
370
323
243
136
28
-52
-104
-148
-177
-175
-172
-181
-163
-143
-175
-201
-174
-154
-164
-158
-139
-139
-146
-145
-143
-140
-137
-141
-144
-136
-122
-113
-113
-119
-120
-114
-113
-117
-110
-96
-90
-88
-85
-83
-78
-65
-54
-42
-27
-21
-24
-28
-32
-42
-49
-48
-43
-39
-35
-26
-12
3
5
-4
-29
-59
-59
-45
-63
-59
-33
-93
-208
-321
-291
494
1937
2321
926
-407
-428
-97
-134
-177
-125
-145
-154
-119
-108
-99
-80
-74
-65
-48
-37
-22
1
19
33
53
78
101
121
148
183
217
244
272
298
313
325
326
286
196
90
-8
-88
-132
-135
-129
-143
-159
-158
-156
-171
-184
-172
-152
-148
-151
-142
-131
-128
-127
-123
-117
-107
-102
-109
-116
-113
-110
-112
-112
-106
-102
-98
-94
-92
-92
-89
-84
-82
-82
-80
-76
-72
-70
-66
-60
-54
-53
-58
-62
-59
-53
-46
-42
-41
-36
-27
-11
9
19
11
-9
-33
-40
-38
-62
-61
-20
-61
-171
-271
-296
284
1660
2353
1231
-227
-443
-107
-119
-188
-125
-129
-146
-108
-99
-107
-88
-70
-62
-50
-39
-27
-8
7
25
50
74
89
112
145
172
195
224
256
277
289
302
311
287
216
118
26
-46
-100
-139
-160
-160
-151
-148
-153
-158
-159
-156
-154
-151
-147
-142
-139
-134
-129
-127
-124
-123
-125
-125
-121
-118
-114
-108
-105
-109
-112
-111
-106
-99
-95
-92
-89
-87
-82
-73
-68
-69
-68
-66
-66
-62
-54
-52
-57
-53
-45
-44
-45
-33
-15
0
12
13
-6
-38
-44
-24
-37
-68
-30
7
-65
-172
-269
-83
937
2150
1888
358
-485
-253
-50
-120
-124
-128
-151
-86
-36
-63
-74
-66
-69
-31
55
88
28
-14
37
114
159
169
142
132
179
204
179
201
275
292
245
225
243
210
93
-26
-90
-142
-201
-220
-214
-235
-248
-223
-211
-223
-219
-207
-216
-216
-198
-190
-191
-182
-172
-166
-154
-150
-159
-154
-88
49
155
118
8
-35
-33
-56
-71
-65
-72
-88
-94
-95
-89
-79
-78
-80
-70
-54
-54
-64
-59
-43
-40
-39
-20
-5
-12
-17
-14
-35
-69
-74
-70
-90
-63
-8
-66
-189
-290
-304
316
1675
2225
991
-402
-498
-113
-108
-162
-99
-108
-131
-102
-86
-80
-66
-63
-58
-37
-21
-13
6
29
43
60
85
101
131
199
245
230
223
257
286
293
306
329
320
235
100
-18
-90
-130
-156
-172
-178
-188
-200
-199
-190
-188
-185
-180
-184
-190
-185
-176
-168
-158
-151
-160
-187
-207
-192
-147
-127
-154
-182
-173
-150
-131
-111
-97
-103
-106
-74
-25
-4
-6
12
47
60
54
46
37
40
52
43
46
79
41
-61
-163
-275
62
1300
2260
1458
-111
-603
-264
-127
-149
-105
-128
-161
-111
-96
-139
-132
-83
-68
-80
-69
-48
-42
-16
26
39
44
77
102
113
155
213
244
259
279
300
318
311
250
147
51
-21
-85
-144
-177
-182
-186
-189
-182
-184
-193
-188
-177
-169
-158
-149
-144
-129
-101
-72
-66
-86
-105
-104
-102
-110
-114
-110
-111
-121
-111
-83
-91
-131
-140
-115
-104
-106
-97
-84
-81
-78
-58
-26
-11
-23
-39
-47
-63
-76
-78
-92
-88
-54
-85
-168
-245
-315
122
1427
2286
1343
-193
-566
-214
-135
-183
-131
-139
-157
-100
-81
-114
-118
-94
-78
-63
-37
-11
2
13
39
64
74
96
126
142
168
212
244
267
303
330
332
318
274
191
98
18
-52
-102
-127
-145
-155
-149
-148
-160
-159
-142
-134
-137
-133
-126
-131
-133
-121
-115
-124
-132
-123
-101
-91
-106
-114
-98
-92
-105
-107
-95
-79
-75
-92
-95
-65
-50
-69
-67
-33
-11
-8
-5
-7
-10
-27
-73
-89
-52
-46
-72
-62
-88
-172
-258
-306
178
1494
2309
1330
-173
-497
-157
-128
-199
-137
-131
-153
-122
-110
-109
-84
-71
-68
-48
-28
-16
5
20
20
34
68
97
119
149
178
203
233
264
282
292
298
285
237
150
52
-17
-65
-120
-160
-164
-165
-181
-185
-176
-172
-172
-169
-164
-164
-168
-165
-149
-139
-147
-155
-150
-143
-142
-142
-139
-132
-127
-131
-134
-122
-111
-121
-139
-131
-105
-94
-100
-104
-99
-85
-76
-81
-76
-47
-23
-17
-20
-34
-41
-41
-63
-79
-72
-65
-31
-8
-72
-152
-209
9
1090
2419
2176
471
-539
-293
-42
-145
-152
-98
-125
-135
-118
-114
-102
-99
-106
-89
-62
-57
-50
-25
-5
7
33
65
83
102
132
162
195
228
245
273
318
323
271
191
84
-22
-80
-118
-157
-164
-160
-194
-225
-211
-188
-182
-166
-144
-147
-167
-168
-158
-155
-149
-138
-138
-145
-146
-140
-127
-111
-106
-113
-119
-116
-110
-108
-110
-111
-106
-98
-86
-72
-66
-65
-55
-39
-28
-11
19
36
27
17
11
-10
-29
-25
-35
-39
9
3
-112
-233
-338
-46
1198
2399
1822
147
-538
-216
-82
-173
-127
-105
-147
-124
-99
-111
-97
-69
-61
-50
-28
-11
-1
11
28
45
64
89
114
137
160
190
225
256
274
285
294
286
242
164
72
-17
-84
-126
-154
-172
-177
-173
-170
-169
-165
-160
-159
-159
-155
-147
-141
-137
-132
-129
-128
-123
-116
-115
-116
-112
-109
-110
-105
-97
-97
-99
-91
-83
-86
-87
-79
-76
-81
-82
-77
-73
-69
-67
-71
-74
-67
-59
-60
-63
-56
-43
-40
-39
-22
5
17
9
-3
-18
-43
-53
-39
-49
-64
-30
-43
-140
-233
-312
29
1274
2332
1625
37
-497
-174
-95
-179
-125
-114
-143
-110
-96
-110
-90
-67
-66
-58
-43
-29
-7
16
26
39
66
92
112
138
165
187
212
246
270
284
297
296
265
206
129
47
-24
-75
-107
-124
-136
-149
-152
-144
-143
-153
-153
-146
-147
-149
-139
-126
-126
-130
-127
-119
-112
-114
-121
-118
-108
-108
-113
-107
-102
-105
-104
-99
-100
-92
-69
-62
-72
-69
-62
-71
-77
-67
-65
-69
-59
-44
-42
-45
-43
-39
-40
-38
-26
-10
3
14
18
10
-5
-29
-47
-42
-50
-64
-26
-31
-143
-252
-357
-139
1055
2391
1986
282
-535
-252
-93
-184
-153
-138
-156
-83
-49
-120
-158
-126
-95
-76
-53
-38
-26
-5
18
32
46
72
100
122
150
187
216
233
259
284
298
308
291
225
131
36
-48
-107
-141
-165
-178
-173
-166
-168
-174
-175
-168
-160
-154
-154
-161
-161
-145
-135
-145
-146
-130
-126
-129
-117
-107
-112
-112
-105
-109
-109
-98
-92
-98
-94
-73
-61
-80
-102
-96
-81
-81
-86
-82
-72
-62
-63
-68
-54
-21
1
7
6
-12
-49
-71
-54
-46
-66
-48
-27
-95
-197
-314
-240
695
2145
2255
678
-524
-406
-91
-134
-140
-88
-117
-119
-90
-91
-85
-67
-63
-49
-24
-11
-1
18
38
57
78
102
128
153
179
213
252
286
309
325
338
344
322
255
157
58
-27
-87
-120
-138
-154
-164
-167
-163
-158
-159
-161
-161
-158
-152
-146
-146
-144
-137
-135
-132
-128
-133
-138
-126
-113
-120
-127
-119
-113
-117
-116
-109
-105
-105
-105
-104
-101
-98
-97
-98
-93
-85
-86
-92
-91
-80
-76
-79
-80
-73
-67
-66
-55
-25
-2
-6
-18
-35
-60
-60
-45
-68
-70
-32
-88
-208
-318
-331
391
1957
2584
1190
-354
-448
-71
-132
-205
-132
-148
-164
-119
-113
-116
-88
-75
-73
-55
-36
-23
-10
4
22
49
71
87
109
137
165
197
235
263
277
291
302
289
243
164
70
-14
-74
-115
-142
-158
-166
-164
-162
-164
-163
-155
-154
-153
-144
-137
-131
-122
-117
-120
-119
-109
-103
-100
-99
-102
-104
-100
-95
-91
-86
-83
-85
-82
-78
-80
-79
-72
-71
-75
-70
-63
-62
-62
-57
-53
-50
-46
-43
-42
-42
-37
-26
-22
-25
-12
22
43
34
14
-10
-30
-19
-9
-39
-36
-4
-61
-168
-271
-257
483
1893
2292
952
-338
-362
-57
-107
-149
-98
-120
-128
-90
-83
-85
-67
-55
-52
-42
-26
-7
9
21
38
63
88
110
134
157
179
209
243
265
273
281
292
286
245
169
80
-1
-64
-105
-128
-142
-145
-146
-154
-157
-150
-149
-156
-155
-151
-154
-155
-148
-142
-145
-148
-146
-143
-144
-142
-137
-138
-142
-141
-137
-135
-135
-135
-134
-126
-117
-118
-122
-120
-115
-117
-122
-116
-104
-101
-106
-105
-105
-109
-105
-93
-84
-78
-69
-57
-45
-35
-31
-31
-43
-70
-72
-54
-76
-91
-52
-71
-167
-274
-351
121
1473
2327
1339
-200
-529
-162
-107
-167
-101
-96
-123
-92
-75
-80
-64
-44
-28
-13
-9
-4
16
39
53
71
99
