# session 9
-40
-52
-50
140
319
206
44
53
63
19
40
103
135
141
153
189
242
278
277
251
215
148
56
-12
-50
-96
-144
-161
-151
-125
-84
-29
8
2
4
60
102
82
62
85
111
118
117
122
135
146
153
152
115
74
70
51
21
49
43
-70
-229
-364
96
1648
2840
1863
-53
-630
-224
-142
-243
-164
-122
-139
-97
-63
-66
-66
-53
-20
4
-1
20
77
106
115
147
169
153
136
137
121
46
-79
-178
-208
-222
-278
-350
-385
-376
-344
-312
-282
-248
-219
-206
-209
-227
-249
-266
-285
-299
-292
-270
-245
-219
-196
-185
-206
-247
-246
-212
-224
-232
-174
-190
-313
-440
-604
-255
1346
2831
2029
-34
-803
-428
-313
-386
-288
-267
-316
-280
-250
-243
-190
-141
-111
-64
-23
-5
31
89
132
163
201
224
229
259
273
177
32
-39
-63
-104
-137
-127
-73
-32
-74
-126
-88
-41
-80
-125
-102
-46
-9
-14
-38
-34
-18
-27
-43
-37
-22
-23
-44
-45
-11
-14
-36
27
67
-52
-204
-334
-171
953
2378
2126
346
-651
-360
-104
-162
-88
-22
-71
-49
12
4
-26
-18
31
95
129
138
173
223
231
210
216
239
236
221
211
181
131
88
47
3
-19
-25
-31
-26
-29
-76
-129
-141
-141
-163
-195
-214
-207
-198
-206
-203
-191
-205
-214
-176
-137
-131
-136
-168
-216
-206
-188
-216
-202
-182
-277
-436
-592
-335
997
2491
2103
222
-786
-558
-379
-425
-330
-288
-348
-328
-286
-281
-258
-242
-242
-217
-197
-195
-145
-57
2
49
114
161
167
148
113
84
58
-2
-70
-73
-27
-11
-42
-59
-34
-7
-1
7
28
47
59
66
60
31
-9
-30
-27
-23
-13
14
28
19
16
23
18
0
-12
7
-10
-143
-287
-434
-441
523
2339
2809
1103
-444
-422
-76
-155
-179
-119
-162
-171
-142
-159
-161
-131
-104
-82
-82
-73
-19
33
56
95
139
139
125
130
123
87
41
-10
-85
-179
-249
-279
-294
-300
-286
-267
-247
-204
-154
-137
-126
-109
-143
-199
-163
-66
-60
-114
-85
-18
-36
-83
-68
-38
-32
-29
-35
-27
14
-27
-164
-327
-455
31
1495
2451
1426
-210
-579
-227
-191
-243
-179
-202
-235
-193
-181
-189
-175
-167
-142
-75
-24
0
54
133
167
156
164
175
133
82
82
73
6
-61
-88
-104
-129
-148
-141
-125
-133
-155
-165
-163
-155
-155
-182
-207
-193
-175
-200
-236
-236
-219
-236
-269
-250
-204
-215
-227
-168
-138
-148
-53
31
-53
-153
-254
-69
1271
3007
2708
556
-651
-326
-38
-107
-49
-7
-53
-29
-16
-46
-34
-10
-2
33
77
110
156
212
259
302
345
368
350
296
237
172
85
-10
-95
-160
-192
-202
-218
-228
-217
-192
-166
-159
-182
-204
-210
-222
-230
-203
-168
-157
-147
-139
-168
-205
-192
-170
-199
-235
-250
-280
-286
-250
-284
-384
-503
-495
351
2029
2560
906
-773
-789
-296
-302
-322
-185
-168
-187
-140
-105
-91
-76
-57
-34
-28
-2
80
150
173
200
234
242
232
218
211
212
187
129
86
57
19
-11
-21
-30
-19
18
21
-18
-44
-49
-64
-74
-72
-95
-149
-183
-171
-160
-174
-161
-133
-141
-160
-163
-157
-136
-158
-240
-233
-168
-261
-444
-607
-517
591
2350
2559
755
-651
-560
-263
-330
-315
-262
-301
-283
-249
-275
-273
-241
-220
-185
-134
-93
-57
-20
17
53
85
128
167
168
158
160
128
58
15
1
-14
-10
15
15
-9
0
49
87
95
99
101
89
80
78
67
33
-9
-27
-19
-26
-38
-28
-26
-40
-28
-30
-53
-44
-75
-200
-367
-520
-50
1590
2872
1863
-129
-685
-236
-170
-277
-185
-169
-203
-128
-71
-85
-98
-97
-77
-52
-49
-43
-15
13
31
43
38
17
-1
-7
-8
-23
-58
-90
-114
-150
-198
-234
-243
-224
-204
-212
-214
-176
-145
-150
-147
-117
-92
-84
-85
-89
-97
-96
-72
-42
-44
-59
-46
-25
-13
2
3
14
60
34
-88
-227
-364
14
1392
2472
1645
14
-461
-138
-88
-148
-75
-73
-117
-129
-155
-150
-127
-162
-175
-113
-80
-87
-49
18
55
82
116
118
93
78
57
-2
-76
-133
-163
-166
-170
-192
-198
-181
-164
-141
-129
-164
-203
-199
-195
-216
-223
-223
-242
-253
-235
-226
-245
-256
-253
-263
-276
-272
-255
-226
-209
-215
-171
-116
-168
-251
-338
-256
796
2533
2716
811
-631
-419
-37
-154
-149
-6
20
56
121
123
108
99
78
82
106
121
170
270
332
313
298
322
325
293
257
203
124
43
-36
-99
-124
-140
-173
-190
-180
-172
-158
-124
-91
-72
-74
-102
-134
-146
-141
-117
-86
-80
-97
-104
-102
-107
-112
-116
-143
-208
-256
-211
-174
-281
-441
-567
-373
797
2311
2119
223
-959
-683
-333
-368
-316
-228
-233
-200
-143
-115
-68
-26
-12
15
44
66
132
227
287
318
340
337
320
311
287
224
149
77
-6
-75
-73
-29
-30
-77
-104
-97
-85
-88
-82
-38
2
-19
-67
-96
-117
-134
-136
-129
-127
-128
-126
-120
-109
-89
-99
-147
-153
-126
-139
-127
-82
-167
-380
-600
-491
636
2286
2419
737
-530
-460
-252
-368
-372
-321
-347
-317
-285
-316
-306
-260
-237
-181
-90
-43
-40
-25
12
43
59
74
86
71
29
-17
-50
-78
-128
-187
-203
-193
-211
-225
-182
-111
-56
-17
-5
-15
-10
21
49
58
49
30
28
42
48
47
43
39
42
59
96
107
36
-11
54
41
-131
-312
-470
-66
1499
2787
1865
-45
-623
-254
-206
-277
-158
-122
-159
-126
-94
-96
-89
-68
-48
-49
-51
-16
26
61
125
192
202
178
163
151
120
66
3
-48
-106
-185
-242
-241
-219
-207
-194
-187
-202
-216
-209
-203
-210
-212
-205
-218
-244
-237
-196
-170
-168
-155
-134
-111
-84
-76
-71
-56
-67
-52
10
-46
-202
-354
-469
198
2052
3078
1552
-500
-779
-245
-206
-260
-142
-137
-160
-110
-95
-86
-41
-25
-32
-14
16
54
111
159
192
225
255
269
260
232
212
172
62
-35
-42
-68
-159
-184
-143
-157
-193
-173
-138
-126
-121
-119
-114
-106
-113
-137
-160
-177
-185
-175
-154
-143
-150
-153
-145
-160
-181
-166
-168
-197
-173
-164
-238
-322
-458
-229
1183
2743
2164
56
-869
-426
-214
-339
-257
-169
-193
-152
-89
-69
-41
-11
2
18
37
61
99
129
149
178
214
243
271
293
284
237
168
90
21
-32
-84
-135
-155
-138
-132
-157
-176
-164
-131
-116
-127
-127
-106
-103
-120
-128
-134
-143
-142
-151
-166
-147
-120
-148
-193
-186
-183
-207
-173
-150
-242
-367
-517
-389
764
2276
2078
301
-699
-421
-208
-311
-264
-214
-272
-264
-225
-229
-201
-141
-112
-93
-40
22
43
49
113
210
266
293
328
319
254
210
181
96
5
-14
-14
-50
-82
-85
-88
-96
-99
-99
-85
-59
-57
-69
-50
-28
-58
-90
-73
-63
-87
-88
-71
-82
-110
-136
-148
-138
-134
-116
-63
-106
-260
-399
-518
-77
1569
2972
2039
-50
-739
-291
-131
-157
-41
-46
-107
-45
4
-9
10
39
40
31
21
31
74
117
143
168
192
203
197
161
86
-15
-122
-202
-229
-233
-255
-270
-240
-210
-213
-205
-169
-147
-148
-147
-138
-122
-107
-114
-122
-95
-65
-75
-103
-117
-124
-150
-178
-175
-185
-229
-213
-176
-257
-406
-577
-433
819
2514
2379
405
-793
-481
-172
-293
-290
-215
-231
-218
-186
-175
-139
-101
-94
-71
-13
47
97
154
211
251
263
242
220
219
190
111
36
2
-17
-48
-90
-117
-123
-129
-137
-136
-135
-138
-128
-111
-106
-107
-104
-106
-124
-141
-146
-150
-152
-145
-138
-128
-105
-102
-124
-121
-110
-118
-79
-44
-118
-250
-433
-326
879
2530
2430
585
-548
-304
-63
-168
-126
-48
-77
-55
-5
3
29
66
85
117
155
173
200
249
283
285
277
269
251
212
154
86
12
-68
-144
-204
-245
-259
-258
-269
-288
-276
-244
-230
-214
-177
-166
-186
-175
-147
-168
-199
-188
-173
-174
-157
-148
-171
-202
-225
-217
-187
-202
-214
-184
-244
-378
-497
-544
147
1785
2510
1048
-651
-782
-344
-351
-379
-277
-288
-286
-213
-200
-193
-148
-135
-116
-36
29
46
91
171
225
247
273
312
344
342
304
257
206
128
37
-7
-16
-55
-97
-71
-28
-47
-75
-50
-32
-66
-85
-60
-56
-90
-113
-126
-132
-107
-81
-88
-84
-74
-109
-133
-103
-95
-84
-33
-79
-229
-403
-452
400
2266
3027
1389
-440
-568
-116
-132
-171
-100
-134
-135
-84
-96
-99
-65
-51
-37
-10
7
35
91
145
178
195
208
218
219
206
164
83
-2
-60
-105
-146
-168
-181
-200
-212
-217
-222
-225
-222
-216
-203
-189
-182
-170
-152
-145
-152
-151
-136
-126
-123
-109
-107
-135
-138
-111
-118
-110
-65
-127
-280
-445
-521
270
2139
2982
1395
-466
-638
-213
-256
-292
-177
-198
-230
-195
-198
-194
-148
-124
-112
-68
-13
31
72
113
134
141
145
133
102
65
18
-45
-105
-147
-175
-194
-209
-220
-219
-207
-197
-204
-216
-215
-198
-180
-172
-172
-175
-183
-191
-191
-187
-182
-169
-153
-140
-128
-134
-144
-121
-114
-131
-94
-102
-238
-409
-628
-364
1275
3032
2412
207
-716
-320
-212
-360
-271
-223
-261
-203
-155
-154
-109
-67
-58
-21
37
84
138
199
251
297
327
330
309
264
197
130
62
-10
-56
-68
-83
-104
-103
-81
-66
-66
-63
-51
-53
-72
-72
-54
-60
-75
-57
-38
-55
-59
-26
-8
-20
-19
-13
-27
-28
-18
-49
-52
5
-42
-202
-377
-458
307
2161
3030
1409
-558
-726
-182
-176
-242
-130
-132
-161
-116
-101
-96
-62
-41
-20
17
55
101
160
203
229
258
277
268
236
190
133
75
19
-34
-58
-54
-70
-117
-139
-118
-99
-97
-95
-91
-95
-104
-113
-120
-122
-133
-159
-178
-190
-214
-230
-215
-204
-206
-177
-148
-176
-211
-229
-247
-208
-175
-282
-476
-717
-613
699
2494
2401
446
-742
-502
-300
-432
-387
-322
-363
-336
-299
-314
-292
-247
-229
-204
-155
-106
-62
-19
13
30
37
38
29
11
-11
-35
-67
-104
-135
-152
-157
-156
-157
-159
-148
-127
-106
-92
-85
-86
-83
-81
-91
-98
-92
-90
-89
-81
-72
-53
-27
-24
-23
-5
-10
-26
-17
-28
-40
1
-21
-138
-270
-388
95
1643
2683
1510
-367
-729
-213
-139
-229
-134
-109
-140
-96
-54
-32
1
27
60
108
149
194
245
285
329
379
412
429
420
383
346
303
226
138
77
40
10
-10
-13
-1
4
-12
-25
-17
-13
-32
-47
-43
-43
-58
-72
-83
-100
-113
-113
-107
-99
-79
-71
-108
-138
-107
-95
-127
-100
-81
-177
-329
-534
-326
1116
2744
2253
205
-735
-360
-192
-323
-258
-210
-257
-222
-185
-203
-185
-145
-129
-107
-67
-30
2
47
104
152
173
168
142
107
61
-9
-92
-159
-203
-232
-245
-251
-262
-266
-245
-222
-218
-215
-207
-214
-221
-210
-208
-222
-224
-215
-216
-223
-221
-209
-197
-195
-185
-169
-180
-195
-173
-179
-200
-149
-146
-268
-414
-573
-219
1359
2784
1886
-212
-873
-366
-223
-321
-226
-197
-236
-187
-157
-163
-130
-103
-94
-59
-19
14
62
122
176
222
247
252
250
238
211
165
103
43
0
-32
-54
-59
-52
-44
-35
-29
-26
-20
-14
-12
-10
-6
-9
-11
-6
-3
-7
-12
-15
-9
5
11
14
17
-4
-19
1
-12
-35
8
-7
-147
-342
-577
-174
1580
3050
2051
-31
-591
-126
-107
-237
-124
-109
-168
-127
-104
-118
-99
-86
-89
-69
-39
-13
18
51
84
113
126
123
111
96
76
47
8
-33
-67
-94
-112
-122
-129
-128
-129
-145
-158
-160
-165
-174
-175
-173
-170
-157
-142
-136
-136
-131
-130
-129
-115
-101
-99
-80
-51
-63
-93
-100
-113
-110
-79
-111
-202
-338
-492
-40
1332
2127
1120
-250
-447
-164
-204
-238
-155
-170
-185
-145
-146
-152
-121
-104
-92
-62
-36
-12
30
70
99
123
138
131
111
97
92
78
45
2
-37
-66
-86
-92
-83
-75
-81
-91
-95
-99
-105
-107
-107
-109
-110
-109
-109
-107
-101
-98
-104
-101
-81
-67
-69
-63
-60
-80
-85
-78
-92
-70
-39
-101
-206
-365
-378
539
2045
2105
431
-696
-435
-102
-163
-134
-64
-95
-83
-32
-20
-8
23
51
71
86
122
175
214
248
287
298
275
255
251
235
187
121
62
8
-45
-85
-97
-88
-80
-96
-117
-111
-96
-104
-120
-120
-115
-118
-131
-136
-125
-120
-129
-134
-126
-114
-110
-111
-100
-92
-113
-128
-127
-149
-137
-90
-147
-274
-440
-571
137
1853
2521
949
-690
-683
-217
-253
-283
-182
-201
-209
-154
-149
-144
-104
-85
-74
-46
-18
11
50
95
136
161
162
153
133
99
63
27
-21
-75
-111
-129
-143
-151
-145
-136
-130
-120
-106
-102
-107
-109
-103
-99
-103
-108
-111
-113
-115
-120
-124
-114
-98
-94
-81
-64
-82
-105
-90
-99
-114
-68
-83
-202
-356
-558
-172
1436
2684
1649
-226
-616
-142
-119
-215
-110
-105
-139
-80
-58
-73
-51
-26
-9
24
55
83
120
153
180
204
212
198
175
153
127
95
58
13
-27
-49
-56
-61
-64
-65
-67
-72
-78
-81
-80
-78
-78
-83
-92
-97
-96
-99
-102
-98
-108
-130
-124
-90
-72
-65
-55
-68
-83
-77
-97
-107
-65
-93
-213
-381
-573
-105
1464
2452
1316
-310
-514
-121
-175
-249
-146
-159
-189
-131
-113
-125
-106
-79
-47
-14
2
24
65
98
121
146
148
129
114
105
94
83
60
18
-20
-41
-52
-62
-70
-69
-62
-69
-81
-71
-64
-82
-90
-73
-68
-82
-86
-82
-79
-73
-78
-92
-87
-58
-31
-19
-21
-33
-48
