# session 3
66
24
76
223
138
-220
-363
-208
-148
-206
-188
-163
-190
-175
-100
-26
32
66
76
91
127
166
195
219
246
288
349
420
458
431
397
427
475
478
466
470
449
366
253
189
159
70
-34
-46
-49
-129
-191
-181
-166
-180
-200
-203
-171
-145
-188
-259
-280
-263
-251
-231
-190
-158
-152
-195
-308
-389
-354
-341
-401
-361
-308
-427
-598
-716
-327
1316
3016
2328
-18
-1047
-572
-337
-478
-432
-392
-432
-371
-296
-284
-272
-264
-269
-259
-240
-218
-186
-164
-152
-120
-60
27
145
258
327
371
415
451
475
464
380
249
130
38
-16
-32
-49
-71
-60
-31
4
54
92
117
172
243
283
294
272
197
115
86
106
162
235
260
224
194
168
114
80
32
-90
-141
-104
-210
-426
-632
-655
319
2204
2687
795
-968
-940
-457
-463
-468
-391
-441
-464
-424
-398
-340
-287
-292
-286
-262
-262
-244
-182
-135
-120
-88
-39
-16
-19
4
58
99
115
122
112
88
90
78
-65
-289
-390
-340
-281
-264
-274
-331
-388
-382
-353
-346
-341
-322
-290
-250
-236
-252
-253
-213
-172
-171
-183
-160
-121
-118
-127
-103
-97
-127
-77
29
-37
-225
-353
-440
86
1820
3185
2203
223
-345
51
88
-30
-8
-15
118
349
348
306
482
598
471
322
275
255
218
178
160
174
188
184
197
234
259
271
298
325
318
274
211
143
70
-17
-113
-185
-237
-285
-303
-283
-266
-256
-228
-198
-184
-192
-210
-203
-168
-165
-194
-210
-219
-225
-200
-162
-171
-232
-271
-264
-281
-288
-217
-228
-404
-594
-728
-244
1512
3039
2127
-45
-806
-388
-275
-381
-316
-297
-328
-293
-265
-233
-165
-105
-72
-94
-176
-214
-173
-141
-149
-147
-120
-69
-15
-8
-40
-67
-58
30
112
33
-76
-11
52
-53
-105
-7
29
-15
24
96
84
32
8
25
75
91
48
33
55
15
-69
-84
-43
-36
-66
-70
-27
3
-26
-61
-85
-132
-121
-53
-129
-333
-517
-591
100
1850
2852
1602
-182
-557
-295
-378
-390
-206
-200
-261
-194
-134
-148
-169
-188
-198
-175
-156
-157
-141
-124
-127
-99
-18
71
115
94
79
118
106
26
60
182
153
11
-37
-27
-76
-144
-191
-228
-234
-218
-232
-235
-178
-141
-193
-232
-167
-68
-28
-25
-14
21
64
92
137
203
181
66
-2
4
44
86
-7
-236
-468
-616
47
2047
3467
2231
14
-584
-138
-93
-215
-124
-80
-122
-129
-116
-79
-32
-47
-89
-85
-79
-101
-87
-35
-14
1
63
137
197
261
316
346
355
335
277
192
86
-37
-144
-214
-257
-282
-292
-291
-288
-284
-276
-251
-221
-225
-260
-268
-241
-239
-274
-304
-314
-320
-330
-345
-371
-405
-420
-398
-374
-362
-319
-295
-378
-488
-588
-550
297
1861
2288
804
-577
-527
-152
-192
-183
-79
-99
-87
-12
5
30
87
94
89
109
105
96
128
179
231
282
309
329
358
359
331
321
332
341
356
376
359
285
190
117
75
53
40
26
14
0
-24
-36
-27
-32
-47
-44
-53
-98
-134
-141
-145
-156
-188
-254
-294
-282
-295
-332
-312
-288
-297
-272
-290
-376
-438
-486
5
1598
2789
1677
-339
-851
-374
-308
-455
-462
-533
-584
-510
-474
-477
-431
-419
-472
-487
-446
-402
-337
-250
-183
-124
-51
21
88
151
205
264
329
377
396
373
290
177
82
14
-31
-37
3
45
52
61
115
153
131
137
199
202
152
176
239
207
147
177
217
188
154
157
173
149
52
-13
12
-43
-195
-328
-409
182
1876
2930
1624
-350
-742
-282
-246
-323
-253
-286
-308
-223
-216
-282
-292
-249
-202
-178
-174
-158
-131
-111
-81
-67
-100
-113
-61
-17
-10
7
37
61
96
117
67
-26
-110
-201
-288
-315
-294
-265
-222
-176
-162
-165
-145
-117
-114
-131
-141
-124
-97
-99
-128
-137
-111
-70
-7
70
108
101
77
38
41
118
108
-67
-260
-395
-66
1289
2651
2155
373
-507
-295
-163
-240
-206
-200
-245
-231
-223
-228
-193
-164
-166
-168
-177
-188
-172
-146
-142
-149
-156
-159
-148
-117
-75
-45
-38
-26
-7
-19
-42
-49
-89
-150
-161
-170
-231
-258
-211
-166
-148
-124
-101
-106
-112
-87
-60
-65
-76
-75
-84
-88
-62
-41
-39
-29
-31
-50
-60
-61
-21
28
-49
-212
-395
-417
600
2597
3195
1365
-359
-345
24
-98
-135
-61
-110
-99
-34
-39
-26
24
47
77
115
105
93
123
151
170
218
269
280
279
305
327
330
345
348
292
223
148
-14
-211
-325
-391
-452
-458
-445
-464
-443
-378
-380
-446
-473
-450
-427
-413
-393
-377
-383
-391
-368
-320
-296
-327
-356
-333
-315
-296
-216
-223
-412
-628
-789
-392
1244
2788
1990
-172
-946
-438
-265
-372
-231
-115
-117
-64
-13
11
68
99
115
210
322
339
318
353
399
420
479
561
573
547
564
586
566
533
506
481
466
435
339
200
93
35
-20
-67
-51
7
13
-35
-66
-93
-150
-175
-157
-197
-289
-331
-351
-397
-401
-352
-337
-371
-388
-367
-366
-368
-304
-338
-644
-940
-1010
-887
13
1793
2554
1151
-453
-600
-261
-295
-296
-211
-273
-295
-230
-237
-258
-233
-232
-224
-160
-121
-140
-129
-74
-76
-77
13
-13
-245
-302
-49
136
138
189
282
287
243
193
107
38
34
34
7
-6
1
24
60
60
31
56
102
90
74
84
59
25
40
59
57
57
48
35
23
-31
-59
-22
-81
-253
-424
-442
392
2143
2759
1044
-768
-816
-299
-292
-292
-163
-203
-241
-173
-143
-137
-116
-122
-109
-47
-16
-43
-66
-43
-1
22
41
84
119
125
143
178
195
211
237
235
180
96
2
-81
-124
-130
-142
-178
-209
-188
-125
-94
-112
-105
-67
-71
-114
-123
-104
-105
-99
-47
10
37
59
98
136
146
105
69
109
158
58
-250
-462
166
1720
2619
1611
-36
-587
-346
-247
-277
-253
-268
-297
-294
-295
-285
-258
-254
-266
-267
-260
-249
-240
-230
-203
-173
-153
-116
-67
-59
-74
-62
-41
-25
-12
-43
-96
-95
-98
-186
-251
-215
-191
-249
-292
-254
-200
-210
-261
-283
-273
-275
-277
-247
-215
-225
-232
-192
-143
-120
-96
-81
-92
-92
-99
-123
-81
-55
-181
-351
-519
-332
1127
3136
3112
990
-347
-84
144
-59
-63
29
12
21
54
68
69
13
-29
22
64
43
53
103
131
154
202
245
251
233
232
258
288
308
333
355
320
191
13
-132
-210
-245
-276
-327
-378
-364
-287
-246
-255
-232
-183
-174
-179
-173
-189
-194
-157
-143
-159
-139
-141
-204
-215
-183
-221
-225
-162
-246
-461
-671
-618
470
2297
2597
745
-726
-529
-98
-165
-184
-114
-129
-111
-96
-136
-138
-103
-72
-50
-88
-141
-102
-17
23
43
92
156
180
174
235
316
257
159
198
245
173
106
96
36
-69
-123
-138
-166
-190
-197
-211
-226
-216
-198
-184
-164
-166
-202
-238
-266
-311
-350
-348
-324
-307
-278
-250
-258
-255
-207
-156
-109
-87
-150
-306
-516
-272
1151
2758
2397
474
-545
-305
-166
-281
-223
-194
-242
-178
-119
-153
-159
-129
-134
-140
-105
-48
5
43
60
60
70
108
143
150
153
166
170
165
177
202
197
136
71
45
5
-68
-102
-85
-85
-113
-116
-66
0
22
-5
-28
-26
-25
-40
-44
-25
-11
-12
-21
-53
-96
-98
-96
-134
-97
-4
-84
-284
-442
-426
447
2174
2691
980
-680
-654
-197
-226
-210
-74
-96
-117
-51
-31
-61
-86
-86
-66
-87
-141
-131
-58
-16
-15
-8
23
73
128
153
136
118
132
171
209
213
167
90
17
-40
-91
-134
-156
-161
-178
-224
-265
-259
-229
-213
-196
-173
-171
-175
-167
-161
-132
-83
-95
-136
-106
-57
-55
-59
-80
-109
-57
-44
-207
-413
-553
-265
1052
2521
2188
398
-601
-426
-281
-364
-306
-259
-309
-312
-287
-304
-343
-372
-361
-317
-284
-266
-231
-167
-90
-37
-18
16
65
84
96
122
114
92
117
146
127
80
25
-40
-101
-129
-124
-133
-162
-148
-103
-96
-112
-115
-111
-92
-71
-73
-51
-3
-18
-67
-45
2
0
-7
2
-2
-15
-40
-50
5
15
-106
-301
-479
-8
1714
3205
2397
391
-350
-28
20
-94
-17
8
-8
41
8
-79
-62
-1
17
22
17
-10
-22
0
30
56
90
131
164
181
175
127
56
21
14
-24
-91
-149
-219
-286
-279
-232
-250
-300
-280
-221
-206
-220
-219
-229
-264
-277
-269
-279
-286
-264
-249
-253
-253
-261
-282
-286
-293
-321
-304
-272
-335
-460
-613
-557
493
2281
2642
887
-612
-504
-99
-171
-195
-108
-123
-109
-52
-52
-48
-4
21
22
46
107
139
125
143
204
240
255
275
281
287
310
316
303
316
338
320
268
209
112
-18
-103
-112
-107
-120
-124
-115
-126
-165
-217
-277
-322
-329
-319
-321
-312
-280
-252
-233
-215
-206
-197
-173
-162
-162
-165
-189
-182
-152
-213
-342
-514
-495
531
2291
2614
907
-502
-442
-169
-266
-244
-173
-258
-279
-196
-161
-142
-89
-65
-64
-23
15
-4
-17
16
52
106
186
199
143
132
172
188
202
244
258
220
168
106
32
-23
-55
-86
-88
-50
-34
-63
-86
-79
-69
-86
-133
-159
-138
-138
-193
-214
-172
-171
-228
-236
-190
-197
-247
-256
-274
-335
-324
-281
-361
-489
-586
-370
860
2456
2250
274
-859
-451
-90
-211
-206
-139
-178
-170
-159
-202
-193
-150
-149
-148
-129
-114
-96
-73
-48
-16
8
16
54
147
241
294
324
359
390
396
361
281
177
73
-13
-61
-69
-64
-50
-28
-14
7
55
76
34
5
40
42
-44
-72
35
97
33
2
29
-5
-34
25
30
-41
-30
-25
-157
-312
-462
-241
1088
2583
2092
109
-859
-533
-307
-359
-321
-330
-362
-294
-263
-277
-219
-141
-104
-80
-79
-83
-34
27
32
21
46
67
56
61
98
111
96
111
144
140
92
27
-42
-109
-160
-191
-201
-201
-204
-202
-185
-155
-104
-48
-31
-49
-65
-86
-113
-125
-127
-124
-103
-85
-95
-109
-108
-98
-80
-57
-10
24
-62
-215
-351
-479
-10
1572
2789
1900
148
-398
-148
-163
-227
-145
-169
-234
-229
-230
-232
-232
-275
-292
-244
-206
-190
-147
-106
-107
-121
-102
-64
-61
-95
-111
-105
-111
-102
-67
-42
-37
-50
-80
-76
-30
-24
-54
-51
-41
-58
-73
-90
-120
-129
-131
-163
-185
-163
-144
-148
-136
-98
-80
-112
-157
-162
-138
-155
-174
-107
-67
-160
-279
-427
-274
1008
2689
2493
534
-587
-273
-29
-172
-141
-68
-91
-17
71
31
2
71
138
150
148
161
189
209
214
242
287
287
261
272
279
245
235
258
228
164
154
151
62
-44
-75
-74
-92
-109
-124
-151
-180
-215
-261
-275
-249
-238
-247
-226
-197
-203
-198
-160
-158
-203
-206
-170
-171
-182
-212
-338
-434
-364
-331
-455
-618
-767
-310
1363
2737
1826
-111
-716
-380
-356
-415
-272
-221
-236
-155
-68
-48
-71
-81
-35
14
27
61
126
158
157
183
241
284
303
311
302
286
291
299
275
238
187
81
-27
-63
-97
-171
-188
-137
-127
-160
-170
-160
-152
-145
-144
-163
-197
-220
-212
-195
-183
-164
-144
-148
-170
-192
-212
-218
-215
-240
-232
-155
-169
-302
-425
-525
-71
1531
2848
1904
-110
-750
-320
-213
-321
-266
-260
-304
-288
-284
-266
-207
-185
-189
-165
-144
-136
-110
-73
-43
-22
-7
14
48
81
111
134
145
153
158
140
87
22
-36
-95
-151
-168
-142
-118
-103
-67
-23
14
55
90
97
92
95
119
166
202
207
199
192
182
169
143
136
160
148
128
160
130
-12
-198
-336
238
1855
2762
1410
-461
-764
-291
-243
-295
-211
-252
-331
-331
-337
-344
-339
-350
-314
-214
-123
-48
12
-3
-53
-29
37
67
80
95
80
52
63
98
99
52
-31
-148
-253
-294
-297
-318
-341
-344
-346
-348
-326
-292
-275
-270
-247
-211
-201
-223
-230
-206
-177
-147
-119
-117
-108
-75
-63
-50
1
-4
-13
134
217
2
-305
-462
68
1794
3283
2478
412
-470
-243
-129
-124
-23
-17
-27
28
6
-59
-46
15
66
100
106
90
74
61
32
1
-10
-10
-9
11
47
63
56
37
12
-31
-112
-218
-299
-337
-358
-383
-404
-403
-385
-375
-369
-356
-349
-356
-355
-349
-342
-306
-250
-226
-224
-206
-180
-170
-190
-206
-181
-179
-203
-148
-112
-224
-407
-665
-476
1208
3286
2938
596
-580
-196
-31
-202
-110
-40
-82
-3
60
15
15
53
74
129
173
161
183
233
218
204
251
269
251
273
294
264
240
238
225
210
187
130
54
-8
-58
-121
-200
-249
-248
-244
-265
-281
-286
-304
-321
-317
-311
-322
-324
-307
-298
-305
-296
-265
-229
-210
-232
-249
-209
-193
-222
-189
-159
-257
-428
-604
-276
1209
2693
2146
308
-482
-229
-190
-294
-196
-175
-231
-169
-95
-89
-81
-78
-83
-53
-9
-9
-20
8
42
61
117
199
225
215
248
298
320
353
388
368
312
249
154
64
51
67
24
-21
4
34
3
-42
-60
-65
-64
-63
-84
-117
-127
-128
-153
-180
-176
-167
-180
-195
-209
-233
-243
-257
-302
-299
-273
-360
-506
-660
-598
430
2065
2211
464
-834
-658
-303
-336
-310
-239
-247
-220
-201
-220
-193
-158
-163
-154
-118
-83
-52
-28
-16
4
47
98
139
176
210
222
229
255
280
284
261
174
46
-35
-61
-70
-51
-26
-45
-61
-28
1
-4
0
19
29
24
7
-12
-14
-22
-44
-38
-9
-20
-70
-94
-65
-41
-70
-82
-51
-108
-237
-354
-451
34
1491
2381
1206
-520
-808
-327
-244
-291
-214
-239
-277
-219
-196
-205
-180
-171
-169
-119
-70
-65
-49
-7
19
