# session 30
23
13
20
28
110
124
81
909
2699
3222
1448
-192
-88
353
215
138
240
209
163
181
173
167
181
188
197
201
195
201
209
202
200
226
255
255
246
270
320
346
350
383
446
480
472
448
394
278
129
18
-44
-106
-174
-204
-206
-212
-214
-204
-207
-213
-212
-231
-250
-223
-199
-223
-234
-207
-202
-224
-219
-203
-210
-214
-206
-212
-215
-196
-197
-221
-211
-175
-169
-178
-162
-141
-143
-151
-150
-143
-137
-141
-141
-127
-113
-109
-112
-113
-105
-96
-107
-116
-102
-93
-102
-95
-74
-69
-66
-46
-22
-11
-20
-52
-75
-56
-52
-90
-65
-23
-109
-243
-392
-335
736
2400
2435
579
-631
-324
-10
-159
-163
-82
-115
-108
-75
-98
-109
-83
-64
-55
-51
-44
-21
1
10
21
47
78
103
125
154
188
220
249
277
304
325
332
320
282
212
120
26
-47
-94
-118
-127
-129
-131
-133
-141
-149
-141
-133
-140
-140
-128
-130
-145
-150
-137
-127
-133
-137
-121
-100
-98
-104
-101
-93
-93
-98
-94
-86
-89
-97
-96
-92
-83
-68
-61
-62
-63
-63
-52
-41
-50
-61
-50
-40
-43
-37
-32
-40
-46
-45
-38
-27
-28
-42
-45
-30
-9
8
1
-32
-63
-60
-39
-46
-54
-35
-77
-182
-298
-343
289
1787
2443
1024
-608
-620
-49
-51
-150
-52
-50
-102
-78
-48
-24
-9
-21
-13
9
-8
-12
29
57
67
93
117
141
184
222
247
284
326
364
402
430
439
434
388
282
149
22
-83
-152
-187
-207
-215
-202
-185
-198
-231
-236
-208
-193
-206
-211
-205
-207
-209
-200
-194
-193
-187
-179
-178
-182
-177
-163
-156
-166
-177
-172
-149
-129
-136
-156
-152
-129
-115
-110
-109
-118
-124
-105
-85
-90
-91
-69
-58
-70
-60
-38
-37
-31
0
19
11
-12
-40
-39
-25
-53
-68
-38
-74
-185
-335
-366
413
1945
2355
818
-590
-473
-22
-79
-140
-75
-102
-107
-56
-64
-80
-58
-45
-43
-26
-11
1
30
63
75
84
114
154
180
200
231
266
300
339
376
390
385
375
333
237
118
21
-48
-89
-114
-136
-135
-108
-103
-123
-123
-116
-135
-147
-134
-130
-130
-104
-83
-100
-124
-122
-108
-108
-114
-107
-100
-111
-116
-101
-104
-125
-115
-81
-75
-94
-100
-95
-96
-97
-96
-100
-100
-81
-65
-77
-92
-92
-91
-93
-95
-104
-104
-89
-87
-88
-67
-53
-50
-27
-39
-111
-130
-90
-107
-120
-66
-101
-240
-388
-406
375
1981
2521
1000
-510
-472
-54
-141
-207
-121
-140
-145
-91
-94
-102
-76
-65
-61
-39
-17
-4
8
22
43
68
89
108
133
162
184
200
219
242
261
273
278
267
228
159
79
4
-61
-107
-130
-147
-163
-161
-144
-135
-140
-143
-137
-134
-137
-132
-119
-116
-124
-125
-115
-112
-112
-103
-98
-103
-98
-80
-74
-75
-74
-77
-77
-62
-56
-72
-81
-67
-62
-65
-54
-49
-69
-82
-68
-50
-52
-61
-52
-34
-30
-32
-20
2
25
49
68
65
26
-13
-21
-36
-45
-3
-12
-109
-200
-282
31
1241
2280
1555
-51
-565
-187
-74
-160
-114
-111
-147
-98
-54
-77
-100
-85
-46
-16
-16
-19
-2
26
55
75
81
89
106
125
147
169
183
199
225
251
278
281
228
149
81
7
-75
-127
-151
-173
-186
-183
-183
-186
-184
-180
-177
-175
-178
-178
-171
-167
-166
-157
-149
-150
-149
-142
-137
-136
-132
-128
-126
-122
-117
-115
-109
-104
-106
-102
-87
-82
-91
-88
-75
-71
-69
-64
-65
-60
-42
-29
-13
15
28
8
-27
-49
-38
-26
-45
-43
-26
-68
-149
-250
-174
598
1702
1676
382
-522
-388
-122
-121
-111
-80
-94
-84
-70
-72
-56
-42
-41
-24
-4
3
21
51
72
85
108
137
158
174
201
230
248
267
297
320
325
323
310
272
203
118
42
-13
-49
-73
-91
-107
-115
-119
-130
-138
-130
-124
-131
-134
-127
-127
-137
-142
-139
-139
-143
-140
-129
-127
-139
-148
-139
-125
-123
-133
-138
-132
-126
-125
-124
-121
-115
-105
-93
-74
-52
-49
-68
-90
-107
-110
-105
-108
-99
-85
-119
-174
-243
-221
390
1527
1838
697
-470
-563
-231
-135
-128
-112
-138
-130
-97
-103
-95
-50
-29
-32
-12
13
10
19
56
76
81
114
159
180
211
273
311
314
338
383
391
367
332
268
177
85
-7
-80
-110
-131
-168
-181
-162
-164
-182
-179
-174
-188
-182
-151
-144
-156
-148
-134
-141
-157
-156
-135
-122
-136
-149
-132
-111
-117
-131
-122
-97
-89
-99
-110
-114
-98
-59
-48
-83
-93
-47
-16
-35
-64
-85
-91
-71
-63
-67
-59
-91
-161
-241
-329
59
1336
2299
1485
-79
-549
-211
-120
-179
-127
-133
-154
-98
-88
-127
-123
-96
-69
-30
-23
-36
-15
14
21
40
73
97
120
143
173
218
252
257
270
296
303
286
244
168
82
9
-57
-109
-127
-130
-148
-165
-155
-140
-142
-145
-135
-127
-131
-141
-144
-126
-104
-108
-125
-129
-123
-119
-118
-115
-94
-75
-98
-131
-123
-99
-89
-80
-72
-77
-83
-80
-68
-44
-23
-20
-34
-59
-77
-70
-73
-85
-47
-25
-114
-215
-312
-282
540
1963
2211
767
-445
-388
-100
-163
-184
-128
-150
-149
-115
-117
-116
-96
-88
-78
-59
-43
-23
-4
9
28
51
67
85
115
148
179
215
248
266
280
300
305
267
189
94
9
-46
-81
-123
-162
-167
-151
-151
-158
-148
-139
-157
-176
-161
-135
-140
-152
-139
-125
-130
-134
-127
-126
-131
-128
-119
-118
-120
-120
-120
-118
-116
-116
-107
-93
-95
-105
-105
-94
-63
-21
-22
-62
-80
-84
-99
-97
-92
-98
-71
-70
-161
-262
-366
-172
946
2256
1944
296
-579
-313
-99
-175
-161
-135
-158
-117
-76
-102
-117
-86
-53
-41
-37
-30
-25
-14
22
67
91
105
137
182
218
243
283
336
360
352
360
367
317
225
119
9
-67
-107
-150
-180
-172
-166
-173
-167
-153
-150
-153
-154
-145
-131
-129
-136
-131
-125
-125
-117
-111
-122
-125
-107
-99
-99
-87
-83
-104
-112
-94
-87
-92
-84
-78
-86
-73
-50
-65
-86
-54
-15
-20
-32
-39
-67
-75
-58
-81
-92
-37
-55
-189
-337
-418
108
1585
2562
1566
-77
-473
-136
-124
-216
-158
-151
-174
-147
-143
-140
-112
-105
-99
-72
-61
-61
-39
-16
-7
14
48
73
95
119
147
196
245
254
252
285
311
273
197
112
18
-68
-121
-148
-165
-169
-164
-165
-166
-164
-165
-158
-143
-150
-167
-150
-119
-124
-141
-130
-111
-109
-109
-107
-114
-122
-117
-103
-98
-105
-107
-96
-88
-94
-96
-86
-86
-94
-85
-63
-63
-79
-80
-73
-67
-44
-30
-42
-39
-10
5
-11
-45
-61
-39
-44
-72
-29
-12
-128
-263
-367
-133
1046
2386
2067
438
-411
-190
-58
-169
-148
-116
-152
-138
-108
-108
-96
-72
-67
-65
-46
-17
-2
5
19
35
58
88
108
129
165
191
201
226
263
287
291
278
242
173
79
-4
-60
-105
-137
-141
-137
-141
-141
-142
-156
-157
-134
-121
-136
-141
-124
-115
-121
-122
-115
-107
-107
-110
-106
-105
-117
-116
-96
-90
-102
-110
-107
-94
-85
-99
-111
-103
-97
-97
-87
-85
-94
-75
-52
-73
-98
-85
-67
-70
-71
-57
-44
-32
-10
9
-9
-64
-86
-55
-56
-90
-54
-20
-108
-238
-369
-223
863
2295
2173
522
-501
-294
-71
-173
-163
-108
-138
-125
-83
-85
-85
-69
-57
-42
-31
-24
-1
30
37
35
56
93
121
141
171
207
234
263
304
323
312
300
283
217
110
9
-68
-115
-129
-138
-166
-184
-174
-165
-169
-167
-158
-154
-155
-154
-152
-149
-137
-125
-132
-143
-131
-112
-114
-126
-130
-127
-117
-106
-107
-114
-113
-110
-107
-97
-84
-82
-85
-89
-96
-93
-79
-73
-78
-81
-81
-77
-66
-59
-59
-51
-30
-6
4
-6
-25
-44
-48
-43
-61
-62
-24
-62
-184
-306
-374
164
1649
2593
1539
-117
-475
-112
-102
-186
-113
-116
-148
-98
-82
-112
-100
-67
-59
-56
-41
-21
-2
12
23
44
70
83
90
111
144
175
205
236
263
274
270
260
233
155
38
-53
-92
-115
-140
-156
-157
-156
-157
-155
-151
-145
-138
-134
-139
-140
-123
-108
-108
-112
-106
-99
-101
-108
-108
-102
-97
-93
-85
-83
-90
-94
-91
-88
-82
-76
-77
-76
-69
-66
-63
-59
-59
-62
-59
-58
-61
-57
-48
-47
-53
-54
-47
-40
-34
-27
-15
-1
10
15
16
-3
-36
-35
-16
-43
-47
-6
-59
-192
-315
-308
431
1919
2459
1140
-270
-377
-70
-120
-174
-118
-136
-146
-106
-94
-95
-84
-77
-65
-41
-24
-17
-2
22
39
47
62
86
108
129
157
179
197
235
274
269
245
235
201
126
42
-32
-88
-117
-141
-171
-181
-173
-175
-184
-183
-177
-178
-181
-181
-176
-172
-169
-158
-150
-158
-162
-152
-152
-159
-148
-136
-142
-140
-123
-112
-107
-102
-104
-101
-91
-92
-86
-58
-46
-62
-73
-67
-67
-73
-70
-56
-47
-50
-53
-49
-44
-43
-43
-41
-35
-27
-11
9
20
29
44
28
-22
-26
5
-22
-44
7
-17
-155
-292
-328
258
1695
2513
1420
-166
-464
-71
-39
-145
-100
-82
-96
-71
-63
-77
-72
-55
-36
-16
-4
2
15
37
61
82
99
113
133
163
188
204
233
272
296
306
311
298
252
174
78
-5
-59
-103
-146
-169
-168
-164
-164
-162
-154
-152
-157
-161
-159
-153
-154
-161
-158
-147
-144
-150
-146
-133
-131
-137
-137
-134
-133
-131
-128
-125
-121
-123
-132
-129
-114
-113
-125
-120
-104
-101
-108
-110
-109
-104
-93
-92
-99
-94
-87
-89
-82
-65
-64
-67
-45
-13
-10
-25
-40
-60
-62
-43
-62
-79
-41
-69
-182
-296
-380
106
1575
2586
1587
-99
-494
-118
-98
-197
-123
-107
-138
-109
-96
-99
-75
-61
-55
-33
-14
2
27
40
42
59
85
106
135
165
179
199
242
276
284
292
305
297
258
190
97
6
-50
-81
-104
-119
-129
-141
-141
-130
-127
-133
-134
-128
-124
-119
-107
-104
-117
-113
-89
-91
-113
-109
-95
-93
-87
-82
-89
-88
-84
-92
-91
-82
-89
-97
-85
-71
-72
-84
-90
-78
-65
-70
-76
-70
-74
-79
-64
-51
-53
-55
-61
-72
-62
-46
-50
-50
-31
-12
5
19
-2
-48
-55
-34
-53
-75
-33
-39
-151
-266
-373
-111
1122
2407
1926
230
-524
-213
-81
-196
-147
-104
-154
-149
-120
-121
-100
-69
-63
-68
-62
-45
-23
-1
16
33
52
70
95
129
157
168
181
207
235
247
249
250
238
189
107
25
-35
-80
-113
-126
-132
-145
-155
-154
-146
-134
-129
-134
-135
-125
-122
-126
-123
-120
-122
-117
-110
-110
-109
-101
-102
-105
-92
-78
-80
-87
-86
-82
-68
-55
-70
-91
-80
-58
-66
-80
-64
-52
-64
-66
-52
-49
-49
-41
-40
-53
-65
-62
-45
-33
-36
-31
-9
10
15
13
-7
-37
-36
-23
-46
-41
-4
-56
-164
-259
-282
328
1701
2289
1097
-280
-407
-78
-105
-167
-113
-120
-127
-94
-94
-98
-77
-65
-56
-43
-33
-14
11
21
23
43
74
98
110
121
141
172
204
227
240
243
237
231
214
157
68
-12
-63
-100
-135
-157
-155
-140
-137
-145
-144
-147
-157
-150
-137
-146
-155
-146
-136
-143
-148
-136
-121
-124
-125
-107
-97
-108
-110
-104
-107
-107
-99
-97
-87
-70
-76
-93
-82
-64
-73
-82
-70
-62
-67
-67
-59
-52
-46
-43
-46
-43
-25
2
18
16
-3
-38
-53
-40
-50
-57
-27
-56
-159
-275
-332
198
1567
2365
1338
-175
-486
-134
-84
-148
-110
-119
-125
-82
-79
-85
-61
-62
-74
-49
-18
-3
6
15
36
72
92
95
116
150
179
209
236
253
274
295
300
290
249
156
49
-21
-68
-118
-153
-161
-160
-166
-170
-165
-159
-156
-156
-158
-152
-147
-153
-158
-151
-148
-152
-149
-145
-140
-128
-121
-130
-134
-123
-117
-116
-111
-107
-105
-100
-97
-96
-97
-97
-90
-81
-83
-85
-78
-75
-73
-62
-60
-64
-49
-19
0
3
-7
-30
-49
-45
-50
-75
-58
-18
-62
-162
-298
-319
444
1915
2348
973
-373
-401
-70
-118
-165
-104
-120
-130
-92
-81
-78
-67
-64
-52
-32
-20
-1
23
40
64
90
102
117
140
160
187
223
249
271
300
312
293
267
229
148
42
-33
-67
-91
-113
-124
-130
-136
-140
-146
-155
-150
-129
-125
-140
-132
-108
-115
-139
-140
-128
-117
-103
-105
-126
-123
-101
-106
-115
-98
-90
-109
-110
-92
-89
-99
-97
-82
-72
-78
-88
-81
-67
-66
-76
-80
-75
-70
-69
-59
-36
-24
-37
-42
-22
-6
-7
-24
-56
-71
-53
-51
-50
-25
-75
-192
-283
-345
97
1471
2462
1541
-97
-506
-130
-101
-210
-150
-145
-182
-133
-97
-120
-126
-103
-87
-79
-62
-36
-19
-8
12
34
46
65
95
119
140
175
205
215
223
244
259
253
223
156
62
-28
-91
-129
-152
-163
-164
-163
-165
-164
-161
-156
-143
-134
-145
-157
-145
-118
-112
-124
-124
-112
-109
-109
-100
-95
-97
-99
-94
-86
-83
-88
-87
-82
-78
-71
-67
-72
-68
-56
-61
-69
-58
-47
-54
-50
-30
-29
-49
-50
-36
-30
-26
-15
-2
12
23
31
39
38
12
-17
-15
-7
-32
-32
11
-23
-134
-268
-343
254
1716
2430
1215
-293
-451
-67
-80
-143
-78
-96
-113
-69
-64
-70
-46
-43
-51
-34
-11
6
24
35
44
64
89
105
121
144
169
194
224
252
272
300
322
300
246
184
100
2
-65
-109
-152
-175
-176
-180
-185
-183
-181
-181
-183
-182
-168
-155
-166
-178
-168
-159
-163
-159
-157
-168
-159
-130
-131
-155
-153
-133
-126
-128
