# session 31
-26
-35
-14
16
-19
-107
-154
-142
-121
-108
-113
-125
-117
-105
-117
-128
-118
-111
-112
-107
-104
-104
-99
-98
-101
-85
-67
-77
-98
-101
-88
-75
-68
-67
-76
-91
-95
-78
-52
-38
-42
-49
-42
-18
4
4
-21
-63
-82
-55
-48
-75
-56
-50
-134
-261
-400
-101
1217
2467
1838
87
-600
-242
-92
-178
-121
-87
-129
-117
-95
-95
-77
-63
-56
-32
-8
-3
8
32
60
84
102
116
138
174
208
232
268
311
328
333
351
352
310
237
135
23
-55
-103
-146
-170
-171
-168
-168
-164
-165
-169
-167
-160
-149
-138
-141
-152
-146
-129
-129
-135
-125
-120
-135
-137
-116
-110
-123
-119
-108
-115
-123
-113
-99
-98
-101
-100
-94
-85
-80
-81
-79
-71
-68
-73
-75
-69
-65
-65
-67
-70
-64
-52
-49
-51
-47
-36
-14
12
11
-21
-47
-41
-32
-55
-59
-18
-43
-150
-258
-353
44
1386
2424
1585
-55
-523
-148
-79
-179
-117
-95
-140
-132
-105
-80
-56
-65
-74
-51
-28
-17
2
23
34
48
81
109
113
123
160
195
214
232
255
273
282
278
247
181
101
28
-41
-102
-139
-151
-156
-156
-151
-151
-152
-140
-130
-141
-148
-133
-121
-126
-124
-111
-111
-117
-109
-97
-101
-108
-101
-95
-100
-102
-95
-88
-86
-90
-94
-85
-75
-79
-81
-72
-66
-67
-70
-72
-70
-60
-54
-55
-55
-51
-51
-51
-46
-47
-53
-42
-19
-16
-22
-7
17
18
1
-19
-25
-18
-34
-64
-42
-23
-91
-181
-295
-225
680
2028
2060
576
-466
-316
-68
-146
-149
-98
-128
-129
-93
-86
-79
-64
-61
-51
-27
-9
1
17
39
53
63
80
105
138
169
184
199
230
257
267
280
288
268
222
154
67
-17
-77
-112
-134
-144
-145
-145
-151
-159
-160
-149
-130
-124
-138
-146
-132
-123
-126
-123
-120
-125
-121
-115
-114
-106
-97
-101
-107
-106
-102
-87
-76
-91
-110
-109
-100
-93
-87
-91
-93
-80
-70
-76
-84
-80
-70
-73
-93
-95
-72
-62
-68
-60
-43
-30
-8
4
-21
-56
-63
-51
-53
-74
-68
-37
-68
-152
-260
-328
191
1517
2245
1206
-258
-533
-164
-96
-154
-111
-107
-126
-102
-75
-63
-65
-69
-43
-13
-4
13
34
34
48
83
105
119
149
185
222
258
286
308
334
359
369
353
311
237
129
16
-59
-101
-132
-148
-150
-155
-162
-158
-152
-150
-144
-143
-151
-151
-142
-138
-138
-137
-142
-138
-119
-114
-127
-133
-129
-122
-113
-107
-110
-110
-104
-104
-107
-105
-95
-86
-87
-93
-93
-86
-76
-66
-66
-76
-79
-75
-71
-60
-44
-31
-19
-6
-6
-35
-75
-77
-53
-72
-79
-33
-65
-185
-303
-391
93
1529
2466
1433
-206
-555
-165
-123
-200
-132
-128
-153
-120
-110
-116
-92
-77
-73
-55
-36
-24
-5
14
31
52
72
93
126
154
171
204
251
279
297
326
342
321
271
199
102
0
-68
-99
-127
-154
-156
-150
-154
-154
-152
-161
-171
-168
-151
-122
-112
-132
-145
-135
-125
-123
-119
-114
-112
-106
-105
-111
-108
-94
-93
-108
-111
-100
-98
-102
-88
-67
-68
-86
-84
-65
-68
-81
-70
-55
-64
-75
-65
-52
-50
-54
-51
-36
-18
5
23
6
-33
-34
-9
-38
-80
-33
-4
-93
-183
-280
-169
861
2295
2189
510
-523
-284
-44
-149
-140
-94
-127
-110
-92
-126
-120
-86
-77
-54
-20
-16
-24
-14
6
25
44
70
114
149
152
163
202
239
268
294
308
313
298
230
126
38
-26
-82
-126
-152
-162
-167
-170
-168
-162
-157
-153
-151
-156
-164
-156
-137
-132
-140
-138
-133
-129
-109
-96
-120
-139
-122
-107
-117
-126
-119
-109
-105
-108
-109
-101
-94
-97
-99
-93
-89
-88
-82
-76
-75
-72
-67
-68
-69
-67
-64
-60
-54
-43
-24
-5
2
-4
-26
-60
-65
-45
-57
-63
-30
-65
-160
-246
-294
200
1516
2278
1258
-193
-443
-104
-102
-170
-108
-119
-149
-109
-93
-95
-69
-49
-48
-34
-13
-3
7
31
57
73
90
118
144
160
183
215
242
265
285
295
302
302
266
187
102
30
-32
-82
-109
-113
-115
-122
-123
-121
-125
-126
-125
-128
-130
-125
-119
-110
-101
-108
-122
-122
-115
-115
-115
-112
-115
-117
-109
-104
-106
-102
-102
-112
-110
-93
-88
-96
-96
-90
-85
-81
-77
-73
-70
-73
-80
-77
-67
-65
-71
-64
-49
-40
-19
14
15
-18
-41
-51
-57
-49
-58
-65
-35
-54
-140
-229
-334
-14
1222
2245
1500
-74
-564
-204
-94
-165
-112
-95
-123
-95
-70
-71
-66
-65
-65
-49
-29
-10
9
20
32
55
79
97
117
145
179
211
229
245
274
301
310
304
275
204
109
22
-47
-97
-128
-146
-152
-150
-150
-153
-149
-148
-150
-142
-133
-136
-139
-135
-133
-134
-132
-128
-127
-126
-125
-120
-115
-113
-114
-112
-105
-97
-93
-94
-94
-90
-89
-88
-85
-81
-79
-76
-72
-70
-69
-65
-64
-61
-54
-47
-38
-19
0
1
-10
-27
-49
-56
-47
-60
-62
-29
-61
-159
-265
-343
137
1501
2354
1353
-193
-518
-148
-97
-167
-112
-109
-130
-100
-89
-90
-72
-60
-54
-40
-25
-11
5
22
44
67
83
98
121
151
182
211
239
266
288
302
309
297
248
170
85
1
-73
-116
-133
-146
-158
-158
-152
-150
-147
-142
-141
-145
-143
-133
-127
-126
-122
-115
-113
-116
-113
-104
-102
-106
-105
-100
-97
-95
-92
-89
-86
-85
-86
-85
-82
-80
-79
-79
-77
-69
-63
-65
-69
-69
-66
-62
-56
-54
-57
-56
-52
-52
-52
-42
-32
-27
-11
10
13
-1
-16
-40
-58
-44
-46
-61
-33
-41
-135
-240
-353
-73
1170
2362
1766
109
-529
-197
-82
-176
-130
-115
-146
-111
-93
-102
-78
-66
-73
-52
-24
-20
-11
15
37
48
63
91
119
143
169
197
228
261
290
307
319
316
279
212
128
43
-31
-84
-116
-134
-151
-167
-168
-158
-153
-157
-156
-144
-135
-140
-141
-131
-125
-125
-122
-121
-121
-114
-112
-118
-115
-102
-97
-109
-116
-104
-91
-92
-96
-94
-93
-94
-90
-83
-82
-88
-92
-85
-73
-69
-76
-81
-76
-73
-75
-73
-64
-61
-61
-51
-24
-2
-8
-28
-40
-56
-66
-59
-71
-77
-44
-70
-174
-298
-368
171
1578
2377
1290
-262
-539
-153
-113
-182
-122
-121
-143
-113
-99
-94
-67
-51
-43
-25
-12
-3
11
22
36
66
104
130
152
181
217
256
294
321
340
365
386
374
318
231
133
43
-27
-81
-117
-131
-132
-142
-154
-150
-139
-140
-146
-138
-123
-121
-129
-128
-119
-111
-105
-101
-100
-99
-94
-92
-99
-109
-110
-103
-101
-105
-112
-116
-115
-113
-115
-114
-105
-98
-98
-95
-92
-93
-95
-92
-88
-88
-87
-82
-75
-70
-68
-67
-69
-75
-72
-58
-50
-54
-50
-31
-8
2
-6
-26
-55
-71
-54
-53
-82
-60
-40
-126
-223
-311
-185
840
2297
2230
524
-562
-315
-53
-172
-171
-115
-153
-140
-99
-107
-100
-71
-60
-49
-33
-22
-8
14
30
45
65
89
115
143
167
191
217
243
267
288
302
305
291
244
162
73
-2
-57
-92
-115
-129
-133
-133
-140
-144
-140
-137
-137
-136
-130
-120
-114
-115
-116
-111
-103
-99
-96
-94
-91
-88
-86
-90
-96
-96
-89
-83
-85
-90
-87
-79
-76
-81
-83
-74
-64
-65
-69
-68
-67
-67
-67
-69
-72
-66
-55
-51
-55
-61
-65
-67
-63
-56
-51
-48
-38
-16
9
15
-2
-27
-50
-61
-47
-49
-79
-57
-24
-102
-214
-311
-268
553
1979
2221
726
-522
-423
-80
-134
-160
-103
-137
-147
-102
-88
-84
-70
-69
-65
-39
-13
1
8
23
51
77
92
114
148
171
196
241
277
294
316
344
351
331
279
194
94
6
-63
-115
-148
-162
-162
-160
-161
-161
-157
-158
-162
-157
-142
-135
-140
-144
-139
-131
-123
-120
-123
-123
-114
-108
-111
-116
-118
-114
-105
-100
-104
-107
-102
-101
-102
-99
-92
-90
-92
-91
-89
-91
-93
-90
-85
-80
-74
-75
-83
-81
-66
-59
-64
-64
-42
-11
-2
-15
-32
-54
-70
-59
-61
-82
-52
-37
-127
-243
-371
-209
922
2331
2068
328
-618
-303
-53
-153
-135
-81
-108
-90
-53
-52
-41
-24
-24
-13
7
18
29
49
71
90
108
130
158
187
216
246
274
298
325
352
366
363
336
270
166
56
-29
-88
-130
-157
-170
-172
-170
-168
-168
-168
-165
-157
-154
-157
-158
-151
-146
-143
-138
-135
-137
-134
-127
-123
-121
-118
-116
-117
-117
-113
-107
-105
-107
-106
-100
-96
-94
-91
-88
-91
-90
-83
-78
-80
-82
-77
-71
-70
-69
-66
-65
-64
-58
-56
-56
-47
-36
-38
-40
-23
5
16
6
-6
-25
-45
-37
-38
-67
-44
-10
-90
-212
-326
-261
664
2153
2296
693
-514
-356
-54
-149
-163
-99
-136
-139
-99
-99
-96
-73
-63
-54
-37
-23
-6
13
26
41
60
82
105
129
155
186
215
241
262
278
291
298
283
233
153
63
-20
-84
-125
-146
-155
-159
-164
-166
-164
-164
-164
-161
-155
-151
-147
-143
-140
-136
-132
-130
-127
-121
-119
-119
-116
-114
-113
-111
-110
-110
-108
-106
-103
-99
-95
-95
-93
-86
-81
-79
-74
-65
-65
-73
-70
-56
-49
-46
-35
-26
-28
-32
-24
-10
-7
-19
-25
-23
-19
-5
21
49
62
48
17
1
6
17
9
-9
8
14
-60
-154
-242
-137
715
1949
1984
635
-331
-227
-26
-106
-113
-68
-96
-99
-75
-76
-71
-52
-44
-41
-30
-13
2
9
22
49
74
87
98
121
148
173
198
218
236
255
266
264
246
204
126
32
-46
-99
-137
-163
-174
-176
-179
-185
-188
-184
-182
-183
-181
-175
-175
-174
-168
-166
-167
-169
-168
-160
-153
-158
-162
-147
-133
-136
-135
-125
-124
-128
-120
-109
-107
-107
-108
-108
-106
-103
-99
-90
-80
-76
-74
-67
-63
-63
-67
-67
-58
-49
-47
-46
-41
-27
7
25
-1
-34
-42
-38
-32
-44
-52
-19
-25
-117
-229
-334
-28
1178
2283
1681
83
-550
-228
-68
-131
-95
-77
-104
-81
-59
-60
-45
-26
-17
-5
9
25
44
61
82
109
132
152
178
208
236
267
304
341
374
398
407
400
363
282
170
59
-30
-95
-142
-172
-182
-180
-184
-191
-188
-180
-172
-166
-166
-170
-169
-161
-159
-161
-156
-146
-143
-146
-144
-134
-128
-131
-133
-128
-122
-121
-124
-123
-111
-100
-103
-111
-113
-109
-107
-106
-100
-89
-86
-86
-82
-79
-79
-74
-67
-70
-70
-54
-27
-6
-3
-15
-36
-58
-65
-56
-71
-79
-41
-61
-164
-276
-369
12
1313
2349
1574
-33
-543
-195
-97
-177
-131
-119
-144
-110
-91
-100
-83
-63
-58
-46
-30
-17
1
24
43
60
83
107
126
147
177
210
241
271
296
313
324
320
286
212
113
17
-55
-102
-135
-156
-164
-165
-165
-162
-154
-149
-151
-151
-146
-141
-138
-134
-128
-123
-122
-119
-112
-107
-105
-100
-98
-101
-100
-96
-93
-91
-88
-87
-85
-81
-77
-73
-74
-74
-68
-62
-62
-61
-57
-53
-50
-45
-44
-45
-43
-39
-39
-37
-29
-24
-24
-16
6
29
36
26
8
-19
-35
-18
-18
-41
-17
-11
-102
-212
-310
-79
1044
2284
1919
320
-484
-225
-59
-152
-130
-104
-142
-122
-89
-95
-88
-69
-61
-46
-22
-5
1
11
31
52
66
85
110
132
157
189
221
246
271
294
303
301
287
235
137
36
-38
-92
-130
-156
-175
-180
-173
-172
-175
-175
-175
-169
-162
-163
-159
-147
-146
-150
-145
-143
-144
-131
-127
-141
-138
-120
-123
-134
-127
-118
-122
-122
-116
-114
-113
-111
-110
-113
-114
-106
-91
-83
-89
-96
-95
-96
-96
-87
-82
-85
-85
-77
-67
-51
-30
-22
-28
-35
-53
-78
-76
-71
-101
-100
-65
-115
-234
-372
-397
344
1862
2394
1010
-449
-524
-149
-159
-197
-136
-155
-160
-114
-104
-100
-77
-73
-65
-34
-9
1
18
43
68
89
116
147
176
209
256
302
333
363
401
430
435
414
354
248
120
8
-69
-120
-152
-171
-182
-187
-184
-180
-179
-174
-162
-156
-156
-150
-137
-128
-123
-115
-107
-104
-105
-104
-98
-90
-84
-83
-82
-80
-78
-72
-64
-61
-63
-60
-54
-50
-42
-30
-30
-37
-35
-26
-21
-20
-19
-18
-11
-1
3
2
15
42
63
62
48
25
0
8
28
3
-3
38
-7
-136
-269
-301
390
1930
2593
1254
-301
-431
-34
-59
-129
-59
-69
-93
-56
-46
-51
-38
-29
-22
-5
8
19
33
49
69
88
106
125
150
175
203
234
267
301
328
346
355
342
281
172
49
-55
-134
-193
-233
-255
-263
-267
-272
-273
-273
-275
-278
-278
-275
-269
-265
-269
-274
-272
-267
-264
-263
-264
-267
-268
-270
-272
-273
-275
-276
-275
-276
-275
-270
-268
-270
-271
-273
-273
-267
-259
-255
-257
-258
-256
-252
-248
-247
-247
-242
-236
-234
-232
-223
-213
-209
-203
-187
-162
-139
-132
-139
-153
-174
-174
-151
-157
-159
-115
-139
-253
-365
-419
109
1552
2479
1456
-168
-512
-125
-93
-173
-95
-80
-101
-57
-32
-29
4
35
51
75
101
127
158
188
215
246
277
305
339
378
415
455
498
537
569
596
621
632
607
540
451
368
302
256
228
216
214
217
221
228
235
241
248
254
258
261
265
266
267
270
271
270
271
271
266
260
255
249
240
229
218
208
194
178
165
152
135
118
99
75
52
37
19
-9
-37
-62
-88
-119
-147
-177
-211
-246
-279
-313
-350
-389
-429
-470
-512
-550
-586
-627
-670
-706
-736
-771
-822
-888
-958
-1026
-1090
-1148
-1203
-1259
-1304
-1364
-1518
-1753
-1795
-1268
-183
