# session 17
-48
-89
-16
10
-222
-510
-543
-451
-456
-468
-420
-381
-361
-354
-354
-322
-285
-278
-247
-206
-219
-233
-197
-164
-150
-133
-125
-109
-87
-96
-97
-44
-10
-35
-30
11
-12
-74
-54
-6
-59
-97
-27
-43
-178
-290
-322
288
1877
2770
1406
-531
-868
-283
-94
-149
-114
-87
-64
-36
-20
27
64
57
78
125
153
207
308
379
407
486
606
646
630
649
625
482
317
182
33
-96
-168
-210
-237
-265
-315
-348
-352
-365
-375
-358
-345
-338
-325
-326
-330
-322
-320
-296
-239
-218
-246
-259
-250
-226
-171
-128
-125
-116
-95
-95
-102
-95
-69
-30
-12
-16
-3
17
25
40
50
38
32
39
36
30
35
67
107
113
104
115
100
70
86
86
35
27
36
16
47
35
-125
-334
-508
10
1977
3712
2635
45
-873
-334
-178
-309
-193
-159
-239
-216
-176
-163
-153
-181
-139
-5
1
-110
-97
40
141
177
189
232
315
358
336
312
256
109
-35
-104
-173
-261
-290
-287
-308
-303
-261
-272
-331
-304
-148
-45
-155
-327
-348
-295
-306
-328
-309
-293
-285
-272
-273
-269
-222
-177
-206
-252
-227
-172
-156
-178
-205
-183
-127
-137
-178
-138
-94
-109
-79
-36
-104
-173
-126
-80
-95
-73
-14
-2
-4
33
36
-10
7
71
45
-26
-11
16
-22
8
71
-34
-210
-325
-144
1099
2959
3032
849
-781
-540
-46
-121
-138
-35
-74
-107
-69
-51
-31
1
19
49
104
143
166
211
271
325
403
502
562
594
625
586
453
309
162
-15
-150
-205
-247
-284
-281
-279
-293
-285
-270
-277
-280
-270
-266
-241
-190
-171
-194
-206
-195
-186
-176
-160
-149
-138
-127
-132
-145
-136
-121
-126
-133
-121
-106
-110
-126
-133
-114
-92
-98
-110
-99
-91
-97
-89
-74
-75
-81
-74
-50
-23
-21
-33
-35
-62
-99
-91
-91
-113
-77
-84
-232
-413
-500
62
1776
3129
2076
-157
-907
-391
-182
-270
-200
-167
-194
-143
-99
-101
-86
-63
-43
-7
30
73
133
194
254
331
414
490
545
570
566
520
397
208
25
-103
-182
-235
-270
-284
-284
-280
-275
-271
-268
-266
-258
-245
-229
-218
-221
-219
-198
-177
-169
-162
-154
-155
-154
-142
-134
-141
-147
-146
-145
-142
-134
-130
-126
-117
-107
-106
-112
-111
-103
-96
-92
-87
-85
-83
-70
-48
-39
-42
-30
-3
9
3
7
-4
-43
-50
-37
-67
-57
-6
-90
-277
-439
-298
930
2858
3080
968
-743
-602
-129
-187
-205
-117
-145
-143
-95
-104
-103
-67
-46
-19
21
46
79
133
184
232
299
376
444
484
485
445
374
272
117
-54
-141
-138
-158
-214
-228
-224
-265
-285
-221
-152
-154
-181
-183
-173
-168
-159
-146
-147
-153
-144
-129
-129
-133
-129
-122
-117
-112
-111
-109
-104
-102
-102
-100
-95
-86
-79
-83
-86
-82
-84
-87
-81
-80
-88
-90
-87
-90
-88
-82
-83
-83
-76
-66
-60
-61
-61
-41
-12
-12
-24
-21
-44
-91
-86
-73
-114
-100
-55
-165
-364
-518
-300
1065
2966
2981
842
-684
-507
-160
-259
-247
-170
-212
-199
-138
-132
-121
-86
-63
-36
-2
24
64
120
168
213
272
333
378
406
422
418
367
261
131
25
-48
-111
-167
-196
-202
-206
-213
-210
-196
-186
-185
-173
-157
-160
-159
-135
-124
-138
-136
-120
-123
-125
-110
-107
-123
-131
-125
-116
-109
-114
-119
-108
-102
-115
-124
-110
-92
-85
-87
-96
-102
-91
-75
-77
-85
-75
-57
-47
-42
-38
-29
-4
15
16
18
2
-69
-120
-91
-97
-155
-121
-79
-203
-386
-464
-9
1485
2879
2171
81
-862
-470
-216
-287
-231
-180
-207
-168
-120
-110
-82
-46
-23
6
36
76
135
191
244
322
411
486
538
570
582
550
444
286
128
-5
-104
-168
-209
-234
-244
-245
-239
-235
-241
-235
-213
-207
-209
-196
-184
-186
-184
-170
-157
-152
-149
-147
-150
-147
-134
-135
-152
-151
-134
-137
-150
-138
-120
-127
-134
-123
-112
-110
-109
-112
-122
-127
-118
-103
-88
-79
-67
-44
-27
-27
-27
-40
-78
-83
-66
-100
-105
-50
-120
-312
-471
-373
689
2559
3021
1110
-699
-671
-151
-184
-231
-128
-145
-160
-100
-83
-79
-41
-13
4
33
71
117
165
213
276
353
429
496
554
580
557
483
358
192
31
-83
-159
-215
-246
-254
-250
-251
-265
-268
-249
-232
-232
-226
-208
-200
-200
-188
-170
-168
-173
-163
-144
-139
-148
-148
-140
-136
-137
-136
-134
-136
-139
-136
-130
-127
-124
-121
-118
-115
-110
-102
-94
-94
-94
-82
-71
-75
-75
-60
-50
-48
-33
-9
-2
-7
-7
-28
-71
-72
-58
-87
-71
-28
-132
-326
-487
-327
964
2932
3104
960
-694
-528
-116
-220
-238
-152
-185
-182
-131
-134
-127
-91
-74
-59
-23
17
56
97
145
202
266
336
402
445
460
448
393
293
166
43
-58
-130
-175
-197
-207
-208
-207
-204
-198
-192
-187
-180
-174
-169
-163
-158
-152
-141
-133
-141
-149
-141
-132
-131
-129
-119
-106
-100
-102
-98
-93
-96
-101
-101
-101
-100
-99
-98
-100
-101
-101
-96
-88
-90
-96
-96
-94
-97
-95
-85
-76
-65
-53
-39
-24
-14
-15
-13
-22
-63
-84
-71
-95
-102
-37
-84
-282
-458
-460
370
2269
3272
1749
-342
-701
-200
-181
-280
-184
-178
-211
-153
-121
-131
-110
-79
-58
-35
-6
36
85
125
168
223
290
364
426
454
452
420
339
212
75
-36
-103
-146
-196
-244
-255
-234
-222
-227
-222
-205
-198
-195
-183
-175
-173
-167
-162
-158
-149
-146
-144
-131
-123
-130
-128
-113
-112
-121
-116
-106
-102
-97
-89
-92
-101
-99
-88
-85
-85
-78
-70
-71
-65
-50
-55
-70
-60
-41
-36
-24
7
25
20
18
10
-31
-55
-35
-51
-83
-36
-39
-201
-398
-479
138
1879
3135
1977
-197
-830
-317
-169
-265
-180
-153
-192
-148
-116
-117
-83
-55
-49
-23
17
52
99
156
211
272
349
427
487
521
525
497
415
265
92
-38
-123
-195
-244
-258
-260
-264
-261
-247
-238
-240
-239
-228
-220
-217
-205
-189
-182
-178
-169
-166
-167
-161
-146
-134
-134
-147
-159
-153
-145
-140
-127
-115
-116
-113
-100
-95
-99
-94
-87
-83
-75
-65
-66
-74
-67
-54
-56
-57
-39
-25
-29
-21
5
16
10
13
15
-17
-50
-38
-45
-75
-31
-19
-170
-362
-503
-132
1491
3223
2651
359
-761
-373
-134
-256
-202
-152
-204
-178
-132
-132
-112
-83
-69
-39
-3
26
61
102
146
200
263
327
382
416
429
423
373
263
125
0
-98
-168
-212
-238
-250
-253
-257
-261
-257
-253
-251
-244
-239
-238
-230
-222
-224
-230
-229
-223
-218
-215
-214
-209
-207
-208
-202
-197
-204
-194
-154
-110
-68
-38
-69
-101
-35
11
-77
-78
129
257
179
134
186
183
126
91
63
33
11
-16
-38
-39
-34
-41
-56
-57
-38
-29
-32
-4
45
44
12
2
-31
-69
-40
-74
-248
-437
-545
-8
1727
3150
2183
11
-747
-287
-122
-205
-67
52
27
-5
-33
-65
-71
-65
-52
-33
-19
8
50
82
110
155
209
263
314
349
362
351
303
213
99
-22
-124
-186
-223
-251
-263
-264
-270
-276
-275
-267
-245
-228
-235
-239
-221
-205
-205
-205
-195
-181
-176
-180
-174
-157
-156
-162
-149
-133
-135
-139
-130
-124
-127
-127
-116
-106
-109
-121
-121
-104
-91
-87
-83
-78
-77
-82
-90
-93
-75
-54
-58
-74
-70
-50
-42
-43
-29
-2
12
13
20
17
-15
-32
-22
-47
-52
7
-30
-201
-379
-366
508
2330
3131
1547
-411
-676
-170
-117
-180
-100
-106
-125
-64
-37
-42
-23
-10
3
36
68
95
135
186
239
301
373
442
497
534
546
519
434
292
126
-13
-109
-174
-214
-234
-248
-260
-261
-252
-244
-234
-221
-214
-211
-205
-202
-196
-180
-171
-177
-182
-176
-168
-160
-154
-153
-152
-148
-147
-154
-161
-154
-139
-138
-146
-140
-129
-130
-129
-118
-113
-112
-101
-91
-97
-112
-114
-103
-91
-88
-94
-95
-85
-73
-64
-54
-44
-30
-15
-8
-3
-12
-56
-84
-64
-78
-102
-49
-66
-242
-434
-505
154
2015
3360
2146
-114
-759
-264
-176
-294
-197
-174
-218
-171
-143
-153
-122
-87
-73
-46
-14
17
60
105
148
204
273
340
400
446
469
464
414
307
166
36
-60
-124
-169
-198
-212
-219
-219
-209
-195
-188
-189
-189
-181
-172
-169
-163
-156
-153
-147
-134
-128
-123
-107
-97
-104
-105
-91
-87
-97
-100
-93
-87
-84
-82
-76
-71
-74
-71
-40
-12
-24
-45
-45
-47
-44
-5
29
26
21
29
23
7
2
-2
-11
-19
-27
-37
-41
-32
-20
-21
-20
1
23
22
13
14
-7
-50
-55
-41
-70
-66
-32
-126
-312
-475
-343
845
2747
3063
1105
-584
-545
-151
-242
-282
-190
-207
-215
-169
-162
-157
-127
-108
-87
-51
-21
-2
25
69
128
182
230
281
327
359
379
366
305
215
107
-13
-118
-183
-214
-230
-236
-240
-243
-237
-227
-225
-227
-224
-217
-207
-194
-181
-174
-170
-171
-175
-165
-144
-137
-144
-137
-120
-123
-137
-129
-115
-118
-120
-106
-100
-108
-105
-93
-91
-98
-98
-88
-79
-80
-77
-65
-64
-70
-61
-68
-110
-126
-90
-67
-73
-62
-43
-45
-47
-29
-14
-11
-3
21
43
43
33
23
-4
-20
1
-3
-28
13
12
-134
-312
-388
167
1838
3190
2222
48
-750
-301
-108
-190
-114
-78
-124
-95
-59
-62
-44
-18
-7
12
42
75
111
154
210
266
316
378
451
505
529
533
496
395
245
91
-37
-136
-207
-247
-259
-257
-254
-253
-253
-254
-250
-236
-225
-231
-233
-216
-206
-207
-192
-173
-172
-170
-158
-155
-157
-150
-146
-154
-161
-161
-163
-168
-169
-164
-156
-149
-149
-149
-141
-134
-138
-138
-130
-127
-122
-112
-112
-114
-106
-104
-105
-98
-95
-103
-95
-72
-65
-75
-68
-35
-11
-12
-14
-30
-70
-75
-57
-91
-90
-32
-115
-325
-492
-412
647
2634
3299
1468
-449
-545
-81
-157
-238
-135
-140
-160
-124
-123
-118
-84
-65
-46
-20
4
46
95
124
159
223
291
351
405
444
463
459
408
305
177
46
-67
-141
-180
-207
-229
-241
-241
-235
-235
-238
-229
-210
-201
-200
-190
-180
-178
-164
-141
-138
-147
-137
-119
-122
-130
-119
-113
-117
-113
-110
-117
-106
-84
-86
-96
-88
-77
-74
-71
-70
-69
-69
-74
-73
-58
-50
-58
-63
-64
-62
-46
-33
-40
-41
-28
-21
-14
9
23
22
29
20
-25
-47
-33
-50
-52
-16
-79
-235
-374
-273
747
2494
2873
1038
-680
-674
-183
-175
-198
-120
-150
-152
-90
-85
-90
-51
-20
-8
11
43
87
129
169
224
290
353
425
500
546
558
544
482
350
173
9
-106
-186
-249
-284
-290
-291
-293
-290
-287
-282
-273
-271
-269
-255
-240
-234
-227
-219
-215
-206
-194
-188
-185
-178
-172
-173
-170
-158
-155
-162
-164
-157
-153
-153
-151
-144
-140
-141
-137
-127
-124
-127
-117
-97
-97
-118
-127
-112
-98
-95
-85
-73
-76
-81
-74
-66
-61
-38
-6
4
5
9
-23
-74
-70
-60
-90
-55
-16
-144
-335
-458
-177
1254
3075
2872
644
-748
-430
-65
-187
-182
-96
-122
-104
-55
-59
-45
-4
18
41
72
98
137
192
242
289
345
411
480
544
588
604
591
526
395
231
80
-34
-107
-155
-191
-201
-197
-212
-226
-212
-204
-215
-215
-213
-225
-228
-212
-197
-187
-178
-177
-182
-184
-186
-185
-174
-164
-161
-157
-159
-166
-159
-150
-156
-159
-149
-144
-144
-138
-132
-135
-133
-125
-119
-120
-124
-129
-127
-122
-127
-138
-138
-124
-113
-114
-117
-106
-87
-78
-72
-71
-103
-133
-127
-139
-154
-97
-101
-248
-410
-529
-57
1678
3209
2253
-37
-820
-296
-143
-278
-192
-159
-214
-175
-131
-134
-122
-86
-53
-62
-25
208
448
421
280
279
353
399
458
524
554
556
534
444
278
90
-66
-184
-268
-315
-338
-349
-343
-331
-330
-335
-329
-312
-296
-290
-291
-280
-257
-243
-240
-233
-223
-215
-204
-193
-186
-179
-172
-169
-165
-157
-151
-145
-136
-129
-126
-120
-109
-97
-93
-94
-81
-58
-52
-59
-52
-34
-26
-26
-25
-19
-10
-5
-5
0
13
22
26
39
57
68
85
111
128
129
109
76
77
98
112
165
180
28
-171
-320
-81
1406
3398
3239
858
-623
-266
84
-88
-64
29
-40
-36
28
23
23
58
72
79
104
136
165
194
232
275
322
381
442
492
531
552
542
494
404
274
138
25
-59
-115
-147
-165
-176
-177
-174
-178
-185
-185
-182
-183
-185
-189
-195
-193
-188
-188
-179
-165
-171
-190
-202
-209
-215
-222
-233
-240
-240
-244
-261
-275
-274
-272
-283
-297
-295
-288
-295
-312
-321
-324
-327
-331
-335
-346
-353
-347
-346
-365
-384
-382
-373
-377
-386
-384
-372
-370
-382
-393
-390
-381
-377
-368
-353
-345
-339
-323
-302
-289
-292
-322
-353
-350
-349
-349
-299
-300
-419
-557
-631
-160
1356
2636
1797
-200
-957
-534
-323
-387
-328
-290
-296
-247
-229
-230
-174
-122
-105
-73
-33
-1
44
99
151
217
292
348
400
466
523
548
544
507
427
316
204
117
74
56
28
12
43
77
77
89
137
171
180
195
220
246
270
282
292
316
340
355
370
382
387
398
415
425
432
441
451
464
467
463
470
477
466
460
481
497
483
464
456
452
447
443
430
404
389
390
379
349
326
325
328
325
315
302
295
300
313
316
293
234
174
159
145
88
64
64
-40
-224
-385
-216
898
2426
2373
475
-950
-844
-475
-524
-571
-552
-610
-642
-645
-688
-725
-736
-757
-785
-802
-807
-812
-819
-814
-793
-765
-739
-712
-677
-639
-628
-661
-725
-830
-985
