# session 1
-119
-184
-26
58
-451
-1231
-1515
-1471
-1588
-1744
-1813
-1530
-435
532
-133
-1601
-2027
-1635
-1493
-1509
-1394
-1339
-1355
-1312
-1253
-1207
-1147
-1086
-1028
-965
-911
-857
-797
-756
-739
-708
-664
-631
-593
-523
-434
-339
-220
-97
-11
32
62
80
64
27
-7
-36
-58
-59
-39
-3
42
72
92
127
159
165
188
250
306
331
347
368
375
366
372
402
417
400
393
407
404
390
399
421
433
432
414
388
372
374
381
375
364
378
403
398
389
398
386
363
399
462
477
461
457
438
386
339
322
317
325
338
303
239
170
136
598
1788
2536
1699
304
-73
291
442
385
413
455
457
477
507
537
590
650
673
653
624
607
579
555
574
543
343
51
-167
-282
-354
-411
-447
-463
-460
-440
-430
-470
-562
-658
-727
-766
-771
-743
-714
-718
-735
-726
-703
-723
-819
-922
-911
-814
-778
-786
-739
-723
-784
-788
-737
-712
-658
-593
-592
-556
-463
-455
-478
-413
-365
-388
-367
-294
-251
-247
-231
-176
-117
-94
-86
-98
-154
-212
-216
-190
-180
-173
-155
-161
-177
-178
-131
300
1290
1914
1241
30
-456
-287
-106
-25
25
18
16
56
77
48
8
-11
-22
-41
-33
7
17
-7
-10
4
20
50
81
87
79
64
72
172
352
494
543
535
495
425
345
276
236
231
238
239
238
251
271
280
273
261
262
275
285
291
295
291
274
258
250
239
220
196
178
165
140
108
104
121
120
109
98
65
21
-9
-52
-99
-103
-74
-48
-30
-38
-83
-123
-92
-4
9
-57
-29
9
-144
-340
-426
-158
1068
2568
2298
399
-687
-398
-159
-313
-353
-332
-343
-266
-216
-289
-334
-272
-170
-104
-88
-79
-50
-24
15
75
103
112
150
176
171
218
308
294
157
59
74
92
31
-71
-165
-227
-242
-241
-281
-368
-478
-641
-895
-1207
-1474
-1512
-1220
-830
-628
-537
-426
-381
-370
-271
-223
-324
-330
-159
-94
-212
-273
-214
-160
-148
-139
-106
-64
-49
-22
52
58
-32
-21
124
191
157
180
234
231
229
236
195
176
176
92
-42
-113
279
1600
2857
2237
355
-487
-139
45
-29
63
111
69
112
143
112
102
99
108
146
159
165
207
228
231
294
365
336
245
212
246
278
303
348
369
371
402
388
270
140
33
-103
-213
-249
-308
-393
-383
-303
-268
-251
-199
-183
-231
-237
-162
-121
-190
-239
-156
-87
-160
-217
-143
-95
-167
-224
-196
-170
-181
-181
-167
-172
-193
-197
-187
-170
-143
-139
-159
-134
-67
-61
-131
-187
-188
-175
-211
-226
-122
-87
-271
-432
-450
-152
1040
2428
2056
202
-772
-459
-196
-208
-125
-103
-154
-105
-59
-67
-37
11
8
-47
-75
9
125
135
107
143
178
174
187
211
237
296
326
282
276
323
292
188
103
13
-97
-161
-179
-199
-233
-279
-312
-299
-265
-245
-234
-245
-284
-305
-275
-245
-269
-305
-307
-300
-311
-319
-309
-287
-250
-225
-233
-230
-195
-185
-211
-210
-172
-155
-161
-152
-122
-106
-130
-149
-99
-24
-21
-88
-132
-118
-89
-100
-130
-106
-77
-126
-196
-277
-15
1327
2917
2511
390
-697
-206
158
14
23
92
32
67
172
157
92
107
156
166
155
164
185
202
224
249
274
331
435
542
613
650
665
643
584
556
561
488
331
207
118
14
-61
-91
-129
-162
-147
-128
-159
-192
-176
-159
-172
-181
-178
-168
-134
-110
-125
-124
-104
-126
-139
-97
-80
-91
-53
-21
-50
-56
-20
-15
-12
30
45
36
67
78
27
32
121
158
135
128
93
63
122
65
-228
-438
-538
-893
-1342
-1529
-1299
-130
1536
1562
-289
-1377
-793
-265
-476
-770
-993
-1120
-938
-710
-803
-1022
-1016
-801
-616
-629
-794
-908
-868
-818
-772
-492
-12
332
461
528
591
664
740
778
797
796
724
642
601
517
408
384
388
330
287
308
319
301
300
301
284
277
281
266
240
234
234
219
221
229
203
199
243
243
186
169
196
186
139
126
164
189
160
115
100
116
130
112
75
61
61
45
34
50
59
54
63
70
48
0
-48
-46
-12
-39
-76
-40
-81
-239
-358
-390
129
1624
2671
1592
-290
-774
-320
-217
-292
-220
-222
-264
-231
-220
-208
-134
-89
-106
-110
-99
-94
-64
-19
-8
-12
12
50
73
73
58
60
90
104
78
50
47
39
-5
-89
-196
-290
-330
-321
-316
-345
-373
-380
-384
-358
-284
-237
-252
-266
-255
-248
-241
-218
-195
-194
-208
-212
-215
-242
-246
-162
-63
-76
-157
-174
-132
-113
-108
-85
-66
-47
-21
-16
-5
39
37
-31
-51
-7
8
4
26
21
-18
-9
40
53
49
75
85
35
-14
-7
-10
-55
-36
23
-29
-148
-261
-159
783
2188
2255
746
-338
-271
-119
-172
-83
-28
-90
-73
-43
-65
-45
-33
-71
-38
47
41
-21
-22
16
51
94
129
131
121
118
107
90
101
134
141
128
138
123
33
-51
-67
-77
-105
-118
-116
-109
-99
-100
-93
-62
-61
-98
-107
-88
-76
-58
-54
-91
-102
-56
-17
-15
-26
-34
-34
-38
-41
-18
13
17
2
-3
15
35
27
9
14
27
27
20
21
33
38
30
18
-9
-40
-36
-20
-27
-34
-43
-72
-54
24
27
-75
-124
-76
-69
-112
-83
-60
-145
-231
-312
-153
912
2283
2025
231
-810
-513
-198
-229
-177
-129
-165
-124
-57
-37
1
36
27
25
34
28
45
90
108
97
93
100
109
124
134
124
111
102
82
58
36
-17
-112
-220
-320
-385
-403
-434
-485
-471
-413
-412
-439
-419
-376
-352
-337
-313
-283
-260
-241
-213
-178
-152
-131
-102
-81
-78
-63
-25
0
-7
-11
11
31
38
54
76
84
78
74
81
96
104
100
97
100
95
81
76
81
96
125
141
120
83
53
29
38
57
42
58
93
13
-125
-242
-172
786
2421
2681
947
-453
-275
125
30
-3
72
20
-21
-7
-12
3
39
55
78
108
117
117
128
148
169
173
155
150
170
183
173
164
166
160
134
99
53
-21
-116
-199
-257
-300
-332
-348
-346
-335
-323
-310
-292
-278
-278
-277
-266
-259
-263
-262
-255
-247
-242
-247
-254
-249
-240
-232
-221
-217
-228
-226
-211
-209
-215
-215
-225
-234
-215
-187
-187
-199
-205
-231
-272
-269
-215
-170
-157
-144
-119
-96
-70
-42
-18
1
9
-16
-59
-59
-27
-51
-83
-35
-44
-174
-293
-352
81
1493
2610
1687
-151
-660
-184
-55
-122
-15
9
-35
28
87
88
111
145
163
198
232
231
226
246
268
297
346
366
357
391
445
431
385
383
389
353
316
292
226
124
56
12
-54
-85
-42
-24
-68
-78
-46
-55
-62
-24
-23
-55
-28
3
-32
-61
-50
-58
-79
-76
-75
-84
-74
-55
-48
-43
-33
-26
-31
-37
-38
-37
-35
-25
-14
-9
-3
3
-14
-44
-43
-7
8
-22
-39
-5
38
48
32
-2
-43
-44
-12
-59
-165
-152
-88
-160
-260
-329
-269
534
1795
1759
212
-806
-585
-338
-439
-423
-366
-408
-399
-359
-352
-318
-302
-348
-361
-324
-315
-333
-325
-290
-255
-247
-258
-252
-238
-240
-245
-242
-233
-224
-251
-306
-332
-347
-416
-504
-547
-555
-566
-586
-594
-562
-525
-542
-584
-574
-541
-551
-545
-481
-455
-489
-451
-301
-219
-319
-404
-270
-52
55
111
212
297
296
292
452
774
1081
1301
1453
1495
1486
1515
1434
1134
846
747
700
586
500
505
509
472
471
499
476
464
499
458
358
320
411
925
1834
2047
922
-328
-501
-92
102
140
230
311
364
406
412
422
485
559
595
608
631
677
707
711
781
852
783
798
941
565
-419
-1063
-1010
-853
-832
-797
-810
-892
-943
-984
-1045
-1074
-1070
-1060
-1028
-977
-933
-885
-798
-703
-658
-657
-660
-658
-647
-620
-596
-581
-558
-522
-495
-485
-482
-475
-465
-466
-476
-468
-432
-387
-350
-320
-299
-291
-287
-277
-254
-225
-211
-210
-194
-169
-150
-122
-105
-138
-194
-220
-208
-185
-187
-178
-120
-125
-224
-330
-431
-11
1479
2673
1749
-98
-602
-149
-49
-124
-34
-39
-102
-41
35
57
82
137
208
266
322
417
507
558
599
546
368
289
398
535
635
657
551
505
649
759
724
675
621
512
422
381
338
307
298
286
310
376
327
114
-63
-84
-64
-86
-108
-107
-110
-129
-150
-163
-183
-209
-219
-222
-240
-257
-254
-257
-285
-313
-310
-292
-296
-314
-305
-263
-225
-204
-174
-157
-193
-232
-233
-256
-275
-234
-257
-400
-621
-834
-263
1608
2920
1737
-309
-829
-447
-448
-533
-425
-400
-370
-208
-88
-82
-106
-111
-80
-23
35
76
101
141
196
217
220
271
358
427
480
534
568
572
562
537
471
355
218
102
16
-50
-91
-102
-101
-107
-114
-114
-111
-118
-128
-125
-129
-155
-169
-156
-151
-162
-168
-169
-174
-179
-183
-160
-116
-103
-96
-81
-200
-434
-500
-366
-277
-247
-157
-62
-46
-136
-339
-555
-668
-712
-720
-658
-585
-552
-477
-350
-228
-133
-176
-401
-655
-724
5
1797
2937
1752
-237
-844
-617
-690
-751
-571
-469
-387
-205
-58
42
152
223
243
260
298
361
411
426
448
495
534
571
620
661
674
669
664
657
621
550
469
375
256
154
117
113
88
43
2
-22
-19
0
16
23
27
28
38
61
65
37
45
109
109
-5
-81
-31
32
31
7
-14
-44
-73
-90
-102
-122
-149
-166
-172
-188
-218
-249
-277
-301
-310
-299
-279
-285
-336
-375
-363
-368
-374
-315
-325
-467
-613
-745
-368
1192
2622
1813
-241
-992
-563
-390
-448
-357
-319
-327
-260
-220
-213
-181
-175
-195
-194
-192
-197
-185
-159
-133
-98
-51
1
55
113
168
226
290
338
355
359
341
269
152
45
-25
-72
-106
-122
-116
-105
-103
-94
-66
-30
-7
0
11
41
68
71
60
48
31
10
-2
5
19
22
20
31
56
73
78
86
103
111
110
123
150
165
161
158
159
159
173
201
215
207
173
110
69
60
22
-1
31
-32
-213
-402
-446
371
2204
3072
1615
-183
-422
-69
-149
-228
-147
-172
-195
-154
-162
-180
-159
-155
-165
-159
-151
-152
-150
-137
-116
-93
-69
-32
7
30
50
81
98
85
74
73
37
-64
-194
-299
-364
-409
-442
-467
-493
-505
-494
-481
-470
-444
-416
-403
-395
-393
-399
-388
-356
-339
-335
-325
-315
-320
-327
-322
-311
-300
-287
-254
-207
-171
-154
-132
-105
-96
-107
-112
-98
-65
-38
-34
-28
-3
15
27
62
105
127
122
90
73
82
71
91
151
88
-100
-309
-354
584
2586
3422
1760
-111
-234
237
210
157
253
250
251
298
276
242
250
249
231
219
220
237
252
252
255
273
290
306
328
347
363
389
415
431
444
446
406
305
165
26
-92
-186
-250
-287
-312
-332
-344
-353
-364
-371
-365
-358
-360
-364
-357
-346
-338
-331
-321
-318
-321
-314
-298
-288
-286
-283
-283
-288
-284
-273
-270
-272
-267
-256
-245
-241
-243
-239
-223
-211
-214
-215
-204
-187
-157
-128
-127
-148
-173
-188
-179
-199
-249
-230
-230
-381
-571
-737
-520
895
2680
2442
378
-773
-464
-239
-355
-284
-209
-248
-215
-166
-170
-151
-118
-104
-77
-40
-10
23
55
75
106
170
244
304
366
431
480
516
545
547
528
503
442
331
219
127
31
-35
-38
-28
-39
-39
-19
-6
-8
-8
6
28
44
60
82
98
112
133
145
142
140
135
118
105
99
82
52
31
27
19
-14
-52
-67
-70
-74
-66
-49
-53
-74
-82
-83
-87
-90
-99
-117
-117
-101
-99
-109
-108
-104
-135
-186
-182
-147
-178
-197
-160
-235
-396
-505
-425
503
2218
2651
858
-824
-775
-293
-322
-339
-248
-296
-321
-263
-259
-272
-243
-230
-235
-199
-128
-81
-61
-17
41
63
66
93
137
179
219
261
298
316
310
285
226
109
-48
-191
-291
-356
-394
-413
-423
-423
-400
-365
-330
-291
-246
-219
-209
-197
-179
-161
-147
-137
-124
-103
-89
-82
-63
-46
-45
-36
-14
-1
6
17
26
31
33
30
27
29
30
23
17
19
34
64
93
96
81
57
28
30
41
-4
-3
75
14
-179
-362
-380
625
2778
3620
1679
-417
-498
24
-58
-119
1
-41
-76
-16
-20
-40
-19
-23
-39
-32
-29
-23
5
35
54
66
72
80
109
164
233
291
332
370
398
382
309
183
7
-160
-252
-285
-312
-330
-332
-343
-361
-359
-348
-350
-351
-329
-304
-292
-271
-243
-241
-254
-241
-222
-224
-222
-217
-225
-220
-193
-183
-186
-173
-159
-160
-157
-147
-140
-134
-132
-137
-133
-119
-116
-126
-124
-103
-87
-94
-100
-79
-48
-42
-58
-65
-68
-91
-95
-80
-119
-145
-96
-150
-332
-500
-548
275
2296
3368
1755
-365
-628
-102
-127
-223
-117
-119
-133
-68
-51
-46
-5
20
42
78
95
104
128
155
180
207
231
258
289
314
338
366
393
413
424
418
391
336
242
115
3
-51
-76
-105
-122
-116
-109
-103
-100
-113
-119
-92
-67
-66
-67
-59
-58
-67
-75
-80
-88
-100
-111
-128
-158
-178
-173
-169
-179
-187
-185
-184
-182
-177
-177
-182
-186
-185
-186
-191
-191
-184
-178
-168
-149
-138
-148
-148
-118
-100
-113
-109
-75
-57
-72
-90
-106
-140
-163
-143
-138
-157
-113
-100
-228
-361
-456
-196
1151
2712
2262
204
-812
-433
-205
-321
-269
-233
-301
-277
-216
-201
-177
-146
-130
-107
-76
-50
-27
-4
27
69
104
128
166
215
253
290
334
367
380
384
375
330
228
87
-34
-112
-172
-220
-238
-231
-217
-203
-188
-164
-128
-95
-77
-62
-40
-23
-17
-9
3
9
