# session 21
-37
-92
56
46
-440
-952
-1014
-888
-882
-875
-814
-774
-728
-695
-707
-695
-641
-600
-571
-548
-537
-512
-468
-436
-410
-389
-381
-352
-289
-248
-254
-259
-239
-241
-273
-232
-151
-220
-396
-520
-436
448
2134
2765
1224
-539
-729
-260
-201
-244
-176
-173
-168
-118
-116
-120
-74
-34
-27
-20
11
60
94
104
123
164
210
262
312
339
361
391
399
381
351
278
166
72
2
-60
-98
-113
-116
-114
-116
-119
-115
-110
-97
-78
-88
-111
-99
-75
-78
-75
-56
-62
-89
-97
-77
-65
-84
-100
-79
-68
-90
-94
-70
-63
-69
-66
-72
-79
-50
-10
-2
0
2
-34
-64
-64
-79
-63
-18
-104
-287
-431
-334
739
2636
3129
1278
-468
-472
-82
-206
-236
-116
-190
-234
-101
-49
-117
-116
-52
-53
-94
-84
-25
35
64
59
71
136
211
234
222
240
287
293
266
267
247
142
23
-27
-44
-80
-113
-115
-115
-147
-167
-128
-91
-110
-126
-105
-105
-134
-136
-105
-84
-90
-103
-90
-64
-76
-103
-83
-64
-99
-124
-100
-88
-107
-106
-89
-79
-61
-43
-55
-80
-88
-77
-61
-63
-73
-55
-26
-25
-26
-17
-45
-72
-40
-41
-91
-63
-37
-156
-316
-421
-106
1253
2760
2395
524
-506
-322
-199
-306
-248
-204
-259
-255
-233
-232
-203
-180
-182
-157
-130
-140
-139
-101
-70
-62
-46
-23
-3
15
31
41
48
52
55
42
-11
-76
-125
-187
-257
-278
-266
-275
-292
-287
-279
-280
-281
-278
-271
-266
-270
-262
-232
-226
-253
-263
-245
-242
-243
-228
-225
-235
-228
-222
-228
-209
-191
-206
-205
-179
-184
-194
-166
-144
-144
-130
-121
-125
-98
-45
-12
1
1
-32
-66
-47
-44
-86
-42
34
-51
-224
-358
-156
1066
2721
2667
765
-523
-323
-10
-80
-42
44
8
7
55
72
95
133
166
198
224
248
283
315
352
414
477
529
585
643
691
734
769
784
785
769
713
622
528
456
412
382
311
175
46
0
17
44
63
71
77
81
68
56
67
66
37
38
74
88
75
78
96
105
101
94
89
90
95
101
98
91
93
101
99
99
122
158
162
121
100
133
140
54
-101
-270
-385
-440
-503
-530
-520
-634
-822
-958
-923
15
1875
2486
719
-1095
-1191
-798
-917
-1000
-871
-976
-1404
-1761
-1744
-1661
-1996
-2560
-2844
-2790
-2644
-2518
-2377
-2298
-2547
-2998
-2902
-1951
-855
-209
167
501
734
874
985
1041
1036
1010
981
956
953
961
967
974
982
988
992
993
991
988
981
968
949
933
929
920
887
856
845
832
805
778
752
729
721
702
654
612
599
586
562
538
509
477
453
435
408
385
378
359
319
294
291
282
265
248
231
205
156
121
112
68
31
58
-5
-194
-364
-420
229
1949
3042
1803
-182
-670
-280
-282
-404
-327
-317
-369
-354
-347
-365
-358
-341
-336
-336
-328
-308
-291
-281
-270
-255
-229
-197
-175
-157
-136
-129
-134
-132
-133
-150
-186
-254
-340
-393
-400
-409
-447
-472
-453
-421
-412
-416
-409
-394
-394
-401
-383
-356
-357
-366
-363
-352
-320
-289
-306
-332
-308
-279
-280
-264
-234
-244
-265
-240
-207
-215
-227
-195
-157
-157
-160
-133
-113
-123
-128
-109
-72
-34
-28
-43
-5
69
81
38
21
19
21
53
75
84
98
34
-101
-229
-175
706
2401
3027
1492
-246
-434
2
38
1
69
59
72
134
114
79
120
179
207
212
212
233
273
304
325
363
413
447
468
503
550
571
557
537
517
454
315
125
-36
-111
-159
-248
-317
-316
-301
-305
-313
-323
-318
-301
-309
-319
-298
-290
-309
-297
-270
-279
-283
-247
-235
-266
-280
-254
-233
-246
-282
-316
-325
-307
-286
-282
-277
-256
-236
-225
-213
-199
-183
-151
-116
-104
-96
-80
-100
-136
-124
-120
-143
-98
-97
-256
-428
-550
-189
1436
3163
2545
271
-748
-332
-158
-306
-240
-190
-230
-188
-169
-207
-190
-155
-143
-114
-83
-65
-27
18
53
96
121
125
186
283
298
269
297
337
328
298
247
155
66
9
-41
-68
-59
-63
-84
-78
-72
-82
-57
-16
-35
-80
-74
-44
-36
-32
-14
2
1
-18
-28
-14
3
2
-15
-34
-24
10
6
-28
-16
21
6
-30
-26
-15
-29
-39
-32
-27
-18
6
22
18
15
7
-24
-39
-28
-54
-70
-35
-88
-246
-390
-422
279
1994
2967
1667
-202
-566
-171
-185
-275
-202
-222
-250
-195
-194
-217
-185
-158
-159
-152
-136
-120
-100
-73
-38
-7
10
37
73
92
110
141
157
149
142
120
49
-43
-102
-146
-206
-245
-233
-218
-237
-263
-248
-197
-186
-239
-255
-200
-188
-236
-246
-221
-184
-126
-133
-206
-176
-94
-160
-261
-196
-93
-93
-82
-8
8
-37
-31
-5
-49
-122
-145
-118
-80
-65
-67
-65
-62
-46
0
32
23
16
10
-6
4
7
-21
3
17
-102
-262
-405
-201
1117
2825
2649
636
-608
-356
-67
-160
-132
-67
-107
-101
-70
-91
-92
-61
-52
-43
-11
13
22
43
77
105
135
175
210
251
322
384
385
369
375
339
237
141
67
-29
-124
-164
-167
-173
-181
-192
-216
-227
-212
-197
-190
-179
-169
-160
-145
-135
-129
-120
-125
-139
-134
-123
-132
-138
-128
-125
-135
-141
-138
-127
-115
-110
-114
-124
-135
-137
-124
-112
-119
-126
-107
-76
-69
-71
-64
-90
-125
-106
-100
-124
-73
-63
-216
-388
-518
-158
1432
3049
2372
194
-705
-274
-120
-264
-196
-153
-202
-167
-141
-168
-153
-115
-102
-89
-65
-43
-19
5
26
59
104
141
177
226
271
298
318
327
308
262
187
81
-19
-80
-122
-160
-181
-181
-181
-187
-193
-195
-190
-178
-163
-152
-144
-128
-111
-103
-97
-88
-83
-90
-100
-98
-89
-87
-90
-85
-75
-74
-75
-71
-66
-64
-66
-70
-71
-65
-56
-53
-55
-54
-50
-50
-54
-56
-39
-9
9
10
7
-12
-44
-45
-39
-66
-50
-16
-103
-255
-394
-286
770
2399
2559
846
-469
-359
-82
-189
-195
-122
-161
-168
-129
-128
-123
-102
-97
-85
-62
-49
-36
-12
14
40
65
85
103
125
155
185
200
200
199
188
152
95
31
-28
-73
-101
-114
-120
-128
-133
-129
-118
-113
-116
-118
-120
-124
-120
-108
-100
-99
-107
-118
-116
-102
-106
-122
-121
-110
-108
-111
-106
-94
-94
-108
-111
-100
-90
-79
-67
-70
-85
-85
-77
-80
-85
-75
-60
-59
-60
-41
-12
-4
-11
-14
-32
-62
-64
-60
-74
-45
-26
-123
-270
-409
-254
850
2333
2264
576
-547
-383
-133
-207
-186
-121
-149
-137
-91
-94
-105
-92
-73
-53
-36
-20
1
22
40
67
104
133
159
198
238
250
250
262
270
250
212
160
83
-5
-66
-94
-109
-125
-139
-133
-112
-106
-121
-130
-121
-111
-112
-114
-109
-101
-101
-102
-98
-95
-95
-94
-94
-95
-94
-94
-95
-91
-86
-86
-87
-85
-86
-92
-91
-84
-82
-83
-75
-69
-79
-84
-58
-26
-22
-30
-43
-71
-75
-61
-85
-88
-45
-103
-255
-401
-423
351
2037
2755
1300
-388
-557
-163
-189
-242
-163
-185
-206
-157
-140
-134
-108
-105
-107
-80
-50
-34
-16
10
36
60
91
131
171
205
229
239
241
240
228
192
130
55
-17
-75
-115
-140
-152
-154
-153
-158
-169
-178
-182
-185
-180
-166
-152
-139
-125
-114
-109
-106
-102
-102
-101
-96
-95
-97
-93
-88
-89
-92
-93
-88
-78
-72
-73
-72
-67
-62
-56
-51
-51
-51
-47
-43
-49
-53
-37
-10
5
12
18
-6
-38
-34
-40
-64
-29
-28
-153
-291
-395
-92
1264
2709
2223
341
-545
-236
-92
-214
-166
-131
-171
-137
-104
-121
-109
-84
-82
-73
-47
-28
-15
2
24
48
71
91
112
134
157
176
187
190
185
169
135
82
21
-29
-65
-88
-99
-105
-113
-114
-108
-108
-113
-109
-104
-105
-103
-98
-99
-100
-93
-85
-84
-86
-84
-82
-82
-83
-83
-81
-79
-77
-77
-75
-74
-72
-70
-67
-64
-64
-67
-70
-71
-67
-62
-64
-66
-62
-60
-63
-55
-34
-20
-19
-18
-37
-69
-68
-66
-90
-65
-49
-153
-283
-395
-234
877
2360
2249
536
-535
-332
-122
-235
-220
-168
-202
-182
-149
-168
-162
-128
-113
-97
-77
-70
-56
-29
-7
16
46
67
91
127
153
159
166
181
186
169
136
88
27
-27
-66
-94
-109
-112
-114
-113
-111
-119
-126
-117
-104
-94
-88
-93
-96
-91
-89
-89
-81
-69
-62
-62
-70
-78
-80
-76
-67
-59
-57
-56
-54
-51
-48
-45
-51
-57
-51
-41
-35
-32
-34
-38
-35
-26
-26
-30
-19
8
32
32
3
-33
-35
-29
-58
-48
-4
-75
-233
-391
-388
486
2180
2705
1125
-448
-492
-111
-163
-209
-138
-156
-161
-125
-131
-133
-107
-93
-75
-51
-45
-34
-3
24
42
70
104
131
160
196
218
223
230
238
221
176
115
45
-29
-89
-126
-144
-151
-152
-150
-144
-131
-118
-121
-135
-136
-122
-117
-123
-123
-115
-110
-112
-114
-112
-111
-112
-109
-103
-100
-101
-104
-107
-105
-98
-93
-96
-100
-95
-86
-85
-86
-83
-79
-80
-83
-85
-83
-75
-66
-71
-73
-49
-18
-5
-6
-25
-56
-58
-55
-81
-61
-29
-126
-277
-415
-334
712
2399
2601
842
-514
-376
-77
-201
-215
-141
-178
-178
-132
-135
-133
-107
-95
-83
-66
-52
-31
-8
9
31
62
89
115
142
165
180
190
193
187
170
137
87
30
-22
-63
-92
-110
-119
-121
-118
-116
-114
-111
-110
-110
-109
-107
-103
-98
-94
-91
-88
-88
-91
-88
-81
-78
-76
-72
-70
-69
-64
-61
-60
-59
-54
-48
-45
-43
-41
-38
-32
-29
-34
-38
-32
-24
-22
-25
-23
-19
-19
-18
-13
-7
-5
4
24
41
49
39
4
-13
-1
-18
-24
16
-28
-161
-286
-338
248
1740
2582
1438
-170
-459
-109
-120
-197
-135
-154
-193
-166
-161
-160
-125
-102
-93
-69
-47
-35
-21
-3
15
36
59
82
103
121
136
145
145
140
132
116
85
38
-15
-59
-88
-108
-118
-121
-120
-119
-116
-115
-115
-118
-126
-125
-109
-100
-108
-115
-109
-101
-101
-107
-113
-114
-106
-98
-106
-121
-112
-85
-83
-99
-98
-91
-96
-97
-88
-85
-79
-69
-70
-73
-68
-72
-83
-76
-60
-59
-68
-68
-66
-73
-70
-49
-31
-28
-17
2
5
-18
-50
-54
-33
-45
-59
-31
-62
-177
-326
-403
234
1784
2573
1326
-304
-541
-138
-117
-182
-118
-124
-142
-106
-97
-91
-65
-65
-66
-40
-19
-6
17
45
73
104
131
158
189
219
244
256
255
251
250
231
183
124
58
-14
-70
-89
-92
-98
-101
-96
-88
-85
-89
-94
-94
-90
-93
-102
-104
-95
-91
-94
-97
-98
-98
-93
-87
-89
-93
-92
-90
-90
-90
-86
-86
-90
-87
-77
-74
-82
-87
-86
-82
-77
-74
-73
-73
-74
-78
-79
-76
-69
-63
-63
-57
-35
-13
-6
-11
-37
-69
-68
-66
-84
-54
-36
-137
-287
-454
-289
943
2520
2330
494
-582
-325
-94
-203
-183
-136
-177
-161
-127
-137
-126
-100
-95
-84
-62
-45
-26
-1
19
37
64
99
129
156
183
203
214
220
221
207
171
112
41
-25
-74
-102
-115
-122
-122
-118
-113
-112
-113
-112
-111
-112
-111
-107
-101
-99
-98
-96
-91
-89
-89
-90
-89
-89
-88
-86
-84
-83
-83
-77
-69
-66
-69
-72
-69
-60
-54
-59
-62
-56
-52
-54
-52
-46
-45
-43
-40
-36
-31
-27
-31
-35
-28
-18
-29
-62
-75
-50
-24
-13
-8
-23
-51
-44
-29
-53
-36
5
-69
-203
-337
-306
595
2176
2485
907
-437
-377
-70
-158
-185
-119
-149
-150
-103
-100
-100
-77
-67
-61
-43
-28
-13
10
29
42
66
99
120
129
144
163
168
165
164
157
135
96
41
-14
-53
-85
-111
-118
-117
-119
-110
-99
-113
-127
-113
-103
-107
-92
-79
-97
-104
-77
-62
-79
-96
-95
-79
-68
-74
-70
-44
-44
-85
-99
-78
-75
-84
-69
-56
-66
-62
-43
-59
-92
-84
-56
-57
-73
-70
-59
-52
-45
-45
-51
-53
-55
-52
-38
-33
-48
-47
-27
-26
-26
-1
21
22
5
-30
-47
-41
-56
-51
-25
-82
-203
-355
-337
555
2085
2357
829
-448
-379
-76
-155
-187
-128
-147
-145
-108
-108
-108
-84
-64
-54
-49
-31
-1
9
10
39
78
98
122
155
177
195
218
221
202
189
179
148
99
45
-11
-58
-87
-100
-102
-104
-108
-103
-93
-91
-95
-91
-93
-108
-111
-97
-93
-100
-96
-85
-87
-101
-104
-91
-79
-80
-88
-90
-84
-77
-79
-81
-77
-79
-82
-73
-70
-79
-75
-64
-70
-71
-60
-59
-61
-53
-54
-63
-57
-44
-49
-58
-43
-16
-1
3
-13
-52
-62
-47
-71
-83
-37
-65
-196
-354
-465
70
1600
2573
1497
-201
-587
-213
-163
-227
-165
-168
-186
-139
-128
-142
-123
-106
-104
-89
-65
-39
-17
-3
17
50
84
112
143
175
200
222
242
247
238
223
188
125
53
-8
-58
-90
-100
-106
-118
-118
-106
-102
-108
-107
-101
-104
-111
-109
-101
-98
-96
-91
-89
-90
-89
-90
-91
-87
-84
-88
-88
-81
-73
-72
-76
-73
-66
-65
-72
-74
-68
-63
-67
-74
-78
-79
-77
-71
-66
-70
-75
-72
-64
-57
-50
-42
-36
-22
1
16
19
5
-26
-33
-18
-36
-39
2
-51
-191
-320
-368
272
1851
2689
1448
-213
-473
-105
-126
-202
-128
-139
-168
-125
-110
-113
-91
-76
-72
-52
-29
-17
-5
16
44
70
96
129
161
185
200
210
214
217
218
201
157
94
24
-36
-76
-102
-124
-136
-135
-132
-132
-134
-137
-133
-123
-121
-128
-127
-121
-119
-116
-108
-105
-108
-109
-106
-102
-100
-97
-95
-93
-91
-89
-85
