# session 14
-65
-125
34
28
-479
-985
-971
-757
-690
-635
-551
-520
-470
-392
-364
-392
-449
-501
-541
-595
-585
-468
-413
-485
-505
-444
-431
-437
-391
-354
-348
-340
-348
-382
-399
-385
-370
-375
-344
-264
-244
-268
-213
-172
-209
-242
-280
180
1667
2718
1540
-440
-861
-281
-128
-176
-39
16
0
65
99
72
74
100
132
184
222
244
300
364
365
339
348
366
360
349
306
200
97
21
-85
-150
-100
-68
-131
-145
-80
-46
-40
-38
-59
-42
53
150
159
72
18
113
192
91
-4
49
115
139
124
16
-156
-279
86
1371
2494
1791
46
-646
-307
-121
-120
-18
-22
-108
-104
-116
-184
-192
-174
-210
-224
-155
-69
-4
50
56
14
2
16
-21
-92
-119
-107
-105
-122
-142
-157
-162
-160
-161
-165
-171
-174
-160
-131
-117
-141
-184
-177
-150
-252
-450
-501
-387
-303
-252
-179
-184
-212
-134
-112
-251
-421
-540
-27
1694
3085
2105
9
-700
-321
-224
-298
-220
-221
-280
-262
-226
-197
-149
-77
-14
-14
1
104
161
126
148
225
229
195
199
194
131
45
-28
-92
-157
-229
-304
-348
-337
-307
-288
-261
-227
-208
-186
-134
-94
-103
-97
-47
-36
-64
-64
-69
-105
-126
-111
-80
-107
-227
-375
-622
-596
793
2927
3026
770
-808
-591
-234
-320
-273
-195
-266
-265
-183
-133
-105
-80
-29
37
52
61
138
216
243
269
309
310
252
188
160
115
19
-41
-44
-88
-171
-170
-56
46
36
-11
30
107
83
-13
-66
-57
-9
36
26
-11
-13
-20
-68
-89
-77
-124
-193
-203
-272
-434
-556
-584
-94
1299
2286
1290
-477
-922
-453
-293
-316
-254
-280
-303
-254
-267
-277
-222
-194
-165
-84
-25
7
74
142
165
163
142
104
78
79
77
36
-31
-79
-115
-152
-155
-136
-158
-199
-193
-158
-128
-90
-62
-70
-75
-42
-21
-30
-27
-18
-10
23
38
2
-11
22
40
49
55
-13
-257
-443
327
2149
3000
1558
-265
-561
-171
-174
-243
-160
-151
-156
-101
-110
-170
-163
-107
-92
-108
-81
-22
24
86
179
230
206
162
132
85
10
-52
-67
-79
-137
-195
-202
-205
-244
-244
-178
-137
-156
-164
-154
-172
-202
-189
-160
-181
-215
-186
-155
-195
-229
-219
-232
-225
-181
-228
-377
-572
-522
578
2387
2651
763
-782
-670
-274
-334
-331
-243
-263
-252
-197
-155
-108
-127
-189
-138
-24
-2
-34
17
149
221
184
153
178
172
128
81
1
-61
-27
25
19
4
-12
-63
-96
-66
-45
-87
-137
-158
-191
-222
-200
-160
-153
-150
-117
-75
-60
-66
-39
12
-13
-67
-29
-17
-123
-243
-407
-209
1196
2853
2482
523
-451
-133
33
-114
-100
-74
-126
-122
-114
-125
-89
-64
-109
-133
-71
16
83
160
239
297
353
383
369
393
428
361
269
264
243
152
100
110
105
77
80
121
152
132
39
-88
-53
130
-75
-802
-1244
-973
-574
-496
-565
-581
-526
-450
-358
-275
-300
-404
-515
-450
463
1970
2008
17
-1595
-1598
-1246
-1069
-681
-381
-338
-235
-127
-146
-130
-58
-29
1
61
101
127
150
142
111
76
34
-8
-30
-35
-29
-30
-59
-98
-111
-97
-86
-92
-98
-71
-22
12
32
79
144
157
121
123
165
168
155
187
231
246
229
187
180
225
245
238
236
198
60
-237
-262
874
2619
2813
1157
-149
-150
81
25
-11
-22
-61
-38
-28
-74
-68
-13
10
32
107
164
136
93
109
143
140
104
58
13
-38
-87
-99
-91
-115
-164
-216
-260
-272
-281
-326
-333
-260
-202
-207
-213
-189
-152
-122
-115
-105
-71
-44
-71
-136
-169
-176
-232
-288
-262
-298
-446
-575
-719
-448
994
2480
1891
-4
-747
-362
-237
-342
-262
-218
-243
-200
-179
-187
-151
-135
-155
-145
-113
-89
-83
-111
-126
-66
16
39
13
-27
-68
-108
-149
-190
-221
-246
-272
-278
-261
-249
-239
-214
-208
-232
-253
-269
-292
-308
-325
-343
-326
-314
-374
-415
-364
-345
-367
-325
-340
-422
-384
-433
-649
-564
-93
807
2401
3360
2168
544
660
1301
885
186
-24
-111
-210
-215
-233
-245
-181
-159
-184
-120
-2
62
115
194
238
246
268
273
220
141
78
28
-32
-93
-105
-78
-92
-138
-138
-109
-115
-131
-117
-100
-86
-39
13
38
71
99
58
-1
1
11
-27
-58
-67
-82
-48
-8
-76
-204
-340
-181
960
2471
2287
375
-818
-511
-132
-173
-121
-18
-6
106
266
326
364
383
296
203
206
211
171
170
223
249
209
153
154
179
154
138
150
63
-81
-106
-44
-21
-21
-23
-47
-55
-56
-93
-56
128
262
153
-55
-110
-29
-16
-123
-229
-262
-256
-268
-311
-340
-329
-288
-260
-312
-434
-622
-733
-6
1741
2647
1331
-469
-868
-590
-647
-737
-678
-708
-766
-776
-826
-885
-911
-957
-1008
-981
-847
-675
-554
-513
-521
-557
-602
-629
-673
-793
-918
-950
-977
-1085
-1168
-1171
-1204
-1307
-1376
-1328
-1299
-1411
-1305
-725
-364
-684
-821
-143
670
1012
1093
1163
1214
1180
1093
1118
1180
987
719
787
1002
1018
889
745
1133
2649
4064
3464
1571
478
440
697
1022
1220
1150
973
644
90
-396
-624
-720
-770
-786
-814
-818
-749
-705
-683
-468
-89
162
336
665
882
573
-115
-730
-965
-753
-422
-389
-520
-436
-224
-104
15
212
456
827
1274
1574
1720
1872
2037
2164
2233
2183
1977
1688
1364
985
620
505
767
1094
1190
1223
1207
1209
2115
3615
3256
617
-1433
-1538
-1092
-947
-929
-1075
-1333
-1501
-1606
-1672
-1676
-1692
-1709
-1654
-1605
-1619
-1584
-1448
-1306
-1225
-1178
-1143
-1135
-1144
-1160
-1208
-1277
-1306
-1297
-1295
-1267
-1190
-1135
-1111
-1062
-1018
-1028
-1020
-963
-926
-912
-866
-821
-805
-765
-721
-719
-698
-635
-609
-623
-627
-615
-538
-433
-470
-596
-703
-722
-16
1568
2226
832
-658
-531
213
576
902
1239
1328
1388
1516
1518
1537
1704
1637
1135
628
421
343
277
267
255
182
117
95
62
29
39
26
-36
-68
-105
-156
0
353
562
609
777
1092
1443
1758
1819
1532
1127
806
639
619
565
353
137
22
-46
-64
-42
-66
-152
-204
-147
-77
-117
-274
-572
-597
542
2231
2263
508
-701
-572
-311
-350
-341
-342
-437
-510
-555
-560
-491
-420
-378
-325
-268
-209
-118
1
112
188
222
228
212
173
105
0
-104
-165
-208
-252
-281
-299
-294
-260
-251
-230
-114
-29
-99
-180
-175
-194
-251
-265
-245
-234
-221
-202
-214
-245
-237
-216
-226
-215
-224
-342
-510
-645
-310
1072
2405
1721
-230
-981
-482
-208
-245
-139
-64
-65
9
81
103
150
208
228
230
270
348
400
413
446
475
444
399
373
307
208
133
58
-24
-72
-111
-169
-183
-154
-164
-202
-209
-214
-239
-238
-215
-209
-205
-203
-247
-297
-302
-324
-400
-445
-458
-508
-536
-513
-530
-545
-521
-593
-716
-822
-890
-163
1602
2334
676
-1201
-1364
-892
-853
-856
-786
-834
-832
-763
-764
-768
-749
-773
-773
-713
-677
-667
-615
-550
-512
-465
-412
-407
-441
-467
-483
-513
-567
-617
-602
-485
-298
-85
97
191
253
386
576
771
967
1102
1133
1164
1269
1350
1361
1395
1480
1515
1455
1377
1330
1287
1268
1300
1271
1145
1022
911
1226
2499
3657
3045
1517
1083
1541
1715
1691
1765
1745
1760
1857
1532
714
25
-265
-400
-503
-555
-606
-650
-639
-620
-682
-813
-922
-961
-979
-1033
-1121
-1191
-1175
-1097
-1062
-1083
-1083
-1054
-1037
-1024
-1002
-973
-936
-919
-927
-920
-897
-882
-867
-845
-828
-799
-753
-736
-748
-720
-667
-676
-678
-588
-551
-637
-738
-869
-532
1022
2545
1836
-255
-1119
-746
-590
-665
-558
-490
-469
-356
-309
-358
-348
-279
-213
-151
-106
-72
-16
50
107
167
228
264
268
253
207
110
2
-57
-78
-80
-62
-49
-58
-44
13
57
57
56
86
120
118
98
115
139
106
75
118
148
118
124
147
109
119
177
91
-96
-297
-297
764
2655
2973
986
-632
-472
-50
-129
-105
7
-24
2
89
94
95
143
181
207
232
254
294
358
430
493
493
407
350
386
355
200
130
182
123
-65
-139
-43
27
-19
-75
-79
-63
-37
-20
-39
-52
-35
-47
-107
-149
-143
-116
-87
-65
-78
-125
-153
-150
-181
-212
-151
-130
-255
-397
-526
-243
1181
2717
2174
143
-777
-393
-215
-350
-289
-226
-271
-247
-183
-142
-94
-75
-86
-63
-30
-30
-20
7
10
14
48
71
61
53
59
59
54
41
10
-15
-1
26
22
0
-9
-10
-20
-36
-53
-52
-17
13
-6
-41
-44
-28
2
45
15
-97
-140
-90
-107
-170
-139
-115
-230
-422
-575
-128
1424
2719
1851
-163
-941
-589
-444
-516
-456
-442
-466
-397
-333
-316
-288
-254
-223
-186
-156
-121
-62
-12
-19
-37
13
72
36
-45
-97
-165
-263
-362
-468
-549
-563
-563
-583
-591
-598
-615
-610
-605
-630
-645
-639
-658
-695
-704
-692
-697
-707
-713
-752
-798
-794
-780
-778
-760
-806
-914
-1051
-1215
-612
1378
2837
1694
-366
-878
-428
-199
49
385
566
789
1018
1010
937
1006
1111
1178
1255
1322
1363
1431
1512
1549
1602
1763
1943
1979
1908
1876
1891
1887
1906
2041
2196
2085
1654
1128
586
15
-400
-589
-726
-874
-959
-1002
-1059
-1112
-1151
-1197
-1253
-1288
-1284
-1274
-1295
-1315
-1293
-1282
-1283
-1224
-1189
-1231
-1245
-1333
-1211
38
1743
1641
-131
-1053
-615
-263
-299
-229
-152
-169
-123
-54
-46
-23
66
190
317
413
460
497
572
663
715
734
755
785
812
815
781
710
541
235
-86
-271
-346
-393
-417
-425
-442
-458
-458
-462
-477
-486
-472
-447
-446
-473
-483
-442
-399
-403
-404
-361
-339
-348
-310
-303
-412
-563
-740
-503
894
2397
1804
-254
-1143
-700
-462
-534
-435
-350
-346
-282
-226
-201
-149
-96
-45
16
80
171
282
354
384
406
428
437
410
353
288
211
111
11
-62
-76
-36
-23
-78
-130
-116
-73
-62
-91
-114
-110
-114
-144
-164
-140
-98
-75
-62
-51
-79
-113
-83
-53
-63
-12
35
-43
-168
-359
-232
1216
3159
2916
607
-727
-408
-156
-301
-252
-188
-239
-209
-176
-215
-200
-128
-83
-56
-22
15
56
93
139
212
267
245
196
203
229
203
148
107
81
69
74
78
66
34
2
-8
-8
-23
-45
-64
-88
-115
-141
-179
-212
-219
-221
-221
-194
-167
-163
-145
-132
-153
-124
-69
-139
-285
-455
-409
624
2295
2489
777
-542
-460
-226
-334
-314
-241
-285
-284
-240
-243
-235
-202
-185
-174
-158
-135
-91
-48
-26
-6
16
8
-20
-30
-29
-29
-34
-64
-107
-111
-92
-94
-91
-67
-56
-44
-15
-16
-54
-73
-71
-77
-85
-80
-67
-47
-33
-40
-58
-72
-62
-41
-55
-48
25
20
-100
-262
-384
257
2045
3098
1738
-194
-498
-30
-20
-96
-14
-30
-43
23
55
92
158
201
277
368
436
561
664
714
922
1043
912
1233
1392
-513
-3215
-3489
-2059
-1691
-2029
-1693
-1112
-823
-829
-1222
-1535
-1236
-753
-547
-408
-210
-125
-133
-49
123
189
161
317
671
871
780
586
404
281
254
196
44
-156
-392
-14
1663
3061
2019
-159
-815
-298
-130
-182
-75
-63
-107
-54
-24
-26
23
80
122
173
216
255
305
342
364
387
396
379
345
289
207
127
77
48
17
-19
-47
-53
-43
-36
-39
-42
-40
-41
-45
-43
-43
-53
-68
-72
-61
-51
-50
-64
-94
-111
-121
-192
-277
-256
-232
-316
-442
-632
-402
1100
2757
2216
138
-771
-398
-267
-403
-330
-282
-321
-286
-247
-237
-208
-193
-185
-150
-109
-69
-29
-7
16
59
79
78
106
107
9
-97
-88
-11
34
47
55
52
39
39
64
107
151
155
93
1
-52
-61
-74
-91
-75
-55
-77
-92
-45
3
1
-24
-58
-70
-53
-110
-242
-404
-562
-86
1427
2425
1373
-324
-746
-446
-456
-527
-463
-491
-528
-478
-450
-445
-412
-391
-377
-331
-275
-237
-206
-153
-56
67
150
154
110
73
58
30
-12
-21
14
44
28
-7
26
168
319
334
222
109
56
30
3
-25
-38
-33
-31
-50
-80
-117
-152
-144
-132
-177
-176
-107
-165
-338
-514
-652
-55
1644
2567
1160
-673
-858
-331
-287
-341
-242
-220
-218
-174
-88
100
228
180
171
204
97
124
517
799
639
451
510
582
531
439
374
343
279
140
15
-30
-36
-30
-25
-35
-42
-48
-81
-124
-142
-143
-154
-181
-207
-205
-190
-193
-199
-191
-202
-220
-209
-217
-232
-181
-163
-252
-388
-587
-325
1175
2673
1965
-77
-848
-407
-247
-347
-274
-251
-297
-252
-219
-232
-209
-174
-151
-119
-78
-33
18
53
65
72
71
48
11
-26
-66
-116
-161
-192
-214
-226
-217
-206
-204
-190
-161
-149
-154
-150
-141
-138
-127
-112
-120
-140
-137
-126
-132
-128
-120
-142
-153
-147
-169
-154
-103
-159
-292
-455
-542
228
1923
2516
992
-512
-500
-145
-233
-250
-148
-180
-197
-140
-126
-121
-90
-67
-39
5
43
84
133
172
192
188
157
124
105
88
61
28
-9
-31
-30
-25
-27
-26
-20
-18
-19
-11
6
16
14
17
22
12
-4
-30
-60
-40
-24
-27
277
940
1227
760
230
150
156
-24
-194
-366
-408
496
2062
2231
586
-608
-400
-100
-222
-239
-159
-152
-127
-118
-155
-147
-127
-145
-140
-101
-65
-19
26
25
11
31
53
34
-3
-35
-79
-139
-192
-228
-250
-259
-261
-269
-278
-284
-296
-307
-307
-306
-314
-318
-315
-323
-323
-295
-276
-285
-273
-243
-256
-269
-244
-258
-279
-217
-207
-309
-423
-590
-286
1194
2477
1538
-420
-931
-394
-261
-341
-235
-202
-221
-152
-111
-101
-46
3
37
93
146
188
246
307
348
368
358
322
287
259
218
161
108
72
51
37
31
40
56
57
46
45
61
72
73
75
82
83
83
91
