# session 15
-28
-8
-86
51
460
711
660
578
559
516
466
452
449
434
409
378
333
292
290
282
243
243
240
161
39
-151
-12
1213
2616
2096
157
-674
-181
91
-23
16
62
6
8
28
22
48
79
93
124
151
148
165
227
275
268
234
205
184
152
93
16
-48
-85
-113
-138
-151
-156
-159
-162
-167
-167
-156
-144
-148
-171
-188
-175
-149
-146
-170
-200
-226
-235
-216
-182
-162
-172
-180
-170
-189
-202
-145
-139
-253
-447
-709
-374
1295
2791
1943
-51
-647
-226
-226
-388
-282
-223
-253
-227
-220
-231
-194
-154
-128
-93
-51
-6
38
73
110
137
123
77
39
20
-4
-54
-108
-137
-154
-192
-237
-244
-215
-195
-203
-215
-208
-192
-184
-184
-186
-189
-192
-197
-197
-175
-132
-101
-97
-97
-91
-97
-104
-96
-105
-99
-51
-81
-207
-332
-470
-142
1249
2501
1812
102
-508
-211
-163
-244
-159
-149
-192
-160
-159
-160
-76
-16
-20
16
83
113
127
152
185
207
182
120
88
97
92
57
18
-10
-19
-28
-50
-68
-74
-79
-78
-70
-61
-55
-57
-70
-84
-87
-74
-55
-58
-74
-65
-51
-62
-59
-34
-33
-51
-80
-112
-82
-40
-121
-307
-536
-437
742
2406
2439
665
-600
-476
-180
-209
-170
-100
-137
-156
-124
-97
-85
-83
-59
-1
61
126
187
207
201
214
225
200
154
86
-1
-46
-43
-75
-136
-152
-154
-175
-156
-110
-109
-114
-82
-69
-79
-69
-76
-114
-107
-59
-55
-83
-76
-52
-60
-72
-52
-41
-58
-58
-53
-73
-58
-13
-46
-181
-393
-354
628
2110
2250
741
-468
-470
-236
-263
-239
-167
-176
-166
-115
-97
-105
-93
-62
-35
-22
-7
24
54
66
59
44
36
25
-14
-70
-92
-90
-118
-170
-196
-189
-170
-169
-199
-212
-185
-162
-158
-156
-169
-179
-164
-171
-213
-230
-222
-223
-216
-202
-215
-229
-228
-239
-239
-227
-239
-219
-174
-226
-345
-492
-499
326
1838
2224
856
-373
-377
-135
-193
-192
-142
-174
-153
-86
-68
-56
-12
32
58
82
133
204
263
305
336
342
317
274
239
213
179
139
94
39
-5
-20
-24
-26
-14
2
10
7
-20
-58
-61
-44
-51
-55
-21
-8
-48
-52
1
10
-21
-1
21
-2
-6
-8
-39
-23
-10
-106
-280
-427
-26
1341
2398
1515
-260
-826
-386
-168
-194
-148
-143
-164
-120
-88
-80
-41
2
24
53
94
143
206
253
254
244
241
202
117
32
-33
-90
-137
-168
-200
-246
-268
-241
-216
-227
-226
-194
-182
-202
-215
-208
-193
-184
-174
-156
-151
-162
-155
-123
-97
-92
-102
-117
-143
-190
-212
-143
-68
-139
-276
-357
-452
-130
1210
2463
1788
-69
-862
-495
-246
-277
-234
-195
-164
-72
-46
-99
-103
-41
17
19
35
164
256
179
152
259
236
80
31
48
-10
-74
-99
-146
-195
-201
-215
-240
-218
-221
-314
-370
-312
-234
-189
-161
-142
-112
-83
-96
-105
-63
-37
-64
-84
-81
-76
-57
-31
-42
-60
-34
-37
-100
-146
-176
119
1181
2159
1563
-29
-719
-365
-87
-89
-36
25
43
88
106
83
101
114
50
-10
8
53
93
148
207
234
227
214
214
206
160
103
71
52
24
-5
-36
-64
-59
-29
-16
-22
-26
-38
-47
-37
-42
-73
-82
-77
-96
-111
-104
-106
-117
-134
-178
-200
-183
-200
-208
-136
-142
-278
-421
-535
-35
1643
2872
1654
-523
-1064
-462
-277
-379
-346
-342
-320
-199
-130
-108
-46
6
19
39
85
144
203
247
269
275
269
234
156
64
-19
-107
-181
-225
-275
-327
-323
-288
-289
-308
-310
-309
-291
-240
-198
-181
-164
-160
-177
-194
-215
-249
-254
-217
-187
-179
-157
-139
-155
-164
-176
-233
-234
-169
-210
-383
-670
-730
521
2784
3318
1262
-526
-495
-150
-253
-233
-122
-141
-112
-43
-29
0
50
84
136
192
198
201
268
349
363
317
281
302
338
301
214
177
180
162
127
85
33
-3
-28
-85
-156
-159
-119
-135
-179
-166
-164
-229
-262
-227
-213
-228
-208
-177
-186
-207
-191
-156
-146
-165
-206
-241
-210
-171
-251
-417
-611
-548
522
2216
2464
809
-520
-457
-205
-305
-287
-193
-221
-209
-121
-79
-91
-126
-134
-43
104
174
172
206
241
187
125
155
201
152
36
-41
-63
-95
-128
-142
-197
-261
-223
-145
-145
-139
-69
-63
-140
-167
-146
-127
-78
-91
-213
-200
-18
27
-43
-11
21
-27
-46
-46
-68
-87
-87
-33
1
-105
-312
-414
188
1729
2583
1203
-810
-1175
-498
-260
-332
-255
-179
-171
-161
-177
-162
-63
20
40
74
125
139
185
292
330
263
221
221
158
28
-58
-69
-84
-144
-200
-202
-171
-163
-182
-171
-136
-125
-116
-78
-73
-113
-108
-49
-41
-89
-85
-38
-57
-114
-67
53
35
-124
-154
-15
7
-104
-66
53
-70
-432
-632
49
1757
2793
1540
-509
-1022
-485
-271
-169
39
-105
-338
-205
-46
-72
1
113
90
202
482
480
209
166
381
449
279
138
122
76
19
83
71
-158
-250
-93
-92
-263
-248
-133
-133
-103
-35
-113
-197
-115
-48
-101
-129
-103
-111
-154
-176
-154
-137
-178
-207
-151
-89
-99
-138
-168
-156
-123
-195
-364
-552
-652
52
1816
2751
1405
-365
-619
-251
-313
-392
-291
-261
-245
-205
-206
-188
-152
-156
-145
-82
3
94
149
153
175
227
208
122
76
82
68
20
-53
-129
-164
-172
-187
-167
-121
-145
-212
-206
-162
-174
-200
-160
-94
-81
-103
-100
-84
-78
-54
-32
-53
-62
-32
-43
-69
-8
45
7
4
30
-56
-238
-417
-105
1280
2668
2125
249
-682
-457
-297
-335
-239
-164
-161
-114
-74
-55
-16
11
34
80
113
135
183
231
257
277
278
248
212
173
118
51
-9
-42
-34
-5
-31
-122
-155
-98
-80
-120
-134
-141
-172
-172
-140
-128
-139
-186
-277
-327
-270
-199
-196
-196
-179
-220
-296
-317
-332
-376
-340
-259
-324
-507
-693
-665
197
1700
2100
748
-531
-534
-174
-153
-152
-74
-81
-102
-63
-21
-6
-15
-24
-12
10
42
101
143
130
122
182
264
290
251
186
120
66
35
35
42
37
42
78
114
119
122
157
199
209
197
184
153
121
148
179
116
31
53
128
164
166
124
50
37
62
8
-62
-53
-82
-212
-380
-484
23
1443
2362
1356
-317
-747
-343
-226
-281
-209
-186
-229
-229
-217
-222
-211
-171
-143
-144
-110
-53
-65
-101
-62
-30
-74
-120
-155
-237
-323
-374
-432
-483
-472
-438
-442
-466
-471
-453
-427
-412
-423
-427
-400
-382
-380
-323
-225
-175
-156
-116
-84
-73
-51
-16
19
41
32
40
75
61
48
97
66
-95
-297
-366
416
2186
3015
1592
-153
-374
-1
-54
-132
-43
-41
-71
-58
-64
-61
-28
-1
32
81
124
167
222
268
286
280
265
252
227
164
67
-33
-100
-111
-76
-45
-34
-26
-17
-17
-12
9
33
47
49
35
22
31
34
14
8
17
18
33
63
72
72
78
61
43
45
30
37
81
36
-115
-295
-333
392
1895
2484
1187
-274
-425
-97
-118
-169
-115
-139
-177
-177
-204
-239
-252
-258
-250
-218
-181
-156
-140
-133
-130
-126
-131
-164
-216
-261
-304
-354
-384
-392
-403
-408
-379
-336
-298
-254
-205
-176
-168
-149
-127
-153
-228
-300
-345
-370
-374
-374
-393
-379
-288
-187
-133
-108
-121
-174
-236
-287
-264
-177
-185
-319
-456
-312
636
1998
2084
569
-593
-451
-89
-98
-87
-12
-17
2
61
75
77
107
146
183
220
255
297
353
411
446
443
423
400
364
305
236
169
118
92
74
56
55
68
75
78
78
65
39
18
4
-8
-21
-39
-61
-74
-79
-82
-79
-76
-87
-88
-74
-90
-118
-109
-114
-138
-106
-110
-243
-423
-574
-202
1221
2465
1715
-71
-672
-279
-169
-264
-197
-170
-204
-174
-148
-144
-116
-91
-68
-23
21
55
99
140
161
168
159
128
83
28
-32
-88
-132
-163
-185
-197
-197
-188
-179
-171
-167
-167
-163
-155
-153
-158
-155
-145
-145
-154
-156
-154
-158
-144
-107
-90
-98
-100
-109
-112
-95
-105
-113
-69
-96
-244
-423
-544
9
1599
2625
1541
-159
-509
-155
-178
-261
-171
-167
-195
-152
-136
-133
-93
-61
-42
-5
35
68
107
146
165
161
146
126
99
66
28
-17
-59
-87
-100
-101
-96
-91
-87
-88
-96
-107
-109
-108
-108
-103
-101
-107
-111
-111
-112
-112
-115
-115
-95
-72
-64
-55
-60
-86
-94
-96
-113
-84
-55
-141
-297
-458
-334
688
2060
2001
481
-507
-357
-154
-224
-198
-148
-174
-162
-122
-104
-81
-57
-41
-7
39
84
118
138
160
182
174
146
128
111
70
19
-25
-54
-60
-53
-55
-56
-53
-60
-64
-52
-54
-76
-86
-93
-113
-120
-110
-106
-102
-95
-107
-119
-107
-87
-72
-65
-81
-115
-119
-99
-109
-112
-77
-112
-258
-436
-466
192
1569
2146
948
-464
-583
-159
-101
-137
-90
-115
-115
-44
-28
-38
7
53
64
89
139
181
220
270
305
314
303
266
202
123
38
-31
-71
-106
-149
-163
-137
-120
-140
-159
-147
-132
-136
-139
-131
-125
-126
-127
-125
-123
-127
-134
-132
-116
-113
-126
-127
-120
-126
-122
-114
-138
-133
-78
-114
-269
-463
-481
303
1803
2262
856
-537
-539
-140
-150
-179
-107
-119
-124
-83
-72
-55
-21
-2
28
78
116
160
222
265
275
275
269
236
173
92
6
-70
-122
-149
-168
-186
-186
-169
-160
-161
-158
-152
-152
-152
-147
-145
-145
-141
-137
-138
-137
-138
-143
-134
-113
-105
-100
-90
-112
-144
-127
-118
-134
-89
-72
-200
-389
-589
-345
1067
2586
2077
159
-679
-308
-138
-236
-176
-150
-190
-149
-115
-126
-108
-94
-97
-53
15
48
85
168
227
219
202
202
171
109
51
-1
-56
-96
-117
-138
-141
-104
-71
-83
-105
-103
-101
-100
-81
-72
-88
-100
-96
-93
-84
-63
-60
-103
-138
-102
-36
-14
-19
-12
-27
-63
-65
-64
-84
-54
-41
-168
-325
-455
-359
645
2149
2223
630
-495
-352
-118
-224
-238
-172
-154
-120
-109
-134
-120
-90
-74
-31
29
63
88
124
144
146
174
209
179
104
56
17
-45
-79
-70
-79
-112
-130
-133
-117
-80
-65
-80
-94
-107
-116
-92
-70
-95
-107
-84
-96
-129
-107
-69
-68
-68
-70
-89
-60
8
-9
-96
-122
-84
-51
-20
-35
-125
-243
-414
-290
801
2157
1941
329
-606
-375
-116
-153
-139
-105
-116
-95
-72
-69
-61
-49
-16
43
85
111
151
191
216
230
224
195
166
125
61
-8
-76
-144
-169
-147
-146
-182
-192
-170
-163
-162
-143
-135
-150
-146
-117
-109
-130
-146
-138
-133
-149
-157
-144
-138
-134
-105
-76
-77
-77
-57
-65
-109
-127
-121
-139
-132
-110
-197
-361
-520
-568
138
1713
2419
1132
-393
-538
-162
-176
-225
-157
-173
-174
-110
-95
-96
-58
-34
-22
24
87
134
164
184
198
211
221
213
173
110
50
6
-26
-46
-71
-104
-114
-91
-76
-75
-71
-71
-78
-77
-69
-65
-63
-62
-64
-68
-66
-60
-53
-40
-29
-31
-33
-32
-42
-47
-31
-12
6
18
-10
-42
-39
-42
-38
-3
-45
-181
-349
-452
86
1493
2297
1307
-102
-384
-137
-171
-221
-158
-169
-181
-138
-127
-124
-92
-66
-44
-10
25
65
109
138
155
175
183
154
104
67
37
-10
-70
-114
-129
-133
-144
-153
-150
-145
-136
-121
-121
-138
-142
-133
-134
-133
-120
-120
-129
-121
-109
-118
-125
-116
-112
-116
-113
-104
-93
-85
-88
-83
-49
-25
-51
-77
-80
-99
-98
-64
-104
-234
-420
-446
362
1871
2304
914
-446
-491
-155
-173
-194
-121
-127
-130
-93
-87
-72
-25
5
21
57
107
157
196
226
255
277
272
238
195
139
62
-14
-66
-100
-125
-139
-140
-135
-134
-140
-141
-130
-122
-126
-129
-127
-123
-117
-110
-111
-120
-118
-108
-103
-106
-109
-109
-105
-90
-86
-99
-97
-78
-65
-47
-29
-59
-96
-90
-95
-103
-64
-94
-246
-453
-572
65
1694
2596
1378
-311
-588
-192
-185
-254
-173
-165
-179
-134
-117
-112
-82
-59
-40
-12
24
77
138
186
223
239
225
202
171
110
42
-6
-56
-110
-136
-134
-131
-137
-141
-136
-120
-99
-97
-112
-111
-88
-78
-97
-106
-81
-46
-34
-47
-59
-60
-61
-70
-77
-66
-36
-22
-43
-55
-24
9
14
18
17
-9
-36
-48
-23
30
-3
-144
-311
-430
30
1454
2492
1647
66
-404
-123
-77
-139
-110
-127
-127
-82
-80
-69
-26
-16
-5
41
78
109
166
217
240
246
237
212
185
158
119
58
-15
-73
-103
-117
-127
-135
-140
-135
-121
-120
-137
-148
-148
-149
-158
-168
-172
-159
-150
-161
-170
-168
-173
-184
-192
-197
-191
-183
-185
-183
-177
-184
-182
-160
-145
-134
-114
-119
-148
-159
-175
-210
-189
-146
-206
-353
-540
-473
484
1889
1986
540
-549
-473
-234
-279
-271
-218
-236
-226
-191
-182
-158
-123
-103
-74
-27
21
69
114
151
177
185
177
157
128
88
27
-51
-105
-126
-147
-158
-142
-129
-134
-135
-128
-115
-95
-80
-72
-63
-65
-72
-61
-38
-30
-32
-28
-21
-13
-11
-11
-2
5
-1
5
26
34
31
47
70
85
102
95
58
47
54
36
48
77
-2
-173
-369
-290
778
2393
2529
834
-448
-318
-4
-70
-64
11
-13
-8
35
43
54
79
97
132
178
211
249
308
356
381
395
398
371
318
251
172
86
13
-38
-70
-84
-88
-95
-105
-117
-136
-144
-118
-84
-85
-109
-124
-129
-137
-145
-150
-158
-174
-188
-196
-207
-222
-236
-246
-251
-259
-274
-285
-290
-301
-311
-311
-329
-385
-425
-435
-474
-498
-473
-551
-780
-1002
-928
44
1723
2055
-58
