# session 34
0
-6
14
49
25
-52
-79
-40
-8
7
35
67
98
130
165
203
238
263
285
305
309
284
228
144
54
-23
-82
-119
-132
-138
-148
-152
-147
-143
-140
-132
-125
-122
-119
-117
-114
-109
-103
-99
-95
-92
-89
-85
-78
-78
-84
-84
-77
-74
-77
-76
-71
-66
-63
-65
-67
-61
-58
-59
-59
-56
-58
-57
-52
-48
-49
-48
-42
-40
-42
-37
-32
-37
-37
-21
-3
14
31
32
13
-11
-31
-36
-36
-54
-41
5
-38
-157
-274
-355
162
1611
2499
1415
-230
-559
-140
-75
-159
-108
-104
-130
-97
-77
-82
-71
-56
-43
-28
-21
-10
9
23
40
75
115
144
159
174
207
251
280
308
357
394
382
351
316
237
107
-13
-88
-137
-172
-188
-189
-189
-192
-193
-191
-188
-181
-175
-178
-178
-168
-164
-170
-170
-165
-166
-166
-159
-154
-150
-143
-140
-138
-134
-132
-131
-128
-123
-119
-115
-113
-113
-112
-108
-105
-104
-103
-101
-96
-90
-87
-86
-83
-81
-82
-75
-63
-59
-57
-44
-23
-3
3
-9
-29
-47
-46
-33
-52
-64
-21
-43
-163
-284
-390
-1
1430
2633
1815
14
-560
-159
-65
-176
-118
-99
-138
-107
-85
-93
-74
-54
-51
-40
-25
-13
6
25
40
58
79
104
137
169
195
224
261
297
322
340
353
350
310
226
119
20
-57
-115
-150
-162
-166
-174
-183
-186
-180
-173
-168
-161
-152
-144
-138
-133
-131
-127
-123
-121
-116
-110
-108
-107
-102
-98
-99
-104
-103
-96
-93
-96
-93
-87
-89
-89
-82
-78
-86
-91
-85
-76
-75
-77
-73
-68
-67
-67
-66
-64
-62
-59
-57
-59
-59
-55
-47
-41
-35
-22
2
19
16
4
-12
-39
-52
-36
-41
-60
-23
-24
-133
-244
-345
-118
1066
2382
1974
278
-524
-216
-59
-173
-140
-106
-147
-125
-95
-103
-91
-69
-63
-49
-30
-19
-4
12
27
46
69
91
114
139
168
202
236
264
286
300
310
315
297
245
162
66
-17
-72
-106
-130
-143
-147
-151
-156
-157
-155
-151
-144
-142
-143
-137
-127
-120
-116
-116
-120
-118
-108
-100
-100
-100
-99
-98
-97
-95
-93
-91
-90
-89
-88
-89
-91
-91
-90
-88
-84
-80
-79
-77
-74
-74
-77
-77
-74
-68
-64
-67
-72
-72
-65
-58
-56
-58
-61
-58
-49
-42
-34
-17
1
7
0
-8
-17
-42
-58
-40
-44
-63
-33
-39
-137
-241
-340
-51
1171
2327
1721
75
-567
-225
-73
-147
-112
-103
-135
-105
-80
-83
-65
-50
-48
-32
-9
4
13
25
46
69
83
104
139
169
192
223
255
281
310
334
344
350
339
276
175
76
-14
-80
-115
-141
-161
-161
-161
-173
-170
-157
-158
-159
-146
-142
-149
-147
-138
-132
-129
-135
-141
-135
-128
-125
-120
-117
-118
-117
-115
-113
-110
-112
-115
-111
-107
-106
-102
-93
-90
-90
-90
-89
-85
-79
-76
-75
-77
-82
-82
-76
-76
-83
-79
-68
-65
-62
-50
-38
-21
1
6
-14
-37
-55
-56
-44
-58
-68
-29
-52
-164
-278
-371
43
1451
2562
1696
-51
-571
-166
-67
-169
-117
-96
-131
-107
-86
-90
-75
-55
-46
-35
-23
-8
12
29
46
70
90
104
124
157
194
234
268
291
314
340
357
355
326
250
141
44
-29
-89
-134
-155
-162
-165
-167
-165
-162
-158
-155
-157
-159
-154
-146
-143
-139
-132
-127
-125
-123
-120
-118
-115
-115
-116
-118
-114
-104
-99
-103
-109
-106
-98
-90
-88
-90
-92
-90
-87
-88
-86
-82
-80
-79
-75
-73
-72
-70
-64
-60
-63
-65
-58
-53
-59
-62
-51
-41
-41
-39
-24
-1
15
11
-2
-18
-41
-47
-33
-46
-50
-16
-54
-166
-266
-313
206
1597
2438
1393
-173
-480
-111
-89
-171
-111
-115
-145
-110
-95
-100
-81
-65
-58
-40
-23
-13
2
20
36
55
77
97
120
149
177
207
242
273
296
318
333
327
298
241
154
59
-18
-76
-116
-135
-141
-146
-150
-151
-150
-147
-145
-147
-147
-140
-135
-137
-135
-127
-119
-114
-113
-118
-122
-116
-110
-110
-108
-101
-98
-103
-111
-114
-102
-89
-88
-92
-86
-81
-80
-75
-72
-80
-85
-80
-76
-76
-71
-65
-65
-70
-69
-61
-59
-69
-74
-61
-48
-50
-53
-36
-4
13
3
-13
-23
-41
-55
-50
-61
-73
-36
-46
-144
-250
-340
8
1273
2340
1610
-21
-566
-207
-96
-179
-125
-110
-146
-112
-85
-101
-90
-62
-52
-45
-29
-11
5
23
46
66
78
97
132
164
188
228
274
296
308
337
366
367
338
280
193
89
-12
-87
-127
-148
-165
-173
-172
-168
-160
-150
-146
-149
-150
-145
-139
-135
-135
-134
-130
-129
-129
-125
-123
-126
-122
-112
-109
-108
-101
-98
-103
-100
-90
-91
-97
-93
-85
-86
-94
-91
-76
-69
-73
-74
-70
-72
-76
-75
-76
-78
-70
-59
-60
-61
-53
-48
-49
-40
-17
4
6
-3
-28
-59
-55
-31
-54
-63
-26
-69
-194
-323
-344
364
1889
2507
1155
-374
-485
-88
-112
-180
-107
-113
-135
-99
-86
-88
-73
-64
-56
-41
-27
-12
8
23
38
64
92
108
126
158
195
227
257
286
314
339
352
345
306
222
114
18
-57
-117
-152
-168
-175
-172
-167
-167
-168
-166
-164
-162
-156
-151
-148
-142
-136
-134
-133
-127
-124
-127
-124
-116
-112
-110
-111
-117
-116
-100
-93
-105
-108
-97
-92
-93
-86
-80
-84
-89
-86
-80
-74
-72
-75
-72
-64
-62
-66
-67
-60
-53
-47
-48
-52
-53
-52
-50
-41
-29
-28
-25
-3
21
24
17
2
-31
-46
-24
-35
-60
-16
-18
-129
-231
-314
-21
1224
2428
1830
144
-513
-172
-58
-170
-130
-108
-144
-113
-85
-99
-90
-67
-58
-48
-33
-20
-7
13
33
49
66
88
112
139
172
199
222
256
290
304
308
319
315
267
177
77
-2
-58
-102
-133
-149
-156
-158
-152
-145
-147
-152
-147
-139
-138
-140
-134
-126
-124
-124
-122
-115
-107
-105
-107
-105
-105
-112
-114
-109
-103
-97
-90
-89
-94
-102
-104
-101
-95
-90
-83
-78
-77
-77
-77
-76
-72
-69
-76
-78
-71
-70
-71
-69
-70
-71
-63
-57
-64
-70
-66
-57
-48
-43
-37
-19
5
10
1
-13
-41
-60
-44
-47
-72
-38
-19
-110
-221
-321
-132
958
2264
1975
306
-606
-318
-65
-151
-149
-99
-110
-96
-75
-80
-72
-60
-55
-39
-20
-8
10
30
45
68
94
108
126
156
185
214
252
294
330
357
377
388
378
327
232
119
18
-63
-116
-139
-155
-170
-172
-169
-176
-178
-168
-162
-161
-155
-147
-148
-153
-149
-140
-137
-139
-144
-147
-139
-126
-126
-129
-125
-120
-120
-123
-125
-117
-106
-106
-111
-103
-95
-101
-105
-100
-100
-104
-99
-90
-89
-88
-82
-77
-77
-76
-71
-67
-67
-62
-49
-32
-15
-2
-2
-11
-29
-54
-54
-36
-55
-64
-26
-60
-178
-302
-349
259
1748
2523
1313
-291
-520
-110
-90
-163
-100
-106
-131
-94
-80
-84
-68
-58
-51
-29
-10
0
12
29
47
66
86
110
136
165
200
236
263
287
315
339
354
352
314
241
146
47
-39
-95
-130
-157
-168
-163
-161
-165
-165
-155
-144
-141
-144
-144
-141
-135
-134
-138
-134
-121
-116
-119
-116
-111
-115
-117
-113
-114
-111
-102
-99
-104
-105
-98
-93
-91
-92
-91
-85
-79
-83
-85
-78
-75
-78
-78
-75
-75
-74
-71
-69
-69
-63
-56
-56
-63
-67
-62
-55
-48
-36
-21
-3
18
20
-2
-28
-48
-45
-32
-52
-60
-19
-48
-153
-249
-293
209
1551
2357
1337
-174
-464
-109
-89
-162
-107
-115
-137
-98
-89
-98
-76
-57
-48
-37
-27
-14
7
25
38
54
76
101
123
142
170
208
240
264
287
313
331
333
311
256
168
71
-9
-65
-103
-127
-135
-137
-141
-146
-143
-136
-133
-133
-135
-137
-137
-130
-125
-124
-119
-115
-114
-112
-110
-112
-111
-104
-102
-107
-108
-107
-105
-102
-102
-103
-97
-89
-94
-100
-91
-83
-86
-84
-74
-74
-85
-84
-75
-73
-74
-67
-61
-63
-67
-65
-59
-53
-50
-55
-62
-57
-42
-23
3
17
5
-15
-38
-59
-47
-38
-70
-64
-29
-87
-197
-316
-253
635
2052
2196
675
-508
-392
-82
-133
-141
-88
-121
-123
-86
-87
-86
-66
-55
-43
-30
-24
-2
28
36
41
67
98
124
153
178
202
241
280
305
334
367
377
366
335
253
128
21
-48
-102
-147
-176
-183
-176
-172
-173
-172
-170
-173
-170
-160
-151
-148
-153
-157
-155
-147
-141
-139
-143
-146
-142
-139
-135
-128
-125
-124
-116
-109
-114
-117
-109
-101
-102
-106
-102
-92
-87
-91
-92
-85
-81
-84
-86
-82
-75
-66
-59
-59
-56
-45
-31
-10
9
6
-13
-33
-53
-53
-42
-66
-69
-24
-60
-178
-290
-338
237
1696
2498
1340
-260
-522
-122
-93
-167
-112
-119
-133
-92
-91
-101
-72
-56
-60
-46
-22
-7
7
24
45
68
91
113
139
165
198
237
274
302
328
353
372
372
334
250
143
45
-31
-94
-141
-161
-164
-164
-164
-164
-166
-161
-151
-147
-147
-143
-137
-137
-137
-133
-125
-121
-126
-130
-126
-118
-115
-120
-124
-117
-106
-108
-113
-109
-104
-103
-101
-96
-93
-91
-92
-98
-97
-84
-77
-83
-85
-80
-76
-75
-72
-69
-68
-67
-64
-60
-60
-58
-51
-44
-40
-29
-8
7
11
7
-7
-36
-47
-28
-37
-62
-28
-20
-110
-203
-297
-99
1006
2269
1916
304
-494
-220
-56
-154
-123
-90
-130
-114
-85
-94
-86
-65
-54
-40
-23
-11
3
20
37
56
73
89
112
142
169
195
227
260
288
312
332
344
334
285
200
101
13
-55
-100
-130
-148
-153
-149
-147
-148
-149
-148
-146
-142
-139
-138
-138
-135
-130
-125
-119
-118
-125
-128
-120
-112
-113
-119
-123
-119
-110
-104
-103
-100
-98
-105
-111
-104
-96
-96
-95
-88
-85
-85
-84
-81
-81
-85
-88
-83
-76
-77
-83
-82
-75
-71
-70
-65
-57
-49
-38
-29
-17
1
1
-18
-38
-55
-58
-55
-73
-66
-30
-75
-186
-305
-326
345
1766
2313
1038
-368
-465
-102
-112
-164
-102
-110
-122
-84
-75
-79
-60
-39
-33
-38
-32
2
36
42
48
76
108
127
146
181
222
251
280
320
349
370
397
400
358
283
185
75
-20
-86
-126
-152
-170
-175
-168
-162
-162
-160
-156
-154
-152
-146
-139
-142
-149
-145
-134
-125
-125
-129
-127
-122
-124
-126
-113
-104
-111
-115
-110
-108
-107
-103
-102
-103
-103
-105
-110
-108
-96
-90
-94
-93
-83
-81
-85
-83
-84
-90
-86
-70
-61
-58
-51
-33
-14
-9
-18
-39
-67
-70
-50
-66
-80
-37
-54
-172
-308
-407
60
1522
2582
1629
-102
-561
-168
-100
-184
-113
-103
-144
-117
-97
-100
-79
-61
-58
-44
-25
-12
1
19
42
61
73
98
137
165
186
222
266
300
326
354
381
381
339
261
159
46
-58
-124
-158
-179
-189
-192
-199
-202
-192
-180
-170
-163
-163
-165
-156
-142
-135
-133
-133
-128
-119
-114
-112
-110
-106
-106
-107
-104
-98
-96
-95
-91
-92
-95
-88
-76
-74
-81
-88
-82
-62
-53
-66
-78
-71
-59
-57
-59
-60
-56
-51
-52
-57
-50
-40
-38
-36
-25
-10
5
11
3
-11
-31
-47
-41
-48
-62
-27
-23
-129
-247
-360
-183
950
2360
2126
420
-537
-274
-61
-167
-151
-108
-147
-135
-103
-106
-91
-67
-62
-55
-43
-35
-20
2
18
32
54
77
104
136
164
184
214
251
285
314
331
338
333
282
182
91
17
-75
-148
-162
-160
-170
-173
-168
-170
-171
-168
-165
-161
-155
-153
-153
-146
-132
-118
-111
-112
-110
-108
-109
-106
-98
-94
-99
-102
-95
-92
-96
-96
-90
-89
-88
-79
-76
-83
-85
-80
-75
-74
-70
-65
-60
-59
-60
-61
-59
-56
-51
-46
-45
-50
-48
-35
-26
-26
-18
3
23
30
20
0
-22
-41
-39
-32
-49
-38
-11
-67
-163
-264
-279
416
1831
2290
964
-368
-400
-71
-119
-163
-102
-123
-132
-94
-96
-102
-82
-73
-63
-40
-27
-26
-18
-1
19
40
63
84
102
126
154
180
208
245
276
293
309
319
291
218
125
33
-44
-96
-129
-150
-156
-153
-152
-153
-152
-151
-150
-147
-143
-139
-132
-133
-140
-138
-123
-116
-121
-118
-110
-113
-120
-118
-111
-108
-103
-95
-92
-95
-94
-90
-88
-85
-79
-77
-80
-77
-66
-63
-69
-69
-65
-69
-69
-60
-59
-67
-65
-52
-43
-44
-50
-49
-33
-16
-5
6
10
2
-15
-44
-52
-34
-47
-61
-18
-34
-142
-244
-342
1
1303
2399
1642
-13
-539
-164
-61
-154
-105
-86
-111
-79
-64
-77
-62
-45
-44
-34
-20
-11
4
26
48
66
83
109
143
169
188
218
257
288
310
332
353
365
348
282
179
75
-9
-79
-135
-166
-177
-183
-187
-182
-175
-172
-167
-159
-159
-162
-160
-162
-164
-156
-152
-158
-156
-142
-139
-148
-154
-148
-138
-135
-141
-143
-134
-125
-118
-114
-117
-125
-122
-109
-102
-103
-103
-99
-97
-91
-79
-78
-89
-88
-80
-79
-78
-70
-68
-66
-54
-37
-20
-5
-4
-19
-38
-55
-56
-54
-73
-61
-36
-100
-206
-313
-324
413
1911
2402
1006
-398
-431
-79
-128
-178
-116
-126
-125
-94
-104
-100
-68
-64
-67
-49
-27
-6
13
21
30
53
82
106
127
156
198
236
261
283
309
334
349
348
314
244
147
44
-36
-80
-108
-134
-145
-139
-135
-136
-133
-126
-118
-112
-109
-110
-108
-105
-103
-104
-100
-91
-86
-85
-79
-69
-67
-71
-74
-71
-67
-63
-62
-59
-50
-42
-41
-42
-40
-39
-38
-34
-29
-24
-19
-17
-19
-20
-18
-15
-11
-5
-5
-12
-14
-7
-1
-5
-5
9
