# session 40
91
82
71
199
357
322
229
263
305
265
239
260
270
271
282
290
297
311
321
344
399
432
422
434
489
535
570
621
660
667
673
661
560
383
224
104
-6
-81
-99
-113
-157
-182
-165
-161
-191
-199
-175
-179
-202
-195
-183
-197
-203
-195
-196
-196
-189
-191
-200
-207
-207
-203
-200
-196
-188
-191
-203
-203
-195
-190
-183
-180
-188
-188
-177
-171
-171
-170
-172
-168
-163
-165
-161
-153
-164
-167
-148
-149
-160
-136
-116
-139
-145
-100
-68
-82
-86
-72
-96
-128
-116
-121
-140
-88
-95
-242
-389
-490
-74
1521
2998
2212
109
-710
-301
-140
-232
-151
-125
-190
-161
-125
-149
-128
-77
-69
-65
-31
-5
14
46
70
83
111
152
190
237
296
365
443
515
569
614
653
670
625
485
282
92
-53
-159
-232
-275
-290
-293
-303
-298
-269
-259
-267
-253
-236
-246
-248
-227
-210
-200
-194
-202
-205
-190
-177
-175
-174
-177
-176
-162
-157
-170
-171
-152
-142
-144
-140
-129
-125
-123
-108
-99
-115
-129
-110
-94
-109
-116
-86
-72
-97
-101
-69
-51
-45
-23
-9
-26
-55
-78
-72
-51
-76
-85
-26
-72
-242
-387
-475
142
2016
3316
2023
-156
-661
-172
-127
-220
-123
-126
-176
-130
-98
-101
-94
-89
-73
-43
-25
-6
21
42
64
94
121
152
202
255
300
359
442
508
545
592
644
636
541
385
204
38
-88
-169
-212
-236
-258
-276
-274
-255
-239
-248
-263
-250
-225
-215
-213
-209
-210
-206
-193
-185
-188
-183
-168
-162
-170
-176
-175
-166
-152
-142
-147
-151
-140
-127
-130
-141
-143
-131
-122
-120
-120
-119
-118
-118
-119
-113
-102
-105
-113
-100
-86
-89
-93
-88
-87
-89
-86
-86
-85
-68
-51
-46
-30
-5
-5
-20
-31
-55
-67
-56
-79
-82
-16
-65
-260
-441
-486
304
2268
3387
1891
-228
-589
-105
-128
-246
-153
-150
-183
-135
-109
-109
-105
-114
-97
-52
-36
-38
-15
16
40
70
101
124
154
204
258
303
355
424
483
509
530
556
521
388
223
91
-18
-116
-181
-213
-232
-233
-220
-216
-220
-221
-218
-213
-208
-202
-193
-186
-189
-190
-176
-164
-169
-176
-174
-170
-163
-158
-167
-168
-143
-132
-141
-133
-122
-135
-143
-133
-124
-121
-121
-125
-115
-96
-91
-102
-114
-110
-91
-87
-102
-101
-86
-72
-62
-74
-106
-102
-63
-50
-75
-89
-70
-44
-43
-59
-55
-22
3
-6
-16
-15
-42
-62
-31
-34
-72
-38
-53
-211
-376
-473
14
1694
3148
2265
160
-584
-183
-100
-223
-139
-115
-166
-118
-73
-88
-88
-81
-78
-54
-24
-7
4
17
41
63
80
121
169
186
210
274
335
377
426
470
490
494
480
423
300
129
-18
-103
-146
-172
-200
-225
-227
-215
-208
-205
-208
-219
-220
-205
-187
-174
-181
-194
-189
-175
-178
-186
-180
-162
-148
-153
-166
-169
-165
-159
-152
-147
-138
-127
-134
-147
-140
-126
-126
-122
-114
-115
-115
-108
-112
-116
-111
-102
-89
-81
-95
-102
-87
-88
-99
-83
-67
-81
-90
-73
-52
-45
-55
-49
-12
4
-14
-26
-44
-58
-44
-70
-100
-27
-18
-185
-336
-439
-110
1402
2999
2410
294
-667
-287
-88
-201
-158
-124
-164
-137
-117
-132
-103
-66
-62
-56
-39
-22
-3
16
35
67
102
129
168
226
270
304
365
446
520
584
629
645
611
503
333
157
8
-116
-201
-235
-247
-269
-285
-282
-279
-273
-243
-226
-247
-249
-217
-210
-226
-219
-194
-182
-185
-198
-205
-180
-155
-171
-196
-187
-167
-165
-156
-131
-127
-155
-179
-170
-145
-133
-139
-142
-128
-110
-106
-107
-110
-126
-142
-128
-98
-83
-91
-101
-98
-89
-79
-53
-21
-12
-25
-57
-96
-88
-57
-91
-106
-38
-80
-249
-392
-467
179
2009
3189
1876
-192
-642
-184
-139
-212
-130
-150
-186
-136
-116
-99
-60
-72
-88
-51
-19
-12
6
26
44
88
139
166
194
244
307
373
433
482
547
628
667
641
569
442
262
81
-55
-143
-192
-232
-270
-276
-261
-262
-262
-236
-217
-230
-249
-244
-223
-212
-213
-210
-199
-185
-174
-176
-186
-192
-193
-182
-159
-150
-166
-178
-163
-141
-135
-140
-143
-142
-137
-125
-119
-130
-136
-116
-101
-114
-119
-97
-91
-104
-100
-89
-94
-93
-73
-69
-90
-94
-63
-47
-73
-85
-49
-21
-24
-15
1
-16
-49
-53
-25
-33
-81
-51
-18
-150
-328
-474
-322
1006
2962
3006
870
-588
-362
-72
-217
-187
-110
-180
-170
-106
-122
-131
-93
-74
-82
-74
-32
2
-1
9
53
83
97
132
184
230
273
329
401
461
490
528
577
572
491
359
198
46
-68
-151
-200
-214
-225
-232
-211
-200
-231
-247
-222
-207
-214
-206
-188
-194
-209
-193
-158
-153
-178
-192
-186
-173
-157
-153
-165
-164
-142
-136
-149
-140
-113
-109
-131
-147
-141
-121
-112
-118
-106
-82
-89
-113
-104
-82
-88
-104
-93
-72
-79
-99
-87
-60
-64
-89
-93
-73
-58
-60
-69
-69
-58
-50
-57
-64
-50
-20
1
4
-1
-6
-33
-69
-54
-31
-70
-66
-12
-95
-281
-458
-380
766
2701
3063
1130
-495
-408
-55
-192
-222
-128
-171
-185
-129
-121
-122
-88
-61
-62
-70
-52
-14
2
2
32
73
89
110
168
232
278
322
378
437
489
539
584
587
525
414
264
94
-48
-133
-182
-217
-231
-229
-232
-245
-249
-235
-221
-235
-246
-210
-180
-211
-235
-197
-164
-174
-181
-178
-184
-187
-180
-181
-180
-170
-164
-159
-146
-142
-154
-153
-140
-138
-138
-132
-134
-135
-127
-120
-117
-109
-108
-112
-108
-106
-114
-102
-76
-76
-93
-90
-75
-81
-100
-95
-66
-56
-66
-52
-21
-7
-2
3
-23
-76
-88
-64
-78
-77
-23
-78
-234
-351
-399
220
1929
3018
1789
-142
-593
-199
-142
-188
-124
-144
-151
-100
-107
-111
-65
-53
-62
-34
-7
-9
7
51
80
96
135
185
213
240
302
393
474
525
569
635
696
702
638
508
315
105
-52
-141
-201
-256
-297
-303
-276
-270
-301
-302
-260
-245
-260
-257
-247
-241
-219
-212
-234
-221
-187
-202
-232
-211
-186
-197
-203
-190
-183
-185
-184
-169
-149
-154
-176
-170
-147
-137
-132
-133
-147
-149
-127
-112
-118
-128
-121
-108
-116
-126
-103
-88
-116
-116
-68
-67
-104
-87
-55
-79
-85
-33
-10
-31
-22
-18
-65
-78
-52
-79
-83
-36
-115
-296
-463
-351
880
2890
3210
1168
-498
-397
-36
-152
-171
-101
-138
-129
-110
-143
-120
-72
-74
-67
-41
-33
-16
27
58
58
58
99
160
194
229
300
368
416
489
574
614
624
625
571
428
230
47
-74
-146
-208
-245
-234
-232
-264
-272
-250
-245
-244
-234
-237
-241
-221
-199
-199
-202
-193
-187
-190
-188
-178
-173
-178
-179
-169
-161
-162
-152
-138
-148
-161
-144
-125
-129
-125
-113
-123
-140
-135
-115
-104
-103
-103
-96
-96
-105
-102
-86
-87
-97
-87
-72
-79
-88
-77
-71
-83
-76
-60
-76
-93
-75
-57
-56
-53
-59
-77
-66
-39
-42
-47
-25
-4
-3
-4
-15
-49
-56
-30
-47
-64
-18
-64
-238
-407
-502
142
2045
3390
2149
-28
-582
-132
-107
-231
-159
-158
-189
-135
-110
-124
-116
-106
-95
-64
-36
-33
-23
21
59
55
57
96
143
196
265
324
366
428
500
544
578
615
611
532
392
218
52
-61
-132
-193
-227
-221
-213
-222
-224
-215
-216
-219
-209
-195
-194
-197
-183
-164
-166
-173
-159
-145
-155
-163
-151
-143
-148
-149
-144
-136
-120
-108
-114
-125
-120
-104
-99
-116
-124
-97
-70
-85
-103
-80
-53
-67
-95
-93
-67
-47
-56
-69
-49
-29
-57
-79
-56
-43
-49
-40
-37
-48
-48
-46
-50
-38
-24
-30
-36
-37
-45
-37
-19
-28
-56
-55
-29
-15
-22
-32
-40
-41
-32
-27
-37
-41
-22
-9
-23
-45
-48
-42
-37
-28
-26
-34
-38
-39
-35
-5
31
24
-3
3
18
-16
-59
-40
-26
-58
-33
-12
-143
-300
-429
-321
903
2831
3003
974
-537
-391
-89
-204
-197
-144
-202
-184
-134
-146
-143
-118
-110
-92
-68
-50
-33
-25
-13
22
63
89
98
116
175
249
299
343
400
449
495
548
574
555
495
373
198
44
-61
-147
-214
-240
-237
-240
-255
-253
-237
-235
-238
-221
-208
-223
-231
-210
-189
-188
-189
-179
-174
-181
-187
-185
-175
-154
-142
-159
-178
-171
-150
-135
-130
-131
-131
-128
-124
-114
-107
-113
-112
-98
-100
-110
-90
-67
-86
-109
-87
-61
-75
-87
-66
-59
-79
-74
-44
-51
-80
-68
-40
-47
-55
-38
-36
-54
-54
-41
-39
-39
-37
-39
-36
-38
-58
-62
-24
-1
-35
-57
-21
14
15
17
22
4
-20
-29
-18
-20
-58
-40
19
-79
-270
-410
-411
485
2418
3207
1519
-354
-485
-71
-164
-221
-101
-134
-187
-133
-107
-123
-113
-82
-54
-53
-66
-42
11
39
41
60
90
108
143
205
255
285
332
393
446
505
568
594
573
512
385
209
48
-71
-162
-214
-232
-242
-248
-252
-267
-265
-234
-227
-250
-238
-199
-202
-231
-222
-192
-190
-203
-199
-180
-169
-182
-196
-183
-172
-176
-167
-148
-153
-167
-157
-142
-144
-142
-126
-127
-145
-136
-106
-104
-121
-118
-114
-117
-101
-89
-97
-88
-73
-96
-117
-90
-66
-80
-90
-78
-75
-78
-68
-61
-69
-66
-53
-53
-53
-32
-7
3
9
2
-42
-74
-38
-26
-75
-47
-2
-127
-307
-442
-274
994
2813
2820
799
-571
-356
-61
-188
-184
-115
-150
-134
-98
-115
-107
-80
-83
-71
-26
-7
-16
1
41
61
71
110
161
191
219
272
338
399
454
515
577
617
628
595
488
315
139
-4
-117
-194
-229
-251
-274
-281
-267
-256
-245
-230
-234
-248
-239
-225
-227
-224
-212
-203
-200
-208
-218
-202
-180
-182
-190
-182
-166
-162
-176
-185
-165
-142
-154
-174
-161
-132
-130
-143
-146
-140
-130
-113
-103
-110
-113
-102
-98
-107
-118
-114
-89
-79
-97
-97
-68
-67
-94
-90
-58
-39
-23
2
4
-31
-70
-80
-65
-73
-93
-46
-27
-144
-279
-411
-235
1057
2768
2604
601
-627
-379
-101
-178
-142
-110
-169
-136
-80
-89
-83
-68
-69
-42
-10
-13
-8
32
66
85
115
155
189
226
279
348
414
474
551
636
685
699
704
653
497
281
85
-57
-147
-216
-275
-300
-295
-301
-307
-285
-266
-270
-261
-244
-251
-252
-225
-222
-243
-231
-208
-215
-216
-194
-192
-203
-198
-196
-200
-183
-164
-165
-164
-160
-165
-160
-145
-149
-156
-137
-115
-123
-134
-124
-115
-110
-102
-115
-131
-107
-74
-85
-109
-107
-88
-75
-79
-80
-64
-63
-80
-74
-47
-39
-29
3
14
-15
-50
-67
-56
-52
-77
-54
-12
-111
-282
-441
-412
660
2651
3172
1272
-479
-470
-87
-185
-204
-112
-164
-179
-114
-105
-115
-95
-73
-55
-47
-43
-19
12
33
52
68
87
133
202
245
275
344
433
494
546
607
648
663
643
532
335
141
-1
-103
-172
-223
-263
-261
-226
-225
-252
-255
-251
-255
-231
-202
-214
-235
-223
-195
-180
-184
-199
-198
-178
-168
-175
-176
-164
-160
-173
-181
-163
-138
-136
-150
-151
-139
-129
-123
-120
-130
-136
-123
-114
-119
-110
-95
-102
-112
-100
-87
-88
-91
-97
-98
-86
-75
-75
-80
-84
-85
-81
-75
-66
-68
-84
-78
-48
-41
-65
-70
-50
-33
-14
2
-10
-24
-21
-38
-59
-52
-60
-57
-13
-84
-263
-415
-485
218
2141
3344
1952
-165
-571
-104
-137
-255
-143
-139
-185
-134
-115
-133
-114
-96
-93
-75
-49
-26
-1
27
50
61
80
123
163
192
244
312
375
444
513
569
625
661
645
586
468
270
65
-54
-108
-164
-226
-259
-247
-219
-224
-241
-222
-204
-220
-222
-202
-200
-203
-188
-181
-181
-166
-159
-173
-175
-170
-177
-172
-146
-128
-128
-134
-141
-135
-120
-127
-137
-116
-94
-106
-119
-107
-95
-100
-104
-90
-75
-75
-81
-81
-79
-72
-67
-79
-97
-83
-52
-52
-67
-64
-58
-67
-67
-50
-47
-59
-57
-47
-49
-45
-34
-46
-66
-64
-49
-35
-27
-41
-59
-52
-36
-34
-42
-48
-48
-46
-42
-27
-9
1
12
14
-3
-23
-37
-42
-35
-55
-76
-29
-25
-158
-311
-443
-147
1311
2947
2533
488
-601
-326
-116
-215
-182
-144
-174
-143
-118
-140
-125
-89
-84
-79
-56
-41
-31
0
38
55
68
102
146
184
224
272
333
413
494
552
597
641
666
640
547
387
195
21
-106
-193
-245
-266
-284
-302
-290
-256
-253
-277
-271
-244
-243
-253
-243
-224
-210
-205
-212
-214
-197
-187
-196
-202
-193
-177
-168
-178
-179
-149
-131
-149
-152
-133
-141
-155
-139
-122
-119
-104
-97
-112
-120
-101
-72
-66
-93
-114
-97
-78
-78
-68
-56
-76
-85
-48
-32
-63
-68
-42
-42
-56
-51
-45
-44
-28
-18
-33
-44
-37
-27
-20
-22
-36
-34
-10
-6
-24
-14
19
37
41
40
32
6
-23
-12
-2
-41
-21
35
-74
-277
-433
-337
803
2773
3205
1263
-458
-418
-43
-175
-214
-104
-139
-173
-114
-85
-106
-121
-100
-63
-49
-43
-22
-4
9
40
71
82
99
140
183
227
289
355
401
446
515
574
592
577
520
393
222
61
-68
-169
-236
-260
-259
-278
-306
-291
-258
-263
-275
-264
-267
-274
-250
-238
-256
-252
-235
-237
-230
-214
-224
-227
-201
-197
-223
-219
-197
-208
-220
-193
-168
-183
-189
-160
-153
-180
-181
-148
-142
-162
-154
-127
-125
-133
-121
-106
-109
-115
-106
-90
-77
-73
-79
-78
-65
-67
-78
-60
-29
-25
-33
-33
-36
-26
-5
-8
-17
12
52
69
75
73
72
68
37
28
60
51
45
95
37
-134
-282
-285
575
2481
3353
1754
-175
-385
60
21
-37
62
29
20
109
100
