# session 25
57
27
85
153
34
-201
-281
-231
-229
-241
-212
-197
-194
-171
-152
-144
-129
-111
-95
-74
-49
-28
-6
21
49
77
107
136
166
196
221
232
236
236
213
150
64
-14
-72
-117
-148
-164
-167
-161
-154
-155
-161
-162
-155
-153
-155
-147
-131
-128
-127
-114
-102
-101
-99
-92
-88
-88
-84
-77
-66
-63
-68
-70
-66
-65
-69
-67
-58
-53
-54
-51
-43
-38
-41
-45
-40
-34
-33
-32
-26
-21
-21
-21
-16
-11
-8
-4
8
29
45
45
31
4
-21
-14
-6
-26
-12
8
-59
-153
-255
-150
821
2231
2224
612
-490
-309
-45
-142
-153
-103
-135
-129
-95
-99
-92
-71
-67
-59
-44
-33
-19
-3
13
38
66
83
99
128
159
180
195
209
224
239
239
215
166
94
15
-45
-87
-128
-156
-161
-162
-162
-159
-158
-159
-156
-154
-157
-154
-141
-131
-135
-140
-133
-123
-123
-124
-120
-117
-114
-110
-112
-112
-104
-107
-113
-107
-104
-114
-114
-98
-80
-65
-62
-71
-74
-67
-73
-82
-75
-66
-74
-79
-69
-61
-65
-69
-66
-58
-46
-38
-24
3
8
-14
-37
-59
-69
-42
-24
-17
0
-53
-181
-332
-362
364
1886
2450
1050
-455
-517
-110
-138
-196
-127
-152
-182
-143
-125
-123
-113
-110
-97
-71
-54
-36
-14
3
25
58
96
147
205
243
276
326
374
396
396
393
382
335
229
101
16
-34
-85
-96
-49
-41
-84
-64
-2
-18
-79
-97
-101
-121
-127
-122
-128
-133
-130
-134
-137
-130
-130
-140
-139
-127
-129
-138
-133
-129
-132
-128
-122
-132
-139
-128
-119
-123
-126
-120
-111
-109
-113
-112
-97
-86
-87
-88
-83
-85
-89
-75
-45
-31
-40
-51
-65
-84
-76
-75
-107
-86
-44
-128
-265
-397
-333
693
2369
2532
715
-635
-424
-66
-170
-181
-111
-153
-147
-98
-108
-109
-80
-68
-57
-36
-24
-8
15
36
55
82
112
145
179
215
256
303
341
364
379
382
353
276
161
43
-49
-111
-153
-176
-184
-190
-195
-194
-191
-191
-188
-177
-170
-166
-159
-151
-144
-134
-127
-124
-121
-114
-108
-109
-110
-111
-111
-110
-108
-111
-111
-102
-96
-97
-94
-87
-83
-79
-76
-76
-74
-68
-64
-66
-67
-62
-57
-54
-54
-55
-56
-56
-55
-52
-46
-37
-29
-27
-22
-1
15
12
4
-14
-40
-30
-24
-59
-35
4
-108
-266
-394
-283
883
2669
2717
721
-606
-313
-14
-191
-188
-107
-164
-156
-104
-118
-115
-85
-83
-80
-58
-42
-25
-2
17
36
62
89
115
148
184
216
251
289
316
330
338
322
259
160
53
-37
-99
-138
-164
-179
-181
-177
-176
-175
-172
-171
-169
-165
-162
-163
-157
-144
-136
-135
-134
-129
-122
-118
-117
-117
-115
-113
-111
-109
-107
-108
-110
-109
-106
-105
-104
-102
-100
-96
-93
-93
-90
-85
-82
-80
-74
-68
-66
-66
-65
-65
-63
-61
-56
-48
-47
-53
-55
-48
-40
-37
-37
-30
-10
11
20
16
-4
-36
-35
-14
-41
-52
0
-50
-200
-327
-380
277
1978
2892
1489
-331
-512
-44
-110
-220
-123
-132
-165
-113
-99
-108
-86
-72
-67
-50
-33
-18
3
23
38
56
81
110
139
167
196
228
259
284
300
307
303
272
202
104
10
-57
-104
-139
-158
-163
-162
-161
-159
-157
-152
-145
-139
-139
-138
-131
-124
-124
-126
-122
-117
-120
-121
-113
-105
-107
-106
-98
-97
-104
-102
-92
-89
-95
-97
-91
-85
-82
-81
-78
-73
-69
-65
-62
-60
-59
-58
-59
-60
-58
-54
-51
-52
-54
-55
-54
-55
-56
-55
-52
-54
-55
-45
-31
-32
-37
-24
4
16
9
-4
-30
-41
-22
-33
-51
-11
-31
-157
-288
-396
53
1585
2749
1746
-110
-559
-107
-75
-205
-129
-116
-158
-117
-92
-103
-89
-75
-67
-48
-35
-25
-6
13
28
48
69
90
114
140
165
191
216
237
254
266
262
237
183
107
22
-52
-101
-125
-138
-147
-149
-145
-141
-138
-136
-133
-129
-129
-130
-128
-124
-123
-122
-115
-107
-105
-107
-107
-104
-105
-108
-106
-101
-97
-97
-96
-96
-94
-90
-87
-87
-86
-79
-73
-74
-77
-74
-68
-65
-64
-57
-46
-43
-46
-45
-41
-40
-38
-36
-37
-36
-34
-36
-34
-23
-18
-20
-8
20
37
32
16
-12
-30
-15
-16
-41
-17
-6
-97
-214
-340
-148
1020
2392
2045
311
-557
-239
-49
-166
-135
-98
-145
-125
-90
-100
-92
-70
-64
-56
-43
-34
-14
9
24
40
59
79
108
139
159
176
200
219
230
237
238
222
180
110
28
-39
-86
-120
-139
-146
-152
-158
-156
-150
-149
-150
-149
-143
-139
-144
-148
-140
-131
-130
-124
-116
-117
-117
-106
-99
-105
-104
-90
-82
-88
-96
-96
-88
-81
-80
-89
-93
-74
-52
-48
-48
-45
-50
-55
-48
-42
-49
-54
-52
-49
-48
-50
-49
-36
-29
-39
-46
-32
-13
-4
2
17
33
34
23
0
-26
-24
-11
-25
-24
-14
-72
-150
-225
-140
675
1935
2013
599
-471
-367
-95
-117
-86
-40
-94
-106
-80
-88
-84
-66
-61
-47
-32
-31
-22
2
21
38
53
61
75
105
127
140
159
180
190
196
205
206
177
120
59
10
-31
-66
-88
-100
-103
-99
-97
-96
-91
-91
-101
-105
-98
-93
-95
-98
-101
-103
-103
-95
-92
-99
-108
-106
-99
-94
-93
-92
-88
-84
-85
-88
-87
-88
-87
-77
-67
-70
-75
-68
-59
-67
-80
-75
-61
-62
-66
-57
-51
-58
-60
-53
-48
-46
-33
-5
16
14
2
-18
-45
-48
-38
-51
-42
-16
-62
-149
-251
-246
448
1753
2086
772
-479
-479
-118
-111
-139
-86
-100
-112
-85
-81
-81
-66
-62
-54
-32
-22
-21
-7
18
38
55
78
102
127
155
182
204
222
237
248
251
239
205
143
62
-12
-64
-101
-128
-139
-139
-144
-150
-145
-138
-137
-135
-129
-125
-124
-122
-114
-109
-112
-113
-108
-109
-114
-112
-105
-102
-101
-100
-98
-94
-91
-89
-86
-86
-87
-85
-80
-77
-74
-72
-74
-74
-69
-63
-57
-52
-51
-43
-18
4
3
-11
-33
-57
-56
-54
-73
-61
-40
-102
-202
-317
-245
642
2007
2094
590
-530
-389
-93
-160
-174
-120
-145
-143
-106
-103
-96
-75
-68
-58
-43
-34
-19
5
25
42
63
86
109
140
174
203
224
243
259
265
261
239
187
111
33
-32
-81
-114
-135
-145
-145
-139
-136
-134
-129
-126
-125
-120
-110
-107
-110
-104
-94
-88
-85
-82
-78
-73
-69
-67
-65
-63
-64
-61
-54
-54
-58
-54
-46
-42
-39
-36
-39
-39
-34
-33
-33
-23
-11
-16
-31
-29
-11
1
0
4
23
48
60
54
33
-1
-16
-3
-16
-32
1
-11
-102
-201
-281
100
1356
2317
1518
-39
-501
-156
-75
-159
-111
-100
-127
-97
-79
-86
-68
-49
-47
-38
-25
-17
-3
22
41
46
51
68
94
119
141
161
177
188
192
188
178
154
102
26
-50
-111
-152
-176
-198
-219
-225
-214
-205
-196
-187
-191
-205
-211
-209
-215
-225
-227
-224
-227
-235
-238
-233
-231
-234
-239
-243
-244
-240
-242
-263
-276
-256
-236
-245
-259
-254
-246
-248
-246
-242
-241
-237
-235
-242
-237
-215
-218
-250
-260
-242
-229
-214
-195
-185
-170
-147
-156
-191
-211
-211
-206
-215
-231
-97
315
693
799
1338
2734
3535
2432
712
140
371
376
183
136
172
195
263
323
271
259
418
483
310
177
183
141
52
30
39
31
32
39
40
55
87
108
111
109
110
101
60
-16
-99
-174
-241
-290
-320
-337
-346
-346
-347
-351
-347
-330
-313
-315
-316
-298
-288
-295
-264
-200
-183
-215
-231
-229
-233
-238
-235
-227
-219
-221
-224
-212
-200
-200
-197
-186
-183
-183
-173
-165
-167
-166
-155
-144
-136
-123
-103
-89
-83
-81
-95
-119
-113
-91
-107
-110
-69
-86
-173
-285
-336
242
1599
2232
1059
-410
-606
-208
-138
-160
-91
-97
-118
-77
-58
-58
-33
-16
-18
-5
20
44
71
95
110
130
167
207
245
276
298
323
357
378
375
370
367
324
224
115
37
-24
-77
-110
-124
-132
-137
-138
-137
-133
-126
-124
-121
-110
-98
-95
-96
-91
-81
-77
-80
-80
-76
-74
-73
-70
-67
-63
-59
-59
-65
-67
-64
-69
-80
-76
-60
-55
-61
-65
-68
-72
-70
-61
-54
-55
-59
-50
-35
-31
-26
1
32
38
30
14
-19
-40
-30
-45
-70
-41
-52
-152
-265
-351
30
1328
2388
1641
15
-538
-209
-107
-185
-137
-119
-146
-122
-106
-109
-89
-71
-68
-57
-45
-39
-22
0
14
30
53
77
102
125
137
153
182
204
210
216
221
203
151
80
8
-53
-99
-127
-146
-158
-158
-156
-159
-160
-150
-141
-142
-141
-128
-119
-121
-115
-101
-101
-112
-105
-85
-82
-93
-96
-92
-95
-96
-90
-88
-90
-89
-87
-88
-85
-80
-80
-77
-71
-76
-85
-80
-74
-73
-69
-66
-73
-73
-59
-44
-40
-38
-18
7
11
-4
-21
-33
-22
-18
-52
-49
-14
-77
-201
-316
-303
444
1891
2325
932
-451
-487
-133
-160
-199
-139
-157
-170
-134
-120
-111
-97
-103
-104
-81
-55
-38
-25
-16
2
39
73
87
105
141
174
199
229
256
270
278
279
245
172
87
11
-51
-99
-134
-155
-156
-137
-103
-56
-17
-15
-44
-65
-74
-83
-90
-88
-83
-82
-89
-99
-101
-97
-97
-100
-96
-86
-85
-89
-87
-84
-86
-93
-94
-83
-67
-61
-66
-73
-74
-74
-74
-68
-61
-60
-57
-50
-48
-50
-32
-5
1
-9
-23
-46
-54
-39
-53
-68
-37
-53
-143
-249
-324
158
1556
2485
1494
-146
-528
-113
-25
-119
-99
-109
-136
-112
-110
-118
-97
-86
-86
-74
-62
-54
-36
-13
6
25
49
73
98
128
159
188
216
242
257
263
258
229
164
68
-28
-96
-137
-165
-182
-191
-197
-195
-185
-176
-173
-174
-172
-166
-156
-149
-145
-141
-135
-128
-119
-111
-110
-111
-113
-114
-113
-111
-110
-108
-101
-93
-95
-101
-96
-85
-79
-73
-64
-61
-62
-61
-59
-56
-55
-56
-53
-42
-37
-39
-39
-33
-26
-10
16
30
26
13
-14
-35
-28
-43
-64
-21
-22
-136
-252
-337
8
1341
2574
1903
129
-552
-202
-89
-199
-150
-124
-153
-117
-90
-94
-72
-54
-51
-31
-18
-22
-17
-1
13
28
44
62
87
115
141
165
186
208
229
238
234
220
186
116
32
-39
-91
-129
-151
-154
-151
-155
-165
-171
-172
-166
-155
-146
-143
-137
-125
-114
-105
-95
-92
-94
-92
-90
-96
-99
-93
-87
-88
-91
-90
-91
-92
-91
-89
-89
-86
-80
-77
-76
-73
-74
-75
-68
-62
-62
-57
-53
-58
-54
-51
-66
-35
57
100
57
27
45
58
55
48
19
-5
8
3
-27
0
14
-87
-197
-275
-92
959
2305
2134
509
-465
-253
-54
-163
-151
-102
-136
-128
-102
-109
-97
-77
-75
-62
-41
-35
-25
-2
12
16
27
44
62
82
99
117
145
172
181
184
191
183
143
78
4
-62
-109
-140
-163
-178
-179
-172
-168
-170
-172
-171
-166
-155
-142
-139
-149
-158
-151
-133
-124
-132
-140
-130
-111
-107
-118
-123
-113
-105
-109
-117
-119
-115
-105
-89
-79
-80
-75
-61
-61
-65
-52
-34
-20
10
53
72
59
44
42
39
35
39
36
17
19
56
88
86
64
31
-16
-43
-35
-53
-96
-77
-60
-140
-255
-386
-214
901
2248
1974
298
-630
-368
-142
-230
-208
-146
-164
-163
-153
-164
-158
-147
-152
-148
-113
-59
-24
-25
-30
-20
-9
6
36
65
86
107
134
158
175
191
203
201
169
97
7
-51
-67
-74
-73
-54
-49
-63
-55
-25
-16
-23
-17
1
10
7
7
15
10
-14
-34
-32
-23
-24
-30
-35
-45
-60
-73
-80
-79
-76
-78
-78
-71
-63
-64
-64
-59
-57
-61
-60
-51
-46
-40
-13
23
36
26
19
20
27
37
35
27
37
64
75
54
41
70
89
62
73
106
36
-97
-241
-167
819
2358
2464
745
-556
-410
-89
-200
-253
-214
-259
-276
-254
-257
-244
-216
-199
-168
-138
-143
-167
-188
-176
-109
-33
7
16
-2
-12
32
87
101
112
137
126
71
1
-75
-161
-250
-321
-366
-401
-424
-415
-391
-384
-389
-393
-390
-380
-398
-420
-383
-378
-427
-248
164
355
231
159
316
617
828
700
365
167
105
22
-49
-68
-81
-100
-114
-122
-109
-90
-99
-117
-115
-126
-160
-176
-178
-177
-75
156
318
270
126
23
-33
-67
-85
-107
-136
-146
-133
-121
-124
-124
-123
-137
-132
-105
-122
-139
-90
-99
-203
-294
-333
132
1500
2503
1629
10
-414
-25
50
-28
51
83
68
112
137
135
162
187
181
166
161
160
154
146
143
142
143
158
184
205
220
237
253
257
249
239
229
203
149
73
-7
-72
-118
-152
-176
-188
-193
-195
-192
-188
-185
-184
-184
-182
-177
-176
-181
-179
-168
-165
-166
-156
-146
-153
-160
-148
-136
-140
-143
-135
-131
-132
-131
-132
-131
-123
-113
-110
-115
-119
-120
-120
-118
-107
-97
-100
-103
-99
-102
-105
-98
-94
-98
-91
-81
-89
-93
-68
-34
-23
-29
-41
-59
-76
-73
-71
-93
-78
-46
-108
-214
-318
-317
408
1845
2289
908
-475
-500
-125
-150
-203
-148
-163
-179
-153
-152
-155
-143
-137
-133
-125
-114
-94
-75
-64
-49
-27
-8
16
51
84
110
145
188
216
231
255
274
258
192
92
3
-44
-63
-68
-57
-38
-17
1
1
-11
-9
7
15
11
9
19
28
17
3
12
38
57
63
60
65
104
158
169
142
125
111
77
47
36
21
-16
-70
-116
-131
-129
-143
-160
-155
-143
-142
-150
-154
-139
-111
-96
-90
-68
-38
-22
-20
-26
