# session 10
5
-69
166
113
-743
-1672
-1839
-1623
-1590
-1604
-1537
-1488
-1416
-1334
-1331
-1315
-1220
-1142
-1103
-1053
-1006
-952
-865
-808
-812
-792
-715
-655
-622
-581
-549
-519
-473
-445
-414
-353
-334
-325
-268
-284
-409
-543
-501
310
1841
2353
940
-545
-614
-197
-159
-153
-62
-79
-87
-22
7
21
79
133
152
171
216
268
314
366
408
419
425
427
399
346
299
246
173
93
37
11
-1
-21
-38
-31
-25
-38
-37
-21
-10
8
25
12
-8
-12
-24
-39
-32
-26
-41
-48
-33
-24
-34
-39
-29
-40
-73
-75
-76
-117
-128
-120
-183
-293
-414
-227
832
2072
1783
188
-705
-474
-265
-350
-317
-241
-284
-317
-270
-238
-247
-215
-177
-209
-125
192
403
295
170
197
204
156
139
128
90
41
-16
-70
-110
-145
-192
-266
-324
-303
-269
-313
-386
-390
-272
-82
53
85
-59
-264
92
977
1298
963
1014
1332
986
180
-4
814
1590
1262
472
247
287
142
41
13
-67
-92
-119
-230
-319
-328
119
1259
1915
1006
-294
-559
-295
-262
-264
-197
-208
-219
-203
-219
-196
-145
-156
-168
-121
-89
-80
-40
-1
11
31
45
23
0
-9
-43
-99
-142
-201
-294
-363
-366
-349
-367
-410
-417
-370
-334
-348
-362
-349
-340
-339
-340
-351
-371
-380
-375
-380
-396
-398
-386
-383
-385
-377
-363
-348
-338
-339
-339
-329
-324
-321
-314
-303
-275
-282
-346
-421
-522
-270
928
2187
1727
33
-772
-461
-229
-257
-195
-133
-101
-24
-17
-66
-31
36
49
77
140
183
217
258
297
365
437
429
365
337
338
312
255
183
113
75
75
67
36
27
46
55
56
69
85
92
99
112
112
80
52
61
61
26
39
100
88
35
67
111
77
59
80
72
77
99
67
49
85
70
51
96
43
-105
-203
-271
174
1617
2667
1679
-92
-581
-209
-119
-154
-63
-49
-73
-50
-40
-26
-13
-36
-32
4
-4
-4
72
141
145
145
166
179
178
158
101
27
-42
-122
-191
-213
-223
-258
-286
-292
-288
-268
-254
-277
-302
-288
-256
-252
-289
-311
-280
-255
-271
-274
-272
-300
-293
-250
-247
-251
-224
-239
-280
-249
-191
-200
-234
-228
-222
-226
-200
-211
-297
-385
-462
-156
1027
2129
1556
-33
-694
-383
-201
-245
-207
-193
-234
-223
-191
-160
-110
-95
-119
-93
-20
11
14
63
133
158
159
173
175
139
107
91
28
-70
-122
-146
-186
-198
-178
-175
-158
-105
-84
-107
-114
-92
-74
-71
-69
-46
-26
-58
-103
-87
-53
-73
-92
-45
10
4
-5
69
168
189
173
212
262
261
264
306
351
402
434
393
329
267
390
1165
2229
2223
1014
103
121
331
349
338
302
240
235
247
224
183
154
170
208
192
138
130
174
201
166
109
91
70
-9
-89
-142
-209
-275
-323
-387
-462
-537
-619
-641
-601
-608
-627
-561
-518
-535
-469
-375
-396
-432
-397
-390
-410
-389
-379
-405
-392
-349
-366
-453
-531
-541
-493
-445
-421
-390
-376
-430
-482
-459
-409
-335
-248
-265
-369
-463
-397
378
1779
2184
859
-479
-576
-252
-201
-173
-101
-103
-104
-65
5
86
100
87
126
155
161
223
284
280
295
350
389
424
425
356
312
324
276
172
118
93
53
40
56
67
65
56
58
81
82
59
67
93
94
88
83
70
77
89
68
54
82
103
88
68
61
56
48
55
84
79
25
1
18
2
-12
-3
-69
-181
-293
-339
317
1837
2516
1187
-428
-643
-238
-175
-220
-195
-211
-216
-204
-207
-176
-144
-152
-144
-109
-79
-45
-1
32
57
87
98
89
88
74
16
-50
-108
-188
-261
-286
-298
-321
-319
-295
-296
-309
-292
-271
-274
-271
-240
-218
-219
-218
-211
-213
-220
-226
-213
-179
-175
-220
-247
-217
-180
-161
-143
-127
-131
-153
-163
-143
-139
-159
-123
-70
-121
-225
-311
-142
788
1981
1854
404
-490
-215
145
125
77
81
76
103
118
85
68
98
137
146
154
208
261
276
305
354
383
396
386
350
326
291
206
126
83
39
8
19
27
-2
-22
-2
31
41
37
39
34
5
-16
2
16
-14
-42
-34
-23
-30
-37
-41
-47
-58
-103
-159
-164
-142
-163
-201
-206
-208
-216
-212
-223
-227
-187
-212
-331
-423
-520
-355
675
1870
1561
36
-795
-588
-385
-426
-399
-356
-367
-349
-311
-285
-257
-234
-217
-198
-170
-126
-86
-63
-24
44
99
122
116
87
54
24
-19
-75
-122
-156
-192
-227
-237
-211
-178
-177
-188
-169
-146
-152
-136
-95
-97
-121
-103
-72
-65
-60
-54
-48
-23
2
32
81
95
69
88
140
141
122
131
124
110
115
90
77
144
132
-20
-174
-295
103
1566
2780
1919
54
-571
-179
-34
-88
-5
52
60
92
88
79
110
121
107
133
175
183
189
244
308
333
339
341
322
267
185
108
40
-56
-144
-167
-182
-228
-245
-229
-222
-217
-210
-218
-227
-221
-212
-201
-187
-178
-178
-180
-178
-163
-150
-161
-172
-162
-158
-167
-161
-139
-127
-135
-140
-122
-111
-132
-147
-152
-169
-154
-135
-208
-323
-460
-415
491
1942
2108
600
-596
-540
-270
-290
-250
-190
-230
-227
-177
-160
-142
-116
-109
-99
-78
-51
-10
39
82
124
160
183
196
181
122
60
12
-57
-144
-199
-217
-232
-244
-244
-238
-224
-206
-203
-203
-188
-175
-167
-153
-144
-141
-127
-126
-145
-139
-111
-101
-100
-89
-84
-81
-67
-44
-26
-27
-35
-24
-10
-5
3
2
0
30
25
-58
-161
-234
85
1149
2015
1410
84
-386
-143
-52
-79
-23
-7
-3
38
46
53
90
107
112
141
186
236
273
306
376
441
446
441
458
450
418
391
342
269
229
221
173
92
62
88
109
106
89
67
43
-8
-90
-146
-135
-86
-56
-71
-102
-113
-123
-156
-177
-169
-171
-202
-237
-255
-247
-227
-230
-244
-240
-241
-272
-301
-325
-348
-331
-307
-360
-451
-557
-557
102
1362
1773
620
-643
-813
-487
-376
-378
-358
-350
-325
-271
-233
-231
-240
-218
-184
-161
-128
-84
-52
-14
46
92
103
107
109
84
35
-16
-68
-122
-167
-198
-205
-191
-178
-177
-174
-151
-109
-80
-83
-85
-56
-30
-40
-54
-40
-14
0
3
9
36
64
56
48
78
87
73
112
156
132
119
158
149
103
100
96
72
104
110
7
-126
-268
-3
1324
2710
2178
303
-580
-259
-29
-56
17
47
3
34
91
111
130
149
154
168
201
230
245
270
317
356
376
383
357
305
255
176
64
-18
-66
-120
-170
-197
-201
-195
-213
-244
-229
-193
-200
-218
-217
-244
-297
-310
-287
-276
-286
-286
-257
-231
-249
-280
-273
-236
-205
-200
-207
-192
-190
-231
-229
-162
-158
-212
-209
-201
-238
-205
-152
-215
-336
-477
-349
728
2147
2011
360
-664
-460
-205
-260
-239
-185
-202
-195
-179
-180
-167
-148
-126
-97
-71
-35
5
28
68
137
171
173
193
197
146
92
51
-24
-111
-166
-207
-232
-228
-221
-217
-211
-225
-229
-206
-201
-211
-192
-162
-150
-141
-127
-119
-118
-115
-102
-89
-84
-79
-60
-29
-8
-8
6
47
55
18
30
87
73
9
61
224
297
215
186
353
431
222
389
1410
2133
1401
169
-187
45
119
88
114
126
134
155
151
154
176
171
154
170
191
181
168
178
190
181
153
129
108
62
-10
-84
-155
-226
-286
-329
-360
-374
-376
-375
-360
-324
-292
-273
-249
-225
-222
-225
-211
-197
-198
-205
-193
-165
-161
-188
-195
-170
-151
-148
-141
-127
-117
-125
-133
-122
-112
-109
-91
-91
-130
-147
-136
-162
-164
-115
-155
-285
-427
-433
321
1820
2329
947
-516
-613
-224
-177
-155
-40
-12
10
77
117
145
177
189
207
249
283
301
327
372
420
452
477
500
492
445
389
295
100
-141
-306
-382
-432
-449
-387
-280
-194
-155
-158
-201
-263
-324
-376
-406
-393
-366
-371
-393
-396
-393
-395
-391
-387
-404
-426
-415
-367
-340
-355
-322
-214
-130
-89
-37
-16
-41
-45
-48
-54
3
9
-117
-264
-397
-55
1389
2753
2053
133
-630
-263
-104
-181
-108
-63
-81
-27
25
10
-14
-2
45
89
100
101
141
217
255
225
220
275
284
213
147
86
-16
-112
-162
-198
-237
-262
-259
-228
-216
-244
-250
-220
-211
-218
-204
-179
-146
-102
-81
-91
-89
-63
-56
-78
-75
-55
-122
-259
-289
-167
-63
-50
-33
19
52
80
122
113
62
74
129
148
170
172
58
-54
34
543
1721
2929
2780
1373
382
354
435
322
290
289
238
233
251
236
220
212
195
179
163
145
132
118
105
109
115
98
76
61
27
-31
-94
-166
-239
-282
-287
-279
-276
-285
-288
-280
-281
-290
-286
-271
-252
-246
-256
-234
-228
-390
-634
-712
-688
-775
-900
-905
-804
-685
-642
-690
-719
-686
-673
-687
-674
-635
-573
-501
-481
-492
-462
-432
-418
-362
-363
-461
-548
-642
-291
1150
2440
1636
-222
-768
-289
-170
-264
-165
-121
-145
-88
-38
-21
17
52
85
135
179
219
273
324
365
409
448
476
491
478
442
393
309
188
84
35
18
6
-10
-20
-8
11
6
-11
-5
2
-14
-21
-12
-29
-52
-37
-20
-23
-19
-21
-32
-25
-23
-31
4
43
12
-26
-5
7
7
73
133
100
81
144
173
173
264
320
208
79
22
320
1575
3032
2735
912
-116
128
303
160
201
245
101
-1
-5
-29
-54
-40
-22
-28
-42
-25
34
94
136
176
207
212
194
156
86
-10
-114
-222
-330
-392
-372
-318
-288
-273
-280
-330
-371
-369
-374
-423
-473
-451
-344
-230
-142
-62
-23
-23
-11
-18
-16
106
245
220
130
130
147
120
138
224
294
287
228
185
149
93
95
70
-177
-474
-732
-944
-154
1837
2632
963
-821
-1025
-716
-709
-756
-836
-977
-1075
-1140
-1143
-1136
-1237
-1264
-1051
-790
-630
-559
-617
-783
-988
-1138
-994
-602
-406
-438
-348
-174
-102
-56
-20
-38
-1
134
251
287
303
381
484
523
516
474
354
242
248
327
369
266
66
38
224
304
227
254
362
343
243
217
284
360
346
249
222
310
346
336
496
727
719
502
273
406
1440
2644
2259
570
-311
-14
270
256
204
140
234
371
233
103
221
299
319
411
375
247
278
343
302
323
422
409
283
195
179
150
25
-203
-482
-720
-844
-875
-892
-901
-841
-697
-538
-428
-351
-273
-213
-173
-120
-64
-68
-125
-111
-7
-18
-224
-413
-464
-491
-557
-588
-536
-458
-433
-404
-298
-232
-274
-304
-319
-392
-529
-713
-368
1103
2330
1429
-389
-756
-110
80
0
93
115
69
116
187
254
293
288
335
340
172
97
225
188
13
133
384
324
156
219
258
-21
-366
-451
-377
-387
-489
-545
-508
-440
-406
-422
-480
-541
-575
-670
-910
-1151
-1209
-1189
-1240
-1310
-1352
-1309
-1044
-659
-398
-218
-15
113
154
192
200
206
284
364
445
559
572
561
772
1012
1008
794
673
1568
3507
4077
2070
122
108
575
469
374
418
373
370
389
336
337
425
510
573
598
611
663
629
389
143
99
173
261
353
361
227
18
-238
-543
-818
-925
-828
-772
-978
-1193
-1131
-999
-1014
-1051
-1029
-997
-963
-932
-889
-857
-937
-1034
-918
-663
-500
-407
-262
-109
-52
-65
-25
87
165
190
245
368
544
638
508
318
165
68
819
2601
3190
1290
-634
-650
-119
-81
32
185
60
-2
78
53
24
82
88
65
88
63
36
172
401
600
810
975
988
962
983
927
760
608
507
421
347
268
190
145
52
-169
-419
-578
-700
-871
-1008
-1010
-998
-1114
-1271
-1340
-1345
-1369
-1415
-1369
-1190
-1055
-1066
-1075
-1008
-968
-988
-1018
-1034
-1076
-1146
-1093
-911
-841
-863
-832
-661
234
1782
2117
584
-593
-194
469
687
875
936
748
671
755
720
541
453
519
526
485
676
1049
1331
1515
1587
1419
1148
987
886
751
599
421
205
17
-84
-134
-202
-272
-311
-345
-337
-264
-212
-175
-94
-97
-219
-293
-350
-480
-516
-412
-391
-476
-496
-450
-443
-425
-294
-138
-126
-173
-80
33
-55
-215
-270
-301
-397
-534
-304
944
2480
2348
609
-541
-439
-215
-250
-238
-222
-221
-154
-140
-200
-205
-170
-155
-115
-39
33
127
264
383
454
501
503
459
451
465
405
326
338
350
248
142
163
214
132
-33
-81
31
134
119
78
107
79
-71
48
659
1140
953
519
368
380
299
193
165
110
105
310
255
-272
-309
299
259
-473
-800
-822
-1075
-1269
-751
815
2119
1233
-783
-1356
-825
-812
-1062
-999
-952
-982
-905
-835
-802
-728
-671
-625
-535
-461
-448
-435
-388
-333
-277
-210
-164
-172
-194
-212
-251
-247
-154
-90
-110
-77
52
124
68
6
35
79
36
-37
-24
35
45
32
31
54
186
313
151
-124
-101
62
35
-47
-63
-142
-217
-185
-181
-205
-170
-214
-338
-399
-291
614
2404
3110
1526
-256
-439
-39
-29
-67
-58
-111
-78
-8
-3
19
78
144
170
106
70
154
241
306
437
546
519
458
476
492
416
303
224
171
128
81
27
-10
-43
-111
-180
-226
-278
-327
-365
-420
-454
-432
-429
-472
-487
-439
-369
-331
-310
-225
-102
-70
-62
88
275
305
233
155
106
189
344
334
161
-80
-123
816
2527
2915
1230
-334
-409
-90
-90
-36
36
-48
-83
-41
-52
-61
-25
3
28
53
41
7
-26
-62
-60
16
66
15
-27
9
-1
-84
-114
-78
-63
-99
-163
-200
-185
-183
-188
-140
-95
-125
-171
-151
-87
-63
-94
-122
-147
-210
-287
-355
-427
-463
-467
-530
-647
-740
-780
-725
-596
-544
-590
-594
-534
-539
-726
-966
-797
-38
