# session 36
-94
-126
-54
-1
-183
-475
-560
-488
-472
-482
-457
-452
-453
-424
-401
-399
-390
-374
-362
-353
-342
-326
-311
-310
-315
-319
-325
-324
-297
-233
-164
-142
-170
-201
-213
-201
-180
-194
-197
-141
-152
-223
-69
539
1636
2578
2008
109
-861
-212
319
87
-33
71
35
8
62
66
70
116
141
156
191
222
243
275
313
342
375
418
458
498
546
596
643
695
744
790
840
870
825
689
497
281
67
-110
-234
-315
-365
-388
-395
-397
-398
-395
-391
-387
-388
-391
-393
-392
-391
-383
-372
-369
-371
-366
-354
-353
-360
-349
-322
-308
-309
-305
-297
-295
-288
-276
-266
-259
-254
-250
-244
-239
-235
-227
-214
-207
-203
-199
-202
-201
-183
-163
-162
-168
-165
-154
-157
-171
-160
-126
-127
-160
-166
-157
-182
-218
-226
-213
-186
-156
-132
-106
-96
-104
-68
-43
-106
-49
387
1282
2310
2324
758
-681
-439
324
288
49
127
150
82
111
138
125
144
164
172
211
261
281
293
319
336
343
389
463
497
499
541
614
663
685
713
754
782
777
730
628
465
260
49
-125
-234
-293
-342
-382
-394
-396
-407
-404
-389
-393
-401
-409
-431
-425
-371
-360
-402
-395
-348
-353
-377
-354
-336
-360
-361
-321
-286
-267
-264
-281
-303
-313
-292
-258
-261
-280
-265
-255
-261
-228
-198
-217
-223
-202
-205
-211
-193
-185
-193
-199
-197
-171
-145
-161
-179
-158
-140
-153
-168
-176
-190
-213
-238
-235
-195
-162
-143
-112
-105
-119
-73
-47
-110
21
651
1624
2220
1531
-125
-953
-324
325
227
73
145
175
185
204
171
178
231
208
161
213
308
353
368
387
396
410
442
454
451
513
633
697
692
720
784
803
801
825
790
613
359
132
-44
-189
-299
-358
-391
-420
-411
-375
-375
-393
-376
-364
-389
-400
-383
-378
-370
-350
-354
-371
-362
-356
-369
-358
-337
-351
-360
-335
-319
-319
-308
-312
-324
-303
-269
-259
-272
-292
-286
-250
-235
-248
-237
-213
-214
-219
-210
-205
-202
-189
-185
-197
-191
-156
-138
-152
-156
-149
-155
-167
-182
-204
-219
-232
-240
-201
-137
-113
-107
-101
-108
-75
-44
-107
-66
382
1286
2248
2203
693
-680
-461
287
293
70
131
152
93
129
162
151
166
187
193
209
240
280
316
335
357
389
417
449
494
529
561
620
681
712
755
824
868
858
797
652
420
175
-25
-174
-285
-358
-397
-416
-427
-425
-405
-389
-387
-386
-382
-381
-381
-376
-371
-369
-377
-386
-376
-355
-350
-350
-343
-341
-344
-335
-319
-311
-304
-297
-292
-285
-277
-273
-269
-260
-254
-249
-231
-212
-209
-211
-205
-199
-196
-189
-181
-180
-182
-182
-177
-166
-148
-136
-152
-191
-212
-194
-164
-155
-164
-169
-170
-184
-204
-208
-201
-189
-165
-138
-118
-95
-89
-89
-46
-41
-106
1
513
1444
2352
2098
447
-743
-309
371
259
69
160
161
108
146
160
156
191
209
209
232
256
269
298
337
357
373
408
454
496
538
581
623
666
711
760
805
832
833
778
633
415
192
-3
-164
-276
-341
-379
-402
-413
-416
-409
-398
-394
-390
-380
-375
-380
-382
-376
-378
-392
-388
-364
-356
-366
-358
-337
-332
-340
-338
-328
-323
-318
-303
-295
-306
-307
-278
-251
-249
-251
-247
-240
-231
-226
-222
-211
-201
-201
-198
-190
-183
-177
-176
-171
-153
-141
-149
-152
-140
-131
-131
-126
-123
-123
-120
-118
-133
-159
-176
-180
-187
-187
-156
-124
-112
-91
-73
-74
-44
-26
-86
-14
484
1421
2295
2033
417
-819
-443
308
279
76
145
154
98
130
151
147
183
207
206
225
249
263
286
317
347
372
395
426
472
521
559
595
642
700
751
784
809
823
778
637
422
193
-8
-170
-292
-369
-410
-427
-429
-425
-415
-401
-394
-395
-388
-377
-374
-373
-373
-377
-379
-369
-360
-360
-361
-352
-336
-325
-324
-326
-321
-312
-306
-304
-298
-287
-273
-263
-257
-248
-240
-235
-230
-222
-214
-207
-199
-192
-188
-187
-180
-173
-172
-167
-153
-147
-154
-153
-137
-131
-135
-134
-138
-150
-158
-174
-202
-216
-210
-197
-179
-149
-109
-88
-104
-84
-35
-86
-103
257
1086
2069
2295
1056
-495
-619
159
340
91
101
159
94
99
136
124
135
164
176
200
227
238
258
288
313
340
372
403
441
486
530
579
630
668
704
750
788
800
767
655
456
228
31
-132
-261
-339
-373
-400
-417
-409
-393
-390
-387
-378
-372
-366
-364
-367
-364
-358
-361
-365
-361
-352
-346
-344
-342
-335
-327
-324
-322
-315
-307
-304
-302
-293
-283
-276
-266
-256
-249
-244
-237
-232
-229
-220
-210
-205
-200
-194
-191
-185
-172
-163
-166
-171
-161
-142
-137
-150
-164
-172
-180
-190
-212
-233
-213
-171
-152
-126
-97
-113
-102
-46
-86
-104
235
1018
2009
2332
1109
-572
-746
136
380
99
98
169
100
109
166
166
171
195
204
216
229
251
294
329
348
374
406
435
462
487
521
574
617
641
676
722
748
749
720
615
431
229
48
-115
-243
-311
-343
-370
-391
-394
-388
-382
-380
-377
-375
-377
-374
-366
-359
-363
-373
-374
-356
-342
-346
-350
-348
-348
-340
-320
-312
-315
-308
-298
-297
-301
-306
-306
-281
-247
-241
-250
-238
-215
-212
-232
-251
-241
-203
-180
-200
-217
-194
-163
-160
-169
-168
-166
-171
-179
-191
-222
-261
-261
-213
-176
-158
-117
-97
-121
-85
-50
-141
-115
355
1282
2282
2295
747
-756
-576
254
295
25
58
114
104
145
145
119
150
183
183
192
217
246
278
310
335
361
396
433
459
487
537
597
640
672
713
754
788
807
760
604
392
187
-4
-171
-284
-349
-384
-394
-394
-399
-398
-391
-385
-380
-376
-377
-377
-375
-374
-372
-368
-368
-371
-364
-352
-350
-352
-342
-331
-328
-321
-305
-297
-299
-293
-276
-269
-278
-283
-269
-246
-233
-234
-233
-227
-222
-215
-206
-199
-191
-191
-202
-197
-167
-153
-167
-170
-164
-182
-212
-225
-231
-229
-206
-182
-158
-113
-102
-126
-82
-44
-113
-43
437
1340
2303
2214
578
-830
-495
317
276
45
142
163
91
131
155
124
148
193
205
214
238
265
293
317
336
361
397
434
466
497
529
569
622
673
708
732
757
765
708
559
356
146
-46
-192
-277
-333
-375
-393
-397
-402
-401
-398
-396
-380
-362
-364
-372
-370
-372
-376
-372
-366
-360
-355
-352
-345
-338
-342
-335
-311
-303
-310
-297
-277
-276
-273
-260
-253
-248
-240
-244
-249
-228
-201
-198
-204
-197
-187
-187
-192
-188
-175
-167
-164
-157
-153
-154
-146
-137
-143
-158
-176
-196
-221
-243
-232
-184
-147
-124
-100
-111
-107
-37
-41
-109
100
789
1799
2388
1510
-306
-972
-159
392
183
72
158
137
135
182
171
162
186
199
217
245
262
278
301
329
354
372
416
486
527
542
581
635
670
702
746
781
796
780
690
499
272
84
-72
-223
-334
-385
-409
-423
-429
-442
-442
-411
-401
-420
-401
-358
-361
-386
-383
-376
-381
-375
-362
-361
-364
-363
-358
-345
-341
-350
-340
-311
-300
-300
-287
-279
-280
-274
-265
-259
-250
-239
-230
-227
-234
-233
-205
-176
-180
-192
-180
-166
-175
-183
-168
-153
-159
-167
-170
-185
-219
-253
-247
-195
-148
-124
-99
-98
-101
-55
-54
-112
110
890
1921
2242
1088
-611
-987
-110
367
158
97
211
184
145
169
179
199
224
231
248
257
265
317
361
356
378
435
461
478
526
565
591
646
717
768
810
851
866
829
713
500
229
-1
-142
-244
-348
-416
-435
-452
-473
-460
-416
-386
-385
-396
-402
-390
-382
-388
-378
-358
-361
-372
-364
-356
-365
-371
-356
-343
-356
-358
-323
-294
-300
-306
-295
-287
-284
-275
-264
-265
-281
-280
-245
-213
-215
-228
-225
-209
-196
-204
-220
-209
-181
-166
-164
-168
-183
-208
-240
-266
-259
-209
-170
-176
-171
-130
-122
-120
-50
-48
-135
23
650
1614
2308
1700
-13
-882
-231
360
182
64
168
128
92
158
155
127
172
212
218
233
252
274
316
360
381
393
427
483
531
574
628
679
720
777
846
892
907
885
783
585
338
100
-99
-248
-344
-400
-434
-448
-443
-434
-426
-415
-403
-397
-393
-390
-388
-386
-386
-386
-382
-378
-375
-370
-360
-352
-349
-344
-335
-325
-317
-313
-310
-304
-294
-287
-282
-271
-260
-256
-252
-246
-237
-228
-220
-214
-207
-202
-202
-199
-187
-177
-180
-189
-192
-189
-183
-182
-192
-198
-203
-225
-252
-256
-236
-205
-178
-156
-124
-105
-116
-85
-44
-104
-72
389
1307
2223
2137
629
-777
-582
242
321
88
135
170
110
140
177
165
183
211
214
227
256
282
306
331
361
395
427
463
504
546
592
646
704
758
809
855
890
898
840
684
453
207
-10
-186
-313
-390
-429
-448
-453
-443
-430
-424
-418
-405
-396
-392
-388
-384
-383
-383
-380
-377
-377
-375
-368
-360
-357
-353
-345
-341
-337
-327
-316
-313
-307
-297
-292
-290
-284
-274
-266
-260
-251
-244
-240
-234
-226
-224
-221
-212
-204
-202
-197
-187
-182
-181
-176
-167
-162
-169
-178
-183
-200
-228
-241
-229
-206
-176
-153
-139
-122
-115
-102
-56
-77
-159
-18
559
1557
2456
2057
302
-780
-223
398
207
39
128
89
66
154
139
92
153
194
173
211
290
318
319
333
355
406
463
471
485
566
641
664
716
794
817
831
901
928
813
610
388
155
-61
-224
-337
-401
-432
-461
-477
-458
-442
-433
-395
-362
-377
-390
-380
-382
-386
-376
-377
-377
-361
-368
-395
-375
-323
-312
-327
-323
-313
-311
-307
-301
-296
-285
-274
-264
-253
-261
-274
-256
-223
-219
-227
-220
-210
-204
-197
-196
-197
-186
-171
-166
-171
-172
-162
-146
-139
-140
-139
-141
-155
-171
-175
-177
-191
-204
-193
-159
-136
-122
-91
-85
-99
-55
-47
-113
104
854
1779
2085
1128
-456
-988
-229
340
208
113
193
171
157
212
219
213
232
239
246
274
300
319
338
352
374
416
463
499
528
564
614
671
723
772
819
860
888
878
785
593
351
121
-77
-232
-331
-386
-425
-442
-434
-420
-413
-405
-392
-384
-379
-376
-375
-375
-373
-371
-368
-364
-365
-367
-358
-342
-335
-339
-340
-329
-322
-318
-305
-295
-307
-308
-274
-253
-267
-271
-253
-248
-248
-234
-228
-230
-212
-196
-203
-205
-191
-181
-174
-166
-165
-166
-160
-155
-149
-140
-148
-171
-167
-150
-181
-235
-236
-205
-198
-190
-162
-129
-100
-101
-118
-83
-70
-130
-12
549
1524
2337
1912
288
-688
-187
373
204
49
136
119
82
130
141
138
172
191
196
217
239
259
284
310
344
387
423
458
505
556
606
663
726
786
848
909
945
936
847
654
397
150
-60
-237
-364
-426
-449
-464
-472
-464
-449
-437
-427
-421
-417
-412
-406
-400
-395
-392
-391
-387
-385
-386
-381
-372
-367
-361
-352
-347
-341
-329
-317
-311
-304
-295
-290
-285
-277
-270
-262
-254
-248
-243
-237
-230
-223
-216
-209
-202
-194
-187
-183
-180
-174
-163
-158
-159
-154
-151
-159
-170
-181
-203
-225
-226
-212
-192
-170
-141
-104
-96
-109
-66
-37
-111
-51
410
1282
2237
2256
781
-625
-424
329
314
73
138
158
97
135
162
145
170
196
199
220
251
273
296
322
351
383
414
446
485
525
566
610
658
707
750
784
810
812
753
611
409
190
-10
-174
-294
-371
-412
-430
-437
-436
-426
-413
-410
-412
-408
-402
-398
-395
-392
-392
-391
-384
-377
-373
-366
-357
-351
-348
-341
-333
-326
-316
-307
-299
-286
-273
-271
-274
-266
-254
-246
-238
-227
-219
-217
-213
-207
-200
-193
-187
-186
-186
-179
-171
-166
-160
-155
-156
-161
-168
-175
-183
-208
-238
-223
-174
-152
-139
-109
-109
-107
-52
-64
-91
288
1198
2021
1837
413
-996
-963
-39
330
155
136
208
179
182
219
220
233
255
257
271
304
325
336
354
381
407
432
462
498
529
564
609
657
703
745
777
803
820
784
654
448
226
27
-137
-260
-339
-385
-410
-415
-411
-408
-398
-384
-374
-371
-365
-357
-353
-352
-350
-347
-344
-343
-339
-332
-327
-323
-319
-311
-298
-283
-273
-263
-254
-257
-279
-298
-289
-261
-246
-246
-242
-233
-232
-232
-227
-225
-226
-223
-221
-230
-239
-235
-230
-237
-242
-209
-135
-87
-98
-129
-142
-132
-121
-140
-139
-98
-130
-177
73
819
1869
2328
1269
-403
-774
-16
280
14
-29
81
67
36
41
61
115
145
129
130
159
191
218
240
279
343
383
379
393
459
517
533
579
701
810
834
843
883
842
633
355
131
-45
-210
-347
-443
-501
-506
-483
-481
-488
-471
-453
-450
-438
-423
-427
-433
-436
-452
-445
-401
-386
-413
-421
-410
-405
-399
-386
-373
-366
-370
-372
-368
-376
-382
-367
-345
-306
-244
-232
-283
-298
-260
-236
-243
-249
-220
-195
-247
-253
56
874
2005
2380
1099
-566
-734
23
189
-45
-29
18
-34
-13
19
13
43
74
77
107
150
167
186
223
259
294
334
380
437
501
563
641
725
783
833
908
952
890
715
470
212
-11
-193
-335
-421
-465
-491
-486
-457
-445
-449
-437
-413
-396
-388
-384
-381
-377
-375
-374
-366
-356
-355
-353
-334
-315
-305
-292
-284
-291
-298
-304
-305
-290
-277
-259
-194
-130
-142
-188
-211
-218
-202
-190
-211
-180
-117
-172
-209
112
965
2075
2334
971
-594
-607
148
223
-32
-4
28
-31
4
42
23
44
82
85
99
140
171
189
211
239
269
304
343
386
438
493
543
600
669
726
763
786
740
572
327
90
-117
-296
-427
-493
-516
-524
-528
-528
-527
-518
-492
-470
-470
-475
-465
-447
-436
-431
-416
-392
-378
-372
-350
-317
-296
-285
