# session 38
-1
31
-33
26
328
599
644
629
679
723
742
773
803
824
837
805
696
522
321
141
13
-74
-141
-188
-205
-212
-223
-222
-217
-227
-236
-231
-235
-247
-248
-247
-257
-259
-246
-238
-242
-242
-233
-227
-223
-218
-212
-204
-195
-195
-197
-190
-177
-172
-179
-179
-165
-155
-159
-156
-142
-140
-147
-137
-124
-137
-148
-121
-95
-105
-114
-108
-118
-142
-155
-168
-195
-204
-181
-157
-144
-109
-72
-86
-83
-28
-60
-117
112
775
1784
2456
1661
-102
-725
31
429
145
68
164
106
85
140
136
136
171
178
179
205
232
251
271
291
311
330
348
373
408
439
461
483
513
544
569
593
606
576
479
335
171
13
-117
-213
-284
-330
-351
-364
-383
-396
-392
-383
-391
-409
-413
-409
-414
-417
-406
-399
-402
-398
-387
-379
-374
-366
-359
-349
-338
-334
-331
-318
-304
-297
-289
-277
-272
-275
-268
-250
-241
-242
-234
-217
-211
-213
-208
-198
-189
-186
-186
-183
-173
-161
-159
-169
-180
-182
-190
-213
-236
-234
-204
-171
-146
-112
-96
-108
-77
-42
-97
-60
355
1238
2256
2300
787
-660
-454
334
338
94
156
179
116
152
183
169
190
214
219
240
261
268
291
332
360
379
397
415
438
471
499
521
547
575
601
626
637
624
563
430
249
80
-57
-166
-241
-286
-323
-342
-332
-326
-341
-349
-342
-342
-350
-360
-369
-363
-349
-355
-365
-349
-331
-333
-337
-330
-318
-306
-300
-309
-308
-280
-254
-254
-259
-248
-239
-239
-235
-225
-217
-207
-199
-204
-204
-185
-171
-173
-171
-165
-167
-164
-154
-149
-143
-139
-144
-141
-130
-138
-161
-176
-185
-210
-232
-216
-174
-148
-127
-103
-106
-95
-52
-83
-104
191
952
1987
2425
1306
-437
-776
80
405
128
93
174
110
109
172
162
149
178
203
217
231
244
269
301
320
337
357
371
393
428
452
472
516
565
587
592
609
633
602
471
278
90
-63
-178
-268
-344
-382
-375
-368
-383
-396
-392
-379
-370
-369
-372
-371
-366
-361
-367
-387
-389
-355
-334
-351
-356
-337
-326
-321
-302
-279
-271
-280
-285
-268
-243
-236
-232
-218
-213
-220
-212
-190
-183
-185
-177
-162
-157
-160
-166
-165
-147
-130
-134
-132
-117
-122
-139
-136
-130
-142
-164
-205
-237
-208
-159
-141
-117
-91
-95
-69
-32
-82
-54
370
1250
2167
2096
593
-806
-594
253
344
107
151
194
137
160
197
191
209
239
249
249
256
289
338
363
367
385
417
454
492
515
532
569
617
652
683
714
732
726
649
474
256
58
-109
-237
-315
-361
-397
-416
-411
-403
-407
-410
-398
-386
-391
-398
-399
-403
-404
-393
-389
-400
-404
-389
-375
-373
-371
-363
-354
-348
-343
-331
-316
-305
-300
-292
-278
-269
-267
-262
-245
-230
-225
-218
-208
-206
-206
-198
-190
-187
-183
-176
-171
-168
-168
-165
-153
-140
-144
-161
-179
-197
-219
-230
-214
-187
-162
-125
-99
-108
-83
-37
-85
-90
265
1072
2049
2288
1063
-455
-537
232
372
113
128
176
113
131
170
158
176
207
215
231
254
268
290
320
344
372
409
439
469
509
548
580
618
665
708
741
763
748
669
510
293
76
-90
-211
-306
-361
-376
-380
-385
-384
-378
-373
-369
-367
-365
-364
-362
-361
-362
-366
-365
-357
-352
-350
-347
-343
-341
-338
-329
-315
-302
-294
-292
-290
-283
-273
-266
-255
-242
-236
-232
-220
-209
-205
-201
-199
-197
-191
-184
-180
-177
-173
-169
-165
-160
-159
-162
-162
-162
-170
-182
-192
-210
-238
-243
-214
-184
-149
-113
-120
-118
-58
-66
-116
133
882
1877
2258
1194
-456
-814
8
385
146
93
177
137
134
180
175
177
205
216
229
253
273
300
329
347
372
410
442
472
514
559
599
640
685
722
755
788
794
724
561
336
105
-85
-222
-321
-386
-416
-428
-429
-419
-407
-397
-387
-386
-389
-380
-370
-373
-374
-369
-372
-374
-366
-360
-362
-358
-349
-339
-330
-321
-314
-305
-295
-284
-275
-269
-260
-248
-241
-236
-228
-220
-218
-213
-204
-198
-196
-191
-185
-181
-178
-175
-169
-162
-157
-156
-153
-157
-172
-181
-188
-218
-241
-219
-181
-145
-110
-110
-111
-60
-73
-108
189
946
1764
1892
817
-603
-826
-33
350
174
136
208
171
167
211
212
220
252
266
279
302
318
335
361
385
410
440
467
495
531
574
616
658
701
745
786
815
809
724
541
304
81
-97
-230
-320
-371
-396
-401
-393
-386
-381
-365
-356
-368
-376
-353
-327
-328
-345
-356
-360
-357
-342
-333
-344
-352
-346
-344
-348
-341
-333
-329
-310
-291
-303
-305
-266
-251
-279
-276
-234
-211
-217
-232
-248
-244
-217
-204
-217
-210
-187
-215
-265
-254
-210
-190
-160
-102
-78
-113
-160
-161
-130
-138
-161
-123
-116
-174
-41
515
1452
2177
1637
21
-805
-223
296
124
8
95
68
42
92
94
92
134
159
172
200
226
248
281
309
333
362
398
441
484
523
570
629
681
728
778
814
809
739
576
333
83
-111
-248
-346
-406
-433
-445
-447
-439
-427
-419
-411
-401
-398
-398
-393
-384
-379
-381
-383
-379
-373
-375
-374
-361
-353
-355
-350
-338
-332
-329
-321
-311
-304
-296
-285
-279
-286
-295
-295
-293
-293
-277
-220
-148
-123
-154
-192
-202
-185
-174
-184
-160
-124
-169
-174
144
973
2066
2322
969
-596
-619
149
253
10
44
92
39
66
102
93
119
157
172
196
227
251
277
307
337
373
413
453
491
533
583
636
685
731
776
812
822
762
598
360
125
-71
-224
-329
-385
-407
-413
-408
-397
-384
-373
-364
-354
-345
-342
-341
-340
-339
-338
-339
-338
-335
-330
-326
-322
-317
-312
-307
-302
-297
-291
-281
-276
-272
-262
-252
-247
-242
-234
-230
-226
-218
-210
-206
-201
-193
-184
-178
-173
-168
-163
-158
-154
-147
-141
-138
-133
-125
-127
-141
-154
-164
-186
-210
-208
-188
-173
-140
-97
-98
-88
-33
-60
-111
126
829
1883
2477
1519
-261
-760
43
413
144
91
177
120
110
160
155
161
194
204
216
239
255
278
309
333
353
380
406
432
462
492
521
554
590
624
658
692
710
678
569
392
194
17
-125
-227
-295
-339
-362
-370
-373
-376
-380
-383
-382
-380
-380
-382
-383
-385
-386
-383
-380
-380
-378
-366
-354
-351
-347
-337
-331
-326
-317
-309
-305
-298
-289
-280
-271
-261
-256
-252
-248
-242
-232
-220
-213
-211
-207
-203
-199
-194
-190
-185
-178
-175
-171
-166
-166
-171
-179
-187
-197
-217
-242
-240
-216
-193
-151
-110
-116
-98
-46
-81
-99
208
993
2056
2430
1177
-551
-741
148
401
123
120
195
132
136
180
171
186
220
228
243
269
283
302
333
358
380
408
436
460
487
518
549
576
604
636
666
687
688
640
511
322
128
-38
-169
-262
-317
-348
-366
-374
-372
-367
-365
-362
-366
-372
-366
-356
-361
-370
-368
-362
-360
-356
-353
-353
-349
-335
-322
-318
-316
-308
-296
-289
-286
-282
-272
-260
-250
-244
-238
-233
-229
-224
-216
-210
-206
-200
-193
-190
-183
-174
-173
-173
-168
-165
-161
-152
-149
-160
-173
-179
-191
-220
-244
-232
-199
-170
-134
-114
-112
-76
-58
-107
-3
539
1530
2362
1876
77
-1056
-484
311
270
98
175
171
126
171
189
187
218
233
237
262
282
293
317
346
371
396
421
446
475
509
547
586
617
648
684
718
738
725
637
459
244
48
-116
-247
-326
-364
-391
-407
-407
-400
-397
-395
-389
-377
-371
-378
-383
-372
-364
-375
-385
-374
-360
-359
-357
-350
-345
-338
-331
-331
-326
-311
-300
-294
-287
-282
-277
-265
-254
-249
-244
-239
-234
-227
-226
-229
-223
-220
-237
-241
-199
-135
-99
-113
-156
-181
-169
-169
-196
-171
-120
-174
-184
220
1102
1971
1884
457
-959
-871
-5
225
21
27
78
38
51
78
76
108
143
149
170
207
232
256
290
323
354
391
429
464
505
553
596
637
681
722
757
784
766
662
469
235
21
-138
-250
-328
-371
-386
-388
-384
-378
-374
-368
-358
-354
-352
-351
-354
-357
-357
-358
-363
-365
-363
-364
-367
-361
-354
-356
-358
-353
-353
-366
-376
-374
-351
-290
-222
-207
-245
-284
-301
-290
-273
-284
-264
-213
-257
-295
-27
733
1920
2617
1565
-369
-875
-44
274
-23
-53
38
-28
-36
19
21
30
61
84
117
149
164
188
226
257
285
323
365
402
444
493
540
581
620
662
695
704
659
526
315
90
-98
-241
-345
-407
-431
-435
-432
-422
-408
-397
-389
-381
-378
-376
-373
-369
-369
-370
-368
-365
-362
-357
-352
-348
-342
-332
-325
-318
-313
-310
-305
-305
-309
-301
-284
-259
-207
-154
-157
-203
-238
-244
-226
-224
-235
-196
-177
-239
-163
250
1095
2186
2331
744
-829
-611
221
208
-40
42
63
-2
45
77
64
97
132
142
169
202
224
251
280
307
341
375
406
440
477
510
542
576
610
638
660
666
617
486
295
98
-71
-202
-292
-347
-375
-389
-395
-394
-389
-386
-384
-383
-383
-385
-386
-387
-386
-384
-383
-380
-373
-367
-365
-360
-351
-341
-332
-323
-313
-305
-299
-293
-283
-276
-276
-276
-279
-284
-284
-265
-213
-147
-121
-147
-184
-203
-197
-179
-187
-183
-136
-157
-211
-34
543
1591
2537
1967
13
-973
-250
346
119
-2
105
65
37
99
104
104
147
168
181
216
245
267
297
329
357
385
415
446
478
511
546
583
621
656
687
712
713
647
492
288
92
-70
-195
-279
-328
-354
-367
-369
-366
-360
-359
-362
-363
-360
-360
-364
-368
-368
-364
-361
-359
-354
-347
-342
-338
-333
-324
-313
-305
-303
-299
-287
-272
-265
-263
-259
-252
-245
-243
-241
-233
-223
-219
-213
-200
-193
-194
-188
-179
-176
-173
-165
-161
-159
-152
-147
-158
-166
-164
-178
-210
-229
-219
-192
-167
-142
-106
-93
-107
-69
-34
-98
-66
324
1164
2252
2519
1125
-480
-465
308
346
76
122
156
88
117
156
146
167
197
201
209
228
252
278
303
327
355
382
407
435
464
495
534
577
617
656
692
722
727
669
525
330
138
-29
-164
-262
-322
-357
-375
-382
-389
-395
-393
-391
-395
-399
-399
-404
-411
-410
-403
-398
-394
-389
-385
-379
-370
-361
-351
-341
-336
-333
-322
-310
-306
-299
-282
-270
-269
-267
-258
-252
-247
-239
-232
-230
-225
-215
-205
-200
-196
-189
-182
-177
-175
-173
-168
-159
-153
-158
-166
-169
-183
-210
-236
-242
-219
-179
-147
-121
-99
-106
-93
-36
-64
-113
138
860
1907
2483
1529
-256
-780
22
416
157
97
179
128
129
183
173
175
209
219
229
250
267
298
336
357
371
401
438
473
507
540
576
617
658
699
738
771
783
739
606
401
180
-10
-158
-264
-329
-366
-385
-389
-386
-383
-379
-375
-373
-372
-373
-373
-374
-374
-374
-373
-373
-372
-369
-365
-361
-356
-350
-343
-337
-332
-326
-318
-310
-303
-296
-289
-281
-274
-269
-264
-257
-251
-244
-237
-231
-223
-216
-210
-205
-200
-195
-189
-182
-176
-172
-168
-164
-157
-148
-151
-164
-172
-184
-212
-236
-235
-212
-182
-158
-131
-102
-107
-107
-53
-63
-129
32
608
1619
2563
2159
363
-699
-127
435
207
56
160
125
82
138
153
148
173
185
194
220
239
261
295
317
334
368
413
443
453
473
526
587
636
686
727
742
753
743
633
428
220
38
-132
-260
-331
-371
-398
-412
-407
-377
-346
-348
-363
-356
-338
-339
-347
-341
-329
-331
-341
-333
-315
-317
-332
-330
-318
-313
-302
-294
-305
-302
-270
-258
-280
-284
-266
-255
-252
-243
-238
-242
-239
-227
-219
-222
-222
-213
-204
-201
-199
-194
-188
-183
-178
-174
-167
-159
-154
-149
-141
-138
-142
-142
-140
-147
-170
-196
-211
-208
-184
-149
-121
-92
-74
-91
-79
-30
-64
-87
209
978
2008
2390
1261
-348
-588
171
379
113
103
173
117
120
158
148
161
196
205
213
237
256
276
307
337
358
392
436
468
497
540
584
629
689
750
784
807
819
763
600
375
150
-47
-202
-305
-368
-405
-418
-416
-409
-406
-397
-383
-376
-382
-384
-377
-372
-377
-385
-387
-387
-388
-386
-379
-372
-368
-367
-366
-359
-352
-351
-342
-325
-317
-318
-308
-293
-292
-295
-282
-259
-252
-256
-250
-236
-227
-216
-206
-204
-203
-191
-175
-164
-162
-160
-151
-142
-142
-141
-137
-129
-123
-123
-130
-141
-166
-194
-205
-198
-181
-155
-122
-86
-76
-87
-52
-19
-71
-34
387
1335
2413
2400
843
-513
-273
381
290
78
170
179
105
142
174
164
192
219
223
243
270
291
319
346
364
388
417
449
488
531
574
623
667
707
758
807
827
811
724
531
283
69
-92
-232
-340
-383
-372
-362
-378
-391
-384
-375
-370
-363
-362
-367
-362
-355
-357
-363
-362
-356
-354
-351
-346
-342
-343
-339
-328
-318
-316
-314
-306
-298
-296
-291
-283
-281
-279
-273
-269
-263
-251
-246
-248
-242
-237
-246
-243
-218
-199
-198
-198
-196
-190
-184
-183
-181
-168
-158
-159
-166
-167
-158
-147
-153
-172
-190
-208
-228
-245
-250
-238
-214
-181
-143
-137
-145
-106
-101
-164
-35
539
1525
2311
1796
124
-774
-183
373
180
34
126
103
72
124
122
108
150
179
182
199
224
247
274
299
324
345
366
404
460
505
538
578
622
663
704
746
775
760
664
485
267
58
-109
-223
-296
-342
-359
-357
-358
-362
-351
-336
-331
-326
-315
-310
-309
-305
-298
-292
-285
-279
-274
-268
-258
-246
-238
-231
-221
-209
-199
-185
-169
-160
-155
-150
-140
-122
-106
-101
-95
-83
-74
-67
-53
-42
-39
-34
-23
-16
-14
-6
4
10
15
22
25
25
30
