# session 12
-30
-49
-8
-62
-266
-437
-487
-486
-470
-460
-452
-395
-332
-329
-346
-377
-413
-362
-332
-410
-312
120
811
1538
1405
59
-922
-478
170
155
77
148
112
85
123
143
222
321
338
373
475
529
536
585
647
681
722
749
710
651
600
506
382
286
232
207
168
73
-21
-51
-77
-137
-158
-136
-133
-124
-80
-73
-138
-214
-232
-184
-185
-320
-384
-146
375
971
955
-226
-1483
-1375
-580
-417
-604
-554
-493
-524
-487
-444
-432
-396
-392
-410
-357
-276
-244
-213
-158
-131
-129
-116
-82
-14
70
97
54
-9
-76
-148
-194
-223
-251
-245
-213
-201
-175
-113
-94
-114
-82
-49
-92
-151
-205
-255
-229
-226
-336
-268
191
847
1300
903
-346
-1068
-568
-10
-70
-126
4
20
13
81
128
179
264
330
382
439
490
561
659
750
815
868
917
954
948
866
709
550
472
457
414
324
254
215
173
140
123
82
9
-41
-30
4
19
13
-32
-85
-67
-71
-197
-252
-20
606
1420
1376
-47
-1265
-1029
-501
-626
-720
-554
-582
-691
-646
-582
-543
-464
-385
-326
-270
-236
-201
-121
-22
59
124
171
182
151
80
-23
-145
-268
-368
-442
-506
-556
-582
-590
-591
-587
-578
-556
-520
-469
-407
-357
-327
-332
-363
-328
-254
-295
-341
-167
363
1378
2120
1228
-572
-1067
-367
-140
-368
-315
-211
-244
-187
-86
-45
21
118
194
269
353
424
487
563
639
701
763
825
865
849
756
613
476
351
222
121
57
-9
-69
-86
-78
-80
-91
-103
-92
-49
-19
-15
-20
-44
-39
21
1
-95
-24
400
1206
1784
1079
-406
-842
-182
108
-91
-92
-31
-92
-62
18
27
50
93
109
156
255
349
414
465
509
546
581
588
531
450
387
255
23
-141
-194
-293
-445
-521
-558
-621
-647
-646
-698
-724
-642
-560
-577
-625
-634
-651
-692
-661
-605
-675
-675
-330
126
264
-156
-981
-1382
-886
-306
-286
-369
-277
-252
-264
-193
-129
-86
-23
27
83
176
256
303
357
413
450
482
521
566
593
554
434
285
151
23
-92
-168
-214
-247
-268
-288
-313
-321
-325
-339
-317
-251
-201
-185
-203
-227
-180
-134
-201
-234
-14
687
1814
2196
921
-518
-461
161
133
-39
66
104
71
125
172
196
253
297
326
373
415
457
524
590
619
635
668
695
675
586
439
281
152
40
-63
-131
-162
-174
-180
-203
-244
-268
-278
-300
-290
-211
-126
-104
-136
-170
-170
-172
-222
-267
-169
425
1614
2194
973
-720
-917
-272
-216
-436
-403
-383
-390
-280
-227
-262
-243
-200
-163
-67
49
102
147
251
335
330
333
425
491
402
199
6
-137
-262
-368
-439
-493
-541
-556
-539
-533
-547
-555
-556
-549
-501
-436
-412
-431
-477
-497
-434
-406
-482
-418
-58
444
704
165
-925
-1243
-536
-71
-227
-280
-152
-156
-162
-83
-57
-64
-13
76
155
221
293
373
439
504
577
627
658
689
656
521
360
222
79
-45
-106
-161
-239
-250
-201
-205
-237
-206
-176
-203
-192
-99
8
65
48
9
4
-14
-45
-33
82
705
1931
2328
858
-677
-496
201
94
-142
-47
-62
-177
-146
-93
-115
-131
-86
7
89
132
178
253
328
359
375
465
594
598
457
328
262
160
17
-70
-103
-143
-166
-148
-148
-156
-122
-138
-244
-281
-204
-169
-201
-220
-252
-289
-295
-324
-383
-391
-103
846
1817
1284
-422
-1112
-467
-92
-281
-301
-237
-317
-328
-277
-290
-280
-222
-186
-151
-75
17
84
124
171
236
294
346
399
416
363
258
128
5
-67
-91
-136
-205
-219
-190
-208
-237
-232
-310
-436
-382
-208
-165
-216
-241
-301
-351
-316
-331
-401
-261
273
1006
1127
1
-1321
-1292
-433
-151
-327
-279
-154
-160
-150
-96
-59
-7
69
139
204
281
390
538
689
787
834
871
893
856
737
544
322
151
34
-89
-193
-234
-259
-292
-287
-266
-282
-310
-321
-318
-292
-266
-266
-251
-239
-270
-243
-173
-225
-235
57
493
777
571
-304
-1036
-732
-70
10
-140
-80
-43
-80
-39
9
28
87
157
206
274
364
457
560
662
733
779
816
819
753
620
452
291
155
36
-66
-143
-199
-246
-284
-313
-351
-389
-400
-407
-426
-407
-353
-334
-359
-395
-402
-352
-339
-393
-332
-23
578
1200
946
-293
-985
-467
-8
-175
-269
-164
-173
-181
-113
-80
-48
17
60
96
148
190
232
293
351
392
427
460
479
465
392
262
117
-9
-115
-198
-253
-286
-305
-315
-323
-330
-335
-346
-354
-323
-260
-226
-242
-279
-315
-298
-241
-275
-355
-216
298
1041
1287
331
-949
-1022
-277
-43
-218
-186
-114
-154
-129
-54
-18
27
101
169
237
319
414
522
628
709
769
826
854
808
679
495
304
140
8
-96
-170
-217
-249
-270
-286
-301
-307
-316
-341
-343
-295
-252
-251
-270
-312
-333
-283
-279
-351
-280
68
701
1270
861
-436
-1006
-406
21
-135
-175
-72
-100
-108
-44
-15
18
82
129
173
233
292
353
420
475
509
531
539
508
420
290
150
19
-90
-172
-231
-274
-304
-320
-330
-344
-359
-368
-384
-389
-340
-266
-236
-255
-297
-324
-288
-267
-341
-370
-146
507
1384
1395
67
-1016
-687
-99
-190
-331
-224
-207
-227
-166
-132
-99
-16
45
89
155
217
271
338
395
422
447
478
480
439
362
246
103
-30
-132
-204
-253
-286
-302
-300
-301
-317
-322
-318
-328
-311
-243
-195
-199
-223
-256
-249
-200
-238
-293
-123
320
946
1254
496
-718
-872
-187
33
-152
-118
-42
-80
-53
5
29
91
164
205
264
341
414
506
598
658
709
767
791
742
618
448
277
128
4
-90
-153
-199
-233
-249
-256
-274
-294
-297
-307
-325
-305
-255
-227
-236
-275
-304
-264
-244
-324
-332
-98
489
1288
1329
100
-936
-625
-59
-141
-265
-160
-157
-184
-119
-84
-64
4
61
102
162
223
279
346
405
436
449
449
421
350
236
102
-25
-129
-210
-269
-307
-327
-336
-336
-338
-356
-372
-383
-405
-396
-314
-234
-225
-257
-299
-305
-259
-279
-370
-330
59
936
1711
1150
-413
-1014
-388
-58
-272
-284
-180
-212
-194
-124
-101
-49
40
98
148
207
267
337
402
443
476
509
526
511
453
342
194
51
-66
-164
-234
-260
-272
-292
-292
-281
-297
-317
-322
-338
-331
-260
-199
-197
-216
-253
-261
-201
-213
-287
-154
275
890
1273
647
-642
-1006
-304
64
-135
-160
-49
-77
-82
-18
13
47
118
186
248
325
419
524
626
709
767
811
842
803
650
446
263
94
-55
-160
-237
-292
-316
-331
-344
-343
-347
-359
-359
-371
-387
-353
-290
-257
-261
-305
-333
-276
-262
-336
-245
119
676
1186
887
-341
-1052
-544
-35
-148
-224
-123
-141
-157
-91
-63
-40
29
83
131
207
299
397
503
596
664
712
731
691
571
393
206
45
-79
-168
-235
-285
-313
-327
-337
-339
-345
-362
-372
-383
-411
-405
-333
-266
-255
-287
-332
-317
-271
-326
-393
-242
276
1148
1587
649
-727
-839
-170
-65
-268
-201
-139
-183
-136
-71
-46
15
91
145
209
285
358
435
504
546
563
562
541
479
368
229
93
-28
-127
-200
-248
-276
-289
-295
-292
-289
-307
-333
-351
-374
-379
-318
-236
-210
-232
-272
-292
-253
-245
-325
-332
-43
720
1568
1302
-197
-1079
-544
-17
-169
-256
-143
-157
-163
-78
-39
-10
70
144
200
264
338
418
497
558
596
620
629
609
534
399
238
82
-53
-158
-227
-268
-295
-312
-310
-298
-295
-307
-316
-324
-356
-379
-325
-235
-205
-219
-242
-277
-255
-202
-251
-289
-70
462
1115
1168
95
-1008
-831
-114
-22
-196
-134
-90
-125
-77
-20
-2
49
124
194
279
382
489
594
698
790
856
893
890
799
612
386
181
14
-118
-220
-288
-322
-345
-367
-374
-363
-364
-383
-394
-391
-408
-430
-398
-328
-294
-307
-343
-365
-327
-302
-359
-338
-62
489
1055
832
-398
-1228
-752
-102
-131
-246
-149
-134
-150
-84
-45
-20
49
121
193
288
388
493
610
708
778
837
868
826
694
501
300
128
-8
-109
-174
-219
-252
-267
-270
-274
-273
-274
-299
-322
-333
-362
-371
-305
-237
-235
-263
-308
-331
-276
-286
-418
-363
119
894
1342
647
-710
-1097
-418
-64
-245
-265
-172
-194
-165
-83
-48
13
112
185
255
350
446
537
624
685
715
728
716
656
547
412
269
134
18
-70
-135
-184
-216
-237
-254
-266
-278
-305
-344
-370
-382
-394
-382
-327
-279
-279
-312
-348
-347
-294
-291
-376
-325
122
874
1195
348
-940
-1127
-359
11
-137
-148
-73
-97
-71
-4
23
76
155
209
273
359
441
524
609
668
698
713
709
661
555
397
217
56
-64
-153
-214
-245
-256
-265
-269
-264
-261
-276
-302
-323
-341
-363
-355
-292
-238
-238
-253
-276
-301
-274
-252
-309
-298
-12
647
1304
955
-454
-1239
-643
-21
-112
-214
-111
-118
-138
-65
-19
11
79
145
206
289
384
486
587
670
735
783
801
772
673
496
287
107
-41
-168
-258
-305
-335
-355
-366
-369
-363
-358
-374
-389
-381
-385
-402
-374
-310
-281
-282
-293
-329
-321
-261
-278
-301
-101
362
968
1197
394
-779
-906
-237
-6
-169
-146
-78
-110
-85
-30
-12
27
91
149
220
305
400
511
614
688
745
786
773
682
523
323
122
-41
-154
-230
-276
-297
-306
-307
-301
-299
-304
-317
-343
-367
-382
-412
-428
-374
-304
-292
-306
-334
-357
-305
-275
-371
-355
62
858
1514
1119
-223
-929
-438
-7
-154
-219
-113
-127
-142
-79
-42
-2
70
130
190
272
356
445
546
632
689
722
722
660
534
367
184
26
-86
-168
-228
-261
-280
-302
-318
-324
-321
-321
-334
-346
-351
-368
-363
-286
-201
-173
-177
-197
-204
-151
-134
-208
-176
214
1088
1923
1514
-53
-881
-366
49
-142
-208
-106
-138
-144
-68
-38
0
84
154
215
290
367
447
528
588
626
634
598
534
449
322
166
34
-62
-146
-213
-244
-252
-260
-264
-272
-288
-284
-296
-377
-433
-382
-328
-329
-312
-291
-318
-368
-423
-442
-395
-416
-489
-334
145
711
809
-50
-1133
-1125
-355
-86
-269
-272
-212
-255
-243
-184
-152
-98
-21
51
132
223
314
410
494
555
600
622
600
528
407
242
68
-78
-192
-275
-326
-355
-376
-384
-375
-363
-356
-345
-331
-325
-319
-306
-288
-260
-208
-163
-155
-171
-196
-201
-159
-137
-181
-170
62
755
1716
1720
269
-893
-527
116
44
-90
32
59
24
72
121
164
236
300
366
453
537
625
733
827
885
927
964
947
832
643
443
261
106
-5
-77
-131
-168
-188
-198
-197
-183
-178
-191
-206
-210
-207
-212
-224
-211
-171
-159
-187
-218
-264
-299
-255
-242
-343
-309
118
885
1419
834
-597
-1209
-580
-82
-205
-268
-182
-205
-205
-139
-115
-81
-2
61
117
194
275
356
437
492
519
538
538
481
351
175
-3
-157
-279
-374
-438
-463
-470
-485
-497
-492
-490
-504
-507
-500
-513
-527
-511
-480
-444
-404
-394
-411
-426
-450
-441
-380
-399
-440
-214
340
998
1191
313
-928
-1068
-355
-106
-301
-297
-224
-253
-214
-132
-93
-25
77
166
259
361
457
553
634
697
763
814
807
733
599
423
241
88
-33
-126
-186
-218
-234
-240
-232
-216
-206
-198
-192
-197
-204
-202
-213
-221
-172
-88
-42
-47
-78
-96
-67
-57
-119
-177
-79
619
2032
2685
1287
-508
-636
5
-3
-191
-93
-69
-119
-65
-22
-3
60
116
156
220
286
346
422
503
559
592
617
608
509
348
205
80
-58
-173
-230
-262
-298
-316
-290
-253
-245
-245
-231
-232
-262
-292
-324
-375
-396
-328
-244
-237
-274
-312
-349
-350
-360
-454
-519
-281
575
1748
1816
258
-1020
-718
-144
-268
-405
-293
-292
-314
-228
-169
-126
-40
40
112
207
303
384
468
549
599
613
606
565
464
317
162
18
-107
-207
-283
-332
-362
-384
-398
-401
-403
-409
-414
-419
-434
-449
-445
-439
-440
-397
-320
-296
-318
-332
-355
-340
-275
-320
-389
-150
417
997
1038
134
-907
-855
-166
1
-179
-155
-103
-141
-108
-46
-13
49
129
192
256
330
415
506
581
632
665
665
620
535
403
239
89
-18
-88
-129
-147
-135
-98
-58
-32
-8
14
17
10
-7
-50
-109
-157
-196
-204
-139
-57
-42
-63
-76
-72
-27
-1
-70
-100
127
858
1958
2192
751
-762
-711
-77
-90
-263
-188
-184
-222
-144
-78
-50
23
104
173
263
351
416
498
603
680
712
729
722
663
545
386
223
83
-37
-135
-204
-258
-303
-337
-370
-386
-367
-371
-429
-478
-486
-485
-497
-528
-558
-522
-431
-387
-408
-434
-446
-440
-427
-448
-484
-393
194
1415
2109
949
-891
-1230
-484
-267
-461
-420
-362
-402
-351
-280
-256
-190
-100
-29
60
182
309
436
565
687
783
844
860
791
610
368
137
-62
-219
-329
-410
-469
-512
-553
-574
-563
-568
-597
-588
-558
-578
-618
-613
-602
-619
-601
-525
-461
-440
-445
-476
-474
-388
-357
-444
-425
-62
737
1518
1176
-293
-1111
-566
-37
-189
-303
-171
-106
-86
-45
-24
25
119
202
280
377
477
569
670
795
907
950
926
859
737
560
380
234
115
25
-27
-47
-53
-50
-34
-9
12
25
31
45
64
66
55
61
69
77
133
208
218
192
178
168
197
221
144
134
469
1158
1811
1599
320
-633
-272
362
341
199
291
323
266
255
262
297
368
425
475
544
619
695
773
834
870
882
851
757
601
405
188
-33
-229
-376
-493
-602
-695
-763
-821
-866
-882
-887
-915
-958
-990
-1020
-1057
-1097
-1147
-1190
-1173
-1132
-1172
-1272
-1335
-1383
-1427
-1411
-1450
-1587
-1353
-466
