# session 24
-59
-85
-20
15
-157
-403
-463
-399
-389
-396
-370
-359
-357
-335
-315
-307
-297
-282
-270
-261
-255
-248
-237
-230
-227
-223
-212
-204
-205
-201
-190
-191
-201
-209
-221
-244
-260
-258
-235
-202
-179
-148
-107
-108
-112
-52
-57
-111
136
782
1545
1940
1241
-315
-1044
-404
161
21
-82
14
-8
-35
21
43
52
85
100
112
141
166
190
224
253
276
305
337
363
390
423
453
478
498
517
530
534
519
468
378
269
166
75
0
-56
-92
-114
-127
-131
-130
-131
-137
-145
-154
-164
-173
-182
-193
-204
-210
-211
-215
-227
-237
-238
-239
-241
-237
-230
-226
-222
-217
-213
-207
-197
-189
-183
-177
-171
-170
-169
-161
-153
-154
-158
-159
-158
-150
-142
-140
-136
-123
-110
-104
-100
-94
-90
-91
-89
-83
-88
-101
-107
-108
-116
-132
-147
-159
-180
-200
-185
-157
-144
-117
-90
-96
-68
-29
-73
10
497
1260
1835
1525
136
-1035
-786
7
139
-35
7
38
-5
32
71
63
82
113
123
140
167
188
209
232
255
280
304
326
352
384
416
442
466
488
503
513
512
483
406
298
189
92
2
-70
-117
-143
-157
-161
-160
-159
-158
-160
-165
-172
-177
-184
-194
-202
-203
-206
-214
-220
-222
-226
-228
-227
-231
-236
-234
-228
-222
-215
-208
-202
-194
-185
-177
-177
-183
-182
-171
-158
-147
-138
-132
-128
-124
-120
-118
-118
-118
-121
-121
-108
-92
-92
-102
-103
-104
-120
-141
-153
-164
-186
-213
-217
-191
-171
-156
-113
-88
-105
-73
-32
-92
-13
485
1207
1670
1268
-101
-1166
-824
-1
126
-39
22
55
0
28
64
59
78
103
111
131
157
175
201
232
261
292
326
358
391
425
456
485
512
537
558
569
564
533
458
346
229
121
17
-70
-126
-160
-188
-201
-195
-189
-193
-197
-198
-200
-200
-200
-205
-209
-214
-222
-224
-217
-212
-214
-215
-209
-202
-204
-209
-207
-203
-209
-217
-216
-214
-214
-215
-218
-220
-215
-208
-207
-207
-204
-201
-204
-201
-183
-167
-171
-173
-168
-175
-189
-202
-216
-211
-176
-146
-119
-86
-85
-86
-43
-54
-69
245
993
1763
1783
567
-961
-1212
-354
132
6
-33
43
17
18
71
80
85
117
133
139
159
184
207
228
248
272
304
341
377
407
437
474
506
525
542
558
554
523
461
357
230
114
15
-75
-142
-177
-200
-218
-224
-222
-222
-224
-224
-223
-224
-230
-240
-249
-250
-245
-245
-253
-262
-264
-262
-262
-266
-264
-257
-253
-249
-241
-235
-230
-226
-222
-215
-204
-196
-191
-186
-180
-173
-166
-162
-161
-162
-171
-179
-186
-209
-223
-193
-155
-133
-103
-92
-93
-56
-59
-83
181
885
1680
1823
733
-839
-1262
-467
90
2
-53
22
-2
-12
42
58
62
90
107
120
146
169
188
212
239
266
293
322
353
386
417
444
473
500
516
518
511
489
426
321
203
97
5
-70
-122
-153
-167
-173
-175
-173
-166
-161
-164
-169
-174
-181
-188
-194
-204
-213
-221
-228
-234
-238
-241
-241
-241
-242
-241
-235
-230
-227
-223
-217
-213
-210
-205
-198
-191
-186
-184
-177
-173
-184
-200
-208
-201
-172
-123
-84
-79
-108
-131
-117
-109
-121
-93
-80
-127
9
527
1268
1742
1210
-292
-1252
-771
-14
34
-109
-46
-27
-56
-18
7
8
34
59
74
98
122
143
170
197
222
252
285
317
350
385
417
447
475
497
507
506
489
440
350
236
123
21
-65
-125
-164
-190
-204
-208
-207
-205
-205
-205
-208
-214
-220
-224
-229
-237
-243
-246
-248
-250
-251
-251
-250
-246
-240
-239
-241
-239
-237
-247
-249
-230
-204
-166
-118
-105
-139
-168
-176
-167
-154
-164
-156
-117
-148
-145
178
832
1520
1618
539
-919
-1146
-322
82
-80
-105
-29
-60
-52
-1
6
22
59
76
94
124
147
171
200
228
255
284
317
354
389
420
452
481
500
510
512
494
440
345
226
109
3
-84
-146
-183
-204
-214
-218
-218
-218
-218
-220
-223
-225
-228
-232
-238
-240
-241
-243
-243
-242
-242
-240
-238
-238
-238
-236
-229
-226
-226
-225
-227
-237
-235
-215
-187
-142
-102
-110
-149
-171
-172
-159
-154
-165
-138
-118
-167
-80
357
1047
1637
1398
33
-1147
-890
-88
46
-122
-75
-39
-76
-39
-1
2
29
61
75
98
125
147
175
207
234
263
293
325
358
390
419
446
473
494
505
507
492
441
348
238
134
41
-40
-99
-134
-156
-168
-172
-173
-176
-179
-184
-191
-198
-209
-219
-225
-228
-233
-238
-240
-242
-245
-245
-243
-241
-239
-237
-233
-226
-220
-217
-211
-206
-205
-205
-208
-219
-226
-215
-186
-135
-84
-78
-109
-131
-141
-135
-125
-139
-125
-85
-132
-123
231
872
1528
1650
615
-820
-1035
-237
106
-84
-100
-29
-68
-52
3
4
17
54
69
86
118
141
165
201
229
244
268
302
334
363
396
426
453
477
493
501
493
453
374
269
160
60
-19
-77
-122
-158
-178
-183
-185
-187
-190
-200
-210
-206
-204
-216
-226
-226
-223
-224
-230
-237
-240
-235
-226
-219
-219
-216
-208
-206
-208
-199
-189
-188
-182
-174
-180
-193
-206
-217
-207
-174
-125
-74
-62
-98
-135
-151
-144
-120
-128
-140
-96
-111
-165
85
704
1318
1465
672
-716
-1265
-567
66
12
-81
-2
-7
-25
23
39
42
74
95
108
135
160
178
203
235
264
288
311
344
386
421
449
475
495
506
511
507
477
402
295
189
91
-1
-70
-118
-160
-190
-201
-208
-216
-215
-212
-219
-227
-226
-224
-233
-249
-263
-272
-277
-276
-273
-271
-265
-256
-248
-238
-229
-223
-209
-195
-191
-186
-174
-171
-176
-173
-173
-180
-170
-141
-105
-66
-49
-70
-93
-104
-112
-102
-96
-111
-82
-64
-116
6
463
1049
1462
1136
-147
-1150
-784
-13
61
-104
-42
-11
-47
-10
20
19
48
76
89
114
146
176
210
235
248
264
290
326
369
405
426
441
464
488
508
519
502
440
341
236
139
47
-39
-114
-170
-199
-202
-193
-190
-199
-210
-210
-205
-204
-203
-205
-219
-234
-235
-231
-232
-228
-219
-212
-210
-208
-206
-203
-198
-188
-176
-162
-147
-147
-159
-165
-169
-186
-197
-185
-166
-141
-111
-102
-123
-139
-136
-130
-122
-148
-218
-205
-107
-148
-217
67
642
1245
1585
942
-557
-1232
-538
46
-72
-119
12
-22
-65
-25
-33
-6
113
155
71
29
114
228
269
258
263
284
314
376
426
403
397
486
553
548
563
566
491
415
347
200
24
-79
-131
-179
-255
-346
-308
-159
-194
-358
-291
-134
-204
-287
-203
-173
-236
-249
-278
-360
-360
-291
-271
-264
-223
-218
-244
-228
-195
-185
-176
-176
-203
-206
-165
-130
-118
-99
-96
-136
-168
-147
-105
-82
-87
-148
-220
-193
-125
-148
-184
-146
-119
-103
-57
-67
-88
-36
-62
-94
188
741
1418
1931
1374
-180
-938
-327
177
28
-16
113
32
-99
-43
71
86
65
78
75
79
145
181
146
168
259
307
308
316
336
364
376
375
418
479
473
418
390
363
277
153
48
-38
-112
-141
-136
-156
-202
-237
-247
-231
-222
-230
-207
-188
-246
-292
-251
-216
-238
-267
-277
-259
-224
-223
-237
-246
-274
-273
-219
-201
-218
-210
-227
-261
-219
-147
-150
-199
-215
-176
-145
-169
-178
-128
-122
-181
-187
-119
-94
-133
-153
-133
-126
-152
-192
-211
-172
-110
-93
-96
-81
-73
-50
-16
-52
-38
236
804
1637
2156
1310
-354
-894
-197
190
20
-5
48
-31
-33
51
61
43
69
91
86
94
122
148
185
237
246
214
240
307
319
310
339
366
373
362
329
319
330
281
188
125
77
8
-65
-110
-115
-121
-159
-170
-148
-181
-223
-175
-129
-171
-205
-201
-218
-232
-220
-230
-260
-266
-240
-201
-178
-185
-216
-247
-246
-206
-168
-167
-185
-197
-209
-210
-179
-153
-169
-182
-170
-179
-191
-164
-140
-134
-115
-109
-126
-110
-83
-108
-131
-90
-56
-85
-112
-96
-88
-97
-92
-102
-130
-131
-126
-142
-119
-32
33
5
-34
30
68
-37
15
425
1053
1828
2124
1031
-513
-689
56
236
2
-3
42
12
22
11
4
75
114
76
60
86
104
112
140
193
214
183
192
268
301
283
302
328
301
291
339
358
307
239
182
125
66
3
-49
-91
-158
-215
-195
-157
-190
-238
-230
-215
-232
-235
-217
-230
-276
-293
-263
-234
-240
-247
-238
-256
-304
-299
-230
-202
-240
-245
-215
-220
-222
-184
-174
-208
-234
-226
-178
-131
-152
-208
-194
-136
-153
-199
-145
-79
-122
-174
-159
-173
-241
-267
-218
-147
-105
-96
-92
-87
-87
-82
-89
-43
237
814
1493
1739
919
-518
-1063
-425
115
65
9
79
67
62
97
68
39
108
196
202
176
192
220
230
250
278
301
345
402
427
427
445
479
488
486
516
535
479
400
344
248
106
0
-67
-141
-176
-164
-207
-275
-229
-139
-158
-211
-201
-192
-220
-230
-227
-238
-246
-242
-250
-268
-276
-271
-261
-260
-266
-257
-236
-230
-236
-229
-217
-221
-240
-250
-239
-226
-224
-215
-195
-193
-198
-181
-176
-207
-223
-208
-207
-237
-271
-277
-246
-208
-175
-129
-109
-119
-80
-64
-143
-39
434
1120
1833
1935
760
-633
-666
43
147
-67
-19
25
-44
-29
26
42
52
56
65
95
117
130
162
199
225
250
280
314
353
390
426
462
499
537
559
554
529
472
369
243
122
9
-84
-145
-189
-233
-264
-267
-254
-252
-261
-265
-259
-260
-272
-285
-287
-278
-273
-284
-299
-295
-279
-275
-276
-271
-267
-264
-256
-247
-232
-211
-204
-213
-216
-201
-186
-181
-178
-170
-166
-165
-159
-150
-147
-156
-182
-209
-230
-250
-242
-196
-158
-128
-96
-98
-81
-34
-83
-108
197
858
1754
2314
1490
-253
-891
-193
196
-34
-85
3
-40
-42
8
4
13
50
59
65
86
105
128
161
190
219
252
276
295
325
357
377
393
409
414
414
408
370
293
199
106
21
-49
-103
-141
-162
-176
-194
-209
-213
-214
-217
-223
-233
-239
-236
-236
-250
-260
-259
-257
-256
-256
-257
-254
-248
-244
-238
-234
-236
-231
-214
-208
-211
-206
-198
-196
-188
-176
-171
-168
-157
-156
-166
-172
-178
-192
-212
-234
-233
-198
-164
-137
-111
-114
-102
-50
-74
-95
186
837
1678
2085
1165
-512
-1041
-264
198
3
-55
38
0
-18
28
36
47
77
87
101
126
142
161
192
221
244
264
285
308
331
350
369
387
395
395
391
382
351
290
209
129
58
-6
-59
-94
-117
-138
-150
-152
-159
-169
-170
-171
-178
-190
-204
-215
-210
-207
-225
-243
-238
-218
-210
-223
-237
-233
-222
-228
-233
-218
-213
-231
-228
-196
-184
-196
-198
-187
-178
-173
-167
-162
-172
-194
-204
-205
-225
-241
-217
-186
-176
-140
-100
-108
-94
-50
-80
-38
370
1168
1958
1852
411
-1022
-942
-100
113
-64
-27
26
-20
2
37
26
46
77
75
84
121
152
169
185
205
232
255
263
286
333
367
381
390
394
399
407
395
338
250
167
93
10
-70
-129
-170
-194
-204
-218
-230
-225
-220
-229
-239
-247
-261
-262
-253
-262
-276
-266
-262
-280
-278
-257
-253
-263
-266
-256
-242
-241
-246
-237
-227
-233
-239
-229
-180
-107
-85
-119
-135
-127
-128
-123
-122
-112
-77
-97
-103
216
969
1816
1960
771
-844
-1178
-371
77
-50
-69
0
-49
-64
-15
4
13
35
64
101
123
131
153
191
226
240
252
297
358
383
388
411
433
435
435
435
411
353
266
160
54
-38
-114
-172
-205
-226
-239
-226
-201
-205
-227
-225
-213
-217
-224
-228
-242
-257
-257
-261
-282
-284
-262
-264
-281
-273
-271
-303
-314
-287
-274
-256
-191
-144
-170
-211
-224
-213
-201
-218
-213
-151
-179
-232
47
724
1540
1953
1142
-500
-1138
-419
85
-91
-150
-47
-96
-120
-50
-40
-47
4
58
79
90
112
142
169
194
226
261
290
323
369
404
411
425
460
476
466
454
408
298
171
67
-30
-100
-120
-130
-162
-185
-178
-172
-177
-181
-190
-201
-199
-198
-209
-218
-231
-248
-236
-210
-218
-243
-234
-220
-237
-252
-245
-252
-272
-264
-235
-196
-144
-116
-130
-155
-179
-190
-174
-179
-185
-142
-157
-205
27
659
1486
1956
1186
-531
-1321
-615
31
-71
-167
-68
-90
-125
-68
-28
-7
26
45
67
95
107
133
185
213
217
248
301
339
364
393
425
450
465
472
475
464
415
317
193
76
-30
-126
-190
-216
-233
-254
-253
-237
-230
-231
-226
-223
-226
-232
-237
-240
-241
-241
-237
-235
-241
-244
-237
-231
-232
-229
-227
-233
-239
-246
-258
-261
-245
-215
-161
-113
-120
-161
-184
-184
-165
-156
-172
-148
-115
-177
-134
290
1046
1850
1931
623
-918
-970
-128
87
-126
-95
-36
-89
-62
-12
-10
13
46
60
88
121
143
171
203
230
264
301
330
361
397
427
454
476
488
495
496
473
406
300
181
74
-16
-91
-141
-167
-184
-195
-193
-189
-190
-190
-189
-196
-204
-204
-209
-224
-232
-232
-239
-248
-245
-240
-244
-248
-244
-237
-235
-235
-232
-223
-214
-212
-212
-207
-201
-197
-193
-184
-176
-171
-167
-158
-151
-150
-152
-170
-199
-216
-232
-252
-225
-161
-137
-129
-88
-88
-105
-51
-61
-129
89
666
1405
1976
1513
-56
-989
-434
177
36
-101
-1
-16
-47
15
29
18
49
70
72
92
122
144
165
194
230
257
269
290
333
358
361
393
437
441
449
485
466
374
275
178
81
8
-57
-130
-173
-185
-207
-222
-207
-195
-202
-208
-210
-219
-232
-240
-236
-230
-244
-261
-253
-236
-236
-238
-226
-213
-209
-208
-195
-180
-182
-177
-139
