# session 7
-11
-34
-3
86
37
-206
-371
-365
-364
-399
-396
-387
-389
-377
-371
-383
-383
-379
-381
-353
-287
-245
-244
-261
-288
-269
-211
-241
-264
0
548
1036
893
-135
-1076
-831
-56
116
-52
-11
46
10
36
86
106
153
215
264
324
399
480
573
668
742
792
828
849
820
704
513
300
109
-43
-159
-243
-292
-320
-349
-361
-345
-341
-353
-343
-339
-370
-391
-386
-373
-321
-239
-200
-219
-256
-257
-197
-178
-256
-225
195
1029
1631
995
-510
-1092
-401
94
-67
-144
-43
-51
-62
-13
9
46
122
177
225
305
386
448
512
583
638
662
669
652
581
437
240
39
-132
-261
-356
-423
-462
-477
-487
-499
-495
-473
-466
-481
-474
-435
-420
-436
-407
-320
-271
-282
-298
-313
-310
-262
-264
-321
-176
364
1052
1104
42
-1117
-1031
-223
35
-130
-117
-59
-84
-44
8
11
62
157
222
279
350
417
479
550
613
645
654
666
661
593
463
317
170
30
-76
-149
-204
-234
-240
-244
-251
-254
-245
-221
-210
-235
-254
-221
-179
-168
-146
-99
-100
-160
-202
-200
-186
-190
-210
-136
264
935
1068
-4
-1301
-1300
-392
19
-114
-119
-39
-58
-48
2
34
88
150
194
264
359
427
477
546
631
703
742
758
761
711
556
342
156
0
-150
-252
-288
-312
-344
-355
-349
-347
-342
-332
-326
-319
-308
-301
-313
-318
-275
-221
-225
-250
-248
-248
-239
-222
-267
-238
128
755
1092
505
-770
-1394
-776
-38
14
-102
-27
12
4
45
80
114
182
255
327
408
493
595
706
794
864
931
986
1000
929
746
501
259
59
-83
-182
-260
-308
-329
-344
-359
-369
-376
-381
-390
-410
-430
-432
-434
-444
-427
-383
-375
-401
-416
-442
-467
-419
-389
-462
-368
148
781
821
-113
-1248
-1319
-500
-54
-178
-212
-113
-104
-83
-17
25
76
144
188
236
304
375
450
533
606
650
669
680
671
597
447
263
87
-61
-166
-227
-263
-287
-297
-294
-290
-290
-280
-262
-259
-272
-268
-253
-258
-262
-226
-176
-164
-192
-234
-253
-223
-200
-253
-282
-18
739
1529
1229
-218
-1118
-622
38
32
-73
5
21
14
61
90
125
190
246
308
385
456
534
626
709
785
861
913
920
861
714
513
317
139
-26
-145
-209
-257
-305
-329
-325
-323
-336
-340
-322
-317
-333
-338
-328
-318
-283
-226
-203
-219
-235
-261
-261
-206
-226
-290
-63
518
997
782
-254
-1195
-1020
-248
7
-140
-127
-63
-86
-64
-15
9
68
141
178
225
308
385
449
530
606
650
674
680
625
484
287
85
-90
-224
-313
-367
-405
-429
-429
-411
-404
-415
-421
-412
-416
-431
-416
-393
-412
-413
-345
-301
-319
-331
-353
-365
-305
-315
-391
-163
401
848
738
-97
-1022
-981
-224
99
-37
-17
82
68
94
166
197
237
301
348
391
444
494
548
608
663
706
735
730
669
550
392
230
87
-34
-128
-195
-241
-264
-269
-274
-284
-283
-264
-249
-265
-303
-333
-360
-400
-398
-318
-248
-261
-308
-348
-358
-326
-333
-411
-391
19
1006
1902
1362
-323
-1078
-477
-67
-242
-261
-143
-161
-157
-97
-65
-3
80
136
196
262
314
378
459
532
589
627
640
631
578
455
285
126
1
-104
-190
-243
-265
-278
-286
-284
-280
-281
-277
-266
-267
-290
-312
-331
-364
-368
-296
-201
-169
-196
-217
-190
-168
-186
-217
-275
23
1410
3001
2449
70
-1089
-433
-11
-255
-270
-159
-207
-177
-92
-87
-48
37
84
135
211
261
304
381
467
539
597
638
643
579
427
231
49
-102
-221
-300
-349
-382
-400
-403
-404
-412
-417
-407
-392
-387
-389
-403
-423
-425
-413
-400
-360
-297
-267
-285
-317
-331
-296
-256
-289
-295
-3
716
1350
910
-510
-1275
-682
1
-8
-109
-20
3
2
64
101
131
200
263
313
373
426
478
539
590
624
654
669
653
602
500
339
156
-1
-113
-193
-252
-296
-320
-327
-329
-338
-348
-349
-342
-341
-353
-366
-370
-366
-354
-328
-297
-269
-253
-263
-290
-319
-330
-292
-272
-323
-232
204
751
881
183
-939
-1300
-608
31
51
2
107
136
134
196
247
285
345
400
453
515
578
646
727
804
860
899
927
921
839
669
450
234
50
-88
-179
-239
-281
-303
-311
-322
-337
-337
-326
-325
-337
-356
-371
-375
-375
-386
-405
-395
-341
-299
-302
-311
-323
-348
-319
-283
-350
-347
-19
585
1091
824
-336
-1143
-730
-80
-64
-179
-85
-49
-64
-4
41
68
141
207
244
306
391
464
524
584
638
683
714
715
660
538
365
186
37
-76
-157
-212
-247
-266
-272
-272
-271
-265
-258
-257
-256
-253
-269
-301
-321
-343
-382
-368
-281
-217
-227
-266
-301
-297
-263
-282
-340
-323
84
1282
2471
1859
-164
-1058
-417
-35
-253
-257
-139
-173
-159
-85
-61
-17
56
108
159
220
274
334
403
465
518
560
581
567
497
361
192
35
-94
-189
-246
-286
-328
-351
-344
-341
-355
-357
-346
-348
-355
-361
-382
-409
-428
-455
-458
-383
-285
-255
-279
-309
-307
-259
-248
-301
-309
-120
665
2062
2556
1051
-653
-665
-38
-80
-245
-128
-101
-137
-70
-21
-3
64
129
169
221
282
347
420
488
540
578
596
580
521
415
270
113
-23
-121
-189
-239
-275
-301
-318
-325
-322
-320
-322
-321
-317
-321
-337
-363
-389
-405
-423
-429
-375
-302
-302
-356
-395
-419
-408
-372
-417
-458
-158
575
1177
764
-591
-1412
-881
-98
-5
-119
-40
5
-1
58
108
134
194
264
323
391
465
545
632
704
757
805
834
817
743
613
436
248
91
-22
-100
-151
-182
-198
-202
-196
-183
-175
-171
-162
-148
-139
-129
-115
-117
-136
-144
-138
-140
-137
-107
-81
-96
-137
-161
-155
-143
-140
-139
-75
313
1118
1505
542
-910
-1159
-383
42
-55
-83
-36
-56
-35
19
42
84
144
180
221
290
359
426
493
548
601
657
684
662
584
434
241
59
-98
-235
-338
-398
-423
-432
-451
-473
-471
-458
-457
-458
-455
-457
-455
-438
-421
-421
-428
-439
-452
-451
-416
-354
-314
-320
-336
-340
-335
-290
-255
-300
-233
176
806
1230
846
-321
-1022
-529
125
113
-38
25
43
12
47
86
116
169
224
285
350
405
475
565
643
710
771
808
814
775
654
463
260
83
-56
-154
-216
-251
-268
-277
-284
-285
-282
-288
-292
-282
-272
-277
-281
-277
-283
-294
-292
-288
-296
-278
-219
-182
-195
-217
-239
-241
-191
-190
-250
-74
472
1057
1126
296
-849
-1053
-321
126
20
-17
65
49
52
112
140
173
243
310
370
437
514
603
696
775
842
892
912
885
786
620
448
298
133
-42
-164
-227
-269
-297
-307
-314
-324
-340
-357
-371
-394
-437
-473
-480
-485
-497
-501
-493
-476
-432
-370
-331
-324
-316
-313
-300
-237
-211
-267
-168
307
1031
1420
732
-672
-1241
-600
-54
-132
-201
-114
-121
-127
-59
-12
28
97
166
232
301
363
426
493
547
583
602
598
561
479
349
191
37
-93
-193
-258
-295
-320
-335
-344
-358
-367
-366
-369
-375
-372
-373
-383
-383
-381
-398
-407
-390
-360
-313
-267
-266
-293
-313
-324
-299
-266
-294
-253
94
802
1500
1298
-49
-1108
-775
-62
-6
-135
-56
-33
-57
12
71
96
154
233
331
436
508
606
794
1010
1200
1353
1388
1261
1068
863
631
408
219
47
-83
-152
-204
-255
-278
-290
-311
-319
-314
-320
-333
-341
-351
-364
-376
-392
-410
-438
-461
-409
-298
-258
-303
-333
-356
-368
-316
-320
-389
-229
243
862
1325
894
-444
-1171
-625
-78
-170
-249
-150
-153
-165
-105
-64
-9
93
171
209
256
313
355
437
626
865
1040
1103
1041
852
602
366
174
28
-86
-187
-255
-272
-285
-330
-366
-362
-354
-361
-371
-384
-395
-401
-427
-469
-472
-457
-488
-517
-458
-385
-394
-424
-433
-448
-408
-363
-429
-385
10
628
1204
1162
108
-920
-762
-146
-91
-216
-124
-91
-136
-89
-24
24
112
220
313
377
396
419
488
559
601
638
659
633
557
429
261
104
-18
-113
-173
-191
-197
-213
-223
-225
-231
-237
-239
-246
-259
-264
-259
-261
-277
-282
-269
-275
-290
-252
-177
-149
-169
-195
-211
-178
-135
-185
-203
29
622
1513
1894
880
-530
-656
9
135
-51
10
71
31
60
100
110
160
221
261
309
362
413
473
531
579
624
656
648
585
467
307
136
-13
-127
-212
-273
-311
-335
-356
-370
-375
-378
-379
-379
-382
-385
-383
-385
-400
-408
-414
-455
-473
-376
-259
-261
-309
-304
-301
-293
-254
-291
-332
-44
707
1530
1505
210
-1072
-961
-205
-60
-227
-165
-103
-131
-84
-20
10
70
144
210
290
369
437
513
591
657
711
738
712
622
475
296
117
-39
-157
-233
-285
-326
-351
-363
-371
-377
-377
-379
-385
-384
-378
-372
-367
-365
-376
-388
-391
-393
-373
-304
-247
-261
-288
-294
-299
-265
-226
-266
-205
211
880
1314
854
-433
-1205
-684
60
115
-21
54
119
139
199
241
283
365
429
474
554
631
650
677
782
892
918
898
868
793
657
485
299
122
-24
-135
-217
-276
-319
-352
-374
-384
-389
-392
-392
-389
-385
-378
-366
-352
-349
-360
-364
-346
-322
-287
-226
-183
-193
-224
-242
-238
-212
-220
-264
-181
252
1092
1721
1059
-579
-1311
-652
-78
-173
-236
-134
-141
-136
-59
-26
2
80
153
213
291
375
453
535
609
672
727
763
752
683
550
364
170
6
-129
-236
-308
-352
-383
-399
-404
-410
-416
-416
-417
-417
-411
-408
-410
-406
-399
-402
-408
-408
-416
-430
-421
-368
-297
-263
-273
-288
-295
-273
-218
-213
-239
-80
442
1245
1633
747
-758
-1144
-378
79
-47
-72
19
7
18
78
107
146
213
270
329
398
461
520
585
653
717
765
793
795
741
615
442
261
96
-32
-119
-178
-216
-236
-248
-254
-257
-259
-261
-264
-269
-270
-267
-266
-270
-276
-291
-311
-326
-340
-344
-294
-204
-163
-188
-216
-222
-199
-174
-198
-211
-54
482
1411
1888
890
-719
-1063
-307
46
-116
-122
-45
-65
-36
28
50
92
160
214
271
335
392
449
507
564
619
658
666
643
571
436
268
103
-42
-155
-231
-283
-324
-353
-372
-382
-384
-384
-384
-385
-382
-374
-370
-368
-364
-365
-373
-380
-382
-386
-379
-335
-276
-258
-277
-291
-306
-305
-263
-264
-290
-97
435
1099
1288
371
-1024
-1332
-517
2
-103
-143
-51
-53
-38
28
62
109
188
254
319
405
490
570
656
737
802
858
899
889
799
634
436
239
62
-77
-175
-243
-281
-294
-301
-312
-313
-304
-298
-298
-296
-290
-285
-285
-285
-287
-299
-317
-335
-359
-363
-300
-222
-221
-254
-256
-263
-244
-185
-219
-246
46
648
1267
1345
350
-930
-1016
-226
69
-110
-98
-17
-46
-21
39
57
97
167
227
290
358
415
474
541
603
652
688
700
662
569
440
284
119
-20
-118
-192
-246
-277
-291
-306
-322
-333
-336
-342
-349
-351
-356
-363
-366
-374
-394
-407
-407
-412
-398
-329
-255
-239
-251
-260
-262
-226
-188
-222
-216
56
771
1732
1888
551
-891
-847
-103
28
-131
-56
7
-13
34
81
97
154
222
272
332
395
450
508
561
605
649
683
685
645
556
414
251
103
-21
-117
-182
-229
-264
-285
-297
-314
-339
-365
-380
-388
-402
-416
-422
-432
-446
-456
-469
-480
-475
-451
-400
-339
-328
-364
-367
-340
-307
-258
-272
-299
-35
633
1322
1313
190
-1133
-1223
-372
37
-100
-106
0
4
21
78
116
171
249
329
421
506
572
653
745
811
864
920
955
928
812
609
372
160
-16
-156
-247
-297
-336
-366
-376
-373
-378
-386
-388
-390
-391
-381
-373
-379
-383
-379
-382
-386
-385
-389
-379
-316
-252
-257
-281
-278
-290
-276
-215
-248
-261
79
702
1220
1159
172
-972
-974
-181
121
-35
-18
63
43
75
143
177
237
325
400
470
541
602
663
720
763
797
819
813
751
616
426
225
42
-114
-232
-305
-342
-360
-371
-377
-379
-383
-393
-403
-409
-416
-426
-429
-429
-434
-443
-447
-445
-449
-449
-399
-319
-294
-316
-325
-334
-324
-267
-277
-323
-113
481
1291
1721
933
-587
-1080
-358
84
-83
-113
-5
-20
-4
73
101
136
211
276
337
409
475
537
602
661
711
752
769
745
662
515
339
179
44
-66
-143
-189
-221
-245
-260
-271
-282
-293
-303
-310
-314
-324
-335
-341
-347
-357
-366
-379
-398
-417
-426
-389
-299
-240
-260
-290
-294
-296
-274
-258
-308
-286
52
803
1559
1288
-221
-1329
-919
-153
-90
-206
-105
-52
-48
26
80
115
191
273
343
421
497
562
617
667
730
789
809
791
745
640
472
291
139
17
-84
-157
-202
-231
-254
-268
-271
-276
-290
-299
-302
-305
-311
-312
-306
-300
-297
-299
-302
-301
-295
-295
-312
-338
-351
-328
-259
-195
-193
-220
-222
-237
-240
-183
-182
-223
4
609
1318
1518
571
-909
-1284
-469
58
-62
-108
-9
-12
-2
63
93
127
195
256
320
396
465
534
612
685
749
805
841
839
771
621
424
227
48
-102
-210
-285
-339
-369
-385
-399
-403
-403
-410
-416
-417
-421
-426
-422
-412
-405
-404
-399
-388
-380
-375
-372
-379
-390
-389
-391
-391
-329
-219
-173
-201
-206
-198
-199
-150
-128
-179
-60
393
1111
1758
1439
-66
-1136
-699
6
-11
-138
-32
-3
-11
62
107
134
207
283
347
418
481
544
616
682
744
813
853
832
762
652
495
320
166
31
-79
-146
-187
-225
-250
-261
-273
-283
-283
-282
-285
-286
-281
-270
-253
-239
-233
-232
-228
-215
-199
-192
-192
-186
-184
-189
-187
-183
-173
-121
-40
-18
-60
-87
-77
-71
