# session 33
-21
20
-59
8
361
625
520
282
130
-6
-142
-216
-259
-296
-306
-303
-304
-301
-293
-292
-292
-286
-283
-282
-281
-282
-282
-273
-263
-260
-258
-250
-244
-240
-232
-222
-219
-214
-204
-195
-186
-178
-173
-167
-159
-155
-151
-145
-143
-138
-127
-123
-121
-110
-101
-101
-101
-96
-91
-86
-82
-76
-76
-83
-90
-103
-128
-153
-165
-156
-127
-99
-75
-43
-39
-38
11
-4
-70
135
814
1809
2415
1583
-240
-967
-168
409
200
92
193
157
129
183
184
175
208
231
238
248
262
286
314
339
363
385
409
440
466
493
533
580
621
660
687
697
702
672
559
372
166
-23
-172
-275
-347
-396
-415
-416
-419
-421
-416
-413
-415
-412
-410
-413
-414
-410
-408
-404
-396
-391
-389
-387
-384
-381
-374
-362
-346
-334
-331
-329
-320
-310
-303
-293
-281
-271
-268
-265
-257
-249
-239
-224
-213
-215
-213
-197
-183
-183
-187
-179
-167
-159
-153
-158
-183
-207
-215
-225
-233
-209
-169
-132
-102
-103
-100
-47
-51
-124
32
667
1679
2351
1611
-136
-885
-184
343
150
49
142
108
88
144
149
146
178
196
209
232
251
273
302
325
352
387
421
451
489
530
570
618
671
717
753
784
792
740
601
391
168
-23
-170
-275
-340
-372
-383
-382
-375
-371
-369
-363
-358
-357
-356
-353
-349
-346
-346
-346
-347
-346
-340
-332
-331
-333
-327
-314
-308
-308
-302
-293
-289
-283
-272
-265
-260
-250
-240
-236
-231
-220
-211
-205
-198
-191
-188
-185
-180
-177
-176
-167
-156
-150
-147
-149
-162
-180
-199
-218
-228
-220
-196
-169
-143
-109
-97
-108
-73
-42
-113
-82
373
1296
2241
2123
547
-824
-552
241
259
38
102
126
70
111
145
135
156
180
185
208
238
260
283
310
339
369
399
428
463
500
536
577
621
664
706
742
759
736
645
475
267
70
-98
-224
-297
-334
-361
-376
-372
-363
-359
-356
-353
-350
-346
-342
-344
-344
-340
-337
-335
-334
-335
-332
-325
-324
-323
-315
-310
-309
-302
-293
-289
-287
-280
-273
-269
-263
-250
-239
-235
-231
-223
-216
-213
-209
-201
-193
-184
-177
-175
-177
-168
-155
-153
-151
-141
-139
-149
-160
-174
-193
-210
-222
-222
-197
-164
-132
-97
-97
-105
-57
-52
-123
12
583
1569
2423
1937
87
-1018
-379
349
204
36
141
123
77
135
151
141
169
184
195
229
252
265
294
325
346
372
406
432
457
495
538
571
601
635
671
701
718
698
607
435
228
45
-102
-215
-294
-344
-374
-380
-372
-371
-369
-359
-354
-356
-354
-348
-348
-347
-344
-347
-348
-335
-324
-325
-324
-317
-310
-305
-301
-295
-287
-282
-275
-267
-265
-264
-259
-250
-238
-226
-223
-224
-217
-210
-208
-202
-194
-195
-191
-175
-167
-171
-166
-153
-151
-155
-145
-134
-140
-150
-151
-158
-177
-198
-219
-221
-196
-171
-141
-98
-94
-102
-48
-44
-115
38
640
1640
2467
1918
47
-1004
-329
374
209
47
150
128
87
142
148
135
174
203
212
233
254
271
297
326
351
376
406
439
469
498
533
574
609
642
677
707
719
695
603
434
227
39
-113
-233
-313
-356
-377
-385
-386
-386
-380
-366
-360
-364
-363
-358
-360
-355
-345
-349
-358
-348
-334
-334
-336
-330
-322
-314
-305
-301
-295
-287
-282
-276
-266
-263
-263
-248
-230
-229
-230
-220
-212
-208
-202
-196
-192
-189
-185
-179
-171
-166
-161
-158
-156
-148
-142
-146
-150
-155
-167
-176
-195
-229
-229
-190
-162
-134
-99
-105
-100
-44
-66
-75
334
1219
1992
1754
282
-1074
-909
28
307
118
129
184
146
170
205
194
220
261
264
269
294
320
346
369
390
417
449
479
510
547
595
644
687
732
779
819
845
839
762
588
356
128
-61
-205
-300
-356
-385
-393
-393
-386
-368
-356
-361
-358
-341
-339
-347
-340
-332
-338
-343
-342
-342
-340
-339
-339
-337
-332
-328
-326
-324
-322
-316
-310
-307
-300
-290
-284
-278
-271
-266
-262
-255
-247
-241
-237
-231
-225
-220
-211
-201
-200
-202
-193
-180
-179
-182
-189
-208
-231
-250
-260
-247
-216
-194
-166
-130
-132
-124
-66
-93
-154
96
846
1918
2498
1544
-254
-817
-39
362
104
38
129
81
70
124
128
134
166
178
195
222
237
259
295
326
356
391
428
465
506
551
600
651
699
750
799
833
837
781
634
413
179
-28
-192
-305
-374
-415
-428
-420
-411
-410
-404
-393
-386
-384
-380
-377
-379
-378
-372
-369
-368
-363
-354
-350
-347
-340
-332
-325
-318
-310
-304
-296
-286
-279
-275
-270
-264
-258
-253
-249
-240
-229
-224
-225
-221
-211
-203
-197
-190
-184
-181
-176
-169
-165
-162
-155
-152
-160
-178
-196
-206
-214
-217
-198
-168
-148
-117
-89
-104
-85
-26
-77
-108
230
1033
2069
2461
1265
-494
-767
101
367
85
85
170
103
107
160
153
165
198
204
215
243
264
286
317
346
366
391
426
459
486
523
571
610
643
681
717
738
736
683
547
350
145
-38
-186
-290
-353
-386
-397
-400
-403
-401
-392
-387
-386
-386
-382
-376
-373
-375
-375
-369
-365
-364
-362
-352
-342
-339
-336
-327
-316
-310
-304
-297
-289
-281
-280
-283
-275
-258
-249
-248
-243
-236
-232
-228
-221
-214
-209
-207
-202
-194
-188
-181
-173
-167
-165
-169
-183
-198
-208
-199
-160
-103
-61
-59
-95
-116
-93
-90
-103
-57
-54
-131
-4
534
1464
2372
2064
269
-985
-446
329
212
17
125
122
65
115
135
126
160
183
188
212
237
254
283
313
334
362
397
425
452
490
530
562
597
637
670
690
707
701
622
458
260
73
-85
-208
-287
-335
-362
-369
-369
-373
-369
-354
-350
-358
-354
-345
-348
-353
-353
-353
-352
-344
-338
-339
-335
-326
-319
-316
-311
-305
-297
-289
-281
-276
-271
-261
-251
-248
-246
-239
-231
-226
-223
-218
-210
-201
-194
-191
-188
-181
-171
-164
-161
-159
-156
-151
-143
-143
-158
-181
-202
-207
-179
-129
-86
-71
-93
-110
-92
-94
-102
-55
-64
-141
25
620
1587
2426
1944
97
-993
-348
345
174
19
135
108
53
109
125
115
151
179
190
215
238
256
284
317
345
370
400
435
474
511
545
579
618
660
699
727
742
724
635
465
258
61
-104
-227
-308
-357
-385
-396
-398
-394
-387
-381
-379
-380
-379
-377
-375
-377
-379
-379
-374
-366
-362
-357
-350
-347
-345
-339
-331
-327
-317
-305
-303
-300
-294
-291
-276
-246
-236
-254
-244
-195
-172
-195
-206
-188
-171
-154
-142
-149
-138
-97
-89
-121
-130
-130
-154
-144
-105
-130
-179
-150
-69
-16
-17
-62
-101
-111
-110
-106
-107
-88
-58
-111
-120
288
1180
2041
1915
440
-968
-808
86
274
65
115
164
67
63
141
169
171
189
207
206
218
274
341
365
348
354
418
484
492
489
552
652
702
698
723
797
844
823
748
586
330
107
-21
-161
-320
-378
-387
-447
-461
-414
-418
-419
-354
-348
-398
-393
-388
-430
-415
-350
-344
-375
-366
-354
-388
-409
-363
-317
-338
-369
-352
-323
-303
-297
-326
-347
-309
-256
-236
-262
-320
-324
-247
-211
-244
-251
-231
-240
-255
-240
-222
-215
-170
-96
-86
-135
-168
-178
-173
-158
-145
-119
-131
-198
-64
552
1600
2386
1738
-152
-1158
-457
254
111
-17
92
40
-4
96
115
62
89
161
208
223
222
244
289
306
320
383
450
467
486
559
633
664
700
772
845
900
913
826
656
459
214
-49
-235
-346
-424
-449
-450
-467
-461
-443
-453
-440
-384
-366
-401
-427
-427
-410
-377
-353
-365
-399
-412
-377
-334
-340
-370
-365
-344
-338
-334
-328
-329
-340
-358
-355
-317
-268
-235
-223
-227
-238
-264
-282
-265
-254
-255
-220
-224
-278
-111
534
1626
2445
1763
-111
-1004
-333
183
-37
-98
34
-42
-98
-24
0
8
49
63
89
130
139
165
223
255
290
354
375
383
471
572
611
663
757
834
881
900
855
728
527
271
8
-198
-337
-427
-464
-478
-498
-483
-443
-444
-451
-407
-363
-365
-380
-376
-370
-390
-407
-370
-337
-366
-378
-349
-364
-376
-327
-321
-362
-336
-289
-311
-341
-333
-330
-337
-301
-214
-157
-180
-217
-235
-256
-248
-202
-186
-189
-184
-217
-199
135
1027
2284
2689
1230
-652
-819
73
253
-59
-47
40
-16
-2
49
39
58
107
115
141
209
230
221
261
318
355
387
407
451
553
630
653
701
777
830
862
874
830
693
463
219
17
-173
-317
-357
-376
-437
-448
-404
-402
-417
-388
-361
-361
-356
-369
-408
-389
-327
-333
-375
-355
-316
-322
-334
-323
-314
-314
-307
-297
-295
-302
-286
-252
-254
-287
-267
-225
-244
-264
-222
-202
-229
-237
-206
-161
-160
-212
-222
-163
-132
-143
-151
-165
-171
-145
-121
-124
-156
-198
-207
-210
-236
-216
-155
-136
-121
-95
-120
-108
-21
-49
-154
-11
524
1498
2525
2294
472
-876
-436
310
224
33
107
90
53
124
144
115
131
153
160
195
249
271
255
264
327
387
404
422
474
525
558
598
642
678
733
805
847
829
732
569
387
184
-32
-186
-261
-332
-407
-426
-397
-385
-402
-402
-396
-407
-400
-379
-393
-406
-377
-368
-400
-405
-376
-362
-355
-355
-377
-369
-329
-329
-334
-318
-337
-339
-282
-280
-334
-327
-276
-252
-252
-271
-282
-253
-219
-215
-230
-241
-220
-178
-172
-199
-211
-200
-171
-145
-148
-154
-157
-181
-192
-183
-217
-249
-211
-177
-191
-180
-139
-123
-120
-91
-44
-55
-110
-11
491
1536
2579
2221
310
-957
-402
359
242
42
121
113
74
129
159
156
166
178
198
221
244
275
301
328
374
403
412
457
531
572
583
617
691
765
800
823
865
855
736
563
358
112
-92
-200
-285
-384
-430
-402
-370
-381
-398
-401
-397
-381
-395
-440
-402
-315
-333
-393
-381
-369
-389
-375
-341
-333
-348
-358
-333
-301
-318
-339
-312
-290
-306
-305
-279
-280
-301
-281
-234
-231
-260
-253
-234
-244
-228
-188
-204
-220
-179
-175
-204
-169
-135
-162
-175
-168
-175
-157
-126
-129
-154
-189
-223
-222
-211
-213
-182
-142
-149
-134
-82
-68
-61
-58
-100
18
597
1665
2532
1952
87
-937
-304
349
203
69
158
113
73
146
158
132
158
188
211
240
256
279
321
338
339
375
442
496
522
551
615
672
698
748
829
869
864
840
757
577
335
98
-86
-217
-316
-389
-425
-424
-416
-423
-413
-390
-403
-409
-364
-363
-413
-402
-368
-382
-382
-363
-372
-362
-343
-370
-378
-339
-334
-344
-308
-294
-332
-326
-276
-263
-279
-296
-313
-289
-241
-228
-225
-224
-253
-255
-215
-212
-227
-201
-185
-200
-189
-154
-149
-175
-204
-198
-142
-100
-124
-154
-152
-169
-199
-213
-232
-230
-185
-154
-142
-111
-108
-132
-99
-50
-90
-104
129
767
1822
2534
1660
-247
-954
-145
381
156
59
149
110
99
151
139
144
198
211
207
237
263
268
296
355
406
426
441
478
532
568
590
647
734
796
834
869
875
846
762
556
283
75
-71
-214
-327
-388
-404
-402
-441
-463
-373
-284
-316
-359
-337
-325
-340
-350
-370
-378
-328
-269
-298
-368
-360
-305
-309
-335
-318
-311
-337
-338
-318
-317
-311
-293
-302
-326
-315
-287
-282
-284
-281
-295
-301
-279
-285
-307
-257
-182
-193
-237
-227
-205
-207
-208
-201
-196
-187
-178
-178
-179
-185
-203
-217
-221
-228
-221
-190
-163
-140
-104
-92
-82
-35
-56
-106
170
973
1988
2298
1109
-627
-983
-93
347
131
82
170
126
116
169
180
193
220
226
247
286
302
314
352
395
422
445
480
521
558
600
664
731
777
835
920
973
962
906
772
525
257
71
-74
-236
-362
-408
-421
-438
-438
-420
-408
-409
-404
-383
-375
-389
-394
-379
-365
-362
-364
-365
-357
-353
-363
-357
-329
-321
-332
-329
-322
-317
-308
-312
-322
-317
-310
-292
-250
-228
-247
-256
-241
-242
-265
-272
-237
-190
-177
-192
-197
-189
-185
-180
-173
-171
-164
-157
-180
-213
-205
-193
-230
-254
-215
-177
-175
-166
-128
-106
-114
-83
-42
-101
-89
347
1275
2193
2033
437
-963
-689
190
272
32
74
111
83
141
158
120
151
193
195
212
242
261
290
325
355
391
433
470
514
570
619
666
735
811
865
916
983
1006
914
708
447
186
-38
-210
-335
-412
-443
-451
-453
-445
-430
-417
-406
-398
-393
-385
-377
-375
-375
-371
-368
-364
-360
-354
-347
-340
-337
-330
-321
-315
-311
-303
-298
-297
-290
-279
-273
-271
-262
-253
-250
-246
-238
-236
-236
-233
-231
-227
-217
-210
-206
-199
-190
-186
-185
-179
-171
-171
-183
-203
-222
-238
-253
-257
-236
-207
-181
-146
-128
-139
-107
-73
-127
-83
392
1389
2396
2200
468
-947
-609
232
260
46
116
144
92
125
153
149
175
197
205
229
250
265
297
334
363
391
427
469
511
553
605
666
726
784
839
885
918
913
826
637
390
143
-74
-243
-352
-419
-455
-463
-457
-454
-450
-437
-425
-415
-402
-396
-403
-403
-387
-381
-389
-384
-374
-375
-376
-368
-365
-362
-350
-342
-341
-334
-326
-320
-310
-296
-288
-283
-275
-266
-260
-256
-251
-245
-237
-230
-224
-214
-205
-202
-200
-198
-214
-241
-246
-241
-250
-235
-189
-170
-173
-161
-161
-158
-116
-129
-169
91
858
1816
2072
915
-734
-1089
-244
237
85
37
118
91
88
134
137
146
181
196
209
237
261
280
304
332
363
400
439
478
523
579
643
708
773
840
907
957
965
888
704
447
187
-34
-206
-322
-386
-416
-429
-427
-418
-410
-400
-385
-373
-367
-363
-357
-351
-348
-346
-342
-336
-332
-326
-317
-307
-299
-290
-279
-264
-253
-246
-231
-214
-206
