# session 10
-49
-16
-89
-23
325
660
762
800
899
977
1006
1027
1012
940
806
619
419
247
113
13
-61
-116
-152
-170
-180
-188
-194
-198
-206
-216
-221
-227
-250
-272
-285
-302
-295
-224
-149
-145
-178
-205
-217
-192
-174
-216
-235
-9
706
1560
1341
-180
-1197
-693
-7
-57
-185
-88
-78
-94
-24
21
54
130
200
268
362
464
562
660
745
813
868
890
850
733
548
331
124
-45
-172
-266
-330
-367
-390
-405
-408
-410
-414
-414
-412
-413
-412
-411
-421
-433
-433
-437
-447
-413
-334
-293
-312
-331
-339
-329
-283
-291
-335
-175
324
991
1238
405
-907
-1175
-412
25
-92
-115
-38
-49
-21
44
71
122
206
272
345
450
558
658
756
848
919
962
963
896
740
521
301
115
-34
-146
-217
-256
-277
-291
-299
-299
-294
-290
-288
-290
-292
-296
-309
-330
-342
-353
-377
-367
-298
-248
-266
-299
-326
-329
-282
-283
-358
-300
83
838
1477
967
-484
-1092
-445
4
-175
-235
-109
-104
-124
-82
-31
33
97
156
241
334
401
475
576
659
685
679
679
646
513
320
164
43
-85
-167
-175
-201
-266
-283
-253
-260
-289
-287
-294
-322
-317
-304
-344
-380
-376
-400
-431
-377
-303
-301
-315
-315
-341
-348
-317
-324
-367
-353
12
1112
2180
1544
-367
-1134
-426
-14
-231
-237
-98
-124
-114
-12
39
77
157
220
263
352
473
531
545
630
755
789
745
709
628
427
184
3
-117
-196
-255
-323
-375
-373
-356
-353
-332
-316
-355
-404
-386
-331
-330
-375
-389
-392
-415
-381
-276
-223
-245
-269
-288
-269
-205
-213
-292
-263
131
1150
2135
1548
-336
-1175
-465
35
-143
-169
-53
-82
-64
6
3
48
164
232
279
375
491
596
691
754
804
879
944
913
744
488
248
60
-119
-269
-338
-372
-403
-398
-398
-440
-449
-413
-396
-391
-387
-393
-397
-416
-438
-402
-353
-338
-297
-262
-296
-319
-293
-263
-258
-299
-298
-86
431
1163
1390
380
-894
-880
-119
19
-231
-176
-44
-75
-85
-28
17
82
174
246
317
410
476
509
581
697
781
797
764
660
462
238
63
-90
-240
-318
-323
-334
-367
-391
-409
-403
-371
-375
-403
-383
-368
-420
-453
-436
-451
-446
-331
-233
-266
-316
-302
-287
-264
-232
-283
-339
-119
669
1788
1966
510
-912
-746
-64
-59
-174
-58
-67
-86
33
78
92
214
298
308
397
515
529
532
619
701
721
707
644
518
362
187
13
-107
-175
-225
-256
-274
-278
-256
-261
-327
-352
-291
-264
-331
-395
-386
-359
-387
-436
-402
-309
-267
-266
-268
-320
-346
-270
-250
-354
-395
-63
1101
2561
2332
215
-1083
-513
26
-204
-275
-134
-169
-160
-29
15
11
81
170
227
295
392
462
473
486
561
645
631
515
369
197
9
-126
-213
-318
-411
-441
-451
-473
-470
-444
-442
-469
-478
-445
-417
-438
-467
-455
-454
-499
-485
-372
-286
-286
-297
-292
-280
-273
-297
-296
-280
-117
857
2425
2528
518
-1036
-651
-2
-132
-243
-119
-146
-172
-61
2
25
107
177
209
281
378
463
576
670
681
714
799
773
610
442
269
72
-62
-148
-269
-354
-332
-319
-380
-409
-377
-355
-357
-353
-325
-289
-311
-382
-409
-408
-419
-358
-245
-242
-302
-284
-279
-312
-261
-237
-318
-240
224
1068
1675
982
-557
-1026
-291
64
-162
-164
-38
-75
-74
2
40
100
192
254
334
456
546
604
705
831
908
946
954
866
661
426
223
32
-135
-238
-289
-335
-368
-362
-353
-381
-400
-371
-355
-377
-377
-353
-354
-357
-357
-384
-369
-281
-237
-252
-249
-273
-315
-255
-200
-304
-351
-61
622
1443
1469
190
-1002
-774
-51
12
-160
-106
-63
-68
-6
38
68
158
230
261
355
481
522
542
638
750
812
815
741
603
434
235
31
-121
-204
-252
-309
-363
-373
-359
-364
-379
-385
-383
-370
-372
-409
-446
-457
-476
-524
-544
-491
-434
-445
-474
-464
-431
-377
-341
-391
-463
-342
348
1663
2317
1018
-834
-1037
-244
-110
-332
-234
-135
-172
-124
-43
-2
70
155
234
338
427
466
519
612
691
741
776
749
631
482
328
126
-75
-183
-231
-286
-322
-328
-331
-331
-326
-320
-300
-295
-341
-394
-403
-383
-367
-361
-364
-348
-278
-192
-161
-197
-252
-253
-179
-154
-231
-196
141
790
1483
1347
39
-985
-605
70
43
-88
29
53
13
60
97
129
205
257
297
394
479
500
560
702
809
831
849
838
695
463
255
79
-81
-195
-258
-296
-317
-318
-329
-377
-407
-378
-361
-395
-415
-411
-439
-474
-468
-480
-526
-494
-364
-285
-306
-338
-338
-303
-262
-291
-351
-302
145
1358
2549
1921
-148
-1063
-379
30
-235
-284
-143
-138
-134
-95
-59
29
112
148
218
309
376
469
590
673
714
749
766
707
530
288
69
-91
-193
-279
-358
-377
-374
-430
-471
-445
-425
-423
-420
-444
-451
-420
-430
-466
-468
-478
-491
-417
-306
-286
-318
-316
-310
-303
-283
-330
-405
-232
517
1675
2000
576
-1071
-1014
-114
30
-194
-105
-46
-103
-18
87
101
157
254
325
405
499
591
706
834
923
958
968
952
860
654
384
153
0
-114
-206
-265
-316
-362
-356
-320
-332
-374
-378
-345
-336
-372
-392
-370
-365
-388
-383
-371
-388
-366
-287
-239
-245
-268
-310
-318
-253
-236
-316
-300
74
956
1771
1221
-559
-1462
-764
-88
-179
-274
-167
-143
-112
-40
-20
31
148
237
304
396
493
581
679
775
850
921
968
922
773
570
318
60
-111
-223
-339
-412
-431
-454
-468
-449
-434
-428
-419
-408
-396
-392
-397
-384
-371
-396
-421
-405
-383
-349
-278
-244
-275
-291
-301
-312
-263
-248
-298
-176
240
950
1603
1183
-325
-1118
-512
43
-83
-151
-27
-30
-41
36
61
60
138
254
338
404
486
585
699
818
911
974
1020
994
834
602
376
178
25
-89
-178
-225
-255
-284
-268
-245
-286
-326
-299
-277
-304
-336
-331
-291
-277
-326
-373
-359
-304
-235
-194
-214
-259
-289
-294
-246
-216
-296
-325
-84
544
1481
1783
548
-961
-952
-157
-49
-276
-198
-112
-161
-135
-58
-14
41
125
206
267
333
430
519
572
635
708
727
695
611
428
207
45
-93
-233
-325
-364
-375
-368
-382
-406
-401
-400
-418
-416
-398
-384
-380
-403
-444
-463
-450
-437
-418
-349
-262
-259
-317
-343
-328
-281
-249
-298
-286
87
969
1876
1576
-111
-1245
-720
9
-64
-194
-59
-26
-14
83
102
106
215
317
375
484
599
628
644
719
784
804
807
773
663
485
262
58
-72
-176
-287
-348
-349
-369
-407
-395
-354
-356
-389
-404
-399
-380
-360
-388
-446
-464
-451
-454
-428
-341
-277
-304
-354
-363
-356
-327
-282
-318
-357
-134
463
1302
1682
704
-879
-1190
-357
13
-164
-117
-7
-69
-48
50
81
131
211
261
354
493
578
637
736
827
888
940
921
798
646
482
268
68
-57
-149
-240
-304
-319
-295
-286
-315
-337
-325
-302
-292
-296
-302
-301
-306
-319
-328
-325
-316
-307
-265
-196
-186
-216
-192
-180
-214
-189
-189
-259
-139
285
994
1732
1462
-57
-1030
-514
85
-21
-114
-8
-24
-48
26
70
83
147
247
310
321
361
472
580
632
657
682
682
627
496
291
77
-78
-199
-320
-391
-394
-390
-399
-395
-381
-377
-381
-386
-392
-399
-407
-412
-416
-429
-439
-442
-456
-460
-394
-291
-252
-272
-283
-295
-296
-242
-242
-320
-218
291
1188
1864
1212
-496
-1273
-578
7
-114
-182
-84
-97
-84
6
55
108
202
288
372
460
538
617
693
755
809
837
821
766
659
486
288
116
-23
-130
-204
-260
-306
-331
-341
-354
-373
-391
-409
-430
-450
-468
-479
-477
-467
-459
-450
-435
-417
-389
-338
-291
-280
-279
-278
-300
-275
-211
-265
-283
77
685
1165
1122
161
-1048
-1129
-320
36
-105
-82
11
-11
19
97
135
185
269
353
438
526
617
707
779
831
876
900
872
784
639
447
242
77
-33
-113
-175
-212
-225
-232
-242
-250
-250
-245
-239
-242
-252
-263
-272
-281
-296
-319
-337
-351
-373
-363
-293
-234
-242
-264
-280
-298
-254
-212
-276
-245
66
642
1457
1799
757
-669
-753
-52
67
-115
-38
24
-18
22
74
87
132
186
224
274
332
384
440
492
530
556
569
549
474
339
170
9
-122
-220
-291
-334
-357
-371
-381
-389
-398
-403
-402
-402
-409
-416
-416
-413
-418
-434
-446
-444
-452
-462
-408
-303
-261
-285
-291
-297
-295
-237
-237
-313
-211
248
1131
2027
1699
21
-1022
-535
-2
-147
-223
-104
-115
-118
-38
-5
26
109
183
243
317
397
472
537
591
646
687
686
642
548
392
208
56
-47
-129
-194
-233
-247
-249
-254
-265
-273
-275
-282
-285
-279
-283
-306
-323
-329
-344
-367
-378
-387
-411
-409
-336
-256
-253
-283
-289
-297
-276
-214
-231
-267
-53
559
1469
1951
1044
-573
-1022
-291
103
-54
-64
28
15
46
118
145
190
267
329
394
466
523
572
626
680
739
785
777
713
605
454
283
129
0
-102
-167
-203
-234
-265
-289
-303
-317
-335
-346
-351
-362
-372
-374
-377
-379
-369
-358
-360
-368
-375
-381
-386
-399
-389
-320
-245
-251
-285
-279
-289
-292
-224
-221
-274
-44
520
1118
1349
640
-728
-1264
-593
-43
-140
-218
-118
-68
-12
56
63
90
171
247
312
387
482
590
680
747
813
868
886
860
768
606
410
227
73
-49
-140
-200
-233
-251
-258
-254
-252
-265
-280
-285
-285
-284
-276
-267
-264
-260
-252
-254
-265
-273
-285
-305
-324
-349
-369
-329
-246
-226
-256
-248
-243
-245
-171
-149
-220
-39
453
978
1392
1128
-148
-1110
-701
-40
-62
-155
-37
-48
-90
-17
23
41
112
170
212
292
368
408
445
491
528
547
547
529
478
375
234
93
-29
-130
-197
-223
-243
-261
-244
-232
-295
-366
-353
-305
-300
-320
-323
-312
-310
-316
-305
-292
-312
-345
-359
-388
-410
-340
-230
-214
-250
-244
-250
-275
-246
-234
-233
-108
218
1053
2258
2288
524
-887
-560
32
-90
-192
-80
-96
-78
47
87
97
170
237
285
348
419
485
531
547
572
610
611
568
495
382
227
65
-63
-146
-227
-306
-307
-247
-243
-288
-293
-274
-274
-280
-289
-293
-270
-246
-247
-247
-235
-229
-233
-248
-279
-311
-344
-368
-314
-183
-119
-160
-173
-142
-151
-146
-119
-167
-154
156
811
1627
1796
604
-844
-919
-174
-1
-194
-114
20
7
12
51
81
145
230
302
366
430
506
585
641
691
750
776
745
692
617
472
274
96
-31
-131
-219
-282
-320
-352
-386
-408
-414
-423
-442
-466
-483
-475
-451
-451
-479
-487
-472
-492
-535
-503
-416
-417
-492
-488
-426
-401
-363
-303
-290
-301
-344
-413
-361
-257
-291
-222
218
825
1139
548
-848
-1555
-818
-5
-42
-192
-58
21
65
179
196
155
242
407
494
475
458
546
669
702
694
739
777
741
685
611
391
87
5
161
195
30
-64
-80
-181
-238
-105
34
12
-69
-124
-172
-164
-78
-22
-32
-23
7
8
29
94
58
-139
-268
-177
-47
-27
-24
3
-18
-59
-38
9
-24
-99
-42
328
1178
2072
1713
-98
-1429
-1095
-311
-177
-329
-326
-206
-75
-37
-74
-66
-12
40
116
210
248
223
274
463
610
660
768
813
617
386
208
-91
-379
-465
-488
-514
-513
-569
-611
-555
-583
-718
-725
-566
-442
-520
-684
-638
-423
-289
-229
-218
-329
-428
-400
-317
-230
-218
-299
-305
-248
-282
-302
-203
-127
-84
273
1211
2044
1488
-202
-1108
-632
-85
-52
14
175
171
163
279
368
365
359
423
487
457
473
690
898
887
821
840
842
801
753
625
439
300
183
35
-98
-167
-201
-238
-264
-281
-344
-395
-342
-295
-346
-387
-411
-520
-643
-656
-616
-622
-634
-571
-530
-596
-611
-549
-609
-675
-488
-307
-452
-626
-428
167
1116
1979
1607
-156
-1484
-1161
-282
-33
-176
-248
-230
-154
-80
-50
13
114
200
331
518
624
635
686
788
885
994
1078
1050
926
760
570
393
232
55
-96
-163
-186
-212
-213
-170
-115
-90
-145
-266
-318
-242
-179
-224
-280
-277
-255
-240
-202
-141
-119
-167
-215
-248
-328
-359
-266
-255
-279
68
704
1159
1158
319
-1178
-1902
-1248
-500
-427
-450
-339
-332
-345
-289
-239
-180
-111
-44
78
207
298
431
515
452
483
693
758
588
434
323
121
-115
-263
-337
-384
-384
-334
-291
-260
-173
-44
46
86
81
0
-105
-130
-86
-59
-65
-85
-94
-40
55
88
35
-43
-120
-147
-72
-10
-80
-102
150
859
2163
3085
2041
-120
-854
-153
159
-24
46
161
118
136
188
193
222
272
339
441
491
495
549
554
445
421
479
376
145
-72
-323
-564
-729
-933
-1103
-1018
-829
-807
-860
-796
-703
-738
-792
-697
-572
-570
-612
-628
-655
-676
-651
-593
-512
-440
-429
-455
-441
-396
-360
-258
-106
-60
-26
218
739
1645
2374
1565
-379
-1129
-344
155
-2
52
243
224
175
175
146
140
199
313
434
505
569
662
724
751
795
839
826
743
637
549
460
357
267
182
100
43
-26
-111
-119
-85
-153
-257
-281
-342
-476
-507
-486
-605
-715
-642
-543
-543
-559
-568
-616
-663
-656
-649
-735
-816
-759
-681
-608
-323
303
1235
1744
665
-1217
-1611
-613
-186
-461
-470
-323
-325
-282
-178
-85
58
210
327
468
611
702
781
882
980
1068
1134
1141
1096
1008
843
657
524
369
160
38
56
109
155
199
186
112
71
104
123
44
-54
-52
-17
-48
-78
-63
-60
-56
-12
-9
-68
-85
-101
-203
-221
-123
-224
-409
-167
425
838
599
-579
-1919
-2009
-1091
-603
-716
-762
-728
-728
-635
-555
-588
-561
-373
-113
