# session 41
-42
-48
-26
-55
-155
-219
-217
-216
-230
-231
-225
-223
-217
-216
-219
-215
-211
-213
-211
-202
-197
-196
-193
-187
-180
-173
-172
-174
-171
-166
-166
-165
-156
-147
-147
-146
-141
-137
-137
-135
-135
-136
-129
-117
-116
-124
-127
-129
-140
-151
-159
-177
-203
-204
-174
-152
-131
-97
-90
-90
-49
-59
-94
162
914
1895
2219
1072
-644
-1012
-116
363
164
102
184
142
127
176
179
180
203
215
229
251
271
295
318
336
362
390
414
444
480
510
541
572
600
630
660
680
677
623
498
318
124
-51
-191
-292
-355
-388
-402
-406
-404
-400
-396
-389
-380
-375
-375
-377
-377
-375
-373
-371
-369
-367
-365
-364
-357
-348
-341
-336
-330
-323
-313
-303
-301
-300
-287
-270
-263
-259
-252
-248
-244
-231
-221
-219
-214
-204
-199
-196
-189
-179
-174
-169
-159
-151
-154
-154
-144
-142
-153
-162
-174
-202
-230
-228
-202
-181
-166
-129
-96
-110
-97
-38
-77
-121
167
925
1941
2385
1351
-277
-595
168
410
131
109
184
122
123
170
162
169
198
205
222
253
272
288
312
341
371
400
431
470
510
551
597
646
689
728
761
782
776
707
547
329
113
-71
-219
-319
-374
-402
-414
-413
-410
-405
-394
-381
-375
-379
-380
-374
-366
-363
-361
-360
-359
-358
-358
-353
-343
-335
-331
-320
-310
-308
-304
-298
-292
-282
-267
-262
-263
-258
-249
-240
-233
-229
-228
-225
-217
-207
-201
-201
-201
-191
-180
-179
-181
-174
-163
-160
-158
-155
-158
-166
-176
-196
-220
-229
-214
-191
-176
-150
-109
-107
-117
-63
-51
-124
5
567
1492
2244
1770
117
-807
-191
427
249
92
189
166
122
171
177
165
194
215
227
252
269
286
316
341
359
385
416
444
477
513
548
580
610
639
663
681
688
659
552
376
190
23
-124
-240
-308
-340
-356
-364
-365
-362
-355
-351
-350
-343
-337
-344
-353
-350
-340
-336
-340
-341
-332
-324
-322
-320
-313
-304
-297
-289
-281
-272
-265
-258
-251
-246
-242
-233
-222
-214
-209
-207
-203
-197
-193
-189
-181
-170
-164
-166
-165
-153
-142
-144
-148
-143
-136
-135
-137
-141
-151
-161
-169
-185
-204
-212
-200
-182
-160
-126
-108
-119
-87
-56
-119
-71
364
1171
1981
1883
452
-831
-535
301
346
110
171
200
132
164
201
188
209
239
238
251
285
310
319
330
354
381
401
423
450
475
501
525
542
558
575
587
592
578
516
394
233
67
-71
-176
-254
-303
-321
-330
-341
-342
-333
-331
-332
-326
-320
-324
-329
-331
-331
-329
-323
-320
-323
-326
-320
-311
-308
-308
-302
-288
-273
-266
-267
-267
-260
-252
-245
-236
-231
-229
-222
-213
-207
-204
-203
-194
-182
-180
-182
-174
-161
-153
-148
-147
-149
-145
-138
-135
-132
-131
-139
-150
-159
-168
-180
-190
-186
-172
-154
-118
-88
-99
-82
-29
-73
-87
248
974
1835
2080
946
-591
-719
159
421
153
145
216
153
161
208
197
204
235
244
255
274
287
305
329
344
360
384
405
422
445
470
485
499
521
536
536
530
521
479
380
237
85
-49
-154
-229
-280
-309
-324
-330
-330
-326
-324
-326
-327
-325
-324
-327
-327
-328
-329
-326
-323
-327
-327
-319
-313
-310
-302
-290
-282
-277
-267
-256
-253
-252
-247
-240
-231
-223
-218
-214
-210
-200
-192
-191
-189
-180
-174
-171
-165
-159
-156
-151
-142
-135
-134
-137
-136
-126
-120
-129
-143
-152
-158
-166
-177
-181
-171
-153
-126
-91
-92
-97
-48
-43
-96
65
639
1535
2164
1500
-215
-1008
-249
417
255
109
201
186
155
197
200
198
226
236
245
272
285
294
318
340
356
376
397
420
441
458
475
495
511
524
534
538
536
512
437
312
168
23
-108
-203
-261
-298
-318
-326
-332
-331
-323
-319
-324
-327
-325
-324
-323
-324
-325
-322
-318
-324
-327
-318
-307
-302
-299
-293
-285
-274
-268
-266
-262
-253
-244
-237
-231
-225
-219
-215
-209
-200
-193
-187
-181
-178
-175
-167
-160
-160
-159
-150
-144
-143
-138
-133
-134
-131
-128
-132
-138
-144
-152
-161
-176
-196
-192
-166
-139
-108
-92
-101
-76
-43
-82
-27
406
1277
2132
1913
311
-996
-633
251
330
113
166
199
148
180
209
195
214
235
238
258
286
300
314
336
354
375
402
424
441
467
495
518
540
556
567
584
595
574
511
399
243
76
-73
-190
-268
-314
-344
-360
-364
-364
-360
-351
-342
-336
-338
-343
-339
-327
-325
-334
-336
-329
-323
-320
-320
-319
-314
-308
-304
-293
-280
-276
-275
-265
-255
-254
-248
-237
-230
-227
-218
-208
-205
-204
-195
-180
-173
-177
-178
-170
-162
-157
-151
-144
-141
-140
-141
-138
-129
-126
-136
-147
-154
-168
-192
-203
-188
-165
-151
-118
-85
-94
-84
-36
-72
-90
222
942
1825
2109
1004
-579
-800
76
411
160
129
209
155
148
193
192
199
225
233
245
268
285
308
333
350
373
399
422
450
485
516
545
574
596
616
639
651
641
595
491
330
148
-16
-153
-258
-322
-354
-368
-370
-371
-373
-366
-357
-359
-362
-353
-346
-347
-350
-349
-346
-342
-337
-332
-330
-329
-324
-318
-309
-301
-296
-291
-284
-277
-270
-261
-254
-251
-246
-236
-228
-224
-219
-212
-207
-200
-193
-190
-186
-179
-175
-173
-166
-157
-153
-150
-142
-138
-139
-135
-131
-135
-147
-162
-179
-196
-206
-194
-168
-152
-132
-93
-87
-95
-47
-45
-112
46
603
1460
2149
1678
51
-870
-240
421
266
100
194
179
138
190
201
188
214
229
232
254
279
297
318
337
362
394
424
453
485
509
535
575
612
631
651
674
680
650
568
426
243
60
-97
-219
-298
-341
-365
-379
-380
-380
-380
-370
-362
-375
-383
-367
-350
-346
-348
-357
-361
-350
-343
-341
-330
-326
-331
-315
-293
-294
-296
-282
-274
-273
-267
-258
-253
-244
-231
-223
-224
-220
-207
-201
-203
-197
-185
-179
-177
-173
-163
-156
-157
-156
-148
-141
-141
-137
-135
-141
-140
-128
-120
-120
-124
-145
-179
-197
-195
-183
-161
-143
-122
-82
-73
-93
-47
-16
-95
-12
501
1373
2144
1833
260
-842
-354
382
306
111
190
192
147
193
203
183
207
229
241
268
280
288
319
346
360
383
415
443
472
499
529
573
610
624
639
671
686
658
583
453
275
93
-62
-194
-293
-346
-374
-397
-405
-391
-378
-377
-374
-365
-358
-355
-355
-358
-359
-356
-356
-353
-341
-334
-337
-335
-323
-317
-312
-298
-286
-283
-279
-269
-260
-254
-249
-243
-237
-231
-226
-220
-209
-198
-188
-186
-189
-185
-176
-171
-165
-154
-150
-144
-138
-145
-151
-132
-115
-117
-118
-108
-109
-116
-115
-118
-130
-145
-165
-189
-183
-141
-109
-96
-73
-68
-80
-41
-27
-78
117
819
1724
2035
1071
-547
-1117
-327
334
255
151
229
216
191
229
228
221
254
272
277
298
317
329
351
376
402
428
445
461
498
544
580
604
632
672
711
730
735
718
627
445
233
44
-117
-250
-340
-394
-420
-422
-413
-407
-406
-397
-379
-366
-359
-354
-353
-352
-344
-335
-335
-343
-347
-341
-335
-332
-325
-317
-313
-312
-310
-304
-294
-283
-278
-272
-265
-260
-251
-238
-232
-230
-218
-209
-212
-207
-197
-197
-195
-183
-176
-176
-167
-159
-158
-152
-144
-146
-145
-134
-135
-153
-160
-159
-177
-205
-214
-195
-165
-151
-139
-97
-79
-101
-66
-32
-96
-13
500
1372
2121
1815
290
-811
-375
355
304
105
176
181
127
166
188
176
196
213
219
246
273
285
300
322
351
388
422
451
486
529
577
632
688
735
780
824
849
833
747
570
330
97
-92
-240
-345
-410
-451
-465
-450
-439
-443
-431
-407
-400
-400
-386
-375
-377
-379
-374
-369
-363
-362
-367
-363
-345
-333
-333
-329
-320
-312
-301
-290
-287
-288
-281
-266
-254
-247
-242
-238
-237
-229
-217
-213
-209
-198
-192
-194
-185
-172
-179
-184
-166
-154
-159
-157
-146
-145
-142
-134
-140
-147
-143
-155
-189
-204
-193
-177
-159
-138
-105
-78
-93
-85
-24
-54
-106
141
748
1572
2122
1440
-162
-769
-18
449
205
114
215
170
141
192
196
194
218
226
235
264
287
304
327
348
370
399
436
472
498
526
566
610
649
686
718
737
746
718
618
453
260
66
-104
-232
-318
-369
-395
-404
-403
-395
-388
-380
-371
-368
-366
-363
-365
-367
-360
-352
-354
-358
-353
-344
-337
-331
-328
-322
-311
-303
-304
-301
-290
-279
-270
-263
-256
-249
-242
-241
-234
-220
-212
-215
-211
-197
-195
-198
-189
-175
-173
-175
-168
-160
-158
-153
-142
-137
-141
-143
-137
-133
-131
-129
-134
-146
-161
-178
-189
-186
-170
-146
-133
-121
-86
-77
-97
-57
-26
-88
5
490
1295
2032
1780
274
-848
-399
361
313
115
194
197
146
199
219
188
207
239
244
254
278
301
321
342
373
406
425
443
479
523
560
595
638
681
710
731
753
754
689
548
360
159
-29
-183
-291
-359
-395
-409
-413
-412
-406
-396
-389
-385
-381
-370
-358
-356
-362
-362
-354
-354
-359
-353
-338
-330
-327
-324
-319
-309
-297
-290
-288
-284
-273
-258
-246
-245
-246
-240
-226
-213
-212
-217
-209
-195
-188
-191
-186
-174
-170
-174
-168
-153
-147
-150
-151
-145
-136
-131
-133
-134
-129
-127
-134
-145
-151
-155
-178
-205
-190
-149
-131
-112
-82
-90
-91
-33
-44
-84
227
1004
1794
1819
650
-772
-918
-42
380
203
161
239
202
196
239
235
234
262
271
278
301
319
334
356
376
395
422
452
483
518
554
588
632
680
719
755
788
798
762
660
475
241
32
-124
-247
-340
-392
-413
-423
-420
-408
-402
-401
-392
-372
-360
-358
-356
-354
-356
-357
-352
-349
-349
-350
-348
-339
-328
-325
-330
-330
-315
-299
-296
-295
-285
-275
-271
-264
-259
-255
-247
-236
-229
-224
-217
-212
-208
-203
-197
-192
-186
-179
-173
-168
-162
-158
-159
-156
-147
-149
-160
-166
-175
-199
-224
-227
-200
-167
-157
-143
-108
-107
-107
-51
-69
-134
97
759
1642
2148
1392
-210
-793
-45
430
199
99
189
151
134
185
175
169
209
227
228
249
275
297
318
339
366
402
437
468
502
544
590
637
684
728
767
801
819
796
696
515
298
95
-83
-229
-327
-384
-419
-430
-421
-412
-408
-402
-393
-385
-380
-382
-380
-373
-372
-377
-371
-359
-359
-363
-353
-343
-347
-343
-325
-312
-308
-300
-290
-282
-275
-270
-263
-256
-248
-241
-235
-232
-224
-211
-205
-207
-203
-190
-181
-182
-180
-174
-170
-164
-155
-152
-151
-142
-135
-137
-138
-140
-146
-155
-173
-198
-211
-199
-173
-156
-146
-112
-86
-101
-79
-37
-89
-62
342
1121
1933
1942
632
-706
-557
263
366
122
158
202
147
166
189
175
198
223
224
244
269
283
305
334
356
379
407
437
472
510
546
586
627
663
701
740
762
757
713
602
424
220
29
-131
-252
-330
-374
-398
-406
-405
-403
-399
-388
-382
-384
-381
-374
-371
-371
-371
-372
-373
-373
-370
-358
-347
-345
-341
-328
-316
-309
-304
-302
-298
-286
-275
-267
-260
-252
-245
-237
-230
-225
-220
-214
-208
-204
-198
-190
-179
-167
-162
-165
-160
-146
-143
-147
-141
-135
-136
-127
-118
-130
-143
-147
-161
-182
-193
-184
-158
-137
-116
-84
-79
-81
-37
-44
-97
94
679
1522
2119
1526
-93
-875
-176
435
256
115
208
182
144
195
204
197
224
238
244
266
285
303
327
343
358
390
423
444
467
505
550
587
619
657
693
715
728
722
656
511
317
117
-74
-232
-327
-374
-408
-434
-441
-432
-428
-428
-417
-405
-402
-400
-393
-390
-395
-393
-384
-377
-377
-377
-368
-354
-345
-338
-323
-306
-293
-284
-280
-277
-270
-261
-252
-243
-236
-233
-225
-217
-213
-213
-210
-205
-200
-196
-192
-189
-190
-188
-180
-175
-173
-171
-164
-155
-153
-160
-170
-184
-206
-228
-231
-208
-182
-167
-133
-98
-109
-97
-40
-76
-99
251
1075
1997
2124
873
-586
-628
177
363
113
120
183
128
135
172
166
179
205
212
225
247
266
290
315
337
365
397
426
457
497
541
583
634
695
748
782
808
824
781
645
436
211
10
-154
-279
-361
-406
-422
-425
-429
-430
-417
-398
-394
-400
-397
-388
-385
-385
-383
-382
-381
-374
-368
-365
-360
-353
-347
-341
-334
-326
-321
-323
-323
-312
-301
-298
-292
-279
-273
-270
-260
-252
-255
-255
-241
-227
-226
-231
-239
-251
-258
-250
-214
-150
-102
-106
-130
-147
-155
-146
-143
-150
-113
-105
-182
-93
441
1398
2222
1833
192
-856
-339
325
203
24
108
100
55
102
119
113
141
163
176
204
227
247
277
307
332
358
389
426
467
506
547
597
652
705
752
789
805
775
668
483
254
29
-157
-290
-379
-434
-453
-454
-458
-459
-448
-436
-432
-428
-424
-423
-423
-418
-413
-413
-410
-404
-404
-406
-396
-386
-380
-370
-361
-363
-359
-340
-326
-330
-331
-325
-330
-340
-338
-322
-278
-204
-162
-184
-221
-236
-230
-210
-212
-217
-174
-176
-243
-109
471
1499
2367
1838
20
-964
-314
303
109
-36
72
51
11
58
65
66
108
131
141
170
200
230
264
287
309
348
389
423
460
508
555
601
649
695
730
757
763
707
558
344
123
-66
-210
-307
-369
-404
-411
-398
-386
-377
-367
-361
-360
-353
-344
-340
-337
-335
-333
-326
-317
-319
-320
-305
-293
-293
-284
-265
-255
-253
-244
-231
-221
-210
-199
-193
-190
-178
-160
-150
-153
-162
-169
-172
-170
-167
-143
-73
-11
-22
-65
-87
-96
-84
-67
-74
-54
-33
-97
-61
382
1296
2239
2102
523
-779
-441
325
283
52
128
139
66
103
125
94
129
