# session 6
-155
-190
-55
-148
-722
-1304
-1459
-1375
-1328
-1331
-1359
-1381
-1337
-1264
-1238
-1237
-1208
-1181
-1189
-1163
-1120
-1193
-1271
-1179
-1101
-1094
-819
-238
246
139
-834
-1888
-1769
-868
-523
-708
-715
-611
-580
-470
-318
-264
-245
-185
-100
-9
71
152
268
401
511
597
660
697
749
818
835
782
703
627
578
573
579
568
543
510
492
500
477
416
409
454
429
335
287
270
193
120
144
143
17
-28
201
757
1652
2126
1138
-419
-656
83
287
75
139
230
121
83
218
346
340
278
279
306
294
299
334
331
296
257
188
103
54
9
-123
-329
-488
-562
-612
-641
-638
-649
-661
-608
-526
-497
-533
-584
-575
-511
-476
-468
-430
-395
-417
-445
-397
-315
-327
-387
-277
196
1111
1877
1319
-295
-1034
-412
115
20
-26
80
99
123
169
158
180
266
317
341
418
509
549
602
686
675
557
493
525
529
476
435
400
311
178
61
-13
-92
-195
-258
-266
-326
-441
-469
-443
-532
-615
-471
-298
-351
-464
-450
-392
-429
-595
-591
-72
533
416
-454
-1333
-1468
-819
-194
-132
-251
-227
-246
-336
-329
-278
-287
-260
-138
-36
-6
43
127
181
210
244
266
284
313
311
276
248
179
34
-89
-129
-139
-136
-104
-84
-112
-163
-176
-117
-55
-41
-19
33
62
72
70
30
24
72
50
-2
94
489
1483
2651
2355
395
-892
-455
93
-80
-226
-135
-116
-115
-56
7
83
164
228
274
302
335
386
413
397
372
388
455
537
571
501
333
167
64
-46
-199
-306
-335
-370
-440
-490
-520
-571
-619
-619
-621
-649
-632
-606
-706
-819
-730
-571
-589
-649
-550
-396
61
1308
2320
1312
-815
-1450
-625
-218
-388
-340
-209
-234
-210
-110
-34
58
174
274
348
392
448
540
604
632
690
758
772
763
748
684
576
458
338
248
190
118
38
9
10
-39
-146
-229
-240
-239
-271
-294
-288
-286
-305
-358
-394
-362
-366
-414
-263
193
809
1143
489
-847
-1332
-644
-108
-191
-271
-241
-300
-334
-295
-267
-235
-190
-155
-104
-18
45
57
103
200
229
191
204
220
184
167
114
-57
-227
-310
-344
-332
-330
-405
-496
-535
-530
-493
-462
-471
-472
-431
-394
-381
-365
-348
-283
-119
-5
-21
55
390
1051
1837
1719
293
-762
-323
319
245
160
320
329
278
332
367
386
443
468
463
477
484
492
520
501
429
405
429
414
415
512
576
484
340
268
240
187
91
15
-12
-85
-194
-159
-21
-14
-112
-137
-144
-234
-326
-377
-446
-483
-466
-554
-655
-361
316
761
346
-885
-1863
-1639
-845
-540
-593
-559
-522
-477
-348
-296
-308
-216
-93
-50
-1
84
122
128
167
218
251
287
322
350
394
438
421
338
245
177
123
66
8
-35
-41
-16
5
-2
0
40
95
141
162
158
142
110
91
110
74
9
165
672
1439
1869
1000
-701
-1298
-522
-4
-163
-199
-64
-73
-101
-63
-28
13
44
57
108
175
206
236
281
317
359
393
352
250
177
129
16
-170
-325
-397
-444
-511
-577
-614
-642
-697
-749
-739
-684
-647
-671
-750
-777
-702
-675
-746
-741
-669
-711
-733
-478
-22
637
1408
1260
-253
-1387
-939
-224
-227
-293
-165
-134
-45
162
272
339
447
512
544
591
638
705
790
848
877
874
846
861
907
876
779
693
586
447
367
361
324
226
136
93
70
44
6
-38
-61
-33
23
61
66
58
76
109
82
4
17
238
821
1606
1559
173
-1020
-738
-65
-114
-355
-357
-380
-424
-420
-462
-466
-385
-345
-337
-273
-206
-175
-134
-104
-112
-82
-31
-58
-86
-39
-51
-139
-170
-198
-310
-421
-476
-512
-545
-582
-617
-622
-605
-592
-567
-511
-441
-382
-327
-280
-249
-189
-128
-155
-164
49
652
1661
2220
1212
-429
-697
109
373
130
127
195
134
151
213
184
182
256
268
232
278
344
325
279
258
262
328
439
501
491
450
376
249
115
3
-127
-264
-372
-470
-524
-509
-521
-562
-543
-549
-623
-651
-672
-770
-843
-869
-895
-859
-851
-934
-788
-239
415
663
-43
-1354
-1825
-1176
-749
-908
-825
-485
-353
-269
-63
83
201
433
640
708
768
861
851
701
541
516
658
867
1016
1060
1036
975
884
788
729
698
650
595
564
540
492
434
397
381
366
375
446
558
623
576
461
446
557
557
385
287
460
1122
2047
1863
48
-1364
-963
-184
-193
-329
-260
-318
-413
-380
-312
-277
-314
-346
-221
-53
-40
-80
-28
31
15
-25
-48
-74
-111
-174
-274
-373
-457
-557
-639
-668
-732
-867
-931
-883
-864
-903
-906
-896
-868
-738
-634
-726
-853
-848
-800
-729
-637
-685
-750
-503
74
807
1130
269
-1062
-1194
-362
7
-86
-23
52
35
101
203
298
421
488
495
541
611
667
750
829
833
820
888
980
990
937
848
694
525
402
281
147
39
-67
-168
-188
-160
-188
-241
-241
-214
-196
-171
-150
-152
-211
-330
-352
-229
-240
-383
-134
626
1208
858
-396
-1432
-1228
-408
-141
-293
-286
-220
-230
-220
-214
-188
-91
-50
-83
-37
52
45
16
106
259
326
306
303
311
272
237
230
159
12
-119
-213
-293
-343
-358
-358
-352
-317
-239
-153
-89
-10
79
106
74
36
14
63
161
143
43
47
299
1265
2766
2909
943
-658
-314
309
111
-62
23
-45
-98
-4
42
39
38
5
13
103
174
203
251
300
337
390
423
436
500
559
514
435
386
271
85
-53
-154
-305
-462
-534
-549
-608
-719
-771
-735
-734
-800
-847
-889
-966
-1008
-987
-940
-910
-921
-862
-608
-132
607
1059
201
-1353
-1676
-815
-377
-496
-442
-348
-397
-347
-235
-199
-146
-53
6
75
200
325
426
533
648
755
835
876
903
946
958
880
741
617
537
482
426
375
352
335
273
201
185
170
91
17
-16
-56
-87
-101
-161
-185
-87
-86
-230
-122
351
894
1222
805
-404
-1098
-543
99
46
-79
9
-22
-116
-75
-5
-10
-17
31
100
151
181
172
151
174
201
163
124
137
118
17
-102
-212
-343
-488
-589
-596
-535
-536
-684
-799
-686
-530
-576
-684
-688
-675
-643
-529
-460
-508
-556
-531
-451
-403
-424
-344
9
720
1563
1514
124
-990
-580
154
154
44
189
238
216
298
389
434
469
499
536
578
615
662
711
745
769
765
721
701
725
713
638
527
388
264
184
96
0
-45
-52
-51
-40
-55
-95
-110
-118
-135
-99
-53
-100
-188
-226
-214
-173
-195
-309
-223
268
810
739
-296
-1573
-1774
-923
-334
-412
-548
-547
-530
-481
-464
-462
-368
-301
-347
-313
-117
67
135
137
126
121
139
173
186
164
140
121
60
-41
-114
-134
-156
-188
-178
-128
-88
-83
-104
-116
-72
-7
23
61
118
113
67
76
104
89
41
-16
26
347
1111
2084
2173
721
-814
-806
-49
91
-134
-146
-84
-77
-58
-17
46
93
111
174
260
278
293
351
330
272
363
480
434
387
434
379
211
71
-58
-180
-247
-333
-452
-515
-555
-618
-642
-619
-597
-574
-562
-565
-553
-548
-576
-619
-673
-667
-582
-611
-680
-380
300
990
1201
367
-962
-1263
-546
-179
-326
-325
-230
-223
-164
-84
-14
178
406
444
350
356
490
614
681
735
782
809
836
855
808
697
591
486
355
259
219
163
97
69
20
-99
-213
-256
-262
-275
-287
-272
-225
-175
-158
-173
-176
-123
-58
-65
-63
82
459
1151
1615
850
-606
-986
-283
82
-46
-71
-99
-220
-201
-142
-185
-188
-131
-114
-77
18
77
78
67
40
-15
-70
-93
-113
-188
-259
-214
-136
-180
-286
-329
-346
-397
-452
-466
-446
-428
-439
-465
-475
-462
-422
-352
-298
-271
-225
-198
-195
-99
-18
-109
-103
251
938
1849
2047
668
-831
-656
177
202
6
158
209
138
214
288
279
300
329
337
364
385
383
392
416
453
490
504
542
625
663
591
450
301
175
62
-64
-178
-236
-269
-310
-317
-282
-284
-338
-352
-322
-330
-376
-411
-423
-450
-526
-574
-546
-575
-547
-132
426
548
99
-764
-1507
-1357
-592
-264
-435
-479
-363
-308
-278
-246
-196
-83
5
4
24
117
198
235
268
313
380
468
549
600
625
632
580
411
202
89
42
-22
-60
-79
-146
-182
-126
-94
-132
-157
-142
-104
-37
24
44
20
-35
-41
6
-34
-99
68
600
1440
1892
963
-656
-1068
-310
78
-74
-73
30
27
26
51
84
137
143
123
186
309
408
480
540
565
557
520
461
420
368
204
-7
-106
-156
-282
-398
-431
-474
-561
-619
-618
-592
-599
-674
-747
-687
-527
-451
-494
-504
-459
-466
-471
-394
-375
-457
-434
-163
550
1578
1640
91
-1200
-795
-16
22
-19
135
100
28
119
196
236
328
393
386
391
438
482
508
541
581
606
663
785
855
765
616
512
390
239
134
49
-55
-132
-194
-269
-295
-269
-271
-310
-348
-363
-308
-223
-237
-314
-337
-361
-401
-375
-375
-391
-111
524
1104
990
-185
-1522
-1567
-644
-218
-386
-417
-323
-323
-340
-372
-369
-232
-109
-110
-92
-15
13
-11
-2
93
261
374
343
287
313
306
165
-15
-115
-172
-255
-331
-372
-406
-414
-384
-383
-392
-339
-272
-239
-188
-133
-123
-107
-89
-117
-93
12
31
-20
96
579
1511
2229
1521
-146
-732
-10
400
154
62
175
171
128
158
210
233
227
237
276
303
337
423
513
545
564
632
700
719
714
683
605
490
323
130
28
-9
-115
-229
-257
-305
-395
-412
-399
-440
-467
-455
-480
-550
-590
-564
-565
-646
-678
-648
-673
-614
-297
263
952
1030
-195
-1499
-1280
-376
-236
-449
-363
-286
-333
-286
-226
-211
-114
-12
-50
-53
171
423
502
538
625
642
588
582
602
567
508
432
280
121
75
56
-75
-204
-174
-90
-69
-41
1
-27
-76
-67
-40
-2
72
104
27
-74
-89
-48
-71
-148
-128
111
707
1511
1516
141
-1188
-1010
-183
3
-178
-159
-57
-40
-93
-153
-136
-94
-115
-114
-6
133
209
224
246
307
353
340
314
311
263
127
-33
-174
-314
-435
-493
-516
-581
-678
-692
-622
-626
-710
-700
-611
-587
-588
-550
-547
-566
-543
-536
-527
-457
-452
-456
-177
396
1048
1344
614
-679
-963
-184
248
111
125
257
241
224
267
308
369
425
460
532
609
624
626
679
732
739
749
800
819
737
615
509
387
256
159
61
-63
-141
-157
-184
-224
-242
-255
-267
-239
-143
-17
59
60
47
43
-6
-90
-111
-73
-99
-127
168
979
1794
1484
-70
-1179
-809
-136
-162
-367
-364
-399
-474
-477
-466
-441
-372
-302
-238
-166
-106
-57
-17
-9
-21
5
68
106
109
124
129
62
-46
-119
-170
-235
-252
-187
-119
-99
-95
-106
-154
-220
-265
-288
-296
-269
-217
-209
-248
-284
-314
-291
-224
-249
-250
87
753
1415
1424
284
-1008
-963
-125
93
-118
-72
12
-31
1
66
74
114
195
254
315
400
465
500
564
671
755
783
782
748
674
579
454
297
162
67
-17
-83
-126
-171
-214
-235
-260
-294
-303
-311
-352
-363
-322
-334
-408
-459
-522
-580
-542
-554
-643
-404
155
452
210
-525
-1386
-1505
-793
-297
-365
-420
-345
-339
-326
-271
-242
-210
-155
-73
60
191
265
326
400
463
511
538
535
508
446
330
182
39
-79
-167
-234
-303
-363
-393
-405
-415
-415
-403
-386
-360
-317
-261
-195
-129
-64
-15
-8
22
131
177
159
247
365
900
2528
3842
2651
330
-247
383
404
142
215
248
196
254
288
267
293
310
290
296
341
391
427
450
474
491
481
446
394
313
188
31
-106
-188
-247
-311
-344
-328
-307
-299
-271
-239
-238
-254
-270
-305
-335
-313
-286
-317
-361
-398
-471
-503
-475
-548
-581
-215
355
479
-200
-1315
-1854
-1333
-620
-491
-598
-572
-539
-508
-437
-412
-373
-252
-153
-120
-72
5
69
123
196
280
333
347
347
337
288
188
62
-56
-148
-213
-257
-284
-296
-304
-307
-292
-276
-277
-274
-252
-234
-207
-160
-142
-151
-148
-171
-180
-118
-138
-212
-2
461
866
988
432
-592
-885
-238
177
55
24
113
105
124
184
201
243
322
370
406
469
548
622
683
735
785
830
871
901
889
809
677
532
403
294
198
110
42
1
-29
-63
-96
-120
-136
-149
-168
-181
-156
-114
-100
-109
-143
-202
-201
-155
-197
-226
8
553
1177
1209
198
-864
-766
-119
2
-131
-64
-14
-41
4
56
84
146
208
243
289
337
369
408
455
493
527
553
554
533
484
376
219
77
-33
-143
-250
-316
-343
-363
-396
-419
-409
-395
-418
-444
-436
-434
-444
-423
-407
-446
-502
-548
-555
-520
-551
-588
-317
252
621
283
-699
-1397
-1071
-396
-265
-394
-347
-298
-305
-251
-217
-203
-102
11
44
69
128
179
220
267
306
322
320
303
267
201
98
-28
-157
-270
-348
-403
-454
-496
-523
-540
-545
-539
-541
-545
-529
-501
-468
-415
-358
-341
-355
-377
-388
-347
-301
-328
-294
15
622
1194
977
-194
-1034
-649
-9
19
-86
7
44
39
103
148
178
250
320
361
408
474
543
605
670
741
799
841
895
950
950
862
715
559
420
302
218
174
150
122
95
88
91
74
52
47
31
-6
15
107
164
152
122
83
88
143
110
48
232
729
1375
1620
812
-387
-535
135
360
178
192
253
198
206
255
261
285
333
362
398
453
500
540
590
641
672
682
697
692
586
383
181
10
-175
-357
-488
-592
-695
-779
-843
-905
-961
-1008
-1066
-1117
-1140
-1159
-1186
-1171
-1112
-1086
-1112
-1138
-1147
-1144
-1121
-1137
-1198
-1065
-495
211
294
-447
