# session 16
184
187
142
137
249
366
360
298
272
253
212
177
166
151
111
67
37
5
-7
45
92
48
-17
-41
-73
-76
-42
-105
-154
120
770
1605
1923
872
-723
-1032
-275
7
-199
-185
-99
-127
-86
-12
5
50
136
212
293
386
478
570
651
704
731
727
669
545
363
166
-2
-133
-244
-330
-376
-400
-420
-439
-451
-459
-465
-475
-487
-497
-502
-506
-512
-513
-507
-499
-487
-477
-475
-472
-464
-466
-472
-469
-464
-435
-355
-293
-313
-344
-344
-348
-315
-271
-319
-286
83
780
1558
1637
384
-1047
-1049
-253
-60
-239
-184
-109
-125
-66
4
32
95
182
259
349
451
549
646
740
819
876
901
874
778
621
433
254
108
1
-72
-119
-150
-178
-202
-210
-209
-220
-234
-237
-241
-258
-272
-275
-274
-273
-269
-260
-254
-260
-267
-266
-263
-262
-271
-295
-314
-311
-273
-197
-142
-157
-186
-190
-194
-163
-129
-187
-149
234
909
1641
1724
477
-1040
-1110
-241
47
-132
-99
-22
-47
-7
53
78
143
223
281
361
468
574
687
801
892
959
996
982
895
727
510
300
121
-30
-143
-214
-257
-290
-318
-338
-345
-349
-356
-356
-353
-368
-385
-380
-372
-378
-379
-368
-361
-361
-359
-353
-346
-338
-334
-336
-339
-344
-362
-362
-294
-207
-195
-219
-218
-238
-236
-164
-186
-232
65
664
1259
1556
915
-526
-1189
-564
-23
-129
-187
-79
-80
-78
-10
25
64
142
218
299
396
489
581
675
754
816
862
864
800
669
484
287
123
-5
-106
-173
-205
-226
-242
-253
-261
-267
-264
-258
-272
-298
-309
-306
-315
-324
-315
-307
-310
-307
-296
-289
-289
-294
-305
-313
-292
-235
-195
-195
-197
-207
-218
-163
-136
-222
-126
342
942
1424
1312
207
-912
-813
-140
-19
-170
-109
-44
-62
-36
4
32
84
145
215
307
404
496
578
646
706
746
732
660
547
402
229
61
-62
-135
-180
-211
-229
-237
-245
-257
-269
-271
-270
-281
-301
-316
-320
-319
-322
-324
-318
-310
-306
-310
-318
-313
-305
-319
-316
-254
-205
-220
-240
-247
-244
-196
-198
-266
-110
372
996
1504
1236
-15
-933
-599
-32
-57
-155
-59
-44
-67
-14
25
54
124
196
254
327
416
507
591
664
720
752
745
678
542
365
192
48
-60
-135
-185
-216
-228
-233
-242
-253
-260
-266
-276
-286
-295
-302
-307
-313
-315
-314
-313
-319
-334
-342
-338
-347
-351
-294
-213
-206
-233
-234
-252
-241
-172
-213
-266
14
632
1454
2058
1427
-223
-972
-387
8
-181
-208
-95
-117
-101
-25
4
55
141
210
287
385
477
569
658
722
762
784
753
640
464
273
97
-47
-148
-212
-255
-284
-299
-306
-309
-312
-325
-337
-333
-333
-345
-344
-335
-348
-365
-355
-340
-336
-328
-317
-321
-338
-356
-377
-399
-381
-289
-203
-212
-243
-229
-255
-282
-222
-237
-294
-33
583
1392
2029
1495
-193
-1103
-530
-35
-232
-306
-179
-193
-180
-80
-46
-12
81
158
235
350
447
528
649
775
838
846
808
705
543
348
160
25
-62
-144
-218
-255
-266
-269
-265
-256
-251
-263
-281
-283
-274
-262
-244
-253
-286
-283
-258
-272
-286
-256
-225
-219
-214
-224
-253
-259
-247
-252
-278
-306
-265
-141
-83
-145
-166
-141
-173
-159
-113
-188
-156
244
974
1966
2384
1104
-744
-1002
-184
12
-204
-150
-89
-115
-38
32
39
101
207
295
373
457
553
664
763
822
877
948
939
792
607
437
245
62
-81
-200
-257
-250
-278
-341
-343
-321
-358
-405
-403
-384
-387
-409
-425
-411
-402
-431
-451
-430
-412
-414
-398
-372
-372
-387
-388
-389
-405
-408
-406
-411
-356
-244
-217
-270
-269
-256
-265
-199
-167
-257
-181
267
1117
2109
2029
289
-1184
-842
-74
-132
-270
-108
-95
-138
-26
52
75
159
235
275
361
492
603
696
794
869
933
1010
1000
834
621
435
244
80
-28
-136
-244
-297
-299
-295
-303
-313
-324
-353
-376
-360
-343
-378
-422
-411
-377
-387
-415
-399
-372
-395
-408
-362
-348
-405
-439
-426
-418
-379
-285
-228
-238
-235
-230
-266
-259
-216
-257
-240
102
888
1961
2290
865
-1000
-1192
-300
-49
-249
-182
-100
-128
-63
-1
7
86
202
279
368
490
590
663
757
873
959
1008
1026
938
738
518
310
109
-35
-119
-197
-255
-275
-294
-307
-292
-285
-303
-314
-327
-347
-335
-313
-333
-357
-341
-330
-340
-332
-312
-313
-328
-332
-336
-349
-329
-238
-151
-159
-195
-176
-164
-166
-113
-105
-166
11
629
1516
2019
1210
-561
-1386
-706
-41
-79
-152
-92
-114
-92
-14
-5
14
99
194
302
405
470
558
697
804
857
903
927
874
724
506
279
82
-90
-234
-330
-384
-416
-432
-440
-446
-451
-449
-444
-439
-437
-436
-433
-428
-423
-423
-419
-407
-396
-393
-384
-372
-368
-375
-382
-369
-314
-239
-209
-224
-223
-222
-226
-177
-160
-229
-129
336
1088
1789
1568
121
-1035
-726
-45
-30
-153
-54
-23
-37
36
92
120
184
253
319
408
500
584
670
743
797
838
848
793
669
496
304
131
-2
-95
-159
-197
-217
-225
-229
-234
-240
-245
-251
-262
-275
-285
-296
-309
-320
-325
-329
-334
-346
-365
-381
-389
-408
-412
-346
-250
-232
-270
-272
-267
-277
-226
-207
-289
-205
256
1079
2015
2029
505
-954
-807
-118
-126
-293
-188
-152
-177
-102
-46
-19
51
123
192
294
404
501
601
695
759
792
790
728
595
412
224
51
-97
-201
-255
-286
-309
-319
-322
-326
-331
-337
-348
-358
-366
-375
-384
-391
-398
-400
-396
-395
-399
-395
-381
-372
-379
-391
-392
-398
-410
-378
-279
-205
-223
-250
-232
-234
-223
-160
-186
-238
21
725
1721
2316
1429
-444
-1191
-469
30
-139
-175
-56
-69
-47
45
87
131
214
295
388
502
610
712
817
911
985
1031
1030
962
821
629
426
242
92
-15
-82
-124
-154
-169
-177
-183
-188
-194
-203
-214
-225
-232
-235
-238
-242
-245
-243
-238
-232
-227
-226
-224
-220
-210
-202
-199
-193
-185
-182
-180
-168
-157
-154
-148
-134
-125
-120
-111
-103
-109
-112
-93
-75
-83
-87
-70
-60
-73
-79
-69
-62
-62
-62
-61
-63
-65
-69
-73
-65
-51
-58
-86
-97
-86
-84
-102
-103
-75
-68
-99
-114
-98
-93
-102
-105
-111
-110
-96
-93
-109
-119
-120
-117
-115
-129
-151
-147
-120
-96
-68
-55
-75
-88
-99
-114
-69
-59
-151
-11
496
1036
1431
1311
203
-950
-834
-117
22
-114
-51
-12
-25
33
58
62
152
248
267
289
385
498
563
624
724
806
848
909
953
893
773
670
548
376
209
83
-8
-72
-125
-176
-204
-203
-202
-208
-218
-248
-275
-261
-244
-274
-320
-336
-332
-335
-356
-359
-327
-320
-371
-399
-367
-334
-325
-329
-349
-350
-304
-275
-303
-316
-279
-258
-270
-268
-244
-229
-233
-238
-228
-236
-278
-294
-251
-181
-120
-114
-147
-129
-105
-162
-171
-106
-153
-170
156
868
1840
2290
1177
-591
-981
-243
14
-197
-180
-84
-75
-21
21
32
108
201
256
335
463
572
628
693
799
875
880
851
794
693
554
358
138
-16
-104
-190
-257
-271
-275
-294
-294
-281
-292
-307
-302
-301
-332
-376
-385
-352
-343
-386
-415
-394
-378
-389
-382
-362
-373
-383
-350
-332
-350
-342
-323
-354
-385
-376
-372
-339
-226
-150
-186
-221
-215
-227
-192
-107
-167
-262
-34
557
1426
2152
1591
-215
-1188
-556
35
-127
-198
-47
-50
-43
72
114
125
210
300
370
466
577
684
794
885
945
981
979
935
847
686
468
262
100
-22
-107
-168
-212
-241
-263
-262
-250
-265
-276
-257
-273
-312
-300
-287
-321
-329
-294
-293
-329
-333
-295
-276
-293
-299
-288
-297
-304
-281
-261
-253
-230
-217
-240
-259
-252
-248
-253
-253
-256
-261
-218
-122
-81
-146
-183
-127
-123
-168
-118
-103
-170
40
595
1201
1634
1260
-164
-1186
-763
-58
-41
-145
-52
-32
-37
19
44
76
158
226
278
354
461
592
709
800
889
944
925
872
792
630
424
254
100
-62
-184
-238
-263
-284
-293
-292
-288
-280
-268
-266
-282
-304
-310
-312
-334
-355
-355
-355
-356
-354
-368
-394
-392
-369
-362
-372
-381
-392
-403
-408
-415
-411
-355
-255
-205
-242
-261
-236
-244
-229
-172
-220
-236
84
721
1568
2124
1319
-442
-1113
-415
12
-169
-183
-70
-85
-52
34
62
109
195
262
341
453
565
676
789
883
940
961
938
857
716
534
339
156
5
-108
-183
-223
-234
-233
-232
-226
-217
-220
-231
-235
-243
-264
-284
-292
-298
-308
-313
-310
-306
-302
-299
-298
-297
-292
-289
-289
-289
-294
-311
-332
-351
-363
-343
-272
-190
-176
-223
-237
-219
-234
-215
-170
-239
-249
91
751
1626
2107
1144
-594
-1077
-348
-40
-247
-226
-128
-156
-107
-16
14
65
147
216
301
411
522
637
750
839
898
921
892
805
660
475
285
109
-43
-161
-237
-280
-295
-297
-299
-303
-306
-307
-311
-316
-325
-336
-346
-355
-360
-362
-363
-365
-363
-360
-356
-350
-341
-331
-319
-312
-308
-296
-284
-280
-271
-254
-258
-281
-293
-299
-314
-300
-222
-130
-113
-158
-167
-149
-163
-139
-92
-152
-140
227
917
1780
2150
1083
-611
-986
-231
55
-153
-131
-33
-55
-14
63
93
147
223
288
373
479
582
686
789
872
931
962
955
895
782
629
459
287
133
12
-72
-123
-148
-158
-159
-156
-157
-160
-161
-168
-180
-189
-199
-211
-219
-222
-227
-236
-240
-232
-218
-211
-215
-216
-209
-202
-198
-188
-176
-174
-176
-167
-153
-150
-152
-148
-141
-137
-130
-123
-118
-114
-113
-117
-115
-105
-101
-103
-98
-89
-94
-105
-107
-100
-96
-95
-93
-89
-87
-88
-91
-91
-89
-87
-82
-79
-83
-83
-77
-78
-81
-76
-72
-76
-74
-69
-71
-72
-71
-73
-73
-74
-74
-68
-68
-79
-78
-70
-81
-92
-85
-91
-103
-74
-9
28
-7
-53
-47
-59
-84
-25
-18
-100
107
641
1157
1559
1377
142
-977
-732
-39
1
-142
-52
-22
-57
-5
42
62
116
177
231
305
388
468
559
653
728
782
820
839
831
783
690
561
417
273
138
23
-64
-125
-169
-195
-205
-206
-205
-206
-209
-214
-218
-223
-232
-241
-249
-258
-271
-281
-289
-299
-307
-312
-317
-324
-325
-322
-321
-319
-316
-314
-312
-308
-303
-300
-296
-290
-284
-279
-274
-270
-265
-256
-247
-245
-246
-253
-266
-276
-278
-271
-226
-141
-99
-142
-172
-153
-170
-169
-111
-161
-210
82
682
1483
2150
1596
-141
-1052
-473
10
-173
-226
-101
-113
-97
-6
22
51
128
195
267
375
489
598
714
829
924
985
1004
978
896
744
543
343
172
20
-109
-192
-230
-245
-249
-242
-231
-224
-220
-216
-217
-231
-245
-247
-255
-282
-306
-314
-317
-320
-320
-322
-328
-331
-321
-304
-305
-324
-319
-297
-300
-320
-313
-285
-273
-285
-297
-296
-300
-325
-342
-308
-232
-161
-137
-170
-208
-199
-188
-184
-138
-159
-231
-27
518
1226
1860
1555
4
-1114
-668
15
-55
-186
-63
-30
-34
39
83
113
177
249
347
470
571
661
775
902
1016
1085
1096
1067
991
843
647
442
236
48
-93
-190
-247
-271
-290
-307
-299
-286
-291
-295
-287
-291
-305
-310
-312
-318
-325
-330
-335
-339
-338
-338
-337
-327
-315
-313
-314
-303
-285
-276
-287
-299
-283
-254
-246
-247
-240
-235
-240
-241
-233
-236
-257
-268
-254
-224
-172
-112
-120
-173
-169
-160
-176
-118
-98
-181
-11
508
1086
1558
1318
-53
-1178
-815
-66
-41
-163
-39
-1
-27
33
77
92
148
218
288
380
493
621
750
875
996
1081
1109
1092
1016
853
645
447
264
87
-72
-185
-236
-249
-262
-271
-266
-255
-242
-229
-228
-235
-236
-238
-256
-282
-295
-290
-285
-292
-312
-333
-336
-323
-311
-311
-317
-318
-314
-317
-322
-320
-315
-327
-364
-399
-397
-343
-256
-190
-204
-250
-246
-234
-240
-196
-197
-271
-116
370
1095
1928
1913
371
-1085
-869
-116
-112
-271
-138
-84
-117
-52
21
61
110
164
240
341
445
563
700
824
925
1000
1041
1025
932
771
571
349
131
-39
-151
-240
-313
-344
-332
-309
-286
-264
-256
-268
-280
-283
-278
-271
-278
-298
-307
-307
-320
-335
-332
-314
-309
-321
-326
-310
-298
-305
-311
-301
-295
-287
-261
-244
-264
-281
-255
-234
-250
-255
-223
-203
-213
-220
-213
-211
-214
-213
-204
-174
-117
-55
-28
-58
-97
-90
-82
-89
-38
-16
-92
17
440
1006
1628
1693
501
-847
-789
-40
72
-107
-25
53
38
74
104
128
200
272
336
419
499
590
709
817
899
972
1026
1036
1000
923
791
610
417
251
111
-11
-100
-149
-168
-172
-177
-184
-178
-167
-174
-192
-197
-197
-208
-218
-221
-233
-246
-247
-243
-242
-241
-246
-254
-243
-224
-226
-234
-229
-216
-202
-192
-189
-189
-188
-183
-170
-162
-163
-158
-150
-155
-156
-139
-129
-140
-148
-137
-129
-131
-127
-117
-115
-120
-124
-123
-114
-103
-107
-119
-118
-116
-125
-128
-118
-111
-113
-115
-115
-118
-123
-119
-107
-106
-115
-116
-117
-120
-115
-111
-116
-114
-104
-107
-122
-128
-135
-150
-157
-144
-108
-49
-17
-61
-100
-85
-98
-98
-35
-81
-114
226
764
1246
1583
1075
-336
-1039
-441
53
-101
-164
-53
-70
-71
4
39
75
136
178
235
321
400
483
586
685
772
846
896
917
898
814
672
516
372
239
114
4
-90
-156
-181
-179
-173
-166
-154
-144
-144
-150
-154
-163
-180
-191
-197
-201
-200
-205
-227
-239
-227
-229
-247
-240
-218
-219
-227
-216
-197
-187
-183
-180
-178
-173
-160
-147
-136
-128
-122
-109
-93
-95
-104
-96
-83
-80
-66
-43
-43
-54
-42
-25
-28
-39
-46
-48
-34
8
53
62
43
21
