# session 5
145
147
77
189
486
611
514
436
416
379
341
303
251
217
192
146
99
70
42
-7
-63
-60
8
30
-29
-69
-74
-87
-77
-81
-162
-128
296
1142
1861
1407
-166
-1084
-551
45
-92
-196
37
219
325
436
449
406
390
357
322
331
344
339
352
382
406
425
436
427
405
379
335
247
116
-29
-163
-274
-361
-428
-476
-502
-517
-531
-542
-549
-555
-555
-551
-551
-552
-547
-551
-568
-572
-562
-554
-511
-429
-399
-442
-465
-447
-421
-375
-361
-382
-230
268
982
1287
446
-996
-1393
-560
34
-66
-130
-26
-23
-24
34
59
86
154
220
271
319
380
456
525
583
651
720
771
811
841
832
749
578
348
119
-75
-232
-346
-406
-438
-466
-472
-460
-460
-460
-440
-431
-437
-423
-401
-398
-400
-392
-391
-403
-408
-369
-294
-251
-255
-250
-247
-263
-227
-189
-239
-170
261
989
1589
1257
-109
-1033
-578
98
80
-28
95
100
35
88
129
121
170
235
254
310
434
518
552
626
719
771
818
884
932
935
856
681
454
224
20
-131
-239
-326
-381
-399
-398
-397
-397
-403
-417
-428
-422
-414
-419
-431
-448
-460
-449
-436
-445
-421
-344
-304
-336
-358
-341
-307
-266
-270
-315
-279
68
1018
2069
1730
-38
-1051
-480
81
-70
-156
-47
-65
-73
-2
22
48
114
160
199
253
296
336
391
444
495
551
589
610
655
696
647
494
307
132
-19
-135
-216
-272
-308
-325
-333
-337
-341
-341
-337
-336
-342
-346
-342
-344
-359
-378
-397
-412
-394
-335
-287
-291
-315
-330
-340
-322
-284
-306
-324
-34
782
1649
1413
-120
-1272
-898
-116
-35
-186
-122
-78
-101
-63
-19
10
66
127
177
222
264
324
404
475
533
587
643
696
728
716
651
522
340
148
-11
-127
-214
-281
-319
-328
-330
-338
-343
-344
-352
-359
-354
-350
-356
-366
-374
-384
-402
-419
-402
-337
-278
-284
-317
-333
-347
-333
-290
-309
-331
-98
537
1321
1402
219
-1090
-1035
-201
56
-110
-76
4
-14
14
67
97
155
228
286
350
409
455
510
576
636
691
748
796
826
831
796
712
581
418
253
109
-12
-114
-196
-261
-317
-365
-397
-416
-428
-435
-430
-414
-399
-386
-377
-372
-360
-337
-313
-269
-215
-207
-239
-257
-264
-256
-224
-236
-247
-103
302
1069
1730
1150
-426
-1070
-380
100
-71
-129
-33
-64
-66
9
35
55
118
180
229
265
287
312
353
403
450
488
531
574
591
568
500
369
189
14
-132
-251
-337
-390
-427
-450
-456
-464
-472
-467
-461
-464
-462
-457
-461
-468
-475
-486
-498
-506
-480
-393
-310
-309
-339
-339
-340
-317
-264
-289
-322
-133
436
1400
1996
1063
-661
-1094
-308
26
-194
-194
-103
-154
-149
-89
-69
-31
28
64
105
159
203
241
293
357
421
476
531
582
597
584
556
454
296
237
276
226
80
-12
-43
-89
-128
-141
-151
-106
47
175
128
-10
-88
-123
-167
-204
-231
-255
-229
-167
-155
-187
-201
-220
-230
-177
-173
-259
-170
318
1167
1804
1191
-435
-1191
-540
5
-137
-215
-116
-133
-142
-80
-58
-30
37
91
137
195
250
300
359
428
496
553
599
636
638
584
478
333
160
-6
-124
-196
-253
-309
-353
-374
-381
-390
-403
-409
-411
-418
-421
-419
-423
-436
-451
-462
-469
-454
-393
-327
-329
-374
-388
-385
-375
-333
-340
-382
-203
376
1167
1449
499
-941
-1215
-391
58
-87
-111
-12
-20
-3
67
104
149
225
292
354
416
465
506
545
580
609
626
637
637
606
535
431
299
159
32
-73
-154
-210
-249
-277
-292
-298
-304
-313
-320
-328
-336
-338
-334
-332
-341
-356
-363
-357
-348
-314
-246
-225
-273
-293
-276
-277
-258
-229
-243
-159
200
879
1587
1408
66
-934
-546
106
80
-52
37
47
21
85
122
128
182
241
276
317
357
376
396
436
481
514
538
552
542
501
437
346
228
105
0
-86
-152
-201
-242
-272
-284
-289
-299
-310
-316
-315
-312
-311
-311
-311
-310
-314
-328
-329
-316
-328
-347
-308
-248
-237
-240
-236
-267
-284
-244
-246
-270
-132
311
1109
1700
1020
-550
-1142
-450
25
-121
-170
-70
-75
-64
-7
5
27
85
132
170
211
251
290
317
346
400
447
467
483
485
446
389
316
202
75
-13
-81
-157
-211
-225
-234
-247
-252
-254
-256
-256
-265
-280
-275
-262
-261
-258
-249
-249
-249
-240
-239
-245
-247
-247
-242
-233
-214
-155
-99
-119
-163
-165
-160
-138
-91
-108
-115
97
617
1344
1613
665
-687
-852
-113
170
3
8
77
56
86
143
158
190
244
282
316
348
372
393
421
457
493
517
541
573
583
560
514
436
319
189
68
-32
-99
-146
-199
-248
-265
-260
-262
-271
-282
-302
-320
-318
-316
-331
-339
-336
-351
-377
-380
-369
-379
-403
-403
-399
-420
-420
-348
-270
-281
-340
-342
-315
-310
-279
-280
-341
-139
479
1053
1018
154
-1075
-1513
-804
-19
125
40
71
126
127
64
68
251
328
81
-87
121
312
329
519
700
496
336
511
547
428
561
640
324
62
115
94
-123
-239
-193
-173
-213
-189
-135
-260
-483
-402
-27
177
112
58
33
-67
-107
17
127
65
-23
33
102
53
18
27
-26
-60
-60
-198
-343
-280
-228
-309
-179
366
1160
1714
1226
-293
-1379
-1031
-110
265
174
137
200
173
68
2
-58
-122
-8
254
301
143
244
481
307
48
236
440
321
202
61
-180
-178
-54
-126
-208
-346
-640
-526
-66
-189
-673
-529
-81
-135
-420
-469
-437
-449
-400
-331
-325
-348
-384
-433
-445
-415
-368
-268
-152
-132
-157
-105
7
114
156
124
205
537
1110
2028
2767
2017
38
-976
-402
212
237
191
106
-37
12
136
180
249
296
272
331
432
405
368
424
401
325
449
671
647
397
159
-20
-190
-340
-456
-537
-577
-590
-594
-593
-598
-615
-602
-562
-588
-666
-673
-675
-724
-631
-447
-501
-713
-785
-748
-629
-397
-332
-547
-677
-555
-407
-400
-504
-507
-150
562
1308
1375
221
-1200
-1286
-321
196
103
112
267
358
452
537
567
646
763
796
805
853
864
882
965
964
881
920
1000
902
721
634
569
409
211
71
-7
-47
-72
-114
-162
-179
-188
-237
-290
-283
-273
-319
-326
-289
-372
-505
-472
-399
-470
-517
-436
-418
-529
-637
-719
-812
-809
-685
-664
-753
-581
104
1209
1969
1202
-647
-1472
-855
-339
-340
-235
-150
-274
-295
-212
-217
-208
-119
-16
108
241
349
497
705
876
969
1038
1115
1162
1159
1126
1024
803
552
409
359
285
163
84
96
110
36
-51
-49
-23
-79
-166
-195
-222
-296
-338
-312
-260
-169
-60
-8
6
-3
-94
-181
-111
11
-35
-161
-41
425
1012
1191
339
-1154
-1764
-1076
-423
-463
-573
-531
-572
-620
-629
-667
-597
-425
-372
-370
-227
-63
-40
-22
144
332
360
271
215
275
407
390
89
-267
-459
-577
-676
-681
-649
-671
-692
-645
-559
-476
-410
-375
-352
-295
-218
-178
-142
-46
56
101
172
291
332
279
217
162
164
174
47
-5
292
833
1531
1859
831
-809
-978
179
784
588
488
543
514
526
580
572
556
569
596
632
657
739
909
970
896
919
957
769
509
335
115
-137
-326
-554
-781
-850
-891
-1004
-987
-864
-878
-930
-821
-717
-696
-571
-574
-781
1
2009
2528
118
-2177
-1919
-793
-508
-533
-446
-422
-326
-158
-80
25
205
315
379
482
595
724
890
1016
1056
1055
1056
1039
968
818
605
391
224
70
-95
-196
-233
-281
-292
-247
-283
-350
-342
-435
-595
-499
-277
-241
-279
-313
-416
-430
-324
-308
-375
-395
-399
-425
-443
-388
-225
-120
-224
-342
-284
-229
-308
-379
-394
-435
-459
-471
-548
-599
-572
-558
-473
-153
489
1233
1129
-248
-1401
-1120
-399
-238
-309
-364
-423
-293
-72
-33
-74
-50
-7
49
137
227
300
361
476
681
846
888
913
973
1028
1062
1035
932
829
756
666
547
442
426
470
455
405
373
251
94
111
190
102
-47
-80
-53
-53
-60
-29
-2
-56
-107
-50
-16
-65
-87
-165
-275
-2
733
1416
1382
260
-1168
-1434
-643
-217
-380
-418
-345
-433
-510
-493
-484
-455
-406
-413
-392
-215
16
85
-45
-133
64
382
430
221
82
64
-3
-169
-356
-477
-523
-572
-645
-671
-640
-609
-587
-543
-468
-371
-289
-256
-237
-197
-147
-90
-18
57
117
148
177
198
161
149
201
131
-8
102
565
1419
2160
1464
-401
-1123
-264
258
-39
-150
-13
-9
31
191
290
323
380
439
457
488
575
673
774
910
1008
983
893
806
661
406
97
-166
-330
-455
-639
-783
-728
-609
-642
-718
-694
-733
-921
-991
-790
-567
-536
-616
-709
-797
-788
-668
-591
-593
-546
-492
-568
-627
-522
-465
-477
-198
466
1280
1658
804
-728
-1141
-292
291
248
274
420
483
562
622
606
644
726
721
684
703
722
724
743
753
759
782
769
705
675
692
640
452
244
123
-15
-227
-325
-222
-120
-167
-261
-278
-237
-252
-357
-445
-399
-230
-70
-50
-142
-199
-207
-242
-310
-403
-473
-483
-555
-603
-295
191
408
243
-484
-1555
-1827
-993
-262
-280
-493
-522
-484
-456
-402
-311
-218
-158
-119
-80
-22
71
197
326
401
443
576
796
933
917
829
722
597
483
428
402
316
204
195
220
113
-30
-56
-56
-88
-55
-20
-147
-331
-356
-261
-207
-200
-191
-216
-268
-252
-182
-214
-361
-344
-32
432
1200
2118
1847
17
-1235
-692
54
-16
-86
98
103
59
106
52
-16
48
82
8
-34
-11
30
106
210
286
288
205
142
202
261
170
2
-162
-353
-528
-655
-806
-895
-758
-577
-641
-810
-818
-748
-746
-746
-704
-669
-622
-521
-387
-289
-257
-242
-224
-212
-145
-58
-55
0
326
1086
2340
3116
1996
-78
-686
60
345
76
56
171
169
146
129
168
303
406
401
344
356
520
666
607
528
633
769
799
805
794
714
616
513
371
246
160
69
-24
-136
-289
-427
-521
-617
-718
-791
-858
-955
-1043
-1045
-1012
-1022
-992
-929
-1018
-1114
-935
-725
-757
-828
-818
-828
-587
408
1787
1913
93
-1629
-1433
-499
-326
-453
-328
-223
-186
-90
12
167
387
499
516
596
725
833
946
1052
1115
1152
1170
1157
1126
1080
985
823
634
447
262
114
38
-24
-117
-172
-161
-174
-220
-213
-185
-226
-291
-304
-296
-290
-258
-217
-213
-265
-344
-366
-340
-400
-414
-6
776
1393
1282
214
-1090
-1374
-667
-168
-221
-292
-242
-258
-360
-436
-381
-303
-356
-353
-184
-119
-167
-30
176
177
90
74
139
269
289
107
-31
-45
-141
-286
-327
-341
-383
-367
-328
-340
-315
-173
-5
74
83
84
85
99
184
294
303
251
261
250
164
157
156
-28
-117
52
365
1401
2958
2736
291
-1279
-684
-22
-187
-274
-213
-323
-360
-239
-109
8
83
103
143
178
160
193
315
412
486
563
516
376
304
195
-90
-355
-434
-464
-563
-661
-754
-916
-1030
-940
-822
-907
-1024
-973
-905
-854
-648
-443
-501
-645
-624
-550
-577
-636
-543
-269
-137
-299
-293
191
931
1674
1730
429
-1002
-850
124
365
163
248
413
450
467
510
610
715
743
800
894
862
804
888
961
926
904
861
758
742
784
671
475
418
424
300
134
104
137
87
2
-13
5
-30
-121
-178
-154
-142
-189
-153
-22
-8
-118
-164
-177
-208
-168
-232
-511
-478
161
794
710
-280
-1628
-2124
-1403
-667
-783
-1080
-808
-403
-507
-684
-331
14
-250
-592
-462
-174
-60
-43
-26
8
59
85
103
177
269
298
259
204
180
168
127
73
25
-43
-84
-40
10
4
26
97
106
46
1
-7
19
73
69
-29
-130
-200
-244
-220
-210
-253
-128
307
1060
1820
1502
-138
-1212
-653
54
-28
-136
-26
-64
-119
-84
-98
-63
90
215
303
422
503
509
498
497
501
486
428
359
283
153
3
-95
-206
-405
-572
-608
-647
-742
-743
-674
-647
-576
-519
-682
-867
-777
-642
-716
-747
-569
-439
-467
-492
-498
-486
-378
-306
-307
-44
682
1728
2450
1776
42
-704
29
598
452
383
495
499
492
511
519
577
598
521
509
579
561
478
460
456
423
445
499
504
510
534
515
504
540
509
386
288
224
130
27
-88
-205
-192
-71
-94
-250
-305
-298
-363
-401
-400
-486
-584
-607
-637
-637
-587
-636
-618
-273
219
736
1025
216
-1344
-1796
-998
-594
-783
-700
-494
-518
-531
-478
-461
-363
-218
-165
-82
101
217
249
329
419
443
498
639
759
783
754
701
587
437
350
324
277
240
263
268
203
136
90
37
1
-9
-40
-74
-67
-75
-144
-210
-264
-325
-306
-268
-343
-307
50
634
1347
1532
379
-1034
-989
-195
-109
-326
-265
-289
-335
-112
71
52
68
142
190
229
236
220
240
269
272
276
275
238
164
75
-34
-202
-404
-555
-656
-747
-793
-836
-945
-978
-910
-963
-1036
-965
-1044
-1250
-1121
-849
-837
-790
-585
-615
-839
-904
-793
-659
-610
-570
-265
392
1271
1854
1192
-383
-990
-261
239
72
21
129
97
63
85
87
127
203
255
308
379
434
486
541
568
577
613
666
708
740
751
709
599
458
336
231
112
48
70
18
-98
-58
61
56
29
62
132
351
548
381
102
95
169
203
444
866
1242
1507
1745
2445
3618
3627
1644
-146
-63
514
388
207
284
256
177
183
174
162
181
175
159
170
183
195
219
220
178
144
150
152
109
35
-57
-198
-408
-665
-889
-1041
-1176
-1298
-1343
-1364
-1437
-1499
-1538
-1591
-1557
-1382
-1225
-1206
-1278
-1335
-1249
-1004
-833
-903
-1044
-1165
-1396
-1420
-843
-298
-465
