# session 4
19
-18
70
90
-180
-516
-581
-481
-446
-424
-344
-273
-235
-190
-110
-2
103
190
268
318
327
337
371
414
491
603
656
598
493
374
223
81
3
-31
-65
-94
-104
-113
-129
-148
-172
-186
-155
-101
-94
-153
-232
-278
-265
-260
-318
-310
-48
593
1451
1601
345
-1088
-1078
-224
79
-81
-90
21
93
96
24
-24
2
27
39
63
86
95
90
77
79
99
109
92
52
1
-50
-93
-107
-96
-94
-127
-206
-331
-442
-476
-465
-472
-501
-529
-548
-558
-557
-545
-537
-513
-434
-348
-323
-313
-267
-199
-88
-3
-74
-137
104
707
1474
1619
474
-850
-789
19
217
56
98
110
41
100
177
187
243
312
311
335
422
447
396
397
455
479
469
452
406
362
367
405
452
495
502
462
392
297
211
167
125
38
-30
0
62
25
-83
-124
-96
-99
-128
-136
-167
-245
-329
-381
-386
-416
-521
-481
-96
481
853
434
-816
-1639
-1162
-401
-320
-456
-395
-332
-274
-175
-161
-188
-142
-66
-37
-51
-53
-12
13
3
48
142
184
183
193
187
171
187
213
215
208
182
116
28
-68
-143
-172
-198
-256
-293
-294
-288
-271
-246
-213
-143
-85
-83
-81
-88
-126
-86
-4
-43
-65
117
543
1341
1928
1075
-634
-1090
-241
211
44
41
128
82
123
250
301
320
349
371
416
456
435
396
374
355
343
332
290
222
151
79
24
7
1
-41
-126
-227
-335
-440
-515
-571
-625
-648
-637
-633
-636
-623
-605
-580
-527
-477
-480
-510
-521
-538
-538
-473
-450
-464
-245
270
941
1496
1121
-359
-1317
-755
20
32
-73
48
73
33
70
95
103
155
213
245
269
306
370
426
445
473
546
613
643
657
654
639
663
715
702
586
427
274
138
29
-65
-154
-199
-213
-272
-327
-278
-199
-190
-190
-146
-122
-116
-77
-73
-140
-148
-115
-164
-99
329
984
1412
992
-268
-1094
-698
-90
-100
-238
-188
-199
-274
-293
-262
-185
-123
-133
-141
-112
-90
-78
-56
-25
7
24
41
77
100
93
98
127
144
126
67
-18
-109
-209
-311
-379
-408
-432
-461
-482
-502
-519
-514
-495
-486
-466
-443
-473
-530
-559
-588
-583
-526
-559
-560
-193
370
709
604
-137
-1012
-929
-111
243
119
177
316
312
349
491
607
652
667
706
760
776
767
783
816
829
825
820
809
783
752
729
734
759
745
653
503
321
113
-67
-178
-260
-349
-412
-437
-454
-475
-475
-434
-366
-302
-253
-223
-210
-207
-217
-211
-177
-210
-259
-69
393
996
1482
1082
-323
-1212
-758
-193
-294
-427
-358
-378
-411
-365
-354
-352
-296
-243
-218
-187
-145
-97
-38
25
86
147
189
209
243
297
347
393
410
348
216
64
-89
-224
-310
-363
-413
-450
-462
-465
-460
-447
-450
-459
-425
-359
-335
-352
-353
-346
-336
-273
-242
-312
-205
256
785
1065
764
-224
-976
-655
-31
17
-114
-37
6
-17
20
50
58
104
145
163
200
250
292
341
391
432
474
503
505
506
534
576
602
584
512
400
284
167
33
-82
-128
-155
-211
-259
-277
-302
-316
-308
-322
-348
-314
-259
-258
-268
-266
-297
-300
-250
-286
-327
-108
370
901
1064
362
-658
-794
-219
2
-126
-101
-34
-76
-92
-56
-5
55
87
99
132
172
201
238
292
359
430
485
523
576
656
728
756
737
673
548
372
193
49
-64
-156
-224
-267
-300
-324
-346
-381
-415
-432
-448
-444
-387
-346
-379
-418
-442
-465
-433
-429
-528
-460
-14
599
933
438
-712
-1220
-623
-95
-189
-259
-140
-123
-119
-33
23
62
135
200
245
289
325
358
401
447
484
508
518
526
541
559
582
615
616
528
366
182
-1
-155
-252
-308
-352
-384
-399
-414
-441
-465
-480
-498
-494
-445
-409
-435
-468
-484
-496
-457
-421
-474
-406
0
611
1027
649
-483
-1096
-538
80
33
-75
28
41
7
44
54
41
67
89
88
91
91
90
111
159
210
250
291
348
415
492
581
661
675
574
382
163
-36
-188
-288
-359
-408
-417
-407
-411
-416
-402
-400
-408
-363
-263
-200
-205
-230
-249
-243
-201
-203
-258
-222
79
889
1887
1732
140
-940
-490
71
-64
-173
-62
-77
-116
-62
-25
11
82
132
161
197
220
221
231
274
320
340
361
403
448
498
564
600
566
463
307
130
-21
-137
-225
-267
-280
-300
-316
-321
-338
-353
-349
-346
-325
-267
-235
-257
-279
-303
-320
-272
-269
-362
-273
126
640
983
601
-521
-1117
-589
-74
-178
-273
-185
-202
-228
-170
-144
-126
-64
-13
21
76
138
197
265
342
419
496
569
628
684
752
804
790
681
494
272
64
-103
-220
-291
-337
-368
-381
-381
-392
-407
-399
-383
-379
-339
-255
-208
-213
-227
-245
-236
-204
-246
-325
-212
393
1508
2117
1099
-513
-803
-165
-35
-245
-200
-140
-191
-168
-126
-119
-79
-32
-6
32
71
93
124
170
205
218
219
213
196
182
188
194
176
131
46
-92
-242
-354
-423
-466
-486
-493
-498
-500
-501
-509
-516
-508
-480
-433
-394
-389
-409
-433
-438
-395
-352
-369
-377
-179
575
1774
2087
708
-711
-580
72
59
-100
-6
16
-18
38
71
77
123
162
177
203
224
232
250
279
303
324
350
384
429
483
534
574
584
523
384
217
68
-44
-111
-155
-207
-263
-305
-339
-377
-408
-413
-387
-327
-260
-229
-234
-248
-260
-245
-203
-212
-257
-165
301
1222
1857
1068
-554
-1062
-354
28
-148
-152
-56
-120
-148
-89
-70
-61
-20
27
75
122
166
221
291
354
412
474
541
609
679
750
790
748
603
388
155
-51
-202
-305
-379
-429
-458
-471
-471
-466
-466
-468
-470
-451
-393
-343
-347
-362
-377
-398
-357
-315
-378
-338
5
554
1059
915
-149
-972
-609
-2
-25
-160
-77
-67
-110
-73
-47
-40
1
33
45
71
95
116
156
214
276
337
391
441
494
541
561
536
442
274
72
-110
-258
-369
-442
-488
-518
-527
-523
-525
-525
-511
-504
-491
-421
-325
-288
-305
-329
-346
-322
-294
-349
-414
-268
453
1699
2139
775
-801
-780
-102
-105
-294
-195
-157
-193
-126
-74
-60
0
64
98
136
175
207
250
297
338
377
412
433
453
490
535
564
545
460
322
174
50
-40
-102
-138
-150
-152
-158
-179
-205
-231
-262
-278
-242
-178
-159
-193
-239
-269
-255
-219
-243
-304
-201
448
1699
2366
1216
-542
-823
-98
63
-174
-143
-72
-117
-101
-61
-48
-1
51
60
68
100
136
165
194
234
273
301
326
358
393
429
452
423
315
146
-37
-194
-309
-388
-443
-478
-499
-516
-536
-562
-589
-614
-628
-598
-534
-505
-526
-551
-578
-587
-532
-519
-588
-472
28
736
1044
306
-898
-1082
-278
146
-1
-14
90
76
87
145
161
189
245
277
295
318
340
371
412
452
492
529
562
602
655
708
733
695
572
383
179
6
-124
-220
-286
-319
-331
-343
-360
-376
-387
-391
-380
-338
-273
-227
-226
-252
-277
-266
-226
-225
-261
-197
205
1042
1593
808
-674
-1038
-300
66
-113
-137
-58
-103
-104
-33
-8
0
37
83
120
147
176
216
267
326
380
428
486
551
604
656
694
654
506
293
71
-124
-266
-358
-423
-459
-463
-465
-482
-494
-493
-502
-510
-471
-393
-346
-350
-368
-390
-386
-322
-304
-374
-310
96
817
1352
836
-478
-1000
-391
26
-137
-184
-79
-105
-120
-64
-50
-34
21
59
92
145
192
234
303
381
446
511
579
641
702
762
777
700
536
331
131
-34
-154
-236
-290
-320
-337
-348
-356
-366
-374
-380
-396
-388
-327
-270
-274
-302
-331
-340
-289
-271
-350
-337
10
762
1443
1028
-373
-1045
-451
30
-124
-195
-94
-118
-131
-69
-52
-35
22
64
95
137
179
226
286
350
411
461
500
539
580
614
620
564
432
248
61
-99
-220
-303
-356
-385
-402
-409
-417
-437
-457
-467
-479
-467
-395
-323
-314
-336
-359
-365
-322
-300
-366
-374
-41
842
1769
1449
-143
-1054
-502
42
-106
-196
-83
-96
-112
-47
-25
-3
65
115
144
182
221
263
313
360
395
419
436
455
482
515
534
511
421
273
103
-47
-157
-234
-287
-314
-329
-341
-348
-359
-378
-392
-398
-388
-336
-264
-241
-266
-294
-308
-286
-252
-276
-303
-123
508
1407
1526
267
-969
-785
-68
-1
-173
-107
-68
-99
-52
-8
3
52
110
145
182
219
253
295
336
364
392
419
444
478
525
557
546
473
333
150
-24
-153
-243
-308
-352
-373
-379
-382
-393
-414
-431
-439
-442
-422
-366
-313
-302
-321
-351
-360
-325
-315
-367
-326
41
827
1487
956
-565
-1260
-582
6
-109
-194
-88
-91
-106
-53
-32
-10
48
101
152
209
257
313
381
446
511
584
652
713
774
827
840
754
557
317
95
-91
-230
-318
-371
-400
-410
-412
-411
-415
-427
-434
-433
-433
-424
-386
-334
-302
-304
-330
-348
-302
-239
-283
-339
-147
369
1022
1167
220
-941
-915
-161
47
-137
-109
-48
-92
-73
-27
-24
6
57
92
132
184
234
298
385
469
533
598
684
774
843
861
787
615
395
179
-12
-162
-261
-322
-366
-394
-400
-394
-392
-406
-430
-442
-445
-467
-471
-402
-324
-311
-334
-359
-362
-320
-317
-392
-393
-76
794
1769
1505
-81
-997
-457
48
-124
-205
-86
-106
-127
-65
-41
-20
36
75
104
153
207
262
323
382
435
483
522
556
598
635
627
547
395
198
13
-118
-208
-279
-327
-359
-380
-388
-391
-398
-413
-434
-452
-473
-496
-464
-372
-316
-327
-353
-371
-358
-317
-335
-405
-357
125
1243
2087
1263
-464
-927
-218
43
-176
-153
-68
-115
-93
-33
-28
3
59
92
129
184
238
295
360
431
497
545
582
625
672
693
651
525
334
128
-49
-184
-276
-333
-372
-396
-407
-415
-421
-420
-428
-452
-468
-473
-495
-496
-424
-344
-331
-357
-382
-371
-322
-321
-392
-410
-96
904
2023
1656
-134
-1045
-413
66
-138
-187
-64
-96
-102
-34
-21
-1
63
113
159
223
284
345
414
480
536
587
633
681
726
749
711
587
388
163
-38
-191
-296
-365
-407
-428
-437
-440
-438
-437
-434
-436
-450
-462
-472
-494
-493
-422
-337
-319
-343
-358
-353
-321
-298
-333
-358
-66
900
1968
1617
-146
-1145
-548
62
-63
-160
-50
-57
-72
-9
16
38
103
159
206
263
315
361
411
460
511
564
613
660
709
740
719
618
443
234
35
-126
-241
-315
-360
-385
-398
-404
-408
-405
-398
-394
-394
-401
-411
-421
-436
-447
-416
-337
-279
-282
-314
-334
-321
-283
-289
-335
-262
205
1186
1885
1083
-612
-1152
-403
23
-165
-201
-104
-131
-125
-65
-51
-22
45
95
144
211
275
331
390
453
522
592
665
745
820
858
817
666
436
198
-12
-185
-307
-375
-410
-431
-441
-434
-422
-418
-422
-420
-408
-398
-400
-406
-413
-424
-411
-346
-275
-260
-282
-305
-305
-257
-228
-287
-277
34
731
1499
1391
72
-1002
-687
-9
7
-135
-53
-33
-72
-28
4
11
60
114
152
201
260
325
399
473
547
625
705
782
860
923
919
800
582
333
110
-71
-204
-292
-348
-384
-403
-409
-410
-412
-414
-414
-410
-409
-421
-433
-436
-450
-467
-427
-345
-312
-332
-352
-366
-350
-304
-327
-391
-258
320
1280
1709
678
-813
-976
-219
2
-194
-153
-74
-117
-96
-42
-26
17
74
108
147
199
249
310
380
447
511
572
624
675
724
735
659
490
278
80
-88
-220
-311
-365
-397
-415
-421
-423
-422
-418
-414
-409
-408
-421
-439
-447
-464
-479
-426
-325
-281
-298
-315
-326
-307
-256
-273
-336
-238
319
1475
2314
1436
-407
-957
-229
71
-152
-126
-15
-57
-45
24
47
72
113
147
199
271
340
401
467
538
600
644
672
684
681
669
617
485
294
108
-54
-198
-301
-351
-372
-388
-406
-425
-434
-429
-420
-412
-397
-386
-398
-409
-396
-388
-380
-320
-242
-221
-230
-223
-217
-189
-137
-135
-137
69
749
1768
2033
768
-677
-658
85
209
10
42
74
28
57
89
83
110
145
162
188
222
252
285
316
342
369
396
419
440
460
457
398
276
114
-60
-217
-335
-415
-472
-509
-529
-538
-542
-546
-551
-552
-550
-550
-547
-539
-531
-532
-535
-532
-524
-488
-412
-360
-375
-398
-397
-388
-343
-317
-354
-231
262
967
1335
678
-698
-1266
-568
66
-2
-96
6
11
-11
36
66
99
170
224
269
334
386
426
495
574
628
674
734
794
841
870
841
700
470
231
25
-146
-273
-351
-401
-435
-455
-462
-465
-466
-465
-463
-460
-451
-431
-420
-427
-423
-403
-395
-371
-284
-201
-204
-227
-212
-202
-165
-100
-125
-131
138
749
1534
1755
719
-580
-610
99
253
77
125
175
142
187
229
230
282
348
382
422
477
531
593
671
754
834
902
962
1024
1075
1073
987
814
594
383
214
80
-28
-99
-136
-165
-196
-221
-240
-259
-279
-301
-322
-344
-367
-397
-430
-460
-484
-490
-461
-424
-441
-491
-518
-541
-545
-499
-525
-612
-401
285
998
919
-227
-1344
-1218
-427
-175
-314
-273
-194
-213
-179
-109
-68
-9
62
110
152
195
230
265
296
317
338
371
393
385
356
311
224
84
-81
-239
-367
-453
-506
-539
-556
-566
-570
-552
-526
-517
-509
-492
-481
-473
-459
-460
-463
-439
-414
-406
-375
-343
-360
-388
-394
-384
-341
-311
-336
-276
49
729
1485
1330
-44
-1058
-618
102
108
-9
101
131
119
200
256
282
351
423
472
521
558
584
621
669
723
784
847
902
949
982
979
912
779
617
471
359
275
216
182
173
177
