# session 19
-106
-133
-65
-45
-242
-494
-556
-509
-517
-538
-495
-407
-329
-307
-334
-367
-365
-331
-325
-330
-268
-268
-355
-143
550
1467
2103
1519
-356
-1587
-1027
-194
-217
-360
-238
-215
-235
-157
-111
-92
-33
16
53
113
178
245
333
432
538
661
800
942
1081
1204
1295
1340
1311
1178
961
724
500
277
67
-93
-193
-250
-274
-278
-275
-267
-257
-250
-243
-237
-231
-228
-225
-226
-228
-228
-227
-228
-230
-230
-229
-227
-223
-216
-208
-204
-203
-198
-190
-185
-178
-170
-163
-155
-146
-139
-135
-128
-120
-113
-107
-98
-89
-83
-78
-73
-67
-62
-57
-53
-49
-43
-36
-32
-31
-30
-27
-25
-22
-18
-15
-15
-16
-15
-12
-10
-9
-10
-8
-5
-3
-4
-6
-8
-8
-9
-10
-10
-11
-13
-12
-13
-18
-22
-22
-22
-22
-22
-21
-20
-21
-28
-32
-30
-31
-34
-33
-37
-41
-36
-39
-55
-54
-50
-83
-109
-82
-60
-79
-84
-62
-73
-119
-134
-95
-56
-50
-64
-93
-109
-101
-129
-138
-81
-154
-210
225
906
1258
1206
492
-786
-1290
-587
-39
-160
-201
-84
-135
-170
-65
-13
-72
-94
9
135
174
192
249
307
372
463
544
622
730
846
960
1063
1113
1115
1102
1026
864
688
526
357
184
16
-109
-171
-222
-275
-277
-268
-299
-291
-227
-229
-290
-279
-223
-238
-288
-295
-278
-269
-263
-279
-326
-350
-318
-289
-298
-298
-289
-313
-333
-304
-267
-265
-285
-293
-280
-279
-287
-262
-234
-239
-231
-195
-176
-193
-232
-237
-177
-138
-189
-234
-192
-150
-161
-149
-128
-150
-138
-81
-100
-163
-152
-122
-143
-140
-96
-97
-131
-124
-93
-78
-95
-127
-101
-18
6
-35
-61
-76
-83
-73
-64
-29
-35
-154
-42
562
1264
1662
1428
205
-1124
-1107
-253
19
-143
-89
-19
-70
-35
25
4
21
106
168
207
252
284
332
419
499
581
712
842
940
1069
1204
1272
1299
1292
1169
943
736
570
343
71
-110
-204
-303
-349
-307
-295
-334
-342
-329
-325
-307
-287
-292
-301
-309
-317
-306
-291
-306
-322
-315
-330
-372
-370
-324
-306
-319
-326
-323
-302
-284
-301
-309
-277
-272
-302
-302
-279
-265
-250
-245
-259
-249
-208
-196
-224
-219
-184
-199
-230
-189
-146
-183
-208
-157
-114
-136
-176
-173
-128
-108
-148
-173
-135
-106
-138
-182
-186
-139
-66
-21
-33
-74
-108
-103
-81
-107
-117
-47
-86
-180
118
804
1478
1817
1184
-390
-1256
-647
-5
-116
-203
-53
-71
-124
-30
35
25
46
83
110
176
265
327
377
439
517
635
786
912
1028
1168
1276
1329
1360
1311
1139
923
697
433
197
38
-101
-232
-294
-303
-320
-334
-322
-313
-309
-290
-279
-288
-281
-263
-276
-308
-315
-287
-272
-296
-310
-297
-295
-301
-297
-311
-324
-296
-269
-280
-290
-287
-290
-278
-253
-250
-251
-240
-242
-242
-217
-191
-181
-172
-174
-194
-196
-177
-171
-169
-149
-135
-144
-149
-140
-117
-95
-110
-130
-106
-99
-133
-109
-55
-78
-120
-107
-89
-101
-119
-107
-62
-45
-79
-93
-62
-48
-74
-94
-91
-98
-124
-141
-150
-160
-137
-81
-60
-74
-65
-67
-93
-39
10
-97
-55
466
1226
1810
1700
466
-949
-1038
-246
18
-175
-170
-74
-47
-12
-28
-53
41
140
129
123
195
267
312
386
492
583
656
759
898
1018
1103
1189
1270
1289
1221
1079
868
622
396
202
16
-153
-260
-297
-314
-339
-345
-336
-333
-322
-314
-324
-317
-290
-289
-302
-307
-328
-342
-315
-306
-330
-312
-280
-321
-360
-319
-294
-326
-331
-302
-291
-290
-294
-296
-268
-243
-262
-278
-261
-258
-259
-213
-179
-219
-242
-183
-138
-168
-197
-174
-144
-154
-178
-169
-149
-155
-165
-150
-136
-134
-125
-112
-119
-130
-116
-102
-112
-115
-109
-129
-140
-103
-69
-79
-97
-102
-111
-136
-172
-202
-198
-173
-166
-144
-88
-75
-72
-19
-54
-86
296
1033
1692
1865
965
-668
-1300
-507
109
-44
-132
-3
-6
-29
32
66
87
132
161
184
230
281
327
390
463
534
623
742
869
993
1111
1205
1265
1289
1247
1112
907
685
468
248
39
-127
-247
-328
-369
-380
-385
-383
-370
-361
-359
-349
-335
-336
-343
-345
-348
-352
-353
-353
-354
-352
-346
-337
-332
-331
-327
-331
-344
-341
-326
-324
-326
-305
-277
-255
-235
-219
-208
-193
-181
-179
-177
-173
-170
-163
-151
-143
-140
-134
-121
-110
-102
-91
-79
-77
-84
-85
-78
-72
-70
-70
-66
-60
-59
-60
-57
-49
-41
-35
-28
-24
-32
-47
-60
-71
-83
-100
-117
-121
-118
-101
-52
-33
-41
22
22
-80
206
971
1495
1347
535
-699
-1342
-774
-39
7
-101
-7
15
-16
27
51
49
85
116
123
147
196
256
314
369
440
536
645
762
887
1004
1100
1169
1201
1169
1047
851
626
400
185
-9
-172
-294
-365
-391
-395
-394
-389
-374
-354
-344
-342
-331
-315
-303
-298
-299
-298
-289
-288
-302
-313
-314
-315
-319
-318
-321
-328
-329
-324
-326
-331
-329
-326
-325
-317
-309
-309
-307
-293
-285
-299
-318
-319
-320
-331
-302
-213
-139
-145
-197
-218
-203
-214
-221
-166
-184
-268
-37
673
1567
2039
1253
-551
-1513
-879
-156
-205
-312
-201
-186
-196
-128
-96
-81
-29
17
52
101
153
211
285
369
467
587
723
869
1016
1156
1277
1356
1360
1260
1057
800
546
303
65
-138
-277
-353
-390
-406
-406
-391
-376
-373
-367
-345
-330
-335
-338
-329
-326
-328
-326
-326
-331
-334
-336
-335
-332
-341
-356
-366
-371
-358
-302
-234
-206
-222
-261
-283
-263
-258
-263
-211
-214
-303
-126
552
1553
2270
1652
-257
-1454
-916
-165
-215
-343
-228
-216
-244
-180
-143
-126
-69
-22
-5
29
101
191
273
351
446
568
708
853
993
1119
1216
1267
1238
1096
862
605
362
123
-101
-267
-358
-406
-437
-450
-439
-424
-415
-404
-393
-389
-386
-382
-381
-384
-383
-378
-373
-374
-378
-379
-380
-382
-373
-358
-356
-364
-356
-335
-331
-348
-363
-370
-375
-352
-272
-191
-180
-221
-254
-251
-229
-237
-230
-168
-198
-267
23
778
1718
2235
1380
-530
-1439
-729
-88
-222
-309
-191
-202
-210
-136
-108
-86
-26
17
52
111
173
233
308
393
485
595
722
851
974
1087
1178
1232
1228
1136
950
723
502
289
83
-86
-196
-252
-281
-294
-293
-291
-295
-296
-291
-293
-298
-299
-304
-314
-319
-323
-334
-337
-329
-330
-341
-339
-329
-329
-327
-314
-304
-304
-304
-296
-288
-285
-283
-276
-269
-266
-264
-268
-277
-282
-291
-306
-281
-194
-116
-103
-128
-162
-177
-153
-152
-163
-110
-125
-211
22
732
1658
2288
1648
-260
-1432
-838
-71
-150
-288
-165
-156
-182
-110
-72
-59
-7
36
68
121
182
244
312
387
474
574
682
790
892
992
1087
1155
1174
1126
992
790
578
381
187
7
-118
-192
-239
-262
-262
-263
-270
-272
-269
-272
-280
-284
-288
-296
-301
-300
-305
-316
-315
-304
-300
-303
-304
-299
-286
-271
-268
-269
-259
-248
-247
-240
-224
-215
-215
-209
-197
-188
-184
-176
-163
-156
-155
-147
-137
-132
-126
-117
-114
-114
-107
-98
-94
-93
-91
-88
-84
-83
-81
-78
-77
-79
-79
-77
-78
-77
-71
-65
-69
-73
-68
-62
-60
-62
-66
-61
-51
-53
-69
-83
-94
-111
-138
-169
-175
-162
-156
-124
-67
-64
-50
14
-54
-71
425
1217
1727
1609
541
-893
-1181
-349
87
-97
-119
-13
-49
-47
23
32
29
61
90
118
165
220
275
331
393
469
556
646
738
837
936
1022
1091
1133
1128
1055
910
720
529
347
164
-5
-126
-199
-243
-268
-280
-286
-287
-283
-285
-293
-299
-304
-313
-323
-327
-331
-336
-340
-341
-342
-347
-349
-344
-339
-340
-337
-326
-322
-318
-308
-300
-296
-290
-280
-269
-260
-255
-248
-237
-230
-226
-218
-206
-199
-198
-193
-181
-174
-174
-171
-161
-156
-156
-154
-151
-147
-143
-139
-136
-132
-129
-127
-123
-118
-118
-117
-113
-111
-110
-104
-100
-112
-138
-156
-166
-191
-214
-205
-190
-169
-113
-86
-91
-31
-21
-109
104
808
1658
2139
1526
-155
-1222
-706
24
-26
-170
-64
-50
-77
-13
23
29
66
98
124
169
218
268
333
403
476
557
651
757
864
964
1063
1145
1189
1191
1128
974
759
546
353
162
-14
-142
-217
-257
-279
-289
-291
-289
-286
-285
-287
-290
-293
-296
-300
-305
-313
-321
-324
-322
-323
-322
-319
-315
-309
-302
-298
-295
-290
-285
-282
-279
-271
-264
-256
-244
-229
-220
-223
-226
-219
-206
-197
-190
-180
-165
-151
-146
-146
-144
-144
-149
-146
-134
-125
-119
-111
-106
-103
-97
-91
-95
-102
-97
-83
-82
-92
-94
-87
-83
-82
-81
-81
-83
-87
-101
-120
-126
-137
-175
-202
-193
-176
-134
-78
-72
-49
-4
-79
-13
569
1308
1624
1240
28
-1205
-1161
-260
88
-77
-54
33
-5
8
62
73
90
123
148
180
220
267
325
382
448
533
617
697
801
920
1022
1098
1142
1151
1114
1002
816
605
406
215
33
-118
-219
-270
-293
-310
-321
-321
-316
-310
-300
-295
-299
-303
-306
-311
-317
-326
-334
-335
-334
-340
-343
-339
-340
-347
-346
-336
-328
-327
-324
-313
-299
-289
-283
-280
-275
-269
-261
-248
-237
-234
-231
-222
-211
-201
-193
-191
-192
-188
-187
-201
-216
-222
-228
-216
-153
-72
-48
-91
-137
-133
-125
-147
-122
-90
-173
-137
346
1178
1928
1796
312
-1223
-1183
-298
-68
-255
-203
-136
-175
-131
-70
-66
-35
16
47
90
146
191
244
318
400
488
593
714
842
971
1089
1178
1231
1229
1135
940
692
447
217
-2
-188
-318
-394
-424
-423
-417
-413
-400
-380
-369
-368
-366
-361
-359
-361
-360
-359
-361
-365
-365
-366
-370
-374
-373
-369
-361
-358
-368
-386
-396
-401
-387
-328
-249
-214
-234
-274
-287
-259
-254
-265
-208
-198
-287
-138
497
1519
2419
1997
1
-1472
-1022
-169
-179
-333
-210
-188
-220
-147
-103
-90
-34
14
45
100
163
221
292
375
470
584
710
843
984
1117
1221
1287
1294
1205
1010
756
508
279
57
-133
-256
-322
-355
-363
-354
-336
-314
-303
-305
-300
-282
-279
-293
-300
-290
-282
-293
-306
-304
-298
-301
-301
-296
-291
-288
-283
-278
-274
-268
-258
-250
-249
-246
-238
-228
-222
-220
-216
-210
-206
-201
-189
-177
-172
-167
-153
-141
-137
-133
-125
-115
-111
-109
-102
-93
-91
-93
-94
-92
-88
-85
-86
-79
-69
-78
-102
-121
-131
-145
-169
-177
-164
-158
-130
-73
-67
-63
0
-41
-78
334
1145
1878
1997
901
-808
-1304
-445
88
-86
-131
-24
-52
-51
12
20
31
74
102
129
173
220
274
334
395
467
551
643
743
847
948
1040
1113
1157
1154
1074
913
718
522
319
115
-56
-176
-252
-296
-318
-332
-342
-342
-335
-332
-335
-338
-338
-342
-347
-350
-353
-356
-361
-373
-382
-376
-368
-373
-380
-377
-370
-368
-369
-361
-344
-334
-337
-334
-319
-303
-295
-291
-289
-284
-273
-258
-244
-236
-231
-228
-222
-212
-206
-206
-206
-217
-233
-241
-263
-295
-287
-242
-187
-139
-143
-140
-66
-96
-141
299
1117
1560
1205
71
-1189
-1382
-526
39
-50
-96
6
9
12
64
81
97
137
163
194
244
296
349
412
484
571
671
778
893
1016
1131
1228
1292
1303
1242
1091
866
627
409
202
6
-145
-228
-262
-279
-288
-280
-265
-263
-261
-247
-234
-235
-241
-244
-246
-248
-253
-261
-269
-277
-280
-280
-282
-287
-288
-284
-284
-283
-279
-275
-268
-260
-255
-250
-245
-244
-242
-233
-225
-218
-209
-203
-197
-193
-192
-190
-183
-175
-171
-165
-161
-161
-155
-149
-148
-146
-143
-143
-139
-134
-138
-154
-176
-203
-231
-252
-243
-210
-184
-146
-104
-113
-102
-39
-95
-134
271
1094
1924
2124
973
-792
-1247
-399
39
-172
-194
-87
-125
-115
-45
-37
-20
29
53
76
126
181
236
297
366
444
535
642
759
876
986
1087
1168
1209
1190
1089
905
678
454
234
16
-161
-270
-332
-368
-380
-375
-368
-368
-372
-372
-365
-359
-360
-362
-365
-369
-373
-376
-378
-374
-370
-374
-377
-369
-354
-345
-347
-348
-338
-326
-320
-315
-305
-295
-288
-279
-269
-257
-246
-244
-246
-241
-235
-233
-217
-191
-182
-177
-155
-147
-155
-137
-97
-81
-79
-69
-58
-50
-34
-20
-20
-18
-9
-10
-21
-29
-48
-82
-107
-102
-77
-58
-48
-9
35
20
27
82
13
-6
445
1258
1978
2041
881
-728
-1046
-211
174
-35
-49
52
18
33
101
108
118
160
186
214
264
315
365
424
485
560
659
760
851
955
1073
1173
1238
1263
1234
1136
963
739
512
301
96
-84
-202
-262
-294
-308
-307
-308
-311
-308
-307
-315
-316
-319
-333
-341
-338
-350
-372
-380
-379
-381
-383
-386
-391
-393
-391
-384
-379
-392
-409
-405
-392
-392
-393
-386
-380
-380
-375
-369
-370
-373
-368
-359
-358
-361
-354
-346
-346
-346
-343
-343
-347
-342
-333
-334
-340
-340
-332
-324
-319
-316
-312
-308
-315
-329
-326
-311
-317
-350
-374
-373
-375
-391
-390
-367
-343
-284
-224
-241
-227
-154
-221
-188
391
1124
1316
815
-292
-1343
-1274
-407
-19
-149
-133
-39
-63
-44
24
44
61
100
136
182
238
291
354
432
517
611
719
830
948
1082
1215
1323
1399
1442
1428
1324
1138
920
711
517
335
182
81
33
24
34
50
69
92
115
131
138
142
152
165
170
164
153
146
147
151
147
135
129
132
133
131
129
127
123
123
125
123
120
124
122
114
111
107
94
86
83
79
76
76
64
48
42
28
7
-5
-18
-45
-70
-88
-113
-142
-168
-197
-229
-252
-277
-322
-375
-411
-432
-476
-543
-585
-604
-646
-708
-774
-854
-942
-1018
-1079
-1117
-1139
-1145
-1153
-1226
-1295
-1296
-1417
-1529
-1133
-479
-169
