# session 1
-1
-54
100
75
-437
-969
-1049
-926
-894
-873
-850
-892
-911
-862
-819
-768
-682
-651
-670
-617
-566
-607
-502
-80
571
1236
1163
-120
-1302
-1052
-293
-203
-350
-296
-301
-315
-200
-148
-170
-126
-86
-98
-57
27
60
63
94
132
150
180
236
286
312
317
310
329
402
475
480
424
350
275
205
130
34
-65
-121
-136
-168
-227
-257
-242
-244
-288
-318
-315
-309
-302
-297
-315
-316
-265
-219
-210
-215
-224
-214
-164
-133
-139
-135
-133
-130
-87
-61
-96
-127
-126
-105
-47
4
2
-23
-48
-55
0
61
47
25
55
64
20
19
78
100
80
70
41
2
43
100
33
-79
-91
-39
16
78
82
44
99
140
52
155
650
1349
2005
1883
504
-762
-546
184
241
75
131
144
98
130
162
169
201
231
240
264
304
319
325
383
458
480
480
501
529
560
588
596
595
596
601
619
591
465
310
212
125
-2
-129
-227
-312
-373
-394
-406
-418
-418
-436
-479
-497
-493
-507
-528
-532
-513
-484
-481
-505
-515
-508
-493
-473
-472
-470
-442
-443
-481
-451
-381
-391
-420
-382
-374
-405
-353
-271
-282
-315
-280
-240
-241
-238
-219
-211
-210
-200
-189
-193
-197
-195
-210
-233
-220
-178
-167
-202
-240
-247
-235
-217
-190
-184
-199
-139
-51
-104
-136
130
631
1278
1679
938
-545
-986
-256
162
46
62
123
74
115
190
194
215
245
242
265
309
337
370
406
429
454
480
503
546
601
630
642
668
697
711
707
682
637
577
475
331
205
124
55
-14
-73
-110
-101
-72
-88
-129
-138
-149
-194
-216
-203
-211
-235
-231
-219
-228
-240
-238
-234
-226
-210
-199
-198
-190
-163
-139
-141
-145
-133
-123
-129
-131
-125
-116
-110
-118
-136
-132
-101
-86
-110
-137
-135
-122
-127
-140
-143
-148
-154
-145
-145
-179
-202
-172
-138
-161
-219
-251
-255
-258
-243
-186
-155
-176
-163
-148
-185
-42
413
1010
1550
1417
147
-1046
-817
-44
47
-134
-81
-48
-65
-2
27
11
37
65
74
113
166
197
218
241
267
308
361
405
435
470
511
541
557
571
587
592
565
490
353
175
12
-111
-215
-294
-333
-356
-376
-370
-341
-315
-308
-313
-307
-293
-298
-310
-304
-300
-315
-334
-341
-341
-338
-336
-334
-317
-287
-266
-258
-238
-211
-202
-193
-157
-123
-128
-140
-133
-128
-137
-142
-143
-148
-147
-143
-149
-149
-135
-125
-120
-106
-98
-103
-92
-65
-56
-62
-57
-57
-83
-107
-104
-92
-67
-2
38
20
55
111
62
69
312
909
2074
2963
2001
-36
-709
-67
127
-160
-167
-105
-162
-130
-69
-63
-13
63
105
149
205
248
285
320
339
350
366
382
402
446
506
545
555
568
592
605
589
534
424
261
100
-18
-111
-198
-261
-300
-339
-361
-351
-343
-354
-357
-353
-371
-399
-408
-410
-422
-429
-420
-412
-410
-404
-394
-385
-369
-348
-328
-303
-278
-266
-255
-231
-210
-206
-203
-197
-193
-188
-188
-201
-208
-205
-210
-228
-234
-221
-208
-198
-184
-169
-156
-143
-128
-115
-111
-116
-124
-133
-148
-176
-217
-243
-241
-237
-207
-125
-95
-125
-74
-38
-117
8
489
1111
1721
1659
354
-905
-678
77
113
-69
21
63
31
88
129
131
170
209
228
266
309
343
378
411
437
463
495
526
555
583
615
647
672
694
714
724
710
650
524
358
206
81
-29
-116
-171
-208
-233
-245
-250
-251
-254
-262
-266
-266
-274
-282
-278
-278
-289
-295
-298
-304
-306
-307
-314
-315
-314
-319
-316
-306
-301
-295
-285
-278
-271
-263
-264
-256
-231
-218
-221
-216
-202
-198
-190
-173
-162
-156
-139
-121
-112
-99
-89
-95
-101
-93
-93
-115
-148
-177
-183
-178
-175
-136
-90
-113
-119
-69
-133
-168
184
816
1413
1564
674
-684
-924
-141
195
-15
-31
56
21
33
81
70
71
100
113
129
156
180
209
241
267
296
331
371
414
461
511
563
610
648
676
696
695
640
513
347
187
51
-59
-142
-197
-223
-231
-240
-245
-237
-230
-231
-232
-230
-230
-233
-241
-250
-255
-251
-241
-240
-249
-247
-231
-224
-231
-233
-225
-224
-225
-221
-218
-219
-214
-207
-209
-211
-207
-202
-199
-194
-184
-177
-175
-169
-156
-138
-123
-107
-85
-66
-62
-69
-81
-107
-150
-203
-253
-288
-312
-317
-274
-241
-270
-255
-215
-291
-252
184
837
1422
1439
357
-917
-893
-93
117
-68
-18
56
27
68
118
115
136
169
178
196
230
259
283
303
330
369
405
433
468
513
559
604
638
669
706
728
707
623
479
317
173
39
-81
-160
-204
-238
-254
-249
-241
-231
-222
-220
-217
-208
-200
-193
-181
-173
-176
-184
-194
-207
-225
-248
-265
-274
-286
-296
-293
-284
-276
-259
-232
-203
-168
-128
-89
-49
-10
31
68
90
99
111
121
110
80
50
17
-11
2
60
89
36
-16
-13
-32
-61
-30
-73
-165
57
696
1465
1794
933
-679
-1278
-547
-15
-169
-253
-171
-200
-215
-169
-164
-158
-126
-107
-84
-44
-11
22
64
99
121
143
176
216
250
282
318
350
375
398
409
387
318
202
57
-84
-197
-283
-342
-373
-385
-391
-387
-379
-379
-381
-381
-398
-425
-442
-452
-461
-457
-443
-429
-420
-422
-416
-379
-334
-315
-316
-314
-289
-244
-218
-220
-208
-172
-140
-124
-117
-108
-100
-107
-116
-86
-26
11
15
5
-20
-37
-18
-11
-16
35
45
-19
147
689
1460
2150
1895
349
-897
-561
196
224
74
155
166
129
178
203
211
267
305
311
338
368
386
422
468
495
516
553
599
644
691
742
792
839
877
897
892
836
710
540
378
240
118
17
-57
-110
-143
-162
-179
-199
-217
-234
-251
-264
-278
-297
-314
-326
-338
-352
-366
-380
-395
-406
-416
-427
-434
-439
-444
-450
-454
-457
-460
-466
-478
-491
-502
-519
-533
-507
-440
-390
-389
-415
-440
-436
-411
-422
-412
-338
-371
-426
-82
567
978
844
-9
-1153
-1388
-607
-87
-193
-240
-137
-145
-149
-90
-73
-68
-30
5
40
88
135
179
224
261
291
324
354
381
413
451
488
525
560
588
601
581
497
345
171
25
-86
-173
-230
-253
-257
-255
-245
-232
-222
-214
-204
-195
-187
-180
-170
-158
-147
-131
-112
-97
-91
-85
-77
-72
-71
-69
-67
-68
-69
-75
-92
-111
-132
-163
-157
-78
1
6
-35
-66
-62
-51
-69
-53
-3
-55
-102
134
770
1871
2765
1971
-116
-1014
-276
199
-40
-91
30
8
30
117
139
169
237
279
319
380
432
475
519
559
594
628
655
682
712
740
766
795
817
826
812
744
592
373
144
-51
-196
-294
-359
-408
-439
-458
-479
-497
-505
-508
-519
-538
-554
-565
-582
-600
-604
-612
-635
-643
-632
-626
-616
-595
-587
-591
-589
-580
-574
-575
-586
-593
-573
-523
-461
-425
-424
-436
-450
-443
-415
-420
-412
-355
-386
-404
-61
544
1016
1004
119
-1101
-1255
-415
18
-144
-175
-80
-87
-64
-2
14
46
105
147
193
251
296
331
375
428
474
508
548
601
652
702
749
784
815
848
854
809
706
550
380
237
132
63
25
8
2
10
20
20
17
18
15
4
-2
-7
-17
-19
-14
-28
-52
-46
-24
-39
-78
-99
-102
-110
-119
-133
-179
-241
-264
-249
-231
-215
-207
-207
-178
-129
-118
-118
-75
-45
-74
-99
-86
-79
-84
-79
-84
-113
-137
-154
-188
-227
-254
-286
-320
-318
-286
-243
-202
-205
-204
-127
-124
-205
-18
531
1320
2132
1966
381
-855
-477
169
62
-101
-29
-57
-73
13
27
-3
9
30
78
146
159
141
174
230
229
201
235
325
396
457
537
587
599
646
725
761
732
647
490
293
117
-28
-149
-238
-320
-403
-451
-469
-478
-469
-468
-497
-502
-482
-488
-484
-455
-468
-507
-497
-468
-460
-450
-459
-489
-473
-421
-403
-404
-387
-375
-356
-305
-267
-268
-255
-217
-211
-222
-196
-167
-166
-155
-143
-156
-144
-105
-117
-148
-126
-109
-142
-163
-165
-191
-216
-225
-236
-215
-152
-93
-67
-81
-61
32
26
-34
198
749
1495
2197
1839
208
-801
-238
349
155
18
135
131
135
217
203
165
210
261
289
316
323
327
359
385
398
438
488
508
514
529
559
616
676
696
707
744
738
608
407
263
180
68
-62
-132
-161
-201
-238
-258
-267
-267
-283
-329
-347
-326
-339
-394
-419
-403
-394
-396
-382
-372
-403
-435
-409
-367
-365
-357
-316
-315
-362
-357
-299
-283
-300
-284
-260
-250
-224
-213
-246
-250
-205
-199
-237
-228
-186
-180
-199
-200
-167
-129
-147
-189
-179
-171
-207
-212
-206
-247
-259
-227
-202
-133
-64
-83
-76
-35
-83
5
461
1147
1775
1624
258
-973
-705
82
155
-18
38
53
32
110
173
184
186
188
229
279
287
300
342
360
362
395
430
427
439
512
569
560
571
638
670
641
616
604
536
380
200
71
-12
-84
-162
-238
-278
-274
-274
-300
-322
-330
-346
-358
-338
-319
-345
-382
-365
-317
-312
-344
-346
-319
-317
-306
-260
-263
-321
-313
-251
-249
-280
-268
-239
-218
-202
-211
-227
-207
-179
-188
-197
-161
-132
-152
-164
-140
-130
-132
-112
-98
-106
-100
-80
-87
-109
-113
-106
-113
-122
-125
-139
-163
-170
-137
-74
-58
-99
-59
27
-32
-15
426
1093
1587
1478
377
-900
-924
-72
252
78
80
148
108
125
193
214
220
231
245
285
331
338
343
394
431
407
407
475
534
546
541
540
582
660
691
689
723
714
583
425
301
152
-8
-115
-194
-278
-317
-315
-342
-381
-379
-377
-409
-433
-432
-441
-452
-446
-438
-444
-450
-452
-455
-453
-447
-444
-430
-394
-360
-352
-358
-349
-326
-308
-298
-286
-279
-287
-284
-256
-229
-221
-214
-202
-192
-187
-177
-164
-153
-143
-130
-116
-107
-98
-84
-72
-72
-81
-88
-94
-106
-124
-135
-132
-127
-96
-24
11
1
52
75
-11
98
597
1355
2120
2043
578
-799
-595
163
183
-24
50
83
46
97
129
117
139
162
172
201
233
258
289
313
331
352
367
380
408
436
453
481
522
549
559
558
536
472
364
234
110
2
-93
-168
-214
-260
-315
-334
-309
-300
-324
-336
-328
-324
-330
-329
-312
-288
-272
-264
-261
-257
-249
-266
-296
-272
-201
-177
-203
-208
-199
-208
-213
-200
-187
-184
-190
-203
-216
-222
-223
-228
-236
-239
-239
-240
-238
-231
-218
-204
-195
-187
-179
-185
-186
-160
-143
-154
-141
-111
-116
-136
-138
-145
-157
-153
-130
-96
-71
-40
14
12
-31
117
563
1197
1671
1239
-137
-987
-492
178
167
41
126
151
129
176
212
214
229
260
303
343
362
379
401
416
422
429
433
430
433
454
480
491
493
500
518
541
547
511
441
359
253
132
33
-40
-111
-175
-225
-270
-302
-316
-328
-345
-359
-374
-394
-407
-420
-443
-445
-423
-416
-430
-432
-417
-400
-388
-384
-381
-373
-350
-311
-277
-264
-264
-251
-223
-203
-194
-183
-169
-161
-155
-140
-124
-125
-134
-131
-115
-97
-88
-89
-92
-87
-77
-74
-79
-83
-85
-90
-91
-100
-130
-158
-165
-144
-86
-43
-40
-10
1
-51
82
563
1205
1673
1354
38
-1012
-689
80
192
44
100
136
110
146
175
179
202
220
229
258
287
303
320
339
355
368
376
385
398
414
430
446
465
483
498
509
513
494
436
339
222
106
4
-78
-145
-197
-231
-251
-266
-281
-293
-301
-306
-313
-321
-328
-334
-340
-341
-338
-334
-332
-328
-324
-320
-312
-303
-296
-290
-282
-274
-265
-253
-245
-242
-234
-221
-212
-204
-194
-185
-181
-176
-166
-159
-156
-153
-146
-141
-142
-145
-147
-151
-161
-184
-204
-195
-172
-147
-111
-92
-93
-58
-40
-73
47
456
1066
1594
1322
21
-969
-607
102
151
9
77
106
84
132
160
154
179
208
225
249
275
298
321
337
348
361
372
382
396
413
428
444
459
470
474
469
450
409
336
236
134
46
-27
-87
-131
-164
-190
-206
-215
-227
-240
-248
-256
-264
-269
-273
-275
-274
-275
-283
-285
-272
-260
-264
-264
-255
-250
-249
-240
-232
-229
-224
-218
-212
-201
-189
-184
-176
-165
-163
-164
-162
-160
-158
-152
-150
-150
-155
-161
-154
-132
-116
-97
-60
-46
-80
-119
-123
-111
-125
-126
-88
-105
-131
50
459
1064
1632
1264
-166
-1027
-504
97
17
-90
2
2
-17
37
56
58
92
120
144
177
201
217
235
248
252
260
271
281
295
312
328
344
358
364
363
358
340
295
218
128
45
-28
-93
-146
-182
-209
-229
-242
-250
-260
-273
-285
-292
-297
-305
-312
-313
-311
-308
-305
-303
-303
-299
-289
-280
-276
-268
-254
-241
-232
-223
-211
-197
-184
-175
-170
-159
-145
-136
-130
-121
-120
-126
-119
-98
-68
-25
6
-1
-29
-54
-54
-44
-56
-27
43
5
-29
220
726
1466
2137
1625
-59
-920
-277
274
115
36
139
116
110
172
182
193
239
262
282
326
347
341
367
433
482
490
495
515
533
555
581
591
601
635
656
647
633
551
346
163
124
81
-92
-232
-215
-196
-284
-350
-316
-289
-347
-410
-397
-381
-433
-465
-420
-401
-452
-476
-439
-421
-454
-468
-432
-423
-473
-490
-445
-419
-413
-383
-393
-457
-460
-401
-393
-412
-391
-383
-406
-399
-392
-426
-455
-460
-446
-384
-326
-352
-395
-368
-316
-309
-346
-354
-311
-352
-418
-219
253
999
2017
2192
628
-972
-824
-58
-85
-337
-252
-163
-176
-160
-129
-74
-12
-2
14
80
138
173
217
260
290
332
385
422
445
483
552
624
655
665
698
732
733
698
614
476
338
235
158
115
109
100
80
91
131
156
152
