# session 35
192
238
56
265
1064
1624
1563
1414
1425
1397
1338
1329
1302
1260
1247
1232
1207
1190
1173
1152
1140
1134
1129
1129
1132
1134
1140
1151
1163
1171
1177
1171
1118
982
773
553
361
189
36
-69
-136
-198
-250
-282
-318
-357
-371
-369
-384
-406
-415
-414
-425
-443
-457
-462
-464
-469
-471
-471
-478
-488
-488
-477
-477
-487
-484
-470
-465
-463
-458
-456
-453
-445
-442
-443
-435
-429
-426
-411
-396
-396
-396
-385
-374
-370
-371
-371
-359
-348
-358
-380
-397
-403
-400
-389
-369
-344
-319
-284
-255
-268
-262
-194
-200
-270
-82
588
1655
2401
1682
-90
-835
-156
288
44
-51
39
-1
-11
49
49
54
92
109
128
160
175
199
246
282
305
335
368
407
453
490
522
566
616
660
698
731
752
737
645
472
274
99
-45
-156
-232
-284
-314
-327
-334
-337
-335
-329
-326
-329
-338
-337
-324
-316
-322
-323
-312
-303
-299
-293
-288
-284
-274
-263
-261
-254
-238
-232
-231
-216
-199
-198
-198
-186
-178
-183
-180
-161
-154
-166
-162
-135
-124
-136
-138
-126
-115
-112
-112
-110
-102
-100
-111
-115
-106
-114
-146
-169
-172
-176
-171
-146
-124
-107
-81
-75
-72
-26
-37
-104
49
632
1629
2464
1942
173
-769
-141
417
197
57
159
123
78
129
139
133
164
181
186
207
231
252
275
297
323
355
382
404
432
465
497
532
573
614
647
679
706
697
617
464
270
75
-87
-203
-287
-347
-380
-392
-401
-407
-409
-410
-408
-409
-411
-409
-410
-416
-410
-394
-391
-395
-394
-390
-381
-373
-371
-366
-355
-345
-335
-325
-322
-318
-306
-294
-286
-279
-273
-269
-260
-247
-238
-235
-231
-222
-219
-217
-206
-192
-184
-185
-184
-172
-158
-153
-153
-150
-150
-155
-164
-178
-198
-212
-213
-197
-177
-160
-123
-88
-101
-89
-30
-67
-114
160
891
1920
2447
1442
-315
-752
70
411
132
88
173
117
116
160
145
161
207
213
219
248
268
285
313
340
364
393
419
437
461
502
549
584
613
652
689
709
721
707
611
431
235
64
-87
-205
-278
-324
-356
-370
-370
-372
-376
-375
-376
-382
-381
-371
-370
-380
-389
-388
-375
-364
-366
-367
-359
-349
-339
-330
-328
-322
-309
-301
-296
-286
-274
-266
-261
-254
-244
-241
-238
-224
-214
-221
-217
-190
-176
-183
-183
-176
-176
-173
-156
-142
-140
-140
-139
-137
-141
-158
-176
-180
-187
-211
-215
-187
-166
-143
-102
-97
-105
-51
-42
-114
12
577
1578
2461
2000
177
-909
-289
398
229
54
155
134
84
132
142
135
176
200
200
217
233
251
285
312
330
358
391
419
445
472
508
551
579
604
653
704
723
713
648
493
283
86
-79
-210
-305
-366
-397
-401
-395
-395
-401
-401
-394
-388
-389
-387
-382
-382
-382
-377
-375
-371
-355
-342
-344
-344
-336
-332
-327
-317
-310
-304
-293
-284
-280
-274
-265
-252
-242
-239
-241
-235
-222
-212
-202
-194
-196
-194
-179
-169
-170
-164
-152
-151
-152
-147
-141
-142
-151
-167
-185
-203
-219
-209
-178
-159
-141
-110
-108
-110
-67
-81
-134
60
709
1741
2447
1666
-190
-961
-177
396
181
73
178
136
103
160
163
159
197
207
209
244
276
289
313
339
356
384
419
440
464
508
544
567
606
660
698
722
746
733
638
465
261
65
-102
-226
-304
-350
-377
-390
-391
-389
-391
-389
-378
-368
-370
-374
-371
-367
-372
-374
-363
-354
-356
-357
-350
-345
-340
-335
-330
-325
-319
-308
-300
-302
-296
-272
-254
-256
-256
-245
-236
-233
-227
-220
-217
-211
-201
-194
-190
-188
-185
-177
-167
-161
-156
-149
-149
-156
-168
-184
-200
-217
-233
-226
-196
-174
-148
-115
-112
-101
-51
-77
-126
105
806
1882
2522
1579
-269
-840
-21
394
129
69
159
98
88
147
140
143
183
193
199
227
251
272
300
325
349
380
412
440
471
508
544
576
614
662
703
730
743
718
614
428
211
13
-142
-254
-331
-385
-408
-404
-405
-415
-407
-386
-384
-394
-387
-375
-376
-380
-379
-377
-375
-370
-368
-374
-370
-354
-340
-336
-333
-325
-318
-312
-304
-296
-288
-278
-269
-262
-253
-244
-238
-231
-225
-221
-212
-197
-189
-189
-182
-175
-173
-171
-168
-161
-149
-146
-161
-181
-194
-213
-232
-222
-184
-153
-124
-97
-104
-93
-46
-76
-108
162
915
2012
2542
1432
-393
-792
70
407
129
96
179
118
117
166
149
153
196
215
227
251
268
283
302
328
368
404
418
429
467
516
548
581
632
681
713
737
748
715
582
361
147
-24
-185
-323
-398
-428
-445
-452
-447
-441
-440
-437
-427
-423
-427
-425
-414
-405
-404
-402
-395
-393
-393
-388
-379
-366
-347
-338
-340
-333
-317
-310
-308
-300
-290
-281
-272
-264
-255
-246
-240
-235
-228
-222
-216
-210
-203
-192
-180
-175
-172
-163
-160
-168
-171
-175
-197
-222
-228
-211
-186
-161
-123
-93
-106
-99
-43
-69
-121
113
817
1892
2519
1540
-332
-868
3
421
133
69
172
119
103
150
146
157
190
198
221
257
271
286
319
347
368
400
432
457
490
534
578
618
660
701
734
762
774
736
615
416
190
-11
-165
-278
-350
-387
-403
-410
-409
-401
-392
-386
-385
-380
-375
-379
-380
-371
-373
-384
-373
-351
-351
-360
-353
-343
-343
-338
-325
-318
-322
-320
-302
-287
-282
-277
-271
-266
-260
-250
-247
-245
-237
-231
-229
-226
-220
-210
-193
-183
-185
-186
-180
-176
-183
-196
-211
-227
-245
-250
-227
-198
-177
-139
-113
-131
-109
-57
-106
-118
237
1110
2231
2496
1045
-697
-749
155
330
61
97
153
73
85
134
132
150
171
173
200
237
250
267
297
320
349
388
415
434
464
504
543
575
604
631
655
676
680
628
494
304
108
-63
-198
-291
-346
-378
-392
-387
-379
-376
-370
-357
-347
-344
-342
-338
-336
-337
-337
-334
-332
-332
-332
-329
-323
-322
-324
-318
-308
-303
-299
-292
-287
-286
-284
-275
-264
-260
-265
-263
-245
-229
-228
-226
-218
-211
-206
-201
-202
-202
-196
-196
-205
-215
-232
-245
-228
-195
-163
-136
-142
-141
-81
-77
-135
1
508
1467
2458
2119
207
-1058
-452
344
228
48
149
124
70
138
160
134
161
198
209
227
258
286
302
315
336
367
398
426
454
481
508
538
569
594
616
645
672
661
573
411
218
34
-123
-254
-346
-384
-384
-387
-397
-394
-384
-380
-376
-369
-373
-378
-363
-342
-343
-352
-351
-345
-342
-340
-338
-331
-321
-312
-305
-300
-296
-289
-282
-278
-272
-261
-250
-244
-243
-247
-251
-242
-228
-230
-231
-224
-233
-252
-254
-257
-257
-210
-137
-110
-138
-185
-211
-192
-178
-197
-173
-134
-189
-178
185
1061
2212
2449
920
-790
-750
129
243
-8
41
73
0
35
82
71
94
130
137
157
202
234
253
282
317
345
372
413
450
474
515
581
633
664
699
740
767
763
687
514
289
73
-117
-272
-359
-389
-415
-444
-450
-438
-434
-433
-424
-415
-410
-410
-415
-422
-414
-397
-394
-402
-402
-394
-385
-377
-374
-372
-364
-351
-344
-347
-349
-344
-331
-288
-218
-188
-224
-263
-274
-266
-249
-257
-260
-216
-228
-283
-103
514
1591
2528
1953
-45
-1126
-424
242
50
-84
26
-8
-37
31
39
29
66
95
109
131
161
206
245
269
306
356
396
434
489
551
610
666
722
777
822
853
843
734
516
258
19
-183
-335
-431
-490
-516
-507
-492
-482
-468
-458
-453
-435
-416
-419
-420
-401
-392
-398
-400
-394
-386
-379
-378
-374
-357
-341
-335
-329
-317
-311
-310
-303
-293
-285
-276
-267
-271
-283
-283
-254
-192
-132
-127
-165
-197
-204
-190
-185
-199
-165
-118
-174
-185
143
982
2195
2685
1349
-527
-765
84
270
-12
10
74
3
14
65
74
100
127
136
161
195
221
252
281
309
352
400
435
469
516
569
626
689
748
802
854
890
873
768
571
326
91
-103
-244
-336
-394
-425
-435
-440
-441
-424
-407
-408
-412
-410
-409
-411
-412
-414
-410
-403
-403
-403
-390
-377
-372
-369
-359
-349
-345
-344
-337
-324
-309
-297
-290
-285
-278
-269
-266
-263
-253
-242
-233
-224
-215
-211
-212
-212
-207
-203
-209
-218
-219
-202
-145
-76
-65
-103
-131
-144
-142
-125
-135
-136
-96
-127
-166
65
744
1889
2739
1927
-20
-755
-14
362
63
-8
82
25
18
74
68
78
125
146
165
199
222
246
285
323
354
382
414
456
503
547
595
646
695
747
799
841
858
822
699
492
250
35
-122
-234
-320
-376
-401
-411
-417
-411
-404
-414
-421
-401
-383
-393
-405
-404
-403
-400
-389
-385
-390
-380
-356
-345
-345
-337
-325
-321
-317
-304
-294
-299
-301
-278
-255
-263
-269
-250
-236
-239
-232
-223
-226
-219
-201
-190
-191
-192
-188
-177
-167
-164
-166
-166
-152
-132
-133
-145
-137
-133
-152
-162
-164
-199
-235
-225
-194
-173
-148
-120
-99
-93
-98
-58
-23
-92
-83
271
1061
2184
2683
1468
-310
-552
233
365
64
81
138
64
80
127
122
140
166
169
189
218
236
262
294
323
357
387
410
445
493
527
560
614
669
708
749
794
812
775
666
484
267
65
-97
-224
-315
-366
-391
-404
-407
-403
-401
-403
-403
-402
-403
-405
-403
-401
-406
-406
-394
-384
-384
-380
-369
-362
-355
-346
-335
-328
-326
-319
-306
-298
-294
-285
-277
-271
-262
-252
-243
-238
-241
-237
-216
-202
-204
-201
-192
-193
-195
-184
-172
-165
-159
-154
-151
-147
-140
-136
-138
-139
-129
-125
-133
-136
-140
-163
-190
-207
-210
-188
-150
-129
-109
-78
-81
-81
-31
-48
-92
140
797
1793
2487
1721
-114
-848
-66
436
169
69
186
145
113
170
177
171
196
207
219
248
266
283
317
354
379
405
435
466
498
540
584
623
664
717
772
810
828
819
738
565
344
124
-71
-220
-316
-379
-419
-435
-436
-437
-434
-428
-426
-425
-421
-423
-423
-407
-393
-398
-404
-396
-390
-391
-389
-376
-367
-366
-361
-345
-335
-332
-321
-303
-294
-294
-287
-273
-266
-265
-256
-243
-240
-242
-232
-215
-206
-202
-197
-197
-193
-180
-176
-177
-168
-158
-155
-150
-149
-151
-142
-130
-136
-149
-161
-181
-207
-225
-216
-182
-154
-140
-108
-87
-100
-72
-25
-80
-73
316
1181
2199
2348
949
-600
-575
230
335
87
126
166
101
130
170
153
167
197
206
223
250
271
296
324
353
385
419
452
487
524
566
619
675
724
774
829
867
876
840
716
498
252
33
-149
-280
-355
-400
-429
-438
-433
-429
-426
-418
-409
-407
-407
-402
-396
-394
-395
-397
-398
-394
-390
-385
-379
-374
-370
-361
-349
-344
-340
-331
-321
-322
-322
-305
-284
-278
-276
-270
-263
-255
-248
-242
-232
-221
-217
-216
-207
-194
-186
-186
-183
-172
-161
-159
-158
-153
-150
-150
-143
-138
-146
-160
-174
-196
-221
-228
-206
-175
-160
-134
-91
-88
-97
-46
-45
-115
19
573
1584
2548
2177
375
-750
-201
414
220
57
158
127
77
136
157
150
179
194
196
217
240
257
279
308
342
381
417
448
483
530
581
626
667
718
777
826
856
856
790
628
401
172
-26
-186
-297
-363
-404
-427
-428
-422
-423
-422
-415
-412
-414
-412
-409
-409
-407
-405
-404
-400
-389
-381
-381
-380
-369
-358
-351
-346
-340
-329
-317
-310
-305
-298
-291
-285
-275
-271
-272
-264
-245
-234
-233
-229
-219
-212
-210
-205
-198
-195
-195
-185
-170
-163
-163
-160
-156
-153
-147
-143
-148
-158
-166
-177
-199
-226
-232
-204
-172
-159
-128
-96
-103
-82
-38
-86
-94
250
1076
2157
2487
1172
-528
-656
191
368
92
110
172
107
120
161
153
170
201
212
234
258
271
294
328
357
384
417
452
481
511
554
609
655
690
733
782
818
831
800
691
504
281
65
-110
-229
-311
-366
-392
-402
-411
-412
-407
-409
-412
-405
-395
-392
-396
-401
-400
-396
-397
-393
-380
-372
-371
-365
-357
-351
-344
-335
-325
-318
-313
-305
-296
-291
-285
-272
-259
-251
-241
-234
-236
-234
-217
-201
-197
-196
-188
-178
-172
-173
-170
-162
-156
-149
-141
-139
-142
-141
-146
-164
-181
-181
-187
-216
-226
-196
-172
-154
-112
-96
-96
-49
-55
-109
116
822
1787
2269
1360
-371
-976
-170
382
188
90
187
152
122
177
188
177
199
222
239
255
270
295
327
355
382
410
439
469
504
544
583
621
669
728
778
814
838
829
742
558
315
92
-83
-237
-355
-403
-420
-447
-460
-447
-441
-443
-437
-428
-423
-418
-420
-423
-412
-399
-400
-403
-391
-380
-383
-379
-366
-360
-359
-351
-338
-327
-315
-305
-302
-299
-291
-283
-274
-265
-256
-246
-237
-235
-235
-230
-220
-213
-213
-209
-195
-185
-187
-185
-173
-167
-166
-163
-170
-188
-202
-219
-239
-229
-189
-164
-143
-109
-103
-92
-42
-68
-112
152
928
2015
2485
1372
-387
-771
50
385
132
97
172
113
112
170
171
172
201
221
242
265
280
302
330
357
390
429
460
489
531
579
624
671
719
765
814
860
881
858
756
558
314
94
-81
-217
-304
-353
-382
-392
-392
-397
-394
-379
-375
-378
-374
-371
-376
-380
-376
-368
-366
-368
-366
-361
-358
-352
-343
-338
-337
-327
-316
-317
-315
-301
-292
-290
-283
-276
-275
-273
-266
-262
-257
-244
-232
-234
-235
-221
-209
-210
-213
-214
-224
-233
-236
-242
-239
-192
-122
-94
-120
-160
-187
-187
-182
-193
-171
-141
-199
-207
131
968
2070
2362
968
-750
-833
38
210
-60
-38
17
-51
-39
-3
-12
12
45
55
77
100
113
146
185
206
226
257
292
326
359
397
442
485
524
570
613
644
660
625
490
278
49
