# session 21
-11
-24
20
72
9
-109
-96
23
111
188
305
426
546
680
803
896
962
980
909
737
509
282
71
-127
-289
-386
-427
-438
-433
-419
-401
-384
-370
-357
-344
-335
-330
-324
-318
-316
-313
-307
-301
-298
-294
-291
-288
-283
-279
-277
-271
-263
-253
-243
-240
-237
-226
-225
-242
-251
-250
-250
-211
-124
-65
-73
-105
-133
-135
-106
-108
-117
-66
-89
-170
37
722
1796
2648
1972
-133
-1319
-649
58
-102
-233
-111
-125
-146
-68
-41
-34
18
56
80
127
176
226
289
350
405
477
569
663
754
854
952
1022
1068
1088
1034
876
659
430
204
9
-129
-233
-315
-335
-291
-263
-276
-277
-259
-264
-273
-262
-261
-271
-270
-273
-295
-306
-292
-271
-264
-272
-271
-245
-224
-227
-228
-221
-232
-240
-222
-213
-218
-198
-170
-169
-167
-155
-158
-154
-133
-138
-149
-123
-110
-132
-122
-80
-77
-115
-146
-122
-54
-32
-76
-77
-28
-40
-100
-104
-55
-41
-89
-124
-93
-56
-66
-75
-65
-88
-104
-55
-17
-37
-56
-76
-103
-87
-100
-202
-244
-168
-127
-131
-72
10
9
-65
-104
-97
-104
101
714
1368
1559
951
-405
-1377
-964
-88
81
-76
-55
-42
-21
90
117
66
75
116
132
144
178
222
244
268
347
447
512
544
578
643
728
804
884
948
929
858
808
715
533
363
220
27
-133
-165
-173
-234
-268
-249
-244
-250
-233
-223
-238
-261
-292
-303
-279
-290
-339
-337
-302
-306
-317
-310
-300
-293
-304
-325
-319
-312
-328
-306
-267
-289
-298
-225
-188
-243
-266
-216
-196
-239
-255
-201
-155
-168
-180
-156
-151
-189
-198
-148
-117
-141
-146
-118
-129
-156
-133
-99
-110
-139
-139
-109
-85
-105
-144
-145
-126
-145
-195
-209
-165
-137
-158
-128
-41
-39
-62
8
-32
-119
278
1057
1531
1398
515
-782
-1191
-399
203
60
-65
21
19
11
71
106
128
164
188
206
234
274
303
318
379
499
586
614
677
788
881
958
1034
1051
1039
1072
1032
817
574
416
247
33
-150
-254
-274
-277
-337
-370
-309
-273
-313
-312
-266
-268
-313
-343
-341
-314
-295
-300
-309
-316
-321
-322
-338
-358
-326
-277
-287
-319
-304
-274
-266
-264
-259
-258
-261
-256
-237
-223
-220
-198
-176
-193
-202
-168
-147
-150
-139
-132
-136
-131
-139
-158
-142
-99
-84
-104
-112
-89
-78
-108
-123
-84
-47
-59
-89
-95
-87
-86
-102
-132
-159
-158
-154
-177
-149
-33
11
-62
-29
37
-116
-66
628
1338
1339
640
-497
-1309
-963
-112
105
-57
7
95
45
39
80
98
130
160
157
173
237
309
347
369
418
483
524
569
664
754
802
866
939
949
921
890
804
659
485
278
90
-29
-126
-216
-251
-260
-288
-292
-267
-264
-276
-275
-278
-279
-260
-263
-298
-305
-285
-283
-301
-327
-338
-304
-272
-284
-293
-274
-268
-266
-255
-272
-281
-231
-192
-206
-211
-208
-213
-186
-157
-180
-194
-151
-113
-114
-136
-150
-137
-139
-173
-140
-66
-116
-205
-145
-83
-177
-238
-156
-117
-165
-170
-132
-107
-94
-113
-102
-26
-67
-117
282
1006
1445
1219
131
-1206
-1363
-381
155
-45
-76
78
31
-13
83
122
74
80
156
200
194
224
292
330
361
423
478
523
594
667
729
818
920
961
936
893
811
653
457
277
112
-37
-148
-217
-262
-282
-269
-249
-250
-250
-242
-256
-271
-245
-216
-233
-265
-270
-272
-290
-305
-306
-305
-313
-330
-345
-342
-328
-326
-340
-349
-339
-327
-325
-318
-305
-307
-314
-304
-286
-267
-251
-255
-243
-182
-133
-155
-220
-249
-192
-137
-203
-280
-207
-107
-118
-110
-58
-100
-128
-42
-27
33
502
1259
1827
1587
213
-1144
-1012
-96
135
-79
-45
17
-28
8
52
40
72
122
133
136
135
146
228
339
384
391
444
523
570
611
678
732
759
786
786
739
662
536
361
193
60
-56
-163
-227
-213
-179
-198
-219
-204
-222
-268
-257
-225
-238
-258
-278
-338
-353
-274
-237
-288
-330
-353
-354
-294
-245
-273
-322
-355
-356
-304
-268
-280
-262
-227
-255
-294
-265
-213
-202
-224
-229
-216
-226
-205
-102
-31
-81
-155
-155
-134
-154
-146
-92
-126
-108
345
1171
1790
1508
94
-1335
-1353
-447
-23
-97
-98
-101
-135
-49
19
-10
-16
15
59
131
187
205
206
210
278
402
465
474
561
694
724
689
755
884
899
799
672
518
354
195
-8
-182
-207
-182
-237
-293
-280
-264
-276
-279
-273
-271
-272
-276
-279
-278
-270
-268
-292
-330
-330
-285
-262
-301
-346
-336
-316
-329
-332
-329
-346
-298
-183
-160
-231
-256
-237
-235
-262
-292
-217
-108
-198
-231
264
1117
1805
1715
402
-1099
-1146
-247
25
-215
-204
-124
-175
-152
-80
-66
-30
31
39
41
100
144
135
184
313
388
411
493
585
630
695
767
785
805
825
743
559
362
195
49
-87
-211
-309
-358
-323
-242
-246
-333
-337
-252
-213
-244
-301
-353
-320
-231
-235
-309
-318
-288
-302
-311
-277
-248
-249
-266
-290
-287
-254
-249
-275
-276
-227
-153
-106
-118
-176
-246
-242
-152
-135
-187
-142
-131
-232
-38
599
1339
1817
1342
-264
-1388
-870
-28
-30
-212
-129
-112
-138
-73
-56
-63
-6
36
53
113
167
177
206
280
351
388
422
494
584
648
686
710
741
791
799
697
525
360
220
87
-39
-139
-208
-246
-261
-268
-275
-265
-247
-257
-281
-271
-253
-275
-293
-273
-277
-305
-275
-234
-266
-303
-286
-270
-249
-211
-229
-284
-277
-225
-187
-183
-236
-289
-263
-223
-231
-235
-194
-128
-86
-81
-74
-114
-225
-243
-155
-141
-104
29
-12
-81
325
1074
1644
1559
359
-1181
-1331
-325
74
-174
-116
-11
-182
-144
122
163
36
16
76
123
145
157
202
273
298
310
387
497
570
595
616
680
741
738
733
732
622
431
293
174
-9
-175
-213
-199
-250
-298
-255
-233
-288
-293
-228
-207
-248
-292
-296
-255
-238
-295
-339
-301
-266
-301
-318
-280
-275
-313
-329
-344
-343
-277
-243
-304
-320
-256
-267
-330
-313
-287
-335
-326
-202
-112
-124
-160
-188
-202
-194
-199
-176
-78
-76
-194
-28
577
1374
2029
1733
140
-1142
-789
-23
-48
-228
-119
-93
-144
-96
-39
13
67
63
68
134
179
191
228
297
375
437
456
483
564
639
670
711
758
755
724
673
558
399
242
92
-19
-80
-147
-208
-215
-207
-218
-221
-224
-241
-247
-260
-285
-265
-214
-207
-229
-240
-248
-240
-215
-216
-231
-222
-218
-226
-204
-177
-186
-200
-195
-192
-194
-192
-194
-197
-191
-189
-191
-177
-158
-160
-166
-154
-146
-154
-161
-166
-168
-145
-102
-88
-111
-124
-115
-122
-143
-151
-173
-212
-208
-163
-134
-99
-62
-76
-61
-11
-76
-44
452
1230
1827
1709
480
-921
-994
-187
69
-130
-105
-28
-71
-50
3
4
22
49
42
50
98
146
184
223
261
298
346
402
462
526
581
625
672
715
729
725
681
556
389
252
134
6
-101
-160
-185
-194
-213
-252
-270
-248
-230
-236
-240
-246
-255
-245
-247
-283
-299
-275
-265
-279
-281
-275
-273
-271
-269
-266
-258
-248
-242
-242
-238
-228
-220
-220
-214
-200
-203
-217
-210
-190
-181
-176
-167
-163
-162
-156
-151
-148
-136
-123
-130
-144
-140
-130
-139
-166
-194
-215
-233
-223
-175
-130
-101
-74
-85
-86
-15
-26
-108
107
722
1562
2298
1946
254
-946
-525
102
-28
-171
-54
-64
-108
-41
-12
-23
7
39
57
86
124
168
210
242
278
330
387
443
505
562
609
662
722
759
755
711
617
476
325
184
46
-72
-146
-187
-221
-243
-247
-251
-259
-262
-262
-268
-275
-282
-287
-289
-288
-289
-291
-299
-303
-288
-269
-269
-272
-265
-262
-266
-261
-249
-241
-237
-237
-243
-240
-223
-211
-211
-211
-203
-196
-194
-189
-178
-170
-168
-165
-164
-161
-147
-131
-129
-132
-129
-116
-101
-98
-108
-110
-104
-114
-146
-177
-196
-211
-212
-180
-146
-123
-82
-61
-80
-43
-7
-83
-12
470
1279
2170
2301
920
-695
-771
-28
66
-157
-99
-57
-113
-75
-31
-33
-1
32
39
67
108
137
166
206
256
305
344
386
445
501
546
589
626
648
661
653
589
475
347
226
108
0
-83
-137
-176
-197
-200
-198
-206
-214
-220
-224
-219
-221
-237
-235
-215
-222
-231
-212
-235
-288
-253
-183
-187
-196
-172
-191
-218
-211
-233
-264
-249
-237
-240
-194
-123
-97
-107
-115
-114
-110
-118
-129
-126
-119
-113
-99
-87
-104
-139
-148
-121
-101
-118
-151
-181
-186
-152
-125
-131
-142
-150
-169
-188
-198
-214
-242
-244
-205
-174
-173
-169
-150
-116
-112
-162
-34
494
1241
1823
1659
380
-951
-938
-195
-26
-180
-84
-16
-81
-42
29
22
29
53
50
88
169
202
225
309
373
374
403
469
498
521
593
671
712
736
750
727
642
514
372
224
91
-2
-67
-120
-157
-177
-184
-190
-197
-187
-192
-247
-272
-205
-152
-188
-235
-240
-239
-247
-262
-281
-276
-240
-210
-206
-224
-249
-264
-262
-244
-219
-222
-250
-253
-212
-175
-181
-206
-193
-165
-176
-192
-170
-156
-165
-155
-136
-140
-143
-128
-123
-136
-111
-65
-97
-167
-144
-82
-98
-140
-152
-193
-236
-203
-156
-178
-178
-96
-69
-100
-55
-41
-106
62
671
1730
2782
2483
554
-854
-503
72
-106
-246
-115
-129
-182
-138
-122
-100
-44
-38
-35
30
77
77
112
176
191
205
300
397
423
449
503
539
577
628
635
583
497
383
247
105
-20
-117
-191
-225
-219
-234
-279
-282
-260
-273
-279
-243
-239
-287
-295
-274
-315
-343
-270
-227
-281
-302
-277
-291
-297
-269
-291
-338
-309
-245
-243
-285
-295
-257
-225
-246
-274
-248
-203
-216
-270
-271
-215
-188
-199
-201
-199
-191
-163
-153
-159
-144
-140
-165
-173
-169
-193
-225
-227
-202
-163
-116
-83
-75
-36
16
11
93
479
1256
2298
2658
1325
-535
-849
-65
157
-55
5
71
-11
12
66
35
48
116
138
148
183
226
299
375
368
318
326
374
415
450
466
475
520
571
584
564
499
392
285
176
53
-33
-86
-166
-251
-256
-197
-170
-192
-196
-179
-205
-251
-240
-207
-226
-260
-254
-243
-265
-279
-263
-261
-285
-300
-302
-300
-276
-236
-224
-245
-256
-249
-259
-273
-265
-262
-274
-258
-220
-213
-225
-213
-212
-237
-223
-171
-167
-201
-197
-163
-157
-185
-204
-198
-208
-238
-236
-227
-226
-163
-100
-141
-152
-69
-55
-16
357
1154
2095
2202
751
-897
-945
-113
60
-162
-114
-53
-121
-129
-84
-29
45
67
47
66
94
96
131
196
232
254
296
336
373
422
453
464
493
524
528
513
458
360
266
183
88
9
-43
-84
-105
-109
-117
-124
-132
-143
-137
-129
-146
-161
-166
-183
-194
-184
-192
-215
-208
-191
-201
-212
-211
-223
-232
-215
-201
-213
-224
-214
-201
-202
-208
-198
-180
-181
-188
-176
-162
-163
-164
-156
-149
-145
-147
-148
-143
-152
-171
-178
-182
-194
-186
-134
-83
-75
-59
-30
-82
-99
184
808
1653
2183
1399
-372
-1167
-477
117
-23
-145
-55
-49
-84
-68
-30
24
43
19
46
109
120
113
162
227
248
255
284
323
365
413
443
452
471
484
456
408
349
267
178
92
-8
-92
-116
-105
-121
-166
-187
-172
-155
-144
-130
-143
-185
-199
-188
-200
-206
-184
-185
-210
-217
-213
-201
-178
-193
-233
-229
-206
-207
-190
-170
-203
-231
-209
-214
-251
-229
-180
-186
-205
-187
-181
-210
-212
-171
-161
-201
-219
-197
-166
-124
-93
-111
-135
-127
-94
-32
-4
-77
-52
362
1173
1979
1891
455
-1056
-1105
-294
-4
-143
-122
-68
-114
-110
-64
-57
-50
1
56
60
55
98
149
179
216
250
271
306
351
390
442
492
503
503
533
525
416
294
239
176
56
-50
-111
-157
-178
-164
-166
-194
-204
-185
-163
-159
-184
-219
-225
-206
-195
-200
-207
-215
-235
-268
-289
-269
-226
-213
-239
-256
-249
-244
-265
-300
-305
-263
-214
-178
-138
-128
-175
-206
-193
-206
-208
-147
-157
-207
0
567
1430
2180
1717
-60
-1188
-661
8
-105
-228
-112
-136
-168
-81
-70
-98
-44
7
23
58
81
95
151
223
251
261
314
395
430
442
507
573
558
533
547
501
360
222
118
5
-100
-160
-196
-226
-229
-207
-190
-188
-196
-201
-201
-218
-235
-220
-212
-248
-261
-219
-204
-253
-279
-249
-246
-281
-268
-226
-249
-300
-296
-285
-311
-288
-195
-139
-151
-188
-236
-243
-197
-197
-208
-157
-174
-202
75
732
1660
2296
1516
-338
-1146
-453
40
-186
-276
-151
-174
-207
-138
-110
-127
-104
-56
-19
27
94
139
141
160
229
278
289
333
404
442
467
501
506
489
468
402
280
169
86
3
-75
-141
-193
-202
-180
-182
-204
-212
-215
-224
-227
-222
-220
-210
-192
-202
-245
-260
-237
-242
-261
-231
-184
-176
-197
-232
-264
-258
-236
-237
-249
-266
-286
-260
-178
-104
-84
-116
-184
-208
-153
-129
-157
-128
-107
-135
27
559
1473
2337
1968
194
-1035
-631
22
-17
-125
-56
-91
-143
-101
-56
-29
-20
-19
19
72
105
130
148
174
238
298
312
327
366
405
445
488
506
493
460
405
332
240
130
50
15
-37
-101
-122
-126
-139
-126
-119
-145
-147
-138
-175
-188
-147
-150
-191
-193
-190
-210
-215
-204
-197
-192
-201
-211
-204
-204
-216
-201
-168
-178
-219
-217
-173
-151
-158
-161
-157
-163
-187
-193
-151
-120
-147
-152
-111
-105
-133
-130
-117
-127
-134
-131
-142
-177
-213
-206
-169
-152
-144
-123
-89
-34
-43
-143
-66
376
1104
1919
2017
688
-854
-904
-133
14
-199
-163
-130
-185
-140
-98
-127
-110
-75
-87
-69
-12
-5
-23
22
85
111
132
