# session 39
-66
-87
-48
22
-39
-224
-305
-264
-259
-281
-271
-262
-267
-262
-256
-254
-247
-244
-242
-233
-226
-222
-218
-212
-208
-209
-214
-221
-227
-233
-237
-220
-161
-90
-71
-111
-160
-175
-158
-157
-172
-142
-123
-178
-113
324
1227
2236
2148
472
-957
-615
228
224
-2
75
93
31
74
107
90
109
140
156
181
206
228
258
286
301
324
358
386
411
444
477
504
533
563
587
607
615
581
481
315
117
-65
-208
-315
-383
-416
-431
-435
-428
-422
-418
-414
-412
-412
-408
-404
-402
-400
-401
-407
-403
-391
-390
-390
-379
-369
-369
-363
-349
-339
-335
-335
-339
-333
-308
-267
-212
-171
-183
-224
-250
-255
-244
-237
-243
-222
-203
-231
-117
422
1402
2204
1712
-56
-1200
-674
141
158
-6
61
70
30
74
100
97
127
156
168
191
219
246
277
305
334
367
400
434
470
507
548
593
635
669
701
731
731
651
477
253
40
-138
-278
-369
-416
-440
-450
-444
-434
-426
-413
-398
-391
-386
-373
-364
-367
-373
-374
-380
-385
-377
-371
-378
-387
-396
-406
-401
-390
-391
-387
-349
-280
-221
-215
-246
-271
-282
-273
-253
-253
-234
-190
-225
-252
35
832
1965
2443
1269
-483
-784
20
263
-6
-15
57
0
8
55
52
68
101
116
139
168
191
220
254
282
315
353
391
433
477
521
571
627
679
722
759
770
709
545
310
75
-118
-264
-363
-418
-443
-449
-444
-442
-441
-435
-430
-427
-422
-417
-415
-415
-412
-409
-406
-403
-401
-398
-391
-386
-383
-376
-373
-379
-379
-372
-348
-284
-224
-234
-279
-299
-295
-277
-268
-273
-243
-222
-279
-249
153
1135
2353
2452
812
-706
-507
204
143
-82
-3
11
-45
-3
25
22
58
83
92
126
159
180
214
253
281
310
350
390
430
475
523
569
616
665
707
729
710
615
430
200
-11
-176
-294
-368
-404
-419
-423
-423
-421
-415
-406
-400
-400
-401
-399
-396
-392
-388
-385
-383
-381
-375
-369
-363
-354
-344
-337
-329
-321
-313
-304
-296
-294
-294
-291
-292
-299
-304
-288
-228
-154
-132
-163
-194
-208
-200
-179
-181
-176
-134
-155
-207
-37
624
1854
2804
2017
27
-769
-52
346
65
-9
86
33
21
76
74
85
126
138
153
190
218
241
269
299
331
366
394
422
459
498
537
580
625
666
704
733
719
620
445
241
51
-104
-215
-291
-335
-352
-360
-372
-376
-370
-368
-370
-369
-370
-374
-372
-368
-366
-364
-364
-361
-351
-343
-341
-334
-322
-313
-306
-295
-288
-285
-276
-263
-256
-256
-250
-239
-230
-225
-219
-212
-205
-197
-189
-185
-185
-181
-174
-165
-158
-155
-151
-143
-137
-135
-129
-123
-130
-142
-149
-160
-184
-205
-211
-198
-171
-140
-107
-85
-97
-95
-39
-45
-106
37
599
1647
2618
2167
330
-707
-114
437
207
61
161
127
92
147
149
139
169
185
193
219
238
253
280
304
320
340
362
381
401
423
450
477
504
535
570
597
614
607
544
413
247
85
-58
-170
-245
-297
-335
-353
-357
-360
-366
-369
-371
-376
-381
-381
-383
-390
-393
-387
-381
-379
-375
-367
-356
-344
-337
-335
-326
-313
-305
-296
-281
-273
-274
-269
-258
-251
-246
-237
-230
-227
-221
-212
-205
-200
-193
-191
-190
-182
-172
-168
-166
-160
-153
-149
-148
-148
-142
-136
-140
-150
-154
-165
-190
-210
-211
-196
-170
-138
-100
-79
-91
-71
-19
-58
-92
183
919
1993
2544
1484
-311
-713
123
436
152
120
198
132
131
183
176
187
219
224
234
260
272
288
318
342
359
379
400
422
447
467
485
511
542
568
593
615
621
588
494
339
161
0
-129
-226
-294
-332
-349
-356
-362
-366
-368
-366
-365
-370
-376
-376
-373
-375
-377
-373
-367
-363
-360
-354
-345
-339
-333
-325
-315
-306
-295
-284
-275
-268
-261
-253
-246
-239
-229
-222
-220
-214
-202
-195
-192
-184
-180
-184
-182
-171
-162
-160
-154
-146
-144
-146
-144
-136
-132
-132
-128
-125
-133
-145
-153
-158
-176
-211
-221
-187
-152
-129
-96
-85
-92
-51
-36
-93
36
612
1591
2381
1876
120
-933
-347
366
266
105
192
178
135
186
202
194
222
236
243
270
286
292
320
356
381
398
417
441
468
490
519
562
600
622
646
672
692
688
620
459
251
67
-83
-213
-305
-353
-375
-382
-382
-387
-390
-380
-371
-374
-373
-369
-368
-368
-367
-371
-373
-365
-364
-375
-374
-353
-341
-353
-356
-329
-305
-306
-305
-287
-271
-263
-258
-253
-247
-241
-236
-226
-214
-205
-193
-180
-174
-173
-171
-165
-158
-155
-159
-170
-171
-144
-111
-111
-136
-148
-144
-145
-149
-169
-204
-207
-170
-147
-123
-84
-82
-72
-26
-72
-39
504
1386
1811
1206
-135
-1014
-646
135
313
176
207
234
185
206
242
229
236
268
278
272
285
328
368
375
377
410
455
481
504
540
569
596
644
695
728
757
784
771
668
475
249
52
-108
-237
-323
-364
-384
-395
-394
-382
-369
-363
-361
-355
-347
-345
-344
-341
-342
-344
-344
-347
-351
-346
-342
-346
-350
-344
-341
-342
-336
-325
-317
-313
-308
-302
-296
-286
-276
-271
-266
-254
-244
-238
-233
-240
-257
-262
-260
-249
-203
-137
-117
-151
-192
-200
-182
-185
-188
-146
-157
-228
-69
542
1507
2206
1628
12
-789
-206
289
104
-10
77
49
21
70
74
70
106
128
138
164
190
216
247
277
309
346
383
423
474
528
580
636
695
753
808
846
844
758
568
316
72
-134
-290
-392
-448
-475
-479
-471
-465
-460
-450
-440
-432
-424
-417
-415
-413
-407
-404
-402
-397
-392
-389
-387
-383
-379
-371
-360
-351
-346
-341
-335
-329
-323
-322
-329
-335
-338
-329
-283
-204
-157
-174
-209
-224
-214
-193
-194
-193
-148
-152
-215
-100
433
1476
2480
2112
337
-742
-220
334
135
-9
93
70
33
85
99
102
140
159
171
203
233
255
283
315
346
382
418
456
502
554
607
661
717
771
820
853
838
733
532
283
50
-136
-271
-357
-401
-418
-421
-417
-409
-400
-392
-387
-382
-375
-371
-368
-365
-363
-363
-361
-357
-352
-347
-344
-346
-343
-333
-327
-321
-304
-288
-285
-284
-279
-271
-261
-251
-244
-237
-226
-219
-212
-204
-194
-187
-178
-171
-171
-166
-158
-155
-152
-145
-140
-130
-130
-159
-162
-119
-115
-168
-212
-226
-204
-148
-124
-132
-121
-124
-114
-27
-8
-87
72
696
1665
2336
1680
19
-712
-47
430
193
71
174
159
130
162
153
142
182
225
241
243
247
260
287
328
366
373
371
410
478
524
548
583
627
667
706
744
762
736
637
462
252
62
-93
-215
-296
-339
-368
-385
-389
-393
-400
-400
-396
-398
-402
-406
-410
-410
-408
-407
-405
-399
-394
-391
-387
-382
-374
-365
-357
-348
-339
-329
-319
-310
-303
-297
-288
-279
-271
-262
-253
-248
-241
-229
-218
-213
-208
-200
-190
-185
-180
-172
-165
-161
-157
-150
-141
-140
-151
-163
-172
-185
-203
-211
-200
-182
-159
-115
-84
-96
-78
-29
-73
-95
228
1037
2073
2360
1089
-523
-622
212
389
116
129
187
117
128
172
161
174
205
212
228
255
271
289
319
348
372
396
422
452
482
509
537
569
600
626
650
671
668
610
484
311
129
-27
-149
-243
-301
-325
-338
-351
-358
-358
-351
-340
-336
-342
-353
-359
-360
-371
-385
-376
-369
-380
-371
-345
-347
-358
-348
-330
-299
-281
-308
-318
-276
-264
-284
-263
-234
-234
-228
-236
-274
-260
-192
-162
-171
-172
-175
-181
-178
-168
-156
-157
-167
-152
-128
-136
-156
-152
-135
-136
-166
-182
-163
-176
-226
-222
-184
-173
-137
-88
-84
-69
-58
-114
-41
384
1208
2173
2217
712
-731
-494
330
341
86
145
177
123
152
175
175
203
197
190
246
288
281
293
325
336
345
377
406
420
441
474
502
522
543
570
606
630
618
558
442
274
91
-58
-166
-254
-323
-353
-354
-355
-356
-352
-356
-368
-368
-360
-360
-365
-369
-368
-362
-358
-359
-356
-348
-343
-340
-332
-325
-320
-311
-298
-292
-289
-280
-270
-265
-257
-244
-238
-237
-229
-220
-214
-207
-199
-194
-185
-177
-178
-172
-158
-155
-157
-149
-145
-148
-144
-137
-143
-158
-169
-173
-185
-208
-217
-208
-186
-141
-110
-114
-82
-51
-106
-64
310
1099
2114
2309
862
-733
-621
276
375
109
161
202
130
158
201
192
209
234
238
252
278
300
308
311
334
369
385
395
415
431
441
460
480
490
499
517
533
529
483
380
231
78
-49
-153
-232
-282
-308
-323
-328
-327
-328
-334
-337
-330
-323
-328
-338
-341
-340
-344
-344
-332
-324
-325
-323
-317
-312
-305
-294
-290
-290
-282
-271
-261
-253
-250
-248
-238
-228
-226
-222
-213
-208
-207
-203
-195
-185
-178
-174
-170
-163
-159
-152
-146
-145
-142
-142
-164
-185
-178
-166
-160
-130
-96
-97
-101
-90
-104
-96
-46
-80
-118
113
732
1718
2400
1545
-333
-967
-100
397
139
62
161
106
89
144
137
135
170
182
192
220
239
252
274
295
314
336
358
376
392
410
427
441
455
468
475
483
496
479
398
265
115
-27
-142
-227
-283
-318
-339
-351
-354
-352
-353
-356
-354
-354
-363
-366
-357
-354
-364
-368
-360
-356
-354
-353
-354
-351
-339
-330
-325
-316
-307
-303
-297
-289
-288
-290
-291
-293
-294
-285
-255
-192
-133
-131
-179
-218
-213
-193
-205
-208
-161
-170
-222
-55
494
1450
2331
1860
-12
-1097
-423
295
134
-24
85
62
17
72
86
78
114
144
160
184
207
234
267
295
319
345
373
406
442
471
506
549
583
605
630
652
644
572
412
199
2
-157
-289
-382
-423
-438
-449
-448
-435
-428
-425
-412
-396
-391
-391
-389
-389
-387
-382
-376
-373
-374
-373
-362
-347
-340
-340
-339
-331
-322
-325
-332
-322
-288
-238
-193
-180
-208
-245
-248
-226
-230
-236
-190
-181
-236
-129
368
1355
2395
2151
315
-1012
-523
250
153
-44
49
47
-6
40
63
58
89
113
128
158
190
216
244
271
300
332
364
402
444
487
526
564
601
635
668
695
685
594
418
197
-12
-183
-310
-394
-438
-457
-461
-456
-448
-443
-434
-422
-413
-409
-405
-401
-394
-386
-381
-381
-378
-375
-370
-360
-350
-345
-349
-355
-349
-316
-268
-221
-199
-215
-256
-286
-280
-260
-266
-260
-211
-226
-279
-68
627
1677
2296
1417
-391
-1054
-280
244
62
-16
69
28
18
72
68
69
113
136
152
187
215
235
260
290
327
350
363
409
474
508
533
575
616
653
682
682
640
523
306
56
-137
-281
-388
-437
-461
-486
-472
-435
-430
-440
-430
-419
-409
-389
-379
-384
-384
-378
-376
-375
-373
-367
-358
-349
-336
-327
-331
-333
-305
-247
-198
-197
-234
-267
-269
-250
-249
-259
-214
-183
-251
-133
483
1360
1825
1216
-234
-1076
-571
160
197
15
34
79
83
89
71
71
125
176
181
172
190
222
251
306
359
349
354
450
521
505
536
624
632
608
673
737
682
519
290
82
-38
-146
-277
-365
-421
-479
-467
-371
-302
-331
-382
-368
-324
-318
-331
-312
-269
-252
-302
-369
-357
-299
-301
-313
-262
-248
-315
-332
-262
-199
-181
-197
-206
-172
-177
-253
-277
-238
-215
-187
-203
-231
113
921
1566
1372
284
-854
-959
-238
163
56
18
83
56
39
76
88
93
113
135
161
183
196
219
258
289
312
341
375
407
443
488
534
570
597
623
646
626
524
359
169
-20
-176
-276
-345
-398
-418
-409
-397
-391
-385
-375
-361
-340
-330
-341
-351
-338
-322
-323
-322
-314
-314
-318
-313
-307
-303
-292
-279
-274
-267
-248
-216
-176
-158
-183
-215
-217
-206
-194
-189
-208
-191
-146
-186
-150
288
1004
1476
1182
80
-852
-672
12
192
61
81
116
87
111
141
137
152
179
196
219
245
264
290
320
347
376
409
448
492
537
576
623
681
733
775
804
778
650
436
201
-5
-164
-270
-327
-355
-370
-377
-372
-359
-347
-339
-329
-321
-320
-321
-318
-317
-318
-315
-310
-312
-313
-306
-299
-295
-291
-283
-277
-274
-270
-264
-260
-257
-251
-247
-242
-233
-226
-221
-215
-208
-201
-188
-180
-180
-173
-164
-161
-154
-148
-151
-148
-136
-142
-158
-171
-194
-215
-207
-191
-176
-148
-129
-122
-95
-84
-85
-38
-43
-128
-3
529
1451
2404
2309
815
-379
-123
370
198
20
104
92
48
95
111
103
132
156
167
190
213
233
260
289
317
346
376
410
451
493
539
592
647
699
751
799
819
777
650
448
222
23
-131
-249
-331
-379
-403
-413
-414
-416
-414
-406
-401
-404
-408
-412
-417
-413
-405
-404
-405
-402
-395
-388
-382
-377
-369
-361
-354
-348
-341
-334
-326
-320
-315
-306
-299
-297
-292
-281
-273
-269
-265
-261
-253
-244
-240
-242
-238
-231
-227
-223
-218
-215
-213
-212
-210
-204
-203
-211
-219
-235
-271
-291
-269
-247
-239
-205
-166
-155
-141
-134
-141
-101
-85
-165
-102
378
1315
2351
2394
953
-380
-236
322
202
-18
56
70
23
64
84
74
104
130
139
168
202
223
249
281
314
348
383
420
460
501
546
599
651
699
749
795
814
785
684
505
287
84
-75
-190
-269
-318
-342
-349
-345
-338
-332
-324
-314
-309
-305
-297
-293
-292
-286
-276
-268
-261
-250
-242
-232
-219
-206
-195
-184
-174
-166
-158
-150
-142
-132
-122
-115
-109
-104
-97
-88
-81
-73
-63
-53
-46
-40
-37
-36
-33
-28
-24
-20
-17
-14
-11
-8
-8
-7
-6
-9
-12
-8
-8
-23
-38
-51
-82
-118
-124
-113
-104
-81
-59
-54
-49
-56
-58
-12
-30
-122
70
770
1738
2395
1884
27
