# session 8
-67
-70
-40
-30
-150
-353
-478
-548
-675
-803
-853
-838
-779
-729
-747
-781
-748
-653
-586
-608
-612
-497
-392
-403
-431
-434
-464
-471
-420
-383
-388
-435
-475
-393
-256
-262
-338
-335
-418
-601
-482
-102
-66
-354
-364
-185
-235
-271
-81
-10
-117
-140
-143
-204
-178
-136
-191
-193
-127
-118
48
676
1577
1937
999
-574
-1098
-322
438
611
634
682
712
771
777
694
678
765
803
764
778
853
900
964
1057
1068
1047
1113
1146
1079
1047
1004
779
497
350
231
41
-82
-78
-88
-199
-337
-393
-368
-364
-422
-450
-399
-384
-508
-665
-706
-698
-783
-869
-839
-846
-939
-921
-886
-1065
-1204
-1020
-791
-847
-1012
-879
-415
-135
-382
-704
-586
-303
-343
-546
-527
-390
-310
7
744
1323
886
-524
-1580
-1268
-377
-52
-89
-2
18
-32
153
427
495
506
641
739
752
848
981
1070
1231
1417
1480
1439
1267
1085
1198
1325
987
541
419
332
98
-93
-257
-356
-192
27
6
-74
-69
-172
-342
-319
-192
-222
-323
-282
-202
-203
-103
31
-210
-656
-699
-410
-254
-271
-349
-462
-506
-498
-572
-666
-646
-544
-532
-614
-466
13
545
1049
1112
11
-1346
-1297
-437
-167
-179
-129
-385
-502
-118
71
-141
-198
-68
-33
-30
28
114
250
378
447
533
610
589
562
623
664
606
485
330
203
187
267
341
363
373
374
324
305
382
360
170
81
127
42
-123
-135
-34
37
11
-117
-212
-182
-113
-30
77
86
7
-10
2
-17
-7
-27
-94
42
504
1089
1367
693
-884
-1946
-1543
-644
-378
-531
-568
-488
-456
-517
-583
-539
-478
-538
-532
-281
-86
-179
-193
104
316
254
249
313
167
-22
-24
-96
-365
-550
-600
-720
-850
-825
-730
-684
-660
-634
-622
-598
-539
-485
-437
-361
-285
-248
-206
-135
-59
38
154
259
368
473
515
499
465
462
533
552
434
452
767
1275
1999
2320
1184
-492
-692
166
404
190
297
460
436
406
413
472
581
639
683
776
842
874
961
1073
1138
1157
1119
1000
820
561
236
-21
-158
-308
-499
-599
-587
-563
-555
-536
-554
-682
-837
-854
-768
-761
-774
-621
-428
-434
-569
-729
-929
-976
-778
-610
-537
-399
-365
-545
-612
-496
-513
-525
-177
392
1093
1740
1240
-511
-1415
-583
267
257
205
377
474
523
548
564
699
838
856
904
993
973
938
1010
1060
1031
1035
1056
1027
975
831
537
278
200
167
53
-86
-181
-204
-139
-48
-51
-168
-281
-290
-232
-221
-308
-440
-547
-650
-767
-840
-893
-1018
-1122
-1083
-1029
-1062
-1116
-1197
-1308
-1360
-1335
-1240
-1020
-466
531
952
-392
-2206
-2250
-1136
-765
-1077
-1201
-1068
-869
-780
-853
-836
-691
-628
-606
-530
-463
-374
-216
-83
1
91
164
217
274
257
126
-27
-139
-211
-228
-212
-202
-157
-47
20
-30
-77
-50
-38
-26
47
20
-144
-167
-24
-7
-106
-90
30
128
143
60
21
149
325
391
372
460
814
1397
2077
2344
1414
-130
-519
311
800
657
665
820
805
769
828
914
1008
1095
1171
1283
1457
1692
1915
2045
2151
2253
2308
2409
2463
2261
2141
2330
2163
1456
1086
1156
859
215
-242
-527
-604
-260
129
123
-49
-119
-191
-274
-260
-212
-226
-245
-202
-151
-146
-151
-159
-154
-15
170
188
276
699
1366
2645
4307
4230
1859
150
582
1157
784
301
89
100
226
73
-259
-367
-427
-603
-658
-648
-805
-1014
-1134
-1265
-1471
-1672
-1813
-1968
-2267
-2714
-3165
-3491
-3688
-3877
-4109
-4245
-4225
-4240
-4393
-4514
-4535
-4603
-4701
-4681
-4575
-4464
-4364
-4320
-4202
-3754
-3126
-2729
-2603
-2489
-2373
-2380
-2231
-1631
-998
-829
-825
-496
190
1231
2388
2524
1119
-110
393
1589
2076
2182
2455
2679
2742
2828
2967
3035
3031
3129
3311
3303
3125
3130
3327
3301
2898
2461
2354
2548
2704
2575
2288
2005
1637
1286
1266
1422
1380
1302
1474
1677
1623
1418
1299
1308
1342
1324
1283
1262
1219
1128
1098
1199
1211
934
638
601
621
530
452
360
350
782
1460
1664
1025
-272
-1393
-1386
-602
-199
-263
-290
-479
-876
-864
-436
-247
-288
-164
-52
-140
-195
-134
12
278
417
238
31
-9
-53
-172
-308
-462
-609
-730
-838
-882
-869
-910
-1025
-1176
-1363
-1498
-1550
-1698
-1936
-1915
-1557
-1229
-1110
-1031
-932
-863
-758
-679
-798
-978
-988
-905
-876
-921
-932
-697
-172
588
1365
1170
-425
-1667
-1193
-287
-169
-268
-176
-165
-199
-166
-96
66
202
150
113
273
450
517
563
640
687
659
614
567
375
88
-57
-203
-584
-954
-1078
-1052
-907
-719
-686
-733
-781
-1018
-1283
-1175
-948
-1054
-1228
-1135
-1020
-1024
-912
-703
-633
-630
-520
-395
-330
-174
41
131
243
635
1431
2576
3056
1760
-40
-221
648
901
735
842
954
895
885
899
859
884
980
965
845
873
1086
1210
1138
1071
1137
1236
1221
1058
896
883
892
753
574
490
434
384
398
403
322
214
119
9
-92
-184
-311
-408
-387
-329
-349
-432
-513
-600
-709
-778
-826
-895
-842
-719
-834
-933
-612
-103
715
1875
1684
-558
-2225
-1693
-733
-539
-476
-448
-654
-701
-536
-465
-429
-307
-199
-136
-43
113
330
560
721
795
842
883
891
853
752
604
468
346
211
117
83
48
11
-6
-54
-153
-261
-316
-256
-195
-299
-394
-312
-299
-419
-350
-191
-292
-442
-359
-275
-285
-206
-170
-250
-95
427
1158
1695
1083
-639
-1531
-794
-98
-290
-446
-298
-316
-395
-337
-301
-303
-254
-216
-172
-62
8
26
116
232
285
318
302
204
123
8
-276
-525
-492
-393
-512
-693
-703
-627
-602
-599
-580
-564
-548
-507
-439
-370
-288
-163
-60
-37
-14
44
69
90
140
162
180
223
251
326
528
1101
2461
3698
2811
354
-745
-104
238
-22
-5
85
5
86
208
116
70
247
424
491
578
712
807
863
903
912
906
876
779
668
567
349
24
-204
-298
-405
-538
-605
-623
-662
-722
-789
-865
-902
-858
-814
-852
-890
-864
-886
-943
-830
-603
-547
-687
-832
-838
-669
-543
-665
-777
-494
342
1504
1791
233
-1615
-1649
-653
-343
-469
-338
-199
-161
-35
84
136
216
303
399
570
718
772
894
1119
1258
1290
1317
1270
1110
975
880
708
489
323
178
41
-29
-43
-31
-13
-73
-171
-143
-62
-117
-205
-169
-94
-90
-137
-162
-124
-83
-99
-142
-169
-148
-142
-208
-32
566
958
510
-614
-1731
-1996
-1239
-478
-433
-610
-580
-534
-539
-520
-472
-327
-161
-140
-110
67
207
229
216
213
328
504
478
309
225
159
17
-125
-237
-315
-338
-359
-371
-292
-137
14
118
144
114
115
165
186
154
150
227
318
349
332
279
185
98
83
175
284
241
133
187
611
1712
2805
2049
-262
-1310
-454
237
132
93
79
-159
-203
26
145
119
135
198
288
429
546
561
520
494
495
463
331
135
-36
-183
-349
-512
-628
-693
-734
-772
-801
-824
-878
-964
-1002
-942
-902
-1006
-1081
-890
-657
-713
-857
-787
-693
-792
-910
-872
-724
-592
-619
-719
-541
7
768
1474
1294
-97
-1163
-723
105
239
169
291
383
444
568
672
749
838
899
921
952
996
1002
972
971
1018
1051
1035
1010
1026
1008
810
525
417
414
274
136
178
208
120
72
88
74
56
41
-29
-99
-86
-75
-139
-152
-91
-124
-241
-311
-374
-469
-579
-695
-563
8
582
547
-322
-1612
-2203
-1591
-842
-799
-921
-775
-650
-607
-491
-417
-449
-430
-330
-257
-169
2
142
170
191
262
320
350
379
388
353
277
186
124
98
66
13
-33
-43
4
80
118
123
149
185
176
144
134
124
101
87
67
19
-62
-186
-262
-203
-189
-274
-88
499
1237
1799
1420
-99
-1136
-640
64
9
-101
14
-18
-100
-65
-19
24
69
86
155
266
337
434
599
691
671
644
609
507
382
262
106
-74
-220
-333
-445
-537
-554
-498
-482
-578
-645
-542
-397
-411
-526
-581
-599
-649
-637
-539
-529
-605
-591
-534
-511
-442
-442
-518
-273
441
1431
2232
1772
37
-967
-380
225
109
66
217
192
149
198
214
246
318
339
348
393
422
444
484
486
464
493
545
563
568
573
543
476
411
371
325
257
184
100
1
-63
-97
-171
-231
-205
-197
-255
-295
-346
-424
-415
-365
-393
-431
-425
-391
-333
-352
-366
-61
501
1035
1208
359
-1209
-1788
-1041
-500
-633
-683
-576
-576
-552
-481
-478
-480
-409
-282
-128
1
81
172
302
408
457
481
504
503
439
326
243
191
96
-8
-40
-31
-34
-44
-70
-104
-110
-109
-134
-170
-203
-230
-240
-230
-226
-249
-275
-294
-341
-367
-330
-364
-394
-76
522
1018
1111
385
-851
-1285
-672
-184
-204
-211
-91
23
99
123
216
389
440
396
450
580
668
718
760
798
830
855
864
851
806
711
563
407
291
206
125
59
8
-47
-95
-127
-155
-183
-209
-232
-246
-266
-303
-300
-238
-186
-193
-241
-304
-323
-319
-403
-503
-406
67
1033
1778
961
-910
-1612
-886
-431
-610
-649
-518
-479
-448
-350
-190
-17
83
133
182
215
275
377
423
412
453
527
523
415
268
141
42
-41
-117
-165
-166
-151
-157
-154
-138
-149
-145
-101
-91
-119
-125
-146
-181
-141
-73
-78
-86
-88
-170
-203
-138
-206
-277
80
863
1658
1677
363
-1133
-1168
-347
-120
-240
-98
-44
-186
-164
1
109
152
156
164
217
262
291
368
435
421
398
399
352
249
135
-2
-176
-315
-376
-439
-545
-591
-532
-482
-503
-531
-552
-573
-556
-510
-479
-443
-402
-413
-446
-436
-445
-494
-448
-344
-384
-387
-13
607
1136
1152
239
-874
-857
-60
234
106
186
316
297
275
285
322
396
436
441
486
569
670
752
744
670
636
662
656
569
464
398
347
279
208
161
132
94
51
32
25
6
-3
-25
-88
-109
-51
-47
-104
-68
-5
-55
-132
-179
-249
-268
-298
-440
-342
221
796
820
33
-1166
-1610
-970
-382
-425
-541
-489
-448
-408
-368
-345
-246
-105
-38
-18
27
85
124
168
228
254
233
233
272
283
234
158
102
81
64
39
27
-3
-62
-69
-18
6
0
-10
-38
-58
-41
-5
34
47
34
12
-51
-89
-32
-51
-146
14
528
1249
1712
991
-639
-1299
-567
-21
-163
-203
-66
-72
-101
-65
-48
-43
-17
57
161
221
297
452
545
550
619
667
533
357
259
107
-101
-232
-302
-367
-406
-448
-501
-499
-485
-530
-574
-602
-664
-690
-632
-596
-589
-514
-433
-450
-522
-552
-488
-436
-515
-519
-219
406
1357
1886
889
-715
-924
-96
189
24
63
127
115
168
208
229
315
389
424
485
532
545
595
664
701
716
690
619
589
583
479
309
202
162
127
73
-7
-81
-97
-85
-93
-110
-110
-94
-91
-124
-151
-116
-76
-112
-205
-290
-285
-166
-141
-298
-258
187
659
711
22
-1199
-1789
-1192
-476
-410
-510
-469
-481
-510
-452
-372
-325
-310
-290
-223
-96
63
180
209
241
324
371
365
377
374
287
162
62
-29
-118
-172
-202
-220
-192
-120
-47
-1
0
-36
-58
-58
-70
-65
-3
71
95
59
6
19
65
4
-72
120
847
2141
2943
1856
-164
-805
-210
-19
-206
-122
-55
-159
-167
-110
-80
-10
85
168
236
273
335
433
449
400
429
497
502
493
470
333
133
-12
-116
-213
-289
-375
-472
-521
-536
-563
-597
-642
-717
-769
-749
-718
-734
-752
-736
-747
-779
-715
-642
-744
-791
-495
27
887
1912
1657
-214
-1419
-879
-296
-459
-494
-318
-336
-313
-123
11
90
196
270
291
310
383
515
628
695
776
863
885
875
880
833
684
524
434
366
266
173
120
73
12
-19
-21
-77
-184
-222
-187
-181
-202
-178
-103
-53
-119
-232
-218
-158
-226
-238
73
712
1373
1221
-104
-1209
-891
-160
-125
-310
-292
-321
-384
-356
-322
-290
-247
-250
-246
-200
-169
-154
-168
-209
-119
48
-7
-159
-55
119
55
-56
-41
-53
-141
-201
-238
-287
-318
-316
-302
-290
-269
-225
-173
-127
-43
77
126
78
16
-38
-59
18
77
-5
-56
262
1317
2713
2710
726
-888
-563
128
-9
-194
-109
-150
-185
-88
-73
-96
-17
55
65
124
235
323
408
505
537
529
582
630
575
492
398
227
83
61
18
-123
-221
-257
-372
-528
-560
-509
-531
-603
-602
-550
-576
-691
-737
-663
-682
-832
-823
-691
-727
-699
-335
297
1251
1788
639
-1155
-1364
-506
-319
-549
-470
-386
-418
-340
-240
-188
-84
63
199
351
513
622
670
713
760
794
849
926
924
797
652
569
493
384
289
230
178
123
57
-10
-36
-40
-90
-158
-182
-203
-241
-215
-147
-137
-181
-203
-156
-82
-86
-116
7
388
1136
1833
1329
-282
-1130
-612
-102
-156
-204
-177
-244
-275
-283
-346
-361
-286
-207
-180
-155
-63
14
-20
-39
53
109
10
-159
-238
-166
-68
-115
-274
-391
-412
-392
-405
-470
-531
-542
-527
-536
-560
-552
-516
-498
-459
-358
-255
-192
-141
-94
-41
-10
-63
-69
162
726
1740
2536
1739
-121
-767
-5
412
187
132
219
175
130
151
204
243
216
221
326
405
424
471
528
564
627
706
740
744
736
666
533
418
302
107
-70
-136
-217
-325
-320
-285
-368
-462
-457
-410
-401
-464
-554
-588
-578
-580
-617
-674
-691
-694
-735
-631
-257
253
798
888
-96
-1279
-1239
-536
-420
-559
-380
-267
-393
-415
-285
-189
-151
-105
-35
41
118
191
273
401
560
703
838
952
968
876
732
571
442
365
279
161
63
6
-41
-100
-137
-126
-107
-120
-187
-286
-298
-199
-142
-198
-274
-310
-286
-252
-335
-458
-323
342
1517
2236
1261
-600
-1204
-513
-140
-350
-424
-320
-290
-311
-319
-305
-292
-298
-265
-174
-119
-132
-131
-61
15
35
38
80
