# session 37
15
-10
36
75
-27
-187
-235
-215
-197
-179
-218
-217
109
1004
2246
2580
1068
-721
-764
93
200
-71
-27
17
-51
-17
25
9
35
76
88
111
142
157
176
212
246
268
285
309
344
379
411
454
495
522
562
621
662
654
584
432
226
32
-117
-231
-320
-381
-409
-413
-421
-434
-430
-418
-422
-427
-424
-426
-425
-407
-395
-399
-396
-387
-384
-380
-374
-374
-364
-344
-330
-323
-317
-312
-305
-297
-293
-284
-274
-274
-272
-259
-257
-272
-277
-258
-207
-132
-94
-127
-173
-183
-168
-157
-174
-167
-117
-143
-194
8
661
1804
2694
1893
-186
-1060
-232
335
83
-17
94
45
11
66
77
85
121
139
153
181
207
230
254
283
308
320
342
391
435
458
487
526
558
595
642
675
677
639
530
343
135
-49
-198
-289
-333
-374
-405
-404
-402
-409
-402
-393
-392
-389
-390
-402
-401
-384
-374
-376
-378
-380
-377
-361
-345
-342
-342
-335
-323
-314
-312
-311
-303
-290
-292
-311
-302
-239
-170
-151
-170
-190
-210
-224
-208
-193
-202
-183
-164
-199
-88
474
1459
2170
1568
-164
-1188
-638
131
153
15
73
69
46
102
119
103
129
159
172
196
220
237
261
284
306
338
373
399
430
484
553
609
649
694
746
781
778
698
513
270
46
-133
-275
-372
-422
-441
-457
-475
-464
-422
-396
-396
-401
-401
-396
-382
-380
-384
-369
-355
-362
-369
-360
-346
-338
-342
-349
-344
-335
-343
-362
-372
-348
-279
-209
-197
-228
-253
-262
-252
-241
-255
-241
-192
-219
-272
-98
560
1766
2633
1777
-121
-776
-82
223
-51
-79
14
-50
-59
-1
2
9
45
67
85
107
130
173
216
238
264
305
345
385
431
480
532
588
648
708
755
765
708
561
338
95
-110
-255
-351
-409
-436
-443
-442
-440
-431
-420
-412
-407
-403
-400
-397
-394
-389
-383
-380
-380
-375
-368
-363
-357
-347
-338
-339
-345
-341
-338
-353
-339
-254
-183
-202
-238
-236
-234
-231
-224
-229
-208
-179
-223
-231
32
823
2072
2575
1247
-501
-647
102
183
-79
-36
15
-44
-20
12
2
35
76
86
105
133
152
181
217
248
279
317
354
393
444
498
544
588
638
687
725
726
645
461
231
23
-145
-274
-357
-398
-417
-421
-413
-403
-399
-395
-392
-391
-386
-379
-378
-376
-368
-363
-362
-357
-352
-346
-336
-323
-317
-315
-308
-299
-293
-283
-272
-269
-272
-273
-276
-283
-278
-235
-163
-122
-138
-173
-193
-186
-163
-163
-166
-132
-137
-189
-123
256
1223
2439
2380
605
-742
-356
272
120
-51
43
24
-19
40
59
53
87
112
124
151
175
193
226
262
286
310
346
387
423
462
509
557
605
654
699
732
728
648
479
267
66
-96
-209
-278
-318
-342
-349
-348
-344
-341
-340
-339
-339
-339
-338
-335
-330
-325
-322
-318
-317
-319
-314
-307
-303
-299
-292
-287
-280
-272
-270
-269
-259
-250
-246
-241
-235
-231
-230
-227
-216
-208
-207
-206
-197
-190
-186
-179
-174
-171
-164
-155
-150
-144
-135
-133
-139
-153
-173
-187
-190
-196
-193
-170
-140
-109
-91
-102
-84
-41
-75
-112
71
713
1941
2856
1973
-7
-685
38
352
68
31
111
43
41
99
92
93
121
130
145
173
192
212
239
261
283
309
335
361
392
426
464
507
550
594
643
690
714
681
562
373
170
-8
-152
-260
-329
-366
-382
-390
-398
-399
-395
-396
-396
-391
-388
-389
-382
-369
-363
-363
-361
-354
-346
-339
-332
-323
-315
-312
-310
-303
-293
-288
-283
-274
-265
-259
-251
-245
-241
-232
-223
-223
-221
-212
-206
-203
-197
-188
-180
-173
-171
-164
-150
-145
-148
-143
-142
-158
-177
-186
-195
-205
-202
-183
-162
-135
-105
-101
-97
-55
-60
-111
-13
465
1541
2722
2457
532
-754
-253
375
183
14
116
91
46
99
107
99
137
158
162
186
213
231
251
275
310
333
337
367
427
455
467
517
579
612
637
672
704
690
590
406
193
5
-139
-242
-315
-357
-376
-382
-387
-396
-398
-387
-387
-395
-382
-360
-360
-367
-368
-378
-382
-359
-335
-333
-335
-329
-319
-313
-317
-314
-293
-275
-277
-278
-263
-254
-255
-247
-236
-234
-226
-210
-209
-212
-196
-179
-178
-178
-173
-172
-168
-161
-156
-151
-144
-140
-137
-136
-141
-154
-172
-189
-198
-203
-212
-205
-168
-124
-108
-116
-88
-39
-74
-117
89
775
1950
2702
1720
-210
-773
41
395
110
68
157
95
89
136
125
140
186
192
197
227
249
264
292
322
339
355
387
427
454
479
515
558
599
637
676
713
731
692
564
361
148
-26
-165
-272
-331
-362
-402
-418
-390
-381
-410
-404
-362
-358
-381
-383
-375
-377
-374
-367
-364
-362
-360
-356
-350
-346
-342
-334
-329
-328
-320
-310
-303
-301
-303
-291
-261
-241
-241
-236
-231
-235
-221
-194
-190
-200
-195
-183
-181
-180
-172
-165
-159
-155
-152
-145
-137
-141
-154
-167
-179
-196
-215
-216
-199
-185
-158
-111
-101
-106
-58
-56
-109
28
579
1637
2617
2104
164
-887
-206
415
197
56
165
129
90
141
144
145
187
205
213
240
262
278
299
322
346
369
389
415
445
472
502
535
565
597
634
665
678
654
561
387
180
3
-135
-248
-326
-362
-381
-389
-385
-380
-382
-379
-372
-370
-367
-362
-370
-386
-383
-358
-343
-348
-353
-348
-341
-334
-331
-332
-326
-312
-301
-297
-290
-281
-274
-267
-261
-257
-249
-239
-231
-224
-220
-214
-205
-199
-202
-203
-188
-168
-158
-160
-163
-156
-147
-147
-155
-167
-179
-189
-205
-224
-220
-198
-175
-135
-109
-119
-90
-46
-94
-95
218
1020
2184
2590
1187
-637
-747
177
363
72
97
164
93
108
152
142
163
197
196
207
244
269
278
292
319
349
373
399
429
453
478
509
536
559
584
608
628
634
590
467
282
92
-63
-179
-269
-326
-352
-365
-370
-363
-355
-353
-350
-350
-352
-350
-345
-342
-341
-340
-339
-335
-329
-325
-326
-327
-321
-309
-301
-297
-295
-290
-279
-266
-265
-272
-264
-246
-237
-237
-231
-219
-213
-211
-206
-197
-191
-187
-181
-176
-175
-174
-167
-159
-157
-160
-176
-200
-213
-216
-219
-200
-165
-147
-133
-117
-123
-105
-64
-100
-114
150
884
2045
2642
1430
-547
-938
13
377
94
62
143
86
100
156
141
142
177
192
204
227
247
271
299
318
328
347
379
410
434
456
485
520
551
570
590
614
614
564
459
297
100
-83
-221
-309
-363
-403
-421
-414
-407
-416
-417
-402
-401
-412
-399
-378
-380
-390
-388
-389
-394
-388
-372
-360
-361
-364
-352
-340
-344
-345
-331
-327
-331
-312
-285
-280
-288
-294
-300
-296
-285
-281
-261
-196
-129
-114
-149
-191
-198
-179
-188
-194
-148
-153
-209
-56
533
1623
2615
2096
72
-1129
-483
255
111
-46
70
61
14
62
77
72
112
141
149
175
209
240
272
298
318
351
394
430
461
505
558
604
639
679
722
739
718
656
517
284
34
-152
-285
-394
-461
-488
-492
-472
-446
-444
-441
-417
-409
-421
-412
-389
-385
-388
-379
-377
-386
-383
-375
-377
-372
-357
-351
-346
-334
-333
-339
-327
-305
-271
-220
-185
-198
-233
-252
-253
-242
-236
-238
-211
-201
-251
-146
387
1325
2120
1740
87
-1085
-645
142
151
-33
34
53
16
66
98
87
109
138
152
181
218
241
262
292
321
352
400
460
505
540
591
646
692
740
794
828
810
700
483
214
-23
-204
-348
-450
-497
-506
-495
-484
-482
-472
-444
-423
-417
-413
-406
-401
-394
-385
-384
-387
-387
-383
-377
-367
-359
-358
-358
-359
-359
-350
-328
-284
-229
-213
-255
-301
-303
-274
-266
-281
-253
-228
-283
-241
172
1059
2084
2129
632
-811
-645
115
144
-77
-15
13
-43
-8
30
32
56
72
87
135
166
175
212
265
296
325
367
412
462
516
566
625
707
787
835
856
836
721
491
212
-40
-224
-343
-424
-478
-494
-486
-482
-477
-460
-443
-437
-432
-425
-421
-425
-430
-418
-396
-389
-394
-392
-384
-383
-384
-377
-366
-365
-375
-373
-355
-335
-292
-224
-199
-236
-270
-275
-261
-243
-248
-240
-188
-203
-272
-133
464
1654
2766
2258
265
-814
-210
300
58
-58
45
12
-13
31
33
51
96
110
130
173
200
226
266
301
333
372
414
455
499
551
619
695
756
800
845
873
827
669
429
180
-31
-194
-311
-382
-414
-428
-436
-431
-415
-407
-403
-394
-396
-409
-397
-369
-368
-387
-393
-385
-374
-365
-362
-355
-335
-321
-324
-322
-300
-274
-277
-308
-309
-255
-220
-245
-259
-233
-222
-239
-247
-232
-197
-158
-148
-165
-194
-212
-171
-112
-125
-156
-130
-117
-144
-139
-113
-122
-160
-191
-200
-201
-203
-178
-127
-100
-92
-79
-96
-125
-63
18
-42
-101
111
743
1874
2744
1973
102
-616
45
391
145
85
145
83
76
117
113
137
174
163
172
232
261
247
257
303
348
378
407
438
462
481
526
602
659
685
721
769
779
731
623
426
174
-12
-101
-195
-324
-407
-431
-438
-423
-401
-424
-452
-425
-394
-413
-443
-464
-497
-506
-453
-402
-412
-411
-362
-351
-401
-428
-409
-379
-353
-331
-293
-246
-265
-336
-328
-243
-205
-224
-227
-233
-244
-197
-147
-181
-215
-165
-115
-126
-120
-81
-89
-131
-118
-87
-106
-122
-103
-92
-68
-50
-126
-191
-133
-134
-229
-172
-36
-82
-162
-72
5
-44
-52
-12
-40
-3
293
974
1944
2228
989
-498
-525
211
321
93
104
136
101
126
139
134
168
169
142
167
197
203
258
310
275
258
333
383
368
373
398
414
440
452
435
452
489
469
414
361
253
78
-74
-154
-199
-237
-262
-267
-275
-287
-276
-274
-307
-314
-286
-291
-315
-317
-311
-298
-294
-316
-311
-278
-290
-311
-271
-243
-282
-295
-250
-228
-239
-227
-212
-220
-217
-200
-192
-183
-175
-182
-172
-140
-141
-173
-170
-128
-109
-126
-136
-129
-126
-137
-150
-140
-103
-80
-104
-131
-113
-102
-132
-131
-86
-76
-124
-175
-183
-143
-114
-112
-73
-24
-47
-64
-32
-56
-45
232
859
1761
2228
1289
-311
-688
51
361
133
98
157
92
94
152
136
124
159
163
157
204
238
216
218
271
298
295
328
378
378
358
376
393
378
383
418
421
389
353
295
202
95
-14
-91
-129
-180
-238
-248
-246
-276
-284
-253
-234
-249
-276
-283
-263
-258
-281
-286
-281
-289
-278
-260
-287
-307
-262
-232
-268
-289
-250
-221
-244
-267
-263
-264
-272
-243
-192
-197
-253
-265
-220
-216
-250
-228
-179
-187
-208
-189
-174
-188
-197
-183
-161
-145
-135
-132
-156
-164
-106
-75
-151
-209
-158
-128
-207
-274
-231
-153
-139
-169
-180
-164
-110
-44
-52
-46
265
1047
2013
2190
880
-696
-768
105
345
112
148
224
160
207
281
223
179
226
271
297
327
339
342
356
362
354
377
430
454
461
502
555
589
610
603
586
603
622
594
512
369
188
4
-157
-245
-278
-342
-373
-316
-310
-376
-367
-321
-333
-331
-312
-356
-390
-352
-324
-325
-303
-303
-346
-347
-298
-303
-351
-326
-286
-339
-364
-279
-215
-232
-276
-313
-296
-250
-269
-295
-242
-197
-218
-236
-217
-199
-222
-273
-257
-155
-114
-191
-248
-218
-185
-200
-225
-213
-179
-154
-112
-65
-103
-192
-210
-178
-138
-64
-74
-180
24
770
1641
1880
926
-610
-1123
-364
243
174
80
107
86
93
91
68
143
231
228
228
258
273
296
324
351
387
412
441
505
567
609
660
715
773
835
875
929
1012
996
794
475
173
-31
-196
-379
-477
-451
-433
-460
-463
-429
-390
-382
-414
-436
-430
-410
-381
-371
-396
-409
-401
-394
-377
-367
-394
-418
-411
-386
-355
-341
-360
-367
-345
-333
-340
-337
-327
-321
-324
-338
-321
-237
-164
-174
-220
-247
-243
-216
-220
-228
-174
-185
-263
-52
634
1558
2062
1296
-297
-907
-199
300
109
-8
57
35
30
79
83
88
123
146
164
196
229
247
255
287
353
407
435
473
532
594
659
730
802
866
921
955
928
792
546
255
-3
-198
-334
-427
-484
-507
-509
-501
-491
-480
-463
-449
-449
-453
-442
-421
-404
-399
-403
-405
-401
-398
-403
-399
-378
-359
-361
-367
-362
-366
-373
-362
-350
-354
-327
-255
-214
-236
-267
-286
-283
-256
-251
-245
-205
-232
-276
-39
669
1719
2314
1411
-296
-804
-78
253
0
-44
38
-14
-16
37
31
43
89
100
110
159
199
212
237
280
315
347
388
428
480
552
613
656
711
773
820
838
786
634
406
160
-58
-225
-345
-423
-456
-464
-470
-471
-460
-454
-454
-439
-421
-419
-423
-420
-417
-413
-406
-405
-399
-385
-389
-406
-397
-368
-362
-379
-381
-364
-360
-354
-298
-225
-215
-257
-286
-294
-278
-254
-259
-245
-211
-250
-241
98
954
2154
2568
1189
-586
-707
111
215
-59
2
61
-21
1
52
41
59
102
121
130
149
193
246
273
293
332
370
399
438
483
521
559
604
644
676
713
730
670
510
298
91
-82
-212
-304
-371
-403
-393
-379
-388
-393
-382
-384
-393
-383
-364
-363
-384
-407
-398
-357
-335
-349
-364
-364
-349
-328
-320
-328
-324
-312
-311
-318
-317
-314
-309
-276
-204
-154
-178
-226
-247
-247
-234
-232
-237
-200
-193
-255
-175
267
1197
2302
2275
561
-891
-550
217
136
-85
5
5
-62
-15
15
4
31
59
73
103
130
147
172
200
223
244
275
316
352
375
402
441
477
508
543
577
584
530
402
226
48
-107
-233
-320
-361
-378
-394
-401
-392
-384
-385
-382
-379
-379
-368
-344
-332
-327
-312
-295
-280
-262
-240
-220
-204
-191
