# session 27
53
31
101
138
-40
-281
-322
-241
-221
-212
-169
-145
-132
-101
-72
-44
-8
25
55
90
125
152
172
192
216
232
229
227
230
199
119
26
-55
-128
-182
-201
-203
-206
-200
-181
-165
-151
-132
-121
-117
-106
-92
-92
-98
-106
-128
-160
-185
-207
-231
-252
-274
-291
-296
-297
-288
-246
-181
-133
-112
-112
-124
-131
-124
-119
-119
-116
-114
-119
-124
-126
-129
-125
-105
-88
-89
-89
-83
-95
-121
-130
-126
-132
-142
-140
-138
-150
-148
-112
-66
-32
-17
-17
-17
-8
-9
-27
-44
-39
-10
19
38
72
91
66
85
142
96
107
492
1179
1812
1796
657
-677
-727
79
341
132
128
191
142
139
172
167
173
180
164
158
168
178
193
212
230
251
264
269
289
325
341
326
316
335
353
351
370
413
400
306
195
101
2
-94
-156
-195
-228
-238
-218
-200
-207
-217
-207
-187
-179
-187
-196
-190
-180
-189
-215
-239
-254
-262
-272
-290
-309
-312
-308
-310
-316
-312
-298
-283
-271
-263
-251
-246
-252
-246
-225
-220
-224
-210
-188
-180
-175
-168
-160
-152
-151
-154
-143
-132
-139
-128
-97
-100
-120
-112
-105
-120
-123
-109
-97
-89
-95
-123
-149
-172
-208
-225
-186
-144
-143
-117
-63
-77
-92
-32
-50
-60
270
917
1617
1887
1016
-458
-843
-110
255
66
46
111
48
52
111
106
101
117
139
181
205
200
218
248
263
290
328
347
356
376
406
431
449
478
508
506
488
484
461
379
263
158
77
-5
-99
-166
-185
-189
-203
-209
-190
-165
-162
-181
-198
-201
-199
-195
-190
-190
-201
-213
-224
-231
-218
-203
-220
-240
-226
-198
-198
-218
-224
-209
-201
-214
-215
-196
-193
-204
-191
-176
-187
-186
-163
-163
-172
-160
-156
-160
-146
-148
-170
-166
-147
-141
-125
-103
-106
-120
-131
-140
-137
-117
-110
-135
-159
-159
-169
-206
-209
-164
-141
-137
-102
-82
-91
-53
-38
-73
124
742
1566
1988
1229
-398
-1184
-544
126
81
-26
50
55
43
83
95
97
109
112
141
192
216
220
230
250
278
310
342
379
411
441
478
507
517
529
548
556
560
543
458
334
235
136
12
-86
-142
-187
-214
-219
-217
-213
-203
-184
-167
-172
-196
-216
-218
-208
-208
-224
-222
-204
-214
-244
-245
-221
-209
-210
-219
-235
-233
-216
-217
-230
-232
-224
-219
-226
-232
-213
-195
-199
-198
-190
-203
-216
-205
-192
-189
-188
-188
-181
-159
-148
-157
-154
-133
-122
-124
-124
-131
-157
-191
-203
-182
-156
-146
-117
-81
-101
-107
-39
-53
-106
133
701
1403
1851
1224
-311
-1004
-332
196
21
-59
48
7
-14
52
39
19
78
112
103
119
137
141
165
204
229
249
275
304
337
365
389
422
450
463
472
467
437
400
351
261
150
54
-38
-131
-195
-226
-244
-254
-247
-235
-226
-225
-242
-261
-246
-213
-212
-228
-223
-213
-219
-220
-214
-220
-224
-209
-196
-193
-185
-176
-174
-167
-156
-155
-155
-141
-131
-139
-151
-147
-129
-120
-123
-117
-104
-101
-108
-106
-94
-92
-101
-101
-88
-84
-93
-106
-134
-160
-133
-76
-50
-24
27
42
36
69
67
67
307
885
1636
1948
1034
-520
-960
-169
328
182
135
206
139
132
228
253
223
208
193
175
140
113
158
220
220
212
236
226
188
187
208
198
188
216
249
234
185
158
140
62
-44
-84
-101
-173
-250
-285
-299
-286
-255
-237
-212
-195
-225
-241
-207
-201
-235
-251
-243
-219
-192
-201
-242
-262
-247
-213
-187
-199
-224
-225
-237
-280
-298
-287
-282
-292
-316
-336
-324
-313
-327
-327
-311
-289
-231
-169
-170
-190
-159
-128
-145
-148
-115
-120
-172
-193
-166
-151
-151
-110
-44
-47
-92
-74
-52
-84
49
610
1519
2125
1471
-280
-1348
-808
48
159
41
117
126
53
94
185
209
209
225
214
194
237
301
320
328
346
355
376
426
479
506
512
541
599
622
609
620
641
605
497
353
234
150
43
-94
-190
-216
-206
-196
-193
-186
-192
-235
-264
-231
-193
-212
-261
-280
-243
-214
-249
-269
-240
-274
-340
-307
-260
-298
-306
-265
-284
-317
-297
-301
-324
-277
-217
-235
-298
-347
-343
-273
-206
-216
-260
-263
-223
-182
-164
-171
-188
-189
-176
-188
-226
-242
-229
-203
-133
-34
-24
-88
-75
-51
-100
13
400
985
1800
2157
1025
-594
-741
93
278
-8
-10
74
46
47
66
67
83
120
169
183
156
170
210
226
274
342
325
291
361
437
414
386
409
415
419
451
461
438
382
262
136
67
1
-100
-193
-255
-292
-319
-322
-288
-283
-310
-275
-244
-303
-327
-266
-256
-309
-325
-307
-290
-282
-287
-304
-320
-303
-277
-299
-310
-260
-248
-295
-291
-250
-239
-240
-255
-280
-246
-177
-168
-196
-212
-243
-251
-200
-191
-231
-213
-194
-235
-219
-157
-190
-269
-280
-243
-184
-151
-184
-84
424
1356
2195
1845
132
-1124
-702
83
80
-65
60
83
21
50
87
127
184
192
190
225
253
270
296
317
324
337
382
433
440
455
528
586
579
586
643
676
665
647
572
398
221
94
-26
-142
-225
-275
-285
-261
-250
-283
-316
-294
-256
-284
-335
-291
-199
-224
-331
-352
-306
-310
-329
-323
-330
-323
-286
-277
-292
-298
-295
-284
-284
-296
-285
-292
-345
-355
-315
-313
-308
-218
-140
-160
-206
-241
-265
-232
-193
-202
-166
-163
-277
-181
298
1020
1922
2158
767
-885
-854
-19
64
-136
-44
-47
-127
-52
-22
-59
22
110
56
12
121
242
201
118
196
339
344
284
327
424
460
465
507
552
545
535
566
557
465
362
241
62
-56
-65
-103
-178
-193
-218
-288
-259
-158
-176
-257
-213
-121
-147
-223
-233
-207
-184
-162
-172
-191
-169
-146
-172
-201
-188
-164
-183
-215
-199
-162
-169
-192
-190
-190
-196
-183
-174
-178
-183
-192
-176
-141
-177
-252
-212
-103
-102
-167
-140
-78
-118
-181
-170
-138
-110
-77
-110
-187
-196
-171
-193
-199
-152
-99
-54
-47
-103
-112
-45
-56
-41
344
1067
1708
1686
572
-861
-1089
-249
188
17
-6
101
59
34
102
134
113
104
136
172
175
196
227
199
190
278
345
354
390
416
407
465
540
526
540
649
711
671
591
492
383
266
120
-34
-178
-279
-270
-219
-250
-310
-307
-275
-245
-219
-237
-284
-291
-252
-223
-243
-307
-331
-247
-176
-249
-329
-297
-281
-313
-284
-256
-305
-323
-263
-223
-239
-256
-253
-261
-273
-243
-212
-241
-256
-207
-195
-226
-205
-167
-182
-201
-194
-185
-159
-145
-207
-282
-274
-236
-215
-169
-128
-134
-133
-115
-81
-43
-110
-124
273
968
1646
1928
1079
-480
-922
-123
245
-25
-42
69
10
38
126
100
88
127
119
110
156
202
217
240
280
297
307
372
447
473
511
593
656
688
715
741
800
849
767
587
425
244
28
-134
-240
-329
-349
-322
-333
-344
-318
-334
-374
-310
-215
-259
-342
-287
-210
-275
-357
-310
-233
-244
-296
-301
-264
-266
-324
-319
-225
-194
-260
-279
-240
-254
-283
-249
-231
-256
-230
-184
-201
-224
-218
-223
-217
-195
-201
-194
-153
-150
-181
-171
-148
-172
-196
-176
-160
-166
-157
-156
-207
-255
-235
-197
-190
-172
-106
-54
-81
-89
-4
-6
-131
-18
480
1256
2135
2168
721
-658
-487
173
152
-18
37
22
-15
22
28
64
142
135
101
136
152
127
164
234
248
259
320
371
391
436
494
518
541
604
644
635
667
731
687
517
342
208
52
-114
-203
-240
-302
-329
-273
-247
-289
-305
-285
-272
-262
-262
-276
-279
-281
-293
-286
-290
-335
-331
-254
-229
-282
-297
-262
-255
-267
-266
-264
-265
-262
-255
-242
-225
-215
-213
-211
-214
-219
-214
-204
-199
-196
-190
-191
-189
-172
-158
-164
-170
-163
-153
-149
-149
-144
-135
-135
-144
-139
-127
-152
-199
-207
-184
-171
-157
-136
-112
-74
-70
-89
-38
-22
-104
39
559
1254
1916
1830
478
-767
-519
191
163
-45
33
52
4
52
83
74
90
102
113
148
172
179
201
238
269
296
330
372
412
446
489
542
587
623
659
686
703
704
648
518
361
198
31
-93
-159
-215
-271
-294
-292
-294
-301
-291
-266
-254
-260
-261
-264
-281
-281
-259
-260
-278
-277
-273
-279
-267
-250
-256
-264
-250
-234
-237
-243
-243
-234
-220
-215
-219
-217
-214
-214
-203
-191
-193
-186
-169
-170
-178
-178
-181
-173
-152
-155
-175
-171
-159
-156
-147
-133
-141
-178
-215
-217
-200
-211
-228
-205
-176
-168
-126
-84
-111
-108
-56
-114
-104
288
917
1527
1734
854
-579
-881
-94
257
39
17
84
11
29
127
132
109
126
147
163
185
201
209
220
242
264
276
308
369
400
387
387
406
416
447
491
491
474
481
446
335
214
105
3
-60
-109
-178
-202
-159
-140
-166
-178
-174
-176
-173
-168
-167
-180
-215
-230
-192
-155
-165
-184
-190
-195
-195
-186
-189
-197
-187
-190
-221
-216
-162
-136
-158
-179
-183
-175
-163
-178
-201
-176
-130
-122
-136
-149
-165
-151
-107
-109
-137
-120
-110
-145
-134
-73
-67
-112
-129
-124
-132
-151
-172
-177
-149
-130
-139
-113
-63
-63
-67
-45
-65
7
421
1136
1717
1417
45
-1085
-801
17
175
7
38
68
28
56
87
74
78
100
119
131
137
149
170
188
211
240
259
280
304
320
347
391
415
418
432
448
442
425
401
344
242
119
19
-50
-112
-170
-206
-219
-225
-230
-234
-230
-225
-231
-243
-240
-230
-236
-246
-241
-237
-248
-258
-258
-254
-245
-236
-239
-253
-253
-235
-221
-217
-206
-195
-205
-220
-213
-192
-182
-180
-182
-185
-180
-171
-164
-150
-142
-155
-166
-160
-162
-172
-178
-202
-226
-202
-156
-132
-110
-97
-111
-78
-38
-90
12
551
1321
1781
1294
-156
-1205
-805
26
129
-55
3
58
28
63
112
129
156
173
174
197
238
263
266
271
310
367
400
415
445
479
508
538
565
580
591
594
588
565
507
410
288
156
45
-31
-87
-129
-151
-163
-176
-177
-161
-146
-157
-175
-169
-159
-177
-193
-192
-206
-230
-243
-269
-301
-300
-293
-320
-344
-338
-330
-331
-324
-319
-321
-314
-300
-295
-288
-268
-258
-270
-273
-246
-213
-201
-206
-216
-229
-242
-244
-245
-238
-179
-100
-95
-151
-174
-153
-130
-139
-166
-132
-94
-173
-127
319
993
1594
1581
424
-910
-882
-48
163
-48
-21
31
-19
11
56
55
86
118
120
137
163
173
193
232
270
302
323
341
376
409
424
446
482
501
506
523
538
521
468
379
259
141
46
-46
-134
-174
-168
-177
-213
-223
-212
-223
-246
-253
-260
-267
-262
-264
-287
-303
-305
-312
-324
-337
-343
-340
-346
-360
-356
-350
-373
-392
-386
-397
-401
-337
-244
-178
-103
-30
-37
-95
-118
-108
-83
-71
-110
-113
-50
-81
-101
229
878
1536
1663
653
-771
-969
-115
252
29
-2
80
21
5
57
57
54
86
102
110
135
156
159
168
201
233
249
270
293
303
324
371
414
437
443
439
445
440
381
277
174
77
-20
-99
-153
-185
-197
-200
-204
-212
-225
-230
-216
-206
-219
-233
-236
-243
-253
-256
-251
-247
-254
-262
-255
-243
-241
-242
-237
-229
-224
-223
-217
-201
-187
-187
-201
-214
-210
-194
-180
-151
-95
-65
-88
-116
-123
-127
-123
-125
-131
-97
-87
-137
-30
400
1080
1681
1384
-52
-1132
-718
71
121
-53
2
22
-14
22
43
31
51
86
109
123
133
148
167
185
211
241
257
266
288
315
333
340
340
338
339
335
316
289
256
201
132
67
8
-42
-74
-101
-125
-129
-132
-158
-172
-152
-147
-170
-180
-174
-179
-190
-191
-194
-203
-206
-199
-201
-212
-204
-182
-182
-199
-199
-194
-199
-190
-171
-172
-179
-166
-158
-176
-187
-173
-167
-172
-158
-138
-118
-74
-43
-69
-105
-117
-126
-119
-108
-106
-87
-95
-128
9
454
1149
1689
1218
-262
-1139
-590
108
85
-52
18
22
-17
11
37
50
65
70
90
117
120
133
168
193
208
220
230
258
289
291
288
301
301
288
287
276
244
215
188
144
91
45
17
-2
-40
-73
-63
-57
-96
-124
-113
-111
-127
-131
-127
-128
-143
-170
-177
-159
-158
-169
-158
-147
-149
-155
-168
-170
-149
-144
-159
-149
-127
-135
-154
-146
-121
-113
-126
-136
-140
-137
-118
-110
-125
-124
-112
-117
-117
-112
-122
-111
-80
-92
-145
-169
-149
-131
-121
-85
-64
-121
-163
-91
-15
-53
-109
-81
-65
-117
-21
404
1094
1714
1475
79
-1083
-764
53
135
-85
-46
0
-39
-12
14
-9
4
50
71
65
76
117
142
128
133
179
213
238
273
271
243
273
338
343
313
325
350
324
268
230
192
133
78
19
-64
-117
-92
-67
-113
-154
-134
-131
-173
-177
-135
-127
-157
-173
-169
-167
-162
-153
-169
-199
-191
-159
-160
-179
-175
-156
-146
-149
-153
-157
-166
-153
-116
-111
-136
-137
-135
-152
-147
-131
-147
-159
-117
-53
-30
-51
-70
-73
-86
-95
-93
-107
-100
-52
-70
-85
218
940
1740
1828
609
-973
-1241
-390
84
-24
-53
-23
-109
-113
-7
48
44
55
79
98
120
138
140
160
207
223
206
217
242
245
250
279
304
300
288
307
342
338
276
174
50
-75
-186
-276
-313
-292
-268
-269
-271
-279
-308
-328
-329
-342
-345
-304
-259
-245
-243
-228
-197
-163
-147
-149
-150
-141
-123
-107
-102
-98
-91
-88
-84
-80
-95
-122
-136
-136
-115
-58
-6
-10
-40
-62
-80
-79
-78
-102
-80
-56
-121
-39
451
1234
1918
1714
270
-1012
-771
41
150
-36
5
25
-30
-18
11
19
26
25
42
73
83
76
