# session 42
100
235
-60
116
1318
1781
287
-1014
-445
395
287
92
198
192
142
190
200
185
212
230
237
256
272
289
311
325
340
368
389
400
419
439
449
464
486
493
491
496
496
470
412
321
198
60
-65
-161
-231
-282
-312
-322
-324
-324
-324
-324
-322
-323
-327
-324
-321
-323
-327
-327
-325
-323
-321
-319
-314
-310
-310
-304
-293
-286
-281
-274
-269
-262
-255
-256
-252
-233
-221
-227
-224
-207
-198
-197
-195
-190
-186
-180
-173
-166
-166
-166
-158
-151
-152
-149
-138
-137
-144
-150
-158
-171
-188
-196
-181
-153
-134
-108
-87
-101
-86
-35
-74
-96
255
1077
1939
1908
507
-946
-846
102
363
138
154
219
161
166
204
194
205
237
250
265
282
291
311
339
361
382
406
430
451
469
489
514
536
551
571
595
606
592
546
453
308
138
-16
-138
-233
-297
-326
-335
-347
-358
-359
-362
-369
-356
-331
-325
-329
-335
-341
-338
-338
-352
-351
-328
-315
-315
-311
-307
-305
-302
-296
-287
-273
-263
-257
-252
-247
-240
-232
-225
-226
-229
-219
-200
-190
-188
-183
-184
-194
-195
-193
-193
-177
-144
-108
-73
-64
-93
-128
-146
-142
-129
-144
-148
-107
-121
-116
282
1176
1980
1729
225
-1114
-932
-14
265
96
114
173
139
157
186
165
175
214
229
238
270
304
322
333
352
374
403
438
469
497
528
554
580
617
651
672
687
676
594
436
239
45
-121
-252
-347
-403
-428
-443
-451
-443
-424
-409
-398
-390
-387
-384
-384
-388
-380
-369
-376
-388
-382
-376
-375
-370
-363
-362
-362
-357
-346
-332
-322
-324
-336
-336
-301
-240
-195
-190
-214
-238
-254
-254
-236
-239
-234
-182
-198
-248
36
806
1680
1887
816
-742
-1084
-237
245
73
18
101
59
46
101
109
112
150
180
200
222
246
273
296
321
363
408
436
471
525
576
620
672
724
766
807
838
811
682
461
213
-3
-184
-326
-407
-439
-457
-460
-449
-446
-444
-425
-407
-400
-398
-392
-382
-379
-386
-389
-384
-385
-389
-386
-379
-376
-374
-367
-363
-362
-357
-357
-370
-374
-338
-258
-198
-216
-268
-282
-269
-249
-236
-252
-235
-178
-227
-267
71
853
1769
2065
999
-539
-771
30
295
31
13
95
43
47
97
93
110
156
173
181
211
245
277
313
343
365
396
447
498
543
594
655
713
763
802
835
854
812
667
445
207
-4
-163
-278
-359
-401
-410
-411
-408
-400
-393
-383
-368
-358
-352
-346
-347
-351
-349
-342
-336
-335
-340
-332
-315
-312
-312
-295
-288
-293
-277
-255
-259
-267
-257
-245
-244
-241
-227
-212
-206
-201
-193
-193
-197
-189
-175
-170
-171
-171
-166
-151
-133
-130
-140
-147
-153
-158
-164
-190
-223
-216
-187
-178
-167
-142
-112
-80
-85
-97
-43
-51
-132
62
677
1494
2036
1489
12
-695
-71
431
229
105
188
148
117
172
180
171
198
214
228
257
274
285
312
344
371
398
426
454
483
518
553
586
625
670
703
723
736
721
639
487
301
122
-36
-167
-253
-303
-345
-378
-382
-373
-374
-378
-376
-376
-379
-375
-371
-378
-387
-387
-384
-383
-379
-367
-357
-351
-342
-330
-319
-314
-319
-326
-316
-291
-279
-279
-273
-263
-259
-252
-239
-228
-220
-212
-215
-218
-202
-180
-177
-181
-177
-169
-161
-156
-154
-145
-134
-137
-141
-131
-124
-124
-120
-120
-130
-133
-135
-159
-183
-183
-172
-156
-119
-88
-83
-68
-56
-66
-31
1
-70
-32
370
1113
1928
1967
664
-636
-438
341
373
126
175
207
151
184
206
181
201
230
235
254
280
294
315
340
354
370
398
425
450
479
505
520
540
565
576
584
599
594
544
453
322
161
10
-106
-198
-276
-323
-336
-337
-341
-339
-334
-343
-353
-341
-334
-348
-348
-331
-333
-346
-344
-334
-328
-323
-317
-308
-299
-290
-284
-281
-276
-263
-255
-262
-259
-237
-227
-230
-219
-207
-218
-222
-203
-193
-196
-189
-180
-179
-178
-172
-166
-158
-151
-145
-138
-134
-131
-127
-126
-126
-113
-102
-107
-107
-103
-112
-120
-118
-131
-151
-151
-153
-162
-135
-97
-89
-78
-60
-62
-34
-12
-70
-8
397
1133
1933
1914
546
-736
-468
331
346
109
175
196
126
163
192
171
196
224
217
229
250
254
272
305
325
333
351
376
398
413
426
436
446
463
475
463
444
430
388
308
216
113
-13
-130
-201
-236
-260
-288
-308
-299
-284
-293
-299
-280
-269
-283
-293
-288
-283
-286
-289
-288
-283
-277
-278
-280
-268
-255
-252
-248
-246
-250
-242
-222
-217
-224
-224
-215
-203
-195
-187
-177
-176
-184
-181
-169
-167
-172
-165
-151
-146
-153
-157
-146
-132
-126
-129
-130
-130
-130
-125
-115
-111
-115
-115
-108
-112
-127
-139
-146
-151
-147
-127
-92
-76
-89
-71
-31
-55
-34
293
1053
1948
2000
623
-823
-718
163
344
114
142
187
119
146
199
177
178
213
225
231
251
267
281
298
314
326
340
356
371
386
396
401
409
420
420
411
401
387
354
292
203
94
-20
-118
-188
-231
-260
-283
-299
-298
-290
-287
-291
-291
-285
-279
-280
-285
-287
-286
-285
-283
-283
-283
-279
-275
-268
-256
-251
-257
-257
-246
-239
-230
-215
-209
-215
-219
-212
-198
-188
-186
-185
-181
-178
-174
-166
-162
-162
-161
-157
-156
-150
-134
-126
-136
-136
-124
-122
-125
-127
-141
-157
-169
-186
-188
-163
-141
-116
-89
-97
-94
-52
-71
-65
288
1110
2009
2023
620
-894
-866
56
337
125
130
187
133
148
190
176
186
216
222
233
256
269
283
306
326
345
368
389
411
438
464
488
507
522
537
553
563
557
521
434
293
128
-25
-158
-266
-333
-361
-377
-387
-389
-388
-383
-376
-368
-362
-360
-361
-358
-354
-352
-348
-345
-347
-349
-346
-339
-330
-323
-320
-320
-314
-299
-283
-283
-290
-278
-257
-257
-267
-257
-242
-249
-257
-243
-214
-166
-120
-123
-164
-192
-196
-187
-182
-192
-168
-141
-178
-80
469
1394
1988
1325
-352
-1276
-648
164
187
30
96
117
88
120
140
141
165
185
204
233
254
270
296
322
349
383
412
432
461
508
553
584
611
646
681
703
702
660
545
358
144
-46
-194
-303
-381
-422
-433
-435
-437
-425
-403
-393
-389
-379
-372
-374
-368
-353
-350
-360
-361
-345
-335
-341
-343
-333
-325
-324
-324
-321
-320
-322
-319
-301
-267
-219
-177
-181
-219
-245
-247
-234
-225
-234
-213
-171
-211
-192
207
1037
1884
1832
432
-955
-813
51
221
8
46
93
36
57
97
91
106
135
157
186
209
224
250
277
300
334
371
401
435
477
523
572
613
645
678
705
710
670
551
353
136
-51
-201
-318
-396
-425
-420
-422
-437
-429
-406
-404
-407
-396
-387
-384
-378
-378
-380
-372
-364
-365
-364
-360
-353
-345
-341
-342
-338
-339
-344
-338
-320
-283
-218
-183
-217
-261
-269
-263
-248
-243
-253
-216
-189
-252
-186
271
1154
2097
2015
459
-871
-554
209
175
-42
40
61
5
41
65
57
87
118
134
162
187
205
234
273
307
336
368
405
442
480
524
566
606
648
683
702
698
640
503
311
108
-69
-203
-298
-360
-386
-392
-400
-402
-393
-384
-381
-378
-375
-379
-382
-378
-371
-367
-364
-361
-356
-350
-345
-340
-331
-321
-315
-308
-298
-291
-286
-278
-270
-263
-252
-243
-242
-241
-245
-255
-250
-237
-219
-167
-105
-108
-149
-159
-157
-160
-152
-159
-148
-97
-131
-185
46
708
1695
2290
1409
-327
-841
-40
349
91
42
130
72
69
125
116
122
161
176
193
225
242
262
297
328
352
378
405
436
466
496
531
561
587
623
658
670
658
614
509
344
163
7
-115
-206
-264
-296
-321
-340
-343
-337
-337
-340
-339
-336
-339
-348
-352
-352
-347
-338
-338
-344
-338
-323
-321
-321
-309
-298
-298
-295
-283
-269
-259
-255
-252
-245
-237
-235
-231
-220
-209
-204
-201
-195
-183
-176
-180
-180
-169
-160
-158
-151
-141
-144
-150
-143
-132
-136
-149
-157
-171
-197
-216
-206
-177
-152
-138
-115
-85
-91
-92
-38
-49
-112
69
653
1535
2170
1565
-46
-772
-94
417
198
80
176
145
116
164
164
157
186
204
215
234
250
274
301
315
335
366
385
398
427
460
484
509
536
558
582
603
607
583
523
414
264
106
-26
-125
-210
-280
-316
-324
-330
-342
-346
-344
-345
-348
-351
-357
-363
-366
-365
-361
-354
-354
-351
-335
-326
-334
-333
-316
-307
-304
-298
-287
-272
-263
-269
-270
-254
-240
-232
-223
-219
-216
-206
-197
-198
-202
-193
-176
-170
-176
-170
-154
-151
-157
-149
-141
-146
-145
-140
-148
-156
-158
-180
-209
-208
-187
-169
-154
-137
-104
-79
-98
-88
-35
-69
-90
224
977
1916
2181
999
-549
-666
169
386
122
122
186
127
136
176
165
177
206
210
223
251
268
285
315
344
361
377
401
420
438
471
505
525
547
577
590
588
586
555
468
333
175
27
-90
-184
-256
-297
-318
-332
-335
-335
-335
-330
-326
-330
-331
-329
-342
-355
-349
-337
-335
-332
-325
-322
-319
-312
-304
-299
-290
-279
-272
-267
-263
-259
-253
-244
-234
-230
-231
-223
-201
-190
-202
-211
-198
-184
-182
-180
-174
-165
-156
-151
-148
-144
-144
-145
-136
-129
-131
-125
-118
-129
-141
-141
-161
-198
-204
-182
-160
-144
-130
-105
-80
-86
-74
-30
-66
-91
209
948
1861
2114
962
-577
-722
126
391
140
130
197
139
143
188
186
201
221
216
231
265
280
292
317
338
356
386
413
426
442
472
499
522
547
570
585
594
591
560
477
341
179
31
-90
-185
-257
-303
-327
-336
-336
-336
-341
-340
-334
-330
-330
-335
-343
-345
-340
-335
-333
-334
-335
-333
-329
-324
-311
-302
-303
-296
-281
-278
-279
-266
-259
-260
-246
-230
-234
-236
-219
-205
-203
-201
-197
-192
-185
-179
-174
-170
-166
-162
-158
-155
-143
-133
-135
-136
-128
-127
-130
-126
-127
-139
-149
-163
-183
-192
-183
-161
-137
-116
-91
-82
-89
-58
-29
-85
-39
384
1219
2075
1965
498
-782
-489
313
347
121
172
196
143
180
210
196
214
239
249
270
289
299
318
341
358
383
413
430
440
469
505
524
540
566
589
595
598
600
560
447
288
129
-15
-146
-245
-300
-326
-348
-368
-372
-368
-369
-367
-355
-351
-360
-367
-366
-362
-362
-363
-359
-352
-348
-345
-340
-337
-330
-318
-307
-296
-286
-280
-280
-280
-269
-248
-241
-253
-251
-224
-209
-214
-216
-208
-195
-183
-177
-176
-171
-168
-168
-162
-152
-150
-145
-132
-132
-137
-126
-120
-134
-141
-142
-163
-185
-186
-173
-162
-142
-95
-64
-91
-83
-30
-75
-90
246
960
1811
2083
1006
-503
-656
179
413
133
123
201
148
154
194
182
190
216
226
246
265
272
287
307
325
346
363
380
403
419
433
458
480
489
500
504
494
487
466
385
249
106
-18
-119
-199
-256
-288
-304
-313
-314
-308
-306
-308
-308
-304
-296
-294
-303
-308
-305
-306
-307
-301
-295
-293
-288
-284
-286
-281
-263
-252
-255
-257
-250
-242
-233
-222
-222
-224
-211
-203
-214
-214
-195
-186
-187
-180
-172
-173
-172
-163
-155
-153
-156
-153
-141
-132
-133
-136
-138
-145
-159
-173
-191
-204
-189
-164
-148
-116
-89
-102
-87
-41
-69
-38
385
1268
2077
1781
190
-1054
-676
210
321
117
154
180
136
172
202
190
211
242
248
256
273
292
316
338
357
379
399
414
434
457
478
500
522
542
558
571
573
559
511
410
261
100
-44
-157
-243
-302
-329
-337
-347
-352
-343
-335
-335
-330
-323
-325
-327
-324
-325
-327
-327
-323
-319
-321
-324
-319
-309
-304
-299
-289
-281
-278
-276
-273
-263
-250
-242
-235
-225
-222
-220
-208
-195
-193
-195
-192
-183
-177
-172
-165
-157
-153
-154
-156
-155
-162
-172
-163
-133
-99
-55
-31
-58
-105
-129
-121
-107
-119
-117
-82
-109
-130
155
889
1809
2051
870
-716
-897
-12
329
100
71
140
92
98
144
138
146
179
194
210
237
255
270
292
322
350
367
386
418
449
471
495
519
537
557
578
590
586
552
455
299
129
-23
-153
-255
-317
-346
-357
-362
-363
-361
-358
-355
-353
-351
-350
-352
-350
-345
-346
-350
-345
-336
-335
-341
-340
-331
-322
-317
-312
-301
-290
-287
-287
-282
-273
-261
-252
-253
-249
-234
-226
-226
-223
-227
-232
-217
-193
-166
-114
-79
-104
-138
-144
-147
-146
-147
-146
-109
-110
-173
-63
434
1331
2180
1842
156
-958
-409
323
216
33
122
110
63
125
148
126
150
189
206
224
252
280
300
319
349
381
403
431
466
495
525
559
590
618
644
655
652
618
516
348
165
0
-142
-254
-322
-352
-366
-374
-374
-369
-366
-361
-351
-344
-346
-348
-344
-345
-347
-344
-341
-344
-345
-340
-332
-327
-327
-324
-313
-300
-294
-295
-295
-286
-274
-267
-263
-259
-255
-246
-237
-236
-234
-225
-221
-223
-220
-216
-220
-226
-221
-209
-198
-166
-114
-98
-133
-166
-178
-171
-158
-179
-186
-134
-151
-215
-17
607
1550
2177
1423
-308
-975
-200
314
89
-5
95
59
39
91
90
92
133
155
167
194
220
242
268
295
322
348
375
410
447
475
499
530
565
597
621
640
643
610
520
371
193
24
-109
-197
-255
-296
-311
-307
-312
-317
-299
-283
-290
-294
-278
-269
-269
-262
-255
-256
-253
-243
-239
-234
-217
-199
-191
-189
-181
-165
-154
-152
-145
-126
-110
-108
-107
-91
-73
-68
-60
-45
-39
-39
-30
-21
-14
-4
2
5
12
19
21
23
30
32
30
32
40
44
41
36
28
8
-19
-29
-21
-9
8
40
