# session 15
-49
-26
-89
-73
147
369
387
310
281
259
192
124
111
143
154
121
91
97
81
-13
-92
-68
-94
-171
10
432
730
675
73
-776
-920
-314
18
-122
-155
-73
-99
-113
-62
-26
22
95
151
199
271
359
447
519
572
611
618
568
464
316
138
-37
-177
-273
-336
-383
-418
-436
-446
-455
-447
-426
-425
-438
-433
-431
-437
-406
-349
-319
-321
-349
-362
-296
-256
-324
-303
-6
665
1557
1671
431
-709
-498
50
-9
-126
-20
-10
-26
56
102
123
194
259
306
379
462
530
594
642
665
693
724
696
587
445
318
202
90
2
-48
-73
-93
-116
-138
-153
-173
-216
-266
-300
-336
-372
-348
-261
-195
-182
-192
-190
-151
-109
-119
-158
-48
657
1979
2506
1100
-661
-799
-117
-52
-247
-182
-154
-203
-155
-107
-84
-16
38
55
103
174
220
256
303
338
332
291
227
116
-33
-158
-257
-387
-510
-536
-517
-546
-594
-606
-600
-599
-602
-601
-589
-579
-580
-560
-510
-479
-490
-509
-529
-560
-539
-475
-492
-474
-155
361
681
405
-529
-1278
-993
-286
-112
-232
-187
-131
-136
-82
-17
25
100
191
271
357
455
554
648
736
817
870
873
819
695
509
320
173
55
-49
-118
-142
-151
-163
-164
-147
-135
-135
-136
-139
-144
-152
-165
-149
-92
-42
-31
-56
-89
-58
-4
-57
-98
80
550
1364
1905
1120
-341
-676
-44
151
-54
-36
22
-29
-11
45
86
167
250
303
369
457
554
670
783
860
898
900
835
686
489
299
148
43
-24
-67
-95
-114
-132
-148
-162
-182
-203
-229
-267
-302
-327
-357
-361
-311
-263
-262
-280
-320
-352
-317
-326
-450
-425
57
933
1461
704
-781
-1262
-624
-267
-436
-454
-348
-350
-327
-261
-230
-178
-92
-17
56
135
209
285
351
390
409
401
346
243
105
-52
-195
-295
-361
-415
-458
-479
-482
-483
-484
-474
-454
-441
-453
-470
-470
-464
-436
-362
-291
-279
-299
-319
-315
-276
-282
-332
-235
174
873
1350
750
-585
-1052
-390
65
-47
-64
52
58
79
149
175
217
297
355
407
476
542
606
665
693
701
712
701
626
491
325
159
20
-92
-186
-254
-285
-287
-277
-270
-268
-261
-261
-288
-309
-305
-322
-362
-337
-247
-198
-207
-216
-230
-234
-213
-236
-264
-131
292
1087
1718
1089
-453
-1053
-431
-35
-179
-162
-17
-13
3
81
117
133
172
241
343
442
521
609
711
796
838
850
855
808
667
494
347
219
129
70
-10
-73
-69
-95
-189
-242
-235
-250
-270
-272
-321
-402
-419
-374
-342
-335
-324
-338
-395
-407
-332
-319
-428
-409
23
852
1394
679
-844
-1404
-713
-209
-333
-381
-259
-246
-252
-197
-150
-98
-24
41
108
212
347
476
579
676
753
764
715
630
498
323
148
7
-96
-176
-255
-328
-367
-373
-373
-383
-401
-419
-425
-420
-425
-431
-411
-373
-336
-310
-316
-353
-373
-362
-344
-348
-378
-336
37
845
1363
554
-1030
-1530
-715
-113
-199
-243
-125
-127
-145
-76
-13
31
89
167
269
376
475
585
701
789
837
857
841
761
617
450
299
178
87
25
-19
-53
-75
-86
-97
-112
-121
-127
-139
-163
-193
-216
-222
-205
-169
-141
-136
-142
-155
-157
-121
-104
-123
-66
206
802
1374
965
-417
-1153
-572
35
-38
-152
-75
-77
-98
-42
3
34
92
162
242
329
415
507
593
651
687
707
689
615
479
293
107
-44
-169
-265
-322
-359
-390
-398
-394
-403
-409
-400
-403
-423
-431
-425
-427
-437
-421
-364
-316
-319
-335
-349
-383
-370
-309
-345
-366
-50
592
1180
1102
42
-1044
-960
-259
-79
-219
-160
-93
-117
-70
3
37
100
190
266
350
457
570
679
775
844
878
870
801
651
442
238
82
-31
-105
-145
-179
-218
-223
-205
-228
-274
-260
-208
-218
-299
-349
-355
-415
-494
-432
-279
-230
-282
-325
-352
-344
-304
-329
-385
-281
244
1291
1971
1072
-577
-1008
-412
-237
-439
-400
-328
-373
-347
-288
-270
-216
-135
-76
-10
87
206
330
443
542
616
647
633
555
395
213
74
-36
-129
-168
-154
-138
-146
-164
-172
-169
-171
-187
-219
-269
-321
-363
-385
-372
-317
-266
-257
-273
-294
-292
-268
-295
-338
-306
-82
900
2616
3118
1299
-545
-523
-9
-177
-317
-195
-221
-247
-150
-105
-75
1
45
97
213
338
455
587
700
784
849
843
729
563
410
272
151
52
-39
-117
-164
-195
-227
-257
-292
-327
-340
-336
-352
-388
-408
-413
-432
-440
-390
-315
-292
-319
-353
-377
-355
-298
-311
-367
-206
484
1547
1858
575
-984
-1085
-390
-267
-441
-374
-318
-337
-290
-277
-275
-164
-32
47
147
280
397
491
581
682
773
798
715
550
374
195
-16
-195
-275
-294
-307
-348
-431
-476
-423
-386
-438
-493
-526
-556
-532
-476
-477
-485
-416
-356
-370
-372
-357
-363
-329
-301
-371
-366
-95
515
1392
1668
564
-723
-683
-65
-39
-190
-69
6
-19
17
60
114
200
228
252
372
492
531
560
621
682
700
650
573
495
368
233
168
120
36
-17
-33
-69
-103
-127
-176
-199
-152
-99
-96
-139
-210
-257
-248
-221
-174
-101
-78
-110
-120
-136
-159
-128
-141
-214
-94
382
1146
1654
970
-567
-1174
-507
-31
-188
-253
-149
-172
-201
-124
-28
45
99
146
228
345
451
538
634
714
747
761
758
662
475
289
129
-25
-157
-256
-320
-345
-364
-405
-443
-453
-457
-479
-502
-495
-480
-511
-549
-510
-425
-366
-339
-340
-361
-385
-406
-363
-293
-352
-392
-75
551
1138
1127
104
-1040
-986
-239
-46
-226
-204
-139
-129
-66
-42
-42
56
167
205
251
329
385
457
599
733
766
714
623
478
292
146
70
-1
-90
-150
-173
-199
-229
-245
-245
-255
-307
-363
-353
-299
-288
-329
-382
-405
-353
-274
-258
-268
-259
-274
-261
-210
-262
-308
-21
699
1594
1819
693
-694
-793
-167
-63
-217
-143
-100
-118
-28
47
57
119
221
300
365
448
564
675
734
758
760
702
584
461
350
229
105
-1
-90
-171
-236
-259
-237
-220
-238
-264
-284
-304
-319
-337
-373
-404
-423
-431
-378
-262
-195
-227
-274
-297
-311
-299
-299
-322
-217
170
945
1755
1461
-132
-1189
-717
-110
-221
-306
-151
-157
-203
-119
-59
-19
106
235
304
377
473
560
660
789
886
906
855
747
585
379
175
27
-91
-225
-333
-355
-342
-361
-392
-405
-413
-420
-420
-423
-426
-424
-432
-445
-441
-432
-426
-386
-326
-305
-317
-332
-331
-288
-292
-380
-265
231
839
1088
496
-687
-1192
-598
-58
-126
-199
-108
-104
-103
-31
8
44
137
238
308
370
460
593
734
841
917
960
925
783
573
357
181
55
-54
-161
-219
-223
-254
-311
-311
-284
-318
-373
-373
-359
-381
-402
-392
-391
-430
-454
-389
-285
-255
-276
-285
-297
-266
-209
-283
-361
-106
511
1237
1451
557
-629
-715
-110
3
-168
-92
-11
-41
-8
52
96
178
267
340
406
470
581
722
802
841
891
880
764
627
500
336
158
28
-64
-148
-206
-228
-238
-274
-334
-371
-366
-359
-372
-399
-440
-478
-481
-471
-476
-464
-417
-375
-355
-343
-362
-376
-319
-301
-370
-310
49
779
1567
1349
-58
-959
-518
-23
-146
-230
-132
-127
-103
-18
9
36
111
178
252
352
451
557
680
771
811
813
760
629
447
263
108
-15
-117
-197
-250
-282
-306
-324
-337
-349
-357
-356
-359
-374
-396
-417
-431
-438
-458
-472
-421
-329
-293
-314
-332
-344
-317
-265
-302
-360
-201
355
1305
1862
980
-542
-868
-219
-18
-216
-186
-104
-127
-96
-40
-5
64
145
213
302
406
519
642
749
815
842
826
743
591
403
226
80
-40
-134
-205
-253
-276
-287
-302
-312
-316
-328
-340
-338
-340
-359
-375
-385
-400
-426
-454
-438
-362
-295
-293
-320
-341
-343
-308
-299
-346
-322
21
928
1891
1523
-194
-1186
-639
-72
-200
-288
-179
-184
-196
-132
-94
-47
48
143
239
349
460
573
689
778
829
855
827
709
529
341
169
25
-76
-153
-218
-259
-277
-292
-304
-301
-294
-303
-319
-323
-322
-329
-337
-340
-348
-361
-373
-382
-346
-252
-184
-194
-238
-257
-209
-158
-202
-229
-85
334
1205
1938
1236
-451
-1022
-297
78
-143
-163
-61
-90
-30
97
112
130
230
302
355
476
610
693
770
867
931
929
882
791
629
429
249
92
-62
-178
-235
-297
-382
-418
-399
-379
-364
-379
-431
-449
-451
-495
-495
-425
-414
-458
-493
-523
-458
-295
-264
-361
-375
-375
-414
-334
-232
-246
-129
295
882
1148
414
-846
-1104
-369
-63
-266
-180
-33
-193
-275
-89
86
113
77
123
319
466
427
443
656
837
867
870
852
696
444
260
156
43
-66
-156
-246
-269
-236
-277
-324
-256
-227
-332
-402
-366
-317
-310
-369
-432
-383
-311
-316
-287
-219
-246
-321
-336
-289
-184
-118
-211
-265
-13
529
1177
1352
435
-766
-834
-172
-2
-163
-94
24
17
-49
-96
21
214
256
246
288
300
377
567
673
694
772
800
657
473
359
245
87
-44
-70
-35
-87
-220
-230
-119
-132
-266
-302
-247
-248
-311
-367
-371
-325
-337
-462
-500
-341
-226
-271
-290
-277
-324
-291
-229
-351
-370
165
1172
1981
1610
92
-898
-520
-34
-180
-265
-106
-107
-150
-49
22
30
109
225
313
398
448
448
516
679
780
757
689
577
392
209
75
-48
-150
-206
-255
-312
-337
-308
-264
-286
-362
-366
-328
-381
-440
-392
-369
-432
-455
-428
-416
-358
-271
-300
-407
-411
-297
-223
-295
-399
-290
184
1029
1683
1082
-470
-1124
-487
-26
-179
-213
-74
-88
-131
-62
1
6
61
214
361
397
401
516
682
746
774
852
807
580
392
282
122
-12
-56
-125
-226
-281
-311
-306
-259
-256
-314
-347
-347
-361
-373
-377
-415
-458
-441
-393
-363
-322
-275
-279
-321
-352
-331
-256
-246
-322
-257
205
1150
1926
1301
-371
-1049
-394
2
-201
-229
-133
-176
-154
-58
-11
63
158
209
273
373
460
544
646
744
831
874
808
636
439
270
117
-11
-71
-101
-192
-289
-273
-208
-227
-288
-307
-312
-333
-342
-342
-367
-397
-398
-430
-507
-484
-333
-248
-290
-323
-325
-333
-299
-266
-313
-312
3
847
1804
1586
-57
-1218
-767
-64
-98
-223
-129
-110
-100
-21
5
42
151
235
300
417
543
642
743
850
925
950
928
839
664
440
242
94
-31
-138
-211
-255
-291
-322
-338
-340
-346
-366
-383
-382
-377
-384
-396
-408
-417
-416
-422
-421
-359
-268
-247
-276
-290
-303
-289
-244
-271
-319
-128
518
1508
1893
740
-873
-1071
-268
-8
-216
-199
-110
-127
-92
-27
-4
29
95
197
323
419
502
624
752
835
873
854
789
694
519
274
71
-70
-199
-285
-337
-429
-492
-426
-346
-381
-436
-439
-465
-498
-444
-373
-383
-420
-417
-403
-413
-420
-377
-323
-325
-321
-269
-276
-301
-245
-275
-385
-198
328
957
1432
1047
-310
-1159
-689
-64
-41
-101
-47
-81
-113
-75
-16
80
151
162
230
385
539
660
722
752
856
948
841
683
676
576
214
-48
-13
45
-20
-118
-199
-195
-112
-122
-228
-261
-216
-195
-217
-267
-294
-282
-318
-399
-385
-298
-255
-231
-215
-254
-288
-298
-325
-288
-223
-277
-282
66
854
1719
1582
76
-1089
-688
-13
-119
-285
-153
-158
-254
-181
-25
82
110
115
224
390
433
408
520
726
815
745
661
609
470
240
103
69
-20
-129
-178
-240
-283
-216
-169
-251
-323
-299
-277
-308
-345
-365
-382
-401
-415
-422
-437
-462
-449
-380
-342
-372
-371
-332
-348
-368
-338
-354
-320
33
791
1613
1560
190
-1094
-917
-192
-156
-367
-238
-72
-79
-102
-60
1
26
60
195
369
485
577
676
761
845
930
956
863
660
424
225
101
39
-61
-204
-241
-182
-214
-303
-254
-150
-211
-348
-341
-238
-208
-239
-256
-266
-272
-266
-273
-295
-302
-266
-221
-218
-208
-137
-135
-244
-251
-152
-140
-84
263
954
1696
1549
160
-945
-630
-28
-102
-216
-50
-40
-147
-99
-5
10
31
109
219
326
388
445
546
611
612
667
741
667
462
244
42
-95
-136
-175
-248
-278
-284
-336
-381
-356
-330
-364
-421
-449
-437
-417
-420
-448
-483
-493
-470
-481
-550
-550
-428
-333
-347
-379
-392
-394
-330
-283
-367
-367
-28
731
1824
2313
1139
-597
-916
-243
-95
-331
-283
-145
-122
-87
-32
6
70
177
272
314
390
577
748
804
846
899
853
743
667
558
367
186
52
-72
-154
-175
-199
-255
-290
-280
-293
-351
-371
-352
-393
-438
-375
-311
-350
-399
-402
-401
-404
-425
-459
-438
-390
-404
-406
-322
-257
-282
-318
-333
-324
-237
-190
-291
-234
278
1082
1679
1291
-184
-1241
-825
-86
-71
-202
-75
-21
-37
36
73
74
164
263
296
392
591
748
830
938
1066
1143
1172
1127
955
715
498
301
145
78
41
-35
-94
-109
-134
-152
-130
-142
-215
-252
-223
-200
-202
-200
-212
-254
-290
-285
-256
-266
-327
-367
-359
-357
-347
-270
-183
-176
-201
-204
-225
-221
-158
-188
-269
-102
382
1190
2051
1798
168
-938
-520
0
-152
-259
-152
-132
-91
5
21
39
122
191
238
307
385
454
522
588
627
626
589
506
371
215
69
-68
-196
-283
-324
-365
-413
-446
-472
-479
-458
-477
-543
-555
-519
-559
-640
-629
-554
-527
-546
-566
-600
-631
-625
-623
-637
-601
-550
-554
-554
-533
-564
-579
-525
-539
-542
-238
447
1261
1433
255
-1285
-1442
-571
-208
-367
-351
-254
-239
-172
-96
-56
29
131
219
340
488
641
801
931
1038
1189
1333
1337
1187
968
740
532
359
226
143
108
91
80
89
102
102
124
185
232
241
251
286
