# session 11
-139
-90
-240
-49
712
1332
1368
1228
1221
1196
1102
1047
992
813
561
433
410
229
-68
-184
-181
-234
-201
-75
-22
31
25
-259
-492
-277
-1
-86
-270
-302
-292
-289
-241
-168
-103
-70
-62
-51
-59
-55
-30
-105
-151
127
809
2037
3293
2864
694
-630
-142
360
144
1
25
15
121
184
63
48
197
276
319
415
458
496
675
821
742
630
687
792
766
618
425
224
84
108
234
223
20
-176
-296
-436
-576
-642
-694
-799
-902
-940
-940
-959
-1006
-1047
-1059
-1037
-972
-935
-1006
-1066
-1034
-1048
-1010
-789
-757
-986
-870
-130
1080
2065
1366
-795
-1858
-1109
-475
-592
-585
-406
-356
-285
-154
-12
175
302
336
418
537
612
736
959
1155
1244
1273
1285
1272
1193
1000
718
460
301
188
101
99
140
122
58
13
53
174
189
37
-8
110
93
-47
-70
-32
-32
11
33
-57
-112
-58
-3
-4
-143
-352
-178
501
1168
1330
562
-1067
-2126
-1631
-806
-722
-741
-573
-686
-820
-624
-500
-557
-407
-125
-24
-71
-141
-89
221
525
481
301
302
382
352
235
95
-35
-132
-212
-278
-292
-235
-146
-75
-45
-65
-118
-138
-92
-43
-30
-1
58
90
88
119
217
299
269
170
84
14
26
135
120
-8
126
620
1426
2279
1997
212
-1045
-563
107
11
-43
132
129
82
59
-29
21
225
278
198
268
467
552
509
485
467
374
234
92
-57
-225
-416
-591
-691
-743
-840
-953
-924
-757
-690
-759
-711
-502
-380
-436
-547
-658
-775
-818
-717
-558
-454
-416
-420
-428
-404
-396
-390
-261
-116
-89
64
490
1170
2092
2301
829
-832
-749
134
292
173
283
260
178
275
330
313
409
479
425
472
625
689
750
869
834
704
723
782
755
773
768
591
405
359
341
273
175
70
32
56
-20
-219
-335
-342
-416
-554
-663
-797
-930
-955
-948
-991
-1014
-1018
-1079
-1178
-1191
-1006
-807
-874
-972
-695
3
1193
2246
1508
-762
-1885
-1150
-474
-530
-531
-394
-361
-316
-251
-192
-68
55
137
263
437
601
729
824
903
949
961
984
977
887
787
700
549
377
266
174
96
60
9
-33
24
58
-44
-103
-24
-4
-90
-103
-45
-37
-48
-24
-28
-79
-127
-154
-126
-69
-151
-271
-63
476
1160
1679
1109
-617
-1592
-861
-38
-194
-503
-475
-473
-540
-507
-450
-446
-485
-522
-373
-37
69
-153
-178
118
271
219
225
221
81
-140
-344
-371
-198
-116
-272
-436
-427
-356
-361
-375
-295
-193
-158
-110
0
58
16
-52
-105
-106
1
137
175
156
134
105
147
202
102
-7
99
645
2113
3669
3011
407
-936
-288
146
-172
-193
22
-6
-71
5
116
209
271
317
387
451
482
483
437
427
574
718
595
322
186
109
-131
-452
-657
-732
-733
-714
-744
-804
-810
-781
-789
-810
-803
-817
-870
-898
-904
-923
-878
-766
-746
-808
-792
-750
-778
-761
-706
-724
-599
-129
646
1595
1828
435
-1227
-1169
-165
115
-4
156
260
202
238
287
281
368
535
656
742
862
988
1078
1146
1195
1203
1188
1152
1036
852
693
575
453
357
339
345
290
216
186
158
126
147
148
6
-197
-300
-317
-354
-391
-341
-247
-206
-200
-230
-347
-447
-482
-568
-500
30
702
884
222
-1096
-1969
-1523
-614
-384
-536
-530
-519
-556
-518
-459
-387
-276
-207
-175
-109
-35
49
170
259
303
384
471
474
438
416
339
197
86
37
12
0
-4
11
55
63
0
-55
-68
-92
-105
-58
-17
-45
-68
-25
10
-20
-69
-126
-197
-206
-226
-333
-234
230
799
1253
1097
-107
-1248
-998
-168
8
-113
-51
-61
-158
-124
-13
5
-68
61
477
694
508
413
571
624
567
610
628
496
337
213
79
-51
-133
-174
-217
-277
-319
-333
-353
-393
-442
-483
-485
-473
-494
-491
-445
-468
-512
-417
-280
-271
-343
-383
-296
-103
-22
-53
65
459
1325
2349
2031
86
-1208
-761
-223
-437
-590
-512
-560
-609
-567
-554
-535
-445
-325
-221
-130
-10
115
152
134
205
369
507
565
567
557
568
590
638
730
787
729
607
483
363
259
179
103
37
13
28
54
88
155
238
292
325
334
271
201
170
42
-140
-185
29
1000
2610
2753
429
-1623
-1383
-595
-686
-836
-692
-695
-751
-685
-618
-575
-512
-427
-327
-249
-158
-4
115
159
245
360
348
233
142
56
-79
-215
-295
-319
-321
-367
-441
-420
-311
-271
-324
-366
-385
-402
-374
-311
-256
-197
-149
-164
-196
-186
-205
-257
-210
-165
-267
-179
335
902
1196
939
-123
-1098
-863
-127
-1
-132
-95
-139
-159
-10
-17
-146
9
317
415
443
601
708
676
647
633
566
495
436
323
152
-25
-173
-281
-338
-325
-283
-296
-326
-312
-330
-382
-342
-260
-280
-342
-349
-342
-329
-288
-264
-269
-276
-308
-314
-242
-248
-316
-103
471
1215
1782
1335
-146
-989
-456
90
-34
-128
-23
-21
-19
36
51
130
302
408
448
525
601
651
753
863
839
734
713
726
626
444
306
225
151
88
37
-41
-112
-118
-135
-228
-271
-205
-175
-225
-264
-290
-317
-289
-273
-344
-384
-348
-329
-276
-177
-176
-112
276
840
1231
907
-360
-1424
-1166
-449
-408
-634
-577
-477
-495
-488
-408
-313
-265
-277
-265
-129
52
115
127
239
357
369
363
377
341
257
147
19
-80
-152
-224
-261
-246
-222
-207
-194
-176
-158
-182
-251
-294
-291
-290
-258
-152
-62
-55
-75
-83
-61
-21
-59
-140
-75
371
1536
2890
2628
560
-821
-454
-12
-211
-265
-149
-203
-206
-96
-41
7
106
205
291
348
385
450
497
476
483
560
596
556
483
345
141
-40
-164
-264
-385
-534
-650
-696
-721
-748
-760
-791
-833
-792
-678
-642
-728
-778
-705
-656
-722
-723
-550
-439
-504
-450
-231
67
1080
2609
2469
197
-1303
-739
-79
-222
-266
-98
-68
4
154
235
303
345
310
313
395
446
453
516
653
768
793
781
779
733
623
497
357
221
159
134
53
-27
-32
-37
-89
-130
-158
-198
-215
-189
-146
-119
-127
-135
-120
-161
-253
-271
-277
-378
-364
-55
483
1087
1086
-98
-1365
-1284
-522
-352
-540
-536
-505
-531
-490
-431
-388
-323
-260
-208
-117
-8
54
85
141
190
216
304
435
429
260
117
71
5
-128
-249
-305
-323
-345
-380
-398
-386
-364
-337
-287
-219
-144
-65
-8
17
30
14
-40
-50
-15
-36
-51
58
541
1805
3037
2357
196
-791
-207
120
-106
-73
45
-78
-161
-72
33
100
137
156
208
304
385
439
498
557
591
594
584
574
529
432
350
295
208
109
12
-127
-268
-356
-447
-558
-656
-770
-876
-878
-804
-757
-756
-785
-825
-846
-893
-944
-875
-797
-825
-713
-429
80
1359
2576
1652
-637
-1341
-510
-225
-501
-463
-364
-416
-365
-240
-152
-48
77
205
349
492
599
656
689
727
737
722
758
795
710
567
457
307
153
130
139
53
-11
3
-22
-74
-80
-88
-116
-132
-162
-165
-95
-60
-121
-187
-225
-193
-101
-156
-312
-164
377
1095
1493
749
-738
-1225
-560
-241
-432
-341
-167
-283
-397
-334
-278
-331
-399
-350
-209
-92
-48
-56
40
324
506
393
259
221
106
0
14
-23
-126
-158
-238
-406
-430
-348
-398
-469
-384
-309
-355
-395
-372
-311
-232
-190
-170
-115
-60
13
126
131
52
99
386
1233
2399
2259
434
-765
-257
264
19
-85
77
42
-34
48
132
165
202
224
248
330
424
459
474
509
528
519
523
553
583
593
572
502
394
312
251
118
-49
-108
-116
-207
-309
-357
-417
-449
-426
-479
-630
-759
-834
-877
-914
-938
-889
-868
-959
-817
-261
299
579
359
-628
-1574
-1371
-636
-471
-594
-530
-495
-492
-337
-183
-156
-144
-88
-13
68
137
212
319
428
521
629
741
816
848
828
725
557
393
289
242
203
122
46
60
118
104
36
6
2
-17
-14
23
56
70
29
-74
-110
-59
-113
-193
6
534
1339
1953
1326
-237
-842
-184
223
55
28
106
49
18
33
2
16
122
183
127
104
195
231
147
100
120
96
24
-37
-95
-179
-307
-445
-514
-494
-481
-542
-592
-553
-496
-488
-506
-530
-494
-353
-262
-329
-395
-345
-275
-289
-376
-396
-312
-314
-408
-324
139
1138
2142
1706
-81
-968
-302
185
-77
-187
-48
-21
13
93
95
99
159
203
239
294
344
405
499
563
565
587
666
712
689
649
578
466
381
307
176
67
40
7
-52
-73
-104
-186
-242
-267
-292
-277
-283
-363
-359
-273
-307
-351
-314
-436
-501
-53
474
319
-552
-1589
-1956
-1317
-560
-441
-537
-460
-439
-508
-491
-408
-345
-320
-277
-129
62
148
172
241
314
356
424
510
558
567
533
451
335
204
118
116
137
127
110
91
54
-7
-86
-130
-102
-61
-56
-59
-56
-36
-1
-3
-5
36
-7
-122
-75
421
1698
3064
2620
421
-848
-333
115
-134
-194
-28
-37
-66
18
108
189
277
320
307
304
359
440
487
469
419
395
372
270
129
32
-80
-268
-448
-571
-675
-744
-777
-823
-848
-817
-842
-926
-858
-653
-584
-649
-629
-548
-529
-539
-514
-440
-423
-540
-587
-445
23
1320
2689
1976
-429
-1500
-755
-274
-445
-399
-249
-241
-157
-20
36
72
121
196
324
425
439
471
595
722
784
814
835
862
887
824
654
489
382
280
162
48
-45
-86
-78
-84
-125
-150
-142
-156
-174
-115
-44
-67
-119
-197
-383
-501
-410
-322
-237
141
793
1186
606
-787
-1550
-997
-291
-290
-493
-502
-467
-447
-412
-359
-304
-306
-302
-188
-88
-90
-53
42
86
126
187
209
243
321
327
223
80
-40
-94
-111
-179
-272
-312
-308
-299
-286
-259
-206
-133
-64
19
112
142
102
33
-52
-82
-14
36
-8
-28
466
1915
3161
2257
28
-811
-180
103
-95
-54
30
-34
5
106
107
111
194
252
249
276
343
375
373
408
463
476
474
478
403
279
261
282
174
8
-112
-229
-332
-379
-443
-574
-708
-754
-698
-643
-648
-662
-691
-753
-749
-704
-758
-805
-755
-777
-775
-438
234
998
1149
1
-1420
-1483
-717
-443
-444
-279
-242
-313
-254
-174
-131
-54
28
110
234
345
411
495
603
671
707
744
739
715
755
774
640
446
348
327
302
250
190
160
151
94
6
-15
13
-14
-55
0
80
47
-66
-146
-148
-114
-134
-163
10
558
1388
1752
823
-635
-986
-359
-37
-144
-182
-205
-280
-291
-278
-265
-204
-155
-161
-168
-149
-113
-60
-15
-5
16
111
185
87
-101
-187
-190
-220
-290
-363
-365
-299
-314
-429
-466
-405
-386
-411
-422
-453
-470
-402
-314
-275
-263
-261
-217
-113
-75
-107
-40
332
1339
2509
2154
179
-952
-352
175
-48
-115
52
56
29
68
97
133
171
217
269
262
259
360
450
469
536
610
587
598
712
752
685
628
523
330
182
100
-2
-74
-94
-155
-236
-254
-268
-343
-390
-358
-353
-397
-418
-496
-640
-666
-657
-773
-679
-144
412
447
-342
-1549
-1932
-1177
-533
-572
-621
-501
-497
-479
-322
-152
-23
32
8
11
67
107
137
203
284
317
305
345
460
552
578
582
571
520
437
333
214
129
121
128
85
47
36
-25
-101
-77
-15
-19
-14
31
8
-29
33
43
-42
-8
159
706
2017
2830
1434
-712
-1020
-170
3
-185
-56
23
-48
-39
-27
-25
41
53
17
80
169
168
163
207
253
313
339
202
-20
-137
-180
-263
-345
-400
-467
-522
-580
-692
-755
-674
-622
-714
-762
-680
-631
-611
-522
-470
-515
-548
-574
-602
-559
-533
-556
-405
92
935
1528
810
-744
-1216
-465
-28
-121
-41
88
38
41
108
112
163
326
471
515
538
610
689
756
852
925
912
884
885
841
730
638
590
533
433
309
221
195
179
130
93
95
100
91
91
106
124
136
117
47
-9
12
-22
-204
-282
-7
497
874
549
-716
-1845
-1650
-791
-511
-650
-615
-537
-593
-620
-522
-386
-337
-379
-355
-217
-132
-135
-83
5
12
-23
-28
-17
10
55
71
26
-51
-106
-146
-208
-256
-242
-223
-237
-226
-183
-139
-74
-13
-1
6
39
45
4
-16
37
89
40
-18
96
645
1841
2765
1853
-171
-877
-208
64
-195
-217
-177
-257
-189
-24
47
78
105
108
148
253
352
405
436
445
456
514
553
476
364
341
341
248
78
-83
-174
-217
-283
-373
-451
-554
-650
-640
-595
-618
-601
-537
-586
-637
-593
-710
-914
-856
-739
-725
-468
36
675
1296
867
-718
-1463
-731
-238
-505
-586
-413
-371
-354
-295
-236
-145
-66
18
186
337
398
482
602
655
649
641
645
682
729
701
580
449
386
363
307
238
216
203
152
108
114
137
108
21
-21
46
120
122
81
32
15
33
29
43
171
627
1736
2698
1868
-133
-825
-107
249
102
111
47
-125
-114
-101
-226
-303
-283
-206
-94
-55
-134
-204
-169
-109
-140
-191
-155
-126
-206
-346
-454
-472
-436
-446
-473
-464
-489
-558
-605
-637
-629
-536
-470
-521
-568
-524
-472
-460
-466
-488
-469
-382
-367
-403
-224
313
1205
1914
1277
-463
-1237
-502
91
-36
-62
104
102
76
145
198
255
359
436
465
491
493
462
486
568
592
580
621
648
628
615
540
393
295
160
-84
-204
-159
-180
-226
-152
-88
-134
-190
-185
-119
-63
-117
-225
-305
-398
-448
-413
-481
-554
-200
416
536
-186
-1269
-1754
-1228
-480
-308
-423
-380
-318
-354
-342
-271
-225
-157
-44
-2
-9
73
185
220
254
327
371
395
432
456
455
453
429
344
256
264
322
321
262
205
158
107
69
76
127
177
202
214
219
216
196
155
