# session 25
-17
-17
-16
-16
-17
-16
-15
-15
-11
-4
-18
-51
-75
-81
-92
-116
-133
-131
-122
-126
-142
-155
-155
-147
-143
-143
-143
-141
-133
-120
-117
-127
-131
-123
-119
-119
-112
-104
-104
-105
-93
-76
-78
-94
-100
-93
-82
-75
-79
-86
-87
-99
-118
-131
-156
-180
-159
-122
-105
-78
-54
-63
-45
-20
-46
114
723
1509
1726
791
-737
-1338
-640
66
93
8
74
74
52
96
115
100
105
129
155
173
184
202
223
239
264
293
316
341
373
397
413
428
440
441
437
427
401
348
271
172
62
-29
-76
-103
-135
-164
-177
-180
-178
-170
-155
-143
-146
-161
-176
-186
-193
-203
-222
-252
-278
-273
-242
-233
-256
-270
-268
-274
-281
-267
-257
-272
-279
-260
-247
-251
-241
-212
-198
-210
-221
-208
-185
-177
-174
-160
-163
-191
-215
-231
-260
-251
-192
-163
-156
-110
-85
-93
-52
-61
-119
132
786
1467
1665
864
-547
-1071
-358
215
93
-13
76
70
45
83
99
107
131
133
136
160
189
217
238
249
279
323
350
372
401
420
433
457
477
479
472
459
424
364
279
173
68
-17
-79
-116
-130
-136
-148
-156
-150
-141
-141
-148
-157
-168
-176
-183
-192
-201
-210
-221
-228
-228
-227
-234
-239
-234
-230
-235
-238
-237
-236
-231
-230
-228
-215
-205
-210
-214
-208
-200
-201
-210
-214
-203
-187
-153
-92
-55
-75
-106
-123
-130
-122
-124
-121
-85
-101
-128
106
646
1264
1519
761
-664
-1174
-438
116
-19
-107
-14
-33
-53
-1
11
12
48
73
87
112
135
154
184
216
240
259
280
302
323
337
340
342
345
336
315
292
263
220
161
94
35
-8
-42
-67
-81
-86
-93
-98
-98
-100
-107
-112
-117
-127
-137
-145
-155
-167
-174
-182
-189
-190
-188
-190
-193
-194
-196
-196
-191
-191
-194
-191
-190
-201
-196
-168
-147
-123
-75
-53
-86
-121
-130
-128
-120
-121
-112
-76
-90
-105
125
674
1334
1562
696
-758
-1204
-437
123
20
-59
13
-9
-25
24
36
37
69
92
102
118
136
155
181
207
230
252
274
296
318
337
352
357
352
346
334
309
273
223
156
76
0
-59
-101
-129
-143
-145
-141
-141
-148
-152
-149
-150
-159
-162
-162
-174
-186
-188
-188
-190
-193
-197
-202
-204
-204
-199
-189
-187
-193
-190
-182
-180
-180
-172
-168
-170
-170
-169
-171
-176
-183
-182
-167
-142
-101
-59
-63
-103
-129
-130
-120
-121
-133
-113
-94
-131
-37
416
1144
1714
1367
-64
-1215
-926
-109
57
-92
-51
-14
-44
-14
13
8
36
67
74
91
120
142
168
200
225
248
276
305
330
356
378
390
400
410
409
399
385
347
272
183
103
29
-40
-90
-126
-152
-161
-158
-157
-160
-159
-155
-155
-160
-169
-179
-184
-190
-198
-205
-214
-224
-229
-224
-219
-221
-224
-221
-217
-216
-219
-231
-244
-241
-221
-185
-129
-93
-115
-152
-169
-164
-147
-154
-165
-120
-124
-186
9
565
1239
1657
1133
-325
-1169
-596
79
11
-127
-39
-42
-75
-25
-4
-4
30
53
64
90
116
137
163
194
227
260
292
325
360
394
424
449
467
476
479
467
417
322
203
84
-27
-122
-188
-224
-241
-249
-248
-240
-234
-233
-232
-229
-230
-235
-238
-240
-246
-253
-258
-260
-260
-257
-254
-255
-252
-246
-245
-242
-235
-233
-234
-233
-243
-256
-252
-229
-178
-112
-88
-120
-146
-152
-151
-132
-131
-135
-86
-98
-163
52
619
1277
1698
1208
-220
-1045
-483
144
38
-95
3
-3
-37
12
35
42
76
90
97
125
150
170
203
235
257
285
317
345
372
400
423
439
452
457
450
433
396
326
231
135
51
-21
-77
-112
-131
-143
-147
-144
-145
-148
-149
-151
-157
-163
-171
-181
-188
-189
-191
-195
-198
-199
-200
-200
-194
-188
-185
-184
-181
-178
-175
-172
-167
-163
-160
-157
-154
-150
-148
-145
-139
-132
-127
-124
-124
-122
-116
-111
-110
-108
-103
-100
-98
-98
-105
-113
-122
-143
-170
-184
-178
-150
-119
-103
-84
-64
-75
-66
-17
-50
-63
251
845
1412
1536
695
-608
-906
-167
230
44
-10
70
35
27
76
78
77
99
106
113
132
149
169
194
213
229
249
271
291
310
326
340
351
358
359
355
344
320
275
213
146
81
21
-25
-62
-93
-114
-127
-137
-145
-150
-156
-164
-172
-179
-186
-192
-199
-206
-212
-217
-220
-221
-221
-219
-217
-218
-217
-214
-211
-210
-207
-202
-198
-195
-192
-187
-182
-177
-172
-167
-164
-162
-156
-149
-145
-140
-135
-131
-129
-125
-120
-114
-109
-107
-102
-97
-102
-108
-112
-126
-153
-172
-171
-150
-115
-90
-72
-48
-47
-50
-3
4
-51
112
633
1290
1689
1207
-140
-949
-440
217
176
33
109
113
76
116
136
135
161
173
175
200
217
218
238
274
299
316
332
341
351
369
392
405
409
406
393
376
369
362
309
209
122
63
0
-56
-86
-109
-122
-121
-142
-173
-164
-147
-165
-182
-182
-202
-221
-202
-191
-224
-241
-219
-225
-260
-249
-210
-219
-249
-251
-256
-274
-279
-276
-275
-269
-264
-270
-273
-269
-279
-295
-293
-282
-279
-279
-278
-273
-255
-232
-222
-214
-199
-192
-196
-190
-177
-183
-189
-184
-205
-227
-181
-121
-100
-68
-51
-61
-4
8
-65
203
886
1401
1380
702
-420
-929
-356
213
148
42
119
111
85
132
146
142
168
184
191
212
228
246
278
304
322
350
387
418
447
476
505
534
558
567
568
563
530
453
338
211
94
-12
-101
-152
-174
-193
-204
-194
-187
-197
-198
-185
-185
-202
-209
-206
-208
-218
-228
-235
-236
-236
-241
-245
-241
-236
-235
-236
-237
-236
-230
-223
-215
-212
-217
-214
-201
-196
-200
-197
-188
-183
-180
-179
-182
-184
-188
-203
-221
-250
-280
-264
-214
-184
-155
-123
-132
-113
-63
-111
-55
463
1256
1745
1382
110
-990
-821
-55
138
-24
1
49
10
30
70
72
86
107
115
131
152
168
189
213
238
269
298
326
362
402
437
470
498
519
532
536
519
456
337
193
64
-46
-137
-200
-231
-245
-251
-252
-244
-235
-231
-231
-231
-231
-231
-232
-237
-245
-251
-254
-255
-258
-265
-266
-263
-264
-266
-262
-258
-255
-248
-239
-234
-231
-225
-219
-219
-230
-243
-250
-261
-263
-213
-129
-89
-107
-137
-153
-138
-122
-142
-120
-75
-150
-125
340
1067
1667
1649
578
-700
-765
-48
131
-86
-67
-5
-57
-44
1
2
19
49
62
85
116
138
163
197
226
256
295
339
379
416
454
493
521
537
546
544
508
426
305
165
37
-68
-155
-214
-238
-244
-251
-254
-252
-247
-240
-238
-244
-245
-241
-245
-249
-249
-256
-260
-257
-264
-276
-269
-253
-249
-253
-252
-251
-256
-264
-268
-260
-217
-151
-121
-143
-170
-185
-182
-163
-170
-169
-121
-149
-182
146
892
1687
1875
842
-705
-1084
-305
117
-66
-109
-25
-64
-70
-18
-12
3
41
48
59
93
116
132
164
199
229
262
296
328
359
385
407
427
438
438
428
400
332
230
116
7
-86
-153
-197
-223
-234
-231
-225
-221
-217
-216
-221
-225
-220
-216
-221
-231
-237
-240
-243
-245
-246
-244
-243
-244
-238
-228
-228
-236
-236
-240
-251
-249
-227
-191
-136
-94
-109
-149
-167
-163
-146
-141
-150
-119
-100
-151
-41
445
1189
1779
1450
13
-1100
-750
21
85
-85
-24
1
-44
-8
24
23
50
74
82
105
131
147
169
198
220
244
272
294
312
331
347
355
358
354
343
328
303
254
184
111
45
-11
-53
-83
-106
-119
-125
-128
-130
-131
-134
-139
-146
-154
-161
-170
-176
-180
-184
-188
-192
-197
-199
-198
-196
-193
-190
-186
-182
-177
-169
-162
-156
-148
-137
-139
-145
-131
-115
-111
-99
-84
-90
-101
-101
-110
-121
-126
-146
-159
-133
-100
-73
-40
-54
-75
-5
16
-72
131
801
1487
1621
813
-562
-1154
-522
100
51
-50
18
-17
-51
26
54
14
19
59
75
76
86
110
134
146
170
214
240
246
268
300
331
371
406
415
415
417
403
342
230
104
5
-75
-151
-205
-222
-221
-217
-216
-213
-212
-213
-211
-204
-204
-208
-208
-212
-224
-233
-232
-229
-226
-224
-221
-215
-212
-218
-218
-203
-191
-194
-192
-180
-168
-160
-157
-154
-148
-148
-161
-165
-160
-170
-166
-115
-58
-45
-65
-101
-112
-86
-87
-97
-49
-71
-113
236
973
1533
1445
520
-707
-1025
-342
127
23
-32
44
24
13
56
66
77
104
106
112
139
159
182
218
245
264
289
318
339
359
380
401
416
424
426
423
413
373
290
181
78
-13
-90
-147
-183
-207
-218
-217
-218
-223
-219
-213
-216
-225
-229
-230
-236
-243
-245
-250
-256
-260
-260
-257
-255
-253
-251
-249
-251
-257
-264
-266
-247
-201
-152
-137
-155
-182
-202
-192
-169
-184
-179
-137
-177
-148
291
1050
1662
1541
370
-921
-975
-204
75
-94
-89
-28
-69
-57
-11
-7
7
39
55
73
102
131
159
187
217
249
278
307
342
377
406
428
441
448
452
444
405
323
206
85
-20
-107
-171
-210
-228
-234
-233
-230
-228
-225
-220
-218
-221
-225
-226
-230
-237
-245
-248
-249
-250
-252
-251
-248
-246
-249
-255
-263
-273
-277
-263
-213
-152
-138
-165
-187
-196
-183
-165
-183
-170
-118
-169
-169
230
948
1629
1758
764
-659
-922
-179
130
-78
-97
-25
-69
-59
-6
-7
4
40
57
73
102
127
154
185
215
248
282
314
349
388
423
450
473
491
500
498
468
384
258
127
14
-82
-155
-199
-222
-234
-235
-231
-231
-233
-231
-234
-243
-250
-254
-261
-268
-272
-278
-283
-284
-283
-282
-281
-277
-275
-278
-282
-289
-299
-305
-301
-260
-186
-149
-171
-197
-208
-202
-181
-193
-191
-134
-168
-214
100
775
1504
1854
1120
-370
-934
-269
148
-62
-122
-22
-60
-72
-12
-6
-1
40
60
72
97
123
150
184
213
241
273
304
336
370
398
420
440
453
454
443
411
340
233
113
8
-74
-134
-176
-199
-210
-215
-216
-216
-218
-225
-230
-231
-233
-239
-246
-250
-254
-258
-259
-258
-260
-259
-250
-242
-238
-232
-227
-226
-229
-233
-237
-241
-238
-210
-146
-95
-105
-138
-153
-157
-143
-127
-143
-128
-90
-143
-109
304
1018
1668
1602
391
-905
-857
-57
142
-61
-37
19
-30
-8
40
42
61
93
106
125
152
173
195
224
251
272
293
319
343
360
373
386
393
390
383
370
340
284
205
121
50
-10
-62
-96
-115
-128
-136
-139
-144
-149
-152
-157
-167
-176
-184
-190
-194
-200
-207
-209
-208
-209
-206
-202
-200
-198
-194
-189
-185
-182
-178
-173
-169
-167
-165
-161
-154
-149
-146
-144
-139
-134
-130
-126
-121
-116
-114
-115
-112
-107
-103
-101
-98
-94
-93
-97
-106
-120
-142
-169
-182
-173
-154
-124
-91
-78
-66
-48
-55
-42
4
-37
-40
298
922
1517
1594
648
-637
-805
-56
245
43
21
90
44
46
92
88
91
115
121
129
153
170
185
206
227
244
261
277
291
305
319
330
337
339
338
333
325
308
276
225
166
110
58
7
-35
-63
-84
-103
-117
-126
-137
-150
-160
-168
-178
-187
-192
-198
-208
-216
-218
-219
-217
-213
-213
-214
-211
-206
-203
-202
-198
-192
-187
-187
-184
-177
-171
-168
-164
-160
-157
-152
-148
-146
-142
-137
-133
-130
-126
-123
-120
-117
-113
-110
-108
-105
-100
-97
-96
-95
-91
-94
-104
-113
-121
-141
-168
-181
-175
-158
-125
-90
-79
-67
-49
-57
-39
3
-43
-27
337
968
1545
1554
536
-706
-770
-14
233
31
31
93
46
54
98
93
101
124
128
139
162
179
195
216
235
252
270
286
302
321
336
342
344
344
338
326
312
289
244
182
118
61
12
-29
-63
-88
-104
-112
-119
-127
-133
-137
-143
-151
-158
-164
-170
-179
-185
-188
-192
-195
-192
-190
-192
-192
-187
-184
-182
-178
-173
-169
-164
-159
-155
-151
-146
-140
-135
-130
-126
-124
-119
-114
-111
-106
-98
-93
-91
-87
-84
-85
-82
-77
-76
-66
-59
-81
-93
-59
-42
-76
-90
-66
-55
-61
-58
-65
-79
-79
-87
-120
-146
-153
-156
-141
-113
-99
-81
-54
-72
-79
-32
-72
-101
242
889
1438
1496
657
-583
-862
-157
222
43
-20
43
7
-3
41
54
65
83
86
100
125
143
164
182
195
226
264
287
307
336
360
378
393
408
426
446
452
429
374
290
193
102
25
-38
-90
-124
-139
-147
-160
-167
-164
-166
-181
-190
-190
-192
-200
-204
-208
-220
-226
-216
-214
-224
-225
-213
-210
-214
-212
-203
-199
-196
-189
-183
-185
-182
-172
-173
-183
-181
-167
-164
-166
-157
-146
-146
-141
-130
-131
-137
-130
-118
-117
-126
-142
-153
-141
-113
-100
-99
-89
-79
-76
-67
-59
-75
-99
-104
-104
-120
-142
-145
-130
-96
-46
-24
-46
-28
17
-34
-23
373
1132
1816
1669
351
-950
-849
-18
205
27
48
94
54
78
104
94
118
153
172
199
211
209
219
233
253
280
297
307
331
350
351
357
368
373
373
373
362
337
287
206
112
33
-28
-79
-122
-147
-161
-167
-160
-152
-153
-149
-140
-144
-156
-161
-170
-180
-180
-178
-185
-190
-187
-182
-182
-179
-171
-168
-168
-160
-145
-141
-147
-149
-148
-152
-154
-149
-144
-141
-135
-127
-124
-126
-131
-128
-122
-132
-150
-147
-129
-124
-125
-127
-134
-133
-121
-126
-149
-165
-188
-231
-246
-217
-192
-180
-156
-148
-155
-138
-150
-167
63
721
1573
1854
863
-691
-1157
-430
101
46
22
86
27
-12
20
13
3
44
86
94
85
80
86
93
99
106
114
122
135
