# session 31
-19
-39
-2
56
-7
-171
-236
-195
-183
-189
-169
-162
-177
-185
-199
-219
-233
-243
-238
-211
-187
-163
-129
-129
-136
-82
-80
-151
6
609
1597
2393
1821
-33
-1055
-384
293
126
-22
87
61
17
73
87
79
111
125
124
148
175
194
215
234
251
277
306
329
349
375
404
433
465
493
511
531
553
545
482
366
221
69
-74
-186
-260
-309
-344
-360
-364
-367
-370
-366
-357
-350
-352
-356
-357
-355
-351
-353
-360
-361
-355
-351
-354
-355
-349
-342
-337
-335
-329
-322
-317
-308
-293
-282
-276
-268
-257
-249
-242
-232
-221
-215
-213
-206
-196
-191
-191
-188
-194
-207
-210
-232
-273
-267
-214
-180
-159
-131
-127
-109
-68
-97
-62
397
1350
2205
1921
312
-1022
-767
82
230
46
85
119
71
94
124
117
136
159
166
188
219
243
270
304
338
378
419
460
506
558
613
669
727
784
836
875
895
872
767
567
327
110
-68
-210
-305
-356
-383
-394
-392
-387
-381
-373
-365
-359
-355
-351
-345
-340
-342
-348
-349
-348
-348
-346
-343
-341
-340
-337
-331
-324
-319
-314
-306
-297
-288
-278
-267
-254
-243
-236
-228
-221
-218
-215
-216
-230
-246
-253
-261
-245
-179
-115
-113
-148
-174
-174
-162
-173
-177
-130
-145
-203
15
744
1789
2286
1277
-473
-990
-222
190
-28
-83
5
-36
-41
16
22
32
71
95
115
147
176
209
245
275
305
343
385
428
475
524
577
631
687
746
795
823
820
752
594
379
165
-22
-174
-279
-341
-377
-397
-403
-407
-415
-420
-420
-421
-425
-425
-420
-416
-412
-405
-401
-399
-391
-380
-372
-363
-352
-343
-337
-335
-342
-348
-349
-356
-344
-280
-218
-222
-262
-282
-276
-252
-245
-252
-215
-199
-266
-184
333
1335
2314
2040
246
-1104
-688
100
62
-126
-33
-20
-63
-7
24
20
55
88
103
132
163
185
215
249
279
313
354
401
449
499
553
611
664
709
750
784
779
693
516
288
62
-128
-271
-361
-408
-424
-420
-407
-395
-386
-377
-370
-370
-373
-372
-366
-364
-365
-364
-357
-348
-343
-341
-336
-323
-305
-291
-288
-286
-280
-284
-298
-301
-297
-294
-251
-173
-149
-198
-236
-241
-228
-214
-227
-221
-173
-209
-252
42
836
1918
2414
1303
-549
-1016
-172
210
-40
-72
18
-35
-35
21
21
32
69
84
104
138
163
189
223
252
281
324
364
396
436
486
533
580
626
665
698
718
697
609
445
235
37
-118
-235
-320
-363
-375
-382
-390
-387
-379
-380
-383
-376
-371
-376
-378
-372
-369
-372
-371
-363
-353
-350
-352
-342
-324
-316
-320
-320
-309
-305
-313
-318
-319
-315
-264
-180
-157
-201
-231
-235
-227
-207
-216
-217
-166
-185
-234
-7
697
1845
2648
1757
-282
-1053
-240
236
-32
-100
6
-49
-58
7
0
-2
43
66
82
113
132
154
196
234
255
283
320
359
410
460
490
517
562
603
624
633
616
538
390
207
30
-116
-224
-292
-331
-349
-355
-358
-363
-359
-345
-340
-345
-345
-350
-361
-359
-345
-340
-344
-344
-341
-333
-324
-320
-316
-310
-308
-303
-290
-281
-280
-278
-277
-281
-284
-285
-270
-208
-132
-123
-169
-202
-209
-194
-180
-195
-173
-124
-180
-195
149
955
2075
2561
1286
-640
-947
-21
259
-29
-18
65
-7
8
68
60
73
107
119
146
181
195
218
257
282
297
328
368
394
416
457
497
511
518
549
589
605
592
538
411
233
70
-63
-176
-254
-287
-299
-313
-324
-332
-344
-352
-337
-318
-324
-340
-341
-336
-343
-349
-349
-357
-358
-336
-315
-314
-317
-318
-322
-309
-290
-293
-296
-273
-262
-287
-304
-285
-260
-259
-261
-225
-165
-139
-165
-203
-223
-215
-197
-205
-205
-164
-188
-240
30
822
1830
2181
1052
-738
-1233
-367
167
-8
-77
11
-24
-35
21
30
38
79
104
124
156
183
210
241
270
303
341
374
405
442
479
517
562
607
646
683
709
698
629
487
292
93
-69
-190
-275
-324
-346
-355
-360
-360
-355
-346
-341
-342
-348
-351
-352
-353
-355
-355
-357
-356
-351
-348
-347
-340
-332
-328
-328
-329
-336
-342
-342
-342
-314
-237
-178
-196
-239
-260
-258
-236
-233
-238
-190
-184
-265
-177
340
1427
2666
2562
628
-913
-537
200
71
-131
-24
-28
-75
-13
12
9
45
71
95
140
170
187
220
259
291
326
369
416
455
487
522
563
601
635
664
685
672
589
438
259
85
-78
-214
-292
-320
-343
-370
-368
-342
-335
-346
-353
-353
-353
-355
-357
-359
-363
-359
-350
-355
-363
-352
-340
-341
-337
-323
-312
-305
-299
-294
-283
-267
-260
-258
-247
-230
-222
-217
-211
-211
-211
-202
-196
-195
-189
-184
-184
-174
-161
-165
-183
-196
-211
-239
-258
-247
-220
-199
-169
-114
-92
-120
-94
-41
-98
-91
326
1241
2282
2369
860
-731
-662
176
280
41
96
138
71
100
140
127
144
167
170
189
217
239
262
278
302
346
371
378
414
469
498
517
561
618
662
691
720
729
679
558
392
210
38
-103
-204
-268
-303
-321
-330
-337
-341
-349
-359
-355
-343
-353
-370
-365
-360
-364
-361
-365
-375
-360
-337
-338
-341
-329
-323
-325
-317
-306
-302
-302
-300
-292
-283
-277
-272
-268
-264
-255
-251
-255
-248
-231
-218
-211
-207
-207
-195
-178
-183
-195
-205
-234
-262
-257
-247
-234
-195
-158
-137
-116
-123
-116
-57
-83
-152
69
733
1773
2585
1922
24
-876
-176
335
74
-32
88
46
9
69
90
98
122
128
149
186
206
224
254
281
311
348
373
391
428
473
501
526
566
601
622
642
656
627
527
370
200
45
-89
-188
-250
-288
-306
-310
-314
-319
-320
-322
-326
-325
-320
-323
-332
-332
-328
-324
-321
-321
-319
-307
-296
-294
-294
-286
-279
-278
-276
-268
-254
-245
-246
-252
-251
-237
-222
-219
-224
-221
-212
-210
-210
-203
-195
-191
-188
-190
-191
-177
-163
-166
-169
-163
-167
-179
-187
-205
-228
-227
-207
-185
-163
-137
-100
-81
-98
-66
-10
-78
-91
280
1062
2079
2527
1358
-460
-774
96
343
42
45
119
41
61
125
109
115
150
153
166
201
213
216
249
294
321
335
356
382
410
445
487
516
528
548
578
596
591
551
456
329
196
51
-95
-202
-249
-269
-305
-323
-288
-275
-328
-358
-330
-320
-338
-335
-325
-334
-341
-337
-335
-332
-322
-311
-306
-306
-304
-301
-300
-295
-282
-266
-257
-259
-264
-263
-257
-247
-241
-243
-238
-230
-227
-216
-204
-204
-208
-203
-192
-179
-177
-176
-160
-146
-151
-148
-134
-138
-160
-178
-187
-198
-205
-194
-175
-165
-129
-72
-78
-102
-34
-16
-104
34
586
1479
2346
2066
316
-944
-432
331
202
-2
113
112
49
111
150
129
138
154
166
192
206
214
255
302
316
327
357
388
424
461
477
483
506
538
554
560
566
559
509
401
254
104
-28
-131
-193
-230
-271
-308
-318
-302
-286
-292
-308
-306
-308
-339
-353
-319
-296
-303
-291
-279
-300
-310
-292
-297
-323
-323
-288
-253
-252
-272
-279
-263
-241
-227
-228
-239
-232
-195
-178
-210
-228
-201
-184
-195
-189
-170
-177
-191
-176
-154
-169
-187
-152
-112
-140
-186
-182
-171
-196
-222
-224
-210
-196
-179
-133
-93
-114
-105
-36
-71
-110
182
859
1794
2374
1470
-405
-1008
-112
378
96
21
136
88
72
129
120
119
161
176
176
195
216
237
261
277
291
314
339
360
377
386
410
456
478
466
460
456
429
397
346
242
116
18
-61
-128
-181
-231
-263
-255
-243
-254
-260
-250
-246
-247
-253
-271
-281
-277
-271
-263
-257
-260
-263
-262
-266
-268
-256
-244
-246
-255
-248
-221
-212
-239
-257
-234
-206
-213
-225
-213
-207
-221
-207
-173
-172
-190
-187
-173
-162
-157
-164
-166
-150
-145
-155
-155
-151
-165
-186
-202
-202
-180
-155
-118
-83
-95
-101
-54
-59
-46
268
1010
1986
2311
1046
-756
-1002
-29
333
63
35
111
59
80
132
114
125
167
173
176
195
211
234
263
278
290
311
328
343
366
389
400
404
406
404
397
389
379
350
287
194
85
-17
-88
-145
-202
-235
-239
-250
-272
-273
-260
-261
-275
-285
-281
-272
-275
-287
-293
-287
-281
-276
-272
-270
-269
-266
-265
-260
-250
-243
-243
-240
-230
-223
-225
-222
-208
-201
-210
-214
-202
-189
-186
-189
-191
-184
-177
-179
-187
-189
-193
-198
-186
-163
-143
-125
-113
-106
-105
-112
-90
-51
-85
-93
187
899
1916
2365
1190
-688
-1095
-143
312
63
12
107
54
35
86
89
94
130
145
143
155
182
203
217
236
258
276
295
312
321
331
344
357
367
368
354
336
324
299
237
149
63
-21
-97
-143
-171
-197
-210
-217
-236
-247
-230
-215
-223
-239
-249
-246
-240
-253
-268
-257
-241
-243
-249
-250
-251
-248
-240
-235
-234
-239
-251
-255
-244
-238
-251
-266
-252
-218
-198
-174
-133
-126
-177
-227
-235
-223
-224
-240
-226
-207
-240
-172
258
1133
2061
1931
239
-1334
-1105
-109
95
-104
-45
1
-61
-27
28
22
28
62
98
127
141
159
199
238
255
265
290
340
387
410
435
477
507
513
520
537
541
519
456
332
175
38
-72
-174
-249
-274
-277
-281
-280
-274
-266
-258
-263
-269
-256
-253
-264
-255
-238
-247
-255
-249
-254
-253
-235
-225
-219
-203
-201
-208
-201
-206
-230
-226
-199
-177
-137
-95
-118
-186
-224
-209
-181
-191
-203
-174
-200
-222
15
575
1492
2387
1929
2
-1113
-432
241
36
-117
-12
-48
-90
-45
-52
-58
-12
7
8
33
56
74
99
120
147
186
214
231
269
319
352
372
397
424
437
432
412
358
239
73
-83
-208
-310
-380
-419
-444
-446
-425
-411
-406
-385
-364
-356
-344
-331
-330
-323
-305
-305
-313
-295
-270
-259
-253
-250
-251
-235
-218
-221
-225
-232
-243
-229
-206
-188
-132
-65
-80
-140
-157
-144
-138
-156
-173
-116
-75
-160
-125
270
1041
2098
2463
1057
-765
-833
105
253
-47
2
76
11
30
65
58
94
126
127
159
198
206
227
266
292
317
353
379
402
442
479
500
522
546
551
549
547
514
428
301
153
9
-103
-176
-231
-274
-286
-278
-283
-302
-301
-274
-264
-285
-297
-290
-287
-289
-283
-279
-281
-283
-282
-273
-255
-247
-256
-260
-249
-235
-231
-234
-230
-222
-224
-226
-212
-201
-210
-207
-187
-187
-194
-181
-177
-184
-175
-173
-189
-174
-146
-154
-171
-161
-148
-149
-159
-167
-172
-190
-220
-227
-201
-174
-174
-171
-130
-112
-134
-91
-49
-117
-43
407
1177
2055
2141
706
-808
-651
212
268
5
64
105
46
88
120
92
109
150
166
178
193
204
225
258
287
302
316
346
374
378
385
410
423
422
444
464
445
430
429
372
253
143
56
-32
-101
-148
-195
-223
-224
-223
-230
-238
-247
-250
-243
-246
-264
-272
-262
-255
-257
-258
-266
-271
-255
-240
-243
-244
-239
-236
-230
-224
-231
-233
-221
-206
-202
-207
-211
-211
-208
-201
-192
-192
-198
-194
-186
-182
-174
-162
-165
-178
-173
-154
-147
-145
-137
-137
-142
-138
-139
-147
-151
-162
-179
-183
-181
-165
-134
-114
-97
-82
-94
-68
-11
-68
-98
205
826
1697
2336
1579
-252
-951
-131
356
82
15
145
91
59
121
124
117
139
147
160
184
194
215
244
254
269
303
322
329
349
367
377
391
397
392
392
399
398
372
310
223
134
36
-58
-121
-159
-193
-214
-219
-221
-221
-229
-251
-256
-236
-237
-258
-252
-234
-244
-258
-248
-245
-259
-254
-230
-222
-225
-216
-206
-212
-215
-206
-206
-211
-198
-186
-189
-184
-172
-180
-194
-180
-159
-165
-173
-159
-148
-155
-157
-147
-146
-152
-146
-132
-127
-132
-136
-130
-120
-120
-124
-117
-100
-87
-90
-101
-109
-116
-120
-115
-119
-135
-144
-144
-142
-126
-98
-69
-61
-80
-50
14
-36
-67
243
930
1839
2306
1305
-469
-906
-24
364
83
42
147
92
79
127
117
120
157
169
174
190
205
229
258
272
284
309
332
342
355
379
396
404
415
429
428
419
407
392
360
282
162
55
-21
-95
-155
-180
-202
-233
-243
-236
-239
-249
-251
-252
-249
-244
-249
-265
-276
-275
-268
-269
-272
-264
-258
-263
-258
-244
-241
-248
-251
-252
-251
-245
-234
-222
-218
-217
-211
-212
-218
-212
-204
-207
-203
-192
-189
-193
-197
-202
-202
-191
-179
-179
-179
-175
-172
-173
-169
-158
-153
-154
-149
-146
-147
-133
-118
-134
-154
-155
-163
-186
-199
-189
-158
-128
-102
-76
-83
-75
-5
-23
-102
97
659
1502
2324
1970
175
-988
-370
367
204
29
150
139
83
127
140
132
164
188
194
207
229
265
302
319
330
351
374
400
434
460
475
495
514
525
540
551
544
530
493
392
254
135
31
-75
-154
-197
-223
-237
-237
-234
-236
-239
-238
-232
-229
-232
-241
-249
-248
-241
-242
-250
-245
-231
-238
-255
-252
-235
-228
-227
-224
-222
-220
-219
-224
-226
-218
-207
-198
-195
-206
-217
-208
-200
-207
-204
-190
-190
-198
-193
-185
-182
-175
-171
-176
-175
-166
-165
-165
-157
-156
-166
-171
-164
-156
-155
-163
-179
-198
-209
-222
-244
-237
-201
-189
-176
-134
-138
-161
-107
-107
-159
63
667
1530
2190
1560
-260
-1155
-384
274
66
-67
53
20
-30
17
25
20
43
60
93
134
142
153
194
225
235
264
315
353
375
414
472
519
552
594
641
676
703
706
642
495
298
106
-47
-164
-262
-331
-363
-370
-358
-332
-320
-318
-308
-292
-281
-282
-286
-264
-231
-236
-244
-219
-218
-260
-265
-213
-174
-182
-187
-160
-139
-144
-142
-119
-103
-98
-86
-66
