# session 30
-93
-109
-79
-11
-37
-172
-237
-204
-196
-212
-202
-192
-195
-191
-185
-184
-181
-179
-178
-175
-171
-168
-165
-164
-163
-162
-162
-160
-155
-157
-170
-183
-193
-209
-226
-228
-210
-180
-157
-137
-104
-94
-109
-67
-37
-112
-23
500
1345
2085
1845
307
-964
-617
209
230
9
80
105
46
82
111
98
118
143
148
164
187
205
229
255
281
310
343
379
416
456
500
544
586
629
671
705
726
729
693
588
418
224
45
-104
-219
-295
-338
-359
-365
-363
-359
-353
-344
-339
-335
-330
-326
-327
-325
-321
-321
-320
-316
-313
-311
-306
-300
-300
-297
-287
-279
-278
-274
-264
-255
-250
-246
-241
-236
-230
-221
-213
-211
-205
-197
-192
-191
-183
-170
-163
-159
-153
-148
-145
-137
-129
-129
-127
-119
-112
-110
-104
-98
-102
-114
-125
-132
-141
-162
-186
-183
-147
-118
-108
-79
-55
-75
-49
10
-55
-37
455
1287
1914
1679
323
-991
-857
46
285
73
95
158
103
114
155
149
159
184
191
200
219
242
270
290
303
331
372
406
434
472
521
572
620
664
703
737
763
775
740
617
427
228
44
-130
-272
-358
-397
-413
-420
-418
-405
-388
-378
-374
-365
-347
-332
-333
-336
-328
-321
-328
-334
-332
-332
-330
-318
-310
-313
-310
-293
-279
-276
-275
-268
-260
-257
-254
-245
-232
-225
-227
-223
-211
-204
-201
-192
-183
-175
-167
-166
-171
-172
-176
-189
-196
-212
-248
-248
-200
-170
-155
-122
-123
-124
-53
-62
-106
295
1186
1881
1695
484
-866
-1030
-196
258
114
68
146
116
107
152
158
163
189
199
210
237
257
274
302
332
358
390
430
475
526
585
649
714
780
846
904
941
943
875
707
465
210
-13
-196
-332
-414
-450
-459
-458
-447
-425
-409
-404
-395
-382
-374
-369
-361
-360
-366
-364
-362
-367
-366
-354
-348
-350
-341
-323
-315
-309
-296
-283
-277
-273
-265
-257
-253
-250
-242
-232
-227
-222
-212
-206
-212
-212
-202
-195
-191
-184
-189
-208
-228
-248
-275
-299
-285
-232
-192
-191
-189
-187
-198
-165
-137
-219
-185
321
1281
2187
2045
510
-870
-670
117
185
-24
34
68
12
39
66
48
69
108
129
158
194
213
223
247
291
350
414
469
513
562
618
679
754
835
903
955
990
988
920
758
524
279
57
-132
-267
-343
-387
-408
-404
-397
-396
-382
-357
-340
-336
-338
-335
-324
-318
-325
-333
-337
-334
-319
-302
-297
-304
-310
-306
-299
-298
-294
-284
-281
-277
-266
-258
-254
-248
-242
-237
-229
-216
-202
-198
-205
-207
-195
-188
-191
-181
-157
-145
-145
-144
-143
-150
-158
-170
-190
-214
-220
-200
-166
-148
-139
-110
-96
-115
-83
-58
-139
-44
521
1355
1936
1528
10
-1123
-696
149
194
-13
59
96
44
74
103
95
119
145
144
154
181
210
239
268
304
346
380
410
452
500
554
623
692
740
780
831
870
870
815
679
461
219
8
-152
-263
-340
-392
-412
-411
-409
-404
-388
-375
-367
-352
-334
-334
-342
-340
-336
-340
-345
-345
-342
-337
-337
-344
-341
-327
-324
-326
-315
-299
-290
-282
-269
-258
-249
-239
-233
-230
-227
-222
-214
-203
-198
-198
-194
-190
-197
-216
-228
-232
-249
-262
-221
-159
-145
-137
-111
-118
-98
-40
-100
-67
508
1380
1764
1172
-177
-1161
-850
5
243
88
113
166
129
148
185
180
199
231
234
239
266
292
310
330
358
388
420
461
505
550
601
661
719
775
831
881
913
909
832
660
429
195
-11
-180
-304
-381
-419
-429
-426
-418
-409
-399
-387
-373
-360
-352
-346
-341
-341
-341
-339
-337
-337
-334
-330
-327
-325
-322
-317
-313
-309
-305
-299
-292
-288
-285
-282
-275
-267
-260
-256
-250
-242
-235
-228
-219
-212
-206
-199
-199
-217
-242
-258
-265
-257
-211
-161
-159
-163
-130
-128
-137
-82
-103
-192
71
809
1559
1707
831
-507
-892
-198
247
79
0
84
61
44
91
100
103
132
147
157
183
207
229
260
296
333
370
412
462
518
577
643
715
787
858
926
979
1000
961
829
606
350
112
-91
-250
-353
-408
-435
-443
-440
-432
-426
-419
-412
-408
-407
-404
-400
-398
-396
-394
-392
-388
-382
-377
-371
-364
-359
-354
-346
-338
-333
-328
-321
-313
-302
-296
-294
-292
-297
-307
-309
-292
-246
-174
-132
-155
-189
-195
-199
-192
-179
-193
-171
-138
-212
-188
292
1162
1892
1661
247
-962
-710
69
146
-61
-11
29
-18
14
50
47
73
104
115
140
174
200
227
259
293
334
377
420
472
533
592
652
719
787
846
894
921
894
782
588
352
119
-80
-229
-324
-376
-400
-408
-406
-399
-389
-380
-373
-366
-359
-357
-358
-357
-358
-358
-353
-346
-344
-343
-338
-330
-324
-318
-312
-305
-301
-295
-285
-278
-274
-268
-260
-260
-265
-268
-272
-278
-276
-246
-180
-118
-118
-160
-181
-190
-190
-168
-173
-177
-124
-151
-228
39
776
1627
1923
976
-591
-1020
-212
246
35
-30
63
24
13
68
72
77
114
132
147
179
205
228
259
292
326
362
397
438
481
524
572
626
677
722
761
789
794
750
629
445
243
60
-95
-213
-289
-330
-354
-366
-366
-363
-363
-362
-357
-354
-354
-355
-358
-360
-355
-350
-349
-345
-340
-337
-332
-325
-320
-317
-310
-302
-296
-289
-282
-278
-272
-263
-261
-263
-262
-268
-280
-276
-251
-203
-134
-98
-130
-168
-177
-178
-164
-158
-176
-147
-124
-201
-121
391
1224
1941
1677
151
-1073
-695
133
156
-56
20
47
-10
27
60
54
83
114
127
153
183
203
230
261
289
320
350
381
420
458
491
526
567
603
628
642
650
636
569
441
277
112
-31
-141
-220
-273
-301
-313
-317
-319
-322
-324
-322
-321
-324
-328
-329
-329
-329
-326
-324
-322
-321
-316
-309
-305
-302
-294
-287
-287
-283
-273
-266
-260
-249
-242
-242
-246
-251
-252
-241
-219
-181
-120
-75
-92
-138
-171
-182
-163
-153
-169
-137
-115
-190
-118
342
1119
1921
1864
374
-1061
-810
108
203
-43
16
58
-3
32
70
60
86
120
131
154
180
194
218
248
269
289
314
336
358
382
401
414
425
436
439
434
423
403
355
271
165
60
-29
-98
-153
-201
-236
-253
-262
-269
-271
-272
-276
-279
-280
-284
-287
-287
-288
-291
-294
-291
-286
-284
-281
-278
-276
-270
-264
-266
-266
-266
-270
-259
-231
-205
-170
-129
-139
-194
-228
-236
-231
-215
-223
-217
-173
-205
-196
204
989
1731
1726
453
-1106
-1229
-243
193
-11
-35
55
14
16
66
65
78
119
134
145
175
203
224
246
271
300
330
360
394
429
462
494
530
560
579
593
602
583
514
387
220
56
-75
-181
-264
-314
-334
-341
-344
-344
-343
-336
-327
-324
-324
-324
-326
-324
-318
-321
-326
-319
-313
-316
-314
-308
-307
-301
-297
-301
-288
-248
-199
-168
-178
-216
-243
-256
-252
-230
-233
-237
-184
-195
-240
74
847
1606
1695
647
-877
-1286
-444
146
29
-48
40
21
10
61
67
68
102
124
141
172
198
219
247
278
309
342
377
414
456
502
550
597
644
685
715
731
714
622
446
233
38
-122
-246
-326
-369
-392
-402
-398
-391
-387
-380
-371
-367
-366
-364
-364
-364
-362
-358
-356
-356
-356
-355
-360
-370
-379
-381
-363
-297
-226
-223
-265
-285
-292
-288
-264
-267
-267
-216
-241
-313
-75
675
1720
2262
1338
-398
-961
-225
163
-85
-146
-48
-92
-104
-46
-37
-26
13
36
58
93
123
154
190
223
257
296
338
382
431
482
535
589
639
682
715
725
682
557
364
153
-37
-189
-299
-366
-396
-404
-407
-403
-393
-386
-386
-384
-379
-378
-377
-373
-369
-366
-360
-352
-346
-339
-329
-318
-312
-312
-316
-315
-311
-308
-271
-197
-161
-195
-232
-241
-242
-227
-221
-234
-194
-172
-255
-188
323
1297
2282
2104
382
-1008
-641
148
99
-111
-15
3
-56
-12
20
14
49
85
99
126
159
185
214
249
286
319
353
394
438
480
523
569
614
658
698
725
722
662
526
337
146
-17
-147
-237
-290
-316
-332
-339
-337
-332
-328
-325
-324
-327
-328
-328
-329
-330
-329
-326
-320
-314
-309
-305
-299
-292
-287
-283
-277
-270
-262
-256
-248
-240
-233
-227
-220
-214
-207
-199
-190
-183
-177
-172
-168
-164
-158
-153
-149
-144
-139
-143
-155
-168
-188
-214
-222
-206
-181
-147
-118
-104
-79
-70
-86
-47
-20
-107
-48
440
1288
2140
2092
640
-732
-525
236
233
-4
67
93
29
67
103
91
113
139
146
166
193
215
240
266
289
314
338
357
381
410
440
469
496
522
547
569
580
577
548
466
339
198
66
-51
-144
-209
-254
-285
-302
-310
-317
-324
-328
-333
-339
-343
-343
-343
-345
-341
-334
-331
-330
-326
-321
-315
-306
-299
-295
-291
-283
-276
-271
-264
-256
-252
-249
-241
-233
-226
-220
-215
-212
-207
-200
-193
-190
-186
-179
-175
-173
-165
-155
-150
-145
-141
-149
-163
-174
-192
-218
-220
-201
-183
-156
-123
-109
-90
-75
-88
-56
-18
-90
-56
382
1193
2058
2094
685
-789
-659
194
286
31
81
124
60
91
130
117
136
164
169
187
216
235
257
284
310
334
358
382
406
429
458
489
512
531
552
568
576
572
538
452
324
183
51
-62
-148
-210
-251
-272
-280
-285
-291
-297
-301
-304
-307
-312
-316
-313
-310
-313
-312
-306
-305
-306
-302
-295
-289
-282
-276
-273
-266
-258
-253
-247
-240
-238
-235
-226
-218
-216
-212
-205
-199
-189
-180
-180
-178
-170
-166
-166
-159
-152
-148
-145
-143
-142
-138
-129
-124
-128
-127
-118
-123
-140
-152
-168
-191
-198
-187
-171
-145
-118
-101
-77
-72
-84
-38
-17
-97
-2
497
1304
2085
1935
428
-850
-507
281
255
31
109
125
65
107
134
121
144
167
170
191
219
240
263
289
315
338
360
386
415
434
455
491
526
547
564
581
589
582
545
457
323
172
35
-76
-163
-228
-273
-298
-306
-306
-308
-311
-313
-314
-315
-316
-320
-324
-323
-320
-318
-318
-317
-314
-308
-301
-297
-295
-291
-284
-276
-269
-265
-260
-253
-249
-245
-238
-230
-225
-220
-212
-202
-197
-196
-193
-187
-182
-178
-172
-166
-160
-153
-148
-145
-142
-139
-135
-131
-129
-127
-122
-121
-129
-140
-150
-170
-194
-203
-193
-166
-141
-126
-95
-75
-92
-60
-11
-81
-63
371
1170
2003
2077
762
-734
-703
161
318
58
89
144
79
103
145
132
148
178
184
200
225
242
264
294
319
342
367
394
420
447
476
505
532
557
580
598
606
601
569
484
344
186
41
-80
-172
-237
-278
-300
-310
-311
-309
-307
-308
-310
-311
-309
-309
-311
-313
-313
-314
-314
-311
-306
-304
-300
-293
-288
-285
-277
-269
-266
-263
-255
-250
-245
-238
-230
-226
-221
-212
-206
-204
-199
-191
-185
-182
-180
-174
-165
-161
-159
-153
-146
-142
-138
-136
-134
-129
-125
-128
-129
-117
-108
-118
-138
-155
-164
-175
-190
-190
-161
-134
-121
-94
-77
-90
-54
-7
-73
-40
405
1208
2020
2025
659
-796
-696
178
321
65
99
148
80
102
146
131
140
175
191
206
225
243
263
285
309
336
363
392
419
443
472
504
530
554
581
598
601
599
574
490
346
182
34
-91
-191
-258
-297
-319
-328
-331
-333
-332
-327
-325
-336
-344
-333
-326
-342
-354
-345
-335
-332
-322
-307
-303
-313
-319
-298
-281
-301
-312
-273
-235
-238
-246
-251
-252
-218
-182
-217
-263
-221
-160
-163
-170
-148
-147
-163
-173
-181
-173
-156
-144
-118
-114
-155
-153
-94
-95
-138
-125
-117
-146
-131
-104
-151
-197
-172
-147
-150
-136
-115
-102
-79
-52
-5
28
-40
-21
431
1298
2079
1895
415
-964
-770
142
317
71
108
173
93
106
179
179
190
235
210
174
235
295
281
306
381
387
347
380
472
518
521
572
629
598
587
693
756
684
614
564
428
231
42
-116
-194
-244
-368
-433
-326
-261
-343
-366
-302
-325
-400
-376
-290
-265
-305
-354
-377
-336
-268
-295
-379
-351
-263
-272
-315
-311
-322
-326
-275
-256
-298
-313
-278
-249
-252
-282
-286
-242
-225
-262
-263
-210
-186
-216
-246
-229
-190
-199
-223
-195
-193
-237
-202
-145
-198
-257
-246
-268
-295
-246
-209
-210
-168
-128
-122
-93
-108
-151
145
996
1969
2105
830
-812
-1085
-188
285
85
-2
81
66
59
104
109
121
169
177
167
203
229
226
254
303
334
369
403
408
431
502
579
630
653
676
734
764
722
691
653
472
200
-5
-143
-263
-335
-356
-369
-395
-411
-382
-341
-331
-339
-341
-339
-330
-329
-323
-302
-324
-374
-349
-285
-279
-299
-304
-302
-277
-244
-253
-286
-287
-260
-252
-245
-200
-175
-228
-264
-206
-153
-184
-204
-162
-154
-200
-207
-196
-207
-140
-16
-8
-77
-85
-84
-106
-93
-79
-65
-44
-103
-76
393
1331
2254
2165
609
-911
-776
120
281
38
47
93
72
121
153
129
146
186
190
173
173
220
293
330
345
379
404
411
451
518
568
618
688
736
747
774
817
804
702
536
329
115
-73
-231
-357
-435
-448
-426
-419
-435
-445
-441
-443
-455
-454
-441
-446
-460
-453
-450
-473
-478
-464
-496
-538
-503
-457
-472
-483
-467
-481
-516
-525
-503
-471
-440
-402
-373
-389
-424
-419
-390
-398
-406
-361
-371
-443
-286
292
1191
1912
1457
-182
-1194
-673
-22
-129
-279
-180
-203
-275
-189
-92
-95
-82
-46
-114
-180
-68
59
77
182
351
349
270
319
422
480
535
616
703
767
812
875
901
778
552
342
154
-29
-156
-211
-237
-243
-222
-190
-162
-129
-102
-91
-56
3
29
31
62
