# session 0
48
59
30
4
44
59
-11
-23
29
7
7
82
46
-50
0
68
-2
-83
-103
-93
-10
95
110
67
38
45
58
-2
-36
65
95
16
179
745
1641
2278
1476
-415
-1165
-325
260
48
-33
89
57
23
57
61
91
147
164
194
271
322
300
268
291
323
342
401
458
449
456
534
587
575
570
588
557
462
340
185
9
-98
-145
-229
-316
-345
-383
-452
-449
-382
-381
-450
-471
-439
-444
-464
-444
-443
-474
-464
-433
-447
-465
-447
-424
-409
-413
-455
-463
-373
-282
-298
-376
-422
-398
-323
-272
-299
-342
-337
-344
-393
-363
-232
-160
-198
-229
-219
-211
-216
-224
-230
-239
-202
35
563
1329
1850
1175
-496
-1273
-525
126
-38
-120
64
67
26
90
74
44
145
226
178
157
271
378
342
298
387
464
420
416
526
610
620
620
642
706
789
790
678
526
362
189
72
24
-50
-160
-214
-231
-294
-348
-298
-218
-228
-274
-264
-267
-343
-362
-279
-252
-312
-303
-242
-259
-299
-270
-256
-313
-335
-265
-194
-201
-242
-248
-228
-228
-247
-256
-257
-266
-296
-332
-321
-249
-165
-118
-133
-180
-172
-140
-181
-198
-144
-180
-199
126
876
1905
2416
1310
-567
-1025
-181
153
-112
-89
66
34
22
66
68
92
146
172
194
233
269
311
343
338
354
425
474
478
488
504
513
531
539
531
555
569
470
282
128
18
-121
-231
-224
-201
-284
-387
-375
-286
-266
-354
-399
-332
-330
-431
-408
-298
-350
-442
-369
-301
-338
-324
-289
-317
-281
-183
-187
-238
-226
-261
-360
-320
-145
-65
-106
-168
-244
-253
-131
-58
-119
-148
-119
-149
-188
-144
-64
-40
-111
-176
-135
-119
-163
-62
51
-101
-256
-184
-187
-313
-230
-4
25
-115
-169
-133
-120
46
642
1603
2328
1851
219
-825
-358
274
107
-157
-51
92
109
76
67
117
89
-25
45
241
249
178
251
320
287
273
280
269
332
441
473
464
458
409
433
599
639
448
319
306
178
-22
-123
-200
-314
-334
-239
-204
-281
-355
-362
-328
-317
-383
-435
-363
-270
-273
-311
-323
-333
-333
-319
-318
-316
-298
-296
-307
-292
-265
-245
-240
-287
-332
-256
-140
-138
-191
-192
-172
-165
-167
-167
-133
-83
-83
-119
-123
-102
-119
-171
-174
-107
-72
-117
-183
-220
-230
-245
-248
-176
-82
-54
-44
-44
-70
80
593
1436
2179
1808
163
-982
-530
179
126
-26
64
62
32
100
128
118
143
164
184
226
256
274
306
337
360
395
431
457
484
515
542
576
626
667
682
677
632
518
352
179
27
-99
-193
-258
-303
-330
-340
-344
-354
-366
-367
-365
-368
-371
-372
-374
-378
-379
-377
-372
-368
-364
-357
-350
-344
-340
-336
-328
-315
-304
-298
-292
-285
-276
-266
-255
-247
-242
-238
-229
-219
-213
-205
-192
-195
-215
-226
-232
-257
-258
-185
-92
-77
-131
-152
-130
-140
-137
-85
-120
-174
74
720
1643
2239
1424
-387
-1092
-327
192
9
-44
55
16
13
75
77
88
132
153
178
224
258
289
330
360
387
421
455
486
521
559
594
631
664
688
694
655
538
358
171
17
-101
-189
-251
-289
-309
-320
-329
-334
-337
-343
-352
-358
-362
-368
-374
-375
-378
-383
-381
-372
-365
-359
-358
-362
-363
-360
-374
-390
-387
-390
-401
-359
-268
-220
-248
-288
-287
-271
-259
-206
-162
-226
-226
109
893
1996
2421
1103
-749
-993
-125
101
-169
-135
-28
-67
-51
3
7
23
66
103
138
172
202
241
295
348
388
430
483
526
558
594
620
631
646
649
590
447
250
55
-98
-195
-254
-290
-305
-309
-337
-374
-375
-353
-349
-361
-357
-335
-314
-321
-353
-372
-363
-342
-332
-338
-342
-334
-328
-326
-315
-299
-299
-316
-324
-329
-347
-321
-217
-137
-160
-216
-216
-188
-190
-174
-119
-145
-184
85
819
1765
2085
934
-803
-1167
-264
183
-31
-64
33
-7
15
94
87
90
144
170
191
232
257
296
368
413
422
441
470
496
524
552
595
658
694
691
680
623
473
285
126
-6
-118
-181
-193
-200
-230
-265
-288
-302
-299
-282
-282
-302
-316
-316
-315
-316
-318
-321
-321
-320
-314
-300
-294
-303
-301
-286
-285
-276
-242
-241
-280
-281
-234
-208
-214
-207
-187
-200
-224
-193
-148
-158
-176
-154
-145
-164
-158
-131
-129
-148
-177
-217
-244
-229
-212
-233
-230
-161
-107
-103
-57
-17
-92
-54
385
1140
1828
1665
265
-1034
-817
55
243
59
65
97
111
180
195
185
235
262
245
270
323
341
346
374
409
432
457
487
517
552
581
588
601
647
696
715
691
606
470
318
164
24
-73
-146
-214
-243
-237
-269
-337
-363
-342
-337
-358
-371
-371
-371
-370
-374
-384
-385
-377
-380
-386
-376
-363
-359
-350
-340
-335
-316
-289
-295
-321
-317
-293
-283
-283
-272
-258
-258
-259
-244
-233
-245
-250
-231
-223
-239
-260
-289
-317
-315
-286
-240
-180
-146
-155
-168
-178
-170
-105
-101
-178
-12
568
1425
2174
1867
257
-921
-510
170
95
-55
47
47
10
61
74
90
165
193
168
187
242
286
322
351
365
382
417
451
469
486
508
523
534
549
557
535
481
399
294
174
65
-11
-58
-98
-136
-157
-165
-174
-172
-162
-183
-225
-230
-214
-224
-236
-227
-225
-233
-230
-227
-239
-246
-234
-221
-226
-241
-244
-240
-243
-247
-243
-245
-250
-229
-210
-237
-261
-231
-210
-253
-298
-297
-287
-284
-251
-184
-141
-157
-182
-176
-180
-214
-226
-190
-164
-204
-183
154
877
1578
1415
81
-1229
-1178
-318
49
-62
-56
27
14
-16
-5
43
92
90
86
136
201
256
301
319
336
385
420
424
454
512
548
563
581
599
614
619
591
508
379
242
123
15
-81
-145
-189
-227
-242
-233
-229
-239
-250
-255
-256
-257
-267
-277
-274
-268
-273
-279
-271
-256
-253
-258
-253
-241
-237
-234
-227
-220
-207
-198
-207
-221
-224
-233
-236
-195
-132
-103
-122
-162
-172
-154
-163
-161
-121
-152
-152
221
951
1566
1424
226
-1064
-1078
-214
164
23
10
72
45
63
112
119
143
183
199
225
276
310
324
361
418
458
482
519
559
590
623
654
663
660
663
652
583
448
292
152
29
-73
-146
-201
-234
-237
-236
-251
-265
-277
-294
-308
-316
-330
-345
-357
-367
-375
-377
-375
-376
-377
-373
-362
-355
-357
-360
-360
-356
-346
-341
-349
-361
-383
-404
-376
-296
-245
-275
-333
-336
-311
-332
-333
-281
-324
-338
48
752
1271
1049
-159
-1404
-1319
-370
-3
-182
-177
-89
-113
-83
-17
-1
31
84
112
140
182
224
268
303
322
346
378
405
432
466
499
526
552
579
594
575
503
383
238
92
-24
-93
-135
-165
-176
-170
-164
-157
-149
-145
-145
-146
-153
-161
-164
-172
-184
-186
-185
-190
-190
-181
-173
-170
-164
-152
-140
-134
-135
-129
-115
-98
-63
3
64
71
41
39
75
90
100
153
164
139
322
864
1663
2183
1504
-132
-913
-226
446
366
251
333
311
262
277
251
205
196
187
172
174
182
188
198
212
227
241
253
271
295
322
345
358
366
377
371
322
224
94
-42
-161
-254
-323
-369
-403
-427
-442
-450
-460
-469
-474
-484
-497
-508
-513
-510
-505
-505
-501
-491
-486
-477
-459
-449
-446
-436
-428
-431
-437
-442
-451
-440
-392
-338
-315
-319
-342
-369
-361
-350
-363
-330
-298
-348
-207
362
1037
1278
638
-714
-1513
-980
-159
-32
-149
-85
-58
-88
-49
-14
-15
4
34
62
106
157
203
247
293
339
378
407
438
468
493
519
551
583
618
648
633
548
419
279
139
19
-64
-120
-158
-168
-162
-171
-186
-183
-179
-186
-176
-153
-151
-164
-162
-146
-129
-128
-157
-166
-111
-69
-93
-114
-108
-123
-121
-54
13
20
-15
-47
-26
2
-38
-47
1
-44
-26
364
1069
1889
2210
1155
-499
-847
-83
201
-13
-1
64
1
14
68
67
81
111
123
140
163
201
256
284
290
328
390
431
462
505
549
589
628
659
666
631
526
349
149
-12
-133
-233
-303
-336
-350
-353
-343
-341
-344
-335
-326
-339
-360
-372
-382
-397
-410
-418
-425
-437
-455
-472
-488
-515
-556
-572
-520
-439
-408
-442
-484
-480
-461
-473
-453
-412
-470
-482
-154
566
1533
1978
882
-885
-1258
-435
-119
-349
-335
-233
-266
-243
-181
-170
-136
-79
-46
-12
37
84
130
171
209
251
296
341
388
430
462
494
527
550
551
506
388
218
57
-61
-150
-214
-239
-236
-227
-215
-198
-184
-172
-160
-154
-154
-157
-169
-186
-188
-178
-178
-187
-192
-197
-211
-232
-258
-289
-307
-275
-202
-147
-152
-196
-215
-194
-198
-211
-170
-173
-244
-152
268
1226
2537
2668
794
-916
-653
116
21
-171
-35
-23
-74
4
49
49
93
134
159
200
233
256
295
336
362
389
426
462
493
520
544
571
594
609
607
565
457
304
152
24
-84
-160
-197
-221
-249
-264
-258
-257
-271
-285
-295
-302
-304
-305
-318
-333
-342
-349
-356
-358
-359
-361
-359
-350
-342
-341
-338
-322
-297
-279
-266
-252
-234
-212
-194
-189
-185
-177
-180
-184
-177
-174
-182
-179
-182
-213
-247
-269
-294
-301
-250
-176
-149
-153
-136
-129
-123
-72
-73
-140
-36
415
1352
2464
2341
487
-961
-567
144
19
-158
-45
-49
-90
-22
4
-3
40
79
98
134
172
195
223
260
289
310
337
363
386
416
457
496
533
567
589
595
571
489
353
208
81
-25
-107
-170
-222
-256
-274
-291
-307
-313
-316
-333
-347
-343
-341
-348
-342
-323
-313
-309
-298
-288
-278
-269
-269
-268
-260
-258
-267
-259
-238
-234
-241
-236
-228
-222
-206
-195
-204
-206
-190
-181
-183
-190
-212
-241
-271
-292
-280
-250
-228
-194
-171
-183
-139
-83
-122
0
524
1207
1643
1291
-13
-1018
-607
225
303
110
166
191
138
163
179
165
189
217
233
268
307
336
373
408
427
436
445
458
474
484
488
487
480
475
481
488
470
396
272
146
40
-67
-164
-224
-261
-293
-316
-336
-365
-383
-375
-376
-409
-435
-413
-374
-359
-357
-351
-344
-328
-301
-279
-271
-266
-258
-260
-256
-230
-213
-220
-211
-179
-171
-184
-180
-175
-189
-192
-163
-135
-137
-154
-160
-156
-149
-148
-156
-169
-182
-202
-229
-239
-225
-198
-148
-111
-127
-109
-54
-85
-82
172
749
1738
2473
1609
-291
-917
-129
247
-24
-52
74
41
34
90
104
124
161
180
212
259
290
311
337
363
374
386
411
421
422
448
481
492
514
549
566
574
564
487
354
220
95
-19
-99
-149
-193
-233
-261
-279
-295
-310
-326
-342
-356
-364
-371
-382
-391
-394
-399
-406
-410
-410
-410
-410
-406
-399
-398
-403
-399
-384
-374
-368
-356
-344
-339
-329
-317
-312
-307
-290
-266
-247
-231
-212
-189
-172
-164
-161
-159
-161
-168
-186
-206
-215
-211
-176
-116
-100
-99
-50
-65
-121
72
638
1541
2323
1783
-62
-1076
-417
229
69
-51
60
41
19
85
102
105
139
148
150
188
229
255
289
328
360
386
411
441
480
520
545
559
580
622
669
686
649
549
395
231
88
-30
-122
-189
-236
-256
-251
-250
-260
-269
-274
-281
-290
-295
-297
-301
-305
-307
-307
-309
-307
-296
-282
-268
-244
-225
-229
-236
-228
-219
-215
-216
-223
-227
-224
-224
-229
-229
-224
-225
-224
-219
-219
-221
-215
-207
-213
-236
-268
-296
-290
-249
-192
-133
-112
-141
-159
-145
-113
-64
-85
-156
-54
346
1229
2473
2642
875
-807
-608
122
33
-173
-66
-58
-102
-33
-2
-10
31
66
80
116
153
180
210
235
261
298
317
314
338
390
424
438
461
489
504
514
501
428
309
183
64
-47
-132
-192
-241
-281
-307
-327
-349
-368
-381
-383
-383
-384
-379
-366
-366
-365
-332
-286
-264
-254
-247
-252
-255
-243
-237
-250
-258
-254
-259
-265
-255
-234
-221
-216
-213
-210
-205
-202
-211
-226
-220
-191
-176
-192
-206
-201
-182
-137
-74
-42
-61
-100
-108
-91
-101
-102
-55
-76
-133
31
552
1484
2353
1847
-21
-1054
-430
166
-9
-126
-21
-29
-34
30
50
71
117
146
176
215
251
295
336
360
390
417
425
439
478
516
542
568
596
611
620
625
592
494
355
221
107
3
-88
-157
-198
-222
-242
-265
-283
-293
-299
-307
-314
-319
-326
-337
-342
-334
-323
-316
-309
-301
-297
-292
-288
-287
-281
-267
-258
-255
-248
-237
-227
-222
-221
-221
-218
-218
-223
-229
-231
-229
-227
-232
-235
-224
-208
-207
-207
-194
-192
-208
-207
-171
-122
-80
-55
-59
-81
-85
-66
-81
-103
-51
-29
-104
-28
355
1008
1799
1847
483
-883
-720
18
51
-147
-75
-37
-62
8
58
52
84
138
175
208
245
283
318
340
352
371
387
386
390
426
459
459
465
484
483
479
500
483
378
251
168
92
-6
-77
-112
-153
-198
-221
-236
-256
-268
-268
-266
-265
-264
-267
-274
-277
-270
-263
-265
-269
-262
-243
-232
-238
-244
-244
-256
-274
-281
-293
-309
-304
-291
-284
-269
-246
-228
-204
-172
-148
-135
-121
-107
-96
-88
-81
-74
-81
-111
-138
-145
-148
-168
-193
-188
-158
-137
-116
-92
-101
-90
-39
-74
-113
130
748
1667
2243
1347
-493
-1150
-398
51
-151
-193
-95
-128
-125
-72
-74
-62
-18
4
28
71
106
138
180
219
248
276
309
356
410
462
513
574
640
689
705
694
654
559
409
243
101
-8
-95
-161
-198
-210
-215
-217
-209
-195
-190
-194
-194
-193
-201
-216
-231
-244
-257
-268
-277
-286
-289
-290
-294
-291
-276
-256
-241
-225
-203
-190
-184
-170
-153
-140
-130
-131
-134
-111
-77
-62
