# session 29
126
104
150
146
51
11
52
47
8
19
43
47
65
91
93
88
105
142
171
172
179
213
242
263
297
323
328
362
434
473
466
479
524
554
552
549
536
466
348
228
78
-96
-182
-182
-221
-279
-263
-240
-271
-279
-246
-253
-276
-240
-192
-203
-251
-278
-268
-241
-228
-248
-291
-306
-257
-205
-226
-270
-264
-245
-251
-244
-235
-254
-256
-213
-191
-214
-232
-217
-199
-210
-227
-211
-180
-170
-180
-196
-196
-176
-168
-168
-155
-143
-137
-138
-164
-179
-158
-140
-143
-136
-124
-147
-204
-225
-171
-135
-182
-216
-157
-72
-37
-80
-126
-59
0
-39
135
668
1289
1661
1222
-74
-854
-321
315
209
21
94
121
92
112
136
169
178
138
156
236
247
207
229
295
332
325
314
348
409
426
422
463
501
483
478
522
549
521
459
374
264
132
20
-47
-102
-152
-173
-199
-237
-237
-222
-230
-228
-213
-211
-213
-223
-248
-227
-177
-205
-272
-251
-205
-237
-262
-222
-204
-227
-224
-198
-195
-227
-258
-236
-179
-162
-187
-199
-187
-186
-207
-200
-150
-135
-158
-142
-130
-176
-182
-125
-120
-154
-123
-71
-96
-143
-137
-111
-103
-108
-125
-124
-94
-106
-167
-199
-188
-164
-121
-91
-97
-98
-106
-128
-67
21
-12
47
524
1306
1816
1294
-206
-1188
-699
123
205
57
131
140
57
79
138
147
135
134
162
204
216
214
221
232
254
284
325
394
443
434
427
445
473
553
644
652
616
606
584
510
376
205
42
-108
-246
-297
-258
-263
-365
-431
-385
-347
-408
-433
-299
-195
-340
-511
-387
-169
-200
-348
-364
-316
-303
-311
-364
-415
-353
-260
-270
-317
-312
-285
-253
-225
-245
-263
-209
-175
-229
-245
-170
-132
-156
-176
-190
-172
-114
-111
-142
-114
-95
-146
-209
-249
-223
-124
-116
-206
-162
-29
-53
-124
-90
-136
-131
372
1166
1610
1330
230
-952
-968
-101
268
74
63
168
133
119
164
173
169
165
164
209
276
301
292
309
360
381
374
433
531
568
599
688
771
833
884
899
918
965
935
759
495
222
-6
-176
-305
-399
-448
-454
-438
-430
-432
-423
-400
-387
-383
-376
-365
-366
-376
-368
-344
-338
-347
-348
-342
-340
-335
-326
-320
-315
-307
-298
-289
-278
-271
-267
-266
-265
-264
-263
-262
-262
-263
-271
-285
-295
-297
-291
-256
-187
-141
-149
-173
-192
-200
-183
-189
-202
-147
-156
-250
-28
704
1615
2073
1314
-321
-1051
-361
214
42
-73
32
10
-26
26
44
49
80
90
94
124
155
176
201
230
262
301
347
391
439
503
574
626
666
721
785
823
828
791
667
443
196
-13
-191
-331
-411
-444
-458
-452
-429
-405
-385
-367
-356
-349
-334
-321
-320
-323
-321
-317
-309
-302
-310
-321
-321
-324
-325
-312
-298
-296
-294
-295
-305
-307
-290
-252
-199
-180
-221
-270
-288
-293
-282
-270
-268
-234
-234
-312
-205
336
1258
2157
1994
337
-1104
-825
15
81
-91
-1
25
-24
21
54
50
86
120
133
162
196
219
245
277
305
336
372
411
453
501
550
598
645
690
726
751
759
718
598
411
208
22
-134
-250
-322
-358
-379
-392
-392
-379
-369
-366
-354
-336
-333
-340
-340
-337
-343
-349
-345
-338
-336
-334
-327
-319
-314
-309
-301
-297
-295
-292
-289
-290
-291
-294
-301
-302
-282
-239
-180
-142
-157
-195
-221
-234
-214
-189
-208
-191
-138
-193
-180
237
1037
1885
1962
586
-1022
-1032
-69
196
-47
-24
49
-5
14
61
57
79
117
129
148
180
202
222
253
286
317
349
382
418
464
516
556
590
639
689
720
739
741
675
528
348
178
22
-111
-204
-262
-296
-312
-317
-318
-316
-318
-329
-339
-335
-322
-321
-333
-345
-346
-339
-339
-356
-365
-342
-317
-318
-322
-310
-300
-297
-293
-291
-294
-294
-279
-260
-260
-273
-261
-214
-154
-123
-146
-182
-201
-217
-210
-184
-201
-205
-150
-183
-183
272
1125
1785
1572
248
-1122
-1114
-210
141
-34
-29
57
20
20
63
65
71
100
120
141
169
195
217
244
283
320
347
380
427
472
513
564
613
651
694
736
751
725
645
494
297
105
-56
-185
-270
-312
-336
-355
-357
-346
-336
-330
-321
-314
-308
-304
-308
-311
-309
-310
-314
-311
-309
-313
-308
-296
-291
-288
-281
-276
-272
-267
-260
-247
-232
-205
-148
-105
-130
-173
-188
-203
-201
-178
-196
-189
-131
-183
-156
383
1145
1396
853
-271
-1176
-999
-191
143
26
27
92
69
79
118
121
132
158
171
191
225
245
263
295
328
355
386
419
450
489
536
580
622
663
694
707
698
646
525
345
159
3
-126
-233
-307
-335
-338
-346
-353
-336
-309
-305
-309
-299
-292
-300
-298
-289
-295
-308
-309
-312
-315
-305
-295
-299
-296
-282
-269
-260
-252
-235
-197
-166
-179
-209
-224
-238
-234
-210
-221
-218
-169
-213
-200
273
977
1175
560
-532
-1274
-1010
-250
65
-13
-4
48
30
40
74
80
91
114
128
148
179
202
221
246
279
310
342
381
425
471
522
580
632
676
716
746
751
702
576
387
187
17
-115
-215
-278
-307
-318
-319
-310
-299
-291
-288
-282
-273
-270
-273
-279
-283
-284
-284
-287
-294
-298
-296
-291
-290
-292
-291
-283
-274
-251
-204
-167
-179
-210
-231
-248
-235
-214
-232
-209
-158
-231
-215
252
1002
1598
1529
425
-821
-836
-87
115
-88
-75
-18
-65
-49
-7
-10
4
34
52
74
103
127
155
188
223
260
300
346
395
448
509
575
638
697
754
799
812
752
595
373
148
-49
-211
-324
-388
-418
-430
-428
-420
-411
-403
-396
-392
-389
-385
-383
-384
-384
-380
-376
-374
-372
-366
-356
-347
-341
-337
-334
-334
-341
-344
-335
-309
-257
-192
-173
-206
-230
-233
-238
-222
-209
-219
-179
-154
-244
-186
325
1256
2195
2132
614
-783
-601
109
95
-119
-43
-16
-67
-22
14
9
38
71
86
112
141
167
202
239
273
313
358
404
456
512
571
633
696
756
807
845
850
783
625
408
188
-4
-157
-263
-323
-353
-366
-365
-358
-349
-342
-335
-328
-324
-323
-324
-323
-321
-319
-318
-317
-314
-309
-302
-299
-295
-287
-279
-275
-268
-259
-252
-248
-245
-240
-232
-226
-222
-217
-210
-204
-199
-194
-188
-183
-178
-172
-167
-162
-155
-151
-147
-142
-140
-139
-130
-129
-147
-161
-171
-205
-232
-208
-172
-161
-138
-106
-98
-81
-65
-77
-40
-9
-101
-54
428
1236
2066
2162
909
-499
-491
198
232
-12
39
79
19
53
91
81
99
121
123
143
173
194
219
249
276
307
340
370
403
444
487
533
582
633
681
727
767
784
754
651
488
305
133
-19
-138
-221
-276
-312
-332
-341
-350
-357
-359
-359
-363
-369
-374
-377
-378
-380
-381
-379
-374
-368
-360
-354
-348
-342
-338
-333
-325
-316
-307
-299
-291
-283
-276
-273
-270
-264
-256
-252
-245
-234
-226
-223
-215
-201
-195
-195
-190
-181
-176
-174
-169
-163
-158
-156
-155
-149
-147
-158
-170
-178
-207
-242
-237
-208
-190
-162
-124
-112
-98
-77
-85
-52
-6
-85
-69
371
1169
2033
2244
1083
-420
-548
179
291
24
53
112
50
73
118
106
118
143
148
162
188
208
237
269
293
320
352
380
410
447
485
522
563
605
641
670
691
697
663
570
426
262
109
-22
-124
-195
-241
-269
-286
-294
-296
-296
-299
-304
-310
-317
-323
-328
-330
-330
-330
-330
-327
-322
-317
-311
-305
-298
-292
-287
-283
-280
-277
-272
-268
-264
-260
-255
-250
-245
-240
-235
-228
-222
-217
-212
-206
-201
-198
-193
-186
-180
-173
-166
-161
-157
-152
-146
-142
-138
-136
-133
-126
-121
-130
-140
-147
-166
-196
-208
-201
-181
-149
-122
-100
-73
-75
-77
-19
-25
-102
76
640
1445
2132
1751
140
-891
-338
326
174
5
107
95
50
102
116
107
136
150
152
175
196
212
239
267
293
320
349
377
408
445
483
517
551
583
612
635
651
651
610
510
367
215
76
-42
-132
-195
-238
-265
-275
-279
-283
-288
-291
-294
-296
-299
-302
-305
-307
-307
-308
-308
-303
-298
-296
-294
-288
-282
-278
-275
-271
-266
-261
-256
-251
-244
-236
-231
-226
-221
-215
-206
-196
-194
-197
-193
-180
-172
-172
-171
-164
-159
-155
-151
-148
-144
-138
-132
-127
-122
-118
-117
-113
-112
-121
-130
-139
-155
-178
-203
-215
-195
-158
-138
-112
-76
-85
-84
-24
-58
-112
212
962
1747
1946
938
-608
-966
-128
311
92
37
133
90
76
129
130
132
162
170
176
202
223
242
269
296
322
351
382
412
444
481
521
560
597
631
661
686
700
685
612
474
300
134
-7
-121
-203
-255
-287
-305
-311
-311
-307
-306
-307
-309
-310
-310
-311
-313
-315
-315
-314
-313
-312
-311
-309
-308
-307
-302
-295
-289
-283
-275
-268
-265
-261
-253
-243
-235
-228
-220
-213
-208
-202
-195
-192
-191
-185
-178
-174
-172
-168
-161
-158
-157
-154
-151
-147
-144
-142
-139
-134
-137
-150
-164
-180
-199
-215
-216
-193
-164
-149
-121
-87
-98
-91
-26
-60
-108
214
967
1841
2170
1170
-477
-890
-62
339
87
32
126
78
67
119
118
124
155
164
174
200
218
238
268
296
324
356
388
421
458
496
535
575
615
654
688
713
724
704
624
475
291
116
-32
-149
-230
-278
-304
-316
-319
-318
-317
-314
-313
-316
-319
-321
-324
-328
-330
-331
-330
-329
-327
-324
-321
-318
-314
-308
-304
-301
-296
-290
-285
-278
-270
-263
-255
-247
-242
-238
-233
-227
-222
-215
-204
-196
-191
-185
-178
-172
-167
-163
-157
-150
-143
-138
-137
-133
-129
-126
-124
-118
-117
-127
-141
-153
-169
-189
-204
-200
-174
-148
-127
-89
-72
-89
-51
-16
-88
-20
473
1302
2059
1880
394
-906
-616
213
261
36
100
133
75
108
140
131
154
178
183
202
226
242
266
294
318
348
380
408
439
476
513
549
585
623
660
688
706
707
671
571
411
232
69
-65
-167
-236
-277
-300
-311
-314
-313
-312
-312
-312
-313
-316
-320
-322
-324
-326
-328
-327
-324
-323
-322
-319
-316
-312
-307
-302
-298
-292
-283
-275
-269
-263
-257
-252
-246
-239
-232
-225
-218
-210
-203
-199
-194
-187
-180
-174
-168
-162
-157
-151
-146
-141
-137
-135
-133
-130
-127
-124
-120
-116
-123
-138
-152
-165
-181
-198
-202
-178
-151
-133
-97
-73
-88
-59
-15
-79
-44
410
1232
2015
1928
514
-879
-715
154
286
47
88
137
77
100
139
129
146
174
180
196
220
238
258
285
312
340
367
396
429
464
498
534
572
608
642
672
691
695
666
575
423
247
85
-52
-158
-230
-274
-299
-312
-316
-316
-314
-313
-313
-313
-314
-318
-321
-323
-326
-327
-327
-327
-327
-325
-321
-318
-314
-308
-302
-298
-292
-285
-277
-271
-263
-255
-249
-245
-240
-232
-223
-217
-210
-203
-198
-192
-184
-177
-171
-167
-161
-155
-150
-146
-142
-137
-134
-131
-129
-128
-124
-118
-121
-133
-145
-157
-172
-190
-199
-183
-152
-133
-105
-70
-81
-75
-15
-50
-94
231
986
1844
2106
1030
-606
-941
-67
341
101
56
146
95
86
138
135
141
174
183
193
220
239
257
282
307
333
364
394
424
458
494
530
566
604
639
669
689
697
677
603
464
289
120
-25
-139
-219
-270
-301
-315
-318
-318
-318
-317
-316
-313
-311
-315
-319
-320
-320
-323
-325
-325
-327
-326
-321
-316
-312
-308
-301
-294
-288
-282
-275
-268
-262
-255
-247
-240
-235
-229
-220
-214
-209
-203
-196
-191
-185
-177
-169
-164
-160
-155
-150
-148
-146
-141
-136
-133
-129
-127
-125
-121
-122
-133
-145
-157
-173
-194
-207
-193
-167
-153
-125
-85
-94
-93
-33
-61
-112
192
936
1803
2107
1081
-576
-990
-127
329
100
38
132
87
74
128
128
130
161
172
181
204
223
241
267
293
318
345
375
406
440
473
509
547
583
616
645
668
677
661
595
462
288
118
-29
-147
-230
-281
-310
-326
-332
-332
-330
-326
-324
-324
-325
-325
-325
-326
-328
-329
-328
-327
-326
-325
-320
-315
-310
-304
-298
-292
-286
-279
-270
-262
-254
-245
-237
-229
-223
-216
-207
-200
-193
-185
-176
-170
-164
-156
-148
-143
-137
-127
-119
-115
-111
-106
-101
-98
-93
-87
-84
-90
-99
-112
-128
-144
-162
-166
-138
-105
-86
-55
-36
-49
-14
22
-45
22
522
1374
2126
1898
366
-943
-632
231
304
81
139
172
114
145
177
168
189
213
216
233
255
270
292
317
338
365
395
422
452
485
520
556
593
627
658
684
698
694
656
553
389
208
44
-95
-205
-277
-317
-341
-355
-359
-359
-361
-364
-365
-366
-369
-374
-378
-382
-386
-389
-391
-392
-392
-390
-389
-389
-387
-385
-384
-380
-374
-368
-364
-358
-351
-347
-343
-338
-334
-329
-324
-318
-312
-307
-302
-297
-293
-287
-281
-275
-270
-264
-258
-251
-246
-242
-238
-231
-227
-232
-242
-250
-260
-275
-293
-300
-275
-239
-217
-186
-156
-165
-143
-91
-140
-130
288
1111
1948
1976
630
-885
-871
45
286
44
63
135
82
100
149
148
168
202
213
233
266
289
315
347
380
413
448
484
523
566
609
654
698
740
779
815
842
851
824
738
587
410
247
110
3
-69
-110
-131
-139
-136
-130
-124
-119
-113
-108
-105
-104
-105
-105
-106
-108
-109
-109
-107
-106
-106
-106
-103
-100
-98
-96
-94
-93
-91
-89
-88
-88
-89
-93
-96
-97
-99
-103
-107
-111
-115
-121
-128
-137
-146
-154
-163
-172
-183
-194
-205
-217
-231
-245
-264
-291
-321
-354
-391
-431
-468
-483
-474
-467
-470
-465
-475
-505
-494
-499
-588
-504
-45
