# session 13
-61
-39
-89
32
378
642
723
792
875
894
863
789
642
451
269
115
-11
-108
-171
-208
-241
-268
-272
-265
-264
-268
-269
-269
-282
-305
-320
-336
-361
-334
-237
-188
-218
-244
-277
-304
-244
-226
-328
-247
242
991
1436
789
-578
-1042
-360
63
-107
-143
-33
-49
-40
35
68
114
202
281
365
465
558
646
741
813
846
849
811
709
543
344
156
-1
-126
-215
-272
-311
-339
-351
-358
-361
-354
-348
-346
-338
-338
-360
-370
-364
-368
-345
-265
-211
-229
-259
-273
-264
-212
-211
-277
-175
307
1116
1624
903
-576
-1051
-339
77
-112
-168
-86
-121
-112
-37
-11
23
100
176
260
357
441
521
605
666
700
717
696
620
491
320
133
-24
-137
-227
-296
-330
-343
-357
-368
-370
-370
-373
-375
-371
-368
-375
-388
-397
-412
-425
-390
-303
-247
-257
-286
-317
-319
-260
-257
-331
-214
275
1024
1504
857
-641
-1267
-563
12
-104
-176
-75
-87
-83
-2
28
52
130
204
278
390
521
642
751
853
944
1006
1012
939
777
554
316
96
-74
-181
-256
-322
-360
-369
-375
-384
-387
-386
-385
-383
-377
-377
-394
-405
-398
-406
-412
-351
-276
-276
-305
-319
-328
-291
-259
-301
-227
124
672
1201
1058
-112
-1103
-807
-125
-68
-184
-99
-81
-110
-44
5
22
88
163
219
295
391
493
608
719
802
858
878
832
705
520
320
140
-10
-131
-216
-260
-284
-309
-325
-324
-320
-329
-345
-348
-339
-342
-359
-360
-354
-359
-337
-272
-234
-249
-272
-297
-296
-243
-251
-314
-209
192
927
1596
1160
-289
-983
-403
53
-89
-135
-33
-47
-40
32
62
93
156
211
268
337
407
482
562
632
685
719
706
615
457
280
116
-27
-136
-204
-249
-285
-309
-322
-333
-340
-344
-355
-368
-375
-391
-411
-418
-431
-442
-392
-310
-294
-318
-329
-353
-335
-282
-344
-407
-157
499
1370
1644
534
-900
-955
-182
-10
-197
-124
-45
-74
-19
52
74
129
204
267
338
413
478
544
602
643
669
667
611
492
329
156
12
-95
-179
-242
-282
-310
-333
-344
-348
-353
-356
-353
-355
-366
-386
-408
-428
-442
-420
-339
-267
-264
-284
-303
-317
-276
-246
-315
-327
-74
645
1776
2143
774
-807
-777
-72
-64
-252
-142
-99
-132
-55
7
27
98
177
231
297
368
421
471
522
565
588
576
523
430
304
168
52
-39
-113
-170
-205
-227
-238
-245
-257
-263
-264
-273
-288
-292
-288
-290
-297
-302
-311
-325
-342
-356
-336
-259
-186
-176
-197
-222
-230
-184
-162
-209
-185
22
705
2021
2666
1269
-645
-854
-138
-79
-294
-211
-164
-202
-136
-77
-56
10
78
121
185
257
319
397
486
562
630
687
695
635
517
354
174
12
-120
-227
-303
-350
-379
-394
-399
-409
-422
-427
-430
-436
-433
-424
-421
-414
-405
-405
-404
-389
-369
-358
-364
-379
-386
-379
-382
-412
-419
-333
-209
-171
-200
-221
-229
-193
-147
-201
-194
102
696
1608
2209
1284
-524
-1044
-281
58
-142
-117
-24
-67
-30
54
83
140
217
261
324
421
515
622
748
863
950
1008
1029
992
881
695
472
269
98
-47
-157
-230
-281
-318
-342
-362
-372
-374
-387
-406
-406
-402
-412
-416
-411
-419
-419
-401
-403
-422
-416
-417
-450
-433
-341
-282
-288
-301
-328
-323
-245
-257
-326
-108
461
1261
1964
1552
-77
-1053
-537
4
-140
-216
-95
-113
-132
-61
-28
0
65
117
165
232
303
382
481
581
669
736
773
762
664
481
281
110
-35
-151
-229
-282
-314
-328
-343
-360
-368
-373
-383
-388
-389
-396
-406
-404
-398
-409
-429
-434
-443
-461
-423
-322
-263
-274
-292
-305
-276
-214
-259
-327
-161
353
1344
2286
1776
-1
-858
-313
33
-174
-181
-67
-100
-84
-7
11
42
110
157
202
267
329
391
461
530
592
630
627
572
465
320
172
46
-58
-141
-199
-238
-263
-275
-283
-296
-308
-313
-319
-325
-325
-321
-322
-334
-356
-365
-368
-401
-408
-312
-206
-203
-236
-246
-250
-193
-141
-211
-224
26
696
1917
2663
1494
-448
-832
-117
8
-219
-140
-85
-142
-78
-2
12
66
133
185
262
346
426
524
616
683
750
805
801
711
538
339
181
56
-78
-199
-275
-339
-397
-409
-419
-497
-573
-564
-525
-532
-556
-546
-508
-491
-515
-527
-499
-500
-554
-579
-576
-567
-465
-307
-275
-365
-462
-516
-477
-404
-341
-34
651
1350
1432
482
-863
-1258
-665
-254
-255
-154
-57
-149
-176
-87
-61
-67
-21
31
96
290
596
786
757
756
920
886
508
384
751
896
513
244
322
291
88
17
40
-33
-140
-170
-168
-204
-283
-370
-383
-297
-249
-361
-509
-479
-194
206
440
431
444
562
543
434
520
675
590
336
153
94
73
28
82
467
1192
1781
1373
-161
-1391
-1153
-313
-35
-136
-197
-235
-202
-110
-125
-188
-155
-77
-52
-57
31
259
473
543
551
550
479
330
146
-17
-128
-247
-375
-456
-598
-838
-937
-902
-973
-1000
-849
-827
-880
-682
-586
-870
-996
-763
-670
-829
-708
45
911
854
-371
-1719
-2037
-1312
-461
-125
-137
-115
7
109
139
145
195
310
447
556
688
890
1060
1143
1256
1384
1418
1468
1558
1433
1097
874
823
724
552
484
506
439
276
128
20
-23
-6
-56
-154
-146
-123
-214
-281
-254
-271
-326
-313
-300
-363
-398
-315
-243
-337
-468
-422
-326
-439
-640
-679
-627
-624
-615
-586
-581
-580
-605
-647
-607
-570
-634
-516
174
1426
2354
1601
-475
-1562
-913
-244
-351
-379
-132
-118
-251
-233
-172
-176
-155
-109
-73
23
166
268
378
541
663
722
793
879
975
1055
986
769
618
608
590
540
545
500
332
239
275
236
146
116
69
35
41
-91
-250
-179
-84
-191
-253
-131
-58
-125
-167
-130
-109
-120
-192
-330
-262
229
915
1346
953
-429
-1690
-1656
-907
-619
-755
-774
-668
-612
-602
-589
-566
-530
-454
-348
-269
-204
-103
23
155
274
330
374
441
385
176
8
-107
-298
-453
-455
-463
-561
-614
-589
-572
-569
-558
-549
-510
-411
-314
-274
-246
-219
-235
-197
-10
164
218
278
339
344
430
523
436
373
601
1358
2696
3245
1592
-573
-754
222
468
218
147
97
107
331
498
459
430
525
626
691
797
907
946
974
1010
975
908
918
900
653
205
-195
-397
-495
-596
-703
-822
-945
-1004
-1032
-1109
-1182
-1223
-1302
-1306
-1100
-912
-945
-1028
-1014
-896
-700
-651
-814
-805
-539
-400
-473
-562
-565
-428
-82
756
1849
1631
-379
-1796
-1167
-196
-89
-93
76
63
46
170
247
289
415
560
648
733
877
1045
1181
1294
1369
1335
1222
1135
1044
842
572
374
248
111
11
41
81
-26
-162
-134
-49
-65
-87
-49
-72
-142
-147
-189
-306
-273
-125
-172
-343
-405
-486
-608
-647
-748
-717
-114
586
563
-258
-1531
-2406
-1952
-847
-527
-831
-830
-602
-551
-541
-425
-327
-272
-172
-88
-82
7
251
443
498
567
659
664
608
554
456
284
95
-50
-130
-126
-40
24
-3
-28
-21
-44
10
186
208
37
39
253
335
236
194
287
387
403
430
518
498
326
206
246
360
498
1121
2711
3850
2443
-154
-808
129
439
181
224
281
150
97
140
188
242
281
248
104
-41
-30
42
20
-29
-38
-109
-272
-439
-615
-818
-947
-999
-1076
-1072
-907
-814
-924
-1052
-1061
-1004
-971
-968
-938
-900
-928
-963
-923
-880
-880
-845
-783
-760
-738
-698
-666
-582
-489
-445
-259
171
921
2037
2414
915
-876
-836
89
266
131
285
408
443
521
546
564
655
730
771
809
821
886
1010
961
735
690
915
1102
1092
938
709
575
584
514
331
210
121
42
84
94
-73
-155
-97
-220
-469
-526
-491
-575
-665
-675
-695
-721
-722
-773
-854
-835
-770
-727
-546
-278
43
1053
2401
1898
-624
-2099
-1408
-661
-731
-735
-603
-648
-658
-578
-496
-325
-109
36
155
314
499
660
750
788
799
758
676
572
423
236
70
-14
-31
-75
-155
-124
13
65
20
26
18
-120
-224
-173
-145
-215
-213
-119
-94
-138
-100
14
8
-126
-118
65
97
-25
62
458
1204
2124
1971
181
-1245
-841
-120
-302
-537
-405
-413
-517
-485
-469
-460
-360
-333
-320
-87
81
-23
68
377
380
287
488
614
518
435
195
-179
-276
-230
-382
-533
-508
-499
-544
-524
-493
-500
-467
-409
-414
-401
-270
-130
-86
-63
-22
-45
-92
-29
107
180
175
180
225
358
1160
2996
4131
2541
-119
-829
-113
43
-157
-46
20
-31
22
35
-7
66
168
195
272
460
628
693
727
745
690
651
713
694
472
214
10
-214
-423
-575
-748
-925
-1010
-1032
-1074
-1119
-1128
-1153
-1214
-1220
-1172
-1158
-1138
-1099
-1113
-1039
-763
-583
-726
-942
-978
-918
-881
-793
-520
235
1723
2814
1692
-690
-1450
-557
-104
-265
-155
42
77
174
297
318
297
311
411
558
663
800
1014
1162
1182
1192
1243
1249
1140
990
883
745
557
440
363
238
154
148
127
88
42
-34
-75
-55
-50
-79
-89
-63
-44
-89
-148
-103
-20
-109
-309
-349
-303
-449
-559
-188
459
740
193
-1107
-2155
-1947
-1069
-674
-673
-597
-606
-698
-596
-423
-349
-234
-82
-6
97
213
119
-55
51
366
515
448
400
424
362
201
102
99
66
-14
-10
97
169
156
101
-19
-142
-98
46
70
23
52
103
133
174
185
172
168
128
129
198
92
-123
-91
303
1346
2781
2711
504
-1175
-732
55
18
-63
53
42
63
152
113
68
181
324
358
326
310
303
281
266
251
164
-1
-151
-247
-377
-572
-726
-804
-883
-907
-813
-761
-815
-815
-760
-704
-572
-499
-626
-718
-678
-727
-786
-640
-455
-434
-475
-481
-490
-463
-377
-366
-387
-169
447
1493
2382
1779
-164
-1199
-551
133
117
114
228
180
148
241
340
412
453
476
535
588
604
648
682
637
668
841
918
835
775
705
547
454
448
376
282
286
311
255
187
184
173
118
105
111
15
-140
-257
-360
-476
-604
-743
-823
-828
-859
-912
-925
-980
-999
-662
39
611
428
-638
-1665
-1644
-965
-587
-581
-634
-668
-572
-378
-288
-263
-192
-124
-44
80
166
227
350
486
563
636
779
957
1054
1006
847
660
552
567
595
536
454
403
317
235
246
234
100
11
43
10
-119
-152
-87
-60
-59
-46
-103
-199
-173
-60
-55
-100
44
525
1495
2415
1805
-273
-1446
-822
-121
-150
-202
-211
-400
-465
-386
-410
-462
-435
-382
-302
-178
-46
39
44
56
120
120
69
48
-71
-293
-366
-307
-352
-515
-683
-759
-695
-659
-752
-739
-574
-529
-594
-568
-505
-508
-509
-451
-361
-286
-218
-138
-100
-66
27
28
-45
95
527
1430
2688
2781
977
-530
-185
472
331
211
360
310
212
260
245
180
285
486
552
499
477
504
563
699
836
840
764
738
717
608
460
321
150
-1
-47
-62
-126
-211
-319
-449
-539
-621
-758
-863
-850
-798
-775
-750
-750
-795
-782
-760
-877
-928
-798
-876
-1071
-770
-38
876
1770
1387
-614
-1922
-1360
-678
-729
-622
-317
-309
-392
-360
-319
-250
-114
34
200
384
537
646
717
744
750
765
774
756
715
639
526
442
435
450
429
372
295
211
140
88
57
44
22
-22
-52
-25
21
9
-7
96
216
167
66
78
71
10
93
386
1126
2286
2454
770
-834
-734
-268
-576
-835
-692
-690
-789
-737
-663
-623
-543
-450
-364
-243
-102
-30
-35
18
108
10
-173
-123
14
-85
-275
-336
-386
-482
-490
-398
-335
-369
-457
-546
-618
-596
-472
-415
-424
-332
-193
-111
10
170
234
191
102
39
53
73
76
206
661
1638
2583
2032
59
-1046
-466
130
-20
-165
-116
-131
-111
-18
35
84
180
276
337
392
478
569
621
663
727
762
737
690
585
365
170
161
208
102
-111
-287
-377
-395
-408
-457
-492
-483
-480
-496
-485
-446
-423
-413
-420
-479
-573
-649
-697
-762
-827
-681
-238
279
908
1448
809
-856
-1503
-721
-227
-406
-374
-193
-225
-225
-84
27
106
246
460
669
755
733
716
734
787
863
887
851
808
704
506
337
266
222
160
104
57
0
-60
-103
-138
-196
-262
-289
-291
-322
-359
-338
-300
-316
-341
-341
-384
-452
-465
-410
-249
68
650
1414
1400
-32
-1386
-1159
-373
-306
-460
-349
-294
-320
-266
-225
-200
-116
-44
-23
4
47
93
140
153
112
87
112
110
53
2
-97
-301
-465
-484
-480
-548
-603
-597
-599
-594
-505
-456
-555
-553
-298
-60
9
30
22
-40
-105
-134
-87
-29
-95
-202
-87
619
1994
2735
1374
-768
-1243
-492
-292
-505
-442
-380
-430
-340
-220
-197
-128
16
101
149
283
419
434
485
699
921
1080
1195
1134
924
787
682
454
231
136
74
12
14
52
103
190
244
220
227
301
330
318
355
395
363
266
128
21
-18
-103
-246
-222
366
1713
2739
1752
-499
-1407
-769
-438
-681
-698
-592
-590
-545
-516
-515
-395
-273
-243
-151
0
78
167
350
494
493
427
334
168
4
-47
-69
-122
-73
55
74
19
23
28
10
42
67
31
10
-6
-72
-88
0
31
-68
-178
-256
-341
-403
-435
-462
-385
82
1034
1585
596
-1102
-1506
-705
-320
-534
-570
-466
-533
-603
-501
-358
-320
-321
-255
-189
-197
-190
-107
-44
-73
-90
-43
-85
-238
-276
-210
-281
-417
-431
-464
-595
-631
-561
-565
-629
-668
-685
-663
-592
-542
-507
-444
-413
-426
-425
-451
-473
-374
-311
-380
-230
312
989
1355
762
-590
-1206
-574
66
115
128
273
327
329
409
576
745
842
889
924
1006
1181
1298
1265
1262
1322
1292
1228
1206
1121
992
902
797
676
605
551
487
455
