# session 23
-218
-223
-167
-176
-343
-509
-520
-469
-461
-454
-433
-430
-435
-427
-397
-325
-240
-211
-234
-253
-248
-217
-197
-202
-168
-129
-179
-102
386
1206
1948
1798
359
-1034
-925
-109
74
-90
-51
-14
-47
-7
31
43
85
114
114
138
177
204
229
263
309
359
403
450
502
542
576
622
669
697
714
711
645
511
361
228
98
-27
-114
-154
-175
-191
-192
-180
-174
-174
-166
-156
-157
-166
-169
-167
-173
-184
-191
-192
-191
-195
-203
-203
-200
-212
-229
-228
-222
-229
-235
-231
-227
-235
-255
-271
-283
-297
-276
-193
-128
-145
-192
-212
-198
-176
-189
-188
-128
-151
-210
39
667
1497
2096
1501
-202
-1115
-523
46
-101
-198
-97
-121
-137
-74
-64
-61
-19
5
21
56
87
115
154
191
229
278
329
381
439
498
553
606
649
670
672
639
529
349
171
23
-110
-215
-270
-298
-314
-312
-304
-301
-297
-286
-281
-280
-281
-288
-300
-306
-312
-320
-321
-320
-328
-333
-325
-321
-327
-327
-323
-333
-353
-361
-362
-353
-298
-220
-191
-211
-234
-248
-233
-203
-211
-196
-151
-205
-198
194
971
1871
2149
988
-683
-986
-209
62
-157
-148
-76
-123
-96
-40
-41
-16
29
47
73
110
139
175
222
262
302
351
407
463
513
565
618
659
689
708
685
594
451
292
142
6
-105
-181
-217
-227
-226
-225
-221
-213
-207
-205
-203
-205
-212
-219
-222
-225
-231
-238
-243
-245
-244
-238
-231
-235
-244
-241
-229
-222
-217
-209
-202
-195
-188
-182
-177
-172
-169
-160
-149
-148
-149
-138
-126
-122
-122
-122
-123
-116
-102
-96
-98
-97
-96
-100
-112
-142
-178
-194
-190
-172
-145
-122
-91
-56
-66
-63
-2
-37
-95
192
855
1662
2174
1522
-110
-896
-284
203
-1
-106
-3
-23
-48
-12
-14
-4
38
49
55
88
120
149
187
220
247
281
323
360
395
433
467
496
532
560
559
541
499
401
275
165
63
-38
-112
-162
-203
-228
-235
-242
-252
-259
-262
-266
-269
-276
-284
-288
-289
-289
-283
-279
-281
-275
-259
-253
-256
-251
-246
-247
-237
-224
-225
-227
-217
-207
-209
-209
-203
-197
-192
-187
-184
-181
-171
-156
-143
-140
-145
-145
-138
-131
-122
-110
-107
-106
-102
-109
-128
-145
-165
-192
-206
-191
-160
-135
-109
-78
-77
-77
-29
-43
-112
91
696
1499
2063
1564
3
-947
-448
156
48
-79
20
9
-25
32
50
49
91
114
115
137
169
191
213
242
275
301
320
350
389
418
437
460
481
490
490
480
443
365
257
152
61
-16
-72
-106
-129
-146
-156
-163
-169
-172
-175
-183
-194
-202
-205
-209
-219
-230
-231
-229
-229
-226
-221
-224
-222
-210
-209
-219
-214
-204
-205
-202
-192
-195
-200
-191
-178
-176
-177
-171
-168
-172
-167
-149
-140
-151
-157
-147
-136
-130
-126
-130
-134
-127
-119
-123
-132
-145
-159
-170
-190
-212
-202
-168
-142
-106
-69
-82
-77
-23
-54
-71
252
946
1752
2051
1057
-580
-1028
-251
162
-38
-74
9
-43
-45
19
20
22
62
82
89
110
136
163
191
216
240
265
291
318
339
356
378
397
407
408
409
402
367
292
199
115
45
-14
-61
-92
-113
-128
-137
-142
-143
-142
-143
-153
-168
-179
-182
-183
-190
-201
-205
-198
-197
-206
-208
-202
-200
-202
-200
-194
-194
-195
-189
-185
-187
-180
-166
-165
-171
-169
-161
-155
-151
-147
-145
-142
-135
-129
-123
-116
-115
-120
-116
-104
-103
-112
-127
-144
-154
-166
-182
-179
-159
-138
-103
-77
-90
-70
-25
-60
-24
371
1133
1878
1782
421
-964
-912
-96
122
-63
-42
11
-32
-14
26
26
48
78
87
107
138
155
172
198
226
250
274
300
328
353
373
390
404
410
407
402
386
342
265
176
93
20
-42
-90
-117
-130
-140
-146
-149
-155
-160
-161
-165
-176
-185
-187
-194
-206
-215
-217
-220
-227
-229
-223
-219
-222
-223
-219
-215
-214
-211
-203
-195
-194
-195
-191
-185
-179
-170
-162
-164
-169
-161
-151
-149
-147
-137
-128
-132
-142
-148
-154
-167
-192
-217
-211
-181
-149
-111
-83
-91
-72
-36
-67
7
461
1257
1942
1690
218
-1107
-934
-89
111
-63
-35
15
-14
8
38
42
67
91
99
121
144
158
183
216
243
270
302
336
366
395
427
453
469
481
488
481
450
382
280
172
78
-9
-83
-132
-161
-180
-185
-175
-163
-164
-171
-173
-173
-174
-175
-182
-196
-207
-210
-211
-215
-222
-231
-233
-231
-235
-239
-232
-224
-229
-236
-232
-224
-215
-206
-201
-195
-188
-187
-188
-182
-176
-173
-168
-168
-175
-186
-198
-212
-209
-166
-95
-50
-61
-99
-124
-113
-96
-108
-91
-58
-110
-83
316
1076
1868
1907
594
-932
-1004
-167
82
-122
-99
-35
-85
-67
-18
-14
10
45
57
81
118
142
164
195
229
260
293
329
366
405
441
469
487
506
521
521
491
419
311
193
80
-24
-107
-154
-179
-197
-210
-215
-210
-202
-203
-212
-216
-217
-225
-235
-238
-243
-251
-260
-265
-267
-266
-268
-270
-269
-263
-255
-252
-256
-261
-265
-274
-281
-284
-275
-225
-147
-117
-148
-183
-197
-186
-168
-176
-164
-129
-170
-147
238
1014
1857
1960
670
-925
-1084
-241
63
-135
-138
-73
-112
-87
-35
-36
-18
24
46
73
109
131
155
194
231
268
311
351
389
433
474
506
534
555
562
555
506
398
265
143
29
-78
-154
-198
-219
-223
-218
-215
-213
-207
-202
-203
-207
-213
-220
-225
-228
-231
-235
-239
-243
-245
-245
-246
-244
-241
-238
-233
-226
-220
-217
-218
-219
-209
-194
-187
-185
-180
-177
-176
-180
-194
-210
-216
-206
-165
-94
-49
-63
-101
-123
-111
-91
-110
-110
-60
-91
-123
166
842
1688
2075
1129
-578
-1134
-364
112
-71
-129
-37
-66
-72
-20
-9
7
45
61
80
113
138
163
197
233
267
299
332
370
408
439
472
505
529
543
552
544
500
408
286
170
72
-14
-82
-122
-144
-158
-162
-163
-168
-173
-177
-184
-188
-187
-195
-213
-223
-222
-225
-232
-233
-233
-235
-235
-233
-234
-235
-227
-216
-214
-215
-210
-201
-196
-192
-189
-185
-177
-173
-174
-171
-160
-155
-157
-153
-147
-145
-140
-128
-124
-127
-123
-113
-108
-108
-106
-102
-107
-121
-135
-151
-170
-183
-178
-156
-136
-118
-80
-62
-78
-44
-4
-69
-6
450
1194
1891
1812
490
-858
-770
4
132
-74
-31
17
-32
-7
33
34
55
74
77
104
136
149
171
206
230
254
290
323
345
374
407
433
453
470
482
486
478
438
354
248
150
68
0
-59
-105
-128
-135
-146
-162
-170
-171
-171
-173
-184
-199
-207
-214
-223
-227
-232
-237
-236
-232
-236
-237
-230
-227
-232
-231
-222
-215
-214
-211
-204
-198
-197
-197
-193
-186
-174
-165
-168
-174
-168
-154
-146
-146
-146
-141
-133
-125
-119
-118
-115
-112
-110
-108
-103
-105
-113
-119
-126
-143
-163
-181
-187
-169
-143
-127
-96
-66
-75
-59
-15
-56
-48
305
994
1747
1913
819
-693
-935
-149
167
-42
-55
25
-15
-10
37
38
49
78
90
104
128
151
178
208
231
261
296
324
349
381
413
435
454
474
487
496
493
453
372
273
176
83
2
-60
-104
-129
-141
-154
-161
-157
-157
-165
-172
-174
-180
-189
-200
-208
-209
-209
-215
-221
-219
-217
-219
-218
-213
-212
-210
-203
-198
-194
-188
-188
-191
-186
-178
-174
-166
-156
-155
-157
-151
-147
-148
-142
-132
-133
-135
-128
-121
-120
-116
-107
-102
-105
-102
-98
-99
-94
-84
-86
-98
-106
-116
-130
-149
-178
-187
-157
-134
-121
-78
-53
-62
-27
-20
-64
159
795
1542
1874
1153
-396
-1197
-595
87
53
-57
28
24
-5
43
64
64
90
103
108
133
159
175
200
236
267
294
325
359
393
434
477
501
514
539
560
555
530
471
351
207
89
-12
-108
-176
-210
-229
-241
-245
-242
-234
-228
-224
-221
-224
-229
-230
-231
-239
-249
-257
-262
-258
-255
-259
-260
-257
-257
-254
-251
-254
-253
-242
-233
-231
-229
-220
-209
-205
-204
-191
-178
-179
-178
-164
-150
-148
-147
-139
-130
-129
-133
-146
-164
-176
-198
-232
-230
-188
-147
-110
-88
-101
-69
-18
-74
-30
453
1272
1942
1741
349
-1008
-916
-86
122
-61
-28
21
-24
3
46
44
67
100
105
122
157
182
201
232
273
314
354
396
442
498
553
595
629
666
693
697
662
569
423
259
108
-28
-142
-220
-262
-282
-286
-277
-265
-256
-249
-241
-238
-243
-251
-253
-253
-259
-268
-271
-269
-273
-283
-285
-283
-286
-286
-280
-278
-277
-269
-261
-258
-255
-248
-239
-229
-223
-223
-219
-208
-201
-199
-193
-183
-181
-190
-204
-217
-232
-231
-184
-112
-71
-82
-119
-133
-106
-102
-115
-71
-70
-147
8
566
1372
2064
1750
166
-1024
-633
75
20
-148
-51
-41
-84
-31
-1
0
36
64
75
101
129
155
190
227
261
300
346
394
438
481
531
581
623
655
675
676
643
550
402
251
117
-15
-124
-186
-218
-239
-242
-235
-231
-226
-218
-220
-227
-228
-227
-229
-233
-239
-247
-250
-251
-256
-256
-251
-255
-260
-253
-246
-245
-240
-232
-229
-224
-217
-213
-207
-197
-193
-192
-185
-176
-169
-165
-162
-156
-147
-144
-144
-136
-125
-123
-122
-117
-114
-109
-105
-108
-120
-134
-153
-177
-193
-188
-161
-136
-113
-70
-55
-77
-37
8
-63
2
472
1214
1911
1869
571
-805
-744
33
155
-67
-23
31
-19
9
51
43
55
82
94
110
130
154
187
216
234
259
304
349
380
413
457
497
528
566
600
611
592
531
417
280
148
19
-99
-183
-234
-260
-266
-265
-267
-267
-264
-260
-256
-259
-269
-265
-255
-259
-269
-269
-269
-268
-263
-265
-271
-267
-261
-263
-260
-253
-251
-245
-233
-230
-231
-224
-216
-213
-207
-198
-192
-183
-177
-179
-178
-166
-154
-148
-140
-130
-128
-130
-134
-147
-161
-173
-204
-224
-189
-142
-119
-86
-66
-77
-41
-22
-81
78
678
1476
1960
1428
-113
-1139
-684
63
78
-76
-1
17
-17
27
53
48
73
100
116
142
166
189
222
255
283
320
366
409
450
495
547
595
631
658
680
684
644
544
402
251
104
-30
-132
-194
-227
-243
-243
-238
-234
-226
-218
-218
-221
-221
-223
-229
-236
-245
-255
-258
-257
-263
-269
-268
-268
-274
-277
-274
-270
-266
-261
-254
-247
-241
-235
-228
-223
-217
-209
-203
-198
-192
-184
-175
-169
-164
-159
-154
-152
-149
-143
-136
-131
-125
-121
-123
-133
-144
-162
-189
-210
-211
-188
-158
-136
-102
-67
-75
-65
-11
-52
-77
253
940
1736
2112
1240
-394
-942
-212
204
-14
-63
37
-6
-17
43
45
47
85
101
107
131
153
175
211
245
270
302
340
377
415
455
492
529
564
585
596
598
561
466
340
212
93
-17
-104
-158
-188
-212
-222
-216
-211
-216
-217
-214
-217
-226
-233
-238
-247
-257
-260
-260
-267
-273
-267
-263
-269
-268
-255
-252
-260
-255
-242
-235
-230
-221
-215
-211
-205
-199
-195
-186
-178
-173
-167
-161
-155
-147
-139
-134
-130
-132
-130
-116
-108
-112
-112
-106
-111
-129
-148
-162
-179
-200
-193
-155
-124
-95
-62
-71
-68
-18
-55
-54
353
1085
1686
1642
546
-865
-1080
-248
164
-15
-43
50
17
10
59
66
74
95
100
118
151
165
179
214
251
280
318
361
397
436
486
530
564
602
634
643
638
604
504
351
198
68
-49
-151
-218
-245
-255
-264
-264
-256
-252
-252
-246
-233
-230
-243
-254
-251
-251
-256
-253
-249
-256
-263
-265
-267
-261
-249
-248
-253
-243
-228
-228
-233
-223
-206
-199
-203
-200
-185
-176
-178
-169
-150
-148
-156
-153
-153
-170
-179
-177
-208
-244
-221
-178
-143
-89
-78
-104
-52
-37
-94
203
943
1536
1503
667
-610
-1155
-551
73
63
-25
53
55
26
65
92
99
121
133
140
165
196
222
248
278
313
355
400
438
477
531
590
637
673
700
714
702
633
490
312
153
17
-110
-220
-291
-316
-314
-311
-308
-296
-280
-269
-259
-246
-243
-251
-255
-250
-249
-264
-277
-269
-258
-269
-284
-279
-266
-268
-270
-262
-263
-270
-258
-234
-231
-245
-240
-212
-197
-208
-221
-219
-217
-228
-220
-166
-107
-96
-133
-169
-154
-128
-143
-131
-103
-162
-53
487
1089
1266
838
-178
-1054
-893
-179
57
-58
-26
35
5
6
36
50
69
83
98
131
161
180
203
236
275
318
359
403
453
506
564
621
667
701
725
728
683
566
399
230
80
-59
-171
-239
-275
-290
-284
-271
-263
-251
-238
-231
-224
-218
-221
-225
-225
-229
-240
-245
-242
-245
-254
-259
-262
-266
-271
-273
-277
-275
-247
-196
-163
-174
-206
-233
-224
-196
-209
-208
-150
-189
-222
139
837
1485
1686
884
-567
-1109
-447
29
-110
-168
-83
-109
-114
-59
-56
-52
-10
13
26
59
92
115
146
188
233
282
342
407
475
549
625
695
753
790
786
712
556
351
149
-27
-178
-295
-364
-390
-395
-391
-382
-377
-375
-367
-355
-351
-351
-350
-350
-349
-348
-351
-356
-358
-367
-390
-409
-415
-425
-414
-342
-265
-261
-290
-301
-307
-295
-274
-285
-257
-209
-288
-290
99
811
1675
2105
1158
-479
-899
-216
21
-216
-207
-126
-173
-153
-95
-90
-64
-21
1
31
62
81
114
163
205
250
304
360
420
489
554
613
671
716
734
722
654
511
333
171
24
-108
-196
-232
-248
-263
-263
-246
-232
-226
-221
-210
-198
-192
-191
-189
-185
-178
-169
-162
-158
-149
-137
-130
-125
-114
-102
-93
-84
-74
-67
-57
-43
-31
-22
-14
-5
1
6
8
-1
-23
-48
-66
-69
-47
0
