# session 28
14
7
38
48
-26
-110
-114
-77
-33
22
45
35
66
127
148
151
174
205
233
254
257
247
234
220
202
153
68
-12
-63
-108
-172
-223
-224
-212
-229
-242
-231
-224
-222
-217
-213
-204
-199
-220
-221
-162
-124
-164
-207
-182
-125
-103
-130
-156
-143
-109
-83
-90
-128
-134
-80
-38
-44
-63
-80
-78
-47
-36
-63
-57
-18
-19
-31
2
29
-6
-44
-38
-13
4
22
26
2
-15
-2
7
1
-4
-28
-79
-107
-81
-28
0
-13
-17
1
-8
2
48
12
-1
327
1006
1684
1691
538
-816
-861
-34
228
-6
-21
55
13
18
68
58
39
58
89
114
130
129
124
139
174
196
209
242
269
269
272
288
292
303
322
308
279
293
294
207
100
51
22
-28
-100
-177
-213
-201
-195
-204
-199
-193
-204
-204
-191
-199
-217
-219
-225
-243
-240
-204
-187
-225
-257
-229
-200
-206
-188
-159
-189
-224
-201
-181
-184
-165
-148
-164
-175
-168
-167
-162
-147
-138
-130
-119
-119
-128
-128
-125
-136
-144
-121
-92
-90
-87
-73
-93
-127
-118
-91
-97
-121
-147
-170
-164
-126
-104
-103
-79
-55
-64
-52
-15
-26
38
434
1179
1817
1485
46
-1053
-706
89
199
31
76
92
28
51
92
85
95
127
146
148
147
167
200
213
222
243
257
280
326
353
341
332
346
359
362
359
351
334
295
227
146
73
13
-39
-88
-130
-154
-161
-156
-153
-158
-156
-150
-162
-175
-161
-150
-173
-195
-187
-175
-182
-191
-187
-173
-174
-194
-208
-196
-183
-185
-183
-172
-164
-166
-175
-169
-152
-160
-175
-150
-130
-156
-173
-147
-125
-124
-116
-112
-130
-137
-111
-93
-112
-125
-104
-97
-127
-149
-146
-145
-142
-130
-124
-108
-71
-62
-63
-32
-48
-50
283
1020
1648
1375
38
-1192
-1068
-165
199
60
55
117
75
66
101
112
132
151
145
149
166
183
211
234
238
246
265
293
324
333
320
331
365
388
392
380
359
344
317
246
157
84
10
-63
-101
-124
-170
-203
-188
-166
-171
-179
-178
-174
-172
-178
-190
-204
-218
-218
-194
-179
-203
-231
-228
-216
-216
-215
-215
-221
-216
-201
-198
-197
-184
-178
-178
-169
-161
-162
-157
-142
-141
-147
-135
-122
-127
-119
-93
-98
-119
-104
-91
-119
-143
-146
-157
-162
-140
-122
-113
-76
-43
-64
-70
-31
-36
8
381
1114
1736
1438
53
-1125
-896
-22
242
73
58
109
96
107
129
130
134
146
162
175
184
217
253
241
222
253
300
324
341
361
378
397
416
423
428
436
432
404
353
276
178
83
2
-78
-151
-198
-222
-232
-235
-235
-230
-232
-250
-259
-241
-226
-234
-254
-263
-251
-235
-240
-257
-264
-260
-257
-254
-253
-258
-256
-242
-230
-225
-227
-223
-209
-201
-204
-203
-198
-195
-190
-185
-184
-179
-172
-173
-182
-189
-184
-179
-203
-233
-213
-165
-138
-113
-99
-105
-77
-56
-89
106
759
1509
1641
708
-743
-1314
-621
105
145
50
120
127
99
136
157
156
183
204
201
207
226
241
254
270
287
304
324
350
382
417
442
460
478
487
487
483
472
436
361
253
141
45
-40
-111
-158
-186
-204
-213
-212
-208
-208
-208
-201
-196
-203
-209
-206
-205
-207
-202
-204
-222
-229
-219
-220
-235
-239
-232
-234
-241
-238
-229
-226
-221
-211
-203
-202
-204
-197
-182
-178
-184
-186
-192
-203
-199
-184
-158
-105
-57
-68
-108
-129
-127
-112
-123
-128
-85
-105
-145
111
716
1387
1651
868
-588
-1107
-364
189
46
-49
34
9
-11
36
40
38
67
85
99
122
135
154
190
219
238
261
284
311
341
368
397
425
438
449
467
467
448
424
364
249
120
10
-85
-163
-209
-231
-248
-261
-256
-250
-261
-262
-241
-230
-240
-249
-253
-255
-253
-254
-259
-257
-258
-266
-268
-261
-260
-263
-254
-243
-250
-271
-270
-246
-224
-192
-145
-140
-175
-187
-186
-192
-178
-179
-187
-145
-147
-188
25
601
1302
1636
909
-574
-1181
-462
152
51
-46
37
12
-12
47
60
55
86
104
109
139
169
185
203
227
251
277
306
339
373
398
423
462
492
498
503
509
491
431
325
194
69
-43
-140
-197
-218
-234
-247
-246
-244
-242
-229
-221
-232
-238
-229
-224
-230
-235
-236
-242
-247
-246
-245
-244
-242
-241
-241
-236
-236
-244
-241
-238
-252
-254
-233
-206
-164
-122
-130
-169
-187
-183
-167
-163
-177
-151
-126
-168
-84
342
1063
1722
1488
64
-1110
-788
9
93
-81
-22
4
-44
-11
14
4
30
63
72
89
117
145
169
185
209
246
271
287
319
356
375
392
420
435
440
448
446
409
336
237
130
31
-58
-134
-180
-194
-198
-207
-214
-213
-213
-218
-222
-223
-219
-213
-214
-226
-236
-235
-230
-231
-235
-238
-235
-226
-215
-209
-207
-207
-203
-198
-202
-208
-209
-212
-218
-207
-174
-127
-87
-85
-115
-134
-141
-143
-132
-137
-141
-104
-114
-151
39
555
1287
1788
1172
-397
-1146
-464
164
44
-74
23
18
-15
19
28
30
71
114
128
117
113
128
154
206
258
252
247
308
354
348
375
413
386
360
396
405
339
294
300
255
126
3
-68
-115
-155
-173
-177
-189
-197
-183
-184
-204
-191
-168
-189
-216
-217
-214
-182
-157
-228
-307
-261
-186
-196
-214
-177
-156
-181
-195
-176
-151
-140
-154
-165
-148
-138
-152
-153
-127
-93
-81
-118
-150
-113
-72
-90
-115
-103
-84
-97
-124
-101
-48
-49
-84
-104
-137
-158
-144
-159
-177
-135
-104
-130
-125
-66
-38
-50
-26
-37
-164
-80
499
1277
1841
1677
394
-936
-847
-14
183
12
41
46
18
105
115
31
39
102
114
107
128
174
217
230
217
217
265
321
326
317
351
396
425
456
484
498
511
517
486
397
267
135
23
-56
-118
-201
-271
-272
-258
-277
-280
-272
-284
-275
-244
-261
-309
-306
-268
-270
-310
-322
-303
-293
-285
-275
-290
-308
-283
-255
-264
-277
-273
-272
-270
-266
-256
-225
-206
-228
-236
-213
-197
-182
-186
-240
-250
-177
-158
-204
-211
-223
-256
-208
-139
-141
-124
-89
-100
-50
-9
-88
114
832
1528
1585
729
-623
-1169
-465
215
164
52
140
135
101
130
126
132
187
213
208
203
203
234
274
285
301
350
390
419
465
510
546
587
623
649
686
714
699
637
518
351
181
35
-97
-202
-261
-292
-316
-316
-293
-286
-288
-266
-245
-264
-291
-289
-274
-266
-263
-271
-296
-307
-287
-273
-283
-279
-271
-289
-297
-272
-256
-265
-269
-255
-239
-235
-237
-228
-215
-217
-213
-197
-200
-204
-175
-158
-173
-171
-154
-172
-192
-179
-193
-244
-246
-181
-134
-144
-157
-144
-136
-90
-12
-78
-133
276
969
1366
1207
341
-762
-886
-81
290
60
15
118
88
92
135
115
134
184
173
181
234
239
234
289
345
356
367
400
441
486
527
562
601
645
681
694
690
671
610
498
363
221
63
-85
-181
-220
-239
-266
-278
-255
-239
-256
-268
-259
-250
-242
-238
-248
-255
-255
-266
-270
-261
-272
-296
-284
-263
-273
-272
-243
-242
-267
-261
-238
-237
-244
-238
-219
-205
-219
-234
-209
-179
-188
-199
-179
-172
-178
-155
-137
-167
-181
-139
-113
-140
-161
-152
-140
-145
-169
-193
-203
-202
-175
-136
-132
-128
-83
-79
-93
-40
-56
-106
203
843
1338
1335
545
-648
-953
-191
304
135
40
132
121
103
140
145
150
178
187
193
219
244
254
261
280
314
349
370
392
432
471
483
497
537
579
602
604
582
540
469
356
228
107
-17
-120
-165
-179
-206
-222
-218
-227
-233
-212
-205
-223
-219
-209
-235
-260
-254
-257
-272
-270
-258
-255
-262
-275
-274
-252
-237
-243
-252
-244
-227
-221
-230
-240
-232
-208
-186
-190
-206
-200
-174
-173
-203
-203
-156
-133
-153
-156
-138
-134
-130
-117
-119
-135
-136
-120
-107
-107
-116
-130
-140
-144
-156
-165
-149
-129
-124
-101
-65
-75
-81
-16
-23
-98
122
700
1280
1497
876
-436
-1047
-380
272
189
54
132
127
101
143
153
149
168
172
183
209
217
229
257
265
276
328
375
370
368
414
464
470
467
494
518
517
513
498
447
366
258
129
13
-76
-144
-180
-190
-206
-224
-219
-213
-224
-226
-211
-207
-221
-234
-232
-229
-245
-258
-244
-234
-240
-239
-241
-250
-242
-225
-227
-227
-210
-208
-224
-225
-208
-195
-181
-170
-179
-191
-183
-169
-165
-160
-154
-153
-150
-147
-144
-139
-129
-123
-124
-123
-108
-98
-113
-129
-118
-90
-72
-81
-114
-141
-136
-126
-144
-156
-135
-122
-114
-67
-36
-54
-30
-12
-72
93
701
1385
1580
874
-471
-1178
-602
142
180
47
125
145
98
128
150
138
171
212
199
176
193
227
248
266
287
303
323
354
381
398
420
455
483
491
488
499
527
534
473
358
231
102
-17
-106
-167
-206
-225
-242
-262
-269
-261
-244
-229
-239
-250
-231
-224
-250
-257
-241
-243
-251
-249
-253
-254
-248
-254
-257
-247
-246
-245
-224
-213
-224
-230
-227
-218
-198
-195
-213
-206
-176
-175
-193
-184
-169
-173
-171
-157
-149
-142
-139
-148
-151
-148
-169
-198
-200
-201
-211
-193
-149
-114
-90
-102
-111
-41
-25
-118
58
670
1325
1597
1038
-300
-1088
-515
229
200
29
106
115
76
129
148
128
155
177
169
196
239
240
230
255
298
340
375
385
384
416
476
528
546
533
541
601
635
585
498
393
243
84
-29
-112
-189
-243
-266
-272
-261
-239
-239
-253
-247
-233
-227
-217
-221
-252
-262
-234
-230
-264
-282
-270
-266
-261
-240
-242
-269
-268
-241
-233
-243
-240
-222
-217
-238
-239
-197
-178
-202
-199
-169
-176
-199
-184
-160
-164
-163
-139
-125
-131
-135
-134
-136
-131
-116
-109
-125
-154
-178
-201
-212
-174
-116
-102
-95
-73
-90
-93
-33
-37
-36
282
899
1446
1426
454
-780
-914
-116
275
117
69
121
93
112
146
121
142
206
197
158
188
243
247
235
257
291
317
345
374
399
431
468
496
521
546
545
532
545
546
467
330
204
96
-14
-110
-173
-204
-209
-218
-242
-243
-222
-224
-234
-233
-242
-240
-227
-249
-271
-250
-251
-292
-298
-264
-245
-256
-260
-241
-237
-267
-269
-228
-215
-232
-225
-215
-224
-216
-195
-194
-201
-199
-198
-191
-176
-172
-186
-182
-148
-140
-161
-153
-138
-165
-184
-169
-178
-215
-221
-182
-143
-128
-109
-92
-102
-80
-36
-80
-46
370
1060
1571
1316
88
-1036
-830
21
232
50
85
126
55
74
136
140
148
163
159
175
204
218
236
259
265
281
327
364
376
397
437
467
486
514
531
520
510
515
490
402
279
162
49
-59
-136
-181
-220
-242
-229
-212
-220
-228
-212
-216
-243
-219
-182
-229
-274
-234
-228
-274
-242
-192
-231
-262
-235
-236
-245
-221
-235
-270
-239
-187
-191
-213
-208
-197
-203
-219
-217
-179
-145
-150
-159
-149
-159
-176
-148
-111
-119
-134
-116
-109
-143
-180
-197
-205
-186
-153
-145
-130
-87
-87
-101
-65
-85
-100
228
928
1598
1652
616
-830
-1139
-293
234
89
14
104
88
69
122
149
148
150
142
145
182
221
238
250
257
260
294
351
377
370
377
406
448
499
534
527
517
527
509
424
292
146
25
-64
-153
-227
-247
-247
-274
-300
-294
-269
-258
-271
-282
-262
-245
-268
-294
-274
-248
-265
-292
-283
-265
-270
-286
-287
-263
-239
-247
-263
-247
-231
-240
-234
-217
-224
-219
-189
-190
-203
-187
-180
-187
-166
-146
-163
-185
-190
-197
-220
-254
-257
-194
-136
-139
-139
-127
-129
-81
-53
-110
78
728
1470
1701
916
-525
-1133
-423
228
117
-14
97
101
62
119
148
128
139
176
198
202
208
233
265
295
323
340
365
408
445
480
535
577
596
637
684
691
683
665
580
415
222
48
-90
-194
-256
-278
-293
-305
-302
-304
-311
-285
-255
-272
-294
-279
-263
-266
-276
-294
-298
-270
-259
-288
-300
-284
-278
-270
-245
-244
-270
-274
-255
-244
-239
-234
-232
-223
-215
-216
-213
-205
-209
-219
-223
-238
-255
-223
-140
-91
-113
-141
-144
-163
-173
-147
-148
-148
-109
-163
-181
222
955
1526
1442
377
-900
-978
-130
214
-2
-30
55
9
1
71
91
73
81
113
140
158
182
213
246
272
281
300
346
383
410
455
496
528
586
626
604
596
615
554
417
286
140
-36
-158
-219
-271
-292
-281
-294
-314
-286
-245
-239
-248
-253
-263
-264
-238
-226
-257
-285
-273
-247
-233
-239
-263
-271
-248
-231
-236
-243
-240
-226
-218
-231
-236
-218
-204
-200
-191
-189
-192
-179
-159
-141
-120
-125
-157
-158
-115
-90
-106
-122
-115
-112
-137
-163
-156
-130
-113
-101
-74
-39
-34
-64
-50
9
-16
-21
309
978
1606
1577
472
-863
-968
-95
326
154
103
169
140
145
202
212
197
190
201
244
274
271
285
323
340
348
371
392
412
443
469
482
501
529
545
547
554
557
518
439
339
215
89
6
-54
-122
-157
-154
-174
-198
-174
-156
-182
-183
-148
-160
-205
-203
-192
-228
-254
-220
-195
-223
-253
-247
-237
-244
-249
-249
-258
-259
-240
-237
-262
-277
-271
-264
-261
-255
-244
-236
-245
-263
-267
-257
-244
-240
-261
-273
-234
-206
-231
-240
-219
-239
-263
-230
-202
-221
-240
-251
-272
-285
-291
-293
-272
-251
-260
-244
-184
-165
-201
-184
-140
-179
-117
316
1010
1516
1176
-126
-1137
-793
8
136
-29
23
65
23
43
68
77
126
150
131
152
206
230
245
292
335
345
359
404
447
464
483
527
571
585
588
615
655
664
631
570
488
384
277
184
106
