# session 34
-24
-44
7
-3
-191
-403
-458
-432
-445
-460
-434
-405
-385
-347
-309
-312
-302
-243
-258
-313
-99
616
1758
2486
1559
-408
-1112
-281
217
-32
-103
7
-38
-55
4
9
20
64
79
91
129
159
180
212
246
279
317
356
394
435
479
524
576
635
693
746
793
820
796
685
491
264
51
-126
-255
-336
-389
-421
-431
-430
-427
-423
-417
-413
-412
-412
-409
-404
-400
-397
-395
-390
-384
-378
-372
-367
-362
-353
-343
-337
-332
-323
-313
-305
-300
-292
-283
-275
-266
-256
-250
-244
-237
-229
-222
-213
-203
-192
-184
-179
-173
-164
-154
-146
-143
-147
-158
-175
-194
-211
-219
-201
-166
-143
-115
-80
-85
-82
-23
-45
-114
87
752
1868
2750
2028
-4
-943
-169
412
164
50
161
116
90
152
153
148
184
197
206
236
259
280
309
337
363
397
433
468
504
545
588
632
677
723
767
801
818
789
675
476
246
35
-138
-269
-352
-399
-425
-435
-435
-431
-425
-419
-418
-417
-415
-416
-414
-411
-410
-408
-400
-396
-396
-391
-382
-373
-364
-357
-352
-344
-337
-332
-326
-317
-308
-302
-297
-291
-283
-274
-268
-262
-254
-245
-238
-230
-222
-218
-212
-203
-196
-192
-184
-178
-180
-189
-202
-220
-236
-250
-260
-242
-202
-177
-150
-116
-121
-114
-56
-83
-130
130
860
1966
2659
1692
-302
-965
-89
389
116
48
156
102
87
145
141
147
186
199
208
236
260
283
308
330
356
389
420
451
486
523
564
609
651
691
729
764
785
759
649
461
246
48
-115
-235
-313
-361
-389
-400
-400
-399
-397
-392
-390
-390
-388
-386
-384
-383
-382
-384
-383
-376
-366
-359
-353
-347
-342
-336
-325
-315
-309
-301
-293
-289
-281
-270
-264
-260
-253
-245
-238
-232
-230
-226
-215
-206
-200
-195
-191
-189
-183
-176
-172
-171
-172
-179
-195
-216
-238
-255
-254
-223
-189
-167
-135
-117
-124
-87
-53
-119
-87
346
1286
2402
2488
826
-860
-709
208
291
30
92
132
62
93
134
125
147
175
183
204
231
251
279
307
332
364
400
435
474
515
560
611
660
706
756
802
832
834
770
605
372
137
-63
-223
-332
-393
-426
-442
-441
-434
-429
-422
-409
-401
-400
-398
-392
-388
-387
-387
-384
-378
-371
-367
-365
-359
-351
-347
-345
-338
-325
-318
-316
-311
-302
-294
-287
-278
-269
-265
-261
-251
-242
-236
-232
-225
-216
-209
-206
-201
-189
-178
-174
-168
-162
-169
-185
-201
-216
-234
-249
-239
-202
-172
-149
-120
-119
-125
-75
-68
-139
-14
566
1633
2612
2163
214
-1002
-399
334
189
22
130
112
64
118
131
122
157
181
190
214
240
264
293
321
350
386
419
453
498
547
591
640
696
754
805
846
870
856
760
566
325
100
-92
-246
-346
-399
-426
-434
-429
-422
-417
-409
-398
-389
-388
-387
-381
-378
-381
-380
-377
-376
-372
-364
-359
-358
-351
-340
-333
-331
-327
-316
-309
-306
-299
-286
-278
-277
-274
-266
-257
-252
-249
-243
-236
-226
-217
-211
-205
-200
-199
-194
-184
-181
-178
-164
-159
-173
-185
-195
-217
-241
-245
-228
-197
-167
-142
-111
-105
-113
-67
-45
-118
-42
443
1407
2480
2407
634
-900
-562
296
266
29
119
133
66
114
146
131
159
187
192
216
247
266
290
321
351
382
416
452
491
532
574
620
671
718
760
801
835
837
770
613
392
162
-37
-193
-303
-371
-407
-420
-420
-415
-412
-407
-397
-388
-384
-381
-378
-378
-376
-374
-375
-374
-369
-366
-364
-357
-350
-349
-346
-335
-324
-318
-316
-311
-302
-292
-284
-278
-273
-268
-262
-253
-245
-242
-238
-229
-222
-218
-211
-202
-198
-193
-184
-176
-172
-167
-163
-159
-151
-147
-155
-166
-175
-193
-216
-226
-218
-194
-166
-146
-116
-85
-96
-89
-35
-71
-114
161
902
2001
2653
1642
-327
-928
-48
393
114
57
159
100
84
138
135
142
178
189
201
229
249
270
299
326
355
390
425
461
498
540
588
638
683
731
782
821
837
817
720
532
300
85
-97
-241
-337
-389
-415
-430
-434
-431
-420
-407
-399
-395
-388
-380
-374
-374
-373
-367
-360
-359
-361
-354
-345
-343
-336
-322
-320
-323
-312
-298
-294
-286
-268
-262
-270
-270
-254
-244
-242
-233
-222
-218
-212
-201
-195
-195
-190
-182
-176
-171
-165
-158
-151
-147
-143
-140
-139
-139
-133
-124
-127
-148
-168
-180
-196
-218
-224
-199
-166
-152
-135
-99
-92
-94
-43
-41
-116
43
683
1711
2473
1822
-71
-1083
-383
335
199
58
164
141
103
163
171
157
190
218
229
246
262
287
319
341
365
402
442
483
528
567
610
668
727
777
826
874
907
898
816
645
404
151
-58
-221
-349
-427
-455
-465
-470
-467
-457
-441
-426
-419
-418
-413
-407
-399
-393
-394
-396
-393
-390
-390
-383
-373
-374
-374
-361
-345
-337
-334
-329
-318
-306
-301
-295
-286
-279
-273
-262
-252
-249
-247
-238
-227
-219
-218
-214
-205
-198
-190
-182
-178
-179
-173
-170
-176
-179
-181
-189
-202
-224
-243
-225
-182
-155
-127
-100
-113
-102
-43
-84
-85
395
1321
1991
1610
165
-1030
-795
84
315
131
151
206
158
169
210
209
219
244
254
271
300
322
343
370
399
432
471
513
558
612
669
729
797
871
940
999
1045
1051
968
768
491
216
-15
-198
-332
-415
-458
-473
-471
-464
-454
-439
-425
-416
-404
-394
-392
-397
-393
-386
-383
-383
-382
-379
-375
-373
-374
-373
-368
-361
-356
-352
-347
-339
-333
-331
-330
-327
-317
-304
-299
-294
-280
-270
-265
-258
-250
-241
-229
-222
-221
-218
-220
-245
-276
-285
-264
-217
-161
-133
-154
-177
-153
-135
-149
-123
-99
-164
-130
308
1266
2328
2283
666
-763
-528
209
191
-20
50
65
11
53
87
81
107
135
148
177
210
231
256
289
324
360
401
450
501
559
636
719
790
861
946
1022
1064
1048
933
701
407
128
-105
-289
-414
-481
-512
-527
-527
-514
-500
-490
-477
-465
-456
-447
-438
-432
-428
-423
-416
-407
-401
-397
-389
-382
-377
-366
-354
-349
-344
-336
-330
-328
-324
-321
-317
-307
-299
-294
-289
-283
-274
-263
-258
-264
-270
-274
-283
-287
-267
-210
-140
-115
-146
-175
-182
-180
-166
-168
-179
-141
-132
-203
-121
409
1501
2603
2303
394
-931
-438
281
148
-35
70
64
22
80
99
91
129
159
173
203
233
258
292
325
356
395
440
486
538
601
668
733
800
877
950
1006
1043
1022
889
648
369
111
-104
-266
-371
-429
-456
-466
-462
-450
-438
-430
-422
-413
-405
-398
-391
-392
-397
-392
-383
-390
-401
-385
-344
-321
-330
-341
-335
-321
-304
-304
-326
-314
-261
-241
-263
-264
-249
-244
-237
-229
-232
-231
-213
-198
-197
-195
-184
-171
-159
-155
-161
-158
-143
-133
-136
-137
-127
-123
-135
-147
-151
-165
-193
-211
-210
-198
-178
-156
-136
-106
-86
-97
-79
-42
-99
-106
285
1185
2211
2317
882
-677
-659
164
306
74
107
141
72
99
140
124
143
176
174
186
222
238
243
273
324
374
407
431
471
524
562
597
668
760
825
866
906
924
884
752
529
278
58
-131
-286
-376
-412
-439
-460
-461
-462
-465
-448
-427
-425
-422
-412
-414
-420
-419
-421
-422
-410
-395
-391
-389
-381
-376
-374
-369
-364
-359
-350
-339
-332
-328
-322
-312
-309
-314
-303
-280
-276
-281
-265
-243
-239
-244
-246
-242
-225
-201
-186
-197
-219
-212
-171
-146
-154
-165
-170
-185
-212
-228
-221
-217
-221
-197
-139
-88
-71
-83
-61
-12
-59
-120
141
897
1976
2546
1547
-299
-863
-43
391
140
82
184
127
91
139
166
190
208
199
218
267
296
311
329
343
381
453
507
531
570
626
676
729
795
854
901
954
992
960
831
620
360
119
-47
-168
-276
-345
-367
-381
-387
-377
-380
-389
-365
-334
-338
-347
-334
-329
-338
-336
-330
-334
-337
-331
-331
-331
-322
-314
-316
-319
-321
-332
-340
-334
-335
-351
-347
-328
-327
-328
-312
-304
-308
-306
-300
-295
-288
-288
-285
-264
-254
-269
-275
-265
-260
-245
-220
-214
-224
-225
-229
-249
-265
-261
-261
-281
-275
-239
-221
-202
-165
-181
-209
-144
-125
-186
76
880
1807
2020
906
-719
-1101
-216
339
199
149
247
221
215
266
270
295
356
369
360
385
423
457
485
497
501
516
538
555
573
601
633
661
697
749
792
805
797
765
674
503
280
46
-165
-321
-424
-503
-553
-561
-564
-580
-575
-553
-560
-585
-588
-572
-561
-563
-562
-547
-539
-552
-554
-533
-518
-516
-492
-441
-391
-350
-310
-272
-234
-189
-130
-73
-42
-23
3
15
5
2
6
15
51
85
76
63
71
65
38
26
52
85
69
18
-3
5
-1
-21
-54
-101
-114
-67
15
106
166
152
81
-27
-134
-152
-117
-157
-188
-41
555
1931
3160
2381
173
-726
-14
311
-124
-447
-669
-799
-307
535
848
709
817
951
408
-584
-1245
-1352
-1201
-1010
-713
-221
297
646
889
1133
1338
1445
1472
1480
1550
1734
1933
1968
1793
1487
1092
655
278
6
-199
-371
-569
-870
-1214
-1402
-1391
-1336
-1309
-1246
-1149
-1084
-1079
-1111
-1114
-1035
-937
-897
-868
-797
-746
-738
-693
-613
-582
-593
-578
-538
-508
-489
-452
-387
-351
-384
-396
-332
-285
-290
-265
-223
-215
-199
-161
-139
-115
-98
-133
-157
-100
-36
-28
-39
-52
-44
20
61
7
-71
-85
-49
-24
-49
-63
23
115
64
-28
46
186
141
5
99
572
1547
2737
2753
938
-696
-407
461
420
151
264
314
211
224
288
288
271
283
312
306
278
326
436
473
445
446
459
493
584
637
637
703
787
803
873
1006
1044
1016
983
821
535
260
17
-169
-267
-384
-528
-537
-446
-434
-474
-466
-456
-471
-451
-414
-425
-460
-458
-433
-425
-428
-429
-417
-405
-438
-483
-447
-376
-378
-418
-422
-401
-377
-385
-430
-424
-353
-316
-331
-337
-336
-341
-339
-322
-304
-312
-326
-295
-251
-255
-278
-268
-251
-252
-243
-222
-221
-239
-261
-270
-256
-261
-305
-305
-246
-221
-212
-173
-182
-195
-127
-127
-119
313
1166
1835
1597
309
-880
-737
85
312
123
130
191
162
175
205
205
220
237
248
282
311
322
346
385
416
442
473
512
555
599
656
724
786
847
920
984
1024
1041
991
821
560
291
55
-138
-267
-338
-386
-418
-421
-409
-392
-370
-362
-375
-371
-340
-330
-349
-353
-340
-345
-364
-373
-374
-370
-364
-366
-368
-362
-360
-355
-338
-333
-351
-356
-336
-323
-325
-317
-302
-293
-283
-269
-268
-275
-273
-256
-229
-210
-220
-237
-235
-232
-237
-232
-217
-181
-122
-92
-116
-153
-166
-152
-139
-155
-147
-116
-171
-211
79
918
2146
2678
1406
-502
-854
-18
242
-34
-52
21
-19
3
52
56
78
99
105
135
177
208
241
285
338
378
386
412
485
553
598
655
721
795
898
975
994
1022
1016
839
535
251
11
-201
-351
-448
-527
-557
-524
-491
-494
-494
-487
-489
-472
-438
-443
-471
-463
-455
-479
-467
-415
-410
-445
-446
-419
-408
-404
-389
-379
-382
-375
-349
-330
-336
-341
-323
-308
-306
-295
-289
-317
-340
-322
-300
-294
-269
-199
-125
-121
-184
-222
-196
-168
-187
-196
-148
-147
-222
-143
331
1359
2538
2419
550
-914
-497
287
199
-8
76
57
-3
61
89
74
111
142
149
198
253
264
276
317
353
380
418
467
517
569
616
663
735
822
883
917
945
934
818
601
359
129
-93
-264
-342
-376
-418
-443
-437
-428
-426
-419
-408
-405
-414
-414
-394
-391
-409
-393
-375
-416
-447
-409
-371
-361
-330
-304
-323
-343
-332
-309
-291
-283
-291
-301
-287
-250
-228
-237
-248
-224
-191
-194
-213
-202
-181
-179
-175
-163
-160
-160
-155
-158
-170
-180
-188
-178
-124
-51
-21
-44
-84
-120
-132
-111
-106
-116
-77
-82
-161
-42
511
1509
2463
2118
288
-951
-427
296
165
-10
100
85
26
79
95
75
108
144
158
181
214
242
265
290
326
353
365
401
472
534
571
610
662
713
766
825
864
860
799
651
420
179
-12
-171
-308
-395
-442
-472
-478
-471
-476
-482
-474
-470
-470
-470
-478
-480
-463
-453
-465
-468
-452
-441
-441
-443
-443
-434
-418
-400
-383
-378
-379
-365
-348
-353
-360
-345
-328
-336
-352
-344
-305
-246
-190
-181
-214
-241
-251
-246
-226
-227
-227
-183
-197
-248
7
776
1797
2227
1188
-574
-1098
-270
241
60
-7
83
39
8
61
94
103
107
116
161
208
225
245
281
312
340
376
419
465
518
576
634
691
755
824
885
928
934
859
682
439
180
-56
-241
-370
-451
-485
-485
-473
-457
-437
-427
-424
-415
-406
-409
-418
-423
-411
-380
-363
-385
-409
-385
-343
-351
-382
-360
-310
-312
-337
-318
-286
-297
-342
-367
-337
-279
-220
-166
-156
-192
-202
-181
-177
-174
-181
-201
-170
-140
-164
-38
526
1628
2627
2157
297
-774
-232
295
79
-42
73
35
-13
36
45
52
89
81
87
162
212
215
245
291
317
357
411
440
466
533
619
696
769
845
917
961
940
846
670
408
119
-109
-263
-378
-456
-486
-487
-485
-487
-485
-468
-451
-459
-470
-454
-442
-461
-466
-426
-395
-412
-437
-427
-405
-406
-411
-394
-380
-393
-398
-382
-379
-395
-378
-318
-275
-280
-300
-325
-359
-358
-336
-351
-341
-306
-368
-355
84
914
1656
1537
241
-1025
-928
-168
-3
-180
-146
-106
-154
-127
-91
-97
-66
-25
-31
-45
-30
4
54
116
165
201
276
398
489
516
533
575
625
649
625
582
550
493
361
184
19
-123
-244
-329
-371
-369
-323
-271
-244
-212
-159
-114
-84
-63
-56
-45
-4
62
