# session 40
-106
-132
-72
-41
-204
-433
-486
-425
-414
-419
-395
-382
-375
-356
-345
-341
-330
-320
-316
-312
-307
-308
-317
-330
-343
-362
-379
-367
-333
-309
-277
-230
-221
-210
-147
-163
-219
20
729
1745
2343
1511
-191
-770
-31
369
110
35
126
78
64
117
115
119
156
171
182
209
231
253
283
312
341
375
407
441
483
527
569
614
659
702
740
768
774
727
596
395
174
-19
-170
-278
-346
-382
-399
-402
-399
-393
-388
-382
-375
-370
-368
-367
-368
-368
-362
-357
-357
-355
-350
-346
-341
-334
-325
-320
-315
-307
-298
-292
-288
-282
-273
-265
-257
-250
-245
-237
-228
-220
-212
-201
-191
-184
-178
-171
-166
-159
-150
-145
-144
-137
-129
-132
-132
-125
-134
-161
-179
-181
-174
-140
-81
-45
-66
-100
-94
-85
-100
-71
-49
-114
-68
348
1205
2189
2212
710
-701
-475
304
302
62
128
153
89
121
148
135
162
188
193
214
241
258
283
314
339
367
398
426
452
485
521
553
582
613
643
667
680
669
602
464
278
88
-74
-198
-286
-341
-370
-383
-391
-393
-392
-389
-387
-386
-387
-388
-385
-382
-379
-376
-372
-366
-359
-354
-350
-341
-332
-325
-318
-307
-298
-293
-287
-280
-273
-267
-260
-254
-249
-242
-233
-227
-226
-221
-214
-210
-207
-201
-199
-198
-193
-187
-184
-190
-197
-198
-189
-165
-114
-59
-51
-86
-123
-138
-129
-133
-138
-98
-96
-159
-48
433
1336
2287
2072
362
-883
-402
333
217
19
116
108
45
91
114
103
134
163
171
195
225
242
264
292
320
346
374
400
425
451
473
494
523
552
570
585
596
568
480
346
180
12
-128
-233
-302
-336
-355
-370
-368
-366
-375
-369
-349
-340
-340
-339
-341
-346
-341
-323
-309
-309
-310
-311
-320
-317
-289
-279
-311
-329
-299
-271
-273
-269
-253
-252
-256
-248
-243
-240
-233
-230
-234
-239
-246
-252
-248
-222
-161
-87
-65
-104
-148
-164
-152
-142
-152
-127
-99
-155
-134
195
950
2048
2474
1144
-654
-783
120
298
14
39
94
25
44
76
61
91
127
129
156
197
213
229
259
285
310
342
370
389
414
450
485
508
524
546
567
575
563
499
356
170
5
-132
-245
-310
-338
-363
-379
-381
-393
-405
-392
-370
-372
-386
-387
-384
-380
-365
-348
-345
-352
-357
-352
-330
-305
-301
-308
-302
-286
-273
-269
-266
-259
-254
-249
-238
-236
-237
-236
-260
-291
-279
-244
-219
-164
-93
-91
-147
-179
-185
-198
-200
-170
-129
-133
-170
-89
277
1123
2254
2371
703
-909
-659
224
212
-51
73
143
66
92
123
95
126
180
156
126
196
295
314
300
325
358
377
381
370
408
529
621
606
575
599
638
652
621
509
323
130
-29
-162
-277
-359
-402
-415
-418
-422
-422
-415
-424
-435
-400
-356
-369
-406
-406
-391
-390
-390
-382
-362
-355
-399
-440
-391
-307
-296
-327
-313
-280
-278
-291
-311
-344
-349
-319
-278
-199
-104
-94
-163
-211
-211
-200
-196
-176
-147
-182
-209
39
729
1733
2288
1364
-444
-1085
-285
266
86
-2
98
75
52
94
97
106
144
149
146
178
219
255
281
291
315
366
389
378
415
503
556
567
597
637
647
658
665
570
374
181
-2
-189
-302
-336
-381
-435
-442
-420
-409
-405
-400
-393
-387
-386
-385
-380
-372
-367
-363
-355
-352
-357
-357
-345
-335
-329
-321
-317
-320
-322
-324
-329
-322
-275
-207
-178
-204
-239
-259
-257
-239
-242
-238
-201
-223
-259
-21
682
1733
2328
1393
-415
-1008
-217
244
26
-42
44
-2
-12
45
48
54
94
116
133
163
192
221
250
271
295
331
371
404
438
479
521
560
598
636
672
689
646
514
319
114
-69
-218
-319
-369
-395
-418
-428
-422
-412
-403
-395
-392
-390
-384
-382
-386
-381
-375
-378
-374
-361
-356
-357
-350
-341
-339
-339
-336
-334
-342
-348
-335
-300
-243
-190
-189
-231
-255
-250
-232
-223
-230
-204
-173
-223
-218
109
944
2147
2593
1248
-536
-698
116
257
-16
10
63
-4
15
60
54
72
107
128
154
184
207
238
273
303
335
375
411
434
457
500
561
622
668
696
712
707
645
497
285
82
-70
-187
-285
-344
-360
-364
-371
-369
-359
-356
-360
-359
-353
-348
-348
-349
-346
-342
-340
-340
-335
-326
-320
-316
-308
-296
-286
-279
-274
-273
-271
-261
-249
-242
-230
-215
-217
-229
-221
-203
-196
-193
-185
-177
-172
-167
-164
-163
-159
-152
-146
-146
-144
-140
-139
-149
-173
-201
-215
-209
-188
-163
-150
-128
-94
-95
-97
-47
-59
-124
35
608
1594
2454
1972
218
-743
-146
400
190
51
141
104
71
122
119
112
150
171
178
203
225
243
271
299
323
353
379
397
420
451
484
515
548
584
617
638
647
628
554
411
233
63
-78
-187
-264
-317
-346
-357
-360
-364
-366
-366
-373
-384
-386
-384
-388
-392
-391
-386
-371
-351
-347
-355
-355
-336
-310
-297
-301
-310
-309
-293
-276
-272
-269
-260
-256
-252
-234
-225
-235
-229
-206
-203
-210
-191
-167
-165
-166
-156
-147
-143
-137
-132
-127
-127
-136
-138
-128
-130
-151
-163
-163
-165
-154
-127
-101
-82
-97
-93
-27
-35
-111
41
528
1368
2332
2232
602
-651
-246
381
213
35
136
113
59
110
124
123
160
172
175
205
222
227
253
285
302
311
320
331
347
361
366
373
383
381
368
359
346
311
254
176
78
-25
-113
-178
-221
-245
-262
-272
-275
-277
-282
-284
-285
-290
-295
-292
-291
-293
-293
-288
-284
-278
-268
-265
-267
-260
-245
-243
-247
-238
-227
-228
-227
-223
-221
-214
-203
-200
-195
-186
-187
-194
-185
-161
-145
-140
-142
-147
-143
-132
-128
-127
-126
-141
-168
-187
-190
-193
-213
-235
-230
-206
-186
-170
-155
-146
-142
-153
-112
224
1077
2060
2005
456
-1026
-892
17
276
111
137
196
173
205
239
229
247
279
290
310
335
327
307
321
347
347
346
363
363
344
337
338
330
321
302
266
248
251
221
152
80
16
-41
-86
-125
-153
-159
-154
-152
-152
-152
-152
-145
-140
-149
-167
-177
-183
-194
-206
-210
-211
-223
-240
-245
-244
-247
-251
-255
-260
-258
-251
-250
-248
-240
-235
-237
-235
-226
-216
-208
-200
-191
-182
-175
-178
-187
-186
-178
-180
-180
-161
-135
-100
-70
-90
-156
-195
-180
-171
-200
-196
-155
-186
-186
160
940
1801
1890
612
-925
-1022
-117
226
13
1
84
46
50
91
83
93
130
148
164
197
229
247
265
304
350
381
412
441
446
462
511
542
547
569
595
597
577
512
370
190
23
-121
-242
-324
-371
-392
-394
-395
-398
-389
-374
-368
-363
-354
-352
-355
-353
-351
-354
-354
-353
-356
-356
-347
-336
-329
-326
-322
-318
-321
-325
-318
-296
-249
-194
-181
-218
-256
-271
-263
-242
-251
-250
-199
-222
-264
26
762
1657
2013
1049
-557
-969
-158
262
34
-26
60
15
4
50
47
56
97
118
134
167
203
233
257
284
323
368
405
450
509
566
616
672
728
774
812
817
736
548
297
52
-144
-288
-387
-445
-467
-468
-462
-456
-446
-430
-419
-415
-408
-396
-386
-383
-384
-385
-377
-367
-366
-367
-363
-363
-362
-355
-359
-373
-377
-365
-323
-247
-202
-227
-266
-279
-274
-255
-255
-260
-218
-222
-291
-176
346
1389
2502
2283
472
-779
-316
278
74
-96
9
-16
-59
-1
12
8
50
75
88
124
159
184
215
249
285
326
365
406
460
517
564
610
665
717
755
772
729
586
366
130
-81
-242
-349
-419
-457
-468
-472
-475
-464
-450
-440
-432
-433
-437
-431
-420
-419
-419
-411
-405
-403
-395
-377
-360
-349
-342
-336
-331
-322
-312
-302
-293
-288
-288
-285
-289
-306
-315
-291
-228
-161
-140
-159
-178
-194
-197
-175
-177
-180
-133
-149
-215
-41
561
1621
2579
2102
270
-714
-115
365
107
-5
100
52
23
80
83
88
130
149
171
207
227
253
297
327
346
374
408
439
473
513
549
585
628
661
676
684
669
580
416
224
43
-106
-216
-287
-325
-340
-350
-357
-352
-342
-339
-340
-342
-343
-346
-347
-345
-340
-340
-343
-338
-325
-318
-323
-323
-312
-298
-293
-293
-286
-274
-267
-267
-262
-249
-241
-239
-235
-232
-229
-215
-196
-193
-200
-192
-175
-168
-163
-156
-156
-156
-145
-139
-140
-136
-133
-139
-150
-165
-181
-188
-193
-196
-172
-137
-108
-86
-92
-86
-25
-41
-117
60
591
1407
2201
1910
308
-719
-173
430
230
64
169
143
92
142
155
150
180
192
197
223
243
257
284
312
332
350
368
386
404
420
435
453
467
469
477
491
488
456
392
287
152
30
-65
-144
-205
-247
-282
-304
-310
-320
-333
-323
-308
-314
-321
-322
-336
-344
-327
-317
-322
-321
-316
-316
-315
-307
-296
-288
-283
-275
-265
-262
-261
-253
-245
-244
-239
-233
-232
-231
-219
-211
-213
-207
-188
-180
-186
-185
-176
-169
-164
-154
-149
-148
-141
-134
-142
-152
-154
-162
-176
-178
-179
-190
-183
-157
-135
-105
-84
-102
-82
-28
-76
-77
282
1032
1903
2092
872
-638
-669
199
394
127
138
197
133
149
190
173
181
212
226
242
259
273
298
318
330
349
370
391
424
447
444
446
475
498
496
491
495
483
425
317
181
43
-76
-162
-230
-287
-309
-305
-314
-330
-324
-310
-307
-311
-313
-317
-325
-323
-311
-310
-317
-309
-293
-287
-283
-281
-282
-273
-265
-273
-270
-241
-222
-229
-233
-227
-225
-219
-212
-216
-218
-200
-180
-179
-186
-183
-172
-164
-164
-159
-149
-146
-152
-148
-135
-128
-131
-133
-133
-136
-138
-139
-144
-156
-165
-163
-156
-151
-124
-81
-76
-85
-49
-39
-76
57
557
1454
2280
1882
181
-880
-316
377
260
89
174
164
125
178
192
176
199
215
215
228
244
257
277
299
314
324
332
341
352
355
358
373
386
387
395
404
383
337
294
231
103
-52
-141
-162
-198
-257
-294
-304
-307
-320
-337
-324
-289
-281
-293
-291
-289
-301
-300
-283
-277
-282
-282
-274
-268
-263
-259
-257
-250
-234
-225
-237
-244
-227
-211
-209
-211
-213
-206
-189
-183
-194
-186
-166
-164
-166
-155
-158
-169
-159
-142
-144
-150
-149
-145
-139
-135
-148
-170
-183
-200
-220
-209
-173
-146
-120
-105
-104
-72
-55
-97
23
592
1571
2287
1667
-119
-1134
-504
280
240
68
141
157
131
166
169
154
177
197
205
225
250
268
286
308
335
359
382
410
442
478
511
528
541
576
612
623
617
583
483
323
144
-26
-166
-265
-331
-366
-381
-392
-393
-382
-374
-370
-357
-349
-352
-351
-343
-343
-346
-346
-351
-354
-346
-335
-333
-336
-334
-330
-325
-314
-300
-296
-299
-293
-281
-277
-276
-267
-255
-251
-254
-255
-254
-257
-266
-271
-238
-167
-119
-132
-170
-193
-185
-171
-181
-160
-116
-162
-173
165
962
1931
2141
849
-740
-813
67
299
42
42
105
55
75
117
98
108
149
169
181
203
232
264
286
312
355
392
415
447
494
542
585
626
666
700
723
731
691
562
358
139
-53
-208
-316
-379
-415
-436
-442
-433
-422
-417
-409
-400
-400
-402
-387
-371
-375
-380
-375
-372
-373
-368
-360
-358
-356
-345
-336
-340
-340
-327
-319
-318
-313
-312
-322
-330
-322
-281
-205
-157
-177
-215
-227
-221
-207
-211
-214
-168
-165
-236
-146
323
1274
2359
2267
553
-794
-400
299
170
-31
63
53
0
55
73
58
92
128
145
174
202
221
248
282
317
358
395
426
465
512
561
607
651
692
727
743
718
624
446
221
15
-151
-282
-369
-410
-426
-429
-424
-419
-410
-397
-391
-387
-377
-373
-378
-378
-369
-363
-362
-358
-350
-346
-343
-335
-328
-323
-314
-301
-292
-287
-283
-278
-271
-262
-253
-244
-237
-236
-235
-221
-206
-208
-218
-227
-239
-243
-225
-176
-110
-75
-97
-135
-152
-145
-127
-136
-145
-100
-100
-169
-53
460
1430
2401
2100
348
-792
-261
367
180
9
114
92
43
95
112
111
145
160
170
208
235
252
284
315
334
365
410
442
466
500
536
570
607
644
668
685
685
630
498
318
132
-33
-168
-264
-323
-357
-373
-371
-361
-365
-378
-377
-363
-358
-363
-363
-362
-368
-370
-358
-349
-351
-353
-347
-335
-321
-310
-308
-303
-292
-285
-282
-274
-264
-258
-250
-239
-231
-230
-231
-223
-209
-200
-197
-189
-181
-177
-172
-167
-165
-160
-151
-146
-143
-143
-142
-134
-129
-137
-137
-127
-141
-173
-197
-218
-216
-171
-131
-119
-98
-86
-92
-54
-38
-100
-15
446
1334
2293
2185
605
-668
-306
400
310
99
178
175
118
165
186
172
200
223
227
252
278
290
309
333
356
382
408
430
452
480
509
535
560
586
608
626
634
610
530
393
226
62
-79
-189
-261
-302
-327
-338
-343
-346
-344
-337
-337
-342
-343
-343
-343
-344
-350
-356
-352
-342
-336
-334
-329
-320
-313
-313
-314
-308
-303
-304
-294
-270
-256
-258
-256
-249
-246
-242
-234
-230
-230
-225
-220
-216
-211
-208
-209
-207
-201
-196
-192
-187
-182
-181
-181
-177
-175
-182
-191
-198
-210
-230
-250
-252
-228
-202
-187
-156
-136
-145
-116
-85
-142
-115
260
1075
2041
2108
656
-779
-580
247
285
28
88
128
60
89
126
111
131
163
169
187
219
236
251
280
312
336
357
385
415
440
467
497
523
546
570
585
589
575
514
387
224
62
-77
-179
-245
-288
-310
-314
-310
-308
-304
-295
-288
-290
-292
-286
-278
-275
-270
-263
-254
-245
-239
-235
-225
-214
-207
-199
-186
-172
-159
-147
-142
-134
-117
-104
-99
-92
-81
-70
-63
-57
-47
-36
-34
-32
-17
