# session 18
2
40
-97
165
893
1289
1148
1002
982
895
794
744
677
606
569
542
518
508
495
475
454
429
403
383
361
335
310
286
262
242
223
203
184
163
132
97
76
76
95
118
118
90
57
43
30
5
-2
2
-21
-23
-20
-90
71
707
1045
345
-575
-678
-334
-207
-194
-135
-128
-141
-121
-117
-122
-107
-88
-71
-40
-2
39
92
143
171
173
156
123
79
30
-21
-71
-120
-164
-194
-205
-205
-200
-193
-187
-185
-183
-183
-187
-191
-190
-188
-191
-194
-194
-196
-197
-191
-178
-169
-169
-168
-167
-174
-188
-190
-172
-135
-91
-70
-89
-110
-102
-103
-111
-87
-79
-94
-61
-79
-86
370
1028
780
-305
-871
-581
-262
-179
-95
-38
-46
-24
4
3
18
46
66
100
152
204
261
323
375
404
406
384
344
291
233
176
114
52
6
-17
-25
-24
-18
-13
-12
-15
-20
-27
-35
-46
-58
-68
-74
-79
-91
-110
-123
-119
-102
-73
-44
-37
-56
-68
-60
-62
-66
-47
-43
-52
-17
-49
-105
298
1020
948
-74
-734
-512
-190
-131
-76
-16
-25
-20
3
5
18
41
56
81
120
161
211
268
306
316
305
276
231
178
126
78
27
-22
-58
-77
-82
-80
-76
-74
-73
-74
-78
-82
-85
-90
-97
-103
-108
-111
-116
-130
-149
-163
-161
-138
-96
-61
-60
-86
-101
-96
-98
-99
-81
-82
-93
-62
-90
-113
308
979
860
-118
-720
-506
-215
-166
-119
-67
-74
-65
-41
-39
-27
-2
16
40
78
125
181
235
279
302
296
270
238
200
152
98
46
-3
-39
-59
-65
-60
-51
-50
-55
-50
-46
-55
-67
-70
-73
-82
-89
-97
-112
-128
-128
-112
-81
-46
-38
-66
-85
-72
-73
-90
-77
-71
-88
-48
-55
-127
231
986
981
-80
-846
-649
-283
-197
-127
-47
-55
-51
-15
-6
1
27
52
81
123
170
227
296
354
382
376
342
291
239
190
139
80
21
-29
-63
-71
-63
-60
-63
-63
-63
-71
-80
-85
-90
-98
-111
-124
-133
-144
-149
-134
-108
-89
-85
-93
-108
-114
-117
-122
-111
-103
-120
-93
-77
-157
64
781
1034
160
-768
-755
-360
-221
-163
-75
-67
-69
-34
-21
-14
15
36
55
96
149
202
262
317
349
352
331
290
235
177
123
70
19
-27
-58
-68
-64
-58
-53
-48
-45
-47
-52
-55
-60
-67
-75
-84
-100
-120
-132
-128
-110
-80
-58
-66
-90
-99
-95
-104
-108
-88
-88
-93
-58
-99
-116
363
1058
858
-194
-762
-496
-205
-162
-109
-58
-68
-56
-30
-25
-8
17
34
61
101
142
195
255
296
310
303
279
240
191
141
92
45
2
-32
-55
-64
-63
-56
-48
-45
-46
-48
-53
-59
-64
-69
-76
-84
-96
-116
-135
-140
-123
-86
-49
-39
-58
-80
-83
-80
-90
-91
-76
-82
-79
-58
-115
-31
555
1075
594
-394
-688
-364
-175
-162
-106
-77
-87
-63
-44
-46
-30
-5
14
41
79
124
176
227
262
273
263
241
206
157
106
62
23
-16
-48
-65
-66
-57
-45
-37
-36
-37
-36
-37
-40
-44
-48
-56
-63
-66
-73
-85
-97
-108
-116
-104
-66
-30
-27
-49
-65
-64
-68
-81
-72
-63
-81
-56
-47
-122
122
844
1068
188
-707
-678
-304
-185
-140
-69
-73
-81
-46
-28
-23
-3
21
48
85
126
179
246
302
329
332
315
278
232
185
134
78
20
-31
-63
-74
-75
-69
-56
-49
-55
-65
-68
-69
-77
-88
-92
-93
-98
-106
-109
-115
-133
-146
-135
-108
-80
-58
-60
-79
-83
-80
-97
-101
-74
-77
-81
-46
-104
-78
485
1090
656
-430
-822
-473
-221
-169
-80
-32
-48
-32
-10
-9
7
32
52
83
125
169
226
289
335
350
341
315
272
212
153
105
61
13
-29
-51
-53
-47
-44
-41
-36
-34
-40
-48
-54
-58
-66
-75
-80
-82
-85
-88
-91
-94
-92
-89
-88
-88
-86
-88
-101
-117
-118
-96
-60
-31
-27
-46
-58
-54
-63
-76
-62
-58
-68
-42
-73
-92
326
974
832
-136
-712
-494
-212
-161
-107
-52
-61
-55
-33
-29
-16
8
27
50
82
120
168
222
266
294
298
279
248
207
160
114
71
28
-13
-43
-59
-60
-54
-47
-44
-43
-40
-40
-44
-48
-52
-58
-66
-72
-75
-77
-79
-82
-86
-86
-88
-102
-123
-133
-123
-91
-52
-28
-35
-57
-66
-63
-70
-76
-60
-59
-70
-46
-71
-92
307
970
888
-56
-666
-474
-195
-156
-112
-56
-63
-56
-31
-28
-17
12
33
51
82
127
182
238
289
324
331
313
280
241
198
150
98
52
10
-30
-51
-50
-43
-37
-27
-19
-22
-32
-40
-42
-43
-50
-58
-65
-74
-84
-88
-85
-82
-85
-90
-88
-88
-94
-97
-91
-85
-88
-94
-95
-99
-112
-127
-126
-110
-79
-50
-54
-83
-88
-77
-92
-96
-75
-88
-89
-56
-117
-28
588
1074
477
-565
-805
-428
-218
-171
-83
-48
-60
-37
-16
-11
9
32
53
89
131
174
231
297
349
375
376
350
306
255
203
157
114
64
16
-15
-30
-35
-31
-22
-17
-22
-30
-32
-29
-34
-46
-56
-60
-66
-72
-79
-85
-89
-89
-90
-101
-119
-130
-126
-105
-69
-39
-40
-62
-73
-69
-73
-83
-70
-62
-78
-54
-57
-116
174
867
977
68
-734
-646
-294
-191
-135
-56
-53
-59
-34
-21
-8
14
28
50
90
132
177
237
302
349
365
352
318
268
210
152
99
53
9
-32
-60
-68
-64
-59
-57
-53
-47
-45
-48
-54
-61
-70
-78
-84
-86
-88
-92
-93
-91
-94
-100
-99
-96
-98
-100
-95
-88
-87
-91
-89
-79
-79
-97
-112
-109
-91
-63
-30
-15
-29
-48
-52
-57
-68
-58
-51
-62
-42
-55
-85
260
938
966
42
-685
-558
-238
-166
-118
-50
-53
-53
-27
-24
-19
3
20
40
74
112
157
214
271
312
332
330
303
258
206
154
105
62
24
-15
-49
-66
-69
-68
-66
-59
-54
-55
-54
-53
-58
-65
-69
-76
-85
-89
-88
-89
-91
-91
-97
-113
-132
-141
-133
-105
-68
-46
-50
-68
-77
-75
-82
-87
-73
-73
-80
-51
-81
-92
345
1010
866
-122
-695
-453
-165
-131
-90
-36
-40
-28
-3
-6
0
23
41
62
95
133
177
229
279
312
322
309
280
238
184
129
79
34
-7
-39
-58
-68
-68
-60
-50
-46
-44
-41
-43
-49
-53
-55
-61
-68
-70
-70
-73
-78
-79
-78
-80
-82
-80
-78
-78
-74
-70
-75
-92
-108
-108
-87
-52
-15
3
-13
-33
-35
-41
-51
-40
-38
-50
-30
-53
-70
320
952
834
-123
-707
-481
-191
-154
-113
-61
-72
-68
-43
-40
-33
-15
-3
18
52
84
121
170
221
258
274
269
246
212
171
126
82
39
-5
-43
-66
-75
-76
-72
-65
-60
-59
-59
-59
-60
-63
-67
-72
-77
-81
-84
-86
-86
-89
-100
-116
-128
-131
-112
-70
-30
-22
-42
-59
-58
-65
-77
-61
-51
-67
-37
-37
-103
196
911
1018
86
-721
-624
-272
-174
-129
-65
-67
-66
-37
-29
-24
-3
17
43
79
115
159
219
280
326
352
352
329
289
238
184
132
80
24
-23
-51
-63
-65
-59
-53
-52
-56
-58
-61
-70
-79
-83
-84
-88
-91
-94
-103
-117
-130
-138
-133
-113
-85
-61
-60
-80
-91
-90
-106
-114
-90
-96
-107
-57
-94
-112
403
1090
769
-376
-911
-594
-290
-216
-121
-59
-68
-47
-18
-16
-2
25
46
72
106
149
206
273
333
374
387
374
340
288
227
164
105
49
-4
-47
-69
-73
-69
-64
-58
-54
-54
-58
-64
-69
-73
-78
-83
-89
-102
-120
-132
-136
-126
-95
-56
-41
-58
-79
-80
-77
-87
-83
-69
-82
-69
-48
-123
8
674
1132
496
-508
-700
-342
-176
-157
-92
-71
-82
-59
-46
-47
-28
-7
10
36
70
108
155
207
250
276
278
259
225
182
131
82
38
-5
-46
-72
-80
-79
-75
-70
-65
-62
-61
-64
-67
-71
-77
-81
-83
-89
-106
-124
-133
-124
-92
-54
-41
-58
-80
-83
-80
-89
-90
-72
-79
-80
-50
-107
-72
484
1087
702
-332
-732
-423
-195
-171
-111
-69
-79
-66
-49
-47
-34
-12
8
34
66
105
157
213
258
285
292
283
261
226
179
122
66
19
-22
-54
-68
-65
-56
-48
-45
-44
-41
-38
-39
-43
-48
-56
-64
-76
-91
-102
-100
-83
-53
-30
-35
-57
-68
-66
-78
-90
-69
-64
-83
-44
-55
-124
243
986
960
-90
-827
-633
-289
-206
-133
-60
-69
-65
-37
-37
-30
-2
20
43
75
114
169
237
294
329
344
335
304
257
199
139
87
40
-7
-51
-80
-85
-72
-60
-55
-53
-53
-57
-60
-65
-73
-81
-86
-94
-107
-124
-134
-125
-97
-65
-51
-67
-91
-95
-90
-100
-101
-81
-86
-87
-49
-103
-98
428
1056
709
-348
-793
-481
-223
-180
-109
-62
-74
-58
-35
-36
-26
-6
12
41
80
118
166
220
265
291
297
283
250
207
159
110
64
21
-21
-57
-75
-76
-71
-65
-57
-53
-54
-54
-55
-61
-69
-74
-78
-91
-113
-132
-137
-124
-92
-56
-46
-63
-82
-86
-86
-95
-92
-71
-74
-72
-45
-101
-68
473
1080
724
-304
-724
-419
-181
-159
-107
-65
-71
-51
-27
-25
-13
6
21
47
79
113
156
207
250
276
282
269
237
194
149
105
62
20
-18
-50
-68
-70
-63
-55
-48
-42
-39
-39
-41
-43
-48
-54
-62
-67
-68
-76
-95
-115
-124
-120
-95
-54
-26
-33
-60
-74
-69
-70
-75
-58
-51
-67
-45
-51
-106
193
892
1016
138
-644
-562
-229
-153
-124
-61
-58
-60
-37
-34
-28
-9
4
22
55
90
128
176
224
260
275
270
250
220
181
135
89
46
3
-34
-58
-67
-68
-63
-54
-46
-40
-41
-46
-50
-55
-62
-67
-68
-70
-75
-85
-93
-97
-105
-121
-133
-125
-98
-64
-44
-52
-75
-87
-86
-92
-91
-74
-83
-93
-51
-83
-112
338
1014
817
-230
-804
-546
-252
-194
-123
-67
-84
-75
-43
-36
-29
-13
5
36
73
113
163
213
257
299
323
314
290
260
210
154
108
67
20
-26
-54
-58
-50
-44
-41
-40
-41
-38
-40
-55
-66
-63
-63
-74
-84
-88
-98
-114
-119
-104
-77
-51
-43
-56
-73
-80
-81
-86
-79
-64
-80
-82
-34
-86
-81
459
1092
711
-385
-832
-504
-236
-179
-97
-48
-57
-36
-14
-17
-5
16
32
57
96
139
188
242
294
330
340
325
291
245
191
138
93
50
1
-41
-62
-65
-61
-56
-49
-44
-42
-44
-47
-52
-57
-62
-68
-75
-81
-86
-91
-95
-104
-119
-132
-136
-123
-89
-56
-50
-68
-82
-81
-84
-94
-85
-71
-83
-70
-57
-123
56
718
1047
315
-608
-681
-311
-173
-147
-76
-62
-72
-47
-34
-32
-13
8
23
45
74
112
159
210
254
281
282
266
238
199
151
102
59
20
-18
-52
-70
-73
-71
-67
-60
-57
-57
-56
-57
-62
-66
-66
-70
-78
-82
-92
-113
-129
-128
-113
-82
-46
-36
-60
-79
-76
-73
-85
-80
-59
-71
-75
-44
-95
-32
546
1110
660
-377
-736
-412
-190
-161
-98
-61
-67
-43
-22
-26
-15
13
40
62
86
125
180
232
277
316
328
307
276
241
196
145
96
45
-6
-40
-54
-58
-59
-55
-46
-39
-40
-45
-52
-57
-56
-58
-70
-84
-89
-90
-97
-113
-128
-127
-104
-72
-55
-61
-81
-91
-91
-98
-99
-81
-91
-109
-67
-87
-120
319
1016
843
-233
-850
-592
-279
-207
-126
-66
-82
-66
-32
-32
-26
-5
7
28
69
111
155
211
269
312
329
321
297
255
200
144
94
46
-1
-38
-62
-72
-73
-68
-61
-54
-49
-47
-51
-58
-64
-69
-73
-76
-82
-98
-114
-122
-115
-87
-52
-40
-58
-80
-84
-79
-85
-87
-70
-71
-75
-40
-80
-117
319
1014
874
-145
-746
-515
-226
-176
-116
-57
-66
-57
-32
-32
-24
0
17
38
69
103
146
198
248
285
300
290
263
223
176
128
83
40
-5
-45
-70
-77
-73
-67
-59
-53
-52
-54
-55
-55
-59
-67
-71
-73
-87
-112
-129
-131
-115
-78
-43
-40
-56
-68
-83
-104
-111
-90
-74
-91
-78
-37
-86
17
622
1105
561
-427
-676
-342
-162
-138
-77
-65
-87
-70
-63
-67
-35
-6
-9
-4
33
83
134
182
225
258
274
269
247
215
168
111
60
15
-29
-56
-63
-65
-62
-43
-32
-43
-54
-46
-39
-42
-42
-36
-37
-56
-87
-107
-106
-89
-50
-2
9
-25
-49
-39
-36
-61
-62
-26
-23
-26
-21
-100
7
653
1157
571
-466
-712
-345
-164
-174
-122
-70
-71
-76
-81
-79
-60
-38
-26
-12
26
76
107
135
190
232
221
189
168
147
126
95
29
-47
-78
-73
-86
-117
-121
-99
-84
-76
-70
-85
-101
-82
-62
-86
-109
-102
-116
-153
-146
-103
-78
-66
-60
-80
-98
-79
-68
-94
-98
-74
-88
-86
-72
-148
33
759
1140
359
-640
-738
-359
-195
-142
-68
-65
-71
-30
-12
-20
-5
13
29
69
118
147
173
232
312
355
339
308
287
258
220
177
112
39
-4
-18
-32
-40
-31
-29
-45
-40
-11
-13
-55
-73
-56
-55
-83
-93
-80
-79
-74
-44
-27
-43
-55
-64
-78
-74
-56
-63
-87
-56
-5
-104
-135
428
1136
810
-322
-841
-522
-225
-171
-101
-49
-61
-51
-22
-10
-7
-3
18
51
81
120
176
231
276
304
308
300
281
245
192
140
89
20
-42
-59
-60
-83
-93
-72
-64
-78
-78
-64
-71
-93
-94
-81
-101
-149
-159
-134
-127
-110
-64
-57
-100
-114
-97
-102
-113
-102
-86
