# session 29
20
97
-149
94
1151
1946
1902
1704
1733
1710
1617
1589
1548
1471
1416
1362
1291
1223
1152
1073
997
928
866
813
765
721
680
642
607
576
546
512
475
438
401
366
334
300
266
235
205
169
130
96
72
65
76
79
54
14
-19
-41
-62
-94
-112
-115
-143
-154
-136
-199
-116
478
994
479
-546
-853
-524
-330
-323
-282
-265
-286
-277
-270
-277
-273
-268
-268
-261
-252
-245
-236
-224
-212
-196
-180
-165
-150
-140
-139
-141
-145
-153
-163
-174
-193
-218
-241
-261
-277
-288
-289
-286
-281
-272
-256
-240
-227
-214
-203
-200
-201
-196
-186
-176
-171
-166
-161
-161
-171
-182
-184
-172
-140
-105
-93
-105
-114
-109
-99
-98
-96
-78
-77
-85
-53
-69
-80
340
1032
961
-8
-648
-458
-160
-107
-63
-12
-22
-16
15
21
24
37
46
59
76
90
105
120
137
156
176
193
210
224
232
233
228
221
214
205
189
165
137
106
82
70
62
54
52
54
56
57
62
67
68
68
69
66
60
56
54
48
41
38
34
23
7
-6
-9
5
37
60
52
28
12
8
6
-4
-1
11
-4
2
19
-37
109
754
1188
574
-396
-591
-254
-96
-89
-44
-35
-46
-24
-18
-30
-25
-22
-25
-18
-10
-8
2
20
32
41
55
69
78
84
85
76
61
51
43
28
7
-18
-53
-89
-109
-117
-127
-139
-144
-143
-141
-136
-130
-128
-128
-125
-120
-117
-118
-117
-114
-122
-147
-167
-174
-191
-230
-247
-208
-152
-133
-143
-150
-148
-153
-176
-184
-155
-144
-138
-102
-147
-84
516
1126
683
-396
-783
-444
-186
-126
-54
-25
-42
-24
-2
3
18
31
34
44
59
76
96
105
116
143
170
187
206
217
210
208
217
218
209
199
176
131
83
55
47
34
23
25
18
0
11
39
30
5
23
64
65
31
14
42
71
54
21
26
50
53
56
80
91
58
23
34
48
22
15
33
25
48
54
-19
263
1038
1207
178
-760
-625
-174
-72
-41
36
20
5
34
19
9
50
53
22
44
70
42
43
82
80
91
145
149
141
175
158
116
134
105
0
-44
-48
-114
-188
-201
-184
-200
-245
-243
-193
-199
-246
-235
-196
-204
-242
-240
-193
-189
-258
-281
-217
-194
-233
-233
-208
-223
-239
-227
-217
-225
-252
-267
-242
-225
-212
-195
-244
-106
515
915
256
-712
-825
-398
-209
-199
-144
-118
-124
-113
-100
-78
-64
-74
-56
-11
0
-7
16
51
83
122
150
163
188
221
217
181
174
191
167
108
71
64
51
22
8
24
38
41
55
64
36
3
10
47
79
62
-28
-103
-86
-46
-41
-15
31
26
-8
-9
4
-7
-44
-88
-104
-96
-120
-159
-106
-13
-56
9
593
1130
650
-354
-607
-163
119
126
138
162
197
290
380
431
476
511
496
444
438
514
598
635
650
656
655
662
671
683
705
707
686
698
740
755
741
722
700
663
593
503
453
449
429
379
319
212
40
-136
-275
-396
-512
-605
-634
-584
-511
-477
-488
-536
-600
-645
-687
-764
-851
-906
-945
-1000
-1041
-1044
-1056
-1066
-1040
-1113
-1182
-749
-90
-339
-1405
-1873
-1421
-957
-791
-656
-565
-556
-510
-437
-398
-365
-340
-345
-336
-266
-169
-102
-66
-29
10
41
71
113
174
229
246
248
280
319
322
319
338
351
342
335
336
334
338
355
371
379
389
392
375
347
318
295
285
277
231
175
192
275
327
320
306
302
292
279
266
258
275
287
263
277
284
189
363
1052
1370
584
-348
-374
29
166
172
214
213
199
204
188
177
183
164
134
132
151
167
169
161
152
151
167
191
198
184
161
143
124
97
63
28
-10
-48
-73
-88
-103
-115
-123
-134
-145
-154
-160
-165
-170
-175
-169
-147
-132
-141
-167
-186
-183
-161
-137
-128
-134
-147
-154
-150
-155
-158
-148
-160
-162
-129
-196
-196
343
980
616
-449
-856
-498
-236
-220
-173
-150
-187
-182
-157
-159
-159
-154
-153
-142
-124
-116
-114
-104
-87
-68
-49
-33
-19
-4
10
10
-1
-12
-19
-34
-64
-100
-125
-134
-129
-114
-102
-94
-79
-61
-53
-50
-43
-40
-41
-39
-36
-37
-36
-34
-27
-8
18
24
-3
-28
-24
-17
-29
-25
-7
-15
3
24
-53
97
769
1156
432
-544
-635
-235
-88
-88
-42
-35
-41
-14
-3
-1
7
-5
-22
-21
-16
-8
17
48
73
98
124
143
154
157
147
138
143
154
156
145
115
75
46
31
16
3
-7
-14
-9
6
23
45
66
62
43
35
29
17
19
33
47
68
87
82
68
71
70
47
53
83
68
53
52
-41
44
682
1177
579
-440
-638
-235
-32
-17
42
71
59
68
64
40
43
72
96
99
83
62
56
62
66
61
54
45
35
26
9
-12
-28
-45
-62
-69
-84
-121
-152
-156
-138
-116
-108
-115
-118
-122
-130
-126
-117
-124
-138
-148
-162
-192
-229
-239
-212
-183
-181
-199
-206
-196
-208
-255
-264
-221
-202
-178
-138
-226
-225
345
989
630
-380
-733
-387
-161
-157
-124
-114
-132
-100
-78
-87
-65
-34
-37
-51
-44
-12
27
49
68
105
144
164
166
166
169
175
178
181
182
173
160
154
136
106
82
66
63
82
94
76
68
87
92
80
85
96
93
77
38
-12
-15
43
92
94
81
78
61
22
-7
-12
3
23
13
13
58
-11
-60
449
1180
948
-133
-669
-380
-117
-113
-72
-23
-46
-44
-14
-22
-47
-53
-42
-25
-11
-5
-13
-23
-6
21
24
22
49
77
66
33
10
-8
-20
-12
-13
-45
-54
-45
-82
-130
-117
-91
-108
-125
-119
-116
-114
-108
-103
-93
-90
-108
-112
-89
-87
-113
-121
-96
-51
-21
-40
-78
-79
-67
-79
-82
-63
-68
-81
-38
-60
-140
201
938
999
59
-674
-543
-230
-162
-137
-118
-141
-115
-80
-96
-86
-37
-21
-37
-37
-3
49
89
100
109
137
168
179
187
215
239
229
205
202
203
181
166
161
130
91
93
103
75
46
49
58
51
39
44
56
50
35
27
-4
-60
-82
-62
-45
-32
7
35
4
-50
-58
-44
-61
-58
-13
-6
-22
-37
-120
22
701
1146
465
-537
-650
-253
-158
-214
-162
-156
-205
-191
-168
-190
-217
-222
-211
-200
-198
-195
-182
-168
-164
-157
-133
-114
-120
-131
-132
-141
-151
-140
-134
-175
-221
-182
-90
-66
-90
-62
-17
-25
-42
-30
-7
34
83
103
93
88
102
117
113
104
118
140
152
180
226
228
179
152
165
166
155
153
139
150
198
125
74
560
1270
1072
24
-552
-324
-68
-32
10
25
0
34
60
25
5
8
0
-2
10
6
-18
-40
-39
-21
-10
10
43
54
46
27
-11
-32
-16
-17
-43
-68
-116
-172
-174
-154
-178
-202
-184
-163
-148
-114
-79
-71
-67
-39
-24
-49
-56
-3
41
42
58
103
121
100
77
62
41
28
33
20
-2
33
27
-43
273
1030
1184
277
-510
-404
-107
-116
-144
-117
-158
-182
-167
-189
-215
-218
-222
-200
-157
-151
-161
-142
-126
-129
-105
-67
-76
-120
-141
-143
-153
-137
-65
-21
-86
-179
-211
-241
-324
-386
-363
-276
-179
-112
-87
-57
-3
25
25
43
47
11
4
43
62
67
102
135
132
114
105
90
60
59
94
78
38
73
44
-9
436
1169
1045
40
-522
-267
24
74
107
127
117
144
169
161
160
160
158
165
169
153
129
118
130
151
152
144
149
144
118
94
75
43
21
26
23
-13
-56
-89
-119
-145
-152
-145
-141
-144
-141
-130
-123
-110
-82
-70
-74
-62
-47
-55
-50
-6
39
50
28
2
1
13
21
42
44
13
24
4
-95
179
918
1062
116
-733
-663
-334
-261
-223
-173
-232
-321
-355
-331
-269
-223
-192
-142
-106
-95
-72
-49
-46
-28
8
19
9
4
-22
-81
-113
-78
-29
-1
31
67
69
45
32
31
38
52
70
92
98
49
-22
-45
-35
-37
-28
1
-1
-17
13
61
74
70
63
47
34
26
27
55
49
-11
-14
-19
-114
134
853
1020
123
-682
-561
-164
-52
-40
-6
34
96
110
68
71
109
118
114
122
136
158
179
179
155
131
118
97
60
30
13
1
-11
-26
-25
4
27
12
-10
-10
-14
-33
-42
-37
-43
-56
-59
-69
-95
-124
-143
-151
-162
-189
-207
-187
-160
-164
-185
-206
-227
-228
-220
-227
-229
-233
-237
-205
-238
-309
53
776
806
-84
-681
-439
-80
3
39
89
101
124
142
122
116
140
150
149
178
211
210
228
285
295
273
311
363
342
288
253
252
300
348
343
296
192
27
-90
-101
-91
-102
-111
-96
-35
41
53
5
-49
-94
-108
-89
-87
-118
-126
-84
-64
-140
-265
-337
-360
-391
-407
-362
-303
-307
-327
-254
-212
-306
-95
603
829
-10
-844
-779
-431
-378
-375
-308
-304
-268
-150
-82
-71
-22
38
44
51
95
98
63
97
173
177
149
169
198
188
157
135
157
208
197
133
124
151
107
36
48
103
100
66
65
83
95
95
91
111
143
122
70
66
94
91
89
121
145
139
132
124
95
60
66
106
108
99
130
73
49
539
1235
1026
-3
-529
-245
38
59
82
112
94
74
36
10
38
34
-30
-63
-69
-76
-41
-33
-147
-263
-291
-335
-374
-296
-202
-190
-166
-94
-47
-16
16
7
-26
-32
-33
-49
-46
-29
-60
-146
-221
-254
-268
-280
-293
-307
-297
-258
-231
-219
-182
-128
-80
-31
2
-10
-28
-24
-37
-48
-17
-2
-3
34
-13
-58
403
1120
964
-50
-593
-309
-25
-12
23
68
26
-4
29
54
19
-47
-84
-94
-117
-155
-172
-143
-75
-8
27
55
100
129
123
117
123
128
138
137
89
20
-19
-42
-85
-122
-133
-135
-129
-98
-64
-46
-33
-24
-31
-37
-27
-18
-23
-27
-15
15
57
93
104
87
65
60
49
22
14
6
-26
-7
-3
-103
101
811
1093
306
-545
-531
-165
-48
-27
24
22
7
20
23
24
36
42
43
47
51
58
71
81
88
94
100
103
102
90
67
44
32
33
35
26
3
-28
-58
-78
-88
-94
-92
-80
-69
-65
-61
-53
-47
-43
-42
-43
-51
-64
-82
-91
-79
-49
-19
-10
-29
-49
-50
-55
-74
-66
-54
-69
-44
-38
-113
130
836
1069
263
-561
-537
-201
-113
-101
-52
-52
-60
-43
-34
-25
-12
-18
-24
-15
-2
3
6
14
28
43
56
67
68
59
49
45
47
55
63
55
36
20
4
-12
-22
-24
-25
-24
-18
-11
-6
-9
-12
-11
-11
-18
-28
-40
-48
-38
-8
24
31
5
-23
-28
-35
-55
-52
-51
-72
-46
-52
-147
94
802
1016
203
-595
-551
-224
-136
-109
-57
-68
-78
-55
-51
-53
-42
-37
-30
-13
-3
1
12
26
39
56
69
75
78
75
66
54
33
2
-21
-36
-72
-121
-145
-141
-135
-134
-130
-126
-124
-118
-111
-106
-102
-96
-87
-82
-84
-81
-59
-23
4
6
-18
-42
-42
-47
-62
-45
-27
-36
7
20
-63
205
919
1056
164
-606
-496
-152
-60
-16
37
17
-2
3
-26
-71
-110
-168
-233
-242
-167
-65
7
55
100
140
175
203
222
235
241
240
245
254
244
215
183
155
130
111
97
86
84
92
102
107
106
103
103
101
95
84
76
89
126
161
163
136
119
134
149
145
150
146
121
158
175
47
170
783
989
146
-757
-784
-452
-378
-412
-410
-429
-416
-359
-326
-308
-279
-260
-249
-233
-219
-205
-184
-165
-155
-141
-124
-110
-99
-92
-88
-78
-63
-48
-34
-24
-27
-37
-42
-44
-45
-46
-52
-61
-54
-32
-6
13
16
2
-14
-21
-16
10
56
95
98
71
55
56
42
32
55
59
42
64
16
-75
267
990
1045
154
-512
-364
-88
-79
-81
-41
-48
-50
-35
-42
-49
-53
-63
-52
-31
-41
-64
-68
-62
-57
-47
-47
-59
-59
-45
-45
-60
-59
-40
-30
-37
-41
-31
-22
-25
-26
-19
-21
-28
-16
12
32
47
67
81
72
44
20
30
80
136
156
131
100
91
77
45
39
51
28
25
55
-28
-4
563
1147
756
-199
-520
-229
-53
-48
0
20
-4
1
17
36
62
64
52
59
69
66
70
82
79
70
87
118
123
102
84
75
67
68
72
55
6
-50
-93
-123
-146
-161
-172
-177
-179
-187
-191
-166
-117
-80
-65
-54
-45
-42
-42
-25
7
24
4
-43
-90
-112
-121
-145
-162
-154
-168
-181
-167
-243
-245
271
916
670
-247
-623
-320
-88
-71
-25
19
18
39
56
50
64
88
93
91
100
110
115
126
144
163
167
149
122
104
94
88
86
89
92
87
71
42
0
-51
-93
-111
-122
-134
-143
-155
-178
-203
-222
-233
-239
-247
-258
-268
-285
-308
-324
-331
-329
-306
-273
-272
-298
-306
-302
-320
-329
-319
-332
-314
-268
-341
-266
375
916
374
-630
-864
-495
-268
-183
-70
-19
-1
58
114
155
210
258
290
317
340
359
373
375
384
418
451
457
440
419
412
396
306
160
90
146
220
239
244
260
260
256
264
272
274
282
286
277
270
270
268
257
244
231
215
197
184
190
214
225
198
156
138
130
97
75
77
46
29
47
-40
7
613
1137
563
-510
-793
-435
-245
-233
-181
-173
-207
-208
-214
-239
-252
-263
-278
-289
-299
-308
-313
-322
-333
-343
-351
-350
-342
-344
-356
-363
-369
-372
-367
