# session 4
-30
-22
-18
-23
-22
-6
-7
-37
-60
-55
-50
-46
-5
54
85
113
154
147
84
52
70
72
37
18
35
31
-24
-91
-146
-187
-213
-237
-253
-251
-251
-250
-227
-218
-249
-237
-152
-162
-227
134
879
1002
190
-477
-401
-177
-167
-157
-131
-176
-201
-181
-167
-139
-83
-36
0
42
88
124
139
140
144
144
142
166
207
235
263
288
261
191
150
140
120
111
140
148
83
20
30
35
15
81
101
-53
143
905
1156
289
-538
-481
-184
-122
-63
-9
-74
-122
-109
-105
-71
-10
-8
-40
-29
20
83
119
60
-47
-81
-59
-88
-143
-129
-75
-90
-168
-203
-166
-143
-165
-177
-152
-116
-102
-116
-115
-73
-47
-42
-10
-69
-166
205
968
1029
112
-592
-492
-249
-233
-231
-224
-244
-210
-176
-204
-205
-150
-98
-62
-30
-15
-3
33
65
53
21
6
-18
-20
95
251
277
212
179
135
66
68
118
139
177
239
251
234
218
155
109
111
10
1
485
961
555
-319
-634
-418
-233
-135
-58
-72
-97
-58
-36
-48
-45
-29
-3
35
56
54
48
35
30
37
-10
-111
-135
-62
-33
-73
-87
-78
-100
-134
-151
-155
-144
-115
-85
-83
-105
-115
-113
-93
-39
-71
-194
45
739
942
158
-606
-568
-262
-187
-165
-105
-95
-97
-94
-97
-68
-39
-48
-15
68
90
55
61
106
124
100
85
119
169
198
231
283
296
244
173
136
140
141
117
118
147
120
42
-7
-19
6
-3
-161
-153
362
724
169
-626
-678
-293
-125
-95
-22
-14
-45
-3
31
6
3
-3
-47
-14
46
-36
-122
-56
-27
-98
-86
-41
-96
-129
-70
-41
-34
12
8
-71
-93
-42
-9
21
61
36
-25
-25
-22
-62
-64
-118
-285
-131
488
720
75
-590
-586
-349
-285
-243
-164
-148
-151
-115
-77
-73
-67
-25
15
22
47
88
93
107
176
213
183
203
300
356
342
325
304
256
213
184
146
114
100
86
52
23
25
6
-70
-103
-110
-239
-213
341
810
348
-503
-687
-339
-119
-66
-16
-13
-21
22
11
-84
-145
-128
-97
-66
-18
30
42
3
-27
-7
1
-45
-89
-88
-48
2
32
40
26
-14
-51
-65
-53
-17
3
-7
1
-1
-85
-144
-94
-132
-259
19
705
832
53
-594
-466
-152
-100
-110
-68
-48
-66
-89
-61
7
27
22
47
59
72
131
158
145
187
219
194
241
351
377
344
343
319
245
200
203
186
142
135
157
123
56
70
120
72
16
10
-100
-92
399
775
239
-584
-677
-300
-122
-107
-77
-86
-114
-126
-158
-182
-174
-172
-168
-137
-123
-152
-171
-156
-167
-223
-246
-219
-222
-244
-214
-182
-205
-203
-169
-197
-248
-221
-169
-159
-141
-106
-127
-193
-225
-190
-146
-229
-358
-99
507
574
-170
-743
-595
-314
-277
-263
-214
-227
-242
-216
-198
-184
-152
-119
-90
-61
-31
-2
27
52
80
124
183
248
316
386
440
458
449
433
410
372
347
354
378
387
356
301
275
259
233
267
253
79
232
984
1341
600
-206
-161
177
261
302
377
358
330
343
304
213
128
52
12
25
33
41
93
118
55
6
36
82
118
168
198
170
113
60
12
-40
-89
-122
-145
-159
-159
-169
-207
-258
-297
-282
-255
-355
-358
155
675
235
-751
-1068
-737
-528
-510
-467
-477
-534
-536
-520
-506
-458
-409
-388
-365
-328
-283
-240
-212
-198
-181
-176
-187
-184
-156
-125
-115
-124
-133
-145
-168
-193
-212
-221
-198
-154
-149
-177
-179
-155
-72
128
220
18
13
593
949
347
-411
-406
-51
65
86
173
224
245
283
299
300
321
355
393
422
422
408
404
387
338
290
271
264
263
282
296
278
249
220
182
141
109
90
97
127
139
105
67
63
59
49
76
35
-97
98
720
918
257
-374
-324
-73
-27
-35
-32
-58
-63
-57
-66
-51
-26
-27
-19
7
14
10
5
-19
-58
-86
-95
-87
-65
-45
-58
-99
-137
-172
-213
-249
-259
-241
-207
-177
-184
-225
-238
-222
-241
-240
-191
-261
-289
168
665
284
-565
-761
-391
-179
-149
-85
-58
-71
-42
-12
-7
13
42
50
53
70
81
61
26
4
-12
-31
-30
6
48
69
64
38
-6
-61
-113
-132
-122
-124
-136
-122
-108
-133
-155
-157
-153
-99
-103
-245
-78
556
713
-70
-714
-519
-143
-52
-4
80
93
83
86
93
125
168
194
211
227
242
260
264
241
203
179
175
182
201
227
235
214
180
147
113
84
62
45
41
66
100
93
62
58
54
53
94
33
-88
218
828
751
-64
-476
-195
46
53
90
118
80
76
99
105
118
130
119
112
132
156
151
124
103
84
49
26
48
88
90
45
-6
-46
-98
-162
-201
-217
-240
-256
-239
-230
-263
-283
-266
-290
-321
-295
-367
-457
-94
440
180
-678
-970
-592
-314
-291
-266
-240
-246
-230
-214
-214
-197
-165
-140
-113
-82
-62
-45
-20
-1
3
5
16
39
74
99
80
27
-15
-38
-73
-118
-134
-114
-75
-30
-10
-34
-44
-26
-36
-21
27
-72
-112
360
853
447
-399
-585
-235
-40
-5
61
89
81
109
143
166
195
220
251
295
324
332
346
361
359
348
340
341
354
377
385
357
309
261
214
168
129
105
106
132
141
81
10
19
40
13
41
32
-201
-232
314
624
8
-664
-568
-214
-116
-84
-25
-22
-23
-4
9
40
73
79
88
112
133
152
160
142
115
94
78
82
106
116
97
65
25
-26
-77
-123
-155
-165
-170
-171
-166
-182
-206
-201
-210
-227
-187
-230
-350
-84
471
348
-524
-975
-648
-303
-237
-186
-131
-129
-106
-74
-72
-59
-36
-20
11
46
58
72
104
124
124
122
113
106
126
146
128
112
122
88
-2
-61
-88
-154
-230
-233
-197
-198
-210
-208
-240
-267
-243
-315
-385
-17
522
314
-499
-824
-514
-275
-260
-239
-237
-279
-274
-250
-257
-241
-175
-109
-61
-10
41
80
114
150
171
180
202
244
291
323
320
279
240
224
201
167
154
161
178
221
252
222
193
210
197
189
230
137
46
468
1029
726
-132
-377
-36
154
162
217
236
205
211
226
226
240
261
280
303
319
325
323
313
303
290
269
265
295
325
319
292
258
204
136
87
67
48
20
18
52
50
-11
-37
-19
-38
-32
-12
-127
-54
534
814
7
-963
-1010
-595
-450
-483
-506
-539
-530
-475
-437
-400
-361
-345
-328
-308
-306
-288
-256
-268
-288
-246
-193
-178
-137
-55
9
11
-80
-231
-319
-319
-325
-353
-371
-375
-362
-374
-440
-490
-506
-526
-498
-488
-588
-381
361
730
55
-713
-654
-253
-99
-50
28
52
59
92
114
119
118
126
151
158
145
159
184
158
117
114
128
155
217
285
321
337
342
334
323
311
294
283
285
303
334
346
319
299
293
273
293
315
194
218
743
1116
574
-187
-210
138
230
205
239
237
223
244
249
243
254
262
272
300
321
325
326
323
297
256
220
197
189
188
166
104
27
-35
-91
-150
-190
-205
-225
-249
-236
-209
-230
-263
-264
-281
-288
-269
-383
-474
-66
443
91
-773
-983
-594
-383
-381
-319
-266
-257
-227
-201
-191
-169
-150
-144
-132
-111
-93
-88
-94
-98
-100
-107
-100
-67
-35
-23
-30
-54
-87
-125
-161
-180
-201
-253
-280
-232
-190
-223
-256
-220
-185
-177
-129
-131
-198
73
681
733
-29
-576
-389
-94
-45
-24
18
21
45
76
76
85
115
141
166
187
192
189
185
184
187
186
187
212
250
267
262
241
204
178
156
76
-30
-46
21
84
128
150
132
123
136
117
122
138
4
-2
509
899
368
-427
-500
-158
-45
-113
-167
-195
-186
-154
-136
-154
-224
-288
-261
-165
-79
-23
24
67
104
125
132
146
178
209
209
173
127
100
84
56
21
5
4
11
35
62
46
16
20
14
2
35
-15
-95
236
781
591
-273
-664
-352
-84
-63
-27
12
-3
6
26
22
32
53
55
61
82
78
54
60
81
72
56
73
106
129
147
152
130
96
73
56
25
-12
-40
-48
-30
2
16
-1
-15
-7
4
14
-49
-281
-397
1
435
33
-832
-1066
-685
-415
-350
-262
-206
-202
-154
-92
-66
-40
3
37
67
113
148
148
133
114
92
96
89
22
-22
29
80
72
50
-24
-194
-343
-356
-291
-241
-213
-188
-180
-187
-181
-189
-253
-304
-339
-443
-330
228
522
-53
-702
-602
-212
-77
-26
57
71
74
124
160
180
217
252
264
273
291
307
315
311
293
277
277
293
315
323
305
280
263
248
232
221
207
188
182
193
214
235
229
189
164
151
114
112
102
-30
46
603
887
235
-510
-459
-105
-27
-33
9
-10
-30
-18
-40
-61
-37
-13
-6
8
22
23
16
1
-24
-47
-48
-24
7
27
30
13
-18
-49
-74
-105
-132
-143
-145
-155
-160
-142
-127
-155
-188
-183
-192
-216
-204
-266
-336
-1
522
316
-506
-813
-461
-224
-236
-199
-158
-175
-153
-113
-100
-75
-36
-16
-6
18
45
51
36
23
17
18
32
58
87
105
89
42
-5
-35
-57
-79
-104
-124
-125
-105
-65
-21
-14
-40
-35
-21
-32
3
8
-131
-33
529
777
177
-440
-372
-90
-29
-15
25
9
-5
15
22
27
46
63
81
105
124
144
166
182
194
204
212
231
259
262
228
184
150
118
78
38
12
5
15
39
83
130
132
79
50
58
34
35
70
-53
-110
374
847
379
-475
-614
-271
-132
-120
-63
-55
-62
-27
-10
-7
22
46
55
65
78
97
108
94
71
65
62
56
64
78
65
27
-13
-58
-109
-143
-151
-168
-196
-201
-184
-166
-158
-173
-187
-174
-178
-175
-132
-196
-255
136
655
352
-520
-792
-412
-144
-96
-22
23
7
20
44
53
70
83
84
90
98
98
93
73
42
16
-3
-13
-8
-1
-6
-17
-28
-43
-56
-61
-68
-87
-100
-94
-81
-68
-53
-59
-85
-90
-94
-116
-98
-128
-267
-91
521
655
-116
-731
-529
-183
-137
-113
-39
-40
-51
-31
-24
-9
26
49
65
87
104
111
108
93
74
64
68
81
97
107
102
70
37
49
119
279
550
765
716
501
362
328
282
202
147
120
77
56
51
-83
-155
272
760
410
-406
-615
-296
-145
-166
-126
-104
-131
-128
-114
-115
-104
-78
-54
-32
-8
14
29
34
31
29
36
62
99
127
131
109
77
48
29
11
-19
-61
-87
-87
-83
-75
-59
-75
-117
-134
-156
-186
-159
-204
-349
-84
602
636
-266
-871
-619
-279
-227
-184
-124
-126
-108
-74
-63
-37
-2
16
42
76
96
107
121
124
109
98
103
123
142
135
102
71
42
5
-24
-47
-84
-110
-106
-103
-107
-94
-87
-110
-116
-100
-112
-94
-50
-138
-138
336
738
236
-596
-685
-269
-77
-67
-12
10
-2
21
35
34
57
85
102
122
139
150
157
152
137
125
118
123
138
144
135
116
91
66
44
23
-4
-39
-65
-72
-62
-41
-28
-53
-86
-90
-103
-108
-62
-122
-225
117
692
497
-380
-736
-373
-94
-63
11
65
10
-22
5
21
28
45
65
80
98
115
118
114
117
118
106
102
120
139
137
118
94
72
58
42
17
-17
-50
-68
-61
-32
-3
-14
-59
-75
-71
-78
-55
-74
-195
-50
506
682
32
-572
-474
-186
-132
-113
-52
-53
-65
-40
-25
-22
0
37
75
114
149
171
176
177
187
197
202
208
214
210
193
158
114
82
60
28
-5
-24
-31
-28
-14
0
-14
-45
-55
-74
-99
-57
-85
-247
-45
621
717
-150
-813
-613
-258
-184
-136
-69
-87
-97
-54
-32
-32
-19
2
27
53
59
46
48
50
17
-20
-18
-8
-20
-33
-38
-58
-91
-117
-126
-125
-124
-128
-135
-135
-121
-110
-126
-148
-150
-171
-186
-147
-205
-324
1
643
554
-353
-848
-541
-214
-163
-113
-62
-78
-73
-44
-35
-15
19
36
51
80
104
112
118
130
137
136
140
159
186
206
212
198
166
146
155
150
106
72
83
103
118
127
106
78
78
59
36
63
-12
-141
184
810
723
-101
-518
-267
-64
-75
-44
-10
-24
-9
8
9
37
66
72
97
146
177
179
169
151
130
113
109
117
122
110
88
70
48
20
-4
-32
-69
-92
-89
-73
-51
-42
-68
-94
-93
-113
-126
-85
-140
-250
50
649
624
-127
-579
-382
-149
-121
-87
-48
-61
-55
-26
-13
0
18
31
52
79
95
99
99
94
82
69
63
68
74
73
60
31
-8
-40
-57
-78
-112
-134
-134
-125
-114
-118
-149
-169
-165
-181
-168
-124
-211
-232
228
670
214
-649
-809
-413
-197
-174
-136
-135
-149
-120
-110
-116
-87
-50
-34
-16
15
39
48
44
32
16
4
5
20
33
29
13
-3
-18
-29
-35
-45
-58
-54
-31
4
37
38
17
24
33
26
69
48
-86
120
743
849
111
-429
-238
37
65
90
132
115
117
137
130
132
153
165
171
177
177
173
164
143
118
103
103
106
97
84
78
64
40
20
1
-29
-53
-57
-53
-38
-3
16
-13
-39
-37
-45
-32
-17
-140
-188
277
820
529
-290
-577
-316
-156
-163
-135
-119
-129
-111
-97
-91
-69
-47
-26
0
6
32
75
-15
-220
-291
-191
-106
-76
-38
-19
-31
-42
-50
-66
-84
-101
-101
-76
-39
-4
22
25
12
5
