# session 14
-22
-83
38
-58
-491
-415
345
406
-678
-1428
-1122
-648
-576
-719
-925
-1046
-961
-842
-843
-839
-719
-576
-488
-422
-353
-306
-290
-281
-264
-241
-212
-155
-89
-84
-135
-160
-138
-117
-97
-49
-22
-51
-59
-51
-80
-49
-9
-131
-32
611
948
289
-443
-368
-22
44
56
133
152
159
193
204
219
259
290
313
337
351
363
359
313
287
323
339
310
296
289
278
301
283
176
132
195
188
95
47
10
-12
67
30
-205
-66
548
631
-166
-793
-647
-291
-152
-110
-80
-81
-82
-84
-99
-130
-173
-193
-177
-172
-164
-112
-100
-170
-212
-193
-185
-189
-210
-275
-326
-297
-201
-118
-136
-189
-146
-61
-43
-78
-78
25
42
-172
-40
732
988
20
-885
-747
-312
-181
-80
50
75
101
166
185
206
256
281
324
428
474
441
486
577
506
377
459
628
600
491
503
503
400
345
375
376
342
355
401
390
391
466
389
264
676
1305
1035
71
-289
105
435
506
604
717
742
799
855
585
21
-291
-135
98
15
-315
-517
-688
-1497
-2764
-3272
-2742
-2143
-1892
-1596
-1212
-1064
-1151
-1189
-1029
-786
-636
-561
-421
-257
-193
-236
-417
-514
37
919
903
-2
-471
-189
66
117
288
460
298
-91
-244
-28
226
358
438
320
-43
-248
-64
179
251
311
379
297
185
248
395
468
500
550
597
632
676
707
704
718
756
766
782
756
643
844
1527
1779
1040
271
233
460
534
414
-118
-913
-1362
-1248
-871
-569
-384
-159
-118
-621
-1201
-1161
-753
-532
-448
-334
-273
-255
-194
-175
-306
-469
-488
-425
-433
-467
-420
-334
-296
-312
-289
-157
-138
-303
-18
839
1034
81
-707
-557
-189
-142
-247
-307
-234
-56
85
168
243
298
337
396
464
515
541
537
521
519
511
481
474
497
491
473
471
436
462
591
439
-139
-507
-316
-76
-19
146
244
99
331
1050
1203
453
-177
-50
369
391
-47
-328
-219
-251
-461
-393
-250
-321
-273
-7
179
280
413
532
616
658
629
589
590
616
568
279
-88
-184
-434
-1464
-2530
-2524
-1877
-1532
-1451
-1301
-1101
-976
-1010
-887
-239
284
-105
-734
-671
-234
30
180
272
319
452
571
619
817
935
476
-127
-89
300
366
243
293
410
457
570
798
955
903
632
95
-524
-700
-329
14
-10
-168
-249
-235
-129
-20
-37
-90
96
356
-11
-1012
-1561
-1149
-491
-106
125
222
192
277
525
707
753
826
953
858
376
-183
-452
-463
-362
-157
87
306
563
814
925
941
986
1046
1077
1125
1202
1240
1232
1222
1204
1246
1347
1219
937
1174
1824
1753
792
67
-18
-161
-642
-974
-848
-449
-90
-85
-677
-1698
-2621
-3222
-3712
-4070
-3922
-3271
-2626
-2197
-1736
-1219
-904
-762
-581
-428
-351
-183
-41
-116
-136
62
231
300
266
41
-76
101
133
60
609
1484
1461
564
32
267
639
840
990
1092
1163
1264
1294
1295
1434
1398
732
-392
-1542
-2366
-2426
-1791
-1160
-769
-378
-135
-175
-170
17
194
354
552
703
815
912
917
898
935
893
836
926
881
759
1199
1652
837
-630
-1300
-1404
-1654
-1990
-2349
-2489
-2019
-1337
-953
-691
-498
-615
-891
-1020
-1056
-1170
-1281
-1246
-1214
-1315
-1326
-1184
-1162
-1194
-995
-723
-571
-351
-22
206
339
520
760
982
1155
1341
1516
1532
1625
2240
2906
2675
1901
1764
2266
2324
1384
53
-570
-130
633
1083
1396
1788
2106
2297
2490
2710
2887
3004
3101
3205
3306
3398
3454
3440
3444
3546
3574
3344
3066
3033
3160
3230
3277
3357
3326
3243
3418
3514
2688
1302
705
814
255
-1157
-2453
-3339
-4120
-4823
-5389
-5850
-6147
-6359
-6697
-6878
-6269
-4901
-3570
-2914
-2902
-3106
-3328
-3797
-4533
-5259
-5961
-6635
-7174
-7776
-8173
-7505
-6070
-5033
-4501
-4057
-3799
-3678
-3517
-3649
-4379
-5281
-5591
-4987
-3599
-1797
-484
-329
-526
-9
898
1516
1940
2369
2696
2862
2950
3105
3402
3724
3939
4080
4221
4375
4520
4614
4640
4659
4715
4772
4824
4886
4894
4842
4834
4863
4810
4716
4720
4780
4781
4723
4638
4610
4705
4666
4296
4184
4803
5263
4685
3861
3783
4066
4078
3938
3892
3860
3628
3212
2836
2425
1833
1380
1266
1276
1358
1263
361
-1216
-2603
-3583
-4513
-5368
-5925
-6315
-6762
-7237
-7641
-7978
-8251
-8487
-8787
-9151
-9484
-9727
-9671
-9093
-8300
-7666
-6789
-5236
-3691
-3081
-3087
-2770
-2062
-1508
-1279
-1214
-1081
-688
-167
231
572
933
1192
1397
1631
1779
1939
2184
2045
1531
1464
1745
1470
934
990
1429
1670
1552
1180
1004
1233
1323
1075
1062
1376
1524
1587
1851
1935
1791
2209
3037
3020
2180
1851
2341
2766
2834
3002
3044
2245
1167
994
1336
1275
1171
1323
1291
1232
1385
1212
640
275
224
325
642
1074
1377
1491
1540
1701
1840
1574
880
131
-279
-94
483
916
1132
1415
1581
1502
1804
2547
2573
1599
871
907
1030
1046
1213
1381
1430
1447
1136
218
-779
-1016
-538
-323
-972
-1928
-2519
-2899
-3343
-3732
-4051
-4213
-3774
-2902
-2394
-2266
-2016
-1835
-1811
-1456
-949
-809
-691
-364
-313
-443
-296
-267
-605
-502
126
-205
-2197
-4300
-4729
-3828
-3353
-3909
-4460
-4175
-3294
-2362
-1648
-1122
-759
-754
-1115
-1550
-1852
-1822
-1400
-1014
-955
-894
-618
-339
-138
80
293
457
596
690
767
911
1031
1018
1033
1150
1190
1202
1308
1266
1212
1789
2580
2357
1362
925
1160
1346
1400
1462
1424
1365
1385
1329
1193
1171
1253
1304
1328
1362
1371
1342
1315
1307
1289
1240
1188
1157
1116
1035
940
864
817
796
786
756
695
659
669
629
535
471
324
171
559
1345
1360
396
-308
-223
-17
-1
53
124
98
32
-29
-67
-48
4
62
118
145
159
175
128
21
-43
-59
-101
-159
-203
-247
-291
-320
-333
-345
-360
-360
-373
-419
-426
-404
-425
-401
-383
-506
-255
658
1040
86
-930
-899
-467
-308
-266
-186
-89
7
35
42
127
227
239
221
306
452
444
231
-135
-737
-1424
-1695
-1470
-1350
-1828
-2563
-2800
-2423
-1985
-1724
-1424
-1066
-824
-685
-515
-318
-187
-106
-19
110
379
520
-6
-754
-796
-529
-713
-852
-492
-127
7
156
334
451
540
681
877
959
954
1114
1090
364
-473
-533
-71
190
155
95
66
8
44
157
52
-183
-273
-478
-864
-965
-825
-765
-644
-506
-420
127
960
966
181
-215
25
304
434
508
573
678
745
733
774
867
932
997
1036
1039
1095
1140
1101
1112
1119
924
717
755
857
837
801
765
661
572
521
551
756
693
-106
-972
-1087
-802
-738
-921
-970
-452
219
35
-709
-810
-305
-40
-111
-161
-89
12
77
165
226
54
-209
-170
53
62
-21
84
89
-297
-696
-709
-517
-383
-285
-203
-217
-341
-491
-566
-583
-676
-818
-827
-731
-667
-571
-479
-583
-523
124
574
-50
-922
-943
-514
-327
-254
-149
-127
-133
-84
-31
-4
35
120
201
203
198
262
298
276
305
360
352
339
347
316
286
319
341
311
301
327
302
216
168
154
114
157
235
89
66
691
1214
664
-228
-329
69
304
390
413
368
390
460
452
437
496
556
582
603
630
669
699
684
638
602
589
595
615
648
671
658
641
646
626
615
681
721
645
539
482
504
536
351
177
644
1330
1020
-126
-836
-847
-745
-652
-532
-670
-1075
-1331
-1324
-1348
-1541
-1824
-2117
-2316
-2388
-2443
-2555
-2802
-3165
-3248
-2784
-2158
-1745
-1443
-1184
-1008
-800
-554
-426
-373
-266
-161
-97
-13
58
111
217
208
71
397
1179
1266
398
-162
111
449
523
613
717
733
742
774
799
831
859
880
933
1010
1042
997
940
933
948
924
873
826
777
745
726
661
587
586
608
602
592
530
461
487
383
16
-229
-216
-80
395
928
617
-279
-606
-305
-80
-66
-83
-104
-122
-134
-160
-185
-202
-196
-162
-139
-127
-132
-177
-177
-118
-149
-231
-198
-131
-156
-208
-230
-220
-177
-150
-139
-110
-119
-166
-155
-136
-181
-171
-126
-209
-102
513
928
424
-318
-403
-124
-6
40
109
112
114
175
199
156
135
173
209
194
174
192
189
163
210
284
234
96
16
19
41
25
-25
-39
-16
-22
-52
-66
-68
-75
-111
-133
-97
-167
-311
-25
584
501
-389
-935
-717
-420
-378
-375
-338
-314
-300
-311
-320
-262
-190
-177
-161
-99
-61
-53
-34
-10
47
70
-119
-389
-415
-268
-189
-153
-130
-158
-144
-41
17
-16
-32
9
43
85
169
145
107
546
1155
781
-457
-1108
-855
-588
-536
-404
-267
-209
-128
-33
42
117
186
261
326
338
348
390
385
348
367
409
417
433
455
431
371
327
325
321
302
369
428
184
-209
-312
-162
-19
31
-53
51
652
993
327
-462
-328
134
-4
-413
-413
-157
-59
-39
17
-87
-319
-367
-229
-121
-62
3
11
-61
-123
-162
-281
-427
-406
-306
-347
-418
-352
-272
-247
-188
-141
-194
-264
-233
-153
-145
-143
-104
-192
-171
416
965
526
-348
-556
-274
-128
-82
-2
36
74
143
163
144
148
156
162
203
265
294
292
289
282
264
247
239
232
223
203
161
119
104
90
48
-1
-46
-83
-90
-99
-103
-31
-32
-190
41
821
1059
212
-576
-508
-198
-134
-95
-1
4
-75
-130
-97
4
106
178
217
231
241
237
204
159
123
91
59
25
-16
-47
-67
-106
-159
-194
-218
-239
-253
-297
-345
-328
-312
-333
-315
-372
-454
-36
710
622
-384
-958
-673
-361
-323
-256
-173
-168
-128
-50
-7
39
112
179
235
278
286
271
255
240
221
191
151
118
118
134
127
101
94
114
136
154
169
159
150
170
174
174
229
181
43
334
1027
1114
340
-214
-31
247
248
211
248
273
272
259
250
268
289
298
319
365
403
398
368
352
352
326
260
188
140
96
28
-52
-117
-157
-179
-194
-212
-242
-273
-298
-330
-344
-309
-359
-484
-219
441
540
-247
-880
-778
-532
-501
-485
-460
-487
-493
-476
-472
-467
-464
-461
-461
-492
-540
-574
-597
-599
-583
-580
-592
-609
-657
-716
-741
-752
-774
-779
-752
-712
-680
-673
-661
-617
-611
-634
-599
-619
-650
-248
371
221
-622
-981
-647
-373
-339
-288
-248
-264
-252
-230
-225
-202
-171
-153
-120
-78
-51
-17
25
39
41
77
119
133
140
157
169
181
215
263
317
385
446
479
517
564
592
661
733
661
727
1298
1744
1281
538
483
845
1028
1090
1168
1215
1277
1355
1381
1404
1481
1563
1624
1683
1754
1831
1880
1877
1845
1818
1807
1810
1814
1804
1789
1787
1798
1814
1836
1872
1926
1967
1985
2013
2041
2053
2122
2141
1954
1978
2591
2977
2326
1475
1396
1586
1462
1218
790
26
-642
-973
-1208
-1397
-1553
-1918
-2463
-2821
-2833
-2834
-3360
-4541
-5879
-6675
-6576
-5815
-4938
-4378
-4290
-4406
-4317
-4059
-3801
-3366
-2683
-2019
-1606
-1303
-846
-670
-1521
-3044
-4335
-5106
-5237
-5121
-5943
-7429
-7626
-6233
-4785
-3797
-2827
-1974
-1394
-873
-374
25
389
742
1036
1288
1528
1757
1963
2132
2274
2419
2558
2666
2744
2802
2843
2873
2900
2939
2989
3032
3094
3158
3145
3146
3220
3176
3166
3386
3088
2032
1637
2273
2309
1362
619
214
-304
-582
-342
200
751
905
672
694
1132
1500
1660
1821
2013
2173
2291
2383
2452
2457
2413
2426
2479
2477
2446
2435
2416
2405
2426
2443
2473
2506
2424
2286
2262
2275
2291
2370
2212
1978
2566
3237
1896
-801
-2039
-1563
-1110
-942
-475
3
-80
-671
-1053
-755
-263
-98
-93
-170
-442
-582
-452
-607
-1301
-2052
-2561
-2948
-3281
-3595
-3917
-4134
-4267
-4452
-4510
-4243
-3909
-3778
-3711
-3559
-3428
-3357
-3389
-3860
-4680
-4780
-3687
-2704
-2902
-3476
-3506
-3244
-2900
-2311
-1736
-1396
-1034
-593
-260
17
308
525
688
871
1043
1110
953
672
572
408
-374
-1325
-1490
-1033
-716
-585
-363
-113
51
166
191
4
-289
-323
-1
352
597
873
1045
1056
1419
2129
2211
1493
1079
1373
1699
1793
1887
1958
1949
1974
2033
2063
2085
2105
2114
2144
2182
2190
2189
2202
2190
2141
2090
2052
2008
1950
1899
1866
1823
1767
1718
1682
1666
1672
1646
1586
1561
1523
1462
1499
1381
774
257
421
459
-340
-1029
-752
-173
-53
-179
-139
61
242
347
429
514
583
642
695
734
768
790
782
784
793
714
541
360
198
92
115
201
229
219
259
326
265
7
-325
-688
-1219
-1828
-2204
-2491
-3125
-3778
-3783
-3684
-4457
-5501
-5529
-4645
-3755
-3126
-2616
-2208
-1940
-1931
-2264
-2706
-2886
-2702
-2372
-2140
-2000
-1779
-1468
-1209
-1033
-874
-725
-591
-456
-330
-229
-148
-83
-20
59
142
222
290
322
347
388
397
432
519
438
338
779
1376
1087
249
58
449
663
693
777
817
806
844
888
901
926
956
964
975
1006
1038
1048
1045
1033
1004
975
953
915
869
834
780
732
743
702
542
463
544
574
518
517
522
505
557
515
369
648
1277
1256
482
38
250
473
500
547
588
574
582
606
609
623
653
678
702
735
770
790
784
763
738
707
679
651
604
548
498
440
386
363
348
333
348
342
282
249
240
213
255
255
85
212
817
914
49
-643
-456
-66
52
103
150
137
133
142
133
135
141
139
158
191
207
207
198
173
138
95
35
-35
-95
-140
-181
-235
-309
-374
-410
-443
-471
-488
-527
-574
-602
-659
-700
-676
-784
-911
-545
-39
-399
-1323
-1612
-1253
-1022
-1006
-963
-940
-962
-960
-955
-961
-952
-933
-925
-925
-916
-893
-880
-888
-893
-910
-961
-1012
-1035
-1051
-1076
-1102
-1135
-1177
-1207
-1210
-1192
-1172
-1176
-1193
-1184
-1181
-1192
-1144
-1137
-1280
-1156
-504
-133
-670
-1310
-1259
-931
-802
-726
-603
-516
-430
-321
-222
-117
7
117
228
372
537
691
837
982
1124
1273
1430
1571
1693
1823
1963
2100
2235
2387
2576
2784
3000
3239
3373
3160
2644
2182
1975
1841
1526
1185
1240
1442
960
-169
-1016
-1194
-1016
-734
-438
-178
-5
19
34
220
