# session 9
-304
-476
317
-351
-3377
-5510
-5150
-4393
-4256
-4062
-4066
-4369
-4183
-3592
-3239
-2965
-2545
-2229
-1990
-1689
-1515
-1252
-531
-207
-1289
-2879
-3589
-3680
-3864
-3974
-3941
-4134
-4417
-4387
-4157
-3997
-3804
-3371
-2689
-1934
-1326
-902
-509
-65
362
720
1031
1318
1586
1780
1761
1529
1332
1327
1372
1384
1473
1568
1505
1405
1363
1210
1032
1032
1031
1143
1729
1992
987
-267
-414
40
166
25
-157
-381
-577
-715
-886
-1155
-1363
-1171
-577
27
478
894
1268
1543
1763
1940
2070
2168
2207
2223
2268
2219
2086
2094
2140
1983
1793
1606
1060
197
-597
-1323
-2059
-2674
-3270
-3789
-3613
-2958
-3135
-4062
-4121
-3116
-2223
-1644
-1074
-755
-616
-333
-98
5
231
466
519
587
768
882
867
822
836
920
998
1014
1022
1054
1064
1046
1041
1056
1072
1101
1153
1185
1165
1136
1113
1064
1071
1140
1028
878
1272
1897
1690
807
431
714
953
1000
1064
1104
1093
1102
1117
1115
1122
1151
1192
1227
1221
1205
1248
1269
1104
819
620
509
365
215
151
167
252
400
461
298
38
-142
-236
-211
-100
-203
-551
-765
-794
-704
-126
708
679
-284
-948
-858
-634
-551
-464
-395
-336
-224
-173
-220
-190
-68
-19
-99
-255
-441
-593
-669
-701
-792
-993
-1183
-1239
-1334
-1707
-2237
-2658
-2974
-3265
-3502
-3727
-3870
-3555
-2701
-1836
-1275
-764
-371
-629
-1188
-859
269
694
100
-254
43
279
380
701
959
864
668
499
226
-89
-372
-764
-1231
-1492
-1515
-1459
-1263
-871
-505
-316
-214
-69
171
391
459
539
840
1237
1544
1765
1849
1682
1416
1330
1307
1016
594
322
92
61
562
810
-193
-1625
-2068
-1690
-1354
-1161
-930
-675
-336
104
478
726
942
1141
1267
1352
1483
1640
1746
1828
1917
1981
2088
2189
1941
1333
858
586
96
-553
-919
-1036
-1250
-1570
-1787
-1841
-1723
-1360
-798
-356
-247
11
901
1635
1211
319
153
479
632
707
843
930
1010
1108
1146
1122
991
711
435
295
202
56
-53
-25
6
-95
-158
-77
-130
-459
-688
-504
-114
201
448
653
777
852
731
212
-339
-354
-48
-49
-250
84
996
1427
781
-4
-3
390
559
563
600
709
845
870
718
445
104
-229
-483
-689
-877
-993
-981
-878
-808
-819
-845
-875
-970
-1077
-1068
-955
-868
-877
-908
-856
-703
-528
-390
-290
-232
-226
-225
-291
-595
-825
-444
62
-227
-895
-964
-599
-380
-207
103
357
470
616
870
1101
1209
1234
1233
1188
1094
1026
1018
983
883
805
754
660
589
623
714
865
1050
1026
726
510
626
941
1247
1268
692
-337
-1250
-1831
-2394
-2997
-3137
-2847
-3132
-4249
-5046
-4992
-4813
-4787
-4635
-4439
-4090
-3293
-2471
-2093
-1791
-1227
-623
-124
335
722
992
1178
1309
1407
1487
1569
1674
1787
1892
1970
1970
1916
1879
1878
1981
2110
1877
1308
999
1016
927
809
816
768
1014
1810
2117
1272
444
582
1090
1396
1620
1782
1851
1947
1962
1588
760
-230
-998
-1551
-2172
-2629
-2327
-1415
-613
-139
205
486
740
997
1175
1270
1375
1527
1690
1731
1625
1605
1699
1651
1570
1740
1916
1763
1437
1196
1206
1533
1738
1314
727
730
1006
793
164
-369
-725
-1054
-1351
-1624
-1936
-2146
-2008
-1540
-968
-532
-469
-721
-823
-582
-368
-504
-946
-1515
-2025
-2414
-2765
-3058
-3238
-3429
-3575
-3276
-2498
-1788
-1427
-1146
-801
-529
-350
-231
-183
45
588
798
155
-600
-584
-64
321
460
515
626
781
862
925
1032
982
761
706
845
834
590
325
130
-65
-257
-310
-226
-219
-309
-307
-291
-435
-670
-973
-1327
-1376
-924
-428
-356
-616
-821
-728
-541
-763
-1231
-1025
-194
-45
-759
-953
-266
188
53
65
449
762
883
1034
1245
1445
1672
1874
1927
1889
1921
2107
2329
2177
1471
768
568
558
361
133
24
-82
-235
-358
-388
-297
-79
258
632
952
1257
1497
1365
825
319
203
521
951
824
27
-685
-920
-1075
-1374
-1559
-1368
-878
-441
-174
146
537
825
1043
1211
1113
698
310
248
415
592
752
850
745
615
783
1087
1174
1150
1214
1169
882
589
369
46
-268
-337
-399
-776
-1343
-1801
-1889
-1621
-1674
-2420
-2997
-2758
-2317
-2149
-1938
-1548
-1161
-824
-556
-285
133
483
488
396
506
669
737
831
974
1012
858
535
111
-266
-481
-613
-740
-816
-881
-934
-724
-290
-194
-596
-860
-618
-309
-278
-287
-249
-378
-412
58
528
277
-278
-323
18
209
196
137
48
-12
53
181
228
190
185
244
295
321
369
488
647
710
633
507
342
138
43
86
87
37
163
474
680
724
806
897
816
516
-11
-568
-780
-810
-1052
-1131
-752
-748
-1561
-2162
-1886
-1494
-1597
-1753
-1554
-1253
-1063
-854
-650
-590
-554
-457
-412
-342
-169
-65
32
406
871
1038
1053
1251
1543
1708
1733
1650
1506
1440
1491
1529
1503
1554
1782
2059
2211
2278
2374
2498
2577
2504
2378
2540
2743
2180
1008
285
180
114
43
129
174
112
71
4
-180
-428
-619
-671
-673
-791
-954
-967
-862
-833
-937
-1078
-1189
-1287
-1386
-1459
-1499
-1553
-1657
-1750
-1773
-1791
-1850
-1882
-1921
-2009
-1945
-1685
-1484
-1310
-906
-338
58
-131
-975
-1767
-1893
-1715
-1712
-1822
-2000
-2263
-2286
-1719
-641
520
1274
1541
1767
2254
2705
2757
2479
2132
1734
1148
615
625
1102
1454
1469
1401
1399
1431
1495
1595
1668
1657
1618
1636
1631
1448
1137
821
499
350
683
1141
878
-58
-722
-772
-705
-783
-871
-949
-1077
-1205
-1279
-1330
-1389
-1414
-1386
-1350
-1317
-1285
-1321
-1406
-1431
-1418
-1449
-1489
-1502
-1531
-1554
-1488
-1342
-1257
-1318
-1404
-1331
-1139
-1072
-1237
-1381
-1128
-491
179
665
875
907
1226
1740
1579
792
365
499
911
1522
1836
1568
1423
1804
2254
2507
2631
2474
1919
1216
713
501
509
713
927
786
305
-51
-31
184
381
481
520
589
669
679
669
683
674
742
981
1166
1139
1066
947
555
133
471
1697
2536
1976
989
863
1129
900
414
173
211
349
294
-52
-414
-653
-917
-1217
-1422
-1506
-1543
-1627
-1794
-1954
-2039
-2133
-2277
-2360
-2342
-2366
-2471
-2536
-2555
-2615
-2683
-2697
-2711
-2786
-2883
-2929
-2966
-3065
-3098
-3056
-3152
-3074
-2385
-1770
-1888
-1920
-1186
-264
506
1361
2149
2664
3079
3440
3558
3385
3100
2922
2943
3097
3255
3341
3364
3253
2837
2161
1490
917
340
-209
-608
-901
-1216
-1561
-1853
-2019
-2019
-1877
-1683
-1500
-1345
-1241
-1180
-1087
-962
-806
-311
605
1035
187
-1113
-1505
-919
-180
277
571
842
1044
1211
1538
2041
2526
2897
3123
3119
2981
2993
3163
3145
2754
2215
1825
1679
1735
1928
2118
2121
1955
1825
1683
1334
1018
1077
1273
1253
1113
1038
1046
1016
617
-81
-248
278
298
-615
-1207
-880
-532
-672
-944
-1180
-1427
-1645
-1783
-1683
-1275
-848
-566
-304
-238
-624
-1212
-1696
-2107
-2455
-2702
-2921
-3130
-3293
-3432
-3529
-3603
-3722
-3847
-3963
-4053
-3875
-3379
-2947
-2718
-2485
-2315
-2354
-2425
-2494
-2828
-3098
-2518
-1466
-1126
-1340
-1103
-495
-47
352
811
1229
1709
2265
2689
3016
3450
3763
3505
2904
2667
2817
2839
2707
2675
2660
2563
2468
2321
2044
1784
1625
1398
1045
773
676
627
583
582
588
585
541
407
318
245
-55
-147
422
651
-251
-1014
-614
38
252
575
1250
1868
2240
2560
2984
3241
3053
2807
2792
2480
1648
857
359
-67
-479
-801
-893
-599
-177
-90
-317
-539
-672
-795
-984
-1339
-1800
-2137
-2305
-2461
-2667
-2889
-3052
-3026
-2935
-3072
-3065
-2288
-1471
-1893
-2994
-3238
-2770
-2623
-2532
-1972
-1617
-1826
-1748
-1058
-416
-80
190
410
537
684
911
1138
1250
1239
1220
1245
1261
1241
1262
1416
1640
1755
1742
1747
1781
1713
1562
1486
1526
1575
1556
1450
1237
900
548
543
1066
1450
945
46
-251
56
401
583
655
769
1090
1466
1684
1835
1987
2071
2167
2275
2196
1981
1739
1260
611
233
31
-445
-1098
-1628
-2136
-2703
-3111
-3306
-3450
-3529
-3410
-3165
-2931
-2681
-2451
-2402
-2470
-2420
-2403
-2810
-3209
-2630
-1501
-1301
-1894
-1865
-1161
-668
-380
-56
-48
-359
-348
252
945
1214
1187
1225
1213
968
770
793
818
792
764
609
382
281
238
182
258
448
547
515
480
574
805
1008
1094
1182
1267
1243
1273
1407
1373
1440
2162
2831
2348
1337
1054
1335
1534
1690
1823
1767
1724
1986
2499
2896
2789
2291
1958
2015
2251
2480
2458
1965
1252
692
256
-186
-609
-974
-1206
-1299
-1441
-1692
-1847
-1844
-1884
-2019
-2060
-1921
-1758
-1757
-1921
-2037
-2037
-2205
-2438
-2044
-1210
-1199
-2129
-2712
-2539
-2329
-2340
-2304
-2175
-2029
-1887
-1831
-1981
-2317
-2622
-2749
-2762
-2618
-2222
-1747
-1323
-869
-474
-291
-239
-191
-33
281
595
794
935
986
919
893
991
1086
1099
1136
1257
1294
1121
906
782
762
1113
1849
2189
1679
958
616
516
506
643
765
585
232
224
746
1440
1939
2160
2227
2301
2363
2312
2236
2210
2099
1840
1603
1480
1301
880
257
-353
-699
-656
-403
-275
-380
-612
-917
-1166
-1193
-1185
-1359
-1481
-1490
-1579
-1294
-447
-276
-1351
-2223
-2044
-1709
-1694
-1596
-1420
-1339
-1148
-864
-812
-958
-1043
-1086
-1117
-927
-481
-25
281
457
573
678
683
501
332
449
760
1004
1157
1314
1480
1671
1849
1842
1663
1672
2081
2481
2351
1993
2068
2350
2307
2244
2226
1508
332
-155
-11
-3
-91
-98
-191
-274
-277
-352
-294
108
451
462
567
1074
1692
2105
2231
2079
1911
1945
1844
1451
1272
1341
1171
920
807
384
-346
-745
-802
-1012
-1423
-1773
-1954
-1991
-1967
-2044
-2263
-2202
-1456
-715
-1050
-2004
-2310
-2021
-1917
-1957
-1848
-1766
-1811
-1823
-1753
-1683
-1656
-1643
-1590
-1496
-1420
-1369
-1320
-1300
-1323
-1364
-1469
-1668
-1842
-1949
-2086
-2203
-2219
-2246
-2321
-2418
-2649
-2831
-2488
-1671
-895
-466
-486
-842
-1261
-1861
-2571
-2523
-1751
-1706
-2520
-2717
-2110
-1656
-1394
-1055
-796
-536
-356
-594
-807
-459
32
358
811
1283
1473
1586
1826
2072
2271
2449
2570
2674
2816
2942
2999
3009
3000
2989
2985
3009
3085
3155
3155
3161
3205
3144
3004
2892
2632
2381
2745
3318
2967
2070
1921
2367
2526
2489
2601
2722
2799
2895
2922
2901
2933
2989
3044
3097
3090
3040
2916
2604
2262
2112
2007
1883
1938
1929
1408
633
249
345
474
309
-60
-405
-690
-1000
-1314
-1570
-1791
-1938
-1963
-2063
-2234
-1966
-1376
-1490
-2378
-2856
-2561
-2242
-2204
-2194
-2159
-2171
-2201
-2204
-2175
-2151
-2107
-1957
-1759
-1691
-1734
-1713
-1645
-1685
-1790
-1804
-1732
-1693
-1730
-1804
-1864
-1906
-1941
-1941
-1903
-1876
-1851
-1802
-1794
-1843
-1870
-1890
-1942
-1956
-2017
-2191
-2029
-1367
-1096
-1734
-2359
-2269
-1987
-1952
-1960
-1914
-1916
-1925
-1874
-1804
-1784
-1767
-1611
-1250
-748
-198
276
534
531
372
244
207
151
150
460
1026
1477
1652
1660
1638
1690
1838
1978
1990
1895
1800
1673
1437
1198
928
460
177
491
707
178
-277
175
1043
1642
1950
2119
2274
2430
2367
2054
1791
1665
1544
1449
1434
1440
1441
1451
1490
1603
1731
1741
1651
1560
1477
1373
1258
1153
1054
958
902
894
839
696
602
700
922
1094
1206
1306
1251
1136
1416
1837
1484
538
119
373
633
751
892
1004
1061
1038
827
527
382
370
331
308
399
529
629
726
779
679
435
178
-5
-127
-236
-341
-427
-491
-540
-564
-555
-613
-937
-1472
-1833
-1910
-2045
-2300
-2391
-2445
-2685
-2664
-2218
-2274
-3194
-3875
-3704
-3412
-3416
-3374
-3250
-3311
-3466
-3479
-3363
-3184
-2870
-2455
-2164
-2024
-1817
-1543
-1422
-1467
-1491
-1407
-1282
-1218
-1148
-890
-498
-219
-82
41
126
167
310
580
827
1012
1201
1350
1427
1567
1729
1683
1709
2248
2728
2345
1641
1544
1852
2007
2052
2169
2336
2506
2636
2721
2805
2874
2864
2727
2468
2203
2069
2073
2138
2201
2188
1976
1520
940
383
-148
-691
-1155
-1375
-1308
-1016
-518
97
558
686
665
733
842
948
1199
1474
1576
1859
2331
2051
920
199
238
124
-387
-835
-1171
-1514
-1770
-1945
-2113
-2228
-2279
-2289
-2168
-1841
-1408
-1054
-851
-690
-501
-426
-527
-596
-530
-472
-484
-494
-487
-488
-513
-602
-790
-1057
-1286
-1346
-1323
-1355
-1271
-977
-935
-1380
-1595
-1114
-792
-1388
-2155
-2147
-1677
-1428
-1398
-1335
-1236
-1148
-1020
-884
-825
-754
-583
-534
-637
-401
282
782
785
683
773
973
1189
1369
1466
1522
1564
1525
1404
1188
825
545
683
1083
1332
1340
1164
846
598
485
203
-125
123
664
458
-346
-645
-332
-122
-172
-225
-269
-383
-493
-488
-395
-366
-432
-461
-416
-386
-352
-267
-239
-296
-212
134
551
873
1144
1398
1577
1684
1769
1831
1862
1891
1932
1935
1844
1701
1566
1370
1137
1027
930
786
1065
1735
1784
950
243
249
604
816
664
359
256
323
407
498
455
189
-114
-334
-529
-724
-955
-1244
-1468
-1517
-1470
-1421
-1335
-1187
-1049
-982
-964
-949
-921
-886
-830
-754
-694
-672
-672
-656
-620
-597
-534
-417
-440
-503
-113
459
272
-485
-700
-301
-46
-91
-177
-268
-365
-414
-420
-432
-536
-717
-781
-664
-551
-514
-437
-313
-218
-114
34
140
169
193
191
75
-52
-11
126
146
47
7
36
-47
-237
-300
-142
151
430
394
57
123
743
899
214
-362
-378
-389
-697
-1118
-1556
-2017
-2304
-2103
-1546
-1089
-735
-213
328
662
917
1204
1448
1612
1705
1782
1932
2043
1925
1688
1505
1256
833
408
186
187
219
56
-242
-480
-663
-796
-738
-517
-419
-576
-562
37
547
13
-987
-1232
-858
-632
-566
-468
-419
-362
-239
-183
-187
-135
-80
-98
-155
-211
-224
-208
-277
-403
-448
-517
-755
-973
-973
-845
-769
-855
-1029
-1024
-787
-544
-349
-137
-9
15
96
258
448
702
870
834
1075
1787
2023
1297
682
917
1377
1560
1624
1609
1483
1384
1333
1216
1049
959
989
1031
1016
1024
1082
1094
1053
1046
1020
826
483
145
-121
-285
-336
-448
-653
-597
-205
77
78
23
-39
-135
-209
-323
-444
-450
-526
-610
-175
399
16
-972
-1253
-860
-631
-610
-555
-543
-573
-573
-594
-621
-582
-481
-362
-303
-334
-368
-343
-292
-238
-195
-186
-199
-231
-278
-311
-347
-430
-519
-572
-638
-727
-761
-732
-731
-757
-702
-578
-462
-276
-102
-169
-79
606
1059
515
-179
-225
40
