# session 5
-45
-85
59
-118
-769
-1213
-1158
-1046
-1064
-1044
-995
-988
-958
-889
-821
-770
-758
-758
-725
-704
-695
-620
-608
-691
-409
246
304
-492
-1029
-784
-442
-365
-310
-239
-228
-215
-187
-168
-133
-92
-63
-27
12
36
57
80
92
95
106
127
151
173
190
195
187
167
145
120
90
69
79
112
146
173
170
140
144
166
168
212
210
85
277
907
1018
207
-414
-202
158
239
282
338
334
334
303
200
135
151
187
222
256
264
259
254
235
204
180
167
161
155
139
123
111
73
-3
-77
-127
-162
-185
-205
-238
-284
-347
-404
-424
-447
-481
-439
-431
-543
-332
316
454
-312
-887
-631
-233
-136
-80
5
18
30
66
77
90
124
154
177
201
225
245
251
236
213
200
194
196
211
224
211
173
130
99
77
52
31
28
32
41
60
63
45
42
41
25
56
56
-81
14
576
818
159
-531
-449
-105
-30
-28
21
11
-9
7
14
21
46
66
74
80
84
84
58
-4
-59
-78
-83
-87
-86
-93
-117
-151
-179
-192
-208
-241
-263
-245
-229
-235
-220
-195
-207
-215
-207
-211
-165
-127
-256
-209
370
745
162
-593
-569
-194
-94
-107
-63
-61
-69
-35
-11
-3
20
43
60
81
111
137
132
104
93
101
109
125
150
160
146
119
86
56
32
1
-28
-39
-37
-15
30
41
-4
-29
-22
-47
-39
-5
-115
-125
366
794
354
-409
-525
-211
-79
-74
-29
-25
-45
-26
-10
-9
7
32
50
61
67
76
86
86
84
88
98
108
117
120
105
70
33
9
-17
-51
-74
-76
-69
-59
-33
-18
-45
-64
-51
-69
-63
-12
-110
-163
329
852
411
-483
-643
-246
-53
-33
29
51
38
63
84
88
103
126
152
173
184
196
204
191
176
172
161
146
147
155
138
101
69
49
26
-9
-39
-46
-47
-55
-49
-42
-62
-78
-82
-119
-117
-71
-171
-210
255
701
234
-618
-752
-358
-158
-127
-62
-55
-85
-59
-26
-12
13
14
-7
33
104
89
12
-11
1
-17
-24
10
31
-13
-115
-232
-314
-372
-430
-456
-419
-356
-300
-242
-171
-119
-118
-120
-87
-86
-86
-35
-110
-201
204
767
476
-390
-624
-225
13
31
91
124
106
127
153
159
187
227
263
296
316
327
343
347
326
303
297
299
306
309
302
287
260
222
181
138
95
68
65
76
96
98
57
24
26
3
3
50
-47
-145
271
849
592
-253
-540
-221
-20
-19
18
44
19
20
53
56
-11
-83
-73
-79
-214
-345
-358
-389
-514
-607
-620
-608
-563
-484
-436
-421
-387
-340
-306
-275
-241
-210
-177
-131
-70
-37
-59
-67
-33
-43
-47
13
-66
-150
300
864
496
-419
-643
-249
-29
-2
67
103
102
130
140
143
183
218
227
244
273
288
288
290
285
253
220
223
238
219
185
164
145
114
77
49
28
-1
-32
-26
18
31
-6
-21
-18
-44
-24
4
-112
-54
491
771
100
-669
-612
-207
-73
-47
19
28
21
44
50
56
85
109
117
132
155
177
184
173
152
129
110
109
122
123
102
75
65
61
35
-6
-28
-26
-24
-20
-3
-9
-38
-47
-64
-95
-61
-70
-239
-130
497
770
104
-576
-485
-160
-110
-130
-91
-84
-85
-71
-69
-59
-32
-23
-31
-17
28
58
52
37
12
-23
-26
2
13
5
-3
-31
-77
-109
-126
-148
-173
-177
-157
-134
-124
-153
-198
-195
-179
-193
-157
-160
-314
-170
478
687
-67
-738
-611
-323
-296
-238
-122
-141
-202
-175
-115
-66
-20
-4
-12
3
10
-12
19
85
52
-42
-60
-44
-56
-33
25
30
-13
-29
-13
-16
-44
-54
-24
19
33
10
-1
35
60
83
131
31
-67
418
1111
779
-313
-663
-189
86
44
88
158
160
175
174
147
184
257
281
312
398
444
417
415
440
409
351
352
390
359
228
120
116
122
94
121
157
91
29
78
118
45
-32
-21
-104
-433
-721
-761
-801
-679
-10
401
-363
-1343
-1265
-596
-253
-198
-97
67
144
98
112
265
364
322
249
225
258
303
293
238
236
355
525
592
555
565
618
564
430
345
267
156
121
127
-4
-175
-181
-109
-126
-207
-243
-141
6
-26
13
579
1117
635
-442
-878
-637
-471
-498
-492
-508
-561
-544
-532
-646
-789
-788
-655
-546
-450
-243
-60
-94
-152
-56
-36
-154
-151
-70
-68
29
218
212
83
56
53
62
148
180
214
382
323
-149
-418
-194
-155
-539
-486
220
372
-527
-1268
-1119
-729
-477
-117
221
262
154
123
134
94
48
38
-21
-91
6
183
202
147
261
482
525
377
365
550
589
373
149
107
245
360
283
210
336
427
266
47
7
91
113
-1
-200
-309
-43
575
879
294
-744
-1241
-914
-501
-593
-792
-730
-739
-751
-339
33
-134
-216
191
541
588
630
753
884
944
813
580
457
413
332
268
254
202
107
72
127
212
282
297
256
174
22
-128
-117
-71
-185
-258
-210
-200
226
1238
1590
750
123
319
418
333
552
639
264
-40
-1
59
-41
-145
-77
89
108
-51
-184
-187
-156
-202
-291
-316
-332
-420
-475
-471
-557
-702
-809
-893
-826
-610
-630
-823
-671
-355
-416
-641
-629
-458
-215
-11
104
686
1668
1616
232
-774
-652
-357
-311
-168
-10
-67
-146
-51
49
-57
-278
-431
-494
-501
-466
-398
-316
-317
-458
-546
-396
-249
-385
-478
-148
216
188
83
204
404
557
527
283
188
372
493
452
372
260
221
218
17
-24
482
712
-56
-922
-968
-647
-529
-455
-263
-151
-289
-464
-368
-176
-151
-49
249
384
351
527
864
1024
979
913
865
791
715
646
558
479
421
369
368
429
487
508
533
671
914
1008
795
419
65
-199
-467
-752
-536
319
605
-377
-1357
-1291
-771
-426
-154
101
158
-3
-75
100
179
2
-89
18
97
142
257
341
301
193
59
-89
-243
-523
-1016
-1532
-1794
-1720
-1460
-1297
-1320
-1327
-1230
-1126
-996
-800
-620
-468
-311
-205
-165
-71
313
1097
1871
2028
1572
957
525
500
710
581
150
11
117
63
-22
51
104
80
131
257
336
348
324
266
212
177
119
64
66
53
-17
-31
81
271
403
358
285
338
280
83
87
153
-10
-146
-90
10
136
183
251
794
1295
657
-536
-842
-471
-395
-476
-295
-104
-148
-244
-177
8
87
-17
-100
-55
-39
-48
96
248
213
198
263
158
22
143
266
141
32
56
-39
-265
-394
-392
-339
-286
-332
-455
-485
-380
-218
-41
-12
-298
-523
-107
441
-27
-1163
-1505
-992
-720
-791
-635
-373
-266
-57
299
426
309
264
246
117
147
345
272
73
211
399
330
345
483
399
181
48
-78
-203
-251
-262
-188
-12
40
-78
-67
115
124
-161
-414
-380
-252
-263
-144
456
1180
1296
682
-66
-290
122
611
689
563
478
247
-86
-217
-197
-206
-172
-64
10
30
63
192
443
645
615
466
378
282
116
4
-22
-48
-77
-109
-145
-126
-95
-68
96
193
-125
-517
-484
-247
-237
-470
-507
183
1076
887
-165
-623
-324
-125
-150
-191
-319
-453
-461
-411
-313
-134
30
93
79
95
140
27
-171
-138
-65
-247
-309
-109
-84
-133
28
88
54
286
466
287
131
114
-17
-132
-91
-84
-148
-167
-152
-105
-83
-155
34
672
905
130
-717
-791
-589
-557
-474
-369
-382
-346
-271
-258
-128
136
339
497
564
441
354
400
376
322
296
190
171
355
446
367
328
294
185
77
-52
-192
-210
-154
-153
-144
-57
23
35
7
-118
-466
-770
-392
450
521
-366
-940
-797
-643
-475
-67
45
-106
201
698
687
451
361
214
53
71
110
87
125
202
231
235
286
381
372
194
17
-83
-210
-320
-310
-276
-289
-276
-233
-212
-200
-197
-181
-67
110
208
188
187
519
1148
1236
373
-471
-505
-179
15
104
90
28
94
169
-30
-387
-522
-438
-443
-568
-622
-536
-334
-130
-34
24
19
-173
-379
-460
-544
-451
-32
154
-81
-33
375
490
441
629
684
432
325
367
204
-59
-231
-322
-17
783
1134
398
-480
-523
-99
137
133
18
-83
-74
-75
-170
-203
-157
-153
-118
-33
-90
-168
61
403
436
300
302
248
-6
-161
-121
-137
-241
-276
-213
-90
9
-2
-47
-52
-96
-163
-189
-267
-335
-230
-155
-87
513
1268
892
-478
-1219
-848
-368
-285
-260
-162
-147
-179
-72
169
338
415
485
411
339
670
1004
673
108
-10
55
-42
-101
-58
-87
-142
-122
-99
-75
15
75
-8
-142
-194
-197
-263
-368
-392
-357
-358
-403
-477
-321
408
1172
964
9
-559
-495
-373
-406
-420
-374
-349
-337
-254
-95
32
80
116
147
134
116
92
-33
-221
-341
-381
-277
27
181
-86
-286
29
376
185
-249
-365
-222
-116
30
191
93
-30
161
298
205
243
348
606
1543
2324
1493
-108
-602
-177
7
-25
107
214
203
225
265
297
366
424
409
312
128
-82
-259
-398
-450
-407
-390
-448
-513
-482
-296
-93
-12
86
290
420
368
220
94
81
140
148
125
115
88
102
127
-41
-161
309
959
772
-81
-581
-534
-359
-226
-249
-447
-572
-538
-505
-545
-670
-824
-815
-667
-626
-589
-283
41
6
-81
206
496
332
36
-53
-76
-120
-218
-385
-384
-215
-161
-126
44
121
11
-72
21
144
114
177
366
70
-364
99
627
-3
-695
-428
-94
-143
-90
14
24
107
187
202
248
244
211
306
388
337
301
300
284
341
416
388
348
382
385
313
230
151
58
-28
-78
-88
-112
-225
-353
-324
-174
-137
-238
-255
-221
-309
-173
451
774
167
-579
-694
-521
-351
-63
114
21
7
149
144
39
83
180
139
47
50
120
172
193
192
191
242
331
344
221
48
-73
-150
-228
-285
-289
-252
-214
-207
-197
-131
-69
-84
-102
-41
33
27
145
735
1413
1214
221
-409
-312
-105
-64
-43
-17
1
29
45
57
83
102
83
17
-60
-87
-67
-4
143
274
247
176
183
122
-54
-145
-100
-76
-173
-329
-352
-218
-163
-233
-268
-290
-335
-347
-387
-425
-436
-537
-257
794
1386
437
-779
-900
-532
-425
-348
-203
-190
-214
-130
7
143
240
213
89
-1
-10
22
59
74
47
-25
-103
-122
-101
-107
-111
-72
-25
36
129
185
187
228
300
293
213
169
170
151
136
132
24
-42
377
999
827
-104
-614
-366
-110
-163
-225
-216
-266
-344
-334
-207
-68
-77
-200
-220
-77
51
62
40
49
71
79
44
-39
-86
-33
44
53
23
-17
-64
-62
-18
-20
-49
-58
-84
-97
-68
-88
-116
-96
-189
-139
519
1076
519
-415
-490
-52
126
164
242
232
188
204
214
203
203
197
185
201
247
289
317
335
337
325
289
211
154
173
196
179
165
137
75
37
21
14
53
48
-79
-169
-158
-198
-266
-300
-408
-333
294
801
277
-641
-776
-353
-164
-170
-102
-55
-72
-88
-93
-58
-80
-292
-495
-443
-286
-232
-227
-201
-181
-186
-214
-223
-162
-99
-113
-130
-92
-75
-112
-148
-156
-136
-96
-78
-104
-141
-150
-110
-30
-24
-150
-57
519
914
435
-298
-377
-61
65
56
70
37
-11
-10
-4
-12
-9
2
21
48
70
91
114
96
31
-11
12
61
104
138
144
117
89
72
40
-5
-4
56
111
117
88
63
75
85
77
102
38
-87
287
1104
1175
229
-444
-313
-117
-143
-123
-86
-109
-103
-80
-82
-81
-70
-46
-5
22
34
55
69
79
100
106
90
107
153
169
149
125
77
-3
-59
-73
-83
-83
-62
-73
-114
-116
-111
-131
-120
-170
-271
-5
564
524
-283
-798
-581
-276
-207
-178
-153
-157
-130
-107
-109
-83
-35
-9
9
50
102
131
133
139
148
130
114
135
170
194
211
210
174
127
98
80
66
69
89
92
68
58
56
35
49
52
-64
10
530
807
220
-471
-434
-98
-17
-26
17
6
-18
3
12
-6
-13
-9
-6
-4
3
11
5
-14
-31
-47
-63
-60
-43
-46
-89
-144
-188
-241
-316
-376
-398
-393
-364
-338
-347
-354
-336
-331
-295
-235
-308
-296
213
691
266
-540
-642
-253
-91
-86
-13
19
12
60
110
124
136
159
174
172
171
188
201
195
197
217
235
247
257
255
237
204
151
84
27
-9
-30
-30
-3
14
-17
-50
-46
-63
-76
-27
-80
-196
113
689
575
-213
-590
-343
-151
-142
-59
10
-21
-30
6
20
35
81
133
173
202
230
263
292
311
323
338
356
365
364
350
302
228
162
100
34
-13
-33
-25
4
-6
-47
-40
-40
-84
-47
-45
-176
80
749
695
-312
-941
-681
-333
-228
-136
-86
-117
-124
-110
-98
-74
-61
-52
-25
-7
3
31
54
55
47
33
19
13
-5
-36
-54
-64
-100
-153
-191
-210
-228
-229
-205
-199
-217
-212
-215
-237
-182
-153
-286
-151
466
651
-128
-826
-671
-293
-201
-168
-102
-103
-104
-78
-70
-55
-26
-10
13
51
76
95
131
169
192
212
236
258
275
283
270
243
205
153
104
74
64
79
105
98
71
62
36
19
81
43
-157
10
662
828
122
-440
-295
-64
-100
-135
-97
-84
-65
-34
-35
-27
10
43
77
119
128
108
109
130
133
122
125
145
156
138
95
45
-7
-60
-107
-140
-151
-124
-86
-89
-112
-102
-99
-102
-51
-85
-198
92
724
703
-148
-701
-497
-207
-153
-123
-89
-98
-82
-62
-73
-61
-42
-72
-106
-94
-78
-80
-70
-55
-65
-85
-77
-37
14
