# session 19
-4
-6
-20
-24
-22
-40
-46
-28
-65
-86
101
371
437
381
391
386
360
380
293
293
875
1494
1043
-35
-411
-101
100
121
180
199
174
184
188
170
171
180
181
189
213
245
277
306
334
356
358
335
300
261
218
165
106
46
-9
-52
-78
-87
-89
-92
-95
-97
-100
-109
-122
-134
-148
-173
-197
-203
-190
-164
-139
-143
-174
-194
-186
-190
-216
-210
-195
-216
-192
-167
-270
-100
622
940
94
-868
-883
-482
-335
-275
-179
-166
-171
-135
-116
-109
-90
-74
-53
-15
23
66
123
180
223
250
260
252
225
182
134
89
38
-14
-52
-77
-90
-88
-85
-85
-76
-67
-69
-69
-65
-73
-88
-102
-116
-119
-99
-69
-51
-53
-70
-85
-86
-90
-99
-83
-69
-86
-62
-55
-149
72
799
1052
182
-721
-688
-300
-177
-127
-42
-32
-38
-11
1
8
28
39
54
88
126
165
213
262
302
321
312
289
261
222
175
130
89
44
2
-30
-46
-51
-47
-37
-27
-26
-28
-30
-34
-42
-56
-78
-95
-93
-73
-46
-26
-29
-53
-74
-79
-82
-93
-89
-75
-91
-85
-58
-137
-48
604
1121
524
-519
-744
-365
-177
-154
-82
-55
-67
-43
-28
-27
-9
9
23
49
83
120
162
209
252
279
281
266
242
206
158
112
71
30
-13
-48
-67
-72
-70
-64
-56
-52
-51
-51
-53
-58
-64
-70
-81
-99
-114
-118
-104
-73
-42
-36
-56
-79
-87
-86
-93
-94
-78
-81
-87
-55
-99
-115
359
1039
832
-198
-740
-475
-203
-173
-123
-73
-83
-71
-47
-49
-40
-20
-4
17
44
74
112
156
196
228
246
243
224
196
158
114
72
32
-8
-42
-65
-75
-75
-69
-59
-49
-41
-36
-36
-39
-43
-47
-52
-57
-59
-64
-78
-96
-111
-113
-91
-51
-22
-24
-46
-63
-69
-70
-76
-71
-55
-63
-61
-37
-97
-35
525
1047
582
-412
-719
-381
-174
-161
-108
-77
-89
-72
-53
-55
-46
-29
-13
9
36
68
108
152
192
225
242
239
222
194
158
119
77
37
-1
-35
-59
-71
-70
-64
-57
-49
-40
-33
-32
-34
-37
-41
-46
-49
-53
-60
-62
-62
-72
-92
-106
-98
-67
-23
3
-4
-28
-44
-46
-45
-51
-44
-33
-44
-30
-12
-76
78
713
1080
409
-519
-639
-284
-138
-122
-60
-41
-49
-28
-21
-24
-11
5
18
39
66
95
132
174
214
244
256
250
228
198
162
117
69
26
-12
-45
-67
-78
-78
-69
-60
-55
-51
-47
-48
-51
-57
-64
-69
-68
-69
-76
-82
-79
-78
-90
-108
-123
-131
-119
-83
-39
-20
-38
-65
-72
-67
-76
-76
-55
-67
-77
-37
-81
-81
419
1036
706
-336
-785
-473
-205
-161
-94
-49
-62
-46
-20
-18
-11
5
23
49
77
102
141
191
241
282
305
306
296
275
233
180
131
85
31
-20
-53
-64
-65
-67
-68
-63
-55
-51
-59
-70
-70
-69
-74
-78
-81
-91
-101
-110
-126
-135
-129
-109
-76
-48
-52
-78
-86
-76
-86
-105
-87
-71
-90
-60
-51
-130
151
890
1016
40
-804
-685
-304
-199
-138
-55
-56
-55
-22
-19
-23
-2
23
41
68
104
143
189
247
303
336
342
324
291
248
199
147
92
40
-7
-45
-69
-78
-76
-70
-63
-57
-54
-49
-50
-57
-62
-63
-68
-76
-81
-87
-95
-106
-120
-126
-111
-77
-47
-41
-56
-74
-76
-75
-85
-81
-67
-81
-76
-47
-106
3
624
1072
451
-556
-752
-378
-192
-159
-83
-60
-71
-44
-29
-32
-14
5
16
39
71
104
146
195
241
276
295
295
276
239
191
142
93
48
6
-32
-61
-74
-73
-67
-61
-54
-49
-48
-47
-47
-50
-56
-61
-65
-69
-77
-96
-115
-124
-121
-100
-62
-37
-45
-66
-77
-76
-77
-80
-69
-62
-75
-52
-48
-108
140
818
1016
187
-644
-608
-257
-161
-136
-73
-69
-73
-48
-40
-38
-22
-9
6
32
60
93
135
177
215
248
260
250
226
193
150
101
55
15
-20
-51
-73
-81
-78
-72
-65
-59
-55
-56
-55
-51
-49
-49
-51
-54
-57
-60
-70
-89
-106
-110
-97
-62
-25
-15
-32
-49
-51
-48
-54
-51
-36
-44
-45
-21
-72
-7
552
1091
653
-337
-663
-341
-140
-128
-72
-38
-50
-34
-20
-25
-16
0
10
28
56
81
113
156
200
233
251
251
234
206
168
123
77
34
-8
-48
-79
-92
-94
-92
-89
-84
-78
-74
-71
-71
-74
-80
-85
-90
-94
-97
-100
-111
-130
-147
-152
-136
-93
-49
-42
-64
-82
-79
-74
-81
-76
-57
-65
-61
-29
-89
-32
547
1106
648
-376
-711
-383
-175
-153
-87
-49
-63
-44
-24
-25
-13
6
15
32
65
99
136
182
232
271
290
291
280
259
224
178
129
80
30
-16
-47
-59
-63
-66
-64
-58
-52
-48
-51
-58
-62
-63
-67
-79
-92
-108
-120
-111
-81
-52
-41
-53
-85
-103
-95
-95
-100
-84
-91
-104
-57
-93
-137
329
1035
802
-303
-874
-583
-274
-203
-126
-75
-82
-58
-31
-30
-18
1
17
45
76
106
149
199
252
307
343
345
325
293
245
187
132
80
32
-7
-40
-65
-74
-77
-78
-69
-59
-59
-58
-54
-59
-66
-68
-76
-89
-102
-112
-120
-110
-78
-51
-50
-69
-84
-86
-85
-97
-94
-72
-80
-79
-42
-102
-64
513
1094
630
-435
-785
-438
-206
-167
-92
-52
-62
-43
-27
-29
-18
-3
9
29
55
83
123
171
219
259
281
279
259
225
181
133
86
39
-4
-40
-67
-82
-85
-82
-78
-71
-66
-64
-62
-63
-68
-70
-73
-88
-108
-120
-119
-104
-71
-40
-40
-62
-78
-81
-82
-90
-82
-65
-77
-74
-51
-118
-33
582
1115
603
-413
-697
-357
-169
-154
-93
-65
-78
-56
-36
-38
-29
-14
-1
22
50
78
115
161
205
238
258
260
245
216
179
137
92
49
9
-26
-53
-65
-67
-65
-60
-52
-45
-42
-42
-42
-45
-47
-48
-58
-78
-95
-100
-89
-58
-20
-8
-27
-50
-59
-61
-70
-75
-59
-60
-69
-38
-71
-112
292
995
938
-29
-677
-494
-201
-154
-116
-65
-71
-64
-42
-43
-38
-21
-10
8
35
61
93
134
173
209
236
242
232
211
176
132
88
41
-9
-47
-73
-96
-108
-106
-100
-98
-96
-91
-89
-90
-89
-89
-100
-121
-136
-142
-138
-116
-78
-55
-71
-100
-106
-94
-103
-117
-96
-86
-105
-72
-83
-161
174
929
997
10
-764
-613
-266
-187
-135
-69
-73
-62
-26
-23
-23
-7
8
36
72
97
119
162
223
281
310
309
298
281
251
208
160
111
65
21
-18
-41
-49
-46
-32
-19
-22
-27
-20
-12
-12
-17
-23
-32
-44
-52
-41
-11
7
0
-13
-28
-42
-46
-54
-53
-40
-55
-56
-23
-101
-69
529
1108
594
-501
-828
-452
-214
-168
-84
-46
-60
-41
-27
-34
-24
-7
2
15
36
65
100
138
182
221
234
226
210
178
131
79
30
-20
-65
-100
-127
-144
-142
-131
-123
-120
-111
-104
-103
-100
-95
-98
-116
-138
-151
-145
-120
-87
-65
-69
-89
-99
-96
-97
-101
-86
-79
-90
-63
-75
-154
137
893
1097
226
-604
-548
-213
-137
-110
-45
-43
-44
-17
-9
-5
11
20
34
62
90
117
153
195
232
257
265
256
232
197
156
113
70
28
-12
-43
-64
-75
-76
-71
-64
-55
-46
-44
-49
-55
-58
-64
-79
-98
-110
-107
-81
-44
-30
-47
-69
-76
-72
-77
-85
-71
-63
-73
-49
-60
-134
148
866
1040
174
-636
-568
-226
-145
-123
-61
-59
-65
-42
-36
-34
-18
-6
8
33
58
87
128
174
213
238
245
236
218
191
152
108
66
25
-14
-45
-64
-74
-76
-70
-61
-54
-49
-45
-43
-45
-48
-50
-60
-80
-102
-113
-103
-70
-30
-17
-36
-60
-67
-64
-72
-77
-63
-65
-73
-37
-69
-120
285
995
924
-61
-698
-495
-202
-163
-128
-83
-95
-88
-61
-64
-65
-47
-29
-12
7
30
64
110
156
193
213
217
211
193
164
125
81
42
5
-37
-70
-83
-84
-83
-74
-64
-62
-63
-63
-63
-60
-57
-65
-84
-100
-107
-111
-105
-76
-41
-33
-52
-74
-77
-69
-74
-70
-55
-74
-73
-29
-93
-36
578
1118
554
-521
-794
-409
-192
-154
-72
-38
-52
-32
-17
-11
12
24
23
45
85
119
158
207
255
293
314
313
294
264
224
178
134
88
39
-3
-32
-46
-49
-45
-38
-35
-37
-38
-34
-32
-39
-53
-67
-81
-93
-98
-89
-64
-42
-45
-69
-88
-92
-97
-104
-90
-85
-103
-74
-73
-176
56
785
1008
130
-738
-682
-308
-200
-161
-89
-85
-86
-59
-56
-54
-35
-25
-11
20
48
76
117
160
197
225
238
229
208
180
145
103
58
15
-22
-52
-75
-87
-88
-80
-74
-71
-69
-66
-66
-65
-64
-71
-87
-101
-111
-110
-85
-46
-25
-40
-66
-76
-72
-75
-82
-68
-60
-70
-43
-60
-125
202
934
1045
140
-623
-516
-192
-132
-111
-53
-54
-54
-29
-27
-25
-5
10
23
45
72
99
132
169
205
230
235
226
209
184
147
104
66
31
-8
-42
-59
-62
-61
-57
-48
-41
-37
-36
-40
-42
-41
-49
-72
-92
-99
-91
-60
-23
-17
-45
-68
-70
-68
-81
-83
-65
-74
-79
-46
-111
-131
373
1027
745
-283
-755
-465
-206
-171
-117
-75
-87
-74
-53
-54
-47
-32
-20
1
26
51
84
126
167
202
227
232
222
205
177
139
98
56
12
-26
-50
-62
-69
-67
-58
-50
-46
-46
-45
-44
-47
-59
-73
-83
-85
-68
-34
-12
-17
-38
-57
-62
-65
-73
-61
-52
-75
-56
-39
-138
10
693
1046
293
-649
-716
-341
-192
-147
-68
-57
-66
-41
-34
-37
-22
-6
10
37
65
92
126
167
211
251
271
266
245
214
177
139
97
47
0
-39
-67
-75
-71
-70
-70
-67
-66
-62
-54
-61
-82
-99
-106
-99
-73
-47
-47
-68
-91
-99
-91
-98
-106
-87
-90
-108
-65
-97
-159
268
977
806
-267
-866
-596
-279
-202
-120
-55
-60
-44
-19
-20
-9
17
31
44
70
103
137
180
231
274
298
303
287
255
218
176
125
78
41
4
-32
-52
-58
-61
-60
-53
-47
-44
-40
-40
-50
-68
-80
-83
-74
-50
-24
-24
-50
-72
-77
-80
-96
-98
-81
-89
-89
-62
-132
-126
414
1053
719
-311
-735
-427
-191
-170
-111
-68
-81
-67
-46
-49
-42
-26
-15
1
28
57
91
129
168
202
221
222
209
185
151
114
76
35
-3
-35
-60
-75
-79
-76
-72
-67
-60
-54
-52
-53
-62
-79
-94
-102
-95
-67
-31
-21
-41
-66
-76
-76
-82
-85
-70
-69
-78
-50
-83
-137
246
975
993
51
-642
-491
-193
-151
-126
-73
-74
-67
-44
-45
-42
-27
-15
1
25
49
79
116
155
189
213
220
214
197
169
131
90
52
15
-23
-54
-75
-83
-83
-77
-70
-63
-54
-50
-52
-51
-48
-56
-75
-92
-100
-94
-64
-27
-19
-42
-65
-72
-72
-79
-81
-70
-78
-84
-53
-98
-124
327
1022
891
-99
-685
-462
-186
-152
-110
-61
-71
-60
-37
-43
-41
-21
-4
13
36
62
97
138
174
204
231
242
232
211
186
150
106
64
26
-8
-34
-53
-65
-67
-63
-58
-51
-44
-43
-47
-51
-53
-61
-81
-102
-111
-109
-95
-68
-46
-54
-82
-92
-81
-87
-106
-91
-79
-100
-72
-67
-144
145
886
1018
64
-769
-659
-289
-188
-133
-58
-61
-59
-28
-26
-22
3
17
32
61
86
113
159
210
249
278
297
295
271
236
196
151
101
56
17
-18
-47
-62
-64
-59
-52
-50
-49
-46
-47
-50
-52
-56
-66
-79
-94
-106
-106
-88
-61
-44
-54
-76
-88
-85
-89
-99
-84
-74
-93
-71
-70
-152
100
820
1020
136
-726
-675
-308
-198
-157
-84
-76
-75
-49
-49
-50
-33
-19
-5
21
46
72
110
152
191
224
240
236
219
192
155
114
73
33
-4
-35
-59
-73
-75
-69
-62
-54
-47
-43
-40
-36
-35
-38
-43
-51
-66
-87
-100
-101
-83
-45
-14
-19
-47
-65
-63
-61
-69
-64
-50
-60
-46
-34
-98
76
742
1112
418
-521
-633
-276
-135
-119
-58
-45
-55
-33
-24
-28
-16
-3
8
30
58
86
119
154
189
218
236
240
230
207
176
139
99
57
18
-16
-44
-62
-69
-69
-63
-56
-49
-42
-39
-38
-39
-41
-46
-52
-56
-63
-76
-94
-109
-115
-103
-69
-33
-26
-47
-68
-72
-74
-85
-82
-66
-78
-77
-52
-112
-30
563
1078
576
-425
-715
-380
-181
-163
-107
-78
-88
-69
-54
-56
-44
-29
-23
-7
19
46
77
114
153
189
214
222
212
193
168
135
96
57
18
-22
-53
-73
-85
-85
-75
-63
-58
-55
-53
-54
-55
-56
-62
-70
-71
-75
-90
-108
-119
-121
-104
-68
-40
-42
-64
-77
-75
-78
-87
-71
-59
-84
-68
-48
-119
80
770
1066
278
-644
-695
-330
-183
-138
-70
-64
-67
-35
-22
-21
-6
8
21
46
74
101
132
172
221
263
285
289
278
251
218
180
135
87
47
11
-25
-48
-52
-49
-48
-41
-32
-32
-34
-32
-36
-46
-44
-43
-61
-84
-90
-86
-78
-50
-22
-25
-49
-60
-55
-60
-70
-55
-47
-69
-40
-21
-110
108
847
1115
226
-727
-724
-331
-191
-134
-52
-47
-49
-15
-7
-12
0
11
25
53
79
104
141
189
235
273
297
294
271
238
199
152
101
51
2
-41
-72
-88
-92
-95
-96
-94
-89
-85
-83
-82
-84
-90
-96
-101
-108
-125
-144
-150
-141
-117
-81
-59
-71
-87
-91
-91
