# session 15
-135
-82
-271
-105
680
1310
1327
1212
1269
1309
1299
1312
1294
1253
1237
1205
1144
1091
1041
982
929
877
817
772
752
746
750
743
707
689
675
610
605
657
500
389
888
1404
924
40
-92
272
424
442
506
516
495
508
516
533
571
592
616
663
701
743
788
750
647
597
596
571
531
480
400
331
301
258
139
-123
-507
-810
-892
-852
-794
-743
-701
-548
-300
-270
-273
278
915
625
-157
-300
76
290
346
431
478
497
545
581
605
646
689
728
780
839
898
952
980
985
988
981
958
930
891
862
859
824
780
816
813
771
959
936
-314
-2513
-4372
-5783
-7263
-8160
-7799
-6679
-5231
-3757
-3172
-3512
-3489
-2743
-2088
-1731
-1383
-1088
-883
-656
-449
-298
-140
29
180
329
482
618
727
806
869
912
925
918
914
912
916
921
907
874
857
862
875
901
928
920
913
930
888
844
916
901
764
1048
1640
1469
508
17
322
634
685
729
769
751
741
745
748
760
768
772
788
812
837
856
851
820
782
738
675
608
564
538
509
471
428
394
372
358
357
356
322
286
287
252
195
228
201
41
253
870
877
29
-510
-251
76
122
134
159
147
136
137
176
189
32
-206
-346
-430
-456
-311
-153
-174
-136
18
-279
-1086
-1558
-1413
-1209
-1135
-992
-846
-785
-726
-640
-560
-515
-510
-504
-492
-458
-385
-433
-566
-284
326
312
-415
-804
-558
-326
-288
-215
-150
-157
-152
-131
-111
-69
-23
20
74
106
114
160
224
222
185
190
194
146
94
73
52
11
-33
-65
-73
-60
-33
-11
-21
-38
-39
-73
-91
-18
-60
-214
97
764
653
-302
-774
-424
-124
-103
-24
42
-13
-10
73
97
85
121
181
217
234
263
304
313
273
232
212
184
155
140
112
63
31
17
-5
-22
-21
-6
9
-2
-28
-24
-25
-36
11
-29
-188
49
664
625
-239
-734
-435
-101
-34
19
56
31
39
67
78
110
148
162
185
217
226
217
211
197
172
149
130
108
85
66
50
25
-13
-37
-39
-43
-45
-38
-53
-77
-77
-95
-116
-74
-123
-273
-29
579
567
-245
-733
-466
-162
-131
-106
-69
-91
-86
-54
-48
-32
3
33
61
86
95
101
107
103
102
112
112
95
75
58
38
7
-25
-31
-18
-16
-14
7
1
-32
-30
-35
-60
-18
-52
-216
2
639
659
-193
-726
-448
-123
-84
-46
10
-3
-1
22
29
54
93
113
134
166
194
208
205
190
175
157
119
73
35
6
-22
-57
-95
-116
-117
-117
-106
-79
-74
-88
-86
-111
-145
-90
-104
-260
-52
565
571
-281
-797
-491
-154
-131
-101
-28
-24
-27
-8
10
42
73
98
147
205
236
250
253
240
216
184
143
97
42
-20
-60
-81
-113
-145
-159
-166
-154
-112
-110
-156
-156
-148
-201
-167
-115
-278
-191
491
712
-199
-989
-749
-285
-191
-146
-46
-39
-48
-14
13
37
75
117
174
246
318
371
385
362
330
283
211
147
103
51
7
-7
-41
-100
-119
-102
-94
-73
-47
-66
-77
-68
-118
-117
-37
-155
-219
332
814
193
-748
-771
-303
-137
-95
10
14
-19
22
52
58
94
132
158
207
277
330
353
356
336
279
200
134
86
31
-21
-51
-79
-114
-138
-147
-141
-102
-68
-95
-122
-115
-143
-140
-64
-164
-287
156
742
391
-518
-745
-355
-123
-77
9
50
34
53
86
105
128
150
177
227
292
348
377
374
343
303
265
217
154
94
44
-2
-42
-80
-114
-135
-138
-115
-80
-86
-111
-99
-111
-135
-60
-79
-241
53
735
595
-454
-984
-615
-257
-177
-75
-3
-31
-39
-15
13
51
73
90
140
192
221
250
268
240
174
114
63
6
-41
-58
-74
-114
-148
-150
-154
-175
-174
-158
-178
-207
-190
-194
-238
-200
-168
-288
-178
374
527
-217
-884
-732
-343
-215
-164
-114
-123
-109
-68
-60
-42
8
46
77
121
155
169
174
166
138
96
52
20
4
-5
-20
-40
-54
-57
-62
-78
-73
-37
-34
-68
-64
-52
-81
-50
-24
-168
-111
446
698
17
-678
-539
-127
-17
8
90
108
108
146
167
177
215
256
278
308
355
386
385
377
369
345
315
300
287
265
243
211
170
156
165
157
159
198
212
182
176
169
146
185
155
-19
141
756
880
136
-426
-243
11
-13
-13
45
-25
-200
-386
-535
-620
-646
-617
-533
-452
-448
-519
-544
-438
-286
-197
-145
-98
-92
-115
-129
-142
-160
-156
-134
-104
-37
46
78
83
121
140
154
237
212
69
356
1034
1062
272
-201
40
320
380
445
507
511
531
568
588
616
660
689
703
754
834
864
844
813
755
741
741
397
-487
-1570
-2384
-2631
-2330
-1947
-1823
-1773
-1689
-1719
-1729
-1481
-1142
-972
-850
-620
-525
-585
-179
574
472
-522
-974
-529
-118
-24
75
171
189
222
276
324
365
383
404
469
538
577
608
630
617
573
525
488
457
414
370
341
308
270
252
237
209
212
246
245
211
207
199
165
197
192
24
132
732
904
126
-548
-368
17
101
127
184
169
158
186
193
195
218
237
256
299
344
355
342
328
296
247
215
190
141
89
53
9
-37
-57
-72
-105
-103
-59
-60
-112
-124
-128
-159
-137
-161
-323
-203
363
521
-158
-729
-577
-279
-229
-206
-153
-160
-161
-131
-119
-106
-75
-48
-23
11
45
65
66
59
55
42
6
-39
-77
-104
-126
-158
-198
-217
-205
-189
-158
-101
-84
-113
-111
-113
-145
-104
-120
-286
-60
659
751
-167
-824
-589
-240
-183
-134
-67
-70
-55
-26
-32
-9
54
94
128
197
268
296
294
285
261
210
147
100
62
7
-55
-94
-115
-136
-151
-155
-144
-121
-125
-159
-155
-138
-179
-170
-114
-204
-135
423
677
-75
-882
-789
-353
-204
-135
-25
-12
-22
20
34
30
78
153
208
255
315
372
388
353
305
268
221
161
114
85
58
32
5
-26
-43
-49
-51
-31
-10
-30
-45
-34
-69
-72
-5
-104
-175
315
809
294
-624
-714
-251
-48
-37
24
42
36
71
85
86
128
168
179
205
254
296
318
313
280
238
203
165
111
54
15
-10
-49
-94
-113
-114
-111
-83
-60
-88
-115
-114
-144
-136
-71
-187
-306
137
692
309
-583
-764
-362
-162
-147
-78
-52
-71
-43
-14
-8
15
42
64
103
151
185
204
207
195
175
143
100
63
39
9
-27
-60
-92
-116
-118
-102
-69
-42
-55
-75
-74
-104
-110
-41
-126
-252
186
819
474
-545
-859
-450
-197
-155
-59
-16
-45
-25
4
12
51
109
141
161
207
272
314
305
265
225
187
137
72
15
-17
-43
-77
-106
-121
-135
-151
-144
-107
-107
-147
-146
-141
-175
-142
-128
-233
-29
555
555
-308
-870
-593
-225
-148
-88
-11
-11
-9
21
41
67
101
131
180
235
266
288
306
294
252
197
142
104
82
50
13
-11
-29
-53
-70
-80
-81
-54
-39
-73
-93
-85
-107
-90
-51
-170
-165
349
704
121
-665
-663
-255
-101
-77
-10
1
-12
18
42
56
88
124
158
195
222
236
246
241
210
166
128
92
54
30
23
2
-39
-64
-69
-83
-92
-66
-47
-77
-96
-89
-113
-113
-76
-171
-237
144
589
266
-489
-660
-296
-86
-80
-37
-4
-20
-6
26
42
58
89
126
158
177
187
189
179
163
143
121
101
77
43
12
-7
-36
-74
-87
-83
-85
-77
-54
-57
-76
-70
-83
-109
-60
-73
-219
-32
550
579
-228
-761
-493
-140
-84
-55
3
-2
0
30
47
65
93
117
148
188
224
252
258
231
192
167
140
95
54
22
-18
-55
-84
-120
-146
-148
-143
-119
-92
-107
-122
-119
-154
-141
-81
-210
-269
263
743
194
-687
-731
-299
-144
-131
-53
-38
-55
-25
-2
6
40
82
117
163
221
270
292
288
268
228
173
125
86
42
2
-20
-41
-73
-101
-109
-101
-69
-24
-21
-54
-55
-63
-92
-43
-58
-215
33
731
724
-276
-905
-593
-220
-166
-94
-3
-18
-28
4
25
59
105
129
165
242
311
334
340
339
293
216
154
105
47
-6
-41
-71
-99
-124
-142
-147
-141
-118
-91
-100
-121
-111
-124
-136
-75
-111
-206
143
690
393
-566
-899
-477
-155
-97
-28
13
-5
13
44
58
89
126
154
191
237
276
304
311
286
235
173
117
73
37
8
-13
-37
-75
-105
-106
-101
-106
-94
-81
-104
-118
-114
-139
-119
-86
-227
-217
341
688
33
-760
-681
-235
-100
-90
-26
-18
-28
5
29
45
78
114
147
180
207
228
239
235
218
187
150
121
91
49
13
-7
-33
-70
-98
-107
-104
-86
-58
-55
-74
-79
-95
-120
-77
-84
-238
-108
465
587
-154
-720
-494
-149
-96
-75
-32
-49
-40
-5
2
31
82
102
117
160
206
232
240
230
201
166
132
99
61
21
-11
-39
-72
-106
-124
-133
-130
-96
-58
-73
-97
-86
-108
-121
-61
-140
-287
63
664
458
-403
-721
-387
-150
-112
-43
-7
-19
12
45
47
68
109
147
193
257
323
365
363
332
293
244
185
130
79
35
2
-32
-61
-75
-83
-101
-111
-82
-39
-37
-61
-88
-141
-132
-62
-145
-144
396
809
158
-804
-881
-428
-214
-151
-69
-54
-45
1
6
6
50
94
129
185
257
323
348
323
294
258
150
-3
-94
-111
-115
-121
-129
-152
-171
-158
-139
-129
-105
-97
-130
-132
-117
-152
-132
-81
-216
-212
341
692
72
-685
-626
-211
-67
-63
-25
13
58
93
91
101
139
165
181
217
267
293
285
269
251
215
176
141
89
39
25
18
-18
-66
-98
-114
-120
-94
-52
-55
-84
-88
-113
-135
-69
-102
-286
-69
571
579
-267
-766
-462
-138
-107
-66
-6
-27
-35
-9
13
50
92
113
134
170
207
235
252
251
224
179
136
97
47
-5
-38
-57
-81
-112
-138
-148
-136
-100
-77
-99
-109
-91
-119
-120
-61
-173
-256
234
760
283
-649
-790
-351
-135
-101
-25
4
3
30
39
51
99
138
167
217
261
280
306
339
330
267
194
150
116
67
18
-7
-26
-63
-101
-118
-122
-112
-87
-90
-127
-126
-117
-156
-124
-72
-199
-145
431
680
-87
-875
-747
-298
-155
-106
-24
-20
-25
12
26
33
73
117
152
192
235
271
285
271
240
195
135
81
43
15
-9
-26
-44
-69
-85
-88
-91
-83
-67
-76
-98
-96
-110
-124
-80
-125
-250
-10
514
426
-335
-712
-405
-114
-83
-49
-4
-15
-8
24
41
64
101
133
163
190
204
208
208
198
175
146
114
86
64
41
15
-12
-44
-74
-83
-79
-77
-57
-38
-64
-86
-73
-97
-97
-40
-141
-215
245
719
235
-641
-726
-275
-80
-70
-4
27
21
42
57
72
109
142
168
205
235
253
266
267
247
213
170
128
94
68
39
4
-26
-54
-83
-100
-101
-85
-58
-59
-93
-98
-101
-141
-109
-94
-273
-191
451
666
-161
-886
-671
-241
-150
-113
-35
-35
-41
-8
7
22
63
106
137
173
219
254
265
261
240
193
137
86
40
-3
-38
-66
-97
-131
-154
-160
-148
-111
-76
-98
-131
-120
-141
-156
-80
-143
-278
121
752
452
-536
-854
-441
-169
-132
-51
-3
-23
-14
11
33
73
113
145
187
242
307
357
358
328
298
254
189
145
121
76
20
-8
-28
-66
-97
-109
-107
-76
-60
-102
-124
-106
-145
-158
-97
-170
-159
375
757
86
-855
-885
-395
-174
-122
-36
-13
-22
12
42
57
87
125
167
216
262
302
330
327
291
236
176
118
73
42
21
5
-19
-49
-61
-56
-68
-80
-63
-61
-89
-100
-110
-127
-88
-109
-248
-79
470
513
-250
-774
-511
-143
-74
-44
16
12
12
40
52
70
102
107
99
117
149
166
166
154
136
120
103
81
59
39
14
-13
-38
-58
-66
-69
-68
-46
-31
-57
-72
-64
-91
-91
-48
-153
-218
219
677
247
-581
-691
-270
-70
-62
-3
22
5
23
48
61
84
122
172
185
124
65
81
122
129
113
94
72
44
14
-14
-31
-52
-87
-108
-107
-108
-95
-56
-54
-94
-98
-100
-124
-70
-74
-250
-85
544
589
-298
-873
-547
-149
-93
-52
18
9
15
54
65
80
121
157
195
243
283
307
316
307
278
234
185
141
101
62
32
7
-25
-60
-81
-87
-80
-44
-17
-44
-67
-57
-87
-85
-17
-127
-239
222
756
289
-657
-795
-331
-119
-109
-34
-4
-17
11
28
23
49
91
124
163
211
253
275
274
261
236
188
124
67
24
-14
-43
-72
-113
-147
-152
-151
-145
-111
-98
-131
-142
-141
-176
-151
-145
-317
-229
396
613
-174
-887
-715
-313
-214
-176
-104
-103
-105
-74
-52
-27
11
41
82
149
217
267
295
301
281
238
185
138
94
44
1
-24
-53
-91
-112
-110
-106
-91
-61
-63
-91
-89
-104
-129
-59
-70
-230
61
785
694
-393
-982
-586
-187
-126
-40
43
18
23
70
91
111
140
169
221
287
341
386
413
394
337
278
224
166
109
64
33
13
-15
-55
-79
-81
-88
-84
-56
-61
-97
-93
-94
-116
-71
-92
-196
111
717
546
-440
-920
-547
-181
-104
-27
38
29
37
60
69
99
146
184
222
269
313
337
337
320
282
222
162
117
79
42
13
-12
-45
-80
-100
-108
-117
-111
-101
-128
-157
-153
-178
-199
-152
-224
-359
-15
586
379
-526
-878
-508
-233
-221
-181
-134
-137
-125
-118
-117
-71
