# session 34
-53
-214
360
-274
-2760
-4494
-4275
-3793
-3839
-3736
-3498
-3430
-3337
-3179
-3086
-2990
-2853
-2739
-2630
-2500
-2372
-2256
-2141
-2031
-1926
-1827
-1731
-1638
-1553
-1472
-1387
-1304
-1229
-1159
-1095
-1039
-978
-892
-782
-676
-600
-546
-495
-442
-391
-342
-285
-217
-170
-124
-39
-23
12
504
1219
1114
169
-380
-134
172
238
295
357
371
404
446
463
483
511
528
542
560
576
593
613
637
667
686
687
685
689
690
685
684
684
679
668
654
629
599
577
564
549
528
507
490
471
449
434
438
449
450
445
440
429
412
398
389
379
362
335
306
282
270
281
308
316
291
253
224
208
194
171
160
158
131
126
129
56
198
830
1222
578
-376
-562
-246
-105
-103
-68
-67
-86
-75
-68
-71
-66
-66
-69
-66
-69
-79
-85
-87
-91
-90
-81
-82
-104
-126
-138
-148
-156
-157
-162
-179
-204
-233
-263
-288
-302
-309
-314
-320
-325
-328
-324
-314
-305
-297
-290
-284
-277
-266
-257
-252
-249
-244
-242
-247
-253
-258
-253
-222
-171
-141
-146
-166
-179
-180
-176
-180
-171
-156
-167
-156
-135
-186
-20
630
1029
398
-532
-692
-360
-207
-189
-137
-123
-131
-106
-87
-81
-67
-55
-44
-27
-13
-4
12
32
50
70
93
121
150
166
168
171
179
186
189
184
168
148
134
126
115
104
101
103
104
106
111
113
114
119
122
125
130
133
131
130
131
129
123
113
98
82
76
95
134
160
154
128
107
101
91
64
57
65
40
37
55
-12
116
745
1145
495
-469
-643
-311
-165
-152
-104
-96
-103
-70
-50
-50
-37
-27
-29
-31
-32
-33
-29
-21
-10
5
22
41
61
72
73
73
73
63
45
23
-11
-56
-97
-127
-151
-171
-188
-207
-223
-231
-240
-256
-278
-298
-309
-315
-318
-319
-315
-307
-296
-292
-301
-307
-304
-294
-264
-213
-183
-189
-194
-179
-168
-185
-201
-181
-173
-194
-153
-121
-134
232
994
1093
133
-667
-550
-187
-73
-14
43
37
61
121
152
174
207
228
246
273
303
326
340
346
353
357
354
353
350
343
338
333
316
294
283
272
250
224
206
196
190
196
208
205
189
177
162
135
114
111
112
114
127
136
123
102
86
70
47
27
12
-4
-18
-14
11
26
8
-22
-29
-23
-41
-63
-42
-20
-31
-7
-11
-76
205
871
933
-9
-814
-739
-413
-336
-319
-282
-289
-283
-257
-252
-243
-227
-222
-214
-195
-175
-153
-128
-105
-86
-66
-50
-39
-29
-21
-21
-32
-41
-42
-49
-72
-102
-129
-153
-170
-181
-196
-212
-217
-210
-198
-187
-183
-185
-184
-177
-171
-163
-156
-152
-149
-145
-140
-133
-124
-120
-120
-121
-117
-90
-41
-7
-4
-13
-16
-5
11
15
26
51
57
70
102
61
158
743
1264
798
-188
-505
-189
11
17
50
69
56
69
80
75
77
78
72
73
75
76
80
87
95
109
125
138
148
155
159
155
143
132
128
124
104
71
38
10
-7
-13
-16
-18
-15
-13
-27
-45
-49
-41
-32
-24
-14
-7
-1
5
4
-3
-6
-1
4
2
-4
-17
-30
-47
-71
-86
-69
-36
-30
-52
-77
-88
-91
-100
-104
-85
-80
-91
-62
-67
-76
312
994
981
62
-611
-468
-168
-107
-82
-42
-49
-43
-20
-17
-9
2
-2
-5
4
12
16
23
32
42
56
73
88
96
99
105
113
118
120
118
106
79
51
29
9
-5
-2
11
15
18
24
29
32
37
40
40
42
44
44
45
49
51
49
45
37
24
13
9
5
-10
-32
-51
-60
-48
-19
-4
-17
-35
-43
-50
-64
-84
-84
-65
-71
-71
-38
-78
-21
527
1105
724
-296
-720
-440
-203
-164
-122
-111
-140
-138
-131
-137
-132
-129
-125
-101
-78
-81
-81
-58
-33
-17
2
22
33
38
40
31
17
9
0
-24
-63
-109
-158
-210
-256
-284
-301
-319
-331
-320
-296
-274
-261
-250
-243
-241
-235
-220
-210
-205
-191
-177
-176
-177
-166
-146
-121
-97
-74
-42
-12
-5
-20
-40
-51
-45
-42
-51
-52
-65
-58
4
-12
17
567
1255
935
-184
-690
-352
-32
48
136
191
185
215
244
239
260
300
317
331
359
382
397
418
447
470
488
506
519
523
519
500
461
416
366
302
246
228
230
221
206
194
171
141
117
100
85
76
78
87
95
94
89
72
33
-19
-63
-90
-103
-111
-123
-141
-161
-187
-219
-251
-266
-257
-237
-232
-253
-279
-281
-271
-283
-302
-291
-280
-274
-231
-237
-246
157
835
780
-169
-829
-668
-363
-294
-255
-206
-208
-202
-178
-170
-165
-160
-160
-153
-144
-137
-122
-101
-85
-67
-43
-27
-20
-15
-9
-6
-6
-5
-3
-6
-17
-32
-47
-62
-73
-79
-80
-74
-65
-57
-48
-32
-16
-8
-5
-2
0
-2
-3
-2
-4
-13
-24
-39
-52
-59
-65
-80
-98
-115
-128
-119
-88
-67
-71
-84
-99
-106
-110
-122
-124
-112
-119
-112
-85
-122
24
660
1147
626
-319
-556
-236
-57
-26
37
63
65
102
128
130
138
148
152
158
163
169
177
188
201
215
228
248
270
280
282
285
288
287
285
272
243
204
164
117
72
40
20
4
-11
-18
-20
-24
-31
-34
-31
-27
-30
-35
-38
-37
-34
-31
-27
-21
-16
-26
-45
-58
-61
-66
-79
-90
-82
-45
0
20
13
1
-12
-24
-26
-28
-22
-6
-11
-7
23
-13
75
639
1166
734
-246
-595
-302
-98
-78
-35
-18
-41
-34
-27
-42
-47
-43
-43
-41
-36
-32
-22
-2
17
27
34
41
37
21
5
-14
-35
-50
-60
-79
-110
-148
-187
-217
-229
-229
-231
-238
-236
-220
-201
-186
-171
-156
-143
-133
-120
-109
-103
-97
-87
-82
-83
-81
-77
-81
-89
-90
-86
-83
-93
-109
-100
-59
-26
-33
-59
-76
-78
-74
-91
-112
-97
-88
-96
-73
-101
-87
400
1061
814
-269
-855
-602
-307
-248
-183
-126
-124
-95
-52
-31
-1
24
28
42
79
126
174
204
218
243
272
277
272
282
284
265
250
246
238
223
204
177
137
100
76
54
28
23
41
54
55
59
70
84
103
120
126
132
150
165
166
163
166
168
160
138
113
93
67
26
-12
-17
6
25
24
10
-7
-13
-15
-40
-71
-85
-112
-124
-109
-153
-21
598
1049
456
-538
-751
-388
-203
-188
-142
-138
-163
-155
-155
-167
-156
-140
-133
-132
-129
-114
-85
-54
-30
-14
0
23
44
52
56
60
57
54
54
39
7
-25
-49
-71
-89
-99
-103
-108
-113
-111
-102
-97
-97
-92
-81
-74
-72
-77
-85
-86
-78
-72
-70
-68
-64
-63
-66
-74
-88
-90
-60
-12
17
17
3
-9
-8
2
2
4
27
34
35
57
13
56
590
1216
902
-128
-593
-305
-62
-51
-16
14
-12
-15
-9
-22
-22
-13
-10
-6
1
11
26
42
54
68
85
98
110
121
126
122
114
105
91
69
37
-1
-31
-49
-62
-76
-85
-87
-87
-89
-89
-85
-79
-76
-69
-52
-37
-36
-41
-45
-48
-51
-50
-51
-53
-52
-50
-52
-58
-62
-67
-67
-40
6
32
23
2
-10
-11
-12
-21
-18
-13
-33
-31
-28
-65
169
834
1118
381
-502
-566
-225
-107
-100
-52
-48
-59
-39
-32
-31
-16
-9
-13
-14
-12
-9
-1
9
18
29
44
60
74
83
83
73
60
47
31
10
-16
-45
-75
-102
-121
-130
-131
-130
-127
-124
-125
-125
-120
-111
-102
-93
-86
-82
-76
-67
-59
-51
-43
-39
-35
-28
-25
-34
-47
-56
-48
-12
39
63
53
35
26
28
31
26
33
41
25
39
58
17
234
907
1228
514
-381
-468
-135
-12
2
54
59
48
74
88
85
94
105
112
119
126
133
144
154
163
171
183
199
212
217
223
227
218
204
189
162
120
76
35
-7
-49
-82
-103
-115
-125
-135
-142
-147
-151
-149
-132
-107
-84
-66
-55
-52
-55
-58
-64
-74
-92
-116
-145
-161
-144
-107
-90
-108
-141
-171
-187
-196
-215
-220
-208
-231
-243
-204
-246
-179
418
1006
550
-508
-862
-519
-289
-261
-209
-198
-233
-226
-207
-203
-190
-184
-185
-169
-146
-132
-120
-100
-79
-63
-42
-8
27
57
83
99
103
100
93
78
55
25
-8
-33
-52
-71
-91
-111
-122
-106
-74
-52
-40
-21
4
17
25
40
58
75
85
93
103
117
126
131
141
166
212
257
268
256
247
247
243
231
222
234
238
238
281
263
222
625
1349
1287
238
-496
-333
-28
28
73
111
71
55
68
42
9
-5
-21
-31
-25
-20
-20
-15
-7
1
16
36
48
52
54
45
26
13
9
-4
-31
-61
-88
-113
-135
-152
-161
-160
-157
-155
-151
-144
-138
-131
-119
-109
-104
-101
-97
-89
-79
-70
-69
-74
-83
-94
-103
-103
-88
-66
-59
-76
-101
-117
-123
-132
-144
-142
-144
-159
-141
-156
-210
109
833
975
88
-716
-644
-304
-219
-192
-132
-124
-115
-84
-75
-67
-43
-29
-23
-14
-3
6
16
32
56
80
96
107
116
124
124
120
118
119
110
85
53
23
-7
-35
-52
-60
-65
-69
-71
-70
-70
-70
-68
-64
-56
-44
-31
-22
-15
-7
2
10
18
15
1
-13
-18
-12
13
44
53
37
20
12
10
9
8
19
20
10
35
26
-7
326
1016
1112
236
-523
-450
-144
-86
-79
-40
-52
-63
-45
-41
-41
-30
-22
-21
-17
-7
3
9
15
28
41
50
56
61
62
59
52
41
32
21
0
-31
-62
-91
-114
-129
-137
-140
-142
-143
-144
-146
-145
-139
-130
-122
-113
-99
-80
-66
-60
-53
-43
-36
-34
-34
-38
-44
-46
-37
0
53
84
79
63
51
45
46
44
45
57
49
38
65
39
73
569
1207
983
8
-495
-253
-4
20
53
88
77
86
104
100
101
107
107
113
127
139
147
153
158
164
175
187
196
202
203
196
185
178
171
156
131
102
72
43
19
6
2
-2
-7
-10
-16
-25
-26
-29
-46
-68
-88
-107
-125
-141
-157
-166
-168
-174
-181
-186
-203
-230
-251
-253
-234
-212
-214
-241
-267
-278
-274
-277
-289
-280
-280
-306
-294
-308
-356
-13
715
787
-166
-947
-829
-482
-387
-337
-274
-279
-274
-238
-228
-227
-220
-226
-238
-243
-242
-235
-223
-202
-159
-100
-50
-13
26
66
92
104
120
150
185
212
224
215
202
204
197
154
119
141
187
214
228
242
251
256
256
249
242
239
239
239
232
215
195
178
168
176
204
219
199
168
157
170
182
174
177
200
182
165
195
132
163
751
1351
860
-254
-606
-226
16
54
135
167
137
134
118
73
42
16
-7
-18
-32
-39
-10
34
69
99
114
105
97
100
94
79
73
69
50
15
-31
-81
-133
-173
-199
-222
-244
-260
-271
-280
-283
-278
-271
-271
-271
-267
-259
-249
-238
-229
-224
-222
-227
-235
-234
-219
-191
-155
-128
-126
-133
-136
-132
-132
-137
-128
-116
-135
-127
-102
-160
8
722
1187
502
-527
-686
-303
-153
-150
-86
-67
-77
-49
-33
-36
-23
-8
0
13
28
43
60
76
92
112
140
170
193
205
206
195
177
167
145
81
-5
-72
-119
-159
-184
-203
-223
-226
-200
-168
-148
-133
-114
-95
-78
-64
-54
-46
-38
-32
-28
-24
-20
-22
-34
-45
-40
-14
26
54
51
29
15
15
18
14
14
26
20
15
42
4
46
591
1255
966
-90
-585
-291
-37
-33
0
38
25
40
63
60
65
76
77
82
94
101
111
124
137
150
164
176
183
189
188
180
168
158
148
131
106
77
49
25
8
-1
-1
-3
-8
-13
-14
-15
-11
4
25
40
47
52
60
60
36
3
-27
-69
-119
-157
-180
-179
-152
-134
-149
-170
-175
-170
-167
-167
-146
-120
-132
-134
-120
-185
-43
638
1115
474
-551
-741
-367
-208
-208
-149
-125
-136
-111
-94
-99
-97
-98
-103
-95
-87
-86
-79
-68
-62
-57
-46
-37
-27
3
41
57
58
66
77
71
52
34
22
10
-2
-9
-14
-17
-11
0
8
15
19
18
16
19
24
22
15
12
10
7
5
-2
-17
-32
-41
-36
-10
22
30
16
2
-7
-9
-14
-28
-24
-16
-34
-18
-10
-72
171
903
1190
358
-569
-588
-222
-122
-118
-65
-64
-76
-54
-46
-46
-34
-31
-34
-27
-17
-6
12
35
57
73
87
100
111
112
109
104
95
87
82
70
48
21
-4
-26
-42
-52
-59
-59
-54
-50
-47
-42
-37
-32
-30
-31
-35
-36
-36
-38
-40
-42
-48
-61
-75
-79
-64
-28
3
3
-15
-25
-20
-15
-23
-21
-1
-8
-12
25
-18
2
539
1193
875
-180
-644
-342
-96
-86
-48
-17
-34
-24
-11
-23
-22
-12
-12
-12
-6
-2
1
7
19
34
51
67
79
86
93
95
89
83
83
76
54
26
0
-23
-42
-55
-63
-66
-66
-63
-60
-55
-51
-49
-44
-35
-29
-24
-19
-15
-17
-27
-44
-63
-73
-65
-34
-3
-2
-25
-45
-49
-47
-57
-66
-54
-61
-76
-43
-73
-114
309
1029
941
-68
-702
-481
-181
-144
-113
-68
-85
-83
-61
-66
-68
-58
-57
-55
-45
-35
-27
-18
-7
6
21
33
40
42
38
33
27
26
29
28
14
-5
-24
-42
-60
-71
-77
-79
-79
-77
-72
-64
-57
-51
-46
-41
-39
-38
-35
-31
-29
-29
-29
-29
-23
9
56
74
58
38
31
31
27
17
26
35
17
35
48
-32
159
853
1178
430
-470
-524
-176
-56
-40
10
18
18
36
37
36
