# session 10
-27
-496
1239
-444
-8032
-14290
-14720
-13381
-13074
-12488
-11645
-11375
-11119
-10596
-10212
-9901
-9421
-8956
-8742
-8498
-7749
-6659
-5857
-5549
-5470
-5395
-5313
-5263
-5160
-4872
-4480
-4157
-3914
-3694
-3499
-3307
-3082
-2856
-2653
-2452
-2269
-2104
-1904
-1727
-1649
-1510
-1275
-1165
-940
-315
-72
-773
-1356
-988
-393
-180
-77
59
138
212
320
455
635
831
1025
1211
1326
1394
1517
1662
1766
1862
1954
2009
2013
1933
1864
2017
2317
2491
2557
2653
2686
2598
2505
2433
2342
2281
2257
2202
2149
2109
1920
1700
1982
2609
2559
1680
1034
1054
1172
1099
1000
915
821
798
890
1000
1024
1058
1256
1504
1622
1671
1755
1799
1711
1527
1369
1280
1191
1054
910
775
644
526
398
234
76
-10
8
95
152
140
86
12
1
36
-34
142
1036
1843
1417
425
211
600
787
749
681
546
392
309
261
184
45
-121
-232
-253
-258
-334
-434
-452
-422
-454
-560
-686
-787
-824
-814
-815
-826
-789
-681
-563
-494
-404
-220
-43
30
65
60
-78
-223
-303
-524
-742
-563
-478
-1211
-2067
-2005
-1489
-1350
-1397
-1301
-1229
-1236
-1204
-1165
-1161
-1151
-1128
-1117
-1108
-1096
-1107
-1149
-1189
-1215
-1242
-1245
-1209
-1176
-1166
-1157
-1148
-1158
-1186
-1235
-1290
-1314
-1295
-1268
-1251
-1230
-1206
-1227
-1291
-1293
-1242
-1319
-1342
-905
-467
-887
-1690
-1699
-990
-373
72
611
1115
1330
1242
1034
855
759
821
1052
1281
1388
1456
1581
1732
1843
1905
1977
2082
2131
2085
2020
1907
1656
1386
1257
1195
1102
1027
993
931
872
941
1130
1333
1575
1804
1817
1839
2252
2543
1990
1102
776
881
864
684
519
400
279
119
-66
-225
-329
-389
-429
-468
-489
-443
-317
-164
-39
91
293
469
384
88
-11
218
422
380
257
156
38
-45
-52
-80
-145
-159
-181
-272
-312
-413
-761
-899
-497
-392
-1169
-1906
-1823
-1420
-1211
-1058
-867
-763
-767
-787
-771
-754
-765
-748
-708
-757
-905
-1101
-1391
-1723
-1864
-1747
-1541
-1430
-1509
-1615
-1450
-1114
-938
-833
-581
-340
-250
-142
44
94
-69
-279
-467
-654
-732
-772
-977
-973
-422
-90
-520
-811
-312
355
685
802
787
706
685
667
612
614
676
753
863
955
968
946
923
898
902
918
895
868
843
735
591
533
506
435
416
458
401
262
170
45
-167
-292
-263
-191
-112
-51
120
822
1820
2037
1375
1020
1346
1638
1686
1734
1697
1544
1448
1348
1102
861
815
867
812
639
459
282
103
-1
-10
-14
-55
-110
-182
-247
-256
-239
-241
-206
-58
152
314
416
497
468
256
-17
-225
-345
-371
-410
-441
-115
388
173
-777
-1361
-1193
-911
-876
-1014
-1254
-1436
-1394
-1167
-873
-639
-549
-540
-548
-547
-460
-315
-260
-297
-355
-467
-600
-626
-552
-483
-463
-502
-619
-788
-915
-935
-930
-960
-913
-758
-632
-591
-617
-730
-928
-1228
-1473
-1248
-752
-906
-1811
-2461
-2333
-1884
-1531
-1200
-768
-347
-19
267
394
242
46
23
38
-24
-90
-149
-235
-307
-347
-401
-500
-674
-928
-1158
-1229
-1140
-987
-810
-538
-138
285
627
903
1122
1263
1351
1452
1708
2117
2346
2402
2812
3333
3024
2142
1851
2160
2232
1984
1845
1835
1763
1679
1709
1832
1952
2012
2011
2011
2075
2160
2216
2270
2289
2194
2045
1920
1786
1654
1552
1432
1324
1255
1152
1109
1219
1220
1000
858
819
625
317
80
-52
-182
-462
-634
-231
209
-286
-1248
-1521
-1231
-1103
-1148
-1165
-1228
-1315
-1347
-1395
-1482
-1535
-1564
-1654
-1779
-1815
-1762
-1777
-1909
-2041
-2114
-2169
-2234
-2293
-2333
-2356
-2370
-2378
-2374
-2363
-2360
-2355
-2311
-2233
-2192
-2199
-2161
-2113
-2151
-2123
-1998
-2097
-2180
-1536
-557
-352
-842
-1168
-1140
-958
-711
-593
-719
-961
-1228
-1413
-1259
-768
-314
-96
89
358
556
622
632
584
506
486
460
346
241
227
244
232
205
200
230
263
302
413
602
798
959
1049
1059
1084
1077
870
788
1259
1669
1206
474
445
852
1062
1117
1156
1068
873
685
536
513
728
1115
1500
1811
2074
2333
2598
2827
2998
3141
3278
3382
3406
3334
3224
3164
3171
3168
3113
3092
3084
2875
2491
2292
2384
2513
2520
2420
2264
2073
1876
1976
2566
2837
1936
633
172
358
372
109
-217
-553
-843
-1057
-1243
-1433
-1617
-1742
-1734
-1632
-1568
-1622
-1741
-1818
-1854
-1934
-2055
-2185
-2364
-2554
-2640
-2628
-2601
-2609
-2683
-2796
-2884
-2924
-2914
-2881
-2867
-2850
-2846
-2918
-2973
-3008
-3223
-3331
-2878
-2480
-2934
-3603
-3605
-3295
-3194
-3147
-3067
-3090
-3077
-2770
-2272
-2033
-2195
-2263
-1890
-1487
-1447
-1454
-1097
-511
-21
286
464
587
681
633
467
523
961
1483
1828
2051
2249
2411
2459
2374
2309
2382
2461
2458
2559
2744
2744
2828
3453
3960
3422
2505
2409
2873
3037
2862
2532
1934
1200
647
284
-32
-355
-754
-1149
-1219
-883
-456
-162
38
182
263
309
347
366
329
227
90
-64
-197
-258
-278
-354
-480
-538
-525
-595
-765
-815
-595
-177
189
341
663
1422
1751
992
155
138
359
417
640
861
740
531
447
325
123
-69
-243
-394
-491
-464
-218
207
621
909
1071
1084
933
727
590
537
554
636
705
675
623
702
934
1190
1358
1397
1330
1262
1287
1346
1314
1216
1387
2101
2786
2491
1501
1055
1339
1508
1327
1164
1033
785
573
511
472
360
163
-159
-565
-943
-1266
-1561
-1813
-2015
-2193
-2342
-2450
-2554
-2695
-2850
-2984
-3107
-3225
-3319
-3400
-3468
-3475
-3420
-3375
-3335
-3216
-3035
-2859
-2657
-2503
-2511
-2323
-1711
-1484
-2192
-2861
-2665
-2209
-2088
-2071
-2001
-1981
-1973
-1972
-2041
-2094
-2017
-1891
-1808
-1725
-1592
-1425
-1192
-855
-503
-174
230
621
794
857
1048
1343
1592
1696
1662
1663
1803
1938
1988
2000
1969
1939
1963
1988
2045
2169
2318
2783
3665
4107
3618
3170
3483
3971
4182
4328
4447
4468
4478
4410
4183
3923
3650
3293
2924
2572
2219
2044
2071
1972
1652
1425
1460
1634
1797
1845
1790
1756
1698
1426
999
646
382
83
-208
-400
-576
-844
-1168
-1414
-1482
-1545
-1786
-1800
-1382
-1407
-2309
-3032
-2935
-2694
-2723
-2786
-2838
-2915
-2916
-2884
-2901
-2903
-2865
-2844
-2829
-2788
-2738
-2692
-2647
-2618
-2578
-2479
-2378
-2310
-2157
-1920
-1831
-1944
-2021
-1960
-1876
-1830
-1797
-1787
-1787
-1726
-1575
-1405
-1324
-1307
-1208
-1099
-1126
-918
-227
137
-399
-929
-682
-223
-49
105
380
648
900
1100
1183
1232
1338
1485
1641
1795
1956
2143
2337
2503
2624
2687
2745
2835
2826
2647
2483
2491
2554
2499
2316
2114
1946
1818
1768
1751
1670
1598
1570
1464
1306
1088
693
566
1068
1268
460
-291
-129
215
192
151
198
133
10
-49
-52
-33
-17
-4
2
1
35
119
195
224
180
64
13
90
108
17
32
175
278
321
329
293
295
380
463
484
470
438
361
277
298
303
128
187
753
936
105
-770
-823
-590
-619
-708
-706
-690
-658
-634
-689
-793
-884
-960
-1033
-1111
-1185
-1245
-1289
-1326
-1361
-1394
-1415
-1411
-1383
-1332
-1246
-1122
-999
-920
-872
-815
-750
-686
-624
-609
-688
-793
-853
-890
-903
-956
-1139
-1172
-866
-923
-1824
-2665
-2684
-2429
-2368
-2233
-1995
-1888
-1830
-1697
-1573
-1472
-1320
-1157
-1035
-899
-760
-711
-701
-635
-622
-737
-756
-470
11
406
499
290
19
-74
13
120
130
58
7
63
182
242
279
495
892
1077
886
898
1495
1877
1386
832
1031
1539
1845
2094
2345
2447
2445
2476
2586
2723
2801
2824
2830
2814
2818
2869
2838
2688
2603
2633
2625
2578
2610
2657
2616
2579
2614
2576
2346
1985
1622
1359
1201
1022
770
551
362
122
-84
-261
-480
-371
141
89
-899
-1638
-1466
-1143
-1071
-833
-388
-153
-241
-370
-341
-251
-247
-285
-262
-216
-267
-366
-329
-187
-136
-136
-54
-24
-165
-328
-427
-536
-615
-572
-481
-480
-563
-606
-582
-640
-868
-1202
-1635
-2087
-2288
-2290
-2344
-2081
-1338
-1137
-1889
-2395
-2114
-1879
-1935
-1857
-1724
-1720
-1673
-1535
-1426
-1354
-1331
-1465
-1779
-2017
-1899
-1591
-1392
-1022
-178
610
792
695
696
560
217
-45
-239
-422
-341
-150
-391
-893
-989
-779
-853
-1202
-1578
-2016
-2238
-1917
-1428
-855
237
1195
1088
643
874
1467
1767
1500
751
24
-397
-600
-501
-232
-166
-156
51
301
517
647
490
205
60
-129
-507
-880
-1161
-1285
-1056
-580
-167
197
613
977
1298
1651
1895
1967
2053
2234
2342
2271
2217
2223
1926
1621
2162
2771
1890
430
275
960
1253
1320
1505
1581
1456
1277
1236
1363
1424
1342
1288
1279
1229
1140
1008
823
684
727
872
853
739
848
922
506
27
45
201
160
188
283
232
138
24
-158
-132
163
198
-195
-123
901
1394
-7
-1911
-2338
-1632
-1103
-1074
-1234
-1284
-1168
-1076
-1039
-950
-903
-932
-852
-628
-411
-284
-287
-349
-319
-305
-492
-643
-528
-443
-590
-654
-503
-431
-484
-406
-258
-337
-580
-686
-656
-641
-588
-530
-670
-908
-844
-315
239
79
-809
-1439
-1264
-959
-1077
-1259
-1203
-1067
-888
-664
-665
-938
-1091
-972
-805
-632
-480
-545
-578
-267
-84
-216
-12
432
378
114
249
482
457
380
390
391
325
173
-20
-120
-104
-92
-84
11
120
257
744
1393
1238
136
-654
-455
-31
29
17
123
150
100
152
279
370
464
602
703
722
746
874
1002
919
723
738
911
912
754
634
501
311
211
213
214
230
256
211
95
-44
-125
-25
180
184
-75
-72
633
1289
777
-369
-697
-217
93
167
443
721
643
527
748
970
859
642
452
253
228
385
462
439
433
405
326
259
263
365
394
55
-620
-1289
-1686
-1731
-1563
-1422
-1292
-1146
-1185
-1255
-975
-590
-497
-507
-294
302
1016
990
101
-549
-460
-206
-73
43
87
61
73
112
68
-79
-148
-25
31
-146
-274
-210
-151
-87
39
-45
-358
-471
-282
-221
-453
-547
-295
-132
-208
-217
-187
-114
247
567
554
565
593
399
202
101
301
1077
1469
559
-492
-489
-96
-18
43
262
448
487
363
184
83
22
-79
-146
-57
62
-66
-241
2
415
483
410
462
449
405
468
396
85
-179
-177
33
221
237
149
65
-8
-152
-352
-357
-247
-493
-775
-464
-327
-1133
-1869
-1849
-1866
-2069
-1816
-1271
-937
-782
-541
-188
-75
-265
-173
289
524
546
756
954
849
609
444
337
228
133
98
114
146
183
160
79
188
468
445
207
250
119
-622
-992
-403
102
-111
-125
750
1521
1048
113
-21
281
345
448
646
604
446
399
419
493
624
716
752
779
778
726
646
549
414
217
-8
-154
-180
-149
-97
-63
-64
-15
34
-41
-126
-140
-214
-274
-135
52
51
38
183
101
-54
777
1994
1426
-508
-1258
-692
-429
-576
-551
-493
-472
-364
-278
-172
13
8
-212
-387
-612
-849
-659
-239
-183
-304
-251
-224
-252
-175
-131
-91
136
263
40
-132
55
226
37
-205
-59
274
295
113
164
264
50
-51
368
595
-30
-848
-1089
-1008
-993
-955
-813
-624
-450
-411
-508
-534
-374
-190
-149
-119
27
105
59
98
256
453
598
549
418
376
265
86
39
-4
-142
-179
-74
27
62
27
-3
75
264
449
387
45
17
619
888
36
-987
-1108
-760
-597
-496
-373
-368
-379
-295
-135
34
19
-122
-43
100
-43
-114
191
415
314
179
90
10
-12
-138
-391
-462
-410
-516
-604
-491
-306
-76
4
-382
-793
-644
-302
-186
-87
-33
-48
475
1404
1454
497
-33
325
690
698
626
514
350
244
210
231
302
347
358
416
484
431
378
584
916
1012
889
797
780
768
741
720
781
885
871
853
1082
1376
1414
1324
1340
1326
1185
1074
960
926
1520
2435
2301
1110
457
768
1111
1187
1109
706
363
571
733
317
29
371
761
857
955
965
354
-1042
-2598
-3250
-2884
-2732
-3363
-3919
-4019
-4062
-3932
-3555
-3530
-3925
-4042
-3711
-3474
-3593
-3635
-3219
-2726
-2502
-2171
-1693
-1505
-1079
131
940
508
-17
-9
11
336
1004
1027
527
310
62
-448
-669
-507
-260
52
436
752
931
1062
1198
1229
1171
1184
1215
1190
1262
1432
1545
1629
1677
1551
1381
1388
1412
1237
1048
1014
929
756
772
847
756
971
1631
1735
903
216
318
693
933
1095
1215
1239
1206
1224
1060
400
-241
-197
110
125
106
167
-25
-370
-437
-183
100
253
363
556
809
946
867
764
729
321
-765
-1955
-2491
-2301
-1880
-1836
-2241
-2452
-2246
-2001
-1361
-2
731
-206
-1416
-1335
-569
-289
-385
-291
-76
21
101
211
232
238
310
276
147
132
114
82
361
549
185
269
1174
1247
169
-331
18
209
243
319
222
161
271
346
485
602
393
265
541
585
245
412
1180
1379
546
-326
-446
-171
-14
45
187
457
729
821
768
719
630
433
261
192
159
185
271
259
210
369
579
544
430
447
466
443
523
662
580
129
-417
-780
-1289
-2268
-3107
-3093
-2529
-2020
-1647
-1439
-1241
-594
-173
-1118
-2319
-2096
-1278
-876
-328
46
-508
-1075
-879
-576
-535
-460
-288
-168
-71
215
554
489
240
348
480
255
116
255
299
220
201
178
184
318
359
140
-63
-11
178
238
-39
-415
-391
-209
-271
58
898
948
45
-431
-199
48
266
506
564
611
705
577
457
674
806
564
443
656
816
805
773
721
693
735
693
550
440
323
265
390
464
514
797
763
153
-4
487
626
435
412
341
251
292
378
975
1957
1897
655
-183
-100
85
-29
-241
-324
-279
-319
-455
-486
-401
-245
-59
-66
-287
-362
-172
15
54
-59
-368
-739
-913
-867
-785
-772
-814
-821
-742
-689
-682
-568
-441
-480
-480
-327
-244
-229
-219
-276
-19
679
814
-52
-761
-641
-358
-272
-187
-201
-338
-321
-234
-380
-627
-656
-542
-483
-353
-141
-210
-496
-427
-59
16
-171
-194
-132
-201
-206
-47
17
-40
45
243
301
210
123
117
163
152
66
-10
-109
-157
212
864
917
170
-431
-357
0
376
648
585
446
450
107
-464
-363
186
268
76
130
223
196
201
218
190
192
281
418
469
418
426
459
354
255
293
264
158
183
