# session 12
83
454
-840
573
6199
10208
9818
8776
8886
8637
8048
7853
7669
7344
7086
6776
6422
6159
5925
5673
5437
5182
4906
4652
4409
4159
3913
3695
3541
3425
3248
3011
2807
2616
2409
2251
2035
1733
1828
2340
2230
1199
442
525
700
585
479
430
318
208
128
28
-56
-84
-98
-147
-208
-247
-293
-375
-470
-556
-642
-728
-793
-834
-896
-1008
-1108
-1135
-1156
-1222
-1252
-1236
-1273
-1320
-1294
-1298
-1355
-1353
-1425
-1592
-1346
-745
-815
-1695
-2201
-1939
-1683
-1710
-1687
-1612
-1645
-1693
-1658
-1594
-1550
-1503
-1453
-1433
-1414
-1354
-1298
-1280
-1256
-1199
-1147
-1112
-1057
-973
-926
-933
-917
-867
-834
-796
-724
-678
-682
-675
-620
-565
-531
-443
-345
-352
-184
395
711
153
-545
-559
-261
-170
-139
-54
-26
-21
28
78
118
175
230
265
306
360
395
393
377
370
366
353
341
347
358
370
402
416
355
295
342
431
437
396
409
417
383
426
441
294
458
1170
1476
800
134
243
592
714
764
797
756
710
679
629
591
566
526
489
467
451
445
437
409
372
348
327
297
254
206
176
158
119
70
38
13
-7
-19
-58
-114
-144
-145
-92
-43
-164
-177
333
743
172
-746
-903
-519
-271
-165
-108
-147
-151
-78
-47
-36
15
56
76
110
138
145
131
90
56
52
39
-5
-38
-40
-43
-68
-93
-98
-97
-100
-92
-88
-112
-126
-122
-164
-190
-132
-188
-299
46
639
495
-317
-691
-420
-173
-113
-33
23
7
16
57
87
118
158
189
200
195
186
185
179
160
139
128
114
98
84
44
-33
-83
-73
-59
-73
-92
-110
-124
-107
-69
-65
-88
-65
-78
-234
-166
440
877
384
-393
-526
-270
-178
-181
-148
-148
-154
-124
-109
-112
-101
-84
-76
-70
-61
-47
-49
-79
-106
-111
-113
-117
-120
-137
-167
-201
-240
-271
-265
-233
-215
-236
-272
-278
-269
-271
-225
-182
-293
-267
266
697
235
-542
-651
-309
-150
-137
-65
-12
-22
-14
20
40
61
107
158
187
203
209
197
177
164
154
143
134
117
79
35
-4
-48
-86
-94
-78
-58
-59
-96
-118
-109
-125
-108
-44
-143
-214
260
771
320
-584
-734
-299
-68
-26
66
116
115
145
173
181
201
231
263
299
319
324
343
357
334
307
302
296
275
253
234
205
155
115
129
155
142
122
113
98
102
108
92
125
109
-60
55
634
784
59
-546
-395
-93
-44
-24
22
9
5
41
66
77
87
102
128
147
156
167
167
153
146
139
118
101
85
44
-18
-75
-119
-152
-174
-178
-155
-142
-168
-179
-178
-227
-233
-187
-320
-384
116
555
-11
-898
-942
-475
-277
-263
-211
-195
-198
-180
-183
-181
-142
-118
-119
-99
-57
-32
-35
-47
-54
-57
-47
-35
-48
-72
-83
-104
-143
-158
-150
-145
-121
-87
-97
-123
-115
-128
-139
-90
-148
-253
91
695
586
-198
-574
-328
-120
-108
-71
-33
-43
-30
0
14
32
63
89
100
109
133
162
174
179
199
228
244
237
213
183
154
121
94
88
100
129
165
169
144
137
114
65
101
103
-86
24
704
963
197
-515
-377
-33
34
70
142
137
130
161
178
189
210
228
241
253
264
279
282
257
221
196
182
167
147
115
68
20
-14
-31
-49
-63
-42
-12
-44
-93
-107
-150
-173
-122
-207
-331
38
585
277
-649
-974
-621
-360
-308
-229
-184
-201
-190
-164
-146
-113
-79
-60
-30
8
30
39
48
54
56
54
36
3
-26
-47
-77
-118
-157
-181
-192
-200
-191
-172
-180
-199
-211
-226
-185
-135
-254
-252
260
614
22
-777
-784
-386
-231
-198
-130
-121
-126
-87
-66
-57
-17
32
63
89
123
161
189
198
195
195
200
200
179
150
133
110
62
30
38
52
74
113
118
99
105
99
103
155
66
-93
231
870
805
28
-366
-139
54
54
85
118
107
118
127
111
117
149
174
196
226
257
279
280
261
242
231
209
169
125
85
37
-19
-60
-76
-82
-72
-41
-34
-74
-95
-97
-118
-92
-89
-251
-200
378
707
114
-592
-576
-275
-189
-157
-84
-71
-73
-44
-28
-18
1
16
33
60
86
106
113
101
86
80
73
61
40
2
-48
-97
-138
-167
-184
-194
-180
-159
-180
-222
-226
-232
-241
-175
-196
-345
-107
500
437
-461
-963
-641
-285
-208
-141
-81
-93
-77
-30
-12
1
25
43
64
88
94
93
104
100
76
68
60
29
13
10
-24
-64
-75
-87
-115
-128
-113
-84
-68
-85
-114
-124
-78
-27
-130
-191
245
760
409
-460
-693
-305
-43
1
50
85
90
102
116
155
216
258
286
312
318
324
351
361
330
292
266
241
215
193
170
139
97
57
32
20
22
46
54
30
28
32
4
37
71
-77
-57
488
802
180
-546
-482
-116
-21
-4
56
43
27
66
95
118
152
163
167
196
225
234
230
214
191
171
152
130
110
88
48
-9
-63
-93
-107
-125
-136
-134
-150
-185
-205
-238
-253
-193
-256
-429
-155
445
287
-639
-1055
-687
-373
-336
-279
-229
-242
-224
-191
-187
-173
-142
-118
-92
-60
-33
-9
18
39
38
20
4
-2
-10
-22
-41
-78
-114
-121
-113
-106
-91
-82
-106
-126
-134
-150
-117
-95
-239
-211
365
788
269
-490
-538
-210
-91
-76
-29
-24
-21
12
27
39
69
90
104
123
143
175
212
233
242
248
240
216
187
162
139
107
72
52
45
45
74
120
117
84
93
88
60
102
61
-105
138
825
921
146
-407
-254
-16
22
67
117
113
128
163
171
177
205
235
249
263
292
318
318
301
281
255
220
182
141
90
36
-9
-46
-79
-102
-111
-96
-74
-89
-109
-91
-108
-135
-79
-130
-265
58
629
382
-554
-921
-575
-320
-281
-200
-155
-184
-180
-158
-147
-113
-81
-76
-59
-22
7
30
42
28
-5
-40
-64
-76
-93
-118
-134
-147
-177
-205
-213
-217
-212
-197
-209
-228
-217
-230
-238
-177
-212
-302
29
567
344
-528
-882
-537
-251
-207
-152
-111
-130
-126
-102
-89
-67
-31
6
36
59
86
116
131
132
135
138
137
130
116
98
80
56
28
14
18
29
48
65
57
50
60
42
50
109
15
-92
321
892
609
-234
-475
-127
76
99
169
206
200
228
252
257
281
301
305
321
344
361
375
379
366
336
294
263
250
227
186
150
117
82
61
55
57
72
61
6
-26
-36
-78
-75
-54
-200
-228
291
763
345
-417
-546
-269
-172
-165
-100
-93
-122
-103
-82
-74
-55
-36
-19
3
19
28
38
41
34
28
21
1
-34
-78
-117
-150
-186
-218
-227
-217
-192
-156
-151
-186
-194
-182
-202
-172
-133
-262
-231
314
623
-29
-800
-752
-357
-224
-193
-132
-137
-153
-129
-117
-107
-77
-50
-26
5
38
68
84
81
69
53
30
6
-14
-38
-75
-117
-148
-164
-171
-170
-147
-111
-114
-148
-146
-137
-160
-127
-106
-237
-138
449
664
-86
-810
-664
-233
-83
-15
73
80
71
109
147
171
186
198
239
299
328
325
322
321
304
278
252
225
204
193
177
150
120
89
67
62
74
94
94
69
62
62
31
45
70
-64
-57
465
824
254
-506
-498
-116
21
49
113
118
113
143
152
155
182
203
213
234
263
288
295
280
258
238
219
201
180
155
132
101
54
16
0
-16
-36
-29
-22
-56
-83
-90
-121
-103
-63
-214
-286
204
649
138
-706
-782
-368
-182
-157
-90
-70
-95
-93
-87
-84
-75
-63
-39
-18
-18
-20
-16
-27
-38
-38
-54
-90
-126
-165
-204
-228
-250
-291
-326
-329
-308
-275
-261
-288
-310
-306
-311
-271
-207
-318
-377
96
578
143
-685
-777
-343
-155
-175
-128
-86
-88
-61
-28
-25
-25
-7
16
38
71
109
134
158
180
174
158
165
164
134
100
66
32
29
53
66
77
110
138
127
118
126
112
122
153
37
-9
460
934
500
-350
-517
-158
27
46
92
108
111
140
138
127
155
184
206
244
265
265
283
301
289
283
277
221
154
149
155
96
4
-37
-31
-37
-47
-16
7
-27
-37
-10
-39
-59
-25
-129
-200
234
721
328
-536
-746
-369
-136
-107
-57
-30
-54
-54
-28
-6
11
42
95
127
128
153
192
177
135
125
109
61
38
30
-21
-72
-72
-91
-160
-189
-154
-123
-112
-114
-128
-137
-147
-130
-81
-170
-286
85
655
370
-569
-884
-467
-173
-136
-62
-14
-48
-53
-31
-25
-8
20
42
73
112
128
120
114
121
120
98
69
42
10
-24
-54
-84
-120
-149
-166
-173
-161
-146
-171
-202
-195
-214
-223
-158
-238
-396
-36
585
342
-590
-900
-477
-182
-155
-107
-68
-67
-28
7
15
45
86
106
127
166
202
214
216
226
233
230
230
226
195
151
119
94
58
33
30
35
52
76
67
37
41
39
25
61
10
-141
92
710
764
26
-479
-322
-96
-58
-14
33
26
24
37
46
63
79
88
115
162
197
201
208
237
249
225
202
195
181
148
100
59
37
18
-8
-20
-6
15
13
-20
-47
-52
-51
-42
-100
-229
-26
594
721
-77
-729
-531
-172
-131
-107
-23
-31
-57
-39
-26
3
46
52
52
84
95
76
88
111
94
76
70
7
-89
-124
-114
-120
-148
-199
-260
-278
-226
-169
-177
-214
-220
-240
-275
-217
-177
-279
-122
450
553
-249
-915
-733
-316
-173
-115
-45
-27
-18
1
16
52
91
100
120
174
220
231
229
237
234
193
154
153
140
101
72
40
2
-5
2
-14
-15
28
44
6
-3
23
12
0
-36
-156
-17
524
662
-46
-647
-476
-144
-93
-81
-32
-43
-51
-33
-24
-1
42
67
68
72
107
137
114
95
132
148
102
74
85
61
1
-32
-35
-49
-76
-82
-59
-34
-34
-47
-50
-77
-119
-68
-33
-193
-164
388
708
122
-592
-593
-271
-150
-111
-30
4
-17
-46
-52
-20
19
41
71
102
125
170
215
203
168
173
194
181
136
84
50
32
2
-42
-63
-48
-25
-9
-11
-38
-48
-42
-75
-62
-1
-129
-225
262
788
315
-611
-747
-300
-80
-40
45
65
46
94
143
143
152
202
247
248
250
286
300
274
255
242
210
176
142
95
59
34
-7
-48
-55
-53
-66
-60
-35
-51
-91
-100
-118
-123
-70
-119
-171
214
651
226
-657
-845
-432
-189
-144
-61
-25
-52
-26
16
9
26
88
102
71
94
151
157
129
111
88
52
8
-43
-74
-82
-110
-158
-179
-189
-218
-232
-216
-222
-256
-254
-218
-224
-217
-134
-165
-266
48
614
476
-351
-764
-489
-226
-199
-168
-139
-156
-144
-124
-112
-62
-10
17
67
125
143
147
156
148
130
118
100
71
48
36
27
4
-33
-56
-57
-49
-24
5
-10
-33
-8
-10
-32
37
29
-118
125
735
662
-224
-693
-371
-57
-17
41
102
87
91
122
137
158
187
212
254
303
332
349
355
330
293
266
236
197
161
134
105
64
17
-12
-12
-7
4
24
16
-12
-12
-15
-9
53
-13
-203
46
708
750
-6
-443
-194
43
43
70
105
76
69
87
87
88
104
116
121
125
128
124
114
108
95
64
33
9
-22
-65
-107
-148
-178
-191
-199
-204
-182
-154
-179
-217
-217
-241
-268
-212
-271
-447
-163
492
427
-431
-868
-572
-293
-251
-192
-138
-135
-113
-89
-80
-51
-11
20
57
92
113
134
149
144
125
103
75
42
14
-19
-63
-105
-140
-170
-184
-178
-167
-163
-179
-189
-176
-196
-220
-169
-212
-343
-49
546
406
-488
-912
-570
-256
-199
-121
-59
-80
-54
13
37
59
113
157
179
207
234
245
251
254
243
225
206
185
165
144
121
99
79
60
49
53
69
83
64
41
48
38
28
82
34
-101
182
779
704
-96
-499
-210
53
78
124
175
169
181
210
218
229
245
253
274
306
319
311
303
292
263
223
187
159
134
107
71
25
-16
-39
-53
-60
-45
-32
-63
-100
-111
-142
-145
-84
-169
-327
-2
635
565
-227
-643
-425
-212
-174
-124
-101
-119
-96
-65
-57
-34
-2
24
50
67
72
77
69
40
13
-5
-28
-59
-86
-108
-129
-160
-205
-238
-241
-224
-197
-179
-200
-234
-232
-236
-250
-195
-211
-370
-197
401
484
-274
-814
-596
-276
-213
-165
-98
-95
-81
-45
-33
-18
18
55
94
131
154
173
189
189
178
172
165
138
93
51
17
-24
-71
-94
-87
-77
-70
-58
-71
-102
-102
-106
-128
-74
-78
-237
-46
611
700
-148
-754
-510
-149
-62
7
77
68
76
115
136
161
188
214
259
303
325
344
356
340
309
288
273
241
201
167
132
96
76
64
43
27
30
39
24
-8
-16
-27
-53
-17
-18
-162
-27
551
675
-84
-686
-481
-118
-37
5
73
68
62
94
105
104
124
155
180
199
213
219
221
218
195
159
131
108
75
42
16
-12
-49
-86
-104
-105
-101
-89
-92
-121
-129
-127
-162
-155
-129
-270
-300
205
610
67
-761
-823
-434
-277
-258
-188
-173
-196
-178
-157
-150
-123
-82
-47
-23
-10
-4
-2
-2
-6
-12
-19
-27
-44
-60
-66
-80
-114
-138
-139
-131
-107
-63
-41
-58
-60
-49
-65
-48
-20
-145
-182
294
793
446
-339
-541
-238
-66
-53
-12
10
6
28
46
59
88
111
127
158
195
211
209
208
215
215
198
178
171
159
129
91
63
35
4
-6
18
47
51
37
32
34
29
31
54
