# session 27
-46
-388
821
-469
-5658
-9341
-8925
-7883
-7901
-7618
-7085
-6950
-6783
-6465
-6275
-6064
-5765
-5546
-5331
-5041
-4869
-4669
-3932
-3034
-3075
-3877
-4142
-3658
-3215
-3002
-2763
-2546
-2416
-2281
-2134
-2009
-1881
-1746
-1617
-1485
-1354
-1230
-1106
-978
-854
-737
-621
-511
-412
-328
-240
-133
-15
90
180
260
327
388
449
497
534
579
633
677
717
771
831
880
918
954
985
1008
1033
1052
1064
1080
1108
1144
1180
1188
1155
1138
1182
1222
1223
1248
1281
1272
1301
1315
1220
1435
2154
2383
1498
606
638
996
1086
1109
1163
1139
1099
1088
1052
1006
980
949
914
887
861
834
809
782
748
712
680
647
621
615
620
612
595
572
532
477
418
362
311
261
209
169
154
147
128
100
73
45
14
-16
-47
-80
-115
-155
-195
-227
-237
-225
-220
-248
-298
-336
-351
-370
-403
-412
-405
-415
-399
-409
-506
-313
369
647
-145
-1044
-1080
-743
-653
-654
-611
-619
-635
-620
-629
-651
-657
-668
-678
-660
-626
-598
-574
-553
-533
-506
-475
-440
-401
-363
-329
-289
-245
-214
-197
-191
-195
-202
-202
-198
-216
-250
-259
-236
-203
-169
-142
-152
-185
-193
-185
-189
-196
-195
-197
-199
-189
-159
-111
-65
-43
-46
-53
-41
-26
-30
-23
5
9
17
47
-8
72
674
1230
775
-214
-512
-176
27
40
89
114
93
90
95
113
159
197
217
238
258
271
278
280
283
287
272
239
230
275
333
352
330
298
275
248
184
107
90
120
111
64
41
39
34
45
71
88
94
97
94
83
66
54
56
49
22
2
-3
-11
1
41
51
11
-18
-6
7
-8
-18
-4
-12
-22
15
-27
-89
306
1014
977
36
-604
-443
-171
-130
-101
-70
-89
-80
-54
-65
-80
-82
-94
-110
-123
-126
-110
-100
-110
-101
-70
-54
-53
-49
-46
-51
-65
-83
-89
-96
-123
-159
-187
-216
-239
-241
-242
-261
-275
-262
-243
-249
-262
-258
-250
-254
-264
-279
-299
-314
-315
-292
-236
-167
-109
-55
-26
-61
-92
-40
19
23
43
77
93
134
118
86
513
1270
1234
239
-398
-158
176
253
309
335
287
279
290
279
282
260
190
154
167
169
162
175
189
195
220
251
246
214
194
193
195
195
189
159
108
81
64
0
-66
-73
-115
-216
-218
-96
-7
17
42
48
29
54
101
97
68
69
90
107
132
173
202
195
170
158
148
99
27
-29
-114
-209
-215
-273
-348
99
834
637
-441
-938
-572
-305
-370
-388
-351
-340
-302
-279
-300
-290
-240
-219
-237
-236
-206
-192
-190
-172
-155
-150
-126
-96
-112
-149
-150
-145
-159
-146
-128
-165
-197
-180
-198
-256
-249
-194
-189
-213
-194
-167
-171
-158
-127
-134
-161
-149
-124
-132
-143
-129
-121
-120
-83
-40
-56
-90
-79
-54
-55
-45
-11
-8
-18
48
70
4
354
1210
1469
591
-248
-176
171
232
246
322
313
267
274
291
284
275
262
211
122
71
90
98
66
82
150
160
106
76
93
110
103
96
105
98
59
36
30
14
24
83
134
142
140
147
155
155
155
167
186
209
229
228
216
222
224
211
225
258
266
239
177
98
45
-12
-86
-88
-46
-77
-92
-61
-137
-19
654
1105
453
-516
-675
-349
-220
-199
-150
-173
-206
-187
-191
-213
-215
-213
-205
-182
-176
-184
-164
-127
-126
-150
-151
-145
-160
-169
-162
-180
-214
-220
-211
-232
-261
-271
-289
-315
-315
-296
-275
-246
-219
-209
-198
-176
-158
-148
-144
-145
-140
-141
-167
-189
-179
-160
-142
-123
-131
-171
-195
-194
-202
-196
-134
-79
-92
-73
-22
-86
14
653
1152
606
-349
-565
-232
-61
-44
1
16
29
82
106
101
121
140
140
147
160
167
181
195
188
181
198
214
218
231
250
249
233
222
220
200
153
105
72
45
28
26
24
11
-4
-16
-20
-21
-34
-49
-51
-50
-57
-70
-94
-122
-125
-91
-38
8
22
17
20
29
25
39
84
90
79
125
90
11
399
1103
1000
-25
-676
-466
-146
-51
43
115
92
73
66
37
42
72
66
44
54
79
94
99
108
137
187
229
244
253
260
249
234
235
239
233
217
185
148
134
130
101
56
26
15
7
-11
-34
-50
-53
-53
-62
-83
-113
-142
-150
-135
-121
-125
-134
-140
-146
-152
-169
-193
-200
-220
-241
-192
-205
-324
-54
638
679
-291
-1046
-906
-576
-499
-446
-383
-396
-388
-343
-330
-336
-335
-341
-338
-311
-289
-289
-272
-209
-132
-80
-43
-3
33
49
58
79
100
92
61
34
13
-10
-35
-53
-55
-47
-46
-46
-41
-35
-24
-14
-11
-3
10
9
0
3
25
62
95
101
82
62
54
50
42
50
74
65
54
97
62
10
432
1151
1065
79
-526
-298
0
42
73
111
103
110
119
115
141
171
171
172
184
194
212
232
243
257
284
308
318
317
312
311
313
312
309
301
277
236
194
161
138
120
108
103
97
86
76
64
49
42
40
24
3
-7
-9
7
43
63
45
17
-2
-14
-26
-38
-37
-39
-61
-51
-52
-152
-7
652
1032
367
-538
-644
-311
-192
-173
-89
-58
-79
-91
-114
-133
-133
-143
-159
-159
-157
-162
-167
-168
-166
-157
-148
-147
-153
-163
-183
-206
-218
-223
-240
-275
-317
-352
-378
-397
-412
-421
-427
-435
-440
-437
-435
-436
-429
-425
-447
-484
-512
-535
-552
-542
-512
-491
-501
-525
-521
-495
-499
-493
-403
-304
-270
-216
-189
-225
105
875
1074
242
-489
-335
59
169
215
297
322
341
379
400
428
473
518
574
630
655
662
666
660
660
674
680
681
685
667
615
557
520
510
515
502
473
455
450
446
448
457
469
479
491
507
494
421
327
271
235
186
136
95
69
62
55
18
-47
-113
-156
-184
-217
-238
-244
-275
-291
-271
-355
-370
150
779
468
-507
-892
-573
-332
-311
-261
-223
-249
-278
-318
-363
-369
-355
-352
-345
-330
-320
-308
-285
-257
-237
-224
-211
-200
-194
-189
-186
-182
-163
-135
-137
-178
-221
-241
-254
-263
-245
-202
-169
-167
-174
-163
-147
-157
-186
-202
-211
-220
-201
-154
-122
-92
-31
35
62
59
59
75
87
82
93
125
127
138
172
106
158
721
1231
724
-303
-622
-302
-114
-114
-80
-72
-95
-70
-39
-36
-29
-10
6
20
36
55
71
82
98
119
130
130
129
127
125
124
127
130
127
120
103
74
40
18
9
6
8
13
20
36
46
40
38
49
54
50
48
42
34
30
28
40
74
97
76
38
21
19
4
-31
-48
-47
-68
-56
-22
-107
-24
625
1131
528
-503
-718
-329
-119
-85
-15
25
29
50
61
67
83
90
88
95
104
108
116
135
158
175
191
203
197
173
149
133
118
100
76
34
-20
-58
-76
-111
-172
-221
-248
-266
-281
-295
-299
-293
-300
-301
-242
-149
-89
-61
-51
-68
-84
-63
-21
24
70
85
55
28
24
-1
-51
-60
-47
-70
-70
-68
-140
71
780
1116
371
-521
-552
-177
-47
-26
26
13
-14
6
20
25
30
14
-6
-5
1
2
6
7
11
23
28
23
26
29
16
4
2
-10
-25
-17
-5
-14
-19
-7
-1
5
24
22
-12
-41
-48
-57
-75
-93
-109
-120
-126
-133
-143
-155
-172
-191
-203
-194
-164
-138
-143
-172
-197
-205
-208
-220
-217
-197
-195
-170
-114
-139
-33
577
1132
690
-277
-568
-235
-31
-20
29
77
104
146
167
166
168
161
153
154
140
115
117
142
154
150
143
137
128
114
101
87
77
79
84
70
34
-3
-33
-56
-66
-61
-50
-40
-28
-3
31
56
64
65
70
77
85
94
95
88
79
72
68
62
52
40
39
57
89
118
123
106
84
76
76
71
73
88
64
9
-10
-65
-125
214
863
833
-110
-812
-675
-363
-307
-289
-236
-230
-229
-212
-210
-211
-206
-202
-195
-189
-193
-192
-162
-111
-58
-5
45
87
120
143
154
161
167
171
165
140
100
61
28
2
-10
-11
-13
-15
-16
-19
-22
-23
-21
-17
-16
-20
-22
-21
-24
-34
-49
-67
-84
-91
-94
-93
-90
-87
-83
-84
-96
-93
-54
-1
27
26
8
-5
-3
2
14
34
31
39
67
15
75
626
1179
782
-191
-551
-260
-51
-33
4
25
17
27
29
37
60
29
-53
-105
-108
-101
-98
-97
-95
-89
-81
-75
-64
-56
-64
-79
-87
-93
-103
-115
-140
-174
-181
-147
-109
-93
-89
-79
-54
-24
-11
-15
-11
4
14
13
13
16
15
9
4
4
7
10
5
-7
-19
-20
1
42
74
70
35
7
9
12
3
17
26
-3
13
26
-40
208
925
1143
276
-599
-569
-201
-78
-33
37
39
34
63
74
75
89
98
101
109
114
117
133
156
168
178
198
218
232
240
233
211
198
194
176
143
108
69
34
14
1
-11
-19
-25
-34
-43
-50
-52
-47
-43
-52
-75
-95
-107
-124
-155
-181
-196
-217
-250
-277
-286
-278
-249
-201
-157
-140
-137
-118
-87
-72
-53
-19
-21
-25
16
-23
10
552
1158
783
-270
-707
-408
-158
-115
-65
-42
-59
-47
-30
-22
-1
21
50
92
108
81
47
28
16
2
-11
-15
-13
-16
-29
-61
-126
-219
-306
-364
-422
-508
-597
-662
-702
-700
-637
-551
-489
-449
-402
-340
-291
-256
-198
-105
-19
42
91
126
138
142
143
125
91
63
51
62
106
166
201
204
201
208
209
203
224
262
274
308
363
346
515
1160
1590
974
-3
-210
118
264
284
377
430
430
443
432
400
375
331
304
359
414
359
249
173
112
55
43
67
79
79
83
86
78
64
49
27
-10
-48
-52
-33
-25
-27
-14
-2
-2
13
32
1
-82
-162
-210
-245
-283
-330
-378
-418
-447
-461
-445
-404
-367
-349
-335
-309
-269
-217
-166
-146
-174
-217
-225
-214
-217
-215
-206
-214
-197
-186
-241
-36
630
956
257
-631
-725
-399
-269
-244
-191
-185
-180
-148
-154
-179
-181
-173
-155
-121
-89
-67
-43
-18
3
10
1
-10
-11
-15
-34
-58
-76
-86
-98
-123
-156
-181
-202
-218
-205
-158
-108
-72
-41
-17
-3
8
8
-8
-21
-32
-51
-42
21
96
140
163
181
196
209
213
200
198
230
279
306
299
272
250
241
223
188
178
181
166
178
174
97
309
993
1276
513
-366
-415
-86
13
22
90
117
113
129
141
147
156
156
150
150
160
171
182
200
228
252
266
282
298
298
279
258
247
246
249
240
215
182
151
124
107
100
87
56
21
3
7
27
40
21
-29
-86
-132
-166
-192
-220
-252
-274
-291
-326
-377
-423
-447
-438
-405
-386
-398
-420
-430
-431
-448
-485
-499
-492
-489
-430
-379
-447
-244
471
772
-54
-1000
-1043
-673
-520
-437
-324
-294
-287
-246
-217
-198
-180
-171
-143
-88
-47
-45
-62
-51
0
53
82
104
128
144
146
146
151
153
148
140
135
124
108
93
83
79
78
80
87
100
117
134
151
162
169
182
193
190
180
181
185
178
166
161
166
190
226
250
238
192
150
145
144
123
126
136
111
120
123
64
342
1092
1317
438
-437
-398
-32
84
128
200
212
209
233
266
255
136
-31
-144
-212
-226
-132
-9
45
75
121
153
182
229
261
275
309
331
288
209
137
64
-21
-98
-154
-187
-200
-206
-210
-212
-222
-236
-243
-246
-248
-237
-221
-220
-229
-232
-229
-221
-197
-172
-178
-198
-177
-120
-71
-44
-31
-23
-17
-21
-43
-69
-74
-65
-75
-65
-32
-86
-20
538
1053
585
-419
-751
-436
-233
-222
-178
-149
-158
-152
-148
-153
-143
-137
-139
-132
-122
-115
-105
-93
-74
-48
-31
-29
-24
-13
-9
-13
-16
-23
-41
-60
-74
-96
-134
-172
-192
-196
-198
-203
-206
-207
-209
-208
-199
-188
-189
-197
-200
-206
-217
-209
-187
-173
-139
-67
-2
31
59
95
143
204
258
279
270
262
267
269
257
259
270
256
259
262
204
379
1020
1395
759
-154
-311
2
129
126
162
158
136
151
154
139
136
136
135
134
119
100
97
97
85
72
69
69
62
52
48
52
49
38
26
16
1
-21
-47
-74
-98
-113
-120
-119
-118
-126
-134
-127
-112
-104
-95
-79
-67
-62
-59
-65
-85
-104
-111
-110
-109
-114
-132
-159
-174
-159
-127
-103
-93
-92
-92
-81
-82
-104
-100
-67
-61
-43
-24
-92
54
706
1134
518
-430
-609
-266
-93
-66
-24
-35
-68
-57
-45
-50
-56
-68
-75
-69
-59
-44
-19
-2
1
4
16
26
33
43
43
26
17
33
45
26
3
0
-5
-26
-39
-39
-45
-55
-58
-53
-48
-51
-50
-36
-22
-24
-25
-12
-7
-14
-18
-16
-26
-49
-70
-85
-84
-51
5
42
30
-7
-27
-19
-13
-26
-24
-11
-29
-21
8
-58
84
773
1224
527
-522
-705
-320
-130
-90
-21
-6
-12
16
24
15
23
33
40
54
65
68
64
62
74
88
98
117
142
150
145
141
139
127
101
79
69
46
2
-31
-33
-25
-30
-49
-75
-99
-107
-93
-70
-66
-72
-54
-17
2
2
10
13
-17
-48
-45
-32
-37
-56
-73
-71
-52
-51
-80
-118
-150
-172
-184
-183
-156
-133
-141
-120
-106
-160
83
794
1061
242
-666
-682
-305
-171
-138
-80
-89
-105
-77
-67
-74
-60
-41
-32
-24
-15
-11
-1
21
43
63
88
112
126
142
160
166
167
173
166
140
111
86
60
42
35
33
31
33
38
41
45
54
59
63
71
67
43
