# session 26
-92
-387
632
-443
-4823
-7955
-7601
-6696
-6728
-6547
-6126
-5988
-5806
-5503
-5310
-5115
-4861
-4647
-4447
-4229
-4024
-3826
-3625
-3433
-3249
-3067
-2900
-2764
-2658
-2557
-2441
-2320
-2196
-2052
-1886
-1726
-1600
-1504
-1409
-1296
-1181
-1085
-986
-872
-783
-695
-579
-540
-419
200
884
622
-305
-644
-272
35
120
223
316
363
436
513
565
617
674
722
760
790
820
854
883
909
941
977
1010
1043
1073
1091
1103
1118
1127
1116
1086
1051
1018
1000
995
992
986
974
952
936
940
955
969
978
984
992
1000
1002
1002
999
984
959
931
902
884
896
929
947
932
899
867
840
809
770
755
758
732
712
692
605
761
1408
1751
1004
2
-155
175
282
261
293
281
248
259
251
207
180
166
147
144
155
144
116
89
46
-3
-15
4
9
-22
-87
-163
-226
-276
-315
-344
-383
-420
-438
-477
-546
-582
-587
-605
-609
-593
-606
-633
-630
-624
-637
-648
-667
-712
-754
-768
-773
-786
-786
-769
-753
-763
-804
-849
-865
-859
-851
-815
-751
-731
-718
-646
-654
-632
-94
590
302
-743
-1186
-857
-591
-543
-451
-386
-394
-374
-341
-333
-307
-243
-162
-72
21
115
207
304
402
452
437
404
384
362
351
357
342
305
268
209
110
7
-77
-145
-190
-212
-229
-243
-243
-233
-211
-181
-157
-135
-98
-62
-38
-9
28
57
83
110
140
183
226
242
240
252
280
307
326
350
368
339
313
342
292
281
781
1446
1167
96
-428
-160
91
122
176
205
172
171
181
164
151
142
138
160
192
208
215
222
246
295
350
389
423
451
461
461
453
419
364
309
256
196
144
115
101
88
73
60
52
47
44
36
26
18
9
-2
-6
-5
-12
-35
-67
-103
-129
-131
-122
-138
-187
-241
-274
-289
-308
-326
-323
-333
-356
-340
-367
-414
-44
674
703
-228
-920
-749
-416
-346
-306
-246
-252
-250
-221
-211
-204
-186
-177
-165
-142
-124
-105
-78
-48
-24
-5
12
28
47
60
58
49
46
48
41
22
-5
-33
-56
-70
-74
-69
-57
-39
-24
-14
-6
0
1
3
13
24
35
47
54
50
42
43
66
104
124
108
79
67
69
61
41
38
43
25
28
36
-42
81
712
1141
529
-433
-621
-284
-145
-158
-113
-91
-101
-88
-83
-89
-84
-86
-97
-101
-98
-90
-74
-54
-35
-18
-8
-4
0
2
-5
-21
-33
-38
-45
-56
-68
-82
-88
-73
-54
-70
-117
-152
-161
-165
-179
-198
-216
-239
-264
-281
-294
-311
-333
-355
-380
-404
-404
-367
-327
-330
-359
-346
-266
-159
-70
12
111
178
218
302
328
312
724
1460
1428
442
-218
-11
315
387
441
496
488
503
540
553
565
580
582
582
592
611
627
614
555
481
433
413
385
326
257
193
122
50
0
-32
-72
-121
-160
-195
-243
-285
-289
-267
-258
-267
-270
-267
-278
-300
-315
-322
-325
-319
-311
-306
-293
-261
-217
-188
-192
-214
-230
-233
-235
-245
-236
-218
-239
-237
-204
-285
-216
416
930
332
-717
-940
-557
-372
-352
-276
-249
-266
-240
-219
-219
-207
-196
-186
-153
-115
-90
-64
-23
24
57
78
102
130
146
146
139
136
128
116
113
118
115
101
93
93
93
87
84
98
124
142
148
159
171
161
132
103
69
30
8
12
31
53
51
5
-56
-84
-82
-86
-87
-71
-79
-98
-83
-137
-146
348
1064
912
-76
-615
-362
-90
-60
-21
13
-11
-7
13
5
6
20
21
19
24
32
38
44
48
56
72
89
98
100
99
90
73
61
55
41
18
-7
-33
-56
-69
-74
-75
-73
-68
-61
-58
-58
-55
-43
-27
-15
-8
-10
-14
-15
-11
14
58
83
69
40
25
23
20
8
9
20
6
7
20
-52
50
662
1139
590
-374
-592
-252
-92
-94
-45
-26
-43
-30
-24
-33
-27
-24
-34
-35
-23
-14
-10
-6
-2
3
16
35
49
49
42
32
26
23
16
-1
-22
-42
-60
-74
-85
-98
-103
-92
-77
-68
-62
-56
-50
-47
-51
-58
-66
-79
-93
-101
-92
-68
-48
-56
-89
-120
-129
-123
-130
-138
-127
-130
-134
-105
-153
-178
277
953
791
-186
-727
-484
-215
-191
-164
-125
-132
-117
-86
-77
-71
-63
-56
-42
-24
-9
10
34
52
68
90
114
128
133
135
138
137
134
134
127
106
76
49
23
-4
-22
-28
-29
-26
-22
-20
-15
-6
3
8
12
16
20
21
20
21
42
78
101
92
69
66
79
76
61
78
96
75
92
105
31
258
978
1245
421
-456
-435
-60
53
78
134
126
107
122
121
119
131
136
137
146
151
156
170
172
159
162
185
189
167
152
137
97
49
21
1
-27
-56
-81
-107
-134
-157
-175
-189
-190
-179
-169
-177
-201
-228
-243
-244
-242
-245
-258
-285
-311
-309
-284
-262
-259
-276
-300
-313
-314
-320
-309
-274
-266
-252
-190
-234
-250
262
917
592
-476
-924
-594
-323
-273
-196
-152
-172
-160
-140
-137
-118
-91
-71
-47
-28
-21
-10
13
35
53
73
96
112
117
117
112
109
115
117
102
84
75
63
46
32
27
28
34
34
34
45
64
75
74
76
85
92
85
69
65
77
100
133
172
193
183
165
169
192
203
218
252
259
249
271
216
207
701
1366
1114
86
-398
-100
145
125
128
139
104
96
93
57
33
27
19
15
16
11
9
14
19
20
22
27
32
31
25
15
6
1
-8
-29
-57
-86
-116
-148
-178
-198
-208
-211
-210
-205
-199
-192
-188
-186
-186
-189
-193
-189
-185
-196
-217
-230
-223
-195
-161
-150
-166
-186
-188
-182
-187
-188
-170
-176
-197
-169
-185
-198
226
927
853
-114
-735
-532
-241
-202
-171
-129
-143
-135
-110
-115
-113
-88
-71
-58
-36
-7
26
56
76
96
125
158
191
220
236
242
247
251
246
231
214
198
174
149
135
127
111
90
77
71
64
59
60
60
52
47
47
46
42
37
24
-1
-22
-20
9
44
53
37
16
10
8
-7
-15
0
-7
-20
7
-40
-56
411
1063
827
-212
-759
-509
-246
-222
-191
-166
-197
-202
-190
-198
-199
-192
-193
-191
-180
-168
-157
-150
-149
-144
-132
-127
-130
-125
-96
-36
46
118
161
194
224
230
224
236
253
241
219
219
218
206
212
222
193
142
96
45
-4
-36
-64
-99
-124
-136
-146
-141
-118
-105
-129
-172
-199
-191
-178
-182
-165
-144
-161
-152
-157
-223
72
841
1049
149
-688
-582
-190
-79
-36
37
44
48
71
70
69
80
75
68
72
77
83
89
98
113
129
140
153
164
163
150
133
119
109
94
65
28
-6
-32
-53
-70
-84
-94
-97
-95
-99
-111
-122
-126
-129
-137
-148
-157
-164
-170
-177
-187
-186
-156
-97
-37
-6
-8
-14
-1
9
-3
5
34
34
49
75
1
117
769
1228
596
-413
-614
-261
-96
-79
-18
0
-11
10
23
17
22
28
34
43
45
48
57
66
70
73
74
76
84
88
77
63
56
55
52
41
23
1
-19
-37
-49
-53
-48
-40
-32
-32
-37
-42
-44
-47
-52
-57
-59
-61
-69
-86
-108
-123
-124
-103
-63
-30
-33
-55
-62
-60
-79
-95
-83
-88
-100
-64
-90
-117
307
992
880
-99
-695
-479
-203
-179
-156
-119
-131
-120
-91
-85
-82
-76
-78
-77
-75
-73
-60
-40
-25
-10
10
31
46
58
62
56
52
54
54
41
18
-12
-36
-43
-45
-52
-55
-45
-29
-18
-13
-10
1
18
33
47
57
58
46
28
11
-6
-20
-13
26
68
74
53
39
48
63
63
64
89
99
97
137
115
64
444
1165
1161
201
-489
-313
20
93
124
167
148
130
133
129
131
137
121
96
84
81
77
75
81
94
107
110
102
84
59
40
34
23
-8
-55
-104
-148
-188
-218
-239
-257
-269
-273
-280
-297
-311
-316
-314
-304
-290
-279
-269
-261
-263
-272
-279
-285
-286
-266
-226
-206
-225
-246
-235
-215
-224
-233
-201
-176
-154
-79
-76
-79
396
1105
924
-126
-692
-414
-116
-72
-20
22
3
13
33
19
13
26
32
35
45
65
91
113
133
161
194
219
230
236
246
256
260
255
245
230
210
186
160
135
116
107
106
112
127
143
151
155
159
157
151
147
143
134
115
89
64
38
15
11
26
31
0
-48
-78
-93
-118
-139
-136
-147
-151
-113
-153
-147
353
996
711
-333
-828
-542
-273
-237
-189
-154
-168
-156
-137
-141
-136
-121
-97
-58
-25
-17
-15
-5
8
21
37
53
68
80
81
72
64
64
68
63
42
9
-26
-53
-71
-82
-85
-83
-82
-77
-65
-59
-60
-58
-56
-58
-60
-66
-82
-104
-125
-118
-67
-5
19
9
-8
-20
-22
-21
-22
-12
-6
-24
-8
0
-74
114
787
1114
384
-522
-587
-232
-114
-108
-55
-46
-59
-43
-41
-47
-40
-40
-43
-38
-31
-19
-2
13
27
44
54
59
65
72
67
56
52
54
52
43
29
8
-18
-37
-41
-37
-32
-25
-18
-10
1
7
5
7
17
26
28
20
5
-13
-24
-20
2
22
16
-9
-28
-27
-21
-24
-14
2
-11
-2
20
-54
53
685
1166
600
-373
-592
-253
-85
-68
-6
22
16
36
47
50
71
84
87
95
100
93
91
103
124
150
172
179
177
177
176
163
138
126
141
155
143
134
138
113
42
-27
-69
-94
-106
-111
-126
-142
-147
-163
-189
-203
-213
-240
-266
-276
-272
-255
-233
-233
-264
-302
-321
-329
-351
-361
-350
-366
-375
-340
-405
-434
66
718
413
-648
-1122
-793
-464
-345
-231
-164
-139
-65
10
53
112
174
210
243
266
264
257
260
263
266
275
287
317
367
401
395
364
329
301
291
297
295
269
225
181
148
130
127
128
114
88
71
63
51
40
32
16
-2
-3
7
17
36
59
61
33
-2
-21
-35
-57
-57
-44
-68
-72
-49
-123
-18
628
1101
479
-524
-714
-356
-195
-180
-121
-109
-125
-112
-105
-89
-52
-42
-64
-83
-90
-76
-37
-1
17
27
42
59
75
83
83
75
65
62
61
54
39
17
-7
-23
-28
-27
-23
-19
-21
-35
-57
-74
-84
-91
-95
-92
-92
-108
-125
-118
-86
-54
-42
-53
-70
-77
-73
-76
-84
-72
-69
-87
-68
-83
-151
144
849
978
105
-653
-554
-226
-158
-139
-87
-85
-80
-56
-59
-65
-61
-67
-69
-57
-46
-38
-24
-9
4
23
46
61
73
88
93
89
98
109
101
93
90
66
20
-20
-42
-52
-61
-67
-53
-24
-6
-2
10
25
33
41
44
27
1
-1
48
133
201
224
223
225
235
242
239
228
190
130
132
160
60
117
700
1130
522
-454
-655
-321
-174
-165
-107
-96
-125
-127
-136
-159
-169
-171
-160
-134
-114
-97
-79
-79
-85
-63
-28
-15
-8
10
12
-5
-9
0
6
9
-7
-46
-80
-100
-117
-112
-74
-33
-7
7
22
48
43
-35
-126
-168
-194
-242
-286
-312
-346
-383
-369
-293
-223
-207
-196
-151
-112
-111
-104
-56
-35
-65
-43
0
-36
174
844
1143
381
-546
-617
-270
-177
-194
-135
-105
-97
-71
-85
-122
-136
-145
-135
-78
-27
-30
-48
-57
-93
-123
-56
97
227
283
310
355
411
441
435
433
463
497
519
539
537
495
445
424
423
411
383
350
324
302
280
247
197
144
116
108
93
68
44
27
29
67
121
136
110
83
46
-16
-29
5
-30
-90
-100
-209
-247
256
832
437
-569
-950
-695
-556
-593
-580
-581
-601
-573
-566
-590
-575
-548
-545
-518
-449
-390
-361
-328
-262
-173
-89
-25
10
15
-2
-26
-52
-81
-116
-147
-153
-122
-88
-85
-91
-75
-50
-31
-17
-6
1
4
18
50
88
121
147
164
178
196
209
212
211
214
230
254
267
251
219
195
185
166
142
146
157
150
182
203
154
404
1101
1327
502
-354
-349
-20
64
83
132
110
89
117
134
133
136
136
141
164
196
223
241
249
265
302
307
221
89
-2
-53
-106
-156
-193
-236
-287
-324
-357
-402
-420
-376
-314
-280
-262
-252
-255
-265
-276
-288
-286
-266
-243
-218
-193
-184
-197
-224
-251
-261
-252
-233
-203
-165
-145
-149
-160
-167
-177
-195
-187
-154
-149
-144
-106
-146
-116
406
1028
736
-235
-643
-337
-92
-66
-10
33
19
31
54
54
65
90
105
113
124
133
145
167
188
193
201
238
269
246
191
149
108
52
16
19
29
25
10
-12
-30
-33
-25
-12
10
40
68
92
110
116
118
127
135
131
127
126
104
50
-18
-74
-107
-127
-151
-180
-202
-212
-190
-138
-107
-94
-54
-21
-2
53
50
37
450
1152
1117
192
-424
-231
60
100
137
199
205
223
257
263
262
259
229
185
159
149
135
123
125
131
122
100
68
32
1
-27
-56
-83
-104
-124
-148
-178
-216
-248
-254
-243
-241
-261
-297
-330
-336
-315
-305
-336
-378
-360
-263
-171
-173
-240
-275
-256
-236
-228
-200
-153
-103
-58
-27
-7
16
39
41
46
77
85
65
58
-21
-37
452
1140
959
-32
-565
-321
-62
-48
-46
-48
-76
-62
-47
-67
-69
-44
-21
-4
1
-7
-11
-7
-1
-1
-8
-18
-22
-24
-35
-60
-82
-79
-60
-54
-66
-84
-109
-136
-150
-152
-154
-158
-146
-116
-83
-54
-28
-4
15
30
46
64
76
77
76
79
85
114
169
215
222
206
199
210
208
190
188
171
145
180
165
95
468
1222
1203
212
-407
-208
67
