# session 28
-15
-33
-5
66
24
-149
-233
-198
-200
-213
-188
-202
-208
-161
-184
-234
-70
551
1812
2964
2388
305
-916
-565
-170
-280
-275
-172
-202
-205
-154
-147
-136
-95
-69
-47
-14
20
60
102
141
188
243
294
329
344
341
334
324
299
258
201
119
29
-47
-116
-178
-222
-251
-274
-284
-279
-266
-257
-252
-247
-242
-234
-229
-229
-227
-226
-234
-239
-233
-232
-243
-253
-260
-261
-250
-239
-226
-191
-153
-156
-189
-209
-206
-208
-206
-194
-207
-211
-167
-183
-259
-175
289
1354
2637
2638
891
-620
-572
-141
-217
-278
-169
-177
-197
-143
-129
-125
-86
-59
-40
-5
34
74
123
177
236
298
357
403
434
449
447
430
406
364
287
188
94
6
-81
-157
-212
-247
-268
-280
-287
-283
-272
-263
-258
-247
-236
-233
-234
-231
-226
-225
-229
-234
-243
-255
-264
-261
-253
-241
-211
-171
-159
-185
-211
-209
-209
-224
-211
-195
-217
-205
-179
-261
-308
-1
896
2302
3116
2068
108
-653
-279
-144
-301
-261
-204
-242
-219
-180
-184
-163
-124
-101
-69
-27
9
52
106
162
218
276
332
375
395
396
391
377
340
275
192
100
4
-84
-155
-210
-251
-284
-305
-307
-300
-298
-291
-276
-266
-260
-251
-243
-238
-234
-236
-238
-238
-241
-242
-243
-256
-270
-262
-241
-214
-172
-134
-136
-171
-194
-190
-189
-191
-178
-183
-203
-165
-143
-240
-260
126
1138
2517
2990
1650
-130
-576
-199
-160
-278
-207
-181
-220
-186
-152
-150
-122
-91
-75
-41
4
40
77
129
183
230
282
337
374
387
390
382
358
318
265
196
107
13
-65
-128
-182
-226
-261
-279
-274
-263
-262
-264
-257
-242
-231
-228
-227
-218
-212
-219
-224
-218
-220
-227
-226
-222
-228
-232
-232
-245
-252
-236
-212
-179
-137
-113
-126
-154
-172
-172
-168
-164
-151
-154
-162
-131
-145
-244
-211
256
1351
2645
2761
1188
-361
-505
-126
-153
-241
-177
-174
-187
-143
-129
-126
-96
-69
-44
-1
36
61
100
154
203
246
294
340
368
383
386
377
361
337
291
218
137
60
-18
-97
-156
-186
-204
-226
-236
-227
-219
-221
-219
-211
-208
-204
-203
-211
-210
-194
-192
-211
-221
-215
-212
-212
-206
-199
-202
-209
-208
-202
-197
-193
-187
-180
-170
-163
-165
-169
-161
-150
-159
-182
-189
-174
-145
-104
-62
-41
-52
-87
-110
-102
-101
-114
-108
-113
-121
-81
-90
-186
-130
333
1407
2743
2873
1159
-513
-595
-122
-144
-222
-120
-121
-152
-99
-73
-76
-49
-20
-2
26
63
103
139
170
207
259
312
351
377
390
388
376
361
336
293
233
161
89
23
-48
-121
-171
-193
-209
-226
-233
-231
-225
-213
-206
-205
-203
-199
-195
-191
-197
-214
-220
-214
-218
-231
-235
-233
-232
-232
-228
-223
-225
-232
-224
-206
-204
-213
-207
-193
-192
-192
-184
-180
-181
-172
-161
-164
-173
-180
-185
-175
-134
-79
-44
-42
-64
-98
-115
-111
-116
-122
-111
-123
-136
-91
-99
-205
-152
336
1406
2693
2871
1331
-262
-445
-75
-120
-217
-141
-140
-167
-122
-95
-90
-63
-39
-17
14
49
86
123
164
224
284
324
365
413
436
432
425
417
391
342
277
201
115
31
-41
-107
-165
-203
-221
-232
-240
-243
-240
-232
-223
-219
-217
-211
-206
-205
-201
-198
-204
-209
-208
-214
-220
-214
-210
-215
-215
-210
-208
-204
-195
-190
-193
-190
-178
-171
-172
-172
-164
-154
-153
-158
-150
-133
-129
-133
-130
-125
-123
-118
-118
-131
-142
-144
-130
-93
-44
-15
-11
-25
-55
-79
-83
-89
-94
-79
-81
-101
-74
-69
-165
-155
241
1181
2417
2793
1512
-109
-467
-105
-83
-191
-128
-113
-143
-104
-81
-86
-60
-34
-16
21
58
84
118
164
214
264
314
359
389
404
417
421
405
378
343
285
209
135
64
-12
-85
-146
-191
-215
-228
-239
-243
-235
-224
-217
-214
-210
-205
-204
-204
-202
-200
-203
-204
-204
-204
-204
-214
-225
-214
-199
-202
-208
-197
-188
-187
-183
-180
-184
-182
-174
-168
-163
-161
-163
-160
-152
-146
-139
-139
-147
-143
-125
-119
-123
-124
-124
-125
-128
-133
-140
-138
-111
-65
-30
-17
-20
-52
-92
-91
-75
-88
-96
-93
-107
-87
-67
-141
-162
142
986
2275
2911
1790
-13
-583
-174
-63
-209
-168
-111
-131
-112
-88
-81
-54
-32
-15
19
50
70
110
168
211
247
305
367
396
409
431
438
420
399
377
327
247
163
80
-1
-69
-128
-184
-223
-239
-251
-259
-251
-236
-235
-237
-229
-225
-229
-226
-218
-218
-224
-228
-233
-238
-236
-231
-227
-227
-235
-239
-227
-213
-214
-219
-216
-211
-210
-207
-200
-195
-194
-194
-189
-182
-183
-194
-200
-184
-144
-100
-75
-75
-89
-115
-135
-139
-142
-135
-123
-142
-149
-109
-137
-215
-86
512
1734
2909
2517
603
-659
-426
-70
-192
-210
-105
-133
-144
-90
-83
-77
-36
-12
2
35
75
110
152
204
257
308
363
420
457
468
459
445
425
382
314
235
151
67
-17
-98
-164
-201
-223
-244
-261
-266
-260
-246
-230
-225
-229
-223
-209
-204
-209
-211
-210
-209
-207
-209
-213
-215
-216
-218
-215
-209
-210
-215
-209
-197
-191
-189
-185
-180
-176
-174
-174
-167
-159
-159
-161
-162
-167
-177
-179
-153
-101
-57
-42
-47
-69
-102
-117
-115
-118
-115
-109
-123
-113
-93
-164
-214
60
873
2120
2824
1883
120
-572
-208
-54
-194
-164
-111
-147
-127
-93
-98
-72
-34
-23
1
42
73
103
146
199
258
316
366
410
439
450
449
436
406
364
306
225
139
56
-33
-117
-169
-198
-230
-258
-269
-267
-256
-250
-254
-250
-230
-220
-221
-218
-214
-217
-221
-219
-218
-219
-218
-219
-221
-217
-219
-225
-217
-207
-209
-205
-197
-199
-197
-187
-187
-192
-191
-197
-206
-192
-142
-87
-65
-76
-95
-113
-127
-132
-137
-135
-125
-139
-142
-109
-148
-233
-112
449
1555
2637
2372
697
-522
-409
-88
-172
-196
-115
-145
-160
-113
-101
-90
-51
-30
-12
25
59
86
127
177
228
281
329
372
418
446
439
423
413
381
313
234
153
65
-19
-90
-154
-209
-244
-254
-253
-256
-264
-265
-252
-238
-236
-239
-231
-215
-213
-221
-224
-221
-221
-217
-214
-226
-235
-222
-214
-224
-227
-218
-211
-201
-195
-205
-209
-203
-212
-214
-173
-120
-95
-90
-95
-120
-146
-153
-157
-157
-148
-165
-176
-134
-135
-216
-178
259
1354
2693
2760
1032
-569
-611
-149
-172
-247
-148
-136
-154
-112
-95
-86
-54
-36
-23
8
45
85
139
192
237
287
342
387
419
443
453
445
427
390
329
256
177
82
-17
-92
-150
-205
-245
-265
-280
-283
-270
-260
-259
-260
-257
-245
-227
-225
-230
-223
-221
-233
-234
-226
-230
-234
-233
-237
-235
-225
-224
-232
-231
-229
-237
-240
-217
-177
-138
-107
-94
-121
-169
-184
-170
-170
-169
-158
-176
-176
-136
-179
-265
-106
598
1930
3002
2348
395
-664
-363
-98
-228
-217
-148
-189
-174
-124
-126
-110
-75
-61
-35
8
39
76
130
180
233
295
348
389
426
448
446
427
392
338
267
181
86
-2
-80
-150
-204
-236
-260
-282
-291
-283
-276
-274
-264
-249
-240
-234
-226
-220
-218
-217
-218
-216
-215
-218
-223
-225
-227
-229
-227
-221
-219
-218
-214
-219
-235
-237
-205
-155
-116
-99
-102
-122
-148
-158
-154
-156
-150
-140
-155
-151
-128
-190
-251
-9
801
2101
2878
1957
144
-611
-260
-83
-219
-199
-145
-178
-158
-116
-116
-98
-63
-43
-22
13
54
94
132
179
240
302
354
395
422
430
426
417
392
338
267
187
96
1
-81
-144
-193
-231
-258
-270
-270
-267
-262
-254
-245
-238
-236
-237
-227
-209
-202
-205
-205
-205
-208
-208
-208
-216
-222
-213
-199
-197
-199
-196
-196
-199
-202
-213
-222
-200
-151
-108
-86
-81
-95
-126
-145
-144
-144
-143
-135
-149
-152
-111
-135
-231
-149
387
1505
2653
2486
829
-488
-441
-101
-177
-219
-129
-141
-154
-109
-104
-99
-59
-37
-23
12
47
81
128
169
208
269
338
379
400
421
434
430
410
369
303
227
148
61
-29
-107
-167
-215
-245
-256
-262
-263
-260
-260
-260
-249
-239
-236
-232
-224
-220
-216
-213
-217
-225
-226
-218
-214
-223
-231
-222
-209
-207
-210
-205
-199
-199
-203
-194
-176
-170
-172
-170
-174
-187
-186
-173
-164
-132
-72
-37
-50
-82
-108
-120
-123
-124
-116
-117
-126
-98
-90
-167
-167
170
1086
2434
2961
1620
-239
-683
-198
-99
-228
-149
-103
-148
-119
-77
-75
-58
-27
-1
27
53
81
124
176
223
268
321
378
418
434
440
445
439
411
364
299
214
117
23
-61
-132
-191
-236
-266
-275
-273
-274
-276
-271
-258
-248
-241
-232
-224
-227
-235
-233
-224
-222
-226
-229
-233
-236
-237
-237
-235
-230
-227
-223
-214
-210
-215
-214
-205
-199
-199
-205
-216
-217
-190
-141
-96
-78
-87
-111
-134
-145
-148
-151
-144
-135
-153
-146
-110
-166
-242
-54
637
1897
2957
2393
486
-628
-355
-68
-209
-213
-124
-160
-163
-115
-111
-98
-57
-34
-16
16
51
92
140
189
240
300
363
408
431
451
466
459
431
386
312
221
134
43
-51
-126
-176
-218
-252
-268
-276
-281
-277
-266
-257
-250
-241
-230
-219
-211
-211
-211
-203
-203
-213
-212
-198
-198
-213
-217
-208
-202
-199
-197
-198
-196
-183
-176
-181
-178
-164
-164
-168
-162
-156
-162
-167
-170
-172
-157
-113
-60
-33
-43
-69
-90
-99
-105
-114
-111
-95
-109
-122
-83
-96
-197
-134
357
1393
2573
2655
1154
-326
-456
-80
-115
-204
-122
-117
-148
-107
-83
-84
-54
-23
-10
10
45
86
133
178
222
274
334
386
422
444
455
450
431
404
358
279
186
100
17
-68
-139
-187
-223
-251
-266
-270
-269
-264
-257
-252
-249
-243
-236
-231
-225
-221
-225
-229
-225
-220
-219
-222
-225
-226
-225
-223
-220
-219
-220
-217
-209
-205
-206
-205
-198
-187
-178
-179
-183
-179
-174
-183
-191
-182
-157
-120
-79
-54
-55
-78
-107
-122
-128
-139
-133
-116
-129
-130
-93
-129
-203
-58
533
1694
2814
2469
649
-607
-428
-73
-168
-204
-127
-147
-150
-107
-95
-71
-39
-33
-14
32
67
96
135
182
230
285
345
401
437
453
466
471
446
399
342
276
197
107
9
-83
-153
-208
-256
-280
-279
-279
-283
-276
-263
-262
-261
-246
-229
-229
-236
-236
-230
-224
-225
-229
-230
-233
-241
-234
-222
-229
-237
-226
-213
-212
-209
-198
-190
-198
-216
-223
-207
-180
-145
-102
-72
-79
-119
-150
-150
-150
-162
-155
-149
-161
-137
-122
-191
-187
175
1161
2559
2992
1462
-461
-811
-253
-143
-250
-159
-127
-164
-120
-88
-93
-59
-22
-8
21
66
108
154
205
264
334
408
470
516
546
556
548
520
465
386
289
180
67
-38
-133
-211
-261
-287
-305
-316
-316
-309
-302
-291
-279
-274
-269
-255
-241
-239
-241
-237
-234
-237
-243
-245
-244
-242
-241
-239
-239
-241
-238
-229
-222
-225
-225
-213
-204
-210
-211
-195
-193
-213
-221
-204
-170
-126
-91
-85
-108
-131
-134
-130
-144
-151
-133
-144
-149
-96
-137
-271
-127
525
1687
2922
2916
1222
-329
-406
-55
-158
-247
-158
-170
-190
-135
-126
-131
-89
-55
-38
-2
36
66
112
172
230
294
367
428
471
506
527
524
505
463
382
277
170
61
-52
-150
-216
-258
-289
-311
-318
-318
-319
-315
-306
-295
-289
-284
-275
-262
-257
-258
-258
-258
-262
-261
-254
-253
-256
-253
-255
-261
-255
-240
-234
-233
-226
-220
-218
-220
-231
-244
-233
-198
-155
-121
-108
-121
-145
-154
-148
-154
-157
-137
-147
-169
-122
-127
-255
-202
327
1427
2765
3031
1482
-243
-501
-103
-132
-241
-162
-156
-181
-135
-120
-120
-77
-46
-35
-3
39
78
123
177
238
300
362
427
480
506
513
513
496
449
378
284
172
59
-38
-123
-198
-252
-283
-303
-312
-312
-307
-300
-292
-286
-278
-268
-260
-257
-256
-255
-256
-254
-248
-249
-257
-260
-253
-248
-244
-237
-234
-236
-234
-228
-224
-221
-224
-242
-257
-234
-184
-142
-113
-100
-122
-154
-159
-153
-164
-163
-152
-169
-162
-119
-178
-269
-67
685
2001
3053
2437
508
-589
-322
-66
-218
-223
-148
-192
-187
-131
-128
-121
-83
-62
-40
2
42
75
121
178
235
295
359
409
441
461
463
443
413
373
302
204
101
0
-96
-169
-220
-262
-289
-299
-305
-307
-295
-277
-267
-267
-265
-255
-243
-247
-254
-248
-244
-250
-247
-239
-244
-246
-240
-239
-241
-238
-236
-233
-221
-214
-217
-217
-218
-222
-210
-171
-123
-91
-88
-109
-133
-139
-137
-146
-144
-122
-132
-137
-99
-134
-227
-92
573
1851
2962
2476
607
-558
-337
-38
-166
-192
-115
-142
-143
-98
-92
-80
-45
-21
5
39
70
103
148
202
261
311
357
408
446
458
456
447
421
377
317
234
138
49
-31
-108
-165
-198
-228
-251
-250
-240
-239
-235
-224
-219
-218
-213
-208
-207
-211
-218
-215
-209
-214
-220
-220
-225
-234
-229
-216
-220
-230
-223
-216
-233
-245
-231
-213
-190
-143
-113
-133
-165
-166
-162
-175
-171
-153
-168
-182
-148
-161
-244
-176
347
1512
2716
2516
767
-575
-475
-101
-194
-261
-177
-188
-205
-158
-145
-146
-117
-91
-69
-40
-10
26
69
113
162
216
267
310
339
354
355
340
316
283
224
139
53
-30
-118
-196
-247
-280
-304
-314
-318
-325
-318
-296
-284
-285
-276
-260
-256
-263
-262
-250
-239
-242
-252
-252
-239
-234
-233
-224
-218
-220
-209
-190
-191
-204
-205
-188
-157
-111
-64
-42
-62
-90
-82
-62
-65
-58
-41
-49
-34
-1
-43
-76
192
1060
2378
2973
1837
102
-421
-15
102
-27
23
72
42
69
101
101
142
