# session 6
20
6
17
17
-93
-275
-351
-277
-157
-87
-114
-154
-63
360
1492
2898
2893
1020
-715
-802
-103
-59
-573
-211
1151
1618
739
214
401
326
106
141
96
-22
83
180
65
-12
-32
-214
-395
-374
-332
-346
-285
-211
-232
-286
-305
-244
-104
-21
-53
-108
-157
-212
-255
-332
-348
-216
-274
-385
413
1692
1780
1183
1467
1478
-72
-1380
-1156
-742
-812
-660
-315
-232
-313
-352
-340
-337
-331
-176
113
338
486
581
444
95
-152
-206
-228
-217
-164
-301
-630
-766
-643
-571
-560
-488
-467
-358
-15
118
46
364
461
-473
-1060
-15
1143
885
256
475
1154
1903
2467
1811
12
-1069
-878
-644
-721
-697
-690
-749
-683
-604
-596
-572
-530
-411
-177
-11
19
70
153
143
53
-55
-184
-262
-232
-199
-191
-55
233
479
627
977
1692
2066
1248
-99
-577
-257
-90
-186
-278
-367
-392
-398
-486
-460
-191
610
2324
3665
2665
362
-667
-510
-537
-649
-561
-602
-690
-620
-567
-587
-536
-409
-300
-256
-252
-250
-229
-164
-119
-156
-131
-75
-398
-1014
-1164
-675
-164
67
220
426
643
674
371
22
-73
-130
-271
-216
-67
-197
-435
-570
-785
-894
-509
376
1725
2805
2131
119
-955
-661
-382
-383
-253
-241
-395
-424
-499
-668
-493
-59
150
490
1489
2238
1493
-9
-580
-266
-169
-274
-105
32
-115
-236
-249
-311
-320
-199
-114
-78
79
346
509
416
130
-142
-271
-320
-425
-600
-610
-323
166
1062
2195
2126
344
-1168
-1034
-434
-450
-599
-501
-528
-580
-204
29
-367
-190
920
1174
315
57
460
476
305
276
100
-96
-83
-90
-224
-339
-371
-279
-152
-235
-443
-435
-292
-322
-417
-365
-337
-442
-458
-349
-341
-409
-381
-335
-350
-164
647
2057
2969
2060
-93
-1211
-176
1689
2253
941
-628
-917
-471
-374
-522
-513
-382
-202
-25
64
90
82
51
74
197
357
419
323
233
228
55
-322
-515
-419
-298
-230
-223
-393
-601
-631
-604
-629
-579
-454
-364
-341
-402
-471
-447
-402
-209
381
1105
1635
1885
1391
193
-546
-457
-381
-438
-202
13
-140
-295
-193
-145
-302
-316
-69
19
-240
-437
-273
-24
-48
-234
-231
-13
151
183
255
382
391
279
182
133
60
-141
-312
-161
-137
-712
-731
855
2497
2240
641
-552
-725
-285
621
1994
2674
1439
-504
-1144
-804
-706
-687
-394
-183
-132
13
156
82
-128
-303
-436
-537
-536
-516
-653
-833
-827
-681
-542
-390
-194
-49
-19
-10
28
-3
-85
-115
-103
67
361
365
355
862
1058
405
9
133
-77
-384
-330
-261
-120
461
1318
1761
935
-773
-1550
-929
-394
-587
-752
-578
-434
-439
-441
-398
-335
-230
-100
25
166
279
312
327
307
205
187
215
-40
-168
779
2276
2414
825
-627
-782
-412
-257
-212
-224
-296
-278
-236
-267
-302
-415
-589
-546
-321
-198
-108
368
1624
3064
2846
623
-1187
-1206
-825
-936
-989
-919
-965
-923
-749
-569
-391
-275
-108
72
-81
-87
336
38
-269
1438
2899
1536
532
1741
1834
305
-122
263
84
-82
-5
-199
-508
-715
-813
-680
-534
-743
-1137
-1256
-957
-635
-702
-829
-496
377
1891
3328
2781
333
-1268
-1071
-754
-942
-991
-938
-943
-797
-592
-378
95
787
1558
2231
2036
744
-332
-407
-312
-472
-477
-428
-540
-555
-430
-356
-308
-256
-253
-237
-151
-14
122
146
58
-44
-177
-357
-501
-593
-607
-587
-769
-1054
-980
-344
898
2302
2371
633
-943
-1004
-595
-561
-480
-265
-355
-597
-127
1304
2395
1955
806
365
546
564
346
139
-58
-232
-308
-362
-403
-323
-288
-482
-588
-366
-242
-478
-663
-566
-507
-648
-726
-575
-386
-351
-380
-393
-434
-444
-436
-515
-553
-396
318
1971
3216
2662
2124
2476
1455
582
2776
3905
785
-1627
-903
-510
-988
-653
-235
-301
-183
-5
-30
-38
-98
-186
30
349
316
104
49
22
-149
-350
-454
-470
-455
-450
-472
-509
-519
-501
-514
-560
-604
-712
-908
-1051
-1120
-1206
-1131
-759
-252
636
1991
2424
1069
-307
-248
144
-36
-214
-261
-479
-566
-334
-118
-53
18
116
126
3
-169
-305
-401
-435
-386
-352
-386
-394
-368
-369
-275
-23
95
-93
-303
-357
-467
-584
-424
-214
-119
396
1354
2089
2477
2234
778
-912
-1385
-1024
-617
232
1707
2539
1429
-618
-1359
-696
-158
-91
-16
86
148
210
199
112
53
86
187
270
287
231
131
85
102
78
13
-93
-292
-408
-299
-237
-385
-582
-820
-1046
-1164
-1524
-1801
-641
1596
2560
1667
666
439
360
144
69
29
-179
-244
147
991
1956
1928
240
-1489
-1521
-742
-555
-678
-672
-746
-796
-671
-587
-532
-328
-103
4
70
127
94
-91
-371
-523
-415
-252
-189
-28
272
736
1735
2554
1817
709
1026
1141
-200
-912
-377
-250
-491
-382
-405
-619
-550
-358
-369
-495
-440
-39
801
2219
3376
2597
318
-965
-735
-538
-737
-742
-639
-610
-533
-465
-490
-488
-396
-295
-250
-243
-190
-9
135
-49
-330
-461
-1049
-1876
-1044
1368
2357
1080
-46
-33
11
-201
-263
-254
-235
-165
-174
-230
-257
-368
-459
-331
-210
-299
-390
-347
110
1520
2997
2491
300
-1030
-903
-770
-908
-706
-402
-367
-380
-255
-149
-147
29
461
580
259
515
1700
2396
1524
88
-491
-374
-397
-564
-570
-559
-623
-588
-461
-373
-246
-10
139
21
-222
-298
-87
225
316
139
-66
-274
-560
-643
-437
-52
1020
2509
2334
77
-1589
-1385
-888
-851
-681
-443
-348
-259
-293
-293
-117
-433
-893
101
1928
2220
1055
288
242
175
-73
-254
-201
-15
61
12
-64
-161
-218
-242
-340
-448
-469
-477
-473
-416
-428
-550
-628
-635
-646
-600
-499
-500
-571
-438
347
1964
3125
2082
-241
-1229
-651
-215
-373
-561
-548
347
2305
2713
345
-371
2480
3343
432
-1056
-118
-24
-560
-366
-213
-315
-132
22
-127
-267
-234
-145
-127
-167
-170
-173
-216
-199
-149
-215
-351
-435
-451
-420
-457
-639
-824
-953
-977
-665
-31
973
2273
2197
-190
-1790
-156
2094
2434
1762
895
-60
-438
-344
-446
-544
-383
-229
-116
82
234
254
241
168
-63
-276
-238
-140
-254
-425
-476
-536
-623
-618
-616
-740
-885
-916
-849
-794
-800
-764
-603
-361
-91
110
171
313
672
885
811
1010
1820
2450
1700
-206
-1454
-1202
-610
-543
-593
-508
-484
-498
-455
-384
-299
-236
-165
3
173
219
245
274
166
29
97
212
85
-156
-215
-138
-170
-321
-393
-325
-273
-316
-365
-432
-474
-275
-42
-116
17
867
1869
2258
1675
314
-594
-190
789
1614
1968
1081
-620
-1340
-897
-587
-641
-606
-577
-646
-658
-614
-562
-507
-471
-430
-365
-312
-294
-349
-477
-569
-561
-508
-464
-485
-533
-487
-441
-414
-124
213
263
622
1487
2054
2268
2212
1337
527
1107
2463
4059
5604
4837
1172
-1726
-1754
-960
-414
802
1748
715
-1187
-1841
-1482
-1326
-1323
-1105
-933
-962
-1002
-960
-873
-789
-713
-617
-523
-496
-551
-631
-681
-723
-749
-677
-641
-777
-765
-596
-779
-818
240
1699
2407
2360
1538
122
-655
-428
-212
-342
-430
-499
-640
-693
-627
-593
-646
-606
-271
518
1721
2339
1241
-602
-1240
-808
-563
-551
-404
-319
-339
-287
-218
-180
-95
21
104
169
224
231
196
162
130
103
91
44
-19
-39
-82
-95
12
-63
-222
279
1046
820
-23
-263
-92
-136
-216
-186
-200
-226
-190
-143
-156
-233
-215
228
1339
2516
2299
501
-942
-891
-436
-455
-562
-501
-410
-308
-216
-153
-48
61
88
120
236
319
281
216
192
180
188
212
178
79
-14
-68
-102
-127
-141
-143
-135
-112
-96
-127
-174
-175
-167
-211
-266
-285
-303
-314
-279
-283
-363
-207
670
2130
2870
1777
-114
-894
-582
-371
-418
-357
-288
-272
-205
-143
-115
-58
7
54
110
160
173
154
119
85
70
73
66
30
-17
-47
-57
-53
-34
-14
-26
-77
-132
-167
-209
-253
-257
-270
-333
-344
-307
-349
-377
-322
-378
-470
-211
634
1967
2796
1838
-132
-980
-606
-401
-516
-463
-391
-413
-375
-306
-250
-156
-53
34
120
182
196
183
144
77
6
-49
-81
-92
-99
-106
-91
-58
-40
-49
-55
-44
-57
-113
-159
-163
-200
-301
-343
-289
-261
-229
-145
-200
-344
-227
307
1408
2723
2710
917
-598
-608
-316
-447
-484
-388
-410
-404
-322
-275
-227
-153
-91
-32
11
6
-26
-56
-85
-102
-82
-37
-9
-6
3
4
-41
-89
-86
-87
-135
-168
-162
-156
-135
-76
-39
-37
-2
44
31
10
5
-94
-229
-150
392
1468
2314
1734
164
-662
-470
-309
-384
-336
-274
-297
-260
-187
-147
-96
-27
30
87
127
112
72
49
25
-3
1
33
52
62
79
81
64
36
-11
-66
-102
-113
-117
-135
-164
-172
-165
-185
-217
-242
-277
-260
-199
-280
-438
-325
217
1181
2033
1615
29
-919
-635
-314
-395
-385
-295
-303
-267
-179
-126
-61
17
56
79
108
119
73
-42
-144
-145
-88
-51
-9
53
84
79
77
67
29
-15
-45
-65
-74
-108
-174
-186
-143
-168
-241
-255
-244
-235
-205
-259
-399
-387
73
1251
2562
2371
527
-808
-652
-298
-387
-394
-287
-284
-256
-172
-122
-74
-3
74
171
258
277
246
220
199
174
170
169
128
80
73
69
28
-10
-14
-12
-35
-71
-90
-86
-104
-139
-142
-147
-189
-210
-207
-234
-246
-240
-294
-342
-109
721
1861
2045
692
-722
-866
-448
-368
-387
-297
-269
-252
-172
-112
-61
24
108
185
268
320
306
253
187
119
69
46
20
-24
-50
-49
-53
-67
-79
-94
-123
-158
-186
-197
-207
-233
-255
-260
-281
-315
-327
-349
-368
-324
-317
-424
-415
21
985
1945
1730
212
-940
-795
-374
-375
-377
-265
-248
-233
-159
-112
-64
24
114
185
230
235
206
155
89
36
16
18
23
33
55
73
73
64
51
22
-19
-49
-70
-99
-127
-124
-106
-125
-161
-161
-177
-224
-192
-162
-319
-470
-208
776
2307
3023
1755
-145
-691
-345
-329
-437
-333
-299
-330
-264
-200
-170
-105
-39
14
82
129
122
86
46
16
10
19
34
52
60
47
28
6
-35
-83
-121
-166
-209
-220
-217
-217
-196
-170
-189
-217
-221
-252
-270
-221
-243
-388
-392
31
999
2017
1883
449
-663
-597
-299
-332
-314
-204
-189
-171
-110
-77
-39
26
78
128
188
217
188
121
48
-10
-36
-38
-36
-36
-39
-56
-89
-122
-145
-169
-207
-242
-250
-245
-249
-254
-230
-174
-143
-169
-189
-182
-207
-211
-181
-257
-351
-162
481
1556
2318
1622
-21
-799
-510
-313
-387
-326
-243
-239
-191
-118
-61
11
78
139
210
247
224
175
123
82
71
95
129
141
118
80
56
41
7
-41
-74
-92
-134
-189
-208
-204
-215
-210
-186
-205
-249
-250
-253
-270
-226
-226
-368
-415
-68
884
2204
2562
1129
-516
-744
-326
-306
-362
-273
-274
-272
-176
-111
-50
54
123
175
261
318
307
253
182
122
95
90
96
100
88
62
34
-2
-39
-67
-109
-169
-207
-215
-229
-262
-285
-272
-255
-284
-319
-325
-341
-337
-291
-346
-466
-335
282
1356
2167
1548
-137
-1010
-663
-351
-421
-383
-294
-310
-273
-192
-149
-90
-10
56
127
182
174
118
43
-36
-88
-98
-84
-68
-69
-79
-78
-74
-83
-102
-129
-163
-187
-200
-221
-249
-258
-241
-228
-246
-265
-267
-282
-285
-241
-261
-399
-408
90
1198
2258
2250
1434
1288
1905
1663
273
-659
-590
-500
-534
-288
-324
-766
-628
27
214
51
84
112
-4
-58
-65
-96
-86
-64
-80
-95
-95
-111
-144
-179
-211
-238
-257
-260
-247
-239
-235
-200
-151
-159
-213
-225
-229
-260
-235
-230
-383
-493
-253
545
1804
2402
1305
-304
-697
-339
-316
-410
-321
-291
-311
-248
-188
-147
-69
13
75
127
156
146
104
51
13
0
5
13
16
13
4
-9
-31
-66
-92
-98
-109
-137
-156
-159
-155
-141
-110
-74
-66
-82
-88
-104
-135
-106
-73
-188
-321
-108
751
2039
2534
1364
-217
-601
-247
-188
-276
-216
-183
-189
-137
-74
-15
54
106
161
231
274
255
182
93
51
68
80
64
56
63
45
-1
-45
-90
-148
-193
-219
-250
-280
-284
-276
-285
-301
-292
-276
-292
-319
-321
-331
-341
-308
-325
-424
-397
33
1045
2111
1884
235
-967
-798
-401
-422
-404
-292
-293
-292
-234
-177
-93
-6
57
134
210
222
178
123
72
31
17
26
27
1
-25
-29
-44
-93
-145
-178
-206
-244
-277
-286
-279
-293
-318
-312
-303
-331
-341
-318
-338
-341
-277
-310
-406
-257
250
1146
2008
1623
33
-857
-541
-250
101
1045
1680
1746
1993
1846
650
-371
-354
-123
-159
-129
-69
-152
-246
-289
-317
-304
-278
-284
-287
-277
-283
-300
-317
-334
-354
-383
-417
-432
-427
-430
-447
-450
-413
-369
-364
-362
-335
-345
-361
-306
-324
-487
-529
-71
1241
2902
3077
1206
-488
-551
-194
-290
-326
-218
-238
-245
-168
-125
-84
-6
76
164
236
253
234
196
144
107
98
96
83
61
43
40
43
39
24
5
-9
-24
-44
-52
-40
-42
-52
-26
10
-6
-41
-42
-53
-80
-54
-55
-169
-218
49
828
1922
2221
1027
-357
-566
-224
-213
-265
-173
-156
-165
-100
-51
-22
43
121
194
264
303
292
248
190
137
101
76
45
0
-48
-87
-124
-173
-223
-257
-281
-312
-341
-351
-344
-333
-310
-262
-218
-225
-259
-271
-297
-326
-289
-289
-424
-485
-193
656
1856
2210
933
-595
-860
-502
-495
-567
-481
-461
-459
-378
-329
-307
-233
-146
-77
-14
22
12
-34
-103
-153
-150
-132
-140
-159
-172
-187
-212
-248
-287
-312
-330
-350
-360
-371
-395
-402
-381
-356
-318
-280
-280
-290
-289
-300
-272
-231
-320
-431
-217
634
2084
2987
1989
23
-753
-369
-191
-286
-203
-128
-139
-70
20
75
160
263
354
442
504
511
470
400
330
288
274
277
283
288
289
