# session 26
-16
-16
-27
66
210
238
212
256
320
361
418
488
540
568
581
586
582
552
493
416
324
225
128
37
-45
-110
-153
-182
-203
-211
-207
-203
-197
-188
-185
-186
-181
-175
-176
-177
-176
-178
-182
-185
-187
-189
-191
-194
-197
-201
-210
-218
-220
-216
-197
-154
-108
-92
-111
-142
-151
-147
-153
-149
-141
-156
-143
-122
-199
-262
-14
786
2089
2901
1998
148
-654
-313
-122
-247
-220
-164
-199
-182
-138
-132
-116
-88
-70
-44
-9
26
66
111
164
225
284
338
385
418
432
434
425
398
344
266
174
83
-2
-88
-167
-223
-256
-282
-298
-297
-290
-290
-289
-282
-278
-275
-269
-267
-270
-269
-264
-261
-263
-270
-280
-285
-283
-284
-294
-297
-283
-265
-237
-184
-140
-155
-203
-221
-204
-198
-198
-185
-197
-208
-162
-163
-259
-223
234
1351
2715
2812
1099
-515
-588
-168
-220
-298
-202
-204
-223
-167
-151
-152
-110
-80
-71
-43
3
47
84
126
192
264
312
352
403
441
453
448
427
391
340
263
166
74
-9
-89
-155
-202
-240
-260
-254
-247
-257
-250
-225
-224
-238
-229
-212
-214
-223
-221
-220
-222
-222
-226
-239
-248
-244
-239
-234
-213
-172
-139
-147
-186
-211
-210
-207
-197
-190
-212
-203
-162
-205
-254
-55
621
1918
3026
2356
269
-873
-509
-171
-297
-283
-190
-228
-222
-164
-156
-143
-107
-86
-57
-14
20
58
109
159
210
275
339
386
418
432
426
407
376
325
251
164
71
-20
-101
-169
-222
-261
-284
-292
-289
-285
-281
-270
-259
-250
-242
-236
-236
-238
-239
-241
-242
-243
-248
-256
-266
-275
-279
-273
-254
-217
-171
-148
-167
-201
-210
-205
-212
-207
-191
-206
-199
-158
-211
-296
-121
572
1865
2954
2380
461
-652
-399
-133
-269
-273
-197
-226
-214
-164
-163
-149
-108
-85
-63
-28
7
48
99
151
209
271
330
378
408
418
420
416
390
338
267
182
89
0
-81
-153
-209
-243
-262
-270
-269
-264
-256
-250
-245
-238
-230
-224
-220
-217
-215
-217
-221
-224
-225
-229
-236
-246
-256
-256
-245
-220
-179
-138
-127
-152
-179
-182
-179
-187
-179
-171
-188
-169
-140
-224
-293
-33
799
2139
2965
2040
165
-639
-305
-133
-265
-237
-184
-214
-186
-146
-150
-128
-92
-75
-47
-5
30
68
116
170
228
286
338
381
408
417
415
403
371
316
246
167
78
-10
-90
-156
-206
-240
-263
-271
-269
-265
-261
-253
-247
-250
-253
-247
-238
-236
-238
-240
-238
-239
-247
-253
-252
-254
-265
-277
-279
-270
-257
-233
-193
-157
-150
-171
-193
-194
-192
-194
-182
-183
-196
-160
-150
-260
-283
107
1119
2492
2949
1585
-195
-616
-219
-175
-290
-221
-202
-239
-198
-161
-159
-135
-108
-85
-46
-8
25
67
113
158
216
278
328
364
388
402
408
401
370
319
250
166
78
-2
-76
-147
-201
-228
-242
-258
-262
-250
-240
-239
-238
-234
-232
-237
-244
-236
-221
-226
-244
-246
-239
-244
-254
-258
-257
-248
-236
-222
-190
-143
-133
-169
-194
-184
-183
-192
-178
-181
-202
-164
-145
-226
-217
155
1165
2616
3058
1486
-432
-765
-258
-196
-294
-200
-181
-221
-176
-140
-136
-109
-81
-59
-26
7
44
93
142
187
236
295
353
394
411
414
406
386
354
304
230
141
50
-37
-110
-165
-213
-251
-271
-278
-281
-274
-258
-245
-238
-236
-234
-231
-231
-236
-241
-245
-246
-243
-247
-257
-258
-261
-275
-282
-272
-255
-222
-176
-150
-166
-196
-204
-202
-213
-206
-187
-203
-198
-157
-214
-301
-121
586
1912
3029
2426
440
-695
-415
-136
-274
-274
-193
-227
-219
-166
-161
-148
-114
-94
-67
-24
13
48
97
155
215
277
336
379
402
413
412
397
371
327
255
168
82
-5
-90
-156
-202
-238
-265
-279
-279
-269
-258
-253
-250
-243
-236
-234
-233
-230
-228
-229
-231
-239
-247
-257
-270
-275
-268
-249
-217
-172
-142
-153
-187
-202
-196
-202
-205
-186
-190
-195
-155
-177
-287
-226
299
1458
2759
2761
1067
-452
-517
-154
-218
-284
-199
-205
-221
-173
-158
-150
-109
-82
-65
-29
9
44
89
143
201
262
319
364
394
409
411
402
378
335
270
190
107
25
-56
-129
-186
-224
-246
-256
-262
-262
-253
-241
-235
-232
-227
-221
-218
-218
-219
-220
-221
-224
-227
-229
-229
-228
-231
-234
-238
-248
-260
-258
-239
-206
-161
-125
-124
-154
-173
-172
-177
-178
-163
-175
-191
-148
-154
-267
-236
239
1316
2588
2724
1176
-385
-547
-168
-193
-271
-190
-187
-208
-163
-147
-144
-108
-83
-68
-28
16
45
78
127
185
245
299
341
372
394
399
391
381
356
302
233
160
75
-13
-85
-136
-184
-228
-249
-248
-242
-236
-228
-228
-235
-234
-224
-221
-226
-235
-240
-237
-231
-232
-241
-246
-248
-252
-257
-258
-254
-250
-244
-214
-160
-122
-135
-178
-201
-193
-189
-186
-170
-174
-175
-137
-166
-259
-176
335
1509
2858
2769
873
-671
-579
-137
-227
-294
-187
-190
-205
-160
-152
-142
-96
-67
-52
-20
18
55
97
149
206
257
302
351
392
410
414
410
394
361
304
221
135
59
-19
-104
-175
-220
-250
-269
-269
-258
-253
-256
-253
-237
-226
-233
-237
-232
-235
-245
-246
-244
-250
-257
-263
-275
-277
-265
-253
-232
-187
-151
-162
-195
-204
-202
-221
-224
-202
-209
-215
-175
-201
-278
-167
378
1583
2885
2655
711
-719
-554
-160
-266
-294
-191
-218
-227
-170
-161
-155
-117
-94
-72
-34
2
39
86
140
200
257
308
353
386
400
398
384
358
314
248
165
80
-1
-78
-149
-204
-240
-258
-264
-266
-261
-250
-241
-236
-230
-224
-219
-215
-216
-222
-228
-229
-234
-243
-255
-264
-263
-257
-243
-209
-164
-140
-154
-186
-197
-194
-205
-203
-184
-197
-198
-157
-201
-296
-154
488
1741
2900
2500
636
-602
-431
-132
-253
-278
-197
-221
-219
-168
-163
-153
-114
-88
-68
-35
1
45
95
148
204
261
312
356
382
391
389
379
355
309
243
166
85
1
-80
-145
-193
-228
-249
-256
-255
-251
-244
-236
-231
-228
-223
-218
-217
-219
-220
-221
-225
-230
-230
-231
-243
-258
-258
-247
-224
-184
-143
-131
-152
-181
-190
-190
-195
-183
-171
-191
-181
-145
-210
-294
-91
659
1955
2887
2149
300
-637
-352
-133
-263
-258
-191
-218
-210
-174
-169
-148
-112
-90
-62
-27
1
38
88
137
184
242
298
329
344
356
359
345
321
284
227
153
73
-10
-90
-156
-197
-224
-248
-258
-253
-249
-246
-243
-244
-244
-234
-229
-233
-232
-234
-238
-240
-246
-257
-256
-259
-271
-267
-246
-224
-184
-135
-138
-186
-204
-193
-199
-200
-183
-200
-206
-159
-185
-268
-164
365
1542
2851
2700
822
-644
-547
-159
-249
-286
-187
-207
-218
-165
-152
-140
-102
-81
-61
-22
14
42
80
138
201
251
294
342
383
397
384
364
355
339
288
207
119
33
-44
-110
-173
-224
-248
-252
-248
-242
-241
-240
-227
-214
-216
-222
-226
-233
-239
-240
-242
-248
-255
-260
-254
-245
-244
-231
-188
-154
-170
-207
-213
-207
-221
-218
-202
-214
-204
-176
-232
-257
-5
762
2127
3080
2113
-1
-897
-439
-186
-319
-266
-191
-234
-209
-164
-175
-154
-109
-88
-61
-21
15
59
108
153
205
266
317
349
362
361
353
339
310
261
196
119
35
-46
-116
-176
-227
-257
-264
-263
-261
-254
-247
-242
-234
-227
-224
-223
-220
-220
-226
-236
-243
-249
-259
-264
-258
-249
-232
-195
-158
-163
-197
-209
-202
-212
-213
-194
-206
-206
-158
-195
-291
-170
403
1607
2901
2705
807
-628
-509
-145
-260
-296
-198
-224
-235
-178
-169
-163
-127
-105
-84
-42
-1
36
83
136
195
256
311
356
386
393
388
379
355
305
235
151
61
-24
-100
-165
-215
-249
-270
-277
-274
-271
-265
-254
-246
-241
-234
-231
-233
-233
-232
-235
-240
-251
-268
-280
-276
-262
-234
-194
-159
-156
-186
-212
-208
-201
-206
-197
-196
-208
-175
-165
-265
-286
93
1116
2528
3018
1656
-146
-601
-229
-187
-297
-230
-209
-240
-198
-169
-169
-139
-105
-86
-57
-19
19
63
115
171
228
278
322
358
375
374
366
350
313
253
182
105
20
-60
-125
-178
-220
-244
-254
-258
-258
-253
-243
-233
-228
-227
-222
-216
-215
-217
-221
-224
-222
-224
-229
-229
-228
-240
-260
-263
-249
-229
-198
-153
-123
-133
-163
-176
-175
-184
-181
-167
-179
-173
-137
-198
-291
-112
598
1869
2891
2309
464
-607
-378
-125
-247
-248
-176
-207
-199
-153
-150
-136
-100
-82
-57
-15
23
57
97
143
198
255
303
340
360
362
354
347
332
296
241
173
94
9
-71
-136
-184
-214
-232
-241
-242
-241
-241
-237
-230
-226
-225
-222
-222
-228
-232
-231
-232
-234
-231
-231
-233
-227
-229
-246
-256
-242
-230
-219
-184
-139
-127
-151
-169
-172
-181
-181
-156
-163
-191
-158
-150
-247
-235
167
1189
2584
2946
1393
-406
-671
-209
-200
-297
-187
-168
-210
-164
-139
-152
-126
-88
-64
-28
12
44
83
131
177
222
272
321
356
374
371
360
359
344
290
217
149
72
-17
-96
-160
-206
-227
-237
-248
-249
-241
-235
-228
-222
-226
-229
-221
-222
-234
-239
-237
-240
-245
-249
-259
-274
-278
-267
-252
-231
-191
-154
-157
-194
-214
-209
-208
-204
-190
-205
-211
-168
-191
-269
-167
355
1538
2874
2722
789
-709
-576
-156
-252
-289
-183
-210
-220
-157
-148
-145
-102
-76
-57
-16
19
50
94
145
195
253
308
349
373
383
378
363
336
291
223
142
63
-8
-75
-143
-199
-231
-245
-254
-258
-250
-238
-234
-228
-218
-214
-216
-217
-221
-228
-227
-222
-224
-231
-237
-243
-255
-266
-261
-239
-212
-178
-142
-134
-164
-191
-187
-187
-196
-180
-176
-191
-156
-153
-263
-257
173
1224
2582
2901
1410
-300
-580
-177
-180
-281
-198
-190
-226
-180
-146
-144
-120
-95
-71
-34
1
35
76
119
172
237
292
331
360
374
373
366
345
300
245
184
105
17
-60
-123
-178
-226
-252
-255
-251
-249
-245
-240
-235
-226
-220
-219
-216
-216
-217
-215
-212
-216
-221
-221
-217
-217
-220
-216
-217
-236
-247
-235
-217
-193
-152
-118
-117
-140
-157
-162
-167
-163
-147
-162
-172
-126
-143
-253
-182
350
1463
2659
2595
950
-469
-489
-128
-186
-241
-159
-175
-192
-138
-121
-120
-87
-62
-48
-14
27
64
108
156
201
248
296
336
361
364
356
350
336
300
246
180
106
29
-42
-110
-168
-210
-236
-248
-247
-240
-235
-230
-222
-218
-224
-225
-221
-224
-230
-229
-232
-240
-240
-234
-237
-238
-228
-225
-242
-258
-253
-239
-219
-180
-137
-132
-162
-183
-177
-168
-168
-167
-182
-196
-156
-144
-237
-252
101
1069
2425
2857
1466
-281
-634
-208
-164
-270
-196
-175
-205
-162
-137
-140
-106
-77
-63
-26
14
36
74
130
178
225
281
322
339
347
352
348
338
322
285
222
146
69
-6
-80
-148
-194
-212
-218
-226
-231
-225
-218
-218
-216
-213
-214
-212
-211
-220
-225
-222
-223
-226
-224
-224
-231
-245
-254
-244
-228
-213
-177
-134
-129
-153
-167
-174
-190
-191
-167
-172
-190
-156
-153
-226
-187
214
1252
2635
2852
1151
-593
-718
-218
-218
-299
-192
-181
-207
-161
-143
-141
-102
-72
-55
-22
14
49
87
131
181
235
281
310
329
343
346
331
305
269
216
148
77
6
-65
-130
-182
-219
-242
-250
-249
-247
-244
-239
-232
-225
-219
-216
-218
-222
-224
-228
-232
-238
-243
-247
-255
-265
-265
-253
-236
-211
-172
-143
-154
-190
-200
-190
-194
-191
-179
-196
-187
-144
-203
-288
-103
591
1860
2906
2304
406
-658
-379
-114
-251
-253
-174
-203
-198
-156
-149
-128
-95
-78
-46
-4
25
61
111
162
214
269
317
354
377
379
367
351
324
278
213
138
59
-20
-87
-140
-185
-219
-234
-236
-233
-230
-227
-223
-215
-208
-206
-206
-207
-208
-208
-211
-219
-223
-219
-221
-234
-247
-252
-249
-232
-199
-157
-125
-123
-150
-177
-185
-185
-177
-165
-180
-190
-142
-141
-248
-237
180
1206
2519
2790
1317
-318
-562
-165
-166
-269
-201
-188
-207
-163
-145
-145
-110
-82
-70
-36
3
33
73
125
175
226
280
318
335
342
340
329
309
272
217
153
84
9
-64
-132
-191
-235
-255
-258
-256
-254
-250
-243
-240
-241
-239
-237
-240
-238
-233
-233
-242
-249
-247
-244
-246
-251
-251
-256
-270
-274
-262
-238
-198
-155
-137
-154
-180
-191
-191
-193
-183
-176
-189
-174
-147
-210
-269
-53
698
1964
2778
1928
141
-642
-310
-122
-249
-227
-167
-197
-179
-138
-135
-116
-80
-58
-35
0
39
82
125
170
223
273
313
341
358
359
349
335
313
275
223
162
91
13
-59
-112
-149
-178
-196
-195
-192
-197
-195
-179
-169
-174
-173
-165
-169
-181
-184
-181
-181
-182
-183
-182
-178
-176
-176
-175
-183
-195
-191
-172
-149
-112
-68
-59
-91
-118
-117
-112
-112
-101
-104
-120
-91
-81
-167
-179
171
1124
2437
2830
1463
-226
-562
-151
-103
-202
-134
-116
-145
-108
-87
-87
-55
-28
-16
12
45
73
113
159
200
241
283
313
325
333
341
332
303
269
236
192
129
50
-30
-97
-157
-207
-236
-250
-264
-268
-263
-260
-261
-261
-264
-271
-278
-285
-290
-296
-299
-303
-311
-318
-320
-327
-333
-324
-314
-324
-340
-336
-323
-313
-289
-247
-220
-235
-268
-284
-287
-286
-270
-269
-280
-254
-251
-325
-316
22
970
2360
2809
1330
-516
-854
-351
-266
-360
-268
-235
-266
-227
-198
-191
-154
-120
-96
-63
-30
13
70
119
164
219
270
308
338
357
359
351
339
320
284
235
188
137
74
14
-29
-56
-70
-69
-57
-44
-30
-9
11
24
35
46
58
70
