# session 27
-21
-2
-45
-6
192
373
407
394
404
396
372
357
329
270
199
126
50
-23
-86
-138
-173
-194
-209
-212
-196
-185
-190
-188
-179
-181
-189
-189
-187
-188
-193
-205
-213
-204
-195
-201
-206
-202
-202
-206
-205
-208
-213
-208
-194
-168
-123
-86
-94
-128
-140
-137
-148
-148
-132
-151
-158
-108
-130
-227
-144
380
1557
2865
2723
847
-627
-512
-96
-187
-238
-141
-159
-169
-116
-107
-98
-62
-47
-25
20
54
83
131
181
230
284
337
376
393
391
385
374
345
296
235
162
80
1
-68
-134
-192
-229
-245
-253
-256
-254
-250
-245
-237
-229
-223
-219
-218
-218
-218
-223
-230
-232
-232
-234
-236
-233
-233
-235
-240
-252
-259
-252
-233
-201
-153
-121
-136
-174
-186
-178
-182
-184
-169
-182
-188
-140
-162
-272
-196
356
1517
2732
2596
885
-502
-475
-126
-204
-258
-174
-184
-200
-156
-139
-126
-92
-70
-48
-12
23
62
112
162
208
260
320
368
390
390
384
369
344
304
244
166
87
11
-61
-124
-178
-216
-236
-248
-254
-246
-230
-225
-229
-222
-207
-202
-206
-207
-202
-202
-204
-206
-208
-209
-208
-207
-205
-202
-200
-197
-194
-194
-193
-197
-208
-216
-212
-195
-163
-118
-84
-85
-112
-130
-135
-141
-137
-119
-131
-141
-103
-124
-221
-141
366
1410
2537
2487
931
-439
-468
-108
-155
-219
-143
-147
-164
-122
-104
-96
-70
-50
-24
13
42
72
117
164
211
257
301
342
371
379
372
361
343
309
256
188
112
39
-29
-95
-156
-197
-221
-235
-240
-239
-239
-235
-224
-216
-215
-211
-209
-208
-207
-210
-219
-223
-223
-226
-229
-226
-225
-227
-224
-220
-222
-220
-210
-209
-226
-240
-232
-213
-185
-139
-98
-98
-133
-160
-159
-151
-144
-128
-134
-144
-105
-113
-219
-190
260
1302
2564
2715
1163
-415
-556
-135
-151
-240
-154
-147
-179
-137
-109
-101
-77
-56
-33
1
30
65
112
156
201
256
306
342
367
380
382
373
351
316
272
216
150
74
-8
-87
-152
-192
-219
-242
-249
-237
-231
-243
-243
-219
-203
-215
-227
-218
-207
-213
-226
-227
-222
-228
-242
-242
-225
-211
-215
-225
-224
-211
-215
-235
-232
-203
-187
-182
-151
-109
-103
-132
-150
-153
-162
-158
-142
-152
-150
-121
-163
-213
-42
605
1898
3008
2347
282
-840
-468
-119
-237
-229
-140
-170
-165
-122
-117
-95
-56
-39
-17
18
52
92
141
189
237
288
340
378
395
396
384
362
333
287
219
142
72
-1
-76
-141
-192
-228
-246
-254
-256
-249
-241
-239
-233
-217
-208
-209
-208
-207
-210
-216
-220
-222
-222
-228
-236
-231
-221
-222
-228
-225
-218
-216
-222
-239
-248
-232
-207
-184
-148
-110
-106
-134
-153
-151
-154
-161
-149
-148
-157
-121
-128
-237
-207
263
1331
2619
2819
1303
-315
-529
-136
-150
-248
-168
-157
-186
-147
-120
-114
-84
-58
-38
-7
30
68
110
155
211
276
335
379
411
425
421
411
398
361
293
216
142
60
-26
-97
-153
-200
-234
-250
-255
-256
-254
-246
-233
-223
-217
-212
-210
-212
-211
-207
-207
-209
-211
-213
-217
-219
-218
-216
-217
-218
-212
-204
-201
-199
-194
-188
-182
-178
-180
-175
-163
-165
-187
-200
-190
-165
-131
-92
-61
-59
-87
-106
-104
-110
-111
-94
-109
-121
-81
-114
-211
-77
517
1606
2652
2416
785
-459
-388
-69
-152
-191
-113
-134
-145
-96
-82
-75
-45
-27
-8
32
69
102
144
191
241
294
344
386
415
427
424
417
401
368
315
245
166
84
7
-62
-121
-168
-202
-223
-231
-227
-221
-220
-220
-216
-208
-199
-195
-196
-196
-194
-195
-202
-212
-218
-215
-214
-217
-214
-207
-208
-211
-207
-200
-198
-201
-203
-197
-187
-182
-178
-172
-171
-173
-164
-152
-148
-146
-143
-147
-153
-161
-170
-163
-131
-91
-53
-30
-50
-93
-105
-95
-107
-113
-92
-104
-123
-87
-103
-191
-101
418
1509
2705
2626
941
-485
-464
-83
-157
-220
-131
-145
-165
-117
-107
-108
-74
-48
-26
10
39
70
120
169
209
259
313
352
382
410
418
400
381
371
338
271
189
108
28
-47
-113
-169
-213
-238
-238
-235
-248
-257
-240
-227
-237
-242
-232
-228
-229
-227
-230
-237
-240
-243
-245
-241
-241
-248
-243
-228
-229
-235
-221
-209
-216
-221
-219
-220
-212
-188
-162
-130
-93
-86
-119
-152
-160
-162
-162
-150
-155
-163
-127
-128
-207
-167
261
1341
2733
2907
1158
-600
-716
-200
-179
-253
-156
-150
-169
-114
-95
-101
-71
-38
-11
24
54
87
132
179
230
289
343
386
418
432
428
411
387
349
288
207
120
36
-46
-121
-177
-219
-251
-266
-271
-273
-266
-251
-243
-240
-234
-228
-224
-218
-213
-214
-216
-219
-222
-222
-221
-228
-233
-228
-223
-223
-217
-213
-215
-210
-199
-199
-203
-206
-215
-221
-203
-164
-119
-81
-71
-99
-132
-137
-132
-143
-140
-127
-146
-144
-103
-159
-250
-61
650
1904
2928
2362
493
-608
-361
-86
-213
-210
-130
-173
-173
-120
-118
-109
-70
-49
-27
16
54
86
130
183
239
301
361
406
433
447
449
438
410
358
283
202
121
29
-62
-130
-176
-219
-254
-271
-274
-271
-264
-259
-255
-249
-237
-226
-224
-223
-220
-219
-218
-220
-225
-228
-224
-220
-223
-225
-221
-219
-219
-213
-204
-200
-199
-205
-217
-224
-217
-195
-155
-105
-79
-92
-122
-138
-137
-144
-149
-132
-131
-153
-126
-115
-207
-200
206
1170
2408
2739
1401
-234
-558
-156
-118
-226
-157
-135
-166
-129
-101
-105
-79
-43
-20
9
39
71
115
164
215
273
334
385
420
439
442
431
409
375
323
249
161
75
-4
-82
-149
-195
-227
-251
-263
-263
-258
-252
-247
-242
-233
-224
-223
-222
-214
-210
-216
-220
-218
-218
-220
-223
-229
-229
-218
-215
-224
-223
-207
-198
-202
-202
-197
-192
-191
-195
-208
-220
-214
-178
-120
-75
-68
-93
-126
-138
-130
-137
-147
-134
-135
-139
-100
-123
-225
-152
354
1432
2645
2638
1006
-459
-497
-115
-165
-227
-141
-151
-173
-128
-110
-104
-73
-56
-37
5
44
74
110
155
210
275
333
378
414
434
435
428
416
388
335
255
165
86
8
-74
-138
-186
-237
-274
-275
-262
-258
-260
-254
-245
-236
-228
-228
-237
-240
-230
-227
-237
-243
-236
-228
-233
-246
-248
-237
-231
-238
-241
-241
-240
-229
-220
-215
-182
-129
-114
-145
-169
-168
-169
-174
-163
-163
-174
-147
-146
-223
-206
156
1137
2559
3013
1483
-430
-783
-257
-168
-271
-182
-152
-189
-147
-111
-102
-69
-46
-35
3
47
78
119
174
226
282
345
402
439
456
458
448
424
381
320
243
154
60
-32
-116
-181
-223
-252
-272
-283
-284
-281
-271
-257
-248
-244
-239
-231
-225
-220
-219
-229
-235
-231
-231
-238
-240
-237
-232
-229
-229
-229
-225
-218
-215
-222
-236
-238
-225
-213
-190
-145
-105
-107
-139
-155
-151
-157
-159
-144
-158
-165
-114
-135
-247
-163
396
1567
2844
2774
1002
-510
-503
-108
-183
-251
-162
-176
-196
-143
-125
-125
-93
-65
-42
-8
27
63
110
163
218
277
341
399
434
449
452
445
423
376
304
220
133
39
-50
-122
-179
-223
-253
-271
-283
-283
-274
-266
-259
-246
-237
-236
-232
-223
-216
-215
-217
-218
-220
-221
-219
-220
-225
-223
-217
-216
-218
-214
-208
-202
-195
-189
-189
-199
-214
-221
-210
-190
-161
-122
-87
-82
-107
-127
-126
-130
-131
-113
-123
-141
-98
-99
-210
-175
295
1318
2544
2748
1302
-275
-505
-125
-123
-207
-129
-122
-149
-109
-86
-86
-59
-31
-10
20
52
88
137
189
241
299
356
407
449
473
479
473
456
417
358
285
198
106
21
-59
-129
-174
-199
-221
-235
-239
-239
-237
-229
-222
-216
-206
-199
-197
-196
-196
-199
-198
-196
-200
-202
-200
-202
-207
-203
-195
-192
-195
-195
-190
-184
-181
-180
-172
-160
-154
-155
-153
-150
-149
-145
-142
-141
-138
-133
-132
-129
-125
-129
-131
-124
-119
-117
-110
-107
-113
-123
-131
-131
-110
-67
-24
-6
-16
-41
-65
-71
-70
-82
-85
-81
-102
-90
-47
-110
-190
11
705
1940
2964
2398
540
-545
-312
-60
-189
-190
-121
-158
-152
-106
-112
-108
-66
-38
-19
11
47
83
120
165
216
268
318
368
410
434
444
446
435
408
363
296
219
142
52
-47
-116
-159
-211
-259
-268
-256
-256
-263
-259
-247
-236
-233
-234
-230
-225
-235
-247
-242
-232
-233
-241
-249
-251
-244
-238
-239
-239
-240
-239
-231
-224
-224
-223
-217
-206
-199
-197
-195
-193
-198
-207
-204
-187
-155
-113
-80
-74
-88
-106
-120
-135
-151
-147
-125
-135
-148
-112
-128
-203
-106
402
1537
2856
2790
908
-680
-609
-133
-189
-236
-120
-133
-155
-93
-77
-83
-52
-23
2
43
79
106
145
201
261
316
371
427
470
489
488
477
455
415
346
256
161
70
-18
-97
-162
-214
-250
-267
-273
-275
-274
-267
-260
-251
-241
-238
-237
-227
-219
-220
-225
-228
-226
-220
-221
-233
-238
-232
-231
-235
-229
-222
-222
-216
-209
-208
-202
-192
-197
-202
-183
-165
-171
-185
-200
-211
-190
-138
-96
-73
-61
-79
-121
-134
-121
-139
-151
-122
-126
-142
-96
-120
-224
-118
422
1547
2870
2888
1076
-548
-551
-106
-173
-239
-135
-149
-171
-113
-100
-99
-58
-30
-13
21
51
81
131
194
258
322
386
449
501
529
538
537
522
481
417
330
220
103
1
-89
-177
-243
-275
-299
-325
-331
-321
-317
-313
-301
-289
-281
-272
-263
-258
-254
-255
-259
-258
-252
-255
-265
-267
-267
-270
-269
-262
-261
-264
-259
-245
-241
-249
-260
-265
-257
-228
-180
-140
-126
-136
-156
-172
-172
-177
-189
-171
-159
-185
-158
-124
-238
-293
93
1077
2494
3276
2179
161
-634
-258
-115
-268
-224
-171
-210
-182
-143
-146
-117
-77
-58
-31
10
48
93
150
212
283
362
435
493
536
561
563
541
498
428
325
205
86
-29
-131
-207
-258
-294
-320
-336
-344
-343
-335
-325
-313
-297
-282
-272
-263
-256
-254
-253
-250
-249
-250
-250
-248
-250
-255
-254
-246
-242
-242
-242
-239
-233
-229
-230
-236
-243
-244
-221
-175
-131
-108
-105
-127
-157
-163
-157
-164
-155
-143
-170
-158
-111
-200
-285
24
880
2193
3162
2459
508
-562
-301
-83
-239
-227
-149
-190
-184
-133
-128
-114
-78
-57
-35
2
43
90
142
198
264
334
401
458
498
520
522
510
486
432
339
232
127
17
-88
-164
-218
-260
-286
-298
-305
-304
-300
-294
-281
-270
-268
-262
-250
-243
-241
-241
-242
-241
-240
-244
-244
-236
-234
-242
-239
-229
-229
-232
-227
-220
-217
-211
-211
-221
-229
-219
-189
-140
-95
-82
-100
-125
-143
-146
-149
-153
-140
-138
-157
-131
-117
-208
-217
175
1155
2441
2831
1504
-195
-585
-179
-115
-225
-166
-141
-170
-133
-105
-107
-79
-44
-25
-1
33
70
113
161
212
270
333
386
425
455
472
466
444
411
358
281
191
100
14
-69
-144
-200
-233
-256
-267
-267
-262
-256
-252
-252
-243
-225
-220
-230
-228
-221
-227
-231
-224
-226
-233
-228
-226
-235
-236
-224
-216
-217
-219
-219
-215
-214
-217
-217
-221
-230
-217
-169
-115
-86
-85
-113
-152
-163
-153
-157
-158
-150
-164
-165
-141
-186
-244
-63
623
1892
2894
2225
309
-729
-417
-115
-219
-210
-135
-171
-163
-112
-114
-113
-77
-46
-15
23
59
98
139
171
214
284
353
396
428
455
459
449
437
400
333
258
181
88
-15
-99
-154
-198
-236
-252
-251
-256
-262
-254
-237
-226
-226
-226
-217
-209
-218
-230
-228
-219
-220
-227
-229
-229
-234
-237
-230
-223
-227
-234
-240
-247
-241
-213
-175
-141
-115
-117
-150
-177
-179
-182
-185
-168
-173
-190
-155
-145
-222
-194
221
1285
2675
2879
1148
-635
-767
-232
-201
-274
-163
-153
-186
-140
-115
-111
-77
-48
-21
20
56
95
148
201
257
329
399
453
498
527
530
517
491
437
353
255
150
40
-60
-138
-197
-244
-279
-297
-300
-300
-295
-281
-274
-271
-254
-240
-244
-245
-236
-237
-244
-244
-242
-248
-253
-253
-253
-252
-250
-248
-249
-248
-242
-241
-251
-262
-262
-248
-217
-173
-135
-128
-156
-185
-185
-181
-184
-169
-168
-193
-161
-136
-246
-270
125
1070
2405
3072
1951
71
-593
-228
-126
-266
-218
-182
-224
-191
-153
-154
-130
-100
-83
-49
-13
16
61
121
178
240
310
374
423
455
472
474
460
427
365
276
170
59
-45
-129
-197
-251
-286
-302
-310
-312
-304
-293
-287
-279
-270
-269
-266
-252
-241
-243
-244
-242
-245
-246
-241
-242
-245
-239
-229
-229
-229
-222
-220
-230
-240
-236
-220
-201
-175
-135
-103
-109
-140
-146
-135
-144
-142
-120
-136
-136
-88
-147
-251
-36
740
2045
3096
2530
628
-521
-303
-36
-179
-196
-115
-141
-133
-84
-90
-83
-32
-4
7
41
87
125
168
225
286
343
403
454
477
486
494
489
458
402
321
230
142
50
-40
-115
-175
-218
-238
-248
-258
-259
-251
-244
-241
-235
-228
-225
-225
-229
-239
-247
-242
-234
-238
-247
-248
-245
-250
-255
-253
-252
-253
-252
-263
-284
-289
-275
-254
-221
-182
-167
-187
-215
-225
-226
-237
-231
-206
-214
-222
-196
-240
-325
-191
431
1636
2705
2246
437
-694
-472
-173
-297
-318
-236
-266
-272
-225
-214
-193
-152
-137
-125
-92
-57
-21
22
69
123
186
242
283
312
332
341
344
337
309
251
177
104
26
-64
-139
-187
-227
-260
-264
-253
-250
-244
-228
-219
-215
-203
-193
-188
-180
-173
-175
-169
-152
-146
-146
-132
-112
-103
-98
-84
-75
-78
-67
-34
-7
17
65
122
144
128
117
134
146
150
180
194
185
236
268
186
231
695
1756
3183
3513
1743
-68
86
