# session 41
-7
1
-8
-2
48
103
124
136
172
223
263
298
341
382
401
410
423
424
399
348
276
194
100
-11
-103
-147
-183
-236
-272
-275
-273
-265
-251
-247
-248
-239
-226
-220
-215
-214
-221
-229
-229
-221
-218
-221
-222
-222
-221
-216
-203
-190
-192
-203
-194
-173
-176
-193
-197
-195
-178
-125
-72
-54
-62
-89
-125
-132
-118
-119
-110
-99
-123
-121
-82
-128
-184
41
752
1872
2577
1814
183
-547
-208
18
-95
-99
-51
-74
-59
-28
-31
-9
34
41
35
72
135
173
195
232
271
303
349
392
411
427
446
433
405
403
398
328
213
112
35
-39
-119
-191
-230
-238
-247
-260
-261
-255
-247
-239
-236
-232
-230
-247
-266
-255
-236
-238
-241
-236
-238
-247
-253
-252
-248
-246
-247
-242
-236
-234
-225
-207
-201
-211
-227
-241
-236
-200
-150
-115
-103
-118
-154
-169
-145
-133
-155
-161
-152
-163
-150
-124
-180
-221
17
747
1878
2501
1618
21
-567
-193
-32
-162
-137
-82
-114
-99
-63
-61
-43
-21
-17
6
51
98
141
172
195
232
278
319
352
374
392
414
409
376
370
374
309
201
117
40
-59
-144
-191
-226
-252
-254
-255
-272
-274
-251
-242
-250
-244
-235
-246
-249
-237
-236
-245
-242
-241
-247
-239
-235
-250
-246
-221
-217
-221
-210
-210
-219
-209
-202
-219
-224
-189
-146
-116
-96
-100
-129
-151
-147
-146
-157
-146
-131
-148
-147
-128
-176
-201
52
839
2078
2705
1643
-109
-675
-236
-56
-162
-114
-64
-98
-81
-50
-50
-28
7
30
45
58
95
154
189
209
256
312
340
358
382
399
400
389
380
368
318
232
156
95
19
-68
-146
-204
-237
-252
-258
-256
-256
-268
-271
-250
-226
-220
-227
-239
-247
-241
-229
-231
-246
-256
-253
-247
-239
-223
-218
-234
-241
-218
-214
-246
-249
-219
-219
-228
-185
-126
-105
-109
-132
-166
-174
-168
-180
-171
-135
-146
-167
-137
-157
-231
-124
424
1541
2598
2248
552
-570
-365
-38
-138
-171
-98
-117
-117
-73
-62
-53
-40
-25
23
70
84
102
143
184
231
281
317
339
367
395
406
404
397
383
351
283
188
105
36
-47
-127
-180
-218
-249
-261
-254
-252
-268
-270
-240
-223
-240
-247
-225
-215
-231
-242
-237
-236
-238
-234
-237
-245
-242
-235
-234
-221
-207
-211
-216
-209
-203
-204
-207
-215
-220
-205
-165
-114
-77
-78
-115
-149
-150
-137
-146
-151
-133
-133
-146
-122
-135
-213
-137
377
1436
2471
2260
717
-458
-369
-25
-89
-150
-89
-98
-108
-72
-57
-47
-23
5
49
86
94
115
162
202
231
274
320
351
377
403
409
402
405
409
387
329
242
149
65
-19
-102
-160
-196
-229
-249
-246
-233
-232
-238
-232
-223
-225
-228
-219
-214
-219
-224
-226
-227
-227
-228
-229
-233
-237
-235
-221
-206
-202
-205
-200
-191
-191
-198
-200
-193
-186
-184
-183
-177
-170
-180
-204
-204
-174
-140
-105
-69
-64
-90
-112
-118
-122
-134
-136
-130
-140
-134
-95
-123
-196
-77
461
1495
2462
2174
628
-467
-333
-17
-97
-137
-65
-82
-93
-49
-34
-24
8
31
51
85
118
134
152
201
256
278
306
361
392
398
415
422
412
409
382
311
235
165
90
10
-73
-142
-178
-203
-238
-254
-236
-221
-230
-231
-219
-219
-223
-212
-200
-205
-222
-235
-231
-217
-213
-217
-221
-225
-222
-213
-205
-200
-203
-216
-216
-198
-188
-185
-174
-169
-178
-183
-174
-159
-145
-146
-158
-155
-143
-152
-167
-156
-150
-160
-134
-67
-28
-36
-52
-70
-94
-105
-111
-132
-129
-96
-90
-92
-71
-117
-190
-36
580
1686
2584
2092
471
-493
-277
-3
-94
-117
-67
-94
-87
-42
-38
-30
5
24
34
61
93
116
144
186
229
274
320
351
374
402
412
401
403
407
373
312
250
172
82
6
-65
-138
-187
-214
-243
-259
-253
-250
-255
-256
-255
-244
-224
-225
-241
-241
-231
-233
-244
-247
-244
-254
-263
-250
-232
-229
-224
-212
-210
-215
-218
-214
-204
-194
-190
-196
-205
-201
-183
-167
-164
-165
-167
-178
-188
-175
-135
-87
-56
-60
-84
-102
-109
-111
-117
-120
-111
-118
-134
-111
-100
-160
-145
214
1166
2402
2624
1184
-369
-544
-100
-68
-159
-86
-65
-81
-43
-32
-30
15
42
43
69
106
130
160
198
236
276
315
349
378
397
405
408
400
378
350
318
269
192
102
15
-64
-133
-184
-218
-244
-265
-265
-239
-218
-226
-235
-224
-215
-215
-210
-209
-213
-216
-230
-245
-236
-219
-224
-233
-225
-216
-215
-215
-218
-217
-205
-193
-199
-206
-197
-182
-177
-177
-173
-170
-175
-175
-166
-162
-159
-156
-166
-173
-150
-109
-69
-43
-47
-80
-104
-96
-89
-111
-121
-95
-100
-136
-104
-70
-153
-164
214
1147
2317
2578
1276
-222
-445
-44
-46
-168
-85
-55
-99
-72
-44
-45
-13
23
36
60
92
119
158
199
220
245
298
348
380
414
436
429
419
423
410
364
292
198
105
30
-47
-126
-184
-222
-248
-253
-248
-253
-260
-256
-248
-242
-239
-238
-228
-216
-221
-239
-249
-240
-229
-230
-243
-251
-238
-217
-218
-232
-227
-212
-210
-210
-202
-195
-198
-204
-201
-193
-185
-173
-161
-158
-156
-153
-157
-158
-162
-188
-194
-142
-77
-46
-34
-40
-73
-96
-98
-114
-132
-114
-91
-111
-114
-71
-96
-177
-70
472
1521
2489
2180
622
-458
-303
17
-72
-125
-65
-83
-81
-37
-29
-10
23
21
38
95
123
125
162
218
251
283
328
359
383
422
447
437
421
414
397
352
273
178
94
14
-72
-141
-187
-226
-253
-258
-259
-264
-248
-227
-234
-243
-228
-216
-225
-231
-225
-228
-241
-244
-236
-234
-234
-224
-222
-230
-231
-221
-213
-214
-220
-220
-209
-199
-198
-202
-200
-184
-168
-173
-182
-170
-153
-160
-173
-176
-181
-183
-154
-99
-50
-29
-45
-87
-117
-120
-117
-117
-105
-99
-120
-119
-96
-139
-186
3
659
1788
2601
1946
291
-541
-234
4
-120
-127
-70
-102
-83
-25
-24
-22
7
29
50
71
95
143
187
204
233
293
344
368
391
416
428
429
431
426
392
326
247
172
89
-7
-92
-159
-221
-261
-262
-258
-266
-265
-256
-260
-265
-250
-234
-241
-253
-244
-232
-240
-249
-243
-242
-255
-255
-244
-242
-236
-218
-214
-229
-228
-212
-208
-210
-204
-203
-207
-195
-181
-194
-214
-210
-182
-140
-97
-80
-88
-101
-123
-146
-153
-150
-146
-136
-143
-154
-134
-139
-187
-116
335
1383
2524
2383
744
-550
-454
-65
-119
-153
-54
-70
-98
-58
-37
-18
14
20
36
82
119
143
175
203
229
273
329
375
403
419
424
424
424
418
381
318
252
172
72
-14
-81
-160
-225
-238
-240
-258
-264
-256
-251
-236
-226
-239
-243
-222
-220
-236
-231
-216
-220
-230
-231
-229
-228
-227
-231
-242
-238
-213
-193
-196
-207
-212
-204
-194
-195
-196
-187
-189
-201
-196
-186
-181
-147
-90
-66
-86
-110
-122
-129
-135
-141
-139
-127
-132
-142
-111
-108
-192
-188
187
1105
2243
2465
1183
-256
-479
-104
-67
-140
-82
-89
-117
-62
-33
-43
-20
16
37
56
80
112
153
193
226
260
302
349
386
404
415
435
448
433
400
356
290
203
105
6
-72
-132
-195
-239
-246
-250
-260
-256
-254
-261
-252
-230
-227
-241
-244
-229
-218
-224
-235
-239
-237
-237
-241
-240
-236
-234
-235
-234
-223
-206
-206
-211
-200
-196
-208
-200
-174
-171
-191
-211
-217
-201
-159
-108
-71
-61
-70
-90
-120
-134
-131
-146
-155
-124
-118
-141
-118
-114
-180
-107
382
1390
2388
2198
704
-454
-377
-36
-88
-128
-57
-86
-110
-51
-17
-14
4
18
36
74
106
127
163
206
233
269
325
371
398
424
437
432
435
435
404
351
278
180
83
8
-65
-141
-199
-235
-253
-252
-247
-252
-255
-251
-243
-235
-230
-232
-232
-233
-244
-249
-232
-220
-229
-241
-240
-231
-228
-235
-230
-220
-230
-235
-210
-189
-199
-214
-211
-194
-176
-177
-189
-193
-204
-216
-183
-115
-82
-86
-83
-87
-119
-142
-138
-150
-163
-141
-130
-135
-110
-123
-193
-120
347
1368
2465
2352
791
-489
-438
-51
-86
-153
-91
-85
-84
-54
-56
-41
6
29
35
53
80
114
154
191
231
281
326
351
374
411
429
418
419
429
394
323
268
206
107
0
-85
-152
-207
-244
-265
-278
-285
-282
-268
-256
-251
-245
-243
-242
-237
-247
-273
-267
-227
-219
-250
-263
-250
-244
-244
-234
-225
-231
-239
-237
-215
-192
-194
-213
-217
-208
-211
-222
-205
-150
-97
-84
-97
-112
-130
-149
-156
-157
-152
-143
-157
-163
-125
-135
-200
-99
449
1578
2632
2255
528
-602
-383
-35
-119
-139
-63
-88
-91
-46
-37
-21
10
23
41
70
97
135
178
204
233
283
337
379
411
428
425
420
422
416
380
318
236
137
43
-32
-96
-158
-211
-248
-262
-258
-255
-262
-265
-252
-232
-220
-219
-219
-218
-226
-233
-228
-231
-246
-239
-213
-209
-226
-231
-221
-218
-217
-216
-221
-221
-204
-191
-191
-187
-178
-181
-187
-178
-166
-180
-208
-206
-171
-136
-100
-61
-51
-75
-104
-121
-126
-135
-147
-135
-119
-129
-119
-111
-175
-166
197
1087
2218
2500
1270
-201
-479
-109
-65
-143
-83
-84
-113
-62
-37
-47
-20
10
20
45
75
100
142
194
228
256
300
349
388
411
424
437
443
420
385
360
313
220
123
37
-58
-139
-182
-215
-257
-278
-272
-262
-256
-251
-247
-237
-228
-234
-237
-228
-228
-241
-241
-233
-233
-238
-243
-240
-229
-224
-226
-226
-223
-218
-216
-220
-218
-202
-187
-184
-194
-214
-227
-217
-196
-160
-100
-60
-80
-121
-136
-137
-142
-151
-149
-136
-147
-167
-133
-121
-194
-144
313
1276
2294
2253
856
-403
-430
-54
-70
-142
-81
-87
-103
-56
-39
-43
-13
21
43
64
88
127
171
198
229
278
320
357
400
428
432
439
446
431
397
354
282
180
81
5
-67
-144
-201
-226
-242
-258
-262
-258
-253
-244
-236
-235
-230
-223
-219
-217
-219
-228
-231
-224
-224
-237
-237
-216
-205
-217
-225
-218
-207
-196
-196
-210
-215
-198
-181
-183
-192
-190
-180
-180
-187
-185
-176
-171
-157
-114
-59
-41
-71
-110
-131
-141
-147
-139
-112
-102
-133
-132
-93
-139
-201
6
718
1884
2629
1836
148
-586
-228
-21
-151
-127
-58
-88
-74
-42
-50
-23
21
21
31
79
115
137
172
213
251
297
343
378
407
425
437
452
454
430
388
331
254
163
64
-27
-101
-168
-230
-266
-273
-270
-273
-282
-286
-277
-256
-241
-246
-257
-255
-247
-247
-246
-243
-248
-256
-256
-248
-244
-244
-241
-237
-236
-231
-222
-217
-211
-206
-206
-206
-198
-192
-206
-230
-218
-168
-124
-98
-82
-88
-120
-146
-146
-142
-161
-167
-143
-140
-143
-123
-158
-213
-43
610
1808
2743
2094
267
-707
-372
-43
-132
-146
-87
-94
-73
-44
-43
-14
17
32
59
85
109
154
191
217
268
325
353
378
421
454
458
443
426
413
378
304
216
124
25
-62
-127
-183
-228
-255
-270
-271
-268
-279
-281
-255
-234
-240
-240
-227
-224
-225
-220
-230
-251
-246
-227
-228
-234
-232
-238
-240
-219
-208
-224
-232
-214
-190
-186
-197
-197
-185
-178
-177
-182
-198
-207
-194
-171
-133
-83
-56
-63
-80
-109
-141
-137
-121
-134
-136
-119
-128
-119
-97
-163
-199
102
928
2090
2621
1630
39
-504
-162
-38
-139
-98
-64
-99
-84
-59
-51
-17
13
20
40
81
121
152
181
219
267
313
349
386
428
450
452
468
478
436
372
323
251
135
28
-50
-121
-186
-234
-265
-284
-286
-275
-260
-248
-242
-234
-229
-232
-229
-224
-234
-239
-225
-214
-213
-217
-231
-237
-224
-219
-227
-220
-215
-221
-216
-204
-208
-210
-195
-184
-182
-179
-178
-177
-184
-193
-179
-156
-149
-143
-137
-154
-176
-175
-151
-110
-63
-29
-30
-62
-94
-106
-106
-110
-114
-103
-94
-108
-98
-69
-122
-174
52
750
1849
2558
1848
262
-492
-203
8
-100
-109
-63
-81
-65
-35
-32
-19
-5
10
55
104
126
140
163
206
264
308
336
368
401
428
446
458
463
446
399
345
285
193
84
-7
-80
-148
-199
-232
-252
-256
-254
-259
-256
-242
-245
-251
-232
-212
-218
-226
-222
-221
-222
-222
-226
-227
-222
-224
-235
-231
-215
-212
-216
-209
-194
-183
-180
-186
-196
-189
-172
-170
-178
-168
-149
-149
-160
-162
-151
-143
-143
-142
-130
-121
-118
-125
-145
-148
-110
-63
-37
-22
-24
-57
-93
-86
-63
-75
-94
-84
-91
-109
-72
-58
-136
-110
300
1285
2475
2606
1151
-313
-436
-40
-51
-134
-62
-68
-102
-59
-28
-25
-6
25
51
61
73
116
160
184
219
254
278
331
401
430
429
444
459
445
419
394
338
231
124
36
-67
-164
-207
-225
-260
-290
-297
-303
-308
-298
-288
-289
-281
-267
-271
-283
-273
-261
-269
-274
-270
-281
-294
-285
-274
-283
-281
-253
-243
-266
-275
-250
-236
-242
-237
-224
-225
-226
-216
-225
-250
-245
-211
-184
-156
-113
-95
-125
-162
-172
-171
-184
-186
-165
-169
-186
-154
-147
-215
-181
213
1174
2404
2634
1187
-406
-606
-146
-98
-195
-130
-107
-116
-73
-59
-65
-35
-6
16
54
93
127
162
193
233
292
348
388
417
445
481
506
500
483
456
384
289
220
149
39
-66
-122
-158
-196
-220
-234
-245
-235
-210
-205
-201
-172
-152
-162
-166
-149
-141
-151
-153
-143
-140
-144
-138
-129
-132
-135
-129
-120
-116
-113
-108
-99
-87
-77
-79
-84
-69
-46
-39
-46
-52
-51
-42
-28
-14
-8
-19
-41
-44
-19
20
67
109
108
68
36
26
17
15
24
23
10
10
29
