# session 33
-2
12
-29
81
331
421
315
224
170
78
-11
-65
-119
-168
-189
-197
-204
-204
-200
-200
-196
-187
-182
-184
-189
-192
-189
-183
-187
-198
-207
-206
-196
-188
-193
-199
-191
-180
-178
-179
-176
-171
-168
-163
-154
-151
-153
-146
-131
-125
-126
-123
-120
-122
-117
-102
-98
-103
-100
-93
-91
-85
-73
-66
-71
-78
-80
-75
-68
-70
-78
-70
-26
32
46
16
-6
-13
-34
-55
-54
-52
-52
-55
-76
-63
-32
-89
-136
103
885
2208
3066
2159
275
-517
-158
-1
-162
-135
-74
-112
-94
-54
-58
-44
-13
5
27
56
79
103
138
184
225
259
306
363
396
406
422
435
425
404
377
326
245
148
51
-39
-115
-180
-233
-270
-292
-302
-300
-295
-293
-287
-277
-274
-271
-263
-266
-274
-268
-264
-274
-277
-269
-270
-274
-266
-262
-267
-264
-252
-248
-251
-246
-237
-232
-231
-227
-221
-219
-215
-204
-196
-198
-197
-192
-195
-205
-203
-170
-118
-79
-71
-84
-108
-130
-136
-137
-147
-135
-121
-143
-134
-97
-163
-223
30
815
2098
2951
2099
230
-593
-223
-29
-184
-163
-100
-135
-113
-69
-70
-53
-22
-7
20
56
84
116
156
196
244
301
355
399
438
468
479
476
467
442
389
312
219
113
15
-66
-139
-204
-243
-264
-288
-301
-284
-265
-263
-258
-243
-236
-236
-232
-226
-221
-218
-224
-226
-218
-216
-222
-221
-216
-216
-214
-208
-210
-211
-204
-200
-201
-197
-190
-190
-185
-172
-170
-176
-168
-157
-162
-171
-176
-171
-137
-85
-52
-47
-56
-79
-100
-101
-103
-118
-113
-104
-121
-103
-79
-158
-191
125
943
2114
2705
1731
68
-523
-161
-32
-166
-135
-85
-113
-96
-65
-61
-41
-18
-3
21
48
78
117
155
190
238
293
339
379
421
450
454
448
443
424
375
300
210
113
16
-73
-147
-206
-252
-279
-283
-279
-281
-282
-273
-264
-262
-253
-240
-241
-247
-242
-240
-247
-244
-233
-232
-237
-237
-239
-241
-232
-220
-218
-220
-216
-211
-211
-208
-202
-201
-202
-200
-198
-198
-203
-207
-193
-148
-99
-75
-74
-88
-118
-139
-135
-136
-145
-138
-141
-143
-108
-128
-219
-134
375
1420
2545
2476
904
-438
-419
-51
-118
-185
-106
-116
-132
-85
-73
-72
-42
-25
-9
29
62
90
129
171
211
263
319
365
402
431
448
455
455
445
415
356
269
169
70
-24
-106
-168
-219
-261
-278
-273
-273
-281
-273
-258
-255
-257
-253
-247
-244
-241
-241
-245
-246
-242
-241
-247
-248
-242
-237
-234
-226
-219
-215
-212
-211
-210
-208
-212
-220
-222
-202
-162
-119
-95
-92
-106
-133
-154
-156
-157
-154
-144
-156
-161
-123
-138
-211
-134
355
1480
2718
2548
741
-648
-510
-90
-160
-198
-97
-116
-135
-87
-77
-71
-34
-11
7
42
76
104
140
184
227
266
309
364
413
434
441
445
437
410
370
309
217
112
25
-48
-121
-187
-233
-260
-268
-272
-278
-266
-245
-242
-246
-235
-226
-230
-227
-217
-227
-243
-234
-220
-227
-233
-227
-230
-236
-229
-220
-223
-221
-205
-199
-203
-201
-193
-190
-196
-208
-216
-207
-180
-139
-96
-74
-81
-100
-121
-137
-143
-139
-126
-124
-150
-144
-107
-157
-225
-46
618
1820
2778
2177
391
-580
-291
-33
-170
-180
-105
-131
-124
-80
-78
-67
-36
-21
-1
33
64
97
137
177
223
275
326
366
398
428
451
459
452
426
379
313
227
126
30
-54
-130
-192
-233
-257
-271
-277
-277
-267
-251
-245
-246
-241
-238
-239
-236
-233
-239
-238
-228
-233
-247
-243
-233
-236
-243
-236
-224
-219
-216
-210
-210
-213
-208
-205
-214
-220
-221
-220
-200
-148
-98
-85
-102
-125
-139
-142
-148
-156
-142
-135
-156
-138
-113
-185
-212
101
961
2183
2673
1519
-131
-561
-149
-62
-183
-132
-105
-137
-99
-70
-79
-55
-23
-7
20
49
75
108
149
196
249
297
340
379
412
430
434
436
434
406
351
282
198
100
-1
-86
-144
-181
-219
-249
-254
-249
-248
-244
-240
-239
-230
-217
-214
-218
-218
-218
-222
-226
-229
-232
-233
-230
-225
-223
-220
-216
-220
-225
-214
-204
-205
-200
-191
-194
-203
-209
-219
-214
-178
-128
-86
-68
-90
-130
-145
-137
-143
-153
-140
-139
-156
-134
-122
-193
-188
166
1080
2282
2586
1283
-257
-526
-124
-81
-182
-130
-113
-132
-98
-76
-67
-42
-27
-8
23
46
76
122
161
192
237
292
336
369
401
425
425
417
413
391
339
268
176
72
-20
-94
-159
-211
-245
-263
-268
-271
-274
-270
-260
-252
-247
-244
-241
-241
-241
-236
-234
-243
-248
-243
-243
-248
-250
-242
-229
-225
-227
-219
-205
-204
-212
-218
-225
-224
-209
-181
-141
-105
-92
-107
-139
-158
-154
-153
-155
-148
-156
-159
-127
-142
-219
-159
334
1486
2718
2533
754
-608
-487
-85
-160
-206
-109
-121
-139
-92
-76
-68
-38
-20
3
41
65
88
133
180
220
266
312
350
388
416
421
422
426
411
368
306
223
126
36
-45
-127
-193
-229
-254
-276
-285
-283
-274
-262
-257
-256
-248
-235
-228
-230
-236
-240
-240
-246
-253
-245
-233
-234
-237
-240
-238
-229
-227
-233
-227
-220
-233
-240
-215
-173
-130
-103
-108
-139
-163
-164
-163
-174
-169
-151
-169
-173
-132
-168
-256
-117
541
1810
2881
2317
429
-650
-352
-48
-186
-210
-130
-150
-142
-96
-93
-82
-56
-43
-13
33
58
80
121
170
217
264
308
349
389
418
429
428
417
386
335
259
164
70
-17
-103
-173
-214
-248
-282
-296
-291
-286
-280
-265
-253
-254
-253
-238
-224
-231
-248
-243
-229
-232
-241
-237
-236
-239
-238
-235
-230
-223
-223
-229
-236
-241
-242
-233
-206
-158
-116
-111
-133
-153
-160
-162
-167
-158
-139
-153
-161
-120
-147
-239
-118
490
1652
2686
2285
567
-545
-344
-41
-153
-179
-100
-125
-130
-81
-75
-70
-32
-3
13
37
71
105
136
177
231
283
329
375
410
426
436
444
431
395
348
288
203
102
5
-80
-145
-192
-229
-257
-270
-271
-263
-251
-248
-252
-246
-229
-226
-231
-224
-217
-219
-223
-224
-232
-239
-233
-222
-223
-228
-225
-218
-211
-202
-203
-209
-201
-190
-188
-185
-188
-207
-213
-199
-187
-160
-101
-60
-73
-107
-127
-127
-126
-132
-124
-117
-131
-116
-100
-173
-186
154
1032
2213
2613
1429
-147
-512
-117
-55
-171
-116
-95
-127
-89
-60
-63
-35
-8
-1
28
66
89
118
160
199
241
293
344
381
408
427
430
422
416
402
352
271
184
95
4
-79
-143
-188
-224
-251
-258
-260
-264
-253
-234
-230
-227
-219
-223
-231
-228
-224
-222
-218
-225
-234
-227
-221
-235
-242
-225
-215
-221
-216
-204
-203
-205
-203
-202
-198
-188
-188
-198
-197
-179
-167
-169
-178
-191
-196
-172
-124
-78
-56
-70
-104
-123
-122
-127
-137
-122
-118
-135
-108
-88
-168
-187
141
1024
2284
2771
1553
-143
-561
-134
-47
-166
-116
-93
-122
-87
-64
-64
-35
-13
-1
32
67
91
123
162
204
250
295
337
379
417
437
429
417
422
417
371
296
212
121
27
-61
-135
-192
-231
-253
-264
-270
-271
-267
-261
-249
-241
-246
-251
-244
-238
-244
-247
-238
-229
-232
-239
-239
-237
-237
-232
-229
-230
-222
-211
-210
-209
-202
-203
-205
-198
-200
-215
-220
-207
-180
-147
-114
-86
-84
-117
-151
-152
-151
-160
-146
-142
-167
-140
-107
-185
-226
76
965
2293
2875
1657
-147
-635
-182
-72
-199
-138
-104
-145
-106
-65
-71
-53
-18
3
26
51
79
124
168
206
255
309
349
388
431
458
454
440
430
401
334
251
173
83
-21
-106
-158
-202
-247
-274
-274
-265
-262
-259
-248
-237
-235
-232
-223
-214
-210
-211
-219
-220
-211
-214
-229
-226
-215
-218
-223
-219
-219
-224
-217
-200
-191
-193
-191
-187
-185
-180
-175
-174
-166
-156
-156
-155
-152
-164
-179
-175
-153
-116
-66
-31
-32
-64
-103
-116
-105
-104
-100
-95
-114
-106
-73
-129
-183
56
788
1950
2706
1946
267
-502
-192
-11
-144
-129
-72
-108
-98
-59
-53
-37
-13
1
25
57
89
126
161
197
240
287
336
385
417
435
447
456
454
430
385
327
252
154
52
-36
-103
-161
-218
-250
-246
-245
-259
-255
-239
-241
-248
-236
-223
-224
-224
-220
-219
-223
-226
-228
-228
-227
-222
-218
-219
-219
-217
-219
-219
-207
-199
-203
-198
-185
-184
-187
-179
-175
-184
-181
-161
-152
-161
-163
-153
-146
-152
-164
-174
-175
-153
-107
-57
-33
-44
-70
-90
-100
-111
-119
-107
-95
-119
-118
-79
-124
-198
-25
598
1703
2645
2197
542
-477
-267
-6
-135
-162
-94
-121
-117
-71
-73
-64
-21
-3
2
31
70
102
134
177
222
267
318
362
393
427
453
453
446
436
401
343
270
176
74
-19
-104
-174
-215
-241
-265
-276
-271
-267
-268
-264
-257
-254
-249
-238
-237
-248
-248
-237
-239
-246
-240
-235
-241
-243
-237
-235
-238
-238
-228
-215
-208
-202
-193
-194
-204
-201
-186
-181
-187
-193
-192
-184
-163
-117
-66
-52
-80
-111
-123
-122
-131
-151
-147
-133
-142
-131
-114
-163
-159
160
1068
2387
2846
1480
-320
-699
-195
-82
-191
-117
-86
-127
-90
-54
-53
-30
-9
2
39
80
106
139
180
216
255
305
362
407
428
435
446
451
433
391
328
253
169
73
-27
-109
-170
-223
-259
-272
-280
-290
-286
-272
-267
-264
-248
-236
-239
-241
-234
-231
-229
-228
-233
-242
-240
-235
-233
-231
-228
-227
-227
-220
-211
-209
-207
-201
-200
-198
-190
-186
-187
-196
-212
-209
-163
-104
-71
-69
-85
-111
-130
-136
-141
-139
-124
-134
-149
-115
-112
-198
-172
238
1218
2456
2696
1277
-276
-473
-71
-86
-189
-108
-105
-143
-96
-73
-85
-56
-23
-13
12
51
80
110
151
198
248
293
334
382
427
448
448
443
433
403
341
249
150
60
-28
-111
-180
-229
-259
-279
-293
-289
-273
-270
-272
-261
-249
-247
-246
-242
-240
-237
-232
-228
-227
-231
-238
-238
-236
-239
-233
-222
-220
-221
-216
-211
-210
-208
-206
-210
-221
-220
-195
-149
-100
-76
-91
-122
-138
-138
-143
-155
-151
-137
-147
-146
-120
-158
-212
-27
659
1830
2632
1916
234
-578
-267
-35
-148
-151
-103
-128
-105
-66
-75
-62
-21
1
16
41
72
104
137
182
237
282
319
365
408
428
431
429
423
408
363
280
186
102
18
-76
-152
-197
-231
-261
-269
-263
-263
-266
-262
-250
-237
-233
-234
-228
-224
-231
-227
-213
-218
-233
-229
-220
-226
-229
-222
-221
-220
-211
-205
-205
-200
-201
-214
-226
-222
-198
-153
-105
-84
-95
-128
-161
-170
-162
-162
-159
-159
-167
-144
-125
-197
-241
31
862
2105
2689
1626
-58
-597
-206
-71
-187
-156
-126
-159
-128
-90
-93
-77
-42
-19
4
32
61
91
130
179
229
272
311
354
397
426
434
432
425
402
352
271
173
71
-29
-116
-180
-219
-251
-280
-294
-291
-284
-279
-273
-266
-260
-258
-259
-256
-249
-245
-243
-238
-237
-249
-261
-258
-242
-232
-234
-236
-234
-236
-235
-218
-185
-142
-110
-118
-153
-173
-163
-154
-172
-186
-175
-178
-180
-151
-171
-224
-121
404
1598
2837
2517
581
-755
-523
-101
-191
-221
-118
-132
-142
-104
-98
-75
-33
-21
0
48
78
102
144
182
215
272
339
385
413
434
442
444
438
401
336
264
178
75
-23
-109
-185
-238
-271
-298
-310
-304
-297
-290
-277
-266
-262
-259
-250
-244
-247
-251
-247
-242
-244
-245
-240
-238
-241
-246
-245
-244
-253
-263
-261
-248
-215
-166
-135
-144
-173
-193
-195
-196
-197
-182
-183
-206
-176
-147
-229
-263
63
998
2352
2882
1606
-159
-587
-161
-106
-241
-173
-141
-181
-147
-120
-128
-95
-54
-43
-23
18
53
87
133
181
222
272
333
380
409
430
434
422
408
378
304
203
101
7
-80
-157
-216
-255
-281
-300
-305
-302
-299
-287
-266
-252
-247
-241
-237
-230
-222
-222
-223
-221
-226
-230
-227
-230
-237
-228
-219
-228
-240
-243
-240
-226
-194
-155
-124
-115
-139
-172
-175
-167
-171
-165
-160
-177
-152
-114
-187
-253
-1
806
2064
2778
1854
122
-564
-219
-58
-182
-152
-102
-141
-125
-80
-71
-57
-33
-12
17
43
61
100
154
200
245
295
338
380
422
443
447
449
441
407
343
255
157
63
-21
-96
-162
-207
-229
-243
-257
-259
-251
-245
-239
-230
-224
-217
-205
-199
-199
-197
-195
-200
-202
-197
-195
-198
-200
-198
-196
-196
-194
-186
-177
-173
-175
-174
-167
-163
-163
-162
-154
-146
-149
-154
-139
-120
-122
-133
-128
-117
-116
-117
-115
-113
-109
-108
-124
-141
-129
-89
-43
-5
5
-21
-57
-72
-71
-82
-93
-81
-77
-85
-61
-69
-155
-121
287
1259
2512
2795
1414
-147
-392
-32
-60
-171
-100
-90
-122
-85
-62
-63
-39
-20
-14
14
55
87
116
152
193
237
284
328
368
402
427
442
454
459
439
389
322
246
154
41
-69
-148
-200
-241
-269
-279
-283
-290
-293
-285
-280
-286
-286
-276
-264
-256
-261
-271
-272
-275
-289
-291
-269
-259
-275
-286
-275
-263
-269
-272
-255
-239
-238
-238
-240
-246
-243
-227
-222
-233
-244
-242
-224
-193
-155
-124
-113
-125
-156
-181
-176
-166
-177
-179
-176
-181
-156
-154
-228
-217
130
1070
2420
2855
1417
-386
-701
-189
-119
-237
-150
-117
-159
-119
-76
-69
-45
-22
-6
28
64
92
133
182
225
271
331
385
424
459
487
498
491
472
433
362
267
173
86
-2
-88
-154
-196
-225
-247
-256
-248
-236
-229
-219
-203
-184
-168
-161
-155
-145
-140
-140
-133
-129
-135
-130
-118
-117
-121
-120
-113
-106
-103
-97
-82
-70
-68
-65
-56
-50
-43
-39
-40
-32
-14
-4
