# session 32
4
3
14
-13
-73
-89
-60
-42
-30
-1
32
60
93
132
175
226
282
333
381
424
453
466
469
460
435
387
311
217
117
17
-70
-133
-180
-220
-247
-256
-256
-254
-251
-247
-238
-224
-210
-206
-206
-201
-193
-191
-197
-204
-203
-189
-182
-193
-203
-199
-195
-197
-190
-178
-182
-196
-206
-213
-209
-171
-115
-79
-68
-79
-110
-136
-134
-130
-139
-137
-132
-152
-136
-97
-157
-231
-25
704
1946
2803
2039
253
-593
-267
-49
-180
-169
-109
-145
-131
-84
-82
-72
-44
-29
-4
32
62
97
137
173
221
280
324
354
397
440
455
453
445
416
366
298
204
98
1
-90
-173
-228
-254
-268
-275
-283
-290
-278
-256
-258
-273
-266
-250
-247
-248
-243
-232
-223
-229
-246
-239
-221
-234
-255
-239
-219
-225
-226
-215
-218
-223
-215
-218
-233
-222
-179
-131
-97
-89
-115
-146
-159
-170
-182
-166
-144
-167
-179
-132
-144
-230
-159
349
1512
2780
2610
765
-666
-530
-90
-162
-214
-120
-145
-168
-107
-84
-81
-51
-29
-19
11
55
92
123
160
206
252
305
362
403
427
441
444
440
426
384
302
203
109
21
-68
-147
-205
-240
-266
-285
-287
-278
-274
-271
-259
-243
-235
-231
-223
-217
-217
-219
-221
-221
-216
-214
-220
-226
-221
-211
-208
-212
-210
-203
-202
-201
-191
-182
-184
-186
-183
-188
-206
-216
-194
-147
-105
-78
-71
-90
-120
-132
-129
-139
-143
-127
-134
-143
-112
-142
-226
-108
456
1580
2725
2537
845
-462
-377
-40
-144
-194
-105
-126
-145
-98
-85
-79
-48
-29
-11
18
42
73
122
169
209
255
310
366
411
444
465
467
460
452
418
338
236
141
47
-48
-132
-188
-223
-256
-279
-277
-265
-266
-267
-257
-247
-240
-230
-221
-216
-219
-222
-217
-209
-210
-217
-221
-222
-222
-223
-217
-211
-215
-220
-211
-199
-200
-198
-190
-190
-190
-180
-175
-179
-172
-159
-165
-182
-190
-185
-164
-123
-77
-47
-46
-70
-99
-116
-123
-129
-122
-105
-115
-124
-91
-109
-191
-94
435
1492
2571
2429
864
-405
-369
-33
-109
-171
-100
-116
-128
-79
-71
-72
-36
-8
7
35
63
88
126
170
213
259
311
362
408
445
468
473
469
458
421
356
275
178
71
-17
-84
-147
-200
-230
-243
-251
-257
-258
-253
-249
-244
-234
-228
-224
-215
-216
-223
-215
-204
-214
-226
-218
-211
-220
-230
-227
-214
-209
-212
-210
-204
-200
-194
-193
-200
-195
-178
-169
-175
-179
-172
-163
-158
-153
-149
-151
-153
-160
-177
-174
-125
-68
-38
-34
-54
-91
-106
-96
-104
-123
-114
-105
-124
-105
-81
-152
-185
96
896
2124
2781
1793
70
-545
-171
-36
-171
-139
-96
-129
-100
-58
-61
-46
-16
-4
13
44
75
101
133
182
237
284
331
381
422
446
462
470
465
450
415
343
244
145
54
-37
-123
-189
-233
-258
-267
-269
-271
-266
-253
-248
-250
-247
-245
-246
-237
-226
-226
-230
-229
-230
-238
-249
-245
-229
-221
-229
-235
-231
-223
-211
-205
-214
-217
-201
-188
-190
-187
-175
-170
-172
-177
-182
-189
-192
-174
-129
-87
-66
-62
-72
-98
-120
-126
-131
-130
-119
-130
-137
-100
-107
-174
-103
354
1422
2670
2638
912
-576
-532
-85
-134
-194
-95
-111
-137
-80
-61
-68
-41
-10
13
40
67
99
137
172
208
256
310
362
406
437
458
469
459
436
410
358
263
161
75
-16
-108
-172
-213
-251
-276
-281
-282
-282
-271
-253
-241
-235
-232
-229
-224
-220
-221
-223
-223
-225
-231
-230
-221
-221
-234
-236
-222
-213
-216
-216
-207
-204
-208
-199
-186
-188
-190
-181
-179
-187
-195
-202
-193
-149
-97
-73
-67
-73
-102
-130
-132
-133
-141
-133
-135
-142
-110
-115
-208
-182
227
1191
2420
2692
1310
-261
-500
-100
-91
-195
-129
-116
-139
-97
-76
-80
-54
-23
-5
16
43
75
110
148
196
252
304
355
404
447
475
484
483
473
442
383
300
197
90
-5
-89
-161
-215
-249
-276
-292
-288
-273
-264
-261
-256
-247
-240
-236
-234
-233
-234
-231
-222
-221
-231
-233
-228
-229
-230
-226
-229
-232
-221
-211
-211
-207
-201
-201
-197
-187
-186
-195
-199
-206
-213
-192
-136
-89
-70
-69
-85
-117
-135
-133
-142
-148
-129
-131
-142
-108
-118
-203
-129
378
1433
2529
2396
820
-464
-418
-56
-119
-184
-112
-120
-139
-100
-78
-64
-40
-25
-3
32
57
79
114
159
208
256
302
350
400
441
462
468
468
458
422
355
272
177
68
-36
-111
-167
-214
-248
-268
-278
-275
-268
-265
-259
-249
-241
-238
-235
-235
-235
-227
-220
-221
-228
-232
-228
-223
-226
-234
-229
-215
-210
-212
-212
-212
-209
-202
-195
-197
-204
-212
-213
-199
-161
-110
-80
-82
-102
-127
-143
-143
-145
-148
-138
-148
-165
-131
-128
-212
-174
266
1277
2478
2578
1061
-422
-512
-99
-120
-201
-121
-124
-151
-103
-81
-80
-56
-36
-12
25
50
73
108
144
186
246
305
351
388
420
447
464
461
448
429
378
285
180
80
-18
-105
-169
-213
-249
-280
-292
-287
-283
-283
-275
-265
-262
-254
-244
-246
-254
-254
-247
-244
-248
-246
-238
-242
-248
-237
-230
-240
-241
-234
-232
-226
-223
-234
-224
-179
-132
-103
-103
-137
-168
-169
-177
-200
-188
-159
-173
-178
-150
-189
-236
-45
672
1998
2936
2039
18
-862
-401
-110
-234
-201
-123
-158
-140
-89
-85
-71
-43
-26
8
49
70
91
133
188
242
294
348
397
429
454
475
472
454
445
413
316
196
92
-10
-105
-172
-222
-264
-295
-305
-294
-282
-287
-291
-280
-269
-261
-249
-244
-248
-249
-246
-246
-246
-252
-265
-263
-243
-237
-247
-252
-249
-250
-247
-237
-216
-173
-126
-119
-150
-175
-177
-191
-214
-198
-174
-196
-192
-158
-207
-240
36
921
2337
3030
1751
-266
-846
-304
-121
-249
-183
-131
-172
-140
-102
-103
-75
-41
-21
10
40
63
101
148
190
241
303
359
405
445
475
487
480
457
420
362
269
154
42
-57
-144
-213
-261
-293
-311
-315
-310
-303
-298
-295
-286
-271
-255
-249
-249
-244
-241
-249
-256
-252
-247
-247
-247
-255
-266
-262
-256
-262
-262
-240
-203
-159
-134
-153
-193
-207
-199
-204
-213
-205
-213
-216
-166
-180
-293
-249
224
1333
2737
2941
1243
-463
-572
-123
-181
-275
-166
-167
-203
-153
-132
-133
-99
-75
-61
-24
14
42
80
128
177
232
297
361
409
444
472
488
485
463
416
333
220
106
2
-101
-195
-252
-277
-298
-319
-324
-316
-307
-299
-296
-290
-272
-255
-252
-249
-243
-246
-244
-233
-242
-259
-249
-234
-237
-243
-256
-274
-265
-240
-235
-217
-162
-125
-143
-179
-190
-185
-192
-192
-169
-173
-183
-134
-147
-273
-222
318
1465
2740
2778
1138
-384
-462
-85
-152
-234
-147
-155
-179
-126
-105
-107
-75
-45
-28
1
37
69
102
147
207
265
318
377
432
463
476
486
488
473
425
340
235
127
20
-76
-146
-198
-241
-269
-277
-275
-274
-270
-263
-255
-243
-234
-235
-226
-208
-209
-225
-227
-219
-222
-227
-223
-226
-233
-225
-214
-212
-208
-203
-208
-208
-196
-191
-194
-185
-168
-165
-172
-170
-159
-158
-165
-158
-148
-157
-175
-172
-148
-107
-59
-34
-45
-70
-90
-101
-106
-110
-100
-90
-113
-108
-62
-113
-186
38
738
1862
2709
2127
452
-479
-232
-10
-146
-152
-85
-118
-116
-76
-68
-50
-22
-10
13
45
71
104
139
174
222
279
326
367
406
437
458
466
463
454
423
358
274
186
87
-14
-98
-157
-197
-226
-243
-248
-251
-251
-244
-234
-232
-231
-223
-218
-225
-228
-223
-224
-232
-235
-230
-227
-230
-236
-234
-224
-220
-222
-219
-207
-201
-205
-211
-210
-201
-195
-192
-187
-178
-173
-173
-172
-165
-157
-156
-154
-149
-153
-163
-169
-168
-145
-95
-47
-34
-49
-74
-98
-107
-102
-108
-116
-104
-108
-116
-80
-98
-198
-123
385
1433
2605
2636
1095
-337
-400
-36
-99
-184
-110
-118
-137
-89
-70
-63
-32
-18
-8
24
56
82
119
159
194
234
287
347
398
427
440
455
467
461
435
389
317
221
118
22
-68
-146
-201
-234
-262
-282
-283
-276
-275
-269
-253
-250
-262
-262
-245
-238
-249
-257
-250
-243
-245
-248
-245
-244
-246
-244
-240
-230
-220
-221
-225
-218
-213
-211
-207
-209
-207
-187
-174
-187
-200
-204
-206
-189
-139
-90
-73
-87
-110
-126
-131
-137
-151
-145
-133
-155
-154
-108
-143
-202
-18
649
1907
2965
2319
310
-787
-416
-69
-188
-176
-96
-146
-132
-60
-63
-69
-33
-7
15
50
81
111
156
204
238
284
351
403
435
473
504
498
483
473
434
352
255
154
45
-55
-132
-194
-249
-285
-296
-292
-289
-291
-288
-278
-268
-261
-254
-248
-246
-243
-244
-253
-255
-243
-247
-271
-271
-248
-242
-248
-251
-251
-242
-226
-225
-231
-222
-210
-216
-227
-231
-228
-208
-161
-113
-101
-112
-124
-144
-158
-155
-159
-162
-159
-173
-153
-101
-155
-229
-27
674
1963
3042
2389
359
-739
-369
-51
-198
-188
-93
-134
-133
-82
-85
-72
-23
2
15
45
75
103
144
194
243
295
352
409
454
483
504
513
501
469
420
343
233
116
13
-79
-158
-216
-253
-278
-294
-299
-295
-285
-276
-269
-257
-249
-245
-236
-232
-241
-241
-228
-229
-240
-241
-239
-247
-247
-240
-237
-232
-227
-228
-227
-216
-209
-206
-200
-197
-197
-191
-182
-172
-168
-178
-192
-192
-186
-167
-125
-83
-60
-58
-83
-116
-118
-108
-124
-131
-111
-122
-129
-85
-118
-217
-85
518
1664
2806
2592
865
-450
-355
-23
-143
-197
-100
-112
-130
-89
-81
-75
-44
-28
-12
24
52
75
118
169
211
264
324
372
416
462
487
486
488
485
448
379
288
177
66
-25
-106
-179
-233
-264
-277
-280
-285
-289
-284
-273
-262
-251
-244
-240
-240
-243
-238
-230
-230
-236
-242
-241
-237
-240
-247
-243
-234
-235
-231
-218
-216
-216
-208
-205
-207
-197
-187
-192
-192
-178
-169
-169
-168
-171
-182
-190
-173
-121
-64
-45
-57
-73
-95
-116
-119
-121
-122
-113
-121
-124
-86
-109
-202
-105
411
1432
2554
2544
1008
-380
-411
-38
-99
-181
-102
-104
-127
-92
-75
-63
-29
-11
6
38
63
89
127
166
211
261
310
363
415
451
473
483
478
466
439
374
288
205
111
7
-80
-144
-198
-241
-262
-262
-260
-259
-254
-250
-252
-244
-228
-226
-231
-229
-226
-224
-224
-228
-232
-234
-238
-234
-225
-226
-232
-227
-217
-214
-209
-203
-204
-204
-197
-195
-200
-194
-176
-168
-172
-177
-190
-207
-203
-160
-104
-68
-60
-67
-89
-122
-139
-134
-131
-125
-123
-142
-128
-99
-169
-225
31
790
1986
2753
1935
186
-578
-223
-41
-192
-168
-103
-147
-132
-76
-73
-66
-37
-20
0
31
59
89
126
165
212
265
315
367
411
436
451
462
461
443
400
330
249
156
48
-50
-122
-184
-236
-264
-278
-286
-285
-276
-264
-259
-267
-269
-252
-243
-251
-252
-249
-254
-254
-244
-242
-245
-243
-242
-241
-236
-230
-225
-219
-212
-207
-208
-204
-189
-186
-206
-214
-189
-148
-107
-78
-79
-103
-129
-143
-147
-149
-148
-151
-168
-150
-108
-153
-211
-31
634
1905
2946
2253
249
-793
-399
-73
-202
-186
-94
-127
-118
-75
-87
-69
-21
-6
11
51
79
102
142
186
227
276
327
372
413
441
449
447
434
402
359
300
203
92
2
-75
-149
-208
-250
-281
-288
-281
-286
-290
-274
-256
-253
-249
-242
-240
-241
-237
-237
-246
-253
-246
-237
-242
-251
-249
-241
-236
-234
-233
-229
-219
-211
-214
-226
-237
-243
-233
-194
-139
-100
-90
-105
-136
-158
-164
-169
-159
-142
-159
-161
-118
-151
-241
-123
446
1601
2758
2490
720
-545
-391
-52
-163
-203
-123
-149
-147
-88
-82
-84
-56
-32
-9
14
37
78
126
162
204
254
306
362
405
421
437
457
459
440
401
328
234
140
40
-57
-129
-183
-232
-265
-276
-274
-270
-271
-271
-261
-246
-241
-244
-242
-238
-243
-248
-243
-237
-243
-250
-248
-243
-241
-240
-240
-241
-238
-234
-242
-252
-242
-206
-154
-113
-110
-136
-162
-178
-182
-183
-179
-166
-171
-181
-153
-159
-242
-200
252
1293
2484
2510
965
-453
-496
-103
-145
-229
-146
-139
-162
-119
-94
-91
-68
-50
-40
-12
30
67
100
136
173
216
271
323
361
391
406
404
400
392
353
288
212
121
21
-66
-139
-201
-239
-259
-277
-288
-279
-266
-264
-258
-248
-244
-241
-236
-236
-236
-235
-238
-238
-237
-245
-248
-239
-234
-236
-235
-244
-258
-253
-227
-190
-144
-112
-121
-156
-178
-181
-185
-188
-172
-173
-194
-167
-137
-209
-248
42
930
2248
2782
1558
-164
-597
-177
-92
-210
-161
-137
-163
-123
-93
-92
-65
-46
-36
-2
37
65
98
140
179
222
274
325
367
400
423
429
421
409
385
333
255
167
76
-15
-102
-170
-214
-237
-252
-259
-259
-254
-250
-247
-245
-242
-236
-230
-226
-227
-230
-236
-237
-233
-235
-242
-247
-246
-238
-218
-187
-158
-140
-147
-178
-197
-194
-204
-217
-204
-203
-204
-168
-179
-250
-185
252
1340
2696
2740
943
-659
-641
-171
-212
-274
-176
-189
-212
-156
-140
-141
-104
-72
-50
-19
6
33
77
119
153
198
255
309
353
378
384
391
396
369
313
246
165
65
-41
-139
-215
-269
-304
-331
-350
-344
-320
-311
-318
-316
-304
-301
-299
-292
-289
-290
-288
-289
-290
-293
-303
-302
-283
-267
-255
-226
-196
-200
-236
-259
-248
-239
-245
-240
-238
-237
-203
-217
-288
-215
246
1367
2780
2860
983
-747
-744
-218
-256
-327
-201
-200
-233
-185
-172
-172
-130
-100
-85
-61
-40
-14
31
74
114
168
