# session 18
-40
-52
-36
51
68
-82
-207
-191
-167
-188
-188
-168
-167
-172
-173
-176
-181
-182
-188
-208
-221
-214
-212
-220
-217
-210
-217
-222
-215
-212
-211
-204
-201
-202
-197
-185
-178
-179
-180
-168
-150
-148
-155
-150
-140
-148
-165
-164
-137
-99
-64
-38
-36
-73
-106
-100
-94
-99
-92
-106
-114
-77
-116
-214
-81
540
1816
3134
2853
792
-765
-666
-269
-346
-338
-204
-223
-234
-168
-147
-128
-73
-24
42
139
230
330
465
600
684
715
715
695
636
538
440
350
247
150
73
-9
-96
-162
-205
-226
-221
-220
-234
-232
-218
-218
-223
-221
-219
-226
-237
-248
-254
-258
-268
-276
-279
-284
-286
-284
-286
-287
-285
-286
-285
-273
-258
-252
-248
-246
-251
-259
-258
-245
-218
-172
-121
-102
-127
-160
-175
-187
-187
-163
-169
-189
-154
-168
-272
-214
268
1412
2930
3214
1367
-632
-889
-387
-363
-423
-296
-275
-285
-216
-192
-180
-110
-50
-4
78
177
279
407
544
645
691
690
650
576
479
372
264
168
83
-8
-92
-149
-192
-233
-254
-252
-247
-243
-237
-233
-225
-211
-213
-230
-233
-222
-224
-234
-236
-237
-247
-254
-251
-252
-261
-259
-245
-238
-235
-224
-217
-219
-219
-213
-203
-191
-185
-195
-211
-215
-199
-170
-129
-89
-72
-86
-107
-114
-127
-147
-134
-119
-145
-133
-98
-188
-263
12
830
2164
3114
2304
282
-782
-503
-249
-357
-327
-239
-254
-233
-183
-164
-119
-57
-11
55
152
252
365
496
615
692
718
707
668
592
489
386
290
190
94
5
-80
-149
-192
-224
-251
-265
-263
-247
-229
-223
-230
-234
-229
-225
-228
-234
-239
-245
-253
-256
-251
-252
-260
-256
-251
-257
-258
-247
-240
-241
-236
-233
-240
-243
-241
-239
-221
-170
-121
-101
-102
-115
-138
-158
-170
-167
-158
-178
-186
-140
-160
-277
-229
260
1336
2612
2757
1168
-502
-754
-367
-333
-376
-282
-269
-287
-235
-198
-175
-121
-63
-4
74
163
261
384
521
622
662
662
636
581
501
398
288
195
114
24
-64
-134
-196
-235
-247
-262
-277
-267
-250
-250
-248
-241
-248
-249
-230
-225
-245
-257
-253
-253
-258
-256
-251
-252
-257
-257
-246
-232
-233
-246
-249
-235
-222
-223
-235
-235
-209
-174
-144
-109
-85
-101
-130
-140
-152
-160
-145
-162
-185
-131
-123
-237
-214
215
1277
2811
3340
1706
-421
-905
-411
-325
-412
-295
-250
-274
-219
-181
-170
-111
-41
14
86
181
298
430
552
650
714
730
706
647
547
441
357
264
154
62
-15
-93
-165
-226
-268
-265
-246
-254
-271
-259
-236
-235
-248
-250
-240
-244
-261
-267
-265
-273
-292
-305
-305
-296
-289
-293
-297
-290
-282
-284
-287
-291
-303
-298
-254
-204
-172
-142
-131
-156
-184
-194
-206
-198
-178
-202
-206
-154
-206
-318
-165
521
1893
3245
2863
702
-829
-685
-304
-399
-409
-305
-311
-279
-206
-196
-172
-109
-66
-13
75
178
302
440
552
632
696
716
669
582
484
374
265
166
71
-20
-103
-174
-220
-234
-244
-261
-265
-255
-248
-240
-225
-215
-216
-221
-223
-223
-223
-229
-235
-240
-256
-264
-247
-233
-245
-250
-234
-229
-234
-224
-212
-213
-214
-214
-221
-227
-220
-196
-154
-107
-79
-83
-114
-141
-147
-153
-154
-142
-161
-168
-123
-173
-299
-167
469
1673
2893
2707
862
-657
-664
-292
-352
-385
-268
-262
-282
-229
-185
-156
-113
-63
2
83
176
290
416
527
618
679
691
655
594
513
409
303
208
113
18
-64
-133
-189
-222
-241
-259
-267
-258
-249
-243
-236
-230
-232
-239
-240
-226
-212
-218
-231
-236
-241
-246
-244
-240
-238
-236
-242
-248
-233
-211
-203
-199
-191
-187
-184
-182
-186
-192
-199
-195
-163
-107
-56
-36
-49
-77
-95
-98
-103
-106
-104
-116
-107
-66
-113
-221
-107
480
1643
2819
2623
846
-603
-602
-227
-262
-293
-197
-200
-209
-152
-121
-98
-47
3
57
134
226
337
464
578
659
706
714
682
622
540
440
336
242
146
46
-35
-91
-146
-201
-237
-254
-258
-255
-254
-254
-252
-254
-258
-259
-264
-269
-268
-273
-286
-292
-292
-303
-316
-318
-316
-318
-323
-330
-327
-308
-297
-308
-322
-309
-278
-263
-275
-291
-293
-295
-296
-277
-237
-196
-165
-153
-173
-198
-199
-209
-235
-224
-202
-214
-192
-175
-276
-304
43
951
2341
3083
1899
-151
-902
-485
-304
-398
-312
-241
-267
-227
-177
-160
-106
-42
5
80
178
269
373
501
617
692
734
747
721
664
594
508
402
303
220
132
44
-21
-77
-129
-144
-131
-128
-130
-126
-128
-131
-131
-138
-146
-146
-150
-159
-171
-194
-218
-212
-193
-198
-218
-225
-225
-228
-230
-232
-231
-230
-229
-225
-229
-250
-255
-215
-163
-126
-98
-97
-136
-167
-172
-185
-188
-176
-197
-202
-152
-197
-304
-191
373
1621
3060
2951
877
-841
-804
-354
-412
-429
-302
-318
-325
-250
-225
-205
-142
-89
-41
34
127
238
363
481
576
638
647
607
543
465
367
261
164
73
-17
-91
-150
-206
-249
-266
-269
-268
-259
-257
-257
-240
-220
-224
-233
-231
-232
-242
-247
-251
-259
-260
-263
-277
-281
-263
-250
-255
-257
-245
-232
-227
-225
-221
-217
-210
-207
-215
-224
-223
-207
-173
-127
-89
-73
-85
-113
-131
-142
-154
-139
-127
-154
-142
-112
-202
-274
-4
796
2093
3002
2200
240
-779
-499
-245
-338
-305
-226
-244
-215
-157
-145
-116
-55
-6
47
132
243
359
466
569
664
721
722
684
622
534
435
337
240
147
62
-21
-91
-142
-180
-210
-227
-235
-230
-216
-210
-212
-215
-224
-224
-205
-195
-210
-223
-224
-230
-237
-236
-239
-246
-250
-253
-252
-245
-240
-234
-220
-211
-216
-225
-236
-246
-233
-188
-135
-103
-103
-123
-144
-150
-156
-167
-159
-152
-174
-164
-145
-234
-295
-18
816
2120
2901
1941
15
-848
-508
-274
-368
-334
-263
-276
-245
-195
-180
-146
-92
-43
20
105
201
301
406
516
612
661
658
624
562
473
370
269
180
97
10
-73
-138
-187
-222
-249
-270
-269
-249
-234
-227
-224
-229
-236
-232
-229
-238
-246
-243
-252
-274
-276
-250
-236
-252
-268
-265
-263
-265
-254
-237
-239
-250
-248
-247
-254
-241
-200
-155
-119
-91
-97
-133
-159
-172
-184
-171
-167
-200
-173
-124
-209
-277
-14
808
2238
3236
2254
47
-969
-570
-300
-401
-336
-255
-290
-260
-195
-170
-128
-76
-31
30
103
196
324
443
539
632
692
700
683
632
536
436
348
257
165
72
-23
-94
-132
-169
-214
-236
-223
-199
-193
-202
-209
-210
-216
-219
-212
-214
-234
-252
-259
-263
-266
-271
-279
-280
-271
-279
-301
-300
-281
-280
-284
-264
-231
-192
-146
-134
-173
-204
-206
-219
-217
-187
-203
-226
-175
-192
-314
-256
258
1482
3002
3092
1094
-774
-853
-371
-404
-437
-296
-300
-319
-245
-213
-201
-148
-95
-39
44
134
231
353
485
592
649
659
638
584
492
382
280
190
94
-7
-88
-144
-192
-235
-264
-273
-267
-258
-253
-249
-239
-227
-218
-217
-221
-226
-230
-236
-241
-246
-254
-261
-261
-263
-270
-269
-251
-238
-241
-244
-239
-243
-255
-239
-183
-129
-106
-103
-117
-139
-152
-164
-173
-158
-158
-181
-150
-144
-260
-276
137
1187
2613
3090
1642
-287
-799
-391
-302
-393
-315
-272
-282
-228
-190
-182
-137
-77
-27
38
126
229
343
466
581
656
679
667
635
576
484
378
282
188
86
-8
-83
-150
-206
-237
-249
-259
-266
-257
-235
-223
-226
-227
-218
-217
-225
-228
-227
-230
-242
-256
-258
-249
-246
-247
-244
-246
-251
-250
-259
-278
-272
-225
-170
-131
-110
-119
-153
-177
-180
-186
-183
-176
-201
-202
-148
-187
-312
-218
383
1618
2876
2660
779
-716
-691
-319
-377
-397
-289
-302
-304
-226
-195
-189
-140
-80
-25
44
130
231
349
468
560
612
631
618
559
469
379
296
204
108
22
-59
-134
-192
-239
-276
-285
-268
-258
-259
-262
-262
-250
-235
-236
-245
-242
-242
-249
-246
-240
-256
-275
-263
-244
-249
-250
-234
-232
-242
-228
-213
-231
-249
-231
-195
-157
-114
-87
-98
-124
-135
-143
-162
-163
-156
-175
-156
-111
-189
-286
-72
706
2115
3241
2493
313
-899
-588
-265
-372
-345
-246
-264
-245
-187
-164
-127
-73
-29
34
118
209
318
436
536
610
668
703
696
631
517
414
362
302
185
67
-18
-111
-193
-214
-219
-246
-249
-234
-255
-274
-250
-233
-238
-228
-227
-264
-276
-245
-251
-298
-308
-285
-287
-295
-285
-282
-288
-283
-276
-283
-298
-300
-279
-253
-239
-222
-182
-140
-138
-170
-189
-191
-202
-204
-201
-221
-208
-176
-249
-328
-106
726
2224
3286
2352
160
-905
-574
-324
-416
-354
-281
-311
-274
-227
-225
-177
-114
-85
-33
56
149
265
402
517
596
641
641
610
559
474
368
274
188
89
-10
-85
-135
-172
-213
-251
-258
-238
-228
-230
-223
-211
-205
-206
-213
-214
-203
-204
-218
-215
-206
-218
-229
-223
-223
-232
-231
-228
-232
-233
-236
-245
-244
-231
-208
-166
-116
-98
-115
-132
-140
-152
-150
-131
-144
-159
-114
-120
-238
-229
203
1268
2647
2953
1403
-385
-730
-331
-289
-360
-269
-245
-263
-210
-170
-156
-117
-69
-16
60
143
231
339
456
556
621
652
652
615
540
449
355
258
160
67
-20
-95
-158
-209
-243
-261
-265
-254
-238
-237
-237
-227
-222
-225
-229
-239
-248
-248
-252
-263
-264
-262
-266
-264
-263
-272
-271
-260
-257
-256
-245
-235
-228
-216
-208
-211
-214
-210
-212
-224
-228
-217
-196
-166
-123
-93
-105
-132
-144
-158
-163
-142
-148
-164
-120
-133
-253
-210
253
1327
2770
3120
1444
-502
-838
-369
-323
-396
-285
-254
-281
-238
-195
-161
-112
-79
-38
34
115
209
330
449
539
605
655
673
646
585
508
423
340
256
157
63
-16
-99
-177
-224
-243
-243
-226
-225
-241
-237
-224
-232
-235
-217
-210
-225
-240
-247
-251
-258
-268
-269
-268
-287
-306
-285
-259
-276
-278
-217
-169
-197
-233
-222
-218
-235
-223
-220
-252
-220
-184
-285
-330
-12
906
2437
3349
2094
-213
-1069
-575
-361
-483
-393
-316
-356
-310
-239
-230
-202
-141
-82
-19
58
159
285
416
532
612
646
639
600
530
427
310
209
123
31
-60
-133
-194
-250
-283
-289
-287
-290
-286
-266
-256
-261
-255
-239
-239
-247
-245
-242
-256
-273
-274
-266
-267
-281
-292
-293
-294
-301
-290
-243
-182
-150
-165
-194
-198
-197
-208
-197
-190
-214
-184
-146
-257
-351
-66
840
2341
3346
2363
177
-854
-516
-297
-430
-385
-301
-324
-294
-238
-217
-175
-126
-87
-14
70
144
259
406
520
600
660
668
624
568
496
388
271
178
88
-21
-112
-163
-209
-256
-279
-279
-278
-272
-263
-262
-261
-247
-233
-236
-245
-241
-232
-237
-250
-255
-252
-263
-291
-305
-286
-260
-240
-204
-159
-150
-187
-216
-208
-196
-195
-203
-225
-204
-148
-218
-354
-201
532
1897
3119
2685
673
-743
-641
-304
-402
-430
-322
-320
-317
-255
-229
-220
-176
-110
-36
38
118
220
335
440
519
565
588
584
535
448
349
250
155
68
-18
-105
-177
-231
-279
-311
-310
-295
-290
-288
-287
-289
-281
-266
-258
-257
-262
-270
-272
-271
-277
-280
-280
-289
-300
-295
-276
-254
-221
-180
-167
-196
-217
-210
-211
-213
-204
-211
-199
-162
-223
-323
-169
532
1918
3164
2631
525
-821
-635
-320
-414
-388
-288
-320
-312
-240
-212
-185
-135
-90
-30
52
137
231
345
462
554
616
647
628
568
493
408
313
226
144
49
-48
-127
-183
-216
-236
-251
-257
-252
-246
-248
-244
-229
-219
-219
-218
-220
-229
-239
-247
-253
-258
-271
-287
-290
-283
-273
-249
-213
-198
-209
-218
-222
-235
-232
-212
-231
-245
-196
-212
-311
-239
253
1424
2919
3064
1140
-734
-850
-342
-357
-438
-331
-312
-311
-242
-219
-215
-162
-102
-55
8
98
199
303
423
548
618
618
590
547
476
385
286
179
78
0
-68
-140
-203
-239
-258
-271
-276
-269
-257
-245
-230
-222
-225
-229
-227
-230
-243
-254
-258
-265
-277
-285
-284
-285
-281
-247
-197
-179
-201
-233
-251
-248
-226
-206
-222
-229
-182
-203
-331
-314
137
1283
2813
3167
1467
-459
-787
-366
-367
-455
-355
-344
-359
-281
-246
-255
-202
-123
-72
-20
65
173
283
393
496
561
585
583
544
469
382
290
187
89
0
-93
-173
-223
-272
-321
-321
-286
-283
-296
-279
-268
-277
-266
-242
-245
-256
-255
-257
-265
-270
-275
-277
-273
-281
-296
-286
-267
-275
-285
-268
-238
-199
-154
-137
-162
-189
-194
-201
-200
-167
-162
-184
-150
-150
-278
-300
134
1244
2702
3096
1555
-326
-741
-344
-311
-402
-300
-257
-280
-246
-214
-182
-118
-71
-29
44
118
190
300
437
542
590
609
622
609
548
462
375
281
187
108
33
-49
-119
-162
-194
-225
-232
-210
-186
-177
-178
-179
-179
-176
-172
-170
-173
-179
-182
-188
-200
-201
-186
-177
-180
-184
-189
-198
-205
-201
-180
-143
-103
-72
-62
-81
-109
-110
-98
-94
-86
-94
-111
-79
-80
-201
-230
159
1224
2699
3158
1627
-309
-746
-320
-272
-366
-259
-222
-263
-223
-175
-158
-123
-81
-36
26
93
174
277
374
449
516
564
565
531
483
416
324
227
135
45
-45
-136
-220
-274
-299
-323
-347
-348
-338
-339
-344
-340
-337
-349
-365
-371
-372
-378
-387
-408
-428
-417
-404
-425
-437
-420
-424
-452
-458
-440
-423
-398
-352
-317
-334
-376
-386
-377
-378
-364
-354
-358
-323
-321
-419
-425
-63
965
2496
3016
1416
-603
-993
-495
-438
-518
-386
-347
-374
-306
-253
-238
-187
-129
-73
9
99
187
295
432
560
637
669
679
659
606
541
469
390
318
252
173
101
74
75
62
50
63
86
106
126
144
156
167
180
