# session 15
461
442
390
423
510
469
344
299
285
208
156
183
179
83
-25
-75
-72
-73
-116
-156
-172
-215
-261
-293
-356
-360
-281
-373
-620
-546
307
1948
3199
2359
29
-1230
-914
-615
-739
-694
-589
-613
-570
-469
-411
-324
-187
-26
151
251
228
185
151
74
-8
-64
-128
-174
-180
-221
-305
-338
-323
-323
-335
-351
-386
-399
-395
-450
-506
-415
-261
-260
-346
-299
-215
-317
-449
-378
-295
-393
-466
-171
924
2626
3173
1443
-619
-977
-550
-589
-634
-395
-294
-307
-223
-135
-71
29
114
155
182
172
111
50
23
15
-17
-114
-237
-281
-239
-219
-252
-247
-172
-101
-84
-94
-97
-122
-183
-222
-224
-245
-263
-232
-229
-281
-289
-247
-214
-218
-306
-385
-271
124
1122
2579
2867
1135
-643
-793
-374
-435
-474
-304
-338
-398
-203
-64
-119
-27
189
228
240
374
346
157
121
154
77
11
8
-6
-27
-89
-143
-82
-43
-130
-153
-90
-122
-191
-211
-292
-367
-266
-114
-76
-123
-225
-295
-220
-142
-216
-310
-307
-272
-143
578
2263
3668
2788
309
-993
-657
-335
-417
-373
-296
-305
-264
-195
-103
15
91
192
362
467
456
426
371
227
79
33
26
17
45
-22
-197
-177
0
-36
-164
-112
-112
-283
-343
-291
-303
-305
-287
-314
-269
-211
-314
-436
-431
-363
-246
-215
-392
-465
-5
1252
2879
3150
1273
-620
-798
-452
-629
-651
-358
-351
-516
-427
-208
-126
-121
-6
191
285
254
210
141
27
-32
-24
-44
-96
-110
-68
-70
-173
-242
-205
-209
-255
-211
-209
-339
-370
-284
-337
-417
-307
-214
-257
-224
-138
-192
-299
-333
-381
-486
-501
-256
596
2312
3684
2791
355
-917
-665
-475
-584
-492
-415
-426
-339
-264
-191
-31
20
-25
133
382
377
232
177
109
29
99
167
76
30
60
-39
-157
-132
-107
-122
-124
-196
-236
-147
-175
-278
-152
-83
-313
-365
-154
-163
-288
-221
-183
-193
-71
-121
-391
-335
221
1225
2523
2841
1275
-545
-898
-477
-331
-364
-420
-441
-272
-123
-146
-116
-43
-58
45
296
362
204
85
44
0
-26
-30
-46
-74
-95
-80
-41
-44
-89
-105
-98
-130
-181
-206
-232
-275
-289
-270
-264
-263
-239
-215
-211
-202
-214
-249
-224
-187
-266
-344
-186
554
2148
3398
2337
-195
-1297
-742
-419
-526
-404
-363
-455
-265
-57
-94
-15
205
220
179
331
421
278
106
12
-52
-75
-81
-118
-135
-115
-116
-124
-95
-83
-132
-177
-180
-200
-231
-220
-207
-216
-197
-168
-180
-195
-178
-163
-197
-238
-193
-148
-233
-303
-162
409
1751
3059
2472
285
-951
-619
-287
-366
-286
-184
-227
-189
-88
-43
16
106
189
276
339
341
293
210
115
46
-3
-55
-92
-99
-105
-123
-130
-120
-112
-124
-157
-180
-184
-211
-260
-279
-274
-288
-302
-287
-281
-310
-332
-342
-353
-319
-287
-380
-461
-266
483
2025
3350
2544
118
-1188
-831
-491
-573
-504
-409
-414
-328
-224
-179
-82
60
182
299
386
392
337
269
194
98
3
-41
-64
-124
-172
-155
-138
-167
-185
-169
-159
-187
-237
-266
-254
-258
-301
-324
-301
-274
-264
-272
-286
-277
-275
-297
-267
-242
-336
-376
-111
705
2219
3316
2299
21
-989
-599
-382
-499
-422
-340
-361
-295
-184
-114
-35
66
177
293
362
348
281
202
125
43
-27
-59
-80
-131
-180
-184
-166
-161
-157
-152
-167
-189
-203
-220
-236
-240
-254
-276
-269
-233
-216
-224
-231
-261
-295
-236
-188
-304
-373
-46
974
2644
3557
2186
-149
-960
-517
-393
-520
-399
-306
-320
-252
-161
-87
25
150
268
381
464
495
452
356
284
254
203
119
41
-21
-65
-81
-101
-149
-182
-181
-191
-227
-270
-310
-322
-296
-289
-324
-353
-348
-312
-293
-335
-370
-339
-331
-344
-302
-322
-415
-316
200
1352
2735
2721
797
-882
-892
-465
-506
-503
-358
-354
-348
-268
-221
-142
-3
106
190
278
325
301
229
134
35
-36
-61
-82
-126
-158
-163
-164
-158
-139
-132
-152
-183
-196
-199
-213
-233
-246
-260
-267
-250
-216
-213
-257
-277
-245
-243
-251
-213
-260
-391
-311
250
1550
3126
3193
1175
-657
-770
-402
-486
-508
-375
-362
-322
-213
-169
-119
1
128
245
340
363
329
293
273
230
157
111
110
92
31
-27
-53
-72
-113
-160
-178
-183
-215
-259
-271
-268
-282
-291
-281
-281
-284
-268
-241
-220
-230
-270
-279
-258
-255
-239
-231
-303
-313
-24
857
2329
3079
1750
-346
-977
-514
-375
-446
-325
-282
-318
-231
-140
-109
-21
128
257
334
366
361
315
229
136
68
20
-18
-48
-71
-80
-76
-84
-120
-155
-150
-131
-154
-204
-240
-262
-277
-280
-288
-299
-287
-264
-272
-300
-295
-261
-266
-292
-255
-250
-367
-401
-63
963
2583
3299
1814
-315
-890
-464
-411
-520
-412
-357
-355
-266
-192
-143
-42
73
170
257
290
253
191
136
87
54
42
30
3
-20
-30
-44
-69
-95
-116
-140
-176
-207
-215
-227
-260
-282
-294
-321
-324
-273
-229
-222
-228
-251
-267
-255
-273
-293
-236
-232
-357
-364
56
1238
2876
3227
1381
-588
-821
-369
-398
-464
-343
-330
-319
-212
-149
-100
10
127
220
293
322
292
218
148
119
113
92
55
23
3
-17
-38
-50
-70
-113
-150
-169
-197
-223
-231
-247
-275
-281
-270
-273
-271
-236
-192
-191
-228
-240
-227
-247
-261
-222
-249
-357
-320
144
1351
2820
2830
936
-695
-722
-346
-407
-420
-299
-301
-291
-203
-146
-83
26
126
210
274
283
236
165
99
63
54
30
-12
-27
-13
-16
-42
-61
-74
-102
-136
-158
-179
-200
-208
-222
-257
-272
-247
-226
-222
-195
-159
-169
-212
-227
-216
-233
-240
-206
-236
-342
-322
133
1300
2577
2399
621
-733
-681
-371
-435
-423
-308
-309
-286
-187
-122
-64
33
147
251
317
321
278
200
120
83
82
74
42
6
-15
-28
-46
-63
-80
-115
-156
-176
-187
-212
-242
-261
-263
-250
-247
-267
-273
-233
-183
-179
-222
-249
-242
-248
-240
-204
-247
-320
-212
292
1494
2842
2582
538
-934
-766
-384
-467
-426
-281
-305
-292
-188
-140
-86
39
160
242
307
348
328
247
163
126
119
112
86
46
33
45
17
-38
-50
-49
-108
-175
-183
-186
-237
-278
-258
-236
-263
-295
-288
-244
-209
-242
-302
-283
-243
-263
-259
-238
-280
-227
220
1293
2580
2603
808
-872
-918
-410
-407
-435
-266
-229
-241
-154
-94
-53
79
257
403
493
513
477
414
330
233
139
52
-15
-55
-80
-97
-107
-116
-126
-144
-172
-199
-221
-254
-293
-315
-314
-315
-324
-330
-327
-309
-305
-338
-356
-341
-344
-316
-257
-324
-430
-259
460
1888
3155
2512
273
-1037
-746
-417
-524
-482
-366
-370
-325
-237
-175
-77
49
171
301
394
402
345
252
149
65
12
-22
-57
-102
-138
-148
-143
-136
-128
-126
-137
-149
-165
-201
-238
-245
-240
-255
-266
-245
-215
-211
-245
-276
-254
-235
-255
-231
-220
-341
-403
-49
1057
2741
3457
1926
-266
-890
-477
-419
-516
-398
-356
-370
-267
-179
-136
-34
98
215
328
400
398
346
272
199
133
65
5
-34
-73
-122
-152
-159
-163
-174
-187
-201
-215
-229
-254
-287
-307
-304
-299
-299
-276
-236
-213
-229
-267
-279
-263
-278
-289
-248
-287
-422
-377
165
1495
3094
3161
1148
-704
-847
-454
-493
-524
-417
-408
-377
-274
-214
-147
-31
84
203
315
362
353
310
233
166
145
121
60
-1
-49
-101
-132
-130
-145
-202
-242
-243
-237
-229
-242
-299
-332
-298
-282
-314
-315
-285
-278
-266
-229
-229
-273
-277
-254
-273
-262
-200
-236
-323
-169
540
1986
3262
2593
298
-1043
-707
-329
-449
-405
-253
-272
-258
-139
-52
21
137
277
415
522
564
535
448
341
247
174
105
34
-28
-72
-103
-128
-133
-128
-141
-165
-181
-204
-232
-252
-271
-298
-316
-318
-315
-317
-328
-328
-305
-276
-274
-296
-291
-266
-285
-291
-240
-279
-391
-295
306
1694
3211
2960
737
-914
-786
-385
-484
-467
-320
-330
-320
-228
-168
-96
19
137
264
377
425
397
322
236
167
103
40
3
-23
-68
-112
-122
-111
-105
-108
-123
-148
-170
-186
-213
-240
-243
-240
-263
-288
-287
-281
-275
-249
-211
-201
-238
-278
-264
-243
-281
-277
-215
-280
-383
-145
742
2272
3336
2372
127
-965
-632
-401
-518
-451
-358
-377
-325
-242
-191
-88
47
165
284
376
392
356
293
214
143
82
19
-36
-79
-119
-153
-170
-177
-187
-201
-212
-225
-242
-255
-260
-266
-273
-279
-287
-296
-304
-304
-296
-290
-269
-226
-195
-199
-221
-231
-219
-227
-246
-202
-189
-308
-323
129
1295
2836
3224
1542
-446
-831
-385
-351
-432
-310
-264
-272
-200
-130
-63
51
170
284
399
471
476
430
350
274
226
180
117
56
5
-39
-66
-76
-95
-128
-145
-148
-165
-185
-185
-191
-214
-227
-230
-240
-249
-264
-287
-286
-265
-252
-233
-201
-192
-205
-221
-231
-236
-250
-242
-196
-226
-343
-301
229
1502
2920
2804
843
-774
-770
-371
-424
-444
-327
-323
-311
-226
-166
-92
26
136
243
348
399
382
324
243
163
113
77
27
-24
-57
-82
-104
-112
-121
-139
-153
-168
-196
-224
-240
-251
-254
-254
-263
-271
-274
-289
-307
-300
-278
-259
-229
-190
-168
-185
-230
-252
-231
-230
-242
-203
-194
-283
-300
105
1303
2774
2801
942
-716
-797
-384
-365
-365
-263
-258
-238
-155
-106
-48
57
164
279
378
405
389
374
328
245
187
168
139
91
66
57
22
-27
-48
-69
-107
-132
-146
-170
-192
-208
-228
-239
-245
-264
-277
-275
-276
-276
-262
-254
-247
-211
-167
-163
-198
-215
-200
-202
-212
-187
-193
-252
-218
103
1080
2566
2935
1177
-792
-1039
-491
-412
-444
-303
-275
-291
-213
-148
-97
2
111
216
323
386
372
307
222
134
65
22
-15
-51
-72
-79
-82
-76
-75
-94
-120
-142
-163
-182
-195
-209
-228
-244
-258
-280
-306
-309
-290
-267
-243
-214
-192
-196
-226
-233
-214
-236
-248
-195
-216
-316
-221
359
1662
3044
2767
682
-846
-709
-320
-405
-395
-273
-290
-266
-159
-101
-37
77
196
319
429
472
449
389
305
217
143
85
33
-17
-62
-92
-107
-113
-117
-124
-139
-151
-160
-180
-207
-221
-228
-247
-267
-279
-286
-284
-277
-267
-243
-201
-175
-192
-231
-241
-223
-233
-243
-206
-223
-337
-326
157
1395
2841
2858
1014
-662
-785
-401
-414
-441
-339
-325
-305
-221
-174
-115
14
150
259
359
431
436
368
271
192
132
72
11
-46
-95
-132
-159
-167
-152
-152
-186
-220
-227
-219
-218
-241
-274
-282
-271
-274
-293
-299
-284
-269
-275
-282
-253
-206
-192
-225
-249
-229
-225
-249
-217
-193
-274
-296
-1
924
2454
3180
1737
-442
-1059
-544
-383
-465
-349
-286
-311
-248
-165
-103
-8
104
222
360
475
513
473
389
293
197
112
56
16
-30
-75
-98
-103
-101
-102
-112
-125
-134
-147
-168
-187
-207
-230
-247
-257
-276
-297
-295
-282
-282
-270
-232
-202
-208
-242
-262
-245
-249
-263
-213
-210
-330
-304
190
1367
2861
3112
1317
-603
-855
-391
-383
-451
-328
-299
-304
-224
-152
-83
28
148
271
388
455
458
415
341
258
181
113
53
1
-41
-78
-114
-133
-131
-135
-157
-171
-172
-183
-205
-222
-233
-249
-261
-265
-279
-296
-290
-276
-281
-264
-210
-179
-196
-230
-244
-231
-232
-251
-214
-196
-313
-363
39
1193
2762
3208
1580
-427
-884
-455
-383
-456
-358
-319
-321
-243
-173
-116
-11
112
232
355
444
461
421
356
282
204
124
50
-17
-76
-121
-148
-164
-174
-178
-186
-204
-216
-220
-226
-240
-259
-276
-286
-294
-299
-297
-303
-316
-312
-295
-281
-253
-216
-202
-218
-246
-260
-255
-259
-259
-226
-236
-321
-323
79
1254
2730
2810
987
-691
-792
-382
-398
-428
-302
-273
-274
-208
-141
-61
48
150
262
384
463
478
443
374
300
237
179
128
86
37
-16
-56
-77
-85
-98
-133
-166
-167
-167
-193
-220
-229
-242
-262
-270
-274
-286
-292
-289
-294
-296
-284
-271
-250
-209
-179
-198
-243
-243
-206
-214
-224
-181
-200
-269
-172
296
1482
3027
3074
946
-963
-962
-412
-424
-429
-259
-258
-270
-167
-102
-57
53
182
318
465
568
591
558
486
379
265
181
136
99
50
4
-28
-52
-71
-88
-106
-116
-130
-157
-178
-190
-215
-247
-269
-284
-300
-309
-302
-289
-289
-297
-290
-257
-221
-224
-254
-261
-243
-258
-284
-247
-219
-291
-304
17
982
2484
3115
1622
-518
-1087
-558
-394
-468
-352
-294
-317
-247
-168
-115
-22
93
226
395
522
541
487
411
317
213
118
37
-25
-71
-114
-152
-169
-174
-178
-173
-165
-174
-191
-206
-229
-261
-283
-292
-302
-312
-320
-334
-349
-347
-336
-337
-323
-283
-253
-252
-266
-277
-266
-257
-276
-256
-215
-299
-408
-227
606
2230
3479
2563
200
-983
-641
-387
-501
-424
-324
-344
-279
-177
-133
-62
51
173
319
458
531
535
492
417
323
225
138
66
0
-66
-128
-182
-219
-224
-208
-196
-194
-195
-200
-211
-224
-239
-254
-264
-277
-293
-300
-293
-291
-301
-311
-313
-302
-280
-249
-199
-145
-128
-148
-180
-216
-228
-218
-223
-188
-132
-211
-343
-176
642
2171
3336
2531
342
-847
-581
-304
-393
-346
-241
-230
-174
-87
-30
46
141
251
400
544
629
655
628
573
518
444
342
261
210
150
76
4
-59
-95
-99
-87
-77
-91
-124
-143
-151
-177
-196
-189
-195
-214
-208
-203
-221
-231
-220
-207
-202
-204
-215
-227
-231
-229
-233
-236
-230
-233
-248
-259
-258
-237
-196
-174
-180
-184
-201
-225
-221
-240
-279
-242
-226
-334
-333
90
1226
2808
3182
1324
-814
-1181
-680
-632
-703
-594
-590
-623
-562
-520
-491
-407
-306
-199
-68
47
98
89
