# session 20
-3
-12
6
95
136
56
22
106
184
238
340
454
537
606
661
675
656
627
580
493
381
281
190
90
-2
-76
-148
-204
-224
-233
-246
-250
-244
-243
-240
-227
-214
-215
-223
-224
-219
-221
-230
-233
-233
-239
-243
-236
-241
-259
-261
-251
-253
-259
-268
-282
-265
-211
-171
-146
-120
-133
-184
-200
-189
-201
-199
-182
-198
-178
-129
-203
-289
-85
632
2041
3315
2665
372
-967
-634
-269
-391
-357
-239
-272
-260
-188
-175
-158
-110
-73
-25
42
102
175
278
385
484
584
654
666
645
611
552
461
347
230
133
45
-56
-148
-206
-242
-265
-276
-280
-281
-275
-265
-254
-250
-251
-247
-233
-223
-226
-234
-233
-228
-231
-238
-242
-249
-260
-263
-258
-258
-266
-275
-273
-253
-217
-180
-150
-138
-161
-190
-192
-194
-205
-188
-180
-202
-169
-153
-268
-287
99
1126
2691
3408
1947
-244
-868
-388
-283
-402
-304
-262
-300
-253
-210
-202
-162
-120
-83
-24
35
95
188
300
408
512
601
651
661
643
598
516
407
297
195
87
-18
-109
-184
-235
-262
-282
-300
-305
-303
-301
-293
-282
-280
-279
-269
-256
-250
-250
-254
-256
-255
-261
-273
-275
-267
-268
-279
-287
-285
-286
-295
-297
-287
-263
-221
-174
-150
-161
-188
-207
-215
-230
-225
-196
-208
-224
-178
-217
-354
-255
353
1601
3030
3085
1211
-558
-704
-317
-370
-418
-307
-310
-319
-260
-248
-235
-171
-127
-104
-52
21
105
202
301
404
514
604
649
657
648
603
505
392
308
233
132
24
-64
-141
-211
-249
-254
-256
-267
-265
-249
-244
-249
-240
-231
-229
-216
-204
-213
-219
-218
-229
-227
-197
-184
-203
-220
-218
-216
-217
-216
-220
-229
-220
-195
-175
-144
-94
-75
-113
-149
-153
-162
-170
-156
-174
-196
-144
-154
-287
-242
237
1329
2846
3299
1585
-506
-877
-353
-312
-409
-292
-270
-306
-252
-224
-213
-151
-103
-76
-25
39
113
221
343
455
564
657
708
717
690
622
520
403
286
172
54
-71
-175
-238
-277
-309
-328
-340
-350
-350
-338
-325
-319
-314
-300
-283
-278
-276
-261
-255
-272
-284
-277
-279
-291
-286
-279
-291
-306
-303
-283
-268
-273
-285
-282
-273
-274
-268
-242
-212
-185
-165
-172
-187
-180
-179
-190
-176
-183
-203
-147
-150
-312
-266
333
1520
2986
3444
1878
-185
-714
-297
-264
-387
-290
-256
-289
-233
-192
-189
-143
-90
-57
-6
62
137
227
327
443
571
665
700
711
703
649
560
457
345
241
136
16
-87
-147
-194
-241
-263
-265
-269
-275
-275
-269
-259
-250
-243
-233
-219
-212
-220
-231
-235
-235
-233
-223
-216
-220
-224
-222
-219
-220
-218
-216
-215
-208
-196
-192
-194
-189
-176
-165
-161
-162
-160
-157
-158
-158
-154
-150
-149
-158
-171
-174
-161
-134
-102
-76
-54
-43
-70
-109
-116
-110
-103
-94
-119
-129
-82
-141
-275
-112
578
1868
3253
3185
1241
-470
-558
-207
-311
-372
-270
-286
-300
-238
-230
-237
-182
-117
-71
-24
35
108
197
295
400
499
570
607
627
625
576
502
431
351
244
133
39
-44
-126
-198
-243
-264
-282
-300
-296
-268
-251
-255
-255
-245
-241
-243
-242
-243
-252
-260
-256
-254
-262
-263
-253
-254
-263
-263
-257
-257
-258
-252
-247
-243
-235
-230
-226
-215
-201
-198
-195
-186
-192
-210
-207
-174
-126
-83
-61
-69
-101
-127
-130
-131
-136
-121
-117
-132
-105
-107
-211
-199
239
1298
2671
3019
1506
-313
-682
-266
-231
-324
-225
-195
-230
-185
-143
-136
-104
-66
-33
15
71
127
196
291
400
496
560
600
625
621
579
511
433
344
243
144
61
-18
-103
-178
-213
-218
-231
-250
-250
-240
-238
-230
-215
-215
-222
-222
-229
-236
-228
-226
-236
-235
-228
-234
-244
-243
-240
-239
-238
-236
-240
-252
-256
-234
-208
-206
-213
-205
-191
-187
-191
-200
-215
-209
-167
-116
-83
-65
-72
-109
-123
-104
-113
-137
-124
-124
-134
-106
-138
-230
-131
403
1567
2866
2747
864
-693
-656
-232
-285
-321
-217
-225
-229
-169
-165
-164
-107
-65
-41
13
79
135
206
298
392
479
545
577
588
592
562
490
411
337
247
148
58
-28
-105
-157
-192
-224
-244
-247
-244
-239
-232
-227
-223
-223
-230
-233
-228
-229
-240
-248
-248
-246
-244
-247
-260
-271
-268
-263
-266
-267
-260
-259
-267
-268
-269
-279
-261
-199
-142
-125
-130
-147
-171
-184
-189
-195
-186
-185
-199
-166
-150
-254
-301
29
1018
2546
3256
1891
-203
-840
-379
-246
-367
-294
-244
-271
-222
-175
-169
-134
-90
-60
-14
47
112
193
296
403
503
589
646
665
652
612
541
444
344
244
138
31
-64
-145
-206
-238
-253
-266
-275
-275
-267
-257
-253
-252
-247
-240
-236
-234
-232
-232
-236
-246
-257
-255
-248
-259
-274
-268
-259
-263
-260
-253
-258
-263
-263
-263
-249
-210
-160
-123
-116
-146
-176
-179
-185
-197
-176
-171
-204
-173
-141
-256
-315
41
1020
2469
3199
1986
-48
-774
-381
-242
-365
-305
-255
-286
-245
-200
-198
-170
-122
-84
-39
17
87
175
271
368
469
556
613
637
629
589
523
435
340
240
130
22
-64
-132
-196
-247
-271
-277
-282
-286
-280
-269
-262
-259
-255
-248
-245
-244
-238
-233
-243
-254
-250
-242
-245
-249
-248
-250
-252
-250
-255
-264
-262
-246
-218
-176
-130
-98
-103
-142
-170
-169
-166
-160
-154
-177
-174
-128
-178
-282
-144
521
1822
2986
2503
547
-714
-525
-210
-318
-328
-234
-255
-255
-198
-181
-166
-123
-87
-51
0
57
132
217
295
379
474
538
555
548
524
475
412
338
249
163
81
-15
-106
-171
-226
-267
-274
-267
-267
-261
-247
-240
-236
-237
-250
-253
-237
-235
-256
-265
-258
-266
-274
-264
-260
-279
-288
-270
-253
-242
-211
-173
-176
-210
-226
-227
-236
-222
-204
-220
-214
-189
-234
-232
79
976
2418
3168
1892
-252
-998
-516
-302
-404
-331
-270
-302
-259
-205
-206
-189
-146
-99
-39
17
70
145
234
321
404
465
499
520
519
484
425
349
261
176
91
2
-78
-144
-204
-249
-271
-282
-283
-270
-255
-245
-232
-222
-218
-212
-207
-206
-209
-214
-223
-237
-257
-263
-244
-232
-239
-226
-180
-154
-176
-205
-218
-231
-229
-206
-221
-244
-199
-199
-299
-244
252
1411
2890
3146
1382
-515
-776
-332
-344
-431
-323
-314
-343
-283
-250
-241
-195
-156
-117
-49
13
66
149
255
356
448
516
543
540
521
474
395
307
221
127
24
-72
-151
-211
-250
-276
-294
-296
-286
-279
-272
-259
-254
-258
-255
-246
-247
-247
-249
-270
-293
-287
-273
-274
-259
-217
-183
-187
-218
-243
-249
-254
-248
-232
-243
-242
-202
-243
-347
-223
435
1766
3050
2728
763
-693
-628
-288
-376
-407
-319
-329
-314
-242
-222
-211
-169
-130
-89
-33
27
99
183
268
361
449
505
522
509
476
430
366
282
192
106
21
-61
-130
-183
-222
-244
-247
-245
-247
-242
-230
-221
-219
-221
-220
-214
-215
-223
-225
-223
-235
-250
-256
-256
-253
-246
-225
-183
-145
-152
-190
-207
-206
-218
-215
-196
-205
-200
-162
-209
-294
-137
539
1850
3008
2495
513
-753
-569
-264
-367
-368
-283
-306
-287
-223
-212
-202
-163
-129
-83
-21
33
95
179
272
355
421
471
500
487
449
418
373
287
190
117
42
-46
-116
-165
-215
-251
-262
-263
-258
-249
-246
-241
-229
-223
-223
-225
-229
-229
-225
-236
-252
-259
-270
-282
-265
-244
-248
-233
-179
-155
-193
-229
-230
-228
-220
-204
-226
-243
-192
-194
-286
-232
223
1338
2818
3085
1301
-616
-852
-360
-340
-414
-299
-283
-303
-237
-209
-212
-165
-115
-82
-27
42
108
179
263
351
432
490
517
524
519
483
406
320
250
181
91
-7
-87
-144
-190
-224
-240
-246
-252
-245
-227
-225
-237
-231
-214
-212
-218
-223
-228
-229
-233
-244
-253
-259
-271
-281
-278
-267
-243
-203
-174
-183
-209
-215
-217
-230
-216
-203
-232
-217
-173
-244
-305
-67
710
2131
3204
2322
141
-904
-517
-259
-398
-357
-270
-301
-278
-227
-222
-194
-144
-110
-69
-13
50
134
223
308
399
485
532
541
529
498
441
360
268
176
86
-4
-89
-161
-215
-252
-274
-280
-273
-267
-265
-258
-244
-237
-236
-232
-227
-227
-227
-229
-238
-250
-255
-264
-281
-285
-272
-253
-224
-185
-171
-196
-223
-229
-233
-228
-203
-204
-221
-188
-190
-301
-301
108
1185
2694
3185
1658
-288
-740
-336
-300
-404
-320
-294
-320
-273
-234
-218
-175
-136
-104
-53
10
79
161
252
352
441
497
534
552
530
486
446
379
276
177
89
-3
-81
-138
-190
-234
-255
-259
-259
-267
-275
-262
-240
-234
-235
-229
-222
-221
-225
-229
-225
-219
-230
-244
-233
-215
-220
-233
-231
-225
-224
-223
-230
-229
-207
-190
-193
-167
-112
-99
-130
-140
-141
-153
-144
-144
-164
-130
-124
-235
-246
132
1165
2742
3403
1863
-307
-856
-354
-269
-396
-299
-252
-280
-228
-194
-194
-151
-103
-78
-37
24
91
166
248
333
419
492
536
546
532
495
443
376
291
195
112
37
-49
-132
-188
-221
-248
-268
-271
-263
-254
-249
-248
-246
-242
-233
-222
-219
-228
-234
-234
-241
-249
-255
-267
-275
-265
-257
-265
-274
-272
-273
-278
-274
-262
-250
-220
-171
-136
-148
-183
-193
-185
-194
-195
-180
-195
-188
-144
-213
-324
-143
599
1974
3153
2584
521
-757
-542
-230
-339
-339
-254
-279
-268
-212
-197
-174
-130
-95
-52
0
53
127
219
312
408
498
561
593
597
576
533
466
378
280
187
101
15
-70
-137
-182
-213
-235
-243
-241
-237
-235
-231
-225
-217
-210
-207
-206
-203
-201
-207
-217
-220
-218
-225
-233
-233
-234
-237
-236
-234
-234
-227
-217
-225
-245
-247
-228
-205
-173
-127
-102
-124
-150
-143
-143
-159
-147
-139
-165
-144
-118
-225
-284
61
1000
2371
3081
1980
50
-703
-358
-217
-340
-289
-233
-263
-235
-192
-179
-143
-101
-74
-28
30
87
158
243
334
418
486
536
568
565
528
476
406
318
229
143
52
-37
-110
-166
-212
-245
-270
-282
-274
-260
-257
-253
-245
-241
-236
-229
-232
-232
-229
-237
-242
-232
-227
-237
-242
-235
-226
-222
-228
-238
-236
-223
-210
-205
-205
-209
-211
-196
-174
-167
-178
-191
-198
-194
-179
-170
-154
-104
-59
-75
-112
-121
-127
-131
-111
-115
-130
-87
-90
-195
-159
270
1320
2780
3177
1528
-431
-772
-288
-242
-327
-223
-203
-232
-183
-160
-152
-101
-64
-43
13
80
132
195
281
368
447
520
579
603
591
559
510
438
356
276
189
91
-2
-84
-155
-205
-237
-258
-264
-255
-251
-255
-253
-245
-238
-234
-234
-238
-247
-257
-255
-246
-248
-263
-272
-276
-281
-284
-283
-281
-282
-290
-296
-287
-270
-264
-255
-219
-171
-151
-172
-198
-202
-208
-213
-195
-196
-203
-162
-191
-315
-260
255
1466
2970
3120
1244
-575
-700
-256
-308
-380
-268
-269
-288
-225
-201
-195
-150
-113
-79
-19
43
97
175
277
381
467
533
578
594
574
528
462
375
276
179
82
-19
-110
-180
-228
-255
-272
-287
-296
-294
-284
-272
-263
-259
-252
-240
-235
-241
-244
-242
-245
-251
-252
-251
-256
-263
-263
-264
-270
-280
-283
-274
-253
-219
-174
-139
-144
-178
-194
-189
-195
-193
-172
-184
-189
-147
-197
-329
-233
391
1708
3085
2900
938
-623
-598
-233
-321
-361
-259
-269
-277
-219
-194
-173
-131
-108
-74
4
74
112
172
282
397
478
528
563
584
581
542
472
393
316
224
106
-5
-77
-131
-196
-248
-265
-261
-250
-241
-245
-254
-255
-249
-236
-224
-221
-223
-229
-237
-239
-235
-237
-239
-239
-240
-244
-244
-245
-251
-254
-250
-239
-223
-195
-161
-141
-154
-177
-183
-188
-194
-182
-185
-198
-167
-182
-278
-244
162
1241
2800
3229
1485
-540
-846
-334
-310
-402
-284
-260
-289
-236
-208
-201
-157
-117
-82
-26
31
93
175
267
363
451
514
556
580
563
518
465
393
291
187
95
3
-85
-155
-206
-242
-266
-277
-275
-265
-254
-243
-237
-234
-227
-221
-225
-228
-227
-232
-239
-237
-237
-246
-257
-270
-280
-276
-271
-267
-237
-182
-151
-165
-194
-205
-206
-215
-205
-189
-215
-215
-168
-226
-336
-185
501
1845
3093
2648
621
-723
-551
-240
-369
-383
-284
-302
-297
-233
-216
-208
-169
-129
-88
-37
15
81
168
264
356
443
501
510
498
491
458
377
280
195
108
7
-98
-187
-242
-266
-286
-311
-320
-310
-303
-312
-317
-298
-275
-276
-283
-268
-259
-282
-300
-284
-265
-272
-288
-291
-285
-292
-308
-309
-293
-274
-247
-205
-179
-189
-207
-209
-216
-216
-196
-205
-215
-164
-181
-291
-224
252
1395
2973
3340
1510
-521
-787
-285
-285
-371
-257
-256
-283
-203
-163
-167
-122
-68
-36
15
87
157
228
315
414
509
587
628
630
619
598
537
442
351
270
178
69
-28
-94
-136
-171
-192
-194
-188
-188
-187
-178
-167
-159
-153
-148
-146
-147
-150
-155
-162
-172
-175
-179
-197
-211
-205
-198
-193
-163
-118
-109
-141
-163
-156
-163
-177
-162
-159
-175
-143
-152
-266
-258
150
1212
2736
3259
1708
-288
-739
-313
-287
-411
-334
-317
-350
-297
-257
-255
-226
-188
-161
-127
-83
-17
69
154
237
327
397
418
411
407
391
342
268
179
74
-25
-105
-187
-280
-348
-383
-411
-430
-428
-418
-412
-401
-395
-404
-412
-411
-415
-412
-399
-408
-431
-435
-429
-432
-437
-444
-449
-443
-436
-429
-391
-342
-345
-380
-377
-358
-372
-366
-334
-347
-338
-289
-358
-439
-213
556
2027
3337
2683
377
-956
-630
-296
-434
-400
-284
-312
-288
-209
-184
-147
-79
-22
41
116
192
287
402
516
630
739
813
845
853
845
812
747
659
564
478
395
314
248
205
178
172
177
176
