# session 1
-45
-41
-62
95
313
271
83
-2
-46
-124
-166
-167
-174
-183
-184
-184
-190
-202
-200
-188
-191
-198
-186
-174
-179
-186
-183
-184
-192
-197
-197
-202
-221
-239
-227
-207
-219
-244
-241
-232
-229
-204
-163
-134
-114
-109
-128
-147
-164
-176
-157
-144
-154
-127
-128
-199
-121
298
1172
2302
2522
1116
-398
-520
-72
-68
-144
-44
-25
-48
-1
34
59
100
122
142
180
206
222
244
272
307
344
360
354
343
327
304
280
253
222
186
141
86
19
-56
-133
-188
-207
-211
-239
-279
-282
-252
-235
-235
-232
-234
-244
-241
-240
-266
-302
-317
-301
-262
-232
-244
-278
-291
-280
-278
-304
-334
-333
-309
-292
-267
-218
-206
-258
-299
-293
-272
-245
-236
-258
-227
-198
-304
-374
-91
814
2349
3319
2251
168
-618
-206
-69
-211
-125
-39
-59
-15
27
19
40
62
70
121
136
106
244
495
495
283
209
272
276
240
222
205
194
182
137
75
7
-69
-133
-171
-199
-226
-245
-254
-259
-258
-243
-221
-206
-200
-201
-212
-226
-234
-243
-256
-264
-265
-265
-263
-262
-260
-252
-251
-259
-253
-239
-249
-255
-218
-188
-209
-233
-234
-246
-248
-228
-246
-264
-222
-249
-330
-136
551
1678
2576
2037
274
-740
-375
28
-54
-70
-10
-65
-78
-44
-69
-80
-49
-32
-16
26
79
129
178
233
301
362
386
386
389
384
356
325
303
263
199
120
32
-55
-122
-167
-196
-214
-226
-233
-235
-241
-252
-253
-242
-234
-234
-238
-247
-256
-257
-261
-271
-277
-282
-289
-286
-271
-259
-263
-279
-290
-288
-279
-260
-221
-185
-185
-212
-233
-240
-232
-201
-196
-220
-180
-140
-239
-260
149
1138
2561
3332
2246
313
-401
-57
4
-185
-153
-120
-178
-165
-136
-150
-142
-113
-89
-55
-5
52
113
180
249
302
335
359
370
360
334
300
263
217
148
70
9
-54
-131
-186
-206
-214
-223
-229
-237
-250
-249
-230
-218
-227
-239
-243
-244
-244
-243
-247
-253
-250
-239
-234
-236
-233
-223
-219
-225
-230
-234
-233
-221
-205
-193
-172
-142
-133
-150
-161
-174
-199
-194
-178
-207
-206
-167
-241
-294
2
715
1741
2428
1707
56
-660
-230
23
-115
-95
-23
-67
-67
-34
-46
-46
-30
-28
-12
18
54
119
208
274
313
349
374
367
335
303
276
246
220
203
179
134
69
-11
-91
-143
-167
-182
-198
-212
-219
-216
-219
-234
-240
-236
-238
-247
-250
-253
-258
-259
-254
-242
-232
-238
-246
-229
-207
-208
-216
-213
-213
-226
-235
-221
-178
-130
-107
-117
-130
-125
-119
-112
-89
-86
-92
-50
-39
-126
-133
192
1074
2295
2635
1350
-152
-406
-72
-104
-219
-166
-166
-202
-179
-169
-170
-139
-106
-73
-21
32
81
141
200
234
247
247
222
179
158
162
154
132
116
94
54
17
-13
-58
-108
-137
-154
-173
-185
-188
-193
-198
-192
-189
-201
-212
-212
-217
-217
-194
-196
-230
-200
-161
-222
-189
-86
-264
-233
672
1439
915
-34
-302
-240
-292
-294
-248
-264
-273
-265
-280
-295
-307
-293
-251
-287
-349
-162
476
1476
2087
1368
-134
-784
-417
-152
-220
-201
-150
-181
-183
-156
-126
-57
2
31
88
156
192
223
264
294
317
335
329
296
245
185
139
112
89
63
36
-9
-76
-129
-141
-137
-145
-156
-152
-145
-147
-144
-136
-138
-156
-179
-193
-194
-191
-195
-212
-230
-232
-224
-214
-202
-197
-213
-225
-211
-196
-189
-163
-137
-150
-182
-199
-214
-220
-200
-200
-216
-175
-156
-243
-275
-44
756
2158
2879
1668
-169
-631
-191
-124
-235
-134
-89
-136
-112
-77
-62
-18
23
53
94
128
156
203
246
260
272
300
309
280
238
202
174
148
116
82
55
24
-21
-61
-86
-107
-117
-116
-123
-138
-145
-149
-152
-149
-153
-169
-186
-201
-218
-228
-226
-222
-219
-216
-217
-232
-249
-240
-221
-215
-194
-148
-137
-180
-204
-199
-212
-214
-193
-203
-204
-167
-204
-261
-93
446
1387
2183
1739
246
-614
-366
-108
-195
-184
-109
-132
-119
-57
-37
-32
-17
-5
17
58
106
149
189
229
259
269
265
251
224
197
184
170
142
106
69
33
-6
-54
-110
-149
-164
-171
-177
-174
-169
-173
-176
-168
-163
-173
-179
-177
-189
-211
-219
-221
-232
-234
-225
-226
-244
-256
-254
-248
-234
-196
-156
-158
-191
-207
-209
-215
-203
-192
-208
-191
-171
-244
-270
-24
645
1810
2680
1975
260
-523
-216
-62
-200
-169
-117
-162
-139
-84
-75
-58
-24
7
47
90
126
169
217
253
278
301
317
310
282
250
230
218
197
158
107
43
-36
-108
-156
-188
-207
-208
-204
-208
-210
-206
-203
-208
-213
-213
-214
-227
-242
-240
-228
-232
-245
-251
-254
-264
-267
-253
-235
-218
-181
-140
-141
-180
-196
-187
-186
-176
-173
-198
-176
-134
-210
-270
-29
670
1818
2584
1767
42
-653
-260
-77
-208
-164
-98
-125
-86
-37
-39
-10
39
49
55
93
139
177
216
258
293
311
316
318
308
277
247
232
204
151
95
46
-8
-65
-117
-162
-190
-197
-203
-216
-226
-237
-252
-256
-247
-250
-265
-274
-278
-288
-299
-296
-281
-266
-267
-285
-296
-279
-255
-246
-229
-194
-187
-223
-244
-223
-197
-162
-132
-155
-156
-111
-177
-276
-98
457
1412
2321
1982
376
-667
-437
-138
-253
-259
-168
-197
-199
-150
-138
-113
-66
-21
40
86
111
154
166
145
214
353
402
361
331
327
327
330
312
244
149
78
32
-29
-106
-144
-147
-178
-214
-179
-148
-219
-269
-188
-97
-84
-94
-121
-169
-181
-197
-250
-225
-151
-222
-341
-267
-144
-186
-270
-268
-219
-143
-94
-122
-135
-100
-80
-63
-84
-150
-104
-17
-140
-293
-81
675
1932
2763
1900
107
-583
-177
-11
-143
-111
-114
-202
-174
-149
-194
-153
-49
-4
3
34
112
198
231
258
310
271
176
212
293
231
120
92
91
60
5
-59
-109
-162
-229
-247
-215
-199
-192
-172
-173
-181
-163
-147
-165
-217
-255
-216
-119
-77
-119
-165
-172
-183
-220
-242
-244
-267
-287
-257
-197
-170
-190
-220
-234
-243
-226
-168
-117
-78
-64
-159
-246
-71
512
1545
2344
1664
-77
-906
-508
-225
-333
-301
-226
-270
-253
-177
-158
-166
-146
-83
-10
18
16
38
77
107
149
206
247
271
300
316
304
296
300
276
224
177
135
83
17
-54
-119
-155
-159
-167
-186
-172
-130
-137
-191
-215
-215
-240
-265
-265
-268
-285
-290
-291
-305
-306
-278
-259
-254
-221
-167
-157
-183
-191
-187
-189
-172
-162
-180
-165
-161
-244
-252
26
848
2307
3218
2125
118
-570
-154
-36
-150
-51
18
33
197
410
531
573
550
459
311
150
42
2
15
68
122
143
153
160
142
103
59
16
-25
-74
-134
-185
-223
-262
-289
-288
-284
-292
-293
-289
-293
-297
-296
-306
-325
-342
-357
-376
-388
-393
-406
-425
-428
-418
-417
-414
-394
-363
-308
-215
-135
-128
-164
-185
-201
-217
-211
-222
-246
-207
-194
-284
-233
203
1077
2189
2514
1250
-333
-610
-152
-90
-196
-115
-78
-102
-55
-17
-16
11
50
76
104
137
180
227
265
299
327
324
300
292
294
286
279
271
225
141
65
11
-41
-96
-146
-197
-241
-254
-238
-230
-245
-257
-240
-201
-155
-120
-107
-107
-107
-116
-138
-150
-143
-130
-122
-122
-131
-153
-185
-211
-216
-209
-192
-165
-155
-186
-221
-222
-217
-210
-183
-184
-205
-166
-173
-290
-233
218
1095
2255
2683
1478
-147
-507
-119
-122
-274
-182
-104
-128
-118
-95
-80
-46
-14
17
64
100
124
163
217
265
305
339
354
349
341
332
311
281
242
185
107
23
-53
-117
-169
-216
-250
-269
-298
-344
-382
-409
-446
-488
-504
-482
-423
-347
-296
-276
-260
-241
-228
-216
-203
-202
-213
-214
-202
-189
-183
-185
-202
-224
-221
-198
-183
-157
-118
-111
-133
-133
-132
-143
-123
-111
-141
-112
-75
-165
-177
159
936
2133
2841
1853
49
-582
-176
-43
-170
-115
-80
-126
-89
-42
-36
-13
12
36
87
137
170
213
263
304
337
359
367
368
357
333
308
284
250
205
144
66
-6
-59
-113
-171
-205
-221
-236
-241
-235
-236
-240
-236
-235
-247
-258
-261
-269
-279
-282
-281
-288
-294
-292
-284
-275
-268
-263
-267
-275
-268
-241
-212
-179
-139
-125
-159
-189
-187
-197
-210
-200
-220
-239
-194
-228
-327
-166
416
1438
2513
2365
673
-673
-551
-147
-222
-251
-147
-163
-165
-100
-85
-77
-29
15
54
97
140
197
264
320
377
437
475
485
480
464
437
398
338
251
152
59
-24
-100
-165
-207
-231
-246
-260
-271
-271
-264
-258
-258
-262
-270
-275
-273
-276
-290
-307
-314
-313
-313
-312
-304
-297
-294
-293
-299
-303
-287
-270
-264
-236
-194
-196
-233
-244
-239
-244
-226
-208
-226
-196
-161
-263
-324
-25
810
2211
3209
2333
299
-616
-263
-103
-277
-241
-169
-205
-171
-106
-86
-42
27
78
132
196
250
299
358
413
443
450
458
460
443
417
388
344
287
219
135
42
-41
-113
-174
-210
-224
-235
-238
-231
-232
-250
-270
-283
-290
-291
-284
-281
-291
-300
-292
-275
-265
-256
-244
-235
-226
-213
-205
-209
-213
-212
-206
-198
-201
-213
-209
-184
-159
-132
-101
-99
-139
-165
-162
-173
-183
-165
-174
-186
-138
-157
-230
-37
531
1353
2081
1798
338
-739
-529
-83
-95
-114
-22
-35
-49
-2
17
30
57
72
95
130
152
173
211
255
298
334
354
356
357
365
370
367
351
310
241
158
75
-3
-69
-125
-170
-199
-208
-204
-197
-196
-198
-194
-189
-193
-201
-204
-205
-210
-221
-230
-233
-232
-234
-237
-236
-234
-236
-238
-239
-242
-247
-247
-253
-268
-281
-283
-263
-219
-167
-142
-152
-175
-179
-180
-196
-194
-182
-215
-221
-173
-229
-315
-111
564
1766
2842
2397
595
-490
-225
58
-93
-125
-52
-77
-84
-67
-89
-97
-85
-76
-37
26
78
126
179
231
279
321
349
363
368
367
356
322
267
205
138
69
0
-70
-134
-171
-184
-196
-202
-193
-183
-176
-169
-167
-174
-177
-181
-196
-203
-202
-213
-230
-231
-223
-224
-232
-235
-234
-232
-229
-225
-227
-237
-246
-242
-227
-201
-163
-130
-135
-176
-195
-177
-176
-186
-166
-170
-192
-159
-185
-287
-171
349
1275
2231
2091
553
-691
-561
-133
-189
-241
-137
-135
-149
-98
-80
-72
-28
13
50
96
142
191
249
304
353
400
440
462
459
443
429
406
360
300
233
158
83
11
-61
-123
-161
-179
-187
-197
-207
-210
-208
-209
-211
-217
-226
-229
-231
-246
-259
-256
-256
-265
-266
-264
-264
-259
-251
-243
-244
-262
-282
-280
-261
-229
-179
-123
-87
-93
-121
-129
-126
-136
-130
-118
-134
-125
-114
-210
-276
-42
677
1864
2642
1834
138
-570
-239
-91
-230
-205
-151
-180
-152
-100
-86
-54
-14
11
50
94
120
153
195
219
235
251
249
231
220
212
205
202
181
135
85
35
-20
-71
-119
-165
-185
-187
-195
-196
-176
-170
-184
-188
-178
-178
-189
-205
-223
-237
-241
-246
-260
-273
-275
-270
-258
-239
-220
-211
-198
-163
-122
-81
-31
-4
-32
-82
-113
-141
-165
-162
-170
-196
-174
-158
-236
-265
5
828
2113
2712
1619
-8
-451
-97
-52
-182
-145
-135
-174
-148
-127
-131
-105
-74
-48
-1
51
86
125
169
199
220
249
277
285
271
252
242
226
189
139
85
29
-28
-85
-134
-163
-176
-190
-208
-220
-216
-205
-204
-208
-202
-199
-206
-209
-210
-216
-219
-221
-231
-231
-216
-209
-214
-221
-236
-247
-237
-216
-192
-151
-110
-113
-146
-159
-155
-154
-144
-147
-164
-145
-139
-221
-260
-43
688
1928
2610
1641
33
-478
-163
-111
-229
-187
-171
-200
-150
-101
-87
-62
-36
-11
24
52
86
132
166
196
233
254
252
245
231
205
181
158
126
85
35
-18
-56
-85
-127
-167
-183
-194
-206
-204
-196
-194
-189
-185
-186
-183
-176
-175
-178
-177
-175
-171
-169
-171
-168
-167
-179
-189
-189
-193
-194
-164
-129
-135
-165
-175
-172
-168
-150
-142
-146
-115
-100
-165
-181
76
815
1880
2226
1114
-290
-562
-188
-126
-201
-137
-112
-120
-70
-49
-56
-22
21
44
73
108
134
164
200
226
244
260
264
247
224
204
180
157
132
84
26
-18
-63
-110
-135
-146
-157
-154
-138
-133
-137
-136
-132
-133
-139
-148
-156
-151
-132
-112
-99
-96
-105
-120
-140
-175
-214
-234
-234
-216
-170
-124
-124
-161
-176
-164
-158
-142
-120
-134
-138
-108
-156
-218
-63
441
1422
2403
2066
404
-671
-431
-115
-228
-248
-172
-207
-209
-159
-154
-142
-97
-64
-30
17
57
94
140
184
223
252
258
249
242
232
208
181
151
101
33
-28
-83
-147
-205
-237
-248
-251
-246
-236
-232
-230
-228
-238
-250
-238
-216
-221
-238
-232
-213
-196
-177
-163
-168
-170
-153
-138
-127
-86
-31
-21
-59
-92
-108
-136
-161
-165
-191
-220
-203
-227
-306
-229
235
1222
2282
2171
673
-524
-452
-119
-190
-238
-164
-182
-192
-143
-136
-134
-90
-50
-26
14
61
102
143
194
240
264
268
273
277
268
252
234
207
163
108
55
7
-45
-97
-139
-170
-185
-180
-171
-172
-171
-163
-161
-164
-162
-165
-178
-188
-195
-200
-201
-202
-211
-225
-232
-233
-233
-218
-178
-145
-153
-174
-167
-157
-162
-149
-136
-165
-168
-151
-228
-269
-19
614
1610
2259
1491
-49
-641
-358
-190
-137
-259
-360
592
1828
1350
-65
-421
-113
-133
-162
-28
-1
14
101
136
142
171
198
234
264
244
216
219
211
163
99
34
-37
-109
-173
-228
-272
-296
-303
-303
-300
-292
-280
-270
-265
-262
-258
-259
-267
-272
-270
-276
-295
-301
-275
-243
-230
-205
-137
