# session 17
-47
-53
-30
-16
-86
-212
-280
-287
-294
-300
-301
-315
-325
-318
-320
-339
-349
-344
-350
-370
-376
-380
-395
-388
-363
-360
-363
-360
-376
-380
-346
-320
-299
-251
-221
-221
-218
-230
-245
-221
-216
-235
-193
-181
-285
-309
27
1069
2663
3216
1588
-464
-874
-397
-347
-427
-303
-271
-296
-228
-178
-151
-66
18
89
212
361
487
586
636
620
569
512
426
314
214
132
50
-20
-69
-114
-144
-157
-181
-192
-157
-134
-158
-172
-161
-168
-193
-214
-229
-234
-230
-234
-246
-259
-275
-285
-279
-267
-251
-206
-154
-148
-175
-192
-206
-208
-186
-197
-211
-169
-192
-309
-262
262
1499
2904
2844
953
-674
-727
-346
-392
-421
-309
-303
-303
-231
-187
-157
-80
22
124
240
380
521
618
645
623
576
498
385
270
178
94
0
-80
-137
-194
-238
-244
-233
-231
-232
-234
-239
-241
-244
-256
-267
-273
-279
-284
-287
-296
-302
-295
-289
-301
-320
-328
-313
-277
-238
-201
-172
-186
-221
-221
-206
-220
-230
-211
-172
-150
-220
-324
-223
401
1746
3014
2581
579
-765
-636
-332
-400
-358
-251
-272
-254
-182
-152
-105
-24
59
169
301
426
540
621
650
637
588
505
407
313
225
139
58
-18
-91
-155
-196
-208
-210
-215
-214
-197
-184
-191
-210
-223
-234
-251
-260
-259
-271
-289
-292
-291
-303
-313
-320
-328
-322
-298
-268
-232
-204
-213
-237
-243
-259
-263
-224
-218
-245
-223
-239
-337
-290
202
1404
2838
2855
957
-750
-810
-373
-412
-462
-339
-313
-311
-246
-206
-164
-84
-9
81
210
341
453
548
603
603
561
490
409
318
215
128
79
25
-61
-143
-192
-210
-202
-190
-193
-197
-193
-200
-216
-224
-223
-222
-227
-238
-239
-235
-243
-252
-248
-249
-256
-262
-275
-275
-250
-252
-263
-203
-119
-116
-159
-175
-179
-169
-158
-180
-170
-131
-203
-308
-165
517
1942
3217
2582
375
-909
-623
-299
-405
-367
-255
-278
-269
-203
-167
-122
-49
29
129
250
374
484
569
613
600
532
441
345
247
158
85
17
-54
-121
-166
-192
-211
-214
-195
-183
-190
-196
-198
-204
-212
-229
-249
-260
-268
-275
-270
-272
-286
-288
-289
-304
-309
-294
-280
-248
-193
-165
-186
-216
-231
-227
-201
-196
-221
-200
-188
-294
-356
-49
931
2466
3219
1930
-142
-858
-475
-346
-449
-364
-301
-327
-280
-218
-197
-141
-41
55
155
282
420
533
595
607
580
514
422
329
239
144
61
-7
-75
-143
-194
-229
-252
-256
-239
-220
-216
-223
-228
-226
-226
-234
-244
-253
-260
-257
-254
-267
-283
-279
-265
-269
-288
-296
-281
-259
-243
-209
-154
-128
-152
-176
-179
-184
-176
-174
-199
-175
-137
-235
-334
-59
891
2356
3099
1927
-70
-836
-481
-308
-393
-324
-260
-279
-245
-204
-184
-112
-11
79
181
299
418
536
609
606
568
527
464
374
265
155
75
23
-43
-122
-176
-208
-235
-242
-223
-208
-206
-202
-202
-217
-229
-225
-225
-242
-264
-280
-292
-289
-266
-252
-271
-286
-264
-251
-278
-289
-261
-235
-204
-150
-124
-141
-152
-161
-184
-176
-152
-169
-175
-149
-198
-288
-162
580
2079
3203
2345
206
-869
-572
-328
-417
-350
-265
-304
-278
-191
-146
-112
-62
16
132
246
345
465
581
633
617
558
476
388
299
222
166
109
27
-61
-129
-171
-186
-187
-192
-189
-179
-190
-220
-235
-232
-239
-267
-288
-281
-269
-285
-306
-303
-291
-295
-300
-300
-314
-331
-310
-277
-279
-287
-261
-216
-186
-172
-178
-208
-222
-200
-206
-223
-163
-154
-297
-338
29
1105
2800
3532
1907
-385
-968
-467
-381
-470
-342
-313
-340
-244
-189
-204
-139
-26
49
130
268
417
527
613
670
644
549
447
340
240
180
124
24
-77
-137
-164
-169
-168
-183
-209
-223
-215
-208
-222
-230
-224
-238
-262
-264
-265
-282
-295
-303
-319
-329
-320
-303
-294
-300
-307
-282
-235
-217
-237
-254
-248
-226
-225
-260
-246
-176
-227
-350
-233
396
1769
3267
3053
834
-907
-829
-378
-439
-434
-298
-321
-338
-263
-218
-172
-89
-4
99
233
377
525
644
691
681
639
559
451
335
219
126
50
-46
-141
-196
-240
-276
-267
-242
-247
-252
-239
-237
-244
-238
-241
-266
-283
-278
-271
-283
-308
-324
-318
-310
-317
-316
-305
-307
-295
-249
-218
-223
-230
-248
-267
-227
-197
-240
-232
-201
-314
-365
17
1070
2703
3581
2212
-139
-972
-507
-353
-485
-385
-316
-353
-296
-232
-224
-166
-63
23
130
281
433
552
636
669
638
563
474
380
285
189
95
12
-59
-129
-198
-247
-263
-254
-243
-233
-226
-229
-231
-223
-224
-237
-252
-268
-285
-287
-276
-271
-277
-291
-306
-303
-287
-296
-322
-315
-276
-243
-210
-170
-159
-183
-198
-200
-199
-184
-189
-222
-187
-146
-262
-351
-63
826
2329
3398
2459
220
-886
-558
-314
-425
-367
-283
-311
-276
-219
-200
-137
-42
32
121
236
365
509
624
661
642
596
517
421
333
229
112
35
-6
-71
-151
-204
-232
-244
-242
-234
-230
-230
-229
-221
-216
-229
-240
-239
-243
-250
-253
-260
-269
-275
-286
-287
-266
-248
-248
-245
-240
-249
-264
-263
-251
-231
-202
-169
-134
-110
-113
-130
-146
-158
-149
-138
-164
-152
-113
-209
-308
-35
833
2219
3153
2278
231
-799
-502
-268
-382
-339
-256
-284
-248
-167
-144
-110
-30
53
135
249
393
528
614
642
633
606
548
447
343
250
152
71
20
-46
-132
-186
-211
-231
-238
-230
-228
-236
-234
-217
-210
-225
-240
-249
-264
-276
-275
-273
-275
-276
-286
-299
-291
-270
-263
-268
-271
-273
-275
-266
-250
-250
-273
-285
-266
-237
-206
-159
-123
-137
-170
-187
-185
-150
-128
-170
-176
-126
-199
-310
-96
679
2020
3103
2463
421
-800
-573
-275
-368
-340
-248
-274
-250
-172
-145
-116
-44
47
153
264
371
491
604
659
657
640
598
509
411
341
268
179
106
40
-43
-115
-149
-167
-177
-172
-166
-181
-202
-199
-190
-202
-219
-234
-259
-278
-264
-253
-277
-294
-282
-277
-288
-293
-297
-303
-297
-287
-291
-301
-296
-273
-239
-197
-166
-171
-184
-188
-207
-220
-198
-197
-205
-172
-206
-320
-262
244
1485
3014
3065
1067
-735
-794
-351
-400
-432
-306
-311
-315
-238
-210
-189
-108
-21
58
155
270
399
520
590
603
576
517
428
319
217
145
86
10
-73
-131
-160
-182
-199
-204
-199
-193
-192
-193
-200
-218
-229
-214
-199
-210
-233
-244
-246
-248
-257
-266
-266
-263
-260
-253
-254
-268
-278
-267
-233
-179
-132
-126
-151
-161
-159
-168
-165
-165
-191
-167
-130
-236
-340
-85
782
2246
3259
2352
224
-826
-517
-283
-390
-338
-255
-278
-249
-200
-185
-125
-36
40
138
260
373
487
590
646
639
590
528
455
351
234
151
89
11
-66
-124
-181
-215
-205
-192
-202
-210
-209
-207
-204
-203
-212
-227
-243
-250
-246
-251
-273
-279
-260
-246
-253
-262
-259
-252
-253
-255
-242
-229
-239
-251
-246
-246
-257
-247
-210
-171
-141
-123
-129
-144
-161
-169
-156
-157
-181
-156
-140
-246
-298
8
892
2243
2924
1776
-135
-822
-449
-297
-390
-318
-259
-284
-248
-191
-152
-97
-46
16
124
243
344
453
555
601
585
541
484
410
327
249
174
106
45
-22
-90
-137
-162
-171
-172
-176
-177
-168
-177
-206
-210
-192
-204
-233
-229
-213
-231
-260
-261
-247
-236
-234
-248
-267
-263
-249
-252
-260
-246
-218
-185
-150
-137
-149
-163
-171
-166
-160
-178
-166
-127
-186
-274
-141
489
1854
3139
2579
391
-940
-659
-301
-397
-356
-239
-270
-260
-183
-157
-133
-70
5
102
213
321
440
553
608
603
559
490
407
325
240
154
68
-13
-69
-108
-161
-205
-201
-179
-176
-183
-189
-197
-201
-204
-213
-227
-244
-255
-260
-270
-275
-259
-250
-266
-279
-277
-280
-287
-292
-295
-285
-252
-214
-189
-182
-183
-180
-180
-194
-195
-193
-211
-195
-169
-255
-351
-154
644
2090
3121
2243
157
-868
-553
-313
-419
-372
-291
-322
-292
-224
-208
-168
-85
-16
56
168
306
437
539
592
594
559
494
412
323
224
126
50
-17
-93
-163
-216
-256
-265
-235
-214
-232
-240
-213
-204
-229
-240
-226
-235
-267
-284
-281
-275
-269
-269
-283
-291
-286
-287
-285
-264
-249
-237
-188
-141
-153
-184
-186
-187
-187
-176
-193
-190
-133
-165
-281
-213
327
1629
3140
3043
953
-765
-734
-307
-381
-396
-261
-279
-303
-228
-178
-140
-65
12
87
184
300
429
554
633
639
605
564
501
404
307
221
134
54
-14
-83
-146
-186
-207
-211
-198
-186
-189
-194
-194
-198
-201
-202
-219
-239
-238
-234
-245
-248
-249
-261
-263
-251
-251
-264
-275
-283
-280
-264
-239
-200
-160
-147
-154
-162
-178
-194
-181
-175
-205
-193
-165
-251
-337
-100
785
2305
3252
2178
34
-886
-530
-333
-431
-356
-293
-336
-297
-239
-233
-184
-95
-22
63
177
298
414
509
569
591
569
505
408
298
206
134
48
-45
-112
-161
-208
-245
-273
-287
-269
-240
-236
-250
-254
-251
-257
-270
-278
-277
-280
-291
-298
-294
-290
-288
-290
-300
-305
-303
-311
-309
-285
-274
-262
-198
-137
-153
-184
-176
-173
-184
-171
-179
-196
-147
-133
-250
-276
128
1216
2667
3039
1478
-390
-770
-331
-264
-349
-256
-218
-240
-185
-133
-111
-51
17
69
164
316
457
559
641
687
680
642
590
503
389
289
219
149
65
-6
-60
-114
-151
-154
-150
-154
-149
-136
-134
-144
-155
-164
-169
-180
-199
-207
-196
-196
-216
-222
-209
-202
-210
-217
-217
-216
-215
-213
-206
-202
-207
-205
-187
-174
-179
-180
-175
-180
-188
-189
-188
-185
-183
-198
-227
-245
-233
-194
-145
-102
-75
-76
-103
-123
-128
-126
-123
-143
-158
-118
-133
-252
-220
260
1389
2799
3015
1319
-486
-743
-327
-324
-393
-291
-271
-272
-207
-184
-165
-86
-18
35
122
227
333
455
562
606
607
600
564
487
407
335
253
175
119
58
-25
-101
-147
-169
-185
-188
-175
-169
-180
-182
-179
-195
-208
-204
-217
-249
-267
-264
-254
-243
-246
-259
-268
-268
-259
-248
-247
-252
-248
-244
-247
-236
-213
-209
-216
-215
-222
-231
-212
-182
-160
-130
-100
-100
-123
-155
-191
-185
-138
-144
-171
-126
-139
-260
-218
262
1423
2911
3085
1198
-688
-850
-368
-361
-393
-253
-242
-265
-199
-161
-142
-78
-13
44
135
258
382
495
592
642
632
593
534
435
329
253
176
87
17
-41
-105
-154
-185
-207
-208
-186
-176
-186
-187
-174
-168
-181
-197
-200
-200
-213
-227
-226
-228
-243
-250
-245
-248
-254
-250
-241
-231
-223
-222
-218
-210
-215
-215
-199
-195
-203
-193
-184
-199
-214
-208
-184
-144
-101
-74
-72
-95
-115
-116
-123
-133
-136
-149
-132
-96
-172
-273
-83
643
1957
3070
2512
518
-738
-552
-252
-353
-342
-236
-254
-262
-201
-146
-92
-41
7
88
195
303
418
547
653
696
682
643
574
470
368
289
212
127
43
-33
-96
-151
-203
-230
-224
-226
-241
-227
-198
-198
-204
-196
-200
-218
-224
-225
-235
-243
-242
-237
-240
-250
-252
-252
-263
-261
-241
-233
-228
-208
-198
-207
-208
-199
-198
-199
-197
-190
-187
-214
-253
-226
-142
-93
-86
-70
-66
-101
-129
-134
-141
-136
-128
-149
-151
-142
-206
-228
79
976
2334
2995
1833
-83
-780
-415
-270
-370
-291
-220
-249
-221
-169
-140
-81
-12
42
120
224
330
447
571
657
680
666
620
525
416
339
268
173
81
6
-66
-132
-187
-224
-235
-231
-226
-219
-226
-244
-234
-208
-213
-233
-229
-224
-236
-245
-247
-252
-254
-250
-250
-258
-272
-285
-275
-245
-230
-233
-229
-220
-216
-208
-198
-199
-207
-223
-240
-232
-195
-149
-97
-71
-96
-125
-120
-121
-143
-142
-134
-161
-160
-129
-194
-268
-69
655
2005
3108
2409
312
-872
-586
-271
-368
-342
-248
-264
-243
-189
-167
-116
-47
5
79
178
283
416
550
631
667
678
647
582
515
431
317
222
160
79
-19
-79
-116
-171
-214
-219
-208
-199
-193
-191
-191
-196
-208
-214
-213
-224
-243
-251
-255
-261
-264
-267
-270
-267
-267
-269
-265
-261
-261
-257
-253
-250
-249
-254
-263
-250
-210
-167
-131
-106
-109
-141
-171
-185
-182
-170
-190
-203
-147
-151
-278
-276
151
1279
2835
3213
1442
-586
-904
-399
-358
-433
-299
-263
-293
-232
-179
-167
-123
-52
26
113
209
326
460
576
646
669
648
574
467
370
287
188
88
15
-53
-129
-187
-217
-234
-237
-228
-223
-224
-222
-215
-214
-218
-216
-205
-203
-216
-227
-230
-238
-247
-246
-242
-248
-258
-256
-237
-230
-251
-256
-224
-195
-190
-193
-196
-198
-196
-205
-213
-185
-136
-104
-84
-71
-88
-115
-120
-118
-117
-107
-124
-141
-106
-132
-239
-154
402
1588
2902
2860
1051
-572
-659
-265
-295
-336
-229
-218
-223
-169
-140
-110
-51
-1
64
163
258
360
502
645
721
733
714
657
557
452
361
265
160
75
2
-86
-171
-212
-217
-222
-234
-235
-228
-225
-227
-229
-228
-230
-240
-246
-239
-243
-269
-279
-258
-248
-265
-274
-269
-266
-263
-262
-266
-263
-249
-239
-240
-240
-233
-232
-241
-236
-220
-232
-263
-252
-194
-138
-109
-106
-122
-147
-162
-175
-190
-191
-186
-194
-165
-140
-229
-291
-22
802
2121
2944
2011
66
-837
-526
-312
-419
-372
-270
-269
-246
-193
-167
-138
-87
-14
75
165
262
386
513
608
659
667
633
567
487
398
302
210
125
45
-33
-103
-160
-202
-221
-224
-229
-231
-211
-181
-172
-178
-174
-163
-159
-161
-163
-167
-165
-158
-161
-166
-156
-149
-159
-158
-130
-107
-102
-99
-91
-80
-66
-53
-42
-25
-5
-1
-8
-8
-2
-7
-5
41
120
171
176
160
142
128
124
125
124
129
142
157
156
117
41
