# session 7
139
207
-45
88
999
1765
1728
1472
1449
1408
1281
1210
1133
1004
894
800
704
640
598
554
523
523
519
459
384
360
328
264
272
271
132
76
399
1255
2423
2714
1311
-338
-601
-172
-132
-200
-123
-131
-152
-85
-45
-16
54
106
140
186
199
155
85
22
-33
-78
-89
-74
-89
-142
-170
-172
-200
-237
-257
-292
-343
-379
-413
-447
-461
-467
-473
-459
-447
-462
-480
-483
-486
-490
-468
-445
-488
-526
-341
393
1699
2454
1406
-462
-1128
-693
-460
-509
-442
-402
-417
-337
-250
-215
-140
-19
82
163
232
257
214
135
57
-14
-70
-109
-158
-219
-256
-267
-270
-268
-269
-282
-297
-309
-323
-335
-342
-349
-362
-374
-367
-364
-398
-419
-407
-417
-421
-392
-427
-468
-230
537
1696
2234
1177
-504
-1020
-556
-336
-392
-308
-233
-228
-157
-68
-7
76
167
246
324
371
361
312
243
165
109
95
102
101
90
83
79
71
56
38
23
8
-15
-39
-55
-70
-94
-111
-103
-76
-80
-121
-135
-128
-129
-90
-81
-236
-360
-9
1164
2786
3298
1783
-98
-537
-214
-239
-324
-215
-193
-210
-133
-76
-47
25
105
174
243
285
282
247
190
135
106
93
69
39
15
-4
-33
-69
-93
-116
-156
-196
-218
-242
-275
-287
-274
-264
-249
-222
-225
-258
-256
-247
-282
-268
-227
-346
-512
-355
411
1773
2708
1864
-13
-844
-529
-361
-459
-391
-322
-341
-291
-219
-177
-102
-11
58
126
173
162
117
71
8
-57
-78
-69
-88
-129
-152
-155
-154
-161
-186
-215
-222
-213
-219
-239
-241
-227
-226
-232
-215
-179
-178
-225
-254
-246
-256
-258
-237
-320
-454
-355
261
1536
2685
2198
331
-781
-556
-296
-397
-368
-272
-277
-230
-133
-73
0
98
172
219
248
255
223
151
83
62
74
78
59
34
10
-17
-44
-73
-109
-138
-154
-180
-225
-256
-254
-244
-247
-267
-286
-271
-230
-217
-234
-238
-255
-259
-199
-212
-360
-365
76
1175
2560
2715
1006
-647
-735
-305
-319
-344
-241
-255
-228
-100
-49
-26
65
154
214
270
289
252
185
111
61
50
51
42
30
18
1
-18
-44
-81
-111
-131
-155
-186
-220
-247
-247
-239
-259
-279
-252
-213
-232
-265
-244
-243
-279
-244
-236
-375
-410
-50
868
2175
2626
1259
-457
-745
-293
-254
-332
-230
-197
-198
-125
-76
-36
46
122
192
273
298
240
173
136
101
64
43
29
1
-30
-41
-38
-46
-69
-95
-117
-135
-156
-189
-226
-243
-242
-254
-274
-259
-215
-220
-272
-284
-269
-282
-261
-233
-322
-419
-228
561
1896
2623
1596
-128
-708
-387
-309
-403
-327
-278
-290
-230
-167
-132
-62
17
75
133
175
165
115
58
15
-4
1
9
-7
-44
-65
-65
-74
-106
-138
-162
-186
-205
-216
-228
-240
-245
-243
-230
-201
-157
-131
-148
-166
-152
-158
-167
-119
-152
-334
-382
76
1269
2671
2731
1029
-498
-576
-259
-339
-373
-269
-272
-259
-165
-104
-48
48
128
186
239
260
227
158
90
63
66
69
65
51
16
-22
-51
-81
-109
-133
-167
-199
-213
-230
-258
-271
-265
-262
-267
-256
-229
-231
-263
-268
-263
-280
-247
-200
-281
-360
-127
617
1768
2348
1301
-419
-946
-474
-278
-345
-247
-187
-223
-173
-88
-36
38
125
197
259
293
276
223
157
95
50
28
23
13
-6
-21
-31
-46
-61
-76
-100
-127
-142
-168
-206
-217
-201
-204
-218
-208
-189
-206
-253
-269
-267
-294
-271
-211
-294
-409
-231
419
1643
2735
2215
357
-696
-448
-237
-373
-337
-252
-284
-258
-178
-125
-53
37
110
180
229
227
180
110
45
4
-19
-38
-56
-76
-89
-88
-86
-94
-107
-121
-134
-150
-175
-206
-225
-227
-232
-231
-193
-138
-130
-168
-177
-169
-191
-179
-139
-227
-379
-299
310
1568
2650
2135
378
-641
-471
-277
-367
-332
-257
-264
-220
-143
-99
-30
61
130
194
254
273
239
173
99
46
21
4
-17
-43
-77
-95
-88
-97
-136
-159
-161
-176
-195
-202
-216
-231
-228
-225
-233
-221
-183
-180
-229
-258
-260
-280
-258
-216
-308
-401
-166
496
1483
2112
1377
-195
-874
-513
-277
-334
-264
-195
-209
-145
-62
-37
19
123
207
258
285
282
248
184
106
55
41
40
37
35
22
-13
-47
-69
-94
-119
-127
-134
-155
-186
-214
-221
-207
-205
-221
-220
-196
-187
-219
-248
-257
-272
-253
-212
-289
-400
-282
265
1483
2804
2537
580
-776
-595
-264
-370
-356
-244
-249
-216
-127
-75
-11
86
176
257
316
332
314
266
191
119
73
46
19
-16
-50
-63
-61
-72
-91
-104
-128
-160
-171
-185
-232
-269
-267
-264
-279
-285
-271
-259
-277
-303
-293
-284
-298
-263
-243
-348
-401
-104
845
2337
2980
1580
-391
-877
-428
-348
-431
-326
-287
-294
-212
-145
-99
-3
97
179
258
305
293
237
154
69
11
-16
-32
-58
-91
-112
-120
-131
-144
-154
-162
-174
-187
-197
-215
-242
-254
-249
-254
-269
-264
-236
-221
-244
-258
-245
-263
-269
-215
-258
-370
-227
305
1281
2402
2354
688
-723
-648
-248
-332
-372
-251
-244
-235
-146
-83
-14
92
180
253
324
353
329
279
220
164
120
88
54
8
-38
-70
-88
-100
-110
-125
-151
-179
-193
-198
-210
-233
-257
-267
-267
-269
-266
-237
-192
-174
-202
-224
-219
-237
-246
-204
-231
-357
-356
55
1148
2497
2593
981
-496
-595
-283
-327
-350
-255
-259
-257
-182
-128
-78
2
91
180
257
289
280
248
191
122
77
67
53
9
-35
-49
-52
-74
-106
-125
-138
-162
-189
-204
-214
-215
-210
-224
-251
-256
-240
-235
-233
-204
-167
-169
-207
-215
-201
-211
-200
-178
-257
-312
-83
588
1730
2552
1790
-22
-894
-557
-279
-322
-269
-208
-215
-160
-97
-65
23
149
225
262
306
349
328
234
146
110
92
71
58
37
-1
-32
-47
-65
-92
-115
-134
-151
-170
-196
-225
-247
-265
-282
-289
-280
-275
-285
-282
-243
-224
-266
-291
-261
-270
-288
-246
-270
-328
-160
341
1303
2390
2210
463
-850
-662
-240
-294
-290
-173
-179
-164
-84
-35
23
103
167
238
304
313
269
204
129
66
36
29
15
-18
-53
-73
-77
-84
-101
-119
-134
-150
-167
-186
-207
-227
-250
-275
-279
-269
-274
-275
-233
-183
-187
-224
-225
-209
-228
-219
-167
-217
-348
-286
303
1694
3146
2888
866
-616
-570
-296
-414
-419
-313
-319
-296
-215
-168
-110
-21
55
126
200
235
215
157
82
26
9
-8
-54
-95
-105
-109
-123
-123
-107
-102
-114
-128
-140
-156
-177
-189
-187
-193
-220
-246
-245
-233
-234
-236
-212
-179
-186
-229
-249
-250
-255
-215
-187
-273
-315
-46
684
1794
2380
1417
-237
-817
-433
-249
-309
-234
-174
-183
-127
-53
-5
65
154
248
333
378
396
398
344
255
209
199
168
123
82
31
-11
-25
-45
-72
-79
-94
-137
-160
-165
-191
-224
-245
-266
-270
-255
-252
-259
-263
-271
-271
-271
-302
-327
-329
-338
-317
-293
-355
-348
-3
842
2047
2543
1306
-494
-953
-444
-269
-341
-264
-232
-233
-129
-47
-12
77
183
268
351
406
406
365
292
217
173
133
80
36
-5
-37
-37
-43
-90
-125
-142
-171
-186
-220
-330
-384
-284
-209
-260
-274
-218
-242
-319
-306
-233
-227
-294
-333
-305
-289
-305
-291
-289
-330
-252
223
1287
2350
2047
349
-843
-669
-293
-333
-323
-212
-208
-185
-96
-35
28
118
216
342
470
523
515
491
436
339
243
167
94
20
-45
-82
-85
-94
-130
-142
-124
-135
-173
-215
-262
-263
-219
-248
-327
-300
-204
-189
-231
-234
-228
-256
-273
-269
-305
-324
-255
-239
-325
-261
198
1205
2363
2315
652
-784
-740
-290
-303
-337
-225
-209
-203
-121
-49
8
74
170
311
425
446
414
364
281
178
91
33
-3
-32
-67
-90
-84
-75
-86
-101
-106
-117
-136
-151
-159
-179
-207
-219
-221
-233
-249
-247
-230
-222
-252
-294
-292
-290
-324
-301
-271
-380
-431
-103
767
2120
2890
1787
-180
-862
-420
-266
-392
-323
-264
-293
-236
-153
-97
-15
71
137
213
276
276
235
191
136
70
27
4
-29
-73
-109
-132
-145
-158
-179
-202
-221
-239
-254
-268
-277
-290
-312
-324
-308
-293
-295
-273
-218
-197
-235
-252
-221
-233
-264
-207
-199
-361
-420
-16
1122
2702
3176
1590
-307
-674
-294
-303
-381
-278
-262
-279
-215
-158
-93
22
131
221
310
371
384
351
290
228
170
113
64
22
-24
-61
-85
-111
-138
-149
-156
-173
-186
-185
-191
-206
-209
-212
-243
-279
-280
-262
-253
-233
-186
-163
-200
-239
-234
-244
-266
-234
-229
-311
-287
71
899
1900
1987
699
-588
-701
-344
-305
-319
-227
-207
-192
-112
-59
-18
61
147
233
331
398
412
387
332
251
172
114
65
17
-27
-67
-100
-114
-110
-113
-129
-146
-165
-181
-188
-195
-209
-222
-226
-235
-253
-260
-238
-210
-193
-171
-165
-212
-259
-242
-225
-233
-202
-217
-326
-316
46
1035
2505
3011
1521
-344
-728
-331
-308
-388
-295
-267
-268
-208
-168
-114
-12
60
118
216
289
284
243
206
156
101
77
75
46
-8
-41
-47
-55
-80
-109
-131
-143
-161
-193
-224
-242
-256
-265
-264
-267
-277
-283
-294
-300
-276
-245
-236
-245
-258
-258
-259
-270
-239
-200
-264
-329
-142
630
2138
3220
2222
20
-923
-517
-299
-405
-323
-250
-279
-221
-147
-122
-42
80
172
251
322
342
306
246
183
112
53
22
4
-21
-47
-72
-94
-106
-119
-139
-150
-166
-201
-219
-203
-200
-226
-253
-271
-285
-290
-287
-278
-255
-217
-189
-204
-234
-220
-203
-224
-196
-164
-269
-327
-26
802
2092
2823
1761
-144
-838
-450
-310
-421
-342
-275
-286
-218
-142
-100
-19
80
161
248
323
354
341
292
224
163
117
73
24
-27
-77
-121
-148
-156
-161
-174
-188
-200
-219
-241
-250
-248
-251
-258
-271
-295
-311
-303
-273
-232
-198
-185
-199
-232
-240
-224
-228
-206
-156
-227
-355
-209
516
1897
3053
2470
487
-699
-510
-274
-389
-347
-244
-275
-255
-169
-129
-73
40
134
205
280
322
313
290
255
193
143
128
110
71
22
-35
-86
-104
-109
-135
-166
-187
-207
-226
-246
-273
-297
-304
-313
-322
-315
-309
-323
-326
-296
-268
-275
-297
-294
-285
-304
-293
-230
-261
-360
-280
186
1337
2797
2843
913
-783
-783
-338
-372
-373
-239
-241
-221
-115
-74
-35
78
185
273
375
442
439
410
364
279
193
149
112
60
18
-17
-59
-85
-86
-99
-132
-157
-173
-193
-214
-238
-257
-268
-281
-290
-281
-271
-282
-292
-276
-253
-266
-293
-286
-282
-310
-279
-239
-323
-369
-98
773
2276
3125
1859
-289
-985
-517
-371
-474
-376
-316
-332
-266
-204
-162
-65
39
128
236
326
349
319
256
174
100
46
9
-25
-56
-85
-122
-155
-148
-122
-136
-182
-202
-199
-211
-228
-239
-261
-282
-276
-265
-269
-258
-219
-193
-210
-247
-249
-229
-244
-231
-180
-258
-389
-234
450
1785
3073
2715
747
-615
-514
-256
-379
-371
-272
-293
-273
-187
-141
-95
-14
79
183
277
331
336
298
235
176
127
78
32
-17
-75
-118
-125
-128
-151
-167
-165
-171
-189
-193
-189
-198
-217
-232
-243
-251
-250
-231
-193
-158
-144
-162
-199
-210
-198
-209
-205
-171
-218
-311
-203
374
1502
2434
1904
225
-758
-568
-320
-373
-328
-236
-232
-197
-135
-90
-11
69
117
190
284
335
344
329
276
200
141
98
49
-3
-52
-98
-135
-152
-155
-154
-156
-172
-190
-198
-206
-221
-231
-239
-247
-238
-217
-209
-203
-180
-163
-183
-223
-230
-220
-250
-256
-203
-236
-319
-180
352
1339
2305
2025
414
-756
-638
-303
-342
-330
-228
-232
-225
-155
-93
-8
90
160
239
339
402
405
370
313
260
219
168
100
44
6
-34
-73
-93
-103
-113
-132
-158
-182
-199
-211
-224
-241
-256
-270
-293
-306
-294
-276
-261
-231
-219
-262
-302
-285
-279
-297
-253
-236
-344
-365
-31
885
2323
3004
1675
-337
-899
-441
-340
-442
-337
-287
-291
-178
-91
-87
-24
106
215
303
396
445
403
323
266
203
130
93
59
-16
-71
-78
-97
-126
-119
-121
-157
-177
-180
-205
-234
-258
-284
-294
-292
-294
-284
-271
-282
-279
-249
-265
-314
-298
-258
-285
-300
-269
-293
-299
19
957
2202
2443
987
-636
-868
-407
-297
-311
-206
-183
-187
-108
-31
16
87
211
354
467
576
658
627
541
483
386
250
166
85
-38
-120
-153
-193
-202
-192
-222
-254
-246
-235
-239
-262
-290
-293
-293
-310
-308
-304
-340
-348
-299
-298
-365
-378
-320
-315
-364
-354
-307
-327
-293
160
1118
1817
1257
-184
-975
-689
-286
-231
-207
-131
-105
-76
-19
54
145
224
300
419
548
631
668
647
555
449
365
270
168
92
31
-29
-67
-81
-84
-84
-87
-95
-106
-117
-132
-142
-143
-152
-176
-179
-164
-180
-217
-219
-198
-206
-245
-268
-249
-245
-275
-247
-212
-306
-351
-9
893
2144
2633
1401
-352
-805
-355
-238
-336
-256
-214
-238
-179
-114
-71
14
115
205
303
384
415
394
333
249
169
102
43
-10
-55
-96
-133
-160
-174
-183
-190
-199
-219
-242
-255
-268
-288
-306
-317
-322
-323
-332
-347
-348
-337
-335
-325
-290
-258
-262
-300
-324
-303
-302
-332
-286
-262
-376
-342
98
962
2122
2560
1268
-499
-864
-363
-273
-371
-270
-227
-242
-165
-90
-40
51
153
250
353
435
467
450
400
342
285
223
169
123
67
1
-48
-73
-87
-98
-107
-122
-141
-155
-166
-180
-194
-201
-204
-204
-209
-218
-225
-224
-224
-226
-217
-200
-185
-159
-112
-87
-115
-153
-145
-117
-131
-130
-75
-96
-179
-76
400
1389
2465
2291
637
-632
-506
-120
-161
-154
-38
-51
-45
45
80
