# session 11
-88
-49
-121
-225
-129
123
224
99
-83
-234
-381
-561
-737
-836
-877
-917
-907
-785
-651
-650
-703
-684
-700
-794
-806
-765
-791
-823
-868
-961
-940
-804
-662
-136
1053
1956
1333
-334
-1355
-1219
-788
-592
-528
-541
-579
-537
-466
-425
-351
-172
58
220
420
735
851
792
857
605
139
293
66
-712
1219
5027
4636
455
-1342
-485
-341
-650
-456
-366
-523
-802
-638
791
2288
2318
1967
2066
1227
-674
-1817
-1713
-1227
-284
1422
2459
1250
-962
-1851
-1565
-1423
-1453
-1472
-1592
-1481
-1316
-1432
-1119
-623
-905
-106
3319
6211
6241
5588
5113
3155
452
-859
-953
-1004
-1096
-1000
-844
-730
-726
-824
-799
-662
-738
-975
-1069
-1136
-1373
-1560
-1542
-1527
-1582
-1493
-1304
-1322
-1451
-1347
-833
483
2308
2592
502
-1445
-1514
-1040
-860
-513
-238
112
1250
2466
2940
3060
2475
733
-666
-595
-127
-94
-123
-137
-233
-178
-51
-66
-51
-46
-362
-759
-778
-578
-535
-548
-436
-408
-590
-668
-512
-465
-676
-905
-1014
-978
-737
-537
-731
-1079
-1006
-267
1058
2191
1846
141
-1106
-829
109
295
-173
455
2520
3619
2429
849
570
847
697
452
502
526
340
180
111
1
-200
-458
-595
-472
-336
-379
-351
-169
-124
-214
-197
-123
-159
-286
-407
-448
-458
-546
-628
-631
-597
-389
-90
27
490
1819
3223
3808
3247
1331
-793
-1284
-569
-290
-458
-436
-360
-358
-327
-329
-281
-104
-45
-120
17
276
239
33
9
14
-160
-330
-379
-459
-700
-1037
-1228
-1134
-978
-954
-929
-859
-857
-830
-710
-581
-388
-261
-365
-197
134
-371
-575
1480
3611
2817
1298
1750
2029
366
-1060
-911
-581
-744
-746
-553
-598
-837
-981
-983
-1018
-1132
-1072
-773
-516
-372
-154
72
116
76
111
149
129
89
-29
-232
-354
-407
-443
-241
136
433
1014
2013
2792
3254
3284
2056
131
-969
-1113
-692
-423
-1201
-1435
293
1793
2253
3024
2543
15
-1361
-681
-273
-459
-343
-290
-603
-904
-974
-877
-862
-1034
-1134
-1046
-899
-701
-497
-453
-497
-471
-463
-492
-419
-354
-356
-135
249
641
1615
2951
2844
1025
-274
-130
79
-273
-542
-533
-504
-517
-570
-694
-822
-801
-538
198
1619
2638
1546
-814
-1841
-1348
-981
-977
-804
-675
-701
-587
-350
-232
-301
-409
-360
-228
-130
190
642
728
885
1641
2327
2873
3181
1450
-833
1276
5765
5310
780
-1318
-671
-443
-584
-440
-600
-860
-779
-667
-675
-685
-753
-884
-976
-920
-307
1238
2692
2134
-178
-1763
-1784
-1542
-1535
-1350
-1150
-1215
-1331
-1269
-1169
-1191
-1063
-802
-992
-1204
-679
-510
-1014
43
2449
2855
1163
203
234
-39
-330
-234
-251
-396
-305
-174
-272
-436
-507
-570
-715
-883
-943
-830
-653
-651
-913
-1120
-875
2
1585
3062
2704
558
-1008
-990
-736
-944
-995
-769
-705
-501
513
1934
2857
3026
2144
330
-845
-598
-202
-345
-388
-223
-214
-316
-367
-330
-265
-293
-320
-140
112
160
257
1133
2565
2668
719
-574
923
2732
1693
-902
-1775
-1094
-1411
-1906
367
4108
6059
6058
4145
127
-2952
-2781
-1703
-2103
-2580
-1215
441
309
-167
218
296
512
1365
1016
-290
-469
-143
-527
-850
-773
-865
-1010
-1000
-1099
-1315
-1405
-1386
-1424
-1520
-1492
-1199
-798
-612
-681
-721
-632
-654
-836
-961
-1054
-1137
-1040
-974
-908
-135
1139
2191
3166
3091
1108
454
3518
6591
6172
2992
-1099
-2495
1425
5331
3088
-1393
-2242
-1194
-1052
-960
-621
-666
-695
-666
-1002
-1278
-1120
-991
-1105
-1104
-956
-1006
-1240
-1363
-1341
-1277
-1249
-1301
-1177
-929
-1101
-1070
-301
-530
-1159
1497
5229
4401
1337
1000
1990
2381
2567
1454
-643
-1266
-818
-986
-1204
-1006
-1034
-1162
-1067
-1004
-950
-793
-809
-974
-969
-873
-881
-878
-808
-806
-842
-714
-383
-18
217
269
155
-26
-141
-260
-482
-536
-314
-147
421
2135
3636
3102
1647
868
151
-793
-1383
-1318
464
3537
4611
2742
496
-723
-1213
-1187
-898
-646
-532
-378
-19
101
-226
-338
-109
-154
-417
-407
-193
-79
-123
-274
-418
-397
-325
-481
-605
-357
-315
-538
-130
-5
-912
-58
2682
2435
-260
339
3124
2899
691
-31
217
30
-333
-587
-601
-62
943
1893
1821
244
-1382
-1558
-1076
-1018
-1047
-964
-1061
-1160
-1080
-979
-864
-694
-544
-407
-282
-207
-161
-215
-345
-345
-314
-284
132
915
2165
3706
3109
361
929
5025
5030
372
-1855
-783
-386
-900
-1063
-1117
-1139
-1033
-1056
-1186
-1237
-1207
-854
488
2567
3275
1450
-787
-1355
-1108
-1253
-1479
-1467
-1439
-1447
-1491
-1608
-1626
-1466
-1349
-1244
-968
-962
-1153
371
4413
7251
4786
-354
-1878
814
3094
2587
477
-1299
-1695
-1405
-1286
-1055
-1079
-1823
-2141
-1632
-1439
-1619
-1605
-1701
-1911
-1860
-1746
-1668
-1116
322
1873
1703
-360
-1937
-1831
-1387
-1402
-1432
-1382
-1323
-1241
-1259
-1191
-985
-955
-645
503
2096
3524
3193
13
-2096
902
5370
6537
5765
5519
5946
6007
3634
-602
-2764
-2113
-1566
-2005
-2000
-724
1143
2187
2049
1756
1932
1856
549
-1405
-2335
-2035
-1236
136
983
-513
-2741
-3264
-3231
-2879
294
4900
6470
5239
5097
6128
4502
14
-2325
-292
2348
1955
-529
-1325
712
1839
-185
-2299
-2381
-2098
-2336
-2279
-1943
-1882
-1963
-1787
-1449
-1403
-1660
-1770
-1644
-1584
-1622
-1580
-1524
-1562
-1507
-1334
-1350
-1471
-1280
-507
971
2119
1196
-956
-1858
-1515
-870
648
2807
4037
3355
973
-1224
-1438
-715
-640
-702
-391
-200
-141
39
192
228
177
50
2
111
193
145
49
-44
-113
-153
-214
-308
-383
-412
-404
-456
-635
-825
-971
-1144
-1219
-1075
-892
-793
-593
143
1533
2423
1600
-51
-791
-245
692
855
693
1763
2796
1595
-23
97
528
267
258
520
524
477
488
363
128
-71
-170
-168
-85
-1
-69
-269
-391
-418
-449
-410
-307
-275
-266
-181
-103
-115
-153
-122
-75
-103
-93
-46
-134
-41
843
2500
3948
3582
1106
-1138
-1305
-629
-511
-526
-366
-322
-269
-118
-65
-40
64
115
198
469
684
660
593
479
181
-69
-80
-55
-138
-259
-374
-482
-565
-570
-537
-658
-886
-983
-990
-918
-772
-934
-1134
-762
-757
-1296
21
2805
3116
1377
1590
2829
1638
-671
-1229
-748
-691
-731
-679
-836
-870
-594
-435
-496
-532
-536
-516
-364
-189
-170
-223
-237
-249
-273
-305
-389
-481
-493
-427
-309
-186
-166
-234
-245
-174
-80
24
75
306
1465
3249
3518
1454
-544
-745
-401
-479
-202
941
2491
3204
2050
196
-457
-244
-305
-485
-462
-381
-309
-348
-464
-401
-279
-370
-519
-558
-619
-707
-687
-637
-628
-486
-193
-26
-33
-51
-106
-185
-116
-30
-108
-142
-152
-384
-448
-67
37
-394
-511
-117
114
115
131
-87
-422
-198
695
1742
2251
1518
-109
-1190
-1228
-1014
-1004
-1010
-863
-624
-517
-580
-573
-433
-289
-157
-4
139
194
87
-87
-148
-86
42
219
401
681
1386
2613
3568
2911
719
-1002
-1130
-729
-617
-412
-153
-238
-341
-159
-62
-208
-313
-322
-300
-96
680
2280
3553
2579
9
-1450
-1344
-1134
-1053
-859
-973
-1268
-1266
-1086
-856
-543
-358
-346
-275
-155
-186
-379
-509
-461
-476
-323
977
2880
2940
911
-420
-28
353
67
-108
-164
-414
-568
-497
-466
-528
-544
-528
-540
-563
-609
-703
-759
-441
709
2184
2215
345
-1316
-1363
-870
-770
-740
-664
-694
-727
-721
-578
-215
70
344
978
1416
1485
2372
3522
2939
2230
4445
7176
5739
1323
-1270
-1171
-801
-937
-868
-658
-708
-901
-954
-835
-758
-835
-901
-871
-835
-839
-913
-1093
-1308
-1401
-1165
-349
839
1261
77
-1567
-2001
-1517
-1302
-1419
-1449
-1448
-1514
-1488
-1252
-916
-474
312
1127
1231
774
500
471
370
173
-27
-147
-168
-187
-200
-162
-167
-216
-198
-178
-243
-285
-271
-325
-389
-306
-212
-337
-572
-612
-418
-306
-453
-606
-485
300
2108
3616
2695
212
-1056
-786
51
1754
3794
3996
1825
-520
-1266
-1039
-927
-828
-513
-275
-213
-165
-90
-24
0
-2
50
135
52
-248
-384
-81
293
324
114
-163
-447
-539
-426
-445
-690
-857
-861
-889
-856
-659
-624
-787
-551
339
1149
1085
1332
3934
6682
4677
-598
-2192
1116
3492
1873
-614
-1084
-589
-621
-747
-575
-518
-537
-373
-248
-332
-520
-803
-1045
-996
-845
-879
-899
-722
-583
-588
-534
-395
-342
-389
-458
-543
-629
-731
-863
-880
-812
-818
-607
-228
-360
-231
1568
3590
3710
2992
2544
1186
-753
-1349
-905
-772
-745
-474
-345
-336
-280
-374
-506
-376
-143
78
375
428
259
609
1216
914
-31
-431
-303
-294
-410
-473
-572
-694
-648
-473
-456
-595
-621
-590
-648
-631
-615
-763
-759
-859
-1389
-661
2095
3614
2156
1160
2396
2785
931
-718
-926
-787
-724
-480
-393
-588
-629
-465
-424
-546
-635
-594
-481
-374
-293
-259
-294
-335
-346
-367
-390
-392
-448
-558
-582
-498
-448
-482
-476
-323
-73
366
1629
3627
4141
1999
-291
-1194
-1583
-191
2813
2733
-492
-1439
415
2011
2776
2194
45
-1332
-1048
-798
-971
-875
-707
-603
-387
-368
-670
-838
-755
-740
-798
-753
-729
-862
-973
-851
-683
-745
-731
-530
-708
-794
-283
-767
-1444
1648
6119
5304
1578
1707
3725
2655
37
-930
-704
-665
-839
-853
-783
-838
-920
-743
41
1285
1592
116
-1494
-1700
-1392
-1482
-1506
-1288
-1156
-1080
-980
-910
-836
-753
-671
-539
-416
-354
-282
-302
-409
-298
-191
-395
-106
1204
2815
3822
2683
-797
-2205
1343
5716
7169
6215
3086
-759
-2050
-1348
-1301
-1589
-1362
-1197
-1217
-1243
-1269
-859
279
1677
2190
834
-1382
-2241
-1719
-1543
-1903
-1925
-1841
-2013
-1971
-1757
-1751
-1522
-1172
-1237
-830
-176
-844
-145
4393
6952
3594
622
1934
3428
3013
1901
311
-864
-742
-501
-765
-857
-855
-1057
-1142
-1039
-1016
-1071
-1036
-952
-993
-1173
-1292
-1248
-1038
-155
1770
3125
1863
-698
-1675
-1205
-1006
-1106
-1033
-1000
-952
-839
-789
-543
-284
-352
241
1900
3224
3628
2746
-181
-1682
2243
6533
4458
-178
-1291
-586
-855
-1087
-865
-918
-946
-770
-763
-789
-634
-532
-613
-748
-909
-1050
-990
-915
-1059
-1028
-716
-210
1307
2879
1694
-360
623
1270
-1424
-1303
3256
3872
-450
-2274
-1306
-1200
-376
1980
3291
3239
2566
863
-678
-664
-320
-716
-966
-649
-450
-537
-499
-317
-257
-264
-194
-199
-387
-621
-797
-865
-827
-827
-882
-883
-908
-985
-965
-945
-1070
-1088
-590
719
2423
2916
1290
-775
-1159
143
2041
3569
3445
1266
-1014
-1485
-868
-542
-417
-163
-29
-61
-59
3
47
22
-88
-244
-332
-299
-298
-394
-411
-356
-407
-469
-399
-359
-499
-714
-854
-907
-927
-945
-1008
-1070
-976
-846
-762
-505
-426
-569
328
1641
1463
1920
4369
4130
881
920
3273
2003
-894
-1162
-554
-859
-934
-656
-566
-362
-126
-207
-346
-305
-235
-211
-207
-312
-559
-765
-784
-700
-641
-609
-560
-481
-409
-386
-402
-426
-447
-456
-460
-482
-467
-392
-409
-303
850
2953
3698
2273
1882
3946
4735
2250
-505
-1348
-1211
-1056
-995
-1028
-1047
-999
-917
-772
-652
-630
-544
-316
-92
76
212
224
103
1
-90
-293
-509
-560
-484
-403
-394
-469
-554
-601
-635
-639
-685
-880
-1002
-924
-937
-842
-352
-62
580
2745
3767
1251
75
3926
7081
5237
2192
458
-1134
-1913
-1317
-930
-1102
-1054
-996
-1113
-1051
-853
-701
-606
-609
-525
-191
-47
-430
-856
-936
-938
-1006
-965
-905
-905
-744
-562
-617
-539
-415
-732
-675
-207
-793
-809
1530
2675
1833
3454
5353
2472
-1103
-918
-291
-1047
-1055
-351
405
1709
2206
550
-1308
-1501
-1094
-1155
-1199
-1078
-1166
-1293
-1218
-1110
-1062
-980
-865
-797
-787
-798
-818
-860
-865
-771
-696
-690
-565
-428
-430
-208
-21
-429
-98
1890
3510
3806
3564
1716
-474
1413
4907
3493
-480
-1319
-592
-998
-1321
-1128
-1064
-702
135
1120
1484
247
-1409
-1660
-1406
-1169
500
2633
3225
3179
2861
961
-1173
-1449
-973
-1083
-1158
-951
-930
-1006
-968
-949
-1008
-958
-833
-909
-894
-702
-1130
-1152
1193
3478
2739
2111
4260
6381
6784
5667
2205
-1460
-2066
-1356
-1775
-2107
-1695
-1596
-1679
-1369
-728
447
1564
889
-1275
-2471
-2173
-1856
-1850
-1696
-1617
-1704
-1667
-1587
-1594
-1479
-1216
-1059
-971
-758
-622
-668
-574
-482
-713
-573
867
3123
3882
1572
-523
1594
4217
2176
-1095
-1193
-465
-931
-1120
-907
-1108
-1257
-1111
-1037
-1014
-1010
-1195
-1439
-1411
-843
453
2124
3176
3155
2777
2581
1920
313
-1262
-1695
-1366
-1259
-1318
-998
-816
-1206
-801
885
1492
-31
-1290
-838
-460
-1294
-1152
1701
5263
7001
6141
2758
-879
-1883
-1261
-1315
-1572
-1382
-1375
-1492
-1438
-1454
-1449
-1375
-1446
-1341
-1120
-1401
-1219
633
2496
2381
1220
784
1466
2439
2730
2786
3019
2188
403
-1146
-2548
-1605
3037
4857
494
-1710
2673
6925
6296
2620
-967
-2270
-1804
-1726
-2068
-1954
-1813
-1887
-1843
-1776
-1773
-1683
-1568
-1533
-1516
-1468
-1414
-1375
-1302
-1214
-1228
-1247
-1142
-1140
-1138
-848
-886
-1225
-171
2239
3633
3462
3121
3131
3214
2625
722
-1224
-1650
-1306
-1310
-1354
-1202
-1120
-1032
-855
-725
-618
-481
-404
-399
-397
-386
-371
-342
-314
-305
-307
-299
-283
-293
-336
-373
-383
-380
-410
-493
-504
-378
-314
-370
-380
-406
-453
-332
-327
-517
-374
-341
-473
1341
4460
4270
687
-1289
-698
-352
-561
-387
-246
-301
-189
-71
-66
2
88
110
176
287
335
338
354
346
312
323
379
416
410
403
396
360
347
326
178
119
244
58
-121
885
2564
3158
2532
1523
374
-419
-432
-307
-486
-536
-142
845
2135
2277
666
-846
-884
-471
-485
-520
-425
-400
-362
-287
-253
-199
-116
-40
68
181
216
183
135
96
66
26
-26
-64
-82
-90
-107
-147
-191
-224
-280
-353
-396
-421
-474
-526
-528
-523
-558
-590
-604
-629
-617
-591
-695
-820
-643
85
1335
2147
1243
-629
-1407
-990
-730
-788
-695
-615
-646
-573
-443
-388
-336
-229
-124
-52
-3
17
-12
-85
-151
-171
-162
-155
-141
-118
-110
-116
-116
-118
-130
-136
-130
-134
-162
-181
-152
-119
-148
-176
-169
-208
-223
-158
-239
-374
-151
428
1366
2535
2583
866
-658
-603
-173
-231
-236
-88
-66
-33
78
150
222
324
407
465
492
471
425
379
336
318
336
354
345
338
348
342
311
281
245
195
162
156
148
