# session 12
-38
-50
18
-119
-503
-754
-743
-706
-749
-797
-807
-781
-755
-760
-749
-700
-680
-692
-670
-632
-640
-677
-684
-650
-623
-660
-717
-714
-666
-619
-580
-592
-584
-258
517
1239
1061
-57
-960
-876
-437
-325
-341
-267
-219
-177
-80
15
97
180
246
330
441
500
470
405
342
276
200
130
85
54
38
42
45
30
14
4
-16
-35
-39
-51
-87
-110
-100
-100
-116
-119
-143
-175
-140
-134
-253
-293
33
938
2136
2345
930
-530
-642
-243
-243
-293
-198
-178
-161
-70
7
71
144
225
338
428
417
348
276
193
116
91
88
55
21
28
46
35
10
-10
-29
-48
-60
-80
-114
-139
-123
-108
-142
-166
-159
-203
-225
-153
-215
-398
-272
311
1243
2129
1887
357
-733
-532
-196
-303
-326
-229
-243
-247
-195
-167
-112
-15
73
149
202
199
156
102
56
42
52
46
16
-3
2
-1
-29
-66
-99
-131
-159
-175
-181
-189
-199
-196
-194
-218
-241
-244
-268
-280
-236
-290
-499
-579
-146
1070
2525
2598
891
-603
-652
-345
-438
-480
-399
-429
-435
-357
-307
-258
-165
-68
15
77
94
62
5
-49
-78
-80
-79
-98
-130
-153
-163
-183
-219
-247
-259
-272
-289
-286
-269
-262
-242
-180
-135
-159
-186
-175
-183
-171
-125
-214
-399
-317
305
1445
2359
1835
178
-768
-524
-248
-311
-285
-205
-199
-153
-80
-31
34
109
183
269
321
302
245
181
131
125
150
165
155
141
134
119
75
13
-33
-57
-79
-110
-136
-139
-143
-166
-166
-139
-148
-182
-187
-206
-239
-209
-231
-372
-381
-61
747
1968
2369
972
-706
-901
-388
-328
-378
-248
-218
-233
-159
-99
-58
17
89
148
197
200
149
81
29
11
16
19
15
9
21
45
16
-70
-116
-106
-131
-190
-202
-185
-205
-237
-221
-180
-179
-210
-222
-234
-238
-188
-209
-374
-442
-118
889
2433
3045
1623
-255
-690
-344
-358
-439
-330
-312
-328
-248
-191
-161
-84
-3
59
120
148
110
44
-4
-20
-18
-23
-42
-52
-38
-28
-38
-58
-83
-113
-141
-170
-197
-205
-202
-208
-197
-161
-165
-215
-232
-233
-262
-262
-284
-420
-459
-122
668
1640
1833
671
-624
-775
-403
-373
-407
-293
-258
-257
-177
-104
-50
37
129
202
261
301
312
282
221
170
147
135
126
122
122
118
100
70
43
10
-47
-98
-107
-104
-122
-125
-82
-43
-58
-84
-85
-115
-147
-99
-110
-290
-371
-46
836
2009
2264
887
-632
-827
-465
-481
-526
-408
-392
-404
-335
-277
-225
-149
-75
14
100
112
62
17
-19
-51
-46
-9
9
3
12
40
52
19
-32
-59
-76
-126
-183
-187
-176
-217
-255
-213
-172
-205
-224
-206
-220
-199
-148
-241
-371
-205
482
1749
2730
1961
-22
-985
-610
-332
-419
-350
-254
-265
-208
-109
-48
28
122
206
279
312
280
203
115
48
12
-16
-40
-35
-1
24
17
-3
-17
-37
-72
-102
-110
-111
-122
-135
-137
-135
-157
-198
-205
-210
-262
-253
-187
-277
-403
-187
478
1454
2049
1277
-284
-883
-452
-220
-303
-238
-180
-227
-192
-109
-45
74
232
337
363
326
250
158
63
-9
-29
-23
-29
-47
-60
-63
-61
-64
-81
-98
-104
-104
-100
-98
-114
-126
-99
-77
-117
-170
-190
-228
-243
-191
-246
-454
-495
7
1300
2771
2728
867
-659
-669
-379
-500
-514
-397
-416
-402
-296
-241
-193
-96
-11
51
102
108
66
4
-50
-74
-78
-91
-109
-117
-122
-131
-143
-160
-185
-216
-252
-273
-266
-256
-263
-259
-225
-210
-248
-280
-284
-305
-294
-254
-345
-518
-431
264
1607
2629
1955
143
-793
-566
-392
-478
-399
-312
-330
-271
-174
-128
-60
43
128
193
237
240
204
146
99
95
105
85
56
53
58
34
-7
-38
-53
-72
-101
-128
-137
-131
-132
-138
-124
-112
-148
-182
-178
-196
-196
-134
-182
-326
-225
320
1345
2350
2039
334
-812
-545
-145
-217
-228
-143
-152
-112
-28
16
101
222
302
369
429
424
360
289
239
207
177
157
162
167
134
84
51
31
15
2
-21
-71
-120
-147
-178
-227
-233
-190
-195
-248
-246
-231
-248
-245
-323
-512
-493
2
1066
2299
2347
737
-705
-714
-356
-435
-470
-355
-363
-371
-301
-276
-247
-127
19
109
131
111
68
6
-70
-129
-147
-137
-134
-159
-188
-208
-221
-223
-234
-284
-338
-350
-343
-347
-350
-337
-307
-289
-310
-334
-334
-330
-308
-320
-468
-599
-412
228
1282
2065
1478
-65
-814
-493
-269
-388
-392
-336
-339
-271
-167
-93
35
173
200
197
261
298
257
229
219
157
75
40
45
50
49
52
26
-37
-52
-29
-74
-136
-129
-81
21
136
82
-116
-230
-207
-166
-175
-195
-194
-256
-362
-219
489
1674
2398
1611
14
-642
-303
-147
-273
-190
-64
-88
-81
20
99
110
117
200
307
327
312
336
317
227
178
176
141
122
149
130
79
83
68
-44
-133
-111
-74
-91
-129
-167
-182
-173
-197
-233
-198
-162
-208
-220
-159
-220
-381
-365
7
968
2257
2395
760
-765
-778
-356
-401
-435
-308
-296
-294
-231
-210
-154
0
139
215
221
144
71
65
43
-16
-22
18
24
-1
-27
-55
-81
-114
-156
-180
-216
-297
-337
-301
-321
-406
-379
-264
-267
-355
-352
-320
-351
-349
-365
-493
-528
-277
369
1488
2188
1245
-454
-983
-536
-387
-480
-350
-224
-243
-242
-196
-155
-109
-30
89
173
168
149
138
36
-114
-139
-78
-81
-113
-96
-81
-91
-85
-71
-85
-140
-206
-227
-213
-235
-274
-253
-191
-188
-233
-245
-249
-256
-218
-265
-443
-432
-48
728
1780
2087
869
-521
-650
-274
-310
-406
-348
-286
-187
-157
-161
-17
-30
-52
810
2156
2624
2397
2352
2330
2237
2213
1581
227
-634
-596
-501
-619
-640
-624
-664
-650
-608
-606
-612
-625
-625
-581
-548
-557
-560
-538
-540
-555
-508
-442
-525
-695
-619
47
1344
2360
1767
28
-920
-694
-472
-576
-565
-459
-414
-347
-252
-199
-152
-49
74
145
149
119
76
47
52
68
74
71
55
34
31
30
6
-23
-55
-113
-172
-201
-224
-246
-241
-242
-268
-260
-230
-246
-258
-235
-253
-265
-234
-324
-479
-349
307
1458
2287
1566
-155
-910
-497
-233
-316
-250
-165
-186
-146
-81
-50
39
160
226
267
307
295
219
118
35
1
7
12
3
5
23
33
17
-12
-27
-28
-43
-87
-124
-112
-104
-159
-189
-126
-93
-162
-202
-191
-227
-223
-172
-284
-429
-201
548
1641
2226
1307
-300
-793
-310
-129
-259
-223
-178
-200
-141
-66
-29
52
172
277
358
402
393
342
276
214
171
139
108
88
80
62
31
2
-27
-59
-94
-135
-172
-192
-207
-226
-240
-234
-214
-224
-266
-278
-274
-325
-343
-299
-395
-600
-514
213
1532
2449
1698
-49
-832
-514
-338
-436
-375
-318
-340
-270
-185
-158
-98
8
115
219
275
246
179
107
30
-21
-36
-58
-89
-96
-86
-86
-95
-112
-140
-167
-198
-235
-252
-249
-262
-287
-281
-246
-238
-273
-290
-278
-287
-262
-212
-325
-512
-362
353
1497
2248
1516
-126
-830
-428
-174
-270
-232
-153
-156
-105
-22
39
125
229
325
406
432
392
319
234
159
120
110
99
88
95
113
111
83
57
45
30
5
-22
-40
-42
-51
-90
-123
-110
-93
-138
-198
-188
-168
-205
-182
-118
-226
-374
-186
536
1727
2489
1640
-54
-667
-252
-89
-207
-159
-124
-162
-120
-71
-60
-13
51
98
139
143
96
28
-35
-72
-69
-64
-100
-142
-154
-166
-197
-233
-275
-316
-334
-341
-365
-395
-409
-411
-409
-403
-379
-329
-285
-284
-294
-294
-317
-316
-237
-252
-462
-603
-274
845
2301
2500
909
-572
-630
-304
-389
-416
-296
-311
-329
-245
-178
-138
-81
-14
71
155
187
152
85
54
73
69
21
11
53
76
65
52
32
7
-3
-15
-47
-77
-85
-73
-57
-42
-31
-23
-14
-22
-75
-134
-156
-174
-166
-97
-84
-175
-161
243
1121
1801
1252
-117
-728
-371
-113
-178
-143
-55
-60
-39
42
119
179
231
279
311
317
331
345
282
160
102
112
95
81
114
89
-7
1
101
80
-29
-34
2
-47
-84
-44
-40
-114
-166
-125
-77
-144
-229
-197
-167
-210
-232
-317
-513
-548
-104
1012
2283
2236
603
-710
-666
-375
-469
-453
-314
-341
-359
-287
-279
-250
-85
75
139
153
119
72
61
11
-49
9
50
-57
-106
-7
24
-59
-101
-103
-131
-161
-186
-226
-243
-231
-258
-316
-299
-203
-164
-212
-242
-250
-288
-275
-226
-320
-495
-470
-10
1052
2097
1780
244
-703
-527
-295
-363
-356
-294
-291
-257
-169
-61
39
95
126
193
269
256
175
135
82
-16
17
160
153
28
-20
-25
-55
-75
-90
-93
-61
-50
-99
-143
-123
-94
-104
-77
4
10
-62
-62
-26
-74
-81
-2
-67
-243
-206
228
1159
2105
1834
337
-652
-466
-192
-297
-319
-205
-158
-124
-61
-16
38
118
181
213
242
230
158
122
136
99
30
7
-22
-80
-85
-55
-102
-198
-215
-161
-156
-220
-267
-272
-265
-259
-264
-272
-260
-256
-275
-271
-263
-286
-249
-199
-335
-528
-407
328
1707
2682
1853
3
-765
-414
-253
-344
-252
-186
-208
-137
-69
-54
37
158
209
240
275
261
193
108
52
50
58
38
21
32
40
13
-26
-40
-54
-96
-139
-164
-189
-203
-205
-218
-214
-171
-154
-206
-242
-223
-238
-273
-241
-253
-374
-346
22
767
1703
1848
582
-736
-759
-283
-267
-326
-212
-198
-213
-124
-61
-28
60
156
225
283
304
264
195
119
53
34
56
58
24
1
-5
-22
-43
-59
-91
-133
-166
-200
-231
-242
-257
-275
-260
-236
-270
-316
-288
-264
-290
-238
-186
-321
-393
-83
660
1774
2429
1509
-148
-695
-312
-213
-331
-260
-217
-243
-179
-109
-80
-1
113
194
233
236
208
157
92
37
11
-4
-35
-73
-92
-100
-121
-142
-134
-128
-161
-191
-191
-207
-246
-251
-214
-176
-146
-143
-172
-175
-160
-165
-121
-88
-242
-392
-168
629
1969
2875
2017
146
-686
-412
-292
-404
-343
-291
-309
-255
-195
-155
-67
26
91
158
198
180
136
91
44
12
-4
-24
-56
-86
-98
-102
-119
-135
-135
-141
-165
-190
-200
-198
-196
-203
-208
-189
-150
-148
-201
-227
-206
-216
-211
-166
-250
-400
-273
263
1126
1775
1254
-142
-819
-472
-190
-231
-178
-100
-112
-87
-26
26
96
170
241
315
346
309
228
132
57
26
17
2
-24
-37
-21
-4
-16
-31
-31
-40
-58
-67
-70
-69
-69
-75
-74
-51
-40
-72
-115
-127
-145
-183
-169
-153
-281
-456
-366
312
1564
2353
1532
-61
-671
-383
-286
-389
-336
-286
-301
-254
-194
-153
-79
5
68
126
160
139
84
33
0
-15
-20
-31
-51
-65
-65
-56
-52
-58
-79
-101
-120
-155
-199
-215
-209
-222
-239
-212
-173
-196
-253
-255
-229
-240
-218
-180
-299
-469
-307
436
1584
2181
1296
-238
-782
-426
-250
-323
-279
-215
-203
-155
-100
-47
43
137
206
265
313
321
280
218
173
154
145
117
64
28
28
18
-24
-64
-81
-90
-117
-167
-209
-217
-207
-204
-215
-225
-194
-147
-169
-229
-211
-180
-215
-192
-149
-283
-396
-121
701
1926
2502
1363
-383
-858
-433
-349
-436
-310
-251
-264
-159
-58
-21
75
215
317
385
434
441
378
267
184
166
164
135
97
76
55
17
-27
-66
-97
-121
-150
-188
-213
-228
-248
-265
-264
-250
-234
-245
-290
-316
-300
-297
-315
-293
-285
-377
-398
-29
859
1827
1807
469
-779
-808
-375
-313
-337
-254
-246
-232
-132
-60
-4
101
217
324
421
455
407
325
238
140
47
-20
-73
-131
-173
-174
-163
-176
-190
-187
-194
-230
-264
-272
-269
-268
-270
-280
-289
-279
-267
-288
-328
-351
-341
-331
-344
-338
-354
-454
-203
812
1760
1745
1561
1745
1191
-127
-705
-458
-384
-464
-364
-285
-262
-163
-46
60
190
286
308
279
211
118
40
-7
-37
-55
-70
-88
-97
-86
-78
-80
-77
-77
-93
-110
-117
-125
-143
-171
-187
-177
-155
-157
-196
-224
-213
-238
-280
-222
-215
-412
-501
-103
971
2504
3107
1675
-254
-701
-302
-298
-399
-288
-266
-296
-215
-149
-123
-39
64
134
193
223
193
136
85
23
-44
-83
-106
-134
-150
-152
-154
-160
-180
-209
-222
-217
-219
-238
-264
-288
-304
-309
-286
-235
-183
-163
-186
-222
-226
-227
-252
-232
-207
-320
-455
-307
436
1841
2844
2025
138
-735
-478
-348
-473
-425
-353
-353
-295
-222
-180
-105
-8
75
155
218
237
209
149
98
91
100
88
61
38
19
3
-19
-53
-81
-88
-89
-98
-110
-127
-155
-185
-206
-215
-205
-182
-166
-149
-125
-137
-183
-179
-141
-152
-146
-113
-206
-307
-70
690
1867
2539
1570
-232
-897
-439
-205
-307
-274
-212
-184
-101
-47
-15
71
169
275
381
401
370
366
326
223
157
137
106
94
89
24
-45
-54
-67
-113
-134
-145
-187
-229
-239
-235
-238
-257
-263
-225
-196
-239
-274
-236
-230
-298
-311
-265
-283
-315
-281
-291
-315
-54
682
1578
1720
577
-786
-1014
-484
-233
-253
-184
-113
-106
-72
5
95
173
250
368
485
526
508
467
384
274
184
119
63
19
-19
-58
-77
-78
-88
-111
-127
-140
-165
-204
-239
-249
-241
-244
-262
-271
-272
-266
-250
-245
-281
-314
-298
-287
-300
-268
-260
-353
-346
40
901
1835
1771
411
-766
-718
-317
-310
-336
-244
-230
-208
-127
-89
-50
47
148
236
315
336
279
199
130
65
11
-13
-15
-20
-29
-25
-14
-13
-29
-48
-62
-73
-87
-95
-99
-109
-111
-103
-110
-116
-87
-41
-32
-72
-94
-60
-53
-73
-10
-3
-175
-191
276
1313
2684
3094
1608
-138
-378
14
17
23
