# session 21
-55
-49
-72
-15
95
92
-1
-50
-59
-74
-79
-78
-88
-92
-90
-101
-112
-116
-123
-134
-142
-151
-165
-172
-170
-180
-207
-219
-206
-197
-185
-149
-118
-133
-167
-174
-171
-175
-168
-167
-182
-163
-148
-225
-248
96
1098
2553
3112
1724
-216
-745
-315
-228
-354
-283
-240
-273
-237
-201
-195
-159
-117
-86
-40
14
71
143
219
292
366
425
447
439
420
389
341
279
214
142
63
-13
-84
-149
-193
-210
-218
-226
-228
-221
-216
-220
-221
-215
-215
-226
-228
-222
-226
-237
-243
-243
-246
-259
-272
-270
-253
-240
-222
-178
-145
-169
-206
-206
-200
-202
-193
-198
-206
-172
-174
-260
-251
158
1255
2627
2770
1116
-521
-673
-265
-282
-358
-264
-251
-274
-230
-201
-191
-155
-117
-79
-35
5
54
122
192
258
317
352
363
362
352
325
281
235
189
134
72
15
-45
-110
-153
-169
-178
-182
-177
-177
-176
-175
-182
-184
-175
-185
-205
-207
-204
-215
-220
-216
-232
-252
-241
-219
-211
-195
-155
-133
-149
-169
-183
-205
-208
-184
-187
-203
-176
-172
-218
-145
317
1467
2830
2773
845
-836
-832
-319
-311
-353
-238
-232
-249
-194
-171
-168
-132
-93
-58
-14
32
85
149
213
274
328
354
354
348
332
297
250
200
142
80
20
-41
-102
-155
-192
-211
-218
-221
-222
-222
-219
-213
-206
-207
-213
-216
-218
-225
-234
-240
-255
-274
-278
-270
-269
-254
-208
-177
-202
-239
-249
-254
-255
-236
-241
-251
-209
-222
-325
-259
260
1456
2926
3070
1227
-582
-721
-273
-321
-401
-286
-276
-298
-246
-222
-206
-159
-127
-95
-33
31
92
171
263
348
419
468
491
489
467
428
369
292
207
119
29
-58
-133
-187
-224
-247
-255
-253
-247
-240
-232
-227
-222
-219
-220
-225
-234
-248
-258
-255
-253
-255
-241
-202
-177
-198
-233
-243
-248
-255
-237
-235
-258
-221
-210
-349
-386
82
1268
2827
3335
1820
-169
-690
-316
-298
-427
-350
-322
-353
-308
-276
-272
-231
-187
-159
-109
-44
17
84
164
252
324
362
375
377
360
319
259
188
115
40
-43
-125
-192
-249
-299
-327
-329
-318
-304
-299
-302
-294
-282
-281
-282
-269
-256
-262
-275
-288
-299
-300
-288
-269
-239
-207
-183
-175
-194
-217
-212
-199
-201
-209
-220
-194
-165
-247
-329
-85
807
2372
3467
2516
286
-788
-434
-200
-352
-322
-242
-279
-257
-198
-188
-166
-122
-91
-53
-2
53
121
200
277
346
401
433
440
428
402
362
307
239
167
95
18
-59
-124
-176
-213
-232
-237
-235
-231
-227
-223
-218
-216
-220
-224
-226
-232
-241
-250
-265
-278
-279
-276
-275
-253
-208
-187
-217
-252
-260
-261
-252
-233
-247
-253
-206
-242
-358
-251
390
1765
3234
3063
990
-665
-629
-247
-365
-418
-312
-328
-337
-279
-266
-255
-206
-171
-137
-78
-18
46
130
219
297
360
402
416
412
391
348
287
215
138
56
-28
-106
-173
-229
-267
-282
-280
-276
-271
-262
-254
-249
-244
-239
-236
-236
-237
-237
-241
-256
-272
-273
-266
-258
-232
-188
-168
-195
-229
-237
-243
-243
-225
-232
-238
-188
-213
-353
-292
332
1689
3183
3181
1256
-488
-606
-234
-315
-384
-283
-290
-305
-247
-226
-217
-171
-132
-97
-40
21
87
164
247
323
383
419
432
424
400
367
316
241
158
80
6
-68
-134
-190
-231
-250
-253
-253
-247
-236
-227
-223
-223
-223
-219
-216
-217
-219
-222
-225
-227
-232
-241
-242
-244
-259
-266
-252
-232
-206
-164
-135
-149
-180
-194
-197
-195
-179
-181
-197
-170
-164
-248
-260
109
1173
2626
2995
1444
-373
-713
-292
-257
-352
-266
-241
-268
-224
-190
-178
-136
-95
-67
-23
28
83
153
231
299
358
410
441
441
421
394
354
296
230
163
91
11
-67
-130
-176
-203
-214
-218
-219
-217
-215
-210
-203
-200
-203
-204
-202
-202
-208
-218
-224
-225
-228
-233
-231
-228
-228
-232
-239
-248
-255
-250
-233
-214
-191
-153
-122
-128
-157
-178
-185
-172
-154
-166
-161
-122
-150
-231
-157
339
1528
2863
2715
822
-680
-611
-205
-270
-316
-223
-227
-227
-176
-166
-146
-86
-46
-20
21
68
121
190
265
337
399
445
468
468
454
432
396
338
269
203
131
47
-32
-98
-150
-184
-202
-208
-204
-197
-195
-199
-201
-204
-207
-209
-212
-215
-215
-220
-228
-233
-239
-251
-256
-255
-259
-264
-261
-259
-263
-271
-272
-262
-250
-238
-204
-155
-139
-166
-185
-187
-195
-191
-176
-187
-181
-156
-218
-292
-114
635
2061
3115
2255
168
-824
-460
-214
-344
-307
-226
-258
-242
-196
-184
-146
-100
-83
-48
15
73
128
196
272
343
402
445
465
460
444
426
392
333
263
188
105
23
-48
-108
-154
-184
-202
-205
-195
-193
-200
-193
-179
-176
-175
-170
-172
-182
-190
-199
-207
-209
-215
-225
-228
-228
-234
-240
-245
-258
-265
-256
-247
-231
-186
-141
-144
-179
-199
-207
-210
-191
-191
-216
-186
-166
-252
-273
48
1033
2584
3243
1762
-319
-829
-341
-267
-391
-292
-249
-288
-240
-199
-198
-162
-117
-88
-46
8
65
132
211
294
376
440
473
482
472
440
386
314
229
142
54
-33
-112
-177
-223
-251
-268
-277
-271
-261
-264
-274
-269
-250
-232
-219
-215
-223
-217
-196
-201
-220
-202
-187
-228
-267
-255
-234
-235
-245
-254
-238
-184
-137
-118
-108
-130
-175
-175
-146
-139
-126
-127
-175
-174
-129
-194
-270
-3
947
2461
3276
2146
152
-636
-321
-210
-353
-288
-206
-249
-244
-197
-199
-191
-128
-62
-30
-12
26
109
223
317
361
388
438
495
516
477
396
319
245
164
117
65
-66
-184
-197
-219
-280
-265
-239
-295
-312
-246
-230
-254
-225
-201
-241
-251
-191
-156
-191
-226
-230
-232
-234
-245
-249
-211
-202
-263
-261
-197
-241
-310
-241
-174
-187
-121
-54
-162
-263
-204
-174
-223
-198
-148
-155
-150
-164
-229
-133
477
1818
3108
2685
615
-798
-623
-253
-350
-349
-228
-266
-282
-177
-134
-163
-128
-58
-42
-23
49
109
161
270
385
449
504
546
529
487
465
438
370
269
168
81
-18
-115
-157
-174
-235
-304
-326
-326
-317
-296
-292
-296
-269
-244
-258
-273
-264
-255
-248
-243
-257
-272
-264
-267
-298
-307
-280
-259
-238
-190
-160
-184
-210
-209
-214
-220
-203
-193
-206
-179
-154
-252
-339
-98
739
2205
3288
2465
333
-764
-431
-181
-362
-355
-235
-254
-271
-234
-211
-177
-145
-122
-53
17
37
98
229
320
357
421
493
515
515
506
446
348
276
224
119
-26
-121
-155
-192
-235
-253
-266
-278
-257
-239
-272
-309
-292
-251
-233
-231
-225
-216
-219
-245
-269
-271
-273
-291
-297
-289
-273
-229
-177
-178
-223
-236
-222
-237
-250
-236
-245
-232
-173
-231
-354
-201
455
1688
2907
2662
818
-604
-561
-228
-321
-364
-259
-252
-266
-218
-178
-161
-147
-115
-66
-25
25
113
192
237
306
405
455
458
491
503
419
338
329
273
134
41
10
-64
-177
-240
-235
-225
-255
-272
-238
-227
-257
-245
-207
-217
-234
-217
-207
-219
-229
-239
-237
-231
-261
-293
-260
-209
-224
-248
-191
-115
-142
-226
-244
-219
-221
-210
-188
-203
-193
-173
-246
-262
30
832
2190
3072
2033
-55
-896
-453
-241
-380
-327
-250
-281
-247
-190
-182
-160
-117
-86
-47
8
72
141
216
298
378
441
479
485
467
449
417
341
244
162
86
5
-69
-131
-189
-235
-258
-255
-249
-255
-253
-238
-235
-235
-214
-202
-222
-226
-203
-207
-231
-224
-218
-256
-285
-263
-238
-240
-224
-179
-156
-175
-201
-209
-218
-224
-208
-203
-220
-193
-172
-255
-293
1
887
2280
3004
1859
-60
-732
-356
-237
-355
-280
-231
-279
-244
-186
-179
-158
-118
-87
-47
-5
46
133
231
307
370
427
467
485
479
451
409
345
264
178
81
-20
-91
-139
-195
-246
-264
-268
-276
-265
-243
-233
-231
-232
-241
-242
-228
-226
-246
-257
-246
-240
-248
-251
-263
-290
-296
-270
-241
-211
-181
-179
-202
-211
-207
-223
-233
-201
-188
-214
-194
-189
-281
-268
151
1221
2665
3068
1538
-306
-673
-269
-261
-368
-277
-250
-276
-238
-217
-206
-157
-128
-105
-33
39
76
132
225
312
370
412
450
479
488
476
436
360
275
205
125
26
-59
-125
-182
-219
-236
-249
-256
-251
-241
-230
-228
-240
-248
-239
-229
-227
-234
-243
-244
-242
-250
-267
-285
-296
-287
-262
-236
-205
-174
-187
-229
-238
-231
-241
-230
-218
-233
-205
-183
-268
-273
79
1012
2458
3145
1788
-287
-871
-375
-256
-378
-288
-255
-308
-251
-184
-180
-158
-122
-92
-41
21
74
132
216
316
404
461
491
500
490
462
412
334
242
154
65
-37
-131
-186
-219
-259
-285
-278
-265
-265
-269
-268
-258
-237
-221
-225
-233
-235
-236
-236
-234
-246
-278
-299
-287
-271
-264
-235
-189
-179
-211
-230
-226
-236
-236
-209
-224
-249
-193
-187
-298
-237
294
1469
2921
3163
1443
-393
-646
-238
-282
-389
-290
-271
-300
-265
-234
-203
-153
-127
-101
-47
13
81
158
232
314
393
440
465
480
468
428
380
317
228
125
24
-64
-132
-190
-240
-271
-285
-287
-280
-268
-254
-255
-266
-253
-226
-229
-244
-236
-229
-242
-250
-250
-254
-252
-254
-276
-292
-275
-256
-258
-253
-216
-175
-167
-183
-193
-193
-202
-203
-186
-200
-203
-147
-184
-325
-238
362
1620
3053
3085
1205
-507
-579
-183
-285
-369
-260
-263
-288
-235
-207
-183
-131
-98
-68
-13
44
101
177
258
334
409
459
469
473
477
446
383
315
238
148
62
-23
-107
-171
-216
-253
-265
-264
-275
-275
-246
-227
-233
-230
-221
-228
-236
-237
-239
-246
-254
-257
-260
-268
-273
-270
-269
-277
-273
-248
-207
-171
-166
-194
-215
-212
-214
-214
-197
-204
-209
-167
-182
-277
-218
306
1530
2904
2842
1004
-558
-581
-209
-286
-344
-250
-255
-262
-205
-182
-172
-135
-105
-73
-24
32
96
164
227
293
361
409
439
455
443
404
358
300
224
143
70
-7
-90
-150
-188
-227
-243
-223
-208
-212
-211
-205
-205
-198
-190
-195
-202
-201
-213
-237
-235
-215
-214
-231
-237
-233
-235
-245
-258
-262
-245
-206
-163
-135
-140
-169
-182
-178
-179
-177
-178
-191
-166
-134
-196
-246
-31
743
2098
2942
1948
17
-751
-367
-193
-322
-269
-205
-245
-219
-170
-168
-146
-104
-77
-45
1
59
125
179
236
324
403
429
428
426
406
365
318
255
170
91
34
-17
-79
-143
-193
-217
-223
-227
-223
-214
-216
-214
-198
-197
-217
-216
-202
-223
-258
-250
-227
-231
-240
-242
-253
-263
-260
-253
-233
-189
-155
-159
-182
-196
-203
-209
-200
-188
-202
-196
-159
-194
-262
-125
505
1803
2992
2493
479
-797
-564
-216
-319
-318
-216
-246
-255
-196
-169
-152
-121
-93
-47
5
42
94
166
226
279
350
406
415
402
388
356
298
239
191
122
29
-42
-79
-118
-170
-216
-244
-246
-235
-219
-201
-186
-163
-132
-150
-226
-271
-258
-234
-208
-196
-222
-243
-246
-276
-289
-240
-214
-238
-211
-143
-144
-194
-212
-219
-231
-227
-216
-201
-171
-189
-276
-303
-105
645
2152
3315
2489
361
-725
-454
-239
-373
-367
-296
-290
-247
-210
-241
-256
-179
-76
-73
-103
-18
92
135
222
335
350
353
422
437
375
350
341
275
179
106
57
-7
-114
-189
-183
-211
-306
-314
-233
-227
-275
-232
-166
-223
-308
-269
-193
-222
-282
-262
-241
-283
-293
-243
-229
-257
-265
-233
-177
-163
-224
-281
-268
-213
-196
-243
-241
-165
-207
-323
-203
366
1646
3150
3061
950
-779
-713
-246
-324
-377
-252
-239
-262
-242
-233
-199
-135
-95
-85
-57
34
143
194
236
335
436
477
479
484
490
444
333
232
175
105
5
-88
-166
-224
-263
-299
-303
-268
-258
-275
-265
-251
-267
-261
-224
-226
-265
-272
-247
-253
-284
-280
-246
-242
-263
-250
-212
-204
-233
-247
-236
-245
-242
-196
-207
-252
-207
-215
-354
-270
439
1918
3427
3232
1128
-544
-539
-203
-353
-426
-331
-343
-346
-285
-249
-210
-178
-183
-147
-62
-9
32
125
230
288
349
447
490
439
397
392
344
256
173
71
-33
-102
-177
-257
-280
-275
-291
-298
-294
-305
-296
-262
-265
-289
-268
-245
-273
-277
-238
-256
-328
-348
-310
-286
-288
-286
-271
-243
-220
-232
-251
-238
-250
-299
-279
-218
-218
-221
-228
-315
-274
265
1540
3076
3287
1496
-360
-607
-215
-291
-417
-309
-272
-310
-287
-228
-173
-164
-171
-114
-40
-2
57
130
199
324
436
426
402
453
455
379
344
318
197
58
10
-27
-132
-213
-214
-228
-287
-311
-278
-246
-250
-270
-270
-245
-223
-228
-241
-233
-221
-236
-252
-247
-259
-271
-235
-223
-287
-293
-173
-110
-206
-270
-205
-177
-233
-239
-219
-220
-178
-177
-295
-294
215
1550
3192
3377
1473
-405
-608
-205
-275
-387
-291
-277
-310
-241
-170
-178
-184
-119
-54
-44
-11
63
127
216
331
375
370
419
464
439
422
401
286
156
120
93
-1
-98
-151
-189
-212
-214
-218
-230
-226
-207
-209
-218
-185
-144
-174
-228
-204
-158
-199
-257
-221
-166
-196
-260
-269
-239
-222
-225
-199
-142
-138
-193
-195
-165
-211
-252
-204
-189
-225
-194
-187
-272
-196
404
1693
2908
2511
591
-698
-539
-244
-367
-377
-282
-295
-289
-255
-238
-193
-179
-197
-129
-32
-17
2
101
189
214
257
348
378
291
230
281
282
152
77
100
17
-152
-185
-146
-222
-298
-250
-234
-284
-260
-212
-235
-242
-202
-208
-255
-257
-204
-180
-226
-258
-224
-210
-251
-269
-237
-192
-155
-134
-147
-177
-192
-202
-209
-193
-183
-192
-176
-178
-247
-231
193
1365
2860
3045
1271
-505
-680
-243
-254
-326
-228
-224
-239
-178
-157
-153
-92
-38
-22
4
59
129
