# session 14
-6
-41
2
185
57
-506
-795
-636
-536
-585
-620
-582
-488
-580
-605
-166
-162
-578
616
2488
1835
187
649
1320
303
-405
-48
0
-246
-221
-194
-205
-106
-99
-238
-316
-251
-150
-124
-100
-13
-33
-235
-429
-537
-648
-692
-606
-484
56
1463
2493
1410
-688
-1409
-941
-729
-817
-823
-795
-760
-735
-465
-32
-263
-434
1073
2620
1751
159
152
667
565
470
548
455
354
302
125
-71
-139
-177
-303
-495
-673
-772
-736
-583
-479
-548
-657
-653
-563
-463
-437
-515
-537
-284
629
2334
3332
1889
-603
-1430
-793
-415
-533
-648
-295
1071
2818
3255
2032
679
340
537
512
330
260
245
188
99
4
-101
-249
-372
-332
-215
-252
-354
-255
-151
-367
-626
-609
-598
-767
-857
-839
-874
-909
-883
-843
-825
-851
-837
-507
485
1936
2506
1192
-710
-1354
-1063
-900
-627
-30
170
-168
-283
41
287
274
287
352
237
24
-34
-44
-197
-302
-201
-152
-331
-459
-309
-137
-239
-437
-402
-168
50
143
51
-138
-133
103
185
-68
-368
-522
-607
-530
-346
-482
-559
432
2044
3054
3455
3129
1402
-527
-888
-393
-359
-434
-221
-122
-205
-215
-146
-67
14
106
241
349
343
357
478
475
229
-13
-132
-262
-389
-440
-480
-454
-261
-67
-93
-267
-364
-393
-525
-615
-514
-550
-648
-455
-581
-1014
-381
1008
2103
3591
4364
2085
-926
-1280
-425
-338
-377
-396
-731
-780
-484
-401
-405
-282
-297
-441
-411
-336
-502
-689
-573
-356
-289
-236
-160
-179
-168
-48
8
-13
-9
-23
-69
-129
-258
-324
-184
-1
248
1029
2363
3211
2475
617
-666
-728
-249
763
2411
3027
1439
-513
-954
-659
-716
-831
-731
-652
-661
-696
-695
-572
-412
-461
-696
-758
-566
-495
-649
-722
-668
-676
-690
-609
-517
-456
-396
-385
-471
-586
-612
-541
-511
-535
-463
-345
-222
10
-9
-333
290
2004
2543
1207
244
689
1464
1902
1519
-49
-1469
-1415
-812
-806
-1006
-973
-949
-1016
-990
-807
-531
-283
-125
25
179
186
84
132
282
239
59
-113
-393
-558
-379
-256
-16
887
1776
2368
2904
1844
168
2296
5638
3374
-673
461
2344
148
-1732
-989
-756
-1288
-969
-122
1118
2420
1960
-337
-1924
-1614
-1061
-1538
-1571
107
1282
2
-1665
-1689
-1162
-1176
-1194
-824
-640
-889
-711
-378
-1145
-959
2067
3387
232
-1742
42
871
207
1049
1756
1535
2911
3773
1267
-964
-496
-196
-890
-1018
-914
-1121
-1219
-1247
-1220
-856
-64
1250
2215
1234
-954
-1841
-1270
-962
-1206
-1259
-1049
-870
-822
-815
-692
-511
-408
-301
-193
-128
72
195
-132
-204
889
2496
3095
2013
139
-883
-716
-474
-593
-598
-466
-461
-501
-464
-448
-516
-477
-228
-89
-212
-264
-170
-209
-246
303
1706
2967
2358
145
-1271
-1127
-862
-992
-971
-857
-836
-746
-604
-499
-354
-145
16
50
74
175
189
330
1175
2360
2715
1927
841
376
646
970
830
438
177
83
-18
-206
-384
-529
-696
-787
-803
-914
-965
-778
-701
-840
-726
-250
701
2449
3585
2140
-441
-1318
-891
-806
-860
-653
-544
-519
-393
-212
-48
-15
210
1264
2595
2712
1523
472
242
191
-86
-285
-298
-316
-333
-276
-246
-288
-289
-232
-223
-284
-326
-325
-366
-444
-451
-460
-590
-715
-797
-946
-1006
-911
-628
538
2383
2669
650
-1181
-1278
-858
-910
-1078
-963
-658
-426
-352
-543
-743
35
1406
1428
368
173
608
572
456
523
374
168
121
41
-78
-145
-275
-470
-583
-582
-575
-654
-771
-815
-814
-891
-997
-944
-698
-376
-125
-108
-262
-318
68
1428
3222
3088
503
-1399
-1085
-523
-352
17
-184
58
2138
2806
971
1703
4378
2811
-800
-798
490
3
-337
103
77
-117
-110
-191
-192
-122
-235
-280
-112
-85
-310
-515
-600
-667
-755
-826
-821
-743
-757
-927
-1020
-959
-976
-1031
-820
-140
1101
2109
1424
-452
-1401
-1277
-904
492
2509
2611
737
-441
-156
241
286
345
399
369
332
265
146
10
-125
-225
-351
-589
-820
-931
-985
-931
-692
-488
-521
-617
-604
-593
-618
-505
-281
-219
-335
-368
-357
-467
-441
-244
-207
103
1125
2209
3060
3369
2019
226
380
954
-62
-809
-303
-153
-431
-287
-147
-232
-101
183
292
217
108
60
61
27
-60
-134
-206
-364
-514
-504
-481
-579
-578
-469
-537
-687
-752
-832
-669
-401
-762
-739
890
1860
502
-599
-397
-864
-1295
-20
1571
2310
2436
1386
-257
-588
86
263
76
80
64
-75
-130
-38
13
-109
-166
-17
-13
-296
-474
-434
-475
-550
-355
-40
33
-37
26
162
194
138
78
22
-87
-216
-216
-68
161
367
231
-1
900
2662
2685
462
-1056
-515
767
2241
3163
1863
-551
-1319
-776
-675
-824
-672
-580
-663
-710
-650
-467
-283
-217
-145
-41
-40
-101
-147
-260
-424
-458
-358
-349
-498
-602
-570
-493
-416
-446
-611
-659
-671
-831
-585
-83
-398
-508
1108
2343
1145
-456
-664
-341
29
799
1743
2028
888
-864
-1425
-911
-718
-912
-918
-818
-795
-823
-781
-583
-436
-457
-430
-340
-332
-262
-70
11
-42
-29
2
-85
-157
-163
-244
-231
-103
-312
-396
635
1958
2305
2329
2289
927
-1029
-1203
-376
-972
-955
2656
5890
3763
-196
-497
1609
2519
1420
-596
-1777
-1544
-1197
-1345
-1327
-1129
-1139
-1178
-1101
-1064
-1041
-917
-851
-911
-818
-729
-1014
-811
813
2527
2607
1345
-361
-1494
-415
2713
5501
6091
3766
-19
-1304
876
2587
1572
-268
-1096
-1064
-997
-1170
-1212
-1073
-1125
-1265
-1105
-425
798
1526
389
-1637
-2360
-1924
-1743
-1808
-1645
-1462
-1360
-1212
-1054
-938
-871
-782
-593
-464
-428
-320
-373
-552
-300
-141
-536
70
1900
2902
3257
3253
779
-1470
1832
6311
4422
-451
-1888
-1209
-1088
-963
-836
-1076
-1041
-778
-872
-1141
-1086
-594
369
1860
2423
208
-2195
-669
2037
1363
222
1687
2074
-260
-1668
-1245
-1076
-1174
-887
-751
-789
-662
-666
-793
-712
-683
-669
168
1913
3362
3158
1149
-894
-1270
-719
-615
-773
-770
-809
-871
-827
-761
-687
-643
-727
-809
-809
-911
-1062
-893
-52
1507
2686
1874
-206
-1162
-873
-849
-1074
-962
-847
-878
-836
-806
-784
-676
-655
-639
-434
-331
-302
208
1388
3022
3709
1695
-704
785
4843
6812
5403
2074
-870
-1546
-1010
-1139
-1500
-1449
-1454
-1559
-1477
-1350
-1332
-1334
-1291
-1313
-1399
-1320
-851
377
1993
1999
-120
-1657
-1591
-1658
-1205
1064
2847
2748
2404
1590
-390
-1456
-1134
-1129
-605
1278
2633
3004
2879
1239
-111
2257
5841
6020
4557
4961
5005
1814
-1766
-2446
-1803
-1884
-2037
-1851
-1835
-1865
-1761
-1734
-1754
-1702
-1616
-1515
-1449
-1419
-1193
-358
1039
1659
258
-1805
-2293
-1627
-1425
-1589
-1466
-1276
-1216
-1144
-1022
-829
-591
-437
-335
-174
-3
99
119
26
-128
-213
-240
-310
-393
-404
-380
-368
-326
-285
-305
-266
-166
-216
-243
-101
-185
-279
-2
-221
-515
1072
2847
1612
-590
-577
573
1751
3085
2854
640
-809
-566
-325
-491
-436
-344
-378
-311
-209
-196
-180
-127
-48
77
190
221
208
206
214
215
208
182
155
156
160
138
104
65
14
-20
-29
-38
-21
25
22
-26
-57
-101
-139
-98
-124
-264
-226
209
1211
2544
2769
1111
-634
-892
-551
-553
-611
-517
-370
-370
-479
245
2101
3441
3309
2965
3021
2291
569
-656
-775
-650
-732
-755
-739
-810
-798
-669
-618
-692
-764
-741
-659
-648
-731
-743
-657
-634
-678
-679
-673
-656
-574
-590
-723
-633
-86
942
2009
1880
262
-1113
-1158
-848
-897
-931
-855
-850
-816
-700
-607
-555
-457
-311
-237
-212
-148
-233
-469
-411
-79
32
-85
-146
-168
-211
-235
-257
-262
-250
-290
-371
-417
-430
-445
-452
-424
-397
-440
-518
-541
-551
-613
-681
-682
-208
1239
2607
1978
-33
-1081
-942
-653
-443
-619
-726
644
2622
3258
3135
2857
1458
-230
-496
-96
-184
-241
-125
-410
-465
692
2286
2899
2620
2447
2449
1680
-23
-1148
-970
-980
-1375
26
3479
6357
6498
4498
3120
2825
904
-2085
-2825
-2036
-1967
-1663
-202
934
328
-1405
-2417
-2168
-1786
-1769
-1730
-1653
-1603
-1461
-1307
-1182
-1037
-966
-939
-782
-571
-527
-643
-721
-688
-663
-657
-517
-312
-284
-367
-358
-323
-372
-415
-403
-388
-361
-308
-311
-392
-417
-332
-305
-396
-408
-355
-451
-532
-192
752
1997
2401
1126
-600
-1058
-585
-363
-434
-436
-433
-439
-363
-291
-232
-108
-44
-103
-84
44
84
33
24
44
46
50
69
91
102
88
66
47
12
-24
-28
-23
-29
-8
19
12
5
-11
-62
-31
15
-137
-106
526
1252
1883
2877
3228
1609
-484
-956
-484
-389
-458
-392
-389
-378
-296
-242
-193
-139
-55
78
89
66
174
6
-188
808
2571
3297
2971
2762
2841
2852
2291
821
-605
-978
-850
-882
-893
-853
-885
-861
-804
-809
-814
-829
-844
-799
-819
-893
-685
44
1115
1616
609
-1029
-1498
-952
-720
-809
-688
-567
-595
-566
-485
-429
-347
-243
-138
-34
15
-9
-43
-60
-80
-110
-113
-76
-66
-121
-154
-120
-142
-262
-334
-305
-298
-360
-405
-387
-346
-361
-436
-450
-410
-448
-442
-363
-521
-500
379
1211
1118
1294
2374
3179
3278
2672
927
-800
-1032
-683
-726
-653
-562
-668
-316
143
-128
-415
-126
12
-176
-207
-206
-347
-397
-340
-344
-391
-392
-352
-350
-401
-418
-381
-372
-416
-457
-458
-440
-440
-461
-472
-472
-461
-437
-457
-501
-283
470
1361
1346
137
-1004
-1022
-555
-464
-481
-337
-348
-390
-201
-250
-298
888
2700
3188
2745
2881
3225
3286
3326
2495
503
-832
-744
-516
-640
-624
-533
-564
-584
-582
-603
-602
-611
-642
-626
-600
-628
-646
-630
-653
-649
-580
-632
-754
-581
62
1132
2033
1575
-93
-1085
-809
-508
-610
-595
-499
-509
-473
-380
-324
-255
-152
-60
5
34
35
24
-21
-84
-98
-75
-82
-98
-72
-50
-92
-155
-183
-209
-252
-265
-249
-247
-242
-221
-241
-284
-281
-272
-269
-211
-236
-442
-524
-119
989
2502
2960
1433
-418
-734
-289
-352
-472
-216
-262
-483
354
2203
3527
3400
2044
396
-380
-250
-166
-333
-360
-317
-354
-372
-368
-376
-344
-296
-300
-334
-353
-367
-374
-349
-335
-371
-366
-305
-319
-360
-338
-389
-445
-303
-235
-426
-453
-45
693
1416
1278
97
-803
-677
-378
-408
-395
-296
-288
-276
-220
-180
-126
-55
-8
34
75
79
40
-11
-31
-5
28
32
40
78
97
76
55
35
-13
-63
-74
-67
-82
-105
-89
-50
-57
-93
-106
-132
-150
-102
-124
-272
-326
-60
866
2346
2817
1272
-496
-736
-367
-432
-477
-320
-301
-307
-200
-133
-107
-19
82
144
190
220
206
160
122
109
114
129
140
139
130
109
72
31
-7
-55
-111
-139
-145
-181
-233
-234
-215
-228
-231
-233
-275
-278
-258
-346
-428
-214
569
1841
2438
1228
-614
-1128
-641
-445
-480
-374
-334
-353
-278
-227
-217
-114
38
128
171
188
160
101
42
-7
-32
-40
-54
-67
-52
-33
-34
-27
-6
-15
-58
-87
-94
-113
-138
-134
-129
-171
-213
-219
-247
-248
-186
-243
-360
-192
393
1438
2492
2207
461
-752
-548
-185
-260
-273
-205
-228
-186
-97
-74
-27
68
116
168
291
357
255
102
32
20
3
-22
-39
-50
-61
-78
-116
-175
-223
-249
-272
-287
-280
-261
-222
-182
-195
-230
-232
-259
-295
-249
-278
-478
-520
-40
1106
2423
2455
772
-731
-770
-401
-448
-473
-364
-364
-356
-275
-225
-182
-104
-31
24
57
48
-8
-96
-180
-211
-200
-196
-200
-205
-210
-204
-208
-226
-218
-237
-300
-274
-232
-293
-236
-178
-365
-262
-93
-663
-360
1684
2048
246
911
3601
3501
1612
1188
740
-798
-1364
-806
-635
-721
-571
-512
-530
-403
-294
-277
-218
-122
-63
-28
-6
-24
-83
-136
-131
-83
-42
-20
3
23
25
11
-7
-29
-61
-102
-138
-155
-173
-211
-229
-203
-202
-243
-266
-279
-284
-230
-237
-386
-451
-207
600
1992
2691
1462
-356
-820
-450
-423
-494
-376
-343
-348
-260
-200
-156
-42
77
153
195
191
155
114
63
27
32
49
55
64
72
57
34
8
-59
-128
-118
-116
-193
-193
-167
-224
142
1066
1366
456
-417
-410
-261
-471
-591
-348
302
1435
2161
1259
-419
-994
-609
-460
-526
-439
-386
-391
-316
-228
-166
-89
-2
95
156
120
45
-12
-63
-97
-111
-137
-155
-148
-155
-180
-191
-206
-239
-258
-261
-274
-288
-283
-281
-286
-259
-220
-227
-251
-265
-290
-266
-212
-291
-398
-216
402
1368
1959
1224
-242
-843
-550
-416
-507
-451
-396
-406
-344
-275
-231
-128
-20
47
130
180
157
137
97
29
62
76
-37
33
106
-198
65
1505
2469
2055
2043
3355
4035
2447
0
-1030
-760
-612
-744
-689
-612
-682
-697
-607
-624
-774
-790
-412
596
1935
2142
542
-1020
-1053
-593
-614
-655
-533
-521
-511
-410
-344
-291
-206
-138
-88
-58
-85
-155
-222
-258
-251
-219
-192
-161
-119
-95
-104
-132
-164
-193
-223
-254
-277
-285
-290
-306
-312
-284
-267
-293
-308
-298
-310
-279
-223
-320
-435
-216
406
1291
1841
1158
-269
-842
-451
-220
-302
-264
-191
-189
-132
-33
43
119
203
286
347
345
284
206
128
62
26
4
-22
-38
-40
-50
-70
-85
-86
-88
-102
-113
-105
-96
-92
-64
-23
-21
-55
-70
-77
-101
-82
-39
-132
-313
-229
436
1503
2113
1507
62
-878
-123
1883
2853
1608
-56
-473
-305
-341
-322
-177
-109
-55
25
46
20
-24
-76
-98
-102
-130
-153
-139
-131
-151
-166
-179
-216
-255
-284
-323
-347
-328
-311
-329
-329
-286
-277
-320
-332
-324
-345
-320
-298
-423
-515
-261
517
1746
2388
1319
-421
-953
-571
-475
-551
-452
-400
-392
-305
-242
-198
-89
27
112
185
214
187
139
98
95
122
113
63
33
22
-12
-60
-98
-140
-185
-220
-252
-284
-284
-265
-276
-303
-285
-251
-273
-308
-305
-315
-313
-261
-307
-441
-348
191
1230
2256
1986
328
-836
-636
-257
-304
-289
-176
-168
-136
-47
16
89
179
249
312
351
322
249
191
170
171
174
176
171
154
