# session 3
-64
-4
-130
-36
463
1079
1578
1446
310
-833
-930
-600
-551
-348
178
555
621
316
-290
-469
-35
196
334
610
-182
-1314
-248
1533
941
-332
112
675
21
-617
-551
-462
-650
-556
309
1740
2994
2995
1414
-274
-646
-234
60
292
639
826
156
-1409
-2294
-1544
-410
123
446
646
504
245
25
-171
-260
-289
-402
-559
-634
-586
-445
-235
125
650
947
637
-4
-526
-733
-416
178
579
1058
1400
612
-549
-537
46
162
101
-90
-537
-786
-855
-996
-903
-733
-892
-888
-567
-546
-149
1428
2265
961
148
1375
1826
410
-429
-380
-986
-1737
-1856
-1997
-2199
-1999
-1754
-1590
-1198
-1037
-1474
-1820
-1639
-1261
-857
-387
129
653
996
1144
1161
746
424
1276
1971
603
-509
1668
4773
5097
4051
4578
4879
1993
-1460
-1371
643
1101
534
643
942
312
-1153
-2252
-2236
-1801
-1782
-1992
-1955
-1526
-444
1240
2016
580
-1520
-2085
-1675
-1666
-1769
-1593
-1579
-1657
-1481
-1452
-1618
-1403
-1391
-1918
-879
2490
5076
4901
3976
4299
4690
2869
-554
-2622
-2326
-997
256
866
771
577
598
689
715
644
760
839
-148
-1899
-2737
-2494
-2326
-2384
-2263
-2101
-2023
-1957
-1927
-1864
-1749
-1716
-1636
-1442
-1440
-1445
-1033
-527
210
2144
4647
5684
5036
4695
5427
4747
1026
-2391
-2499
-1887
-2620
-1867
1864
5549
5949
2736
-1256
-2832
-2338
-1906
-1958
-2056
-1562
124
1783
1988
1618
1685
1757
1653
1661
1692
1663
1638
1626
1650
1603
1523
1643
1399
40
-1521
-1928
-1649
-1650
-1628
-1235
-969
-1070
-1216
-1239
-1135
-1000
-1085
-1235
-989
-189
1145
2291
1699
-424
-1729
-1512
-1240
-1377
-1335
-1189
-1166
-1108
-1008
-934
-839
-757
-729
-667
-538
-414
-328
-244
-151
-115
-143
-111
-7
32
47
162
274
285
304
314
157
-117
-321
-456
-642
-837
-861
-737
-701
-761
-727
-633
-601
-571
-535
-562
-550
-406
-274
-328
-489
-465
-25
857
1846
1997
696
-960
-1448
-1062
-908
-986
-921
-899
-1002
-1020
-967
-926
-844
-772
-694
-456
-280
-305
-120
17
-338
-334
-172
-1051
-795
2327
4008
1478
-1145
-501
2523
5655
5769
2102
-1488
-2099
-792
763
1744
1926
1704
1480
1667
1816
590
-1036
-1394
-1875
-1963
1441
5076
3166
-1546
-3063
-812
2761
5137
5179
4578
4604
4521
4366
4312
3975
4157
4379
2356
-467
-695
485
574
285
404
528
577
-83
-1715
-2806
-2605
-2208
-2206
-2243
-2242
-2327
-2436
-2491
-2517
-2578
-2609
-2491
-2336
-2287
-2235
-2091
-1956
-1865
-1735
-1590
-1562
-1635
-1665
-1710
-1869
-1877
-1650
-1552
-1378
-908
-964
-1212
30
1937
2736
3374
3813
2005
-693
-1459
-1161
-1235
-1027
-595
-618
-611
-352
-418
-493
60
577
356
85
269
236
-290
-665
-557
-264
-160
-331
-403
-92
152
-73
-358
-333
-227
-168
-102
-182
-401
-445
-250
-81
-108
-279
-452
-559
-530
-166
448
883
1076
1155
892
426
312
435
400
440
989
2065
2749
1750
-236
-1020
-524
-364
-692
-796
-821
-949
-968
-932
-951
-955
-988
-1068
-1010
-764
-468
-116
358
715
713
687
876
905
1380
3169
3744
564
-1990
1430
6806
6806
2339
-805
-1227
-1144
-1233
-1155
-1242
-1263
-1158
-1617
-1417
464
1088
-714
-1287
-439
-1360
-1969
501
2590
2261
1771
864
45
2528
5202
2850
-1448
-3434
-2727
1179
4568
1984
-2847
-3634
-1090
2681
6003
5611
2391
798
1166
1466
1543
1104
109
-793
-2192
-2559
343
2686
1893
2025
2446
-832
-4148
-3768
-2812
-3336
-3856
-2827
-116
1406
-429
-2682
-2745
-2318
-2623
-2768
-2658
-2691
-2617
-2484
-2534
-2390
-1660
-317
1357
2322
2178
2315
2561
1158
569
3933
6533
3147
-1878
-3096
-2345
-2183
-1982
-1816
-2283
-2600
-2242
-1783
-1623
-1485
-1177
-1004
-1026
-1012
-1099
-896
383
2127
3037
2688
1320
-114
-827
-1366
-2007
-2332
-2459
-2182
-1666
-2050
-1569
2485
6674
6777
5939
6671
5211
1443
470
2251
2677
1846
2051
2504
1239
-1129
-2508
-2505
-2000
-1356
-1131
-1755
-2226
-1945
-1877
-2262
-2268
-2078
-2073
-996
1666
3355
2013
-501
-1455
-1095
-1219
-1527
-20
2637
3057
789
-1186
-1385
-539
-99
-713
146
2946
2319
-1228
96
4807
5526
3696
2360
-86
-2148
-1817
-1485
-2099
-2155
-1614
-1128
-1111
-1109
329
2449
3184
3125
2895
1209
-1077
-1769
-1443
-1494
-1597
-1446
-1498
-1741
-1713
-1355
-988
-786
-757
-704
-382
-295
-548
-11
203
-1534
-958
4188
6006
1615
0
3191
3768
1300
295
299
-138
-297
-297
-401
-225
-222
-696
-1043
-1150
-1334
-1505
-1574
-1547
-1262
-846
-759
-974
-919
-339
749
2225
2890
1460
-826
-1740
-1486
-1460
-1604
-1360
-1063
-832
75
1671
3082
4033
3765
1286
-1171
-914
19
-720
-1400
-874
-507
-633
-608
-542
-572
-515
-359
-150
39
83
47
143
359
384
49
-383
-614
-655
-603
-554
-658
-904
-1129
-1173
-922
-641
-527
-190
-95
-645
705
4289
4299
382
779
4717
2944
-1975
-1088
2886
3427
1761
498
-445
-896
-891
-1004
-1157
-1274
-1402
-1253
-981
-1088
-1397
-1432
-1249
-1153
-1183
-1222
-1231
-1172
-994
-784
-704
-773
-837
-839
-925
-1104
-1213
-1317
-1491
-1543
-1310
-751
-101
605
2204
3695
2110
-167
2501
6544
4446
-279
-496
1323
340
-1851
-2461
-2159
-2084
-1809
-1341
-1617
-1934
-574
1719
2863
2335
472
-1643
-2225
-1765
-1869
-1187
1128
2123
627
-1303
-2622
-1730
2364
5702
6153
6182
4161
-679
-1344
3455
6068
5259
4877
3711
983
249
1791
1562
-620
-674
449
-1144
-1530
2863
5198
2884
2492
3074
-169
-2573
-873
-514
-3040
-4232
-3696
-3616
-3725
-3395
-3176
-3083
-2760
-2440
-2345
-2320
-2341
-2524
-2770
-2901
-2887
-2728
-2467
-2138
-1659
-1049
165
2505
3650
1508
534
3998
5387
874
-2806
-2206
-1502
-2003
-1994
-1774
-1782
-1657
-1459
-1228
-1172
-1098
340
2743
3207
1191
-462
-623
-811
-939
328
1834
1940
1325
233
-1442
-2073
-2025
-2731
-1193
3864
7147
6662
5992
5971
5879
6017
4841
2513
1679
947
-1304
-1903
-551
-768
-1959
-2021
-2085
-2631
-2623
-2471
-2681
-2572
-2132
-2123
-2486
-2496
-2085
-1880
-1959
-1849
-1722
-1828
-1740
-1705
-2040
-1285
749
1132
-863
-2254
-2029
-1682
-1006
723
1987
1411
-306
-1783
-870
2778
3891
449
41
4273
3965
-1306
-3081
-1583
-1567
-1924
-1289
-1069
-1338
-1420
-1270
-1029
-1154
-1107
338
2456
3548
3217
2527
3086
3355
492
-1187
2908
5897
3010
1908
5311
6612
5386
5381
5583
5180
5140
4821
4749
5214
3340
-233
-790
1100
1425
579
448
248
-914
-2441
-3413
-3556
-3451
-3572
-3701
-3640
-3455
-3263
-3287
-3522
-3620
-3522
-3424
-3260
-2985
-2798
-2684
-2442
-2126
-1868
-1630
-1421
-1324
-1271
-1238
-1314
-1380
-1343
-1379
-1388
-1127
-889
-451
1398
3803
3280
-618
-3605
-3424
-2406
-2162
-1952
-1658
-1642
-1573
-1435
-1418
-1203
-643
489
2383
3335
1768
-201
-306
197
593
2076
3681
3738
3379
3517
2590
-4
-2075
-1940
-1401
-2194
-1474
2808
6696
7337
6659
6052
6370
7110
3808
-2487
-3111
1925
3352
-333
-2375
-165
2331
1475
-1158
-2225
-2009
-2227
-2548
-2503
-2485
-2371
-2080
-2029
-2133
-2075
-2074
-2153
-1938
-1395
-313
1509
2456
889
-1403
-1957
-1524
-1545
-1713
-1681
-1628
-1582
-1606
-1554
-1350
-1146
200
3153
4255
1553
-1281
-2492
-3155
-439
5098
5390
96
-2340
-1103
-950
-1444
-1051
-906
-1074
-883
-649
-604
-675
-289
1402
3510
3797
1709
-747
-1022
1061
2639
1461
-968
-1953
-1781
-2191
-1782
1710
5913
7367
6881
6339
6303
6798
5697
2101
277
2148
3154
972
-1511
-2507
-2616
-2327
-2087
-2218
-2370
-2350
-2294
-2140
-1925
-1836
-1911
-2149
-2327
-2102
-1762
-1753
-1776
-1575
-1440
-1345
-1032
-708
-596
-567
-573
-642
-669
-652
-654
-621
-564
-555
-563
-560
-403
526
2714
4802
4009
657
-950
376
777
-897
-1709
-1100
-849
-996
-881
-799
-806
-603
-388
-360
-331
-221
-123
-1
167
283
323
329
286
207
157
70
-140
-297
-182
106
298
267
91
-53
-113
-142
-126
-182
-403
-577
-854
-1377
-1271
-573
-761
-764
1738
4513
4094
1988
940
680
614
1067
1630
1455
389
-745
-1034
-785
-732
-679
-413
-375
-630
-769
-721
-657
-574
-400
-173
-29
-67
-216
-292
-247
-285
-525
-691
-649
-637
-389
541
1754
2997
4246
4049
1599
-750
-1097
-718
-738
-630
-381
-387
-352
-161
-208
-431
-442
-339
-378
-365
-147
-26
-133
-188
252
1610
3071
2602
319
-1109
-867
-546
-661
-638
-537
-512
-445
-398
-398
-457
-707
-941
-889
-883
-1047
-887
-737
-1029
-187
2489
3897
2190
303
343
663
309
188
290
108
-75
-180
-485
-704
-558
-436
-559
-621
-574
-628
-690
-718
-912
-1101
-931
-606
-437
-230
180
857
1983
2683
1463
-839
-1826
-1408
-1056
-784
-218
41
278
1761
3774
3846
1725
-198
-742
-812
-900
-749
-532
-500
-610
-837
-997
-832
-477
-178
63
236
353
523
538
161
-204
-190
-136
-235
-230
-234
-513
-812
-826
-663
-483
-319
-217
-269
-439
-538
-600
-809
-821
-158
934
2024
2713
2090
163
-1208
-985
-261
133
359
297
-2
25
266
179
-25
18
88
135
374
492
108
-400
-516
-344
-244
-278
-254
-86
35
-58
-243
-355
-411
-438
-419
-447
-503
-352
-46
161
357
340
-193
86
2301
3976
2483
-92
-754
-359
-522
-692
-245
753
2215
2869
1398
-658
-1106
-593
-460
-339
71
215
119
126
-8
-364
-501
-396
-471
-718
-794
-638
-421
-326
-442
-617
-693
-774
-905
-958
-836
-441
-68
-140
363
2320
3354
1412
-872
-892
-147
-101
-161
-218
-428
-335
-116
-240
-426
-551
-858
-1012
-729
-530
-641
-363
849
2478
3010
1524
-527
-1139
-690
-490
-492
-429
-525
-580
-381
-195
-127
-126
-127
98
367
454
754
739
-508
-980
1444
3815
2608
-124
-1041
-661
-495
-415
-283
-408
-623
-666
-560
-335
-104
-40
-42
104
315
337
191
92
-31
-318
-480
-340
-323
-578
-603
-24
1231
2577
2401
410
-1144
-1091
-692
-475
-203
-275
-325
-164
-825
-1281
277
1691
775
-257
143
372
-29
-51
193
138
-121
-329
-380
-347
-416
-527
-434
-140
96
127
37
-57
-148
-275
-408
-433
-334
-293
-393
-422
-313
-351
-555
-546
-292
-22
281
409
199
304
1101
2150
3222
3443
1538
-1048
-1661
-831
-455
-470
-361
-344
-334
-154
-18
-54
-156
-157
23
218
282
344
450
345
-26
-238
-89
14
-100
-89
-27
-318
-684
-613
-343
-324
-428
-331
-102
18
165
357
54
-533
-630
-883
-1388
-86
2451
2625
608
-345
-1
232
693
1687
2185
1391
-141
-1085
-985
-645
-665
-822
-840
-816
-870
-817
-588
-531
-665
-588
-381
-368
-390
-274
-162
-78
0
-73
-314
-537
-658
-674
-550
-325
5
526
1245
2272
3327
3047
1016
-687
-689
-240
-283
-325
-263
-355
-425
-376
-334
-337
-327
-235
-91
11
116
513
1715
3377
3573
1546
-436
-719
-504
-775
-1006
-1043
-1163
-1276
-1240
-1053
-839
-753
-644
-521
-605
-499
-208
-509
-562
690
1431
651
476
1264
1246
677
522
392
202
170
-69
-437
-414
-138
-25
-79
-206
-457
-722
-729
-583
-684
-890
-748
-412
-296
-418
-632
-794
-569
513
2214
2930
1599
-296
-990
-840
-690
-463
-99
110
267
1131
2655
2917
1020
-734
-634
-53
-155
-328
-258
-265
-331
-374
-451
-457
-337
-242
-200
-128
-138
-288
-291
0
222
129
21
87
48
-218
-469
-616
-746
-789
-705
-670
-799
-914
-745
-390
-197
-82
263
862
1719
2290
1493
75
156
1243
1132
58
-448
-388
-208
89
119
-323
-611
-386
-96
17
246
397
-109
-859
-851
-233
77
-124
-520
-868
-853
-439
-102
-118
-234
-194
-61
38
82
28
-109
-126
-25
38
239
368
-109
-178
1475
3138
2343
261
-617
-517
-574
-381
687
2182
2796
1590
-281
-865
-420
-340
-598
-605
-484
-401
-256
-62
109
253
292
86
-277
-431
-224
30
41
-106
-241
-353
-437
-412
-273
-156
-92
47
0
-592
-1141
-1123
-1175
-967
652
2068
1107
-474
-501
-55
-118
-157
-232
-408
-242
-8
-119
-359
-488
-336
107
733
1658
2119
899
-933
-1388
-907
-787
-869
-697
-380
-200
-367
-523
-230
-9
-360
-667
-390
149
631
958
948
561
178
586
2021
2996
1977
-36
-1057
-929
-560
-308
-195
-167
-95
-54
-108
-150
-180
-215
-199
-234
-337
-250
-6
37
-50
28
23
-277
-464
-239
572
2145
3195
1977
-309
-1177
-923
-980
-1170
-1097
-930
-685
-551
-527
-238
-17
-23
490
1037
547
27
457
762
446
273
247
87
81
227
220
52
-172
-320
-336
-480
-761
-718
-294
39
-32
-506
-1030
-1088
-746
-481
-347
-219
-254
-438
-485
-409
-420
-469
-483
-359
454
1901
2611
1966
1108
1060
1725
2050
852
-1036
-1613
-1107
-916
-787
-226
119
-49
-261
-296
-205
-48
5
-109
-213
-210
-200
-252
-310
-252
-23
225
292
232
210
208
150
58
-77
-250
-331
-289
-253
-245
-224
-214
-207
-295
-531
-632
-648
-980
-848
825
2697
2754
1977
2177
2276
889
-521
-569
-253
-412
-588
-565
-514
-451
-358
-151
96
70
-114
-119
-109
-288
-428
-401
-373
-405
-402
-346
-301
-272
-212
-144
-115
-115
-100
-66
-81
-142
-173
-309
-567
-632
-642
-539
901
2920
2227
101
1893
5931
5230
592
-1663
-1115
-972
-1178
-605
501
1741
2058
554
-1173
-1364
-903
-903
-937
-795
-805
-815
-658
-590
-689
-737
-653
-556
-529
-533
-539
-574
-576
-538
-622
-778
-814
-940
-1064
-231
1616
2728
1916
178
-920
-1038
-766
-581
-527
-488
-433
-433
-479
-434
-270
-124
-21
106
117
-67
-226
-327
-508
-551
-212
574
1683
2041
725
-870
-1038
-549
-549
-621
-484
-494
-533
-363
-172
-70
39
122
70
-31
-7
79
31
-108
-186
-230
-313
-404
-471
-509
-483
-368
-198
-53
3
9
56
141
190
201
199
168
145
188
254
261
208
152
132
141
179
235
225
182
278
606
1409
2693
3205
1920
233
-173
93
32
-78
-13
-14
-25
32
51
55
83
55
-9
-23
-19
-40
-65
-79
-42
81
196
200
140
99
109
194
351
513
599
594
547
486
410
348
322
294
247
190
116
26
-64
-128
-149
-164
-171
-115
-97
-175
-134
183
856
1783
1989
758
-624
-757
-326
-306
-424
-386
-375
-407
-412
-429
-457
-453
-409
-352
-330
-331
-328
-351
-388
-386
-411
-526
-615
-629
-677
-719
-648
-587
-639
-718
