# session 30
-30
-12
-66
48
355
518
458
390
351
263
162
80
-14
-99
-151
-195
-240
-262
-261
-260
-264
-261
-247
-225
-211
-211
-211
-204
-201
-203
-204
-206
-204
-197
-199
-208
-209
-207
-213
-216
-215
-221
-220
-208
-197
-172
-123
-93
-112
-151
-163
-157
-164
-161
-144
-160
-162
-118
-163
-264
-123
537
1871
3139
2703
667
-629
-372
-45
-207
-227
-130
-173
-182
-130
-129
-116
-72
-52
-33
7
38
67
121
184
242
302
363
413
451
471
473
469
453
397
301
198
97
-8
-108
-189
-246
-281
-309
-327
-326
-315
-309
-305
-293
-284
-276
-265
-256
-250
-247
-251
-258
-253
-244
-245
-250
-250
-254
-268
-276
-270
-259
-241
-204
-166
-158
-183
-208
-207
-200
-205
-197
-193
-212
-186
-151
-239
-304
-7
918
2398
3266
2186
166
-604
-219
-100
-271
-227
-176
-222
-191
-149
-158
-138
-94
-71
-43
-5
29
72
125
178
240
308
366
407
440
463
468
455
419
350
253
151
45
-68
-168
-229
-264
-297
-323
-330
-323
-311
-300
-298
-295
-280
-265
-263
-259
-249
-247
-246
-240
-239
-248
-250
-242
-239
-243
-244
-240
-237
-237
-233
-230
-239
-252
-247
-223
-192
-156
-125
-120
-141
-158
-158
-164
-166
-144
-142
-162
-130
-120
-228
-241
172
1238
2670
3105
1653
-152
-520
-110
-103
-234
-169
-154
-180
-130
-107
-114
-84
-54
-37
-4
27
55
106
166
213
262
318
369
410
441
450
443
437
419
363
272
172
73
-27
-114
-176
-221
-252
-271
-283
-286
-276
-266
-267
-263
-247
-239
-240
-236
-231
-234
-234
-229
-232
-242
-240
-231
-231
-237
-238
-233
-230
-231
-231
-220
-215
-231
-245
-234
-215
-188
-145
-112
-115
-137
-150
-152
-157
-163
-153
-148
-155
-128
-118
-207
-237
105
1085
2447
2895
1553
-171
-552
-140
-94
-217
-162
-144
-173
-128
-96
-102
-80
-51
-35
-4
35
63
94
142
198
249
296
339
376
402
410
404
394
374
324
249
167
81
-9
-94
-156
-200
-234
-254
-260
-259
-256
-249
-242
-240
-235
-223
-213
-212
-213
-211
-209
-215
-220
-211
-205
-212
-217
-214
-214
-210
-200
-200
-208
-199
-183
-180
-184
-190
-202
-210
-205
-187
-155
-110
-81
-85
-108
-127
-135
-142
-136
-117
-123
-141
-112
-106
-188
-186
203
1229
2519
2704
1195
-354
-501
-89
-104
-199
-124
-123
-155
-113
-90
-91
-67
-41
-23
10
44
75
110
152
197
246
296
341
372
386
394
393
378
350
311
249
166
80
1
-76
-141
-188
-223
-244
-250
-253
-257
-247
-230
-221
-219
-217
-212
-208
-212
-220
-220
-214
-215
-225
-236
-236
-227
-224
-225
-222
-220
-216
-211
-213
-217
-221
-233
-233
-213
-189
-162
-125
-102
-114
-142
-156
-155
-156
-153
-145
-153
-152
-126
-159
-228
-102
524
1777
2826
2243
384
-645
-336
-49
-188
-197
-120
-156
-152
-100
-95
-83
-50
-35
-11
27
50
75
126
175
216
264
313
350
375
387
385
378
368
337
277
200
124
42
-43
-118
-181
-225
-241
-249
-263
-266
-255
-245
-239
-233
-229
-224
-221
-220
-219
-223
-224
-216
-209
-215
-227
-234
-234
-227
-224
-226
-223
-211
-205
-213
-217
-204
-181
-150
-116
-102
-123
-149
-152
-154
-166
-160
-151
-152
-129
-129
-192
-179
169
1168
2565
2880
1276
-501
-698
-176
-137
-237
-145
-128
-158
-109
-91
-104
-65
-22
-11
11
48
83
125
175
216
250
298
354
391
403
401
388
369
342
287
208
126
48
-33
-112
-175
-221
-256
-280
-281
-272
-277
-278
-257
-238
-240
-241
-232
-227
-221
-216
-223
-228
-219
-215
-223
-229
-229
-226
-220
-222
-229
-232
-234
-238
-233
-215
-179
-136
-120
-141
-164
-163
-162
-177
-175
-158
-171
-166
-127
-176
-271
-137
488
1725
2857
2427
583
-587
-367
-59
-182
-211
-140
-170
-171
-121
-111
-103
-80
-63
-31
7
31
62
111
160
206
257
308
346
372
391
397
387
364
324
258
176
84
-13
-94
-151
-201
-246
-273
-283
-282
-281
-282
-275
-258
-246
-246
-240
-226
-224
-226
-219
-216
-221
-218
-213
-217
-220
-217
-214
-217
-227
-234
-231
-223
-210
-178
-134
-107
-116
-152
-172
-161
-159
-166
-153
-149
-161
-134
-137
-228
-216
200
1249
2557
2765
1260
-311
-485
-91
-112
-209
-138
-137
-159
-113
-97
-96
-60
-35
-20
13
46
74
112
162
215
263
308
356
395
411
414
409
393
360
307
230
140
51
-38
-117
-172
-211
-246
-264
-264
-264
-263
-253
-241
-234
-228
-219
-212
-208
-204
-203
-212
-213
-202
-198
-207
-211
-206
-205
-206
-205
-205
-208
-206
-197
-195
-200
-193
-180
-178
-178
-165
-158
-173
-196
-204
-194
-174
-137
-87
-57
-72
-108
-121
-114
-122
-128
-111
-115
-120
-86
-114
-200
-86
486
1616
2710
2441
753
-476
-353
-24
-128
-183
-105
-122
-138
-93
-73
-66
-42
-18
8
33
52
88
139
177
212
266
318
354
385
408
413
409
403
381
338
270
176
78
-2
-74
-143
-194
-224
-248
-267
-269
-264
-263
-258
-242
-227
-226
-230
-232
-235
-236
-229
-221
-222
-229
-236
-236
-228
-220
-222
-223
-218
-218
-219
-203
-185
-191
-201
-195
-189
-190
-193
-200
-199
-169
-120
-79
-61
-72
-114
-147
-138
-126
-136
-135
-132
-138
-113
-115
-196
-180
200
1203
2550
2833
1272
-437
-623
-138
-118
-215
-126
-116
-151
-108
-80
-76
-45
-20
2
36
67
95
132
176
230
286
331
368
401
419
423
418
400
366
316
251
170
81
-7
-86
-149
-195
-236
-267
-272
-263
-262
-264
-257
-246
-235
-226
-224
-223
-214
-205
-205
-205
-202
-207
-219
-218
-207
-204
-211
-213
-205
-196
-194
-199
-200
-190
-182
-181
-181
-175
-170
-165
-159
-164
-179
-185
-179
-162
-125
-76
-49
-54
-76
-106
-118
-113
-118
-116
-106
-122
-117
-82
-142
-218
-2
736
1972
2860
2154
363
-541
-244
-25
-159
-157
-102
-140
-127
-79
-77
-69
-39
-13
15
42
69
104
149
196
241
285
343
401
432
437
439
440
422
379
319
241
145
53
-30
-108
-168
-207
-241
-267
-270
-267
-270
-269
-257
-245
-237
-239
-238
-225
-212
-211
-216
-221
-221
-216
-218
-225
-225
-218
-216
-217
-217
-214
-208
-204
-202
-194
-187
-188
-192
-186
-173
-166
-171
-175
-164
-152
-153
-164
-177
-182
-165
-125
-80
-45
-32
-50
-83
-100
-99
-104
-104
-95
-110
-122
-76
-73
-167
-126
334
1342
2496
2577
1118
-315
-426
-45
-77
-172
-99
-92
-118
-83
-61
-50
-21
-3
12
46
79
106
145
188
227
275
335
388
422
443
453
450
439
418
373
302
217
126
34
-46
-109
-162
-206
-232
-246
-257
-258
-250
-243
-237
-225
-218
-220
-214
-202
-198
-201
-203
-205
-207
-209
-211
-210
-210
-214
-212
-201
-199
-208
-208
-199
-195
-190
-177
-171
-176
-175
-168
-165
-166
-164
-154
-143
-145
-148
-139
-136
-141
-133
-119
-123
-141
-155
-148
-112
-60
-21
-11
-32
-69
-95
-96
-94
-99
-90
-80
-105
-105
-75
-121
-172
55
841
2128
2879
1922
125
-563
-183
-30
-174
-140
-85
-124
-107
-71
-75
-50
-7
8
18
47
84
116
150
198
249
292
341
392
411
412
432
447
427
394
349
267
170
86
0
-86
-148
-194
-239
-263
-263
-263
-265
-263
-257
-251
-243
-235
-231
-234
-233
-223
-218
-223
-225
-226
-231
-233
-230
-228
-228
-229
-230
-227
-219
-213
-211
-208
-205
-206
-204
-194
-184
-185
-189
-181
-167
-167
-179
-189
-189
-173
-136
-92
-61
-51
-63
-93
-116
-116
-115
-122
-112
-106
-125
-106
-75
-141
-193
54
858
2170
2923
1904
47
-624
-200
-35
-178
-134
-76
-120
-102
-55
-52
-39
-8
12
32
62
99
138
172
214
271
326
375
420
449
459
461
459
440
392
319
235
146
53
-38
-113
-168
-215
-254
-266
-262
-267
-271
-259
-245
-242
-239
-234
-228
-216
-206
-207
-207
-198
-192
-200
-209
-210
-210
-212
-207
-200
-200
-206
-205
-198
-191
-187
-188
-190
-180
-170
-172
-173
-163
-158
-160
-155
-152
-153
-144
-133
-136
-145
-155
-160
-145
-111
-71
-33
-18
-42
-80
-95
-90
-94
-102
-95
-95
-105
-78
-69
-154
-167
170
1064
2315
2783
1569
-102
-514
-106
-42
-171
-113
-85
-126
-90
-48
-51
-38
-14
7
36
66
94
130
171
217
270
323
371
414
444
457
459
454
435
391
326
250
164
65
-31
-109
-171
-216
-245
-271
-285
-275
-258
-260
-265
-250
-236
-238
-238
-223
-213
-216
-218
-215
-214
-213
-213
-223
-233
-225
-211
-212
-216
-211
-206
-203
-199
-200
-199
-187
-176
-178
-179
-172
-166
-164
-159
-155
-158
-155
-139
-129
-135
-144
-156
-164
-149
-107
-60
-26
-17
-40
-78
-96
-92
-97
-113
-101
-87
-105
-93
-66
-131
-178
88
900
2123
2740
1737
47
-538
-159
-26
-157
-115
-67
-112
-94
-49
-44
-29
0
15
37
75
102
126
169
224
271
316
372
418
443
459
469
459
436
410
358
274
177
85
-4
-88
-155
-201
-234
-254
-262
-268
-272
-260
-242
-238
-239
-230
-220
-215
-211
-208
-210
-210
-207
-209
-216
-216
-208
-205
-208
-210
-212
-208
-199
-195
-197
-196
-193
-191
-184
-178
-179
-174
-162
-157
-158
-153
-145
-143
-142
-141
-137
-132
-133
-140
-153
-160
-138
-89
-47
-24
-21
-46
-83
-95
-91
-103
-108
-92
-102
-116
-81
-93
-177
-102
412
1511
2661
2509
851
-468
-396
-29
-113
-182
-101
-112
-131
-85
-65
-62
-35
-2
23
42
60
94
139
180
222
269
317
366
415
449
458
453
443
421
379
311
224
134
48
-38
-119
-182
-223
-252
-275
-284
-277
-272
-271
-264
-256
-248
-235
-228
-233
-233
-227
-231
-237
-235
-231
-231
-230
-227
-224
-228
-238
-236
-224
-218
-215
-206
-202
-199
-187
-180
-185
-187
-192
-204
-205
-185
-157
-118
-74
-59
-73
-93
-115
-134
-143
-147
-135
-125
-145
-143
-114
-156
-201
-13
679
1975
2942
2126
129
-806
-372
-62
-193
-178
-92
-122
-114
-72
-74
-58
-17
6
26
52
79
123
175
217
260
319
381
424
447
467
480
467
435
398
335
243
149
58
-41
-125
-178
-219
-256
-277
-283
-287
-287
-275
-257
-247
-245
-240
-229
-223
-219
-212
-211
-215
-209
-203
-206
-211
-210
-207
-205
-213
-216
-201
-189
-192
-194
-191
-188
-185
-184
-185
-178
-168
-176
-196
-199
-164
-109
-71
-61
-70
-92
-117
-123
-122
-133
-135
-132
-147
-136
-97
-143
-222
-67
579
1788
2804
2271
463
-595
-326
-36
-168
-185
-111
-149
-146
-90
-88
-86
-52
-30
-3
32
52
83
141
191
226
282
352
406
437
458
470
473
461
423
360
277
185
84
-22
-111
-171
-212
-246
-270
-284
-286
-282
-280
-275
-260
-250
-246
-239
-232
-228
-221
-216
-219
-222
-217
-217
-221
-220
-220
-221
-220
-221
-216
-203
-199
-201
-198
-193
-190
-183
-180
-185
-190
-195
-197
-175
-129
-84
-58
-60
-89
-122
-133
-128
-134
-142
-132
-135
-138
-103
-117
-208
-147
334
1396
2577
2545
948
-442
-439
-59
-121
-189
-110
-130
-149
-89
-70
-72
-42
-23
-10
29
64
84
120
174
227
277
330
379
420
453
467
465
459
438
385
302
205
107
17
-69
-144
-193
-224
-251
-268
-273
-276
-270
-256
-253
-252
-239
-224
-220
-222
-224
-218
-209
-213
-222
-215
-203
-206
-211
-210
-213
-212
-204
-206
-210
-198
-185
-184
-184
-175
-174
-180
-175
-163
-164
-180
-195
-192
-156
-104
-69
-53
-51
-75
-112
-121
-114
-126
-131
-115
-124
-132
-95
-113
-202
-117
421
1526
2622
2400
750
-498
-392
-39
-124
-182
-109
-129
-134
-74
-67
-78
-44
-10
9
37
68
93
127
176
225
270
330
397
435
451
467
474
461
435
389
313
224
129
25
-71
-138
-188
-231
-260
-275
-283
-279
-269
-265
-263
-252
-244
-245
-239
-229
-228
-228
-224
-225
-226
-222
-222
-229
-228
-223
-220
-218
-216
-213
-208
-206
-206
-192
-179
-182
-185
-182
-185
-191
-192
-199
-195
-153
-99
-69
-66
-77
-101
-125
-135
-146
-154
-137
-133
-157
-136
-109
-180
-208
84
950
2295
2933
1718
-169
-718
-238
-84
-208
-151
-107
-150
-123
-84
-80
-51
-18
-8
14
51
81
115
162
210
255
308
368
418
450
465
470
468
452
404
325
237
149
53
-45
-127
-190
-239
-271
-288
-301
-309
-301
-283
-274
-270
-260
-248
-241
-234
-229
-227
-223
-220
-220
-223
-226
-227
-227
-229
-228
-221
-218
-223
-221
-211
-203
-199
-195
-192
-189
-181
-177
-191
-204
-193
-155
-104
-63
-53
-70
-97
-120
-126
-121
-125
-120
-110
-130
-124
-85
-142
-220
-4
758
2041
2950
2188
320
-595
-257
-19
-162
-160
-91
-122
-110
-68
-67
-51
-20
-5
18
52
85
125
169
208
257
321
381
424
455
485
504
502
480
437
371
284
181
78
-10
-86
-154
-205
-236
-258
-269
-274
-280
-278
-262
-247
-238
-231
-227
-222
-215
-221
-229
-217
-207
-215
-224
-223
-220
-223
-231
-235
-226
-217
-219
-226
-222
-211
-208
-212
-208
-199
-199
-199
-191
-187
-188
-186
-191
-206
-215
-200
-159
-115
-91
-83
-87
-116
-151
-155
-148
-161
-158
-144
-165
-166
-125
-171
-244
-49
644
1818
2680
2029
301
-608
-324
-75
-196
-203
-141
-168
-154
-107
-104
-94
-64
-45
-23
6
32
75
125
161
209
274
332
378
420
449
463
466
454
428
381
300
200
111
34
-44
-119
-177
-210
-224
-235
-235
-222
-214
-213
-206
-195
-183
-166
-153
-146
-138
-130
-123
-116
-117
-119
-114
-111
-106
-93
-97
-112
-91
-51
-45
-57
-49
-43
-40
-19
-1
-1
2
10
9
13
17
2
