# session 9
514
417
533
681
279
-494
-764
-593
-616
-695
-602
-627
-791
-818
-736
-690
-714
-816
-906
-866
-770
-750
-792
-840
-876
-898
-940
-971
-936
-928
-634
619
2238
2885
2940
3038
1940
-311
-1381
-983
-852
-1052
-863
-694
-797
-791
-646
-512
-327
-142
-109
-170
-183
-193
-259
-254
-140
-107
-227
-355
-430
-504
-554
-547
-547
-610
-671
-663
-658
-676
-639
-627
-688
-681
-725
-851
-687
-596
-866
-46
2088
3081
2593
2449
1887
-42
-1240
-783
-374
-495
-426
-322
-394
-377
-310
-339
-371
-322
-202
-88
-36
30
65
-88
-265
-226
-123
-137
-152
-107
-89
-86
-54
-53
-93
-114
-135
-182
-171
-124
-97
41
114
-150
192
2009
3513
2542
331
-672
-473
-62
872
2445
3048
1570
-384
-854
-427
-423
-598
-445
-339
-481
-535
-415
-320
-294
-284
-262
-187
-121
-168
-235
-232
-267
-328
-292
-260
-326
-342
-265
-209
-184
-168
-179
-187
-202
-202
-79
78
97
65
46
-69
-205
-225
-169
-103
-110
-179
-59
391
1153
1952
1797
304
-1018
-1027
-609
-571
-583
-522
-559
-559
-465
-432
-443
-379
-254
-143
-63
-14
-16
-41
-41
-55
-99
-87
-59
-58
88
235
68
254
1688
3387
3314
1409
-296
-660
-485
-525
-549
-423
-372
-427
-503
-540
-474
-452
-573
-567
-232
598
2064
2999
1809
-418
-1261
-867
-725
-808
-682
-628
-688
-663
-624
-553
-404
-328
-269
-105
-22
31
169
-13
-199
708
2230
3002
3019
2349
741
-580
-578
-244
-350
-429
-383
-467
-529
-470
-433
-443
-448
-459
-470
-471
-495
-603
-746
-724
-331
593
1767
1991
559
-1069
-1300
-777
-603
-582
-464
-464
-503
-437
-386
-345
-204
-50
57
231
373
349
425
488
118
174
1317
1752
452
-558
-442
-699
-1173
-723
-120
-178
-250
-83
-67
-136
-138
-158
-180
-183
-211
-237
-237
-205
-144
-142
-200
-87
540
1729
2516
1649
-196
-1038
-690
-430
-496
-448
-377
-378
-322
-244
-170
-51
57
131
230
334
392
399
360
296
231
158
68
-22
-84
-92
-69
-62
-61
-45
-46
-69
-73
-74
-115
-157
-154
-148
-180
-205
-215
-261
-279
-232
-284
-398
-226
520
1877
3029
2488
476
-819
-678
-418
-530
-512
-403
-397
-355
-266
-206
-120
-3
100
193
246
227
175
125
84
63
50
22
-4
-24
-63
-111
-144
-181
-230
-267
-297
-328
-346
-350
-348
-337
-343
-372
-373
-362
-357
-279
-216
-338
-411
-95
686
1839
2460
1395
-461
-1176
-908
-816
-833
-732
-672
-544
-561
-641
393
2281
2666
1098
-248
-362
-120
-91
-181
-242
-232
-303
-387
-325
-434
-563
223
1815
2890
2609
1159
-386
-916
-698
-629
-687
-585
-505
-497
-455
-474
-534
-451
-369
-515
-633
-303
707
2232
2992
1742
-277
-942
-558
-458
-561
-478
-443
-465
-367
-251
-183
-82
1
0
29
159
231
147
38
8
22
38
43
36
20
-11
-45
-55
-56
-71
-105
-149
-160
-132
-131
-145
-102
-65
-124
-186
-182
-196
-218
-208
-292
-421
-294
273
1316
2262
1826
86
-995
-709
-343
-434
-455
-378
-400
-380
-291
-226
-150
-52
34
118
176
171
138
112
63
-15
-52
-14
44
77
89
87
60
16
-15
-40
-84
-125
-131
-133
-167
-188
-167
-172
-209
-210
-220
-258
-223
-215
-372
-446
-134
768
2145
2718
1385
-443
-880
-502
-475
-556
-447
-377
-321
-214
-163
-111
-14
45
83
146
169
130
76
29
1
-2
3
7
6
-1
-4
-14
-50
-98
-142
-197
-248
-275
-294
-309
-295
-271
-284
-313
-319
-337
-353
-309
-311
-467
-590
-344
600
2015
2513
1214
-403
-727
-419
-460
-509
-393
-440
-421
-226
-320
-304
722
2066
2421
2159
2162
2156
1980
2067
1911
763
-518
-812
-594
-614
-688
-638
-636
-656
-629
-636
-674
-676
-658
-650
-645
-620
-563
-531
-553
-552
-517
-500
-472
-485
-625
-663
-282
622
1756
2048
782
-743
-1002
-576
-492
-531
-423
-372
-348
-273
-231
-189
-97
-17
45
115
139
92
26
-12
-9
25
49
53
53
49
47
52
44
5
-55
-98
-103
-118
-161
-180
-172
-183
-188
-173
-165
-150
-150
-200
-204
-167
-246
-323
-127
504
1655
2543
1804
-22
-854
-484
-259
-386
-393
-336
-237
-50
30
17
98
214
275
342
407
393
319
240
182
163
153
124
114
126
107
71
53
14
-48
-86
-117
-161
-176
-169
-195
-227
-217
-210
-248
-262
-235
-234
-225
-188
-245
-351
-198
474
1520
2001
1061
-408
-857
-483
-331
-389
-314
-253
-261
-212
-137
-77
3
94
174
226
236
208
158
94
48
41
57
63
52
45
45
23
-24
-61
-82
-125
-185
-217
-217
-233
-269
-284
-262
-261
-313
-342
-333
-345
-313
-250
-345
-472
-246
439
1434
2045
1275
-329
-983
-560
-300
-371
-312
-244
-256
-187
-91
-38
49
162
247
316
355
332
268
194
125
95
105
107
89
99
135
136
102
75
50
-4
-66
-91
-90
-98
-112
-93
-57
-75
-128
-144
-154
-179
-146
-152
-296
-354
-67
789
2151
2765
1497
-298
-735
-356
-340
-447
-355
-327
-344
-260
-183
-146
-76
6
63
100
112
93
45
-21
-68
-61
-34
-47
-94
-119
-118
-135
-171
-190
-197
-224
-265
-289
-282
-268
-264
-241
-193
-182
-207
-209
-217
-244
-208
-187
-325
-460
-229
692
2087
2643
1444
-181
-613
-339
-326
-403
-344
-333
-349
-312
-269
-205
-113
-41
19
84
126
123
81
47
71
108
88
56
67
73
38
2
-29
-75
-118
-145
-170
-194
-210
-215
-214
-214
-195
-157
-160
-207
-236
-256
-248
-198
-241
-364
-277
241
1218
2068
1585
-80
-1037
-679
-285
-338
-304
-194
-225
-218
-110
-23
28
85
158
242
301
303
283
261
218
181
182
176
145
135
134
92
36
4
-29
-74
-106
-139
-177
-172
-145
-155
-166
-148
-160
-202
-216
-231
-236
-177
-182
-293
-236
214
1075
1950
1794
365
-797
-704
-294
-279
-266
-148
-162
-187
-99
-30
-5
95
252
347
391
432
410
315
241
188
136
123
106
46
24
14
-46
-51
-6
-60
-143
-125
-119
-188
-230
-244
-267
-248
-202
-210
-249
-259
-269
-282
-251
-234
-276
-139
496
1339
1400
302
-826
-930
-486
-282
-261
-233
-229
-194
-136
-109
-18
129
200
268
425
537
511
424
322
201
103
42
-36
-111
-118
-122
-196
-244
-209
-190
-210
-211
-204
-210
-211
-230
-273
-291
-284
-304
-338
-345
-346
-351
-329
-334
-394
-287
300
1218
1567
683
-600
-958
-535
-282
-297
-243
-163
-116
-40
27
71
153
256
344
425
472
453
394
328
263
210
175
148
130
123
120
112
93
66
42
21
-6
-33
-53
-75
-103
-120
-108
-103
-139
-168
-173
-202
-197
-146
-245
-458
-352
426
1720
2517
1735
87
-658
-416
-291
-393
-338
-268
-278
-243
-194
-152
-67
15
71
144
204
198
144
76
15
-14
-13
-18
-37
-48
-56
-79
-113
-139
-156
-178
-214
-245
-252
-251
-261
-268
-246
-212
-220
-253
-255
-264
-289
-240
-231
-418
-533
-181
824
2191
2616
1223
-487
-789
-370
-344
-415
-308
-285
-293
-207
-136
-72
40
126
168
217
247
215
148
89
53
39
36
26
1
-23
-35
-45
-63
-83
-100
-121
-142
-159
-169
-171
-168
-166
-149
-117
-125
-177
-190
-173
-201
-206
-194
-320
-434
-202
548
1768
2563
1708
-85
-835
-467
-266
-361
-307
-240
-256
-210
-135
-81
-8
70
134
196
225
197
135
68
16
14
51
60
19
-17
-27
-49
-87
-121
-157
-192
-214
-237
-260
-257
-242
-253
-265
-235
-204
-225
-248
-245
-277
-298
-249
-284
-449
-477
-57
1124
2596
2625
770
-768
-712
-355
-463
-458
-305
-309
-302
-203
-139
-88
-11
61
145
218
212
146
85
43
19
17
20
13
6
2
-17
-48
-67
-80
-108
-145
-179
-203
-206
-190
-191
-211
-200
-159
-158
-185
-184
-192
-201
-140
-142
-294
-306
90
960
2035
2208
860
-560
-675
-267
-260
-312
-207
-175
-162
-79
-3
77
181
263
328
390
411
377
317
256
211
188
167
138
112
105
104
90
66
35
-1
-43
-91
-145
-188
-203
-202
-199
-184
-165
-180
-209
-205
-208
-217
-166
-183
-354
-410
-69
797
1924
2154
840
-578
-739
-397
-418
-470
-377
-369
-370
-292
-235
-186
-104
-35
25
83
92
50
-5
-64
-104
-102
-92
-105
-117
-121
-126
-124
-122
-143
-167
-179
-201
-239
-273
-294
-305
-293
-250
-200
-196
-233
-240
-230
-253
-233
-189
-293
-454
-319
415
1714
2565
1745
20
-723
-451
-322
-405
-332
-276
-298
-246
-165
-104
-16
76
148
226
279
275
241
196
139
97
94
106
96
72
61
62
52
23
-12
-42
-68
-91
-111
-120
-118
-132
-160
-154
-128
-144
-173
-182
-218
-234
-183
-236
-396
-317
209
1165
2047
1712
156
-851
-595
-245
-298
-255
-144
-157
-122
-39
-27
-1
84
154
211
277
299
245
178
148
138
128
128
131
129
129
117
83
44
5
-46
-94
-128
-160
-185
-197
-214
-237
-228
-192
-202
-253
-271
-277
-274
-221
-249
-424
-487
-121
979
2523
2880
1195
-604
-802
-390
-426
-486
-370
-351
-334
-236
-167
-100
-4
68
137
218
250
210
127
40
-12
-25
-33
-54
-70
-75
-79
-88
-103
-122
-146
-178
-217
-252
-276
-293
-317
-335
-313
-277
-295
-329
-315
-318
-329
-277
-317
-513
-522
0
1205
2559
2509
683
-838
-784
-375
-430
-435
-307
-305
-291
-205
-151
-76
46
150
235
304
313
258
174
102
68
53
28
1
-13
-21
-23
-27
-48
-78
-94
-111
-145
-171
-171
-168
-177
-179
-146
-118
-160
-208
-190
-186
-187
-122
-167
-332
-241
253
1140
2181
2205
688
-685
-666
-288
-353
-379
-248
-228
-209
-124
-73
-8
111
213
289
349
354
302
232
166
110
71
42
13
-21
-52
-72
-89
-111
-134
-152
-179
-212
-230
-230
-234
-236
-212
-172
-171
-210
-225
-228
-252
-224
-183
-312
-502
-380
384
1754
2655
1820
66
-677
-405
-298
-418
-371
-312
-315
-258
-189
-138
-52
40
113
190
238
216
148
81
36
20
18
2
-28
-49
-57
-71
-90
-106
-129
-152
-168
-192
-222
-232
-226
-227
-208
-161
-158
-206
-213
-201
-241
-238
-197
-309
-447
-204
631
1799
2266
1178
-391
-810
-419
-307
-367
-268
-207
-210
-155
-102
-60
16
93
163
238
266
228
161
92
41
38
63
67
45
30
19
-5
-36
-61
-81
-96
-121
-162
-180
-166
-173
-213
-228
-203
-199
-237
-260
-254
-268
-263
-221
-275
-389
-259
330
1353
2145
1584
-31
-896
-559
-231
-290
-257
-162
-168
-144
-75
-13
78
185
274
355
414
420
364
279
219
191
165
145
125
80
33
14
-5
-29
-35
-66
-151
-207
-182
-157
-193
-249
-270
-249
-216
-212
-239
-273
-313
-326
-282
-277
-366
-376
-44
790
1730
1678
348
-816
-784
-356
-298
-326
-243
-193
-154
-101
-60
36
180
288
363
436
478
468
412
329
245
172
103
34
-12
-28
-39
-67
-99
-116
-119
-133
-166
-194
-206
-212
-215
-221
-233
-229
-224
-260
-294
-272
-268
-306
-295
-273
-324
-281
157
1037
1736
1283
-125
-981
-726
-332
-310
-293
-203
-189
-171
-98
-23
56
147
247
361
442
438
375
288
188
99
46
16
-17
-51
-70
-75
-76
-82
-101
-122
-129
-136
-160
-173
-158
-153
-176
-187
-167
-170
-225
-255
-240
-253
-243
-180
-256
-425
-300
327
1434
2405
1972
270
-736
-430
-128
-268
-271
-164
-173
-148
-65
-17
45
133
199
256
292
248
149
84
61
30
5
10
3
-25
-31
-34
-81
-135
-144
-131
-144
-181
-201
-193
-195
-219
-219
-186
-164
-172
-192
-191
-171
-191
-219
-165
-182
-386
-487
-108
999
2491
2860
1307
-400
-636
-284
-345
-427
-328
-321
-330
-256
-200
-149
-66
16
97
151
135
90
48
-16
-72
-70
-45
-52
-64
-50
-32
-32
-47
-71
-91
-101
-125
-162
-185
-196
-207
-220
-243
-257
-228
-202
-230
-248
-227
-242
-258
-213
-251
-434
-483
-11
1144
2290
2049
446
-684
-570
-280
-340
-336
-237
-217
-178
-99
-45
21
123
219
278
290
272
238
190
149
135
122
101
87
75
54
37
21
-6
-42
-74
-105
-143
-176
-186
-192
-211
-226
-230
-242
-247
-230
-241
-280
-277
-270
-312
-301
-245
-313
-398
-197
504
1654
2283
1246
-516
-1036
-496
-261
-343
-262
-185
-199
-163
-98
-31
66
176
292
388
422
410
369
301
243
225
219
186
123
83
78
58
11
-42
-88
-101
-95
-135
-201
-220
-217
-230
-232
-227
-232
-215
-202
-251
-301
-285
-279
-297
-264
-266
-362
-321
157
1147
2041
1691
168
-837
-638
-287
-307
-285
-192
-198
-183
-111
-52
33
158
269
356
421
443
410
320
207
126
73
22
-12
-31
-60
-85
-89
-92
-102
-109
-123
-139
-145
-163
-196
-208
-197
-212
-243
-230
-191
-209
-260
-261
-256
-279
-251
-239
-343
-329
122
1097
2149
2103
582
-793
-788
-332
-316
-360
-257
-229
-215
-134
-61
18
120
211
300
382
405
358
264
156
79
36
3
-22
-35
-51
-65
-54
-41
-52
-74
-87
-96
-117
-147
-161
-156
-157
-177
-184
-156
-141
-183
-221
-209
-218
-223
-156
-188
-357
-299
229
1284
2522
2588
898
-687
-722
-284
-326
-374
-262
-269
-282
-205
-155
-116
-34
54
135
193
191
140
78
23
-25
-67
-98
-121
-144
-173
-200
-222
-239
-259
-282
-300
-314
-330
-348
-359
-362
-362
-364
-353
-323
-310
-340
-356
-330
-346
-374
-297
-278
-477
-568
-112
1112
2740
3218
1587
-395
-811
-415
-404
-484
-376
-344
-342
-259
-198
-138
-22
78
152
248
315
287
222
184
147
104
101
117
91
54
58
67
51
34
26
7
-15
-23
-19
-17
-13
4
20
11
3
31
65
69
50
