# session 38
-31
-57
-14
63
-10
-202
-251
-166
-138
-149
-146
-181
-227
-222
-209
-222
-224
-219
-229
-213
-179
-217
-268
-102
583
1884
2856
2077
125
-821
-415
-93
-217
-216
-129
-147
-140
-101
-108
-95
-51
-30
-8
35
69
98
142
185
221
268
317
359
403
440
456
462
460
438
387
309
220
126
5
-115
-173
-199
-263
-323
-314
-285
-293
-309
-297
-282
-283
-277
-251
-236
-252
-269
-265
-248
-236
-242
-258
-262
-256
-248
-235
-228
-239
-243
-227
-224
-228
-206
-187
-204
-221
-214
-212
-203
-163
-122
-105
-91
-87
-120
-150
-143
-139
-148
-135
-133
-146
-121
-131
-214
-152
305
1307
2500
2614
1106
-389
-483
-57
-82
-189
-111
-80
-93
-78
-75
-49
-1
11
16
48
83
114
152
188
221
267
329
386
427
459
482
490
495
490
453
387
309
221
120
9
-92
-165
-221
-262
-272
-273
-291
-297
-272
-251
-248
-249
-251
-253
-244
-235
-234
-236
-244
-250
-241
-237
-240
-232
-231
-249
-251
-234
-226
-222
-214
-217
-219
-205
-194
-199
-199
-194
-196
-192
-186
-196
-202
-183
-149
-104
-64
-58
-84
-118
-141
-139
-135
-143
-130
-119
-136
-119
-107
-182
-161
235
1143
2282
2552
1273
-230
-475
-83
-67
-165
-98
-99
-130
-68
-34
-53
-36
-5
10
39
82
113
138
175
220
265
309
354
398
442
479
495
491
479
462
423
345
240
135
38
-52
-128
-191
-234
-254
-262
-271
-274
-267
-269
-271
-250
-230
-241
-247
-231
-225
-232
-233
-231
-234
-242
-248
-237
-220
-219
-232
-237
-227
-212
-208
-209
-203
-195
-195
-193
-189
-194
-194
-174
-154
-161
-177
-174
-170
-182
-175
-125
-76
-56
-51
-62
-98
-128
-126
-116
-114
-107
-121
-149
-119
-86
-155
-174
135
932
2055
2552
1539
-33
-519
-133
-9
-141
-121
-75
-89
-72
-58
-50
-14
5
15
53
78
86
129
185
211
242
301
350
376
415
455
461
452
465
472
435
362
268
162
64
-21
-105
-178
-222
-251
-274
-280
-270
-270
-281
-273
-249
-242
-247
-245
-237
-235
-236
-237
-238
-246
-259
-254
-236
-235
-239
-228
-218
-222
-221
-213
-216
-227
-227
-205
-185
-188
-199
-191
-173
-171
-179
-186
-192
-193
-178
-138
-80
-49
-73
-107
-116
-118
-131
-142
-135
-113
-115
-129
-103
-105
-179
-145
260
1240
2451
2600
1123
-373
-494
-78
-88
-176
-98
-89
-115
-76
-58
-61
-28
7
21
40
76
115
145
172
212
262
306
342
386
437
468
477
488
489
458
408
340
244
132
19
-81
-145
-189
-242
-283
-293
-294
-297
-296
-301
-299
-276
-260
-266
-272
-274
-272
-261
-258
-272
-278
-273
-270
-269
-266
-265
-261
-246
-234
-245
-263
-250
-210
-203
-237
-260
-248
-213
-161
-118
-105
-113
-135
-162
-167
-159
-175
-189
-173
-167
-153
-120
-162
-226
-61
579
1811
2889
2329
366
-789
-460
-80
-175
-172
-77
-111
-123
-72
-53
-42
-12
21
53
73
99
144
176
200
253
319
369
416
456
479
510
536
518
477
433
360
252
138
32
-74
-167
-227
-262
-296
-323
-322
-307
-307
-307
-298
-288
-280
-274
-267
-256
-254
-259
-250
-248
-268
-271
-254
-257
-273
-265
-249
-256
-261
-243
-230
-238
-233
-215
-225
-250
-241
-205
-169
-135
-113
-124
-146
-157
-163
-170
-166
-152
-160
-184
-152
-113
-195
-252
32
866
2159
2920
1958
99
-642
-240
-46
-193
-173
-109
-130
-108
-75
-79
-59
-27
-9
21
56
78
110
157
204
253
303
353
408
463
496
506
510
510
483
423
343
236
106
-2
-75
-154
-240
-286
-297
-307
-321
-321
-309
-298
-288
-277
-276
-278
-260
-238
-248
-265
-257
-252
-263
-264
-252
-247
-247
-245
-240
-232
-238
-252
-246
-223
-216
-232
-253
-252
-217
-168
-131
-113
-114
-137
-159
-158
-162
-187
-176
-143
-161
-164
-119
-174
-259
-40
697
1883
2726
2053
322
-568
-271
-38
-173
-176
-102
-120
-109
-74
-74
-60
-32
-16
17
56
72
96
149
203
242
283
331
380
426
462
480
483
480
465
409
318
227
144
45
-66
-149
-201
-248
-287
-298
-288
-282
-285
-290
-289
-275
-250
-234
-242
-253
-249
-240
-247
-258
-249
-242
-251
-248
-235
-243
-251
-237
-225
-224
-221
-223
-229
-233
-243
-240
-207
-170
-143
-113
-99
-118
-147
-165
-170
-164
-151
-147
-163
-165
-124
-126
-210
-176
235
1184
2332
2494
1124
-311
-474
-98
-96
-172
-101
-101
-126
-78
-54
-59
-34
0
25
49
67
95
142
185
212
249
307
364
406
438
462
474
472
457
429
378
297
195
88
-2
-71
-144
-213
-242
-245
-263
-277
-268
-260
-258
-248
-243
-247
-241
-229
-231
-235
-234
-243
-248
-233
-227
-243
-249
-235
-227
-226
-215
-209
-223
-229
-212
-195
-186
-182
-189
-195
-191
-201
-220
-210
-161
-106
-79
-82
-92
-105
-124
-136
-144
-152
-130
-114
-146
-135
-87
-156
-226
46
847
2012
2628
1716
71
-559
-200
-37
-161
-137
-97
-133
-91
-29
-41
-46
-15
6
26
61
91
115
151
187
221
268
331
387
422
440
450
456
456
445
409
340
250
148
38
-60
-117
-154
-209
-262
-278
-277
-287
-289
-282
-281
-272
-258
-270
-285
-263
-241
-249
-254
-253
-274
-288
-268
-250
-255
-260
-256
-250
-244
-234
-226
-225
-225
-224
-230
-235
-222
-201
-180
-144
-106
-103
-132
-160
-164
-158
-171
-181
-160
-146
-135
-108
-151
-228
-91
529
1741
2793
2261
391
-705
-398
-56
-164
-164
-83
-125
-119
-58
-57
-49
-8
7
21
61
94
124
167
204
234
278
326
364
400
438
461
459
446
433
399
334
255
163
52
-48
-112
-165
-224
-264
-279
-279
-267
-270
-284
-267
-237
-244
-259
-242
-227
-242
-257
-251
-249
-262
-262
-245
-242
-256
-250
-233
-233
-234
-221
-215
-221
-219
-224
-249
-257
-216
-163
-138
-122
-100
-106
-145
-163
-151
-158
-170
-149
-146
-165
-129
-116
-210
-197
241
1279
2505
2619
1108
-387
-491
-75
-97
-192
-110
-104
-142
-111
-89
-78
-35
-8
-4
23
62
84
114
163
207
242
281
319
361
412
441
440
437
429
394
336
265
176
72
-37
-128
-182
-218
-256
-278
-284
-291
-295
-286
-263
-246
-251
-259
-248
-235
-240
-250
-254
-255
-252
-248
-251
-252
-242
-235
-246
-254
-238
-220
-228
-250
-257
-245
-232
-222
-194
-152
-128
-132
-150
-160
-158
-171
-186
-165
-150
-163
-134
-117
-206
-223
133
1037
2231
2596
1369
-191
-519
-118
-63
-178
-122
-90
-116
-94
-83
-80
-30
11
14
23
62
110
144
166
200
248
293
334
377
417
444
455
454
449
430
375
293
205
104
-3
-88
-150
-203
-240
-254
-258
-259
-253
-249
-258
-265
-251
-228
-225
-243
-252
-236
-224
-236
-251
-252
-246
-245
-245
-237
-230
-233
-233
-220
-215
-223
-220
-212
-216
-217
-214
-227
-236
-213
-174
-136
-102
-93
-116
-139
-142
-142
-146
-129
-107
-131
-147
-102
-115
-193
-84
454
1494
2491
2234
665
-474
-343
-18
-110
-156
-77
-87
-85
-41
-48
-44
-1
16
29
68
88
97
141
198
235
272
318
355
386
417
430
426
432
440
407
336
262
190
101
4
-84
-154
-205
-233
-243
-244
-248
-250
-250
-245
-234
-219
-216
-222
-226
-234
-241
-234
-234
-252
-251
-236
-243
-241
-213
-204
-221
-221
-209
-208
-207
-198
-193
-200
-207
-200
-183
-172
-167
-160
-156
-159
-160
-159
-162
-166
-168
-150
-94
-39
-36
-64
-91
-119
-134
-120
-98
-89
-103
-115
-93
-105
-183
-143
267
1217
2359
2496
1118
-287
-417
-41
-63
-160
-97
-99
-125
-73
-45
-46
-18
4
10
33
70
104
134
162
196
241
278
317
369
407
416
424
437
430
408
380
325
239
142
46
-49
-131
-188
-221
-242
-257
-265
-262
-255
-250
-248
-244
-240
-246
-262
-264
-247
-248
-267
-265
-240
-234
-243
-239
-233
-239
-245
-236
-221
-216
-222
-220
-210
-207
-197
-182
-186
-200
-198
-190
-191
-174
-127
-88
-91
-112
-130
-145
-150
-145
-139
-133
-140
-148
-119
-116
-183
-156
238
1238
2493
2633
1067
-496
-581
-93
-78
-176
-100
-91
-118
-75
-54
-53
-25
-5
14
60
95
108
139
181
213
248
292
335
377
405
408
403
406
402
378
332
269
188
90
-4
-77
-141
-201
-240
-255
-260
-269
-277
-270
-249
-236
-243
-254
-251
-236
-232
-248
-255
-244
-243
-253
-249
-242
-244
-237
-223
-217
-218
-225
-234
-221
-198
-202
-210
-189
-180
-200
-213
-212
-200
-150
-91
-73
-82
-101
-139
-156
-130
-117
-131
-140
-152
-140
-88
-117
-207
-79
530
1666
2644
2200
501
-561
-332
-16
-122
-157
-90
-106
-97
-55
-56
-48
-23
-9
25
67
83
108
158
196
222
262
314
360
392
414
441
460
445
419
399
347
258
163
62
-35
-103
-160
-218
-251
-257
-267
-281
-272
-251
-256
-267
-248
-225
-228
-239
-244
-246
-243
-238
-240
-254
-264
-246
-222
-230
-246
-237
-225
-218
-207
-216
-229
-209
-191
-203
-207
-207
-221
-211
-178
-156
-121
-72
-76
-120
-134
-134
-161
-173
-141
-133
-167
-150
-100
-148
-215
-38
605
1736
2588
1977
322
-552
-291
-51
-138
-128
-81
-120
-112
-67
-58
-48
-19
13
42
62
82
114
145
180
233
282
309
345
399
434
437
437
444
434
393
326
245
157
68
-20
-112
-183
-219
-244
-268
-273
-267
-266
-258
-244
-240
-246
-255
-258
-245
-232
-242
-253
-244
-236
-243
-246
-240
-240
-243
-234
-221
-222
-229
-223
-207
-201
-210
-228
-243
-230
-184
-135
-101
-88
-102
-128
-149
-164
-168
-151
-135
-149
-169
-147
-134
-189
-183
134
982
2140
2500
1311
-212
-536
-129
-55
-168
-121
-96
-119
-80
-57
-67
-35
8
19
34
69
105
134
155
188
248
298
319
356
408
432
430
428
421
390
341
283
210
116
15
-77
-147
-193
-229
-259
-268
-259
-256
-258
-247
-236
-239
-240
-233
-239
-250
-242
-228
-235
-251
-249
-234
-234
-238
-227
-226
-245
-240
-209
-205
-216
-206
-209
-239
-240
-212
-208
-206
-156
-99
-98
-126
-141
-145
-150
-155
-150
-140
-145
-149
-126
-145
-218
-161
273
1267
2405
2423
946
-405
-457
-86
-106
-164
-89
-101
-133
-84
-45
-41
-35
-20
14
52
70
94
130
163
205
260
301
334
377
413
416
405
410
421
400
345
273
189
93
-7
-95
-163
-212
-249
-273
-282
-280
-272
-264
-258
-253
-249
-246
-246
-254
-259
-250
-245
-267
-281
-258
-238
-247
-249
-238
-237
-234
-220
-220
-234
-242
-246
-245
-229
-200
-159
-117
-108
-136
-156
-162
-174
-179
-169
-172
-179
-145
-124
-185
-207
53
899
2223
2792
1548
-251
-712
-229
-83
-186
-119
-83
-130
-99
-59
-63
-40
0
14
32
72
108
136
170
204
238
283
330
365
390
409
420
419
404
377
331
255
157
61
-19
-91
-164
-229
-266
-270
-272
-285
-285
-269
-263
-257
-244
-243
-256
-254
-239
-253
-281
-266
-231
-240
-262
-251
-237
-241
-241
-241
-250
-246
-242
-258
-254
-207
-159
-136
-126
-136
-167
-187
-188
-185
-174
-160
-170
-163
-136
-184
-248
-82
560
1745
2689
2076
300
-634
-313
-49
-175
-168
-104
-145
-123
-62
-70
-73
-36
0
25
40
62
105
141
169
219
279
324
359
390
418
431
426
420
397
334
264
209
125
13
-70
-132
-203
-253
-265
-273
-282
-277
-266
-262
-256
-243
-237
-239
-232
-227
-248
-259
-233
-222
-247
-251
-229
-230
-242
-239
-229
-218
-218
-241
-249
-229
-222
-227
-201
-151
-116
-107
-126
-167
-183
-157
-142
-147
-148
-162
-162
-119
-150
-241
-106
517
1646
2582
2116
465
-540
-317
-33
-138
-159
-94
-118
-110
-60
-51
-39
-13
3
30
57
70
109
165
190
212
270
336
378
401
421
440
442
425
417
403
331
224
131
37
-62
-132
-179
-223
-249
-257
-257
-251
-247
-256
-263
-254
-239
-241
-250
-243
-229
-235
-247
-242
-239
-245
-242
-239
-244
-243
-231
-221
-219
-219
-219
-222
-222
-202
-185
-198
-215
-211
-206
-213
-203
-164
-127
-107
-97
-111
-138
-139
-129
-132
-127
-137
-170
-136
-79
-149
-211
50
792
1895
2518
1688
113
-525
-201
-36
-144
-123
-79
-101
-76
-47
-59
-46
-13
12
45
79
100
130
166
192
228
285
335
363
384
407
426
437
437
426
398
333
236
140
59
-27
-111
-171
-216
-246
-247
-237
-240
-247
-253
-251
-234
-219
-222
-231
-235
-237
-239
-231
-216
-214
-233
-239
-220
-211
-218
-212
-208
-221
-219
-191
-184
-204
-206
-182
-166
-170
-172
-159
-151
-160
-168
-158
-151
-160
-166
-155
-128
-80
-32
-31
-71
-94
-89
-99
-116
-97
-82
-111
-107
-82
-134
-152
122
929
2165
2740
1631
-73
-568
-152
-28
-134
-84
-64
-99
-56
-26
-43
-20
19
33
56
91
121
152
185
217
247
282
331
374
389
410
447
449
418
417
417
353
251
152
46
-52
-120
-176
-220
-244
-269
-290
-285
-278
-282
-274
-258
-255
-263
-272
-276
-273
-272
-282
-290
-288
-284
-289
-292
-280
-268
-268
-273
-275
-272
-266
-262
-255
-247
-256
-274
-274
-260
-246
-221
-185
-156
-146
-166
-198
-203
-195
-208
-210
-195
-204
-201
-160
-197
-284
-148
484
1675
2688
2187
397
-674
-399
-78
-195
-208
-120
-145
-147
-103
-94
-75
-34
-11
8
30
63
110
146
169
217
283
332
360
381
408
440
457
445
420
393
344
259
157
61
-25
-102
-155
-185
-211
-226
-213
-199
-200
-197
-183
-176
-167
-138
-121
-139
-148
-125
-114
-123
-114
-102
-118
-123
-91
-71
-81
-78
-50
-31
-31
-29
-19
-19
-25
-13
11
13
-16
