# session 23
-35
-50
-29
53
57
-73
-154
-124
-101
-88
-57
-67
-111
-125
-128
-148
-143
-121
-139
-145
-103
-148
-258
-159
390
1567
2876
2796
985
-542
-554
-193
-271
-316
-226
-251
-265
-205
-200
-208
-158
-107
-82
-51
-9
39
102
175
251
323
386
439
467
454
429
423
398
314
209
124
38
-55
-134
-197
-251
-278
-282
-299
-321
-299
-255
-249
-266
-260
-245
-245
-247
-244
-246
-255
-254
-250
-266
-286
-275
-256
-264
-275
-264
-246
-219
-178
-155
-174
-201
-203
-203
-220
-215
-193
-189
-165
-145
-228
-298
-77
689
2051
3048
2260
300
-683
-403
-203
-323
-280
-207
-244
-226
-182
-183
-162
-120
-96
-66
-22
23
76
130
193
288
387
442
466
481
481
463
426
366
284
197
119
29
-83
-165
-184
-195
-231
-254
-250
-247
-251
-248
-236
-229
-229
-237
-245
-238
-216
-206
-217
-227
-224
-221
-232
-244
-250
-261
-276
-273
-252
-229
-193
-157
-154
-178
-187
-178
-183
-196
-188
-189
-205
-173
-156
-248
-278
68
1048
2453
2993
1668
-177
-674
-274
-203
-328
-266
-234
-265
-225
-189
-186
-157
-129
-107
-56
-5
31
89
161
223
288
358
411
440
450
442
427
397
333
253
185
117
25
-73
-145
-183
-212
-242
-250
-242
-250
-264
-247
-223
-226
-228
-208
-198
-204
-206
-204
-215
-224
-221
-225
-237
-236
-236
-252
-246
-215
-197
-178
-139
-120
-141
-162
-172
-186
-189
-171
-166
-181
-154
-135
-210
-232
34
828
2210
3104
2060
-35
-869
-406
-184
-331
-276
-195
-241
-225
-174
-167
-144
-106
-86
-59
-14
36
93
156
220
289
357
408
436
448
444
421
379
317
250
187
114
23
-60
-125
-187
-234
-256
-264
-268
-271
-276
-277
-266
-248
-230
-224
-230
-233
-227
-227
-235
-240
-246
-253
-251
-261
-293
-303
-275
-252
-239
-201
-159
-157
-191
-213
-212
-216
-213
-192
-204
-225
-186
-190
-270
-202
273
1383
2751
2864
1133
-529
-632
-209
-253
-336
-246
-246
-258
-193
-166
-169
-138
-106
-80
-39
9
53
104
175
253
308
354
422
479
480
453
423
373
303
226
143
53
-34
-113
-180
-227
-241
-241
-254
-263
-249
-233
-232
-228
-219
-216
-212
-205
-206
-217
-223
-218
-208
-205
-215
-232
-247
-253
-253
-249
-218
-161
-133
-147
-158
-159
-169
-185
-185
-165
-166
-190
-164
-145
-235
-266
80
1059
2459
2995
1677
-157
-662
-278
-200
-310
-259
-235
-250
-200
-176
-182
-143
-97
-77
-45
3
52
104
160
220
286
358
421
458
468
461
436
390
326
252
167
72
-20
-94
-161
-223
-252
-246
-241
-251
-260
-254
-237
-232
-241
-238
-224
-220
-223
-226
-229
-228
-227
-234
-234
-225
-222
-225
-230
-236
-241
-249
-259
-255
-236
-218
-195
-155
-128
-142
-165
-163
-161
-170
-160
-156
-169
-144
-138
-232
-253
92
1052
2439
2970
1651
-168
-646
-250
-185
-309
-249
-214
-240
-200
-164
-172
-160
-121
-74
-29
9
51
102
159
222
289
355
410
439
442
433
419
382
322
264
216
146
44
-51
-109
-151
-201
-237
-239
-234
-246
-259
-247
-230
-221
-206
-189
-195
-211
-217
-220
-224
-226
-237
-252
-256
-256
-258
-251
-240
-240
-239
-223
-189
-147
-132
-163
-197
-196
-191
-203
-192
-178
-199
-182
-139
-193
-237
21
867
2268
3056
1920
-98
-829
-391
-205
-320
-255
-200
-239
-199
-145
-145
-126
-91
-67
-29
12
47
103
175
228
277
353
429
463
466
455
426
383
331
261
181
101
14
-77
-143
-184
-215
-232
-241
-252
-252
-241
-237
-241
-237
-227
-222
-219
-222
-234
-238
-220
-210
-223
-234
-234
-239
-247
-248
-253
-263
-264
-253
-235
-205
-157
-120
-135
-180
-192
-178
-183
-179
-165
-190
-189
-142
-195
-290
-115
608
1933
2988
2326
370
-708
-428
-163
-291
-282
-205
-241
-228
-169
-156
-142
-107
-86
-60
-12
35
79
133
203
276
346
412
459
467
453
441
413
351
278
209
121
16
-64
-110
-153
-199
-227
-240
-251
-252
-242
-237
-233
-225
-234
-245
-224
-195
-194
-204
-204
-209
-220
-226
-226
-227
-226
-230
-253
-277
-268
-238
-214
-181
-133
-115
-141
-171
-176
-173
-179
-175
-173
-194
-177
-123
-169
-275
-165
430
1653
2856
2561
731
-591
-482
-155
-252
-286
-205
-230
-235
-174
-154
-143
-100
-69
-50
-13
37
81
125
197
283
340
379
435
479
476
452
426
375
302
228
150
65
-12
-92
-175
-220
-215
-215
-234
-239
-231
-229
-225
-214
-208
-208
-205
-199
-204
-223
-235
-224
-208
-207
-213
-212
-211
-217
-225
-225
-219
-218
-219
-209
-205
-222
-237
-227
-209
-198
-174
-131
-95
-93
-120
-141
-139
-136
-137
-132
-146
-159
-125
-125
-213
-196
203
1200
2502
2801
1357
-304
-595
-203
-182
-272
-204
-204
-229
-165
-123
-122
-100
-76
-52
-10
29
65
120
185
247
306
355
392
425
450
457
445
411
355
291
221
140
55
-24
-98
-165
-203
-207
-206
-213
-219
-220
-218
-214
-215
-216
-211
-208
-215
-222
-216
-206
-205
-212
-218
-226
-236
-236
-227
-227
-232
-228
-230
-238
-229
-217
-227
-232
-211
-187
-165
-131
-103
-111
-139
-150
-148
-157
-161
-154
-148
-119
-112
-196
-230
64
974
2373
2982
1681
-231
-763
-314
-195
-292
-203
-158
-195
-161
-128
-126
-94
-65
-52
-13
33
67
112
165
218
294
380
432
446
453
454
433
393
343
278
203
126
43
-43
-102
-134
-168
-206
-221
-222
-231
-235
-222
-215
-219
-216
-209
-212
-213
-197
-184
-194
-215
-221
-213
-217
-235
-240
-232
-232
-237
-231
-225
-225
-216
-199
-199
-219
-229
-223
-218
-203
-164
-121
-97
-103
-132
-155
-156
-151
-139
-128
-145
-133
-92
-165
-267
-79
615
1852
2890
2340
456
-670
-421
-123
-240
-249
-170
-187
-176
-139
-140
-113
-72
-58
-34
15
60
98
135
195
285
371
427
465
488
486
463
433
390
326
254
176
76
-28
-90
-119
-156
-198
-223
-237
-246
-244
-232
-228
-224
-210
-212
-239
-239
-196
-177
-198
-213
-218
-227
-229
-221
-227
-242
-242
-230
-226
-224
-214
-207
-212
-214
-209
-214
-221
-214
-204
-198
-175
-129
-91
-90
-121
-147
-142
-130
-120
-110
-128
-141
-104
-126
-228
-157
370
1496
2696
2592
911
-500
-490
-120
-187
-252
-168
-177
-190
-133
-116
-120
-82
-45
-40
-19
48
124
174
220
284
351
410
459
487
488
483
468
415
333
268
220
148
54
-35
-109
-164
-195
-214
-229
-236
-225
-219
-242
-253
-212
-168
-177
-201
-201
-196
-197
-199
-202
-203
-204
-217
-235
-232
-211
-196
-196
-198
-197
-197
-203
-203
-194
-187
-185
-177
-172
-188
-198
-172
-141
-138
-148
-158
-172
-180
-173
-155
-129
-88
-49
-54
-100
-125
-110
-93
-86
-89
-110
-95
-68
-148
-216
28
785
2012
2843
2044
205
-671
-324
-79
-206
-202
-143
-175
-160
-119
-118
-97
-60
-35
-5
20
42
103
182
236
282
345
411
456
475
476
465
440
406
353
268
178
112
54
-22
-96
-153
-198
-223
-226
-228
-240
-245
-231
-213
-218
-236
-233
-208
-195
-209
-224
-223
-219
-226
-229
-222
-221
-235
-247
-248
-248
-247
-230
-210
-212
-223
-222
-220
-225
-226
-222
-215
-187
-141
-111
-125
-157
-162
-147
-146
-147
-143
-161
-154
-122
-173
-242
-70
636
1966
2968
2181
184
-804
-443
-153
-256
-231
-162
-199
-184
-133
-120
-98
-72
-65
-37
18
75
128
181
237
295
355
412
457
476
476
464
430
364
292
239
178
89
-4
-76
-134
-181
-214
-237
-251
-252
-242
-237
-247
-251
-223
-192
-194
-201
-191
-190
-205
-211
-210
-215
-218
-220
-232
-238
-227
-216
-212
-210
-211
-208
-202
-211
-231
-233
-217
-204
-190
-149
-95
-87
-127
-147
-141
-153
-151
-135
-158
-153
-107
-163
-246
-56
675
1992
2962
2172
217
-728
-375
-132
-259
-230
-164
-209
-190
-136
-144
-133
-85
-54
-26
21
67
107
161
229
301
377
442
477
489
496
491
459
404
335
255
169
75
-22
-103
-157
-200
-234
-249
-259
-270
-270
-260
-252
-245
-231
-218
-215
-215
-209
-205
-215
-227
-226
-230
-243
-240
-220
-215
-224
-226
-227
-237
-232
-224
-243
-260
-240
-222
-212
-168
-115
-108
-134
-165
-183
-177
-152
-132
-149
-178
-149
-131
-224
-254
95
1058
2404
2878
1558
-213
-658
-254
-181
-287
-216
-189
-232
-195
-144
-128
-102
-77
-61
-28
22
68
106
153
232
328
401
450
495
518
510
486
441
377
310
226
112
15
-41
-96
-156
-201
-236
-259
-256
-252
-257
-252
-242
-241
-232
-215
-208
-211
-212
-206
-198
-200
-209
-210
-209
-211
-211
-207
-209
-214
-217
-225
-226
-208
-192
-198
-213
-219
-213
-202
-185
-150
-103
-77
-97
-134
-143
-140
-157
-154
-129
-131
-119
-92
-165
-240
-13
761
2043
2886
2044
192
-671
-355
-140
-240
-201
-143
-184
-173
-133
-126
-100
-65
-47
-16
28
64
105
161
224
297
378
447
492
517
521
507
482
436
360
276
194
103
4
-79
-137
-180
-211
-228
-232
-231
-237
-243
-236
-225
-225
-227
-216
-211
-222
-222
-202
-195
-207
-211
-211
-216
-219
-224
-223
-209
-204
-218
-221
-217
-231
-233
-203
-179
-177
-174
-172
-178
-175
-164
-168
-174
-167
-169
-185
-178
-141
-106
-71
-35
-39
-84
-110
-113
-123
-114
-97
-118
-119
-83
-135
-207
-26
652
1933
3012
2380
369
-769
-451
-125
-249
-240
-142
-173
-169
-117
-127
-133
-83
-33
5
46
82
119
167
219
280
356
423
465
493
505
499
489
460
396
325
259
168
65
-17
-87
-153
-198
-229
-255
-261
-257
-261
-250
-219
-205
-212
-214
-212
-213
-211
-207
-211
-216
-219
-235
-255
-248
-219
-203
-211
-228
-241
-242
-231
-220
-218
-221
-220
-220
-223
-214
-193
-190
-203
-206
-202
-194
-162
-118
-87
-78
-100
-133
-136
-140
-173
-163
-112
-118
-130
-106
-171
-246
-25
733
2058
3061
2311
308
-725
-385
-117
-263
-254
-166
-189
-174
-127
-124
-109
-73
-49
-20
21
65
113
160
220
308
401
466
507
537
556
555
523
462
388
303
202
100
16
-57
-125
-183
-220
-237
-250
-264
-272
-274
-264
-244
-234
-237
-230
-217
-213
-213
-210
-208
-207
-208
-208
-208
-212
-220
-224
-221
-215
-214
-212
-207
-212
-218
-205
-182
-177
-180
-175
-170
-166
-157
-154
-157
-150
-146
-163
-181
-179
-162
-126
-78
-43
-32
-33
-54
-90
-101
-97
-111
-107
-84
-107
-116
-65
-110
-210
-44
617
1806
2857
2432
626
-575
-407
-100
-214
-242
-149
-161
-170
-126
-107
-92
-64
-43
-16
22
55
93
151
213
279
364
448
502
533
553
554
534
497
436
355
263
167
68
-21
-93
-144
-177
-208
-238
-250
-251
-251
-246
-234
-231
-239
-236
-221
-216
-225
-228
-216
-204
-203
-212
-217
-216
-217
-226
-232
-231
-227
-224
-225
-228
-223
-218
-218
-202
-175
-170
-181
-181
-178
-178
-171
-158
-158
-167
-161
-147
-161
-197
-202
-162
-106
-61
-35
-35
-62
-100
-116
-113
-119
-112
-85
-108
-157
-130
-111
-179
-110
385
1475
2717
2730
1074
-450
-524
-144
-197
-265
-175
-187
-206
-145
-123
-126
-89
-54
-34
-2
44
95
140
182
246
325
386
442
509
550
548
536
524
480
398
302
202
104
20
-53
-129
-192
-222
-240
-270
-289
-276
-261
-259
-249
-231
-221
-222
-224
-222
-221
-224
-223
-220
-225
-228
-223
-224
-235
-238
-233
-229
-231
-233
-228
-216
-213
-218
-220
-216
-208
-196
-193
-202
-208
-193
-161
-128
-96
-75
-83
-113
-125
-123
-144
-168
-150
-134
-146
-122
-106
-177
-170
172
1092
2486
3074
1685
-327
-864
-353
-195
-286
-204
-171
-200
-146
-114
-122
-85
-51
-40
0
52
87
134
200
267
339
418
491
548
573
568
554
529
467
377
287
198
99
-9
-102
-165
-201
-222
-241
-266
-284
-281
-269
-263
-257
-248
-239
-235
-230
-222
-220
-227
-223
-202
-192
-207
-226
-233
-232
-231
-235
-237
-237
-240
-236
-225
-218
-209
-195
-191
-198
-198
-194
-195
-205
-216
-212
-186
-148
-109
-79
-72
-93
-120
-132
-140
-154
-142
-127
-153
-146
-106
-180
-261
-14
763
2039
2982
2279
382
-646
-384
-139
-259
-250
-180
-205
-188
-153
-155
-120
-70
-55
-33
10
52
102
153
200
280
386
465
516
555
575
573
560
520
439
334
233
147
62
-28
-114
-180
-219
-242
-269
-285
-274
-267
-285
-284
-248
-224
-228
-224
-210
-211
-220
-221
-213
-203
-204
-218
-225
-217
-214
-218
-217
-219
-220
-206
-193
-198
-201
-192
-188
-186
-181
-184
-186
-183
-198
-212
-175
-108
-67
-54
-56
-86
-121
-121
-107
-122
-137
-121
-122
-129
-95
-128
-231
-120
444
1530
2665
2564
915
-498
-507
-136
-190
-244
-157
-166
-191
-152
-127
-105
-68
-44
-16
27
61
95
144
205
274
353
430
494
538
559
559
539
500
456
400
311
197
86
-11
-89
-149
-195
-227
-249
-268
-272
-267
-275
-279
-257
-234
-230
-229
-227
-227
-223
-218
-224
-229
-228
-231
-234
-238
-243
-241
-228
-219
-222
-231
-235
-228
-217
-213
-213
-211
-207
-205
-207
-206
-203
-208
-220
-222
-210
-184
-138
-92
-78
-88
-108
-138
-156
-158
-170
-176
-166
-176
-164
-119
-165
-234
-38
646
1883
2909
2302
363
-753
-471
-166
-276
-271
-196
-224
-197
-138
-140
-124
-85
-72
-50
1
57
113
152
176
243
359
452
505
553
584
579
565
548
495
403
307
220
120
8
-76
-119
-155
-199
-229
-233
-225
-216
-214
-214
-202
-192
-194
-186
-165
-164
-173
-164
-151
-154
-155
-150
-154
-155
-148
-148
-151
-146
-147
-149
-135
-127
-137
-134
-114
-107
-110
-115
-115
-91
-49
-20
