# session 5
489
474
431
317
240
271
275
200
147
123
80
42
16
-18
-46
-54
-59
-58
-29
4
-5
-56
-100
-106
-121
-176
-184
-161
-254
-372
-222
461
1826
3013
2399
343
-838
-601
-363
-495
-472
-393
-414
-372
-302
-290
-260
-209
-174
-121
-60
-35
-27
-16
-41
-120
-204
-241
-237
-222
-220
-243
-290
-334
-366
-406
-442
-435
-406
-421
-468
-496
-514
-534
-531
-512
-506
-507
-507
-514
-517
-502
-484
-458
-417
-402
-427
-431
-412
-428
-425
-364
-378
-441
-302
266
1481
2765
2476
491
-906
-692
-279
-359
-342
-204
-216
-213
-126
-73
-36
32
116
204
284
357
421
422
361
316
292
232
168
149
118
42
-11
-25
-46
-58
-44
-57
-99
-111
-104
-124
-142
-142
-157
-183
-182
-173
-190
-208
-191
-174
-184
-181
-164
-176
-190
-183
-191
-192
-149
-131
-172
-148
160
1026
2188
2379
958
-593
-789
-273
-114
-173
-119
-54
-29
-1
32
79
123
173
279
395
457
515
565
532
452
406
363
277
172
85
20
-32
-87
-136
-131
-102
-142
-204
-172
-110
-134
-192
-214
-214
-204
-203
-227
-239
-226
-219
-222
-224
-238
-264
-284
-287
-273
-269
-281
-265
-241
-269
-245
146
1056
1840
1403
-69
-957
-672
-255
-235
-211
-127
-142
-136
-73
-39
8
87
145
213
309
383
422
438
417
360
289
217
149
89
26
-48
-114
-148
-158
-168
-172
-162
-155
-167
-185
-197
-217
-243
-258
-264
-274
-276
-263
-261
-277
-275
-249
-235
-257
-289
-292
-287
-304
-284
-238
-294
-363
-130
655
1880
2555
1602
-118
-750
-357
-180
-282
-222
-160
-188
-150
-86
-58
-15
50
111
178
242
291
317
306
261
201
140
85
50
21
-19
-62
-92
-110
-119
-130
-147
-161
-173
-190
-202
-201
-205
-215
-216
-221
-246
-269
-269
-268
-275
-261
-226
-201
-194
-211
-240
-230
-208
-231
-212
-160
-254
-349
-78
755
2174
3276
2524
442
-641
-357
-169
-337
-313
-240
-267
-226
-157
-133
-85
-15
45
114
181
226
247
237
198
155
120
88
63
41
13
-33
-85
-118
-129
-145
-171
-187
-191
-199
-213
-222
-232
-247
-255
-252
-249
-249
-247
-251
-260
-257
-252
-255
-231
-180
-156
-168
-192
-209
-204
-201
-226
-204
-168
-255
-346
-150
626
2059
3062
2162
189
-650
-310
-168
-300
-245
-192
-233
-198
-144
-128
-78
-4
53
111
171
208
214
189
146
110
81
49
26
22
15
-23
-78
-114
-121
-129
-154
-170
-171
-174
-182
-199
-236
-266
-266
-257
-254
-247
-248
-270
-277
-254
-245
-252
-228
-187
-177
-196
-220
-222
-222
-249
-256
-243
-288
-300
-78
643
2033
3106
2260
176
-792
-419
-192
-314
-255
-170
-198
-171
-113
-77
-16
43
96
179
256
290
303
292
243
176
120
83
65
53
36
11
-22
-52
-72
-92
-109
-120
-134
-153
-182
-227
-248
-221
-205
-227
-245
-251
-274
-290
-285
-279
-269
-238
-202
-191
-216
-241
-229
-224
-242
-213
-198
-285
-327
-95
757
2296
3152
1889
-165
-776
-343
-257
-366
-267
-226
-260
-209
-160
-138
-76
-10
45
116
184
229
254
248
205
144
82
36
14
6
-13
-44
-70
-85
-93
-101
-112
-130
-151
-171
-186
-201
-217
-234
-245
-245
-247
-253
-250
-245
-237
-204
-159
-143
-166
-200
-203
-184
-193
-197
-159
-200
-296
-186
330
1377
2462
2229
532
-708
-558
-202
-280
-295
-192
-200
-190
-116
-78
-34
41
103
166
245
304
334
344
320
267
214
171
129
95
69
29
-22
-62
-89
-112
-127
-136
-156
-184
-196
-197
-210
-231
-243
-250
-258
-268
-276
-265
-244
-242
-239
-214
-203
-221
-241
-251
-248
-248
-258
-236
-238
-313
-283
66
938
2239
2745
1381
-463
-842
-335
-254
-360
-245
-195
-231
-174
-113
-86
-19
52
103
192
296
337
327
315
285
214
130
67
21
-31
-81
-106
-121
-161
-202
-205
-196
-216
-241
-250
-255
-263
-277
-302
-317
-312
-325
-356
-352
-323
-320
-319
-294
-280
-290
-305
-316
-321
-349
-382
-351
-326
-391
-403
-148
689
2128
2836
1532
-420
-940
-472
-329
-370
-250
-237
-292
-199
-120
-136
-56
88
141
185
230
231
330
349
164
202
54
-552
744
4589
6159
2939
-502
-908
-430
-592
-618
-518
-697
-799
-641
-634
-874
-570
636
1734
2107
2058
1296
-65
-725
-551
-596
-854
-903
-985
-1045
-877
-914
-1281
-1428
-1316
-1391
-1512
-1194
-163
1492
2576
1643
-345
-1118
-666
-400
-437
-282
-33
99
71
-49
-139
-285
-458
-406
-321
-418
-155
639
1055
708
351
296
50
-390
-667
-1016
-1460
-1348
-831
-701
-705
-245
333
611
759
906
980
921
714
495
408
300
18
-180
-70
49
-7
50
153
114
371
813
687
552
1076
1016
-152
-855
-608
-468
-508
-241
-23
-108
-91
39
-135
-389
-141
436
722
640
540
509
308
-62
-258
-251
-397
-712
-818
-621
-347
-160
-124
-208
-187
91
318
30
-501
-292
861
1797
1571
581
-253
-569
-651
-800
-953
-993
-760
-48
680
705
392
381
389
246
232
78
-325
-428
-366
-551
-411
286
1028
1750
1703
23
-1369
-818
-285
-542
57
539
-532
-1268
-767
-493
-294
486
806
403
248
377
420
489
470
222
-83
-381
-608
-693
-764
-707
-309
83
152
220
401
316
54
-17
-17
46
201
-111
-460
388
1286
521
-375
-90
-205
-993
-979
-502
-351
-197
-364
-939
-721
198
386
-40
274
1769
3328
3096
981
-633
-584
-334
-530
-438
-258
-400
-701
-1533
-2480
-1646
885
2428
1771
392
-117
164
75
-436
-241
325
90
-230
224
459
80
78
374
41
-632
-750
-478
-513
-809
-939
-930
-975
-928
-538
-91
-110
-59
747
1331
1215
1469
1513
480
85
503
-414
-1756
-1341
-316
-34
604
1937
2239
821
-611
-737
-379
-365
-360
-319
-511
-603
-453
-447
-435
-95
89
-92
0
155
-290
-384
775
2023
2358
2016
1032
-100
-445
-512
-881
-771
-392
-661
-661
184
372
-373
-730
-758
-951
-726
-136
54
-41
-36
-84
-256
-457
-626
-593
-526
-572
-39
761
249
-541
533
1679
1198
1507
2601
1000
-1987
-2061
-354
-390
-1313
-992
-217
-102
-126
89
301
482
548
294
-85
-246
-112
212
442
380
308
345
160
-34
-13
-539
-1347
-636
1342
2179
1347
407
116
-63
-579
-1042
-942
-530
-134
305
414
-122
-500
-97
230
-256
-843
-803
-470
-228
-12
175
270
324
608
1482
2390
2164
887
-574
-1743
-1803
-594
304
165
-132
-423
-868
-868
-319
192
417
335
23
-55
415
1004
1081
636
178
5
-10
-92
-303
-437
-280
-23
15
-149
-324
-445
-717
-1049
-408
1332
1963
464
-898
-676
-205
-342
-471
-320
-63
185
69
-434
-627
-369
-374
-685
-640
-74
1002
2454
2991
1596
-308
-879
-506
-363
-517
-519
-97
602
670
-564
-1905
-1510
167
886
-94
-1231
-862
632
1192
221
-630
-499
40
703
1097
705
150
134
186
-144
-645
-1027
-980
-499
-164
-198
-321
-757
-1521
-1390
326
2202
2464
1141
-294
-692
-399
-432
-730
-597
-315
-297
121
1312
2498
2747
1624
-167
-1032
-683
-342
-439
-490
-401
-260
-204
-490
-787
-667
-512
-413
78
562
752
1276
1625
816
-133
-244
-470
-1065
-942
-330
-386
-752
-350
367
267
-228
8
633
667
287
68
-34
-74
-40
-138
-209
-93
-270
-518
-210
-467
-1769
-1458
1220
2661
1264
-294
194
2246
3354
1543
-1089
-1450
-533
-143
191
179
-727
-1088
-382
47
-17
-43
-236
-416
-141
224
234
14
-39
183
254
309
721
518
-331
34
826
-125
-1097
-511
-556
-1411
-767
444
229
-356
-311
-332
-247
356
523
-107
-479
-284
-238
-381
-296
-171
-236
-399
-677
-829
-540
-274
-77
947
2263
2088
631
-406
-678
-723
-623
-678
-1012
-677
453
901
451
271
151
-348
-261
415
530
353
599
747
481
166
-154
-371
-365
-472
-476
-45
71
104
1182
1706
-5
-1409
-793
-600
-1366
-765
643
616
-215
-256
174
264
240
945
2421
2944
1296
-927
-1832
-1688
-1387
-1167
-907
-639
-713
-715
-218
-599
-1798
-904
1687
2254
892
248
380
475
569
464
433
871
1069
989
1444
1644
609
-389
-293
-74
-271
-236
-39
-225
-525
-547
-500
-506
-442
-419
-447
-295
-166
-270
-130
87
-689
-1947
-1900
-760
-174
-247
-247
-280
-276
143
464
704
2020
3351
2140
-313
-776
55
6
-436
-450
-471
-592
-575
-449
-320
-302
-311
-406
-769
-494
1183
2574
1915
357
-307
-167
9
-56
-410
-783
-695
-203
115
159
438
930
980
509
-14
-368
-421
-211
-228
-555
-614
-336
-204
-252
-286
-359
-413
-391
-390
-217
17
-242
-203
1233
2348
1203
-419
-425
127
41
-208
-333
-428
-371
-379
-573
-514
-226
-229
-416
-371
-265
-330
-290
12
254
262
174
-16
-208
-129
-130
-456
-376
-251
-1167
-1419
561
1973
921
-124
55
5
-387
-377
-264
-333
-424
-429
-193
212
370
277
298
342
155
-13
297
1529
3390
3875
1745
-712
-1103
-510
-545
-720
-452
-276
-452
-425
-77
-34
26
1029
1994
1387
154
-143
121
220
305
425
366
185
69
9
-160
-482
-824
-1014
-946
-717
-575
-538
-413
-185
-89
-248
-437
-464
-431
-460
-641
-867
-707
-560
-1207
-1412
82
1313
739
411
1702
2684
1659
-314
-1230
-842
-443
-565
-636
-456
-341
-291
-97
85
-29
-207
17
451
532
321
242
240
138
107
168
119
75
142
52
-32
207
135
-375
-77
782
500
-452
-492
-7
99
38
73
50
-212
-590
-639
-407
-466
-784
-907
-919
-1047
-1069
-803
-130
1369
3091
2916
541
-1259
-1074
-634
-892
-934
-671
-620
-147
1095
1790
1181
412
300
302
149
163
247
179
138
230
294
262
238
331
480
498
332
59
-234
-381
-325
-278
-278
-194
-147
-214
-271
-364
-422
-401
-671
-670
684
2041
1335
-228
-681
-595
-577
7
1114
2088
2267
1075
-622
-1171
-766
-662
-825
-743
-708
-844
-704
-325
-172
-192
-101
-39
-138
-146
31
93
-4
51
137
137
737
1853
1986
923
148
18
-162
-285
-157
-158
-322
-419
-524
-636
-605
-451
-263
-156
-261
-418
-392
-333
-338
-242
-209
-418
-501
-143
816
2355
3110
1677
-563
-1289
-727
-424
-666
-840
-639
-69
673
909
313
-202
-15
191
58
-38
-98
-196
-135
-7
6
7
3
-162
-433
-635
-721
-699
-545
-355
-295
-345
-368
-345
-362
-469
-560
-492
-431
-571
-633
-451
-363
-471
-591
-569
-219
-87
-595
217
3561
5792
3652
-83
-1650
-1519
-1377
-1279
-1060
-927
-773
-561
-483
-417
-315
-409
-282
604
1586
1868
1627
1049
253
-159
-54
5
-111
-147
-212
-440
-573
-569
-807
-1002
-230
1272
2081
1693
733
-399
-1049
-446
233
-144
409
3008
5250
5529
3940
864
-1584
-1831
-1354
-981
170
1175
240
-1687
-2299
-1898
-2058
-1269
2366
5588
4069
-309
-2423
-1228
582
1413
1487
731
-717
-1570
-1320
-982
-1018
-986
-897
-967
-963
-804
-779
-947
-1111
-1215
-1249
-1156
-1091
-1170
-1141
-1004
-1149
-1197
-261
1236
1792
892
-476
-1249
-1311
-1110
-1056
-1153
-688
721
1808
1571
1310
1825
1376
-582
-1802
-1464
-1120
-1167
-1036
-1131
-1297
-879
-863
-1335
-2
2599
2635
-168
-1607
528
3013
2076
-466
-964
-358
-629
-851
-585
-710
-918
-792
-875
-898
149
1779
2104
734
-225
608
1854
2122
1881
1795
1918
1862
861
-662
-1253
-1153
-1431
-1586
-1271
-836
400
1575
227
-1339
1271
5237
5620
4744
5396
4323
402
-2169
-1985
-1560
-1696
-1554
-1143
-981
-1164
-837
395
842
-359
-1318
-1112
-961
-1131
-1024
-915
-1016
-994
-943
-1082
-1169
-1204
-1419
-1505
-1204
-820
-440
-52
528
2035
3111
1352
-70
2816
4908
1361
-2299
-1727
-281
606
2004
1886
-434
-1865
-1392
-864
-852
-745
-556
-502
-537
-558
-501
-459
-530
-572
-389
-32
201
152
72
125
104
15
39
-15
-197
-305
-530
-754
-568
-677
-1046
201
2190
1572
-710
-1117
-158
23
-131
52
58
-119
-172
-231
-302
-322
-459
-595
-347
425
1580
2271
1301
-684
-1560
-1069
-646
-621
-550
-514
-501
-324
-179
-181
-139
-26
51
138
273
388
516
639
576
499
665
614
413
1333
2918
2621
412
-915
-626
-339
-507
-520
-401
-333
-218
-119
-120
-152
-179
-135
-17
-71
-317
-474
-548
-641
-565
-46
1257
2924
3038
900
-1089
-1187
-717
-832
-919
-680
-560
-592
-530
-427
-387
-337
-334
-391
-186
135
128
549
1951
2590
1390
207
227
350
74
-91
-197
-354
-343
-322
-450
-479
-410
-531
-760
-812
-682
-531
-466
-494
-529
-529
-509
-469
-499
-596
-482
162
1529
3008
2864
634
-1346
-1277
-393
-176
234
1836
2939
1714
-112
-349
-61
-352
-344
-38
-180
-254
177
494
369
178
241
416
331
-11
-207
-145
-111
-252
-431
-482
-438
-456
-558
-659
-765
-854
-811
-648
-506
-484
-544
-552
-514
-526
-526
-561
-560
210
1670
2199
1634
1566
1547
249
-938
-621
-81
-233
-351
-250
-367
-558
-512
-346
-290
-331
-298
-170
-131
-228
-288
-241
-209
-243
-274
-260
-211
-147
-81
-17
0
-35
-24
30
-36
-182
-210
-180
-157
-9
159
401
1300
2447
2216
456
-1032
-1267
-806
-54
1233
2673
2732
952
-643
-726
-515
-711
-593
-319
-444
-549
-385
-341
-459
-474
-384
-370
-481
-563
-544
-533
-500
-355
-205
-139
-126
-112
-67
-104
-207
-140
-89
-153
158
430
6
176
1465
1658
327
-262
152
197
-25
-98
-298
-499
-487
-416
-273
150
1151
2374
2210
241
-1307
-1134
-623
-708
-822
-721
-609
-489
-377
-310
-249
-198
-169
-151
-108
30
231
409
496
303
-5
442
1813
2606
1707
158
-559
-440
-191
-94
-105
-66
109
182
2
-163
-160
-163
-182
-153
-215
-272
-126
-97
-329
-295
261
1267
2436
2424
544
-1271
-1429
-943
-732
-522
-404
-454
-307
-106
-129
-171
-162
-80
207
147
-665
-1000
123
1357
1288
666
525
563
388
205
72
-53
-23
7
-250
-448
-182
