# session 34
-54
-75
-31
25
-70
-276
-364
-336
-335
-334
-281
-233
-216
-206
-213
-243
-266
-267
-265
-259
-237
-235
-243
-213
-222
-285
-186
341
1476
2700
2547
750
-670
-547
-114
-191
-239
-133
-146
-160
-103
-94
-94
-55
-27
-4
29
56
91
141
186
233
288
341
393
445
484
503
502
488
470
429
345
237
128
25
-70
-148
-212
-259
-280
-287
-297
-304
-294
-278
-270
-266
-252
-237
-233
-229
-221
-220
-218
-212
-216
-225
-229
-233
-231
-217
-209
-214
-217
-215
-210
-199
-193
-202
-203
-187
-176
-183
-197
-209
-202
-167
-118
-78
-60
-65
-94
-127
-133
-128
-139
-138
-124
-143
-137
-92
-145
-216
13
751
1930
2733
2003
270
-566
-236
-14
-159
-157
-91
-126
-116
-69
-73
-69
-33
-9
10
42
71
99
139
184
232
286
340
385
425
458
476
479
473
453
397
304
211
127
25
-84
-162
-211
-253
-279
-292
-303
-302
-285
-275
-275
-268
-255
-245
-241
-247
-254
-245
-232
-238
-248
-246
-241
-242
-243
-241
-240
-241
-238
-232
-225
-221
-227
-240
-243
-227
-197
-155
-112
-95
-116
-150
-170
-172
-172
-173
-162
-160
-172
-147
-138
-220
-219
158
1084
2255
2534
1254
-259
-524
-125
-88
-196
-136
-119
-152
-111
-73
-69
-50
-34
-20
16
54
78
107
146
197
256
309
350
391
428
449
459
465
459
426
355
259
157
55
-43
-127
-190
-235
-268
-284
-291
-303
-307
-284
-262
-262
-263
-258
-260
-252
-242
-249
-251
-239
-240
-247
-241
-241
-250
-245
-239
-243
-240
-238
-247
-240
-207
-175
-147
-118
-109
-131
-163
-176
-178
-185
-177
-163
-179
-179
-141
-180
-262
-143
419
1588
2758
2452
624
-646
-446
-69
-174
-214
-124
-149
-157
-94
-78
-82
-61
-38
-11
26
58
89
125
167
214
266
322
375
411
436
460
472
465
444
399
311
201
106
14
-93
-175
-219
-257
-293
-305
-305
-307
-300
-285
-274
-275
-279
-267
-252
-256
-263
-253
-247
-257
-263
-259
-255
-253
-255
-259
-268
-269
-250
-216
-180
-148
-132
-146
-177
-196
-202
-214
-217
-191
-187
-209
-182
-163
-239
-254
60
970
2349
2911
1581
-261
-680
-203
-123
-250
-174
-143
-181
-139
-106
-116
-89
-46
-24
-1
27
55
94
139
184
235
290
339
386
427
449
453
451
433
387
313
217
107
-2
-93
-162
-214
-254
-282
-300
-304
-301
-301
-295
-272
-248
-246
-251
-243
-232
-232
-236
-237
-242
-247
-240
-232
-233
-232
-230
-240
-256
-254
-243
-241
-226
-177
-131
-123
-147
-176
-182
-175
-187
-187
-162
-167
-173
-140
-178
-266
-120
535
1754
2793
2314
538
-553
-334
-52
-174
-195
-123
-150
-146
-102
-102
-90
-54
-35
-10
30
58
83
124
170
215
266
326
380
417
439
454
461
455
430
370
275
173
87
1
-92
-166
-212
-242
-260
-268
-279
-282
-263
-246
-244
-239
-228
-225
-224
-217
-216
-223
-223
-214
-211
-215
-219
-221
-221
-217
-212
-211
-212
-208
-200
-193
-188
-186
-187
-187
-180
-174
-179
-196
-205
-186
-148
-107
-73
-54
-56
-79
-110
-120
-111
-121
-132
-120
-121
-116
-82
-126
-210
-51
566
1648
2576
2176
568
-476
-298
-17
-123
-156
-91
-113
-112
-72
-65
-48
-14
-2
11
45
79
106
134
175
228
276
319
364
400
418
434
449
452
441
407
336
243
152
66
-24
-107
-168
-203
-224
-242
-256
-254
-242
-243
-251
-244
-227
-222
-226
-226
-221
-220
-223
-230
-237
-236
-227
-221
-224
-228
-230
-229
-221
-209
-207
-211
-208
-200
-198
-196
-191
-190
-188
-179
-173
-171
-161
-151
-158
-173
-177
-174
-164
-125
-63
-19
-25
-62
-96
-115
-116
-110
-113
-109
-106
-127
-120
-85
-138
-189
56
819
2025
2779
1947
215
-538
-201
-22
-161
-144
-86
-116
-101
-66
-66
-50
-21
-1
25
53
81
118
155
185
220
267
320
368
404
427
443
452
451
436
399
332
243
143
46
-40
-117
-181
-228
-261
-274
-268
-271
-287
-280
-255
-249
-253
-244
-241
-244
-237
-230
-236
-241
-242
-248
-245
-233
-233
-236
-229
-221
-218
-217
-220
-215
-202
-206
-218
-203
-179
-181
-190
-187
-186
-189
-194
-203
-189
-137
-88
-66
-63
-82
-117
-133
-126
-136
-147
-132
-136
-154
-111
-92
-182
-179
199
1157
2442
2785
1373
-299
-561
-110
-78
-182
-100
-86
-123
-79
-51
-52
-23
2
13
43
74
98
140
189
226
264
315
365
404
438
460
463
458
446
410
352
286
202
95
-4
-82
-152
-211
-246
-257
-264
-274
-272
-253
-238
-234
-229
-223
-222
-221
-216
-213
-213
-219
-226
-223
-213
-213
-221
-224
-220
-218
-217
-215
-211
-206
-202
-198
-193
-188
-186
-182
-175
-170
-168
-169
-168
-159
-149
-143
-137
-136
-146
-160
-169
-164
-129
-77
-40
-28
-36
-65
-95
-98
-91
-104
-108
-93
-105
-108
-75
-112
-176
0
648
1796
2727
2199
496
-488
-244
7
-133
-154
-77
-99
-100
-58
-54
-50
-18
11
31
47
69
107
144
178
226
277
323
368
406
434
453
457
449
440
411
342
256
169
74
-19
-96
-164
-215
-238
-255
-275
-274
-255
-249
-251
-244
-235
-234
-234
-231
-230
-228
-229
-230
-228
-227
-233
-237
-235
-235
-231
-227
-228
-223
-212
-215
-217
-199
-189
-200
-202
-192
-187
-184
-175
-171
-172
-169
-161
-158
-166
-174
-173
-164
-133
-79
-39
-39
-62
-88
-108
-111
-111
-119
-112
-106
-130
-120
-89
-145
-174
110
910
2091
2674
1684
46
-511
-150
-30
-158
-128
-87
-116
-98
-66
-53
-26
-5
3
24
55
80
111
153
202
243
280
327
382
422
438
445
454
456
438
394
323
232
135
35
-58
-133
-193
-234
-255
-268
-283
-283
-270
-264
-264
-257
-254
-258
-251
-236
-234
-238
-234
-233
-240
-243
-241
-237
-232
-229
-229
-224
-216
-208
-205
-213
-218
-206
-196
-198
-191
-181
-188
-199
-198
-191
-166
-113
-69
-65
-79
-103
-132
-139
-132
-141
-141
-134
-143
-125
-104
-168
-198
87
939
2241
2839
1646
-181
-696
-213
-63
-195
-145
-92
-119
-93
-63
-62
-35
-7
7
35
66
93
131
172
203
238
289
342
391
428
446
451
453
444
414
358
279
188
96
0
-99
-174
-217
-248
-275
-288
-289
-287
-276
-261
-255
-259
-262
-255
-239
-232
-236
-239
-239
-240
-241
-243
-246
-243
-233
-233
-243
-243
-227
-214
-214
-213
-204
-199
-203
-212
-222
-224
-201
-152
-108
-89
-91
-104
-129
-149
-152
-156
-159
-148
-151
-158
-131
-143
-216
-141
351
1444
2636
2531
859
-500
-431
-50
-135
-195
-101
-116
-137
-83
-67
-72
-43
-18
-3
30
65
90
124
173
221
261
305
359
407
439
457
460
454
439
398
325
242
150
45
-53
-128
-190
-235
-259
-272
-285
-287
-273
-257
-254
-255
-250
-238
-229
-229
-240
-251
-243
-226
-226
-239
-243
-236
-234
-236
-232
-222
-217
-216
-215
-216
-216
-213
-219
-229
-224
-192
-140
-96
-81
-100
-139
-165
-160
-160
-168
-157
-151
-162
-137
-135
-215
-196
204
1173
2365
2536
1120
-354
-501
-95
-98
-194
-125
-111
-132
-98
-82
-77
-43
-18
-4
22
50
80
121
159
193
242
303
352
387
414
431
435
432
421
386
322
245
161
65
-30
-108
-175
-223
-243
-255
-274
-278
-261
-247
-249
-249
-240
-230
-225
-227
-234
-239
-234
-224
-228
-236
-231
-222
-224
-226
-223
-221
-216
-211
-214
-218
-222
-231
-230
-205
-165
-122
-92
-92
-120
-150
-163
-165
-166
-158
-149
-160
-157
-132
-174
-237
-78
566
1734
2620
1998
298
-598
-306
-49
-165
-171
-104
-132
-127
-85
-81
-65
-28
-21
-11
32
76
101
129
173
222
268
311
356
397
419
423
420
421
410
357
270
189
114
21
-76
-153
-207
-247
-269
-271
-268
-270
-269
-261
-258
-256
-243
-232
-236
-244
-244
-241
-238
-237
-244
-249
-238
-222
-225
-237
-236
-227
-226
-227
-226
-230
-222
-190
-147
-110
-92
-115
-164
-181
-163
-162
-173
-159
-159
-174
-145
-139
-221
-223
130
1105
2419
2707
1229
-405
-594
-129
-106
-209
-134
-128
-158
-107
-83
-95
-63
-25
-9
22
61
83
106
148
195
237
282
334
375
400
418
424
411
394
373
325
241
139
41
-44
-116
-178
-226
-260
-282
-284
-270
-272
-281
-265
-239
-233
-241
-243
-240
-239
-242
-243
-240
-240
-244
-244
-243
-240
-233
-229
-232
-235
-232
-235
-243
-230
-188
-136
-101
-104
-135
-165
-176
-174
-176
-178
-173
-181
-174
-136
-161
-239
-150
403
1617
2812
2454
577
-671
-433
-58
-169
-203
-115
-144
-151
-97
-85
-77
-45
-27
-6
31
64
93
129
170
213
258
309
358
393
409
415
416
411
393
348
274
182
85
-7
-93
-167
-219
-246
-264
-275
-279
-278
-271
-258
-251
-251
-242
-228
-226
-227
-226
-229
-234
-234
-236
-239
-236
-235
-238
-235
-229
-228
-223
-215
-222
-233
-231
-227
-226
-212
-180
-141
-108
-104
-137
-162
-153
-146
-154
-147
-143
-150
-122
-122
-212
-202
181
1131
2375
2688
1342
-234
-497
-101
-83
-184
-116
-105
-138
-102
-76
-75
-49
-23
-2
30
57
84
124
168
212
252
293
346
398
424
437
450
447
426
395
343
248
139
52
-24
-105
-169
-210
-243
-261
-262
-264
-265
-251
-237
-232
-231
-228
-224
-219
-220
-225
-220
-214
-222
-230
-222
-217
-224
-226
-217
-216
-220
-213
-200
-196
-198
-194
-183
-179
-183
-185
-181
-176
-170
-168
-177
-190
-189
-165
-116
-64
-44
-57
-83
-105
-112
-112
-123
-121
-105
-117
-120
-93
-139
-199
-4
642
1743
2616
2082
431
-510
-262
-10
-134
-150
-84
-111
-108
-65
-61
-46
-9
7
17
42
78
119
155
188
233
282
322
361
400
427
437
441
444
432
391
324
249
164
68
-23
-101
-170
-213
-228
-243
-256
-249
-242
-246
-242
-231
-231
-237
-230
-216
-212
-221
-231
-231
-222
-224
-233
-234
-226
-222
-223
-219
-217
-219
-214
-208
-207
-204
-195
-189
-189
-185
-174
-170
-178
-179
-161
-154
-175
-193
-185
-160
-116
-65
-44
-56
-75
-98
-120
-124
-125
-127
-116
-121
-130
-102
-116
-191
-126
330
1376
2590
2590
981
-433
-439
-62
-122
-182
-93
-104
-126
-80
-62
-58
-31
-6
14
31
52
94
139
168
203
249
293
336
381
417
430
430
434
435
403
340
268
187
89
-10
-90
-157
-213
-248
-266
-278
-280
-269
-260
-261
-260
-248
-242
-246
-244
-236
-241
-246
-242
-240
-244
-248
-247
-239
-231
-233
-233
-223
-220
-227
-225
-213
-207
-207
-201
-192
-194
-209
-220
-208
-170
-126
-93
-77
-82
-108
-135
-141
-141
-152
-148
-135
-153
-149
-103
-140
-217
-66
570
1795
2853
2302
410
-672
-353
-32
-162
-166
-82
-120
-119
-61
-55
-48
-12
10
25
51
86
128
170
206
246
294
340
384
425
456
468
464
448
420
378
314
223
121
26
-58
-130
-191
-235
-264
-282
-287
-272
-257
-252
-246
-234
-229
-229
-225
-222
-219
-214
-225
-241
-229
-208
-215
-229
-224
-218
-220
-216
-213
-218
-215
-203
-195
-192
-188
-184
-183
-180
-181
-178
-166
-164
-170
-159
-147
-165
-188
-174
-130
-85
-56
-46
-55
-83
-114
-120
-111
-116
-115
-107
-125
-116
-82
-141
-201
30
761
1957
2774
2021
280
-538
-220
-23
-157
-145
-92
-128
-108
-69
-74
-52
-14
-2
17
53
76
100
146
198
235
270
324
382
419
439
456
461
454
438
397
328
237
132
38
-40
-117
-185
-228
-253
-270
-275
-274
-275
-271
-262
-250
-241
-239
-238
-229
-224
-228
-230
-230
-235
-235
-227
-224
-226
-228
-227
-220
-215
-212
-206
-205
-211
-203
-186
-181
-182
-177
-176
-177
-168
-158
-162
-169
-170
-168
-160
-126
-72
-32
-32
-56
-82
-103
-109
-107
-112
-105
-92
-107
-103
-75
-126
-178
54
796
1971
2676
1840
170
-530
-182
1
-134
-122
-64
-97
-88
-44
-33
-19
9
28
47
74
104
135
168
212
259
296
336
389
430
448
460
465
459
438
396
323
229
131
39
-44
-123
-190
-235
-258
-266
-271
-276
-274
-262
-257
-257
-253
-247
-248
-249
-246
-245
-247
-248
-252
-256
-254
-250
-254
-258
-250
-239
-238
-240
-239
-234
-229
-229
-232
-229
-219
-213
-214
-214
-212
-213
-219
-222
-210
-175
-126
-92
-93
-114
-139
-161
-167
-163
-163
-162
-167
-178
-147
-125
-197
-219
89
948
2180
2669
1497
-168
-601
-186
-92
-206
-148
-117
-153
-124
-93
-89
-62
-37
-23
14
54
79
107
140
178
230
290
334
366
404
441
454
458
463
445
392
314
212
105
21
-50
-128
-192
-226
-249
-270
-273
-259
-248
-241
-234
-231
-228
-216
-202
-202
-213
-216
-205
-201
-210
-207
-193
-186
-184
-184
-185
-178
-165
-162
-157
-145
-145
-155
-158
-153
-139
-104
-53
-18
-17
-36
-59
-77
-88
-93
-90
-75
-79
-95
-68
-54
-122
-121
215
1156
2494
2892
1444
-325
-612
-94
-19
-141
-66
-34
-66
-26
3
-10
10
49
71
89
120
158
192
220
256
302
348
392
431
453
460
463
461
441
399
330
241
148
53
-44
-132
-201
-255
-293
-312
-325
-331
-326
-319
-317
-318
-318
-315
-310
-311
-318
-321
-321
-330
-339
-339
-343
-351
-353
-355
-360
-353
-345
-349
-352
-344
-341
-344
-347
-347
-343
-348
-361
-366
-360
-337
-291
-248
-237
-250
-273
-299
-307
-300
-304
-301
-291
-305
-298
-256
-297
-363
-182
463
1627
2601
2079
327
-680
-401
-117
-240
-243
-161
-189
-176
-110
-94
-81
-43
-14
18
63
108
150
195
253
322
382
435
497
556
598
626
643
653
656
635
577
493
403
322
257
195
143
118
112
114
130
