# session 25
-94
-107
-68
-97
-275
-442
-456
-409
-406
-411
-400
-396
-391
-379
-388
-405
-395
-372
-356
-322
-263
-227
-242
-273
-280
-269
-257
-240
-227
-242
-235
-199
-253
-334
-144
586
1871
2848
2183
317
-688
-401
-146
-277
-271
-189
-217
-212
-166
-155
-132
-96
-80
-54
-6
31
62
112
180
248
308
362
407
438
455
460
450
420
372
311
235
147
60
-18
-90
-152
-189
-207
-217
-218
-211
-213
-217
-211
-205
-212
-216
-199
-178
-180
-198
-207
-207
-212
-219
-214
-204
-204
-215
-217
-202
-192
-203
-218
-220
-214
-206
-183
-139
-103
-101
-124
-144
-156
-168
-161
-138
-149
-159
-119
-141
-239
-180
292
1410
2778
2849
1072
-565
-608
-168
-217
-285
-189
-199
-208
-142
-137
-146
-95
-56
-39
-3
31
60
105
154
204
274
339
380
415
440
442
442
437
394
320
241
156
65
-18
-92
-157
-204
-240
-275
-287
-268
-255
-263
-260
-241
-234
-237
-235
-228
-232
-251
-260
-248
-240
-252
-257
-248
-252
-262
-258
-253
-264
-271
-261
-237
-203
-167
-150
-166
-194
-196
-186
-197
-196
-179
-196
-192
-153
-205
-270
-81
622
2005
3181
2468
289
-877
-498
-163
-291
-273
-186
-218
-202
-151
-149
-129
-91
-71
-44
-4
32
72
126
195
262
312
363
424
461
465
464
451
406
342
271
185
91
4
-80
-158
-215
-243
-256
-268
-279
-276
-264
-255
-253
-251
-241
-227
-217
-215
-226
-236
-232
-229
-237
-248
-248
-240
-232
-231
-233
-236
-246
-260
-256
-235
-221
-206
-165
-127
-133
-160
-168
-161
-171
-184
-164
-154
-174
-146
-131
-235
-258
119
1119
2553
3111
1719
-204
-678
-234
-177
-300
-212
-179
-222
-182
-145
-146
-121
-90
-68
-30
13
50
93
150
211
274
344
415
462
482
495
494
466
421
359
270
169
74
-20
-108
-175
-220
-252
-275
-286
-288
-292
-289
-269
-255
-260
-256
-242
-241
-244
-232
-223
-234
-243
-237
-234
-246
-253
-246
-234
-229
-242
-268
-271
-246
-232
-223
-183
-136
-130
-155
-172
-170
-177
-194
-177
-147
-170
-173
-124
-184
-288
-84
684
2000
3019
2371
447
-636
-374
-115
-250
-249
-173
-206
-192
-140
-140
-130
-91
-69
-41
2
37
75
132
196
260
324
383
435
476
492
483
467
439
378
296
210
110
4
-77
-132
-186
-231
-258
-276
-284
-271
-259
-269
-277
-257
-232
-228
-227
-217
-213
-219
-222
-225
-231
-237
-238
-231
-219
-216
-223
-218
-202
-201
-213
-210
-193
-189
-196
-191
-174
-168
-182
-198
-201
-196
-179
-133
-83
-70
-87
-106
-112
-112
-115
-106
-99
-125
-117
-66
-131
-234
-40
630
1779
2796
2388
628
-540
-366
-72
-189
-213
-140
-172
-170
-113
-109
-108
-64
-24
-1
25
60
101
144
194
256
322
384
434
462
473
481
485
467
416
343
263
178
87
-1
-77
-141
-197
-231
-241
-241
-242
-245
-247
-238
-224
-225
-229
-221
-216
-219
-216
-213
-220
-225
-226
-232
-234
-225
-227
-236
-226
-209
-212
-220
-216
-209
-207
-205
-199
-194
-196
-194
-182
-176
-182
-189
-196
-203
-195
-173
-141
-98
-67
-80
-114
-123
-118
-124
-125
-125
-144
-119
-65
-127
-223
-36
641
1824
2815
2319
539
-567
-360
-79
-203
-224
-139
-156
-156
-115
-109
-93
-54
-37
-25
6
47
87
127
181
251
311
355
399
440
463
467
460
442
406
340
260
181
95
-3
-87
-146
-184
-210
-232
-249
-252
-249
-252
-249
-234
-229
-239
-236
-220
-218
-224
-220
-219
-232
-241
-244
-244
-236
-237
-250
-242
-218
-218
-228
-217
-203
-208
-212
-207
-207
-213
-211
-203
-198
-179
-131
-88
-92
-133
-152
-145
-148
-142
-123
-141
-153
-121
-162
-233
-73
561
1824
3000
2507
478
-786
-499
-137
-265
-257
-134
-162
-168
-118
-128
-118
-57
-27
-15
19
57
96
144
196
254
317
367
405
449
482
480
459
441
404
330
239
153
70
-16
-101
-178
-232
-257
-268
-276
-273
-266
-265
-264
-253
-239
-230
-227
-231
-235
-235
-235
-236
-235
-238
-251
-263
-259
-249
-247
-248
-243
-243
-257
-267
-258
-237
-209
-172
-141
-138
-163
-188
-194
-193
-187
-169
-170
-184
-150
-145
-241
-241
145
1164
2578
2989
1470
-370
-696
-224
-174
-277
-196
-183
-220
-174
-138
-137
-112
-84
-63
-29
12
53
100
154
212
276
349
417
462
484
489
481
462
416
334
242
157
68
-28
-114
-179
-223
-254
-277
-287
-281
-276
-277
-269
-251
-238
-236
-238
-234
-230
-231
-231
-232
-236
-236
-233
-240
-243
-236
-240
-260
-267
-255
-237
-206
-159
-128
-138
-173
-191
-187
-191
-188
-167
-172
-188
-161
-176
-264
-215
249
1363
2714
2831
1171
-436
-556
-156
-200
-294
-217
-206
-214
-165
-149
-147
-114
-90
-73
-33
14
56
95
138
203
287
359
410
450
474
478
467
440
386
307
223
139
45
-50
-130
-193
-238
-263
-278
-291
-288
-266
-251
-253
-255
-249
-240
-236
-236
-234
-227
-225
-234
-242
-239
-227
-217
-219
-230
-233
-225
-224
-236
-242
-246
-252
-234
-187
-143
-119
-114
-131
-157
-167
-169
-168
-149
-143
-164
-144
-123
-209
-256
45
933
2261
2900
1780
-23
-623
-240
-121
-247
-198
-155
-189
-160
-126
-127
-106
-80
-62
-24
17
50
93
147
202
261
324
385
433
459
473
475
452
405
349
286
205
110
18
-62
-133
-190
-228
-253
-266
-266
-263
-259
-254
-253
-255
-247
-231
-221
-222
-225
-226
-229
-234
-238
-239
-242
-243
-239
-242
-250
-253
-262
-279
-276
-246
-208
-166
-131
-131
-164
-189
-190
-190
-183
-164
-175
-195
-158
-150
-244
-246
152
1193
2558
2873
1389
-303
-590
-198
-190
-285
-204
-187
-213
-173
-153
-153
-112
-74
-64
-43
4
54
96
138
192
262
329
381
421
448
452
441
428
397
333
251
168
81
-15
-103
-161
-202
-244
-272
-273
-261
-259
-265
-266
-257
-248
-244
-237
-231
-238
-245
-239
-237
-241
-234
-228
-244
-262
-252
-232
-225
-236
-255
-254
-233
-218
-198
-148
-110
-134
-187
-192
-169
-181
-192
-164
-158
-159
-144
-200
-248
-54
614
1936
3103
2457
321
-875
-515
-159
-281
-269
-173
-203
-202
-158
-148
-116
-72
-61
-44
2
47
84
124
182
255
327
389
446
487
495
482
478
462
399
314
240
151
35
-61
-128
-192
-243
-268
-281
-284
-279
-277
-274
-265
-260
-257
-250
-242
-229
-227
-245
-253
-237
-230
-243
-255
-252
-253
-274
-287
-269
-254
-254
-228
-178
-155
-174
-203
-213
-210
-217
-211
-193
-206
-195
-158
-221
-287
-68
678
2061
3173
2394
224
-880
-477
-173
-317
-283
-191
-236
-219
-161
-167
-152
-100
-73
-49
-7
32
72
128
191
252
316
379
428
467
499
502
467
424
377
299
189
77
-18
-98
-169
-226
-260
-283
-302
-302
-287
-277
-270
-256
-245
-244
-241
-231
-225
-227
-235
-240
-236
-234
-243
-245
-234
-237
-262
-273
-255
-242
-236
-205
-154
-135
-162
-196
-201
-194
-195
-179
-167
-195
-189
-147
-221
-312
-99
669
2059
3176
2480
421
-694
-394
-143
-296
-285
-204
-242
-229
-175
-177
-169
-130
-102
-73
-32
9
55
107
162
229
304
378
440
478
486
488
485
447
369
282
199
102
-10
-109
-177
-230
-273
-294
-295
-300
-315
-316
-301
-286
-273
-257
-248
-248
-245
-235
-234
-245
-249
-240
-240
-249
-252
-249
-247
-245
-244
-252
-264
-268
-255
-232
-201
-166
-135
-128
-149
-169
-170
-169
-164
-150
-168
-183
-128
-135
-262
-213
328
1489
2814
2906
1244
-378
-527
-146
-191
-271
-187
-188
-201
-146
-135
-140
-97
-57
-36
0
40
77
127
187
250
318
384
443
497
532
534
521
501
454
377
290
194
96
8
-72
-147
-197
-217
-227
-241
-248
-240
-237
-247
-238
-207
-196
-206
-203
-193
-194
-197
-197
-204
-207
-197
-195
-210
-215
-206
-204
-206
-197
-192
-196
-198
-194
-186
-176
-176
-186
-180
-162
-163
-176
-170
-159
-160
-158
-158
-176
-192
-176
-134
-89
-59
-50
-62
-95
-124
-124
-117
-116
-108
-124
-144
-103
-110
-214
-145
364
1400
2596
2730
1243
-295
-483
-123
-155
-248
-173
-167
-195
-161
-137
-125
-93
-72
-55
-18
24
59
99
148
196
247
313
381
430
455
469
472
458
433
392
324
233
144
61
-26
-110
-171
-210
-236
-249
-254
-255
-253
-246
-241
-237
-228
-221
-225
-229
-226
-227
-231
-228
-225
-231
-239
-241
-239
-236
-235
-234
-233
-229
-221
-210
-209
-216
-215
-211
-211
-207
-205
-209
-200
-169
-138
-115
-91
-78
-99
-135
-147
-145
-142
-125
-128
-153
-119
-101
-200
-212
162
1112
2468
3003
1661
-225
-699
-232
-143
-278
-207
-163
-198
-162
-123
-124
-105
-74
-53
-22
18
60
111
168
215
258
324
402
455
478
496
505
491
464
422
340
239
151
61
-39
-124
-183
-226
-258
-272
-275
-275
-278
-276
-262
-241
-234
-240
-245
-246
-243
-236
-232
-238
-251
-264
-268
-261
-257
-258
-257
-258
-258
-255
-260
-269
-259
-227
-185
-147
-135
-155
-189
-206
-200
-190
-184
-186
-204
-187
-145
-200
-281
-123
518
1811
3026
2535
475
-805
-517
-150
-272
-279
-183
-214
-211
-160
-156
-137
-88
-61
-42
-10
28
75
121
168
233
310
378
431
474
500
502
485
451
394
313
215
109
7
-81
-157
-220
-259
-275
-284
-290
-291
-287
-278
-267
-259
-255
-249
-241
-237
-241
-247
-242
-234
-235
-238
-239
-248
-267
-274
-268
-256
-232
-195
-165
-162
-183
-200
-197
-200
-210
-194
-188
-204
-168
-156
-267
-287
107
1123
2518
2996
1614
-198
-624
-224
-184
-301
-231
-207
-236
-198
-166
-157
-128
-107
-89
-48
-8
30
81
138
200
271
339
394
444
478
482
474
456
403
320
236
148
45
-54
-129
-185
-227
-259
-282
-293
-290
-283
-279
-272
-261
-254
-250
-245
-240
-232
-227
-234
-242
-234
-229
-241
-251
-256
-269
-281
-273
-250
-219
-182
-150
-146
-168
-189
-195
-200
-196
-181
-194
-202
-163
-186
-288
-223
283
1425
2746
2783
1093
-453
-534
-165
-224
-297
-214
-218
-234
-188
-176
-168
-128
-108
-97
-51
3
41
82
138
201
264
326
385
429
444
440
435
421
376
300
211
119
24
-70
-144
-195
-236
-267
-280
-286
-293
-288
-270
-258
-252
-242
-239
-242
-237
-227
-225
-231
-233
-239
-255
-269
-272
-269
-258
-233
-193
-153
-141
-166
-200
-210
-212
-219
-208
-194
-216
-211
-178
-236
-291
-64
685
2009
3012
2251
263
-751
-422
-161
-292
-285
-216
-242
-221
-174
-171
-156
-127
-106
-66
-17
14
52
110
167
219
285
354
397
423
449
457
439
405
355
279
185
91
6
-78
-159
-220
-251
-265
-278
-286
-279
-264
-258
-254
-247
-243
-236
-225
-223
-229
-233
-234
-237
-244
-253
-254
-249
-249
-245
-213
-172
-161
-180
-200
-204
-208
-217
-207
-199
-217
-200
-168
-227
-254
-1
767
2133
3094
2148
44
-874
-437
-184
-319
-273
-194
-229
-208
-168
-165
-131
-94
-84
-52
-3
29
67
127
186
245
315
378
421
450
461
448
421
382
322
243
155
57
-39
-116
-179
-233
-268
-284
-291
-293
-290
-283
-269
-252
-244
-242
-232
-220
-222
-231
-233
-232
-230
-230
-236
-242
-252
-268
-274
-265
-256
-232
-183
-146
-154
-184
-194
-189
-194
-200
-184
-190
-208
-169
-168
-277
-266
161
1212
2606
2968
1462
-302
-609
-201
-201
-305
-223
-210
-238
-195
-174
-171
-133
-104
-87
-47
-6
26
71
131
186
245
318
387
427
443
450
448
426
382
315
228
128
32
-50
-123
-183
-225
-252
-269
-280
-289
-286
-267
-251
-247
-242
-231
-224
-221
-215
-212
-216
-217
-213
-219
-231
-228
-217
-217
-221
-218
-220
-230
-235
-229
-215
-190
-152
-115
-101
-115
-139
-144
-142
-148
-140
-135
-152
-130
-104
-189
-240
62
929
2249
2981
1970
119
-608
-257
-106
-235
-197
-141
-170
-154
-121
-114
-85
-54
-38
-12
19
51
103
161
211
267
333
394
442
468
474
474
470
438
375
297
210
118
27
-57
-126
-174
-206
-231
-249
-251
-242
-238
-240
-238
-230
-223
-216
-211
-212
-215
-214
-210
-210
-214
-223
-232
-234
-228
-225
-224
-224
-223
-217
-209
-209
-210
-207
-201
-195
-197
-204
-196
-173
-163
-174
-186
-192
-202
-207
-192
-160
-119
-79
-62
-86
-131
-149
-142
-143
-135
-129
-155
-144
-109
-187
-249
10
754
1995
2932
2214
312
-665
-352
-118
-264
-257
-185
-219
-204
-152
-154
-153
-121
-90
-57
-20
12
47
90
141
203
268
329
384
421
437
442
448
447
418
356
279
199
108
8
-85
-159
-207
-237
-263
-280
-278
-268
-262
-253
-241
-233
-232
-237
-232
-221
-218
-220
-220
-221
-220
-221
-227
-231
-229
-224
-219
-212
-206
-198
-194
-193
-187
-184
-190
-186
-156
-115
-81
-59
-63
-88
-102
-98
-108
-116
-96
-98
-109
-70
-83
-178
-114
372
1503
2900
3009
1209
-506
-573
-95
-127
-202
-95
-92
-112
-61
-47
-44
-2
24
43
84
114
140
194
254
302
361
432
490
529
553
560
547
517
466
396
308
207
103
6
-79
-149
-196
-227
-254
-273
-275
-270
-273
-273
-259
-248
-246
-245
-244
-248
-252
-257
-266
-273
-275
-281
-289
-291
-294
-303
-307
-305
-305
-308
-306
-303
-305
-308
-303
-296
-302
-317
-334
-346
-335
-293
-245
-218
-210
-227
-267
-285
-276
-284
-289
-276
-294
-300
-256
-304
-407
-242
420
1616
2714
2355
559
-687
-545
-237
-346
-371
-286
-309
-307
-253
-242
-227
-183
-158
-134
-92
-46
-1
48
102
170
251
327
391
439
473
495
503
491
458
402
324
239
161
80
5
-45
-73
-95
-108
-108
-97
-79
-60
-43
-17
12
30
47
67
84
