# session 10
-22
-31
-23
-9
-37
-105
-145
-132
-116
-151
-205
-213
-211
-232
-197
-188
-332
-393
-32
893
2161
2607
1307
-398
-742
-300
-246
-340
-244
-208
-225
-162
-98
-43
48
136
209
274
289
248
189
125
67
35
26
13
-15
-44
-60
-67
-77
-94
-118
-149
-183
-209
-219
-224
-236
-242
-228
-197
-179
-205
-226
-206
-223
-259
-195
-205
-432
-502
-10
1156
2624
2994
1440
-348
-653
-296
-349
-439
-343
-340
-345
-251
-189
-146
-53
45
127
199
222
188
131
78
44
27
9
-16
-43
-68
-84
-92
-109
-139
-161
-171
-188
-213
-229
-232
-232
-232
-226
-204
-181
-199
-237
-234
-229
-241
-194
-200
-397
-503
-124
831
1966
2174
901
-484
-645
-272
-266
-336
-246
-214
-211
-143
-81
-23
69
156
225
287
310
272
198
129
81
54
39
19
-14
-42
-45
-44
-66
-90
-97
-103
-117
-135
-161
-183
-182
-173
-172
-161
-136
-140
-189
-227
-237
-270
-288
-255
-313
-470
-431
87
1128
2054
1710
226
-725
-550
-287
-360
-344
-239
-231
-219
-162
-111
-38
46
104
157
199
189
139
81
32
7
7
13
2
-23
-37
-37
-53
-84
-95
-97
-127
-166
-187
-210
-229
-207
-174
-172
-168
-135
-126
-162
-180
-171
-181
-157
-101
-186
-368
-311
274
1514
2703
2341
522
-662
-487
-217
-314
-287
-196
-222
-191
-100
-60
-8
90
177
237
277
283
245
176
114
88
98
114
107
90
87
85
65
36
14
-4
-32
-74
-120
-143
-137
-137
-171
-212
-218
-190
-176
-202
-229
-219
-228
-254
-212
-202
-341
-384
-25
868
2127
2627
1336
-489
-946
-474
-344
-425
-341
-299
-302
-225
-158
-114
-26
64
139
212
243
208
136
51
-25
-61
-68
-79
-102
-132
-160
-169
-158
-157
-177
-196
-198
-199
-217
-247
-271
-278
-284
-299
-305
-287
-283
-323
-356
-339
-342
-348
-285
-305
-464
-414
69
1018
2195
2402
907
-675
-796
-348
-355
-413
-297
-275
-274
-198
-147
-87
17
100
173
256
289
266
223
169
121
101
96
76
44
8
-20
-30
-35
-50
-63
-72
-91
-105
-109
-134
-171
-183
-182
-185
-161
-111
-78
-81
-107
-118
-109
-118
-113
-79
-151
-309
-241
398
1691
2820
2368
562
-603
-480
-235
-319
-304
-218
-225
-197
-121
-72
-11
73
150
220
269
270
223
146
60
-8
-48
-70
-97
-129
-149
-157
-163
-161
-153
-158
-170
-170
-170
-186
-202
-214
-228
-229
-212
-197
-184
-169
-160
-153
-158
-187
-202
-199
-208
-181
-163
-280
-360
-73
732
1970
2713
1744
-163
-955
-563
-334
-418
-350
-280
-300
-246
-169
-131
-52
66
166
255
326
337
280
202
138
82
37
29
29
-6
-51
-74
-98
-129
-135
-120
-116
-146
-203
-242
-233
-224
-255
-299
-318
-299
-268
-277
-312
-297
-246
-250
-312
-330
-297
-301
-304
-262
-285
-320
-119
506
1626
2546
1913
34
-987
-610
-230
-309
-288
-169
-155
-128
-66
-19
79
213
303
375
460
497
449
368
298
234
166
120
89
27
-39
-46
-31
-51
-74
-79
-92
-108
-123
-157
-194
-208
-213
-224
-234
-233
-225
-227
-241
-228
-190
-185
-223
-238
-217
-219
-225
-184
-187
-275
-249
139
1083
2261
2376
841
-699
-816
-365
-322
-363
-280
-281
-271
-170
-103
-51
55
177
294
404
478
488
432
332
233
146
64
7
-22
-54
-93
-123
-144
-157
-157
-156
-171
-194
-213
-238
-264
-271
-280
-306
-289
-235
-251
-333
-359
-320
-291
-298
-326
-329
-302
-313
-320
-265
-300
-395
-199
449
1504
2447
2047
274
-918
-670
-264
-331
-329
-215
-218
-188
-89
-26
48
167
284
387
464
481
437
346
229
128
64
26
1
-24
-59
-94
-107
-102
-100
-107
-105
-103
-118
-139
-146
-157
-178
-194
-208
-222
-228
-221
-203
-167
-127
-111
-122
-153
-169
-149
-149
-173
-142
-145
-269
-277
136
1175
2600
3074
1654
-180
-641
-311
-300
-387
-300
-277
-288
-217
-161
-125
-50
30
103
194
262
266
227
173
113
60
26
-1
-35
-70
-101
-133
-156
-169
-189
-213
-232
-249
-268
-285
-300
-310
-315
-324
-343
-366
-373
-350
-321
-303
-272
-220
-186
-202
-240
-248
-232
-235
-219
-195
-261
-331
-140
553
1742
2555
1804
76
-778
-531
-319
-370
-301
-219
-225
-185
-127
-101
-27
96
192
261
329
365
354
324
272
192
134
128
122
78
22
-18
-38
-53
-76
-99
-112
-126
-150
-173
-186
-209
-255
-289
-281
-276
-301
-295
-240
-216
-234
-219
-175
-178
-230
-250
-224
-205
-185
-169
-231
-260
-61
530
1770
3025
2555
408
-950
-652
-253
-350
-320
-191
-200
-176
-97
-46
32
124
186
268
361
392
350
275
189
110
58
30
11
-8
-34
-59
-72
-80
-90
-101
-119
-144
-162
-171
-188
-212
-226
-244
-283
-307
-296
-288
-296
-284
-250
-227
-236
-266
-261
-233
-254
-255
-206
-280
-412
-234
537
1970
3189
2581
471
-783
-551
-277
-403
-383
-290
-314
-290
-204
-150
-96
-11
95
194
237
231
212
163
91
37
3
-29
-67
-104
-123
-125
-137
-155
-163
-176
-193
-199
-203
-212
-210
-208
-232
-267
-280
-263
-251
-260
-260
-227
-184
-165
-187
-223
-221
-210
-235
-226
-193
-261
-318
-73
649
1733
2318
1433
-182
-832
-502
-309
-373
-306
-227
-227
-180
-119
-84
-12
84
165
263
365
414
408
376
324
255
193
151
112
61
2
-41
-59
-68
-87
-110
-130
-153
-165
-156
-155
-181
-212
-220
-213
-215
-225
-221
-202
-180
-161
-153
-167
-193
-208
-205
-218
-247
-229
-206
-265
-271
-10
744
2092
3017
2057
19
-855
-489
-295
-398
-321
-248
-275
-225
-152
-114
-30
74
144
222
310
348
332
295
237
172
138
122
82
36
6
-30
-57
-53
-61
-100
-117
-109
-130
-175
-209
-237
-263
-273
-283
-295
-283
-265
-284
-307
-282
-246
-263
-309
-300
-270
-291
-282
-230
-286
-352
-126
627
1995
3040
2175
-6
-1078
-692
-397
-484
-400
-300
-332
-291
-200
-145
-66
27
110
234
374
434
395
315
231
131
24
-42
-69
-106
-157
-179
-174
-176
-187
-185
-174
-175
-186
-197
-218
-248
-263
-263
-271
-281
-273
-269
-274
-254
-207
-184
-219
-266
-252
-229
-258
-237
-192
-306
-404
-99
796
2220
3158
2193
117
-782
-387
-179
-304
-244
-177
-211
-165
-81
-28
51
136
207
297
376
392
356
294
217
147
99
58
7
-46
-80
-98
-109
-114
-113
-116
-124
-134
-148
-169
-190
-207
-213
-210
-229
-277
-310
-305
-296
-292
-261
-216
-201
-226
-255
-249
-235
-257
-250
-206
-270
-374
-219
417
1628
2720
2248
368
-823
-627
-331
-421
-401
-305
-317
-289
-208
-157
-86
18
118
225
331
396
401
349
275
222
181
131
83
39
-16
-70
-105
-123
-133
-149
-172
-188
-191
-198
-213
-226
-246
-267
-266
-254
-264
-280
-272
-265
-284
-286
-243
-201
-195
-217
-245
-243
-226
-244
-230
-177
-232
-303
-102
547
1787
2946
2411
315
-969
-662
-274
-369
-354
-243
-251
-229
-153
-92
3
115
211
330
452
509
498
462
408
314
203
140
119
78
14
-36
-70
-95
-99
-99
-121
-148
-162
-181
-211
-230
-239
-255
-272
-272
-270
-284
-284
-265
-260
-260
-233
-210
-240
-281
-265
-244
-279
-277
-235
-295
-322
-27
713
1900
2708
1784
-211
-1039
-539
-253
-380
-319
-213
-231
-194
-125
-91
-15
102
207
311
401
432
406
352
271
175
100
54
15
-14
-42
-86
-123
-122
-110
-116
-136
-155
-166
-176
-194
-209
-213
-226
-251
-261
-256
-267
-289
-282
-255
-245
-245
-219
-180
-168
-199
-218
-191
-189
-213
-169
-160
-278
-283
90
1068
2543
3120
1639
-340
-782
-343
-315
-422
-316
-274
-281
-203
-139
-95
-5
94
188
298
385
418
401
343
267
199
138
79
30
-19
-79
-129
-154
-165
-174
-186
-196
-199
-202
-209
-224
-245
-260
-267
-279
-288
-292
-310
-327
-313
-301
-301
-277
-240
-228
-244
-279
-289
-257
-260
-272
-222
-253
-364
-235
315
1365
2556
2511
768
-748
-725
-302
-360
-408
-288
-265
-257
-184
-133
-69
46
157
250
345
423
453
433
377
303
233
193
162
100
23
-32
-70
-100
-122
-141
-149
-144
-162
-199
-212
-218
-252
-275
-259
-247
-263
-279
-282
-285
-281
-264
-253
-248
-223
-195
-205
-240
-233
-193
-203
-222
-185
-202
-262
-133
385
1531
2854
2691
689
-878
-748
-291
-333
-317
-179
-182
-181
-119
-67
25
133
216
345
513
604
584
510
425
347
273
195
125
79
44
10
-23
-48
-60
-98
-187
-228
-137
-39
-96
-215
-205
-150
-201
-178
-17
-55
-256
-180
-14
-209
-419
-247
-85
-213
-312
-216
-111
-126
-199
-186
-119
-157
-225
-104
454
1601
2507
1867
216
-630
-449
-278
-328
-316
-306
-328
-295
-233
-202
-214
-180
-46
40
68
162
137
-147
-444
-545
-372
-62
-72
-392
-463
-284
-260
-361
-439
-490
-451
-415
-494
-525
-484
-526
-519
-387
-319
-252
-107
-100
-73
198
234
-36
60
483
1079
2072
2228
492
-1111
-863
-265
-458
-543
-209
-32
1
179
434
595
584
465
446
601
714
650
601
671
675
632
750
799
451
56
-7
-96
-400
-474
-392
-586
-537
58
45
-785
-804
80
189
-333
-187
160
-77
-334
-432
-795
-974
-599
-348
-524
-649
-618
-652
-727
-770
-691
-456
-347
-443
-452
-372
-87
878
2185
2955
2885
1764
-149
-1384
-1175
-523
-322
-497
-610
-254
291
318
63
273
696
644
327
316
465
404
368
617
788
669
647
690
254
-148
795
2390
2177
274
-568
-43
-78
-428
-147
-160
-509
-174
118
-165
0
272
-226
-532
-316
-687
-1305
-1177
-846
-879
-862
-786
-975
-1138
-985
-712
-373
264
1154
1584
801
-526
-831
-89
365
147
-271
-791
-1163
-852
-253
-222
-410
-172
-84
-369
-127
473
485
365
707
790
305
-24
52
133
24
-120
-130
-113
-323
-805
-1120
-431
1361
2784
2408
769
-497
-695
-354
-55
146
244
210
337
644
592
270
296
334
-131
-488
-418
-597
-989
-729
443
1816
2090
729
-841
-1159
-804
-771
-795
-476
-270
-543
-819
-681
-437
-363
-398
-441
-243
88
94
55
226
-51
-613
-537
-216
-307
-260
134
277
137
5
-171
-310
-218
-106
-280
-553
-548
-418
-587
-952
-1189
-1112
-182
1631
2654
1666
18
-740
-876
-784
-467
-393
-286
714
2097
3288
4579
4735
2563
283
-66
54
-456
-560
-148
-78
-222
-188
-136
-136
-116
-129
-79
177
395
219
-208
-508
-646
-667
-442
-150
-129
-208
-170
-272
-532
-592
-511
-520
-548
-592
-538
-102
340
225
-123
-284
-411
-458
-251
-58
-81
-227
-436
-447
-349
-981
-1745
-527
1901
2400
1589
2311
2975
915
-1304
-1059
-703
-1502
-1102
366
437
-340
-161
292
21
-271
-78
20
-202
-214
126
317
148
-76
-144
-71
93
218
177
5
-203
-538
-1153
-1647
-1304
-371
106
-128
-431
-330
-30
-118
-536
-624
-562
-793
-738
-237
-110
-310
-179
43
-135
-540
-845
-770
298
2296
3203
1475
-890
-1323
-652
-551
-271
1259
2807
2379
386
-803
-473
151
538
514
-245
-574
500
1492
1404
1268
1337
1061
836
849
561
75
-161
-235
-283
-259
-248
-284
-247
-152
-116
-99
-10
125
344
489
-184
-1800
-2835
-2155
-886
-444
-469
-214
-146
-715
-1049
-246
1260
2394
2276
802
-707
-895
-296
-134
-407
-592
-696
-800
-822
-829
-792
-607
-505
-506
-301
-340
-976
-896
761
2320
2159
950
-62
-555
-628
-548
-569
-458
83
705
1022
1308
1751
1924
1582
963
313
-110
-123
1
-32
-44
110
148
-105
-354
-402
-512
-695
-576
-98
937
2598
3073
792
-1885
-2028
-841
-503
-548
-381
-692
-1223
-1220
-1210
-1390
-868
-11
26
-213
205
651
463
111
13
-64
-320
-631
-932
-1076
-784
-735
-1755
-2357
-798
1363
1773
682
-268
-217
-118
-795
34
3354
4681
1863
-517
90
1014
857
692
795
562
-168
-751
-497
590
2146
3114
2174
216
-637
-553
-759
-961
-824
-789
-711
-408
-261
-259
-438
-1193
-1837
-1360
-434
-56
169
551
391
-351
-636
-365
-539
-1016
-868
-505
-692
-826
-333
103
-90
-423
-428
-382
-460
-464
-536
-713
-532
-156
-134
-291
-696
-1481
-1287
516
1902
1627
1118
1811
3421
3840
1269
-1644
-791
1883
2081
999
1067
960
166
231
696
270
-417
-512
-301
-114
74
173
37
-233
-363
-274
-167
-134
33
292
101
-647
-1235
-1235
-857
-279
235
324
150
3
-212
-511
-765
-914
-869
-737
-722
-668
-476
-392
-431
-431
-402
-349
-105
779
2232
2602
854
-1089
-1275
-571
-447
-686
-174
1259
2194
1537
171
-610
-718
-564
-351
-205
-182
-115
293
1025
1632
1897
1996
1923
1666
1463
1210
693
299
298
374
437
567
515
254
59
-128
-369
-452
-452
-508
-502
-672
-926
-187
1101
651
-1233
-1704
-562
385
1338
2388
1520
-1094
-2353
-1788
-1743
-2372
-2165
-1420
-1119
-1057
-982
-1031
-996
-807
-794
-863
-708
-526
-472
-324
-249
-613
-1100
-1282
-1315
-1097
-50
1426
1690
135
-1537
-1772
-1268
-1117
-1164
-1174
-1269
-1291
-1042
-535
43
403
601
778
656
276
59
-131
-460
-552
-133
1062
2786
3194
1286
-793
-1127
-693
-682
-765
-587
-455
-560
-345
874
2339
2306
793
-148
358
911
605
208
150
75
76
202
-57
-646
-927
-808
-622
-515
-491
-467
-313
-21
265
321
127
6
84
98
31
95
151
151
396
525
154
552
2337
3387
2991
3483
4678
3650
956
-224
284
598
421
359
420
494
625
850
1209
1548
1615
1485
1436
1568
1750
1708
1406
1179
1070
809
560
537
392
63
-66
-172
-265
166
115
-1435
-1897
681
2731
1373
-555
-601
-226
-438
-581
-801
-1526
-2157
-2155
-1993
-2235
-2616
-2646
-2199
-1004
698
1096
-819
-3035
-3624
-3366
-3363
-3461
-3516
-3624
-3714
-3791
-3769
-3540
-3185
-2401
-899
