# session 29
11
-17
39
84
-49
-280
-375
-323
-287
-332
-353
-198
388
1653
2834
2300
259
-962
-635
-246
-354
-355
-255
-284
-278
-217
-212
-206
-166
-135
-107
-71
-35
9
60
112
167
221
271
316
341
343
336
321
288
238
176
97
11
-70
-143
-205
-249
-279
-302
-313
-309
-300
-290
-276
-264
-258
-248
-237
-232
-230
-229
-231
-234
-234
-233
-232
-232
-236
-246
-253
-245
-233
-217
-180
-136
-127
-156
-182
-181
-175
-181
-170
-157
-176
-161
-126
-203
-269
-4
846
2253
3172
2243
261
-599
-244
-81
-245
-215
-154
-197
-179
-135
-138
-120
-80
-55
-30
4
38
85
139
185
238
309
371
408
434
453
453
436
402
338
248
149
49
-48
-133
-198
-245
-276
-295
-303
-302
-297
-293
-290
-280
-260
-241
-236
-235
-231
-229
-228
-226
-229
-234
-233
-230
-232
-236
-237
-235
-236
-238
-241
-247
-247
-232
-208
-177
-140
-125
-148
-174
-169
-165
-181
-168
-147
-166
-147
-114
-215
-281
63
1026
2445
3213
2127
178
-563
-197
-81
-241
-200
-151
-193
-163
-117
-120
-103
-65
-43
-21
12
60
114
157
202
265
330
377
416
445
452
450
447
413
343
270
191
87
-18
-97
-157
-209
-245
-263
-269
-267
-265
-266
-264
-255
-241
-231
-226
-223
-218
-213
-211
-212
-213
-214
-216
-221
-223
-216
-209
-211
-211
-206
-202
-199
-190
-183
-183
-180
-172
-165
-162
-160
-160
-155
-146
-146
-149
-142
-133
-133
-130
-120
-115
-114
-116
-123
-135
-145
-146
-121
-74
-34
-17
-20
-44
-67
-69
-75
-79
-63
-76
-95
-50
-69
-187
-90
485
1591
2819
2895
1314
-224
-363
-25
-110
-208
-128
-131
-157
-114
-96
-97
-66
-42
-29
2
49
89
120
160
216
269
317
368
405
419
427
434
426
397
349
284
205
112
17
-64
-132
-187
-226
-255
-270
-267
-261
-259
-255
-252
-249
-238
-231
-240
-240
-227
-225
-231
-224
-219
-229
-235
-230
-225
-223
-221
-224
-227
-219
-207
-203
-201
-196
-199
-205
-194
-179
-178
-177
-167
-162
-159
-154
-153
-152
-144
-141
-146
-150
-159
-171
-160
-123
-75
-27
-8
-35
-71
-87
-90
-96
-99
-91
-90
-104
-86
-61
-124
-178
60
868
2172
2913
1949
172
-519
-172
-27
-166
-147
-106
-142
-118
-77
-82
-69
-30
-3
20
49
82
123
166
207
252
301
346
386
413
414
401
396
387
344
277
215
150
66
-21
-86
-140
-189
-218
-232
-245
-248
-233
-221
-224
-222
-208
-198
-198
-198
-199
-202
-201
-197
-198
-203
-207
-208
-204
-203
-206
-205
-202
-199
-194
-192
-192
-184
-174
-174
-179
-173
-164
-160
-158
-153
-149
-150
-148
-143
-143
-148
-151
-157
-168
-156
-104
-51
-32
-36
-52
-83
-106
-107
-106
-108
-103
-116
-122
-91
-107
-182
-124
345
1458
2683
2564
866
-491
-421
-44
-126
-197
-119
-125
-132
-87
-81
-77
-38
-18
-9
25
67
92
115
160
218
266
305
348
383
389
382
381
377
350
301
243
180
107
25
-51
-115
-174
-218
-240
-249
-251
-248
-248
-246
-234
-220
-217
-218
-215
-213
-219
-218
-209
-209
-221
-222
-213
-210
-215
-218
-217
-206
-191
-189
-198
-202
-194
-187
-182
-174
-171
-178
-183
-184
-181
-160
-122
-86
-58
-44
-68
-114
-133
-124
-125
-128
-120
-126
-123
-99
-128
-179
-66
478
1699
2901
2468
469
-825
-546
-116
-193
-202
-96
-117
-126
-80
-77
-69
-31
-7
16
53
88
122
161
203
248
298
342
373
397
415
410
384
354
318
262
190
113
35
-41
-109
-163
-205
-239
-261
-266
-264
-260
-253
-246
-242
-234
-227
-225
-219
-207
-204
-208
-209
-207
-207
-208
-211
-214
-213
-211
-211
-208
-203
-200
-196
-192
-193
-192
-183
-181
-188
-190
-191
-201
-196
-151
-97
-71
-63
-72
-107
-135
-129
-127
-140
-131
-130
-147
-123
-113
-200
-211
150
1118
2433
2824
1467
-211
-546
-135
-96
-212
-148
-125
-155
-121
-97
-97
-67
-38
-24
6
44
75
111
157
211
266
317
365
410
439
445
436
422
398
349
272
188
99
3
-82
-141
-188
-230
-256
-270
-278
-279
-272
-261
-251
-244
-239
-231
-222
-217
-214
-209
-208
-210
-210
-212
-217
-218
-214
-213
-217
-217
-210
-200
-194
-195
-195
-193
-194
-200
-209
-210
-182
-127
-84
-74
-83
-105
-134
-145
-142
-148
-146
-144
-161
-142
-106
-173
-248
-37
711
1978
2824
2005
196
-618
-273
-72
-209
-189
-123
-156
-144
-106
-106
-84
-47
-29
-2
29
52
95
152
198
244
304
360
402
429
441
443
431
404
358
285
192
104
24
-59
-135
-187
-225
-258
-277
-280
-275
-272
-268
-259
-256
-254
-240
-224
-220
-220
-211
-207
-214
-217
-212
-209
-209
-213
-221
-223
-215
-211
-214
-212
-202
-197
-199
-206
-217
-226
-210
-160
-110
-84
-78
-96
-134
-156
-152
-157
-159
-139
-141
-151
-126
-154
-246
-163
399
1594
2769
2494
728
-550
-420
-79
-180
-220
-127
-148
-168
-118
-99
-91
-61
-41
-22
11
47
89
134
173
218
275
329
372
408
429
431
425
414
381
322
248
159
61
-33
-116
-183
-220
-243
-268
-282
-281
-281
-279
-269
-261
-255
-245
-240
-238
-229
-223
-227
-227
-219
-217
-221
-224
-229
-234
-228
-218
-212
-209
-214
-229
-228
-199
-171
-147
-111
-88
-105
-138
-163
-177
-175
-156
-143
-162
-169
-136
-151
-215
-137
345
1505
2832
2709
807
-722
-613
-145
-204
-244
-130
-148
-173
-116
-105
-112
-73
-35
-8
30
58
79
124
187
238
285
344
401
433
447
447
432
407
368
300
210
118
26
-65
-139
-198
-245
-274
-285
-293
-300
-299
-287
-275
-263
-251
-248
-248
-237
-224
-227
-231
-224
-221
-227
-228
-228
-230
-228
-225
-227
-223
-217
-219
-217
-216
-229
-232
-199
-147
-107
-95
-110
-144
-162
-156
-161
-174
-159
-151
-165
-137
-131
-225
-235
141
1151
2532
2941
1522
-211
-547
-140
-121
-234
-164
-150
-181
-141
-119
-121
-85
-52
-39
-9
28
59
100
147
193
253
318
370
413
450
462
451
436
408
341
249
158
71
-21
-111
-179
-218
-246
-270
-282
-288
-296
-289
-268
-260
-258
-241
-225
-223
-223
-215
-205
-205
-211
-207
-199
-204
-211
-206
-202
-210
-205
-191
-194
-204
-195
-182
-188
-203
-214
-211
-179
-129
-87
-70
-84
-118
-139
-134
-134
-146
-135
-126
-151
-138
-100
-170
-249
-27
711
1938
2812
2114
347
-564
-293
-69
-192
-192
-126
-148
-138
-101
-102
-92
-58
-32
-10
20
55
97
143
190
243
302
353
389
420
445
449
435
415
375
305
223
138
40
-63
-141
-184
-216
-250
-273
-272
-267
-277
-281
-266
-256
-257
-247
-229
-221
-217
-213
-220
-223
-213
-212
-226
-229
-221
-219
-222
-224
-227
-218
-201
-200
-206
-191
-178
-188
-197
-188
-178
-179
-188
-197
-193
-164
-114
-70
-56
-70
-99
-126
-127
-119
-133
-137
-127
-136
-120
-93
-155
-190
99
981
2346
3021
1839
-78
-694
-247
-94
-221
-165
-114
-148
-126
-93
-83
-54
-28
-17
10
45
79
122
169
211
262
328
384
418
449
479
481
462
449
414
332
233
148
59
-36
-118
-187
-239
-263
-278
-302
-308
-287
-269
-269
-270
-263
-250
-238
-229
-224
-224
-230
-233
-230
-224
-225
-232
-234
-227
-225
-229
-225
-218
-224
-229
-220
-210
-212
-214
-211
-216
-230
-232
-202
-146
-100
-89
-98
-113
-137
-152
-151
-161
-162
-143
-152
-158
-120
-159
-256
-122
498
1723
2950
2692
824
-559
-429
-62
-171
-221
-139
-156
-153
-107
-116
-108
-60
-44
-30
14
50
76
125
184
235
290
355
410
446
468
481
475
449
410
343
244
140
43
-48
-126
-181
-225
-262
-282
-288
-295
-297
-289
-283
-277
-257
-237
-232
-228
-213
-206
-211
-213
-208
-204
-205
-203
-201
-206
-212
-209
-204
-204
-203
-199
-199
-198
-188
-175
-168
-168
-168
-165
-167
-174
-183
-192
-182
-134
-74
-49
-59
-71
-83
-103
-112
-111
-121
-120
-114
-128
-107
-80
-160
-204
101
921
2122
2783
1851
130
-548
-201
-49
-176
-146
-102
-137
-111
-75
-75
-52
-22
-15
4
42
81
123
165
212
268
325
377
425
461
475
475
464
436
394
332
246
143
44
-44
-120
-179
-222
-251
-270
-278
-278
-273
-268
-265
-260
-248
-233
-226
-223
-219
-216
-218
-216
-212
-217
-225
-224
-219
-222
-224
-218
-214
-212
-211
-216
-216
-204
-197
-198
-193
-188
-188
-180
-172
-176
-182
-185
-192
-191
-160
-109
-69
-57
-63
-81
-112
-131
-128
-127
-123
-112
-123
-126
-93
-129
-211
-85
479
1604
2756
2542
793
-539
-427
-54
-145
-201
-115
-127
-144
-106
-102
-89
-45
-24
-12
25
63
94
137
185
230
282
340
393
440
471
479
475
468
439
377
299
216
112
-2
-86
-144
-203
-248
-267
-277
-287
-290
-286
-275
-263
-264
-260
-242
-229
-228
-232
-234
-229
-220
-222
-230
-228
-225
-229
-235
-235
-232
-227
-224
-217
-207
-204
-208
-205
-197
-200
-208
-206
-197
-185
-155
-111
-81
-79
-99
-131
-150
-138
-130
-151
-153
-138
-145
-131
-114
-176
-186
141
1065
2439
3013
1694
-207
-698
-208
-96
-234
-163
-109
-146
-116
-83
-89
-64
-29
-17
10
56
93
129
177
228
285
350
409
450
484
512
520
505
469
404
312
210
107
5
-89
-161
-215
-263
-291
-289
-283
-293
-298
-286
-274
-266
-258
-249
-241
-229
-224
-227
-221
-208
-208
-213
-212
-214
-220
-220
-217
-215
-210
-205
-209
-212
-202
-188
-183
-182
-178
-174
-171
-170
-167
-162
-162
-167
-165
-162
-171
-164
-116
-60
-39
-46
-62
-88
-113
-114
-108
-108
-96
-101
-118
-86
-83
-178
-148
287
1268
2501
2795
1428
-172
-455
-82
-86
-193
-125
-118
-145
-104
-91
-94
-55
-27
-16
12
44
72
113
160
208
263
317
370
422
458
475
482
475
447
395
318
225
127
29
-62
-139
-193
-230
-262
-284
-288
-289
-290
-279
-262
-256
-254
-250
-245
-235
-226
-229
-236
-230
-221
-225
-233
-229
-224
-231
-234
-224
-219
-221
-220
-220
-223
-214
-198
-195
-200
-201
-202
-210
-222
-214
-169
-113
-78
-75
-99
-134
-144
-134
-143
-158
-139
-129
-157
-141
-112
-186
-216
104
965
2201
2778
1711
5
-560
-190
-70
-192
-165
-144
-170
-124
-87
-92
-68
-40
-30
-3
30
55
96
149
197
250
307
358
405
443
464
470
464
444
404
333
237
139
43
-57
-140
-189
-224
-260
-281
-283
-279
-278
-284
-285
-266
-248
-249
-255
-245
-229
-223
-229
-234
-230
-226
-228
-236
-244
-236
-219
-219
-227
-215
-200
-202
-205
-204
-215
-227
-215
-181
-137
-98
-81
-97
-127
-142
-146
-160
-169
-148
-143
-163
-139
-130
-203
-191
190
1214
2622
2970
1374
-465
-724
-201
-140
-236
-148
-132
-163
-115
-91
-91
-59
-40
-24
24
62
87
134
183
222
277
339
387
427
459
472
472
461
423
358
281
188
79
-20
-96
-163
-225
-265
-286
-300
-307
-305
-294
-281
-275
-266
-255
-255
-254
-243
-240
-245
-241
-234
-239
-244
-243
-239
-235
-241
-246
-234
-224
-231
-232
-231
-242
-242
-212
-171
-132
-106
-114
-151
-176
-175
-170
-174
-166
-162
-182
-164
-134
-212
-272
-8
824
2183
3026
2064
145
-636
-257
-89
-238
-208
-155
-196
-178
-135
-127
-101
-68
-52
-27
6
39
81
129
174
227
296
364
410
439
457
458
452
435
380
288
196
110
14
-82
-161
-217
-252
-275
-289
-289
-287
-297
-292
-264
-247
-248
-245
-238
-236
-227
-218
-226
-235
-228
-221
-226
-226
-219
-220
-222
-219
-226
-245
-247
-230
-210
-176
-128
-99
-102
-123
-157
-176
-165
-158
-161
-155
-167
-172
-130
-156
-264
-168
457
1705
2861
2518
725
-525
-390
-76
-189
-230
-147
-166
-175
-130
-120
-114
-80
-52
-32
-6
31
75
117
160
214
272
327
377
408
425
443
444
415
371
309
219
119
26
-64
-144
-204
-245
-268
-281
-292
-297
-294
-287
-275
-264
-257
-250
-245
-240
-234
-234
-241
-238
-230
-234
-241
-233
-223
-225
-232
-232
-227
-222
-220
-228
-242
-240
-219
-190
-143
-87
-78
-126
-168
-166
-155
-166
-172
-163
-179
-179
-128
-149
-250
-168
396
1587
2790
2580
836
-498
-426
-86
-175
-229
-149
-160
-170
-127
-115
-108
-75
-45
-19
3
27
66
115
161
209
261
317
370
405
420
427
430
428
401
334
251
168
70
-26
-93
-154
-213
-240
-249
-267
-278
-272
-264
-253
-240
-235
-236
-228
-219
-225
-230
-220
-210
-214
-220
-222
-226
-227
-227
-225
-219
-218
-230
-229
-211
-201
-188
-143
-101
-109
-148
-168
-163
-169
-180
-165
-162
-176
-148
-149
-226
-195
212
1267
2639
2808
1092
-604
-677
-170
-182
-264
-157
-154
-182
-128
-113
-121
-74
-30
-15
14
52
86
132
190
247
300
358
420
469
491
495
487
465
416
336
236
132
23
-86
-167
-218
-263
-302
-317
-315
-321
-327
-315
-296
-290
-288
-281
-273
-267
-259
-254
-258
-266
-264
-260
-264
-269
-267
-268
-269
-265
-269
-290
-298
-280
-261
-240
-197
-165
-182
-217
-219
-209
-223
-223
-193
-203
-219
-170
-194
-318
-220
396
1610
2891
2834
1098
-411
-448
-99
-196
-273
-189
-200
-212
-161
-155
-152
-103
-70
-55
-24
14
54
101
154
216
279
337
395
447
475
487
492
479
432
354
257
147
38
-57
-133
-194
-231
-245
-252
-256
-253
-244
-238
-231
-213
-196
-190
-179
-159
-152
-151
-143
-138
-139
-133
-132
-142
-134
-109
-97
-100
-98
-90
-86
-81
-70
-57
-53
-47
-31
-14
-5
1
5
-5
-19
-21
-3
40
94
124
127
123
112
96
91
91
91
96
100
101
107
103
76
38
