# session 40
15
13
22
15
14
31
16
6
53
19
-132
-60
634
1838
2508
1599
-68
-702
-325
-155
-287
-253
-194
-233
-212
-154
-142
-130
-104
-83
-56
-24
13
54
91
134
189
235
273
320
359
378
387
394
388
363
325
269
178
65
-29
-95
-168
-241
-282
-297
-306
-304
-296
-295
-293
-278
-266
-269
-274
-270
-267
-270
-266
-255
-253
-264
-272
-271
-267
-257
-239
-233
-244
-244
-234
-236
-239
-237
-250
-248
-187
-112
-92
-113
-138
-156
-154
-147
-167
-175
-147
-145
-160
-135
-148
-209
-90
458
1517
2501
2193
605
-502
-350
-22
-95
-127
-54
-75
-92
-52
-26
-3
20
25
40
82
129
161
178
202
259
323
356
375
411
451
464
451
437
430
401
327
239
158
59
-48
-118
-167
-221
-254
-260
-270
-276
-256
-244
-259
-262
-242
-236
-249
-248
-237
-240
-250
-249
-246
-248
-244
-239
-246
-251
-246
-234
-216
-213
-238
-260
-247
-218
-185
-143
-111
-116
-142
-165
-180
-182
-180
-180
-169
-161
-170
-155
-150
-228
-236
114
1018
2203
2520
1255
-279
-550
-128
-84
-202
-139
-109
-141
-112
-83
-81
-61
-38
-11
32
70
93
119
154
198
246
289
329
372
405
412
408
419
427
396
333
259
162
47
-38
-94
-160
-234
-280
-293
-287
-274
-268
-272
-274
-272
-272
-272
-265
-260
-261
-265
-270
-267
-256
-251
-261
-267
-256
-246
-247
-241
-230
-240
-254
-242
-231
-227
-194
-141
-122
-136
-152
-167
-181
-178
-156
-150
-175
-165
-134
-184
-238
-40
688
1966
2809
1927
67
-714
-300
-53
-171
-151
-91
-116
-97
-60
-49
-25
-1
18
56
85
102
140
182
209
250
312
358
382
405
422
421
415
415
398
347
263
164
72
-9
-88
-164
-225
-265
-290
-296
-280
-272
-281
-277
-255
-240
-240
-251
-255
-242
-245
-265
-259
-246
-264
-267
-242
-248
-269
-260
-254
-263
-255
-251
-250
-208
-151
-140
-167
-191
-197
-192
-195
-194
-189
-209
-201
-149
-191
-292
-154
456
1607
2665
2284
526
-627
-404
-65
-176
-203
-111
-129
-136
-95
-91
-81
-42
-17
2
33
71
109
139
172
223
273
306
346
395
421
425
428
423
402
354
267
166
88
15
-85
-182
-231
-246
-269
-295
-294
-280
-279
-273
-249
-238
-247
-248
-238
-239
-245
-241
-239
-249
-256
-247
-234
-234
-243
-244
-236
-228
-224
-222
-229
-248
-253
-228
-197
-168
-130
-103
-116
-156
-172
-155
-151
-160
-150
-145
-144
-112
-136
-227
-141
376
1418
2503
2395
845
-438
-396
-36
-96
-149
-73
-99
-117
-58
-44
-50
-19
4
18
60
106
133
163
208
252
285
320
369
422
457
467
465
463
451
408
336
246
141
48
-15
-76
-149
-200
-223
-245
-254
-244
-246
-255
-232
-204
-207
-215
-211
-215
-221
-217
-221
-229
-223
-215
-221
-225
-224
-221
-218
-218
-226
-225
-208
-195
-191
-187
-188
-191
-186
-177
-174
-180
-186
-174
-153
-140
-142
-147
-144
-135
-133
-139
-143
-150
-158
-141
-92
-47
-29
-25
-32
-64
-94
-94
-88
-88
-74
-81
-101
-79
-90
-163
-75
421
1405
2434
2360
925
-305
-317
-13
-85
-140
-66
-81
-97
-54
-49
-51
-9
24
27
41
83
124
146
174
228
275
301
330
368
404
434
447
441
431
422
394
325
227
130
45
-42
-125
-180
-211
-237
-260
-269
-264
-252
-250
-259
-259
-245
-235
-238
-242
-240
-244
-256
-261
-258
-257
-261
-265
-262
-251
-241
-238
-234
-226
-223
-223
-220
-216
-218
-220
-215
-208
-201
-194
-192
-186
-175
-176
-187
-190
-183
-168
-136
-89
-59
-60
-87
-121
-132
-122
-130
-138
-113
-108
-127
-102
-105
-174
-96
403
1477
2611
2464
826
-474
-397
-28
-95
-146
-72
-94
-104
-49
-38
-45
-14
21
47
75
105
136
168
203
243
283
322
366
409
440
454
460
463
455
423
360
277
197
115
6
-103
-164
-198
-241
-274
-277
-278
-288
-285
-268
-262
-269
-269
-259
-255
-259
-260
-256
-264
-273
-266
-260
-270
-275
-263
-256
-258
-252
-241
-233
-226
-226
-231
-226
-220
-221
-217
-219
-232
-213
-149
-100
-94
-102
-114
-142
-161
-162
-167
-161
-148
-160
-156
-121
-158
-217
-49
593
1791
2777
2196
378
-626
-310
-14
-143
-147
-71
-110
-105
-51
-47
-38
-6
7
29
72
107
137
175
211
248
293
347
403
437
444
450
465
462
435
394
324
218
111
26
-52
-131
-197
-238
-262
-275
-278
-278
-281
-274
-253
-245
-247
-237
-228
-235
-238
-233
-236
-242
-239
-239
-242
-238
-240
-252
-245
-227
-237
-254
-234
-206
-203
-204
-198
-198
-202
-201
-202
-213
-225
-205
-143
-81
-60
-77
-103
-124
-133
-137
-143
-137
-120
-130
-150
-115
-108
-203
-176
244
1145
2237
2482
1243
-217
-477
-100
-61
-157
-109
-94
-103
-58
-45
-55
-22
17
30
43
74
115
152
188
232
276
318
367
409
429
446
467
472
459
436
384
298
204
114
17
-80
-151
-197
-232
-251
-258
-270
-277
-266
-251
-246
-244
-245
-248
-238
-224
-223
-230
-233
-234
-234
-239
-256
-261
-240
-227
-237
-230
-210
-214
-223
-212
-210
-216
-201
-191
-202
-198
-180
-191
-215
-204
-159
-111
-81
-74
-87
-112
-129
-128
-129
-143
-138
-123
-145
-151
-106
-134
-209
-50
569
1627
2459
1969
408
-511
-285
-18
-116
-143
-91
-103
-79
-36
-42
-31
6
29
49
73
92
124
172
216
253
296
342
375
402
434
461
466
453
428
392
347
280
184
78
-21
-106
-166
-206
-236
-254
-262
-263
-258
-261
-264
-241
-220
-233
-246
-233
-227
-238
-238
-228
-231
-236
-233
-237
-247
-242
-228
-222
-224
-227
-221
-207
-196
-196
-197
-200
-196
-188
-195
-201
-187
-193
-228
-214
-133
-67
-60
-76
-93
-119
-137
-138
-141
-143
-130
-134
-146
-112
-114
-204
-170
252
1203
2342
2500
1127
-316
-472
-79
-84
-176
-96
-80
-108
-71
-57
-63
-23
18
30
53
90
120
152
188
219
257
306
350
382
414
443
455
454
452
436
379
295
212
123
19
-76
-153
-216
-248
-256
-278
-301
-280
-248
-256
-274
-267
-261
-265
-257
-249
-258
-266
-262
-261
-265
-255
-240
-247
-263
-260
-247
-237
-230
-229
-228
-216
-212
-222
-226
-227
-224
-194
-157
-131
-101
-88
-119
-149
-149
-154
-172
-167
-151
-167
-175
-132
-131
-198
-146
278
1309
2548
2578
933
-553
-550
-94
-114
-176
-81
-83
-105
-54
-39
-43
-13
15
34
67
104
138
170
203
245
292
328
365
405
431
443
442
426
410
387
331
246
157
65
-25
-103
-166
-214
-251
-274
-272
-262
-261
-258
-243
-229
-227
-236
-242
-235
-229
-236
-239
-235
-239
-243
-238
-236
-238
-237
-238
-237
-228
-216
-208
-209
-221
-220
-201
-192
-193
-185
-186
-207
-213
-196
-175
-136
-89
-75
-87
-95
-111
-128
-134
-148
-145
-115
-121
-142
-115
-138
-219
-97
452
1487
2509
2310
747
-454
-363
-28
-108
-155
-84
-108
-115
-61
-52
-49
-12
10
26
58
84
113
161
205
234
270
318
365
404
434
451
458
458
448
414
354
273
179
84
-6
-87
-156
-206
-236
-253
-264
-270
-268
-259
-251
-245
-239
-234
-229
-228
-235
-240
-236
-240
-249
-247
-243
-243
-238
-235
-241
-235
-226
-239
-242
-216
-198
-206
-207
-195
-191
-192
-192
-207
-226
-213
-163
-109
-76
-67
-84
-115
-132
-131
-135
-149
-145
-134
-147
-140
-113
-163
-210
9
685
1746
2441
1766
220
-529
-240
-22
-132
-138
-79
-90
-80
-57
-51
-20
15
26
46
69
89
135
193
220
234
279
340
385
412
426
429
432
437
424
387
332
256
162
62
-33
-108
-164
-213
-244
-245
-240
-251
-251
-241
-246
-249
-230
-220
-234
-238
-226
-234
-251
-242
-226
-231
-243
-247
-246
-237
-223
-218
-222
-222
-216
-211
-206
-201
-203
-211
-208
-205
-222
-224
-175
-117
-99
-98
-90
-114
-162
-166
-139
-143
-154
-146
-148
-136
-121
-180
-215
26
758
1901
2540
1665
60
-553
-206
-46
-157
-123
-82
-124
-100
-50
-50
-37
-1
15
33
71
103
132
166
191
225
292
353
377
396
424
438
437
439
429
390
325
239
142
49
-44
-139
-208
-233
-245
-269
-279
-266
-257
-258
-257
-252
-257
-265
-260
-254
-259
-258
-250
-253
-265
-263
-252
-244
-241
-242
-242
-235
-229
-233
-233
-223
-226
-243
-236
-198
-163
-130
-101
-109
-149
-176
-173
-173
-187
-183
-163
-159
-151
-148
-204
-215
70
929
2235
2799
1567
-252
-744
-256
-92
-192
-132
-92
-119
-84
-61
-71
-34
16
32
47
82
120
151
178
215
264
310
347
382
405
417
430
431
404
374
347
278
163
58
-18
-91
-170
-232
-263
-279
-287
-287
-286
-285
-271
-248
-246
-259
-256
-243
-245
-256
-266
-273
-260
-242
-251
-262
-249
-241
-247
-247
-243
-241
-238
-241
-250
-244
-208
-159
-125
-118
-134
-167
-191
-177
-160
-169
-170
-168
-175
-151
-155
-237
-198
242
1268
2508
2642
1113
-404
-501
-85
-117
-202
-117
-122
-142
-84
-71
-80
-37
-1
0
20
68
104
131
172
222
267
309
347
383
422
441
430
418
415
388
322
236
141
35
-60
-131
-194
-251
-277
-275
-273
-278
-280
-277
-267
-256
-248
-246
-255
-267
-255
-234
-243
-265
-260
-243
-252
-266
-253
-242
-252
-249
-238
-253
-275
-266
-238
-203
-162
-140
-144
-155
-172
-187
-187
-187
-179
-162
-171
-170
-139
-186
-251
-27
733
1927
2642
1820
162
-544
-215
-48
-186
-160
-94
-140
-138
-83
-67
-56
-24
-1
20
54
86
113
152
189
215
259
326
370
389
415
435
428
411
387
337
260
173
90
-2
-108
-188
-211
-218
-247
-267
-270
-272
-267
-253
-252
-258
-247
-229
-232
-254
-269
-264
-249
-238
-235
-242
-254
-255
-245
-233
-232
-252
-275
-266
-238
-217
-181
-134
-123
-153
-177
-178
-174
-184
-188
-174
-177
-177
-145
-179
-273
-141
509
1672
2602
2116
469
-537
-333
-55
-156
-184
-125
-148
-136
-79
-62
-58
-44
-30
5
52
78
93
120
171
233
280
310
345
379
393
401
418
419
394
354
288
188
91
10
-75
-155
-211
-249
-273
-278
-283
-291
-280
-262
-268
-280
-268
-253
-258
-266
-262
-260
-268
-272
-266
-262
-267
-266
-249
-242
-263
-274
-252
-228
-223
-202
-162
-142
-156
-179
-189
-185
-182
-181
-191
-209
-183
-146
-204
-251
-24
727
2021
2873
1944
12
-762
-292
-59
-229
-196
-88
-115
-112
-62
-56
-52
-23
-10
8
60
118
153
179
210
245
292
348
390
407
413
427
430
411
390
358
280
175
78
-21
-117
-184
-238
-283
-289
-274
-281
-298
-293
-274
-264
-265
-260
-250
-250
-261
-269
-274
-277
-273
-263
-258
-260
-262
-265
-267
-273
-282
-283
-266
-231
-187
-152
-150
-177
-199
-198
-206
-225
-212
-192
-202
-188
-173
-239
-248
106
1093
2464
2880
1447
-332
-654
-164
-100
-225
-152
-122
-163
-129
-90
-92
-80
-47
-10
29
64
89
119
167
213
242
290
354
382
388
419
444
427
390
351
299
220
110
-6
-91
-155
-216
-257
-277
-295
-305
-297
-288
-282
-269
-258
-258
-258
-249
-241
-241
-244
-247
-256
-259
-243
-233
-242
-244
-239
-257
-280
-265
-248
-258
-236
-160
-106
-118
-159
-182
-179
-179
-190
-179
-164
-185
-172
-128
-194
-271
-20
783
2036
2812
1968
203
-565
-219
-35
-171
-147
-101
-149
-119
-70
-85
-65
-10
15
38
77
107
132
167
214
262
292
326
383
428
433
433
448
449
411
337
251
166
76
-21
-114
-178
-210
-236
-265
-276
-266
-263
-264
-251
-246
-257
-243
-207
-200
-219
-223
-223
-233
-236
-228
-232
-245
-250
-244
-231
-212
-200
-200
-199
-196
-205
-208
-191
-178
-186
-192
-182
-173
-175
-170
-154
-148
-159
-157
-145
-156
-176
-152
-94
-52
-38
-38
-57
-90
-102
-98
-116
-124
-93
-87
-97
-63
-87
-180
-60
507
1523
2481
2284
806
-361
-315
-9
-87
-144
-64
-60
-70
-36
-32
-34
-2
29
44
69
107
132
146
187
247
291
326
370
401
413
425
436
439
433
413
364
283
183
96
25
-44
-105
-153
-195
-222
-229
-231
-231
-231
-242
-242
-225
-223
-229
-214
-203
-220
-229
-217
-219
-240
-247
-234
-219
-216
-224
-228
-221
-214
-208
-193
-186
-202
-209
-193
-178
-175
-172
-166
-163
-163
-164
-164
-157
-150
-156
-162
-154
-137
-120
-112
-114
-122
-122
-114
-114
-127
-131
-120
-108
-85
-45
-18
-13
-20
-43
-68
-72
-78
-91
-79
-75
-86
-68
-89
-162
-68
479
1624
2777
2558
858
-419
-319
13
-90
-144
-62
-83
-109
-70
-44
-18
21
39
52
78
107
131
149
179
232
279
307
332
361
385
412
432
432
421
410
379
304
201
104
21
-57
-135
-201
-249
-279
-290
-286
-284
-290
-290
-279
-270
-275
-276
-266
-266
-281
-290
-284
-279
-289
-302
-297
-276
-272
-289
-285
-263
-260
-269
-263
-258
-262
-259
-254
-253
-241
-232
-244
-246
-233
-241
-247
-210
-154
-125
-124
-129
-145
-178
-191
-175
-181
-200
-186
-175
-160
-123
-169
-249
-66
630
1847
2797
2181
367
-629
-330
-45
-159
-155
-86
-119
-102
-50
-52
-39
-2
13
40
77
95
126
178
208
238
307
378
412
434
458
474
476
459
434
405
332
202
99
63
7
-98
-169
-193
-221
-243
-240
-238
-230
-208
-213
-232
-203
-158
-154
-162
-154
-153
-154
-145
-145
-150
-147
-150
-153
-137
-122
-121
-114
-103
-102
-93
-73
-76
-95
-81
-44
-32
-42
-40
-32
-32
-26
-12
-14
-24
-22
-29
-29
35
129
152
107
73
68
68
70
69
59
59
71
76
68
51
28
