# session 2
-70
-97
-43
11
-118
-357
-441
-393
-391
-406
-381
-371
-380
-367
-355
-359
-358
-341
-328
-328
-335
-339
-334
-313
-277
-232
-189
-176
-205
-229
-223
-228
-243
-221
-205
-217
-182
-182
-280
-222
218
1093
2211
2542
1298
-246
-524
-123
-97
-203
-136
-120
-148
-109
-76
-62
-27
0
22
66
113
150
187
227
272
318
345
356
361
355
338
328
321
289
227
155
87
23
-46
-110
-148
-171
-201
-223
-225
-225
-232
-231
-226
-227
-228
-232
-240
-246
-245
-244
-247
-252
-256
-250
-240
-239
-241
-237
-235
-234
-227
-224
-222
-214
-205
-183
-141
-116
-140
-174
-176
-170
-172
-161
-173
-196
-152
-145
-255
-224
213
1244
2708
3211
1676
-254
-591
-108
-112
-255
-165
-142
-171
-112
-80
-82
-46
-9
15
62
119
166
210
254
297
343
383
400
385
357
336
313
267
206
137
54
-35
-112
-174
-228
-272
-299
-305
-296
-292
-294
-285
-273
-273
-278
-279
-284
-287
-281
-281
-291
-294
-288
-290
-301
-304
-295
-283
-273
-271
-276
-277
-275
-265
-231
-180
-159
-190
-224
-224
-221
-227
-212
-209
-223
-186
-182
-283
-240
229
1311
2766
3171
1560
-345
-628
-131
-130
-251
-151
-134
-168
-121
-100
-87
-29
8
36
100
152
186
249
321
367
405
446
469
472
461
435
398
340
255
160
61
-52
-146
-194
-241
-304
-332
-323
-318
-315
-302
-296
-291
-275
-268
-275
-277
-275
-277
-277
-280
-287
-284
-274
-281
-294
-287
-272
-270
-272
-270
-268
-263
-249
-220
-177
-157
-189
-221
-214
-219
-234
-206
-193
-220
-182
-167
-286
-251
259
1359
2759
3111
1519
-339
-608
-121
-120
-233
-131
-126
-168
-105
-71
-76
-32
14
39
88
148
193
245
308
368
421
455
466
471
472
447
396
331
248
145
35
-65
-144
-209
-266
-307
-323
-326
-324
-320
-312
-297
-281
-278
-282
-277
-265
-262
-272
-276
-273
-282
-293
-283
-271
-276
-280
-272
-267
-262
-249
-247
-260
-262
-249
-234
-208
-162
-134
-159
-198
-198
-191
-202
-188
-176
-206
-180
-138
-250
-295
111
1072
2455
3263
2193
154
-626
-196
-47
-220
-173
-114
-161
-133
-81
-73
-47
-9
20
63
110
156
215
279
337
392
434
456
464
461
443
413
365
288
183
77
-17
-101
-179
-238
-276
-303
-319
-320
-311
-304
-299
-290
-278
-272
-271
-272
-273
-274
-276
-275
-274
-275
-277
-276
-273
-270
-267
-261
-256
-250
-244
-238
-230
-224
-218
-209
-209
-222
-225
-208
-181
-149
-116
-107
-137
-164
-158
-158
-169
-144
-140
-176
-131
-107
-239
-197
306
1214
2409
2982
1822
1
-500
-54
-6
-183
-122
-81
-120
-81
-43
-44
-13
25
50
88
132
173
221
273
325
374
413
435
440
434
420
399
356
284
191
92
0
-82
-152
-205
-241
-265
-281
-286
-282
-277
-274
-271
-266
-259
-257
-260
-262
-262
-259
-257
-256
-258
-257
-254
-253
-252
-248
-242
-239
-234
-227
-222
-217
-212
-206
-201
-194
-191
-192
-188
-180
-181
-193
-195
-173
-135
-99
-73
-66
-89
-125
-132
-122
-137
-137
-114
-136
-136
-77
-141
-236
16
691
1728
2694
2360
651
-496
-264
57
-97
-142
-56
-83
-85
-31
-21
-8
33
57
82
126
165
205
254
301
344
381
404
411
411
403
384
356
317
255
171
84
5
-68
-133
-185
-221
-240
-249
-253
-250
-244
-241
-240
-234
-230
-231
-233
-235
-236
-237
-239
-240
-240
-240
-238
-236
-233
-229
-225
-222
-218
-212
-208
-206
-202
-198
-197
-192
-184
-179
-177
-174
-170
-165
-158
-152
-152
-160
-167
-156
-119
-76
-47
-34
-48
-86
-107
-104
-108
-106
-90
-104
-110
-70
-103
-178
-26
542
1559
2481
2121
520
-526
-305
20
-80
-115
-45
-69
-72
-24
-15
-4
35
61
82
119
158
194
231
270
308
338
357
364
357
338
317
295
265
224
170
107
42
-22
-82
-133
-169
-192
-203
-203
-202
-203
-200
-195
-196
-198
-197
-200
-207
-211
-213
-218
-221
-222
-225
-229
-227
-224
-223
-222
-218
-215
-215
-216
-212
-207
-206
-204
-200
-197
-199
-209
-216
-201
-163
-123
-92
-76
-94
-135
-153
-150
-157
-153
-138
-150
-145
-118
-167
-213
-8
673
1828
2570
1724
0
-681
-259
-37
-154
-118
-57
-99
-85
-38
-27
-3
34
59
91
130
167
210
255
294
335
368
380
381
377
358
326
290
248
196
136
72
4
-63
-128
-183
-212
-218
-222
-228
-229
-224
-218
-213
-212
-218
-223
-225
-230
-238
-239
-234
-236
-241
-246
-246
-244
-241
-234
-227
-228
-231
-225
-222
-232
-235
-209
-170
-133
-107
-112
-149
-178
-183
-191
-189
-168
-175
-184
-151
-170
-230
-116
411
1539
2700
2406
584
-683
-467
-74
-160
-184
-93
-118
-122
-70
-62
-44
6
30
48
91
138
181
225
272
317
354
375
381
374
356
332
301
254
189
118
48
-26
-96
-156
-204
-240
-258
-260
-255
-251
-246
-241
-237
-231
-226
-226
-226
-224
-227
-236
-241
-240
-242
-247
-247
-242
-239
-239
-237
-236
-244
-250
-238
-212
-175
-135
-120
-153
-193
-196
-194
-200
-182
-179
-205
-169
-147
-246
-238
158
1053
2269
2708
1440
-250
-591
-128
-73
-201
-132
-109
-146
-103
-70
-67
-31
5
27
68
117
160
209
264
315
361
398
420
424
416
401
379
336
265
176
86
0
-79
-149
-206
-248
-272
-280
-282
-277
-265
-256
-253
-249
-241
-238
-239
-240
-243
-247
-249
-250
-254
-258
-256
-252
-250
-249
-244
-242
-251
-259
-250
-227
-195
-154
-123
-136
-182
-204
-194
-198
-202
-183
-193
-201
-152
-184
-289
-148
435
1485
2548
2370
722
-552
-418
-37
-133
-191
-106
-121
-128
-73
-58
-46
-2
28
52
93
138
183
234
285
334
378
409
423
424
416
401
373
325
253
166
78
-7
-86
-152
-202
-238
-261
-269
-265
-258
-252
-246
-240
-234
-230
-230
-231
-231
-230
-232
-236
-239
-240
-239
-240
-241
-239
-236
-231
-225
-221
-220
-215
-210
-211
-223
-231
-224
-195
-154
-113
-92
-108
-146
-163
-157
-162
-159
-140
-158
-162
-110
-152
-243
-51
585
1630
2560
2200
560
-532
-322
-1
-112
-146
-72
-97
-97
-47
-36
-20
21
45
71
112
150
190
238
286
330
369
395
407
409
403
390
369
329
265
188
109
28
-49
-115
-169
-208
-229
-234
-235
-233
-230
-227
-222
-218
-216
-217
-219
-222
-227
-229
-227
-225
-225
-225
-223
-222
-219
-214
-211
-211
-208
-203
-200
-199
-198
-195
-194
-195
-192
-187
-184
-181
-181
-190
-201
-195
-164
-118
-79
-60
-69
-104
-132
-133
-137
-146
-129
-126
-143
-108
-108
-207
-142
330
1232
2282
2451
1128
-316
-471
-58
-64
-168
-94
-83
-106
-55
-31
-31
7
46
67
98
134
174
233
287
316
351
406
442
430
388
345
319
304
279
226
156
81
-2
-86
-149
-189
-224
-260
-282
-288
-287
-282
-270
-261
-262
-267
-268
-268
-271
-271
-267
-261
-255
-246
-240
-240
-245
-248
-239
-215
-191
-186
-195
-199
-196
-194
-201
-212
-224
-228
-211
-172
-128
-95
-87
-109
-133
-132
-128
-127
-114
-126
-149
-111
-105
-204
-163
271
1209
2401
2670
1280
-289
-482
-51
-57
-172
-99
-91
-121
-76
-47
-41
-6
26
48
86
129
169
216
259
297
337
370
381
376
367
352
326
289
236
169
93
16
-54
-113
-169
-217
-242
-248
-251
-252
-247
-230
-218
-226
-241
-243
-239
-243
-247
-244
-243
-248
-249
-246
-244
-245
-245
-243
-237
-233
-236
-236
-229
-223
-220
-215
-211
-216
-228
-228
-196
-146
-110
-94
-96
-122
-144
-141
-146
-159
-142
-141
-157
-119
-119
-220
-163
297
1222
2304
2427
1034
-377
-455
-31
-53
-150
-78
-77
-103
-56
-32
-24
16
45
63
101
143
179
219
263
305
342
371
386
384
370
351
327
294
248
186
110
33
-37
-101
-159
-200
-221
-228
-227
-224
-221
-216
-213
-213
-215
-217
-217
-215
-219
-227
-227
-221
-220
-224
-224
-219
-214
-213
-213
-211
-207
-203
-200
-198
-195
-195
-203
-214
-211
-181
-137
-98
-79
-89
-126
-152
-148
-148
-153
-141
-150
-163
-124
-135
-220
-123
374
1320
2301
2190
722
-485
-402
-18
-74
-140
-70
-84
-99
-49
-29
-22
13
42
66
101
135
171
214
253
292
334
359
358
347
338
324
302
273
227
165
97
31
-35
-97
-147
-182
-206
-218
-217
-210
-204
-202
-201
-194
-189
-193
-201
-204
-204
-207
-211
-213
-213
-213
-210
-208
-208
-208
-205
-202
-201
-199
-197
-194
-191
-189
-186
-182
-179
-183
-195
-203
-184
-144
-108
-83
-73
-97
-138
-146
-136
-143
-142
-135
-153
-134
-98
-166
-204
83
825
1892
2456
1564
-10
-558
-165
-8
-133
-102
-58
-97
-83
-45
-30
-2
26
45
82
123
153
187
229
269
305
334
351
355
348
335
319
295
256
203
140
68
-8
-75
-130
-175
-208
-228
-242
-242
-227
-219
-226
-231
-228
-228
-229
-230
-235
-243
-246
-245
-246
-249
-243
-232
-234
-243
-242
-238
-236
-229
-216
-205
-201
-207
-212
-202
-183
-151
-107
-91
-120
-147
-148
-157
-170
-153
-140
-158
-145
-114
-159
-190
28
743
1964
2711
1769
-22
-681
-244
-39
-150
-105
-63
-116
-99
-56
-42
0
42
54
77
114
145
186
239
277
295
302
312
328
328
304
280
255
211
158
106
47
-11
-61
-106
-143
-167
-190
-209
-202
-172
-152
-152
-157
-160
-159
-162
-177
-185
-169
-160
-178
-187
-178
-179
-188
-187
-193
-204
-194
-182
-203
-236
-238
-225
-214
-173
-110
-96
-141
-175
-176
-194
-228
-226
-199
-207
-209
-168
-172
-232
-174
204
1061
2036
1991
619
-568
-520
-91
-51
-91
-35
-36
-39
-19
-37
-25
29
46
42
46
43
69
141
158
103
146
305
334
210
175
204
155
162
221
127
23
100
161
102
52
-15
-100
-98
-112
-244
-313
-255
-281
-406
-454
-434
-344
-109
54
-2
-6
42
-100
-170
-138
-491
-571
651
1946
1488
-41
-1038
-1376
-1475
-1358
-1119
-882
-599
-372
-341
-365
-339
-353
-301
59
816
1846
2417
1480
-476
-1372
-709
-315
-631
-432
-492
-1216
342
3801
3994
1175
496
1738
1554
477
29
-273
-669
-826
-901
-899
-667
-568
-778
-746
-185
384
508
385
304
178
-86
-309
-366
-313
-199
-100
-44
105
275
233
232
493
441
-133
-400
-62
160
-125
-609
-840
-756
-755
-732
-316
-272
-841
-246
1586
1938
453
-406
-170
-142
-433
-672
-938
-996
-636
-215
-5
87
159
426
1171
1862
1347
-212
-1135
-778
-341
-593
-947
-953
-799
-410
391
1134
1319
1080
527
-298
-726
-373
30
106
404
808
676
396
649
1065
1162
1211
1378
1393
1264
1175
972
576
252
6
-358
-619
-716
-1006
-1133
-590
-182
-618
-1266
-1625
-1706
-1408
-992
-613
-107
-73
-566
-200
759
461
-501
-324
339
226
-134
-171
-285
-598
-814
-843
-596
-98
125
-182
-466
-143
820
1688
1278
-200
-1057
-964
-1147
-1802
-2020
-1271
177
1400
1817
1807
1511
702
18
49
42
-470
-494
313
681
137
-164
226
543
618
779
775
383
-89
-342
-246
51
212
350
576
419
-142
-544
-661
-139
1377
2254
811
-1233
-1490
-746
-608
-692
-346
-78
-117
95
421
222
-76
93
147
-106
-56
54
-237
-420
-241
-91
14
140
108
31
257
1047
2077
2159
937
-334
-1046
-1564
-1490
-648
25
105
-69
-195
-29
-9
-677
-987
-78
645
186
-210
253
768
804
639
554
564
461
188
77
247
328
175
90
57
-234
-590
-871
-1301
-999
860
2170
979
-570
-501
-331
-714
-399
29
-502
-985
-793
-698
-632
-149
86
-301
-522
-269
-207
-553
-778
-678
-568
-635
-701
-582
-400
-296
-57
603
1671
2740
2805
923
-1982
-3263
-1919
-123
260
236
732
607
-241
-134
717
617
30
283
816
881
868
878
668
410
221
76
140
420
638
539
188
112
463
436
-186
-234
887
2180
2378
1103
-681
-1439
-979
-546
-793
-971
-449
146
187
95
73
-249
-607
-625
-603
-568
-345
-365
-750
-804
-82
1071
1664
909
-390
-805
-547
-500
-414
-46
178
299
370
-124
-818
-687
-166
-352
-880
-860
-340
175
322
216
281
288
-25
-34
324
266
-66
-95
-31
31
252
331
193
102
-34
-161
-400
-1582
-2958
-2093
737
2446
1880
425
-733
-1155
-940
-745
-727
-338
245
213
-198
-173
-69
-543
-1000
-844
-578
-552
-419
-136
-53
-181
-232
-212
-318
-403
-297
-252
-268
3
314
227
52
229
687
1137
1322
1383
1661
1787
1337
1074
1688
2468
2622
2290
1878
1724
1874
1821
1376
1036
890
528
55
-146
-178
-329
-702
-1189
-1639
-2350
-3142
-2381
-11
981
-260
-1097
-898
-991
-1012
-813
-1047
-621
712
919
164
193
225
-501
-625
-62
-129
-623
-636
-374
-329
-387
-390
-419
-407
-385
-477
-279
41
-727
-1983
-1468
735
2525
2493
412
-1873
-1997
-941
-807
-926
-389
30
102
324
586
662
657
583
395
156
-85
-272
-271
-73
101
110
111
224
245
64
22
507
1581
2642
2338
384
-1223
-1091
-431
-284
-125
160
406
975
1329
805
494
924
775
53
39
260
-181
-482
-171
-140
-530
-427
388
1373
1918
1353
-23
-570
-22
-387
-2167
-2891
-1348
84
-401
-1080
-480
143
204
439
261
-469
-224
721
776
408
387
65
-434
-308
27
-60
-123
184
250
-143
-194
-73
-951
-1737
-247
1878
1395
-746
-1682
-1362
-963
-702
-636
-585
-68
460
280
-44
137
263
83
187
384
181
-6
-151
-714
-1100
-824
-697
-1051
-1213
-1026
-792
-499
-188
85
546
895
481
-135
149
993
1420
1289
688
-185
-707
-840
-817
-181
697
618
145
478
863
498
100
46
39
237
629
725
634
784
809
447
496
1388
2358
2643
1902
214
