# session 31
-17
-36
-1
40
-54
-231
-286
-244
-249
-258
-238
-244
-230
-214
-289
-291
86
1022
2266
2675
1428
-207
-584
-198
-153
-271
-214
-199
-232
-184
-145
-147
-125
-99
-83
-46
2
36
66
105
154
208
261
314
368
415
447
466
472
461
424
361
280
187
89
-9
-101
-176
-230
-265
-286
-300
-306
-299
-288
-283
-275
-261
-250
-246
-249
-253
-240
-224
-228
-236
-224
-210
-211
-218
-221
-220
-214
-208
-208
-201
-191
-193
-197
-185
-172
-171
-171
-167
-160
-146
-142
-165
-187
-172
-129
-86
-56
-41
-46
-73
-103
-112
-110
-116
-110
-105
-119
-102
-76
-135
-163
113
969
2331
3006
1778
-182
-764
-249
-73
-192
-120
-76
-130
-98
-52
-56
-35
-2
13
38
77
112
147
187
230
277
333
395
447
480
502
515
510
488
448
375
271
158
56
-31
-112
-187
-241
-271
-288
-301
-307
-303
-293
-285
-281
-271
-250
-237
-239
-238
-229
-224
-229
-236
-233
-223
-225
-233
-232
-226
-227
-229
-228
-224
-220
-220
-219
-206
-193
-191
-192
-190
-190
-188
-185
-194
-209
-207
-179
-131
-82
-61
-77
-104
-123
-132
-133
-140
-147
-135
-136
-138
-105
-132
-223
-122
429
1532
2695
2604
966
-421
-409
-44
-124
-201
-121
-131
-147
-96
-88
-94
-57
-23
-6
20
50
79
119
167
215
272
335
389
433
475
505
514
506
479
428
354
256
139
29
-55
-125
-189
-237
-265
-280
-286
-285
-287
-288
-273
-252
-249
-251
-236
-223
-227
-227
-216
-221
-235
-227
-211
-212
-217
-219
-222
-216
-208
-214
-221
-209
-195
-196
-193
-185
-184
-183
-176
-173
-172
-173
-181
-189
-187
-172
-139
-88
-49
-47
-68
-92
-115
-126
-127
-132
-127
-110
-119
-118
-83
-127
-204
-37
592
1708
2657
2205
520
-532
-314
-20
-131
-157
-88
-114
-113
-69
-68
-56
-21
-7
9
45
76
106
146
190
239
293
343
394
442
473
489
500
495
462
406
334
240
137
40
-52
-132
-184
-218
-249
-269
-275
-276
-272
-260
-256
-256
-242
-224
-220
-221
-217
-211
-210
-211
-214
-216
-217
-218
-217
-215
-215
-217
-220
-217
-208
-203
-202
-196
-189
-187
-188
-185
-181
-179
-175
-169
-166
-165
-164
-174
-188
-178
-137
-86
-51
-44
-58
-79
-106
-123
-118
-118
-125
-114
-112
-116
-86
-105
-194
-115
411
1509
2653
2519
875
-467
-420
-44
-116
-191
-111
-110
-126
-92
-77
-66
-41
-26
-2
34
59
82
117
156
203
260
317
366
411
449
473
481
479
468
432
358
258
154
55
-44
-127
-182
-230
-276
-294
-289
-291
-292
-281
-276
-279
-269
-256
-256
-253
-240
-239
-249
-244
-225
-222
-237
-241
-233
-230
-232
-227
-219
-222
-223
-210
-197
-198
-201
-193
-181
-177
-179
-183
-198
-213
-191
-132
-84
-66
-67
-86
-123
-144
-138
-136
-145
-141
-143
-152
-122
-111
-180
-166
199
1161
2484
2833
1352
-398
-660
-152
-92
-204
-121
-96
-133
-91
-57
-66
-48
-9
17
41
73
112
144
180
233
289
338
391
439
472
502
520
507
474
431
358
257
157
61
-41
-130
-186
-220
-251
-271
-279
-284
-286
-274
-258
-252
-252
-239
-221
-215
-215
-209
-208
-215
-216
-211
-217
-225
-217
-205
-210
-217
-211
-206
-206
-207
-205
-197
-188
-188
-189
-180
-173
-170
-165
-163
-165
-161
-159
-173
-191
-182
-143
-94
-58
-45
-53
-74
-103
-121
-119
-117
-115
-104
-115
-125
-91
-108
-199
-120
387
1441
2599
2575
1008
-383
-405
-44
-119
-195
-105
-110
-138
-98
-81
-75
-41
-24
-15
18
55
82
118
161
205
259
320
370
414
454
473
476
484
479
431
350
262
161
49
-49
-120
-178
-227
-260
-276
-286
-292
-285
-272
-269
-271
-258
-241
-237
-234
-226
-225
-226
-220
-221
-228
-226
-221
-223
-220
-212
-213
-216
-211
-208
-208
-206
-199
-193
-190
-186
-182
-183
-184
-176
-169
-176
-187
-192
-184
-150
-95
-58
-53
-65
-86
-114
-123
-115
-123
-128
-110
-115
-125
-95
-118
-196
-78
488
1580
2620
2347
713
-479
-361
-34
-126
-173
-95
-113
-126
-78
-57
-47
-24
-11
10
49
79
103
140
179
220
279
344
396
442
484
504
503
495
475
424
345
255
158
57
-38
-114
-171
-218
-254
-269
-266
-264
-267
-261
-250
-245
-244
-241
-235
-225
-218
-218
-215
-211
-212
-215
-210
-212
-223
-222
-213
-210
-208
-204
-206
-204
-194
-188
-192
-196
-197
-190
-178
-173
-174
-165
-156
-159
-157
-147
-151
-166
-173
-171
-154
-113
-68
-45
-40
-58
-98
-119
-106
-104
-121
-115
-110
-124
-100
-84
-158
-164
188
1121
2396
2790
1459
-230
-575
-134
-71
-190
-126
-104
-142
-106
-78
-83
-53
-12
5
24
52
83
121
156
185
230
295
356
400
434
463
485
496
484
443
384
314
225
118
13
-79
-156
-214
-246
-265
-290
-308
-292
-273
-281
-286
-267
-248
-245
-248
-248
-240
-232
-237
-248
-246
-241
-240
-239
-238
-239
-238
-233
-231
-231
-225
-215
-210
-214
-215
-208
-206
-221
-229
-205
-163
-126
-95
-84
-106
-142
-159
-154
-157
-168
-155
-151
-173
-148
-122
-197
-219
121
1081
2444
2918
1541
-263
-638
-158
-86
-215
-144
-113
-149
-114
-83
-85
-61
-32
-10
21
50
78
116
158
207
262
314
368
431
476
489
497
502
483
434
357
255
150
56
-41
-132
-195
-235
-264
-279
-287
-299
-301
-282
-263
-259
-252
-238
-230
-225
-220
-221
-219
-209
-202
-205
-207
-208
-209
-206
-207
-216
-214
-198
-192
-199
-197
-187
-186
-188
-181
-175
-176
-177
-178
-186
-195
-189
-155
-105
-66
-55
-71
-99
-118
-121
-125
-135
-130
-118
-138
-140
-105
-148
-223
-56
577
1719
2700
2248
530
-542
-319
-32
-161
-182
-95
-123
-133
-86
-80
-73
-34
-17
-13
14
55
90
127
169
214
264
322
383
426
448
467
487
488
460
409
333
234
128
27
-62
-140
-202
-240
-257
-270
-279
-278
-274
-269
-257
-246
-244
-244
-232
-221
-220
-221
-216
-217
-219
-212
-211
-222
-223
-207
-203
-214
-214
-205
-206
-208
-203
-202
-205
-192
-178
-183
-195
-204
-211
-191
-139
-94
-76
-73
-84
-114
-140
-141
-139
-142
-132
-132
-152
-129
-106
-178
-199
108
947
2156
2672
1561
-93
-566
-166
-63
-188
-144
-109
-141
-110
-78
-78
-59
-33
-11
20
43
63
104
151
191
236
294
353
400
434
461
478
480
465
430
369
284
185
79
-21
-100
-156
-202
-245
-273
-276
-272
-273
-270
-262
-256
-249
-240
-237
-236
-227
-213
-211
-218
-217
-215
-223
-225
-214
-212
-219
-218
-215
-218
-209
-196
-193
-193
-192
-193
-186
-171
-173
-200
-222
-207
-156
-104
-76
-70
-81
-108
-131
-131
-133
-150
-149
-134
-150
-145
-98
-143
-232
-66
603
1794
2748
2186
421
-592
-330
-48
-165
-180
-110
-141
-147
-104
-85
-65
-44
-35
-6
36
56
72
115
173
219
262
318
380
432
462
470
473
476
456
398
317
226
124
14
-84
-153
-203
-243
-273
-286
-292
-297
-293
-275
-262
-266
-267
-257
-250
-247
-240
-237
-237
-234
-232
-234
-234
-236
-242
-239
-226
-225
-234
-230
-217
-212
-209
-209
-213
-217
-206
-171
-119
-87
-96
-122
-146
-167
-173
-165
-158
-154
-161
-157
-123
-143
-226
-167
294
1404
2748
2788
991
-645
-642
-135
-161
-232
-121
-127
-162
-106
-81
-84
-54
-29
-12
24
63
96
134
176
221
276
341
400
444
475
499
507
491
462
416
337
232
120
10
-86
-159
-215
-258
-288
-310
-325
-323
-309
-301
-295
-281
-265
-260
-254
-246
-243
-241
-239
-239
-236
-231
-235
-242
-235
-223
-225
-233
-230
-224
-220
-214
-210
-218
-225
-222
-218
-200
-154
-109
-92
-97
-119
-154
-163
-154
-164
-163
-145
-153
-145
-120
-189
-238
41
883
2213
2998
2005
100
-650
-246
-65
-211
-181
-127
-168
-147
-104
-101
-79
-47
-35
-12
25
56
91
132
177
234
299
359
408
448
475
492
499
484
437
366
279
174
64
-33
-119
-191
-240
-269
-294
-315
-315
-297
-287
-284
-273
-262
-257
-250
-244
-244
-239
-229
-223
-220
-219
-226
-232
-236
-240
-237
-227
-221
-222
-220
-214
-207
-205
-210
-212
-202
-198
-215
-226
-209
-179
-140
-92
-71
-88
-117
-135
-134
-128
-138
-137
-121
-141
-141
-88
-129
-228
-61
609
1783
2770
2294
540
-547
-316
-19
-142
-165
-86
-118
-124
-77
-71
-61
-23
-4
14
52
82
107
147
195
241
291
350
411
459
489
504
512
509
479
421
345
251
142
36
-54
-124
-180
-223
-247
-251
-253
-255
-248
-242
-243
-236
-223
-219
-215
-207
-202
-201
-196
-195
-198
-198
-199
-203
-205
-207
-213
-208
-194
-189
-192
-187
-181
-184
-185
-180
-175
-176
-171
-158
-152
-154
-150
-143
-141
-140
-142
-143
-129
-116
-120
-123
-117
-116
-111
-103
-117
-138
-131
-103
-64
-17
6
-15
-43
-59
-76
-81
-81
-92
-87
-76
-99
-92
-59
-124
-184
84
900
2137
2836
1928
211
-484
-160
-24
-165
-142
-97
-133
-110
-74
-77
-59
-34
-26
3
46
70
93
133
177
220
268
318
371
417
446
464
476
472
452
414
348
257
163
70
-22
-108
-180
-228
-246
-254
-268
-275
-270
-262
-255
-249
-246
-240
-231
-228
-230
-233
-235
-229
-220
-229
-245
-244
-237
-241
-238
-228
-228
-231
-225
-220
-223
-221
-212
-205
-205
-201
-193
-192
-196
-190
-174
-163
-166
-173
-169
-166
-180
-186
-158
-113
-75
-52
-52
-75
-104
-121
-118
-121
-129
-117
-112
-122
-98
-101
-172
-121
311
1334
2609
2750
1145
-444
-531
-81
-108
-194
-105
-107
-130
-80
-70
-77
-40
-12
2
38
73
94
123
172
225
271
315
365
418
462
496
511
505
488
460
405
317
209
92
-17
-100
-162
-217
-259
-285
-304
-310
-298
-290
-293
-287
-272
-262
-256
-255
-248
-230
-221
-232
-243
-238
-231
-233
-242
-242
-236
-237
-234
-218
-212
-219
-214
-199
-197
-206
-206
-196
-190
-196
-208
-202
-173
-130
-90
-72
-86
-117
-139
-147
-155
-160
-146
-144
-158
-133
-117
-180
-176
155
1086
2466
2973
1549
-350
-749
-223
-115
-224
-140
-113
-147
-91
-65
-90
-65
-25
-7
24
62
95
133
172
215
273
334
393
447
486
506
519
520
500
454
378
275
164
56
-46
-129
-189
-237
-276
-299
-309
-315
-312
-297
-284
-278
-272
-257
-241
-234
-233
-231
-231
-234
-230
-226
-236
-240
-226
-218
-228
-232
-228
-225
-220
-215
-212
-205
-202
-204
-199
-185
-179
-184
-191
-199
-207
-193
-148
-99
-76
-75
-88
-113
-132
-131
-134
-141
-130
-133
-152
-122
-115
-202
-166
286
1321
2604
2835
1342
-280
-493
-91
-103
-200
-127
-128
-160
-121
-97
-87
-55
-35
-20
8
38
72
111
153
203
258
315
383
443
478
498
514
520
509
469
388
283
173
62
-40
-124
-195
-252
-283
-294
-304
-313
-309
-299
-291
-281
-271
-266
-266
-259
-244
-232
-233
-239
-237
-232
-233
-233
-234
-245
-251
-236
-221
-223
-225
-218
-213
-212
-208
-205
-207
-211
-217
-222
-210
-168
-116
-88
-87
-102
-128
-151
-153
-149
-150
-140
-137
-159
-140
-111
-189
-224
98
962
2195
2776
1713
-9
-580
-189
-60
-193
-155
-112
-149
-130
-91
-83
-62
-39
-24
5
39
73
111
143
181
243
310
366
416
461
486
497
505
501
461
389
308
215
98
-12
-93
-160
-217
-250
-269
-283
-284
-273
-267
-269
-264
-250
-240
-235
-230
-225
-224
-220
-215
-216
-222
-222
-216
-219
-227
-223
-211
-206
-207
-204
-198
-197
-196
-192
-189
-186
-181
-178
-182
-190
-201
-206
-181
-127
-84
-73
-74
-81
-109
-134
-132
-132
-140
-127
-128
-152
-127
-110
-194
-193
200
1149
2365
2701
1408
-195
-522
-128
-88
-198
-140
-122
-144
-100
-78
-83
-60
-38
-21
14
42
63
101
145
188
236
291
345
400
447
472
481
493
493
452
374
291
207
107
0
-90
-160
-215
-254
-277
-289
-294
-290
-279
-273
-274
-271
-269
-264
-250
-243
-249
-250
-238
-233
-239
-248
-250
-242
-236
-233
-230
-232
-238
-223
-201
-200
-208
-202
-196
-203
-213
-215
-209
-191
-151
-98
-77
-95
-117
-130
-148
-156
-151
-146
-152
-169
-156
-109
-133
-210
-121
385
1523
2765
2589
758
-658
-525
-88
-153
-203
-111
-128
-148
-100
-89
-87
-51
-19
-1
20
52
94
135
172
214
261
313
373
426
455
471
479
473
450
412
346
246
139
42
-49
-128
-184
-229
-265
-283
-286
-279
-270
-270
-272
-252
-225
-224
-227
-215
-212
-224
-225
-215
-215
-223
-225
-220
-217
-221
-223
-218
-214
-215
-206
-192
-193
-200
-192
-185
-196
-212
-217
-195
-142
-92
-76
-80
-102
-137
-145
-129
-137
-148
-130
-137
-148
-111
-137
-225
-99
521
1710
2784
2388
622
-540
-346
-36
-159
-194
-113
-137
-141
-97
-93
-84
-46
-26
-10
21
46
72
116
165
210
264
324
374
412
446
474
485
471
446
406
330
225
120
22
-75
-155
-207
-249
-282
-295
-297
-295
-288
-284
-285
-280
-269
-260
-257
-258
-254
-249
-246
-246
-248
-251
-249
-249
-254
-255
-251
-254
-253
-241
-232
-230
-231
-235
-243
-253
-251
-222
-177
-136
-109
-111
-144
-175
-180
-178
-186
-180
-174
-193
-178
-134
-188
-265
-75
620
1821
2706
2037
286
-621
-328
-81
-195
-192
-135
-173
-161
-114
-112
-94
-54
-42
-31
10
55
90
123
164
215
276
333
378
414
449
477
487
476
450
405
332
232
129
35
-52
-126
-170
-194
-215
-230
-230
-219
-208
-200
-192
-186
-178
-162
-150
-154
-160
-146
-131
-132
-135
-129
-127
-129
-124
-116
-115
-112
-103
-98
-95
-85
-68
-58
-52
