# session 4
4
-40
72
16
-427
-829
-835
-724
-750
-765
-707
-709
-754
-732
-674
-676
-666
-466
98
1092
1854
1264
-288
-1044
-681
-383
-452
-411
-312
-324
-307
-227
-165
-120
-89
-84
-74
-30
42
84
52
-1
-25
-57
-95
-79
-49
-73
-78
-20
-9
-71
-93
-55
-47
-82
-103
-95
-85
-96
-133
-166
-156
-125
-131
-171
-203
-213
-190
-161
-214
-295
-90
712
1783
1998
855
-417
-610
-243
-155
-210
-167
-140
-136
-92
-37
22
87
146
204
261
314
367
400
375
305
235
182
135
105
97
86
65
59
58
27
-23
-56
-72
-90
-123
-165
-199
-217
-229
-236
-236
-247
-261
-252
-251
-265
-242
-252
-354
-358
46
1072
2242
2202
654
-639
-584
-196
-224
-258
-178
-190
-188
-113
-76
-61
-23
8
33
74
119
145
142
120
85
23
-50
-89
-87
-76
-76
-81
-82
-87
-98
-91
-69
-78
-127
-171
-202
-243
-275
-274
-260
-271
-306
-309
-292
-341
-386
-334
-309
-312
-110
469
1580
2678
2291
435
-763
-535
-222
-333
-333
-252
-275
-244
-167
-149
-125
-69
-33
-6
36
74
83
55
1
-60
-111
-137
-121
-69
-24
-14
-23
-32
-40
-47
-62
-102
-150
-180
-198
-216
-226
-225
-204
-172
-180
-223
-218
-201
-240
-238
-215
-346
-480
-226
698
2167
2983
1908
35
-592
-208
-116
-253
-202
-175
-213
-178
-150
-138
-59
41
107
165
218
231
203
167
124
49
-23
-39
-14
18
58
85
82
73
56
14
-20
-29
-66
-127
-135
-112
-160
-243
-256
-232
-266
-337
-358
-351
-367
-345
-304
-389
-490
-308
301
1294
1962
1273
-224
-820
-434
-221
-298
-242
-187
-223
-211
-178
-162
-116
-66
-25
35
92
115
110
80
36
-3
-44
-102
-149
-137
-65
11
53
65
46
-2
-52
-95
-145
-178
-167
-149
-155
-144
-109
-104
-154
-220
-258
-298
-358
-372
-382
-533
-682
-535
88
1292
2319
1761
37
-829
-577
-476
-623
-551
-547
-711
-745
-747
-739
-486
-309
-358
217
1530
2311
2228
2147
2156
2011
2037
1864
819
-323
-603
-505
-553
-516
-447
-534
-576
-551
-650
-767
-769
-738
-719
-686
-648
-616
-600
-602
-577
-541
-538
-496
-454
-578
-729
-650
-226
670
1321
569
-645
-826
-987
-1045
1496
5121
5848
5127
5562
4514
831
-1571
-1334
-1036
-1332
-1233
-1026
-1083
-1066
-983
-999
-1006
-992
-1000
-949
-844
-781
-748
-718
-716
-716
-683
-661
-674
-673
-638
-612
-614
-609
-563
-509
-501
-515
-489
-475
-522
-532
-492
-535
-612
-490
59
1016
1565
818
-453
-874
-617
-420
-380
-544
-398
899
2480
2864
2537
2566
2621
2375
2394
2484
1594
26
-767
-638
-538
-643
-632
-582
-568
-506
-451
-454
-450
-433
-437
-446
-447
-452
-458
-458
-448
-437
-432
-420
-389
-382
-419
-433
-410
-399
-355
-305
-376
-448
-272
299
1304
2013
1302
-234
-817
-418
-239
-361
-316
-230
-230
-203
-165
-155
-124
-76
-51
-32
20
77
74
37
19
-12
-77
-89
-13
72
113
138
151
123
70
22
-22
-56
-78
-104
-123
-122
-130
-149
-140
-123
-144
-177
-175
-174
-205
-187
-130
-180
-265
-104
562
1789
2688
1941
160
-651
-326
-144
-274
-255
-195
-198
-143
-68
-22
37
108
189
279
336
353
364
362
312
219
137
95
72
50
17
-28
-45
-62
-121
-131
-104
-187
-198
64
203
-69
-328
-315
-275
-293
-280
-292
-329
-322
-311
-309
-310
-375
-396
-102
669
1690
2019
931
-545
-895
-446
-271
-329
-275
-237
-246
-200
-148
-104
-30
37
79
131
188
213
197
150
81
4
-58
-101
-127
-122
-111
-136
-124
-21
36
-41
-116
-115
-126
-157
-159
-163
-199
-234
-245
-256
-303
-362
-368
-373
-417
-386
-335
-427
-435
-87
631
1687
2297
1366
-257
-726
-279
-166
-277
-189
-135
-156
-90
-25
-10
28
69
87
117
153
168
162
132
79
29
4
-10
-26
-28
-23
-46
-69
-50
-30
-57
-105
-151
-183
-184
-179
-189
-184
-159
-144
-150
-172
-187
-195
-226
-223
-163
-222
-390
-319
330
1707
3087
2843
949
-387
-263
5
-154
-204
-162
-232
-245
-188
-171
-139
-73
-31
7
63
102
105
79
30
-31
-82
-115
-125
-116
-109
-116
-123
-127
-133
-145
-162
-181
-195
-206
-212
-211
-201
-191
-178
-146
-115
-133
-181
-191
-194
-225
-212
-201
-299
-327
-38
629
1475
1698
701
-515
-698
-315
-247
-304
-220
-179
-173
-102
-54
-45
-4
58
110
156
174
147
98
36
-48
-130
-178
-196
-198
-178
-144
-119
-93
-53
-20
4
43
48
13
54
144
89
-68
-119
-95
-114
-137
-143
-180
-213
-213
-196
-162
-181
-299
-362
-98
826
2201
2640
1331
-233
-549
-270
-298
-380
-319
-310
-302
-223
-167
-125
-50
16
52
78
97
100
88
69
47
15
-11
-4
31
70
109
137
142
134
111
56
-10
-60
-103
-151
-188
-204
-217
-246
-259
-228
-200
-221
-252
-252
-265
-296
-262
-226
-318
-406
-233
444
1720
2619
1750
-120
-862
-434
-214
-314
-254
-189
-208
-159
-98
-68
-19
9
22
83
153
180
183
151
65
-15
-47
-62
-67
-48
-36
-53
-64
-65
-86
-120
-139
-149
-168
-197
-218
-214
-196
-190
-192
-191
-196
-224
-270
-306
-329
-373
-399
-370
-391
-444
-307
193
1213
2359
2249
582
-707
-532
-104
-167
-198
-105
-132
-135
-66
-52
-34
39
86
98
121
141
133
106
64
10
-43
-78
-84
-67
-50
-45
-46
-56
-69
-80
-98
-126
-144
-160
-188
-207
-210
-217
-215
-188
-166
-175
-208
-233
-248
-280
-276
-199
-215
-356
-334
152
1336
2788
2921
1210
-340
-377
-35
-148
-217
-134
-164
-186
-137
-127
-108
-45
-2
32
88
133
131
87
31
-14
-52
-81
-80
-62
-51
-50
-51
-57
-64
-78
-102
-125
-133
-135
-150
-168
-169
-159
-161
-158
-123
-96
-123
-161
-161
-172
-187
-152
-172
-285
-259
88
821
1709
1783
583
-571
-582
-215
-204
-211
-110
-111
-121
-67
-53
-47
4
36
30
24
15
-19
-65
-98
-121
-153
-187
-201
-187
-166
-136
-83
-30
-8
2
10
-4
-35
-66
-95
-117
-129
-157
-197
-208
-190
-181
-207
-248
-259
-263
-286
-261
-227
-327
-458
-337
355
1779
2949
2294
359
-671
-475
-329
-452
-403
-318
-328
-293
-239
-221
-179
-121
-90
-66
-39
-22
-17
-32
-72
-108
-112
-94
-70
-45
-24
-14
-12
-21
-43
-72
-105
-149
-197
-242
-287
-319
-336
-359
-385
-381
-341
-307
-327
-357
-344
-352
-375
-317
-302
-417
-428
-195
557
1978
2578
1201
97
1228
2623
2546
2091
2157
2358
1996
697
-609
-818
-503
-487
-491
-344
-302
-312
-269
-279
-350
-397
-425
-448
-448
-428
-416
-417
-416
-412
-413
-412
-404
-398
-394
-399
-422
-440
-432
-429
-443
-431
-393
-395
-455
-494
-486
-502
-522
-473
-474
-562
-485
-68
832
2065
2367
927
-637
-739
-262
-255
-318
-207
-191
-204
-144
-124
-119
-54
25
86
139
168
172
156
116
54
-2
-27
-19
-4
-2
-8
-12
-18
-25
-22
-22
-45
-76
-103
-132
-146
-139
-143
-153
-129
-95
-89
-118
-160
-176
-173
-187
-164
-123
-218
-348
-192
517
1905
3138
2636
708
-426
-231
-46
-203
-202
-152
-207
-198
-146
-142
-121
-66
-13
43
107
159
183
172
141
104
56
9
-6
-1
-8
-24
-38
-47
-56
-77
-110
-130
-132
-148
-184
-215
-227
-224
-220
-219
-205
-171
-162
-206
-250
-254
-265
-278
-252
-268
-354
-311
75
884
1716
1577
321
-666
-596
-287
-299
-304
-220
-209
-197
-142
-123
-115
-75
-29
8
47
83
75
24
-18
-76
-178
-224
-224
-281
-241
-155
-342
-194
1138
2465
1974
380
-429
-355
-296
-376
-387
-374
-369
-374
-406
-404
-358
-372
-446
-481
-479
-488
-465
-434
-516
-616
-514
-31
1116
2451
2379
669
-653
-612
-357
-458
-459
-373
-395
-373
-287
-244
-196
-123
-68
-7
59
86
70
22
-39
-87
-141
-181
-148
-106
-94
-22
26
-27
24
46
-157
138
1345
2386
2492
2141
1818
1718
1655
927
-279
-833
-676
-619
-718
-673
-634
-691
-651
-546
-600
-710
-564
64
1305
2424
1901
-19
-1120
-799
-466
-556
-513
-401
-414
-388
-320
-289
-235
-160
-105
-49
0
21
33
25
-40
-115
-127
-113
-134
-157
-145
-128
-129
-138
-149
-166
-177
-182
-189
-198
-204
-215
-229
-229
-224
-235
-248
-239
-226
-241
-270
-273
-274
-310
-301
-255
-336
-442
-281
344
1556
2631
2082
208
-838
-563
-311
-414
-364
-252
-237
-173
-80
-29
32
91
111
132
163
175
154
98
17
-64
-129
-169
-175
-164
-167
-182
-184
-182
-195
-219
-241
-259
-272
-282
-302
-330
-335
-318
-313
-309
-280
-246
-240
-262
-278
-264
-258
-281
-270
-261
-364
-462
-245
590
1901
2537
1519
-108
-650
-292
-167
-325
-225
-89
-337
-196
1159
2539
2634
2387
2504
1836
335
-472
-394
-346
-442
-482
-488
-435
-480
-498
-263
-521
-876
1323
5408
6123
2305
-984
-1228
-795
-996
-1036
-892
-930
-939
-866
-840
-801
-749
-761
-779
-745
-722
-741
-717
-658
-707
-789
-612
34
1121
1899
1275
-287
-1048
-741
-490
-544
-495
-421
-426
-384
-318
-278
-212
-141
-96
-43
15
49
76
87
50
-10
-47
-60
-64
-50
-32
-37
-46
-38
-49
-94
-124
-141
-188
-232
-233
-231
-243
-236
-222
-239
-270
-259
-205
-182
-226
-252
-219
-217
-231
-180
-199
-336
-320
96
1151
2599
2926
1315
-388
-545
-122
-141
-189
-85
-97
-120
-43
32
90
124
124
166
247
292
301
286
234
184
151
101
60
64
67
41
13
-15
-51
-67
-60
-65
-93
-119
-132
-152
-180
-189
-185
-198
-220
-213
-178
-165
-192
-203
-184
-201
-230
-188
-166
-260
-285
74
1058
2329
2546
1067
-492
-659
-250
-250
-319
-220
-200
-207
-127
-67
-46
5
75
138
203
273
307
269
198
147
92
18
-30
-36
-58
-104
-114
-97
-129
-175
-162
-160
-222
-248
-197
-187
-254
-274
-222
-229
-298
-295
-237
-256
-325
-321
-267
-289
-360
-338
-282
-333
-360
-97
740
2072
2659
1417
-339
-752
-336
-274
-364
-303
-319
-335
-239
-198
-194
-111
-26
29
107
164
174
177
146
91
69
19
-59
-42
6
-37
-60
-25
-68
-123
-74
-52
-123
-151
-130
-157
-212
-242
-257
-270
-271
-240
-201
-216
-275
-277
-216
-217
-266
-216
-168
-293
-355
-43
824
2246
3097
1984
-6
-662
-255
-184
-306
-202
-171
-191
-91
-65
-123
-76
26
70
93
161
266
288
165
60
80
95
43
18
9
-71
-169
-181
-120
-101
-152
-169
-149
-214
-299
-262
-217
-288
-329
-272
-271
-334
-327
-261
-222
-238
-288
-291
-245
-244
-246
-207
-271
-419
-295
596
2265
3342
2310
204
-668
-325
-195
-365
-338
-275
-292
-245
-175
-150
-107
-24
63
140
218
283
303
266
197
129
80
37
-5
-8
-2
-73
-178
-209
-201
-228
-267
-290
-308
-315
-316
-333
-354
-347
-313
-292
-297
-273
-194
-119
-85
-92
-151
-234
-275
-234
-147
-166
-319
-340
28
948
2256
2713
1347
-384
-665
-177
-136
-251
-187
-185
-201
-141
-123
-117
-84
-70
24
242
411
453
450
424
366
287
170
54
12
6
-32
-75
-94
-113
-135
-148
-164
-187
-197
-189
-189
-216
-249
-272
-297
-328
-358
-378
-365
-311
-281
-332
-392
-387
-388
-414
-372
-346
-417
-395
-72
879
2505
3322
1912
-182
-720
-292
-266
-378
-269
-243
-278
-216
-161
-129
-65
-5
52
116
153
167
179
154
89
24
-22
-53
-71
-84
-97
-104
-100
-97
-104
-114
-122
-127
-130
-134
-149
-176
-199
-199
-181
-168
-162
-149
-133
-135
-163
-194
-201
-209
-237
-227
-206
-273
-326
-132
559
1784
2583
1746
46
-650
-340
-191
-270
-204
-166
-212
-176
-110
-83
-38
24
80
139
192
233
258
241
181
126
94
61
15
-29
-51
-58
-66
-73
-73
-71
-73
-81
-93
-108
-126
-142
-155
-169
-183
-188
-179
-157
-125
-99
-97
-128
-167
-173
-172
-202
-193
-158
-229
-304
-119
468
1462
2187
1534
-53
-818
-514
-285
-350
-299
-232
-251
-209
-143
-121
-76
-9
34
73
130
199
262
279
245
193
142
100
76
72
68
41
-12
-64
-91
-105
-123
-143
-166
-187
-206
-242
-289
-311
-311
-313
-313
-322
-345
-333
-271
-239
-286
-332
-312
-304
-323
-267
-230
-354
-438
-167
787
2490
3561
2337
20
-848
-431
-305
-454
-364
-297
-347
-295
-203
-168
-117
-34
43
123
204
258
276
263
218
153
98
73
70
60
25
-25
-62
-75
-88
-113
-132
-145
-167
-193
-213
-236
-260
-273
-288
-303
-302
-297
-303
-292
-255
-251
-309
-339
-299
-285
-298
-264
-278
-346
-227
336
1577
2951
2760
742
-778
-608
-179
-287
-313
-197
-224
-223
-136
-96
-48
41
99
146
217
272
297
298
261
187
115
56
7
-28
-51
-76
-109
-135
-140
-131
-126
-129
-132
-141
-162
-182
-190
-203
-224
-228
-221
-227
-231
-211
-183
-185
-229
-259
-238
-242
-269
-217
-203
-313
-267
183
1154
2454
2800
1290
-455
-674
-205
-209
-305
-201
-189
-212
-145
-101
-74
-2
63
110
172
230
265
272
241
186
136
94
61
37
6
-40
-82
-112
-128
-131
-141
-170
-191
-191
-198
-216
-229
-241
-262
-275
-273
-275
-275
-247
-208
-189
-202
-249
-283
-269
-256
-243
-204
-261
-401
-321
269
1496
2741
2537
764
-578
-515
-214
-321
-362
-291
-325
-329
-246
-177
-116
-55
-15
30
84
124
140
118
67
43
42
12
-36
-58
-66
-91
-126
-150
-162
-176
-197
-206
-208
-226
-247
-255
-264
-276
-283
-300
-323
-319
-300
-287
-256
-208
-191
-221
-256
-252
-232
-240
-232
-196
-252
-367
-267
385
1732
2915
2411
521
-622
-434
-187
-279
-246
-177
-222
-198
-121
-97
-62
4
58
119
189
225
229
210
162
