# session 0
-52
-30
-2
30
62
88
116
161
203
210
200
199
204
222
245
248
265
298
270
260
373
574
1214
2516
3210
2047
265
-297
28
177
180
257
259
226
262
292
293
307
323
333
352
377
395
415
445
481
511
530
557
595
618
620
613
593
554
506
447
362
260
157
61
-15
-71
-127
-180
-201
-197
-193
-195
-197
-198
-199
-199
-195
-196
-208
-219
-225
-240
-258
-267
-272
-278
-279
-278
-275
-268
-268
-278
-278
-266
-258
-264
-275
-281
-273
-263
-271
-290
-293
-280
-274
-282
-291
-289
-285
-285
-287
-285
-285
-286
-282
-289
-307
-302
-269
-251
-251
-238
-220
-218
-226
-243
-251
-232
-225
-226
-195
-207
-239
-138
47
513
1724
2807
2098
186
-767
-513
-277
-292
-223
-176
-205
-183
-145
-135
-113
-82
-56
-25
6
39
75
112
154
206
255
294
333
378
412
418
401
383
357
303
224
140
60
-17
-83
-129
-159
-183
-197
-194
-184
-175
-160
-143
-138
-136
-127
-123
-125
-123
-120
-126
-132
-132
-136
-141
-138
-135
-142
-148
-139
-130
-135
-138
-127
-118
-122
-123
-115
-106
-95
-90
-97
-97
-83
-77
-85
-81
-69
-74
-78
-63
-58
-72
-71
-64
-70
-67
-50
-45
-35
0
21
5
-16
-35
-50
-48
-56
-62
-34
-53
-102
-25
166
677
1923
3014
2298
353
-637
-391
-157
-198
-154
-113
-152
-146
-106
-82
-57
-31
-14
7
34
57
80
111
144
173
221
288
345
382
408
417
410
396
365
308
233
141
40
-47
-118
-174
-209
-233
-258
-268
-262
-259
-257
-251
-245
-229
-206
-201
-208
-208
-207
-209
-212
-216
-221
-225
-227
-225
-217
-210
-209
-211
-214
-211
-203
-203
-211
-205
-185
-177
-184
-181
-168
-165
-168
-166
-164
-167
-160
-144
-139
-142
-139
-133
-128
-124
-129
-135
-126
-111
-95
-69
-47
-48
-62
-81
-104
-103
-89
-100
-97
-68
-102
-124
-7
209
848
2152
2871
1714
-99
-673
-335
-192
-208
-135
-126
-157
-124
-99
-99
-73
-36
-12
5
20
45
87
130
168
205
248
299
351
391
411
411
399
385
359
301
219
136
60
-15
-83
-136
-171
-196
-214
-218
-204
-191
-193
-189
-173
-163
-168
-169
-159
-155
-157
-160
-163
-169
-174
-179
-179
-173
-174
-176
-167
-165
-175
-173
-158
-152
-149
-142
-137
-129
-119
-116
-120
-117
-104
-96
-95
-92
-81
-70
-64
-60
-58
-58
-59
-56
-52
-55
-56
-51
-52
-57
-49
-33
-19
1
22
28
19
-3
-31
-33
-19
-35
-38
-1
-26
-58
43
217
741
1991
2899
1976
124
-635
-347
-166
-182
-104
-70
-101
-88
-72
-75
-47
-11
6
27
56
85
117
148
171
202
257
313
350
381
406
409
394
374
346
294
220
136
48
-38
-111
-165
-210
-243
-256
-257
-256
-253
-248
-249
-250
-241
-232
-240
-260
-267
-261
-264
-283
-294
-299
-306
-304
-298
-305
-319
-321
-313
-306
-306
-310
-309
-310
-321
-325
-305
-284
-284
-293
-291
-283
-281
-281
-275
-269
-262
-251
-247
-250
-252
-255
-252
-235
-223
-213
-186
-161
-161
-172
-185
-183
-160
-163
-174
-148
-154
-171
-71
89
543
1736
2747
1978
109
-758
-476
-243
-243
-159
-108
-128
-100
-70
-69
-40
-3
15
37
70
101
132
167
209
259
311
362
414
460
490
506
512
506
481
431
360
277
197
127
70
27
-2
-23
-33
-21
-3
6
17
37
48
47
53
67
77
79
80
81
77
66
66
76
71
59
67
82
85
86
90
91
99
114
119
116
118
131
146
149
142
142
147
152
154
153
155
165
167
156
156
170
170
150
134
137
143
142
149
171
187
173
137
103
88
88
72
53
61
39
-5
53
206
687
1925
3053
2388
419
-648
-437
-207
-274
-258
-235
-281
-272
-249
-266
-268
-256
-260
-251
-235
-236
-236
-214
-192
-175
-147
-112
-81
-58
-47
-53
-70
-105
-163
-233
-315
-422
-541
-641
-726
-807
-865
-899
-929
-955
-967
-970
-973
-980
-990
-994
-995
-1002
-1008
-1008
-1012
-1029
-1039
-1035
-1036
-1053
-1066
-1067
-1060
-1054
-1052
-1050
-1044
-1039
-1034
-1022
-1004
-985
-973
-961
-943
-916
-895
-882
-864
-836
-803
-771
-750
-725
-679
-642
-625
-593
-554
-548
-548
-509
-449
-395
-335
-271
-233
-221
-208
-195
-177
-127
-90
-88
-39
28
20
81
285
642
1663
3210
3506
1855
317
340
885
1068
1240
1542
1780
2037
2410
2816
3128
3238
3174
3057
2887
2486
1805
1231
1221
1608
1834
1678
1203
425
-615
-1835
-2944
-3205
-2110
-180
1623
2902
3800
4488
5027
5422
5684
5847
5870
5710
5521
5394
5295
5456
5778
5677
5684
6336
5787
3179
1299
1467
1742
1617
1727
1618
2061
3670
3821
1345
-829
-1642
-3064
-4934
-5420
-4750
-4415
-4760
-4809
-3542
-989
2210
5613
8732
10970
11960
11572
10170
8564
7125
5671
4061
2128
-370
-3569
-7708
-12759
-17576
-20555
-21339
-21052
-21073
-21980
-23233
-23797
-23335
-22307
-20997
-19334
-17246
-14708
-12059
-9539
-6651
-4232
-4770
-7062
-6000
-1449
864
-547
-1455
-208
971
868
112
-412
-170
459
679
535
605
1037
1542
1770
1745
1887
2261
2434
2334
2311
2464
2704
3001
3250
3530
3937
3658
1654
-1305
-3362
-4432
-5799
-7210
-7427
-6668
-4989
246
11281
25065
35242
38810
37143
32356
27195
24634
23967
22151
19027
16268
13978
11922
10664
10178
10534
13005
17230
20867
23766
25133
20634
12215
6423
-1842
-16422
-19387
484
21339
23158
18119
21562
22397
5713
-16480
-23917
-20468
-20949
-25524
-27769
-27706
-27393
-27514
-28008
-27419
-25476
-24116
-23659
-22786
-21645
-20883
-20166
-19230
-17706
-15255
-13523
-14364
-16170
-16253
-14938
-13781
-12930
-12053
-11100
-10037
-9002
-8016
-6904
-5794
-4850
-3902
-2901
-1988
-1105
-200
611
1365
2317
3722
5790
8430
11052
12973
13784
13660
13567
14149
14626
14157
13201
12396
11738
11290
11182
11218
11310
11602
12044
12396
12483
12263
11796
11129
10372
9874
9814
9828
9587
9238
8894
8460
8080
7946
7984
8172
8524
8832
9058
9396
9645
9382
8573
7442
6340
5726
5639
5733
5821
5738
5330
4647
3296
702
-2598
-5905
-9618
-13501
-16315
-18057
-19326
-19547
-18583
-17479
-16474
-15039
-13375
-12016
-10985
-10014
-8987
-7895
-6239
-3721
-1964
-2712
-4462
-4615
-3511
-2798
-2507
-2097
-1713
-1482
-1271
-1065
-873
-646
-398
-192
-66
-7
40
89
153
308
464
316
-135
-572
-957
-1448
-2205
-3720
-6261
-9064
-11241
-12701
-13527
-13684
-13512
-13344
-12882
-11677
-9719
-7296
-4771
-2482
-613
760
1716
2535
3285
3755
3943
3940
3688
3479
3635
3444
1925
-469
-2397
-3394
-4085
-4795
-4638
-3136
-1973
-2550
-3506
-3352
-2543
-1528
-221
931
1717
2542
3532
4485
5223
5865
7289
10887
17293
24684
28817
26780
20092
12605
7045
3187
-2257
-10786
-17000
-13904
-2165
10410
16399
14586
11467
15458
26620
35883
37386
35347
34827
33812
29180
22061
13973
5531
-834
-3214
-2937
-2050
-1632
-2318
-3836
-5370
-6661
-7657
-8282
-8808
-9381
-9759
-9906
-10030
-10201
-10397
-10616
-10789
-10818
-10682
-10422
-10098
-9787
-9521
-9229
-8892
-8707
-8838
-9114
-9285
-9355
-9395
-9342
-9147
-8887
-8675
-8529
-8337
-7980
-7465
-6901
-6394
-5932
-5443
-4980
-4542
-3906
-3050
-2301
-1789
-1406
-1200
-1216
-1320
-1459
-1635
-1769
-1902
-2127
-2257
-2094
-1819
-1642
-1478
-1229
-935
-627
-327
-80
111
261
389
545
726
884
1059
1298
1486
1518
1481
1470
1464
1462
1495
1555
1661
1809
1921
2025
2175
2249
2303
2537
2874
3576
5094
6207
5125
2911
2045
2500
2815
2844
2966
3043
3054
3133
3198
3214
3264
3326
3362
3403
3464
3529
3593
3651
3702
3769
3855
3936
3994
4035
4053
4041
4018
3980
3899
3791
3688
3574
3443
3335
3267
3216
3175
3154
3124
3049
2935
2807
2694
2618
2491
2180
1757
1376
968
465
107
62
77
-115
-428
-660
-779
-950
-1392
-2101
-3008
-4376
-6173
-7713
-8896
-10324
-11668
-12047
-11645
-11179
-10854
-10607
-10339
-10073
-10071
-10261
-10163
-9730
-9252
-8709
-8016
-7289
-6466
-5349
-4022
-2739
-1585
-508
474
1285
1901
2370
2753
3078
3323
3473
3600
3726
3762
3788
3923
4169
4975
6573
7386
5897
3632
2877
3230
3336
3225
3225
3170
3063
3008
2945
2882
2860
2834
2796
2776
2769
2769
2781
2791
2788
2778
2752
2704
2631
2532
2427
2332
2232
2122
2029
1942
1817
1635
1411
1204
1064
942
770
571
394
230
68
-61
-141
-183
-196
-201
-237
-303
-354
-400
-454
-478
-548
-748
-885
-950
-1268
-1577
-1641
-2300
-3443
-3324
-1952
-1192
-1232
-1078
-850
-876
-856
-736
-702
-683
-618
-631
-797
-1055
-1318
-1570
-1792
-1894
-1853
-1805
-1839
-1842
-1684
-1417
-1149
-904
-638
-326
-54
139
394
634
795
1552
2994
3308
1536
-315
-557
-101
17
15
40
-61
-191
-263
-329
-392
-468
-588
-703
-766
-809
-869
-926
-954
-952
-923
-877
-838
-801
-744
-684
-643
-605
-553
-514
-519
-558
-593
-610
-640
-697
-757
-809
-867
-916
-933
-920
-891
-849
-801
-758
-717
-673
-633
-612
-600
-580
-553
-531
-510
-475
-418
-339
-247
-163
-84
14
133
259
402
565
720
859
982
1069
1117
1156
1202
1254
1310
1367
1420
1483
1560
1635
1704
1786
1873
1925
1947
1979
2029
2090
2159
2229
2318
2415
2454
2456
2530
2816
3561
4397
3790
946
-2435
-4284
-4681
-4732
-4763
-4630
-4396
-4138
-3790
-3314
-2760
-2230
-1887
-1775
-1716
-1626
-1647
-1779
-1785
-1559
-1230
-900
-501
42
655
1203
1653
2037
2355
2575
2700
2775
2846
2915
2980
3050
3122
3193
3281
3390
3494
3576
3644
3743
3891
4002
3998
3933
3873
3809
3739
3671
3594
3513
3438
3361
3278
3197
3117
3033
2941
2833
2705
2575
2459
2336
2183
2003
1832
1688
1500
1190
885
780
750
473
-30
-427
-624
-855
-1263
-1765
-2283
-2825
-3373
-3841
-4204
-4599
-5159
-5772
-6236
-6521
-6750
-7013
-7226
-7304
-7409
-7604
-7773
-8148
-9001
-10527
-12725
-12519
-5371
5032
8582
4549
1253
619
-1232
-3729
-4364
-3761
-2811
-1507
-475
206
902
913
268
-328
-2365
-6103
-8693
-11273
-15071
-11854
1241
10101
6813
1433
704
962
452
-282
-2371
-5551
-8324
-10468
-12252
-13869
-15515
-17117
-18858
-20890
-23022
-25824
-28808
-27582
-19936
-13386
-14238
-12721
1801
18913
23830
20898
19910
19940
18644
17787
17399
16518
15758
15252
14567
13920
13416
12859
12309
11839
11367
10906
10488
10084
9690
9318
8963
8633
8332
8048
7787
7548
7323
7109
6917
6750
6598
6457
6331
6221
6129
6051
5987
5936
5897
5870
5858
5861
5875
5895
5926
5969
6021
6082
6158
6247
6346
6456
6577
6703
6833
6975
7125
7275
7430
7593
7754
7915
8096
8277
8451
8656
8848
9007
9223
9429
9538
9753
9989
10042
10356
10711
10458
10938
11886
8003
-2734
-14219
-21780
-26582
-29561
-30482
-30092
-29080
-28567
-29483
-30022
-28621
-27117
-26952
-27015
-26575
-25975
-25262
-24364
-23302
-22000
-20622
-19427
-18361
-17293
-16236
-15228
-14274
-13335
-12353
-11357
-10419
-9526
-8645
-7800
-7001
-6224
-5470
-4755
-4040
-3282
-2515
-1794
-1103
-414
229
799
1356
1944
2528
3080
3609
4133
4652
5140
5552
5880
6165
6448
6751
7078
7408
7719
8016
8294
8515
8683
8823
8914
8920
8888
8902
8997
9149
9294
9369
9372
9343
9254
9059
8849
8784
8814
8775
8712
8774
8922
9062
9258
9765
10779
11718
11522
10341
9509
9518
9686
9393
8556
7725
7560
7682
7317
6824
6909
7327
7632
7888
8141
8342
8549
8749
8925
9132
9204
8903
8140
6668
4207
1219
-625
-538
-2015
-9100
-18237
-22261
-21309
-20258
-20072
-19375
-18488
-18025
-17547
-16039
-12731
-8312
-4510
-1887
473
2575
3358
3526
3502
-205
-8378
-14267
-14234
-13019
-12851
-10463
-6084
-3417
-2579
-997
1746
4311
6193
7713
9004
10038
10859
11487
11973
12327
12377
12259
12490
13150
14193
16373
19976
23196
24318
24572
25164
23969
20232
16108
9200
-3772
-15811
-18808
-16882
-16506
-16638
-15841
-15448
-15332
-14832
-14443
-14230
-13881
-13557
-13319
-13036
-12764
-12540
-12304
-12070
-11853
-11631
-11419
-11228
-11039
-10869
-10754
-10671
-10580
-10470
-10343
-10214
-10120
-10078
-10049
-9990
-9906
-9825
-9752
-9707
-9720
-9735
-9684
-9632
-9595
-9507
-9528
-9607
-8906
-6813
-3917
-1092
1324
3197
4585
5839
7085
8141
8962
9632
10159
10566
10925
11257
11579
11986
12509
12998
13435
14075
14846
15073
14213
12406
10233
8369
7304
7090
7402
7792
7983
7999
7962
7879
7728
7522
7235
6886
6586
6370
6147
5878
5608
5357
5121
4907
4702
4470
4187
3873
3573
3298
3004
2682
2381
2148
1960
1770
1598
1495
1398
1186
890
646
482
334
186
45
-100
-246
-399
-586
-787
-965
-1153
-1332
-1442
-1576
-1755
-1787
-1681
-1400
-575
259
-289
-1967
-2986
-2935
-2778
-2792
-2722
-2664
-2697
-2715
-2708
-2702
-2707
-2764
-2863
-2959
-3045
-3099
-3097
-3116
-3207
-3311
-3487
-3888
-4359
-4555
-4487
-4379
-4232
-4001
-3796
-3661
-3527
-3379
-3254
-3166
-3108
-3056
-2986
-2897
-2798
-2691
-2592
-2513
-2433
-2327
-2207
-2096
-2005
-1950
-1927
-1914
-1891
-1855
-1815
-1781
-1748
-1713
-1689
-1689
-1688
-1662
-1616
-1552
-1462
-1365
-1278
-1201
-1143
-1108
-1066
-1014
-970
-925
-865
-797
-722
-636
-561
-506
-456
-409
-376
-348
-309
-254
-185
-101
-12
74
158
235
289
317
321
315
337
385
418
473
556
574
591
735
995
1710
3082
3824
2675
887
342
716
925
989
1129
1195
1221
1304
1369
1397
1444
1496
1534
1568
1601
1645
1717
1817
1945
2094
2240
2368
2478
2561
2618
2669
2725
2786
2851
2914
2948
2934
2898
2880
2880
2887
2901
2931
2976
3028
3069
3085
3082
3063
3029
2983
2924
2858
2818
2815
2802
2748
2692
2641
2488
2153
1773
1630
1821
2173
2507
2795
3017
3107
3116
3139
3106
2948
2735
2430
2001
1663
1466
1172
814
629
500
144
-455
-1109
-1636
-2021
-2349
-2573
-2678
-2868
-3218
-3571
-3895
-4167
-4225
-4070
-3931
-4038
-4329
-4074
-2506
-15
2254
3659
4152
3896
3256
2722
2465
1737
-277
-2646
-3651
-3374
-3055
-3023
-3058
-3226
-3494
-3728
-3994
-4368
-4794
-5292
-6079
-7215
-8180
-8411
-8180
-8132
-8255
-8172
-7886
-7601
-7373
-7186
-7025
-6867
-6745
-6670
-6609
-6616
-6701
-6744
-6837
-7043
-7104
-7480
-8773
-8983
-5244
1287
7040
10941
13787
16478
20349
24619
25215
20388
13682
8716
5556
3157
1307
-86
-1235
-2181
-2943
-3576
-4075
-4438
-4696
-4870
-4969
-4999
-4982
-4939
-4872
-4765
-4607
-4393
-4140
-3868
-3568
-3223
-2840
-2444
-2035
-1590
-1120
-662
-207
263
725
1136
1506
1921
2411
2871
3327
3925
4505
4972
5699
6531
6718
6547
6866
7324
7398
7520
8102
9554
11841
13100
12403
11898
12232
11309
9053
6492
3288
1058
1729
