# session 20
116
144
63
97
399
685
703
625
621
618
581
563
547
511
480
456
425
394
370
346
319
293
269
248
226
203
179
154
128
100
73
52
36
20
4
-12
-32
-50
-62
-78
-100
-120
-135
-152
-171
-190
-209
-225
-243
-268
-294
-309
-319
-338
-364
-392
-431
-475
-475
-395
-263
-87
156
395
526
583
650
741
790
674
410
237
134
-163
-518
-632
-402
569
2017
2045
-100
-2200
-2651
-2444
-2421
-2277
-2031
-1942
-1967
-2055
-2112
-2051
-2008
-2001
-1870
-1669
-1499
-1263
-950
-682
-443
-139
220
574
887
1144
1331
1435
1499
1587
1678
1711
1690
1658
1611
1516
1403
1349
1335
1329
1414
1551
1555
1450
1397
1350
1223
1091
994
877
750
657
592
527
444
350
267
202
141
83
26
-35
-96
-152
-200
-242
-279
-315
-352
-384
-411
-432
-444
-447
-451
-460
-467
-468
-466
-459
-447
-440
-439
-436
-428
-421
-417
-412
-404
-392
-377
-361
-345
-330
-315
-296
-276
-261
-254
-243
-218
-185
-161
-139
-102
-64
-61
-76
-74
-59
-34
-10
-9
6
47
19
-36
13
230
965
2323
3004
1872
184
-355
-121
-73
-125
-74
-70
-94
-82
-89
-109
-110
-119
-136
-142
-144
-139
-118
-99
-87
-67
-37
1
51
105
152
199
243
267
271
261
227
157
49
-84
-218
-341
-454
-543
-601
-646
-684
-697
-691
-684
-676
-659
-635
-607
-577
-552
-525
-493
-464
-443
-422
-392
-360
-336
-320
-300
-272
-242
-217
-198
-181
-163
-143
-116
-90
-70
-49
-28
-14
-1
15
28
35
42
48
55
67
79
83
87
93
93
83
78
77
71
62
64
79
101
124
139
152
174
190
174
139
119
112
124
139
118
114
143
96
37
121
369
1218
2886
3774
2369
223
-439
-97
-32
-114
-40
-26
-59
-24
-2
-6
10
20
28
65
106
130
166
227
283
316
343
377
417
465
522
571
600
614
617
598
544
453
329
185
47
-72
-174
-255
-305
-339
-369
-389
-392
-394
-397
-396
-393
-394
-392
-390
-392
-394
-392
-391
-395
-395
-391
-390
-390
-386
-381
-377
-375
-378
-380
-375
-370
-370
-371
-372
-369
-365
-358
-348
-342
-343
-337
-323
-311
-304
-296
-290
-285
-276
-266
-259
-256
-249
-240
-234
-229
-222
-210
-201
-196
-193
-194
-198
-196
-181
-162
-143
-123
-91
-64
-72
-101
-108
-102
-95
-76
-73
-74
-38
-58
-137
-94
120
805
2390
3722
2881
628
-510
-282
-107
-199
-141
-83
-106
-62
0
23
55
82
89
117
160
192
224
259
289
330
404
485
538
582
643
707
750
769
766
751
724
664
557
428
301
176
58
-34
-100
-151
-186
-203
-210
-214
-221
-228
-243
-272
-302
-309
-300
-299
-311
-330
-344
-349
-350
-352
-352
-348
-344
-345
-350
-349
-338
-329
-327
-329
-334
-340
-342
-340
-335
-327
-316
-313
-314
-311
-303
-293
-281
-271
-269
-267
-259
-248
-232
-215
-209
-215
-213
-197
-179
-170
-167
-162
-153
-143
-134
-126
-116
-104
-99
-96
-84
-66
-57
-40
-9
1
-37
-80
-102
-119
-120
-113
-132
-121
-96
-167
-220
-107
223
1226
2839
3304
1637
-237
-587
-258
-249
-282
-201
-204
-217
-167
-128
-89
-30
19
66
132
207
276
333
380
424
471
514
555
597
641
684
720
744
756
753
735
696
622
516
394
266
145
41
-40
-99
-137
-165
-183
-187
-191
-202
-204
-194
-189
-191
-191
-189
-193
-202
-209
-216
-225
-236
-241
-243
-253
-268
-277
-279
-281
-285
-290
-289
-286
-290
-294
-299
-307
-312
-309
-310
-314
-315
-317
-321
-322
-326
-333
-336
-334
-329
-322
-316
-313
-307
-299
-293
-287
-278
-267
-257
-250
-243
-239
-237
-228
-207
-185
-169
-151
-120
-96
-99
-111
-118
-127
-117
-93
-102
-100
-58
-90
-136
-44
182
936
2480
3333
1995
-78
-701
-305
-166
-190
-88
-60
-80
-34
-9
-8
22
43
49
80
113
131
161
202
236
267
310
358
411
475
540
595
643
679
688
677
646
576
457
314
176
51
-63
-163
-233
-270
-290
-304
-308
-298
-285
-280
-276
-269
-265
-261
-257
-261
-265
-260
-258
-268
-276
-272
-268
-267
-266
-265
-259
-250
-244
-243
-236
-226
-214
-199
-190
-188
-183
-172
-164
-160
-152
-142
-138
-135
-130
-126
-123
-120
-116
-111
-107
-107
-109
-104
-102
-109
-118
-112
-93
-79
-66
-39
-21
-39
-68
-81
-89
-81
-74
-90
-69
-51
-134
-162
-18
363
1523
3211
3406
1412
-413
-544
-194
-262
-295
-203
-220
-233
-185
-169
-155
-120
-98
-75
-33
13
64
112
144
173
216
271
338
418
507
595
671
722
739
732
706
650
556
433
291
150
30
-53
-108
-158
-220
-276
-310
-330
-353
-374
-384
-389
-392
-393
-395
-404
-415
-421
-425
-437
-449
-449
-440
-431
-423
-415
-417
-426
-428
-419
-405
-391
-377
-364
-356
-353
-349
-341
-339
-339
-333
-327
-325
-320
-310
-302
-295
-292
-295
-297
-295
-298
-302
-297
-291
-286
-273
-255
-244
-245
-253
-255
-238
-209
-189
-168
-119
-55
-13
1
3
-7
1
41
46
28
72
87
19
51
250
850
2331
3780
3271
1224
42
193
353
230
244
288
244
246
294
339
377
373
342
337
344
350
371
402
442
498
544
567
595
631
650
649
643
635
620
591
542
472
374
246
104
-31
-153
-256
-336
-392
-432
-461
-479
-490
-499
-503
-496
-487
-481
-475
-472
-473
-472
-467
-465
-465
-462
-457
-455
-454
-451
-444
-435
-428
-422
-412
-401
-392
-381
-365
-349
-342
-336
-323
-308
-298
-291
-280
-266
-253
-245
-240
-235
-232
-227
-217
-208
-204
-202
-198
-196
-192
-184
-178
-172
-161
-149
-144
-144
-146
-146
-139
-121
-103
-97
-82
-45
-26
-49
-73
-77
-82
-76
-73
-89
-66
-45
-111
-120
14
388
1564
3217
3326
1323
-429
-510
-137
-157
-153
-53
-62
-57
-3
-2
-10
14
35
55
84
106
127
158
189
217
251
294
345
405
470
530
581
622
650
656
639
597
518
399
259
123
-3
-114
-197
-253
-286
-304
-312
-311
-300
-286
-273
-260
-245
-233
-224
-217
-212
-208
-205
-208
-215
-218
-218
-220
-225
-226
-225
-228
-229
-227
-225
-224
-220
-216
-214
-208
-201
-198
-196
-192
-187
-184
-181
-176
-171
-168
-163
-156
-149
-146
-147
-148
-143
-132
-124
-124
-124
-117
-111
-109
-114
-122
-121
-104
-87
-78
-53
-27
-39
-72
-89
-100
-100
-85
-98
-106
-70
-110
-193
-126
120
958
2767
4001
2739
315
-629
-297
-193
-302
-225
-190
-229
-192
-162
-165
-137
-108
-97
-71
-38
-9
23
56
91
133
180
229
285
349
414
474
524
559
573
567
542
481
375
239
102
-21
-128
-216
-277
-314
-335
-343
-343
-339
-333
-325
-312
-297
-284
-274
-267
-262
-257
-252
-252
-256
-258
-260
-259
-254
-252
-253
-254
-254
-254
-251
-246
-240
-231
-223
-221
-221
-219
-215
-212
-207
-201
-197
-194
-188
-179
-177
-178
-176
-175
-171
-165
-162
-159
-148
-137
-131
-124
-121
-120
-109
-92
-85
-83
-78
-75
-84
-91
-78
-52
-33
-20
2
21
14
1
-4
-5
-1
-12
-49
-41
-31
-124
-158
-12
338
1448
3208
3588
1634
-371
-647
-289
-325
-359
-262
-276
-295
-245
-212
-167
-92
-49
-20
40
110
175
237
282
302
330
386
446
488
538
613
684
719
730
733
723
685
604
482
341
205
77
-42
-140
-208
-253
-286
-313
-335
-350
-353
-347
-343
-343
-338
-318
-295
-289
-295
-287
-256
-215
-181
-165
-172
-194
-214
-226
-240
-255
-263
-264
-267
-271
-270
-269
-271
-269
-262
-262
-262
-258
-257
-254
-245
-237
-237
-233
-224
-222
-224
-217
-206
-201
-202
-195
-181
-171
-170
-169
-163
-156
-150
-145
-146
-155
-164
-153
-127
-108
-95
-69
-45
-53
-78
-95
-104
-95
-84
-99
-83
-48
-103
-138
-30
244
1186
2810
3312
1596
-342
-644
-219
-168
-181
-68
-54
-61
-7
16
22
49
65
78
105
127
145
171
200
231
268
307
350
401
461
521
572
612
638
643
627
585
501
376
233
92
-37
-150
-242
-308
-345
-363
-373
-375
-365
-353
-345
-337
-331
-328
-323
-313
-309
-311
-313
-312
-311
-311
-310
-309
-309
-306
-301
-296
-290
-281
-273
-265
-256
-248
-241
-233
-229
-226
-218
-207
-199
-194
-191
-187
-179
-170
-165
-162
-157
-150
-146
-142
-135
-129
-125
-127
-133
-135
-122
-100
-86
-71
-41
-23
-39
-64
-80
-86
-68
-64
-84
-55
-40
-128
-135
33
501
1873
3637
3560
1308
-441
-430
-110
-218
-231
-143
-170
-168
-118
-112
-97
-60
-41
-18
19
53
85
118
147
182
227
276
328
386
450
516
576
619
643
646
627
580
494
369
231
99
-19
-118
-192
-243
-280
-299
-303
-304
-303
-296
-284
-273
-264
-255
-248
-245
-243
-243
-246
-252
-259
-264
-267
-270
-273
-275
-276
-276
-274
-273
-272
-266
-261
-263
-261
-251
-242
-238
-232
-226
-223
-221
-219
-217
-213
-210
-205
-201
-201
-205
-210
-214
-214
-210
-211
-215
-215
-214
-215
-218
-226
-229
-211
-187
-180
-169
-139
-130
-157
-184
-204
-218
-206
-206
-223
-178
-159
-251
-257
-89
419
1864
3546
3238
921
-676
-581
-297
-402
-376
-282
-311
-301
-251
-240
-205
-141
-88
-28
39
86
126
183
243
278
297
333
404
491
572
639
692
726
737
725
696
646
572
471
351
232
133
51
-14
-55
-76
-90
-95
-88
-69
-41
-19
-15
-14
-16
-30
-42
-32
-22
-25
-24
-24
-42
-65
-87
-116
-149
-173
-192
-212
-230
-244
-254
-262
-271
-280
-283
-285
-285
-282
-282
-286
-288
-285
-281
-278
-274
-270
-267
-266
-262
-255
-250
-247
-241
-232
-224
-219
-212
-205
-200
-193
-183
-174
-168
-166
-167
-166
-156
-135
-115
-100
-72
-37
-34
-58
-72
-77
-69
-55
-66
-57
-12
-51
-123
-56
188
1028
2685
3585
2193
46
-606
-231
-138
-203
-114
-89
-116
-76
-51
-56
-45
-42
-42
-23
-2
18
47
73
94
127
172
217
262
317
380
442
498
533
543
536
511
449
345
217
85
-43
-153
-238
-305
-356
-383
-396
-403
-401
-399
-400
-390
-371
-361
-350
-329
-314
-308
-302
-295
-292
-288
-285
-285
-285
-282
-275
-267
-262
-259
-255
-250
-242
-233
-228
-225
-220
-212
-202
-196
-194
-191
-187
-182
-175
-167
-161
-157
-151
-145
-141
-135
-128
-122
-117
-115
-113
-112
-117
-122
-112
-90
-76
-63
-35
-15
-29
-55
-73
-87
-76
-62
-83
-70
-36
-107
-150
-22
300
1366
3160
3678
1785
-296
-609
-198
-205
-249
-149
-155
-173
-123
-111
-110
-75
-48
-29
5
36
63
97
132
165
206
251
299
358
426
493
556
609
642
656
656
630
560
450
321
191
73
-24
-106
-170
-210
-225
-227
-225
-222
-216
-202
-188
-178
-171
-162
-154
-151
-151
-153
-155
-154
-152
-153
-154
-153
-151
-149
-145
-140
-139
-138
-132
-125
-121
-119
-117
-114
-108
-101
-94
-87
-81
-80
-79
-72
-69
-73
-77
-77
-79
-77
-76
-82
-91
-91
-89
-91
-95
-100
-103
-101
-100
-105
-119
-137
-147
-141
-132
-129
-112
-85
-89
-127
-153
-165
-172
-161
-169
-203
-187
-193
-295
-308
-151
348
1771
3423
3100
782
-821
-739
-460
-576
-574
-502
-541
-536
-486
-472
-443
-401
-377
-328
-257
-215
-194
-155
-102
-52
-1
61
130
194
262
356
470
577
667
742
800
830
826
775
666
520
381
273
188
123
82
54
23
-24
-96
-166
-181
-152
-151
-182
-189
-160
-127
-109
-131
-201
-283
-342
-392
-456
-523
-574
-614
-652
-683
-703
-720
-736
-749
-764
-779
-784
-783
-786
-787
-783
-777
-770
-758
-744
-734
-725
-712
-694
-675
-654
-632
-609
-584
-559
-535
-507
-478
-450
-425
-398
-367
-335
-303
-273
-248
-225
-196
-155
-109
-67
-17
48
94
101
106
131
161
203
246
260
308
376
347
328
454
779
1813
3513
4029
2311
384
80
488
542
545
666
691
707
779
808
815
842
856
873
914
955
989
1032
1082
1134
1186
1241
1304
1374
1444
1511
1580
1644
1686
1701
1697
1674
1613
1506
1369
1229
1101
986
891
822
773
737
712
693
676
663
654
645
633
623
611
591
565
537
509
474
436
398
355
307
260
213
166
117
64
11
-43
-99
-157
-218
-282
-346
-409
-474
-541
-610
-682
-758
-836
-913
-992
-1075
-1157
-1235
-1315
-1402
-1492
-1578
-1662
-1752
-1848
-1940
-2029
-2123
-2224
-2329
-2427
-2509
-2588
-2678
-2765
-2836
-2924
-3048
-3174
-3285
-3392
-3480
-3581
-3704
-3775
-3848
-4024
-4133
-4075
-3741
-2530
-850
-875
-3109
-4989
-5108
-4828
-4992
-5052
-4923
-4931
-4896
-4464
-3710
-3025
-2593
-2224
-1758
-1244
-653
115
993
1914
2954
3882
4271
4301
4411
4399
4045
3659
3149
2040
656
-223
-504
-539
-584
-851
-1334
-1832
-2244
-2485
-2540
-2438
-2183
-2471
-3393
-1996
3708
9688
11608
10970
10083
8370
6132
4754
3900
2836
1886
1224
592
-25
-478
-841
-1282
-1410
-800
-33
1173
4752
9916
12810
13582
16747
22429
25269
23664
22228
23475
24539
23835
23407
23091
19826
13696
8039
4147
1018
-1671
-3754
-5476
-6916
-8004
-8895
-9664
-10246
-10692
-11070
-11358
-11547
-11661
-11704
-11684
-11619
-11505
-11342
-11152
-10954
-10739
-10502
-10244
-9965
-9673
-9375
-9055
-8726
-8421
-8109
-7749
-7283
-6527
-5562
-5025
-5219
-5512
-5372
-5035
-4770
-4497
-4181
-3890
-3621
-3340
-3034
-2713
-2424
-2185
-1962
-1730
-1504
-1299
-1108
-912
-698
-478
-270
-71
131
341
555
763
959
1143
1316
1477
1624
1755
1869
1973
2072
2171
2272
2371
2465
2560
2663
2770
2866
2930
2962
2991
3035
3074
3094
3098
3088
3062
3032
3004
2973
2927
2868
2808
2748
2687
2630
2573
2503
2421
2345
2276
2204
2123
2039
1950
1855
1756
1655
1550
1439
1322
1203
1087
971
846
716
595
480
361
246
138
28
-79
-173
-263
-344
-400
