# session 25
-113
100
760
884
-216
-1395
-1572
-1402
-1939
-3504
-5904
-8393
-10184
-11153
-11009
-9257
-6781
-5570
-7690
-14542
-23621
-28888
-28604
-26939
-26256
-25438
-24322
-23527
-22747
-21840
-21067
-20338
-19567
-18862
-18193
-17518
-16883
-16279
-15683
-15121
-14594
-14084
-13593
-13128
-12683
-12260
-11857
-11469
-11100
-10754
-10419
-10101
-9806
-9514
-9238
-9008
-8766
-8508
-8314
-7867
-6553
-4414
-2167
-175
1643
3184
4282
5052
5691
6269
6793
7244
7616
7959
8308
8662
9074
9547
9934
10155
10357
10641
10935
11219
11587
12056
12552
13041
13548
14088
14595
14963
15157
15239
15250
15181
15039
14873
14700
14492
14240
13947
13623
13282
12923
12524
12093
11655
11207
10739
10253
9749
9220
8672
8114
7548
6984
6439
5921
5426
4954
4516
4101
3678
3249
2834
2430
2019
1603
1196
804
430
71
-283
-639
-1008
-1399
-1807
-2238
-2702
-3171
-3573
-3871
-4081
-4217
-4276
-4269
-4228
-4176
-4136
-4119
-4111
-4097
-4080
-4065
-4053
-4059
-4082
-4112
-4152
-4200
-4245
-4297
-4367
-4437
-4501
-4580
-4670
-4722
-4716
-4700
-4724
-4776
-4846
-4996
-5252
-5488
-5568
-5506
-5389
-5267
-5182
-5105
-4956
-4818
-4775
-4673
-4436
-3908
-2605
-1092
-1178
-2938
-4203
-4126
-3878
-3957
-3942
-3859
-3877
-3867
-3783
-3699
-3607
-3498
-3379
-3232
-3082
-2943
-2772
-2560
-2346
-2150
-1983
-1843
-1703
-1570
-1446
-1316
-1191
-1064
-877
-656
-497
-407
-360
-367
-393
-385
-368
-366
-360
-343
-320
-265
-153
-11
127
279
462
625
742
844
946
1033
1112
1228
1415
1619
1723
1732
1773
1847
1842
1840
2033
2292
2381
2506
2892
3179
3057
2849
2863
2989
3165
3391
3533
3717
4304
5116
5564
5521
5316
5183
5144
5065
4801
4426
4116
3895
3717
3590
3572
3727
4080
4637
5345
5951
6241
6408
6641
6883
7489
8617
8890
7260
5240
4413
4005
3088
2136
1475
824
177
-313
-652
-872
-1085
-1454
-1975
-2530
-3043
-3472
-3800
-4038
-4199
-4286
-4314
-4292
-4237
-4175
-4103
-4010
-3923
-3857
-3801
-3756
-3741
-3751
-3777
-3808
-3822
-3809
-3779
-3731
-3661
-3574
-3474
-3366
-3253
-3133
-3003
-2876
-2760
-2647
-2527
-2412
-2308
-2209
-2110
-2016
-1927
-1837
-1746
-1656
-1570
-1486
-1397
-1304
-1217
-1137
-1054
-969
-889
-814
-737
-661
-589
-515
-440
-372
-314
-260
-205
-143
-68
6
71
144
215
257
279
306
336
379
432
455
487
557
547
491
573
849
1669
3282
4308
3176
1121
368
671
741
627
688
727
704
739
771
773
797
821
835
862
890
907
927
954
981
1010
1045
1084
1125
1168
1209
1243
1262
1256
1229
1189
1123
1014
879
747
624
512
423
358
307
264
231
210
193
179
171
170
167
161
155
147
135
120
102
81
60
38
13
-11
-31
-54
-77
-94
-110
-129
-146
-158
-169
-181
-195
-210
-223
-233
-241
-249
-259
-270
-281
-292
-308
-329
-340
-332
-320
-316
-306
-289
-293
-326
-351
-363
-376
-370
-365
-392
-379
-348
-432
-493
-368
-26
1035
2779
3300
1520
-453
-779
-449
-516
-589
-500
-507
-525
-475
-459
-458
-425
-399
-382
-352
-319
-288
-252
-213
-174
-131
-81
-23
38
99
156
208
245
263
263
246
197
108
-2
-106
-199
-283
-348
-387
-406
-413
-411
-403
-391
-375
-357
-339
-322
-302
-282
-270
-263
-252
-241
-234
-229
-226
-223
-221
-215
-207
-197
-189
-185
-180
-171
-162
-158
-152
-141
-131
-125
-116
-105
-95
-87
-81
-74
-67
-60
-53
-46
-41
-35
-26
-17
-14
-10
-3
-2
-12
-17
-2
20
34
46
69
81
63
38
32
25
23
40
30
20
59
31
-58
-5
215
915
2553
3869
2895
583
-466
-186
-57
-184
-128
-84
-124
-99
-71
-77
-54
-28
-24
-9
15
37
65
95
121
156
200
244
290
342
395
440
471
487
491
480
445
377
280
169
58
-45
-132
-196
-237
-261
-273
-277
-275
-271
-264
-253
-242
-239
-239
-235
-228
-226
-230
-230
-230
-235
-244
-246
-245
-247
-249
-247
-246
-248
-249
-246
-244
-246
-246
-239
-232
-229
-225
-222
-219
-215
-208
-203
-201
-200
-197
-192
-186
-181
-178
-175
-169
-164
-161
-156
-154
-161
-169
-162
-142
-125
-114
-92
-66
-72
-104
-118
-121
-125
-109
-110
-127
-87
-83
-185
-179
0
515
1992
3723
3413
1047
-576
-478
-203
-324
-305
-216
-252
-247
-203
-203
-189
-157
-139
-102
-56
-33
-14
22
63
104
148
197
264
336
389
432
476
508
519
518
497
437
341
229
119
11
-93
-174
-225
-255
-270
-272
-269
-268
-270
-273
-267
-248
-231
-223
-218
-214
-219
-226
-223
-218
-221
-223
-219
-213
-215
-222
-222
-210
-201
-207
-216
-210
-198
-195
-196
-193
-186
-179
-174
-169
-161
-156
-162
-162
-152
-148
-149
-141
-131
-128
-132
-141
-145
-130
-106
-95
-85
-59
-50
-76
-95
-92
-92
-89
-96
-110
-76
-67
-146
-128
40
495
1831
3427
3128
894
-627
-499
-192
-266
-224
-140
-180
-171
-127
-128
-110
-72
-51
-25
-2
12
48
98
129
154
195
248
308
374
437
490
529
549
552
541
504
426
317
197
75
-40
-138
-217
-277
-313
-324
-321
-315
-311
-300
-281
-264
-252
-242
-237
-235
-230
-236
-250
-243
-228
-241
-268
-271
-257
-253
-258
-251
-240
-238
-243
-237
-231
-233
-235
-226
-212
-206
-212
-208
-185
-174
-190
-199
-185
-176
-182
-187
-180
-166
-149
-137
-119
-95
-89
-104
-122
-143
-138
-112
-127
-143
-103
-131
-206
-135
109
909
2625
3766
2511
191
-663
-307
-205
-312
-235
-201
-233
-194
-168
-172
-141
-113
-108
-88
-54
-19
18
50
85
136
185
224
277
352
429
493
537
557
564
569
541
448
320
203
95
-17
-108
-170
-221
-256
-268
-273
-281
-279
-268
-264
-260
-247
-240
-245
-243
-233
-233
-244
-249
-248
-248
-251
-258
-260
-247
-242
-256
-265
-252
-241
-245
-243
-231
-228
-231
-224
-212
-211
-213
-210
-206
-201
-195
-191
-188
-190
-196
-192
-169
-144
-128
-109
-88
-91
-114
-131
-144
-141
-125
-141
-139
-93
-139
-218
-129
119
947
2732
3863
2498
138
-660
-287
-208
-310
-223
-199
-238
-193
-155
-143
-83
-5
46
70
77
92
124
148
167
203
251
301
355
413
468
512
540
551
552
531
473
385
276
155
37
-65
-157
-229
-271
-291
-301
-306
-308
-307
-298
-283
-274
-272
-265
-254
-253
-256
-251
-245
-250
-254
-252
-253
-257
-252
-248
-253
-256
-251
-246
-241
-230
-224
-231
-234
-224
-210
-201
-196
-192
-188
-183
-177
-168
-160
-156
-153
-146
-141
-139
-140
-141
-141
-143
-141
-126
-107
-90
-61
-38
-57
-87
-99
-111
-105
-84
-100
-97
-56
-117
-182
-66
217
1164
3004
3877
2203
-98
-671
-265
-230
-309
-214
-202
-227
-184
-166
-162
-129
-108
-92
-57
-23
3
34
69
108
147
186
235
296
354
405
449
483
501
500
484
445
367
254
132
20
-80
-163
-222
-261
-281
-287
-287
-283
-275
-261
-246
-237
-235
-230
-223
-216
-208
-205
-211
-213
-208
-210
-218
-217
-210
-211
-214
-210
-206
-205
-204
-203
-198
-188
-185
-192
-192
-182
-175
-174
-171
-166
-162
-160
-157
-152
-147
-146
-150
-150
-147
-150
-154
-142
-119
-104
-91
-68
-56
-70
-89
-105
-116
-101
-91
-118
-99
-66
-140
-164
-26
302
1422
3187
3485
1446
-493
-632
-222
-255
-276
-173
-185
-187
-132
-127
-123
-83
-62
-50
-21
10
41
76
108
139
181
234
288
344
406
465
509
534
542
535
507
448
351
229
100
-19
-116
-190
-246
-284
-300
-304
-305
-297
-280
-266
-259
-249
-238
-229
-223
-222
-228
-232
-232
-234
-236
-236
-241
-251
-253
-243
-238
-244
-245
-238
-235
-232
-226
-220
-216
-211
-205
-202
-200
-196
-194
-193
-192
-186
-179
-172
-166
-161
-156
-154
-156
-165
-171
-161
-141
-127
-118
-95
-65
-65
-94
-115
-125
-123
-104
-110
-119
-76
-96
-189
-139
78
750
2414
3895
3023
565
-656
-358
-161
-284
-220
-154
-198
-172
-122
-115
-90
-55
-39
-18
9
36
66
91
119
162
205
247
306
376
443
510
577
621
630
607
557
483
378
257
140
27
-79
-161
-216
-253
-272
-276
-282
-288
-284
-275
-268
-263
-260
-256
-253
-257
-261
-261
-264
-270
-270
-268
-273
-281
-282
-280
-280
-279
-272
-263
-265
-271
-269
-262
-257
-254
-250
-246
-244
-240
-231
-224
-228
-229
-218
-213
-218
-217
-209
-205
-201
-194
-197
-209
-214
-199
-177
-168
-158
-126
-106
-126
-151
-162
-169
-154
-146
-174
-149
-116
-206
-239
-89
297
1557
3451
3708
1524
-483
-630
-256
-327
-354
-249
-263
-270
-215
-194
-172
-124
-78
-32
9
41
79
119
170
251
347
438
519
584
636
691
739
774
799
799
764
704
617
497
360
225
104
6
-69
-125
-162
-186
-207
-221
-224
-226
-233
-239
-240
-240
-239
-239
-246
-255
-262
-271
-283
-290
-295
-300
-303
-308
-315
-316
-312
-316
-318
-313
-311
-309
-298
-286
-291
-298
-289
-275
-271
-270
-266
-262
-258
-250
-239
-236
-238
-231
-219
-215
-214
-212
-214
-214
-196
-171
-160
-143
-112
-100
-119
-140
-153
-155
-135
-135
-150
-107
-105
-199
-169
26
537
1980
3609
3175
803
-701
-506
-194
-282
-242
-156
-189
-172
-123
-123
-104
-66
-49
-23
13
38
69
105
133
162
205
255
310
371
431
487
532
552
549
542
520
454
346
224
104
-7
-103
-185
-245
-270
-274
-279
-279
-265
-248
-239
-234
-224
-210
-197
-194
-202
-206
-201
-201
-207
-210
-210
-213
-216
-218
-220
-219
-213
-209
-207
-202
-196
-195
-197
-196
-190
-182
-175
-176
-178
-174
-168
-166
-166
-159
-151
-149
-149
-150
-157
-162
-152
-131
-115
-102
-78
-61
-74
-97
-113
-122
-109
-101
-122
-97
-68
-144
-163
-27
313
1469
3251
3515
1442
-494
-621
-209
-243
-260
-156
-173
-182
-127
-118
-115
-79
-56
-42
-16
9
36
71
109
145
185
228
279
337
399
455
500
527
534
519
485
425
331
210
80
-40
-139
-215
-270
-307
-326
-329
-324
-316
-305
-292
-281
-272
-260
-251
-247
-245
-245
-248
-250
-250
-250
-250
-252
-254
-252
-247
-245
-244
-243
-240
-235
-230
-229
-226
-216
-208
-207
-205
-198
-193
-191
-186
-180
-175
-169
-166
-162
-152
-148
-158
-170
-164
-140
-120
-113
-99
-68
-58
-79
-102
-120
-121
-94
-95
-111
-76
-97
-191
-140
78
726
2361
3869
3056
603
-662
-384
-180
-307
-256
-193
-230
-197
-145
-140
-115
-77
-60
-38
-3
30
60
89
117
152
194
242
295
351
408
465
509
523
518
507
474
402
294
170
50
-56
-147
-219
-263
-284
-296
-306
-303
-292
-283
-275
-261
-251
-244
-237
-230
-223
-218
-219
-225
-226
-223
-223
-227
-229
-228
-226
-222
-218
-215
-215
-212
-204
-197
-192
-189
-183
-179
-176
-173
-167
-161
-154
-149
-145
-139
-133
-129
-125
-121
-120
-116
-111
-107
-109
-119
-127
-112
-84
-71
-62
-34
-12
-32
-61
-75
-82
-68
-59
-82
-59
-28
-115
-149
1
350
1512
3407
3847
1772
-346
-596
-200
-254
-298
-193
-212
-226
-168
-157
-157
-124
-108
-97
-64
-34
-12
17
52
89
130
171
214
269
333
392
434
462
474
471
454
408
321
208
87
-31
-133
-211
-269
-311
-332
-337
-333
-323
-313
-309
-302
-289
-280
-278
-276
-265
-253
-251
-256
-262
-261
-258
-257
-260
-260
-258
-254
-252
-250
-248
-247
-246
-245
-242
-240
-234
-221
-207
-203
-203
-200
-196
-193
-184
-173
-164
-156
-149
-146
-147
-151
-155
-144
-119
-104
-93
-63
-38
-50
-72
-82
-89
-73
-53
-78
-74
-33
-88
-129
-3
287
1256
2995
3614
1843
-252
-618
-190
-174
-226
-116
-106
-129
-88
-71
-62
-24
-2
8
35
62
87
119
154
191
233
276
326
388
446
493
534
561
562
546
517
458
359
238
114
-4
-109
-196
-258
-296
-315
-320
-316
-308
-301
-291
-278
-266
-259
-255
-249
-246
-250
-256
-261
-266
-271
-274
-276
-279
-281
-280
-280
-280
-275
-269
-268
-271
-268
-261
-254
-246
-240
-237
-230
-222
-217
-214
-210
-204
-200
-205
-211
-199
-173
-155
-140
-111
-90
-108
-133
-146
-155
-144
-131
-150
-132
-104
-185
-233
-95
291
1502
3386
3803
1767
-305
-565
-203
-273
-320
-214
-224
-235
-181
-172
-167
-129
-109
-96
-64
-37
-15
17
55
93
133
181
236
296
357
415
462
491
501
491
461
401
303
180
60
-45
-135
-205
-255
-287
-301
-303
-299
-291
-279
-268
-257
-245
-231
-220
-212
-207
-203
-202
-202
-204
-206
-210
-211
-211
-214
-215
-212
-209
-210
-209
-203
-198
-197
-197
-193
-183
-175
-172
-167
-160
-155
-152
-150
-147
-140
-133
-130
-129
-134
-143
-136
-110
-91
-83
-60
-32
-41
-74
-89
-96
-94
-77
-87
-96
-54
-86
-180
-123
112
875
2623
3965
2855
405
-643
-315
-176
-291
-212
-163
-204
-170
-136
-140
-114
-84
-76
-56
-26
0
29
61
95
135
180
229
285
343
399
450
491
509
508
491
447
367
256
133
17
-81
-164
-230
-271
-291
-298
-298
-294
-286
-275
-264
-255
-248
-244
-241
-238
-235
-233
-231
-233
-237
-240
-241
-240
-242
-244
-244
-242
-238
-235
-231
-230
-229
-227
-223
-218
-213
-211
-208
-202
-197
-192
-187
-183
-181
-178
-175
-171
-166
-163
-162
-159
-154
-151
-156
-165
-163
-141
-120
-112
-93
-66
-77
-111
-124
-128
-127
-111
-120
-128
-89
-120
-208
-144
95
852
2552
3802
2645
247
-731
-379
-226
-316
-230
-186
-222
-183
-149
-153
-129
-101
-88
-61
-31
-11
19
57
90
127
174
223
274
331
387
435
472
493
495
481
446
377
277
164
55
-46
-129
-190
-227
-245
-248
-245
-239
-225
-208
-198
-190
-179
-170
-163
-154
-150
-152
-150
-145
-146
-147
-143
-140
-139
-136
-132
-125
-115
-110
-106
-101
-93
-86
-81
-76
-69
-64
-61
-55
-46
-40
-37
-31
-22
-16
-12
-8
-6
-2
4
9
10
11
18
22
11
6
22
