# session 11
-45
-68
27
40
-239
-605
-772
-819
-884
-923
-942
-972
-914
-716
-450
-215
-100
-105
-121
-104
-120
-183
-230
-248
-267
-287
-301
-309
-318
-333
-356
-375
-383
-389
-399
-406
-405
-402
-399
-388
-374
-364
-355
-340
-315
-289
-270
-253
-226
-201
-196
-197
-182
-156
-134
-113
-95
-81
-67
-49
-26
-4
15
33
51
61
65
75
96
122
148
173
198
214
210
194
176
170
181
184
182
213
226
172
160
247
622
1721
2993
2809
1136
-42
73
405
411
427
484
445
389
331
238
163
131
121
137
176
219
268
325
376
409
442
485
526
551
574
599
615
622
619
599
553
478
371
238
101
-27
-137
-209
-246
-292
-367
-427
-438
-413
-390
-385
-382
-363
-341
-335
-333
-328
-335
-360
-392
-423
-459
-498
-539
-580
-623
-668
-703
-724
-737
-744
-751
-760
-771
-781
-788
-785
-769
-754
-750
-743
-716
-680
-658
-652
-651
-652
-658
-664
-666
-662
-655
-655
-661
-666
-665
-657
-656
-663
-652
-611
-558
-487
-391
-322
-319
-326
-300
-296
-340
-383
-404
-415
-414
-422
-431
-398
-406
-506
-524
-362
149
1376
2641
2340
703
-226
52
394
523
770
939
944
949
890
790
722
672
1016
1952
2682
2594
2183
1935
1744
1573
1527
1531
1480
1385
1290
1222
1167
1101
1022
940
850
747
609
429
238
59
-100
-179
-147
-107
-168
-274
-328
-355
-392
-393
-355
-318
-237
-87
2
-45
-123
-158
-191
-238
-274
-307
-347
-381
-403
-419
-432
-443
-451
-450
-445
-443
-441
-432
-422
-411
-396
-379
-368
-357
-340
-320
-304
-293
-283
-273
-265
-258
-247
-234
-222
-215
-211
-203
-189
-176
-173
-174
-170
-165
-167
-173
-175
-179
-186
-184
-172
-163
-156
-140
-124
-131
-157
-186
-202
-199
-201
-221
-203
-178
-235
-288
-235
10
859
2176
2495
1142
-272
-452
-154
-165
-240
-223
-257
-330
-424
-554
-636
-646
-636
-609
-560
-513
-469
-421
-379
-340
-293
-249
-215
-184
-147
-110
-84
-66
-59
-72
-101
-147
-233
-361
-494
-613
-716
-790
-819
-828
-853
-883
-857
-754
-645
-579
-527
-467
-435
-441
-455
-473
-504
-538
-567
-586
-592
-595
-598
-596
-591
-584
-568
-546
-535
-531
-518
-498
-478
-459
-438
-409
-370
-335
-305
-269
-226
-184
-141
-97
-61
-32
5
50
95
138
180
222
264
303
336
365
395
440
505
566
618
671
722
750
762
771
786
827
868
893
952
1008
987
996
1136
1539
2650
4114
4234
2598
1195
1187
1538
1510
1460
1505
1476
1419
1376
1328
1322
1366
1428
1502
1580
1646
1704
1756
1795
1821
1858
1929
2009
2066
2099
2128
2150
2159
2156
2137
2081
1979
1838
1665
1480
1309
1164
1053
996
971
908
811
752
749
761
783
817
821
810
870
975
976
825
633
474
328
181
37
-110
-261
-406
-545
-678
-805
-928
-1048
-1168
-1297
-1425
-1528
-1619
-1726
-1849
-1977
-2114
-2258
-2394
-2513
-2626
-2747
-2873
-2998
-3128
-3266
-3410
-3538
-3599
-3587
-3616
-3744
-3851
-3890
-3993
-4131
-4133
-4082
-4158
-4274
-4342
-4476
-4688
-4881
-5048
-5179
-5269
-5410
-5613
-5838
-6072
-6148
-5983
-5906
-6179
-6616
-6960
-7188
-7249
-6715
-5551
-5082
-6348
-8096
-8735
-8686
-8848
-9071
-9168
-9302
-9457
-9619
-9801
-9862
-9924
-10077
-10030
-10028
-10314
-10140
-9872
-10255
-9324
-7094
-6156
-1456
12771
26749
29314
26301
25802
25706
24317
23595
23185
22274
21589
21096
20397
19775
19270
18697
18156
17681
17190
16723
16299
15876
15470
15097
14735
14390
14066
13747
13452
13173
12880
12619
12402
12136
11895
11728
11167
9742
7768
5848
4119
2475
936
-474
-1782
-2987
-4083
-5091
-6016
-6854
-7600
-8261
-8852
-9386
-9863
-10280
-10642
-10951
-11203
-11398
-11541
-11642
-11708
-11743
-11744
-11717
-11674
-11615
-11529
-11411
-11268
-11106
-10923
-10716
-10489
-10245
-9989
-9723
-9442
-9145
-8836
-8525
-8211
-7889
-7554
-7205
-6844
-6481
-6128
-5781
-5436
-5093
-4754
-4417
-4083
-3748
-3416
-3105
-2794
-2459
-2094
-1646
-1127
-744
-617
-525
-276
18
248
492
810
1168
1488
1664
1659
1566
1466
1333
1159
1010
917
840
766
721
730
791
884
992
1109
1231
1355
1492
1642
1791
1937
2085
2218
2316
2380
2419
2441
2457
2484
2536
2597
2639
2657
2678
2735
2856
3020
3171
3300
3430
3532
3573
3567
3536
3493
3452
3416
3366
3300
3233
3166
3095
3017
2930
2832
2736
2652
2569
2483
2406
2344
2286
2227
2175
2134
2096
2057
2013
1968
1921
1870
1805
1732
1660
1587
1509
1435
1365
1292
1210
1129
1053
979
904
830
755
679
605
535
468
399
323
245
179
126
76
29
-7
-43
-99
-171
-248
-316
-364
-416
-485
-528
-573
-701
-971
-1677
-2800
-3143
-1989
-1037
-1839
-3067
-3112
-2585
-2402
-2372
-2296
-2278
-2272
-2251
-2267
-2269
-2226
-2171
-2093
-1949
-1734
-1472
-1216
-1002
-816
-652
-525
-434
-372
-321
-268
-221
-194
-179
-176
-195
-236
-299
-386
-485
-582
-670
-740
-793
-836
-864
-860
-832
-806
-787
-762
-729
-698
-671
-641
-606
-571
-546
-526
-504
-483
-463
-436
-406
-381
-356
-326
-300
-279
-258
-232
-206
-182
-158
-135
-112
-85
-58
-35
-15
9
43
79
105
125
148
169
186
208
235
259
282
303
316
326
340
349
350
348
348
349
353
360
370
380
383
376
362
357
376
409
430
444
468
486
472
438
409
400
402
383
366
386
356
274
298
475
1079
2481
3678
2994
1057
37
177
267
120
117
138
84
66
66
52
67
95
107
115
131
154
179
202
227
262
301
340
379
417
457
502
540
565
577
567
533
471
373
243
111
-3
-104
-191
-255
-303
-347
-383
-400
-400
-400
-406
-409
-405
-403
-407
-408
-405
-406
-411
-412
-412
-415
-418
-421
-423
-422
-420
-418
-414
-407
-404
-406
-403
-397
-394
-395
-395
-390
-380
-363
-340
-321
-310
-296
-277
-262
-254
-240
-220
-204
-191
-174
-160
-153
-145
-133
-122
-113
-100
-86
-73
-62
-51
-38
-21
-3
12
26
39
42
38
44
67
88
104
132
161
151
104
55
21
15
19
7
30
78
35
-22
58
340
1218
2708
3310
1987
290
-108
155
113
11
75
96
77
98
108
117
153
174
176
182
186
188
195
210
237
274
294
290
291
313
339
363
399
442
462
428
313
121
-97
-267
-373
-467
-574
-660
-720
-793
-863
-867
-787
-636
-464
-355
-328
-303
-256
-251
-300
-340
-342
-348
-413
-517
-605
-681
-757
-791
-799
-857
-953
-1027
-1069
-1088
-1127
-1229
-1342
-1357
-1223
-998
-829
-782
-757
-667
-544
-447
-383
-326
-251
-161
-65
59
222
391
532
633
702
747
780
806
833
866
900
923
929
920
904
879
846
810
770
727
688
652
608
562
530
506
480
459
446
420
369
310
274
256
221
191
199
169
93
101
219
648
1721
2685
2144
529
-345
-173
22
-32
-35
-18
-58
-108
-189
-284
-318
-308
-292
-259
-211
-162
-116
-77
-42
-2
40
79
120
160
195
233
263
271
265
261
244
194
112
13
-91
-190
-273
-337
-396
-457
-494
-492
-471
-449
-421
-382
-338
-290
-250
-231
-231
-241
-258
-281
-303
-320
-328
-332
-334
-335
-339
-345
-348
-348
-354
-365
-370
-369
-368
-364
-357
-348
-338
-323
-308
-299
-293
-282
-268
-257
-245
-229
-216
-206
-198
-187
-175
-169
-169
-164
-139
-107
-90
-88
-90
-97
-104
-98
-79
-62
-43
-17
4
9
0
-17
-19
-5
-5
9
50
32
-9
54
254
938
2358
3284
2273
383
-355
-63
85
28
77
105
71
56
21
-27
-35
-31
-32
-16
22
65
110
150
188
229
277
331
386
441
498
550
589
612
616
600
570
519
428
302
172
50
-58
-134
-188
-252
-323
-371
-400
-426
-435
-430
-433
-436
-426
-413
-410
-413
-413
-420
-441
-465
-476
-476
-473
-470
-466
-466
-474
-481
-481
-482
-490
-495
-493
-491
-489
-473
-443
-409
-378
-353
-323
-286
-251
-224
-196
-168
-146
-131
-120
-99
-65
-27
7
44
72
84
80
61
48
64
70
59
96
110
36
42
202
657
1929
3439
3241
1241
-199
-150
101
-6
-15
58
33
24
50
50
71
117
146
174
218
268
307
331
353
381
408
446
506
569
623
679
727
751
763
765
741
681
589
471
353
254
161
75
9
-56
-142
-231
-288
-302
-294
-296
-307
-311
-315
-318
-325
-346
-345
-342
-393
-393
-367
-690
-1322
-1608
-1387
-1165
-1111
-1027
-919
-857
-794
-730
-691
-653
-611
-579
-544
-493
-439
-394
-357
-327
-307
-283
-251
-232
-229
-215
-181
-145
-104
-59
-42
-56
-75
-94
-94
-64
-59
-75
-43
-36
-86
-50
136
746
2128
3257
2478
503
-457
-220
-57
-158
-145
-119
-137
-85
-20
9
44
80
118
187
282
367
390
345
301
303
327
361
408
439
451
470
488
474
433
381
304
189
42
-118
-287
-458
-589
-661
-713
-765
-800
-828
-808
-628
-323
11
484
1098
1465
1360
1060
830
643
470
347
255
175
110
37
-47
-107
-140
-174
-206
-221
-229
-245
-257
-257
-257
-263
-265
-259
-253
-250
-251
-250
-247
-249
-249
-245
-241
-241
-240
-239
-239
-237
-237
-238
-234
-227
-224
-222
-222
-226
-230
-232
-229
-212
-186
-166
-149
-125
-117
-133
-152
-160
-153
-148
-156
-138
-103
-134
-172
-119
115
938
2279
2702
1396
-112
-393
-106
-101
-167
-122
-117
-121
-87
-73
-69
-47
-32
-16
22
67
107
148
196
245
298
354
406
459
518
575
621
656
680
690
681
641
563
457
337
218
110
19
-57
-125
-172
-185
-184
-188
-193
-193
-198
-200
-199
-206
-222
-236
-248
-265
-281
-283
-277
-274
-277
-282
-288
-291
-292
-295
-301
-310
-318
-319
-319
-322
-325
-328
-334
-337
-332
-325
-317
-308
-300
-295
-288
-278
-270
-266
-262
-256
-250
-248
-254
-259
-249
-226
-207
-189
-165
-157
-174
-196
-217
-229
-223
-230
-233
-203
-228
-307
-283
-105
545
2037
3241
2423
378
-594
-355
-224
-362
-351
-312
-346
-344
-329
-334
-322
-304
-292
-268
-236
-204
-169
-131
-91
-45
9
70
137
206
275
340
397
438
453
446
417
352
245
120
-1
-108
-198
-265
-309
-332
-339
-340
-332
-312
-286
-262
-239
-215
-191
-167
-152
-146
-136
-117
-98
-85
-72
-56
-41
-26
-7
14
36
57
78
96
116
143
170
195
221
253
284
313
343
376
408
438
469
497
527
561
596
625
652
682
712
745
786
824
848
870
897
918
936
977
1041
1098
1153
1216
1249
1247
1236
1203
1134
1020
847
706
616
395
101
-2
135
842
2309
3019
1469
-854
-1676
-1361
-1314
-1607
-1798
-1872
-1924
-1971
-1971
-1911
-1888
-1943
-1983
-1967
-1926
-1887
-1863
-1803
-1609
-1277
-910
-537
-114
274
514
644
678
587
564
808
1201
1519
1683
1734
1743
1683
1544
1419
1048
-66
-1633
-2695
-2904
-2671
-2374
-2188
-2153
-2149
-2154
-2368
-2895
-3566
-4051
-4030
-3492
-2854
-2469
-2228
-1922
-1560
-1208
-904
-673
-450
-175
87
304
541
792
997
1163
1313
1446
1569
1682
1773
1848
1920
1981
2025
2059
2084
2095
2105
2120
2129
2124
2110
2100
2097
2081
2033
1993
1986
1990
1989
1976
1925
1848
1726
1414
923
554
414
287
151
74
-176
-580
-717
-429
572
2543
3943
2880
672
-106
286
374
250
337
367
286
238
141
-6
-121
-236
-370
-566
-956
-1502
-2071
-2658
-3107
-3160
-2955
-2768
-2528
-2151
-1779
-1456
-1124
-823
-585
-394
-282
-259
-286
-345
-419
-488
-589
-735
-844
-863
-833
-777
-700
-632
-560
-457
-368
-322
-266
-179
-108
-68
-27
21
52
62
80
112
128
129
140
158
174
192
207
211
214
219
218
214
205
176
145
139
149
146
132
129
140
156
169
175
177
182
194
198
191
189
193
184
172
171
170
158
147
138
123
106
100
95
86
92
123
154
175
206
242
251
231
206
199
224
235
212
232
257
178
146
272
674
1977
3843
4051
1932
34
-106
190
76
56
159
134
125
153
119
91
86
72
60
2
-37
-19
-342
-1187
-1864
-1869
-1616
-1483
-1314
-1045
-813
-632
-464
-331
-235
-155
-101
-94
-135
-199
-258
-314
-367
-395
-388
-370
-348
-309
-247
-181
-121
-64
-8
38
77
117
157
193
227
255
279
313
347
366
379
403
428
445
453
452
444
432
404
337
245
154
69
-8
-78
-188
-338
-424
-416
-426
-526
-691
-876
-1014
-1038
-974
-917
-889
-852
-850
-923
-977
-921
-813
-709
-595
-470
-356
-248
-146
-59
11
62
98
142
199
250
299
349
386
402
407
408
429
467
464
452
484
439
308
300
467
1108
2661
3963
3088
815
-359
-238
-186
-308
-186
-54
-34
29
97
125
148
137
98
92
99
96
99
107
120
155
211
280
354
410
424
404
378
373
387
387
343
255
133
-2
-124
-229
-312
-364
-392
-408
-406
-398
-395
-381
-366
-382
-412
-423
-429
-434
-421
-401
-396
-397
-394
-382
-357
-330
-304
-258
-204
-167
-133
-85
-42
-13
13
41
65
87
102
104
106
120
135
136
137
146
148
138
134
143
144
136
129
117
106
101
92
73
55
34
-6
-57
-109
-198
-338
-474
-565
-626
-684
-770
-883
-942
-898
-820
-771
-734
-696
-646
-578
-528
-482
-390
-349
-384
-316
-108
470
1879
3187
2554
518
-554
-324
-133
-229
-188
-125
-132
-90
-52
-55
-29
8
20
39
76
117
162
208
254
310
379
453
523
591
659
721
769
807
828
817
774
710
616
486
349
232
132
44
-19
-55
-76
-86
-86
-85
-86
-84
-87
-97
-104
-105
-119
-145
-158
-159
-174
-198
-223
-274
-354
-416
-432
-422
-422
-449
-486
-509
-518
-510
-483
-459
-447
-424
-393
-370
-341
-303
-280
-267
-243
-215
-195
-174
-145
-114
-93
-78
-47
1
37
64
112
152
142
98
52
24
23
17
12
71
118
86
136
315
796
2153
3733
3495
1409
-109
-90
245
148
