# session 5
1517
73
5103
-207
-21856
-37388
-35751
-31408
-31666
-30781
-28658
-27947
-27030
-25524
-24590
-23682
-22498
-21545
-20655
-19647
-18735
-17887
-17004
-16170
-15380
-14587
-13826
-13103
-12390
-11705
-11060
-10433
-9818
-9226
-8659
-8112
-7588
-7089
-6611
-6154
-5722
-5312
-4917
-4544
-4197
-3868
-3550
-3255
-2983
-2729
-2495
-2282
-2082
-1899
-1737
-1591
-1465
-1354
-1251
-1176
-1112
-1045
-1025
-1016
-952
-963
-1012
-901
-959
-1190
-216
2512
5015
5493
4299
2253
-137
-1970
-2710
-2887
-3089
-3327
-3526
-3737
-3949
-4151
-4374
-4570
-4736
-4944
-5011
-4562
-3608
-2496
-1318
5
1319
2493
3661
4882
6008
6904
7540
8007
8372
8480
8252
7958
7736
7421
7131
7270
7885
8624
9191
9540
9755
9886
9935
9967
10022
10101
10399
10975
11198
10552
9637
9217
9086
8780
8369
8047
7771
7454
7088
6732
6417
6078
5665
5218
4781
4386
4075
3821
3539
3231
2951
2671
2352
2013
1661
1277
890
545
222
-126
-500
-862
-1202
-1520
-1799
-2048
-2284
-2484
-2636
-2784
-2929
-2991
-2984
-3071
-3247
-3135
-2565
-2039
-2053
-2409
-2703
-2895
-3089
-3267
-3385
-3451
-3497
-3553
-3618
-3672
-3720
-3785
-3870
-3954
-4006
-4019
-4013
-4014
-4016
-4011
-4048
-4147
-4247
-4330
-4435
-4520
-4492
-4399
-4354
-4339
-4280
-4182
-4083
-3974
-3834
-3698
-3623
-3555
-3414
-3294
-3234
-3084
-2810
-2249
-1081
-40
-500
-2041
-2916
-2835
-2701
-2683
-2517
-2301
-2116
-1905
-1697
-1504
-1297
-1099
-924
-754
-592
-443
-298
-168
-72
3
83
160
222
296
403
528
659
793
910
977
982
927
840
757
686
630
601
597
615
620
509
307
259
462
729
943
1155
1374
1553
1669
1740
1807
1818
1641
1340
1146
1113
1141
1191
1253
1293
1322
1374
1449
1542
1640
1696
1705
1737
1805
1873
1947
2025
2060
2053
2036
2008
1972
1959
1973
1983
1965
1934
1908
1866
1795
1734
1695
1642
1551
1456
1420
1389
1271
1189
1259
1531
2438
3904
4321
2798
1062
657
822
695
571
589
531
450
416
354
275
218
160
107
71
32
-11
-45
-67
-82
-98
-109
-99
-80
-77
-103
-142
-179
-227
-304
-414
-564
-763
-991
-1209
-1399
-1559
-1699
-1832
-1954
-2044
-2079
-2070
-2081
-2157
-2242
-2278
-2302
-2343
-2340
-2257
-2129
-1992
-1868
-1754
-1627
-1493
-1381
-1286
-1194
-1115
-1048
-979
-909
-847
-784
-718
-655
-598
-546
-496
-447
-394
-339
-287
-240
-193
-147
-110
-86
-71
-49
-5
48
90
128
179
225
251
276
301
318
344
371
385
446
524
526
566
746
1131
2189
3757
4134
2594
1024
817
1049
943
895
1000
1002
979
1018
1033
1008
956
864
771
722
708
700
682
657
643
662
690
667
663
759
782
670
573
48
-1459
-3193
-4037
-4151
-4077
-3770
-3295
-2938
-2683
-2432
-2211
-2001
-1787
-1581
-1360
-1132
-944
-788
-640
-506
-379
-242
-128
-62
-25
4
14
17
47
121
235
339
387
436
483
326
-43
-273
-202
-54
27
100
188
264
330
387
438
492
551
607
661
713
764
811
856
906
955
985
1002
1020
1031
1030
1028
1029
1037
1063
1099
1132
1169
1218
1261
1284
1301
1317
1304
1254
1193
1134
1084
1050
1008
969
976
968
924
969
1126
1550
2599
3661
3331
1829
887
891
883
666
626
663
603
532
464
340
162
-82
-410
-745
-986
-1193
-1479
-1717
-1873
-2354
-3236
-3827
-3776
-3545
-3423
-3266
-3064
-2926
-2875
-2876
-2823
-2657
-2463
-2293
-2102
-1914
-1775
-1643
-1481
-1307
-1111
-866
-617
-422
-277
-147
-21
86
173
247
307
356
397
439
481
514
534
549
564
581
598
618
645
671
688
700
713
722
724
720
712
696
679
669
669
673
669
654
637
623
613
609
606
599
590
579
566
554
543
530
515
498
479
460
442
428
417
404
384
370
363
351
336
325
305
268
228
193
167
158
143
125
129
111
61
77
176
503
1386
2315
2065
773
-64
-28
46
-115
-184
-142
-127
-131
-139
-154
-177
-243
-344
-418
-440
-428
-396
-351
-299
-237
-160
-82
-15
34
71
99
121
133
134
124
103
62
2
-64
-132
-199
-251
-288
-324
-335
-301
-272
-287
-301
-274
-247
-263
-300
-322
-328
-339
-353
-366
-377
-385
-392
-406
-434
-463
-477
-480
-484
-489
-492
-494
-498
-507
-515
-515
-508
-503
-498
-487
-472
-457
-440
-423
-408
-393
-381
-369
-353
-332
-308
-284
-262
-244
-225
-204
-184
-173
-169
-157
-130
-100
-77
-51
-20
-4
-7
-19
-17
14
45
48
72
104
68
53
150
398
1180
2481
2946
1757
336
26
195
81
-36
28
69
70
94
111
119
107
40
-45
-91
-109
-123
-127
-111
-87
-60
-16
55
135
208
272
327
365
383
387
377
345
294
233
167
106
55
21
16
25
31
60
141
230
283
320
361
383
386
404
441
465
471
484
504
513
522
541
549
553
569
561
520
489
433
347
308
207
-99
-376
-367
-244
-199
-156
-110
-185
-345
-441
-435
-393
-356
-315
-268
-238
-244
-278
-330
-410
-505
-558
-539
-485
-434
-377
-299
-209
-136
-88
-52
-25
-9
15
65
115
133
129
126
144
188
226
244
277
297
273
308
454
810
1667
2659
2602
1415
515
467
458
170
25
93
143
137
101
18
-102
-306
-711
-1274
-1744
-2025
-2288
-2590
-2778
-2816
-2809
-2781
-2684
-2531
-2356
-2171
-1971
-1753
-1548
-1388
-1246
-1107
-1018
-993
-963
-884
-771
-642
-494
-340
-190
-23
171
351
475
552
627
715
790
846
899
939
961
983
1012
1033
1038
1039
1041
1044
1046
1049
1052
1050
1042
1031
1018
1000
972
943
914
882
853
830
807
777
742
709
681
657
634
610
589
573
559
541
517
492
470
449
428
407
382
351
316
286
258
221
181
153
136
119
98
81
66
44
15
-17
-48
-60
-63
-83
-93
-95
-144
-179
-123
30
561
1553
2024
1181
-8
-355
-221
-300
-447
-442
-404
-398
-401
-419
-433
-457
-531
-625
-676
-676
-643
-590
-529
-462
-385
-302
-220
-147
-94
-56
-22
7
22
20
4
-25
-70
-134
-207
-274
-331
-368
-385
-397
-396
-347
-278
-259
-277
-259
-216
-217
-261
-285
-271
-256
-249
-239
-225
-215
-206
-199
-196
-193
-185
-177
-176
-180
-183
-183
-181
-178
-176
-176
-178
-173
-160
-144
-130
-114
-101
-94
-92
-90
-89
-88
-88
-83
-76
-73
-72
-68
-58
-47
-47
-59
-66
-58
-46
-37
-20
-4
-6
-23
-43
-61
-61
-53
-59
-54
-38
-78
-112
-52
131
790
2029
2646
1633
152
-304
-131
-190
-332
-306
-265
-268
-263
-264
-268
-284
-348
-426
-470
-489
-505
-511
-500
-474
-433
-376
-305
-231
-167
-113
-59
-6
36
66
84
81
52
2
-53
-101
-139
-162
-163
-150
-135
-102
-40
18
49
80
125
159
173
189
218
243
253
266
286
303
317
336
357
377
398
417
431
439
441
439
431
411
385
365
349
331
320
320
323
327
328
327
332
336
337
360
407
429
411
394
388
378
371
363
339
305
274
242
206
180
170
160
142
131
123
94
49
7
-23
-30
-29
-52
-59
-36
-60
-76
23
258
942
2170
2789
1835
438
14
137
10
-144
-87
-43
-83
-122
-167
-224
-297
-453
-696
-909
-997
-990
-963
-924
-844
-723
-584
-447
-322
-214
-123
-39
37
99
140
166
176
166
135
89
40
-9
-58
-84
-76
-57
-39
15
111
199
251
278
297
309
307
294
278
250
212
182
159
127
89
50
8
-33
-74
-118
-160
-205
-255
-303
-345
-390
-443
-499
-558
-621
-681
-732
-778
-825
-880
-938
-989
-1035
-1082
-1123
-1157
-1192
-1233
-1275
-1311
-1341
-1369
-1404
-1442
-1469
-1481
-1489
-1500
-1504
-1503
-1515
-1542
-1566
-1572
-1564
-1568
-1577
-1554
-1551
-1594
-1560
-1430
-1111
-169
1050
1060
-380
-1543
-1566
-1346
-1405
-1407
-1293
-1238
-1208
-1153
-1097
-1041
-997
-967
-917
-836
-734
-615
-484
-352
-212
-54
112
277
437
590
739
876
993
1090
1174
1240
1281
1302
1311
1317
1329
1356
1406
1478
1560
1658
1784
1915
2032
2154
2294
2425
2531
2635
2757
2885
3005
3117
3228
3341
3452
3559
3668
3757
3808
3858
3942
4050
4160
4272
4384
4501
4629
4755
4866
4967
5065
5159
5248
5332
5407
5472
5538
5618
5705
5785
5857
5930
6000
6058
6110
6159
6200
6221
6225
6227
6241
6264
6282
6279
6256
6211
6099
5897
5658
5436
5250
5041
4620
4107
3836
3164
1037
-1927
-4365
-6079
-7610
-10883
-18119
-26408
-29854
-28652
-27382
-26974
-26112
-25195
-24606
-23881
-23108
-22500
-21867
-21198
-20620
-20047
-19424
-18868
-18315
-17407
-16018
-14489
-13135
-11932
-10745
-9495
-8173
-6854
-5616
-4470
-3367
-2239
-1041
214
1478
2723
3945
5157
6370
7585
8764
9797
10623
11352
12118
12863
13434
13822
14121
14369
14536
14606
14600
14540
14393
14100
13702
13325
12991
12617
12185
11729
11220
10664
10179
9838
9564
9276
8973
8680
8411
8166
7908
7614
7295
6954
6583
6209
5844
5447
5057
4744
4384
3885
3425
2917
2074
1170
81
-2331
-5730
-7749
-7624
-7010
-6916
-6995
-6987
-6769
-6144
-5267
-4467
-3824
-3333
-3071
-2939
-2739
-2464
-1859
-537
652
274
-1124
-1768
-1545
-1454
-1582
-1575
-1514
-1501
-1479
-1460
-1456
-1459
-1500
-1572
-1635
-1681
-1708
-1710
-1693
-1654
-1593
-1521
-1442
-1359
-1275
-1188
-1097
-1022
-980
-963
-964
-989
-1044
-1117
-1192
-1259
-1317
-1367
-1400
-1412
-1412
-1394
-1357
-1326
-1314
-1294
-1261
-1237
-1217
-1180
-1134
-1092
-1048
-1002
-975
-973
-982
-1000
-1031
-1071
-1111
-1136
-1139
-1119
-1081
-1020
-940
-852
-766
-682
-605
-537
-472
-405
-337
-267
-202
-147
-100
-55
-11
29
53
58
48
33
26
41
81
133
180
214
236
266
318
373
414
454
497
524
533
532
531
551
579
585
614
651
612
591
704
984
1831
3275
3862
2589
923
441
602
521
309
127
-54
-138
-163
-222
-239
-183
-138
-120
-104
-87
-64
-37
-15
12
64
136
204
253
289
317
329
326
324
334
341
330
289
222
147
78
15
-33
-49
-40
-24
1
42
87
115
121
120
131
156
170
163
149
132
103
58
9
-34
-77
-119
-153
-177
-195
-194
-166
-125
-92
-71
-44
10
96
189
254
285
308
335
357
359
339
293
223
127
16
-73
-95
-41
73
209
328
418
497
571
632
671
690
710
733
746
757
762
698
542
389
312
297
309
311
308
317
275
184
162
276
803
2015
3006
2415
833
16
87
62
-160
-247
-278
-316
-289
-235
-173
-88
-46
-92
-170
-217
-203
-124
0
159
329
470
572
647
702
757
822
844
789
706
637
579
543
517
447
350
287
248
189
148
187
289
417
616
833
886
849
839
618
305
199
-236
-845
-753
-1889
-6307
-10460
-10514
-8834
-8320
-8032
-7398
-7117
-6741
-5850
-4988
-4314
-3629
-3041
-2581
-2102
-1616
-1180
-764
-357
24
364
657
915
1155
1378
1576
1733
1823
1855
1863
1859
1846
1861
1920
1994
2059
2118
2162
2173
2145
2096
2071
2091
2113
2095
2065
2066
2080
2079
2073
2053
2003
1951
1895
1800
1717
1705
1766
2073
2688
2997
2453
1595
1191
1083
837
571
534
665
802
865
858
842
836
772
596
336
77
-69
-52
57
148
181
196
240
269
207
62
-158
-492
-862
-1113
-1219
-1243
-1204
-1141
-1119
-1138
-1161
-1160
-1089
-939
-763
-581
-371
-182
-90
-88
-113
-125
-120
-120
-140
-149
-113
-30
90
234
376
505
630
756
874
960
970
847
524
-5
-596
-1035
-1210
-1163
-999
-790
-566
-340
-133
58
254
455
627
743
826
923
1040
1144
1234
1342
1459
1552
1621
1701
1831
1994
2119
2182
2199
2130
1997
1930
1912
1773
1528
1343
1243
1169
1166
1287
1481
1619
1555
1231
706
3
-982
-2122
-2817
-2880
-3252
-4537
-5806
-6286
-6546
-7030
-7384
-7500
-7619
-7674
-7395
-6734
-5899
-5147
-4536
-3965
-3423
-3009
-2688
-2281
-1768
-1301
-877
-460
-200
-73
180
514
747
989
1247
1328
1332
1405
1390
1291
1351
1510
1529
1471
1524
1641
1670
1648
1743
1936
2053
2108
2226
2334
2365
2436
2546
2530
2390
2239
2049
1734
1387
1234
1323
1407
1296
1118
1070
1183
1408
1657
1803
1850
1915
2015
2079
2103
2108
2084
2036
1967
1861
1722
1560
1398
1264
1150
1040
946
851
741
655
578
477
391
303
179
56
-218
-849
-1526
-1817
-1833
-1775
-1611
-1270
-412
844
1093
-303
-1712
-1864
-1512
-1386
-1289
-1171
-1149
-1116
-1054
-1032
-1014
-971
-908
-822
-746
-691
-624
-552
-499
-448
-385
-303
-197
-99
-32
36
114
163
190
231
270
280
256
177
47
-67
-131
-176
-213
-225
-218
-221
-243
-257
-242
-224
-225
-227
-223
-225
-225
-223
-245
-263
-245
-231
-248
-258
-249
-253
-288
-339
-379
-399
-423
-452
-448
-418
-407
-403
-363
-316
-295
-268
-226
-197
-185
-176
-172
-165
-131
-77
-32
-3
32
68
76
59
45
54
72
62
53
92
89
26
61
251
866
2286
3501
2776
738
-329
-133
34
-66
-27
38
8
5
27
28
37
43
35
39
55
65
76
89
101
126
177
226
257
305
380
434
444
438
432
410
352
252
124
-5
-127
-243
-340
-415
-474
-511
-526
-536
-546
-550
-552
-595
-705
-806
-808
-755
-728
-713
-689
-676
-671
-655
-639
-625
-602
-578
-563
-551
-542
-531
-518
-506
-486
-459
-451
-461
-459
-445
-446
-446
-422
-382
-338
-297
-273
-255
-213
-162
-130
-105
-76
-48
-2
59
100
127
173
218
234
234
240
272
320
333
344
412
432
374
424
623
1173
2551
3931
3432
1381
143
263
430
307
335
408
370
362
400
422
429
407
361
321
277
224
164
98
45
15
0
20
75
140
210
276
307
296
254
199
162
125
65
10
-37
-75
-45
-64
-340
-689
-725
-512
-352
-263
-144
-35
9
12
0
-12
-26
-66
-125
-146
-103
-45
10
84
154
185
206
259
334
404
464
510
546
578
600
605
600
596
588
572
545
509
467
422
370
308
234
149
54
-41
-120
-194
-279
-369
-466
-578
-680
-769
-873
-989
-1090
-1190
-1317
-1472
-1633
-1778
-1908
-2054
-2210
-2351
-2495
-2647
-2805
-2967
-2898
-2268
-1278
-360
