# session 7
-73
-43
-162
-50
391
679
651
544
445
425
547
932
2045
3436
3270
1322
-155
-162
62
-83
-147
-104
-129
-123
-74
-53
-37
-25
-34
-31
-13
0
14
35
57
84
127
180
234
286
338
387
431
464
480
482
475
441
366
274
188
104
23
-45
-90
-113
-115
-114
-119
-115
-96
-82
-80
-78
-77
-80
-81
-78
-82
-90
-96
-103
-112
-118
-120
-122
-120
-119
-125
-132
-130
-129
-134
-134
-124
-116
-119
-118
-111
-106
-98
-84
-77
-79
-76
-65
-56
-49
-45
-43
-37
-24
-20
-29
-34
-30
-33
-35
-18
0
10
32
62
69
47
14
1
26
38
15
38
60
-2
10
159
468
1453
2885
2975
1198
-361
-455
-143
-151
-151
-112
-176
-216
-240
-322
-364
-342
-332
-331
-317
-317
-329
-331
-336
-356
-381
-404
-431
-437
-389
-317
-269
-228
-174
-135
-130
-151
-198
-254
-293
-322
-351
-357
-329
-288
-246
-201
-164
-139
-113
-89
-90
-112
-127
-126
-121
-124
-130
-131
-127
-122
-118
-108
-92
-83
-77
-69
-63
-54
-33
-12
-5
0
13
22
29
43
55
62
74
94
110
116
118
122
133
141
141
138
138
135
126
117
110
97
63
20
4
10
2
-11
1
12
-2
-27
-51
-61
-47
-52
-67
-38
-49
-129
-105
75
677
2208
3692
3071
807
-490
-316
-143
-290
-267
-216
-281
-280
-237
-244
-245
-222
-222
-232
-225
-201
-165
-112
-47
16
76
144
217
288
360
427
481
508
503
483
448
374
261
142
30
-71
-155
-221
-268
-292
-300
-302
-297
-291
-289
-280
-263
-249
-246
-249
-247
-241
-238
-236
-233
-235
-240
-241
-237
-231
-228
-231
-231
-225
-224
-228
-223
-215
-212
-213
-213
-207
-199
-197
-198
-193
-188
-191
-192
-183
-175
-171
-167
-164
-161
-154
-145
-141
-138
-129
-124
-126
-125
-123
-126
-115
-93
-82
-68
-38
-26
-48
-67
-75
-79
-65
-64
-83
-52
-39
-115
-107
58
517
1820
3400
3213
1115
-417
-379
-114
-208
-192
-101
-124
-119
-74
-75
-67
-37
-37
-47
-39
-36
-43
-36
-10
15
42
82
133
191
248
289
310
318
321
316
287
223
135
40
-54
-140
-202
-237
-258
-270
-263
-243
-222
-201
-179
-160
-144
-122
-104
-94
-86
-79
-78
-75
-64
-57
-63
-68
-66
-63
-60
-55
-52
-52
-50
-47
-45
-43
-44
-48
-45
-37
-38
-43
-44
-39
-38
-43
-47
-46
-49
-57
-61
-61
-60
-54
-50
-54
-61
-64
-67
-70
-68
-61
-63
-75
-80
-80
-91
-96
-77
-61
-57
-36
-16
-31
-62
-87
-109
-108
-99
-121
-122
-98
-147
-171
-64
151
906
2350
2962
1555
-291
-739
-387
-303
-332
-260
-249
-261
-226
-211
-207
-186
-172
-160
-135
-112
-91
-60
-24
10
45
87
142
203
261
316
362
385
385
371
340
280
191
87
-19
-119
-214
-292
-343
-368
-380
-384
-379
-371
-361
-348
-330
-312
-299
-291
-291
-298
-302
-294
-285
-283
-281
-276
-273
-268
-257
-247
-238
-227
-217
-211
-200
-177
-155
-146
-139
-125
-113
-104
-89
-69
-57
-49
-37
-24
-11
4
21
36
54
72
82
88
105
127
139
142
144
137
129
143
171
187
199
228
249
235
210
189
172
174
164
124
136
163
91
64
209
584
1732
3484
3833
1916
11
-219
99
19
-76
-84
-127
-165
-435
-871
-920
-613
-427
-381
-313
-284
-279
-218
-162
-149
-134
-113
-94
-55
-9
17
34
46
49
58
63
31
-31
-98
-152
-184
-202
-224
-248
-248
-217
-183
-160
-124
-54
21
67
96
135
173
192
212
251
299
344
381
404
434
489
543
574
603
649
706
758
794
813
830
852
875
898
917
928
933
937
917
859
782
639
353
46
-96
-127
-188
-265
-417
-800
-1241
-1457
-1692
-2257
-2756
-2761
-2561
-2522
-2653
-2945
-3282
-3403
-3361
-3342
-3217
-2871
-2468
-2118
-1770
-1421
-1083
-738
-447
-310
-375
-657
-1006
-1104
-853
-497
-186
74
217
327
545
900
1797
3356
4137
3001
1389
996
1268
1251
1169
1243
1274
1266
1293
1311
1336
1367
1345
1325
1376
1437
1453
1449
1440
1436
1455
1461
1395
1285
1204
1159
1110
1031
920
783
621
457
314
188
76
-1
-49
-97
-137
-144
-139
-157
-194
-213
-198
-172
-163
-180
-212
-242
-260
-268
-254
-230
-220
-220
-211
-197
-194
-199
-210
-220
-228
-243
-263
-275
-282
-295
-305
-310
-326
-344
-350
-351
-358
-365
-365
-363
-367
-376
-379
-375
-374
-379
-382
-380
-378
-377
-379
-382
-384
-383
-386
-397
-406
-404
-395
-387
-375
-350
-326
-333
-359
-376
-394
-399
-378
-383
-401
-373
-379
-432
-380
-205
360
1718
2848
2060
77
-864
-602
-414
-480
-421
-363
-378
-347
-306
-291
-260
-223
-199
-168
-132
-93
-48
-5
39
92
150
217
295
373
443
506
553
576
579
559
507
422
314
196
83
-15
-97
-158
-195
-212
-213
-203
-190
-179
-163
-144
-125
-106
-90
-77
-66
-60
-58
-53
-46
-42
-40
-36
-32
-26
-17
-11
-8
0
11
21
29
36
44
56
70
80
87
95
103
108
109
112
117
122
121
117
116
120
124
123
110
89
80
83
69
36
3
-34
-73
-92
-98
-100
-85
-62
-72
-101
-111
-106
-91
-76
-83
-67
-23
-77
-170
-123
110
954
2664
3680
2318
-53
-1034
-808
-686
-710
-572
-452
-389
-292
-209
-144
-53
27
69
111
164
198
219
243
244
255
327
302
32
-254
-276
-130
-2
109
216
274
275
223
123
8
-83
-141
-178
-215
-249
-265
-272
-288
-298
-273
-223
-181
-160
-148
-131
-104
-78
-69
-73
-81
-88
-99
-108
-113
-122
-135
-142
-154
-178
-192
-187
-186
-193
-186
-169
-159
-152
-141
-133
-129
-123
-118
-125
-139
-148
-145
-129
-109
-93
-82
-74
-66
-68
-84
-106
-122
-136
-148
-159
-173
-186
-189
-187
-186
-180
-171
-167
-163
-151
-145
-153
-151
-124
-87
-73
-89
-113
-144
-190
-224
-230
-217
-187
-169
-172
-132
-104
-160
-142
25
450
1668
3244
3233
1306
-243
-284
-35
-153
-186
-107
-120
-122
-83
-76
-66
-57
-103
-171
-218
-253
-272
-260
-232
-203
-162
-101
-25
69
173
263
333
392
435
466
497
509
480
429
382
333
281
237
202
181
176
178
184
207
234
246
256
276
291
295
300
306
302
288
274
259
236
212
201
198
187
169
151
131
110
93
79
65
52
26
-29
-81
-101
-127
-192
-258
-305
-362
-428
-470
-485
-499
-522
-538
-547
-562
-577
-581
-594
-621
-641
-658
-697
-739
-769
-807
-844
-849
-852
-901
-970
-1000
-967
-889
-820
-784
-748
-700
-666
-639
-594
-545
-491
-416
-362
-329
-251
-207
-244
-190
13
600
2103
3669
3239
1067
-287
-149
54
-81
-49
52
35
56
119
141
164
195
197
198
224
257
286
316
346
374
403
435
482
546
603
638
662
684
698
696
675
633
569
488
401
324
262
215
187
182
184
188
205
235
261
278
298
318
335
354
368
376
387
400
410
415
418
419
418
413
403
394
384
364
337
311
279
239
189
128
71
21
-66
-189
-262
-267
-295
-371
-437
-486
-551
-615
-652
-671
-679
-683
-691
-686
-674
-695
-748
-783
-788
-791
-801
-813
-815
-798
-784
-788
-790
-797
-846
-919
-981
-1022
-1033
-1037
-1081
-1125
-1097
-1022
-948
-865
-783
-719
-662
-601
-527
-459
-416
-341
-250
-247
-221
-54
277
1215
2751
3264
1805
121
-178
130
125
88
187
223
241
298
334
369
416
429
428
444
468
491
518
546
575
615
668
727
784
838
891
938
968
978
969
944
897
821
716
597
482
382
292
208
148
117
92
68
61
62
51
35
26
18
5
-11
-29
-52
-75
-96
-112
-130
-148
-162
-175
-194
-212
-221
-233
-250
-255
-250
-254
-264
-267
-266
-268
-271
-270
-268
-270
-271
-269
-271
-277
-278
-276
-276
-275
-272
-271
-272
-268
-263
-264
-268
-265
-257
-252
-250
-246
-244
-243
-243
-246
-254
-263
-252
-205
-162
-159
-174
-176
-187
-212
-227
-237
-242
-231
-235
-243
-206
-210
-279
-241
-81
400
1710
3042
2515
468
-729
-546
-305
-373
-339
-277
-294
-273
-238
-234
-210
-178
-167
-151
-124
-89
-43
3
41
87
147
210
276
352
430
494
536
562
576
568
529
456
353
232
107
-10
-106
-172
-217
-249
-258
-247
-236
-229
-216
-194
-176
-165
-153
-141
-138
-139
-140
-141
-139
-135
-134
-136
-137
-135
-134
-131
-124
-116
-107
-98
-92
-89
-83
-76
-72
-64
-51
-42
-40
-37
-29
-16
-3
6
7
6
9
19
29
39
49
55
61
71
82
88
87
86
84
74
73
108
155
164
148
147
139
109
80
49
21
21
11
-17
8
11
-82
-80
80
513
1783
3357
3218
1185
-405
-620
-596
-709
-600
-480
-491
-441
-366
-341
-294
-254
-275
-296
-280
-261
-269
-301
-317
-285
-224
-152
-69
13
87
158
219
259
286
297
282
232
147
45
-48
-123
-187
-241
-279
-294
-297
-293
-280
-262
-245
-222
-195
-175
-161
-142
-127
-125
-127
-131
-137
-143
-145
-145
-151
-163
-175
-174
-163
-149
-137
-129
-122
-110
-96
-88
-84
-77
-71
-68
-63
-55
-49
-47
-42
-36
-35
-36
-29
-22
-20
-20
-15
-12
-10
-10
-11
-12
-12
-15
-18
-17
-18
-23
-24
-22
-27
-43
-58
-53
-27
4
19
14
-8
-37
-61
-82
-89
-77
-83
-93
-59
-70
-146
-108
71
592
1931
3254
2715
688
-494
-343
-166
-287
-277
-221
-246
-233
-201
-197
-174
-146
-146
-146
-125
-90
-49
-12
20
61
114
174
235
296
351
395
429
452
467
468
443
389
314
222
128
38
-41
-99
-135
-156
-168
-170
-165
-155
-138
-122
-115
-106
-87
-65
-54
-58
-69
-72
-65
-69
-83
-90
-94
-106
-116
-123
-139
-146
-131
-118
-123
-127
-123
-133
-154
-164
-158
-150
-149
-156
-161
-161
-162
-162
-160
-164
-173
-169
-166
-186
-207
-204
-198
-207
-214
-208
-202
-200
-202
-208
-210
-203
-204
-206
-188
-163
-148
-129
-109
-121
-157
-186
-207
-210
-197
-207
-207
-171
-203
-265
-192
11
660
2108
3130
2097
45
-784
-470
-306
-369
-305
-258
-272
-237
-200
-190
-168
-144
-124
-91
-54
-18
21
58
95
144
201
259
323
393
460
520
571
595
586
560
522
450
339
213
93
-18
-113
-180
-222
-252
-266
-262
-253
-244
-230
-216
-208
-202
-192
-181
-177
-180
-181
-179
-180
-185
-185
-176
-171
-173
-175
-168
-159
-153
-147
-140
-136
-130
-117
-108
-109
-106
-95
-85
-79
-70
-62
-58
-51
-41
-36
-35
-28
-18
-12
-6
1
5
10
9
-3
-4
20
46
59
81
105
102
76
51
37
44
44
27
54
74
-6
-31
106
477
1620
3272
3460
1521
-258
-399
-80
-178
-240
-151
-154
-162
-115
-97
-87
-65
-61
-62
-48
-32
-14
1
1
-1
16
52
102
151
186
218
248
247
215
186
153
86
-6
-110
-224
-331
-412
-470
-504
-513
-508
-499
-480
-458
-432
-399
-366
-344
-327
-311
-298
-290
-289
-292
-291
-287
-289
-301
-313
-317
-314
-311
-306
-290
-271
-260
-261
-266
-260
-244
-231
-225
-218
-211
-204
-194
-182
-170
-157
-141
-129
-118
-99
-79
-67
-54
-39
-26
-16
-7
-1
5
15
24
28
33
40
36
23
22
42
62
67
78
105
112
83
45
16
4
9
-6
-22
10
-10
-95
-53
144
703
2111
3473
2874
754
-445
-263
-81
-213
-195
-127
-149
-134
-94
-82
-57
-34
-35
-32
-16
3
29
61
94
133
182
238
299
364
427
484
530
560
567
556
530
479
390
279
171
74
-15
-90
-144
-174
-191
-203
-200
-179
-162
-159
-156
-144
-132
-127
-129
-131
-134
-139
-142
-146
-154
-161
-163
-170
-176
-167
-158
-163
-168
-165
-164
-168
-169
-167
-166
-169
-177
-182
-180
-176
-175
-179
-190
-197
-192
-187
-191
-194
-193
-197
-197
-188
-186
-195
-197
-191
-192
-196
-196
-196
-199
-200
-201
-204
-205
-209
-217
-210
-186
-171
-168
-152
-135
-144
-176
-208
-212
-191
-191
-203
-175
-187
-253
-211
-34
510
1896
3223
2599
464
-741
-528
-284
-370
-335
-269
-301
-288
-239
-231
-222
-197
-182
-163
-129
-91
-56
-15
35
83
134
197
264
331
404
470
511
532
541
531
493
424
327
207
83
-31
-127
-203
-256
-286
-293
-285
-274
-262
-251
-244
-233
-213
-196
-193
-194
-192
-192
-193
-190
-182
-178
-180
-180
-177
-172
-161
-145
-136
-135
-129
-115
-102
-93
-85
-77
-66
-53
-42
-33
-20
-5
3
8
17
30
42
51
57
65
78
91
97
101
108
114
119
124
122
114
116
136
154
167
191
219
224
205
182
154
143
155
143
131
167
141
48
86
283
925
2463
3761
2899
669
-402
-140
-16
-190
-177
-134
-178
-167
-138
-140
-126
-120
-146
-162
-160
-162
-161
-142
-115
-105
-102
-58
-7
-34
-87
-47
40
71
62
53
13
-86
-217
-339
-432
-502
-556
-593
-618
-631
-627
-607
-578
-544
-509
-494
-501
-496
-468
-450
-448
-439
-423
-415
-402
-376
-355
-349
-342
-322
-289
-249
-211
-179
-145
-110
-82
-57
-27
3
26
45
65
86
104
119
131
142
147
146
154
175
193
203
208
216
230
240
242
243
243
244
249
256
254
241
224
215
212
205
189
169
143
118
109
110
104
96
98
92
68
36
-2
-29
-15
-8
-27
-6
-58
-320
-546
-527
-220
844
2414
2601
763
-920
-1039
-704
-758
-808
-739
-737
-720
-659
-625
-590
-540
-505
-463
-397
-330
-261
-183
-104
-18
83
183
278
382
491
586
662
721
759
777
773
729
648
555
458
357
273
222
192
176
180
191
191
