# session 21
-60
-88
38
-92
-614
-988
-965
-873
-855
-792
-685
-532
-327
-214
-258
-332
-368
-399
-428
-448
-467
-480
-485
-491
-496
-492
-483
-477
-466
-449
-432
-420
-406
-387
-369
-354
-337
-319
-302
-288
-273
-255
-234
-213
-196
-183
-173
-165
-157
-145
-128
-109
-92
-76
-56
-33
-12
0
11
26
42
51
53
49
50
66
88
103
116
146
179
178
156
145
140
143
161
162
169
204
179
125
185
386
1097
2614
3603
2479
414
-368
-42
113
68
149
187
164
192
204
178
173
178
188
217
246
269
294
315
332
356
391
430
470
514
564
612
647
667
675
664
628
561
458
325
183
47
-77
-184
-268
-329
-372
-398
-408
-408
-408
-403
-392
-381
-373
-367
-366
-373
-382
-391
-402
-414
-424
-437
-450
-458
-466
-478
-486
-489
-494
-502
-512
-519
-519
-519
-524
-527
-527
-531
-535
-533
-532
-539
-542
-539
-538
-539
-539
-538
-539
-537
-532
-531
-531
-527
-523
-522
-519
-512
-506
-501
-497
-492
-484
-481
-488
-491
-475
-452
-437
-411
-368
-349
-374
-396
-400
-400
-383
-368
-380
-350
-313
-376
-393
-246
116
1260
3030
3386
1442
-488
-693
-306
-324
-337
-225
-223
-223
-156
-121
-90
-29
28
87
153
203
243
289
337
388
441
497
567
649
727
805
888
957
1000
1028
1048
1040
991
905
807
709
614
527
460
415
390
387
400
415
431
454
483
514
543
566
586
606
623
637
645
651
658
665
672
679
686
692
700
706
712
719
728
734
736
737
739
739
737
737
739
740
740
738
733
724
718
721
733
745
740
724
713
694
654
612
586
559
516
481
461
437
396
360
334
298
273
288
301
290
321
399
430
381
307
224
112
-19
-139
-242
-336
-422
-528
-640
-693
-763
-922
-1010
-955
-607
578
2045
1793
-349
-1960
-2013
-1818
-1987
-2059
-2045
-2134
-2183
-2176
-2188
-2187
-2186
-2198
-2155
-2071
-2040
-2061
-2084
-2102
-2111
-2105
-2114
-2158
-2210
-2262
-2312
-2333
-2333
-2340
-2302
-2202
-2176
-2299
-2466
-2609
-2759
-2920
-3085
-3263
-3436
-3593
-3729
-3804
-3829
-3873
-3940
-3993
-4041
-4094
-4121
-4125
-4144
-4181
-4210
-4226
-4241
-4255
-4264
-4267
-4259
-4241
-4217
-4184
-4138
-4086
-4035
-3981
-3918
-3845
-3767
-3686
-3599
-3506
-3407
-3298
-3182
-3066
-2935
-2788
-2650
-2505
-2336
-2205
-2102
-1977
-1910
-1827
-1534
-1202
-730
501
2073
3134
4622
8178
14864
24841
34465
38349
37184
35929
35681
34971
34151
33677
33078
32427
31913
31359
30828
30334
29796
29377
28923
28313
28011
27659
26829
26747
26663
23906
20991
21537
21394
16849
11255
4985
-5153
-16228
-23482
-27722
-30873
-32917
-34338
-35672
-36609
-37153
-37523
-37605
-37399
-37021
-36413
-35525
-34398
-33091
-31705
-30334
-28986
-27650
-26323
-25029
-23818
-22675
-21505
-20285
-19079
-17923
-16846
-15868
-14907
-13862
-12753
-11662
-10615
-9593
-8585
-7603
-6652
-5713
-4773
-3849
-2969
-2140
-1343
-559
194
894
1548
2187
2811
3378
3852
4240
4570
4867
5155
5459
5771
6070
6367
6685
7002
7278
7504
7698
7870
8038
8217
8400
8579
8764
8952
9121
9266
9390
9484
9554
9610
9640
9626
9575
9504
9421
9336
9245
9126
8974
8814
8667
8539
8429
8321
8203
8080
7959
7832
7694
7545
7382
7211
7039
6841
6601
6357
6128
5953
5942
5997
5756
5168
4631
4338
4116
3867
3622
3379
3150
2963
2781
2572
2357
2153
1946
1707
1435
1170
942
730
510
299
129
2
-104
-214
-336
-456
-558
-643
-736
-850
-985
-1141
-1324
-1539
-1788
-2085
-2425
-2792
-3217
-3751
-4385
-5028
-5551
-5939
-6359
-6802
-6901
-6532
-6129
-5967
-5829
-5564
-5296
-5094
-4942
-4866
-4851
-4811
-4724
-4638
-4575
-4515
-4455
-4394
-4321
-4236
-4159
-4115
-4108
-4120
-4220
-4539
-5053
-5625
-6214
-6807
-7611
-9209
-11601
-13703
-14798
-15370
-15930
-16332
-16364
-16140
-15930
-15746
-15343
-14845
-14450
-13835
-13207
-12995
-11751
-8047
-3979
-2215
-1016
2852
7301
7124
3535
3749
9979
17644
23855
28962
32470
34003
34446
33559
30797
27717
25518
22374
16292
8429
1469
-3526
-7069
-9549
-11049
-11895
-12483
-12911
-12864
-11851
-9844
-7449
-4971
-1801
2638
7829
12763
17054
20679
23313
24720
25064
24303
22153
18871
15178
11391
7417
3551
450
-1764
-3674
-5788
-8148
-10589
-12921
-14932
-16378
-16994
-16636
-15468
-13851
-11997
-9886
-7512
-4936
-2069
1243
4768
8028
11072
14262
17311
19503
20582
20698
20061
18958
17416
14941
11277
7033
2928
-895
-4427
-7568
-10458
-13188
-15457
-17078
-18208
-18856
-18897
-18492
-17864
-16941
-15653
-14143
-12528
-10826
-9086
-7320
-5516
-3777
-2227
-859
379
1517
2470
3026
3167
3125
2934
2444
1759
1096
404
-496
-1607
-2748
-3673
-4210
-4370
-4295
-4111
-3854
-3548
-3263
-3028
-2808
-2586
-2371
-2131
-1836
-1582
-1503
-1523
-1481
-1384
-1020
101
1782
3183
4149
5169
6238
6983
7344
7430
7297
6992
6507
5832
5022
4102
3043
1828
486
-851
-1908
-2394
-2267
-1848
-1454
-1049
-532
-41
281
407
264
-165
-661
-1024
-1284
-1505
-1702
-1934
-2199
-2383
-2463
-2495
-2429
-2178
-1778
-1322
-863
-432
-38
338
695
996
1228
1421
1586
1684
1678
1606
1542
1518
1529
1580
1675
1792
1917
2061
2181
2168
1995
1773
1593
1456
1366
1337
1335
1317
1270
1173
1037
926
867
782
622
441
318
271
256
220
156
102
66
20
-50
-139
-245
-350
-418
-449
-476
-506
-526
-535
-472
-255
20
152
211
475
917
1193
1169
996
770
502
258
66
-112
-254
-344
-447
-546
-576
-613
-456
457
1929
2908
3122
3366
4082
5057
5972
6478
6419
6019
5459
4768
4072
3462
2878
2296
1755
1274
860
495
138
-218
-537
-803
-1027
-1218
-1379
-1537
-1707
-1863
-1975
-2070
-2196
-2371
-2562
-2722
-2827
-2876
-2855
-2767
-2698
-2721
-2778
-2771
-2704
-2612
-2494
-2354
-2186
-1991
-1814
-1676
-1523
-1325
-1131
-970
-812
-629
-443
-285
-139
18
166
281
378
455
491
487
447
354
212
38
-180
-480
-866
-1293
-1716
-2154
-2652
-3139
-3470
-3649
-3806
-3971
-4114
-4268
-4407
-4418
-4290
-4142
-4054
-4000
-3934
-3885
-3867
-3847
-3832
-3904
-4099
-4365
-4649
-4950
-5268
-5579
-5854
-6070
-6245
-6416
-6574
-6698
-6844
-7011
-7139
-7295
-7468
-7517
-7605
-7775
-7689
-7645
-7774
-6993
-5328
-2872
3593
14269
21677
21838
19908
19471
18871
17745
17090
16465
15613
14943
14332
13626
12991
12407
11801
11232
10700
10168
9657
9167
8688
8237
7807
7382
6976
6598
6220
5858
5535
5200
4864
4597
4298
3956
3753
3363
2198
435
-1712
-4606
-7803
-10264
-12097
-13687
-14533
-14580
-14346
-13624
-12250
-10920
-10017
-9362
-9054
-9172
-9396
-9544
-9764
-10207
-10810
-11378
-11835
-12035
-11793
-11458
-11108
-9981
-8300
-6240
-1332
6794
12823
13708
12945
13157
13273
13012
13054
13109
12992
12995
13023
12957
12951
12962
12898
12903
12868
12248
10867
9212
7697
6361
5273
4537
4025
3496
2840
2059
1200
341
-478
-1304
-2198
-3149
-4094
-4958
-5719
-6454
-7170
-7734
-8103
-8337
-8434
-8446
-8502
-8592
-8656
-8767
-8967
-9188
-9387
-9539
-9619
-9678
-9765
-9818
-9777
-9656
-9472
-9222
-8907
-8521
-8084
-7633
-7187
-6732
-6259
-5775
-5305
-4873
-4474
-4086
-3712
-3370
-3075
-2810
-2538
-2248
-1929
-1537
-1043
-503
6
469
908
1335
1756
2168
2570
2972
3380
3780
4174
4572
4964
5334
5679
5996
6286
6555
6804
7036
7254
7458
7635
7768
7865
7962
8067
8147
8180
8166
8095
7988
7881
7788
7722
7668
7568
7430
7343
7286
7149
6927
6671
6372
6039
5718
5375
4939
4388
3734
3068
2534
2131
1844
1796
1852
1606
1137
935
1053
1196
1284
1385
1510
1613
1624
1580
1401
673
-565
-1522
-1874
-2127
-2572
-3150
-4054
-5459
-7232
-9444
-12209
-15015
-17402
-19804
-22427
-24274
-24325
-22748
-20538
-18630
-17271
-16046
-14509
-12594
-10496
-8581
-7180
-6104
-4903
-3799
-3384
-3543
-3633
-3194
-2017
-312
1372
2819
4185
5417
6356
7049
7593
8010
8310
8504
8618
8691
8716
8676
8608
8534
8409
8222
8013
7812
7601
7373
7131
6880
6622
6350
6063
5771
5481
5186
4890
4605
4332
4069
3815
3551
3266
2977
2698
2445
2218
1979
1741
1570
1388
1148
1014
1041
1369
2421
3548
3056
1093
-232
-297
-242
-451
-574
-679
-863
-986
-1061
-1160
-1247
-1313
-1386
-1458
-1525
-1591
-1647
-1695
-1740
-1772
-1788
-1801
-1805
-1779
-1724
-1643
-1506
-1282
-1008
-765
-584
-463
-421
-470
-563
-671
-805
-945
-1053
-1130
-1206
-1288
-1370
-1458
-1551
-1637
-1713
-1781
-1836
-1882
-1918
-1940
-1946
-1941
-1923
-1897
-1871
-1846
-1814
-1774
-1730
-1687
-1640
-1589
-1535
-1486
-1441
-1396
-1345
-1290
-1234
-1182
-1134
-1083
-1033
-992
-944
-874
-803
-746
-678
-597
-545
-520
-489
-451
-401
-338
-305
-263
-179
-170
-201
-90
167
907
2505
3636
2570
454
-352
-11
123
51
139
186
155
179
195
165
130
93
64
46
6
-44
-50
3
90
186
282
383
493
607
717
820
913
988
1041
1071
1074
1035
956
861
768
682
607
551
512
492
488
489
492
499
507
515
523
530
531
529
525
517
504
487
470
461
456
447
440
439
435
428
426
426
422
416
412
405
396
387
376
360
348
342
335
325
312
301
290
276
263
260
270
283
290
291
291
292
284
266
257
261
259
246
242
258
309
384
419
455
566
621
601
743
1078
1833
3524
5044
4234
1760
425
614
763
648
785
913
663
92
-462
-582
-410
-626
-1359
-1989
-2144
-2066
-2021
-2005
-2015
-2092
-2154
-2113
-2069
-2160
-2338
-2406
-2209
-1786
-1277
-752
-231
224
540
629
482
323
360
489
659
1116
1895
2599
2826
2470
1782
1132
464
-402
-1255
-2282
-4026
-5775
-6225
-5643
-5093
-4669
-4112
-3593
-3192
-2778
-2362
-2009
-1715
-1453
-1198
-936
-687
-457
-249
-83
40
149
251
341
434
535
632
724
816
899
963
1014
1059
1094
1117
1130
1140
1156
1177
1188
1191
1192
1168
1107
1049
1012
975
945
907
839
798
758
637
571
648
937
2005
3635
3855
1964
201
32
327
254
214
269
213
167
170
129
89
80
57
34
31
31
28
34
49
68
92
128
175
225
270
313
352
381
399
407
405
393
365
315
252
186
110
43
31
77
125
154
184
230
291
352
375
350
312
282
263
268
296
324
346
361
376
401
416
398
375
363
323
250
184
125
51
-29
-99
-158
-206
-245
-282
-318
-350
-378
-400
-422
-446
-469
-487
-502
-512
-512
-515
-527
-530
-510
-489
-484
-482
-473
-474
-497
-528
-558
-576
-567
-568
-592
-569
-554
-627
-624
-482
-138
968
2524
2566
607
-1036
-1074
-719
-736
-713
-614
-630
-625
-569
-555
-542
-506
-485
-466
-433
-399
-365
-324
-286
-249
-207
-161
-110
-53
6
58
106
145
166
169
158
120
41
-63
-170
-275
-369
-443
-497
-532
-545
-546
-543
-533
-519
-510
-503
-494
-485
-476
-468
-465
-463
-460
-458
-456
-452
-450
-449
-443
-436
-432
-426
-415
-400
-384
-369
-355
-338
-318
-300
-282
-260
-238
-221
-207
-192
-173
-152
-132
-113
-93
-72
-44
-11
13
26
49
94
138
168
206
258
290
292
292
303
335
383
402
424
495
495
435
516
763
1520
3244
4614
3621
1275
240
561
729
651
751
827
825
897
965
999
1066
1127
1163
1219
1280
1323
1376
1444
1505
1558
1613
1671
1729
1791
1860
1925
1977
2009
2025
2036
2040
2021
1969
1904
1860
1843
1841
1856
1894
1937
1978
2024
2064
2085
2107
2110
2041
1939
1838
1654
1354
1070
902
846
854
820
680
498
249
-95
-324
-492
-986
-1652
-2492
-4652
-8087
-10302
-10051
-9079
-8790
-8871
-9079
-9428
-9543
-9239
-8769
-8372
-8207
-8267
-8223
-7837
-7298
-6754
-6040
-5085
-4059
-3108
-2254
-1496
-822
-225
269
658
993
1302
1576
1833
2054
2224
2411
2575
2629
2721
2941
3419
4724
6382
6310
4215
2610
2648
2964
2881
2876
2938
2881
2854
2863
2823
2792
2778
2738
2697
2666
2623
2582
2553
2520
2487
2464
2443
2417
2396
2381
2362
2334
2291
2226
2144
2052
1935
1781
1602
1411
1218
1037
880
745
630
534
448
380
321
237
132
52
-4
-76
-162
-240
-308
-370
-436
-517
-602
-671
-716
-742
-755
-761
-768
-779
-789
-794
-795
-794
-797
-805
-801
-788
-789
-803
-807
-804
-805
-807
-812
-823
-835
-841
-835
-821
-811
-804
-782
-762
-774
-802
-822
-823
-805
-809
-830
-795
-780
-852
-828
-660
-239
988
2461
2183
86
-1355
-1219
-881
-916
-867
-770
-788
-767
-703
-680
-657
-615
-577
-532
-486
-445
-395
-336
-284
-230
-164
-95
-29
39
113
184
241
279
303
313
295
241
162
64
-44
-144
-227
-288
-321
-329
-318
-282
-216
-128
-19
102
207
269
290
289
277
259
237
209
173
139
109
81
59
45
33
20
12
7
2
2
9
14
13
13
20
28
31
29
21
12
22
47
61
67
89
110
102
81
59
45
54
54
37
62
68
-8
0
152
578
1837
3387
3194
1098
-421
-350
-55
-143
-138
-70
-121
-140
-121
-156
-190
-201
-224
-247
-261
-274
-283
-284
-276
-255
-221
-177
-122
-58
14
95
175
247
307
353
377
368
325
260
188
114
47
0
-29
-52
-67
-67
-58
-48
-36
-21
-17
-26
-38
-49
-63
-75
-82
-90
-100
-108
-113
-115
-114
-105
-88
-77
-74
-65
-48
-36
-31
-29
-29
-32
-36
-44
-60
-83
-115
-155
-181
-182
-177
-182
-177
-159
-166
-198
-229
-252
-255
-247
-271
-277
-243
-294
-374
-304
-57
816
2593
3612
2178
-123
-854
-487
-424
-518
-426
-399
-427
-379
-346
-344
-308
-271
-252
-220
-170
-118
-69
-24
25
77
130
190
260
327
386
439
480
501
504
492
453
371
257
131
8
-103
-192
-256
-300
-328
-341
-342
-338
-331
-320
-307
-295
-283
-272
-263
-258
-256
-255
-258
-263
-263
-260
-257
-254
-249
-244
-238
-233
-232
-230
-224
-218
-214
-208
-199
-191
-183
-181
-187
-192
-174
-143
-126
-112
-79
-56
-68
-90
-105
-107
-86
-86
-99
-57
-53
-142
-123
53
576
2052
3678
3215
835
-664
-480
-191
-303
-281
-208
-250
-240
-199
-205
-190
-154
-139
-121
-88
-62
-36
-2
35
78
130
188
253
325
396
459
505
535
548
543
510
437
325
194
71
-34
-121
-191
-239
-264
-271
-267
-259
-251
-238
-219
-199
-183
-170
-159
-150
-145
-143
-142
-140
-139
-140
-142
-140
-133
-124
-119
-116
-114
-112
-108
-105
-111
