# session 8
-52
-81
9
-66
-567
-1124
-1218
-1000
-596
565
2076
2012
100
-1406
-1435
-1165
-1225
-1204
-1084
-1035
-956
-855
-803
-743
-665
-609
-562
-522
-497
-452
-373
-307
-275
-240
-180
-109
-41
23
84
151
223
281
316
333
329
288
218
139
68
9
-37
-72
-96
-107
-113
-108
-88
-60
-32
-9
8
26
47
55
50
45
44
45
48
50
49
54
68
77
80
84
91
105
123
128
128
136
141
137
138
140
135
137
144
141
138
151
157
149
152
165
161
149
152
159
158
154
153
150
143
136
126
114
115
135
147
146
154
160
153
135
102
75
82
82
66
88
76
14
70
246
704
1924
3144
2580
585
-561
-365
-109
-151
-114
-58
-72
-79
-142
-259
-307
-291
-266
-219
-174
-166
-168
-153
-142
-144
-143
-135
-128
-121
-101
-78
-73
-93
-116
-133
-165
-237
-337
-435
-523
-592
-632
-647
-649
-632
-596
-560
-527
-490
-452
-419
-396
-381
-369
-360
-352
-343
-335
-324
-305
-291
-285
-272
-250
-234
-223
-208
-194
-186
-178
-171
-176
-191
-202
-202
-195
-178
-157
-144
-133
-117
-98
-81
-65
-57
-52
-37
-21
-12
0
17
30
40
49
58
72
83
82
75
87
116
141
166
198
223
224
208
187
183
208
211
202
240
237
162
200
401
983
2439
3882
3324
1140
-149
10
194
55
73
138
98
103
136
126
120
117
91
73
64
48
43
56
79
105
131
164
218
278
319
355
383
368
316
282
260
194
85
-28
-136
-248
-351
-426
-470
-501
-526
-523
-485
-444
-418
-388
-354
-332
-310
-272
-237
-224
-221
-212
-190
-168
-156
-154
-154
-155
-150
-130
-113
-119
-131
-125
-113
-120
-138
-168
-236
-332
-388
-387
-377
-372
-357
-339
-321
-303
-292
-291
-295
-302
-300
-291
-292
-297
-298
-311
-334
-335
-320
-334
-373
-389
-367
-331
-298
-270
-236
-195
-169
-173
-191
-195
-168
-142
-144
-119
-85
-148
-197
-98
159
980
2394
2881
1462
-223
-553
-240
-242
-336
-311
-300
-265
-190
-156
-126
-72
-59
-85
-101
-95
-67
-19
30
79
146
227
310
391
467
534
593
641
670
681
679
656
602
523
436
351
269
198
145
109
84
73
82
98
99
92
94
104
108
103
99
97
88
74
68
67
55
40
35
34
24
12
4
-2
-7
-5
-5
-15
-29
-38
-43
-49
-58
-65
-72
-82
-89
-93
-99
-111
-120
-125
-132
-140
-148
-155
-165
-176
-186
-189
-193
-201
-212
-227
-243
-251
-248
-242
-238
-227
-208
-200
-215
-239
-268
-288
-278
-278
-303
-279
-253
-292
-254
-97
312
1484
2854
2574
624
-713
-611
-329
-394
-381
-305
-320
-307
-261
-248
-235
-212
-202
-188
-161
-134
-103
-62
-16
30
76
129
191
254
314
369
417
445
449
438
412
357
263
144
24
-82
-177
-258
-311
-345
-376
-391
-378
-357
-344
-330
-309
-288
-272
-265
-260
-252
-245
-244
-247
-248
-245
-239
-234
-231
-225
-212
-205
-202
-196
-184
-172
-160
-149
-139
-131
-125
-116
-105
-97
-89
-80
-71
-62
-51
-42
-36
-22
-5
4
10
19
29
37
44
46
42
48
68
92
112
135
150
140
115
92
88
105
104
92
128
135
71
106
286
791
2118
3510
3052
979
-296
-137
92
-31
-44
2
-35
-35
-8
-8
9
29
12
-10
-13
-16
-26
-27
-10
18
56
113
180
249
314
348
366
397
352
161
-16
-33
-12
-81
-177
-241
-302
-360
-392
-406
-411
-395
-360
-325
-297
-269
-237
-208
-193
-189
-181
-174
-180
-198
-218
-237
-251
-266
-301
-357
-398
-407
-404
-402
-393
-383
-381
-381
-376
-370
-358
-336
-315
-297
-281
-272
-272
-271
-259
-238
-211
-187
-173
-159
-136
-111
-92
-73
-53
-34
-15
4
19
29
35
36
36
35
39
58
84
101
117
137
133
102
75
65
75
86
72
79
112
68
16
106
341
1119
2678
3556
2291
277
-379
-81
-47
-169
-130
-118
-144
-119
-110
-116
-90
-76
-96
-117
-125
-130
-149
-179
-194
-179
-154
-126
-88
-43
4
53
101
140
176
202
198
160
102
31
-47
-117
-172
-221
-256
-264
-258
-249
-228
-196
-172
-157
-140
-120
-102
-92
-87
-84
-84
-84
-80
-75
-74
-76
-81
-84
-76
-69
-74
-72
-62
-62
-69
-68
-64
-63
-60
-58
-60
-61
-62
-62
-58
-54
-53
-48
-38
-38
-47
-49
-46
-49
-50
-42
-41
-51
-56
-49
-46
-52
-53
-45
-40
-42
-44
-34
-21
-16
-16
-12
-18
-26
-14
10
22
31
51
58
39
13
-7
-9
11
8
-12
18
24
-47
-19
150
605
1873
3327
3023
975
-421
-318
-36
-117
-116
-41
-58
-53
-15
-7
5
28
42
61
90
118
132
129
130
150
185
239
307
354
362
361
368
366
332
267
182
77
-71
-264
-470
-652
-805
-925
-995
-1006
-977
-935
-911
-917
-948
-982
-1014
-1046
-1054
-1012
-938
-864
-794
-720
-646
-581
-528
-487
-453
-415
-379
-348
-311
-263
-212
-163
-117
-73
-31
3
31
57
81
104
131
158
182
204
224
243
263
281
297
314
336
361
387
406
417
424
434
449
468
484
494
501
510
522
533
542
549
554
549
537
535
552
564
559
556
551
509
437
369
309
269
258
224
174
154
85
-31
-36
152
913
2548
3683
2583
372
-565
-332
-293
-458
-432
-413
-460
-445
-430
-433
-397
-375
-393
-397
-377
-355
-333
-319
-330
-337
-300
-235
-174
-107
-25
56
119
163
185
186
170
126
42
-79
-217
-347
-451
-526
-562
-565
-561
-572
-582
-565
-527
-500
-498
-508
-519
-520
-512
-508
-523
-548
-554
-535
-518
-514
-524
-547
-575
-595
-593
-564
-523
-486
-454
-424
-387
-340
-291
-246
-204
-165
-129
-92
-49
-4
41
82
117
144
168
190
212
230
245
260
279
295
304
311
321
329
334
340
345
346
347
349
346
339
336
336
330
313
288
274
281
289
288
297
310
294
258
226
195
183
187
165
152
172
124
60
128
328
1025
2505
3407
2219
195
-525
-232
-166
-282
-249
-234
-257
-229
-222
-235
-220
-217
-237
-234
-214
-197
-174
-146
-115
-70
-12
44
95
151
209
259
296
316
318
308
277
212
121
15
-103
-217
-307
-373
-423
-456
-471
-468
-455
-445
-439
-425
-402
-387
-383
-381
-377
-371
-365
-362
-360
-354
-351
-352
-347
-331
-320
-315
-303
-289
-281
-273
-261
-249
-236
-224
-214
-204
-188
-169
-155
-148
-138
-124
-115
-108
-94
-80
-71
-60
-45
-32
-21
-9
1
8
15
25
37
47
57
67
78
91
101
103
99
97
109
130
149
170
202
220
204
183
169
153
160
172
156
176
213
156
128
257
572
1569
3188
3601
1865
23
-254
56
14
-74
-171
-378
-403
-262
-220
-217
-161
-128
-126
-136
-178
-201
-170
-137
-112
-62
-1
53
115
178
213
226
242
259
251
215
160
94
8
-102
-220
-317
-376
-408
-430
-448
-454
-440
-410
-383
-364
-337
-301
-272
-255
-241
-231
-233
-242
-245
-242
-239
-244
-252
-249
-243
-246
-250
-249
-258
-274
-276
-271
-281
-287
-276
-270
-277
-282
-283
-277
-262
-239
-215
-192
-172
-152
-128
-105
-83
-60
-39
-21
-5
10
26
45
58
65
73
82
86
88
92
98
102
102
99
95
91
97
114
129
132
139
152
145
113
79
57
61
69
51
60
84
21
-22
89
361
1227
2762
3352
1859
-4
-422
-111
-128
-220
-159
-150
-165
-134
-126
-118
-79
-68
-96
-115
-110
-97
-84
-68
-41
-3
46
104
162
219
281
343
391
414
418
414
393
343
264
166
66
-19
-88
-152
-199
-217
-222
-226
-213
-184
-166
-164
-155
-138
-130
-133
-135
-133
-134
-136
-138
-140
-148
-157
-159
-157
-159
-166
-169
-166
-165
-170
-175
-178
-179
-181
-185
-187
-188
-188
-190
-192
-193
-193
-194
-193
-186
-181
-181
-182
-179
-178
-183
-184
-178
-175
-181
-184
-180
-174
-175
-180
-182
-179
-178
-184
-187
-180
-173
-177
-191
-202
-194
-171
-156
-147
-126
-110
-121
-141
-159
-168
-157
-155
-163
-136
-146
-211
-167
5
484
1778
3152
2712
664
-611
-447
-183
-267
-255
-188
-206
-191
-155
-154
-133
-100
-98
-96
-70
-33
5
48
93
145
203
265
333
410
486
551
598
629
639
631
607
558
472
357
233
116
9
-79
-141
-178
-196
-192
-172
-156
-149
-137
-118
-109
-110
-111
-113
-116
-119
-120
-124
-130
-137
-145
-156
-165
-166
-159
-154
-150
-145
-140
-134
-128
-122
-116
-111
-109
-106
-101
-99
-100
-99
-97
-98
-113
-146
-168
-158
-133
-117
-104
-91
-79
-67
-53
-43
-36
-29
-24
-22
-16
-3
4
5
5
-3
-23
-41
-43
-35
-30
-24
-4
13
-4
-43
-83
-106
-94
-84
-102
-77
-38
-97
-115
27
364
1401
3038
3431
1693
-118
-375
-74
-156
-240
-170
-179
-203
-174
-170
-170
-158
-185
-234
-274
-330
-406
-455
-456
-433
-394
-326
-232
-138
-58
22
104
157
170
169
177
175
137
66
-16
-91
-158
-218
-265
-294
-308
-316
-318
-307
-278
-242
-213
-193
-173
-151
-132
-121
-119
-125
-127
-117
-107
-104
-103
-100
-99
-95
-84
-72
-65
-59
-53
-46
-37
-29
-25
-20
-13
-10
-10
-4
-1
-1
-1
-2
-5
-5
0
1
0
4
10
9
4
2
-1
-6
-11
-15
-16
-15
-17
-21
-21
-20
-25
-31
-32
-35
-40
-40
-41
-57
-74
-66
-43
-33
-24
1
17
2
-26
-53
-68
-52
-45
-54
-22
-18
-91
-65
109
542
1727
3115
2875
958
-385
-318
-79
-187
-205
-139
-150
-137
-103
-104
-93
-73
-80
-89
-80
-59
-27
6
33
69
120
176
228
278
329
384
428
451
461
460
438
386
306
204
92
-14
-113
-201
-271
-313
-332
-339
-339
-325
-301
-286
-283
-276
-261
-255
-256
-257
-260
-260
-251
-245
-247
-241
-228
-222
-218
-211
-209
-201
-181
-173
-174
-163
-149
-146
-143
-137
-136
-133
-126
-126
-120
-95
-78
-88
-93
-74
-66
-72
-58
-36
-38
-54
-55
-38
-26
-33
-41
-30
-14
-10
-12
-27
-45
-35
-7
8
22
41
36
7
-20
-36
-40
-53
-72
-43
-28
-109
-125
12
358
1374
2751
2730
878
-683
-735
-401
-460
-524
-470
-471
-477
-467
-484
-497
-525
-583
-599
-551
-489
-432
-365
-287
-201
-107
-10
94
208
314
400
466
513
540
551
540
498
419
317
211
109
23
-39
-82
-113
-124
-115
-104
-97
-85
-73
-62
-49
-37
-33
-27
-20
-24
-34
-39
-44
-52
-53
-51
-55
-60
-58
-54
-54
-60
-63
-60
-54
-48
-46
-47
-46
-44
-45
-41
-30
-24
-28
-32
-28
-21
-15
-8
2
4
-4
-9
5
35
61
83
112
136
134
111
83
77
92
85
83
126
105
24
79
309
977
2496
3776
2960
775
-326
-124
-37
-242
-261
-236
-277
-253
-247
-344
-429
-431
-387
-334
-292
-266
-265
-313
-380
-391
-341
-278
-214
-146
-88
-42
0
49
99
121
95
24
-76
-185
-271
-331
-377
-414
-434
-437
-419
-383
-349
-328
-308
-276
-243
-215
-188
-169
-172
-180
-173
-167
-191
-253
-324
-355
-339
-323
-343
-382
-420
-440
-429
-403
-384
-364
-316
-245
-178
-133
-110
-91
-59
-29
-25
-28
1
50
84
103
118
127
145
188
227
232
225
239
275
309
341
388
431
435
418
393
316
200
93
3
-26
-18
-94
-153
-46
285
1361
3162
3753
1985
-34
-372
-10
-73
-196
-175
-227
-254
-197
-172
-148
-97
-86
-110
-123
-138
-182
-257
-335
-374
-357
-300
-226
-136
-25
82
157
207
243
262
265
232
142
21
-94
-200
-290
-347
-381
-400
-404
-398
-382
-354
-314
-266
-216
-171
-133
-97
-66
-46
-33
-23
-17
-12
-4
5
10
10
7
2
-5
-11
-20
-33
-50
-68
-75
-75
-78
-85
-94
-109
-128
-143
-148
-147
-152
-156
-143
-125
-123
-124
-114
-107
-108
-100
-87
-83
-83
-75
-64
-59
-58
-54
-49
-52
-61
-71
-76
-78
-79
-86
-92
-80
-57
-43
-31
-9
-5
-37
-74
-100
-103
-77
-70
-80
-40
-33
-108
-77
113
638
2017
3507
3105
975
-391
-274
-69
-216
-217
-142
-168
-159
-117
-111
-98
-83
-102
-125
-128
-122
-116
-116
-115
-92
-43
15
70
123
177
233
281
313
325
326
315
281
215
127
40
-40
-118
-188
-235
-254
-253
-244
-230
-210
-191
-181
-178
-169
-154
-146
-149
-150
-148
-146
-146
-147
-153
-162
-166
-162
-158
-152
-142
-135
-137
-141
-141
-145
-158
-175
-193
-216
-242
-271
-301
-328
-344
-345
-338
-329
-318
-310
-309
-307
-295
-278
-258
-238
-226
-214
-196
-175
-161
-153
-147
-133
-106
-75
-49
-19
15
31
22
-1
-16
-1
15
2
21
51
-3
-22
104
396
1324
2862
3314
1715
-73
-377
-47
-67
-140
-75
-67
-70
-34
-29
-23
7
14
4
9
24
42
67
92
121
157
201
254
314
371
416
455
487
502
499
481
445
379
285
183
87
-1
-80
-141
-183
-210
-221
-210
-195
-192
-192
-179
-165
-162
-167
-173
-179
-189
-203
-214
-220
-225
-231
-237
-244
-250
-254
-256
-256
-253
-255
-261
-263
-262
-260
-260
-262
-263
-260
-256
-256
-257
-254
-248
-245
-251
-263
-263
-241
-215
-200
-181
-159
-156
-176
-205
-224
-215
-211
-225
-195
-173
-242
-241
-91
246
1297
2837
3002
1182
-460
-564
-247
-309
-345
-267
-274
-271
-228
-226
-213
-169
-152
-160
-154
-137
-114
-85
-55
-18
32
91
156
224
288
337
376
409
428
427
406
360
275
163
50
-54
-146
-213
-265
-321
-364
-361
-323
-278
-238
-206
-174
-136
-104
-77
-53
-43
-28
23
