# session 16
-79
-80
-81
-90
-61
24
87
100
125
176
214
235
254
272
283
284
279
272
262
248
229
208
191
179
169
157
147
139
133
126
118
113
115
117
112
102
93
94
104
108
101
86
74
76
89
101
114
133
137
114
84
55
42
52
49
33
54
45
-16
36
212
645
1790
2988
2545
690
-424
-248
-1
-58
-29
29
9
34
69
44
38
73
92
89
99
133
179
232
290
345
398
458
526
600
679
750
806
843
855
852
822
713
521
294
52
-165
-291
-338
-376
-479
-700
-939
-996
-875
-774
-798
-896
-965
-925
-837
-865
-1004
-1069
-1016
-995
-1076
-1192
-1252
-1201
-1094
-1043
-1053
-1077
-1124
-1158
-1118
-1066
-1082
-1101
-1039
-939
-857
-807
-828
-898
-901
-792
-637
-491
-366
-270
-187
-97
-11
70
153
221
259
284
302
314
345
377
379
411
457
412
401
540
834
1777
3365
3838
2182
340
52
415
397
320
382
377
363
398
403
403
424
423
411
415
418
415
423
437
455
485
529
580
636
700
764
815
846
855
843
808
745
648
523
381
242
122
22
-57
-117
-154
-165
-159
-148
-137
-128
-116
-102
-90
-83
-80
-83
-96
-115
-129
-149
-198
-262
-304
-320
-338
-395
-511
-633
-700
-740
-777
-799
-901
-1170
-1425
-1433
-1258
-1076
-926
-795
-695
-615
-536
-467
-411
-357
-306
-269
-249
-218
-161
-102
-62
-22
23
38
21
7
1
3
22
19
13
59
58
-12
42
247
846
2377
3848
3190
927
-310
-93
91
-47
-46
-3
-23
-106
-347
-529
-431
-277
-247
-224
-167
-133
-114
-107
-124
-165
-217
-219
-126
-3
84
161
250
323
367
391
389
348
268
165
56
-43
-127
-198
-247
-266
-266
-254
-225
-182
-151
-141
-136
-127
-114
-102
-92
-79
-70
-71
-74
-69
-65
-76
-94
-104
-103
-102
-104
-103
-99
-99
-101
-103
-104
-104
-101
-98
-95
-87
-75
-66
-59
-54
-52
-51
-45
-45
-50
-46
-36
-32
-31
-28
-24
-23
-22
-26
-33
-36
-32
-32
-41
-46
-29
2
20
31
55
76
59
26
8
-2
5
11
-12
-1
32
-33
-79
43
332
1295
3030
3701
2025
-46
-485
-136
-170
-268
-186
-169
-179
-150
-170
-203
-206
-236
-295
-338
-356
-350
-333
-320
-294
-234
-151
-69
9
89
170
244
302
341
366
379
372
333
253
146
35
-65
-151
-222
-273
-297
-300
-294
-283
-261
-238
-224
-214
-199
-186
-181
-181
-182
-186
-190
-190
-188
-188
-189
-189
-185
-178
-172
-170
-166
-158
-149
-143
-137
-131
-129
-127
-122
-119
-119
-115
-109
-104
-100
-97
-94
-90
-87
-89
-88
-77
-67
-70
-75
-71
-67
-67
-66
-64
-67
-70
-66
-58
-54
-52
-49
-44
-41
-44
-51
-52
-38
-19
-11
-6
17
28
0
-33
-50
-61
-53
-47
-67
-53
-43
-119
-123
25
371
1472
3085
3243
1317
-409
-515
-188
-257
-290
-201
-202
-194
-146
-140
-129
-103
-112
-133
-127
-103
-72
-37
-3
35
85
139
196
264
340
412
472
518
547
559
558
538
492
414
309
195
100
20
-62
-123
-152
-190
-246
-262
-225
-192
-181
-162
-137
-129
-132
-133
-136
-149
-163
-171
-186
-215
-240
-262
-316
-392
-419
-374
-317
-297
-310
-330
-330
-300
-259
-232
-214
-194
-174
-158
-143
-132
-126
-120
-110
-102
-98
-98
-101
-107
-114
-136
-190
-252
-285
-295
-298
-275
-230
-200
-189
-164
-125
-97
-74
-42
-18
-27
-58
-91
-110
-105
-110
-137
-121
-117
-204
-221
-121
145
1184
2772
2920
982
-750
-830
-424
-400
-370
-248
-226
-195
-125
-102
-78
-29
-4
8
35
65
96
137
178
216
262
318
377
439
506
571
625
665
686
687
672
632
555
442
316
193
81
-13
-86
-136
-167
-183
-190
-190
-181
-161
-139
-125
-122
-120
-114
-108
-107
-109
-112
-117
-122
-126
-128
-126
-123
-124
-124
-121
-124
-129
-129
-137
-140
-133
-152
-166
-142
-239
-519
-689
-590
-452
-414
-380
-326
-299
-277
-247
-224
-202
-180
-164
-145
-123
-109
-103
-92
-80
-76
-83
-86
-70
-40
-21
-10
12
32
21
-11
-40
-47
-24
-20
-42
-15
-5
-96
-97
77
510
1788
3497
3504
1380
-339
-363
-61
-187
-222
-123
-124
-113
-66
-57
-38
-7
-16
-54
-113
-173
-189
-173
-163
-147
-104
-46
8
54
103
167
227
263
277
277
253
209
154
80
-14
-106
-190
-280
-369
-426
-437
-412
-374
-339
-309
-279
-256
-242
-223
-201
-185
-172
-164
-174
-194
-199
-190
-182
-170
-151
-139
-143
-151
-151
-142
-129
-118
-116
-121
-123
-122
-120
-118
-111
-103
-97
-92
-85
-76
-66
-57
-45
-35
-27
-19
-9
-1
5
10
14
19
22
20
17
16
14
7
-2
-11
-24
-39
-38
-17
0
8
26
43
30
0
-26
-38
-24
-20
-35
-7
7
-72
-69
87
460
1622
3243
3300
1295
-390
-443
-132
-231
-270
-184
-189
-179
-134
-131
-113
-75
-80
-105
-117
-122
-109
-74
-41
-12
27
73
124
182
242
297
347
391
420
426
408
369
303
208
97
-11
-107
-192
-263
-310
-330
-331
-320
-302
-285
-275
-266
-253
-240
-237
-236
-230
-226
-225
-225
-223
-221
-220
-216
-211
-208
-203
-197
-196
-197
-197
-189
-176
-169
-173
-173
-166
-169
-181
-177
-157
-146
-144
-135
-123
-117
-114
-111
-111
-108
-103
-102
-99
-91
-88
-94
-101
-107
-123
-166
-217
-239
-231
-217
-197
-168
-140
-112
-77
-56
-62
-83
-104
-103
-97
-119
-120
-99
-154
-182
-50
226
1072
2631
3291
1789
-172
-615
-211
-133
-179
-100
-85
-88
-31
-8
-4
28
45
43
56
77
101
137
176
212
254
303
355
411
476
543
603
643
664
669
658
624
554
450
322
190
72
-27
-111
-175
-212
-230
-242
-245
-239
-230
-222
-210
-199
-194
-188
-186
-195
-202
-204
-219
-231
-238
-278
-306
-310
-490
-871
-1081
-963
-791
-719
-652
-580
-538
-496
-448
-415
-382
-344
-314
-289
-259
-230
-208
-185
-163
-141
-119
-98
-80
-64
-49
-34
-21
-9
-5
-10
0
32
58
72
95
116
108
81
54
40
52
54
32
59
76
-6
-9
153
559
1806
3527
3588
1482
-274
-322
-10
-129
-169
-78
-93
-94
-51
-50
-40
-8
-13
-37
-43
-42
-36
-19
2
24
52
91
145
209
269
323
373
412
431
434
420
382
310
205
84
-36
-144
-237
-313
-366
-391
-396
-388
-368
-338
-312
-299
-289
-273
-257
-247
-243
-246
-252
-251
-243
-236
-233
-229
-230
-234
-238
-235
-226
-220
-222
-229
-246
-281
-308
-296
-268
-254
-244
-229
-214
-203
-194
-188
-182
-174
-169
-164
-150
-129
-114
-103
-88
-72
-58
-41
-27
-20
-14
-5
2
4
-1
-15
-24
-10
14
23
33
57
62
38
7
-16
-13
7
-2
1
44
15
-44
42
269
1002
2605
3684
2515
328
-494
-165
-67
-186
-137
-102
-113
-72
-55
-64
-38
-25
-45
-64
-93
-129
-125
-86
-55
-36
-4
46
108
174
240
306
364
405
426
430
415
371
290
183
68
-41
-140
-221
-283
-322
-336
-330
-317
-299
-281
-270
-261
-249
-237
-231
-227
-223
-222
-224
-225
-223
-222
-223
-223
-221
-218
-214
-210
-209
-204
-194
-189
-191
-189
-181
-174
-173
-171
-168
-165
-163
-159
-152
-146
-142
-139
-134
-131
-130
-126
-119
-114
-110
-106
-105
-106
-105
-104
-102
-98
-97
-102
-104
-103
-99
-96
-97
-103
-97
-73
-54
-45
-25
-5
-16
-43
-64
-72
-62
-59
-75
-46
-22
-92
-92
60
396
1464
3064
3262
1371
-371
-497
-151
-195
-223
-141
-151
-149
-103
-97
-83
-50
-55
-69
-56
-32
-1
43
87
131
182
235
290
352
420
487
548
598
626
633
628
605
546
448
329
203
87
-9
-91
-151
-180
-211
-269
-304
-278
-241
-230
-222
-200
-188
-204
-237
-272
-307
-341
-357
-358
-361
-363
-364
-388
-429
-438
-411
-386
-369
-353
-336
-311
-276
-249
-231
-210
-185
-164
-148
-134
-120
-105
-93
-88
-79
-61
-44
-38
-39
-65
-144
-235
-264
-236
-211
-200
-186
-173
-162
-149
-130
-101
-62
-31
-10
14
32
27
8
-19
-46
-60
-97
-143
-126
-122
-190
-160
-4
426
1707
3190
2841
706
-696
-527
-200
-257
-226
-140
-148
-119
-67
-58
-32
8
12
16
40
61
83
117
154
191
234
288
347
405
466
529
581
612
623
615
589
532
434
305
170
46
-64
-156
-229
-275
-296
-301
-295
-285
-278
-271
-257
-244
-241
-244
-244
-245
-251
-262
-272
-280
-286
-290
-293
-297
-299
-298
-295
-290
-287
-289
-293
-293
-292
-293
-291
-285
-279
-273
-265
-253
-243
-236
-231
-225
-217
-211
-206
-196
-187
-181
-175
-163
-150
-140
-132
-126
-124
-119
-113
-114
-121
-117
-92
-65
-47
-21
9
9
-17
-42
-58
-51
-32
-41
-33
10
-30
-86
14
266
1087
2782
3791
2453
240
-485
-137
-88
-217
-152
-108
-109
-55
-26
-17
33
66
34
-24
-67
-99
-156
-219
-215
-135
-43
35
124
228
330
423
503
562
597
612
606
570
494
391
283
187
105
42
0
-19
-20
-4
22
48
72
91
103
108
112
119
128
137
147
153
161
170
172
168
167
168
171
180
188
184
176
171
164
159
164
170
160
138
114
85
46
8
-20
-48
-91
-147
-213
-291
-398
-547
-715
-873
-1033
-1249
-1566
-1936
-2211
-2333
-2446
-2631
-2729
-2609
-2364
-2116
-1870
-1620
-1396
-1197
-988
-751
-511
-321
-189
-69
50
145
216
278
353
436
476
508
572
564
521
610
845
1613
3266
4373
3199
1014
210
541
610
444
460
493
484
526
565
575
585
584
575
567
561
569
580
565
539
519
507
524
577
649
718
766
795
831
861
850
811
757
667
531
386
258
142
20
-87
-152
-196
-258
-312
-322
-318
-337
-361
-365
-362
-369
-385
-405
-430
-456
-489
-524
-542
-528
-501
-490
-492
-477
-438
-410
-415
-425
-424
-420
-416
-410
-412
-419
-415
-406
-401
-398
-390
-379
-368
-363
-350
-322
-309
-324
-330
-303
-267
-233
-178
-127
-131
-162
-172
-173
-167
-155
-172
-163
-113
-160
-229
-139
88
864
2493
3401
1981
-205
-843
-432
-326
-388
-297
-275
-297
-242
-200
-185
-143
-117
-121
-107
-69
-24
23
66
112
164
217
271
334
403
471
537
604
658
668
640
599
533
424
290
156
35
-64
-148
-214
-256
-273
-269
-256
-262
-282
-278
-250
-225
-213
-204
-196
-193
-199
-195
-179
-183
-205
-213
-215
-223
-227
-236
-256
-243
-207
-205
-224
-215
-192
-196
-213
-208
-177
-155
-161
-166
-147
-126
-118
-113
-96
-65
-33
-27
-42
-49
-57
-87
-98
-90
-94
-62
-44
-136
-155
17
404
1592
3394
3647
1518
-462
-592
-224
-372
-472
-372
-389
-423
-373
-335
-302
-253
-231
-216
-183
-154
-118
-67
-25
18
86
157
219
304
412
506
576
628
642
615
572
511
400
243
89
-36
-141
-228
-293
-338
-362
-370
-378
-389
-381
-355
-331
-315
-298
-277
-257
-247
-236
-205
-166
-159
-179
-178
-153
-147
-158
-153
-140
-135
-130
-138
-171
-187
-171
-162
-169
-162
-149
-153
-168
-179
-187
-185
-176
-165
-154
-140
-114
-80
-65
-89
-132
-151
-126
-106
-135
-127
-83
-149
-210
-91
163
1041
2822
3712
2086
-217
-783
-312
-248
-347
-241
-208
-260
-239
-206
-188
-146
-117
-113
-88
-36
-2
11
50
121
191
244
300
376
472
565
631
677
715
727
710
662
547
375
220
89
-62
-196
-269
-320
-368
-383
-381
-383
-368
-343
-335
-322
-280
-242
-242
-265
-272
-259
-254
-260
-262
-267
-280
-289
-297
-309
-309
-303
-318
-340
-343
-339
-345
-344
-333
-326
-321
-319
-327
-329
-322
-322
-322
-312
-323
-357
-361
-330
-298
-255
-191
-147
-121
-74
-40
-58
-76
-67
-59
-45
-40
-36
14
15
-67
-33
156
781
2472
4169
3493
945
-476
-226
-17
-178
-135
-73
-142
-120
-49
-36
-15
16
26
39
54
73
115
153
166
195
256
315
362
425
506
577
627
660
675
674
650
574
429
263
120
-14
-136
-227
-353
-560
-717
-715
-658
-647
-632
-570
-512
-486
-457
-414
-382
-359
-332
-315
-311
-309
-322
-367
-405
-403
-377
-357
-341
-332
-344
-365
-357
-319
-284
-262
-243
-220
-196
-170
-146
-126
-117
-115
-107
-90
-70
-55
-55
-55
-38
-20
-15
-18
-27
-27
-16
-19
-26
-20
-31
-63
-54
-17
-11
-17
-6
-19
-65
-91
-98
-106
-86
-68
-94
-66
3
-58
-120
1
315
1430
3469
4274
2338
-40
-509
-98
-161
-274
-162
-157
-197
-144
-107
-109
-102
-99
-93
-77
-73
-65
-30
8
30
54
100
169
253
339
410
466
520
569
593
587
550
471
347
201
64
-45
-140
-236
-307
-329
-325
-310
-285
-267
-262
-242
-215
-214
-222
-213
-203
-206
-209
-213
-223
-221
-209
-211
-222
-217
-205
-194
-181
-172
-170
-160
-149
-156
-159
-143
-133
-137
-135
-139
-157
-164
-153
-149
-154
-151
-139
-134
-137
-137
-130
-124
-125
-129
-122
-107
-107
-128
-164
-234
-318
-338
-289
-249
-240
-226
-209
-209
-215
-223
-242
-249
-230
-216
-213
-182
-143
-150
-179
-174
-160
-159
-140
-131
-135
-88
-87
-178
-147
43
638
2266
3940
3317
815
-621
-378
-128
-259
-223
-158
-203
-174
-116
-113
-95
-64
-63
-61
-39
-13
14
44
77
114
152
192
244
306
368
427
480
519
546
563
557
512
425
307
174
45
-63
-152
-222
-268
-284
-285
-283
-273
-258
-245
-232
-217
-208
-211
-209
-198
-188
-183
-179
-180
-187
-193
-194
-187
-176
-169
-164
-153
-134
-119
-107
-93
-69
-40
-16
-7
-14
-33
-62
-90
-105
-99
-82
-66
-50
-34
-19
-3
4
-3
