# session 2
5279
5693
4163
5590
11594
15422
13954
11799
11405
11207
10958
11354
12859
16154
20198
22531
22651
21945
21246
21050
22924
27959
33844
36736
36326
35306
34763
34064
33308
32759
32095
31453
31031
30344
29653
29542
28440
24377
18131
11608
5616
486
-3058
-4527
-5679
-8845
-12782
-16085
-19395
-20551
-20197
-22541
-17935
5283
31145
38782
34176
28240
20075
11891
6465
-275
-7385
-10007
-10714
-9353
1656
16082
15727
860
-13023
-22615
-31900
-37174
-36371
-34468
-33661
-32430
-30995
-29963
-28827
-27603
-26568
-25529
-24452
-23468
-22510
-21545
-20628
-19747
-18884
-18053
-17246
-16464
-15711
-14982
-14277
-13597
-12940
-12309
-11708
-11123
-10554
-10013
-9499
-9000
-8514
-8053
-7617
-7192
-6784
-6406
-6041
-5684
-5353
-5023
-4688
-4391
-3979
-3114
-1783
-368
877
1982
2965
3783
4473
5067
5472
5603
5580
5639
5830
5992
6040
6069
6160
6328
6624
7039
7449
7812
8177
8514
8873
9440
10147
10733
11249
11854
12329
12549
12862
13457
14034
14369
14593
14841
15032
14958
14476
13740
13144
12821
12397
11540
10430
9461
8752
8096
7276
6305
5349
4492
3809
3684
4365
4963
4189
2312
722
-153
-754
-1262
-1799
-2460
-2843
-2656
-2233
-1863
-1499
-1191
-1040
-939
-781
-616
-496
-402
-332
-291
-260
-229
-210
-207
-210
-231
-289
-375
-476
-602
-767
-956
-1140
-1314
-1488
-1664
-1830
-1980
-2110
-2220
-2316
-2412
-2515
-2622
-2715
-2782
-2831
-2878
-2927
-2979
-3033
-3077
-3105
-3131
-3162
-3188
-3209
-3230
-3246
-3250
-3247
-3241
-3225
-3195
-3154
-3102
-3061
-3045
-3022
-2963
-2905
-2874
-2843
-2804
-2765
-2710
-2648
-2588
-2499
-2417
-2354
-2199
-1963
-1565
-606
507
378
-1056
-2112
-2071
-1774
-1671
-1552
-1443
-1408
-1339
-1244
-1178
-1102
-1010
-934
-861
-780
-703
-628
-548
-461
-367
-267
-168
-74
12
93
163
211
244
276
296
290
264
237
214
198
190
187
195
226
277
333
385
438
492
532
551
571
607
651
691
722
747
769
788
803
818
842
873
897
908
913
920
935
956
973
970
955
958
985
1008
1027
1063
1107
1131
1132
1117
1105
1119
1126
1119
1150
1168
1127
1167
1325
1659
2595
3798
3735
2143
835
749
992
1002
1020
1051
1022
1026
1043
1024
1016
998
928
843
759
670
600
564
557
585
628
659
680
687
673
652
635
608
553
472
381
296
208
114
30
-44
-125
-213
-291
-349
-379
-382
-382
-390
-386
-361
-337
-331
-345
-369
-381
-374
-361
-353
-349
-345
-349
-364
-388
-415
-439
-461
-506
-589
-679
-743
-809
-916
-1042
-1147
-1215
-1238
-1231
-1233
-1237
-1196
-1132
-1125
-1185
-1229
-1218
-1195
-1161
-1100
-1079
-1105
-1085
-1043
-998
-833
-580
-137
883
1917
1570
46
-934
-936
-845
-903
-858
-774
-704
-591
-507
-490
-513
-589
-693
-784
-869
-931
-949
-962
-976
-949
-874
-774
-658
-555
-483
-414
-330
-247
-169
-101
-61
-46
-25
1
12
20
51
101
156
223
303
380
456
546
639
706
749
787
814
830
846
861
868
870
864
849
838
834
831
826
816
806
797
781
759
736
714
688
658
632
609
587
562
538
515
490
471
459
436
410
400
391
355
302
249
207
191
169
129
125
122
58
65
186
407
1131
2281
2468
1072
-364
-628
-381
-314
-278
-214
-220
-214
-182
-182
-177
-146
-134
-135
-119
-101
-96
-84
-58
-30
-6
23
62
100
121
120
107
92
69
28
-26
-89
-172
-267
-343
-403
-459
-499
-515
-523
-532
-532
-516
-496
-480
-471
-466
-462
-455
-449
-454
-458
-454
-457
-464
-452
-437
-445
-456
-446
-430
-421
-418
-415
-404
-386
-374
-364
-348
-336
-327
-315
-305
-296
-275
-254
-244
-225
-194
-178
-184
-205
-219
-201
-183
-189
-163
-127
-158
-134
15
270
1032
2300
2654
1284
-270
-583
-280
-187
-159
-80
-66
-53
-13
-6
-1
24
36
52
93
130
156
186
220
249
271
297
336
367
366
351
348
341
314
276
227
162
84
6
-62
-114
-155
-184
-192
-188
-203
-237
-250
-226
-198
-182
-160
-136
-132
-137
-128
-115
-108
-105
-102
-100
-100
-102
-101
-91
-82
-77
-72
-68
-68
-67
-59
-52
-45
-36
-27
-20
-9
4
13
21
23
20
37
70
86
99
134
151
125
100
92
89
102
113
118
148
143
104
178
359
795
1928
3100
2678
877
-265
-179
45
28
72
120
101
115
134
122
118
101
66
64
81
80
76
91
117
137
147
168
205
228
213
174
132
93
42
-46
-152
-237
-312
-411
-514
-590
-648
-691
-703
-680
-653
-643
-636
-600
-542
-500
-477
-444
-409
-398
-395
-379
-364
-360
-358
-357
-365
-374
-374
-372
-380
-394
-403
-403
-396
-396
-407
-408
-387
-379
-393
-391
-368
-356
-351
-329
-302
-275
-247
-234
-230
-206
-168
-147
-137
-113
-77
-53
-36
-2
37
43
27
19
21
37
64
72
93
142
127
107
213
430
1050
2308
3066
2068
345
-312
-75
56
52
127
152
139
176
206
214
238
257
258
266
279
287
300
320
344
379
424
464
498
533
560
566
558
535
496
444
374
286
190
101
27
-31
-87
-137
-161
-162
-168
-179
-178
-168
-162
-160
-158
-161
-171
-173
-167
-172
-190
-206
-217
-228
-239
-250
-256
-256
-259
-264
-263
-263
-267
-267
-268
-268
-262
-261
-269
-265
-252
-253
-261
-259
-251
-245
-243
-244
-242
-241
-249
-252
-238
-227
-224
-209
-182
-173
-187
-208
-216
-200
-193
-204
-181
-164
-207
-173
-32
190
943
2204
2495
1065
-467
-730
-418
-321
-270
-173
-157
-142
-96
-88
-81
-42
-16
-1
27
58
81
108
140
175
221
271
315
353
384
402
405
392
364
327
275
199
113
33
-40
-105
-156
-193
-215
-221
-221
-219
-206
-191
-189
-182
-159
-146
-151
-152
-147
-156
-172
-183
-190
-198
-205
-210
-213
-216
-218
-215
-207
-200
-195
-190
-185
-180
-174
-164
-159
-158
-154
-148
-146
-141
-135
-134
-129
-117
-114
-122
-117
-99
-87
-78
-55
-28
-22
-36
-62
-79
-62
-44
-56
-39
-20
-64
-41
107
398
1297
2669
2894
1311
-252
-462
-168
-136
-116
-41
-53
-54
-20
-21
-13
27
48
60
90
121
143
169
202
238
281
328
369
392
396
399
409
409
385
345
287
209
116
24
-50
-112
-176
-232
-262
-265
-258
-255
-252
-232
-204
-186
-170
-149
-140
-144
-149
-156
-170
-179
-184
-193
-210
-224
-223
-213
-207
-205
-205
-211
-222
-229
-226
-220
-218
-225
-234
-236
-233
-228
-219
-215
-219
-223
-228
-233
-227
-212
-196
-176
-154
-140
-137
-153
-172
-170
-158
-160
-150
-115
-98
-116
-135
-147
-144
-121
-112
-99
-58
-70
-106
-19
189
760
2001
2909
2048
222
-604
-385
-219
-233
-158
-122
-143
-105
-63
-49
-17
13
17
20
27
39
62
90
125
168
206
241
282
323
349
365
369
361
345
308
239
153
68
-13
-84
-135
-168
-191
-200
-193
-178
-163
-152
-145
-136
-123
-112
-114
-124
-133
-142
-153
-159
-162
-169
-177
-180
-183
-192
-196
-191
-188
-193
-195
-192
-193
-194
-194
-196
-197
-193
-190
-190
-189
-185
-180
-181
-181
-173
-164
-165
-169
-158
-142
-138
-137
-118
-92
-85
-102
-126
-126
-105
-109
-113
-77
-85
-114
-24
148
599
1713
2652
1963
243
-612
-430
-241
-224
-141
-100
-110
-71
-42
-47
-24
12
29
44
63
85
108
127
146
179
232
290
340
384
423
443
444
431
403
356
291
211
127
48
-17
-69
-111
-142
-156
-154
-146
-137
-127
-112
-91
-73
-62
-53
-43
-35
-32
-40
-52
-62
-72
-83
-90
-92
-88
-80
-74
-71
-66
-59
-57
-58
-58
-62
-76
-94
-103
-108
-116
-121
-128
-144
-153
-146
-139
-134
-117
-97
-96
-115
-142
-154
-144
-144
-154
-128
-129
-184
-137
24
354
1301
2498
2363
701
-588
-612
-356
-378
-390
-359
-370
-348
-323
-340
-332
-307
-319
-338
-342
-346
-353
-360
-374
-379
-359
-318
-260
-191
-129
-82
-43
-9
13
16
-3
-47
-106
-157
-196
-232
-262
-272
-267
-252
-223
-188
-159
-128
-91
-55
-27
0
26
44
60
79
92
99
108
109
99
91
96
105
113
117
115
109
106
109
114
112
111
119
126
119
110
112
117
112
103
102
103
91
76
79
92
92
85
95
119
127
107
74
56
70
74
49
60
77
28
41
169
389
1149
2440
2767
1332
-248
-566
-294
-213
-164
-80
-83
-75
-29
-30
-35
-6
10
7
21
46
63
83
112
143
177
219
264
303
338
362
361
341
315
272
204
117
20
-79
-166
-242
-307
-352
-381
-401
-405
-396
-389
-382
-366
-355
-347
-335
-329
-335
-337
-337
-347
-360
-367
-373
-380
-381
-381
-384
-383
-376
-372
-374
-370
-356
-344
-342
-340
-331
-320
-318
-316
-304
-290
-286
-286
-283
-272
-262
-262
-261
-249
-242
-248
-242
-219
-204
-200
-178
-142
-126
-138
-161
-174
-159
-140
-148
-137
-108
-137
-133
-4
223
945
2313
2937
1673
-77
-575
-282
-177
-164
-74
-56
-55
-6
15
18
46
76
98
128
160
189
221
256
290
327
376
432
484
529
563
570
559
549
532
487
418
332
236
145
71
16
-24
-50
-58
-49
-34
-20
-2
18
30
34
44
60
67
58
55
66
76
70
56
47
48
48
37
24
17
13
9
11
11
5
2
6
6
1
7
30
50
47
36
30
19
-4
-34
-64
-86
-95
-99
-94
-72
-59
-71
-79
-73
-80
-106
-123
-127
-139
-163
-177
-168
-149
-145
-156
-166
-165
-172
-206
-250
-280
-290
-297
-329
-357
-355
-406
-493
-440
-249
206
1323
2437
1996
257
-837
-789
-628
-668
-610
-519
-482
-418
-364
-340
-296
-271
-305
-340
-328
-293
-274
-286
-295
-275
-267
-292
-294
-255
-212
-174
-142
-142
-178
-214
-233
-239
-246
-265
-281
-273
-249
-222
-186
-136
-79
-22
34
85
126
160
197
231
257
285
309
317
322
339
350
342
331
332
335
329
321
316
309
299
294
296
289
276
273
276
269
261
262
261
247
232
220
206
191
180
170
161
150
135
122
107
93
87
87
81
71
63
54
41
29
22
14
-4
-28
-41
-37
-34
-46
-50
-32
-24
-45
-74
-104
-123
-116
-123
-145
-130
-135
-173
-106
47
422
1469
2571
2144
385
-736
-655
-409
-383
-318
-263
-266
-234
-203
-207
-193
-168
-153
-129
-103
-84
-60
-33
-8
25
65
106
149
195
237
268
277
259
230
200
147
57
-41
-132
-220
-293
-344
-386
-414
-416
-415
-419
-411
-393
-375
-352
-331
-322
-310
-288
-276
-284
-291
-279
-266
-270
-277
-270
-261
-263
-266
-255
-238
-230
-227
-218
-210
-205
-198
-191
-183
-171
-160
-157
-158
-154
-146
-140
-133
-124
-114
-103
-92
-83
-80
-79
-69
-61
-67
-66
-47
-32
-31
-18
15
39
37
23
2
-6
14
23
20
44
34
-2
80
251
666
1806
3002
2565
718
-437
-323
-71
-79
-31
23
5
24
47
34
48
82
99
121
156
182
205
238
270
306
353
400
446
493
532
553
556
543
510
458
382
283
174
78
-2
-76
-140
-180
-204
-224
-233
-229
-224
-218
-205
-195
-197
-195
-185
-178
-179
-175
-172
-189
-207
-202
-197
-206
-211
-211
-217
-218
-210
-208
-210
-205
-196
-194
-198
-197
-194
-193
-188
-178
-172
-165
-159
-157
-158
-162
-163
-151
-140
-140
-136
-124
-121
-123
-117
-106
-95
-86
-87
-90
-96
-116
-132
-119
-102
-106
-101
-70
-53
-72
-106
-133
-132
-114
-126
-139
-121
-154
-202
-117
88
657
1916
2846
1970
94
-763
-546
-393
-431
-371
-349
-401
-399
-375
-360
-336
-352
-418
-459
-453
-448
-466
-480
-466
-430
-390
-354
-331
-319
-314
-322
-339
-336
-319
-329
-379
-447
-520
-601
-675
-721
-745
-766
-771
-733
-665
-592
-513
-425
-342
-267
-193
-122
-55
14
82
147
210
272
327
377
421
461
507
554
588
621
667
708
737
769
800
821
845
873
892
909
934
953
963
983
1006
1020
1031
1045
1053
1058
1069
1077
1071
1064
1069
1072
1056
1038
1036
1032
1012
993
985
971
949
933
916
889
855
831
819
801
781
777
772
743
693
631
581
562
532
487
474
433
347
374
513
871
1880
2959
2525
720
-479
-458
-252
-265
-239
-232
-297
-326
-349
-404
-436
-457
-496
-530
-559
-590
-614
-635
-665
-692
-707
-714
-713
-709
-721
-749
-786
-837
-907
-998
-1117
-1257
-1400
-1541
-1678
-1805
-1922
-2020
-2086
-2136
-2185
-2226
-2252
-2276
-2302
-2320
-2335
-2353
-2372
-2394
-2418
-2443
-2468
-2490
-2513
-2538
-2554
-2561
-2573
-2587
-2584
-2576
-2574
-2567
-2552
-2538
-2519
-2496
-2477
-2456
-2421
-2383
-2354
-2325
-2278
-2223
-2177
-2139
-2089
-2023
-1958
-1900
-1835
-1759
-1687
-1619
-1542
-1455
-1375
-1298
-1211
-1118
-1035
-953
-851
-738
-637
-540
-425
-299
-185
-93
-9
102
233
343
462
610
713
817
1042
1345
1992
3333
4368
3651
1971
1280
1639
1964
2106
2318
2486
2602
2765
2914
3032
3175
3318
3447
3593
3746
3882
4019
4163
4302
4441
4591
4743
4888
5026
5153
5259
5342
5408
5458
5488
5490
5460
5413
5369
5328
5291
5276
5282
5286
5290
5310
5332
5342
5351
5359
5357
5352
5343
5318
5282
5238
5186
5138
5087
5002
4903
4826
4748
4646
4538
4424
4285
4139
3995
3820
3587
3317
3065
2873
2731
2610
2488
2327
2128
1937
1757
1579
1411
1219
999
843
750
627
495
382
180
-100
-261
-319
-505
-765
-827
-732
-706
-754
-809
-862
-801
-620
-562
-690
-793
-806
-804
-764
-716
-902
-1432
-2004
-2485
-3059
-3317
-2903
-2578
-3140
-5338
-8737
-9399
-7989
-14980
-31884
-43322
-42552
-39663
-39611
-38717
-37114
-36426
-35481
-34192
-33227
-32155
-31112
-30182
-28943
-28021
-27211
-25599
-24783
-24462
-22026
-21172
-22742
-16483
-4926
-5400
-15281
-17763
-13573
-11438
-11642
-11892
-9406
-4218
1831
16647
42944
62092
63427
60071
60672
61197
59491
53384
40174
24899
15016
11466
11458
12772
14024
14930
15808
16370
16190
15639
15153
14271
12796
11988
12951
14970
16771
18085
