# session 9
-12
20
-48
20
316
517
449
314
228
124
13
-67
-135
-184
-200
-204
-200
-179
-156
-138
-120
-97
-75
-64
-62
-63
-67
-82
-95
-92
-83
-83
-92
-103
-113
-121
-126
-134
-144
-149
-144
-135
-129
-126
-123
-121
-119
-114
-109
-107
-108
-108
-104
-98
-94
-95
-93
-85
-77
-73
-69
-61
-52
-45
-38
-32
-27
-25
-23
-19
-12
-8
-20
-28
-9
22
39
54
77
85
66
37
10
2
19
14
2
34
20
-50
-2
182
736
2131
3423
2756
674
-438
-235
-72
-202
-185
-132
-159
-142
-111
-109
-90
-78
-96
-112
-117
-114
-107
-108
-105
-74
-26
20
68
120
164
201
238
263
268
262
245
201
122
26
-66
-147
-220
-291
-347
-372
-373
-367
-354
-336
-319
-302
-282
-264
-252
-243
-237
-234
-231
-223
-214
-210
-209
-208
-207
-206
-203
-197
-195
-195
-192
-187
-188
-188
-185
-181
-177
-167
-150
-133
-123
-119
-117
-113
-107
-98
-91
-84
-77
-68
-61
-60
-59
-52
-43
-42
-46
-42
-35
-36
-37
-28
-15
-10
-7
0
4
-5
-14
-7
7
14
30
61
75
60
36
11
4
20
12
-4
19
0
-63
-11
171
734
2091
3240
2456
428
-558
-297
-110
-210
-186
-136
-156
-139
-112
-106
-92
-86
-91
-73
-38
-2
42
87
126
167
215
269
323
384
449
505
545
568
571
558
534
487
405
300
198
104
14
-62
-112
-142
-155
-149
-136
-127
-114
-93
-80
-81
-82
-78
-82
-96
-108
-123
-143
-150
-157
-225
-366
-508
-601
-646
-660
-679
-734
-805
-860
-904
-948
-986
-989
-936
-846
-758
-685
-614
-551
-509
-475
-427
-369
-314
-261
-209
-161
-112
-67
-29
6
41
74
101
123
138
143
140
145
159
170
180
204
224
217
198
177
156
161
176
167
185
213
149
116
235
547
1574
3267
3757
2013
86
-235
87
4
-110
-47
-43
-59
-35
-39
-38
-16
-32
-70
-88
-93
-87
-70
-55
-34
11
73
143
220
302
377
440
486
513
525
522
495
433
337
226
122
29
-54
-124
-175
-215
-247
-267
-270
-266
-273
-290
-299
-295
-284
-274
-283
-314
-352
-382
-399
-400
-390
-377
-361
-347
-336
-325
-313
-300
-283
-268
-262
-262
-265
-270
-271
-271
-271
-260
-241
-227
-220
-211
-200
-195
-190
-183
-176
-171
-171
-177
-183
-179
-173
-166
-155
-146
-143
-141
-133
-125
-121
-123
-134
-135
-115
-89
-74
-55
-25
-11
-29
-57
-78
-74
-56
-60
-49
-9
-46
-102
-13
212
912
2422
3447
2373
338
-440
-150
-73
-193
-146
-108
-124
-97
-86
-91
-58
-42
-74
-104
-111
-112
-118
-122
-100
-48
10
66
130
202
269
329
377
407
420
425
414
373
305
223
134
50
-22
-81
-125
-145
-142
-129
-114
-99
-84
-73
-57
-36
-21
-16
-14
-14
-15
-9
-2
-3
-7
-8
-10
-18
-24
-20
-15
-18
-23
-17
-7
-5
-8
-9
-10
-10
-8
-6
-7
-7
-3
-2
-5
-5
-6
-7
-4
-1
-2
-2
-1
-3
-10
-18
-21
-23
-33
-48
-52
-48
-49
-57
-68
-76
-80
-92
-115
-130
-121
-107
-105
-98
-83
-85
-111
-146
-178
-186
-184
-207
-212
-191
-240
-288
-205
6
741
2225
3025
1744
-224
-828
-488
-412
-508
-456
-426
-438
-411
-397
-398
-382
-377
-388
-388
-374
-350
-320
-293
-263
-220
-167
-110
-51
5
59
109
146
160
157
142
111
52
-38
-144
-250
-348
-432
-499
-545
-565
-561
-545
-526
-512
-499
-477
-453
-444
-440
-429
-421
-421
-417
-407
-404
-403
-395
-382
-367
-352
-337
-316
-294
-279
-268
-249
-226
-202
-174
-146
-121
-94
-63
-32
-5
20
44
74
105
134
169
208
242
274
311
351
387
422
457
487
516
548
581
609
631
652
670
682
692
700
697
696
728
791
854
909
968
1018
1044
1054
1058
1080
1130
1165
1201
1282
1309
1280
1378
1624
2258
3732
5064
4406
2349
1293
1549
1742
1636
1695
1804
1813
1816
1784
1653
1415
1058
675
391
170
-99
-460
-854
-1144
-1274
-1340
-1389
-1405
-1458
-1538
-1528
-1505
-1593
-1696
-1798
-2061
-2432
-2630
-2592
-2598
-2883
-3299
-3555
-3636
-3664
-3632
-3560
-3562
-3583
-3441
-3167
-2954
-2860
-2806
-2740
-2756
-2994
-3323
-3394
-3131
-2756
-2379
-1983
-1604
-1263
-937
-638
-380
-141
85
292
480
654
814
957
1074
1167
1247
1317
1379
1439
1497
1548
1591
1629
1666
1704
1739
1766
1783
1796
1801
1794
1776
1755
1725
1678
1619
1555
1482
1401
1324
1263
1215
1167
1115
1066
1012
952
895
856
838
834
833
832
832
826
799
750
706
691
681
645
632
643
596
556
629
816
1420
2559
3111
2101
613
93
203
123
-42
-59
-43
-47
-59
-109
-166
-197
-236
-294
-342
-363
-360
-343
-319
-299
-286
-269
-239
-208
-191
-178
-156
-142
-150
-168
-190
-232
-297
-377
-471
-575
-664
-731
-788
-828
-843
-846
-837
-807
-777
-762
-741
-704
-671
-649
-629
-612
-604
-605
-604
-595
-583
-577
-572
-562
-555
-559
-561
-550
-533
-517
-499
-483
-472
-458
-440
-426
-414
-398
-384
-370
-352
-339
-335
-325
-310
-296
-283
-269
-258
-245
-225
-209
-197
-181
-167
-159
-152
-140
-124
-109
-98
-91
-91
-89
-70
-40
-17
5
37
61
59
40
25
34
50
41
53
89
56
29
129
365
1135
2617
3373
2096
196
-372
-37
56
-5
61
94
87
121
141
148
175
191
193
208
231
255
284
317
353
398
450
505
562
622
678
723
753
766
756
723
677
613
521
411
302
203
111
28
-41
-84
-101
-105
-105
-96
-91
-92
-84
-90
-105
-92
-158
-413
-651
-634
-504
-472
-489
-467
-436
-417
-403
-396
-386
-369
-353
-340
-325
-311
-302
-298
-298
-293
-291
-303
-312
-298
-280
-277
-279
-276
-270
-259
-241
-226
-211
-192
-176
-164
-150
-137
-132
-128
-123
-127
-129
-106
-73
-52
-26
19
49
39
9
-14
-5
8
-11
-4
36
-5
-51
47
314
1157
2727
3499
2157
220
-329
-24
-17
-136
-85
-63
-84
-63
-60
-76
-62
-53
-99
-186
-263
-309
-345
-358
-324
-266
-207
-135
-59
4
67
139
195
223
234
234
212
151
65
-17
-83
-145
-204
-243
-260
-265
-266
-258
-233
-199
-172
-155
-137
-114
-98
-96
-99
-100
-106
-113
-116
-113
-109
-108
-112
-112
-102
-92
-91
-90
-87
-89
-92
-90
-90
-95
-98
-95
-93
-96
-98
-94
-90
-89
-84
-76
-69
-68
-64
-56
-50
-46
-42
-41
-41
-33
-19
-9
-9
-17
-30
-42
-48
-43
-27
-12
-12
-21
-22
-8
7
16
35
62
67
44
11
-13
-10
-1
-22
-19
15
-30
-82
11
254
1024
2499
3253
1990
124
-429
-150
-149
-258
-200
-179
-200
-173
-163
-166
-140
-132
-154
-157
-134
-107
-82
-53
-16
29
81
141
201
256
307
356
399
428
438
427
399
350
273
174
74
-20
-111
-187
-235
-267
-294
-301
-283
-266
-265
-262
-252
-247
-250
-255
-261
-265
-270
-280
-287
-282
-278
-286
-295
-296
-291
-286
-284
-283
-280
-274
-271
-271
-268
-259
-254
-251
-247
-238
-230
-222
-215
-209
-200
-188
-177
-167
-159
-154
-148
-138
-122
-106
-96
-90
-82
-72
-64
-57
-52
-48
-40
-38
-47
-52
-34
-6
13
32
56
71
63
43
23
25
45
40
38
75
58
-1
65
253
820
2204
3398
2646
615
-396
-157
13
-104
-89
-37
-49
-28
-4
-4
10
18
1
-8
-7
-12
-16
-3
25
58
101
161
222
273
323
373
408
420
418
407
382
332
252
155
59
-28
-109
-181
-234
-267
-288
-289
-267
-247
-241
-226
-194
-172
-178
-204
-233
-250
-259
-273
-283
-281
-279
-286
-290
-288
-291
-291
-283
-271
-264
-264
-272
-284
-289
-281
-273
-273
-276
-277
-270
-257
-242
-226
-210
-194
-180
-169
-158
-140
-120
-108
-102
-93
-82
-75
-71
-63
-59
-61
-62
-54
-45
-45
-54
-62
-65
-71
-79
-75
-54
-33
-19
0
16
11
-8
-31
-43
-26
-11
-19
8
26
-42
-44
106
479
1562
3046
3128
1341
-200
-288
-34
-146
-206
-144
-159
-159
-119
-115
-104
-74
-80
-108
-123
-126
-120
-103
-84
-62
-23
27
75
120
167
218
265
300
316
323
319
293
241
174
95
14
-59
-122
-174
-208
-224
-228
-220
-200
-178
-162
-151
-142
-129
-115
-111
-117
-121
-117
-114
-115
-115
-114
-109
-109
-113
-112
-102
-101
-104
-98
-90
-90
-87
-80
-76
-72
-66
-64
-68
-64
-56
-50
-44
-38
-37
-36
-31
-30
-35
-32
-22
-19
-20
-16
-13
-14
-13
-12
-14
-16
-16
-19
-23
-24
-23
-24
-33
-46
-56
-54
-43
-34
-30
-19
-10
-20
-51
-85
-99
-91
-95
-100
-71
-84
-147
-101
65
538
1812
3131
2654
640
-590
-433
-193
-284
-279
-219
-234
-219
-190
-193
-180
-165
-173
-169
-147
-123
-90
-51
-16
29
88
146
203
267
332
385
426
455
469
460
430
376
289
173
48
-70
-172
-257
-330
-381
-401
-397
-392
-390
-382
-365
-347
-338
-336
-335
-334
-336
-342
-359
-393
-428
-446
-446
-443
-440
-435
-423
-409
-402
-400
-393
-383
-378
-373
-360
-347
-341
-336
-325
-315
-308
-301
-293
-282
-269
-259
-255
-250
-237
-218
-197
-179
-165
-155
-147
-134
-119
-108
-97
-84
-77
-75
-69
-59
-54
-61
-65
-46
-10
22
47
82
108
107
94
81
87
120
133
129
172
188
132
177
374
911
2274
3677
3221
1178
-62
90
287
147
137
201
186
188
190
166
184
215
207
191
180
154
134
148
180
219
284
374
459
534
610
682
742
794
828
836
825
789
714
613
520
446
378
312
258
226
214
211
218
242
267
278
284
297
306
304
297
288
273
253
236
226
216
198
176
158
141
122
103
88
73
54
32
9
-18
-49
-74
-94
-122
-156
-183
-205
-232
-264
-292
-316
-341
-369
-397
-423
-449
-479
-516
-552
-578
-602
-629
-656
-684
-714
-743
-770
-801
-837
-871
-898
-920
-947
-982
-1016
-1045
-1067
-1092
-1124
-1162
-1202
-1227
-1234
-1241
-1256
-1262
-1267
-1294
-1336
-1378
-1406
-1406
-1417
-1446
-1425
-1417
-1497
-1502
-1358
-990
110
1582
1587
-251
-1754
-1786
-1509
-1600
-1627
-1539
-1535
-1519
-1466
-1444
-1409
-1354
-1329
-1310
-1255
-1187
-1123
-1053
-974
-884
-779
-664
-551
-437
-325
-216
-105
-1
82
150
214
254
260
245
221
193
173
172
192
232
294
380
484
596
708
819
931
1045
1156
1260
1362
1468
1577
1684
1788
1895
2009
2124
2237
2350
2463
2579
2699
2821
2943
3067
3192
3313
3430
3552
3683
3809
3927
4050
4177
4298
4416
4535
4647
4757
4874
4992
5102
5210
5320
5425
5524
5622
5726
5830
5924
6009
6092
6176
6262
6351
6438
6522
6603
6675
6738
6777
6754
6653
6452
6140
5818
5532
5084
4357
3623
3098
2451
1416
675
721
48
-2841
-6530
-9294
-12041
-15235
-17179
-17353
-16690
-15251
-13336
-11988
-11036
-9802
-8393
-7046
-6249
-5767
-4648
-5711
-12846
-21605
-24443
-22802
-21965
-21845
-21022
-20362
-19994
-19343
-18724
-18133
-17066
-15644
-14226
-12791
-11320
-9908
-8532
-7186
-5958
-4754
-3289
-1514
329
2145
4030
5937
7679
9146
10282
11101
11717
12204
12540
12736
12838
12845
12755
12611
12441
12239
12000
11734
11451
11161
10865
10558
10252
9948
9634
9302
8966
8637
8316
8004
7694
7379
7063
6754
6455
6159
5861
5562
5269
4987
4711
4440
4179
3922
3668
3418
3169
2919
2671
2429
2191
1961
1735
1512
1301
1101
903
708
519
331
155
-8
-170
-336
-496
-655
-813
-945
-1056
-1167
-1274
-1363
-1461
-1583
-1711
-1829
-1924
-1999
-2087
-2161
-2206
-2301
-2409
-2402
-2261
-1674
-397
445
-486
-2245
-2984
-2819
-2794
-2928
-2923
-2904
-2925
-2916
-2906
-2894
-2843
-2799
-2802
-2816
-2798
-2748
-2697
-2657
-2611
-2532
-2418
-2292
-2176
-2070
-1966
-1868
-1785
-1723
-1683
-1666
-1670
-1692
-1724
-1762
-1805
-1842
-1871
-1905
-1930
-1921
-1883
-1827
-1734
-1612
-1503
-1414
-1321
-1224
-1131
-1046
-966
-889
-815
-743
-667
-585
-508
-439
-374
-310
-243
-173
-104
-38
26
90
148
203
258
313
366
413
455
501
553
603
643
678
715
750
779
811
844
869
891
917
939
954
973
994
1008
1016
1018
1024
1040
1063
1077
1086
1099
1106
1092
1057
1025
1022
1018
988
992
1000
923
874
963
1220
2072
3456
3824
2360
761
467
702
629
525
548
532
514
516
485
468
482
460
401
356
338
333
326
316
320
345
380
415
448
478
505
529
542
539
526
502
454
375
275
166
55
-47
-137
-215
-275
-315
-341
-350
-344
-340
-350
-361
-361
-359
-364
-378
-391
-400
-413
-430
-440
-446
-455
-469
-481
-486
-488
-491
-498
-503
-503
-504
-507
-511
-513
-515
-524
-529
-525
-523
-527
-523
-514
-509
-503
-492
-484
-480
-481
-485
-477
-450
-425
-408
-383
-357
-353
-369
-394
-398
-372
-363
-369
-331
-319
-369
-329
-165
277
1437
2664
2297
524
-587
-471
-275
-369
-370
-310
-316
-304
-282
-279
-249
-213
-216
-232
-228
-201
-161
-123
-88
-42
18
79
144
212
277
335
382
418
442
450
435
398
335
247
152
65
-13
-78
-120
-139
-144
-135
-113
-91
-83
-75
-51
-24
-12
-11
-13
-11
-8
-8
-12
-9
-3
-4
-12
-12
-8
-7
-6
-4
-3
-1
2
4
3
4
4
5
5
3
4
13
18
14
14
17
15
12
12
11
6
3
0
-4
-6
-8
-18
-32
-34
-22
-5
9
22
27
19
0
-24
-48
-50
-50
-70
-61
-35
-88
-121
-25
216
1035
2471
2982
1555
-169
-532
-222
-213
-287
-241
-237
-241
-211
-218
-224
-196
-192
-215
-221
-207
-191
-173
-143
-102
-54
-3
55
120
179
231
280
316
334
336
324
296
240
152
47
-50
-136
-209
-265
-303
-324
-318
-295
-280
-275
-263
-240
-218
-212
-218
-218
-211
-212
-217
-215
-213
-206
-192
-197
-195
-145
