# session 3
-688
-481
-972
-492
1724
3472
3419
2963
3000
2967
2789
2754
2706
2591
2544
2501
2410
2341
2291
2237
2201
2175
2134
2095
2073
2069
2078
2092
2107
2128
2151
2158
2148
2147
2167
2186
2204
2229
2252
2291
2292
2020
1472
1116
1238
1510
1628
1655
1564
1338
1276
1486
2062
3509
5083
4542
1965
367
717
904
157
-201
182
651
1166
1451
600
-903
-1348
-622
-131
-185
104
941
1489
1216
652
411
364
433
876
1497
1913
2254
2725
3166
3310
3118
2859
2745
2642
2522
2677
3130
3543
3738
3781
3825
4027
4371
4781
5263
5501
5133
4488
3825
2623
561
-1731
-2883
-2819
-5085
-12366
-20296
-23137
-21887
-20056
-18184
-16228
-14714
-13186
-11201
-9150
-7260
-5504
-4024
-2823
-1645
-378
760
1579
2258
3060
3952
4760
5355
5661
5754
5825
5947
6121
6375
6616
6732
6775
6758
6620
6359
5729
4351
2468
584
-1327
-3036
-3921
-4704
-6859
-9996
-12418
-13519
-13643
-13007
-11869
-10637
-9428
-8098
-6733
-5606
-4645
-3604
-2647
-2021
-1539
-923
-164
755
1864
2830
3239
3291
3517
3851
3754
3209
2809
2905
3250
3490
3619
3818
4035
3952
3429
2781
2445
2498
2712
2935
3195
3488
3736
3886
3945
3968
4003
4030
4014
3984
3959
3900
3799
3701
3620
3534
3445
3357
3266
3177
3079
2952
2820
2717
2627
2522
2415
2325
2233
2117
1989
1865
1744
1619
1492
1356
1200
1031
866
708
546
386
247
134
37
-60
-164
-279
-397
-504
-599
-693
-781
-847
-897
-948
-1000
-1046
-1096
-1159
-1230
-1297
-1358
-1414
-1462
-1501
-1533
-1558
-1573
-1588
-1609
-1628
-1634
-1632
-1636
-1651
-1667
-1675
-1676
-1666
-1648
-1633
-1623
-1606
-1588
-1581
-1570
-1551
-1534
-1504
-1466
-1457
-1435
-1363
-1252
-937
-345
-30
-451
-1070
-1231
-1129
-1134
-1194
-1219
-1242
-1254
-1255
-1271
-1289
-1319
-1394
-1487
-1550
-1570
-1558
-1512
-1429
-1330
-1237
-1140
-1035
-938
-854
-765
-659
-547
-445
-367
-311
-266
-230
-191
-136
-83
-28
58
167
272
392
529
643
735
820
882
920
961
1000
1028
1065
1109
1129
1129
1133
1133
1128
1130
1130
1113
1096
1094
1093
1085
1075
1057
1027
996
960
913
865
819
766
711
662
613
557
499
444
395
349
300
245
188
141
104
69
42
31
24
8
-19
-57
-83
-83
-91
-107
-90
-89
-133
-111
14
400
1413
2502
2243
717
-327
-293
-118
-183
-183
-133
-147
-142
-107
-95
-87
-73
-66
-54
-33
-12
11
43
80
117
158
208
265
319
367
403
421
423
407
363
293
204
103
-2
-94
-162
-215
-260
-285
-285
-277
-270
-258
-238
-223
-214
-202
-191
-188
-184
-180
-180
-186
-191
-193
-198
-204
-207
-208
-207
-208
-211
-213
-211
-208
-207
-207
-202
-196
-190
-187
-184
-180
-177
-175
-171
-165
-157
-150
-143
-136
-131
-135
-142
-138
-122
-111
-103
-85
-67
-66
-83
-109
-119
-111
-121
-125
-93
-108
-168
-125
60
618
1862
2892
2237
491
-408
-267
-169
-278
-262
-233
-265
-255
-232
-240
-246
-252
-261
-255
-242
-228
-207
-180
-149
-112
-69
-24
23
73
118
151
163
157
141
109
44
-55
-161
-258
-349
-431
-495
-542
-577
-604
-624
-635
-640
-645
-661
-680
-692
-691
-680
-663
-649
-643
-641
-644
-651
-654
-650
-644
-638
-633
-627
-623
-617
-603
-581
-562
-551
-536
-516
-496
-466
-422
-383
-356
-329
-298
-266
-237
-209
-182
-153
-116
-73
-26
25
80
129
170
211
251
291
342
401
452
492
532
572
603
615
601
585
599
608
611
678
753
737
750
895
1281
2329
3702
3791
2232
896
800
967
841
830
958
995
1022
1116
1200
1239
1244
1236
1222
1199
1198
1232
1263
1276
1264
1218
1215
1285
1309
1314
1424
1486
1428
1293
453
-1496
-3253
-3549
-3068
-2750
-2409
-1969
-1793
-1748
-1502
-1183
-987
-796
-482
-132
103
184
229
350
507
646
807
1024
1242
1418
1581
1734
1790
1746
1750
1872
2028
2171
2320
2469
2577
2541
2300
1998
1801
1699
1680
1717
1591
1170
659
317
121
-256
-1053
-1950
-2628
-3452
-4628
-5641
-6504
-7887
-9479
-10160
-9795
-9101
-8316
-7439
-6887
-6762
-6441
-5620
-4710
-3977
-3299
-2645
-2075
-1563
-1087
-656
-247
154
530
869
1182
1458
1688
1905
2127
2367
2718
3130
3273
3051
2841
2834
2798
2652
2579
2607
2625
2623
2641
2662
2633
2515
2296
2015
1744
1538
1405
1329
1297
1282
1251
1208
1174
1147
1116
1082
1040
986
924
854
781
715
656
603
566
548
531
505
485
487
516
564
615
655
687
707
694
633
547
466
398
335
277
226
178
136
106
87
71
59
59
64
62
53
42
34
30
31
39
51
63
73
82
87
87
83
70
45
14
-15
-41
-63
-83
-101
-118
-133
-151
-172
-197
-226
-252
-268
-281
-301
-325
-342
-356
-372
-387
-405
-434
-455
-460
-474
-484
-470
-480
-505
-470
-377
-77
663
1318
990
-3
-539
-476
-415
-467
-456
-428
-430
-419
-401
-390
-394
-421
-453
-465
-465
-457
-436
-410
-384
-350
-312
-273
-223
-173
-135
-71
27
80
54
11
-29
-99
-186
-264
-338
-403
-450
-481
-490
-476
-461
-452
-438
-416
-395
-376
-365
-359
-348
-336
-329
-325
-321
-316
-311
-305
-302
-296
-283
-266
-254
-245
-234
-223
-214
-204
-193
-182
-171
-157
-140
-124
-113
-105
-98
-92
-86
-80
-74
-70
-69
-68
-66
-62
-59
-58
-59
-64
-67
-60
-46
-39
-32
-14
3
6
-1
-16
-21
-12
-17
-16
13
0
-38
21
193
696
1812
2716
2151
690
-40
55
92
-8
13
39
16
41
78
80
65
31
-23
-65
-82
-82
-70
-43
-3
41
86
141
208
278
342
393
432
455
461
452
427
378
317
266
232
205
185
173
178
203
245
294
345
394
440
469
460
424
404
402
384
356
337
292
211
162
168
180
198
251
321
388
455
508
543
577
611
630
646
669
687
692
697
710
723
724
720
731
747
734
707
701
706
683
621
552
515
503
489
458
391
290
223
200
89
-120
-241
-231
-256
-360
-445
-483
-521
-610
-779
-951
-1029
-1049
-1063
-1035
-891
-474
185
505
74
-558
-748
-743
-1002
-1407
-1625
-1644
-1685
-1837
-1952
-1961
-2016
-2189
-2379
-2545
-2715
-2843
-2858
-2756
-2577
-2365
-2159
-1963
-1775
-1596
-1414
-1219
-1035
-883
-756
-641
-533
-421
-304
-190
-86
8
98
193
294
406
540
687
822
930
1012
1078
1119
1128
1109
1083
1064
1056
1051
1028
981
928
886
860
850
853
862
873
881
882
876
868
864
866
879
907
939
962
980
1000
1016
1028
1035
1034
1024
1006
980
940
896
856
821
787
756
728
697
664
638
613
575
532
493
454
411
370
330
286
243
210
180
144
101
63
43
28
7
-4
-18
-67
-93
-59
49
470
1202
1469
800
-21
-242
-186
-254
-321
-313
-320
-336
-331
-332
-345
-378
-444
-515
-562
-591
-610
-606
-578
-538
-490
-439
-387
-331
-272
-215
-168
-138
-128
-134
-150
-183
-235
-297
-355
-408
-453
-488
-507
-505
-479
-447
-424
-401
-373
-352
-341
-335
-328
-320
-308
-295
-287
-281
-273
-266
-258
-249
-240
-232
-228
-225
-224
-228
-229
-223
-216
-208
-194
-174
-158
-146
-136
-126
-117
-111
-109
-105
-99
-96
-96
-91
-87
-84
-82
-82
-86
-87
-86
-91
-101
-103
-93
-81
-71
-51
-25
-8
-1
-5
-9
5
20
16
30
49
12
4
99
317
997
2125
2512
1454
192
-114
18
-43
-110
-83
-107
-137
-121
-117
-139
-179
-245
-311
-350
-363
-362
-374
-394
-380
-322
-259
-199
-130
-57
8
62
99
116
114
90
43
-20
-88
-152
-210
-258
-294
-314
-317
-301
-273
-245
-224
-204
-188
-184
-193
-206
-218
-225
-228
-230
-230
-227
-221
-213
-201
-182
-158
-128
-93
-60
-34
-13
3
18
40
69
99
129
163
195
222
246
270
293
315
335
354
378
408
436
464
495
526
555
581
603
622
640
651
657
672
696
715
736
770
805
826
839
846
860
890
907
904
929
950
921
939
1056
1354
2167
3221
3288
2107
1075
921
920
698
582
587
539
504
525
532
481
332
84
-174
-358
-459
-506
-526
-529
-575
-707
-833
-934
-1143
-1376
-1418
-1392
-1540
-1785
-1988
-2195
-2395
-2500
-2523
-2527
-2512
-2468
-2414
-2368
-2306
-2183
-1986
-1746
-1500
-1268
-1057
-900
-843
-857
-893
-952
-1014
-1041
-1069
-1128
-1142
-1080
-1002
-925
-816
-687
-553
-409
-267
-145
-37
64
148
204
242
275
311
353
402
460
520
575
626
673
692
670
641
639
656
678
709
746
777
809
846
872
878
878
886
894
901
913
929
939
943
943
943
941
941
938
930
920
912
910
918
935
945
954
962
939
892
872
893
1046
1417
1711
1513
1026
762
711
588
419
350
351
353
348
346
329
242
52
-189
-399
-542
-620
-637
-604
-545
-485
-433
-380
-325
-278
-248
-233
-234
-250
-276
-309
-347
-389
-433
-471
-497
-514
-536
-563
-570
-540
-467
-359
-255
-179
-105
-31
-4
-31
-68
-90
-112
-136
-157
-177
-199
-224
-251
-272
-278
-272
-268
-271
-280
-289
-297
-299
-296
-294
-295
-296
-297
-297
-298
-305
-319
-334
-344
-352
-362
-374
-381
-380
-374
-363
-351
-336
-313
-287
-273
-264
-247
-226
-207
-183
-151
-117
-83
-46
-9
24
49
61
67
85
98
91
96
97
58
53
122
291
854
1734
1952
1069
127
-69
12
-75
-152
-145
-167
-201
-205
-201
-206
-232
-284
-337
-373
-392
-397
-391
-371
-338
-299
-259
-219
-175
-123
-68
-21
9
18
9
-16
-57
-110
-163
-217
-277
-336
-377
-399
-402
-379
-342
-309
-277
-238
-201
-178
-172
-168
-156
-136
-117
-102
-92
-86
-79
-65
-46
-21
13
52
90
122
151
178
202
226
253
285
318
350
382
413
441
469
501
536
571
607
642
676
709
738
765
792
819
842
862
879
893
909
925
936
942
953
972
991
1010
1040
1077
1105
1116
1120
1126
1143
1167
1174
1176
1194
1181
1144
1176
1289
1635
2483
3282
2978
1829
1114
1039
916
662
544
490
426
393
344
282
208
-69
-580
-1033
-1322
-1610
-1936
-2257
-2593
-2916
-3184
-3407
-3549
-3591
-3622
-3696
-3801
-3884
-3855
-3713
-3569
-3442
-3273
-3073
-2872
-2671
-2483
-2316
-2149
-1963
-1741
-1477
-1201
-941
-704
-501
-335
-196
-93
-39
-8
29
79
141
204
250
269
269
269
285
305
318
342
383
427
473
516
540
554
589
644
700
750
790
818
845
879
916
953
996
1045
1089
1125
1158
1193
1223
1240
1247
1247
1240
1219
1189
1160
1137
1108
1062
1010
965
930
899
870
845
824
804
791
789
793
802
815
825
832
830
803
792
829
907
1142
1571
1784
1447
950
763
729
584
433
402
428
439
438
448
447
367
184
-47
-259
-424
-530
-575
-566
-514
-439
-362
-289
-212
-136
-75
-39
-30
-44
-76
-119
-164
-206
-242
-269
-291
-316
-345
-365
-361
-321
-241
-141
-62
-18
11
18
-24
-102
-174
-225
-270
-319
-369
-409
-436
-453
-464
-467
-460
-442
-417
-393
-378
-373
-369
-358
-344
-342
-370
-431
-518
-615
-708
-790
-863
-932
-1004
-1091
-1195
-1307
-1419
-1528
-1624
-1696
-1750
-1789
-1801
-1784
-1754
-1718
-1672
-1613
-1539
-1453
-1359
-1249
-1123
-998
-859
-700
-548
-379
-153
128
628
1427
1952
1642
999
796
908
900
817
813
830
817
798
789
781
750
683
587
481
384
313
267
248
261
295
336
385
446
513
582
645
693
722
735
728
694
637
572
516
468
426
394
372
351
344
367
398
407
414
435
447
439
429
421
407
396
393
383
363
341
321
298
276
254
232
215
203
193
182
171
162
154
149
145
145
146
146
148
156
166
176
186
190
183
179
189
202
208
218
239
254
254
248
237
228
223
224
253
289
277
284
384
600
1191
2165
2578
1786
742
449
510
360
201
214
254
265
292
323
334
282
106
-177
-478
-751
-1041
-1355
-1607
-1732
-1765
-1786
-1848
-1918
-1920
-1860
-1799
-1775
-1802
-1851
-1867
-1847
-1812
-1766
-1740
-1735
-1687
-1589
-1503
-1415
-1266
-1080
-900
-700
-473
-279
-153
-95
-140
-279
-394
-401
-352
-316
-285
-239
-195
-154
-89
-7
74
175
311
436
518
583
651
711
758
784
776
750
749
787
843
901
958
998
1020
1047
1083
1105
1105
1103
1110
1119
1130
1145
1171
1214
1263
1308
1362
1403
1399
1409
1489
1641
1951
2373
2489
2116
1707
1567
1422
1106
849
780
782
736
614
486
395
183
-292
-873
-1286
-1461
-1483
-1429
-1353
-1274
-1173
-1047
-920
-801
-700
-623
-578
-582
-644
-735
-826
-927
-1024
-1085
-1136
-1219
-1305
-1392
-1520
-1657
-1743
-1794
-1820
-1808
-1798
-1848
-1927
-1966
-1987
-2068
-2175
-2200
-2143
-2076
-2020
-1986
-1995
-1995
-1925
-1804
-1665
-1499
-1321
-1192
-1137
-1081
-916
-628
-282
81
455
813
1118
1355
1534
1697
1865
2001
2080
2136
2207
2289
2355
2390
2406
2437
2499
2575
2648
2712
2752
2755
2724
2655
2535
2398
2286
2146
1960
1851
1819
1906
2501
3379
3273
1901
740
572
603
373
199
108
-36
-131
-178
-270
-344
-350
-373
-439
-487
-503
-520
-542
-565
-578
-567
-541
-514
-483
-455
-443
-442
-454
-499
-586
-707
-846
-992
-1156
-1336
-1484
-1567
-1615
-1648
-1639
-1602
-1574
-1533
-1447
-1353
-1276
-1192
-1100
-1026
-962
-898
-852
-827
-795
-753
-717
-693
-664
-620
-580
-556
-534
-501
-466
-438
-413
-387
-356
-328
-303
-277
-251
-228
-203
-186
-182
-167
-128
-92
-67
-29
13
28
21
19
24
41
65
66
76
117
104
58
119
328
974
2323
3287
2429
609
-184
49
158
52
77
109
85
111
142
142
156
174
185
209
236
257
285
314
343
385
440
497
559
621
669
701
715
705
672
615
527
409
280
163
65
-17
-79
-120
-147
-162
-167
-168
-166
-163
-159
-150
-139
-133
-134
-135
-134
-132
-135
-145
-157
-164
-165
-168
-172
-169
-166
-171
-175
-170
-168
-167
-162
