# session 22
-79
-67
-94
-81
25
122
119
83
76
70
55
49
45
33
23
18
11
-5
-23
-31
-24
-13
-8
2
19
10
-29
-56
-68
-85
-80
-78
-105
-84
-62
-155
-186
-37
349
1587
3409
3605
1463
-445
-546
-191
-282
-311
-215
-242
-253
-203
-200
-199
-169
-157
-146
-116
-86
-57
-21
15
58
109
160
213
273
335
391
436
467
480
477
455
403
310
192
68
-48
-149
-229
-286
-320
-335
-338
-336
-330
-318
-303
-290
-277
-266
-257
-251
-245
-242
-242
-240
-242
-246
-250
-250
-252
-253
-251
-246
-243
-241
-237
-233
-231
-227
-220
-214
-208
-202
-196
-193
-189
-182
-176
-174
-170
-162
-157
-154
-149
-142
-138
-134
-129
-125
-122
-116
-113
-119
-127
-123
-104
-86
-77
-59
-28
-24
-56
-79
-81
-88
-77
-65
-87
-68
-34
-115
-160
-25
327
1502
3419
3906
1866
-278
-568
-175
-221
-267
-162
-175
-191
-138
-130
-130
-96
-76
-63
-35
-8
18
53
90
129
174
222
272
328
388
447
494
524
541
545
526
479
399
286
154
29
-78
-166
-232
-273
-292
-297
-291
-280
-270
-263
-256
-246
-237
-232
-229
-226
-226
-227
-229
-231
-235
-235
-235
-239
-240
-238
-238
-238
-233
-227
-226
-225
-221
-217
-216
-213
-207
-201
-197
-194
-189
-184
-181
-177
-172
-169
-169
-167
-159
-150
-147
-147
-146
-142
-139
-145
-154
-149
-128
-113
-109
-88
-55
-56
-89
-105
-110
-115
-99
-100
-122
-88
-80
-160
-132
43
511
1875
3429
3009
735
-694
-486
-181
-267
-223
-139
-176
-160
-109
-111
-102
-71
-50
-22
6
25
55
94
126
163
210
260
310
367
430
488
533
558
566
560
532
467
363
240
113
-12
-122
-206
-264
-299
-315
-320
-316
-304
-291
-281
-269
-254
-245
-241
-234
-233
-241
-246
-243
-245
-254
-257
-254
-255
-255
-252
-249
-246
-241
-236
-232
-228
-221
-213
-205
-199
-193
-185
-177
-171
-168
-164
-154
-148
-148
-143
-133
-128
-125
-121
-122
-130
-130
-112
-93
-81
-60
-32
-29
-53
-76
-92
-92
-71
-77
-91
-50
-66
-154
-105
96
728
2353
3850
3037
603
-639
-350
-142
-268
-218
-155
-194
-168
-125
-128
-109
-78
-63
-40
-8
17
49
88
128
171
218
269
328
390
449
502
546
572
578
567
533
461
351
223
97
-20
-121
-200
-258
-294
-308
-313
-316
-314
-304
-291
-280
-272
-267
-265
-268
-276
-285
-293
-301
-315
-342
-373
-389
-392
-398
-411
-419
-418
-416
-413
-408
-401
-393
-385
-377
-372
-366
-362
-360
-354
-345
-340
-340
-339
-337
-340
-342
-334
-325
-324
-325
-324
-323
-332
-337
-321
-292
-266
-234
-184
-143
-115
-63
0
32
54
74
58
81
162
130
47
131
403
1352
3288
4384
2790
276
-501
-97
-43
-140
-15
28
-16
12
24
8
26
43
55
102
169
236
315
399
461
499
533
588
660
722
762
789
806
801
778
741
679
573
430
274
128
-2
-113
-206
-274
-317
-344
-360
-367
-369
-369
-365
-358
-351
-345
-343
-342
-340
-342
-346
-348
-347
-350
-357
-362
-360
-352
-349
-352
-351
-344
-338
-338
-338
-334
-327
-318
-313
-310
-303
-294
-289
-285
-276
-267
-261
-256
-252
-246
-237
-229
-225
-221
-215
-208
-201
-193
-186
-186
-192
-192
-176
-151
-139
-131
-98
-62
-73
-113
-132
-132
-122
-106
-119
-115
-56
-83
-165
-80
172
943
2704
4016
2825
334
-680
-313
-174
-296
-224
-189
-234
-195
-168
-188
-170
-148
-153
-141
-119
-102
-72
-34
-12
-25
-73
-102
-74
-49
-93
-165
-202
-219
-249
-281
-296
-333
-430
-534
-589
-635
-706
-748
-728
-692
-658
-601
-530
-468
-408
-345
-289
-240
-195
-157
-124
-93
-67
-43
-17
12
37
58
76
94
114
134
153
171
193
214
229
248
274
294
304
316
333
349
364
380
401
430
457
485
515
534
539
542
548
552
554
554
554
556
554
557
578
609
628
645
683
714
704
684
676
668
674
671
631
641
661
564
524
674
1062
2283
4112
4340
2155
131
-26
356
274
217
304
285
266
293
295
338
415
405
324
296
334
305
173
92
143
177
91
-25
-90
-161
-301
-468
-590
-714
-975
-1417
-1905
-2275
-2477
-2562
-2600
-2623
-2601
-2520
-2432
-2367
-2282
-2152
-1994
-1820
-1638
-1468
-1316
-1178
-1051
-943
-858
-789
-726
-671
-629
-592
-555
-524
-505
-490
-470
-456
-457
-456
-447
-445
-449
-446
-445
-454
-457
-452
-453
-458
-459
-455
-449
-444
-441
-435
-427
-423
-422
-414
-405
-397
-388
-375
-366
-361
-355
-340
-313
-275
-240
-209
-169
-133
-124
-125
-120
-100
-58
-35
-37
6
32
-29
-4
152
532
1747
3354
3262
1170
-412
-344
3
-67
-70
25
28
38
62
73
135
186
164
170
261
368
461
574
719
871
1018
1164
1308
1441
1550
1647
1763
1907
2047
2126
2139
2135
2133
2110
2080
2053
2019
2000
2005
2011
2021
2024
1992
1968
1988
2025
2115
2288
2450
2563
2661
2705
2713
2792
2941
3109
3315
3543
3737
3884
4003
4178
4502
4886
5146
5324
5557
5731
5669
5538
5609
5748
5675
5482
5328
5056
4621
4159
3495
2597
1954
1618
1097
385
-217
-725
-1574
-3945
-8132
-11759
-13336
-15055
-18172
-21005
-23129
-24865
-24557
-21893
-19233
-17403
-15473
-13669
-12535
-11547
-10300
-9041
-7896
-6753
-5593
-4461
-3271
-1964
-859
-336
-159
190
719
1159
1522
1908
2224
2412
2599
2874
3164
3373
3494
3572
3639
3681
3672
3645
3659
3706
3751
3796
3839
3860
3873
3892
3894
3859
3794
3709
3619
3524
3390
3222
3047
2805
2452
2104
1875
1735
1652
1672
1756
1793
1777
1757
1759
1881
2203
2625
3139
3915
4822
5454
5709
5765
5720
5603
5421
5147
4820
4506
4217
3941
3665
3376
3096
2835
2576
2338
2151
1970
1742
1503
1298
1101
899
740
662
627
577
490
371
202
-17
-219
-361
-505
-718
-970
-1206
-1417
-1613
-1797
-1968
-2129
-2274
-2403
-2522
-2625
-2700
-2750
-2789
-2821
-2839
-2837
-2826
-2822
-2811
-2780
-2686
-2386
-1934
-1764
-2062
-2390
-2406
-2297
-2247
-2191
-2093
-1999
-1917
-1825
-1706
-1560
-1423
-1309
-1199
-1083
-966
-856
-765
-692
-612
-519
-430
-354
-288
-228
-170
-115
-66
-25
12
32
27
0
-49
-116
-181
-225
-250
-273
-296
-306
-295
-271
-248
-223
-188
-153
-126
-100
-73
-55
-45
-38
-33
-30
-26
-15
0
13
22
32
43
48
50
58
74
88
97
102
107
114
120
120
124
137
152
162
167
173
183
195
202
201
202
209
212
203
194
199
215
231
245
268
290
287
270
255
249
267
288
285
311
353
307
289
417
679
1534
3086
3673
2124
215
-183
192
251
228
323
330
308
346
361
358
379
395
404
423
442
460
482
501
521
547
577
613
660
708
745
771
787
787
769
732
667
564
429
281
136
8
-101
-193
-261
-296
-313
-333
-348
-351
-348
-345
-341
-341
-346
-349
-356
-369
-380
-387
-400
-417
-429
-438
-447
-452
-453
-457
-464
-471
-475
-472
-468
-472
-478
-479
-474
-471
-470
-467
-466
-465
-461
-457
-455
-455
-456
-463
-468
-456
-433
-420
-409
-380
-360
-374
-397
-410
-414
-396
-387
-403
-367
-339
-415
-418
-254
141
1350
3048
3144
1092
-649
-700
-361
-433
-443
-347
-363
-357
-299
-283
-262
-213
-181
-151
-112
-83
-54
-14
29
72
121
175
236
306
377
440
494
539
563
567
549
496
402
284
165
54
-46
-124
-178
-215
-236
-240
-235
-230
-221
-201
-178
-159
-144
-129
-115
-103
-94
-87
-80
-75
-67
-60
-55
-52
-47
-38
-30
-25
-19
-8
10
32
55
73
80
81
89
101
107
104
105
112
118
123
131
137
141
143
144
147
155
161
153
144
148
153
152
163
185
179
145
118
99
90
102
89
66
96
78
-19
10
195
758
2257
3758
3142
828
-505
-312
-97
-224
-213
-168
-214
-202
-168
-172
-158
-141
-146
-136
-115
-107
-99
-85
-68
-42
-7
33
81
133
183
230
268
287
286
272
241
172
59
-82
-223
-351
-465
-564
-640
-694
-729
-749
-761
-773
-783
-786
-780
-774
-776
-782
-786
-790
-792
-793
-798
-808
-817
-831
-849
-854
-846
-844
-853
-859
-858
-855
-854
-856
-851
-827
-793
-769
-755
-742
-726
-709
-693
-673
-644
-611
-586
-561
-524
-476
-434
-402
-355
-283
-223
-195
-160
-103
-68
-74
-103
-128
-111
-81
-136
-225
-230
-274
-415
-427
-255
280
1677
3122
2730
967
496
2023
3853
4824
4977
4669
4366
4360
4555
4757
4837
4686
4276
3685
3035
2390
1755
1169
704
362
104
-89
-224
-321
-395
-453
-502
-555
-622
-698
-786
-898
-1041
-1196
-1339
-1464
-1567
-1643
-1690
-1715
-1720
-1705
-1681
-1650
-1605
-1559
-1522
-1486
-1447
-1409
-1375
-1344
-1320
-1293
-1261
-1229
-1203
-1182
-1157
-1120
-1079
-1047
-1016
-981
-943
-909
-879
-846
-807
-768
-735
-704
-673
-643
-607
-563
-522
-490
-464
-447
-430
-395
-344
-302
-267
-218
-171
-161
-171
-171
-163
-132
-96
-100
-78
-22
-74
-136
-22
324
1441
3413
4221
2416
124
-373
21
3
-76
40
57
37
94
119
121
156
183
200
230
261
289
323
358
395
439
488
545
610
679
745
801
835
847
843
820
758
648
508
370
247
142
56
-6
-49
-78
-95
-103
-105
-103
-98
-91
-82
-75
-68
-62
-57
-54
-56
-62
-66
-69
-78
-89
-97
-105
-112
-116
-121
-128
-133
-134
-137
-144
-148
-152
-157
-160
-161
-163
-167
-169
-169
-169
-171
-174
-171
-174
-190
-202
-191
-173
-168
-159
-133
-126
-161
-197
-206
-204
-191
-190
-213
-190
-159
-243
-291
-162
200
1377
3234
3663
1673
-372
-641
-286
-347
-390
-288
-303
-315
-257
-242
-235
-201
-187
-178
-149
-126
-107
-77
-42
-7
34
83
137
198
262
323
374
410
428
430
409
351
250
123
0
-111
-211
-293
-344
-369
-383
-393
-392
-381
-366
-350
-333
-315
-288
-259
-249
-249
-240
-232
-231
-224
-219
-223
-218
-204
-197
-197
-195
-188
-176
-165
-167
-174
-171
-163
-161
-160
-156
-154
-151
-150
-153
-154
-148
-142
-142
-142
-137
-129
-119
-112
-108
-101
-90
-86
-92
-101
-99
-80
-60
-51
-32
-2
-3
-34
-54
-65
-68
-48
-50
-73
-37
-33
-128
-116
77
622
2080
3669
3216
895
-569
-400
-134
-243
-201
-112
-149
-139
-95
-98
-83
-49
-37
-20
13
43
72
102
133
170
213
261
313
370
428
482
523
546
552
541
510
447
344
218
93
-19
-114
-188
-241
-272
-286
-290
-288
-282
-275
-268
-261
-255
-248
-244
-243
-243
-245
-248
-251
-250
-252
-256
-258
-254
-251
-253
-254
-252
-249
-249
-247
-242
-237
-230
-223
-218
-213
-207
-202
-196
-187
-177
-173
-169
-160
-154
-154
-149
-140
-138
-138
-134
-128
-127
-133
-142
-140
-120
-99
-90
-73
-46
-47
-79
-101
-109
-107
-93
-106
-117
-78
-102
-175
-101
118
767
2312
3551
2556
264
-745
-406
-210
-287
-209
-157
-190
-157
-123
-127
-105
-76
-64
-37
-3
19
46
84
118
150
193
245
296
351
408
459
501
525
527
518
494
428
321
201
87
-23
-122
-200
-252
-281
-293
-295
-290
-279
-269
-257
-243
-228
-223
-221
-216
-213
-215
-216
-218
-221
-223
-227
-236
-238
-232
-231
-233
-229
-220
-215
-214
-212
-210
-208
-202
-194
-187
-184
-183
-182
-176
-169
-164
-159
-153
-150
-150
-150
-151
-155
-155
-146
-134
-120
-103
-79
-65
-72
-87
-102
-117
-108
-95
-109
-90
-64
-127
-143
-11
275
1267
2953
3400
1556
-420
-683
-256
-231
-253
-149
-149
-164
-119
-106
-99
-67
-48
-32
-2
26
51
83
119
157
199
245
299
359
420
477
524
554
565
558
530
473
378
252
121
1
-106
-196
-258
-294
-313
-319
-314
-305
-295
-281
-265
-253
-243
-232
-226
-226
-228
-229
-234
-240
-244
-244
-246
-249
-250
-246
-243
-243
-242
-239
-235
-229
-223
-219
-214
-207
-202
-196
-189
-183
-179
-175
-172
-168
-163
-160
-159
-156
-154
-153
-156
-168
-174
-160
-137
-124
-108
-77
-63
-85
-113
-131
-135
-116
-115
-134
-97
-87
-187
-190
-11
527
2062
3886
3619
1171
-556
-471
-171
-297
-284
-189
-225
-216
-163
-165
-153
-117
-103
-85
-51
-24
2
36
72
112
160
212
271
339
408
472
522
554
566
560
527
454
341
205
69
-53
-155
-233
-286
-320
-337
-345
-345
-339
-325
-310
-295
-278
-261
-249
-239
-230
-223
-221
-219
-217
-218
-222
-225
-226
-226
-228
-231
-231
-229
-228
-226
-224
-222
-219
-213
-209
-206
-199
-191
-188
-185
-180
-174
-172
-170
-164
-160
-161
-160
-155
-152
-152
-155
-164
-169
-157
-134
-120
-107
-74
-54
-80
-110
-118
-123
-108
-93
-115
-95
-61
-148
-193
-45
318
1503
3426
3874
1772
-376
-634
-245
-307
-343
-225
-237
-248
-181
-159
-148
-100
-59
-20
25
60
91
127
162
202
248
295
351
422
493
559
620
663
681
687
675
621
523
398
266
133
8
-95
-170
-222
-257
-276
-286
-292
-297
-296
-291
-283
-277
-271
-262
-254
-253
-255
-256
-256
-261
-269
-272
-274
-279
-283
-282
-280
-280
-282
-282
-277
-275
-275
-273
-269
-267
-265
-260
-257
-255
-250
-243
-238
-234
-232
-231
-229
-224
-220
-214
-204
-196
-194
-199
-207
-202
-177
-156
-150
-126
-93
-101
-134
-143
-144
-140
-119
-125
-133
-91
-114
-186
-108
99
746
2355
3658
2607
208
-813
-421
-211
-303
-225
-162
-192
-161
-124
-124
-101
-70
-53
-26
3
22
51
94
138
180
226
278
339
408
473
528
570
595
599
583
544
467
351
217
88
-30
-131
-206
-256
-284
-294
-294
-290
-277
-258
-241
-226
-212
-198
-187
-178
-172
-168
-167
-169
-170
-170
-172
-174
-173
-168
-161
-155
-150
-146
-139
-129
-121
-112
-100
-89
-82
-73
-61
-49
-43
-37
-28
-16
