# session 15
-842
-2584
1909
-2359
-21978
-36974
-35678
-30855
-30419
-29254
-26750
-25528
-24218
-22302
-20952
-19750
-18339
-17183
-16104
-14886
-13790
-12819
-11810
-10810
-9846
-8878
-7954
-7114
-6318
-5545
-4811
-4131
-3511
-2946
-2417
-1917
-1455
-1020
-603
-217
121
428
745
1084
1411
1702
1976
2249
2523
2805
3069
3276
3440
3586
3707
3795
3846
3874
3931
4019
4067
4078
4122
4179
4180
4127
4067
4032
4025
4030
4026
4005
3964
3918
3874
3828
3776
3723
3664
3596
3527
3454
3371
3290
3213
3109
2973
2841
2734
2627
2519
2430
2351
2263
2183
2126
2066
1983
1884
1773
1660
1565
1488
1401
1292
1167
1027
884
761
660
566
473
382
288
193
111
37
-46
-141
-222
-275
-320
-385
-462
-534
-600
-673
-754
-829
-889
-936
-986
-1051
-1118
-1178
-1242
-1307
-1366
-1419
-1472
-1519
-1552
-1577
-1603
-1634
-1662
-1678
-1683
-1669
-1637
-1601
-1565
-1525
-1490
-1471
-1455
-1417
-1347
-1248
-1139
-1042
-948
-830
-690
-520
-296
-12
353
779
1108
1217
1141
927
654
447
314
420
1062
1679
1219
-12
-735
-762
-755
-848
-880
-899
-904
-871
-894
-962
-963
-919
-909
-915
-905
-888
-840
-755
-685
-637
-549
-419
-288
-166
-54
26
80
147
236
310
338
314
256
184
103
12
-87
-165
-186
-176
-202
-248
-232
-141
-47
13
52
90
138
184
207
212
208
178
133
119
128
113
71
6
-91
-160
-142
-123
-226
-395
-447
-323
-152
-45
36
93
26
-127
-184
-114
-30
31
85
100
68
44
60
100
147
201
256
303
344
381
411
438
460
471
475
474
466
460
465
471
469
469
468
443
401
361
335
338
342
317
322
335
263
236
353
636
1583
3101
3429
1748
43
-177
110
35
-41
8
-16
-28
3
-14
-27
1
2
-40
-83
-105
-112
-120
-138
-153
-151
-123
-64
9
80
147
204
238
252
260
249
202
128
36
-76
-191
-290
-374
-443
-492
-511
-500
-472
-436
-403
-384
-373
-350
-321
-312
-312
-302
-291
-298
-313
-324
-328
-323
-318
-311
-298
-287
-281
-266
-246
-231
-222
-213
-213
-215
-212
-211
-211
-201
-188
-185
-183
-171
-161
-157
-154
-151
-148
-144
-143
-153
-162
-156
-146
-146
-143
-127
-118
-128
-138
-138
-136
-136
-141
-154
-154
-134
-118
-112
-92
-70
-76
-104
-142
-172
-167
-157
-174
-157
-142
-211
-215
-66
299
1370
2877
3020
1268
-294
-408
-151
-269
-371
-350
-351
-306
-250
-262
-253
-199
-195
-242
-286
-337
-397
-419
-395
-368
-338
-283
-215
-149
-80
2
103
210
298
365
412
432
418
372
307
240
178
120
79
58
54
73
110
145
170
192
200
195
204
226
232
221
211
201
187
182
185
179
168
159
148
137
130
122
109
97
87
75
60
45
34
31
29
18
5
2
3
-3
-15
-20
-15
-11
-18
-27
-29
-38
-57
-66
-66
-74
-98
-125
-138
-135
-136
-151
-161
-156
-154
-158
-157
-184
-253
-289
-241
-173
-147
-130
-101
-87
-87
-99
-167
-262
-309
-335
-341
-267
-221
-260
-207
-26
483
1800
3070
2433
334
-815
-563
-290
-341
-287
-207
-200
-150
-102
-100
-77
-49
-43
-23
13
45
87
136
181
230
287
350
427
514
589
651
705
741
755
752
717
634
481
230
-78
-316
-417
-437
-441
-435
-416
-392
-375
-363
-348
-334
-329
-323
-361
-534
-797
-950
-904
-796
-788
-887
-982
-983
-924
-925
-1010
-1059
-994
-878
-786
-717
-650
-582
-508
-432
-367
-311
-253
-193
-139
-86
-30
24
68
107
144
180
219
256
286
312
338
363
383
398
413
431
443
445
444
461
494
521
531
547
562
543
501
465
436
426
417
381
376
386
296
227
327
640
1719
3553
4150
2319
204
-213
96
8
-99
-26
-40
-79
-77
-121
-161
-155
-173
-215
-241
-259
-276
-283
-284
-293
-305
-305
-277
-207
-100
11
99
162
206
227
219
186
121
17
-103
-224
-367
-522
-627
-672
-699
-710
-691
-650
-592
-526
-476
-447
-415
-373
-329
-301
-298
-304
-306
-307
-303
-291
-288
-295
-289
-271
-257
-241
-220
-212
-222
-233
-237
-235
-231
-228
-220
-204
-191
-183
-168
-150
-133
-112
-86
-66
-51
-36
-15
11
34
47
61
80
95
100
106
121
135
143
149
156
158
157
156
148
134
129
140
155
163
172
191
195
165
127
96
82
94
88
61
79
74
-16
-15
134
540
1753
3287
3170
1174
-342
-340
-102
-254
-330
-288
-298
-287
-284
-337
-346
-299
-283
-309
-352
-379
-358
-315
-288
-261
-209
-148
-88
-26
38
109
184
240
268
283
282
255
213
158
82
1
-73
-142
-199
-235
-249
-245
-224
-197
-173
-159
-157
-156
-142
-125
-116
-115
-115
-118
-117
-111
-107
-104
-101
-101
-102
-99
-93
-87
-80
-80
-85
-85
-81
-83
-88
-88
-88
-89
-86
-79
-73
-69
-68
-68
-67
-62
-57
-55
-54
-51
-43
-35
-29
-26
-28
-34
-34
-29
-29
-33
-35
-38
-38
-35
-39
-48
-44
-29
-15
1
29
53
47
18
-12
-30
-21
-7
-19
-7
19
-38
-65
58
318
1172
2742
3384
1873
-61
-494
-134
-108
-174
-91
-75
-87
-47
-45
-65
-44
-28
-35
-23
2
-12
-82
-135
-108
-40
17
75
147
216
277
320
337
345
369
401
406
335
178
-5
-155
-268
-362
-445
-507
-545
-605
-709
-770
-713
-610
-547
-505
-447
-393
-353
-310
-270
-251
-245
-230
-208
-198
-204
-208
-209
-229
-278
-342
-393
-411
-396
-364
-323
-282
-244
-211
-180
-150
-123
-103
-87
-67
-50
-39
-29
-11
9
22
36
49
52
53
60
66
68
73
75
64
47
37
43
59
71
69
64
51
16
-32
-83
-139
-173
-192
-208
-173
-146
-205
-188
-18
389
1625
3348
3462
1421
-321
-377
-40
-130
-167
-75
-76
-70
-29
-25
-9
22
27
33
54
68
88
123
161
195
234
282
338
404
475
548
612
655
675
677
659
611
520
390
249
119
0
-100
-169
-209
-235
-247
-245
-237
-228
-218
-202
-186
-177
-173
-167
-160
-160
-164
-164
-158
-160
-173
-175
-174
-191
-200
-191
-215
-241
-226
-349
-700
-957
-892
-722
-638
-573
-499
-455
-422
-389
-375
-370
-364
-362
-363
-362
-361
-360
-362
-364
-359
-348
-335
-327
-319
-305
-289
-276
-265
-243
-205
-170
-143
-109
-72
-56
-62
-76
-85
-64
-33
-35
-15
23
-28
-58
69
366
1323
3021
3681
2057
37
-392
-32
-35
-116
-37
-30
-49
-10
6
14
41
41
31
47
66
78
101
132
162
201
255
317
381
447
518
586
638
668
677
665
623
544
427
287
151
30
-74
-158
-218
-256
-274
-277
-279
-284
-281
-265
-252
-252
-257
-254
-245
-245
-253
-255
-256
-263
-267
-267
-273
-283
-283
-278
-281
-286
-287
-288
-287
-284
-282
-286
-289
-284
-279
-278
-274
-266
-263
-263
-256
-245
-241
-238
-235
-238
-230
-198
-165
-144
-118
-94
-97
-118
-138
-147
-130
-122
-139
-106
-75
-146
-154
2
380
1571
3335
3576
1561
-298
-443
-109
-196
-242
-150
-156
-160
-116
-105
-80
-35
-33
-56
-70
-74
-68
-54
-48
-38
-6
46
106
178
268
360
436
497
539
554
543
500
415
298
163
11
-128
-209
-249
-281
-306
-312
-301
-281
-256
-235
-222
-219
-223
-225
-219
-206
-194
-194
-205
-216
-223
-241
-272
-289
-278
-260
-254
-258
-258
-255
-254
-252
-242
-226
-205
-187
-185
-197
-207
-209
-210
-207
-197
-184
-169
-156
-145
-137
-130
-126
-119
-102
-84
-76
-64
-30
11
36
58
89
97
73
53
45
44
69
81
64
94
120
46
43
194
563
1733
3399
3504
1484
-260
-345
-31
-136
-192
-121
-133
-125
-81
-84
-69
-24
-27
-74
-113
-131
-136
-133
-129
-119
-92
-42
19
82
151
225
286
328
357
371
358
312
233
137
37
-66
-166
-248
-310
-363
-401
-409
-395
-377
-357
-339
-329
-316
-295
-278
-273
-272
-271
-270
-268
-266
-261
-255
-252
-252
-249
-242
-238
-238
-242
-244
-236
-225
-220
-219
-215
-213
-214
-208
-194
-186
-188
-187
-181
-175
-166
-156
-152
-146
-136
-130
-130
-126
-121
-117
-109
-104
-105
-101
-90
-83
-84
-82
-74
-69
-64
-52
-42
-46
-56
-59
-46
-17
7
15
31
57
53
20
2
-3
-8
5
10
5
38
35
-29
20
198
679
1993
3382
2895
786
-476
-264
12
-72
-43
31
11
43
96
82
76
105
119
129
159
192
216
235
255
276
312
373
436
492
558
628
672
697
721
724
696
645
556
434
313
199
93
13
-51
-130
-213
-258
-254
-220
-186
-167
-155
-137
-119
-105
-100
-109
-128
-142
-146
-149
-154
-155
-155
-164
-195
-232
-236
-203
-171
-158
-151
-144
-139
-140
-150
-165
-177
-182
-183
-180
-178
-180
-180
-178
-177
-172
-163
-160
-169
-184
-200
-219
-240
-258
-272
-282
-290
-299
-310
-319
-327
-334
-340
-343
-356
-386
-417
-423
-409
-401
-403
-392
-380
-396
-426
-445
-455
-449
-447
-477
-473
-445
-520
-585
-479
-191
800
2649
3468
1791
-436
-980
-628
-658
-767
-679
-671
-705
-669
-654
-663
-657
-674
-705
-716
-724
-734
-733
-736
-750
-749
-715
-658
-595
-539
-496
-470
-449
-416
-381
-368
-388
-447
-536
-630
-725
-829
-919
-969
-979
-957
-903
-827
-740
-649
-559
-475
-394
-312
-220
-122
-40
27
93
162
230
298
367
438
511
585
658
737
818
896
971
1050
1136
1223
1309
1394
1476
1555
1635
1719
1806
1894
1983
2072
2161
2253
2348
2441
2532
2629
2726
2816
2902
2994
3083
3161
3236
3313
3386
3452
3516
3579
3638
3690
3738
3786
3835
3881
3933
3987
4032
4078
4128
4138
4102
4008
3794
3502
3167
2634
1912
1231
501
-463
-1436
-2265
-3055
-3768
-4490
-5471
-6473
-7089
-7341
-7278
-6930
-6638
-6278
-5100
-3464
-2839
-3283
-3537
-3558
-3933
-4171
-4027
-4043
-4211
-4882
-6918
-9126
-9444
-8482
-7894
-7558
-6967
-6398
-5916
-5365
-4860
-4429
-3960
-3481
-3042
-2622
-2225
-1861
-1511
-1153
-785
-433
-124
150
419
690
955
1195
1392
1556
1703
1825
1938
2076
2231
2365
2466
2534
2574
2604
2635
2668
2702
2729
2737
2728
2719
2716
2717
2720
2725
2729
2723
2699
2670
2645
2632
2647
2708
2816
2970
3160
3340
3460
3502
3469
3378
3264
3148
3025
2884
2729
2566
2397
2230
2080
1953
1831
1699
1564
1433
1304
1170
1034
907
790
678
572
470
368
275
192
113
37
-36
-112
-192
-271
-346
-420
-492
-537
-551
-561
-590
-629
-674
-732
-793
-854
-902
-926
-961
-1014
-1029
-1051
-1133
-1140
-1028
-683
348
1622
1515
-120
-1365
-1402
-1233
-1335
-1359
-1300
-1291
-1265
-1237
-1242
-1228
-1201
-1206
-1219
-1214
-1188
-1136
-1073
-1022
-974
-909
-832
-752
-673
-593
-514
-432
-350
-273
-208
-157
-127
-126
-152
-198
-256
-328
-400
-449
-478
-509
-550
-581
-581
-549
-524
-547
-598
-606
-557
-531
-570
-604
-590
-577
-579
-556
-520
-503
-500
-501
-513
-529
-531
-516
-495
-466
-431
-418
-441
-457
-448
-433
-387
-306
-272
-291
-259
-173
-116
-85
-49
-23
3
49
101
156
217
256
261
271
313
346
335
319
330
338
336
359
416
477
522
540
537
526
510
509
554
628
690
723
727
706
669
622
585
554
479
407
431
455
419
478
645
1098
2358
3713
3279
1243
-47
80
334
276
314
392
382
401
429
410
410
427
416
399
406
418
430
462
503
523
541
527
333
-15
-228
-171
-31
61
144
215
233
211
153
29
-137
-301
-451
-578
-671
-734
-776
-802
-816
-819
-812
-803
-784
-753
-720
-694
-669
-644
-619
-590
-557
-525
-492
-458
-423
-390
-366
-349
-332
-323
-323
-320
-311
-305
-301
-299
-297
-290
-277
-266
-256
-247
-238
-233
-227
-212
-194
-186
-182
-170
-154
-142
-130
-119
-114
-108
-102
-101
-101
-95
-90
-89
-84
-75
-68
-60
-50
-46
-60
-74
-59
-25
4
27
46
45
25
2
-14
-4
11
-7
-2
30
-33
-105
-18
246
1143
2909
3870
2438
233
-447
-127
-119
-241
-163
-133
-165
-139
-122
-122
-104
-95
-95
-84
-74
-66
-46
-19
12
50
90
136
201
278
354
426
493
541
561
560
535
473
377
267
152
41
-53
-122
-168
-199
-216
-210
-186
-161
-144
-129
-115
-106
-101
-94
-88
-91
-104
-126
-146
-155
-160
-167
-169
-165
-162
-159
-155
-153
-155
-159
-169
-185
-199
-201
-197
-197
-203
-213
-229
-249
-265
-280
-297
-301
-295
-307
-333
-343
-341
-347
-352
-352
-353
-351
-340
-335
-339
-327
-298
-274
-263
-254
-247
-239
-227
-219
-223
-227
-222
-219
-222
-219
-197
-169
-150
-134
-116
-111
-124
-143
-152
-128
-94
-79
-26
42
10
-7
132
436
1335
2870
3419
1910
102
-241
108
113
50
134
159
166
213
214
209
250
268
247
242
260
283
317
359
388
408
441
491
546
597
643
687
725
742
742
736
708
645
551
432
290
153
46
-42
-125
-187
-242
-332
-414
-410
-350
-319
-316
-312
-310
-309
-305
-311
-331
-364
-433
-521
-581
-597
-583
-583
-661
-787
-844
-802
-721
-640
-575
-531
-492
-450
-416
-382
-347
-320
-295
-263
-235
-218
-203
-190
-184
-186
-183
-169
-152
-135
-119
-104
-90
-72
-58
-65
-95
-137
-177
-196
-193
-193
-209
-232
-243
-235
-223
-229
-244
-253
-269
-301
-337
-372
-392
-382
-377
-362
-291
-253
-267
-163
63
617
2029
3456
2918
782
-450
-225
38
-38
10
100
104
149
198
190
189
186
142
103
100
105
112
145
208
291
388
489
584
672
756
833
898
947
973
975
956
906
814
680
524
357
188
34
-73
-124
-130
-111
-85
-69
-68
-79
-96
-113
-137
-175
-216
-250
-297
-366
-439
-512
-596
-665
-692
-678
-639
-591
-554
-528
-493
-457
-434
-406
-364
-332
-321
-306
-272
-241
-223
-204
-192
-200
-212
-201
-180
-169
-162
-148
