# session 26
-54
-76
-36
7
-89
-270
-326
-271
-257
-270
-242
-214
-215
-211
-197
-199
-208
-206
-198
-179
-159
-158
-165
-159
-154
-149
-116
-79
-69
-49
-3
22
21
21
23
38
42
13
31
59
-16
-36
119
529
1698
3229
3123
1010
-646
-621
-250
-274
-241
-153
-190
-189
-143
-155
-154
-117
-100
-90
-65
-38
-12
15
35
58
98
143
181
220
266
312
345
360
356
339
318
282
207
106
8
-83
-176
-250
-292
-317
-330
-330
-325
-316
-304
-297
-291
-275
-263
-264
-265
-263
-267
-270
-268
-272
-275
-267
-264
-268
-263
-256
-255
-246
-232
-233
-242
-238
-226
-218
-215
-211
-205
-201
-206
-207
-194
-173
-153
-129
-107
-104
-116
-131
-152
-155
-134
-141
-143
-102
-126
-181
-78
152
767
2177
3203
2113
-67
-927
-518
-269
-289
-191
-132
-149
-109
-74
-73
-45
-14
-4
18
51
79
110
147
183
220
262
310
362
414
458
498
529
536
516
488
448
374
272
163
53
-49
-130
-183
-215
-231
-240
-245
-242
-232
-224
-218
-211
-203
-198
-197
-196
-197
-200
-203
-207
-213
-217
-217
-216
-216
-213
-212
-212
-210
-204
-200
-199
-197
-192
-186
-182
-179
-177
-180
-191
-192
-171
-148
-140
-123
-91
-84
-110
-140
-158
-153
-134
-147
-148
-103
-140
-225
-154
106
948
2718
3861
2516
90
-790
-399
-263
-347
-252
-211
-243
-200
-168
-175
-149
-119
-106
-77
-43
-20
11
55
94
131
174
227
284
340
389
427
452
460
450
420
364
278
170
57
-50
-143
-219
-281
-322
-334
-332
-334
-333
-322
-313
-307
-300
-297
-296
-289
-283
-285
-285
-281
-283
-289
-289
-286
-287
-290
-287
-282
-280
-278
-275
-273
-271
-266
-258
-253
-249
-249
-256
-260
-244
-217
-199
-183
-156
-143
-161
-182
-193
-194
-177
-178
-190
-151
-151
-231
-197
-12
520
1955
3426
2825
509
-824
-566
-259
-320
-257
-173
-201
-178
-132
-129
-110
-76
-60
-39
-8
20
52
90
129
172
220
271
328
390
449
493
523
537
535
516
474
397
293
184
80
-18
-98
-151
-183
-202
-205
-197
-185
-173
-158
-140
-124
-113
-105
-95
-88
-90
-89
-82
-83
-91
-94
-93
-96
-101
-103
-105
-103
-94
-88
-93
-97
-91
-82
-77
-73
-78
-91
-87
-60
-37
-24
3
31
21
-8
-29
-48
-46
-34
-58
-56
-7
-64
-156
-80
206
1216
3175
4155
2427
-73
-760
-330
-287
-393
-297
-277
-304
-253
-232
-232
-195
-176
-184
-179
-166
-149
-121
-94
-67
-33
7
49
86
106
117
115
89
62
55
36
-24
-117
-232
-353
-456
-537
-602
-641
-650
-644
-633
-613
-587
-567
-552
-536
-532
-552
-580
-598
-610
-626
-634
-622
-601
-593
-596
-589
-572
-566
-571
-569
-558
-544
-523
-491
-433
-343
-245
-143
-12
114
163
179
267
387
420
380
361
379
413
478
559
615
628
590
525
458
410
405
399
365
384
382
249
205
366
843
2292
4144
3930
1334
-633
-629
-302
-445
-471
-402
-474
-503
-469
-478
-467
-429
-406
-337
-204
-81
10
83
131
163
195
229
268
312
341
348
350
350
341
313
262
185
74
-53
-165
-252
-329
-395
-437
-450
-447
-446
-446
-438
-422
-405
-385
-356
-321
-294
-274
-252
-229
-211
-192
-166
-140
-119
-103
-85
-63
-41
-21
4
33
56
80
107
134
162
194
228
260
290
315
344
377
407
433
456
474
489
507
526
544
564
588
607
622
636
647
659
674
688
701
717
739
768
803
846
906
984
1061
1124
1163
1174
1151
1097
1050
1030
986
918
871
817
750
697
473
-35
-633
-1241
-1511
-625
606
-252
-3108
-5056
-5144
-4916
-4939
-4726
-4421
-4283
-4119
-3824
-3486
-3143
-2797
-2457
-2144
-1882
-1634
-1338
-1008
-697
-419
-159
84
309
516
709
887
1047
1181
1287
1375
1446
1487
1490
1462
1415
1355
1295
1246
1206
1174
1154
1143
1129
1117
1111
1102
1085
1062
1032
999
973
950
924
893
859
825
796
767
726
679
643
620
594
557
518
487
465
439
404
370
343
318
290
262
236
214
193
167
143
127
109
83
61
45
28
12
-1
-16
-35
-53
-69
-89
-110
-119
-120
-123
-125
-117
-110
-132
-176
-201
-210
-232
-237
-235
-263
-261
-236
-301
-335
-227
14
956
2698
3294
1481
-631
-994
-556
-507
-526
-416
-419
-439
-385
-370
-376
-352
-333
-319
-291
-263
-243
-218
-187
-158
-132
-99
-52
-2
45
88
123
141
142
133
105
43
-52
-162
-274
-383
-482
-560
-607
-626
-630
-627
-615
-590
-561
-533
-507
-484
-462
-438
-415
-396
-385
-379
-370
-358
-346
-338
-329
-314
-297
-284
-270
-255
-241
-228
-214
-199
-186
-174
-156
-134
-121
-116
-104
-84
-70
-59
-46
-34
-25
-16
-7
1
7
8
5
9
29
53
68
88
118
122
91
70
68
62
74
82
59
81
109
25
-8
132
481
1656
3514
3870
1784
-252
-441
-44
-104
-144
-41
-61
-78
-27
-18
-18
11
24
36
66
93
116
148
182
219
262
311
364
422
482
536
576
595
596
581
541
465
357
228
95
-24
-122
-201
-260
-297
-318
-328
-331
-328
-317
-303
-292
-279
-264
-251
-243
-237
-234
-236
-240
-245
-254
-262
-267
-268
-271
-272
-271
-271
-271
-271
-270
-267
-265
-265
-262
-256
-251
-249
-245
-240
-237
-235
-229
-222
-218
-217
-214
-210
-207
-202
-198
-195
-193
-188
-183
-179
-183
-192
-190
-169
-149
-140
-119
-86
-82
-114
-135
-139
-142
-125
-118
-140
-110
-91
-188
-205
-32
428
1808
3673
3703
1398
-490
-525
-178
-280
-289
-182
-206
-205
-143
-123
-96
-49
-34
-26
4
40
77
118
159
199
243
288
339
399
460
510
548
571
573
560
531
468
363
237
111
-5
-106
-189
-250
-291
-315
-325
-328
-331
-328
-313
-294
-279
-260
-231
-201
-183
-170
-149
-127
-114
-112
-115
-124
-135
-145
-148
-146
-149
-156
-156
-152
-149
-147
-146
-147
-146
-144
-143
-139
-130
-121
-117
-117
-114
-109
-113
-119
-117
-115
-116
-112
-103
-99
-100
-102
-108
-115
-112
-102
-101
-116
-130
-125
-106
-97
-98
-86
-68
-87
-135
-165
-182
-198
-192
-204
-237
-216
-227
-334
-328
-154
355
1824
3496
3081
672
-897
-739
-437
-537
-510
-430
-469
-456
-407
-404
-387
-356
-345
-326
-289
-256
-223
-186
-148
-104
-55
-2
62
132
199
264
319
352
369
374
354
299
213
109
4
-97
-188
-258
-301
-325
-334
-327
-310
-291
-267
-237
-207
-182
-160
-134
-107
-84
-68
-53
-37
-21
-6
5
17
28
38
53
74
89
98
114
130
140
155
176
189
194
206
225
244
256
266
280
297
309
313
318
336
357
367
369
376
385
388
391
398
403
408
407
396
394
416
438
442
452
466
455
429
407
388
386
389
363
363
382
312
268
372
624
1557
3277
3907
2143
3
-419
2
34
-27
59
50
9
34
28
9
21
17
-3
-1
9
12
12
16
22
36
55
70
90
124
159
165
139
108
80
25
-72
-193
-341
-515
-674
-808
-952
-1088
-1167
-1216
-1276
-1326
-1352
-1402
-1502
-1593
-1639
-1692
-1771
-1811
-1802
-1810
-1851
-1894
-1952
-2023
-2075
-2136
-2243
-2346
-2420
-2542
-2712
-2845
-2945
-3069
-3215
-3339
-3422
-3497
-3608
-3732
-3863
-4040
-4206
-4285
-4354
-4433
-4418
-4336
-4305
-4299
-4227
-4075
-3836
-3462
-2964
-2430
-1823
-964
40
924
1939
3514
5692
8874
13421
17744
19456
18545
16739
15128
14307
14158
13053
10320
7889
7027
6636
5933
5345
4962
4581
4323
4179
4011
3920
3886
3555
2766
1719
569
-648
-1808
-2771
-3519
-4091
-4510
-4799
-4973
-5071
-5143
-5197
-5236
-5280
-5326
-5355
-5396
-5470
-5548
-5592
-5595
-5567
-5506
-5407
-5286
-5154
-4993
-4801
-4629
-4505
-4395
-4279
-4182
-4103
-4010
-3892
-3778
-3679
-3580
-3478
-3387
-3302
-3213
-3132
-3039
-2867
-2622
-2355
-1899
-977
390
2051
4099
6784
10295
14217
17051
17405
15548
12725
9736
6949
4613
2751
1304
247
-514
-1085
-1502
-1795
-2000
-2157
-2280
-2337
-2376
-2468
-2494
-2355
-1912
-755
644
564
-1229
-2610
-2509
-2095
-2086
-2063
-1925
-1858
-1786
-1679
-1601
-1515
-1409
-1321
-1231
-1126
-1030
-940
-836
-726
-618
-510
-397
-278
-152
-31
73
155
218
265
286
272
218
137
45
-38
-102
-147
-174
-181
-173
-158
-134
-97
-58
-22
18
60
97
131
168
197
215
230
245
253
258
265
269
269
274
281
282
284
292
296
295
300
306
305
304
307
308
306
303
302
301
298
291
284
273
256
242
247
258
261
271
289
285
255
227
202
179
181
176
146
155
163
76
35
167
617
1825
3313
3238
1301
-261
-296
1
-93
-145
-87
-112
-123
-89
-91
-98
-81
-68
-51
-31
-18
0
28
53
82
122
163
206
259
313
354
382
394
389
367
323
246
136
11
-110
-221
-314
-384
-433
-462
-476
-481
-479
-474
-465
-454
-444
-434
-420
-407
-399
-393
-386
-385
-391
-394
-393
-393
-394
-396
-399
-396
-391
-390
-387
-377
-369
-365
-358
-348
-338
-329
-320
-311
-304
-297
-288
-280
-274
-266
-255
-247
-240
-231
-222
-215
-210
-202
-191
-181
-176
-172
-164
-155
-149
-143
-135
-134
-141
-140
-121
-98
-86
-70
-40
-23
-36
-54
-64
-72
-59
-48
-63
-40
-13
-92
-133
10
426
1613
3318
3584
1672
-174
-384
-72
-148
-195
-106
-118
-127
-78
-66
-62
-31
-12
6
41
72
95
124
157
192
229
269
317
371
424
474
517
544
554
550
529
482
404
300
187
81
-14
-91
-146
-181
-201
-209
-210
-207
-199
-189
-180
-173
-168
-164
-161
-159
-160
-163
-165
-166
-169
-175
-178
-182
-187
-187
-184
-187
-191
-190
-185
-184
-185
-185
-182
-178
-175
-173
-171
-168
-166
-162
-158
-156
-153
-150
-148
-146
-141
-138
-138
-135
-132
-129
-127
-125
-123
-120
-117
-116
-115
-114
-112
-112
-110
-111
-120
-129
-121
-102
-91
-85
-62
-38
-48
-77
-96
-109
-105
-92
-108
-105
-68
-123
-197
-103
177
1073
2828
3788
2339
86
-621
-275
-222
-306
-217
-197
-230
-188
-164
-168
-142
-117
-106
-80
-50
-27
3
38
76
118
163
209
265
327
388
438
471
487
490
478
443
378
279
159
44
-54
-139
-208
-253
-278
-291
-292
-287
-281
-273
-261
-249
-241
-235
-229
-225
-224
-224
-225
-226
-227
-229
-231
-230
-230
-231
-232
-229
-225
-221
-218
-215
-212
-207
-202
-199
-195
-189
-183
-178
-173
-169
-165
-159
-153
-149
-144
-139
-136
-132
-126
-122
-120
-115
-110
-106
-102
-100
-98
-96
-93
-89
-85
-82
-83
-92
-96
-81
-63
-55
-42
-13
0
-20
-43
-58
-62
-45
-48
-63
-27
-34
-126
-99
91
625
2078
3653
3187
874
-583
-424
-152
-243
-203
-124
-157
-140
-94
-97
-83
-47
-32
-15
13
38
67
101
132
167
209
254
304
358
414
467
509
533
541
537
513
458
369
255
134
21
-77
-155
-215
-254
-272
-275
-274
-271
-263
-254
-244
-234
-224
-220
-219
-218
-219
-221
-223
-227
-234
-240
-245
-250
-255
-259
-261
-262
-260
-257
-253
-248
-243
-238
-231
-224
-219
-215
-215
-217
-218
-217
-216
-217
-217
-215
-211
-206
-203
-201
-196
-190
-185
-180
-172
-164
-162
-160
-155
-152
-150
-144
-141
-149
-156
-142
-122
-115
-107
-81
-70
-98
-130
-145
-143
-119
-110
-123
-83
-68
-161
-165
11
508
1945
3733
3560
1178
-605
-564
-226
-314
-294
-195
-229
-225
-172
-171
-161
-126
-111
-96
-65
-39
-14
18
51
90
140
198
266
341
417
491
557
605
631
638
625
581
492
367
234
113
9
-77
-137
-174
-193
-202
-206
-206
-203
-199
-192
-184
-176
-170
-160
-145
-129
-116
-100
-78
-63
-61
-69
-85
-105
-125
-141
-158
-176
-190
-198
-206
-214
-220
-223
-227
-233
-237
-234
-233
-237
-236
-230
-226
-222
-215
-209
-206
-200
-192
-184
-175
-163
-152
-140
-128
-117
-110
-102
-94
-86
-79
-77
-85
-90
-78
-58
-50
-43
-15
7
-12
-47
-72
-83
-71
-72
-97
-69
-57
-153
-152
33
487
1831
3591
3484
1147
-652
-607
-231
-301
-279
-175
-209
-208
-152
-149
-139
-100
-77
-54
-18
13
43
80
116
151
190
232
279
331
386
435
473
493
496
486
458
402
313
197
71
-48
-149
-233
-298
-341
-363
-375
-380
-378
-373
-369
-364
-360
-358
-359
-362
-367
-373
-378
-385
-393
-401
-407
-412
-415
-417
-419
-420
-422
-420
-415
-412
-409
-404
-396
-390
-387
-385
-382
-374
-359
-340
-319
-300
-286
-277
-272
-270
-270
-267
-261
-257
-252
-246
-242
-239
-224
-198
-144
-10
194
355
411
439
509
604
704
818
900
882
795
718
649
573
523
470
394
383
374
263
237
374
761
2017
3676
3495
1132
-678
-658
-305
-389
-391
-310
-356
-366
-321
-323
-312
-271
-248
-227
-193
-168
-138
-78
-4
57
111
174
240
295
341
380
410
432
446
446
435
403
332
229
115
9
-89
-180
-255
-303
-331
-348
-355
-354
-350
-348
-348
-345
-343
-343
-340
-334
-334
-340
-341
-338
-341
-345
-346
-344
-341
-339
-340
-339
-331
-321
-316
-314
-306
-296
-290
-287
-279
-271
-264
-259
-253
-247
-239
-231
-224
-217
-213
-208
-196
-184
-180
-177
-168
-163
-160
-157
-161
-166
-154
-129
-115
-103
-77
-58
-69
-96
-118
-114
-90
-99
-109
-69
-91
-150
-50
171
776
2255
3449
2446
172
-821
-475
-258
-299
-196
-132
-151
-108
-72
-72
-46
-14
3
30
54
80
121
150
164
194
239
285
338
390
435
483
523
535
523
506
473
413
325
212
91
-20
-111
-177
-216
-249
-272
-265
-244
-234
-226
-212
-209
-211
-192
-169
-165
-168
-162
-152
-140
-131
-136
-142
-133
-123
-121
-120
-122
-119
-106
-90
-79
-78
-83
-71
-46
-39
-44
-32
