# session 19
-511
-105
-1478
-373
5174
9549
9331
8061
8025
7780
7134
6854
6564
6089
5751
5442
5072
4778
4508
4191
3907
3664
3404
3131
2867
2611
2380
2174
1952
1750
1611
1416
1160
1036
1062
1506
2828
3951
2980
651
-552
-411
-340
-539
-595
-651
-785
-862
-933
-1029
-1082
-1109
-1139
-1160
-1177
-1195
-1216
-1250
-1279
-1275
-1246
-1209
-1156
-1085
-1004
-930
-869
-829
-810
-797
-783
-789
-840
-916
-982
-1036
-1086
-1121
-1130
-1110
-1068
-1008
-940
-860
-765
-667
-580
-495
-404
-315
-237
-156
-70
9
85
172
263
353
447
549
650
747
848
953
1057
1159
1267
1381
1500
1614
1721
1827
1936
2045
2152
2261
2374
2488
2598
2707
2817
2922
3020
3115
3204
3282
3365
3460
3552
3634
3715
3794
3876
3970
4067
4145
4203
4247
4267
4273
4311
4394
4487
4560
4596
4627
4668
4645
4594
4676
4920
5595
7105
8411
7601
5153
3506
3177
2883
2496
2551
2607
2380
2193
1545
-21
-1807
-4135
-8163
-12920
-17391
-22750
-28091
-29959
-28408
-26866
-26530
-26104
-24980
-23596
-22225
-20754
-19091
-17353
-15669
-14058
-12521
-11057
-9630
-8222
-6848
-5528
-4265
-3049
-1887
-799
225
1218
2191
3116
3962
4732
5455
6124
6713
7231
7699
8093
8400
8648
8872
9073
9228
9320
9361
9375
9352
9272
9138
8976
8803
8630
8469
8322
8170
7991
7788
7577
7361
7132
6889
6646
6409
6174
5930
5677
5418
5150
4878
4618
4367
4115
3867
3634
3411
3189
2976
2777
2582
2395
2222
2053
1873
1694
1534
1398
1257
1084
930
810
626
428
347
376
831
1951
2574
1451
-341
-1059
-967
-1035
-1206
-1264
-1366
-1502
-1585
-1666
-1760
-1842
-1935
-2032
-2113
-2190
-2270
-2339
-2401
-2456
-2489
-2496
-2492
-2478
-2449
-2404
-2356
-2318
-2287
-2259
-2243
-2247
-2271
-2318
-2389
-2467
-2532
-2580
-2609
-2613
-2586
-2540
-2488
-2431
-2369
-2306
-2245
-2189
-2136
-2085
-2036
-1994
-1955
-1913
-1870
-1836
-1811
-1794
-1777
-1751
-1719
-1685
-1652
-1626
-1600
-1551
-1482
-1414
-1348
-1274
-1199
-1125
-1039
-933
-819
-711
-608
-505
-406
-315
-232
-158
-93
-30
40
108
162
209
268
342
407
461
532
613
655
663
678
710
764
832
870
915
991
979
929
1012
1255
2069
3754
4786
3484
1245
447
771
865
787
865
881
838
867
889
880
896
907
906
928
960
981
1000
1026
1050
1066
1085
1115
1149
1182
1216
1249
1267
1265
1246
1208
1142
1041
905
750
598
455
317
196
101
33
-13
-42
-65
-88
-107
-123
-142
-163
-181
-201
-227
-254
-280
-310
-340
-365
-393
-426
-450
-468
-488
-511
-531
-552
-574
-599
-628
-656
-677
-697
-719
-734
-742
-754
-765
-769
-774
-780
-777
-771
-773
-775
-767
-753
-745
-738
-721
-702
-697
-704
-712
-716
-708
-689
-665
-625
-578
-557
-557
-556
-548
-524
-500
-506
-478
-420
-448
-462
-326
-37
862
2472
3121
1600
-320
-728
-346
-271
-271
-150
-119
-108
-32
10
30
84
139
185
243
302
357
425
500
567
635
723
824
920
1012
1108
1196
1270
1331
1374
1397
1402
1373
1309
1237
1166
1091
1031
996
975
969
991
1018
1044
1083
1129
1169
1217
1268
1305
1337
1369
1385
1395
1402
1388
1364
1354
1354
1359
1367
1360
1353
1365
1384
1409
1444
1481
1527
1552
1540
1573
1582
1343
838
49
-1127
-2228
-2787
-3510
-5172
-7124
-8248
-8208
-7409
-6691
-6526
-6371
-5671
-4793
-4421
-4998
-6435
-7691
-7664
-6539
-5269
-4282
-3439
-2657
-1811
-291
1900
2971
1766
146
55
721
998
1171
1501
1736
1891
2074
2227
2323
2346
2269
2154
2045
1953
1955
2091
2252
2348
2402
2441
2467
2489
2496
2487
2482
2432
2271
2057
1873
1695
1494
1310
1147
953
721
513
403
408
486
586
675
734
766
783
782
778
788
804
806
800
790
762
711
658
605
534
444
365
313
273
230
177
118
63
-4
-95
-177
-218
-240
-267
-285
-285
-277
-266
-258
-269
-292
-318
-370
-446
-501
-521
-535
-548
-552
-567
-604
-660
-736
-804
-816
-800
-833
-879
-882
-936
-1018
-957
-754
-132
1284
2351
1424
-570
-1416
-1133
-966
-991
-880
-781
-722
-612
-519
-454
-368
-288
-214
-114
2
117
214
281
340
421
523
624
707
755
776
798
834
858
847
816
761
663
535
399
254
111
-10
-110
-202
-276
-324
-358
-389
-414
-430
-438
-441
-443
-446
-451
-457
-455
-452
-456
-460
-458
-462
-474
-477
-466
-451
-441
-435
-425
-408
-394
-383
-368
-348
-332
-317
-301
-285
-266
-247
-230
-211
-188
-164
-144
-126
-107
-85
-67
-58
-51
-34
-5
23
42
64
95
105
91
80
81
99
123
117
121
146
101
55
134
341
1088
2577
3331
2005
71
-487
-158
-84
-128
-43
-27
-53
-21
-8
-19
-8
1
7
30
44
47
67
101
132
165
200
231
269
319
368
411
447
465
462
451
426
370
279
168
57
-45
-139
-217
-266
-289
-304
-312
-303
-283
-267
-259
-251
-243
-237
-235
-233
-230
-232
-234
-227
-224
-230
-228
-217
-214
-213
-203
-193
-192
-193
-194
-191
-178
-168
-170
-171
-162
-152
-151
-153
-150
-140
-130
-127
-131
-131
-122
-112
-109
-103
-93
-94
-110
-121
-112
-94
-82
-67
-42
-25
-35
-55
-71
-88
-91
-76
-85
-94
-65
-93
-155
-88
111
744
2206
3316
2340
234
-657
-345
-190
-272
-202
-158
-196
-165
-123
-123
-109
-85
-67
-44
-22
0
34
67
96
133
177
216
261
315
369
416
457
484
489
478
455
407
318
205
93
-12
-109
-182
-225
-254
-274
-280
-272
-264
-259
-253
-246
-239
-234
-228
-222
-220
-223
-227
-229
-230
-230
-233
-235
-232
-226
-225
-224
-217
-210
-211
-214
-211
-204
-196
-192
-189
-182
-172
-169
-169
-159
-149
-151
-156
-152
-144
-139
-135
-130
-130
-133
-135
-135
-140
-145
-149
-159
-174
-176
-161
-147
-137
-111
-80
-82
-114
-134
-144
-146
-129
-130
-133
-94
-120
-209
-163
53
778
2508
3956
3013
583
-580
-308
-157
-283
-219
-164
-206
-179
-137
-136
-113
-83
-70
-50
-23
1
28
59
92
133
179
226
279
337
398
453
494
523
540
532
499
440
347
224
98
-12
-108
-188
-244
-279
-297
-301
-297
-292
-285
-274
-265
-261
-261
-256
-244
-232
-228
-226
-218
-211
-210
-210
-215
-218
-211
-203
-204
-202
-195
-190
-185
-180
-178
-177
-174
-167
-158
-155
-157
-154
-146
-142
-141
-137
-130
-121
-114
-110
-106
-103
-100
-97
-97
-100
-96
-86
-80
-81
-76
-69
-69
-69
-63
-64
-75
-81
-70
-52
-41
-33
-12
12
-2
-38
-51
-51
-50
-40
-53
-63
-21
-45
-133
-83
121
779
2381
3742
2846
520
-604
-338
-167
-263
-200
-155
-196
-168
-132
-131
-101
-71
-66
-47
-17
8
37
73
105
138
179
224
270
322
376
422
457
481
493
486
459
411
335
224
93
-26
-119
-197
-265
-314
-339
-348
-347
-341
-334
-327
-322
-319
-319
-322
-324
-327
-336
-354
-365
-368
-377
-391
-395
-388
-386
-388
-379
-370
-373
-369
-352
-346
-356
-357
-345
-333
-319
-303
-292
-282
-265
-239
-197
-135
-72
-41
-37
-29
-10
9
17
17
14
15
26
46
59
55
59
82
86
55
38
67
99
98
93
125
173
191
203
249
289
268
220
195
189
185
154
101
89
77
-11
-24
107
409
1426
2973
3146
1257
-484
-621
-280
-309
-308
-203
-212
-221
-179
-173
-174
-152
-134
-114
-86
-69
-52
-25
1
26
61
105
144
181
226
275
315
343
359
365
366
352
302
221
131
36
-61
-141
-198
-243
-274
-281
-272
-268
-274
-266
-239
-224
-234
-239
-227
-223
-231
-239
-239
-232
-230
-238
-242
-240
-236
-230
-224
-226
-226
-216
-209
-203
-192
-183
-183
-178
-169
-171
-176
-167
-152
-144
-137
-129
-121
-113
-103
-94
-85
-77
-77
-79
-76
-66
-55
-53
-55
-54
-55
-59
-50
-31
-21
-14
0
-1
-22
-48
-72
-75
-63
-80
-88
-57
-98
-161
-73
148
820
2287
3254
2101
2
-771
-422
-270
-323
-240
-197
-221
-196
-171
-159
-128
-108
-98
-76
-58
-41
-9
27
65
112
165
225
294
356
402
443
482
508
513
496
460
405
322
211
93
-11
-105
-190
-248
-276
-289
-298
-301
-298
-295
-295
-295
-293
-293
-298
-303
-305
-309
-325
-345
-363
-379
-383
-373
-364
-360
-355
-347
-338
-326
-315
-309
-295
-274
-251
-224
-195
-162
-108
-43
-1
30
85
144
176
203
244
282
298
295
290
302
321
310
278
261
249
217
176
137
90
58
56
46
8
-7
19
26
-12
-58
-98
-115
-98
-104
-126
-101
-122
-208
-162
40
614
2044
3371
2651
439
-746
-516
-307
-408
-369
-307
-331
-300
-259
-264
-244
-215
-218
-212
-181
-167
-152
-103
-54
-25
9
57
104
157
218
275
327
367
391
407
407
367
288
187
75
-31
-120
-193
-250
-286
-301
-305
-308
-304
-290
-274
-261
-248
-237
-229
-223
-220
-221
-226
-230
-232
-232
-234
-237
-239
-239
-237
-232
-228
-226
-222
-217
-213
-211
-204
-195
-183
-173
-166
-158
-147
-137
-130
-120
-112
-107
-102
-96
-95
-95
-95
-94
-88
-88
-101
-99
-70
-47
-43
-23
6
6
-18
-41
-54
-44
-42
-59
-30
-14
-95
-91
72
439
1555
3089
3076
1086
-530
-540
-197
-231
-216
-124
-141
-136
-88
-82
-71
-36
-20
-8
15
40
65
93
119
149
184
223
269
319
367
416
465
500
514
512
495
452
376
269
151
40
-63
-157
-226
-263
-282
-291
-293
-291
-287
-276
-262
-254
-250
-243
-238
-240
-244
-244
-244
-247
-252
-257
-260
-260
-260
-258
-254
-251
-253
-255
-251
-245
-240
-238
-234
-229
-225
-224
-220
-212
-201
-198
-208
-218
-206
-179
-164
-154
-124
-98
-106
-129
-151
-166
-151
-142
-155
-124
-115
-192
-169
5
420
1669
3254
3082
934
-649
-581
-246
-296
-273
-192
-220
-205
-152
-152
-144
-109
-88
-68
-41
-16
14
46
75
111
161
211
264
327
394
454
500
527
539
535
511
457
364
243
116
1
-98
-182
-248
-288
-303
-306
-311
-313
-301
-282
-269
-261
-252
-246
-249
-246
-236
-230
-231
-235
-241
-244
-241
-237
-238
-243
-241
-231
-224
-220
-214
-210
-208
-202
-193
-187
-182
-176
-172
-172
-180
-187
-178
-154
-135
-122
-95
-74
-89
-117
-132
-138
-123
-111
-130
-112
-78
-141
-164
-23
294
1308
2967
3363
1514
-418
-659
-251
-237
-256
-155
-161
-171
-119
-102
-93
-56
-38
-28
0
30
54
80
107
133
166
222
298
373
431
483
529
556
563
554
523
462
368
248
118
-6
-113
-198
-267
-319
-345
-347
-339
-333
-326
-315
-299
-279
-264
-256
-249
-238
-229
-227
-228
-227
-223
-219
-218
-217
-210
-199
-193
-189
-183
-173
-165
-159
-152
-142
-127
-114
-107
-104
-99
-94
-86
-73
-62
-58
-53
-47
-45
-45
-41
-34
-29
-24
-18
-11
-6
-7
-9
-10
-11
-19
-27
-32
-45
-66
-74
-54
-31
-22
-9
20
21
-23
-62
-77
-93
-84
-63
-70
-42
-7
-91
-144
-12
358
1517
3330
3740
1770
-290
-621
-295
-360
-449
-409
-449
-480
-455
-457
-449
-416
-413
-419
-394
-363
-356
-359
-336
-288
-258
-245
-196
-113
-45
3
57
129
217
309
377
406
400
361
304
247
192
136
88
49
18
-2
-7
-2
6
8
11
22
33
33
30
28
22
17
16
20
20
14
5
-4
-6
-6
-13
-22
-28
-36
-49
-55
-53
-54
-60
-67
-72
-74
-76
-80
-83
-81
-81
-86
-91
-93
-94
-92
-91
-97
-103
-105
-109
-112
-111
-114
-116
-113
-114
-123
-128
-130
-135
-138
-135
-136
-139
-141
-153
-167
-163
-146
-134
-126
-107
-83
-89
-125
-146
-149
-155
-148
-145
-164
-140
-121
-200
-219
-87
283
1449
3088
3193
1211
-525
-635
-304
-338
-337
-249
-265
-264
-215
-200
-186
-155
-140
-124
-95
-70
-49
-20
15
52
92
135
183
236
295
355
408
448
477
490
484
460
412
329
224
123
31
-56
-126
-166
-186
-199
-204
-204
-203
-192
-174
-167
-172
-169
-160
-158
-160
-161
-162
-162
-164
-168
-170
-166
-164
-166
-167
-164
-161
-156
-150
-145
-143
-140
-131
-124
-124
-125
-117
-108
-106
-107
-103
-101
-106
-110
-109
-105
-101
-100
-101
-105
-105
-103
-104
-109
-112
-114
-118
-120
-113
-106
-106
-108
-112
-122
-126
-109
-90
-86
-74
-43
-29
-50
-76
-89
-96
-86
-88
-115
-97
-74
-148
-172
-50
278
1391
3097
3367
1409
-462
-633
-255
-269
-275
-177
-196
-206
-151
-135
-130
-104
-93
-84
-58
-31
-8
21
55
92
133
180
230
283
341
403
457
495
515
518
504
470
405
303
181
63
-44
-139
-217
-267
-292
-302
-305
-305
-296
-284
-275
-264
-249
-239
-236
-232
-229
-229
-232
-231
-228
-224
-223
-222
-217
-210
-205
-203
-202
-201
-194
-184
-179
-174
-164
-156
-153
-147
-139
-132
-127
-123
-122
-121
-117
-110
-103
-101
-98
-92
-89
-89
-87
-83
-81
-79
-81
-79
-70
-65
-69
-71
-69
-71
-82
-89
-81
-66
-57
-40
-5
14
-12
-47
-59
-65
-57
-48
-74
-72
-38
-93
-142
-36
249
1214
2955
3646
1970
-152
-632
-255
-228
-286
-195
-195
-226
-184
-158
-148
-114
-90
-76
-51
-32
-13
21
63
111
166
220
267
315
372
429
480
525
562
578
570
538
477
388
281
165
50
-52
-135
-198
-243
-269
-279
-286
-292
-291
-277
-263
-255
-243
-221
-203
-203
-210
-211
-216
-232
-246
-250
-253
-261
-268
-269
-268
-264
-259
-261
-265
-261
-256
-253
-249
-244
-241
-240
-238
-230
-221
-221
-224
-219
-209
-204
-201
-198
-195
-190
-185
-179
-172
-165
-159
-150
-141
-139
-136
-124
-114
-112
-106
-93
-83
-77
-70
-64
-66
-69
-61
-39
-21
-8
22
60
63
39
25
19
28
53
49
47
91
70
7
76
301
1052
2686
3803
2630
381
-484
-127
35
-32
46
93
75
113
153
147
