# session 4
155
461
-452
331
4140
7109
6905
5981
5918
5735
5295
5124
4963
4692
4522
4370
4165
3999
3849
3673
3509
3353
3185
3023
2872
2722
2572
2418
2262
2111
1959
1800
1652
1520
1386
1253
1131
1014
898
785
677
572
470
375
291
214
139
66
1
-62
-130
-198
-257
-308
-354
-397
-441
-495
-554
-611
-662
-715
-780
-858
-931
-979
-1000
-1010
-1025
-1057
-1095
-1111
-1110
-1112
-1109
-1091
-1086
-1103
-1121
-1138
-1147
-1134
-1139
-1159
-1133
-1129
-1181
-1137
-953
-468
726
1920
1461
-370
-1469
-1322
-1085
-1108
-1050
-981
-983
-939
-877
-843
-796
-744
-704
-657
-604
-551
-489
-426
-368
-296
-218
-154
-95
-20
61
124
165
195
221
235
223
180
113
35
-40
-104
-156
-193
-209
-208
-196
-177
-155
-134
-109
-84
-71
-66
-54
-40
-36
-37
-34
-28
-23
-23
-25
-24
-18
-14
-12
-6
5
16
22
23
24
27
32
36
40
47
57
62
63
68
77
83
85
89
94
101
108
115
119
122
125
127
129
135
139
135
134
139
144
155
186
216
221
205
184
165
166
175
162
170
200
162
137
238
452
1147
2520
3230
2017
204
-349
-41
55
24
103
125
110
146
167
172
201
221
226
244
273
301
328
355
386
423
466
514
568
619
660
688
700
694
671
630
565
475
372
267
170
90
30
-13
-39
-49
-51
-51
-48
-45
-42
-43
-47
-51
-56
-64
-75
-85
-95
-107
-121
-136
-151
-170
-191
-215
-244
-278
-309
-333
-357
-384
-408
-424
-431
-435
-439
-441
-439
-437
-435
-437
-439
-438
-438
-441
-445
-446
-446
-450
-451
-452
-463
-481
-487
-476
-471
-472
-458
-441
-450
-481
-517
-542
-544
-556
-590
-585
-585
-671
-699
-567
-163
989
2484
2466
548
-1051
-1130
-846
-907
-915
-839
-862
-858
-808
-803
-799
-772
-762
-749
-718
-693
-668
-632
-592
-547
-493
-436
-376
-308
-240
-183
-142
-118
-112
-123
-156
-220
-312
-412
-498
-566
-617
-647
-655
-645
-620
-586
-545
-504
-461
-413
-364
-318
-276
-235
-194
-151
-110
-72
-34
7
50
97
145
195
245
294
343
392
439
485
531
576
622
670
719
766
816
874
936
993
1049
1111
1172
1227
1281
1343
1410
1473
1536
1604
1670
1731
1794
1862
1927
1990
2052
2102
2145
2208
2279
2333
2388
2470
2553
2606
2636
2663
2711
2773
2780
2746
2767
2779
2731
2797
3019
3511
4699
5928
5486
3564
2322
2336
2404
2174
2072
2080
2084
2139
2174
2107
1935
1677
1442
1319
1238
1058
715
378
296
275
-134
-1033
-2419
-4323
-6483
-8692
-10713
-11830
-12069
-12511
-13207
-13281
-12890
-12563
-11994
-11027
-10111
-9476
-9018
-8608
-8061
-7233
-6251
-5365
-4605
-3836
-3075
-2429
-1878
-1357
-880
-451
-46
325
653
958
1251
1525
1779
2013
2226
2417
2589
2735
2845
2932
3005
3064
3108
3144
3172
3190
3197
3196
3193
3181
3149
3102
3060
3024
2982
2934
2886
2838
2787
2727
2660
2595
2536
2479
2425
2367
2301
2237
2188
2143
2090
2037
1989
1932
1866
1804
1749
1707
1676
1639
1602
1565
1494
1414
1378
1397
1638
2206
2552
2080
1259
887
865
744
555
449
386
324
268
220
176
102
-28
-183
-321
-433
-519
-577
-605
-602
-570
-525
-478
-430
-381
-333
-299
-285
-294
-323
-368
-422
-480
-545
-615
-682
-742
-788
-807
-792
-755
-722
-701
-682
-659
-632
-617
-625
-640
-647
-650
-659
-668
-671
-671
-673
-677
-680
-680
-674
-658
-638
-623
-611
-593
-566
-539
-519
-501
-482
-466
-456
-445
-433
-423
-419
-417
-413
-409
-406
-399
-389
-377
-365
-349
-333
-324
-319
-308
-293
-283
-273
-251
-227
-218
-222
-229
-227
-207
-190
-188
-164
-147
-175
-159
-61
182
875
1798
1874
857
-46
-181
-165
-363
-507
-520
-527
-533
-525
-515
-529
-624
-817
-1046
-1260
-1449
-1622
-1805
-1986
-2082
-2047
-1940
-1850
-1788
-1694
-1531
-1333
-1150
-998
-869
-759
-661
-572
-487
-397
-305
-223
-153
-76
33
181
344
492
617
730
838
930
993
1036
1081
1135
1189
1241
1290
1328
1352
1371
1399
1431
1462
1497
1543
1588
1618
1629
1633
1633
1616
1573
1509
1424
1307
1162
1008
865
738
615
475
327
202
106
38
16
58
155
283
415
534
645
769
895
1006
1105
1203
1303
1401
1486
1548
1598
1641
1657
1653
1647
1644
1652
1667
1669
1673
1678
1654
1658
1738
1938
2502
3335
3525
2636
1604
1160
836
274
-205
-499
-811
-1152
-1512
-1987
-2536
-3087
-3672
-4160
-4317
-4193
-4018
-3880
-3775
-3687
-3570
-3417
-3273
-3136
-2981
-2818
-2678
-2598
-2575
-2560
-2519
-2478
-2481
-2528
-2549
-2472
-2322
-2171
-2020
-1822
-1576
-1326
-1096
-866
-646
-484
-384
-286
-172
-87
-56
-49
-37
-11
37
111
201
307
426
544
651
756
856
944
1012
1069
1119
1171
1219
1253
1274
1291
1308
1324
1339
1353
1365
1369
1355
1325
1293
1265
1235
1201
1170
1147
1126
1106
1089
1072
1055
1040
1028
1012
990
963
940
922
903
882
864
839
798
745
691
644
608
574
536
503
461
398
362
369
439
742
1209
1289
784
286
181
173
43
-71
-87
-66
-53
-49
-36
-39
-126
-302
-499
-663
-777
-841
-865
-850
-788
-688
-579
-476
-377
-283
-203
-148
-117
-110
-121
-142
-172
-213
-256
-297
-346
-396
-427
-423
-388
-335
-285
-259
-253
-246
-234
-239
-268
-302
-322
-326
-325
-328
-329
-321
-309
-302
-300
-292
-275
-255
-243
-241
-239
-233
-225
-214
-204
-198
-193
-185
-178
-173
-166
-160
-157
-159
-166
-176
-180
-182
-187
-195
-203
-207
-207
-206
-203
-192
-177
-167
-155
-132
-112
-104
-103
-107
-111
-96
-83
-89
-76
-65
-100
-98
-8
217
899
1899
2091
1053
20
-154
-58
-156
-211
-158
-142
-136
-99
-67
-51
-54
-77
-89
-72
-41
-10
23
61
108
162
219
281
348
420
494
561
613
650
665
656
624
578
522
463
407
361
332
325
339
370
410
442
453
443
399
305
156
-44
-286
-543
-799
-1072
-1355
-1602
-1784
-1886
-1874
-1757
-1608
-1466
-1311
-1160
-1049
-959
-861
-780
-733
-714
-736
-798
-884
-1056
-1352
-1613
-1666
-1555
-1413
-1281
-1147
-996
-810
-592
-361
-136
65
238
391
522
634
743
853
960
1070
1187
1291
1380
1471
1570
1676
1790
1886
1962
2048
2108
2123
2183
2329
2707
3605
4540
4353
3143
2303
2255
2290
2204
2236
2299
2297
2323
2369
2362
2302
2179
1973
1725
1493
1264
994
701
445
238
35
-188
-398
-536
-621
-722
-825
-909
-1096
-1453
-1807
-2041
-2316
-2762
-3221
-3489
-3634
-3844
-4042
-4014
-3840
-3736
-3663
-3515
-3376
-3308
-3231
-3094
-2923
-2744
-2601
-2494
-2359
-2176
-1997
-1850
-1721
-1586
-1426
-1250
-1078
-908
-728
-550
-388
-247
-127
-20
94
223
340
416
468
529
597
666
740
817
892
963
1026
1080
1129
1174
1215
1251
1280
1302
1320
1337
1355
1368
1373
1375
1376
1369
1355
1341
1326
1302
1270
1242
1224
1223
1235
1243
1243
1237
1200
1142
1113
1124
1247
1593
1911
1750
1242
924
857
735
547
463
466
449
398
355
324
254
104
-95
-285
-434
-542
-619
-667
-679
-661
-625
-571
-507
-456
-429
-421
-431
-470
-531
-597
-656
-701
-734
-761
-787
-808
-814
-795
-739
-652
-557
-483
-437
-400
-346
-293
-292
-344
-392
-402
-392
-381
-368
-349
-321
-296
-289
-290
-277
-254
-240
-243
-250
-252
-251
-250
-252
-258
-265
-274
-285
-294
-293
-284
-276
-272
-268
-263
-254
-238
-219
-198
-175
-148
-123
-100
-74
-46
-23
-3
23
51
72
88
99
118
154
187
202
227
247
228
243
322
500
1070
1939
2139
1275
391
247
354
281
212
244
272
281
297
323
352
352
311
250
187
133
87
47
26
36
70
123
192
262
330
403
478
533
557
554
532
497
452
402
358
328
303
273
256
277
332
395
454
502
532
543
527
464
363
258
157
42
-96
-242
-369
-477
-573
-625
-623
-594
-546
-495
-505
-596
-682
-702
-704
-752
-850
-970
-1101
-1205
-1223
-1175
-1130
-1105
-1071
-1029
-992
-951
-899
-855
-828
-797
-756
-723
-708
-702
-690
-646
-557
-457
-381
-318
-243
-182
-154
-127
-65
19
109
198
284
350
371
360
368
446
737
1288
1667
1421
886
654
604
343
2
-102
-3
105
174
248
326
351
241
-31
-346
-529
-555
-528
-503
-460
-396
-331
-266
-196
-125
-57
8
61
89
91
78
57
31
13
22
49
75
99
131
172
233
311
384
433
473
512
544
563
572
571
568
561
550
537
523
512
504
493
480
467
455
445
443
442
434
421
415
409
398
380
357
332
307
285
268
257
246
229
205
186
177
170
162
158
156
150
144
140
134
122
107
95
86
75
64
61
61
56
49
43
31
15
3
0
8
18
18
19
20
-5
-27
-5
76
356
865
1123
751
205
18
3
-135
-266
-264
-234
-252
-284
-305
-351
-465
-640
-823
-968
-1061
-1108
-1121
-1102
-1049
-967
-869
-765
-666
-579
-515
-481
-475
-496
-537
-584
-621
-644
-661
-674
-683
-695
-709
-702
-655
-572
-468
-371
-313
-285
-256
-237
-265
-316
-342
-341
-338
-334
-323
-303
-279
-260
-246
-232
-214
-192
-171
-157
-153
-154
-158
-160
-154
-148
-153
-165
-175
-179
-178
-176
-173
-172
-171
-169
-168
-172
-176
-174
-167
-160
-152
-143
-132
-119
-99
-75
-51
-30
-5
30
75
122
174
236
303
364
418
466
514
573
629
671
730
791
807
852
988
1246
1914
2925
3264
2425
1492
1349
1489
1410
1328
1328
1247
1096
941
765
566
321
1
-344
-649
-932
-1208
-1419
-1509
-1453
-1257
-979
-679
-372
-66
220
483
727
946
1131
1281
1396
1482
1552
1605
1639
1662
1691
1726
1771
1841
1930
2003
2045
2072
2080
2055
1999
1920
1813
1655
1444
1215
990
756
520
319
151
-12
-155
-259
-354
-464
-572
-667
-763
-862
-992
-1194
-1418
-1576
-1725
-1976
-2242
-2405
-2591
-2914
-3187
-3252
-3229
-3221
-3174
-3097
-3041
-2955
-2817
-2698
-2621
-2552
-2477
-2378
-2226
-2051
-1894
-1742
-1588
-1452
-1338
-1237
-1149
-1060
-952
-844
-746
-645
-544
-455
-373
-287
-197
-103
-17
47
75
89
145
250
424
790
1235
1309
941
626
560
452
242
141
153
163
174
203
224
235
219
133
-9
-147
-258
-356
-436
-474
-476
-461
-431
-383
-328
-276
-224
-173
-128
-92
-68
-55
-48
-40
-30
-17
-6
5
26
57
98
160
234
292
332
375
421
458
484
502
516
533
557
586
616
649
682
712
741
772
805
843
889
941
995
1048
1098
1158
1241
1337
1423
1497
1567
1636
1707
1781
1858
1935
2008
2079
2154
2234
2309
2377
2453
2538
2618
2689
2755
2818
2878
2936
2990
3041
3090
3139
3192
3252
3311
3364
3419
3491
3574
3644
3686
3737
3823
3895
3918
3917
3885
3807
3744
3723
3766
4046
4471
4433
3724
2939
2431
1964
1488
1147
893
626
223
-426
-1164
-2074
-3853
-6651
-9474
-11490
-12637
-13042
-13144
-13582
-14229
-14469
-14232
-13782
-13237
-12690
-12116
-11396
-10638
-10048
-9660
-9363
-8961
-8388
-7771
-7092
-6185
-5117
-4097
-3161
-2246
-1359
-553
145
742
1255
1683
2004
2202
2303
2332
2286
2196
2146
2178
2271
2405
2605
2892
3216
3487
3676
3827
3963
4064
4116
4127
4105
4062
4006
3933
3849
3778
3732
3683
3608
3524
3459
3398
3327
3264
3218
3170
3124
3096
3079
3065
3048
3015
2956
2878
2789
2699
2623
2565
2504
2429
2352
2276
2185
2078
1972
1874
1777
1685
1604
1527
1443
1341
1227
1116
987
822
665
552
480
490
547
479
250
32
-118
-280
-422
-482
-535
-650
-756
-797
-809
-826
-845
-862
-885
-924
-984
-1044
-1090
-1128
-1153
-1158
-1147
-1115
-1053
-974
-891
-805
-725
-661
-610
-559
-509
-472
-454
-446
-437
-429
-425
-419
-405
-381
-348
-323
-323
-339
-355
-364
-377
-407
-457
-517
-571
-607
-633
-667
-703
-728
-748
-771
-786
-786
-788
-806
-831
-848
-861
-872
-878
-880
-885
-885
-873
-859
-851
-840
-821
-804
-791
-776
-756
-729
-698
-672
-647
-615
-581
-552
-534
-531
-535
-527
-507
-491
-480
-468
-459
-454
-448
-436
-411
-378
-360
-348
-327
-333
-353
-328
-255
-17
566
1102
898
182
-186
-100
-46
-103
-81
3
53
64
77
104
102
42
-35
-89
-119
-128
-126
-124
-108
-59
13
88
163
238
309
367
409
437
447
439
417
379
328
269
213
166
130
94
68
77
105
113
105
113
134
146
138
121
118
131
145
155
170
191
212
230
244
261
286
317
343
360
371
386
407
429
450
471
488
505
525
545
564
582
599
619
642
662
679
700
726
750
772
798
826
846
856
867
888
917
942
964
997
1042
1080
1104
1121
1139
1171
1219
1255
1295
1358
1374
1368
1461
1661
2155
3201
4066
3610
2344
1735
1860
1919
1864
1948
2044
2077
2137
2193
2168
2061
1882
1602
1208
722
91
-770
-1775
-2732
-3574
-4360
-5135
-5791
-6074
-5899
-5502
-5086
-4677
-4348
-4170
-4074
-4066
-4180
-4246
-4224
-4384
-4699
-4744
-4428
-4027
-3634
-3184
-2763
-2453
-2199
-1955
-1726
-1496
-1240
-967
-695
-446
-236
-68
65
161
212
232
261
336
466
639
838
1040
1229
1410
1591
1768
1930
2058
2148
2188
2115
1872
1536
1260
1104
1026
991
1012
1116
1293
1506
1714
1898
2053
2177
2269
2327
2352
2353
2323
2243
2115
1973
1839
1696
1529
1357
1205
1080
981
897
816
741
669
570
442
309
160
-15
-173
-259
-223
-104
-125
-385
-637
-748
-926
-1211
-1362
-1338
-1295
-1236
-1095
-918
-781
-715
-728
-780
-807
-792
-757
-711
-655
-592
-519
-434
-347
-269
-204
-154
-118
-82
-37
7
44
76
107
132
140
133
130
145
176
228
301
372
433
496
556
608
667
716
738
780
859
897
865
821
782
725
658
593
518
432
350
276
206
139
69
-6
-80
-144
-205
-271
-340
-406
-474
-551
-625
-687
-744
-813
-890
-953
-987
-1004
-1014
-1014
-1002
-990
-956
-868
-742
-621
-515
-419
-342
-284
-227
-169
-121
-100
-124
-178
-231
