# session 6
-108
-2
-363
-53
1425
2558
2468
2119
2104
2031
1845
1753
1671
1556
1475
1398
1307
1232
1167
1110
1064
1018
982
952
910
865
842
825
789
750
718
673
613
574
556
524
486
471
451
396
337
281
216
169
135
78
48
30
-80
-163
-90
195
1189
2841
3334
1647
-253
-616
-336
-406
-484
-407
-418
-446
-417
-416
-426
-410
-407
-411
-404
-402
-397
-375
-353
-329
-274
-207
-167
-134
-74
1
66
116
154
179
172
123
47
-39
-138
-233
-301
-350
-388
-405
-397
-380
-358
-327
-301
-289
-272
-236
-201
-177
-151
-121
-100
-94
-103
-144
-216
-289
-337
-346
-313
-256
-194
-132
-78
-43
-16
14
47
81
114
144
173
198
215
232
254
275
296
314
320
322
337
362
385
406
407
365
289
193
61
-107
-287
-450
-506
-393
-220
-112
-34
60
122
147
184
222
217
182
145
101
63
27
-62
-169
-271
-489
-729
-749
-609
-45
1327
2153
647
-1954
-3119
-2960
-2931
-3166
-3254
-3174
-2919
-2548
-2222
-1917
-1570
-1240
-964
-716
-473
-226
10
218
409
590
755
914
1074
1201
1293
1379
1453
1495
1516
1523
1495
1431
1343
1233
1109
1004
930
872
823
789
763
746
745
747
731
700
674
655
632
607
586
559
526
503
490
472
445
413
383
349
309
278
258
229
198
176
150
123
106
89
67
50
34
14
4
-4
-24
-44
-54
-67
-81
-88
-94
-103
-110
-118
-134
-145
-135
-120
-118
-115
-107
-120
-152
-188
-220
-228
-216
-229
-240
-241
-303
-338
-240
6
856
2383
2977
1495
-372
-806
-491
-485
-568
-519
-514
-525
-500
-508
-522
-507
-492
-479
-462
-447
-420
-382
-359
-344
-307
-248
-196
-156
-106
-43
20
72
104
103
71
9
-99
-240
-362
-454
-548
-635
-674
-671
-654
-624
-586
-555
-525
-487
-452
-423
-394
-366
-340
-316
-294
-270
-246
-233
-223
-207
-195
-191
-190
-198
-213
-219
-209
-196
-182
-167
-152
-138
-125
-109
-94
-90
-89
-74
-56
-54
-51
-34
-24
-24
-11
12
32
51
73
86
96
122
154
174
190
203
203
207
227
247
263
288
314
325
326
319
303
309
333
329
337
371
331
276
360
615
1416
2954
3806
2566
592
-54
252
319
238
306
334
321
370
397
380
386
400
391
369
342
306
270
247
237
232
229
241
267
290
310
332
329
264
148
6
-155
-321
-478
-650
-845
-1027
-1207
-1451
-1704
-1782
-1645
-1432
-1236
-1052
-874
-703
-541
-395
-262
-144
-52
26
104
174
222
256
288
322
352
373
394
412
415
419
436
448
444
436
420
398
384
379
373
361
346
339
331
301
250
200
154
100
45
4
-23
-56
-92
-112
-124
-142
-157
-162
-165
-172
-197
-245
-288
-291
-290
-320
-330
-330
-399
-439
-353
-133
646
2052
2571
1153
-600
-998
-701
-697
-777
-743
-760
-782
-759
-769
-791
-788
-796
-816
-818
-809
-802
-796
-778
-745
-708
-670
-623
-568
-516
-477
-452
-439
-434
-443
-481
-548
-630
-721
-819
-908
-975
-1025
-1066
-1085
-1071
-1041
-1014
-984
-946
-907
-859
-805
-766
-746
-715
-670
-644
-641
-618
-564
-525
-498
-449
-398
-372
-331
-260
-208
-178
-132
-76
-23
33
91
145
205
275
343
407
476
549
616
679
755
838
914
986
1058
1129
1214
1316
1416
1493
1557
1637
1742
1849
1943
2047
2157
2236
2281
2314
2359
2437
2510
2562
2671
2794
2815
2875
3099
3553
4701
6278
6483
4769
3249
3213
3575
3584
3621
3757
3818
3882
3971
4043
4144
4250
4307
4344
4388
4407
4360
4300
4302
4220
3889
3546
3497
3630
3732
3826
3940
4035
4124
4136
3923
3389
2430
811
-1795
-5481
-10015
-15160
-20222
-23633
-24743
-24892
-25083
-24697
-23287
-21278
-19037
-16831
-14931
-13254
-11600
-9985
-8474
-7090
-5837
-4652
-3486
-2363
-1303
-357
382
901
1230
1378
1441
1541
1645
1671
1647
1639
1683
1821
2093
2504
3039
3638
4226
4779
5311
5811
6239
6571
6820
7011
7176
7328
7432
7459
7430
7354
7195
6940
6643
6354
6031
5602
5117
4657
4189
3786
3625
3657
3875
4413
4692
3790
2202
1331
1295
1189
837
628
536
379
274
350
601
1004
1377
1395
1105
869
682
231
-478
-1160
-1636
-1857
-1965
-2285
-2888
-3506
-4090
-4863
-5646
-5859
-5437
-4994
-4918
-5046
-5211
-5433
-5717
-6013
-6249
-6335
-6208
-5812
-5096
-4145
-3174
-2322
-1591
-924
-255
462
1207
1926
2595
3231
3881
4600
5388
6186
6963
7703
8324
8762
9077
9337
9535
9635
9619
9477
9216
8864
8470
8090
7761
7506
7331
7210
7127
7100
7135
7210
7322
7473
7654
7848
8026
8169
8264
8254
8127
7915
7532
6883
5958
4517
2173
-1177
-5215
-8954
-11448
-13428
-16001
-18421
-20498
-23853
-27674
-28981
-28033
-27258
-26906
-26300
-25688
-25183
-24668
-23916
-22171
-19269
-16140
-13287
-10524
-7953
-5742
-3747
-1908
-311
1031
2087
2822
3349
3798
4193
4533
4819
5049
5262
5501
5733
5919
6065
6172
6259
6392
6602
6847
7093
7337
7535
7616
7582
7513
7462
7423
7372
7303
7235
7206
7190
7095
6911
6721
6531
6278
5982
5716
5470
5169
4811
4441
4041
3597
3205
2955
2816
2724
2670
2634
2564
2442
2287
2122
1960
1810
1673
1546
1423
1297
1162
1032
929
856
789
703
611
534
480
496
597
616
407
117
-46
-101
-155
-262
-430
-574
-595
-548
-561
-665
-817
-997
-1209
-1447
-1695
-1911
-2059
-2152
-2228
-2279
-2282
-2271
-2253
-2166
-2029
-1946
-1915
-1883
-1874
-1899
-1905
-1881
-1840
-1730
-1491
-1155
-814
-555
-408
-351
-360
-442
-590
-758
-915
-1087
-1310
-1568
-1798
-1959
-2061
-2130
-2170
-2178
-2170
-2163
-2161
-2166
-2163
-2118
-2025
-1900
-1758
-1625
-1527
-1453
-1376
-1283
-1193
-1147
-1160
-1205
-1251
-1258
-1202
-1134
-1111
-1100
-1067
-1049
-1058
-1039
-961
-828
-664
-540
-457
-313
-141
-39
110
401
935
2138
3665
3884
2432
1201
1203
1438
1335
1314
1441
1506
1543
1573
1586
1639
1699
1691
1657
1642
1625
1606
1614
1646
1689
1746
1815
1881
1941
2003
2049
2056
2033
2004
1962
1888
1736
1454
1044
578
157
-167
-401
-555
-627
-632
-591
-507
-400
-297
-200
-87
47
174
275
338
351
323
289
251
197
159
155
158
145
121
83
31
-25
-78
-130
-175
-212
-256
-321
-402
-487
-577
-663
-730
-776
-812
-847
-877
-886
-883
-893
-911
-913
-912
-920
-907
-879
-865
-864
-877
-880
-828
-805
-883
-926
-825
-378
732
1787
1284
-483
-1575
-1544
-1479
-1632
-1563
-1350
-1228
-1176
-1167
-1169
-1137
-1139
-1253
-1434
-1603
-1731
-1808
-1822
-1766
-1649
-1488
-1318
-1182
-1093
-1040
-1002
-953
-886
-819
-728
-612
-639
-1004
-1618
-2138
-2333
-2294
-2302
-2452
-2518
-2322
-1963
-1601
-1292
-1060
-893
-738
-591
-516
-524
-514
-417
-331
-341
-329
-153
124
388
632
873
1100
1330
1554
1720
1842
1995
2210
2464
2720
2947
3130
3296
3491
3719
3926
4091
4258
4460
4665
4850
5023
5183
5333
5482
5635
5794
5962
6125
6256
6353
6425
6486
6555
6646
6760
6873
6958
7046
7171
7270
7335
7450
7624
8004
8779
9271
8484
6941
6051
5942
5879
5820
6052
6462
6853
7137
7252
7305
7432
7491
7413
7331
7100
6646
6163
5282
4014
2527
-2656
-14862
-27939
-32813
-31149
-29821
-29545
-28552
-27600
-27042
-26254
-25454
-24840
-24168
-23490
-22884
-22273
-21685
-21091
-20492
-19945
-19097
-17540
-15502
-13350
-11089
-8818
-6764
-4925
-3240
-1751
-424
808
1928
2902
3733
4438
5034
5552
6029
6474
6848
7123
7325
7494
7638
7728
7707
7555
7327
7127
7057
7156
7388
7688
8004
8301
8581
8848
9070
9229
9362
9486
9552
9526
9432
9309
9172
9022
8856
8684
8514
8327
8108
7863
7600
7320
7030
6717
6374
6045
5758
5464
5153
4888
4684
4566
4571
4508
4115
3553
3177
2951
2647
2266
1921
1661
1488
1338
1146
962
837
705
473
155
-171
-458
-701
-922
-1136
-1326
-1475
-1604
-1725
-1820
-1896
-1980
-2084
-2202
-2318
-2423
-2542
-2692
-2857
-3017
-3174
-3336
-3482
-3590
-3687
-3788
-3851
-3887
-3977
-4127
-4280
-4414
-4511
-4525
-4468
-4390
-4295
-4176
-4050
-3927
-3806
-3692
-3593
-3505
-3410
-3296
-3167
-3042
-2919
-2790
-2662
-2541
-2410
-2252
-2052
-1810
-1573
-1378
-1197
-1012
-864
-755
-646
-533
-439
-355
-275
-206
-136
-56
20
82
150
238
310
316
293
319
387
453
518
580
601
587
581
574
540
524
535
498
464
515
642
1134
2168
2767
1969
679
240
398
404
319
333
351
361
379
370
369
392
394
377
372
363
348
363
416
480
546
628
725
809
868
929
997
1042
1056
1056
1037
994
927
831
720
629
555
486
433
386
309
226
201
241
301
351
383
398
412
436
456
462
470
488
497
488
459
416
378
343
299
258
216
159
138
184
231
234
201
106
-19
-42
53
141
178
206
233
247
249
245
250
269
285
296
304
303
298
304
318
327
330
327
321
312
280
227
195
206
219
189
175
214
190
107
139
310
887
2266
3439
2738
820
-179
-60
-5
-198
-284
-331
-444
-614
-825
-947
-918
-867
-893
-1010
-1227
-1479
-1656
-1738
-1763
-1739
-1668
-1578
-1470
-1314
-1132
-986
-885
-801
-739
-712
-725
-786
-885
-982
-1066
-1162
-1273
-1341
-1307
-1194
-1068
-944
-815
-706
-624
-538
-443
-345
-235
-128
-48
11
67
114
156
205
264
323
373
411
446
492
543
587
625
663
690
700
702
708
714
725
737
736
715
690
670
648
639
657
669
664
694
744
741
730
759
720
588
490
424
340
316
367
422
492
539
468
345
262
158
22
-68
-139
-217
-238
-254
-331
-335
-213
218
1505
3086
3020
1145
-251
-257
-170
-502
-674
-665
-735
-810
-825
-796
-742
-798
-972
-1067
-1060
-1103
-1185
-1207
-1211
-1241
-1227
-1153
-1085
-1002
-858
-701
-579
-450
-295
-149
-22
79
136
178
230
265
287
349
453
561
677
814
957
1083
1179
1247
1315
1396
1461
1487
1482
1454
1410
1366
1318
1247
1165
1083
981
873
786
686
544
399
269
135
14
-69
-139
-225
-326
-425
-525
-636
-716
-696
-617
-625
-768
-938
-1025
-1018
-972
-940
-944
-970
-1016
-1106
-1228
-1338
-1394
-1398
-1386
-1429
-1557
-1704
-1832
-2017
-2251
-2346
-2211
-1981
-1747
-1437
-1103
-896
-722
-456
-62
866
2329
2900
1699
234
-47
212
201
174
297
368
387
422
456
505
555
554
515
473
440
444
492
545
578
614
670
731
783
837
902
969
1012
1028
1020
993
934
848
753
656
553
453
370
309
266
232
208
206
220
219
194
172
162
149
129
108
82
53
34
23
7
-17
-28
-22
-16
-18
-19
-15
-13
-12
-20
-44
-73
-93
-104
-108
-103
-101
-107
-114
-119
-123
-122
-121
-125
-126
-132
-141
-132
-107
-87
-64
-33
-24
-44
-66
-84
-86
-68
-64
-58
-22
-33
-69
4
195
778
2091
3114
2346
553
-280
-104
-35
-149
-100
-32
-46
-38
-18
-9
15
21
-17
-71
-123
-164
-190
-211
-239
-293
-364
-401
-372
-323
-311
-322
-311
-287
-292
-333
-399
-501
-652
-823
-969
-1068
-1131
-1167
-1181
-1186
-1179
-1140
-1073
-1012
-968
-920
-865
-817
-787
-779
-789
-797
-790
-772
-764
-775
-789
-787
-756
-691
-604
-517
-441
-368
-292
-212
-134
-68
-15
37
91
138
174
208
248
293
341
380
402
423
457
493
524
561
598
617
615
605
610
643
664
665
709
743
684
680
805
1078
1944
3259
3473
2007
607
451
671
599
566
643
629
592
616
653
680
681
649
613
583
549
522
517
540
594
660
707
741
780
801
790
779
766
711
624
524
391
225
61
-94
-246
-371
-455
-522
-587
-621
-624
-642
-687
-720
-733
-735
-723
-709
-715
-747
-792
-830
-858
-904
-966
-1010
-1055
-1121
-1173
-1191
-1242
-1338
-1387
-1360
-1314
-1257
-1160
-1038
-917
-808
-721
-653
-597
-559
-530
-498
-469
-432
-380
-336
-305
-266
-238
-239
-244
-236
-207
-156
-124
-104
-50
-41
-80
-14
193
806
2214
3400
2667
694
-279
-46
107
-11
19
76
43
49
89
103
114
130
136
145
165
192
217
245
278
307
338
386
440
489
539
577
589
590
584
549
474
371
253
132
19
-76
-148
-201
-239
-257
-253
-237
-219
-203
-180
-152
-130
-119
-112
-104
-99
-97
-96
-99
-106
-111
-114
-113
-110
-111
-117
-116
-109
-106
-104
-98
-96
-101
-106
-108
-108
-101
-91
-82
-69
-56
-48
-38
-22
-9
-4
-7
-14
-9
15
42
63
92
123
129
113
100
89
84
101
105
103
144
148
74
95
261
767
2170
3743
3439
1336
-73
7
210
65
58
127
99
111
154
147
145
165
173
180
183
164
135
53
-170
-510
-799
-917
-929
-945
-946
-853
-691
-533
-411
-348
-349
-376
-412
-456
-487
-500
-512
-525
-526
-510
-478
-433
-379
-315
-250
-203
-174
-143
-112
-98
-104
-122
-151
-187
-214
-238
-288
-370
-440
-453
-403
-326
-261
-208
-157
-116
-92
-69
-37
-8
8
19
30
31
16
-6
-32
-68
-104
-126
-139
-145
-139
-123
-103
-76
-51
-40
-41
-49
-61
-66
-65
-69
-83
-96
-86
-50
-16
-8
-10
-11
-26
-55
-80
-96
-85
-65
-71
-41
24
0
-21
114
458
1530
3366
4086
2433
380
-76
214
140
59
159
148
104
138
138
112
119
115
86
65
49
34
23
10
5
18
35
45
69
121
181
231
280
325
344
335
305
240
138
29
-62
-136
-191
-225
-238
-232
-213
-192
-176
-161
-147
-136
-126
-121
-128
-138
-145
-156
-173
-182
-183
-192
-206
-213
-218
-222
-216
-209
-214
-215
-209
-213
-224
-222
-208
-196
-191
-191
-185
-170
-162
-164
-162
-153
-149
-155
-165
-172
-174
-173
-174
-175
-174
-171
-173
-176
-176
-179
-187
-189
-183
-181
-188
-190
-172
-143
-127
-121
-100
-77
-90
-127
-151
-148
-129
-135
-151
-128
-145
-239
-243
-117
353
1699
3129
2644
483
-860
-734
-532
-643
-593
-488
-480
-419
-327
-287
-247
-202
-183
-171
-155
-133
-95
-54
-21
25
92
175
270
374
479
577
655
703
731
743
729
688
620
527
425
341
273
207
160
151
