# session 24
5
301
-462
240
3548
6087
5821
4913
4778
4551
4098
3877
3663
3349
3123
2922
2685
2486
2303
2106
1935
1777
1608
1458
1336
1212
1082
963
852
751
664
584
511
448
375
274
181
117
48
-21
-63
-121
-183
-199
-258
-373
-371
-235
292
1694
2975
2235
72
-1059
-825
-612
-690
-646
-596
-628
-611
-585
-586
-549
-486
-428
-363
-303
-253
-200
-153
-116
-70
-16
34
89
158
233
300
351
384
403
407
386
326
225
97
-40
-174
-292
-385
-456
-506
-530
-542
-554
-558
-547
-536
-528
-525
-529
-534
-535
-542
-552
-556
-557
-563
-571
-576
-580
-579
-558
-520
-489
-468
-430
-378
-354
-363
-370
-356
-334
-330
-348
-366
-373
-378
-387
-393
-390
-389
-401
-418
-421
-411
-401
-397
-402
-408
-396
-376
-377
-388
-375
-345
-317
-283
-243
-225
-238
-259
-285
-319
-343
-343
-364
-404
-377
-353
-457
-488
-319
92
1380
3321
3612
1373
-740
-923
-523
-593
-639
-539
-550
-551
-495
-487
-480
-437
-394
-352
-318
-291
-236
-172
-134
-100
-34
70
185
276
353
448
553
635
674
676
665
642
582
492
394
287
180
102
43
-16
-69
-108
-139
-166
-177
-141
-36
144
431
781
1018
1122
1345
1796
2230
2430
2412
2250
2029
1836
1659
1434
1191
1002
864
746
667
599
506
571
980
1484
1722
1719
1622
1441
1244
1117
988
790
579
398
222
37
-135
-275
-392
-491
-574
-650
-718
-772
-813
-837
-841
-837
-834
-829
-826
-834
-850
-861
-880
-933
-1000
-1049
-1072
-1073
-1074
-1103
-1092
-1049
-1098
-1131
-992
-685
212
1796
2411
856
-1104
-1552
-1196
-1151
-1202
-1119
-1090
-1087
-1052
-1043
-1022
-968
-934
-916
-879
-842
-816
-788
-756
-719
-667
-608
-548
-475
-396
-294
-138
19
128
258
416
477
436
430
465
427
296
137
-20
-166
-281
-377
-476
-585
-698
-804
-887
-940
-986
-1050
-1137
-1215
-1254
-1280
-1325
-1370
-1401
-1436
-1466
-1477
-1493
-1528
-1558
-1565
-1561
-1551
-1530
-1493
-1434
-1371
-1318
-1232
-1071
-843
-593
-383
-236
-122
18
308
828
1378
1744
2080
2499
2716
2570
2323
2300
2652
3195
3482
3387
3218
3089
2896
2816
3003
3116
2884
2537
2292
2113
1958
1755
1486
1298
1302
1721
2707
3370
2614
1176
604
875
1135
1304
1535
1662
1672
1675
1654
1606
1495
1170
597
-107
-778
-1145
-1070
-835
-692
-566
-508
-646
-794
-809
-775
-606
-275
-94
-71
66
38
-477
-1008
-1182
-1402
-1885
-2277
-2399
-2392
-2331
-2232
-2124
-1994
-1844
-1718
-1611
-1491
-1376
-1280
-1169
-1036
-919
-822
-716
-608
-521
-453
-398
-361
-329
-293
-265
-244
-208
-147
-66
20
76
85
88
122
168
181
161
142
142
169
222
273
302
316
316
268
144
-40
-245
-436
-601
-731
-808
-842
-912
-1061
-1213
-1330
-1306
-894
-376
-579
-1466
-2100
-2210
-2200
-2154
-2071
-2097
-2117
-1962
-1735
-1511
-1246
-981
-766
-568
-379
-220
-78
56
166
258
361
484
608
722
829
928
1012
1082
1132
1163
1175
1163
1122
1078
1080
1137
1212
1339
1587
1878
2071
2200
2398
2676
2885
2889
2730
2544
2335
2053
1811
1713
1666
1562
1435
1330
1256
1223
1194
1107
969
828
694
564
440
330
236
154
70
-20
-112
-207
-298
-375
-437
-490
-543
-591
-637
-698
-778
-855
-918
-962
-1002
-1055
-1095
-1121
-1193
-1284
-1311
-1209
-732
132
544
-132
-1123
-1480
-1426
-1456
-1508
-1494
-1495
-1494
-1462
-1436
-1409
-1369
-1345
-1330
-1298
-1257
-1226
-1194
-1150
-1097
-1038
-974
-911
-842
-760
-675
-605
-549
-501
-465
-443
-435
-446
-478
-519
-554
-584
-604
-610
-604
-589
-557
-508
-465
-435
-400
-343
-273
-211
-158
-104
-44
21
97
190
295
403
509
612
716
825
935
1032
1108
1171
1234
1307
1387
1466
1542
1620
1696
1756
1794
1825
1864
1899
1919
1946
1983
1989
1962
1936
1921
1916
1919
1906
1904
1924
1876
1804
1843
2021
2689
4067
4913
3898
2137
1502
1755
1840
1785
1848
1869
1838
1843
1836
1797
1753
1697
1641
1603
1562
1520
1489
1459
1427
1404
1385
1365
1350
1340
1322
1290
1243
1177
1084
963
807
607
374
127
-123
-371
-606
-820
-1016
-1201
-1380
-1553
-1719
-1884
-2056
-2232
-2407
-2582
-2766
-2956
-3147
-3334
-3517
-3700
-3884
-4062
-4236
-4403
-4569
-4733
-4890
-5041
-5188
-5333
-5473
-5612
-5750
-5885
-6020
-6152
-6280
-6403
-6528
-6655
-6782
-6904
-7025
-7146
-7269
-7398
-7518
-7615
-7701
-7796
-7886
-7958
-8048
-8172
-8286
-8376
-8467
-8538
-8599
-8687
-8737
-8763
-8900
-9013
-8916
-8600
-7556
-5757
-5143
-6788
-8336
-7815
-6355
-5131
-3935
-2423
-325
1853
4273
10141
19919
26991
27435
25662
25149
24576
23538
22879
22222
21431
20781
19542
17091
14149
11859
10377
9135
8968
11544
15418
17105
16479
15899
15779
15391
14968
14716
14384
14030
13774
13502
13206
12971
12748
12490
12290
12127
11884
11703
11613
11312
11117
11258
10093
6182
1076
-3097
-6316
-9090
-11298
-13042
-14515
-15610
-16367
-16937
-17294
-17444
-17471
-17379
-17169
-16895
-16584
-16231
-15847
-15455
-15061
-14647
-14205
-13762
-13345
-12951
-12562
-12171
-11781
-11383
-10964
-10529
-10107
-9701
-9287
-8857
-8416
-7969
-7544
-7127
-6671
-6255
-5907
-5486
-4963
-4159
-2634
-1069
-1093
-2473
-3216
-2811
-2323
-2071
-1740
-1397
-1133
-851
-567
-314
-49
226
491
761
1031
1281
1511
1727
1931
2128
2322
2512
2694
2870
3045
3213
3365
3492
3596
3681
3742
3764
3747
3707
3658
3606
3559
3524
3498
3483
3478
3479
3484
3495
3506
3515
3525
3535
3542
3549
3554
3542
3511
3471
3427
3373
3310
3242
3166
3084
3003
2923
2840
2757
2678
2598
2518
2440
2362
2289
2221
2153
2081
2005
1930
1853
1772
1683
1595
1521
1452
1372
1296
1235
1159
1051
945
853
761
689
620
525
466
420
282
179
217
429
1342
2888
3228
1447
-430
-763
-498
-567
-649
-626
-694
-761
-775
-822
-869
-883
-899
-907
-889
-872
-871
-882
-896
-906
-906
-897
-882
-860
-830
-792
-758
-743
-749
-764
-787
-835
-915
-1020
-1143
-1263
-1367
-1450
-1512
-1552
-1575
-1591
-1593
-1578
-1558
-1546
-1547
-1560
-1568
-1556
-1538
-1526
-1510
-1485
-1457
-1426
-1397
-1375
-1352
-1314
-1273
-1239
-1204
-1162
-1119
-1076
-1035
-1002
-977
-950
-922
-897
-873
-844
-807
-769
-731
-691
-650
-615
-588
-562
-523
-469
-416
-369
-313
-260
-238
-236
-225
-210
-182
-141
-133
-119
-58
-70
-129
-48
177
897
2548
3793
2727
443
-499
-156
4
-85
-6
51
29
72
118
131
169
223
270
316
356
407
480
548
601
654
728
853
1018
1145
1192
1203
1216
1213
1186
1153
1103
1028
926
789
633
499
399
323
271
226
166
107
80
80
97
121
136
146
187
272
356
382
350
298
240
175
107
38
-24
-77
-137
-183
-171
-137
-153
-209
-261
-304
-348
-389
-426
-458
-486
-515
-540
-560
-585
-615
-647
-676
-683
-673
-653
-562
-345
-50
251
486
637
978
1743
2524
2780
2713
2777
2870
2739
2498
2303
2108
1890
1644
1356
1118
933
665
404
297
424
1294
2845
3249
1471
-535
-1004
-788
-895
-1038
-1058
-1164
-1276
-1319
-1376
-1425
-1424
-1408
-1386
-1352
-1322
-1287
-1207
-1077
-923
-751
-577
-473
-471
-508
-528
-553
-589
-617
-655
-736
-852
-984
-1129
-1278
-1408
-1511
-1593
-1657
-1705
-1734
-1745
-1742
-1722
-1688
-1652
-1622
-1593
-1564
-1549
-1540
-1516
-1475
-1434
-1394
-1343
-1291
-1252
-1216
-1175
-1134
-1092
-1045
-995
-943
-887
-828
-769
-712
-659
-600
-534
-468
-404
-342
-280
-216
-151
-85
-21
40
98
157
216
269
318
373
427
465
500
550
611
674
740
811
884
934
953
973
1004
1035
1083
1125
1140
1198
1256
1207
1211
1377
1760
2951
4752
5069
3082
1180
1022
1405
1364
1348
1471
1488
1527
1659
1766
1857
1956
2016
2047
2084
2112
2109
2085
2056
2035
2029
2033
2044
2062
2089
2115
2129
2127
2113
2087
2041
1966
1861
1732
1588
1446
1321
1212
1113
1035
981
934
881
825
774
726
677
625
570
514
461
401
327
248
175
96
7
-75
-155
-241
-320
-385
-425
-414
-379
-378
-373
-298
-195
-132
-138
-246
-457
-719
-989
-1244
-1460
-1651
-1852
-2061
-2258
-2439
-2626
-2804
-2896
-2871
-2812
-2813
-2893
-3004
-3055
-3017
-2987
-3030
-3103
-3209
-3382
-3566
-3711
-3815
-3816
-3702
-3570
-3490
-3498
-3641
-3912
-4283
-4711
-5120
-5560
-6067
-6442
-6600
-6377
-5258
-3916
-4390
-6687
-8319
-8393
-8263
-8457
-8521
-8516
-8612
-8665
-8673
-8705
-8712
-8696
-8685
-8669
-8646
-8607
-8559
-8517
-8429
-8301
-8176
-7926
-7548
-7072
-5679
-2510
1564
5466
10018
15561
20017
21976
22450
22316
21353
19747
18032
16193
13968
11675
10373
10317
9902
8205
6609
5792
4715
3341
2378
1614
911
175
-1068
-2281
-3135
-3446
901
12504
23619
26309
24466
24088
24192
23423
23021
22885
22366
21976
21784
21331
20953
20872
19847
16693
12334
8504
5523
2808
229
-2004
-3848
-5419
-6834
-8096
-9142
-9977
-10650
-11199
-11650
-11993
-12199
-12308
-12398
-12426
-12277
-11955
-11609
-11394
-11315
-11239
-11061
-10754
-10294
-9728
-9220
-8895
-8689
-8469
-8197
-7896
-7561
-7223
-6917
-6640
-6503
-6668
-7160
-7954
-8953
-9868
-10470
-10722
-10635
-10268
-9745
-9237
-8921
-8744
-8484
-8125
-7759
-7298
-6664
-5966
-5267
-4512
-3738
-3018
-2323
-1712
-1209
-573
-77
-661
-2186
-3250
-3407
-3398
-3462
-3357
-3145
-2894
-2515
-2078
-1697
-1343
-978
-609
-221
194
612
1020
1408
1771
2118
2462
2806
3138
3459
3772
4065
4322
4547
4742
4903
5061
5231
5387
5548
5767
6031
6349
6779
7219
7437
7394
7229
7026
6805
6598
6411
6216
6007
5798
5592
5391
5219
5094
4996
4896
4790
4680
4562
4448
4352
4248
4100
3909
3702
3492
3278
3062
2842
2612
2383
2188
2040
1915
1797
1691
1584
1470
1390
1360
1320
1227
1132
1085
1053
980
860
708
533
357
208
73
-54
-130
-147
-174
-232
-253
-220
-175
-121
-59
-45
-97
-163
-222
-292
-345
-360
-375
-418
-485
-601
-776
-955
-1089
-1207
-1353
-1538
-1770
-2057
-2374
-2696
-3036
-3398
-3753
-4128
-4595
-5082
-5431
-5640
-5795
-5880
-5874
-5835
-5806
-5776
-5736
-5670
-5546
-5373
-5217
-5126
-5084
-5065
-4999
-4784
-4521
-4405
-4244
-3687
-2848
-2044
-1319
-660
-155
235
642
1047
1352
1530
1581
1526
1487
1508
1552
1955
2896
3399
2577
1340
937
1106
1158
1132
1169
1169
1143
1178
1249
1301
1346
1427
1526
1600
1658
1713
1749
1768
1787
1814
1860
1920
1989
2073
2154
2209
2240
2260
2269
2266
2247
2199
2121
2027
1934
1848
1770
1699
1641
1592
1550
1512
1468
1416
1360
1305
1243
1170
1095
1018
930
843
767
661
529
403
154
-328
-959
-1814
-2959
-3802
-3742
-3166
-2731
-2442
-2135
-1893
-1731
-1554
-1362
-1203
-1074
-949
-826
-743
-709
-672
-623
-586
-544
-518
-537
-519
-520
-805
-1353
-1590
-738
1183
2477
1527
-507
-1347
-1025
-884
-1088
-1252
-1585
-2221
-2745
-2815
-2617
-2477
-2393
-2188
-1851
-1511
-1231
-1018
-860
-718
-580
-428
-179
155
416
548
638
716
760
784
814
861
921
968
986
973
914
808
677
548
456
410
358
289
275
322
334
307
355
486
599
701
844
978
1089
1249
1434
1567
1668
1766
1830
1878
1942
1971
1919
1836
1784
1768
1786
1847
1918
1926
1858
1817
1929
2247
2734
3236
3495
3407
3236
3288
3472
3500
3362
3230
3082
2865
2725
2741
3007
3793
4637
4347
2972
1943
1745
1646
1353
1111
957
805
669
588
505
247
-159
-480
-771
-1279
-1854
-2170
-2223
-2140
-2005
-2035
-2360
-2855
-3479
-4231
-4821
-5114
-5458
-6038
-6548
-6745
-6665
-6358
-5948
-5639
-5424
-5257
-5416
-6050
-6709
-6984
-6972
-6772
-6428
-6254
-6348
-6315
-5945
-5437
-4937
-4444
-3948
-3438
-2994
-2686
-2370
-1916
-1444
-1047
-663
-289
35
320
540
674
789
931
1055
1150
1259
1385
1503
1629
1776
1921
2055
2196
2358
2542
2740
2937
3137
3327
3438
3476
3538
3652
3957
4636
5222
4958
4141
3719
3774
3802
3736
3725
3728
3708
3697
3690
3689
3691
3663
3592
3491
3363
3214
3061
2913
2785
2677
2577
2472
2369
2272
2174
2063
1936
1802
1666
1528
1380
1215
1035
854
675
494
321
179
59
-60
-178
-275
-357
-443
-530
-608
-685
-763
-834
-901
-967
-1026
-1078
-1134
-1188
-1232
-1273
-1316
-1360
-1402
-1439
-1467
-1496
-1528
-1558
-1579
-1597
-1617
-1635
-1639
-1623
-1605
-1594
-1573
-1541
-1528
-1537
-1544
-1542
-1529
-1503
-1497
-1497
-1459
-1449
-1489
-1454
-1317
-883
213
1252
798
-777
-1658
-1512
-1326
-1342
-1283
-1225
-1227
-1185
-1117
-1060
-988
-922
-886
-855
-820
-788
-751
-704
-657
-606
-545
-487
-437
-383
-324
-275
-236
-205
-182
-166
-157
-164
-189
-220
-258
-301
-331
-332
-324
-320
-304
-265
-228
-204
-176
-141
-110
-84
-61
-43
-29
-18
-7
3
16
30
45
60
74
92
118
145
164
181
201
222
240
258
278
298
308
314
337
372
398
425
470
507
507
497
499
507
533
556
553
578
620
591
587
698
973
1843
3183
3471
2037
585
393
669
685
696
776
776
787
849
887
922
973
1006
1030
1060
1088
1109
1133
1167
1209
1254
1299
1342
1387
1433
1474
1503
1522
1538
1548
1544
1521
1482
1431
1373
1313
1261
1231
1219
1215
1212
1217
1233
1252
1267
1274
1278
1285
1279
1258
1229
1169
1074
962
797
538
161
-490
-1479
-2544
-3477
-4308
-4943
-5266
-5471
-5809
-6253
-6515
-6285
-5580
-4732
-3936
-3151
-2396
-1773
-1301
-955
-720
-569
-494
-522
-624
-773
-1054
-1504
-1956
-2245
-2374
-2394
-2306
-2140
-1972
-1820
-1660
-1472
-1106
-434
183
241
-48
-94
134
333
484
667
822
914
994
1103
1222
1297
1302
1266
1232
1206
1180
1157
1149
1157
1166
1158
1139
1122
1119
1126
1135
1139
1140
1138
1140
1142
1137
1124
1108
1089
1062
1040
1054
1096
1117
1093
1053
1032
1029
1010
963
904
858
819
771
715
659
598
530
464
406
351
295
240
185
132
91
61
34
0
-41
-80
-107
-123
-139
-154
-166
-179
-193
-196
-189
-184
-173
-143
-121
-135
-165
-190
-214
-234
-261
-299
-303
-306
-380
-427
-368
-144
601
1704
1889
678
-516
-705
-543
-581
-603
-557
-568
-571
-532
-501
-466
-420
-386
-357
-325
-299
-277
-253
-224
-192
-156
-113
-66
-22
15
51
87
112
122
120
105
71
16
-55
-130
-199
-263
-323
-369
-400
-423
-435
-423
-387
-353
-333
-317
-297
-277
-258
-243
-237
-230
-213
-198
-186
-168
-152
-143
-121
-92
-79
