# session 10
346
427
149
444
1579
2484
3226
4609
5306
3835
1834
1301
1535
1425
1231
1208
1153
1083
1052
996
938
899
827
731
652
589
543
513
486
466
463
469
473
482
492
492
482
466
442
404
352
284
196
82
-53
-189
-310
-416
-513
-593
-652
-697
-729
-742
-749
-772
-800
-813
-824
-849
-879
-906
-933
-963
-993
-1022
-1048
-1070
-1091
-1112
-1129
-1139
-1145
-1156
-1167
-1174
-1180
-1187
-1190
-1190
-1193
-1197
-1197
-1195
-1195
-1196
-1196
-1197
-1194
-1184
-1176
-1171
-1162
-1152
-1142
-1127
-1108
-1093
-1078
-1057
-1033
-1010
-989
-967
-939
-905
-873
-842
-810
-778
-746
-710
-680
-657
-620
-558
-497
-442
-375
-308
-265
-238
-208
-163
-96
-42
4
92
143
119
197
424
966
2334
3856
3609
1662
383
537
807
728
785
935
987
1060
1166
1247
1339
1431
1489
1543
1619
1709
1808
1912
2019
2139
2271
2404
2537
2675
2814
2947
3069
3179
3270
3343
3400
3432
3439
3426
3398
3369
3352
3347
3355
3386
3437
3498
3574
3665
3748
3802
3829
3831
3771
3625
3441
3263
3055
2801
2571
2408
2277
2150
2037
1956
1911
1866
1757
1594
1452
1349
1263
1236
1282
1277
1097
776
427
107
-231
-692
-1294
-1915
-2576
-3581
-5002
-6380
-7861
-10958
-16126
-20710
-22111
-21236
-20159
-19197
-18072
-17026
-16074
-15037
-13998
-13013
-12009
-11012
-10065
-9149
-8261
-7407
-6578
-5765
-4960
-4176
-3367
-2357
-1066
324
1633
2866
3999
4913
5580
6063
6416
6687
6881
6976
7005
6972
6862
6793
6827
7031
7775
8821
8826
7431
6172
5954
5987
5747
5547
5473
5368
5244
5116
4962
4820
4682
4509
4324
4167
4034
3909
3783
3659
3544
3447
3365
3288
3208
3119
3017
2901
2779
2650
2511
2363
2203
2017
1806
1581
1359
1142
935
751
592
450
324
221
139
55
-37
-129
-214
-302
-395
-483
-567
-655
-742
-823
-900
-972
-1032
-1084
-1142
-1206
-1268
-1321
-1366
-1407
-1438
-1459
-1483
-1509
-1532
-1552
-1568
-1578
-1590
-1602
-1609
-1610
-1612
-1617
-1613
-1600
-1583
-1558
-1524
-1492
-1462
-1421
-1374
-1335
-1302
-1269
-1231
-1189
-1154
-1135
-1126
-1117
-1106
-1100
-1103
-1107
-1097
-1076
-1059
-1049
-1031
-1004
-988
-978
-960
-989
-1142
-1342
-1425
-1436
-1485
-1422
-1169
-810
86
1654
2331
957
-838
-1239
-914
-939
-1065
-984
-874
-776
-666
-596
-538
-480
-478
-501
-478
-413
-347
-297
-246
-160
-33
106
247
394
535
662
778
875
947
1000
1030
1027
994
933
850
759
675
605
559
534
519
512
528
560
585
597
604
611
608
592
567
543
521
503
483
454
423
413
428
451
472
490
499
497
489
476
466
463
458
448
443
439
422
394
367
343
323
318
325
327
315
302
292
276
254
239
229
219
211
200
188
188
193
186
178
177
162
136
116
91
51
26
20
1
-25
-33
-43
-67
-70
-51
-59
-96
-137
-190
-244
-270
-302
-336
-315
-308
-347
-302
-127
398
1623
2710
2145
419
-511
-374
-277
-421
-417
-336
-327
-340
-389
-489
-574
-614
-637
-662
-666
-641
-659
-756
-838
-802
-676
-547
-446
-366
-307
-254
-188
-128
-93
-58
-10
23
25
4
-31
-71
-100
-122
-141
-145
-129
-99
-58
-10
26
46
63
85
101
103
95
89
82
74
75
83
87
86
85
78
65
53
44
38
34
23
10
8
14
8
-5
-11
-13
-24
-39
-53
-63
-67
-67
-76
-96
-111
-111
-109
-111
-109
-100
-98
-104
-113
-120
-124
-118
-107
-102
-102
-106
-117
-128
-132
-137
-150
-156
-144
-127
-116
-104
-90
-91
-107
-135
-158
-151
-143
-152
-128
-107
-161
-159
-34
249
1143
2497
2724
1199
-285
-451
-165
-186
-229
-180
-183
-174
-131
-124
-124
-107
-106
-120
-126
-110
-71
-25
17
65
119
178
244
312
374
432
484
517
532
536
527
497
437
350
250
148
50
-34
-97
-143
-171
-171
-157
-150
-146
-136
-127
-119
-113
-116
-128
-136
-139
-147
-162
-175
-184
-190
-205
-234
-250
-237
-219
-224
-235
-231
-226
-230
-230
-220
-208
-199
-191
-182
-170
-160
-150
-140
-134
-129
-117
-105
-98
-89
-76
-60
-45
-34
-27
-19
-11
0
12
19
20
20
14
12
31
58
71
86
104
97
68
32
0
-9
-18
-54
-56
-40
-102
-132
-13
299
1285
2874
3327
1721
-46
-353
-75
-152
-278
-278
-328
-363
-348
-357
-357
-341
-355
-379
-388
-402
-412
-398
-376
-348
-300
-236
-160
-70
16
84
138
174
183
192
217
227
195
128
50
-27
-96
-154
-197
-220
-228
-222
-202
-165
-123
-95
-77
-56
-32
-13
-4
-1
-2
-9
-19
-20
-8
3
5
5
11
19
25
33
42
45
43
39
35
35
34
27
17
15
15
11
6
5
9
11
7
5
10
15
15
16
22
24
20
21
23
19
10
6
6
4
0
-10
-28
-44
-42
-33
-32
-28
-14
-9
-26
-56
-88
-98
-90
-106
-115
-93
-136
-197
-127
81
748
2123
2979
1932
99
-581
-347
-309
-431
-410
-388
-395
-363
-354
-363
-336
-315
-343
-392
-424
-443
-471
-498
-495
-452
-383
-307
-237
-176
-114
-53
-2
38
70
91
94
72
28
-29
-93
-154
-206
-251
-284
-296
-294
-276
-238
-197
-176
-164
-143
-119
-100
-85
-75
-73
-74
-75
-76
-70
-55
-45
-44
-43
-35
-21
-3
5
7
21
40
45
50
63
72
81
97
110
117
135
158
175
192
215
231
243
259
275
293
319
346
363
377
391
405
420
437
452
467
480
481
475
485
514
536
526
505
509
528
507
416
298
203
106
-21
-116
-184
-293
-345
-258
24
995
2631
3230
1676
-335
-938
-652
-517
-513
-465
-431
-377
-321
-299
-230
-134
-111
-119
-85
-66
-91
-84
-11
71
145
233
324
405
494
587
634
610
570
551
513
404
214
-33
-272
-451
-587
-705
-781
-789
-746
-688
-640
-608
-598
-616
-654
-701
-771
-905
-1092
-1219
-1210
-1113
-969
-793
-647
-561
-477
-390
-358
-386
-432
-495
-604
-750
-897
-981
-944
-843
-767
-680
-542
-419
-363
-379
-460
-529
-547
-599
-702
-791
-870
-955
-992
-943
-841
-757
-702
-643
-620
-676
-769
-853
-901
-907
-895
-796
-594
-506
-496
-217
356
1378
3238
4807
4228
2356
1608
2009
2181
2102
2175
2149
1999
1905
1738
1505
1379
1266
1051
850
713
583
456
323
164
24
-55
-68
-36
-39
-114
-185
-197
-178
-158
-173
-250
-325
-358
-415
-532
-636
-644
-568
-501
-451
-316
-97
111
313
546
749
873
948
1022
1097
1128
1089
1028
990
953
868
738
620
533
420
253
109
37
-9
-27
15
48
9
-56
-85
-69
-65
-134
-215
-252
-295
-331
-307
-296
-349
-379
-342
-322
-385
-461
-466
-475
-566
-657
-719
-816
-895
-919
-960
-993
-1020
-1095
-1071
-903
-479
821
2512
2411
217
-1448
-1412
-1130
-1283
-1300
-1165
-1138
-1126
-1090
-1055
-979
-913
-893
-852
-788
-713
-575
-390
-255
-166
-67
19
74
136
201
240
268
285
253
204
183
144
51
-38
-82
-96
-90
-59
5
93
173
224
248
243
214
188
179
176
167
136
83
37
11
-9
-24
-22
-15
-9
5
13
-2
-19
-27
-36
-38
-40
-68
-109
-143
-175
-201
-214
-229
-245
-256
-268
-269
-251
-243
-256
-270
-277
-281
-275
-263
-267
-284
-271
-218
-177
-165
-137
-88
-64
-77
-101
-104
-67
-35
-25
21
46
-13
17
205
670
2001
3720
3686
1553
-128
-124
193
110
133
257
252
264
339
386
430
468
481
514
565
590
608
652
707
752
795
850
908
965
1027
1082
1117
1142
1168
1175
1147
1085
997
889
768
659
571
498
445
427
429
430
437
460
481
487
494
514
530
529
530
530
523
520
521
514
499
474
443
421
408
375
318
262
212
146
60
-30
-121
-212
-289
-363
-446
-516
-576
-666
-770
-862
-991
-1170
-1344
-1527
-1751
-1909
-1916
-1906
-2001
-2095
-2109
-2153
-2249
-2344
-2561
-2922
-3116
-3050
-3048
-3205
-3286
-3225
-3135
-3076
-3072
-3097
-3116
-3138
-3116
-3058
-3072
-3045
-2835
-2391
-1243
469
901
-777
-2481
-2658
-2322
-2311
-2262
-2084
-1918
-1735
-1547
-1062
-75
826
1297
1779
2350
2781
3351
4121
4578
4619
4612
4648
4619
4558
4523
4509
4466
4299
4001
3696
3428
3165
2945
2750
2482
2145
1722
1243
1095
1449
1758
1688
1610
1717
1855
2056
2283
2286
2134
2122
2228
2234
2124
2000
1857
1678
1589
1705
1968
2227
2385
2403
2272
2017
1678
1262
784
298
-172
-646
-1099
-1501
-1864
-2183
-2440
-2661
-2878
-3075
-3228
-3347
-3449
-3533
-3592
-3628
-3646
-3651
-3649
-3636
-3602
-3558
-3512
-3451
-3370
-3286
-3206
-3111
-3004
-2910
-2844
-2789
-2715
-2610
-2506
-2424
-2308
-2173
-2114
-2041
-1838
-1484
-559
1008
1705
425
-1259
-1564
-1075
-834
-695
-453
-282
-172
-64
2
71
179
282
378
489
608
729
852
975
1103
1240
1377
1506
1641
1792
1941
2068
2172
2256
2319
2361
2381
2368
2324
2266
2208
2157
2123
2110
2114
2140
2184
2236
2287
2338
2386
2434
2482
2523
2540
2532
2520
2515
2505
2488
2471
2452
2428
2397
2357
2305
2253
2204
2151
2093
2033
1976
1919
1862
1802
1736
1666
1597
1532
1466
1391
1308
1228
1145
1051
959
872
775
671
571
466
347
224
110
8
-87
-194
-315
-430
-557
-722
-903
-1073
-1220
-1360
-1530
-1689
-1798
-1971
-2208
-2325
-2275
-1729
-273
862
-218
-2623
-3850
-3784
-3843
-4144
-4262
-4387
-4607
-4768
-4917
-5089
-5229
-5366
-5526
-5661
-5758
-5833
-5915
-6013
-6093
-6142
-6215
-6315
-6395
-6452
-6500
-6529
-6571
-6672
-6809
-6960
-7161
-7402
-7629
-7845
-8042
-8180
-8304
-8476
-8632
-8749
-8896
-8998
-8962
-8914
-8921
-8966
-9083
-9068
-8877
-8969
-9144
-9011
-9181
-8927
-7161
-6212
-4978
4216
19613
28005
26623
24596
24635
23724
22508
22040
21302
20374
19766
19100
18352
17765
17182
16560
16018
15503
14981
14495
14029
13562
13116
12691
12265
11828
11430
11156
10984
10794
10541
10259
9983
9730
9471
9231
9073
8879
8630
8530
8225
7281
6607
7056
7575
7233
6603
5477
2777
-1038
-4759
-8313
-11708
-14327
-16218
-17960
-19423
-20418
-21225
-21377
-20577
-20423
-21621
-22579
-22870
-21816
-16684
-9848
-8392
-12109
-14769
-15288
-15989
-16529
-16314
-16065
-15738
-15093
-14605
-14250
-13581
-12870
-12287
-11335
-10346
-9730
-8662
-7752
-7828
-6488
-4685
-5831
-1632
16359
34339
37295
33903
34403
33357
27181
20614
15679
11245
7446
4550
2329
563
-804
-1444
-1636
-1386
1059
5101
6353
3836
1317
190
-1004
-2263
-2996
-3607
-4201
-4527
-4723
-4888
-4935
-4914
-4874
-4780
-4642
-4484
-4299
-4097
-3879
-3636
-3390
-3154
-2915
-2672
-2439
-2210
-1981
-1764
-1557
-1351
-1147
-954
-769
-587
-410
-238
-68
99
256
398
531
665
799
923
1037
1146
1246
1333
1410
1490
1576
1654
1718
1787
1854
1890
1900
1903
1907
1926
1944
1938
1950
1979
1952
1932
1996
2224
3014
4263
4568
3230
1792
1595
1960
2047
2015
2013
1915
1761
1615
1456
1321
1248
1210
1192
1196
1212
1225
1228
1221
1214
1210
1207
1199
1185
1165
1137
1099
1054
1002
937
856
763
643
490
327
183
61
-50
-159
-273
-379
-450
-487
-520
-562
-599
-630
-666
-701
-728
-759
-800
-841
-879
-916
-949
-976
-1002
-1029
-1052
-1076
-1097
-1108
-1118
-1133
-1145
-1151
-1159
-1165
-1168
-1169
-1165
-1156
-1152
-1151
-1142
-1132
-1130
-1130
-1127
-1123
-1115
-1102
-1090
-1080
-1066
-1045
-1026
-1012
-998
-984
-977
-965
-935
-903
-876
-835
-791
-774
-781
-788
-788
-767
-741
-740
-712
-666
-700
-724
-604
-292
623
2138
2699
1293
-420
-752
-401
-373
-436
-374
-376
-409
-390
-376
-361
-317
-274
-226
-158
-90
-41
-4
41
101
150
192
274
399
519
618
705
767
799
830
875
917
952
981
986
973
1000
1070
1105
1088
1064
1038
991
938
874
784
685
594
503
420
364
325
282
233
180
127
80
32
-15
-47
-66
-86
-108
-129
-149
-171
-200
-226
-234
-239
-250
-252
-241
-229
-215
-196
-179
-163
-154
-155
-158
-157
-155
-153
-154
-155
-150
-143
-145
-145
-136
-130
-139
-158
-178
-187
-173
-146
-126
-105
-76
-69
-93
-122
-138
-133
-118
-131
-132
-99
-133
-201
-142
80
805
2321
3360
2361
384
-438
-233
-202
-340
-309
-285
-317
-306
-299
-302
-270
-246
-242
-247
-290
-361
-421
-472
-486
-407
-269
-137
-8
106
164
190
225
234
196
177
210
271
320
266
146
260
683
958
804
515
343
201
49
-48
-110
-172
-217
-240
-254
-262
-243
-184
-104
-20
70
131
123
62
-10
-75
-127
-162
-183
-203
-226
-246
-259
-267
-277
-289
-292
-288
-287
-287
-284
-281
-277
-270
-269
-273
-271
-264
-260
-261
-263
-261
-253
-245
-241
-235
-225
-220
-226
-230
-215
-188
-167
-145
-116
-103
-114
-135
-152
-154
-144
-157
-164
-131
-138
-186
-151
7
568
1839
2844
2110
307
-541
-154
309
424
443
418
326
218
108
9
-58
-93
-103
-91
-59
-11
43
85
118
157
208
260
304
342
383
421
442
448
440
415
370
296
187
57
-63
-161
-241
-304
-359
-414
-447
-439
-410
-386
-365
-338
-317
-313
-317
-323
-331
-344
-360
-379
-395
-401
-400
-401
-402
-401
-401
-399
-390
-382
-383
-379
-365
-350
-339
-328
-315
-300
-284
-269
-256
-242
-228
-218
-209
-197
-182
-168
-154
-139
-122
-106
-93
-83
-74
-67
-66
-64
-47
-17
9
31
63
94
98
83
67
61
79
95
86
110
138
81
59
178
512
1540
3069
3347
1680
52
-119
188
130
64
123
107
77
83
66
67
108
145
177
220
271
337
409
465
503
543
590
645
708
767
810
841
865
875
877
874
830
724
586
449
309
177
90
41
-18
-93
-146
-151
-129
-131
-164
-177
-149
-129
-140
-162
-199
-257
-320
-378
-434
-492
-558
-630
-700
-760
-815
-874
-936
-995
-1052
-1105
-1159
-1242
-1338
-1396
-1434
-1471
-1459
-1424
-1444
-1484
-1531
-1633
-1626
-1385
-1199
-1324
-1540
-1586
-1537
-1547
-1577
-1466
-1096
-445
206
340
-86
-557
-892
-1238
-1483
-1554
-1381
-699
-82
13
1528
5711
9409
9677
8159
7080
6180
5105
4271
3619
2885
2156
1560
1144
894
