# session 23
2
41
-37
33
390
683
659
519
422
294
137
22
-72
-161
-220
-248
-261
-263
-261
-253
-235
-218
-208
-191
-169
-156
-156
-156
-153
-149
-146
-148
-155
-158
-158
-163
-169
-166
-160
-158
-161
-163
-161
-156
-153
-150
-144
-141
-142
-141
-136
-131
-128
-124
-120
-119
-117
-113
-110
-109
-107
-103
-100
-97
-95
-95
-93
-89
-86
-84
-83
-85
-93
-104
-104
-88
-61
-30
-5
4
-9
-44
-70
-71
-77
-82
-67
-77
-90
-48
-70
-155
-95
110
798
2532
3998
2978
425
-746
-387
-181
-298
-228
-168
-207
-173
-131
-136
-111
-73
-56
-31
4
30
58
95
132
175
225
281
344
414
484
548
600
630
637
622
579
493
365
219
76
-53
-162
-244
-300
-337
-358
-364
-361
-352
-339
-325
-309
-290
-276
-264
-251
-241
-238
-236
-236
-239
-243
-244
-246
-251
-255
-256
-255
-253
-251
-247
-242
-239
-238
-235
-230
-225
-221
-215
-208
-204
-201
-196
-191
-189
-186
-181
-177
-170
-162
-156
-154
-151
-144
-139
-137
-132
-128
-126
-124
-120
-116
-112
-109
-107
-109
-118
-123
-105
-63
-23
-12
-16
-20
-42
-73
-83
-88
-93
-77
-83
-98
-58
-71
-171
-139
59
698
2421
4141
3429
776
-737
-491
-232
-375
-345
-275
-321
-301
-250
-249
-226
-187
-167
-130
-79
-47
-22
19
70
121
178
252
340
427
509
592
669
727
755
758
741
687
579
433
282
149
45
-36
-104
-160
-195
-214
-229
-237
-238
-238
-237
-231
-225
-219
-209
-203
-202
-201
-206
-220
-236
-250
-266
-284
-299
-311
-316
-312
-311
-323
-338
-340
-337
-336
-330
-319
-311
-305
-294
-280
-270
-261
-246
-230
-219
-213
-208
-202
-198
-194
-191
-193
-193
-190
-187
-185
-176
-161
-148
-147
-149
-145
-138
-134
-135
-137
-137
-129
-121
-123
-131
-124
-84
-17
30
41
52
71
61
39
49
72
85
103
96
86
138
137
55
111
321
949
2621
4252
3481
861
-591
-335
-89
-226
-195
-136
-191
-180
-142
-156
-149
-122
-113
-97
-74
-59
-39
-12
16
53
99
145
198
265
333
392
442
482
503
502
480
424
323
197
69
-58
-180
-274
-332
-370
-394
-402
-401
-396
-385
-376
-370
-358
-339
-321
-308
-298
-286
-277
-273
-268
-256
-249
-252
-253
-250
-249
-251
-249
-244
-242
-240
-234
-225
-217
-210
-203
-201
-199
-190
-183
-179
-172
-166
-161
-152
-145
-145
-143
-135
-128
-122
-118
-116
-115
-109
-99
-91
-88
-87
-84
-81
-82
-86
-93
-93
-69
-26
6
11
7
-8
-42
-62
-62
-65
-57
-54
-73
-47
-26
-101
-104
42
378
1549
3324
3509
1362
-557
-631
-199
-223
-229
-124
-139
-143
-91
-84
-75
-38
-22
-8
23
51
76
110
146
184
229
279
334
398
467
533
587
623
640
640
616
557
456
322
180
48
-70
-169
-242
-287
-311
-322
-321
-314
-304
-290
-273
-260
-250
-243
-238
-237
-238
-239
-242
-245
-248
-252
-258
-262
-262
-264
-264
-261
-259
-261
-261
-257
-253
-249
-245
-241
-236
-231
-227
-223
-220
-216
-211
-207
-203
-199
-195
-192
-187
-181
-177
-175
-172
-166
-161
-156
-153
-150
-145
-139
-137
-144
-153
-148
-112
-67
-46
-42
-40
-57
-85
-101
-114
-118
-102
-111
-123
-81
-105
-194
-137
86
803
2567
4078
3095
511
-732
-408
-206
-335
-275
-210
-245
-209
-157
-148
-117
-84
-76
-56
-21
6
37
80
126
172
219
266
318
379
449
515
569
604
615
609
584
522
414
283
154
31
-81
-173
-241
-289
-317
-329
-332
-332
-329
-321
-308
-290
-271
-254
-243
-235
-226
-211
-198
-187
-172
-155
-145
-139
-134
-140
-149
-151
-148
-151
-157
-164
-171
-175
-176
-179
-179
-175
-173
-174
-174
-171
-168
-165
-162
-160
-157
-156
-154
-151
-149
-150
-150
-147
-144
-144
-141
-137
-136
-137
-133
-126
-124
-127
-133
-141
-143
-126
-94
-63
-39
-27
-43
-78
-94
-98
-105
-93
-93
-112
-80
-72
-165
-150
33
506
1945
3764
3570
1135
-643
-556
-199
-296
-288
-191
-220
-214
-162
-157
-141
-105
-92
-75
-41
-15
8
41
78
117
159
208
266
330
399
469
527
566
591
600
585
536
447
326
194
65
-52
-154
-228
-274
-297
-304
-307
-308
-304
-293
-283
-273
-258
-245
-239
-235
-230
-229
-229
-228
-234
-239
-238
-237
-239
-239
-235
-233
-233
-232
-229
-225
-222
-220
-216
-212
-210
-204
-197
-191
-187
-182
-177
-177
-176
-172
-165
-159
-154
-155
-153
-147
-143
-142
-137
-131
-127
-120
-116
-122
-124
-122
-128
-130
-107
-74
-45
-21
-25
-63
-88
-93
-100
-79
-57
-95
-107
-75
-119
-130
5
336
1440
3168
3439
1380
-562
-648
-179
-221
-274
-174
-184
-187
-127
-120
-116
-73
-50
-37
-3
27
54
98
143
179
224
282
344
412
493
571
629
669
698
702
669
605
506
371
221
85
-34
-142
-227
-281
-306
-310
-306
-303
-294
-282
-277
-274
-266
-260
-255
-246
-247
-259
-263
-261
-270
-281
-285
-287
-289
-288
-284
-285
-285
-281
-275
-273
-267
-258
-255
-253
-246
-239
-236
-234
-228
-221
-217
-216
-212
-205
-198
-195
-197
-205
-209
-194
-170
-154
-135
-107
-94
-111
-130
-145
-154
-137
-131
-151
-120
-103
-193
-201
-27
446
1817
3599
3559
1318
-450
-444
-125
-258
-293
-206
-232
-231
-180
-179
-168
-129
-114
-100
-66
-37
-12
25
64
102
144
196
260
331
402
474
537
577
595
596
570
502
390
252
113
-13
-122
-212
-277
-319
-338
-341
-339
-336
-329
-317
-301
-282
-269
-261
-251
-239
-233
-230
-227
-228
-232
-234
-236
-238
-238
-235
-234
-233
-231
-229
-226
-222
-218
-215
-210
-206
-203
-197
-189
-184
-181
-175
-170
-164
-158
-154
-151
-147
-148
-157
-165
-154
-128
-109
-97
-71
-49
-61
-86
-99
-111
-106
-89
-108
-103
-58
-116
-193
-90
204
1172
3087
4124
2535
115
-598
-212
-189
-316
-230
-207
-238
-191
-163
-164
-134
-106
-93
-66
-37
-13
19
56
95
140
191
249
313
385
460
528
581
612
624
615
573
484
353
208
73
-48
-151
-228
-277
-305
-320
-322
-316
-310
-302
-289
-274
-262
-252
-243
-233
-224
-219
-220
-225
-226
-224
-225
-230
-233
-235
-237
-234
-230
-230
-231
-231
-231
-230
-226
-224
-225
-223
-217
-214
-211
-206
-201
-196
-191
-188
-185
-178
-173
-171
-167
-163
-163
-159
-155
-157
-156
-151
-157
-173
-178
-163
-141
-126
-112
-82
-62
-84
-114
-123
-131
-130
-114
-130
-129
-86
-139
-221
-128
143
1063
3012
4224
2724
147
-735
-338
-259
-386
-298
-259
-292
-245
-203
-194
-164
-143
-138
-110
-72
-41
-8
30
74
123
170
216
272
337
403
463
511
540
550
545
516
446
333
199
72
-41
-147
-226
-259
-273
-293
-290
-245
-203
-188
-175
-158
-151
-143
-122
-101
-86
-67
-46
-38
-48
-63
-67
-61
-55
-47
-42
-50
-63
-70
-75
-81
-72
-53
-54
-77
-101
-120
-134
-144
-156
-172
-183
-185
-186
-190
-184
-165
-150
-145
-144
-147
-153
-153
-146
-137
-130
-126
-124
-121
-122
-129
-138
-143
-149
-162
-180
-189
-180
-163
-149
-129
-101
-102
-142
-167
-168
-174
-165
-155
-177
-159
-127
-209
-246
-101
249
1425
3361
3837
1729
-463
-729
-292
-323
-369
-258
-265
-279
-222
-209
-200
-159
-139
-125
-88
-53
-29
1
37
82
131
181
235
299
366
434
501
552
578
584
576
541
463
347
212
79
-39
-139
-219
-276
-308
-317
-315
-314
-310
-296
-277
-262
-250
-235
-220
-211
-208
-209
-212
-209
-201
-204
-212
-208
-200
-206
-213
-209
-207
-207
-204
-199
-194
-191
-191
-188
-179
-172
-173
-169
-159
-154
-153
-149
-145
-140
-134
-129
-127
-123
-117
-111
-107
-106
-104
-102
-100
-97
-99
-107
-108
-93
-72
-60
-44
-19
-16
-43
-64
-73
-86
-76
-61
-85
-77
-43
-112
-161
-39
264
1314
3191
3855
1959
-278
-667
-217
-216
-290
-186
-181
-203
-151
-132
-131
-100
-80
-67
-37
-9
16
50
86
121
165
217
273
334
402
470
532
578
602
605
589
542
453
327
185
50
-71
-170
-246
-295
-323
-335
-337
-333
-326
-316
-303
-289
-277
-269
-263
-258
-254
-252
-252
-255
-259
-261
-263
-266
-266
-265
-264
-263
-262
-261
-257
-250
-245
-241
-236
-231
-226
-220
-214
-208
-202
-196
-192
-188
-183
-177
-172
-167
-162
-156
-153
-149
-145
-140
-136
-132
-128
-125
-123
-119
-118
-130
-139
-124
-98
-84
-72
-42
-17
-38
-77
-92
-96
-93
-73
-83
-93
-44
-71
-179
-136
91
860
2762
4414
3408
671
-667
-352
-168
-318
-255
-190
-237
-205
-158
-162
-139
-106
-96
-74
-42
-18
12
49
85
126
175
231
295
367
442
513
571
609
627
625
595
521
400
252
105
-27
-138
-226
-290
-330
-349
-355
-354
-349
-340
-329
-315
-302
-289
-275
-263
-258
-254
-249
-245
-246
-251
-254
-254
-255
-257
-260
-263
-263
-261
-258
-255
-252
-248
-243
-238
-233
-228
-225
-219
-212
-209
-206
-197
-188
-184
-180
-175
-172
-169
-161
-152
-146
-140
-135
-132
-127
-121
-118
-113
-108
-105
-110
-121
-119
-95
-74
-65
-45
-12
-10
-46
-71
-76
-85
-76
-64
-90
-77
-41
-123
-181
-45
311
1496
3551
4256
2198
-217
-663
-222
-237
-304
-189
-193
-217
-155
-135
-136
-98
-72
-62
-33
-3
19
48
81
120
168
222
278
341
414
487
551
597
624
633
623
579
490
363
221
85
-36
-140
-220
-272
-301
-314
-316
-312
-305
-295
-282
-268
-255
-246
-237
-231
-231
-231
-228
-230
-231
-230
-235
-240
-239
-241
-246
-247
-249
-253
-248
-240
-241
-246
-246
-244
-247
-249
-249
-246
-242
-240
-238
-232
-223
-221
-222
-220
-214
-207
-204
-205
-202
-194
-187
-186
-180
-167
-154
-148
-145
-143
-142
-142
-134
-117
-100
-88
-65
-33
-28
-58
-82
-92
-101
-89
-87
-118
-92
-66
-162
-185
-15
402
1709
3614
3777
1463
-575
-666
-260
-333
-350
-242
-268
-274
-213
-199
-181
-135
-108
-84
-47
-10
41
98
134
166
219
289
367
459
557
640
691
720
736
732
708
660
580
463
326
189
68
-33
-113
-170
-200
-211
-220
-230
-234
-236
-235
-230
-226
-228
-230
-232
-236
-241
-247
-255
-263
-269
-276
-283
-287
-291
-298
-301
-299
-295
-293
-292
-290
-285
-279
-273
-270
-265
-256
-250
-246
-240
-233
-225
-216
-209
-206
-202
-193
-187
-181
-174
-167
-161
-158
-155
-146
-135
-135
-144
-147
-133
-108
-93
-86
-62
-31
-36
-68
-85
-88
-74
-61
-82
-77
-31
-78
-131
-18
221
1036
2753
3685
2143
-173
-813
-350
-225
-281
-179
-154
-180
-136
-112
-112
-78
-50
-39
-16
12
36
65
97
134
178
224
274
333
400
465
523
568
597
607
599
567
502
402
283
159
44
-56
-133
-186
-218
-234
-239
-236
-228
-217
-207
-198
-191
-186
-186
-188
-189
-191
-196
-204
-211
-217
-219
-222
-228
-232
-232
-234
-237
-238
-239
-238
-233
-229
-229
-229
-225
-220
-217
-215
-214
-211
-208
-206
-207
-206
-203
-204
-206
-206
-203
-200
-200
-201
-201
-200
-201
-208
-219
-222
-202
-183
-178
-160
-132
-139
-177
-205
-224
-229
-220
-242
-253
-215
-262
-346
-257
3
839
2664
3875
2479
-66
-982
-550
-401
-509
-425
-380
-408
-356
-308
-291
-237
-186
-162
-122
-69
-19
45
121
189
263
359
470
579
685
792
887
949
987
1020
1040
1010
921
789
638
490
351
228
134
68
20
-12
-38
-70
-101
-125
-144
-157
-166
-178
-195
-209
-222
-235
-248
-261
-275
-287
-297
-308
-317
-325
-331
-336
-341
-345
-347
-346
-346
-347
-347
-342
-335
-331
-329
-324
-316
-310
-306
-300
-293
-289
-288
-284
-278
-269
-258
-250
-248
-244
-240
-244
-245
-228
-205
-191
-172
-134
-112
-128
-152
-166
-171
-151
-139
-157
-126
-104
-187
-181
-10
351
1573
3400
3543
1301
-643
-693
-263
-291
-280
-168
-186
-182
-117
-103
-93
-57
-33
-10
26
58
92
131
167
201
242
292
351
413
476
541
595
627
643
645
625
576
493
377
242
108
-8
-102
-178
-229
-254
-267
-272
-267
-258
-248
-233
-223
-224
-224
-219
-219
-226
-234
-237
-242
-254
-268
-276
-280
-285
-290
-296
-302
-304
-302
-302
-303
-307
-308
-304
-300
-297
-291
-288
-289
-287
-279
-275
-276
-278
-278
-271
-266
-269
-267
-260
-266
-274
-260
-238
-227
-215
-192
-178
-182
-191
-199
-212
-201
-176
-185
-182
-142
-171
-196
-79
165
979
2632
3512
2072
-80
-681
-261
-133
-158
-44
1
7
73
115
141
193
227
235
245
250
244
231
219
216
206
182
166
179
224
299
383
447
488
524
566
597
599
582
572
556
478
319
136
-4
-91
-147
-180
-195
-198
-195
-185
-173
-165
-163
-168
-178
-193
-212
-237
-262
-287
-310
-329
-341
-349
-357
-361
-356
-346
-337
-328
-316
-306
-301
-301
-301
-302
-302
-298
-291
-285
-284
-281
-277
-283
-289
-272
-243
-228
-213
-181
-164
-182
-200
-209
-217
-200
-182
-198
-175
-147
-230
-262
-103
310
1543
3367
3649
1585
-369
-543
-194
-283
-326
-223
-238
-250
-198
-186
-179
-147
-129
-108
-75
-52
-28
12
49
83
128
180
235
299
369
437
494
533
552
553
529
464
356
224
89
-34
-141
-225
-286
-326
-349
-361
-361
-357
-350
-341
-331
-319
-303
-287
-275
-267
-259
-253
-251
-252
-255
-260
-265
-269
-270
-270
-270
-267
-264
-263
-262
-256
-249
-243
-237
-230
-223
-214
-207
-200
-191
-182
-173
-165
-159
-155
-157
-154
-136
-107
-85
-62
-25
-3
-21
-42
-44
-45
-29
-5
-18
-6
46
-7
-65
58
345
1294
3185
4165
2528
142
-499
-70
-11
-91
22
49
21
79
118
119
166
