# session 14
-193
-192
-181
-88
-3
-54
-149
-187
-221
-271
-306
-337
-375
-419
-490
-579
-675
-784
-873
-901
-911
-945
-971
-957
-919
-883
-850
-816
-795
-804
-818
-821
-816
-789
-762
-746
-686
-638
-662
-587
-358
136
1450
3062
2943
905
-585
-483
-135
-180
-148
-29
-7
27
90
126
179
241
272
299
342
393
444
488
530
582
647
718
792
859
926
1004
1081
1126
1142
1148
1141
1098
1004
866
709
569
454
356
277
228
199
175
155
145
140
135
126
107
73
29
-20
-78
-142
-199
-251
-319
-410
-506
-593
-664
-732
-813
-889
-924
-934
-958
-983
-971
-929
-881
-819
-747
-682
-624
-561
-505
-459
-415
-374
-343
-318
-293
-265
-240
-218
-193
-166
-138
-113
-91
-73
-59
-46
-29
-11
-7
-8
16
57
81
97
126
135
107
79
62
58
76
81
70
106
104
18
43
221
738
2201
3841
3440
1110
-416
-292
-31
-148
-132
-57
-90
-78
-36
-39
-27
-1
-4
-9
4
26
54
84
114
158
213
272
339
406
471
540
607
657
679
675
652
609
537
422
279
144
34
-74
-185
-268
-312
-333
-337
-364
-478
-611
-633
-577
-562
-597
-627
-640
-649
-645
-624
-600
-590
-587
-579
-575
-570
-546
-509
-484
-465
-451
-447
-443
-432
-424
-422
-420
-422
-425
-415
-388
-357
-330
-298
-256
-210
-168
-128
-89
-54
-20
9
31
50
65
77
90
107
112
108
113
124
124
116
113
117
122
130
145
152
141
127
122
108
98
116
120
122
173
177
115
176
365
870
2180
3406
2687
568
-523
-248
-11
-73
-10
49
22
65
122
126
147
191
222
254
289
319
353
385
413
455
501
533
560
587
592
570
545
537
546
551
522
443
307
121
-88
-298
-504
-695
-842
-941
-1008
-1053
-1072
-1077
-1065
-1020
-954
-899
-862
-821
-766
-712
-666
-620
-572
-526
-482
-437
-388
-340
-301
-265
-222
-179
-148
-125
-99
-73
-53
-35
-17
-1
14
32
50
64
73
77
79
83
87
86
87
92
97
102
112
128
138
144
152
152
135
114
115
126
119
107
112
110
82
40
-7
-33
-31
-49
-55
3
2
-64
1
233
944
2593
3948
3017
685
-432
-204
-134
-351
-347
-272
-255
-194
-135
-111
-73
-56
-75
-87
-75
-48
-10
15
11
-19
-82
-166
-230
-256
-246
-196
-130
-88
-74
-81
-126
-212
-308
-385
-429
-438
-426
-418
-413
-400
-380
-356
-327
-310
-321
-330
-309
-267
-217
-173
-146
-126
-99
-68
-45
-25
-1
28
61
86
96
105
120
137
153
159
152
150
157
158
152
145
135
116
91
69
57
62
74
82
85
82
76
76
79
81
85
90
96
104
115
128
145
166
179
177
172
186
217
236
242
256
256
212
145
75
21
4
-21
-63
-51
-67
-181
-211
-66
432
1783
3243
2807
623
-791
-676
-447
-585
-609
-576
-631
-621
-605
-720
-871
-935
-919
-892
-912
-953
-943
-873
-781
-679
-567
-462
-363
-242
-95
49
172
275
356
417
468
488
460
405
346
272
189
121
78
53
48
59
72
85
100
115
124
134
141
136
126
122
115
97
75
57
42
30
19
6
-3
-1
5
2
-10
-26
-44
-59
-63
-72
-98
-113
-111
-123
-145
-149
-141
-136
-130
-122
-118
-108
-98
-98
-103
-102
-97
-97
-104
-112
-118
-120
-120
-118
-109
-91
-76
-67
-53
-38
-39
-57
-79
-82
-66
-72
-83
-49
-61
-128
-58
138
591
1803
3044
2481
438
-742
-532
-256
-285
-223
-151
-160
-120
-73
-69
-49
-18
-2
23
57
81
100
130
173
221
261
304
358
418
476
529
567
591
602
592
562
517
442
329
205
93
-9
-101
-170
-215
-245
-268
-283
-280
-263
-253
-253
-248
-239
-237
-238
-236
-234
-233
-235
-240
-242
-239
-239
-239
-235
-235
-240
-245
-262
-274
-275
-294
-306
-299
-427
-718
-878
-775
-631
-577
-530
-470
-434
-402
-363
-332
-304
-269
-240
-225
-210
-189
-175
-175
-172
-149
-121
-102
-83
-60
-54
-67
-91
-113
-109
-89
-102
-103
-67
-108
-160
-54
197
968
2525
3394
2063
-11
-636
-271
-195
-281
-214
-198
-214
-165
-149
-157
-121
-96
-109
-120
-128
-135
-119
-83
-43
0
48
100
155
217
281
340
386
417
432
431
411
362
278
177
85
7
-63
-123
-156
-165
-157
-133
-97
-58
-25
7
42
73
99
124
148
164
178
191
198
203
202
197
197
196
176
142
113
92
76
61
41
18
-6
-51
-129
-205
-236
-231
-229
-244
-254
-255
-261
-250
-188
-104
-37
26
99
165
218
270
319
363
405
444
474
492
491
482
493
520
546
581
620
629
609
590
580
586
594
569
563
581
516
461
568
833
1729
3441
4215
2565
279
-401
-150
-279
-537
-558
-560
-577
-562
-605
-706
-832
-985
-1119
-1231
-1368
-1491
-1550
-1615
-1762
-1956
-2091
-2091
-2005
-1944
-1915
-1840
-1678
-1479
-1346
-1325
-1342
-1347
-1383
-1446
-1489
-1510
-1500
-1426
-1317
-1212
-1118
-1039
-968
-871
-754
-663
-607
-552
-491
-427
-337
-225
-128
-68
-46
-58
-61
-20
45
99
142
195
268
359
449
516
562
595
598
555
507
502
540
595
653
712
758
784
809
849
897
945
1000
1057
1116
1174
1215
1251
1289
1299
1273
1242
1217
1210
1250
1309
1343
1371
1416
1463
1509
1576
1660
1742
1819
1895
1954
1990
2023
2061
2098
2145
2191
2216
2241
2238
2180
2150
2248
2702
3749
4696
4329
2961
2095
2037
2013
1786
1561
1398
1260
1014
664
460
382
221
46
-164
-708
-1800
-3706
-6318
-8308
-8551
-7816
-7209
-6677
-6069
-5637
-5322
-4931
-4529
-4207
-3954
-3713
-3415
-3077
-2776
-2511
-2235
-1958
-1717
-1505
-1282
-1033
-782
-543
-319
-127
26
156
263
331
369
409
463
515
547
563
572
565
536
511
504
504
516
542
556
541
498
411
283
194
198
216
157
84
91
145
202
298
417
480
491
524
570
595
637
730
845
942
995
1002
1020
1099
1214
1330
1438
1516
1544
1537
1497
1409
1300
1217
1165
1125
1078
1022
985
982
971
920
864
825
775
723
721
761
795
821
857
891
901
898
900
871
756
598
496
461
429
355
253
189
188
165
75
5
4
-1
-63
-154
-235
-284
-297
-312
-364
-441
-517
-598
-694
-792
-889
-1000
-1135
-1271
-1389
-1500
-1611
-1689
-1707
-1691
-1677
-1657
-1610
-1548
-1495
-1438
-1339
-1186
-1008
-822
-624
-416
-164
215
753
1370
1944
2386
2635
2654
2489
2255
2036
1830
1586
1291
993
740
515
287
66
-119
-283
-451
-610
-729
-809
-843
-818
-769
-763
-789
-787
-772
-796
-854
-913
-954
-971
-967
-945
-902
-852
-801
-745
-716
-728
-740
-723
-681
-629
-587
-568
-541
-480
-405
-334
-272
-232
-218
-216
-221
-211
-180
-167
-152
-105
-120
-170
-85
120
694
2013
3015
2092
122
-712
-400
-200
-225
-139
-87
-105
-65
-23
-13
13
39
46
65
104
136
163
202
249
290
330
378
433
494
557
611
652
677
686
682
662
610
525
427
319
208
115
45
-13
-57
-76
-79
-80
-75
-56
-33
-16
-6
3
10
13
21
35
38
34
47
50
34
45
40
-29
-88
-229
-660
-1103
-1103
-843
-726
-693
-591
-499
-455
-394
-309
-230
-164
-113
-71
-35
-14
-7
-1
-4
-23
-36
-15
35
92
143
180
216
269
332
382
429
487
530
540
535
529
536
553
546
537
563
530
450
494
679
1313
2868
4203
3361
1102
-22
224
395
284
327
376
338
347
355
327
320
305
263
240
239
234
233
237
244
255
277
311
354
402
455
502
531
540
533
503
444
357
242
102
-48
-184
-297
-394
-481
-545
-581
-605
-629
-655
-680
-700
-719
-742
-767
-789
-816
-854
-898
-936
-969
-1008
-1051
-1090
-1131
-1171
-1203
-1232
-1263
-1294
-1320
-1341
-1365
-1392
-1415
-1430
-1446
-1464
-1477
-1487
-1499
-1508
-1513
-1518
-1527
-1534
-1540
-1546
-1546
-1544
-1546
-1546
-1536
-1524
-1516
-1505
-1491
-1478
-1462
-1449
-1445
-1428
-1387
-1350
-1324
-1277
-1220
-1193
-1184
-1168
-1149
-1099
-1031
-997
-935
-842
-841
-831
-658
-293
772
2595
3313
1677
-330
-695
-264
-190
-175
-7
77
137
249
325
389
476
543
598
670
750
839
945
1049
1141
1237
1354
1492
1645
1817
2015
2208
2348
2439
2543
2678
2792
2848
2857
2836
2820
2852
2923
2999
3095
3234
3391
3549
3721
3896
4051
4201
4361
4519
4662
4797
4930
5058
5181
5314
5460
5611
5761
5914
6069
6225
6371
6505
6637
6771
6896
7007
7115
7224
7326
7415
7493
7570
7640
7691
7744
7775
7708
7595
7448
7024
6404
6048
5682
4869
4169
3330
1191
-1594
-5448
-13812
-24807
-30438
-29365
-27639
-27294
-26439
-25345
-24718
-23965
-23094
-22402
-21673
-20899
-20051
-18808
-17247
-15718
-14252
-12788
-11388
-10047
-8732
-7475
-6293
-5183
-4142
-3148
-2228
-1451
-795
-180
411
955
1438
1866
2295
2765
3212
3593
3979
4411
4810
5104
5328
5548
5780
6022
6277
6528
6741
6916
7085
7265
7426
7535
7606
7670
7719
7720
7676
7611
7537
7441
7309
7167
7036
6882
6681
6460
6237
6007
5794
5608
5405
5161
4904
4667
4462
4273
4078
3876
3673
3463
3237
3008
2796
2599
2412
2233
2058
1891
1733
1584
1450
1326
1197
1076
997
956
916
854
769
679
609
584
657
880
1207
1473
1508
1299
1014
787
563
279
-20
-308
-592
-837
-1042
-1258
-1476
-1664
-1843
-2035
-2233
-2412
-2546
-2658
-2804
-2958
-3055
-3127
-3234
-3353
-3433
-3485
-3552
-3608
-3566
-3499
-3556
-3590
-3425
-3137
-2426
-1082
-413
-1644
-3434
-3926
-3533
-3341
-3267
-3092
-3010
-2960
-2841
-2877
-3075
-3096
-2866
-2637
-2496
-2348
-2182
-2028
-1877
-1742
-1632
-1518
-1385
-1239
-1084
-935
-802
-677
-569
-489
-423
-365
-335
-340
-374
-422
-461
-480
-467
-393
-347
-459
-593
-498
-235
-20
133
289
428
549
682
819
938
1049
1166
1271
1354
1442
1506
1436
1257
1147
1158
1192
1209
1218
1196
1142
1038
857
663
528
427
364
391
448
398
239
116
122
239
449
748
1056
1292
1510
1803
2155
2501
2826
3120
3368
3591
3818
4043
4258
4471
4668
4821
4939
5041
5135
5240
5333
5377
5425
5469
5417
5381
5489
5772
6697
8316
8958
7472
5590
5143
5391
5248
5001
4939
4878
4805
4641
4148
3365
2469
1506
307
-1464
-3476
-5020
-7246
-11843
-16772
-18517
-17650
-16812
-16258
-15359
-14556
-14027
-13399
-12654
-11912
-11145
-10389
-9689
-9008
-8334
-7685
-7064
-6462
-5849
-5218
-4605
-4025
-3451
-2884
-2343
-1826
-1333
-870
-418
39
485
894
1252
1577
1888
2167
2403
2621
2827
2995
3111
3180
3222
3270
3342
3407
3432
3422
3407
3418
3460
3503
3523
3549
3623
3730
3817
3838
3784
3703
3648
3606
3543
3454
3362
3291
3246
3196
3121
3039
2963
2890
2824
2772
2717
2650
2584
2534
2481
2394
2276
2164
2069
1975
1864
1728
1566
1392
1213
1028
858
735
659
601
539
475
421
403
448
514
487
330
139
-12
-137
-263
-397
-511
-548
-545
-614
-742
-810
-810
-842
-939
-1052
-1133
-1168
-1170
-1183
-1225
-1259
-1251
-1221
-1199
-1178
-1150
-1130
-1113
-1085
-1057
-1045
-1048
-1051
-1042
-1026
-1014
-1010
-1000
-987
-983
-989
-983
-952
-912
-888
-897
-925
-926
-891
-861
-837
-794
-763
-762
-743
-701
-672
-646
-602
-553
-510
-466
-422
-385
-369
-376
-388
-395
-401
-403
-399
-397
-400
-397
-387
-376
-365
-349
-324
-295
-267
-238
-200
-152
-105
-76
-63
-55
-38
-18
-9
-19
-29
-25
-20
-35
-65
-98
-132
-165
-189
-197
-179
-154
-157
-183
-195
-188
-180
-177
-179
-182
-176
-163
-156
-153
-154
-159
-160
-152
-138
-94
-21
3
-57
-108
-81
-19
21
9
-25
8
126
222
238
251
323
422
479
472
449
478
557
635
691
744
798
859
946
1076
1233
1387
1525
1654
1772
1855
1889
1873
1804
1679
1519
1365
1231
1100
974
866
762
662
595
540
446
330
250
205
152
90
51
31
5
-31
-66
-102
-140
-180
-233
-303
-369
-428
-488
-527
-513
-474
-477
-525
-553
-543
-543
-581
-624
-640
-650
-686
-723
-726
-708
-696
-695
-715
-747
-767
-788
-814
-801
-764
-743
-691
-592
-538
-561
-581
-543
-449
-345
-324
-401
-462
-442
-402
-375
-321
-247
-197
-213
-337
-503
-531
-419
-311
-214
-132
-139
-131
-48
188
1129
2581
2753
1025
-567
-668
-265
-172
-105
20
57
98
167
193
217
260
283
299
325
347
365
397
428
430
407
380
341
276
223
226
279
352
431
491
507
483
425
339
235
117
-5
-108
-189
-281
-416
-554
-598
-532
-443
-385
-337
-285
-242
-208
-182
-169
-161
-147
-134
-129
-129
-130
-132
-134
-134
-137
-139
-139
-141
-148
-154
-157
-161
-166
-170
-172
-173
-174
-178
-187
-198
-204
-204
-204
-203
-198
-193
-191
-188
-181
-170
-159
-148
-137
-128
-117
-104
-101
-107
-95
-65
-47
-39
-14
9
-1
-28
-47
-53
-39
-34
-53
-28
-1
-73
-92
42
420
1634
3416
3667
1663
-207
-385
-70
-149
-184
-91
-105
-110
-64
-55
-40
-2
10
16
38
58
80
110
140
173
215
265
323
391
459
524
585
632
654
658
643
594
500
373
243
118
-7
-115
-190
-231
-251
-254
-257
-269
-282
-306
-389
-511
-574
-535
-455
-389
-339
-296
-262
-242
-229
-209
-185
-169
-160
-150
-140
-129
-119
-120
-123
-119
-118
-125
-132
-135
-137
-135
-135
-142
-148
-151
-154
-156
-156
-157
-158
-159
-160
-164
-171
-173
-170
-169
-175
-179
-179
-184
-193
-192
-183
-182
-190
-193
-197
-211
-217
-203
-187
-184
-171
-150
-158
-195
-223
-242
-248
-236
-245
-257
-228
-257
-336
-285
-89
582
2202
3539
2613
306
-786
-523
-372
-484
-423
-363
-393
-368
-326
-315
-288
-262
-253
-237
-214
-191
-163
-133
-97
-47
8
69
144
223
301
380
454
507
538
553
549
515
441
339
230
130
53
-1
-40
-61
-59
-42
-23
-3
19
40
58
66
61
63
73
67
57
73
