# session 12
-100
-71
-190
-20
553
928
866
758
770
746
689
671
652
615
586
561
538
521
499
469
438
414
402
392
384
388
388
367
331
283
228
203
203
164
127
138
66
-70
-66
125
877
2561
3749
2590
300
-601
-276
-169
-276
-195
-147
-185
-169
-152
-157
-144
-145
-161
-161
-156
-155
-149
-139
-115
-64
-3
61
137
221
297
360
409
439
451
444
407
328
214
88
-34
-153
-257
-335
-405
-471
-508
-516
-518
-507
-472
-422
-373
-333
-306
-286
-272
-266
-268
-272
-271
-258
-246
-239
-223
-202
-190
-180
-164
-149
-136
-122
-113
-110
-97
-80
-75
-81
-78
-70
-68
-64
-54
-48
-41
-26
-19
-21
-11
11
28
43
64
84
101
121
140
149
146
137
141
161
178
184
201
221
211
178
142
102
81
68
32
30
44
-54
-174
-206
-110
743
2500
3244
1608
-454
-891
-559
-624
-731
-611
-534
-497
-427
-385
-343
-295
-316
-382
-438
-469
-461
-441
-464
-483
-429
-343
-278
-212
-124
-36
33
82
111
123
115
87
35
-57
-178
-294
-393
-494
-586
-644
-660
-634
-581
-532
-491
-440
-390
-360
-339
-313
-293
-286
-281
-268
-254
-243
-229
-211
-199
-185
-162
-148
-141
-117
-86
-74
-65
-43
-21
-4
16
31
43
62
82
99
116
134
149
163
181
199
211
220
235
244
238
234
244
260
287
324
349
363
390
427
453
469
482
494
507
513
509
515
538
556
548
527
528
553
573
582
591
621
677
704
702
728
694
582
599
799
1431
2973
4391
3692
1487
337
570
742
622
642
669
603
497
314
160
101
0
-133
-209
-301
-441
-548
-665
-872
-1054
-1033
-843
-649
-480
-288
-98
80
260
394
474
550
620
648
642
626
609
589
537
454
389
370
365
352
328
276
203
121
-28
-284
-564
-882
-1425
-2147
-2767
-3225
-3637
-4054
-4579
-5147
-5356
-5109
-4850
-4804
-4761
-4611
-4384
-4035
-3582
-3103
-2576
-1975
-1391
-889
-456
-106
144
328
484
627
767
883
948
997
1065
1125
1154
1178
1207
1226
1239
1257
1280
1294
1298
1304
1325
1350
1357
1354
1363
1386
1408
1417
1412
1385
1338
1273
1197
1141
1117
1080
1049
1062
1032
968
1030
1191
1671
2968
4189
3522
1476
369
566
755
654
666
694
634
616
617
578
546
532
512
490
477
478
488
495
495
500
519
547
578
612
647
676
693
692
673
635
573
480
361
216
59
-85
-208
-320
-411
-465
-494
-519
-534
-542
-559
-583
-605
-633
-674
-727
-783
-823
-842
-863
-899
-938
-968
-987
-1004
-1038
-1073
-1094
-1111
-1129
-1139
-1156
-1190
-1215
-1224
-1234
-1235
-1204
-1136
-1052
-975
-911
-846
-778
-715
-662
-617
-574
-533
-494
-452
-418
-407
-388
-333
-276
-245
-209
-160
-142
-157
-168
-167
-152
-133
-125
-92
-54
-104
-139
-35
259
1275
3060
3739
2056
-11
-442
-83
-82
-131
-21
-7
-21
33
62
75
103
112
121
152
177
195
225
265
312
365
419
482
559
639
709
766
804
819
816
799
747
641
507
385
268
146
45
-17
-57
-87
-101
-97
-93
-94
-82
-57
-47
-47
-36
-29
-38
-42
-42
-53
-65
-71
-81
-90
-89
-94
-107
-113
-117
-126
-130
-129
-135
-142
-144
-147
-151
-152
-156
-161
-157
-155
-167
-176
-171
-171
-178
-176
-175
-183
-182
-176
-183
-200
-203
-191
-178
-178
-197
-217
-211
-187
-173
-170
-158
-146
-157
-188
-221
-231
-215
-225
-244
-206
-210
-297
-283
-110
484
2016
3512
2891
597
-721
-522
-298
-414
-379
-298
-319
-303
-267
-261
-238
-217
-214
-195
-169
-150
-120
-85
-54
-13
39
101
174
250
320
385
434
467
491
497
469
405
307
187
67
-38
-126
-198
-253
-285
-290
-277
-260
-237
-216
-209
-201
-177
-155
-145
-133
-116
-105
-98
-91
-83
-65
-45
-37
-34
-24
-10
7
26
37
46
63
80
82
87
107
128
135
137
149
166
175
182
190
192
189
188
190
191
179
157
141
135
125
111
102
94
81
70
59
43
32
25
11
-9
-21
-30
-51
-85
-117
-135
-138
-146
-167
-183
-196
-229
-281
-341
-389
-414
-453
-494
-483
-495
-553
-502
-299
313
1804
3181
2449
86
-1288
-1065
-700
-691
-611
-482
-430
-364
-292
-242
-179
-128
-128
-165
-206
-218
-211
-240
-296
-299
-229
-146
-71
12
80
116
159
225
271
286
290
272
221
152
66
-27
-97
-150
-199
-222
-212
-192
-166
-132
-102
-76
-43
-8
15
22
24
34
53
65
62
64
75
78
73
72
78
84
87
89
97
103
98
92
94
95
90
84
83
84
88
87
78
73
79
79
71
67
64
58
56
53
44
41
43
38
33
31
24
13
11
12
4
-9
-17
-30
-50
-56
-41
-31
-31
-19
-9
-22
-49
-86
-114
-99
-92
-127
-119
-101
-177
-188
-47
309
1455
3092
3183
1169
-559
-615
-260
-320
-348
-270
-287
-284
-236
-234
-226
-194
-188
-184
-159
-137
-119
-87
-45
-2
44
95
158
233
308
375
434
478
496
493
477
438
354
234
110
-10
-127
-224
-281
-295
-284
-271
-262
-263
-283
-318
-356
-392
-420
-442
-473
-510
-538
-563
-590
-606
-608
-605
-599
-587
-563
-529
-502
-481
-452
-417
-388
-361
-325
-292
-273
-252
-225
-205
-189
-167
-155
-149
-127
-105
-99
-86
-65
-58
-57
-40
-20
-16
-17
-2
19
30
38
51
69
84
92
88
88
113
151
176
198
228
238
217
193
178
182
208
204
190
237
236
133
145
328
909
2502
4206
3709
1260
-271
-126
93
-63
-35
55
12
17
60
55
64
90
80
57
46
30
10
5
20
41
60
87
125
178
246
309
335
328
311
292
256
179
60
-74
-197
-303
-395
-477
-541
-577
-581
-562
-539
-520
-497
-468
-441
-418
-390
-364
-344
-340
-370
-411
-411
-381
-363
-351
-328
-314
-318
-322
-316
-305
-291
-280
-282
-291
-298
-303
-305
-296
-293
-316
-350
-372
-378
-368
-341
-308
-272
-236
-215
-200
-168
-134
-120
-114
-109
-115
-118
-104
-93
-92
-80
-57
-38
-17
6
22
32
56
98
136
161
194
228
232
209
182
167
181
190
166
183
217
146
109
235
565
1642
3360
3742
1861
-64
-313
34
-21
-84
-2
-6
-18
15
16
19
42
20
-59
-155
-219
-223
-199
-182
-151
-93
-26
46
118
171
209
249
292
331
365
384
373
324
234
121
15
-77
-166
-243
-289
-307
-309
-305
-298
-284
-264
-247
-235
-222
-216
-217
-212
-205
-208
-215
-215
-210
-212
-218
-219
-216
-218
-220
-212
-200
-197
-198
-192
-185
-186
-189
-187
-184
-182
-175
-169
-169
-171
-170
-166
-161
-153
-148
-148
-150
-147
-142
-136
-128
-125
-130
-130
-120
-115
-119
-119
-111
-101
-96
-94
-90
-88
-94
-95
-78
-55
-40
-28
-14
-17
-38
-64
-80
-71
-66
-92
-76
-39
-105
-151
-37
236
1166
2837
3448
1781
-220
-596
-208
-203
-269
-178
-173
-189
-135
-114
-119
-90
-66
-69
-68
-50
-21
11
45
86
138
197
262
334
412
488
546
591
624
635
619
577
499
389
267
143
18
-94
-180
-235
-260
-267
-263
-250
-238
-236
-225
-202
-190
-195
-197
-193
-194
-198
-200
-205
-213
-216
-220
-224
-227
-227
-225
-223
-225
-225
-214
-203
-203
-204
-193
-186
-189
-184
-170
-161
-160
-162
-160
-150
-136
-126
-123
-124
-124
-118
-108
-106
-113
-119
-119
-119
-120
-124
-136
-147
-140
-121
-109
-102
-91
-87
-103
-135
-171
-179
-162
-175
-188
-152
-176
-256
-209
-11
673
2299
3627
2691
390
-676
-380
-219
-347
-303
-243
-263
-235
-203
-193
-155
-128
-141
-147
-132
-112
-91
-70
-44
-4
48
109
182
261
335
392
406
373
330
305
278
218
120
-3
-131
-244
-334
-405
-457
-484
-483
-458
-419
-378
-345
-312
-270
-232
-206
-187
-172
-157
-141
-130
-128
-125
-114
-104
-103
-104
-108
-122
-134
-127
-110
-103
-105
-106
-98
-81
-65
-57
-51
-37
-19
-8
2
18
36
53
68
73
79
100
122
128
132
144
149
145
151
163
166
165
167
173
179
178
161
143
147
174
200
212
223
243
250
228
190
161
163
177
160
162
201
152
79
162
405
1243
3036
4192
2874
513
-345
-20
26
-117
-48
-11
-51
-20
12
14
38
44
9
-23
-36
-60
-95
-100
-63
-11
45
107
167
226
291
358
415
454
468
455
414
337
223
85
-60
-196
-311
-398
-466
-524
-559
-568
-572
-577
-579
-580
-582
-582
-579
-580
-587
-596
-608
-622
-631
-640
-656
-677
-691
-702
-718
-729
-729
-734
-748
-762
-773
-779
-781
-790
-801
-799
-794
-802
-809
-804
-797
-792
-788
-788
-788
-782
-776
-772
-770
-765
-754
-743
-741
-742
-736
-728
-724
-716
-699
-681
-672
-666
-647
-625
-615
-602
-580
-562
-537
-496
-468
-465
-453
-421
-388
-355
-310
-260
-244
-269
-280
-254
-218
-186
-176
-151
-51
26
39
182
471
1095
2645
4274
3788
1461
75
337
654
569
603
625
488
447
531
637
793
954
1044
1141
1338
1582
1771
1931
2134
2295
2294
2191
2097
2047
2091
2229
2340
2355
2221
1855
1433
1324
1560
1877
2160
2328
2222
1998
1976
1996
1767
1497
1283
933
975
1964
3059
3414
3728
4825
6550
8224
8555
6635
3731
1697
757
898
2232
3156
2240
710
47
-132
-792
-2571
-5577
-8810
-10556
-9993
-8071
-6177
-4639
-3289
-2069
-825
118
229
46
290
659
662
-110
-1735
-3469
-5397
-7368
-6600
-3521
-4014
-8498
-10719
-9686
-8956
-8437
-7094
-6101
-5633
-4908
-3893
-2237
297
2723
4377
5492
5662
4282
2149
352
-1443
-3797
-5934
-6828
-7060
-8554
-11715
-13676
-11881
-8012
-5082
-2911
-17
2498
2585
1123
652
1483
2239
2590
2939
3246
3428
3594
3742
3873
4011
4109
4166
4230
4268
4247
4203
4166
4146
4148
4175
4237
4324
4400
4460
4520
4551
4516
4432
4346
4249
4093
3881
3653
3415
3170
2943
2730
2526
2357
2225
2099
1983
1880
1761
1650
1589
1527
1418
1305
1213
1103
977
868
770
668
561
455
340
222
126
48
-35
-122
-202
-276
-348
-427
-505
-570
-631
-705
-775
-821
-859
-913
-983
-1046
-1084
-1109
-1153
-1209
-1242
-1252
-1282
-1346
-1393
-1403
-1413
-1436
-1452
-1464
-1491
-1525
-1542
-1531
-1517
-1518
-1503
-1473
-1479
-1512
-1533
-1537
-1525
-1514
-1517
-1492
-1474
-1516
-1485
-1335
-958
281
2048
2207
151
-1646
-1702
-1309
-1359
-1365
-1232
-1213
-1187
-1085
-1032
-1010
-951
-888
-843
-785
-715
-656
-587
-498
-417
-346
-245
-123
-14
94
216
333
414
456
491
524
505
426
321
195
76
0
-60
-116
-135
-126
-112
-70
-20
7
37
85
134
190
238
262
290
334
362
377
402
435
462
478
482
488
510
537
553
565
581
600
623
650
667
678
686
683
690
726
752
746
743
751
759
775
782
762
769
822
836
797
810
875
871
811
826
892
877
803
757
698
578
466
394
312
245
267
324
321
275
225
176
139
100
44
6
-15
-51
-95
-192
-321
-365
-254
469
2152
3290
2032
-356
-1313
-1022
-967
-1120
-1043
-1002
-1081
-1098
-1101
-1156
-1207
-1263
-1362
-1463
-1518
-1551
-1605
-1645
-1638
-1611
-1570
-1478
-1352
-1244
-1170
-1088
-961
-831
-741
-674
-648
-685
-733
-793
-909
-1000
-1010
-1024
-1054
-1016
-940
-898
-855
-776
-701
-646
-594
-542
-482
-415
-360
-335
-321
-294
-257
-197
-113
-65
-58
-19
36
36
25
79
165
224
232
194
150
100
29
27
155
343
667
1332
2276
3330
4584
6067
7323
7762
7394
6807
6245
5473
4712
4444
4413
4078
3504
2897
2142
1183
157
-875
-1947
-3000
-3774
-3992
-3682
-3114
-2454
-1742
-1066
-554
-230
4
206
302
226
45
-126
-245
-365
-520
-666
-794
-924
-1014
-1083
-1182
-1263
-1351
-1513
-1609
-1551
-1120
232
1776
1374
-978
-2649
-2649
-2416
-2587
-2643
-2537
-2462
-2337
-2199
-2200
-2273
-2258
-2138
-1988
-1843
-1702
-1561
-1405
-1227
-1048
-867
-674
-492
-326
-152
22
178
312
411
475
537
587
572
503
428
352
271
203
137
78
71
112
156
211
286
338
353
376
425
474
510
539
563
586
612
640
661
670
673
684
701
716
723
721
719
725
732
733
739
744
734
721
716
701
677
663
649
619
577
524
471
444
409
323
236
211
213
192
172
174
178
164
140
110
81
65
66
68
70
74
72
62
38
-6
-33
-23
-23
-43
-45
-54
-104
-163
-212
-252
-268
-301
-350
-341
-359
-458
-452
-283
244
1672
3199
2740
490
-953
-839
-610
-743
-729
-608
-562
-498
-418
-353
-254
-157
-113
-81
-37
5
47
82
102
129
166
183
190
227
285
329
358
395
423
413
378
341
267
123
-49
-194
-314
-409
-455
-474
-507
-542
-550
-542
-538
-537
-526
-505
-491
-484
-468
-443
-429
-425
-419
-408
-397
-379
-356
-337
-322
-295
-262
-237
-213
-185
-164
-148
-122
-100
-101
-106
-94
-80
-79
-72
-55
-43
-28
-12
-9
-11
-4
-2
-15
-24
-16
-6
-3
1
8
12
18
24
24
26
31
25
16
26
43
50
58
75
80
57
19
-2
5
-2
-19
19
28
-58
-55
92
477
1692
3291
3211
1123
-512
-501
-159
-212
-214
-130
-142
-132
-91
-95
-90
-65
-69
-74
-54
-34
-17
10
44
79
115
163
223
289
358
429
493
537
557
555
529
470
371
240
99
-34
-145
-233
-306
-363
-395
-400
-392
-382
-372
-360
-344
-332
-334
-333
-313
-295
-295
-303
-305
-309
-315
-314
-312
-316
-314
-302
-293
-290
-277
-252
-239
-241
-233
-208
-194
-194
-186
-170
-157
-143
-126
-116
-105
-87
-77
-74
-58
-35
-21
-11
-1
11
25
30
25
41
85
118
130
154
192
211
201
177
165
187
213
215
235
253
219
221
347
768
1948
3510
3616
1646
-76
113
