# session 1
256
-280
1043
-107
-6099
-11293
-11524
-10198
-10376
-10716
-10207
-9357
-8276
-7118
-6275
-5667
-5063
-4467
-3946
-3476
-2948
-2378
-1898
-1419
-839
-129
1180
2968
3470
1907
366
438
1069
1242
1306
1466
1550
1604
1655
1646
1649
1702
1731
1679
1528
1274
943
526
7
-482
-768
-933
-1192
-1500
-1664
-1670
-1623
-1564
-1497
-1407
-1270
-1093
-932
-817
-732
-646
-565
-510
-477
-444
-397
-323
-233
-161
-113
-77
-54
-31
5
35
46
59
88
115
125
130
141
158
180
204
235
281
332
361
387
444
505
537
564
604
650
689
714
728
747
765
778
801
828
843
852
862
863
851
830
801
772
738
688
632
587
547
505
459
411
364
322
296
281
263
246
241
226
184
135
93
68
65
43
-2
-6
-18
-80
-44
82
370
1359
2657
2487
642
-751
-732
-420
-415
-385
-323
-344
-340
-312
-320
-320
-298
-279
-264
-247
-220
-181
-142
-102
-57
-12
38
93
134
158
177
181
164
137
89
11
-81
-175
-271
-355
-420
-473
-514
-540
-552
-550
-536
-523
-508
-486
-468
-460
-460
-464
-465
-459
-452
-456
-462
-463
-463
-462
-455
-443
-435
-427
-419
-412
-407
-399
-386
-378
-371
-354
-331
-315
-305
-295
-281
-263
-245
-235
-229
-216
-195
-174
-159
-146
-132
-119
-115
-121
-114
-90
-73
-65
-39
-1
20
20
8
-9
1
24
11
9
43
17
10
152
356
922
2187
2968
1865
18
-594
-230
-48
-47
46
75
50
84
110
98
111
148
180
207
240
281
324
362
397
433
472
515
558
589
599
600
596
578
534
464
376
281
191
105
28
-30
-67
-96
-114
-118
-113
-105
-95
-89
-94
-97
-96
-99
-110
-117
-122
-130
-140
-147
-157
-169
-173
-170
-174
-186
-195
-198
-196
-190
-187
-192
-196
-192
-189
-194
-199
-203
-214
-221
-215
-209
-213
-219
-215
-207
-204
-208
-212
-210
-205
-203
-207
-211
-218
-234
-247
-235
-212
-204
-195
-159
-127
-132
-161
-184
-180
-167
-181
-184
-146
-158
-194
-101
104
673
1999
3055
2194
182
-751
-453
-212
-240
-187
-154
-182
-161
-143
-150
-124
-92
-79
-52
-14
15
52
98
140
191
260
322
363
399
440
471
472
443
403
354
275
175
82
-4
-89
-155
-193
-219
-240
-249
-251
-246
-232
-220
-215
-206
-184
-168
-170
-177
-177
-173
-171
-171
-176
-184
-188
-185
-183
-181
-173
-168
-167
-160
-152
-147
-144
-142
-144
-143
-135
-125
-117
-112
-111
-111
-108
-104
-100
-96
-92
-92
-94
-90
-84
-86
-88
-85
-82
-82
-76
-72
-82
-97
-104
-99
-88
-79
-64
-36
-11
-10
-35
-68
-73
-56
-65
-70
-36
-53
-90
4
203
740
2004
3010
2165
214
-681
-383
-149
-181
-134
-110
-142
-108
-76
-88
-70
-31
-12
6
38
70
102
141
189
240
289
343
404
455
484
501
509
496
459
402
327
234
132
28
-60
-124
-173
-213
-235
-235
-227
-222
-221
-214
-203
-196
-196
-199
-209
-214
-210
-208
-213
-218
-224
-229
-229
-231
-237
-236
-232
-237
-244
-243
-238
-236
-235
-233
-225
-210
-199
-196
-195
-197
-195
-187
-181
-184
-185
-180
-178
-176
-166
-152
-148
-151
-156
-162
-166
-155
-141
-143
-142
-120
-97
-95
-122
-152
-147
-135
-146
-130
-114
-156
-113
45
274
1052
2364
2627
1063
-541
-738
-350
-244
-190
-83
-81
-97
-64
-48
-34
1
28
56
94
129
163
206
247
284
323
366
408
445
475
499
505
482
449
421
369
278
180
95
14
-56
-106
-146
-176
-180
-172
-169
-169
-157
-145
-147
-153
-149
-145
-155
-166
-170
-179
-189
-192
-196
-205
-206
-202
-203
-205
-202
-201
-201
-198
-195
-196
-198
-194
-188
-183
-180
-177
-171
-161
-157
-158
-156
-147
-140
-140
-139
-136
-137
-139
-133
-124
-120
-108
-75
-46
-46
-70
-99
-115
-107
-109
-116
-86
-85
-126
-55
123
557
1735
2974
2494
511
-704
-520
-211
-224
-182
-133
-169
-160
-132
-132
-104
-65
-49
-26
8
34
67
108
144
188
244
295
338
382
418
436
439
433
407
355
282
191
87
-12
-97
-164
-210
-239
-256
-263
-263
-258
-246
-234
-223
-210
-200
-198
-196
-193
-199
-210
-215
-214
-215
-218
-224
-227
-221
-213
-207
-205
-209
-212
-205
-197
-203
-208
-192
-174
-172
-170
-160
-155
-152
-143
-140
-143
-137
-121
-111
-109
-109
-110
-109
-105
-111
-121
-116
-99
-87
-72
-39
-13
-24
-61
-86
-81
-76
-90
-77
-49
-87
-90
46
282
979
2295
2882
1582
-211
-686
-307
-159
-167
-97
-91
-117
-87
-69
-66
-37
-13
-3
20
51
74
101
144
191
235
282
337
387
426
450
460
455
438
409
363
292
196
95
6
-67
-123
-163
-195
-217
-221
-213
-206
-199
-187
-176
-170
-166
-166
-171
-174
-176
-183
-195
-204
-204
-202
-207
-214
-210
-203
-206
-209
-206
-204
-202
-195
-189
-192
-193
-186
-178
-173
-169
-163
-160
-159
-159
-159
-155
-146
-136
-131
-135
-144
-143
-126
-115
-117
-102
-70
-56
-70
-98
-119
-114
-108
-124
-111
-89
-128
-100
52
269
998
2333
2758
1289
-426
-751
-370
-248
-213
-117
-122
-150
-118
-105
-103
-72
-40
-15
19
56
92
129
165
202
245
291
331
370
407
429
429
411
387
352
294
211
117
27
-60
-140
-198
-234
-256
-269
-270
-260
-247
-241
-234
-221
-208
-202
-204
-210
-212
-206
-204
-215
-223
-216
-211
-218
-223
-218
-211
-204
-196
-197
-197
-185
-170
-164
-160
-149
-141
-142
-139
-132
-128
-127
-125
-127
-131
-121
-100
-87
-80
-54
-24
-24
-54
-87
-93
-76
-82
-92
-60
-69
-109
-13
171
589
1748
2916
2338
372
-726
-486
-190
-195
-131
-76
-113
-104
-75
-81
-63
-23
-2
15
40
68
106
149
183
217
270
330
374
410
443
454
438
416
386
334
257
160
55
-37
-105
-154
-194
-229
-247
-244
-236
-231
-222
-211
-206
-201
-195
-200
-209
-211
-210
-213
-219
-226
-234
-240
-242
-241
-240
-235
-232
-232
-231
-228
-227
-223
-216
-213
-208
-194
-184
-187
-188
-182
-178
-174
-171
-169
-160
-145
-139
-139
-139
-147
-156
-149
-134
-123
-100
-68
-60
-73
-90
-108
-108
-96
-108
-102
-69
-102
-121
8
239
894
2232
2982
1789
-108
-719
-348
-168
-176
-107
-103
-133
-98
-80
-83
-52
-23
-14
11
49
78
109
151
197
243
291
341
389
430
456
464
458
442
413
361
285
193
98
11
-61
-119
-163
-193
-211
-219
-220
-214
-200
-185
-180
-177
-168
-167
-175
-175
-169
-175
-187
-193
-197
-202
-201
-199
-202
-204
-202
-205
-209
-208
-203
-199
-194
-188
-184
-184
-182
-172
-162
-158
-158
-154
-147
-144
-143
-140
-135
-129
-125
-121
-117
-113
-113
-121
-126
-118
-107
-100
-78
-42
-24
-35
-57
-82
-85
-67
-78
-87
-50
-60
-95
1
173
641
1878
2968
2216
245
-725
-449
-189
-193
-122
-80
-118
-106
-82
-82
-58
-29
-12
18
59
92
125
165
205
246
296
351
399
440
465
470
462
450
423
373
307
226
121
13
-68
-129
-184
-225
-246
-254
-253
-248
-240
-228
-219
-217
-217
-221
-230
-233
-231
-237
-248
-254
-258
-263
-265
-264
-266
-272
-277
-277
-272
-273
-283
-288
-277
-265
-261
-256
-254
-255
-248
-235
-225
-220
-214
-206
-194
-183
-176
-167
-157
-156
-163
-158
-139
-124
-115
-93
-59
-39
-48
-73
-88
-74
-61
-78
-68
-28
-61
-69
74
266
840
2162
2979
1833
-75
-706
-341
-161
-149
-46
-23
-57
-24
5
2
22
49
66
96
135
166
195
231
274
320
364
402
437
468
487
487
475
455
417
354
275
183
87
4
-63
-124
-177
-205
-210
-210
-209
-200
-186
-177
-176
-179
-178
-177
-184
-197
-205
-209
-215
-221
-217
-215
-227
-238
-231
-223
-227
-232
-233
-231
-226
-224
-223
-215
-208
-204
-193
-181
-180
-184
-181
-177
-175
-173
-164
-157
-158
-149
-132
-129
-136
-132
-124
-122
-122
-130
-148
-147
-122
-105
-99
-71
-35
-35
-65
-94
-106
-95
-91
-107
-88
-67
-116
-99
51
357
1304
2767
3012
1280
-443
-630
-234
-185
-193
-122
-137
-145
-103
-92
-81
-46
-24
-6
26
54
80
117
157
196
244
305
364
409
442
466
477
470
450
411
343
255
161
59
-39
-116
-176
-225
-253
-259
-259
-261
-258
-244
-228
-222
-222
-215
-201
-196
-197
-193
-185
-186
-194
-204
-207
-205
-206
-209
-213
-218
-215
-200
-191
-194
-195
-191
-184
-175
-170
-169
-167
-159
-151
-149
-147
-141
-135
-133
-134
-134
-132
-131
-129
-126
-122
-120
-118
-114
-112
-106
-97
-94
-93
-90
-95
-106
-100
-83
-75
-63
-25
2
-16
-50
-70
-77
-69
-63
-79
-64
-36
-84
-90
44
294
1090
2519
3032
1537
-300
-681
-273
-159
-174
-106
-112
-127
-83
-68
-69
-39
-13
6
36
67
98
138
180
224
273
326
382
437
476
501
517
519
509
483
426
339
238
134
33
-55
-120
-165
-199
-220
-226
-224
-214
-200
-197
-198
-185
-171
-174
-173
-154
-143
-152
-164
-167
-167
-169
-175
-184
-189
-185
-181
-185
-192
-194
-189
-183
-179
-175
-174
-178
-175
-163
-164
-176
-175
-168
-173
-177
-172
-164
-154
-147
-158
-171
-164
-156
-161
-167
-167
-167
-172
-191
-213
-207
-182
-178
-183
-171
-157
-157
-172
-202
-213
-188
-195
-221
-171
-146
-218
-154
58
360
1274
2539
2395
553
-820
-699
-283
-240
-199
-118
-117
-87
-41
-36
-5
37
40
56
105
135
161
207
237
262
318
367
397
450
501
507
506
512
484
429
375
305
215
126
45
-28
-85
-125
-151
-161
-163
-162
-158
-150
-136
-117
-114
-124
-122
-115
-130
-145
-139
-140
-166
-185
-183
-183
-194
-198
-188
-184
-194
-200
-190
-186
-195
-196
-186
-184
-191
-192
-188
-186
-185
-180
-174
-177
-192
-202
-192
-176
-169
-154
-126
-109
-116
-129
-139
-141
-135
-147
-157
-126
-131
-170
-92
83
518
1721
2987
2496
473
-760
-549
-218
-246
-211
-142
-160
-144
-113
-122
-101
-55
-38
-21
20
56
89
130
173
220
276
338
402
460
500
517
516
500
458
386
290
177
58
-50
-133
-198
-248
-280
-298
-312
-314
-304
-296
-290
-276
-252
-233
-224
-218
-212
-209
-206
-209
-218
-226
-225
-223
-227
-235
-236
-230
-228
-228
-221
-213
-212
-210
-205
-202
-195
-188
-190
-188
-178
-170
-164
-153
-147
-152
-153
-143
-134
-131
-135
-146
-152
-137
-118
-109
-93
-60
-41
-55
-80
-99
-101
-93
-100
-95
-60
-82
-120
-25
202
893
2417
3512
2427
196
-721
-333
-117
-212
-166
-115
-143
-123
-89
-79
-51
-27
-10
25
64
95
134
173
207
253
319
388
450
504
545
569
572
555
514
443
340
218
95
-18
-112
-184
-231
-264
-285
-293
-293
-295
-292
-278
-262
-253
-242
-229
-223
-222
-217
-209
-209
-215
-219
-222
-232
-242
-245
-245
-245
-245
-245
-244
-241
-239
-239
-233
-221
-209
-201
-197
-195
-193
-192
-187
-179
-173
-167
-162
-161
-159
-151
-141
-138
-136
-128
-121
-119
-117
-115
-116
-109
-100
-100
-103
-107
-122
-131
-112
-90
-87
-71
-30
-15
-39
-61
-73
-81
-63
-58
-83
-58
-32
-97
-88
89
505
1694
3296
3293
1203
-526
-523
-116
-167
-199
-122
-148
-154
-106
-101
-93
-53
-28
-8
24
58
93
135
179
227
276
329
396
464
513
545
567
566
540
496
426
320
195
78
-24
-109
-176
-225
-257
-271
-273
-276
-278
-266
-244
-236
-236
-224
-209
-205
-204
-203
-207
-209
-206
-209
-221
-228
-226
-224
-229
-234
-232
-230
-230
-226
-219
-217
-216
-210
-200
-193
-189
-186
-183
-180
-174
-170
-167
-159
-153
-154
-150
-138
-133
-135
-134
-132
-130
-125
-122
-122
-118
-113
-112
-110
-105
-103
-101
-96
-90
-85
-81
-76
-72
-78
-93
-94
-79
-69
-66
-43
-8
-2
-24
-45
-60
-59
-45
-57
-64
-26
-37
-93
-20
195
788
2166
3323
2489
354
-685
-369
-115
-187
-147
-98
-134
-117
-83
-83
-61
-25
-9
8
35
63
100
144
185
228
284
347
404
454
495
523
535
532
509
460
384
283
167
54
-42
-126
-197
-241
-260
-272
-279
-276
-268
-259
-245
-233
-232
-231
-222
-217
-219
-220
-216
-212
-214
-223
-229
-234
-237
-238
-240
-242
-240
-237
-232
-225
-220
-218
-211
-201
-198
-199
-196
-189
-182
-177
-174
-172
-168
-162
-159
-156
-147
-140
-141
-139
-130
-122
-122
-124
-119
-108
-99
-101
-105
-99
-98
-111
-118
-103
-86
-80
-63
-30
-11
-23
-53
-79
-72
-59
-74
-65
-42
-83
-67
77
293
1034
2448
2992
1526
-305
-699
-311
-198
-183
-80
-76
-98
-60
-51
-52
-17
11
27
61
99
129
162
199
235
276
321
370
423
470
500
512
508
490
459
409
330
228
121
27
-55
-124
-172
-205
-224
-229
-226
-222
-213
-201
-191
-181
-172
-175
-182
-182
-177
-180
-191
-202
-207
-210
-214
-217
-217
-215
-213
-212
-216
-218
-215
-211
-206
-200
-197
-197
-193
-187
-188
-187
-179
-174
-175
-174
-168
-164
-165
-165
-166
-169
-173
-176
-179
-176
-170
-169
-169
-162
-160
-174
-179
-161
-143
-132
-103
-68
-66
-93
-120
-130
-118
-115
-128
-104
-94
-157
-137
28
396
1490
3017
3066
1089
-628
-680
-254
-240
-248
-170
-191
-195
-153
-150
-140
-96
-69
-53
-24
7
45
94
141
191
252
315
377
436
489
527
543
537
513
469
404
313
202
87
-12
-93
-157
-200
-225
-234
-234
-235
-236
-228
-210
-194
-185
-175
-163
-154
-150
-146
-140
-139
-145
-148
-147
-152
-156
-150
-144
-142
-138
-132
-125
-121
-118
-114
-108
-101
-95
-90
-80
-67
-57
-51
-44
-41
-37
-27
-16
-11
-11
