# session 18
-1
-63
99
8
-637
-1221
-1239
-1048
-986
-920
-811
-747
-678
-587
-540
-505
-428
-352
-318
-301
-274
-243
-211
-172
-137
-118
-108
-100
-92
-77
-63
-56
-34
6
44
80
108
111
122
174
231
271
325
375
364
289
178
54
-17
-45
-144
-270
-309
-360
-415
-311
-80
590
2053
2968
1715
-397
-1067
-644
-491
-519
-376
-296
-295
-223
-147
-113
-76
-39
-18
-17
-42
-71
-104
-157
-207
-226
-228
-221
-185
-119
-46
21
84
144
194
222
219
186
127
43
-56
-152
-228
-267
-283
-290
-277
-252
-246
-230
-171
-121
-112
-93
-53
-42
-43
-8
28
25
25
54
73
62
57
71
81
76
71
73
71
59
49
55
64
60
50
49
55
62
63
54
46
48
50
47
55
63
58
57
72
81
71
64
71
73
61
53
60
67
65
61
66
78
90
94
86
52
-4
-23
-2
-21
-49
-26
-59
-121
-18
222
831
2153
3038
1919
-128
-877
-485
-284
-326
-253
-222
-259
-234
-203
-209
-210
-202
-193
-187
-180
-148
-106
-93
-87
-54
-7
46
111
172
230
293
342
365
382
392
371
319
247
150
24
-101
-190
-254
-315
-347
-329
-300
-285
-266
-241
-226
-212
-186
-159
-149
-156
-171
-194
-226
-243
-251
-284
-328
-344
-349
-371
-393
-405
-419
-426
-418
-416
-428
-439
-441
-443
-452
-461
-459
-447
-434
-423
-409
-399
-392
-383
-373
-367
-363
-353
-332
-300
-270
-244
-208
-172
-173
-198
-212
-201
-177
-172
-177
-137
-128
-204
-179
9
443
1657
3161
2966
868
-677
-604
-274
-344
-329
-230
-251
-244
-169
-133
-114
-83
-65
-41
4
46
76
122
193
270
336
402
484
578
679
787
882
942
985
1025
1039
1012
951
852
729
633
579
526
463
436
452
480
511
545
578
609
629
635
665
721
749
746
759
780
782
776
776
784
800
813
813
818
824
810
785
773
768
752
715
669
631
608
597
605
599
530
439
379
295
141
-76
-393
-788
-1150
-1520
-2059
-2799
-3635
-4437
-5223
-5986
-6217
-5483
-4462
-4081
-4120
-3909
-3443
-3003
-2567
-2045
-1593
-1305
-989
-573
69
1481
3142
3082
1160
-198
4
416
411
467
599
626
677
766
807
842
893
924
937
950
973
1014
1056
1063
1049
1056
1096
1153
1219
1283
1323
1343
1353
1335
1297
1272
1231
1120
969
839
722
589
467
384
321
256
197
163
154
153
150
148
143
125
100
83
72
58
42
21
3
0
-4
-19
-38
-53
-65
-75
-96
-125
-146
-160
-173
-174
-168
-167
-170
-176
-184
-188
-194
-207
-210
-207
-215
-230
-235
-232
-236
-255
-269
-261
-253
-269
-292
-299
-289
-270
-257
-246
-217
-190
-203
-231
-242
-256
-251
-227
-244
-242
-183
-214
-255
-122
162
1018
2644
3358
1778
-289
-714
-241
-161
-263
-227
-210
-189
-136
-140
-160
-155
-147
-127
-109
-118
-122
-123
-151
-169
-135
-66
23
116
196
275
357
416
449
475
478
437
360
251
109
-26
-118
-188
-256
-307
-341
-381
-414
-408
-380
-367
-364
-341
-300
-267
-242
-215
-194
-194
-206
-216
-219
-222
-231
-238
-231
-217
-214
-225
-256
-349
-548
-806
-991
-1033
-980
-898
-793
-654
-503
-355
-206
-75
20
109
208
287
347
415
483
538
589
620
650
699
682
556
424
322
186
71
58
70
25
-35
-76
-149
-248
-275
-241
-275
-338
-324
-345
-392
-258
36
815
2611
4059
2992
469
-623
-241
-89
-292
-308
-281
-273
-167
-82
-36
84
221
303
370
425
439
441
469
520
567
595
598
584
607
704
822
905
974
1058
1135
1178
1181
1142
1047
920
818
746
658
568
522
496
455
414
375
310
221
122
3
-134
-266
-415
-634
-936
-1304
-1732
-2147
-2457
-2695
-2915
-3032
-2985
-2867
-2756
-2621
-2436
-2226
-2023
-1823
-1608
-1401
-1240
-1100
-952
-814
-697
-589
-496
-416
-342
-281
-226
-169
-132
-116
-87
-56
-50
-47
-23
3
13
28
48
41
9
-9
-2
7
9
25
53
70
70
63
53
39
22
19
22
-1
-9
16
-15
-36
81
352
1186
2723
3422
1997
52
-420
-22
66
27
115
128
115
182
230
250
289
321
346
383
420
463
529
592
630
668
738
822
886
942
1028
1134
1221
1266
1277
1284
1290
1281
1263
1209
1068
891
774
720
703
724
750
759
783
825
858
887
928
982
1034
1060
1056
1059
1095
1147
1179
1179
1170
1165
1163
1176
1202
1215
1208
1212
1230
1237
1238
1263
1297
1301
1289
1302
1340
1374
1390
1391
1389
1392
1407
1430
1443
1441
1450
1479
1485
1458
1453
1477
1488
1489
1512
1553
1601
1661
1733
1818
1901
1888
1668
1182
355
-795
-2012
-3247
-4962
-7455
-10096
-11546
-11319
-11278
-13502
-16562
-17463
-16282
-14968
-13782
-12059
-10004
-8140
-6628
-5434
-4461
-3632
-2930
-2330
-1803
-1337
-922
-550
-212
107
402
668
922
1168
1395
1607
1805
1982
2133
2261
2368
2449
2492
2487
2451
2408
2369
2336
2313
2300
2296
2302
2318
2336
2353
2373
2396
2417
2440
2462
2475
2484
2496
2507
2515
2524
2531
2534
2536
2539
2541
2549
2561
2576
2590
2602
2617
2640
2661
2678
2697
2721
2745
2768
2794
2823
2853
2883
2912
2942
2973
3007
3042
3079
3116
3153
3190
3227
3261
3288
3327
3387
3447
3499
3562
3628
3665
3683
3706
3736
3783
3842
3872
3913
3994
4003
3976
4093
4386
5190
6765
7773
6672
4672
3958
4284
4379
4294
4379
4435
4425
4480
4528
4542
4579
4611
4629
4672
4693
4693
4731
4678
4473
4212
3223
198
-4892
-10286
-14304
-16914
-19247
-21858
-24081
-25304
-26087
-27255
-28174
-27614
-26391
-26165
-26206
-24939
-22771
-20663
-18621
-16579
-14508
-12234
-10032
-8259
-6746
-5406
-4401
-3684
-3217
-2987
-2589
-1756
-858
-224
285
912
1672
2344
2850
3439
4196
4890
5466
6040
6578
7056
7556
8047
8444
8777
9072
9280
9439
9584
9639
9669
9746
9656
9524
9571
8697
6059
3555
3026
3137
2420
1826
2238
3109
3973
4794
5444
5902
6274
6556
6743
6882
6982
7045
7100
7148
7172
7181
7191
7180
7119
7028
6933
6831
6745
6666
6548
6450
6385
6226
6055
6047
6217
7012
8593
9264
7623
5419
4758
4950
4814
4612
4559
4427
4298
4198
4054
3978
3850
3596
3502
3102
1140
-3077
-9160
-15013
-17714
-17292
-16485
-16026
-14809
-13197
-12144
-11605
-11478
-11918
-12770
-13462
-13330
-12426
-11465
-10618
-9599
-8599
-7799
-6887
-5739
-4583
-3512
-2491
-1548
-717
-16
533
926
1217
1490
1765
1999
2206
2385
2448
2467
2538
2317
1472
407
-326
-873
-1833
-3444
-4976
-5228
-4070
-2614
-1581
-802
-120
388
758
1065
1302
1471
1602
1692
1729
1738
1756
1766
1756
1738
1592
1198
798
725
885
1002
1062
1140
1196
1209
1210
1199
1170
1132
1090
1040
987
931
872
812
753
690
620
556
505
457
400
346
305
252
172
91
20
-45
-91
-140
-205
-224
-241
-350
-401
-285
73
1187
2755
2866
969
-710
-849
-586
-672
-697
-613
-630
-638
-582
-545
-520
-457
-419
-512
-610
-643
-1110
-2226
-3097
-3091
-2877
-3008
-3105
-2933
-2703
-2420
-1977
-1488
-1048
-639
-271
42
307
506
646
779
936
1111
1295
1484
1685
1902
2126
2345
2560
2776
2989
3196
3393
3578
3752
3920
4088
4257
4421
4580
4735
4888
5038
5186
5332
5475
5614
5749
5880
6009
6137
6263
6385
6501
6615
6724
6825
6923
7018
7106
7190
7267
7330
7393
7454
7486
7520
7570
7563
7529
7551
7502
7385
7381
7054
5889
4614
4158
4239
4351
4391
4221
4123
4299
4185
4019
4074
2057
-3427
-9454
-13568
-16848
-20477
-24353
-27637
-28827
-27948
-26885
-26317
-25611
-24814
-24185
-23541
-22865
-22271
-21679
-21054
-20486
-19968
-19388
-18775
-18238
-17443
-15751
-13183
-10586
-8685
-7500
-6580
-5520
-4316
-3163
-2033
-825
380
1466
2275
2559
2454
2517
2925
3410
3971
4816
5853
6853
7770
8610
9329
9944
10498
10967
11306
11529
11669
11739
11760
11752
11709
11619
11487
11334
11182
11042
10898
10730
10540
10346
10156
9962
9745
9496
9223
8933
8622
8292
7959
7632
7305
6967
6614
6259
5919
5599
5285
4969
4659
4359
4049
3730
3427
3147
2875
2605
2334
2054
1775
1506
1244
986
735
490
251
23
-198
-417
-632
-844
-1053
-1252
-1437
-1612
-1787
-1954
-2110
-2256
-2397
-2536
-2680
-2815
-2926
-3023
-3121
-3208
-3275
-3340
-3417
-3502
-3578
-3625
-3658
-3713
-3749
-3755
-3818
-3877
-3810
-3637
-3094
-1967
-1291
-2188
-3694
-4222
-3996
-3898
-3901
-3813
-3758
-3721
-3637
-3563
-3501
-3426
-3367
-3313
-3234
-3142
-3048
-2945
-2840
-2738
-2637
-2530
-2409
-2282
-2155
-2023
-1885
-1752
-1633
-1528
-1439
-1372
-1332
-1327
-1353
-1386
-1414
-1441
-1455
-1433
-1378
-1317
-1254
-1178
-1091
-1004
-917
-821
-716
-613
-511
-406
-304
-213
-129
-41
49
130
195
243
282
323
367
424
516
638
760
877
995
1104
1199
1291
1381
1465
1551
1644
1737
1827
1914
1998
2074
2144
2213
2278
2336
2394
2454
2508
2555
2594
2626
2663
2716
2766
2789
2788
2772
2750
2736
2730
2758
2861
2962
3028
3173
3299
3206
3132
3318
3772
4875
6346
6419
4644
3159
3149
3492
3466
3410
3392
3240
2943
2614
2403
2163
1632
965
363
-216
-653
-872
-1102
-1372
-1503
-1551
-1552
-1357
-991
-631
-317
-35
191
371
536
689
818
903
928
911
872
791
655
470
205
-157
-615
-1196
-1784
-2140
-2277
-2369
-2433
-2726
-3768
-5375
-6799
-7915
-8841
-9167
-8919
-8808
-8819
-8305
-7321
-6348
-5450
-4568
-3809
-3196
-2675
-2237
-1862
-1525
-1216
-941
-729
-565
-414
-397
-639
-1111
-1889
-2987
-3867
-4003
-3786
-3953
-4472
-4863
-5344
-6481
-7863
-8720
-9369
-10360
-11151
-11007
-10077
-8854
-7508
-6069
-4720
-3594
-2613
-1744
-1047
-479
22
506
1069
1705
2570
3966
5134
4693
3147
2407
2790
3250
3530
3913
4308
4628
4966
5301
5587
5844
6085
6312
6530
6736
6949
7178
7404
7624
7848
8071
8290
8511
8742
8969
9183
9394
9597
9779
9942
10091
10211
10297
10365
10428
10485
10545
10622
10714
10818
10940
11078
11222
11357
11482
11613
11737
11832
11928
12038
12115
12189
12290
12337
12399
12536
12535
12510
12666
12500
12163
12292
11631
9893
8838
4614
-8386
-23170
-28306
-26115
-24797
-24548
-23310
-22276
-21694
-20761
-19861
-19192
-18413
-17637
-16983
-16311
-15641
-15027
-14419
-13820
-13257
-12714
-12197
-11708
-11235
-10778
-10343
-9928
-9535
-9166
-8813
-8480
-8167
-7871
-7589
-7328
-7086
-6856
-6640
-6444
-6261
-6091
-5942
-5810
-5685
-5574
-5475
-5379
-5298
-5241
-5189
-5139
-5110
-5086
-5061
-5064
-5053
-5006
-5017
-4951
-4410
-3374
-2236
-1194
-187
814
1816
2822
3775
4646
5447
6162
6775
7306
7753
8069
8269
8439
8523
8395
8216
8240
8372
8425
8456
8527
8581
8617
8646
8621
8579
8590
8612
8558
8437
8311
8199
8069
7900
7709
7521
7336
7132
6897
6632
6357
6099
5874
5664
5449
5229
5016
4813
4623
4446
4264
4050
3816
3588
3362
3119
2873
2655
2460
2266
2072
1885
1701
1528
1375
1233
1088
942
789
626
466
318
178
48
-63
-161
-256
-353
-458
-561
-646
-729
-824
-910
-981
-1045
-1087
-1123
-1181
-1208
-1177
-1073
-735
-254
-196
-728
-1220
-1292
-1243
-1289
-1335
-1339
-1323
-1294
-1286
-1293
-1279
-1264
-1289
-1345
-1401
-1440
-1464
-1482
-1485
-1459
-1414
-1365
-1310
-1257
-1213
-1159
-1095
-1046
-1032
-1091
-1248
-1468
-1768
-2248
-2943
-3822
-4818
-5695
-6260
-6711
-7266
-7747
-7988
-8132
-8357
-8759
-9245
-9461
-9278
-9019
-8864
-8642
-8300
-7966
-7664
-7363
-7091
-6846
-6584
-6302
-6020
-5733
-5426
-5085
-4706
-4333
-3986
-3615
-3184
-2741
-2355
-2037
-1751
-1468
-1174
-869
-552
-224
121
488
868
1245
1607
1957
2296
2629
2966
3299
3606
3883
4145
4410
4684
4943
5175
5418
5689
5937
6132
6303
6453
6563
6647
6713
6760
6813
6868
6880
6873
6873
6830
6777
6776
6836
7200
7981
8359
7589
6445
5995
6027
5955
5818
5741
5649
5552
5481
5406
5330
5259
5175
5076
4976
4876
4779
4688
4598
4490
4346
4179
3996
3758
3444
3085
2656
2121
1550
971
269
-554
-1348
-2088
-2805
-3387
-3795
-4193
-4616
-4876
-4886
-4741
-4515
-4243
-3951
-3610
-3219
-2836
-2469
-2179
-2057
-1961
-1855
-2032
-2393
-2775
-3916
-5969
-7357
-7275
-6874
-6884
-6879
-6707
-6511
-6248
-6050
-6045
-6013
-5795
-5499
-5179
-4817
-4467
-4175
-3917
-3650
-3370
-3131
-2961
-2809
-2629
-2427
-2209
-1973
-1736
-1535
-1401
-1304
-1157
-920
-659
-456
-309
-179
-70
-1
31
35
66
176
313
391
462
612
822
1037
1237
1404
1511
1560
1605
1662
1645
1528
1443
1467
1496
1463
1435
1460
1482
1430
1342
1331
1408
1454
1426
1403
1394
1332
1219
1089
928
735
542
360
197
87
47
54
75
80
66
60
62
51
26
1
-21
-31
-26
-34
-68
-113
-174
-252
-305
-325
-366
-432
-455
-403
-323
-267
-243
-222
-182
-130
-84
-59
-66
-92
-100
-76
-31
50
187
365
562
765
950
1106
1244
1360
1436
1470
1481
1488
1502
1530
1583
1660
1702
1690
1707
1801
1927
2078
2276
2480
2664
2851
3049
3267
3529
3819
4114
4433
4801
5211
5614
5963
6303
6718
7224
7822
8517
9234
9910
10558
11190
11829
12492
13183
14076
15096
15430
14566
13235
12226
11368
10194
8590
6825
5011
2482
-1235
-5628
-10592
-16398
-21995
-26454
-30584
-34275
-35698
-34836
-33612
-32700
-31709
-30665
-29410
-27696
-25808
-23730
-21158
-18486
-16166
-13985
-11855
-10004
-8370
-6714
-4866
-2741
-554
1374
3089
4829
6668
8560
10384
11980
13290
14363
15340
16414
17521
18326
18814
19279
19597
19436
18992
18678
18560
18410
17940
17372
16976
15242
10173
3264
-1647
-3421
-3809
-4019
-4135
-4239
-4394
-4509
-4541
-4414
-4077
-3666
-3344
-3129
-2930
-2635
-2262
-2000
-1974
-2093
-2246
-2445
-2713
-2970
-3116
-3152
-3165
-3232
-3388
-3628
-3891
-4119
-4347
-4602
-4792
-4824
-4730
-4619
-4595
-4636
-4615
-4521
-4404
-4183
-3898
-3785
-3804
-3657
-3292
-2843
-2360
-1882
-1391
-774
-103
438
941
1573
2199
2672
3078
3473
3853
4343
4972
5540
5946
6278
6498
6532
6485
6352
5933
5210
4255
3165
2436
2369
2332
1886
1625
1860
2103
2203
2356
2319
1924
1648
1841
2211
2437
2569
2608
2332
1799
1461
1495
1587
1550
1505
1496
1457
1386
1295
1171
1002
781
520
199
-222
-636
-936
-1252
-1675
-2061
-2328
-2516
-2629
-2695
-2768
-2867
-3112
-3624
-4155
-4354
-4349
-4442
-4516
-4318
-3899
-3418
-2943
-2541
-2285
-2202
-2271
-2365
-2355
-2319
-2320
-2222
-1981
-1677
-1299
-822
94
1830
3264
2652
767
-93
233
444
382
462
548
541
573
651
