# session 8
42
6
88
74
-196
-156
535
817
-88
-1063
-1058
-649
-497
-439
-353
-338
-339
-314
-306
-292
-257
-246
-241
-205
-163
-140
-114
-66
-3
56
97
126
153
163
146
115
92
61
0
-66
-102
-134
-190
-235
-233
-198
-149
-100
-69
-58
-54
-47
-43
-47
-51
-48
-50
-69
-93
-105
-103
-92
-66
-40
-38
-53
-63
-63
-60
-65
-59
-36
-34
-35
-2
-37
0
555
1224
882
-247
-747
-409
-127
-102
-43
5
-11
-1
21
44
90
109
89
84
97
105
118
142
172
210
249
277
290
287
269
238
200
161
124
87
48
9
-28
-55
-67
-69
-64
-53
-40
-33
-33
-34
-34
-37
-44
-52
-56
-57
-64
-85
-108
-116
-104
-72
-33
-22
-43
-65
-73
-76
-81
-88
-81
-68
-77
-70
-62
-99
124
790
1081
310
-617
-666
-285
-161
-155
-94
-81
-89
-61
-51
-56
-42
-30
-24
-7
14
33
57
85
115
148
180
204
218
219
204
178
149
117
80
42
4
-31
-60
-77
-83
-81
-74
-64
-56
-54
-56
-57
-60
-65
-70
-73
-76
-77
-80
-88
-91
-87
-93
-112
-128
-126
-97
-54
-28
-36
-58
-71
-72
-76
-87
-80
-63
-73
-67
-48
-92
73
725
1122
436
-562
-711
-325
-165
-156
-91
-70
-83
-61
-48
-52
-40
-26
-17
0
20
38
60
86
114
144
177
205
218
217
208
191
169
142
110
77
40
1
-31
-46
-48
-41
-31
-22
-17
-19
-25
-27
-23
-23
-28
-30
-31
-34
-37
-40
-40
-40
-49
-64
-73
-75
-63
-30
1
1
-19
-29
-27
-30
-44
-44
-29
-45
-47
-6
-48
19
614
1177
647
-484
-835
-441
-188
-152
-75
-37
-58
-40
-23
-31
-21
-1
6
18
40
63
88
114
142
182
226
256
271
275
266
242
219
193
153
102
50
3
-36
-64
-80
-85
-83
-85
-90
-89
-89
-95
-96
-95
-106
-121
-122
-122
-134
-145
-148
-156
-165
-160
-136
-104
-86
-93
-116
-132
-125
-119
-129
-117
-97
-110
-92
-79
-130
149
893
1083
121
-819
-759
-340
-207
-153
-63
-53
-54
-18
-10
-17
-4
13
32
59
80
96
121
158
196
235
270
296
309
304
281
247
213
177
136
92
48
4
-32
-51
-56
-59
-61
-56
-52
-54
-58
-61
-65
-70
-76
-84
-90
-95
-101
-103
-110
-137
-169
-174
-153
-118
-76
-50
-53
-62
-66
-77
-94
-95
-71
-69
-84
-57
-69
-65
372
1054
909
-145
-791
-541
-209
-165
-132
-73
-73
-70
-53
-47
-25
8
28
42
62
83
94
111
158
205
224
251
294
292
254
247
248
216
176
140
95
53
17
-14
-21
-19
-41
-52
-24
-4
-13
-22
-25
-38
-49
-50
-50
-53
-53
-55
-66
-85
-95
-83
-46
-12
-7
-24
-40
-61
-80
-82
-78
-74
-65
-81
-95
-93
-135
22
666
1104
459
-555
-724
-326
-168
-184
-124
-88
-93
-76
-63
-58
-43
-35
-30
-5
24
36
47
78
120
153
182
214
231
223
207
191
165
124
88
62
20
-32
-61
-69
-77
-76
-65
-68
-77
-73
-75
-89
-89
-78
-87
-107
-111
-107
-115
-131
-148
-165
-171
-155
-119
-83
-75
-99
-121
-127
-132
-138
-129
-115
-121
-123
-90
-119
-133
302
999
889
-146
-808
-574
-238
-194
-163
-105
-109
-102
-70
-68
-62
-32
-8
1
18
45
74
105
144
180
202
221
245
265
269
259
244
224
194
163
133
98
64
49
49
48
53
65
70
68
65
62
61
61
56
50
45
34
24
25
21
5
-6
6
45
69
41
-5
-21
-24
-45
-67
-60
-47
-76
-91
-48
-85
-50
514
1133
675
-509
-968
-586
-280
-227
-161
-125
-130
-95
-80
-106
-106
-74
-41
-21
-18
-6
32
76
109
133
158
195
233
243
223
200
183
154
112
73
40
-5
-60
-92
-97
-99
-106
-99
-84
-80
-83
-77
-71
-79
-90
-95
-99
-110
-127
-146
-152
-141
-128
-113
-90
-76
-87
-101
-95
-96
-123
-120
-81
-84
-95
-76
-133
-27
625
1155
555
-546
-817
-419
-205
-186
-116
-87
-102
-75
-53
-56
-41
-24
-15
8
42
70
99
134
168
203
244
280
297
292
277
258
234
205
171
130
84
42
7
-13
-17
-14
-14
-14
-8
-2
-4
-10
-16
-21
-25
-27
-33
-52
-75
-90
-92
-76
-40
-9
-9
-29
-48
-59
-64
-71
-75
-64
-68
-72
-42
-75
-67
414
1086
873
-183
-761
-497
-206
-181
-146
-94
-100
-93
-72
-73
-69
-57
-49
-37
-20
-4
16
42
68
97
130
159
179
184
176
162
144
122
96
67
28
-12
-40
-64
-104
-138
-137
-116
-101
-92
-83
-77
-74
-72
-71
-73
-76
-81
-85
-89
-97
-96
-68
-23
2
-8
-30
-43
-45
-52
-65
-55
-36
-51
-43
-19
-80
95
800
1199
428
-624
-750
-339
-169
-137
-52
-35
-56
-36
-26
-29
-7
13
19
30
53
79
103
129
164
204
241
273
292
292
278
252
222
192
160
120
73
20
-29
-57
-63
-62
-64
-67
-69
-71
-75
-81
-90
-100
-105
-110
-126
-149
-157
-143
-118
-101
-100
-111
-128
-145
-152
-157
-165
-152
-138
-155
-130
-107
-178
47
784
1064
167
-822
-821
-388
-232
-184
-98
-84
-82
-44
-35
-33
-10
5
18
47
71
89
118
162
204
240
276
310
326
319
300
275
248
217
176
129
85
44
7
-11
-14
-15
-14
-11
-8
-6
-9
-18
-22
-22
-26
-32
-41
-57
-74
-83
-82
-64
-31
-16
-35
-57
-64
-66
-73
-81
-71
-62
-80
-69
-61
-114
127
844
1116
261
-694
-704
-304
-185
-170
-99
-91
-104
-78
-68
-72
-60
-48
-35
-17
-5
6
30
60
90
121
150
171
181
177
161
139
111
79
44
7
-32
-70
-103
-120
-123
-118
-114
-113
-109
-99
-93
-95
-99
-102
-106
-110
-115
-128
-146
-159
-150
-115
-75
-63
-75
-82
-86
-94
-97
-101
-94
-72
-75
-75
-46
-75
64
705
1199
606
-447
-695
-306
-96
-87
-35
-1
4
31
47
54
70
74
71
90
120
140
165
206
244
267
285
311
338
347
330
293
257
225
185
139
94
43
-11
-48
-63
-66
-69
-72
-75
-83
-97
-109
-117
-128
-143
-156
-163
-173
-189
-202
-202
-184
-155
-134
-133
-142
-149
-147
-136
-138
-145
-122
-109
-106
-69
-98
-88
424
1114
834
-297
-853
-529
-213
-166
-97
-36
-47
-31
0
-2
1
19
35
55
78
94
112
138
168
199
230
258
275
275
259
232
200
165
128
91
50
4
-42
-76
-94
-101
-102
-101
-97
-92
-89
-88
-87
-88
-94
-101
-105
-108
-116
-128
-143
-155
-156
-141
-108
-76
-71
-90
-108
-115
-114
-116
-119
-105
-95
-102
-75
-73
-100
244
962
1043
85
-714
-576
-199
-122
-99
-34
-34
-36
-8
-2
-3
10
18
27
45
65
82
101
123
151
185
217
238
241
233
220
204
181
151
119
84
43
5
-22
-39
-47
-46
-42
-37
-32
-27
-25
-25
-28
-33
-38
-43
-47
-50
-52
-52
-54
-66
-87
-103
-101
-76
-36
-8
-12
-31
-44
-48
-50
-60
-66
-54
-59
-63
-38
-72
-3
551
1123
699
-369
-768
-420
-172
-160
-110
-71
-84
-68
-51
-56
-47
-31
-23
-10
7
22
40
67
95
123
151
177
195
199
192
179
162
138
107
72
36
-3
-40
-69
-83
-82
-72
-65
-62
-58
-55
-57
-63
-64
-64
-69
-77
-81
-85
-90
-91
-89
-87
-86
-89
-97
-108
-115
-112
-84
-42
-20
-32
-51
-59
-58
-62
-71
-61
-46
-60
-46
-29
-81
140
840
1132
300
-667
-700
-294
-157
-136
-64
-50
-58
-32
-23
-26
-12
1
11
26
43
68
99
124
149
188
227
247
256
262
258
246
232
208
172
131
91
46
5
-19
-29
-34
-35
-33
-32
-37
-44
-50
-51
-51
-56
-65
-72
-78
-83
-85
-92
-112
-131
-136
-134
-114
-73
-53
-70
-90
-97
-101
-105
-111
-106
-91
-104
-99
-65
-115
10
672
1143
445
-683
-908
-474
-244
-197
-104
-67
-79
-56
-40
-41
-26
-12
0
22
41
59
93
130
162
203
251
285
298
302
298
281
254
219
180
139
96
53
14
-17
-33
-34
-32
-32
-30
-24
-25
-30
-32
-34
-42
-51
-59
-65
-69
-72
-76
-77
-82
-100
-121
-130
-129
-108
-67
-42
-51
-70
-78
-80
-84
-91
-85
-71
-81
-73
-57
-103
78
736
1088
347
-645
-748
-343
-181
-164
-94
-74
-81
-53
-41
-47
-34
-20
-12
4
22
38
60
86
114
143
172
200
222
230
221
205
183
158
130
96
55
17
-15
-41
-55
-55
-51
-47
-42
-36
-38
-43
-43
-40
-40
-46
-52
-59
-65
-68
-70
-81
-97
-107
-103
-78
-37
-12
-21
-45
-56
-57
-57
-67
-67
-52
-59
-62
-35
-71
5
570
1122
665
-399
-766
-408
-165
-153
-102
-65
-76
-57
-36
-38
-28
-13
-5
7
25
44
64
86
111
140
170
198
218
225
217
199
177
151
118
81
44
9
-28
-60
-75
-77
-76
-71
-64
-60
-58
-57
-59
-63
-67
-73
-78
-82
-86
-89
-93
-95
-95
-98
-112
-129
-133
-108
-63
-28
-27
-46
-63
-65
-62
-70
-69
-48
-52
-53
-26
-68
14
606
1163
671
-414
-768
-405
-166
-144
-85
-49
-58
-41
-30
-35
-21
-1
10
25
44
63
85
109
137
168
197
227
257
267
259
250
233
200
168
141
106
61
16
-25
-47
-50
-44
-37
-30
-29
-38
-45
-45
-43
-47
-55
-60
-62
-67
-75
-82
-98
-121
-129
-106
-67
-47
-59
-81
-97
-99
-98
-109
-110
-92
-103
-105
-67
-115
-29
611
1165
556
-619
-940
-513
-255
-221
-140
-90
-94
-73
-58
-65
-53
-34
-26
-11
12
32
58
91
127
168
214
250
273
287
284
265
235
199
157
115
75
27
-25
-61
-77
-83
-84
-77
-69
-61
-53
-51
-54
-57
-62
-64
-64
-69
-75
-79
-88
-103
-112
-107
-83
-48
-30
-42
-58
-62
-64
-72
-82
-75
-59
-70
-59
-35
-88
87
773
1162
403
-646
-778
-361
-181
-148
-65
-40
-48
-18
-4
-9
6
21
28
44
62
78
101
130
158
190
223
250
268
276
269
246
216
185
149
107
61
17
-19
-45
-61
-69
-68
-62
-58
-56
-52
-49
-51
-57
-61
-65
-70
-78
-90
-105
-121
-132
-129
-103
-65
-46
-59
-81
-93
-96
-96
-103
-103
-89
-94
-96
-72
-109
-24
549
1097
628
-436
-792
-426
-184
-173
-123
-88
-98
-77
-57
-59
-48
-34
-27
-12
5
20
42
70
96
125
160
196
222
232
225
208
188
162
129
93
55
16
-19
-44
-58
-66
-67
-64
-58
-51
-47
-43
-40
-43
-48
-52
-56
-63
-67
-69
-78
-94
-108
-109
-87
-44
-17
-28
-50
-62
-68
-69
-75
-76
-62
-62
-63
-37
-74
-29
509
1133
786
-293
-765
-442
-174
-158
-112
-67
-81
-69
-46
-48
-43
-31
-25
-13
9
30
51
73
97
127
162
190
211
222
219
205
186
164
133
98
63
26
-10
-38
-56
-64
-64
-55
-44
-35
-30
-30
-32
-33
-38
-44
-45
-46
-48
-48
-55
-76
-89
-81
-55
-19
10
6
-20
-39
-40
-37
-45
-40
-20
-32
-34
9
-29
46
655
1227
693
-452
-812
-416
-161
-136
-75
-43
-59
-37
-16
-23
-22
-18
-21
-9
18
41
60
79
103
138
174
201
216
224
218
200
178
152
112
66
23
-20
-65
-105
-131
-144
-143
-132
-126
-127
-123
-119
-126
-133
-128
-120
-119
-122
-125
-136
-153
-168
-173
-160
-125
-93
-94
-111
-124
-130
-129
-128
-131
-114
-103
-110
-73
-71
-120
239
999
1025
-47
-862
-661
-267
-197
-143
-44
-40
-46
-16
-11
-10
10
23
32
53
74
95
126
161
190
224
263
295
314
318
304
280
258
231
188
141
105
72
38
14
6
6
5
5
6
5
1
-1
-1
-2
-7
-15
-22
-27
-32
-37
-43
-53
-69
-84
-88
-76
-42
-5
1
-21
-41
-49
-55
-64
-72
-61
-57
-71
-51
-55
-80
269
970
1000
7
-786
-636
-262
-181
-156
-102
-109
-105
-73
-70
-72
-58
-50
-41
-21
2
23
44
66
91
121
151
174
185
186
180
166
145
122
94
58
16
-24
-59
-86
-102
-105
-103
-101
-98
-93
-90
-90
-88
-89
-92
-93
-95
-103
-110
-114
-117
-119
-126
-142
-157
-152
-120
-73
-47
-60
-85
-94
-91
-90
-97
-94
-77
-81
-80
-54
-96
-17
567
1137
682
-389
-764
-411
-165
-142
-86
-47
-56
-36
-14
-12
3
20
29
45
64
78
98
123
150
181
218
253
277
286
287
282
266
242
212
176
138
104
67
31
8
-1
-6
-5
-1
-2
-5
-3
-3
-9
-14
-15
-21
-32
-43
-52
-59
-65
-70
-78
-92
-107
-106
-78
-40
-20
-28
-49
-67
-75
-74
-80
-79
-61
-60
-63
-43
-90
-29
543
1133
688
-428
-850
-491
-223
-192
-124
-74
-85
-71
-54
-54
-33
-13
-13
-2
24
43
65
96
124
151
192
238
267
277
276
266
250
227
195
152
106
63
20
-21
-53
-73
-77
-74
-71
-67
-63
-68
-79
-85
-90
-98
-103
-104
-111
-124
-137
-149
-162
-170
-155
-120
-104
-121
-144
-156
-157
-154
-160
-160
-143
-155
-160
-121
-162
-99
505
1098
574
-591
-971
-571
-296
-247
-163
-124
-143
-118
-92
-89
-72
-52
-45
-29
-3
21
47
76
109
146
187
231
268
289
293
282
258
232
206
173
130
87
50
21
1
-5
0
6
13
23
31
35
40
47
48
43
40
46
51
49
