# session 1
286
1157
-1548
724
11621
19659
18519
15965
16372
16290
15241
14903
14532
13782
13319
12891
12280
11764
11287
10763
10319
9925
9500
9086
8683
8252
7818
7405
6989
6558
6129
5666
5121
4544
4021
3548
3094
2667
2268
1876
1491
1128
781
438
109
-174
-392
-572
-750
-915
-1046
-1145
-1213
-1270
-1343
-1423
-1494
-1551
-1606
-1686
-1729
-1720
-1836
-1902
-1448
-954
-1437
-2484
-2854
-2566
-2388
-2397
-2370
-2351
-2364
-2356
-2357
-2364
-2308
-2197
-2097
-2005
-1895
-1798
-1741
-1669
-1554
-1461
-1390
-1263
-1117
-1047
-1020
-988
-993
-1038
-1050
-1020
-1002
-1004
-982
-939
-941
-997
-1046
-1073
-1119
-1189
-1256
-1314
-1360
-1395
-1440
-1498
-1536
-1538
-1553
-1582
-1550
-1476
-1457
-1420
-1331
-1386
-1372
-783
-178
-587
-1469
-1587
-1129
-871
-761
-585
-463
-381
-242
-104
-4
103
219
307
354
390
370
160
-196
-427
-421
-365
-370
-315
-126
100
276
385
440
506
488
94
-593
-1035
-1063
-1056
-1206
-1328
-1322
-1256
-1155
-1079
-1112
-1050
-591
103
622
906
1117
1272
1375
1467
1503
1513
1607
1615
1411
1526
2203
2447
1656
913
1074
1484
1574
1617
1718
1711
1667
1658
1620
1611
1693
1757
1749
1746
1731
1637
1509
1385
1244
1139
1113
1084
1004
938
890
793
642
497
382
265
129
-9
-135
-262
-394
-532
-697
-857
-908
-837
-748
-615
-317
89
432
633
717
794
949
1093
1112
1014
841
586
309
271
611
737
-23
-1111
-1502
-1319
-1244
-1317
-1360
-1456
-1594
-1622
-1532
-1450
-1468
-1514
-1467
-1383
-1399
-1444
-1391
-1287
-1219
-1178
-1147
-1148
-1179
-1179
-1093
-1054
-1266
-1562
-1493
-1006
-506
-223
-56
106
266
417
572
737
876
932
940
987
1102
1242
1362
1453
1500
1457
1353
1244
1031
678
409
254
59
130
673
949
503
192
649
1280
1579
1800
2040
1927
1313
547
-4
-320
-537
-694
-790
-843
-852
-812
-755
-711
-673
-631
-581
-515
-436
-382
-403
-474
-462
-334
-264
-352
-478
-561
-642
-695
-688
-694
-771
-873
-940
-968
-985
-991
-980
-968
-955
-925
-893
-850
-783
-740
-685
-581
-598
-641
-178
571
443
-680
-1253
-167
1780
2786
2161
1319
1655
2259
1895
1291
1221
1056
550
230
116
26
18
-69
-208
-18
352
555
841
1250
1291
1000
823
727
512
289
155
47
-62
-155
-231
-305
-387
-478
-600
-781
-966
-1079
-1132
-1198
-1307
-1424
-1509
-1572
-1619
-1626
-1631
-1650
-1656
-1764
-1870
-1479
-855
-1045
-1909
-2313
-2203
-1991
-1229
120
1197
1744
2145
2410
2418
2325
2295
2337
2416
2554
2700
2694
2716
2986
2853
1804
696
200
-163
-567
-887
-1294
-1217
-152
757
666
390
301
-160
-883
-1348
-1559
-1649
-1601
-1575
-1731
-1729
-1138
-215
577
1201
1356
487
-940
-1596
-919
290
852
593
523
1135
1412
686
-33
88
491
653
755
858
849
790
733
651
534
374
260
317
474
626
838
1062
1136
1159
1192
990
586
262
-220
-1118
-2005
-2554
-2952
-3265
-3498
-3716
-3582
-3006
-2588
-2275
-1423
-478
-230
-260
21
417
715
946
1071
1127
1212
1320
1437
1541
1571
1619
1772
1840
1872
2318
2939
2839
2081
1648
1893
2354
2384
1600
407
-463
-978
-1437
-1776
-1975
-2228
-2464
-2564
-2732
-2902
-2670
-2355
-2485
-2368
-1252
146
978
1409
1692
1823
1899
1994
2123
2248
2280
2353
2576
2799
3154
3604
3405
2537
1870
1319
409
-342
-643
-974
-1349
-1562
-1781
-1867
-1615
-1500
-1817
-2092
-2150
-2331
-2420
-1912
-1335
-1730
-2816
-3292
-2903
-2520
-2465
-2418
-2383
-2487
-2562
-2541
-2516
-2472
-2420
-2408
-2380
-2346
-2329
-2264
-2219
-2134
-1521
-301
816
1457
1941
2352
2597
2880
3025
2517
1802
1682
1698
1304
1357
2359
3165
2976
2471
2232
2161
2337
2586
2136
1106
748
1437
2213
2398
2129
1634
1022
487
102
-286
-552
-309
82
-338
-1422
-1987
-1786
-1572
-1587
-1532
-1341
-1135
-1010
-973
-898
-725
-543
-317
30
333
498
722
970
1036
1246
1881
2359
2286
2186
2385
2536
2381
2058
1946
2263
2514
2025
1042
265
-215
-599
-856
-1029
-1270
-1517
-1643
-1682
-1686
-1658
-1625
-1602
-1571
-1541
-1534
-1512
-1420
-1302
-1226
-1181
-1191
-1148
-673
34
-22
-918
-1449
-1201
-920
-880
-793
-669
-624
-601
-567
-523
-462
-413
-371
-306
-229
-151
-70
3
72
149
216
260
295
306
284
284
316
324
314
313
301
311
398
499
550
589
619
611
604
615
639
704
739
621
429
297
160
-51
-223
-299
-343
-355
-321
-293
-270
-263
-256
70
772
998
261
-491
-465
-151
-46
26
143
187
211
276
342
407
481
515
518
590
729
800
784
804
876
932
983
1029
1012
952
912
900
906
911
874
807
762
723
667
614
574
542
514
466
406
360
289
180
92
42
-13
-86
-207
-384
-530
-602
-661
-715
-745
-790
-861
-967
-1111
-1024
-537
-307
-986
-1918
-2174
-1993
-1970
-2062
-2097
-2128
-2167
-2204
-2261
-2295
-2284
-2288
-2328
-2363
-2359
-2321
-2290
-2279
-2271
-2295
-2351
-2375
-2429
-2558
-2583
-2594
-2798
-2804
-2694
-3181
-2929
173
4344
6163
6030
6067
6177
5725
5177
4793
4439
4196
3942
3442
2928
2682
2531
2271
1987
1772
1599
1459
1337
1166
988
898
831
929
1484
1911
1330
322
-77
-142
-326
-328
-161
-149
-185
-133
-103
-88
-39
-25
-68
-129
-189
-235
-274
-329
-378
-414
-481
-605
-750
-877
-971
-1051
-1144
-1231
-1280
-1314
-1357
-1395
-1441
-1508
-1551
-1551
-1541
-1508
-1431
-1358
-1289
-1180
-1091
-1063
-987
-820
-668
-566
-464
-372
-301
-209
-130
-103
-35
22
-49
153
857
1144
370
-446
-382
-22
31
32
147
222
255
279
222
93
-24
-116
-193
-224
-213
-224
-239
-186
-112
-91
-69
-11
20
35
79
116
121
122
125
158
248
342
415
527
694
855
985
1091
1134
1075
967
890
826
737
668
665
671
638
608
601
589
599
652
697
751
848
883
985
1509
2057
1730
826
508
878
1229
1379
1412
1214
852
497
170
-18
79
300
256
-197
-640
-557
-155
-36
-174
-121
128
282
280
153
-171
-647
-1047
-1263
-1446
-1687
-1826
-1820
-1857
-1920
-1853
-1757
-1672
-1385
-974
-794
-851
-802
-491
-102
208
432
513
507
636
718
323
-284
-475
-342
-312
-425
-715
-1089
-986
-632
-1153
-2372
-2880
-2499
-2128
-1980
-1826
-1737
-1731
-1703
-1676
-1664
-1623
-1563
-1483
-1409
-1393
-1286
-903
-428
-156
-37
130
381
634
805
919
1076
1251
1346
1391
1458
1530
1580
1621
1653
1674
1683
1659
1600
1521
1435
1368
1326
1290
1276
1307
1333
1306
1253
1210
1158
1106
1153
1298
1257
843
329
107
271
377
-316
-1598
-2211
-1970
-1911
-1912
-1012
350
1032
827
72
-763
-1008
-389
789
1803
1754
989
932
1327
854
279
773
1182
525
-79
179
680
870
731
393
127
144
447
961
1428
1423
847
45
-530
-480
129
597
602
553
441
-99
-657
-715
-716
-1051
-1177
-710
-165
14
73
215
192
42
258
671
370
-729
-1656
-1873
-1610
-1158
-780
-621
-538
-535
-770
-1088
-1277
-1315
-1100
-689
-511
-690
-859
-847
-832
-945
-1128
-1196
-1077
-984
-1025
-966
-683
-424
-435
-629
-719
-636
-645
-911
-1178
-1092
-689
-289
-55
93
253
435
596
723
879
1070
1211
1290
1376
1463
1521
1594
1682
1733
1781
1808
1731
1873
2538
2970
2327
1348
1137
1429
1576
1632
1729
1789
1812
1841
1912
1899
1486
731
100
-256
-534
-772
-912
-1029
-1169
-1281
-1384
-1515
-1590
-1637
-1818
-1934
-1679
-1361
-1381
-1542
-1634
-1775
-1943
-2031
-2103
-2184
-2227
-2278
-2362
-2404
-2399
-2414
-2426
-2374
-2327
-2362
-2402
-2375
-2364
-2383
-2348
-2338
-2363
-2291
-2290
-2123
-773
1367
2437
2480
2762
2694
1842
1679
2512
3032
3056
3143
3116
2852
2747
2901
2835
2185
1266
611
292
74
-163
-350
-464
-682
-880
-608
-86
17
-328
-704
-614
357
1703
2475
2723
2929
3007
2935
2942
3012
3122
3249
3005
2194
1302
757
434
145
-80
-227
-370
-506
-591
-659
-704
-715
-857
-1012
-621
94
35
-830
-1393
-1297
-972
-644
-504
-641
-757
-736
-786
-894
-914
-878
-854
-820
-753
-697
-662
-540
-319
-159
-76
36
145
238
343
317
41
-618
-1945
-3591
-4574
-4662
-4418
-3998
-3203
-2249
-1541
-1025
-469
-31
191
474
722
623
543
824
1148
1480
1825
1358
-117
-1271
-1375
-1033
-324
1000
1959
1589
756
786
1509
2035
2290
2480
2333
2078
2386
2905
3093
3410
3835
3778
3707
4106
4425
4354
3735
2066
-193
-1875
-2762
-3150
-3083
-2803
-2512
-2039
-1478
-1143
-904
-535
-163
121
416
756
1096
1260
946
296
-90
-70
65
321
568
311
-344
-1054
-2047
-2954
-3130
-3614
-5171
-5895
-4302
-1626
524
1300
498
-596
-584
37
324
458
695
469
-865
-2992
-4731
-5319
-5076
-4510
-3734
-3044
-2719
-2285
-1449
-928
-874
-378
531
860
615
623
1034
1186
588
-149
49
1065
1983
2642
3147
2983
2049
1261
1246
1578
1680
1496
1158
864
895
1155
1264
1295
1476
1566
1405
1265
1187
1052
1349
2396
3073
2327
1219
1223
1899
2069
1433
519
384
1415
2450
2436
1538
212
-938
-1282
-1169
-1380
-1902
-2356
-2580
-2390
-1811
-1219
-800
-511
-353
-212
-30
-34
-198
-207
-24
262
621
809
659
370
214
407
943
1335
1209
1040
1342
1384
298
-908
-751
-27
-437
-1589
-2097
-2057
-1977
-1310
-149
67
-917
-1645
-1555
-1399
-1398
-1363
-1470
-1580
-1406
-1336
-1470
-1266
-1033
-1409
-1563
-418
1381
2498
2587
2311
2467
2984
3067
2606
2284
2273
2196
2015
1867
1660
1412
1333
1421
1482
1464
1431
1433
1539
1682
1642
1466
1360
1053
249
-514
-716
-661
-374
90
-112
247
2679
1758
-7539
-16447
-14933
-9505
-9200
-9292
-4415
476
1136
258
277
572
721
879
699
431
1107
2239
2208
1394
949
63
-1685
-2992
-3462
-3939
-5902
-10093
-11923
-5578
4135
6989
3449
1207
1651
1700
1197
1411
2160
2807
3120
3143
3118
3174
3171
3073
3075
3139
3009
2824
2939
3230
3306
3220
3310
3434
3328
3549
4206
3658
1270
-543
-80
1016
1670
3311
5506
5763
4987
5552
5384
2153
-1372
-2630
-2998
-3506
-3533
-3221
-3092
-3008
-2626
-1869
-1130
-705
-387
-471
-1599
-3193
-4062
-4080
-3742
-3240
-2629
-1825
-874
-497
-1087
-1797
-1976
-2044
-2221
-2148
-1787
-1442
-1271
-1224
-1163
-1074
-1142
-1378
-1442
-1223
-1010
-559
675
1920
1791
694
286
959
1736
1945
1712
1321
866
403
36
-185
-182
350
1571
3004
3918
3934
2995
1226
-855
-2321
-2581
-2210
-2103
-2120
-1887
-1769
-1835
-1603
-1088
-456
388
1018
934
357
-567
-1752
-2444
-2347
-2172
-2124
-1754
-1080
-423
-41
-111
-301
-112
334
734
1119
1642
2506
3455
3459
2278
1282
1342
1687
1709
1798
2045
1929
1292
486
-112
-284
-126
101
452
981
1274
1115
882
832
829
729
593
622
691
465
343
823
1116
447
-426
-798
-1080
-1402
-1425
-1309
-1308
-1320
-1288
-1149
-932
-973
-1112
-670
152
586
734
1014
1185
903
38
-1196
-1658
-479
1117
1354
462
-322
-690
-876
-929
-862
-715
-568
-468
-341
-224
-170
-12
212
200
36
34
-2
-425
-932
-1012
-779
-619
-538
-402
-260
-158
-89
-60
9
95
89
160
218
-103
-34
1390
2970
2994
1894
737
-471
-1635
-2149
-2024
-1838
-1713
-1311
-786
-738
-862
-21
1606
2258
1356
432
438
452
-137
-658
-833
-1037
-1113
-818
-372
190
692
540
-12
-113
-3
-284
-505
-214
149
205
155
241
355
277
127
129
194
247
326
276
44
-157
-225
-133
82
214
281
395
323
103
248
702
832
594
541
789
908
778
742
1118
2056
2917
2236
26
-1674
-1945
-1824
-1883
-1805
-1556
-1350
-1246
-973
-166
879
1423
1356
1136
905
497
26
-257
-456
-585
-241
465
758
457
123
14
-49
-170
-289
-353
-335
-189
12
112
164
284
355
289
217
235
239
73
-222
-482
-622
-565
-401
-455
-511
30
710
434
-561
-1047
-763
-430
-314
-203
-275
-663
-839
-482
37
352
263
-287
-857
-1028
-997
-1022
-1010
-804
-387
3
81
-60
-154
-186
-231
-228
-184
-256
-347
-69
398
365
-23
-20
350
703
1041
1140
758
390
375
284
80
216
487
453
323
342
515
1012
1564
1303
296
-312
-225
-163
-207
-2
107
-137
-254
-127
-158
-267
-182
-140
-222
-46
324
478
622
1014
1237
1229
1594
2147
2078
1538
1214
928
200
-680
-1153
-1189
-1120
-1153
-1188
-1008
-636
-318
-188
-142
-77
-65
-165
-317
-521
-738
-785
-814
-1072
-993
-19
926
615
-460
-1042
-1041
-940
-687
-346
-319
-435
-303
-131
-102
22
204
225
163
74
-49
-14
163
198
142
283
559
593
309
121
173
96
-85
-75
-79
-162
-14
155
95
183
377
201
44
413
682
338
-18
7
-18
-243
-435
-657
-792
-286
597
663
-213
-668
-154
259
-71
-495
-547
-510
-517
-415
-257
-185
-214
-336
-454
-325
55
289
196
133
301
356
95
-130
-53
122
208
286
383
422
423
417
379
352
330
252
189
148
59
110
389
537
429
367
370
246
60
-36
126
639
947
355
-669
-1024
-617
-212
-198
-395
-495
-318
-50
-14
-83
-1
17
-158
-182
-24
-68
-310
-441
-439
-460
-460
-271
22
143
82
-35
-262
-519
-593
-586
-649
-653
-572
-496
-290
37
148
7
-71
48
258
310
102
16
234
265
56
337
1083
1215
423
-296
-289
-9
39
-71
-97
-6
65
96
181
171
-57
-129
189
561
805
1049
1185
1102
998
987
965
911
883
859
793
708
638
532
309
45
-93
-123
-187
-238
-189
-157
-242
-361
-454
-539
-581
-560
-537
-480
-337
-236
7
758
1286
528
-708
-967
-623
-609
-711
-630
-615
-696
-715
-718
-730
-693
-612
-517
-434
-378
-295
-171
-114
-154
-168
-51
119
164
98
148
358
481
371
180
63
-7
-34
101
346
460
448
531
679
653
441
239
99
-60
-183
-281
-399
-89
812
1121
66
-1108
-1296
-1119
-1164
-1134
-948
-822
-763
-732
-718
-660
-562
-444
-324
-301
-352
-340
-296
-237
-53
130
187
450
1056
1426
1158
575
22
-443
-685
-626
-466
-377
-316
-203
-49
87
196
325
446
489
462
438
434
342
254
669
1539
1735
783
-148
-209
45
141
262
387
330
192
142
205
315
362
316
248
