# session 9
-4
-27
40
16
-220
-435
-436
-365
-352
-337
-296
-264
-233
-195
-159
-117
-73
-35
2
37
54
51
47
45
29
-3
-34
-61
-89
-110
-119
-123
-121
-108
-90
-83
-77
-63
-51
-50
-50
-45
-45
-52
-55
-56
-64
-74
-79
-70
-38
-1
5
-12
-25
-33
-36
-33
-35
-26
-14
-30
-17
-8
-65
192
934
1172
241
-733
-705
-282
-155
-127
-49
-40
-49
-25
-16
-9
10
14
15
33
54
74
100
123
144
180
224
254
268
272
264
248
227
196
158
121
78
26
-21
-50
-67
-74
-71
-70
-72
-69
-63
-65
-69
-71
-72
-70
-69
-78
-90
-100
-105
-101
-75
-39
-31
-52
-71
-80
-82
-86
-95
-84
-69
-78
-57
-42
-107
125
854
1135
261
-712
-722
-315
-187
-158
-79
-71
-78
-43
-31
-34
-18
-6
2
21
39
54
74
101
130
163
198
226
244
248
240
220
191
160
128
90
51
16
-15
-42
-59
-62
-59
-55
-53
-54
-56
-55
-54
-58
-62
-66
-71
-75
-80
-94
-115
-127
-121
-96
-58
-37
-50
-71
-80
-87
-91
-94
-89
-76
-82
-79
-56
-95
13
619
1160
658
-405
-738
-383
-170
-166
-115
-82
-94
-71
-50
-53
-43
-29
-23
-10
8
22
41
68
96
123
149
175
196
205
203
194
179
154
125
94
62
27
-4
-32
-51
-56
-49
-44
-43
-43
-41
-40
-40
-42
-43
-45
-48
-52
-58
-72
-92
-106
-108
-91
-53
-18
-20
-44
-59
-65
-70
-77
-80
-68
-65
-73
-52
-73
-73
364
1067
967
-74
-754
-534
-210
-172
-141
-86
-97
-95
-67
-67
-66
-51
-41
-32
-18
-6
7
26
51
79
109
137
161
175
174
162
146
125
99
69
35
-1
-41
-77
-93
-96
-98
-98
-91
-82
-74
-65
-59
-62
-67
-68
-65
-65
-69
-77
-87
-97
-102
-93
-59
-17
-5
-23
-41
-51
-50
-48
-55
-50
-39
-53
-34
16
21
294
1020
1302
438
-541
-559
-154
-39
-26
42
30
-5
13
17
0
-3
1
7
21
27
32
51
80
110
140
170
196
213
219
214
197
173
145
113
81
48
4
-42
-73
-89
-98
-96
-82
-71
-67
-61
-46
-25
-10
-15
-36
-53
-63
-83
-112
-135
-142
-131
-104
-86
-98
-122
-134
-135
-135
-142
-139
-122
-132
-131
-96
-140
-56
553
1097
547
-559
-863
-452
-210
-192
-126
-89
-102
-77
-55
-60
-50
-32
-22
-8
9
26
47
74
102
131
161
191
213
221
216
202
185
162
134
102
69
33
-3
-33
-51
-60
-62
-61
-56
-54
-54
-54
-57
-62
-67
-71
-76
-78
-80
-91
-107
-119
-123
-104
-61
-33
-44
-66
-73
-72
-70
-75
-73
-59
-64
-60
-22
-53
30
630
1235
786
-320
-727
-379
-134
-115
-63
-30
-44
-23
5
11
18
22
26
40
58
74
95
119
142
166
193
225
252
262
258
248
229
198
165
130
90
49
7
-32
-54
-61
-66
-68
-66
-65
-64
-61
-61
-71
-86
-96
-99
-106
-123
-136
-136
-122
-99
-83
-90
-108
-123
-133
-136
-136
-138
-130
-130
-138
-106
-126
-152
275
997
870
-244
-938
-662
-290
-221
-156
-78
-86
-79
-45
-39
-34
-19
-11
3
24
44
70
101
128
160
202
241
268
287
292
280
257
227
193
158
117
72
34
4
-20
-33
-36
-36
-37
-35
-31
-29
-26
-25
-29
-37
-45
-49
-54
-70
-94
-109
-105
-86
-56
-36
-43
-62
-71
-73
-76
-84
-83
-72
-77
-72
-53
-89
55
685
1151
538
-513
-740
-342
-159
-170
-113
-83
-99
-79
-63
-65
-51
-38
-37
-25
-4
14
34
60
90
122
152
179
196
200
194
179
153
121
90
59
26
-7
-37
-57
-68
-70
-66
-61
-56
-50
-46
-46
-49
-47
-46
-53
-60
-61
-72
-93
-104
-103
-91
-60
-31
-35
-59
-71
-70
-70
-77
-77
-63
-64
-66
-43
-76
-25
512
1153
833
-257
-753
-423
-147
-146
-108
-60
-76
-66
-42
-44
-37
-20
-17
-8
13
31
48
71
99
129
160
189
210
215
206
189
165
139
113
82
47
14
-13
-38
-57
-61
-55
-49
-46
-42
-38
-36
-37
-40
-42
-43
-47
-54
-60
-69
-85
-101
-108
-104
-80
-43
-27
-40
-60
-70
-70
-76
-83
-72
-68
-79
-54
-63
-95
277
1018
1048
19
-774
-593
-217
-159
-137
-77
-87
-88
-57
-54
-54
-39
-31
-21
-2
12
27
51
78
104
136
166
188
202
205
192
174
157
133
101
70
41
7
-26
-47
-57
-57
-51
-48
-46
-42
-40
-43
-42
-39
-43
-53
-57
-57
-61
-76
-92
-100
-95
-72
-36
-19
-31
-51
-58
-57
-62
-67
-52
-47
-60
-32
-43
-90
280
1053
1114
80
-741
-579
-206
-148
-123
-57
-65
-68
-36
-34
-35
-15
-6
-2
12
27
42
65
88
111
139
169
191
202
201
192
177
161
141
112
76
39
-1
-39
-64
-71
-72
-71
-68
-66
-68
-72
-76
-82
-87
-88
-89
-95
-102
-108
-120
-134
-144
-143
-119
-75
-53
-69
-92
-102
-101
-102
-107
-95
-87
-104
-82
-68
-141
90
839
1137
264
-713
-724
-320
-195
-171
-96
-86
-90
-60
-54
-53
-28
-14
-10
8
30
53
79
101
123
158
194
224
246
257
255
252
244
225
201
173
134
88
46
12
-7
-5
-1
-8
-10
-3
1
-7
-16
-16
-16
-22
-31
-41
-53
-67
-79
-81
-58
-21
-11
-33
-54
-66
-73
-83
-91
-74
-61
-88
-75
-52
-124
84
819
1105
191
-828
-843
-417
-256
-192
-99
-93
-101
-67
-62
-72
-58
-38
-23
-9
1
19
43
68
101
150
198
225
239
255
263
249
220
197
171
124
68
23
-14
-53
-76
-75
-71
-80
-84
-83
-85
-73
-47
-47
-69
-74
-66
-72
-83
-91
-98
-85
-42
-19
-45
-78
-73
-51
-57
-83
-75
-50
-65
-54
-29
-120
-8
677
1124
386
-696
-841
-401
-211
-181
-85
-53
-75
-50
-25
-28
-25
-11
4
19
39
69
95
109
129
158
184
215
248
265
260
239
204
166
136
101
59
18
-20
-53
-68
-67
-69
-73
-66
-50
-42
-40
-35
-31
-39
-52
-55
-60
-76
-87
-82
-64
-41
-38
-59
-77
-83
-90
-99
-104
-94
-89
-107
-101
-106
-146
142
869
1072
166
-729
-655
-253
-167
-155
-84
-82
-85
-49
-44
-44
-20
-8
-3
11
20
36
73
102
117
145
181
201
213
223
209
174
145
119
88
65
40
-3
-40
-54
-61
-59
-48
-47
-56
-51
-43
-55
-62
-49
-41
-49
-62
-82
-103
-109
-96
-72
-42
-30
-47
-74
-92
-96
-88
-85
-78
-75
-90
-77
-79
-121
176
908
1089
158
-723
-617
-214
-153
-152
-71
-67
-82
-52
-41
-39
-17
-6
-8
9
30
38
55
88
115
135
166
201
212
202
201
200
171
132
111
87
50
23
2
-34
-51
-33
-20
-25
-23
-15
-16
-13
-4
-6
-12
-13
-18
-28
-39
-57
-74
-61
-16
18
13
-5
-15
-24
-40
-56
-58
-42
-42
-64
-44
-41
-98
190
936
1134
209
-685
-611
-227
-155
-147
-78
-80
-96
-73
-63
-59
-52
-62
-60
-34
-14
-6
5
14
29
65
105
118
107
104
111
104
82
65
48
18
-23
-60
-88
-110
-120
-113
-108
-122
-125
-98
-80
-90
-98
-94
-93
-97
-92
-82
-87
-111
-126
-119
-96
-64
-38
-38
-47
-48
-49
-45
-49
-61
-49
-44
-59
-19
-11
-69
266
1022
1092
52
-803
-657
-249
-141
-97
-26
-29
-26
20
31
14
14
30
40
43
66
109
129
128
143
176
214
253
278
282
271
244
215
205
198
163
109
66
20
-33
-57
-41
-32
-47
-61
-60
-50
-45
-54
-68
-64
-46
-48
-84
-117
-118
-103
-80
-50
-41
-65
-92
-107
-112
-118
-117
-99
-100
-106
-54
-75
-139
281
1045
934
-212
-935
-668
-295
-216
-133
-46
-53
-51
-25
-23
-14
-3
-4
18
53
60
64
91
124
159
195
216
235
265
280
261
227
199
175
141
92
39
-6
-39
-61
-82
-97
-91
-81
-81
-76
-69
-75
-80
-73
-74
-83
-88
-97
-118
-140
-142
-110
-69
-62
-86
-105
-113
-114
-117
-127
-121
-104
-115
-110
-88
-134
25
700
1154
473
-593
-778
-357
-168
-169
-116
-92
-87
-50
-46
-68
-56
-29
-17
-9
4
22
44
73
105
132
161
198
223
227
231
227
194
147
117
93
59
25
-6
-35
-54
-55
-54
-55
-48
-43
-44
-36
-26
-31
-38
-37
-41
-52
-64
-82
-95
-73
-30
-9
-17
-30
-47
-68
-70
-60
-51
-44
-55
-60
-21
-41
-41
413
1097
927
-141
-758
-470
-140
-123
-95
-26
-24
-18
5
4
10
28
37
46
58
76
107
129
128
145
187
217
235
260
259
220
190
176
146
107
75
44
18
-18
-75
-106
-87
-77
-101
-124
-132
-136
-131
-127
-138
-153
-154
-144
-145
-159
-170
-171
-172
-161
-134
-109
-100
-109
-137
-145
-121
-135
-168
-139
-112
-128
-101
-119
-128
367
1115
900
-251
-845
-509
-191
-166
-98
-40
-77
-62
-3
-8
-35
-12
22
20
19
56
93
100
108
136
179
216
229
235
250
245
208
176
155
128
96
68
36
2
-13
-11
-16
-22
-19
-22
-26
-10
2
-11
-23
-33
-42
-30
-27
-59
-83
-76
-79
-84
-51
-10
-16
-45
-53
-50
-70
-94
-75
-45
-62
-58
-34
-106
52
776
1207
419
-676
-793
-343
-172
-170
-103
-80
-86
-58
-48
-59
-59
-49
-23
3
10
28
62
78
90
129
165
176
196
222
217
191
177
165
127
72
37
32
24
-15
-58
-60
-29
-11
-19
-29
-26
-22
-37
-53
-39
-23
-44
-60
-52
-73
-112
-112
-86
-68
-53
-48
-63
-82
-81
-73
-85
-98
-86
-91
-93
-54
-109
-123
422
1148
827
-366
-909
-531
-202
-179
-134
-85
-100
-92
-71
-64
-40
-20
-29
-35
-15
10
21
32
66
115
147
158
175
189
180
172
175
163
140
117
79
31
2
-19
-49
-64
-56
-49
-54
-51
-40
-38
-41
-35
-33
-54
-70
-52
-35
-59
-89
-84
-68
-64
-39
-3
-13
-56
-61
-50
-88
-108
-61
-44
-54
-48
-117
2
690
1192
483
-657
-841
-366
-159
-163
-84
-41
-59
-37
-8
-9
-11
-7
16
59
81
81
92
116
145
179
206
232
264
267
246
248
255
231
196
167
130
88
57
29
-6
-27
-19
-20
-42
-45
-30
-30
-39
-50
-65
-68
-72
-103
-130
-121
-106
-103
-87
-57
-45
-67
-103
-120
-109
-98
-91
-96
-125
-106
-52
-139
-114
519
1136
595
-561
-900
-491
-240
-208
-141
-119
-131
-94
-82
-102
-83
-57
-62
-61
-29
2
8
16
52
91
104
111
133
152
156
155
153
143
130
113
88
53
15
-23
-53
-70
-72
-57
-38
-34
-35
-29
-31
-51
-53
-31
-29
-50
-69
-82
-72
-23
15
3
-15
-24
-41
-50
-51
-59
-54
-54
-45
2
-49
-85
413
1123
835
-335
-902
-551
-215
-160
-86
-33
-62
-44
15
28
13
19
36
33
29
65
112
122
125
153
181
198
221
245
258
255
242
223
196
163
129
95
50
-2
-36
-42
-45
-57
-63
-68
-74
-65
-48
-51
-73
-95
-111
-120
-114
-87
-53
-44
-71
-101
-111
-112
-128
-149
-134
-111
-125
-106
-79
-164
-2
705
1058
221
-833
-920
-477
-265
-195
-105
-84
-86
-57
-43
-39
-31
-29
-13
18
31
48
88
116
126
155
195
226
252
269
266
258
249
224
191
161
118
64
22
-5
-30
-47
-48
-45
-40
-33
-33
-42
-44
-34
-34
-54
-77
-79
-59
-32
-11
-15
-43
-71
-76
-68
-71
-81
-77
-77
-79
-70
-127
-106
419
1092
810
-281
-794
-465
-179
-165
-117
-73
-92
-73
-46
-59
-56
-27
-14
-13
-5
18
47
64
73
99
141
171
180
189
197
188
167
141
109
88
81
57
13
-19
-37
-60
-76
-68
-52
-48
-49
-48
-46
-47
-65
-98
-113
-104
-82
-50
-27
-37
-66
-92
-114
-120
-114
-105
-97
-109
-114
-87
-145
-170
315
1026
848
-193
-769
-516
-237
-204
-153
-112
-142
-137
-100
-87
-83
-83
-84
-62
-37
-32
-19
8
23
37
73
115
141
145
136
137
142
119
84
78
77
37
-12
-30
-31
-38
-45
-46
-49
-45
-34
-34
-38
-30
-25
-33
-50
-67
-63
-22
22
28
6
-16
-31
-34
-34
-48
-49
-29
-33
-26
-4
-80
8
659
1200
606
-493
-760
-351
-128
-103
-33
-4
-18
12
40
42
46
52
60
77
94
113
137
155
177
208
231
249
277
295
287
274
271
246
176
101
62
39
-1
-38
-54
-62
-65
-56
-54
-71
-86
-86
-89
-97
-100
-106
-124
-137
-125
-94
-70
-69
-87
-113
-126
-126
-135
-145
-132
-132
-139
-105
-131
-149
303
1002
823
-266
-888
-603
-259
-189
-119
-49
-52
-35
-4
-4
1
20
32
47
67
84
106
133
159
189
227
267
298
317
325
318
295
266
235
197
153
110
67
25
-6
-25
-37
-45
-50
-55
-58
-62
-68
-73
-76
-82
-100
-121
-137
-142
-128
-102
-96
-125
-159
-175
-181
-196
-209
-202
-200
-217
-207
-222
-265
63
796
929
-10
-859
-771
-402
-330
-318
-254
-250
-251
-220
-215
-218
-200
-183
-170
-151
-132
-115
-93
-66
-36
-3
30
62
84
96
98
93
82
67
46
21
-5
-31
-53
-67
-74
-72
-60
-43
-27
-8
15
40
57
70
89
110
117
113
119
137
168
218
266
283
282
291
312
333
345
365
407
430
446
491
489
650
1335
1856
1198
193
84
