# session 2
-52
-164
217
-143
-1716
-2830
-2637
-2265
-2269
-2135
-1882
-1810
-1755
-1594
-1459
-1382
-1297
-1164
-1010
-932
-949
-1002
-1060
-1053
-929
-824
-868
-948
-923
-856
-823
-768
-703
-718
-733
-622
-573
-684
-400
479
878
144
-622
-511
-129
-31
25
133
138
116
157
195
202
228
267
273
249
231
218
204
190
150
72
2
-31
-41
-43
-35
-13
25
66
75
42
14
36
78
92
71
31
12
46
72
92
189
226
155
513
1391
1641
712
-179
-137
207
295
321
360
329
320
363
393
420
422
355
307
318
289
269
397
562
556
433
359
356
358
340
330
339
315
222
101
-3
-73
-103
-130
-184
-232
-230
-177
-127
-190
-299
-245
-183
-329
-114
778
1129
143
-854
-755
-325
-258
-236
-132
-135
-164
-143
-165
-212
-205
-184
-203
-239
-262
-271
-271
-250
-220
-197
-156
-81
-3
58
99
67
-12
-5
64
26
-80
-73
40
142
187
164
132
155
148
90
83
36
24
479
1088
843
-74
-486
-249
-35
24
66
13
-107
-174
-213
-292
-398
-445
-393
-327
-324
-347
-356
-353
-323
-259
-222
-239
-232
-171
-118
-75
-11
11
-6
38
67
-30
-92
51
231
205
46
-1
71
95
107
124
32
215
1052
1598
858
-236
-424
-119
-72
-130
-107
-118
-125
-75
-39
-31
-23
-21
-25
-22
-19
-19
-17
-6
10
20
23
17
9
47
122
146
133
174
201
109
-21
-82
-80
-31
25
21
-1
-6
-45
-42
17
-42
39
622
983
292
-654
-751
-377
-262
-275
-187
-120
-121
-135
-162
-169
-113
-74
-140
-254
-322
-356
-370
-311
-205
-159
-167
-134
-61
-2
30
36
31
50
76
66
62
97
129
137
146
135
111
111
108
104
103
-23
-89
380
975
659
-309
-713
-454
-242
-181
-99
-82
-104
-60
-29
-54
-50
-3
23
11
4
32
58
49
45
91
142
170
208
272
334
369
346
276
218
187
171
193
257
313
306
233
185
210
229
225
210
75
15
433
854
391
-513
-758
-436
-240
-211
-170
-161
-166
-147
-160
-206
-231
-237
-251
-268
-273
-288
-344
-406
-392
-301
-204
-150
-123
-66
38
127
152
141
115
59
20
53
96
78
28
-6
11
65
86
84
56
-101
-107
443
918
390
-541
-708
-332
-183
-217
-177
-148
-163
-142
-111
-126
-155
-143
-114
-130
-160
-135
-97
-85
-37
27
7
-25
47
149
193
210
221
208
183
174
189
185
138
105
113
145
208
254
227
195
152
136
466
1018
926
61
-530
-367
-42
56
39
-29
-111
-135
-136
-158
-195
-246
-284
-280
-249
-213
-202
-227
-235
-206
-195
-190
-126
-21
73
139
165
158
166
195
184
139
131
137
98
59
67
54
21
75
107
-79
-96
515
1010
431
-511
-611
-195
-63
-99
-45
-35
-90
-117
-118
-103
-93
-109
-114
-97
-67
9
74
46
33
121
176
134
122
175
209
221
237
220
158
78
17
39
124
111
-12
-74
-111
-266
-376
-314
-367
-486
-80
579
339
-699
-1189
-861
-569
-556
-547
-554
-600
-548
-452
-423
-392
-309
-257
-222
-111
6
13
-6
51
127
167
226
326
394
403
425
489
518
486
438
384
329
308
302
245
154
92
38
-25
-41
-95
-226
-18
642
841
117
-534
-426
-138
-89
-63
-11
-17
-7
40
63
52
19
12
73
145
178
211
254
263
247
260
321
394
435
476
549
585
535
468
440
430
417
388
313
189
70
5
-30
-38
15
-11
-173
-33
529
630
-161
-876
-812
-485
-372
-348
-338
-375
-394
-386
-380
-336
-289
-322
-372
-343
-280
-273
-309
-310
-246
-197
-210
-209
-133
-6
97
103
40
-3
-32
-75
-83
-61
-89
-175
-238
-254
-283
-296
-222
-243
-349
25
756
639
-405
-917
-511
-173
-177
-126
-69
-117
-105
-42
-47
-70
-56
-35
15
98
147
153
170
182
165
190
292
383
419
450
473
447
400
363
334
318
285
221
177
108
-46
-179
-180
-83
-29
-130
-111
410
896
421
-578
-888
-493
-219
-247
-271
-216
-179
-212
-253
-178
-39
-29
-119
-111
-10
74
146
206
195
166
216
326
421
469
492
515
504
430
348
284
196
114
91
58
-48
-135
-146
-155
-143
-128
-271
-269
383
1012
502
-548
-795
-419
-254
-273
-248
-272
-300
-242
-176
-141
-101
-69
-43
1
45
62
71
83
92
115
148
167
187
223
256
285
302
268
200
144
69
-47
-139
-173
-169
-137
-119
-127
-119
-184
-295
-54
467
338
-622
-1240
-963
-557
-471
-401
-298
-322
-323
-212
-175
-240
-237
-160
-96
-29
47
67
42
79
182
215
170
218
352
379
309
288
283
198
99
62
38
-19
-89
-142
-143
-104
-98
-90
-91
-243
-229
415
963
422
-491
-579
-161
8
-11
1
30
43
15
26
149
220
148
94
116
117
127
220
319
332
313
353
443
512
533
535
536
489
344
185
128
115
36
-76
-136
-125
-97
-120
-122
-78
-191
-257
250
785
272
-753
-968
-554
-381
-388
-281
-213
-220
-192
-201
-228
-141
-60
-83
-16
121
84
3
77
152
181
265
285
251
357
437
279
93
20
-66
-153
-189
-241
-284
-294
-355
-461
-556
-612
-557
-530
-659
-378
540
864
-88
-961
-797
-381
-281
-213
-106
-56
10
84
123
136
123
167
280
323
309
349
351
278
294
347
290
307
499
580
484
437
397
237
109
97
83
49
31
-19
-106
-187
-214
-148
-164
-383
-286
403
683
-156
-1040
-942
-469
-344
-303
-117
-74
-212
-223
-101
-91
-128
-43
33
27
97
220
234
183
187
241
281
283
272
286
289
225
125
50
-16
-82
-103
-94
-128
-198
-216
-201
-207
-150
-105
-306
-325
426
1078
479
-517
-604
-243
-173
-109
79
118
82
93
66
36
43
27
30
93
121
105
113
130
133
162
215
246
248
226
176
120
80
81
123
133
57
-55
-161
-248
-268
-263
-301
-292
-303
-518
-489
227
745
132
-755
-792
-401
-306
-315
-176
-81
-117
-130
-51
18
10
19
111
188
191
206
270
324
332
322
335
357
338
284
233
171
83
16
13
45
71
88
92
67
44
23
-20
-10
-5
-208
-241
448
1093
539
-546
-788
-379
-184
-206
-162
-123
-154
-171
-141
-92
-39
24
82
117
143
162
140
105
134
207
241
242
254
239
174
139
163
170
126
55
-31
-111
-164
-178
-176
-259
-398
-409
-400
-519
-305
371
501
-324
-982
-803
-418
-279
-208
-119
-82
-94
-111
-88
-42
-33
-36
9
79
110
91
74
96
130
155
189
227
242
247
255
222
115
-2
-56
-56
-33
-13
-43
-98
-86
-62
-95
-67
-53
-241
-169
541
911
142
-729
-707
-366
-257
-153
-25
-16
-27
-20
-32
-11
27
47
90
139
157
195
241
234
226
270
321
348
350
311
244
163
72
21
30
24
-9
-7
-20
-107
-151
-104
-113
-222
-370
-475
-199
495
701
-69
-820
-751
-369
-195
-124
-73
-65
-43
-9
8
53
122
148
130
139
196
250
270
275
291
316
336
339
312
262
237
208
96
-42
-91
-66
-28
0
-32
-108
-117
-89
-91
-50
-84
-308
-158
646
992
153
-735
-724
-407
-307
-234
-144
-97
-47
-64
-114
-45
38
-1
-20
58
104
91
109
137
120
117
160
170
109
43
36
85
151
193
203
195
191
201
193
110
-40
-148
-137
-124
-246
-222
268
663
178
-711
-952
-588
-326
-283
-206
-145
-198
-181
-34
3
-69
-7
117
112
71
78
69
73
121
138
131
176
243
254
198
94
-17
-83
-108
-143
-167
-134
-113
-148
-157
-156
-212
-206
-156
-300
-323
266
766
210
-725
-862
-450
-245
-236
-185
-124
-97
-64
-1
43
19
13
86
127
103
121
183
188
135
125
203
292
316
279
176
39
-15
29
74
112
150
123
24
-76
-133
-155
-158
-175
-299
-449
-189
497
721
54
-584
-466
-67
98
109
83
51
78
126
154
185
177
140
198
311
313
229
204
243
256
218
202
260
321
290
202
142
120
90
34
-27
-66
-99
-143
-151
-117
-127
-147
-115
-245
-441
-24
786
668
-381
-884
-552
-342
-405
-346
-281
-331
-299
-213
-237
-257
-122
26
29
1
75
150
146
181
283
328
334
388
419
355
237
89
-51
-99
-64
-44
-96
-196
-266
-251
-207
-174
-120
-166
-401
-363
298
767
202
-667
-773
-384
-173
-86
49
56
-77
-73
106
194
139
140
207
231
261
337
368
336
314
320
340
379
421
413
342
244
144
43
-35
-60
-32
9
7
-30
-40
-48
-75
-43
-83
-279
-50
780
1006
59
-756
-626
-301
-243
-195
-144
-154
-123
-113
-177
-187
-146
-184
-237
-161
-53
-74
-137
-127
-124
-149
-74
92
187
167
107
23
-94
-172
-164
-125
-100
-94
-110
-119
-133
-197
-241
-297
-468
-393
187
444
-252
-937
-739
-283
-168
-111
-28
-108
-172
-60
52
63
30
6
40
104
123
119
127
126
129
164
247
384
478
426
285
153
28
-85
-140
-136
-115
-133
-194
-216
-189
-198
-161
16
71
-32
335
1154
1246
350
-257
-35
267
280
224
149
81
89
73
25
69
125
63
4
68
134
134
185
304
358
339
365
440
463
404
318
226
120
15
-65
-103
-109
-134
-192
-224
-224
-199
-121
-153
-357
-233
342
407
-431
-1072
-866
-497
-420
-371
-261
-199
-156
-132
-161
-165
-124
-111
-108
-69
-34
-3
47
74
81
135
199
218
245
299
307
239
137
36
-34
-51
-29
-8
1
14
17
-29
-44
11
-91
-223
262
1031
777
-339
-799
-433
-215
-256
-200
-164
-226
-228
-169
-126
-94
-68
-51
-40
-39
-37
-9
47
93
96
84
118
203
278
308
309
279
201
84
-13
-11
84
136
95
59
55
45
29
-68
-145
175
613
260
-716
-1123
-752
-400
-307
-223
-180
-229
-215
-129
-82
-54
-28
-61
-92
-20
59
39
10
39
52
34
69
159
226
240
216
167
118
93
85
92
90
22
-55
-40
-6
14
74
-12
-173
222
948
778
-224
-672
-338
-95
-109
-64
-22
-85
-117
-44
21
-1
-16
37
56
18
2
-11
-3
96
182
169
195
312
380
394
413
371
267
190
114
31
10
-6
-47
3
89
89
103
80
-70
105
668
594
-415
-1096
-822
-410
-322
-250
-160
-192
-209
-146
-118
-121
-92
-73
-81
-72
-40
13
89
127
91
63
103
185
256
265
212
168
141
71
-27
-96
-155
-235
-290
-287
-298
-360
-352
-314
-471
-491
169
811
349
-587
-736
-332
-167
-189
-163
-163
-173
-117
-44
0
9
-25
-60
-33
26
53
71
90
97
213
427
483
422
538
704
634
452
336
220
102
57
53
43
57
79
38
-1
82
95
-72
94
639
546
-372
-881
-544
-200
-198
-197
-100
-14
15
-17
-47
-36
-17
32
111
144
133
141
164
166
159
191
263
306
306
305
281
201
115
57
-7
-63
-71
-87
-150
-183
-190
-231
-224
-239
-422
-269
572
991
132
-812
-738
-330
-285
-347
-343
-350
-317
-258
-239
-221
-194
-191
-212
-232
-197
-116
-76
-69
-10
68
82
54
71
162
226
161
42
-54
-180
-258
-131
72
151
159
146
74
58
83
-30
14
516
706
-71
-872
-751
-275
-117
-59
57
64
7
0
-14
-39
1
60
53
50
122
173
143
116
123
129
165
244
302
315
306
268
218
204
210
175
103
25
-60
-118
-143
-172
-155
-129
-273
-292
279
782
268
-584
-628
-215
-91
-95
-2
50
73
131
154
148
163
166
149
138
117
83
79
90
46
-20
31
216
373
413
394
356
293
256
281
324
358
355
240
57
-61
-119
-160
-214
-395
-520
-122
415
84
-861
-1201
-852
-608
-582
-495
-407
-384
-339
-292
-274
-219
-131
-79
-54
-27
-12
-10
4
32
58
78
126
189
177
88
26
-6
-60
-92
-58
5
27
-21
-59
-16
2
-56
-23
73
29
127
668
951
300
-501
-523
-144
25
75
136
141
140
153
121
89
101
114
111
110
103
103
119
130
147
188
233
262
287
305
300
268
224
178
134
106
126
162
141
98
94
75
45
40
-106
-255
148
767
506
-414
-741
-412
-212
-215
-181
-189
-255
-304
-379
-445
-408
-330
-304
-291
-256
-226
-197
-148
-100
-68
-28
23
72
121
156
154
127
104
81
59
61
73
51
19
10
-22
-44
19
-14
-166
70
653
577
-292
-774
-473
-163
-140
-125
-104
-124
-79
-4
7
-2
8
19
33
42
20
-6
13
64
94
78
51
65
119
151
118
42
-14
-32
-51
-69
-36
10
2
-16
-25
-58
-25
29
-121
-135
474
951
337
-568
-584
-138
1
7
77
64
47
128
169
130
120
131
85
23
1
-40
-135
-199
-202
-209
-211
-170
-123
-94
-70
-87
-133
-119
-68
-63
-47
32
73
50
46
27
-14
10
-58
-216
92
752
656
-233
-662
-373
-153
-135
-42
-10
-88
-74
2
2
-11
26
49
52
97
156
172
183
227
249
237
260
324
347
300
230
183
159
122
73
82
159
178
114
100
132
112
123
121
-39
63
682
843
-66
-889
-722
-276
-178
-187
-168
-197
-192
-157
-180
-204
-180
-165
-157
-121
-71
-14
46
71
82
143
237
301
339
362
341
268
170
67
-18
-53
-43
-39
-73
-111
-129
-155
-134
-49
-127
-268
105
694
375
-643
-1000
-578
-267
-224
-147
-94
-116
-105
-87
-104
-104
-92
-117
