# session 4
7
-29
78
9
-405
-754
-745
-620
-608
-628
-594
-576
-608
-561
-478
-588
-560
55
457
-245
-1139
-1088
-607
-441
-396
-288
-260
-264
-216
-182
-171
-130
-73
-40
-16
25
77
113
131
137
125
104
92
85
63
17
-29
-52
-63
-84
-105
-115
-119
-120
-121
-118
-101
-97
-109
-99
-106
-128
-84
-95
-181
120
725
606
-334
-832
-481
-115
-58
-9
50
38
46
83
98
114
149
190
225
248
270
300
314
305
297
296
282
259
234
197
160
145
132
107
80
55
28
16
19
25
37
42
19
8
16
-12
-10
38
-68
-127
368
912
473
-482
-699
-298
-90
-80
-16
10
-14
8
39
47
61
76
93
124
150
160
168
174
169
157
144
130
113
92
69
42
11
-17
-34
-51
-81
-107
-115
-108
-89
-67
-74
-110
-120
-119
-139
-109
-107
-269
-183
470
819
122
-685
-642
-275
-191
-182
-118
-120
-127
-90
-76
-74
-48
-21
0
29
53
67
74
76
77
81
82
73
55
32
10
-11
-32
-52
-72
-100
-132
-148
-142
-120
-82
-52
-69
-106
-106
-108
-121
-76
-117
-284
-45
674
797
-65
-707
-490
-160
-132
-111
-47
-52
-49
-12
7
24
53
80
111
144
166
179
193
202
209
214
212
202
178
144
115
94
68
40
16
-13
-40
-44
-34
-24
-1
18
-7
-32
-13
-28
-64
-13
-41
-173
144
817
686
-330
-840
-471
-136
-110
-57
0
-11
10
37
27
46
92
111
121
151
182
203
223
228
212
197
185
152
111
83
48
-2
-44
-69
-91
-115
-135
-145
-149
-143
-115
-98
-131
-166
-151
-152
-170
-125
-156
-252
81
688
495
-495
-945
-548
-209
-190
-140
-67
-76
-71
-32
-9
11
37
61
91
129
153
165
178
184
171
154
144
126
96
71
50
26
5
-14
-33
-50
-70
-90
-89
-71
-56
-51
-62
-71
-61
-73
-83
-23
-53
-197
66
726
718
-189
-756
-472
-128
-82
-38
29
16
15
48
62
76
103
126
155
192
218
232
236
228
217
210
198
176
152
128
103
76
51
29
6
-26
-61
-80
-81
-74
-58
-39
-50
-86
-96
-93
-112
-87
-87
-247
-170
482
847
149
-683
-641
-252
-159
-157
-96
-95
-103
-69
-54
-49
-23
7
34
64
89
105
110
104
100
103
102
90
72
54
35
11
-17
-41
-56
-74
-103
-132
-143
-134
-110
-76
-67
-102
-124
-113
-132
-134
-89
-197
-296
182
847
569
-382
-707
-351
-135
-138
-87
-48
-57
-36
-12
3
36
65
82
108
133
159
195
216
207
203
218
216
195
183
172
132
82
54
39
18
2
-14
-42
-55
-34
0
25
13
-32
-49
-42
-57
-28
-18
-157
-24
638
867
12
-812
-679
-246
-114
-63
-4
-30
-36
7
26
40
67
87
115
153
184
205
210
193
173
158
148
136
100
45
11
-10
-47
-86
-108
-129
-154
-163
-157
-153
-152
-137
-120
-138
-167
-168
-176
-173
-122
-179
-267
112
725
514
-441
-860
-495
-178
-134
-72
-17
-32
-14
29
39
58
101
134
158
188
212
224
229
222
194
164
151
148
131
97
67
43
20
1
-17
-45
-73
-87
-89
-84
-75
-60
-57
-80
-98
-97
-118
-112
-66
-155
-206
277
844
438
-549
-811
-378
-125
-114
-53
-18
-42
-21
19
31
42
72
110
140
160
185
199
184
165
158
138
112
100
90
73
58
36
5
-16
-22
-40
-75
-102
-103
-92
-80
-62
-51
-68
-87
-81
-92
-90
-55
-143
-203
268
893
590
-384
-724
-352
-116
-116
-59
-16
-34
-15
16
24
47
83
110
138
167
186
194
192
183
169
155
144
137
125
106
85
60
30
3
-17
-39
-65
-93
-107
-100
-83
-64
-50
-66
-97
-98
-103
-119
-76
-106
-269
-44
674
799
-99
-783
-560
-203
-165
-142
-79
-87
-86
-54
-44
-29
-3
14
41
80
107
122
132
131
126
123
114
97
80
57
28
4
-14
-35
-52
-68
-93
-124
-141
-137
-119
-89
-56
-55
-88
-98
-91
-114
-97
-56
-182
-190
404
949
437
-516
-696
-332
-180
-177
-115
-102
-117
-81
-47
-30
7
49
82
117
154
193
230
252
254
249
250
244
223
196
172
140
97
62
52
48
22
-12
-32
-41
-38
-14
20
26
-20
-56
-33
-36
-74
-30
-52
-188
131
844
739
-324
-900
-544
-194
-156
-87
-16
-40
-34
3
13
26
40
56
111
170
184
186
209
229
221
193
164
136
98
53
21
-4
-40
-77
-96
-115
-142
-161
-170
-178
-175
-159
-147
-151
-169
-181
-184
-199
-178
-131
-211
-217
282
779
306
-657
-876
-454
-205
-162
-83
-49
-61
-33
-7
7
50
88
102
134
187
226
243
254
251
233
215
197
171
144
126
108
83
63
52
41
25
5
-17
-42
-54
-40
-16
-3
-7
-30
-42
-39
-56
-43
-7
-116
-150
378
950
519
-461
-710
-318
-115
-115
-52
-20
-37
-14
10
12
29
54
76
98
120
143
155
141
118
107
95
77
63
49
26
5
-14
-40
-63
-74
-89
-118
-149
-172
-177
-158
-126
-104
-107
-136
-152
-143
-160
-162
-126
-224
-289
219
901
617
-380
-760
-425
-207
-209
-152
-106
-115
-88
-49
-37
-12
27
55
83
114
138
155
167
170
171
177
177
168
153
128
103
88
71
55
51
41
16
-9
-28
-35
-13
20
35
32
7
-19
-9
-9
-21
25
-18
-130
240
950
802
-269
-827
-474
-135
-102
-47
4
-24
-8
30
23
31
82
119
123
135
184
238
246
216
199
193
168
127
92
61
30
5
-24
-60
-91
-112
-132
-148
-158
-170
-182
-175
-154
-147
-164
-179
-161
-159
-179
-130
-123
-243
-25
641
715
-224
-941
-706
-292
-199
-137
-50
-65
-70
-15
8
10
46
93
128
168
210
228
226
222
210
186
155
122
93
74
64
50
27
-3
-20
-23
-35
-64
-94
-108
-103
-87
-78
-68
-62
-85
-106
-98
-113
-115
-75
-152
-171
344
905
466
-531
-780
-352
-111
-98
-29
11
-6
18
53
65
92
125
148
175
209
236
245
236
218
199
185
166
140
117
102
87
68
49
30
10
-5
-24
-51
-74
-83
-81
-68
-48
-31
-40
-75
-88
-76
-91
-84
-55
-170
-176
420
1014
533
-482
-721
-330
-147
-156
-102
-80
-100
-75
-51
-48
-31
-9
13
45
77
100
112
109
100
91
81
64
41
19
1
-19
-46
-71
-90
-107
-126
-144
-167
-193
-210
-203
-167
-123
-100
-109
-142
-152
-130
-136
-131
-78
-166
-240
282
997
698
-354
-752
-392
-153
-145
-76
-18
-26
-3
35
48
59
87
132
179
214
246
274
291
309
324
320
301
273
232
189
159
132
100
65
32
9
-5
-23
-47
-70
-80
-65
-40
-33
-45
-72
-89
-77
-89
-101
-51
-108
-187
260
904
551
-569
-980
-539
-212
-165
-87
-46
-73
-49
-10
-10
0
24
46
83
129
165
189
199
196
187
161
119
89
68
26
-21
-43
-57
-75
-87
-97
-121
-148
-156
-153
-155
-151
-128
-108
-103
-108
-114
-106
-103
-117
-76
-57
-168
0
666
876
19
-797
-661
-228
-105
-58
21
14
3
38
56
66
93
115
138
173
209
240
258
258
246
229
206
176
143
115
95
78
55
32
12
-7
-25
-44
-67
-95
-115
-119
-105
-76
-50
-44
-68
-97
-97
-98
-105
-67
-102
-235
36
791
948
46
-708
-554
-211
-167
-151
-93
-104
-103
-59
-44
-43
-24
1
29
60
91
116
127
120
106
93
81
65
41
17
-3
-26
-55
-79
-98
-120
-140
-146
-155
-180
-202
-198
-171
-134
-102
-89
-105
-132
-125
-111
-133
-108
-79
-187
-37
699
1091
317
-625
-637
-244
-130
-109
-29
-12
-6
33
48
57
88
116
154
209
254
285
312
328
332
331
311
279
258
238
196
144
106
85
68
41
11
-9
-21
-32
-48
-62
-60
-45
-41
-52
-72
-94
-96
-91
-104
-82
-86
-191
-5
643
802
-95
-916
-761
-309
-180
-124
-38
-54
-71
-25
-8
-16
11
54
85
113
142
172
204
215
190
152
124
103
78
44
18
8
-15
-50
-63
-71
-105
-130
-126
-133
-161
-169
-147
-127
-129
-136
-139
-148
-154
-156
-171
-143
-108
-198
-102
509
857
125
-810
-811
-335
-161
-138
-56
-31
-35
4
27
36
67
101
130
170
209
245
274
273
250
230
213
188
159
131
105
79
57
44
39
26
2
-19
-34
-52
-75
-91
-91
-77
-61
-48
-45
-67
-94
-89
-91
-99
-55
-99
-219
124
873
862
-154
-817
-549
-195
-155
-117
-53
-64
-62
-28
-16
1
34
62
97
139
174
201
214
206
185
168
155
134
106
85
74
62
46
31
13
-6
-19
-26
-39
-64
-91
-108
-107
-83
-49
-33
-41
-66
-83
-77
-85
-100
-61
-98
-210
128
899
955
-24
-737
-538
-214
-179
-147
-88
-103
-97
-61
-55
-44
-11
14
39
71
100
124
142
140
129
123
116
94
65
37
14
-8
-29
-49
-65
-79
-93
-105
-115
-131
-155
-179
-180
-147
-98
-69
-70
-95
-122
-113
-107
-128
-93
-89
-205
42
820
1046
139
-687
-564
-194
-123
-88
-10
-3
1
26
26
41
81
109
139
193
240
263
278
292
295
286
267
235
201
175
140
99
74
51
19
-1
-13
-34
-47
-57
-84
-101
-90
-78
-74
-64
-53
-66
-93
-95
-99
-130
-97
-71
-188
-37
639
868
-31
-923
-813
-362
-234
-183
-80
-78
-103
-71
-48
-41
-13
21
49
82
120
156
181
186
180
169
142
96
54
29
9
-12
-28
-43
-64
-83
-86
-87
-102
-121
-131
-138
-142
-128
-94
-65
-58
-61
-74
-79
-61
-64
-59
-15
-90
-145
343
994
658
-416
-823
-430
-143
-114
-43
8
-8
10
34
34
55
88
108
138
182
221
247
259
254
237
218
197
163
127
104
89
67
43
25
8
-10
-26
-36
-49
-72
-98
-111
-113
-100
-67
-43
-44
-62
-87
-93
-81
-98
-94
-61
-157
-126
499
1072
520
-540
-761
-344
-156
-157
-87
-60
-77
-47
-18
-9
16
42
66
103
142
171
191
195
182
167
157
141
111
77
52
36
20
-1
-19
-35
-51
-67
-80
-91
-104
-123
-144
-158
-152
-119
-80
-65
-79
-110
-127
-112
-115
-124
-78
-117
-217
165
933
897
-143
-809
-555
-225
-193
-154
-93
-105
-98
-62
-51
-35
-4
20
51
93
129
157
177
183
177
169
155
130
98
68
42
18
-6
-25
-37
-50
-63
-76
-91
-103
-109
-122
-142
-154
-139
-92
-46
-36
-55
-83
-90
-69
-76
-84
-24
-68
-153
311
1082
893
-226
-786
-453
-151
-121
-54
2
-14
9
49
53
67
98
124
159
204
244
283
306
306
301
299
282
248
206
164
131
106
76
36
0
-22
-38
-56
-69
-74
-84
-101
-114
-124
-122
-98
-71
-58
-61
-89
-116
-105
-113
-132
-82
-115
-206
202
924
727
-406
-984
-618
-260
-205
-124
-58
-91
-91
-44
-16
-6
2
25
75
131
172
203
222
224
212
196
175
132
75
36
13
-15
-44
-59
-73
-98
-124
-139
-144
-147
-158
-175
-187
-189
-183
-164
-144
-138
-136
-138
-155
-158
-148
-151
-116
-98
-187
11
714
963
69
-859
-769
-286
-134
-104
-26
-19
-26
17
41
41
67
110
146
183
227
267
296
310
304
283
261
232
186
144
125
110
87
72
63
46
25
8
-10
-25
-32
-45
-66
-78
-79
-76
-53
-22
-16
-32
-52
-64
-56
-65
-75
-28
-66
-144
273
1008
866
-224
-824
-505
-173
-136
-76
-16
-37
-28
8
15
30
60
83
110
147
182
213
233
226
202
182
159
124
84
52
25
0
-19
-34
-47
-60
-77
-93
-103
-112
-124
-141
-165
-187
-195
-188
-159
-117
-101
-117
-139
-154
-148
-142
-160
-136
-125
-211
13
752
1020
146
-758
-703
-309
-220
-205
-132
-126
-132
-95
-72
-60
-33
-4
30
73
110
142
168
179
179
182
179
153
115
93
80
61
47
43
38
28
13
-2
-11
-16
-18
-13
-6
-14
-37
-54
-43
-2
36
48
45
18
-14
-4
6
-17
18
7
-90
251
1031
1027
-93
-872
-608
-201
-133
-87
-26
-44
-38
-9
-14
0
45
74
99
137
176
218
252
263
253
230
194
155
117
73
27
-11
-41
-65
-88
-113
-132
-145
-158
-171
-175
-177
-190
-212
-227
-225
-204
-177
-158
-155
-172
-205
-208
-182
-189
-176
-118
-181
-151
428
959
395
-673
-896
-433
-176
-142
-65
-24
-27
7
36
51
87
122
152
199
251
292
325
340
334
318
299
276
247
208
163
130
113
102
86
67
51
37
20
0
-19
-34
-44
-60
-81
-96
-102
-92
-60
-29
-29
-50
-77
-91
-77
-78
-86
-42
-80
-135
311
1033
844
-256
-833
-511
-194
-168
-121
-68
-85
-74
-44
-37
-19
10
30
62
101
133
164
189
193
186
175
156
128
93
57
28
7
-12
-30
-45
-61
-77
-90
-99
-108
-118
-126
-129
-139
-162
-182
-185
-166
-123
-87
-87
-104
-125
-139
-124
-119
-131
-93
-108
-169
199
928
913
-88
-781
-575
-246
-200
-164
-104
-108
-97
-62
-50
-32
-2
25
58
98
130
165
199
213
210
208
209
195
160
123
100
86
68
51
41
32
23
17
10
-3
-18
-24
-24
-27
-32
-37
-47
-57
-44
-7
17
15
6
-7
-19
-17
-38
-39
18
-39
-73
463
1153
761
-436
-904
-497
-185
-125
-45
-12
