# session 7
-12
8
-111
33
341
322
270
588
880
864
822
849
832
812
813
798
792
799
802
826
865
898
941
984
995
974
933
877
811
716
576
428
317
256
220
170
115
82
44
-12
-39
-32
-43
-79
-109
-120
-117
-107
-97
-104
-148
-167
-142
-161
-192
-228
-299
107
1159
1405
-6
-1287
-1002
-272
-145
-167
-56
-43
-73
-33
-2
13
49
88
140
217
302
400
493
541
552
559
542
473
361
229
91
-16
-74
-115
-165
-192
-181
-184
-220
-248
-258
-272
-289
-309
-342
-358
-334
-299
-300
-350
-393
-377
-379
-432
-449
-532
-606
-27
955
770
-661
-1391
-860
-404
-465
-460
-349
-348
-344
-287
-256
-236
-199
-166
-124
-53
23
83
140
198
225
208
173
138
86
13
-52
-93
-132
-160
-140
-119
-145
-155
-110
-85
-94
-78
-60
-64
-38
12
25
16
11
-2
0
10
-2
2
-40
-164
37
696
879
73
-653
-471
-24
102
142
233
244
216
221
217
194
187
196
215
256
320
376
416
471
529
538
503
459
395
296
189
95
18
-28
-44
-55
-74
-104
-131
-127
-118
-155
-188
-155
-113
-120
-135
-126
-120
-143
-168
-152
-129
-139
-144
-208
-241
292
1185
1062
-248
-1043
-642
-133
-75
-90
-54
-63
-63
-39
-20
10
37
60
112
178
252
352
442
489
505
490
441
378
284
150
25
-54
-105
-141
-158
-170
-180
-180
-190
-217
-221
-204
-219
-258
-265
-232
-201
-183
-176
-193
-201
-192
-233
-263
-228
-300
-200
658
1417
587
-957
-1218
-496
-182
-225
-147
-116
-170
-140
-106
-114
-71
-12
11
47
123
226
333
395
398
382
358
325
271
165
42
-27
-67
-114
-132
-113
-99
-101
-111
-129
-131
-111
-116
-147
-144
-100
-73
-69
-56
-66
-99
-92
-76
-97
-116
-242
-348
241
1269
1176
-133
-828
-416
-84
-148
-129
-76
-128
-146
-118
-90
-34
16
25
52
122
190
247
310
368
399
394
348
291
250
195
112
63
64
64
52
35
9
3
3
-39
-66
-17
12
-28
-43
4
43
32
-12
-41
-7
45
23
-29
-80
-213
-129
555
1085
456
-577
-694
-220
-30
-43
-16
-41
-47
23
36
-8
-7
34
85
130
173
251
345
388
397
422
425
370
289
208
106
-7
-82
-115
-152
-192
-208
-229
-270
-296
-315
-356
-381
-375
-381
-386
-361
-342
-358
-388
-405
-402
-410
-435
-433
-489
-602
-336
347
471
-356
-1002
-759
-340
-275
-275
-201
-182
-180
-143
-116
-92
-47
-7
38
113
203
284
353
407
444
461
460
439
383
282
178
120
91
48
-6
-37
-44
-54
-72
-81
-83
-79
-73
-81
-90
-67
-36
-38
-51
-59
-71
-59
-36
-59
-66
-82
-187
109
1089
1495
333
-975
-911
-223
17
32
124
135
98
149
205
206
240
319
378
435
519
591
690
835
885
823
822
863
762
533
341
259
256
234
130
39
42
37
-26
-63
-71
-93
-93
-93
-143
-169
-147
-155
-189
-223
-286
-326
-319
-352
-394
-440
-581
-394
495
1047
225
-893
-935
-438
-294
-313
-253
-243
-251
-229
-234
-223
-161
-110
-70
-4
70
144
223
280
297
296
293
271
213
132
60
-1
-65
-116
-133
-149
-193
-222
-226
-258
-305
-309
-300
-318
-325
-294
-256
-238
-242
-267
-293
-282
-266
-284
-284
-325
-430
-138
642
809
-144
-927
-698
-280
-254
-279
-225
-231
-230
-187
-173
-158
-104
-53
-13
52
147
254
355
431
470
478
463
418
344
249
143
46
-10
-27
-39
-58
-71
-76
-86
-99
-106
-112
-120
-129
-131
-107
-68
-56
-59
-62
-79
-73
-51
-83
-103
-130
-254
83
1192
1633
339
-1042
-907
-198
-23
-44
30
27
10
54
61
56
108
185
264
346
430
537
665
765
810
815
787
723
628
505
364
234
148
103
76
55
34
15
7
-4
-28
-47
-45
-46
-71
-86
-60
-36
-49
-78
-105
-109
-103
-136
-158
-208
-340
-15
999
1322
56
-1166
-946
-291
-183
-214
-130
-134
-163
-135
-129
-121
-75
-37
-2
63
136
202
272
328
342
314
260
197
130
46
-58
-150
-201
-218
-230
-247
-247
-242
-264
-291
-285
-272
-280
-293
-288
-262
-231
-215
-225
-270
-315
-301
-284
-320
-326
-389
-525
-112
882
1040
-87
-877
-564
-194
-243
-256
-184
-193
-177
-116
-88
-65
-17
24
54
99
174
260
329
362
353
308
255
210
156
78
-6
-60
-81
-112
-165
-197
-197
-205
-227
-235
-234
-235
-227
-215
-205
-173
-122
-93
-92
-109
-125
-99
-70
-93
-104
-149
-226
231
1250
1390
103
-878
-545
-20
-6
-29
51
47
53
103
118
144
208
260
311
389
469
545
628
687
689
653
612
547
439
322
222
131
64
26
-5
-28
-42
-77
-123
-141
-154
-177
-178
-170
-177
-168
-149
-157
-162
-152
-158
-150
-139
-177
-181
-211
-366
-41
1071
1498
201
-1141
-966
-254
-97
-125
-39
-32
-55
-11
18
35
84
135
186
260
342
417
495
561
575
534
473
404
302
172
50
-38
-106
-164
-200
-212
-222
-242
-255
-253
-257
-286
-306
-300
-308
-324
-296
-260
-278
-310
-322
-320
-301
-304
-322
-352
-492
-372
539
1296
481
-949
-1127
-452
-205
-271
-213
-188
-220
-172
-123
-116
-81
-21
29
88
166
253
339
396
405
386
357
300
215
128
43
-39
-93
-115
-133
-150
-154
-148
-143
-144
-152
-163
-166
-165
-172
-169
-144
-117
-99
-93
-117
-121
-85
-96
-130
-144
-297
-262
613
1500
875
-512
-791
-210
0
-79
-15
24
-11
19
53
51
88
152
196
241
308
380
464
539
550
510
487
465
392
296
223
167
122
96
93
92
78
63
53
41
38
48
40
16
3
2
5
19
33
28
-2
-39
-44
-41
-64
-74
-179
-340
93
1128
1296
93
-812
-524
-95
-121
-155
-93
-111
-124
-98
-99
-87
-39
-7
10
56
125
183
216
223
204
171
127
64
-17
-103
-177
-234
-279
-311
-327
-339
-358
-369
-372
-388
-410
-419
-428
-443
-444
-416
-369
-329
-307
-298
-308
-329
-318
-296
-306
-307
-384
-507
-100
855
1010
-114
-956
-642
-176
-157
-158
-75
-82
-84
-29
0
26
86
146
203
275
353
424
491
537
547
535
519
486
412
297
191
131
93
47
18
15
4
-18
-31
-29
-31
-47
-53
-40
-45
-73
-71
-35
-19
-29
-43
-65
-68
-54
-83
-92
-106
-279
-128
871
1533
493
-995
-1084
-360
-80
-99
-34
-9
-11
46
88
115
183
243
277
336
424
514
607
696
746
738
696
652
576
442
295
186
99
20
-29
-57
-87
-107
-116
-136
-157
-157
-153
-160
-173
-194
-214
-207
-193
-201
-220
-248
-268
-245
-238
-271
-284
-390
-434
248
1239
929
-536
-1167
-615
-212
-258
-234
-169
-190
-174
-136
-133
-106
-54
-13
35
106
187
266
328
357
347
302
246
190
105
-11
-107
-162
-200
-222
-218
-217
-233
-249
-255
-257
-259
-269
-282
-283
-280
-275
-249
-209
-193
-202
-225
-245
-230
-208
-233
-242
-284
-391
-45
882
1118
35
-871
-597
-125
-145
-195
-108
-99
-105
-49
-18
0
51
100
132
182
258
340
419
473
493
488
449
365
269
192
120
46
-5
-16
-14
-35
-67
-74
-64
-62
-63
-82
-113
-94
-51
-71
-94
-42
-5
-23
-7
5
-52
-75
-43
-56
-68
-112
-226
103
1022
1282
242
-663
-461
-42
-21
-18
50
27
20
49
39
55
103
121
163
255
320
358
432
498
490
457
440
400
323
234
144
76
48
27
-1
-1
3
-30
-42
-18
-41
-93
-93
-84
-111
-110
-74
-59
-49
-28
-25
-43
-78
-111
-107
-112
-136
-149
-256
-268
329
1063
723
-372
-763
-377
-150
-195
-197
-192
-211
-187
-172
-172
-139
-105
-89
-55
-3
50
114
176
203
196
174
134
61
-42
-154
-249
-312
-353
-391
-421
-433
-441
-461
-480
-480
-466
-453
-439
-426
-414
-395
-367
-336
-295
-235
-192
-186
-190
-193
-182
-148
-135
-130
-126
-223
-90
758
1441
655
-709
-897
-253
24
7
82
110
87
128
153
158
220
281
307
360
444
522
595
666
718
739
728
691
620
498
360
254
168
94
63
61
50
36
26
3
-19
-13
-3
-13
-38
-64
-71
-61
-75
-100
-79
-44
-53
-68
-81
-123
-140
-135
-164
-184
-267
-338
229
1239
1101
-390
-1257
-769
-220
-180
-162
-94
-114
-109
-70
-61
-33
21
58
105
179
253
318
377
421
436
415
370
318
241
121
11
-46
-79
-106
-115
-114
-120
-124
-115
-98
-88
-104
-136
-153
-144
-128
-129
-150
-151
-106
-59
-47
-56
-76
-73
-30
-17
-19
-15
-133
-28
852
1592
785
-637
-819
-149
87
-4
43
83
46
47
53
47
68
94
115
144
177
218
269
304
300
264
221
178
114
13
-105
-207
-272
-306
-329
-357
-384
-404
-416
-427
-440
-455
-471
-482
-489
-499
-510
-509
-494
-469
-439
-419
-418
-434
-462
-460
-428
-428
-430
-430
-542
-415
402
1038
322
-879
-1025
-453
-206
-217
-151
-100
-80
-23
11
40
110
171
230
328
415
480
576
679
734
755
752
716
655
545
386
262
215
174
122
105
105
89
77
75
65
58
57
54
54
51
46
51
51
46
70
102
101
88
72
57
81
87
58
60
-21
-12
731
1674
1171
-453
-1076
-422
68
61
86
143
111
109
136
137
148
180
215
262
323
391
464
527
558
551
521
473
398
285
150
28
-59
-116
-153
-176
-190
-192
-181
-171
-170
-180
-198
-214
-223
-239
-256
-261
-265
-262
-227
-199
-211
-236
-260
-271
-258
-278
-313
-315
-419
-395
349
1181
672
-667
-1048
-510
-255
-330
-286
-241
-281
-271
-244
-249
-230
-187
-155
-116
-57
6
71
131
165
154
111
59
-6
-98
-204
-295
-355
-384
-391
-383
-374
-373
-372
-360
-337
-318
-304
-291
-275
-259
-245
-223
-193
-165
-124
-65
-26
-19
-22
-32
-28
7
14
16
25
-81
56
948
1656
834
-562
-741
-103
127
63
124
153
118
150
188
198
238
287
318
360
429
509
593
669
715
719
678
610
530
425
282
152
75
22
-27
-44
-36
-47
-68
-72
-76
-90
-103
-114
-127
-134
-141
-154
-161
-161
-157
-136
-105
-90
-93
-117
-149
-137
-109
-132
-133
-148
-253
120
1236
1606
203
-1234
-1077
-316
-105
-124
-67
-81
-84
-20
-2
-8
35
96
148
200
271
380
495
574
614
602
536
460
374
238
79
-43
-127
-188
-215
-218
-227
-232
-222
-220
-232
-239
-240
-248
-263
-271
-263
-256
-270
-281
-267
-247
-235
-217
-204
-232
-265
-236
-207
-244
-237
-238
-302
154
1192
1283
-170
-1268
-875
-223
-157
-192
-125
-135
-135
-85
-74
-65
-16
25
56
114
199
293
382
446
466
445
396
330
247
143
30
-68
-137
-179
-202
-209
-203
-193
-185
-177
-173
-178
-183
-181
-186
-197
-198
-195
-193
-187
-175
-148
-106
-81
-82
-95
-114
-107
-79
-91
-92
-95
-188
93
1095
1605
544
-733
-697
-104
12
-44
31
46
27
74
106
118
159
203
244
302
372
455
548
626
656
637
591
531
449
342
226
124
53
12
-15
-35
-44
-46
-52
-61
-69
-81
-92
-100
-106
-114
-119
-124
-133
-145
-152
-147
-137
-120
-89
-72
-88
-113
-134
-141
-130
-145
-164
-149
-230
-199
478
1238
761
-515
-924
-437
-166
-220
-194
-161
-193
-185
-163
-164
-142
-108
-85
-50
6
69
140
213
262
272
255
222
176
108
13
-93
-177
-220
-239
-252
-253
-248
-252
-258
-250
-242
-248
-260
-256
-236
-228
-240
-245
-231
-216
-213
-213
-197
-173
-179
-209
-203
-155
-114
-82
-51
-47
-51
-39
-27
-12
-19
-26
26
-19
-24
714
1751
1323
-417
-1216
-593
-45
-25
14
86
55
59
95
92
118
188
245
288
341
414
517
633
722
771
770
725
666
592
456
281
151
72
4
-41
-62
-99
-144
-158
-142
-137
-154
-153
-124
-109
-123
-136
-133
-125
-118
-118
-126
-131
-137
-149
-149
-128
-121
-139
-138
-114
-132
-194
-189
-128
-156
-207
-195
-289
-135
831
1529
481
-1148
-1323
-521
-165
-202
-162
-132
-140
-101
-70
-55
-19
21
65
130
208
293
387
474
537
555
518
457
391
299
178
61
-35
-106
-147
-161
-162
-159
-159
-158
-153
-151
-153
-151
-155
-168
-174
-174
-178
-181
-183
-189
-191
-188
-171
-133
-102
-103
-117
-134
-132
-99
-102
-122
-106
-183
-77
793
1636
950
-545
-913
-313
-46
-121
-71
-27
-62
-45
-11
1
35
80
118
169
232
308
401
482
527
536
507
440
352
250
126
-6
-109
-165
-189
-207
-226
-240
-243
-247
-259
-271
-275
-277
-283
-287
-286
-284
-287
-288
-286
-290
-297
-292
-273
-241
-204
-189
-198
-212
-228
-227
-199
-201
-203
-173
-238
-128
654
1362
714
-588
-861
-292
-22
-60
-9
32
14
41
73
80
109
149
189
245
314
394
490
581
641
663
655
622
555
444
303
168
62
-9
-50
-67
-76
-95
-114
-116
-111
-113
-129
-153
-165
-166
-172
-181
-188
-193
-194
-198
-217
-233
-234
-212
-163
-135
-152
-160
-151
-172
-166
-134
-162
-164
-141
-183
265
1396
1651
124
-1302
-1102
-366
-170
-156
-67
-53
-48
-15
-10
22
77
99
148
252
343
429
556
682
747
749
715
661
574
439
276
119
1
-66
-106
-139
-153
-148
-143
-138
-131
-142
-161
-157
-146
-166
-197
-198
-187
-196
-217
-228
-224
-205
-182
-170
-165
-169
-201
-218
-179
-174
-216
-191
-223
-214
516
1551
1156
-547
-1356
-782
-270
-262
-239
-181
-209
-208
-178
-172
-151
-116
-81
-33
22
