# session 17
93
31
171
44
-533
-912
-866
-691
-13
1030
820
-832
-1809
-1347
-794
-730
-680
-588
-581
-550
-500
-492
-474
-425
-378
-331
-271
-208
-136
-43
78
226
391
539
631
659
621
519
391
266
132
-1
-91
-139
-182
-222
-238
-239
-235
-229
-221
-209
-189
-170
-172
-188
-190
-177
-174
-184
-185
-172
-163
-172
-186
-180
-168
-179
-194
-196
-205
-211
-186
-158
-152
-122
-66
-47
-70
-83
-92
-92
-58
-49
-68
-55
-77
120
948
1593
815
-553
-810
-261
-55
-108
-33
10
-15
19
49
44
63
95
122
169
208
232
302
420
530
642
779
889
928
898
801
659
509
357
216
110
19
-55
-82
-101
-145
-165
-151
-155
-169
-158
-145
-161
-183
-196
-203
-198
-195
-216
-233
-220
-210
-231
-259
-277
-285
-273
-252
-246
-238
-211
-197
-206
-218
-247
-257
-208
-205
-257
-228
-224
-118
724
1744
1185
-668
-1513
-908
-359
-325
-273
-186
-208
-201
-152
-153
-146
-81
-31
-19
23
98
170
282
453
625
771
885
919
876
801
669
468
285
158
29
-88
-135
-161
-222
-256
-235
-215
-204
-182
-182
-207
-205
-191
-197
-192
-175
-196
-227
-218
-212
-229
-227
-212
-208
-200
-179
-166
-173
-186
-179
-163
-147
-137
-165
-173
-121
-133
124
1158
1918
847
-1008
-1424
-654
-222
-223
-163
-107
-113
-83
-54
-44
-23
-4
32
87
130
181
278
392
513
672
816
864
832
770
667
520
359
202
72
-7
-60
-119
-155
-146
-138
-159
-170
-148
-136
-156
-164
-142
-137
-159
-165
-168
-196
-215
-203
-205
-231
-233
-206
-199
-194
-153
-137
-169
-184
-186
-188
-149
-143
-185
-161
-176
-94
684
1588
1020
-625
-1235
-607
-186
-236
-196
-113
-137
-139
-121
-124
-96
-55
-26
18
69
115
177
263
371
491
594
657
666
611
506
377
251
155
76
-12
-80
-107
-124
-141
-137
-128
-131
-133
-130
-126
-118
-128
-148
-141
-128
-140
-148
-155
-186
-191
-165
-171
-189
-177
-171
-173
-143
-118
-120
-116
-131
-157
-123
-100
-146
-136
-137
-146
415
1368
1206
-255
-1121
-681
-175
-161
-147
-56
-72
-101
-75
-54
-46
-25
21
73
86
99
177
279
359
449
553
613
604
554
484
394
292
191
87
4
-40
-71
-92
-85
-83
-100
-99
-91
-102
-107
-96
-103
-121
-116
-99
-98
-110
-118
-116
-125
-145
-146
-134
-145
-160
-151
-144
-156
-151
-104
-74
-100
-117
-92
-92
-106
-89
-102
-109
-70
-122
52
913
1501
531
-942
-1106
-401
-113
-169
-116
-72
-101
-90
-61
-55
-48
-27
9
51
94
158
246
326
395
473
547
592
593
537
447
356
253
135
46
-6
-47
-76
-94
-120
-141
-139
-131
-132
-133
-123
-117
-136
-165
-170
-162
-161
-155
-156
-179
-179
-148
-141
-153
-141
-122
-117
-120
-129
-131
-102
-76
-75
-68
-49
-47
-58
-59
-44
-22
-9
-13
-4
19
13
-14
-8
18
22
23
31
21
4
12
21
6
-4
16
39
38
33
38
25
-4
-6
4
-8
-14
12
35
31
10
-13
-24
-17
-16
-29
-35
-19
1
5
-12
-31
-37
-41
-47
-49
-53
-61
-62
-49
-30
-8
11
19
6
-13
-17
-26
-45
-30
-29
-65
-63
-81
61
862
1670
1022
-553
-1090
-520
-163
-194
-143
-86
-117
-108
-80
-84
-70
-36
-17
9
60
118
178
246
316
390
471
539
583
609
612
588
539
457
352
257
179
110
52
1
-45
-70
-72
-82
-103
-118
-122
-127
-142
-157
-160
-159
-161
-160
-161
-164
-161
-156
-168
-187
-189
-176
-169
-174
-180
-180
-168
-152
-157
-176
-172
-157
-155
-154
-145
-143
-143
-139
-137
-140
-139
-131
-125
-124
-123
-112
-105
-113
-118
-107
-99
-103
-102
-93
-88
-83
-82
-87
-80
-67
-81
-98
-86
-73
-76
-78
-68
-54
-47
-58
-75
-76
-51
-12
12
17
22
17
0
-16
-35
-47
-47
-70
-59
-3
7
341
1321
1820
670
-929
-1213
-596
-241
-158
-63
-34
-46
-14
4
-4
7
34
64
105
160
219
271
332
432
560
675
778
870
910
883
807
700
579
445
294
167
94
26
-57
-102
-101
-109
-133
-138
-127
-139
-170
-172
-154
-157
-168
-166
-180
-205
-197
-176
-193
-225
-228
-210
-195
-195
-217
-223
-186
-163
-194
-219
-202
-186
-185
-176
-171
-181
-179
-162
-155
-161
-164
-160
-146
-116
-97
-113
-134
-131
-127
-134
-131
-123
-120
-120
-120
-120
-116
-112
-114
-114
-100
-77
-66
-70
-75
-80
-70
-53
-86
-110
-70
-80
184
1159
1825
805
-860
-1214
-558
-200
-178
-114
-92
-110
-72
-46
-48
-26
-1
18
56
99
136
196
291
408
527
641
748
815
806
743
663
554
422
300
187
79
1
-54
-106
-139
-134
-123
-127
-129
-118
-113
-115
-106
-99
-113
-131
-139
-143
-147
-149
-160
-172
-178
-181
-179
-171
-173
-189
-199
-201
-204
-200
-187
-170
-139
-100
-95
-122
-134
-136
-139
-109
-94
-117
-107
-129
-32
680
1462
897
-603
-1112
-492
-100
-165
-147
-77
-93
-93
-73
-63
-26
6
6
24
76
136
195
266
361
477
594
684
731
721
653
545
411
265
137
36
-48
-113
-157
-188
-208
-210
-203
-203
-203
-194
-188
-199
-212
-208
-199
-212
-235
-229
-210
-219
-238
-238
-243
-257
-253
-245
-240
-207
-166
-170
-191
-187
-197
-208
-177
-168
-186
-188
-220
60
1018
1612
585
-954
-1162
-473
-186
-235
-180
-137
-150
-116
-82
-75
-59
-41
-15
38
92
143
217
314
428
556
674
755
782
751
673
565
433
295
175
77
-6
-64
-93
-103
-106
-112
-119
-117
-109
-111
-112
-102
-101
-115
-125
-128
-137
-146
-146
-149
-158
-160
-155
-140
-106
-81
-93
-116
-128
-134
-116
-93
-117
-128
-155
-245
117
1156
1539
340
-935
-862
-283
-170
-206
-130
-128
-156
-116
-86
-82
-64
-39
-9
33
78
129
198
293
408
509
582
641
660
609
526
435
310
169
61
-27
-104
-146
-158
-168
-176
-181
-186
-179
-168
-182
-204
-205
-203
-212
-215
-211
-225
-242
-235
-224
-230
-237
-229
-205
-174
-166
-184
-188
-182
-201
-199
-170
-172
-166
-190
-261
177
1250
1497
88
-1269
-1136
-452
-240
-225
-151
-143
-151
-113
-85
-64
-40
-26
2
53
111
175
253
358
491
618
712
781
813
778
696
590
453
297
159
41
-50
-96
-120
-141
-148
-150
-153
-144
-132
-134
-140
-141
-149
-166
-182
-185
-182
-183
-189
-193
-193
-191
-183
-160
-130
-121
-135
-146
-154
-156
-132
-130
-150
-134
-177
-84
722
1656
1098
-632
-1392
-797
-258
-202
-152
-93
-121
-104
-56
-53
-48
-19
14
51
95
137
197
295
420
537
635
715
754
729
651
548
424
287
161
61
-24
-91
-124
-129
-140
-156
-156
-150
-151
-149
-147
-157
-168
-169
-178
-194
-209
-225
-242
-252
-256
-263
-275
-279
-251
-200
-179
-194
-209
-225
-239
-204
-181
-226
-235
-241
-232
319
1326
1353
-11
-1014
-722
-233
-223
-252
-178
-176
-174
-129
-112
-97
-60
-41
-18
36
95
150
224
314
408
503
576
595
567
513
438
344
240
138
56
-8
-57
-84
-85
-87
-98
-98
-89
-92
-100
-93
-86
-95
-101
-94
-97
-115
-125
-131
-144
-147
-150
-185
-207
-168
-121
-100
-72
-73
-123
-142
-122
-124
-120
-108
-123
-116
-150
-115
533
1467
1203
-258
-1039
-606
-178
-186
-165
-70
-29
-4
-28
-94
-109
-88
-64
-12
51
101
163
260
383
502
581
620
636
627
590
513
381
256
193
117
-8
-64
-26
-53
-166
-206
-157
-136
-144
-133
-133
-139
-123
-123
-142
-128
-106
-116
-131
-138
-160
-180
-182
-177
-154
-121
-113
-114
-97
-95
-123
-140
-134
-132
-142
-135
-139
-172
-159
-166
-219
170
1018
1053
-218
-1217
-931
-334
-200
-183
-102
-117
-163
-126
-57
-23
-21
-8
24
61
121
186
212
260
390
524
598
630
633
605
564
497
379
245
151
90
34
-7
-29
-53
-85
-93
-69
-67
-111
-138
-114
-96
-112
-130
-142
-161
-172
-173
-180
-177
-167
-191
-234
-233
-199
-189
-191
-176
-154
-141
-146
-166
-190
-208
-195
-152
-156
-177
-141
-159
11
880
1594
640
-1141
-1572
-770
-267
-240
-176
-131
-161
-131
-84
-73
-41
12
49
73
107
172
260
353
464
595
705
769
784
740
661
581
478
332
193
105
40
-22
-60
-71
-86
-104
-101
-86
-83
-97
-112
-111
-112
-138
-163
-162
-158
-169
-183
-190
-188
-181
-187
-205
-210
-196
-173
-166
-193
-218
-208
-200
-199
-195
-214
-212
-206
-222
217
1260
1523
128
-1246
-1086
-369
-197
-220
-125
-101
-116
-73
-43
-36
-13
14
49
99
149
204
279
375
482
586
666
706
699
650
567
451
328
221
119
21
-40
-73
-111
-143
-146
-133
-123
-119
-118
-121
-123
-122
-120
-123
-138
-161
-178
-182
-187
-199
-202
-195
-192
-197
-180
-136
-115
-145
-175
-172
-170
-156
-133
-150
-157
-164
-204
214
1251
1552
257
-1035
-906
-283
-171
-221
-154
-148
-161
-120
-106
-107
-74
-41
-20
18
73
138
213
297
393
493
569
600
590
546
469
367
253
141
43
-34
-92
-130
-150
-158
-155
-149
-147
-145
-148
-154
-154
-151
-158
-171
-174
-172
-174
-179
-187
-195
-198
-204
-213
-215
-209
-192
-151
-120
-137
-158
-149
-149
-153
-138
-148
-154
-145
-212
19
968
1604
651
-825
-1040
-412
-161
-206
-146
-111
-131
-100
-72
-68
-45
-19
2
43
96
150
217
298
390
487
569
616
621
589
531
452
350
234
126
42
-19
-54
-70
-83
-95
-97
-92
-90
-90
-91
-96
-101
-104
-106
-109
-116
-126
-128
-119
-115
-133
-155
-157
-156
-169
-171
-145
-112
-81
-63
-75
-93
-92
-96
-99
-86
-101
-105
-88
-159
45
972
1637
745
-728
-1004
-414
-149
-184
-135
-103
-120
-93
-73
-77
-55
-25
-3
29
72
124
188
262
345
440
524
573
592
584
540
459
348
219
102
17
-48
-94
-113
-124
-146
-158
-153
-152
-157
-157
-155
-159
-169
-179
-185
-184
-183
-183
-183
-184
-185
-181
-180
-192
-200
-196
-191
-191
-192
-201
-210
-204
-190
-176
-149
-109
-95
-114
-129
-132
-142
-128
-108
-144
-146
-96
-110
201
1155
1581
381
-1116
-1226
-543
-237
-207
-124
-95
-111
-86
-60
-47
-24
-1
31
81
123
161
224
317
422
531
645
743
794
798
769
695
568
423
295
182
75
-11
-60
-82
-101
-118
-119
-114
-124
-139
-141
-145
-156
-164
-173
-185
-186
-189
-207
-215
-207
-206
-209
-204
-209
-212
-197
-194
-202
-173
-129
-133
-165
-167
-161
-165
-143
-139
-167
-135
-117
-6
750
1698
1208
-598
-1547
-999
-356
-235
-188
-113
-114
-103
-71
-53
-17
12
18
44
97
150
215
303
407
529
649
729
764
765
725
647
533
387
243
133
42
-43
-103
-128
-140
-145
-145
-144
-150
-154
-152
-152
-155
-162
-174
-186
-194
-201
-208
-211
-218
-228
-231
-230
-228
-219
-210
-204
-181
-149
-149
-173
-176
-175
-178
-155
-155
-185
-175
-213
-107
710
1636
1088
-565
-1247
-680
-236
-242
-205
-140
-162
-153
-116
-109
-89
-59
-46
-21
32
91
152
233
334
436
530
607
640
620
567
493
392
276
164
63
-15
-65
-99
-120
-126
-124
-122
-121
-121
-121
-116
-114
-121
-132
-139
-140
-141
-146
-151
-156
-168
-180
-186
-193
-200
-191
-173
-154
-120
-91
-105
-129
-117
-119
-139
-113
-94
-117
-108
-156
-99
640
1564
1161
-320
-977
-504
-133
-160
-141
-91
-110
-99
-73
-72
-49
-13
6
34
79
127
188
264
343
437
544
620
639
624
585
511
410
299
190
93
17
-38
-73
-95
-108
-108
-101
-100
-105
-104
-98
-97
-105
-112
-113
-116
-120
-117
-117
-127
-132
-127
-128
-141
-154
-159
-164
-176
-180
-161
-142
-136
-112
-77
-82
-114
-116
-112
-128
-113
-104
-145
-145
-145
-100
508
1451
1250
-266
-1206
-800
-262
-214
-213
-148
-159
-154
-109
-96
-90
-69
-48
-18
22
61
113
191
284
388
493
575
619
622
590
531
443
323
197
82
-33
-129
-174
-189
-207
-217
-211
-207
-212
-215
-214
-209
-207
-209
-208
-211
-225
-236
-230
-222
-224
-225
-215
-209
-225
-243
-225
-186
-182
-207
-206
-178
-159
-138
-99
-86
-110
-109
-94
-109
-98
-62
-72
-61
-46
30
688
1684
1411
-335
-1432
-965
-287
-148
-98
-19
-36
-24
28
31
37
74
99
128
179
229
283
359
449
549
665
764
809
801
760
690
590
466
337
218
114
25
-28
-51
-71
-92
-98
-97
-99
-97
-90
-93
-105
-114
-117
-123
-134
-147
-157
-162
-165
-171
-179
-187
-195
-201
-203
-204
-211
-214
-205
-193
-184
-159
-123
-128
-166
-169
-154
-158
-144
-140
-174
-159
-172
-144
524
1527
1261
-327
-1201
-726
-231
-228
-213
-141
-158
-148
-106
-107
-100
-68
-48
-23
19
65
120
194
284
383
481
562
608
604
559
490
401
290
178
85
7
-64
-117
-142
-144
-142
-147
-152
-148
-142
-146
-154
-154
-150
-153
-163
-169
-168
-173
-184
-190
-188
-184
-183
-188
-191
-185
-178
-187
-201
-199
-190
-193
-196
-184
-162
-132
-88
-65
-93
-120
-106
-105
-121
-100
-96
-122
-105
-134
-17
755
1557
996
-425
-900
-391
-96
-148
-117
-68
-83
-63
-36
-40
-25
3
27
64
105
141
194
272
358
442
532
614
653
633
585
532
457
347
236
141
52
-23
-59
-68
-79
-90
-90
-90
-98
-100
-91
-85
-86
-89
-106
-127
-124
-108
-102
-103
-102
-108
-121
-126
-120
-109
-98
-93
-97
-101
-99
-94
-88
-77
-68
-69
-75
-71
-59
-55
-58
-58
-46
-28
-23
-39
-46
-29
-19
-23
-18
