# session 29
84
95
44
74
259
413
414
377
377
368
351
351
341
319
312
310
300
300
308
310
313
331
356
378
405
441
484
528
560
577
582
572
536
473
383
271
157
63
-8
-64
-100
-118
-130
-136
-133
-130
-129
-129
-129
-131
-127
-123
-131
-146
-153
-153
-158
-164
-169
-180
-193
-194
-192
-198
-202
-197
-194
-197
-203
-209
-214
-225
-236
-234
-214
-189
-166
-141
-128
-149
-173
-164
-161
-178
-156
-140
-169
-160
-173
-97
586
1457
1089
-319
-937
-460
-109
-160
-148
-96
-122
-114
-87
-96
-95
-79
-74
-64
-49
-40
-28
-4
22
49
75
107
156
212
261
306
352
385
396
395
381
338
266
181
97
23
-31
-70
-100
-112
-114
-122
-125
-112
-101
-101
-97
-86
-79
-77
-73
-73
-79
-85
-87
-90
-96
-102
-107
-108
-111
-117
-119
-115
-113
-111
-110
-113
-119
-122
-128
-132
-119
-88
-57
-33
-20
-30
-56
-62
-50
-58
-55
-27
-43
-64
-47
-67
169
959
1403
550
-592
-659
-158
-24
-81
-36
-21
-41
-20
-12
-17
-7
-4
-5
8
15
14
23
41
61
87
115
143
181
231
280
322
356
376
381
377
359
313
241
158
84
22
-33
-76
-96
-104
-110
-113
-115
-116
-110
-106
-107
-104
-96
-94
-100
-107
-109
-108
-106
-106
-108
-117
-122
-118
-112
-111
-114
-116
-113
-110
-112
-113
-110
-114
-122
-123
-126
-129
-114
-88
-72
-57
-39
-49
-77
-74
-65
-84
-80
-61
-93
-91
-72
-88
336
1275
1400
117
-946
-701
-150
-82
-113
-51
-55
-71
-40
-30
-43
-38
-23
-13
-12
-5
16
38
60
88
113
140
188
247
296
347
405
443
459
470
466
433
373
286
181
77
-8
-69
-111
-141
-154
-155
-163
-171
-159
-138
-132
-136
-138
-136
-131
-125
-124
-124
-121
-127
-142
-143
-138
-145
-151
-148
-153
-164
-170
-178
-187
-178
-154
-135
-121
-108
-103
-120
-140
-136
-137
-145
-114
-103
-148
-130
-116
-92
524
1526
1344
-199
-1122
-685
-158
-123
-119
-59
-75
-73
-40
-40
-39
-21
-14
-10
1
19
40
60
81
109
142
178
218
271
332
390
440
474
483
478
467
429
347
240
138
53
-16
-69
-104
-123
-134
-139
-134
-126
-123
-121
-117
-113
-107
-101
-104
-109
-107
-103
-106
-114
-119
-123
-125
-124
-124
-131
-135
-130
-125
-129
-134
-140
-152
-157
-145
-123
-100
-76
-58
-56
-75
-93
-90
-89
-96
-81
-80
-101
-84
-107
-29
642
1446
1048
-286
-837
-384
-68
-118
-104
-56
-79
-73
-55
-64
-53
-34
-37
-34
-19
-11
1
28
52
68
94
136
181
227
279
328
366
396
413
413
401
370
304
215
130
63
6
-41
-71
-88
-100
-106
-101
-92
-85
-80
-77
-76
-74
-74
-76
-78
-79
-84
-87
-92
-98
-100
-96
-97
-107
-117
-122
-124
-126
-130
-132
-130
-129
-136
-146
-146
-147
-158
-160
-138
-106
-81
-67
-65
-80
-104
-111
-111
-127
-121
-98
-114
-121
-115
-114
281
1127
1271
159
-796
-599
-129
-84
-107
-44
-60
-74
-35
-32
-44
-31
-25
-22
0
18
25
44
68
85
110
149
188
230
288
352
399
430
450
451
438
418
373
287
187
102
27
-43
-96
-122
-130
-134
-135
-130
-123
-123
-125
-127
-124
-119
-111
-102
-100
-108
-116
-118
-116
-117
-124
-125
-117
-120
-137
-140
-128
-127
-136
-134
-125
-122
-123
-133
-147
-146
-132
-120
-102
-69
-45
-45
-68
-84
-76
-80
-96
-74
-66
-95
-72
-79
12
741
1604
1118
-408
-1031
-492
-84
-96
-67
-20
-47
-39
-14
-21
-17
-8
-6
8
23
28
40
63
84
104
134
170
209
254
310
367
412
442
454
453
441
404
331
236
140
53
-15
-59
-85
-103
-116
-123
-122
-114
-106
-100
-96
-95
-99
-101
-99
-97
-96
-98
-104
-108
-110
-114
-116
-120
-134
-145
-143
-146
-157
-152
-136
-134
-143
-148
-151
-153
-152
-150
-151
-149
-142
-140
-147
-161
-163
-146
-123
-106
-82
-50
-44
-72
-85
-76
-84
-83
-59
-74
-82
-59
-102
155
1074
1604
628
-703
-801
-224
-53
-107
-47
-31
-71
-50
-20
-27
-32
-22
-7
1
3
20
51
75
92
113
142
186
243
296
348
406
457
483
484
477
464
425
345
234
120
21
-61
-124
-157
-165
-172
-178
-171
-159
-155
-154
-144
-129
-121
-121
-116
-109
-105
-103
-100
-101
-105
-104
-101
-101
-110
-121
-124
-116
-112
-118
-124
-121
-118
-123
-139
-152
-141
-120
-110
-97
-70
-49
-54
-78
-88
-84
-95
-93
-72
-91
-100
-91
-118
235
1167
1508
420
-736
-666
-147
-68
-130
-79
-68
-81
-62
-55
-48
-35
-35
-30
-17
-15
-10
13
37
54
76
110
147
192
246
301
347
386
412
418
407
379
325
244
149
60
-10
-59
-89
-105
-112
-117
-121
-121
-117
-111
-101
-87
-74
-72
-80
-82
-74
-68
-70
-71
-74
-84
-89
-86
-86
-87
-87
-93
-98
-95
-95
-96
-87
-85
-104
-117
-119
-129
-137
-124
-99
-71
-42
-33
-64
-93
-83
-72
-89
-81
-69
-101
-99
-88
-51
450
1282
1201
-11
-789
-469
-74
-95
-120
-72
-87
-85
-52
-56
-64
-50
-44
-47
-44
-37
-26
-11
5
23
51
85
120
160
207
257
305
337
350
356
353
325
266
184
95
22
-31
-74
-109
-127
-130
-130
-127
-116
-112
-118
-115
-101
-97
-101
-97
-88
-90
-97
-100
-97
-89
-87
-96
-105
-101
-94
-97
-98
-94
-99
-108
-103
-93
-93
-98
-100
-103
-113
-122
-110
-74
-41
-22
-6
-3
-23
-37
-32
-37
-30
-7
-27
-46
-25
-44
168
914
1368
587
-538
-659
-169
-1
-61
-33
-12
-35
-29
-17
-19
-11
-4
-4
1
8
17
37
68
94
113
139
171
207
253
297
323
344
370
383
377
358
318
244
149
64
1
-51
-95
-112
-112
-121
-130
-116
-105
-110
-103
-90
-101
-115
-110
-106
-114
-120
-127
-141
-148
-142
-140
-148
-159
-168
-171
-162
-146
-131
-131
-137
-141
-149
-154
-142
-130
-131
-121
-90
-68
-66
-81
-99
-99
-92
-101
-85
-54
-80
-90
-65
-88
176
944
1250
336
-674
-629
-150
-40
-84
-49
-46
-50
-14
-11
-32
-22
-5
5
20
34
40
51
73
96
118
147
183
215
248
289
329
353
359
355
356
351
306
225
145
77
14
-36
-66
-82
-92
-98
-100
-92
-80
-74
-73
-70
-73
-81
-84
-83
-83
-88
-100
-111
-119
-127
-133
-128
-121
-126
-140
-154
-155
-143
-139
-150
-159
-166
-174
-159
-124
-101
-86
-70
-82
-113
-115
-103
-116
-111
-84
-102
-115
-100
-120
133
844
1121
272
-671
-641
-192
-69
-95
-63
-69
-80
-46
-38
-46
-24
-6
-6
5
21
32
51
79
98
115
146
188
223
251
289
328
348
358
373
372
344
309
260
185
110
59
17
-19
-32
-32
-40
-47
-44
-39
-40
-45
-48
-52
-56
-56
-56
-61
-65
-67
-73
-75
-64
-58
-64
-71
-72
-71
-68
-73
-89
-95
-92
-99
-112
-108
-85
-62
-44
-23
-26
-61
-80
-77
-88
-88
-66
-82
-97
-73
-98
72
727
1123
413
-589
-689
-257
-98
-118
-82
-80
-104
-86
-73
-74
-65
-61
-60
-53
-45
-30
-9
-3
0
26
65
94
122
161
205
238
259
276
293
303
293
255
189
113
46
-9
-53
-85
-110
-124
-123
-118
-115
-103
-94
-96
-99
-98
-98
-93
-86
-90
-104
-109
-104
-102
-108
-107
-91
-79
-79
-79
-77
-84
-91
-86
-87
-99
-94
-66
-44
-32
-20
-29
-55
-58
-49
-57
-52
-36
-49
-49
-45
-67
215
899
1073
203
-636
-546
-138
-43
-58
-21
-24
-27
-4
-5
-15
-9
-2
7
22
28
25
34
58
80
94
116
154
194
222
246
283
317
328
327
325
309
265
198
125
63
18
-18
-52
-76
-84
-90
-96
-86
-75
-89
-104
-94
-86
-93
-99
-99
-101
-106
-107
-104
-110
-125
-130
-124
-121
-120
-118
-123
-130
-133
-143
-146
-118
-77
-53
-46
-49
-72
-97
-97
-95
-103
-85
-76
-102
-93
-95
-80
332
986
863
-137
-739
-456
-100
-77
-93
-57
-58
-59
-42
-36
-32
-29
-29
-17
-3
-3
4
29
43
50
78
121
150
175
216
261
290
307
320
331
331
302
245
182
120
54
2
-27
-52
-73
-77
-76
-78
-67
-53
-55
-58
-50
-46
-50
-50
-47
-47
-49
-51
-53
-54
-58
-56
-50
-49
-56
-61
-60
-64
-76
-87
-76
-47
-21
-9
-5
-18
-41
-47
-47
-61
-58
-56
-91
-95
-75
-86
204
891
1030
93
-771
-643
-196
-98
-123
-85
-82
-96
-86
-84
-81
-65
-58
-63
-66
-61
-46
-24
-7
-2
5
29
69
114
157
192
221
247
265
274
280
263
206
129
58
-5
-67
-119
-145
-150
-151
-149
-138
-131
-131
-126
-117
-111
-111
-112
-109
-99
-94
-98
-100
-100
-100
-99
-96
-96
-102
-105
-97
-99
-114
-108
-76
-53
-38
-21
-25
-50
-54
-46
-60
-56
-37
-62
-55
-29
-54
330
1295
1567
344
-890
-815
-236
-67
-61
1
-2
-17
13
18
10
31
46
45
51
70
93
112
125
143
174
213
249
293
347
394
428
461
481
474
453
420
357
269
172
76
-4
-52
-84
-113
-130
-133
-131
-132
-138
-150
-152
-146
-153
-164
-161
-163
-178
-181
-176
-184
-195
-198
-201
-205
-217
-234
-224
-191
-173
-167
-164
-184
-209
-201
-194
-210
-196
-177
-198
-181
-176
-188
279
1189
1240
20
-918
-693
-237
-172
-169
-118
-130
-131
-103
-105
-109
-94
-79
-63
-52
-47
-29
-5
10
34
78
120
156
204
262
311
342
364
381
383
373
346
281
188
106
48
-5
-54
-82
-91
-91
-87
-88
-93
-86
-69
-66
-75
-67
-53
-57
-67
-67
-68
-72
-67
-66
-80
-94
-97
-100
-113
-121
-103
-72
-48
-34
-32
-53
-72
-65
-65
-75
-58
-53
-76
-68
-89
9
647
1331
876
-353
-789
-337
-60
-122
-113
-66
-81
-73
-51
-51
-42
-32
-37
-30
-6
12
21
32
53
84
122
159
196
241
293
337
370
395
406
393
366
326
257
162
77
16
-33
-71
-92
-103
-109
-108
-105
-108
-110
-105
-102
-103
-103
-96
-92
-95
-102
-105
-101
-100
-107
-116
-118
-116
-114
-118
-130
-141
-148
-159
-159
-132
-97
-78
-64
-56
-75
-98
-91
-87
-104
-95
-88
-116
-107
-112
-88
413
1188
1020
-163
-819
-455
-86
-104
-115
-70
-83
-82
-67
-76
-73
-59
-52
-42
-33
-21
2
19
31
60
96
126
164
208
252
298
334
350
364
376
362
320
258
171
85
27
-17
-60
-89
-102
-110
-112
-111
-111
-109
-102
-99
-102
-103
-101
-99
-101
-103
-95
-91
-100
-110
-104
-98
-100
-98
-92
-96
-105
-100
-87
-85
-92
-93
-86
-84
-86
-82
-75
-78
-85
-85
-89
-103
-116
-110
-84
-54
-37
-21
-6
-19
-49
-52
-49
-60
-51
-46
-65
-50
-63
-15
515
1214
939
-198
-732
-355
-41
-68
-64
-22
-42
-43
-26
-34
-30
-8
1
3
11
24
36
48
71
102
131
161
201
244
284
321
352
375
393
403
397
370
320
254
180
106
42
-3
-31
-47
-55
-59
-63
-63
-66
-71
-64
-56
-62
-73
-70
-62
-63
-69
-69
-66
-70
-73
-69
-67
-74
-79
-80
-83
-83
-79
-80
-82
-78
-76
-83
-87
-84
-84
-88
-87
-78
-71
-73
-78
-76
-76
-81
-75
-67
-76
-79
-66
-63
-71
-65
-59
-67
-66
-58
-58
-58
-53
-54
-50
-43
-48
-50
-42
-43
-46
-39
-39
-47
-41
-29
-29
-33
-39
-42
-32
-25
-37
-46
-39
-34
-46
-59
-49
-13
16
18
12
19
27
6
-23
-27
-30
-39
-22
-21
-41
-29
-52
48
661
1266
799
-304
-647
-244
-24
-69
-44
-10
-33
-29
-11
-11
-1
8
9
21
31
28
35
56
76
90
108
138
176
209
236
267
297
315
325
335
335
318
290
247
180
107
52
8
-35
-69
-85
-82
-80
-90
-93
-85
-87
-94
-87
-78
-81
-87
-87
-86
-87
-91
-89
-82
-82
-91
-94
-91
-99
-106
-106
-110
-113
-105
-102
-109
-107
-98
-97
-101
-96
-89
-89
-92
-90
-86
-82
-80
-81
-79
-71
-68
-72
-74
-71
-69
-64
-56
-55
-60
-57
-53
-54
-50
-46
-49
-50
-45
-41
-36
-30
-38
-50
-43
-21
4
25
31
26
28
24
-5
-25
-19
-31
-42
-23
-31
-51
-38
-63
95
749
1216
583
-450
-627
-208
-33
-63
-33
-20
-40
-24
-10
-15
-8
0
0
2
10
25
38
43
64
99
122
135
164
207
254
301
341
373
397
409
407
384
334
261
182
105
35
-21
-61
-90
-105
-104
-99
-99
-102
-98
-85
-81
-89
-90
-78
-73
-76
-78
-80
-85
-93
-101
-98
-88
-94
-108
-107
-94
-91
-95
-97
-93
-91
-93
-89
-77
-75
-83
-81
-71
-70
-69
-63
-63
-70
-74
-74
-71
-68
-69
-72
-71
-66
-61
-63
-72
-79
-77
-74
-76
-84
-91
-89
-68
-35
-20
-29
-32
-24
-36
-73
-93
-90
-101
-103
-83
-108
-124
-88
-118
115
1016
1601
650
-798
-1029
-429
-142
-137
-82
-66
-87
-64
-52
-55
-35
-23
-25
-11
9
18
28
51
79
100
125
165
215
265
316
369
422
473
505
509
496
467
401
299
191
99
17
-52
-100
-129
-141
-139
-133
-128
-123
-119
-111
-98
-88
-86
-84
-76
-73
-79
-80
-74
-73
-77
-79
-80
-81
-82
-81
-82
-87
-91
-85
-78
-77
-78
-73
-70
-67
-62
-56
-57
-57
-53
-52
-56
-53
-26
9
29
33
39
44
35
17
6
6
5
-3
