# session 10
-34
-50
54
-36
-433
-718
-687
-623
-673
-724
-767
-853
-923
-940
-944
-949
-942
-925
-905
-888
-873
-867
-867
-864
-852
-834
-810
-768
-707
-649
-610
-583
-569
-562
-526
-473
-473
-483
-486
-592
-435
440
1104
355
-852
-931
-334
-144
-196
-121
-76
-84
-38
9
37
88
153
216
283
358
459
572
641
644
613
569
510
436
347
252
180
141
110
78
62
59
55
50
42
30
22
17
9
9
18
26
39
59
69
72
58
27
29
55
35
31
2
-152
134
1202
1649
380
-988
-834
-107
37
-24
68
94
67
96
114
127
172
213
262
345
428
502
582
638
649
620
558
479
380
256
132
40
-25
-67
-88
-98
-106
-113
-118
-124
-138
-161
-182
-186
-177
-178
-189
-183
-170
-173
-168
-169
-199
-197
-175
-208
-207
-216
-340
-11
1022
1311
-48
-1313
-1036
-299
-170
-221
-134
-120
-138
-91
-71
-74
-29
42
102
156
231
338
432
463
446
418
377
303
188
57
-47
-116
-166
-200
-214
-215
-219
-226
-225
-227
-243
-254
-250
-251
-255
-252
-251
-240
-205
-176
-173
-186
-205
-193
-162
-177
-186
-218
-361
-82
953
1425
296
-936
-784
-152
-59
-117
-36
-26
-41
6
30
43
89
131
171
235
311
386
452
482
470
436
396
337
252
157
74
12
-26
-45
-54
-65
-79
-89
-95
-105
-123
-139
-149
-160
-168
-170
-167
-148
-108
-84
-94
-116
-138
-145
-124
-125
-147
-151
-248
-256
383
1191
815
-435
-866
-364
-83
-161
-138
-85
-110
-94
-57
-51
-27
16
49
89
152
228
305
363
382
366
334
294
234
148
52
-23
-63
-86
-109
-126
-133
-143
-159
-165
-159
-158
-164
-165
-162
-163
-157
-146
-128
-91
-56
-54
-64
-76
-100
-89
-60
-82
-93
-145
-248
187
1213
1332
-35
-1058
-670
-79
-53
-80
4
-10
-23
31
49
54
95
143
191
256
330
404
472
510
511
496
467
392
273
148
43
-38
-87
-104
-120
-154
-177
-179
-195
-220
-217
-206
-217
-231
-236
-241
-243
-244
-238
-214
-198
-195
-183
-190
-219
-213
-214
-229
-208
-294
-283
507
1462
866
-851
-1444
-697
-148
-127
-94
-47
-65
-34
2
22
74
120
163
248
325
388
498
608
646
643
622
552
438
310
171
41
-48
-93
-112
-121
-137
-160
-170
-168
-172
-182
-186
-179
-175
-183
-185
-169
-165
-171
-151
-118
-107
-121
-140
-125
-102
-131
-128
-104
-210
10
983
1473
284
-1139
-1046
-257
-35
-85
-2
21
-2
42
70
72
109
158
205
262
328
404
483
531
535
513
476
418
324
203
90
11
-42
-75
-92
-104
-118
-126
-129
-138
-152
-164
-172
-180
-190
-197
-200
-202
-187
-148
-118
-121
-136
-159
-177
-157
-151
-179
-188
-282
-313
331
1257
970
-386
-956
-441
-100
-184
-172
-106
-127
-112
-69
-57
-29
18
55
102
166
237
312
371
386
359
315
266
200
110
13
-66
-120
-157
-184
-204
-217
-227
-235
-247
-257
-259
-263
-277
-290
-289
-285
-284
-273
-241
-196
-160
-152
-159
-177
-193
-175
-151
-165
-161
-208
-293
145
1115
1220
-42
-972
-610
-74
-63
-87
5
2
-8
52
86
101
140
183
228
297
381
464
540
590
595
566
524
463
366
249
141
58
6
-25
-50
-70
-77
-77
-85
-107
-124
-123
-123
-137
-143
-135
-141
-156
-158
-145
-120
-94
-87
-89
-99
-136
-139
-97
-106
-120
-138
-254
53
1117
1528
186
-1231
-1050
-262
-68
-108
-30
-17
-28
18
37
52
105
151
197
266
350
452
551
610
626
615
580
512
394
239
102
4
-66
-115
-145
-164
-170
-169
-178
-192
-200
-200
-201
-208
-222
-233
-239
-239
-239
-246
-250
-228
-194
-182
-187
-209
-235
-218
-203
-232
-224
-265
-327
219
1232
1118
-381
-1259
-737
-177
-180
-188
-107
-120
-113
-61
-48
-27
23
63
111
188
273
357
433
476
476
453
420
360
261
147
53
-14
-61
-84
-90
-90
-94
-98
-93
-89
-99
-110
-108
-108
-121
-129
-128
-136
-142
-133
-115
-87
-56
-46
-56
-80
-103
-86
-65
-87
-83
-118
-204
220
1193
1321
75
-876
-567
-71
-65
-99
-32
-41
-48
-9
4
18
60
96
133
189
254
326
395
433
429
397
353
290
196
83
-22
-100
-149
-180
-205
-224
-234
-240
-248
-254
-261
-269
-269
-259
-252
-256
-261
-266
-269
-266
-254
-238
-215
-172
-121
-103
-119
-140
-153
-137
-113
-128
-122
-127
-220
86
1054
1425
263
-963
-819
-168
-33
-77
2
21
6
45
67
77
120
168
216
276
344
427
520
589
620
628
615
561
449
306
181
84
0
-57
-81
-99
-123
-131
-126
-136
-162
-170
-166
-187
-206
-187
-172
-194
-204
-193
-202
-219
-217
-203
-184
-158
-140
-135
-159
-196
-176
-144
-174
-156
-140
-234
169
1260
1454
-86
-1422
-1100
-311
-127
-132
-60
-72
-69
-5
3
8
77
124
149
232
345
435
532
637
688
682
647
564
429
283
144
20
-60
-104
-142
-165
-172
-179
-181
-180
-186
-183
-173
-179
-189
-193
-204
-209
-189
-173
-178
-186
-182
-160
-134
-127
-127
-133
-147
-130
-117
-153
-130
-118
-189
251
1280
1336
-185
-1317
-878
-157
-68
-99
-10
-10
-27
16
41
55
94
139
185
250
330
412
492
552
573
558
522
462
362
232
109
16
-47
-85
-105
-115
-124
-126
-123
-127
-137
-142
-147
-154
-158
-162
-169
-174
-177
-181
-178
-174
-160
-120
-87
-98
-120
-135
-141
-121
-122
-142
-136
-209
-166
561
1402
906
-510
-977
-410
-86
-162
-140
-88
-114
-101
-67
-62
-36
8
39
80
141
210
282
344
375
371
342
293
219
115
0
-96
-166
-216
-251
-276
-293
-301
-306
-312
-315
-313
-307
-301
-299
-300
-297
-293
-289
-279
-274
-276
-258
-218
-174
-131
-111
-119
-114
-110
-132
-115
-83
-87
-59
-85
-81
579
1563
1232
-377
-1152
-559
-24
-17
3
67
44
61
107
117
146
197
237
291
367
456
560
670
744
765
752
719
643
506
347
212
105
24
-17
-35
-52
-59
-60
-78
-89
-78
-83
-106
-113
-109
-113
-125
-131
-124
-114
-112
-120
-137
-143
-107
-59
-55
-79
-97
-98
-79
-82
-111
-82
-108
-144
463
1483
1214
-507
-1468
-856
-172
-119
-113
-18
-33
-55
-15
12
21
39
78
142
211
282
377
477
536
551
544
514
437
306
150
16
-80
-149
-199
-231
-247
-253
-258
-262
-267
-274
-281
-284
-285
-293
-305
-311
-309
-310
-313
-308
-304
-299
-271
-238
-237
-255
-272
-266
-237
-247
-266
-243
-327
-281
506
1329
652
-876
-1225
-494
-124
-196
-152
-87
-107
-78
-34
-26
8
61
100
153
226
307
391
465
502
503
483
441
369
271
161
63
0
-33
-53
-67
-74
-78
-84
-88
-90
-91
-89
-87
-89
-91
-89
-88
-90
-85
-78
-80
-69
-31
-1
-8
-26
-45
-54
-29
-23
-47
-36
-108
-129
532
1475
1139
-332
-966
-392
37
-13
1
69
46
58
102
106
122
163
199
244
304
367
438
508
546
544
522
482
411
303
181
77
6
-42
-78
-106
-126
-138
-146
-155
-167
-175
-182
-189
-192
-192
-199
-208
-210
-212
-216
-214
-198
-164
-128
-126
-155
-180
-194
-185
-169
-186
-191
-205
-327
-155
685
1200
329
-865
-911
-337
-161
-210
-156
-135
-151
-118
-92
-81
-46
-7
32
91
163
245
334
412
461
479
468
429
351
230
106
18
-42
-92
-128
-145
-151
-159
-172
-178
-175
-172
-174
-176
-178
-178
-174
-175
-181
-183
-179
-170
-158
-151
-129
-90
-77
-99
-120
-133
-128
-106
-114
-112
-119
-220
54
1037
1480
282
-1128
-1093
-367
-119
-128
-51
-33
-52
-19
3
14
48
86
138
213
286
363
465
568
630
652
646
593
471
312
168
48
-52
-111
-135
-163
-193
-193
-180
-183
-190
-197
-221
-234
-212
-197
-219
-238
-227
-212
-206
-210
-218
-203
-164
-139
-129
-121
-141
-149
-100
-92
-125
-88
-117
-50
744
1630
939
-818
-1393
-634
-100
-83
-25
38
0
18
68
70
80
134
203
266
327
423
550
650
716
757
749
691
597
465
319
192
90
24
-14
-53
-91
-106
-109
-116
-121
-125
-140
-160
-168
-172
-187
-202
-198
-190
-194
-203
-205
-193
-166
-149
-155
-170
-191
-197
-173
-179
-202
-209
-307
-194
688
1516
795
-747
-1141
-492
-139
-176
-134
-90
-114
-88
-52
-43
-12
35
74
131
218
309
398
485
539
537
496
433
346
245
140
31
-56
-98
-123
-152
-167
-169
-172
-170
-166
-175
-185
-188
-198
-215
-230
-241
-253
-265
-268
-256
-236
-214
-189
-180
-195
-218
-240
-245
-226
-231
-243
-249
-336
-196
579
1164
413
-841
-1039
-475
-218
-240
-190
-152
-158
-125
-93
-77
-38
13
67
149
253
351
441
533
604
623
578
502
427
333
201
76
-11
-79
-126
-140
-143
-149
-150
-152
-160
-165
-165
-174
-184
-164
-145
-191
-261
-270
-249
-255
-251
-217
-195
-196
-201
-189
-171
-188
-196
-151
-134
-134
-116
-166
150
1245
1840
592
-1062
-1146
-344
-48
-52
107
207
151
99
106
160
190
188
297
503
607
620
736
961
1072
979
908
901
681
384
400
477
277
108
118
44
-22
98
187
147
116
98
87
118
136
166
224
170
60
78
40
-163
-165
83
140
-11
-84
-345
-1145
-1944
-1899
-1104
-308
18
-76
169
1358
2203
1155
-565
-979
-516
-297
-232
-183
-274
-271
-136
-153
-222
-158
-154
-269
-316
-319
-372
-386
-325
-283
-333
-400
-304
-92
-58
-264
-414
-316
-287
-631
-766
-124
423
30
-403
-38
416
337
52
-152
-249
-235
-214
-205
-126
-59
-35
83
260
334
338
405
487
328
-204
-706
-734
-635
-679
-209
770
987
143
-648
-713
-312
-126
-454
-548
-98
-32
-419
-356
-33
-40
-66
84
150
209
379
506
589
673
630
455
264
49
-205
-415
-509
-447
-239
-27
62
71
57
54
134
238
273
331
364
193
49
235
510
547
386
185
115
238
326
222
127
193
228
134
133
215
254
789
1880
1995
558
-578
-388
-11
-29
12
38
-92
-84
10
-26
-7
117
102
26
150
369
452
428
426
563
834
897
549
230
233
204
-9
-110
-81
-148
-288
-360
-356
-353
-385
-439
-505
-540
-519
-503
-523
-523
-502
-511
-569
-627
-572
-481
-506
-458
-340
-445
-135
1121
1703
367
-1136
-1169
-563
-262
-165
-194
-291
-276
-204
-169
-173
-210
-186
-114
-46
151
263
136
446
804
-301
-1744
-1187
170
254
-34
168
88
-132
134
309
60
-10
-37
-568
-988
-679
-266
-156
20
207
179
160
200
130
1
-85
243
1232
1679
494
-799
-746
-554
-655
-156
-688
-3157
-3915
-1461
442
242
92
468
540
615
899
1052
1070
1045
1109
1376
1462
1104
756
606
284
-56
47
328
343
267
289
278
248
255
194
149
159
23
105
581
239
-1069
-1274
-61
525
212
245
495
393
272
383
425
192
-116
-206
-137
-151
-190
-158
-208
-232
-2
100
14
643
1712
1421
-202
-1101
-747
-322
-242
-212
-227
-270
-299
-435
-562
-501
-435
-491
-537
-537
-455
-205
103
352
565
604
407
324
469
368
-51
-166
107
131
-164
-258
-111
-63
-118
-94
4
71
64
5
-62
-111
-139
-170
-205
-192
-107
-52
-163
-399
-556
-568
-561
-522
-382
-318
-140
780
1833
1396
-264
-1209
-1018
-715
-564
-333
-269
-426
-255
345
604
197
-160
-32
203
304
412
565
697
806
886
885
773
558
273
10
-123
-151
-195
-264
-279
-250
-261
-315
-328
-352
-480
-526
-348
-309
-684
-1125
-1228
-930
-344
167
265
149
169
273
297
265
310
372
238
431
1574
2259
978
-569
-595
-109
317
669
-393
-1960
-1284
490
703
188
282
354
198
308
537
533
381
390
602
651
408
251
319
297
119
54
128
107
-66
-222
-232
-160
-140
-196
-261
-267
-239
-315
-513
-670
-762
-853
-874
-871
-965
-1025
-977
-979
-987
-890
-780
-616
-433
-448
-105
1139
1938
943
-559
-877
-410
-63
74
51
-2
157
374
407
373
378
357
359
460
552
572
656
856
1006
991
851
649
429
233
127
184
302
250
50
-62
-49
-17
25
16
-195
-480
-546
-441
-362
-287
-213
-176
-105
-78
-165
-147
-11
-5
-90
-129
-134
-103
-125
44
999
1949
1108
-939
-1752
-1051
-448
-395
-338
-213
-199
-235
-209
-120
-73
-110
-96
62
277
408
459
584
790
864
761
691
723
695
522
320
206
168
120
37
-14
-10
-20
-48
-63
-102
-78
100
161
-103
-373
-420
-455
-544
-523
-447
-469
-477
-335
-217
-322
-562
-735
-533
253
939
503
-648
-1168
-860
-515
-385
-257
-175
-208
-219
-172
-158
-178
-182
-206
-329
-517
-601
-483
-247
-24
127
201
210
164
102
77
86
122
237
366
348
251
267
365
420
354
123
-54
84
284
231
121
141
176
215
297
315
232
157
159
195
199
172
73
105
932
2224
2129
283
-1113
-954
-517
-511
-352
37
194
100
39
60
54
84
200
179
-13
-35
168
387
632
813
690
457
437
489
374
170
34
-16
-51
-107
-152
-169
-134
-99
-247
-450
-346
-166
-348
-549
-424
-360
-541
-663
-667
-678
-696
-729
-740
-667
-600
-563
-565
-698
-465
570
1121
13
-1227
-970
-215
-136
-258
-173
-133
-121
-45
-38
-78
-56
-21
-10
27
154
379
548
514
430
476
550
542
515
466
347
227
135
10
-66
26
103
-40
-212
-211
-172
-171
-84
37
67
94
169
167
85
63
118
118
12
-48
1
23
-30
-150
-126
650
1787
1545
-180
-1246
-879
-364
-287
-234
-129
-69
-3
62
