# session 13
-49
-69
17
-57
-419
-732
-777
-747
-774
-778
-754
-750
-738
-708
-688
-677
-664
-647
-616
-581
-563
-547
-513
-463
-411
-381
-377
-374
-377
-372
-326
-297
-304
-309
-408
-364
407
1292
764
-765
-1297
-648
-186
-187
-135
-55
-77
-62
-8
6
26
79
135
195
271
354
434
509
568
597
588
543
470
372
256
147
67
21
-3
-15
-27
-42
-47
-45
-53
-68
-69
-70
-73
-56
-42
-68
-92
-73
-42
-16
-4
-39
-78
-50
-31
-61
-37
-74
-177
337
1438
1443
-184
-1374
-935
-163
0
-7
57
55
57
94
104
125
166
192
235
318
409
494
576
633
649
627
579
499
383
246
122
33
-32
-83
-113
-123
-127
-129
-126
-125
-134
-146
-153
-161
-172
-175
-176
-188
-185
-155
-137
-150
-169
-190
-193
-168
-173
-195
-234
-377
-232
648
1270
418
-839
-868
-240
-96
-188
-121
-93
-124
-89
-59
-58
-29
14
57
109
171
243
316
357
359
332
283
226
172
108
38
-15
-49
-75
-89
-92
-96
-105
-114
-121
-127
-135
-146
-158
-168
-173
-169
-159
-138
-102
-79
-89
-112
-135
-156
-148
-134
-150
-174
-273
-371
67
955
1004
-128
-904
-572
-132
-133
-155
-89
-93
-93
-58
-46
-28
12
45
89
158
233
302
367
413
420
387
339
290
228
144
58
-5
-38
-58
-80
-93
-101
-119
-129
-117
-118
-136
-136
-128
-139
-148
-138
-134
-144
-133
-89
-60
-71
-99
-123
-117
-90
-109
-137
-148
-280
-202
668
1436
588
-1014
-1321
-544
-125
-140
-86
-45
-74
-47
-2
21
65
108
142
205
293
386
484
575
628
625
585
533
448
316
187
103
30
-42
-84
-104
-122
-126
-118
-117
-119
-126
-148
-164
-141
-119
-144
-172
-160
-149
-149
-125
-103
-116
-147
-168
-149
-116
-139
-157
-155
-229
6
884
1287
127
-1286
-1266
-475
-152
-148
-72
-45
-57
-8
30
36
75
132
181
249
345
456
580
688
725
695
645
579
476
350
224
107
19
-31
-63
-90
-101
-108
-118
-118
-117
-131
-147
-150
-148
-157
-172
-180
-180
-169
-139
-112
-120
-141
-153
-155
-132
-119
-141
-141
-207
-285
239
1229
1119
-419
-1427
-1002
-436
-429
-457
-373
-371
-355
-277
-234
-202
-138
-74
-20
44
133
261
395
477
505
496
441
356
276
193
92
12
-25
-43
-56
-59
-52
-43
-38
-37
-32
-28
-34
-43
-49
-65
-80
-79
-76
-74
-57
-45
-66
-89
-96
-109
-107
-95
-117
-130
-170
-233
162
1053
1174
2
-930
-654
-143
-90
-107
-42
-48
-49
-5
7
10
42
78
118
177
251
347
452
527
546
518
464
394
306
210
119
35
-33
-70
-83
-93
-102
-103
-101
-100
-99
-101
-110
-119
-125
-135
-150
-158
-150
-133
-115
-96
-87
-95
-104
-115
-134
-133
-130
-147
-140
-182
-175
389
1215
949
-400
-1091
-631
-186
-182
-168
-97
-101
-94
-57
-42
-29
0
39
101
184
279
383
489
576
610
573
494
404
296
177
74
-15
-98
-158
-184
-193
-195
-194
-187
-181
-186
-193
-193
-195
-210
-230
-246
-255
-251
-243
-247
-240
-200
-174
-188
-205
-221
-238
-213
-195
-226
-231
-284
-212
606
1629
1134
-631
-1425
-820
-299
-280
-209
-105
-146
-170
-112
-62
-39
-21
-1
43
127
245
382
498
553
569
562
480
341
248
182
72
-34
-101
-173
-207
-151
-94
-96
-94
-52
-16
-42
-116
-143
-122
-147
-159
-83
-35
-94
-184
-225
-158
-36
1
-13
14
-7
-72
-29
88
160
181
145
343
1172
1907
1309
-89
-645
-224
164
216
211
226
211
188
216
218
52
-89
156
688
1047
865
129
-411
36
725
579
295
577
548
62
127
492
294
-110
-249
-417
-656
-637
-410
-297
-323
-271
-169
-208
-333
-398
-468
-605
-695
-670
-659
-695
-664
-662
-748
-641
-447
-613
-746
-411
-316
-661
-508
85
459
973
1397
693
-433
-604
-316
-388
-460
-347
-376
-470
-368
-141
-5
-13
24
145
157
221
555
679
321
81
137
56
-10
185
232
19
-92
-118
-243
-391
-398
-124
165
-98
-617
-526
36
258
52
-79
64
198
142
128
165
118
523
1451
1469
59
-1102
-1020
-565
-288
23
226
175
170
240
114
15
256
407
188
217
675
846
698
849
1045
788
531
617
576
272
119
154
92
-20
17
80
34
38
83
38
107
269
72
-348
-445
-264
-133
-167
-317
-246
15
-256
-869
-732
-96
32
-117
-185
-468
-569
-106
126
-216
-382
-199
-112
-145
-216
-344
-362
-304
-236
234
862
464
-865
-1496
-976
-394
-252
-242
-262
-276
-191
-127
-57
104
61
-119
112
535
543
421
544
617
573
614
630
559
517
432
272
204
221
126
-40
-60
-1
-67
-101
66
122
-128
-336
-318
-313
-343
-255
-194
-269
-270
-208
-298
-361
-263
-309
-438
-315
-212
-321
-229
-55
-107
395
1568
1591
-61
-1230
-827
-130
56
66
32
-29
4
24
-20
-31
-45
-21
149
286
279
365
615
812
865
861
815
640
375
206
78
-192
-344
-94
208
218
96
-62
-240
-188
63
134
25
0
25
-19
-49
-22
-15
-52
-97
-122
-154
-276
-425
-416
-371
-504
-592
-530
-506
-37
1135
1420
-201
-1688
-1229
-155
-104
-657
-876
-606
-217
-87
-156
-194
-205
-169
-36
29
-5
68
247
349
324
192
3
-137
-202
-228
-192
-136
-171
-229
-175
-78
-22
53
85
9
45
277
355
95
-124
60
368
341
147
151
173
30
-14
89
101
82
152
188
114
-36
122
1148
2261
1710
-122
-974
-430
32
29
170
323
240
262
330
80
-210
-237
-216
-180
-72
-57
22
411
763
738
563
484
439
352
258
194
143
38
-122
-195
-135
-127
-250
-368
-466
-593
-600
-456
-385
-413
-402
-431
-517
-519
-534
-630
-573
-426
-473
-504
-286
-117
-146
-210
-273
19
986
1591
705
-635
-862
-359
-124
-125
-103
-107
-121
-123
-133
-136
-158
-135
-29
-65
-221
-90
291
541
700
818
686
553
724
770
401
25
-194
-414
-487
-322
-174
-176
-215
-188
-94
-22
-38
-93
-138
-175
-191
-196
-225
-298
-387
-448
-480
-441
-255
-86
-106
-99
-41
-46
587
1926
2019
165
-1238
-877
-255
-181
-68
11
-125
-23
242
207
71
145
234
239
336
501
613
740
870
880
898
974
863
703
629
108
-691
-654
36
152
-216
-259
-132
-230
-364
-392
-448
-495
-405
-282
-251
-273
-367
-538
-559
-356
-232
-299
-292
-179
-202
-272
-219
-195
40
876
1405
524
-816
-1071
-498
-145
-188
-310
-366
-350
-274
-130
33
75
5
-12
73
196
311
381
440
528
542
462
486
603
553
332
172
92
-3
-42
-26
-115
-236
-215
-190
-263
-208
-123
-404
-770
-635
-264
-168
-188
-130
-119
-108
-33
18
66
-8
-329
-484
-331
-366
-333
242
405
-449
-1014
-537
1
30
-7
51
39
37
78
23
21
118
-145
-590
-318
472
827
869
1099
1236
1102
1002
952
703
313
105
153
96
-241
-461
-319
-125
-82
-76
-10
197
435
408
235
232
259
198
203
170
31
-18
-32
20
280
126
-715
-1125
-677
-39
899
1760
992
-855
-1455
-729
-266
-325
-317
-179
-121
-221
-350
-352
-326
-314
-129
130
197
219
373
437
320
258
273
226
152
85
-23
-162
-339
-506
-550
-604
-774
-765
-481
-297
-368
-471
-464
-350
-149
66
111
-72
-151
77
247
122
-60
-161
-195
-179
-177
-122
-41
-4
574
1750
1855
234
-1078
-841
-262
-168
-114
10
-2
-26
-72
-308
-484
-298
0
97
153
364
600
728
830
972
1059
932
550
139
-18
25
23
-7
103
257
185
-84
-250
-205
-94
-6
35
0
-78
-126
-91
-3
-21
-172
-266
-277
-340
-354
-236
-248
-416
-413
-388
-483
78
1236
1234
-189
-1022
-663
-301
-121
249
330
-34
-237
-150
-74
-4
104
141
153
187
190
239
360
409
409
467
452
211
-103
-268
-317
-342
-313
-259
-268
-285
-273
-308
-354
-272
-99
-29
-117
-219
-284
-387
-401
-196
-51
-165
-247
-168
-126
-130
-115
-126
-206
-334
-36
1051
1733
705
-856
-1122
-521
-283
-369
-302
-126
-25
-6
0
43
128
204
236
298
443
576
669
785
784
528
274
328
493
402
180
174
296
270
140
77
104
145
127
84
82
68
2
-60
-103
-66
123
260
121
-133
-253
-229
-123
-4
-18
-132
-176
-234
-164
671
1714
1162
-743
-1639
-1063
-581
-562
-376
-162
-187
-215
-179
-187
-173
-155
-208
-183
-26
97
199
361
460
442
350
161
8
54
72
-136
-361
-462
-539
-581
-524
-450
-406
-329
-207
-112
-100
-99
46
308
463
423
287
104
-58
-89
-24
38
75
26
-55
-27
-33
39
761
1570
1027
-436
-1051
-642
-222
-190
-434
-661
-579
-408
-423
-413
-251
-102
-9
68
113
162
297
554
792
758
494
314
286
200
7
-86
-8
12
-139
-249
-212
-179
-194
-189
-175
-189
-203
-180
-137
-119
-81
19
58
-76
-230
-199
-35
53
-22
-144
-190
-237
-106
739
1758
1353
-306
-1151
-656
-117
8
116
180
114
95
138
179
256
342
401
495
599
625
667
846
1024
1042
947
835
720
571
387
227
16
-329
-514
-339
-167
-154
-76
-135
-521
-802
-725
-499
-269
-203
-435
-674
-628
-462
-433
-506
-513
-466
-452
-386
-329
-470
-355
524
1202
454
-857
-1179
-759
-531
-485
-416
-386
-342
-340
-475
-523
-377
-183
82
333
272
27
23
254
404
354
225
161
126
6
-117
-139
-148
-197
-218
-188
-120
-62
-64
-41
52
75
23
26
29
-24
-78
-195
-289
-64
345
486
393
405
467
309
-67
-332
16
981
1526
947
200
226
381
57
-158
119
425
427
253
101
41
27
53
158
225
189
213
335
405
401
403
410
398
395
403
365
239
81
-46
-146
-196
-146
-60
-44
-79
-72
-7
26
-46
-117
-51
32
-32
-132
-140
-156
-218
-201
-142
-139
-127
-158
-188
323
1212
1100
-211
-1070
-804
-367
-262
-276
-341
-383
-391
-547
-726
-680
-563
-435
-31
534
857
842
516
22
-237
-185
-169
-253
-241
-175
-255
-523
-809
-851
-600
-351
-324
-375
-365
-351
-318
-265
-282
-269
-167
-222
-422
-480
-458
-525
-654
-832
-747
-124
342
34
-249
347
1155
996
-6
-639
-452
-173
-177
-164
-172
-304
-213
75
111
33
230
491
507
451
530
671
775
871
961
974
917
834
693
519
415
280
-5
-173
28
331
386
228
65
16
47
36
-60
-166
-166
-46
-29
-206
-278
-158
-95
-66
4
-18
-121
-257
-92
989
2108
1382
-519
-1180
-547
-121
-73
7
24
0
43
36
-46
-106
-75
86
259
274
238
352
541
619
617
637
624
486
288
135
-10
-210
-335
-282
-231
-253
-184
-137
-271
-316
-129
3
-19
-48
-79
-112
-86
-67
-128
-175
-159
-177
-231
-233
-284
-416
-156
673
1081
205
-1054
-1165
-232
305
-87
-553
-541
-422
-471
-536
-529
-493
-437
-381
-347
-279
-113
38
16
-47
68
210
130
-50
-94
-47
-19
-2
-10
-48
-42
2
1
-34
-92
-215
-328
-383
-474
-495
-301
-183
-328
-438
-432
-461
-396
-266
-276
-263
-242
-296
265
1372
1345
-49
-847
-431
-28
-35
6
84
80
131
210
211
198
239
316
399
477
577
698
788
848
871
829
792
778
606
236
-81
-206
-260
-279
-156
45
103
-17
-111
-59
13
-30
-124
-146
-97
-60
-69
-81
-82
-103
-97
-75
-117
-143
-144
-148
393
1576
1885
515
-837
-816
-274
-86
-46
-24
-108
-178
-173
-163
-140
-113
-120
-113
-54
27
150
319
465
582
671
630
495
431
390
276
170
84
-48
-148
-163
-121
-10
88
76
47
64
48
30
77
101
38
-31
-74
-136
-199
-246
-280
-258
-301
-495
-303
510
759
-289
-1280
-1091
-549
-503
-656
-670
-616
-570
-534
-469
-354
-247
-162
-142
-295
-440
-296
-24
125
264
426
434
331
250
150
25
-64
-124
-163
-194
-264
-360
-431
-483
-518
-492
-388
-275
-228
-222
-205
-171
-126
-107
-134
-128
-87
-83
-74
-99
-36
695
1790
1621
-1
-1090
-788
-236
-70
28
105
102
158
237
249
265
284
279
345
449
486
573
742
838
914
932
586
109
96
416
511
322
120
11
-40
-69
-71
-56
-54
-60
-79
-122
-140
-76
7
3
-42
-17
14
-14
8
78
69
-47
-231
-67
946
1863
1142
-465
-978
-481
-219
-257
-195
-148
-185
-203
-224
-254
-245
-219
-197
-169
-117
7
176
298
398
538
652
629
415
142
26
-68
-349
-451
-76
301
293
176
165
151
120
114
79
45
68
64
-17
-73
-43
17
-6
-172
-328
-329
-384
-395
314
1277
847
-795
-1608
-1163
-747
-739
-701
-617
-540
-383
-280
-300
-273
-189
-195
-273
-296
-199
-3
192
278
239
157
143
197
167
0
-164
-246
-296
-337
-389
-475
-539
-547
-511
-432
-382
-435
-473
-409
-355
-334
-244
-144
-144
-143
-60
-32
-103
-33
207
282
153
25
-251
-680
-739
-314
76
203
239
280
336
388
392
372
371
408
451
439
497
751
826
489
352
737
1016
934
883
838
561
265
138
75
44
49
13
-12
53
69
-109
-373
-508
-461
-422
-480
-379
-48
141
126
168
166
26
-56
-19
480
1653
2157
865
-645
-635
42
156
-3
-19
-16
-2
35
-23
-120
-130
-88
-44
29
133
246
356
434
450
464
552
596
432
101
-272
-561
-610
-541
-622
-611
-195
250
374
393
382
245
155
171
115
12
21
112
114
-80
-343
-475
-567
-743
-561
363
1103
389
-1088
-1564
-1032
-713
-782
-743
-631
-618
-604
-527
-500
-665
-938
-1066
-1054
-1035
-797
-169
