# session 32
-25
-46
44
-24
-387
-695
-718
-661
-672
-663
-622
-605
-588
-558
-538
-523
-502
-482
-465
-446
-428
-413
-398
-382
-368
-354
-342
-330
-315
-296
-281
-269
-255
-239
-228
-215
-197
-179
-166
-155
-141
-127
-116
-105
-90
-79
-76
-73
-68
-66
-65
-50
-18
13
35
56
69
56
38
48
55
43
61
75
50
60
46
60
588
1416
1259
32
-660
-293
83
65
62
112
93
92
118
116
117
129
128
127
137
149
161
173
187
206
226
249
279
310
343
382
425
460
479
482
479
474
449
390
303
209
124
56
2
-44
-78
-96
-101
-101
-101
-102
-108
-116
-124
-132
-138
-143
-153
-165
-171
-171
-176
-187
-197
-204
-211
-219
-227
-231
-232
-235
-240
-240
-234
-231
-233
-238
-243
-247
-250
-255
-256
-243
-217
-192
-178
-169
-170
-188
-197
-185
-189
-190
-163
-166
-176
-136
-161
-17
780
1491
803
-606
-982
-424
-103
-114
-70
-35
-55
-36
-15
-17
-6
10
16
26
39
54
78
99
115
137
171
203
234
276
325
372
419
460
484
494
496
483
441
367
271
175
94
29
-20
-49
-63
-67
-66
-60
-55
-54
-52
-49
-50
-52
-51
-50
-55
-62
-66
-69
-76
-84
-88
-90
-94
-101
-105
-105
-106
-109
-109
-107
-106
-107
-107
-106
-110
-117
-125
-132
-140
-140
-124
-96
-71
-55
-49
-61
-82
-86
-83
-97
-90
-68
-91
-97
-89
-118
234
1127
1388
296
-758
-619
-127
-77
-124
-61
-59
-78
-52
-46
-50
-39
-37
-37
-26
-18
-10
10
30
49
75
106
137
173
214
254
298
341
374
392
402
397
367
309
230
139
56
-9
-62
-103
-125
-135
-140
-141
-135
-129
-126
-119
-115
-115
-113
-108
-109
-114
-115
-115
-123
-130
-130
-131
-135
-137
-139
-140
-139
-139
-144
-145
-142
-140
-137
-134
-136
-143
-149
-155
-161
-155
-132
-103
-81
-66
-66
-87
-105
-98
-98
-113
-96
-82
-108
-99
-107
-78
478
1332
1154
-134
-850
-459
-73
-105
-112
-58
-80
-79
-45
-45
-45
-29
-22
-15
-2
8
17
33
54
77
103
134
173
215
257
304
356
398
422
435
441
432
396
327
237
148
71
11
-32
-63
-83
-93
-94
-92
-90
-87
-84
-77
-71
-69
-68
-66
-65
-66
-65
-63
-66
-70
-71
-74
-77
-77
-76
-78
-79
-77
-77
-79
-78
-74
-74
-78
-82
-86
-93
-103
-97
-71
-40
-18
-3
-3
-23
-40
-33
-29
-32
-11
-8
-28
-9
-33
37
667
1407
998
-275
-774
-312
5
-42
-34
2
-27
-20
0
-13
-13
-2
-3
-4
1
3
10
21
35
53
77
105
136
173
214
258
300
339
369
381
373
354
319
250
150
49
-31
-95
-148
-185
-203
-212
-219
-221
-219
-218
-215
-212
-220
-230
-227
-224
-231
-237
-245
-260
-269
-276
-291
-290
-282
-295
-311
-321
-329
-310
-289
-317
-342
-312
-278
-266
-230
-179
-170
-200
-212
-204
-209
-197
-157
-163
-169
-135
-173
9
772
1258
471
-672
-787
-276
-76
-92
-12
54
51
71
133
189
205
195
188
193
227
272
274
280
355
427
410
358
362
431
510
569
609
602
554
524
520
497
442
374
308
252
196
132
83
37
-26
-37
12
12
-32
-35
-23
-20
-20
-38
-66
-114
-170
-136
-43
-28
-44
-14
-6
-45
-71
-78
-86
-88
-83
-81
-77
-64
-57
-78
-132
-192
-224
-239
-275
-311
-319
-339
-364
-387
-448
-293
317
702
96
-830
-987
-567
-307
-288
-288
-294
-349
-390
-334
-212
-122
-70
-27
-3
25
80
127
159
197
232
259
295
329
340
356
391
382
296
240
280
290
191
120
113
49
-25
-17
-33
-95
-76
-4
27
50
88
104
106
114
118
118
116
104
94
101
89
29
-41
-84
-134
-190
-194
-151
-116
-103
-119
-178
-241
-269
-272
-281
-313
-307
-219
-184
-284
-325
-246
-171
148
831
1085
383
-390
-370
32
212
235
257
251
252
274
261
222
189
150
104
58
5
-37
-54
-75
-109
-127
-118
-98
-76
-40
12
59
85
109
141
164
179
204
211
159
72
-6
-62
-97
-113
-127
-137
-133
-127
-127
-124
-117
-114
-114
-115
-118
-116
-110
-103
-91
-85
-94
-98
-83
-69
-66
-70
-76
-91
-131
-178
-183
-165
-172
-165
-121
-120
-135
-103
-112
7
573
1031
526
-417
-669
-331
-120
-100
-71
-57
-67
-55
-42
-37
-28
-21
-14
-5
2
10
26
42
55
75
103
127
147
178
219
256
291
331
362
373
370
352
311
246
170
94
31
-15
-49
-75
-97
-108
-112
-119
-126
-117
-100
-92
-94
-99
-102
-98
-92
-95
-94
-75
-51
-40
-33
-27
-30
-44
-61
-70
-63
-62
-69
-59
-55
-68
-46
-55
-44
375
1022
906
-41
-621
-401
-106
-74
-66
-37
-50
-51
-39
-48
-53
-48
-50
-51
-44
-39
-34
-23
-8
7
28
56
88
124
164
205
245
282
314
328
327
313
276
207
124
48
-15
-66
-100
-121
-137
-150
-157
-159
-161
-161
-157
-155
-155
-153
-146
-140
-142
-143
-127
-101
-89
-88
-83
-76
-86
-110
-129
-131
-127
-136
-136
-118
-125
-130
-117
-154
-15
581
1004
442
-476
-636
-259
-92
-116
-93
-79
-94
-83
-74
-78
-73
-67
-67
-63
-53
-42
-30
-13
11
39
63
89
124
164
206
251
293
325
346
358
356
330
277
206
132
65
12
-29
-58
-74
-81
-86
-88
-83
-78
-78
-79
-76
-73
-73
-71
-71
-73
-59
-36
-28
-30
-24
-21
-34
-60
-84
-91
-90
-102
-105
-88
-97
-111
-98
-131
0
594
1046
509
-429
-622
-253
-81
-105
-78
-61
-78
-67
-58
-64
-58
-51
-54
-50
-42
-42
-36
-15
4
16
34
60
91
130
174
211
240
265
285
295
291
263
208
132
51
-19
-69
-104
-129
-145
-154
-157
-154
-146
-140
-136
-130
-122
-112
-103
-99
-99
-100
-101
-95
-71
-44
-36
-34
-25
-27
-47
-72
-88
-85
-85
-100
-89
-75
-106
-101
-85
-91
328
1175
1221
38
-858
-595
-128
-90
-111
-52
-58
-68
-43
-37
-37
-25
-19
-13
-1
9
24
46
65
83
109
142
178
218
269
326
374
412
440
450
442
418
368
278
165
64
-12
-73
-120
-148
-162
-173
-180
-177
-171
-166
-156
-146
-139
-133
-126
-123
-122
-122
-122
-123
-131
-143
-135
-108
-91
-85
-76
-77
-101
-129
-131
-119
-134
-155
-135
-137
-168
-152
-182
-54
747
1536
897
-570
-997
-435
-145
-206
-170
-129
-159
-146
-127
-137
-128
-112
-110
-100
-82
-68
-52
-29
1
34
69
109
155
207
266
323
368
403
429
435
420
382
308
204
97
11
-56
-106
-137
-153
-164
-171
-172
-168
-162
-155
-147
-139
-129
-119
-113
-110
-108
-104
-102
-103
-99
-99
-108
-114
-115
-126
-141
-131
-98
-70
-53
-41
-39
-60
-87
-85
-77
-93
-89
-67
-91
-98
-90
-109
296
1249
1472
268
-813
-613
-98
-68
-114
-44
-51
-72
-39
-32
-40
-27
-19
-18
-8
2
13
33
54
77
106
139
178
220
265
317
372
417
446
464
471
457
410
328
228
134
54
-10
-53
-79
-96
-101
-99
-99
-101
-95
-85
-80
-78
-73
-69
-67
-66
-65
-65
-64
-64
-64
-66
-71
-76
-79
-81
-82
-83
-84
-81
-77
-75
-75
-73
-74
-75
-73
-70
-70
-70
-68
-66
-65
-62
-60
-62
-63
-61
-63
-67
-67
-67
-68
-68
-63
-61
-61
-58
-56
-56
-54
-49
-48
-51
-51
-48
-48
-48
-43
-39
-40
-41
-37
-37
-38
-38
-39
-40
-39
-38
-39
-38
-38
-39
-39
-37
-37
-39
-39
-38
-37
-38
-39
-39
-40
-45
-53
-48
-20
15
29
19
8
12
11
-11
-22
-23
-41
-37
-16
-46
-58
-42
-52
343
1252
1446
311
-660
-457
-37
-66
-113
-45
-58
-75
-42
-41
-51
-40
-37
-38
-26
-13
-2
14
33
54
80
107
134
165
202
240
277
313
345
370
388
399
401
388
351
290
216
144
83
33
-4
-28
-43
-53
-60
-63
-65
-70
-74
-74
-76
-82
-87
-91
-95
-99
-102
-106
-111
-115
-117
-117
-120
-124
-128
-131
-132
-131
-129
-128
-130
-129
-125
-123
-123
-121
-118
-118
-118
-116
-111
-108
-107
-107
-105
-101
-97
-96
-95
-95
-94
-94
-92
-88
-85
-83
-82
-78
-75
-73
-71
-69
-68
-67
-66
-66
-65
-63
-63
-62
-59
-54
-54
-56
-57
-62
-70
-62
-30
1
13
12
10
13
8
-16
-29
-28
-43
-42
-23
-49
-59
-43
-60
295
1197
1479
401
-650
-522
-60
-39
-92
-28
-32
-47
-14
-9
-16
-3
3
5
16
26
34
51
70
88
113
142
170
202
244
289
333
378
418
446
458
456
441
403
337
252
164
87
25
-23
-57
-79
-91
-96
-95
-94
-92
-90
-87
-84
-81
-81
-83
-83
-82
-81
-82
-83
-86
-90
-92
-94
-96
-99
-102
-102
-103
-104
-104
-105
-107
-109
-105
-102
-103
-103
-101
-101
-100
-97
-95
-95
-96
-96
-97
-95
-92
-90
-90
-91
-90
-89
-89
-90
-90
-89
-91
-91
-87
-83
-81
-79
-78
-78
-77
-76
-74
-72
-73
-77
-79
-85
-85
-63
-28
-9
-9
-12
-10
-11
-30
-50
-51
-60
-68
-45
-50
-77
-61
-87
57
812
1488
856
-424
-728
-234
-34
-107
-70
-42
-71
-52
-32
-43
-36
-24
-25
-19
-6
4
17
36
54
74
97
125
160
201
246
294
341
386
423
447
455
449
423
368
287
196
109
35
-19
-54
-80
-95
-100
-100
-97
-91
-86
-84
-82
-77
-74
-76
-76
-71
-66
-68
-71
-73
-76
-79
-79
-80
-82
-84
-86
-88
-90
-89
-86
-83
-82
-80
-79
-79
-78
-76
-78
-78
-73
-72
-77
-79
-74
-71
-72
-73
-73
-73
-74
-74
-73
-73
-72
-72
-71
-71
-68
-65
-65
-67
-64
-63
-67
-65
-60
-64
-69
-68
-69
-67
-43
-9
6
3
2
4
-4
-27
-42
-43
-55
-57
-37
-53
-69
-52
-84
147
958
1440
605
-551
-640
-155
-30
-86
-34
-19
-41
-17
-5
-13
0
11
13
22
32
41
53
67
86
109
128
148
179
217
260
309
355
391
424
453
464
452
422
364
277
186
104
21
-55
-103
-127
-143
-153
-159
-160
-155
-149
-147
-150
-148
-147
-153
-156
-149
-148
-155
-156
-152
-155
-164
-170
-168
-162
-160
-165
-170
-169
-167
-166
-164
-155
-147
-148
-153
-146
-133
-132
-138
-131
-118
-120
-127
-123
-116
-119
-126
-123
-106
-77
-48
-32
-32
-38
-44
-61
-82
-82
-78
-92
-82
-63
-88
-80
-63
-72
396
1393
1532
202
-926
-717
-164
-66
-71
-9
-17
-24
7
9
7
25
32
38
49
55
63
81
100
117
138
167
201
239
281
333
394
454
503
536
552
552
530
472
374
253
138
42
-32
-86
-120
-140
-150
-154
-153
-148
-142
-138
-137
-136
-135
-135
-137
-140
-141
-140
-139
-142
-146
-148
-149
-151
-157
-161
-161
-159
-159
-158
-156
-158
-158
-153
-148
-150
-156
-162
-168
-170
-157
-133
-106
-82
-65
-71
-97
-103
-95
-107
-103
-78
-97
-110
-94
-106
244
1153
1473
392
-733
-639
-129
-69
-127
-65
-63
-83
-51
-42
-51
-40
-34
-35
-24
-12
-5
8
27
48
72
101
134
173
220
274
331
387
434
464
478
477
450
386
291
185
86
6
-54
-95
-125
-141
-146
-144
-142
-140
-136
-128
-121
-117
-118
-116
-114
-115
-118
-118
-117
-119
-121
-122
-123
-125
-125
-127
-128
-127
-125
-123
-126
-132
-135
-137
-146
-151
-138
-111
-80
-59
-52
-63
-86
-90
-81
-91
-89
-65
-81
-96
-80
-109
176
1067
1506
507
-719
-729
-177
-54
-116
-62
-50
-70
-42
-32
-40
-28
-21
-21
-10
2
8
21
39
58
82
110
144
182
226
278
334
386
427
457
472
468
441
378
283
179
85
5
-57
-99
-126
-140
-146
-146
-143
-137
-132
-128
-123
-121
-122
-124
-126
-128
-129
-129
-130
-131
-131
-132
-135
-136
-137
-139
-142
-141
-138
-137
-134
-131
-134
-140
-143
-148
-157
-155
-134
-103
-78
-63
-63
-83
-99
-90
-88
-95
-76
-75
-99
-80
-96
14
727
1480
949
-419
-870
-344
-39
-100
-79
-36
-67
-57
-29
-32
-27
-15
-13
-3
10
16
28
46
63
84
113
144
178
219
269
320
369
414
448
465
468
453
409
334
239
141
56
-8
-53
-86
-106
-110
-109
-111
-108
-99
-93
-93
-93
-93
-97
-99
-98
-100
-103
-105
-109
-113
-117
-119
-120
-121
-124
-128
-131
-131
-133
-135
-134
-131
-130
-128
-126
-126
-127
-130
-138
-148
-150
-136
-111
-86
-64
-53
-67
-93
-95
-88
-99
-90
-76
-100
-95
-95
-110
334
1227
1282
58
-867
-591
-114
-84
-108
-54
-66
-69
-37
-37
-42
-29
-23
-17
-5
0
7
24
41
59
84
113
142
176
218
268
321
366
402
425
435
430
407
356
275
180
94
25
-29
-69
-93
-107
-115
-114
-107
-102
-99
-94
-94
-98
-98
-96
-98
-101
-100
-100
-103
-105
-104
-105
-107
-108
-109
-111
-113
-112
-109
-109
-110
-108
-104
-100
-97
-97
-97
-96
-94
-97
-101
-104
-109
-118
-114
-88
-59
-39
-24
-23
-48
-66
-58
-62
-70
-48
-52
-71
-50
-84
38
756
1410
793
-485
-809
-294
-36
-84
-54
-26
-55
-38
-13
-20
-15
-3
-2
5
13
17
27
44
58
74
101
131
161
199
247
293
334
370
398
416
424
417
386
326
237
140
57
-13
-70
-108
-129
-143
-148
-145
-144
-145
-140
-131
-127
-129
-130
-126
-124
-126
-127
-126
-125
-128
-132
-132
-127
-127
-133
-132
-121
-115
-115
-111
