# session 14
-67
-15
-140
-42
477
919
1016
1073
1138
1035
940
1027
1088
940
710
600
610
572
448
380
401
391
312
230
171
100
-21
-154
-174
-69
-28
-146
-281
-355
-396
-324
-264
-397
-96
1027
1568
545
-577
-612
-394
-484
-480
-426
-442
-210
167
280
221
223
238
260
315
306
303
385
394
377
440
208
-305
-395
-118
-175
-421
-398
-308
-307
-206
-66
-68
-114
-58
18
-29
-115
-82
-48
-136
-161
-31
4
-170
-271
-164
-196
-194
704
1862
1319
-553
-1366
-811
-363
-345
-301
-254
-259
-224
-193
-191
-209
-256
-258
-162
-21
141
301
410
489
563
618
645
604
463
281
131
79
120
46
-260
-538
-502
-234
-23
5
-3
104
257
311
246
138
78
121
193
178
124
53
5
505
1544
1629
194
-912
-645
-243
-368
-416
-343
-424
-437
-319
-267
-226
-135
-121
-154
-130
-85
-24
116
252
295
305
301
208
74
-1
-79
-230
-327
-281
-242
-284
-276
-222
-245
-285
-246
-202
-217
-259
-285
-325
-504
-718
-599
-244
-202
-564
-834
-404
653
1039
-5
-1083
-945
-400
-283
-254
-126
-90
-11
224
357
236
72
49
70
48
114
371
690
882
935
955
976
928
781
617
528
473
359
237
204
220
174
48
-62
-80
-40
12
115
236
217
57
-49
-54
-49
-39
-96
-246
-145
269
393
46
-199
-147
-126
-171
-120
-76
-147
-190
-155
-222
-385
-403
-278
-185
-71
119
219
214
277
398
463
484
475
362
137
-57
-100
-78
-157
-315
-407
-441
-495
-535
-551
-584
-566
-479
-446
-412
-257
-144
-184
-173
-75
-35
-2
-20
-88
314
1179
1320
332
-550
-531
-164
-3
-9
-28
-32
-35
-28
-34
-71
-56
-8
-88
-190
-78
50
-78
-188
34
338
386
264
166
107
56
14
-35
-93
-129
-159
-190
-155
-71
-31
36
166
148
-21
-88
-83
-89
-30
-139
-537
-795
-888
-857
98
1494
1121
-860
-1782
-1150
-578
-435
-282
-230
-221
-35
128
176
263
274
109
34
181
353
475
622
750
824
883
872
764
662
594
496
384
305
250
211
196
218
284
362
378
337
349
442
509
498
469
396
158
-134
-102
230
348
422
1132
1780
1039
-390
-850
-536
-486
-556
-356
-241
-408
-547
-556
-573
-566
-478
-408
-390
-340
-245
-170
-114
-62
-46
-57
-68
-98
-146
-182
-220
-245
-198
-131
-134
-146
-99
-72
-105
-132
-130
-134
-150
-175
-217
-280
-325
-326
-358
-452
-493
-416
-207
10
-243
-1020
-1442
-1159
-940
-934
-515
10
-157
-717
-906
-760
-645
-560
-412
-262
-150
-42
92
259
419
529
598
630
611
565
524
479
441
444
453
421
421
520
623
637
643
708
772
814
840
772
647
604
536
357
218
-137
-747
-321
1417
1975
259
-1179
-816
-149
-111
-127
-44
-62
-64
-27
-24
5
55
61
79
140
191
254
369
464
486
477
457
391
294
208
116
5
-73
-90
-86
-82
-59
-26
-28
-68
-85
-64
-72
-108
-118
-130
-163
-204
-287
-363
-427
-578
-330
790
1499
387
-1202
-1363
-738
-566
-621
-549
-527
-545
-536
-551
-525
-444
-407
-381
-276
-134
-26
60
138
185
191
171
141
112
69
3
-45
-54
-63
-61
-34
-41
-58
-22
-8
-62
-74
-8
37
15
-22
-5
21
-7
-21
-98
-283
58
1183
1716
734
-382
-406
-52
-21
-33
33
30
39
90
94
90
140
191
228
286
357
420
475
510
507
482
453
415
360
282
193
118
65
19
-25
-61
-92
-131
-168
-194
-208
-217
-222
-223
-221
-249
-308
-327
-318
-337
-330
-354
-406
48
998
1057
-250
-1245
-965
-461
-418
-412
-307
-291
-286
-232
-215
-215
-175
-125
-93
-51
14
89
171
249
293
293
276
254
205
111
6
-54
-72
-99
-126
-125
-123
-144
-169
-186
-194
-182
-157
-142
-160
-207
-228
-211
-230
-251
-260
-377
-178
857
1595
598
-960
-1135
-446
-198
-237
-152
-108
-111
-47
-12
-17
26
93
128
171
270
389
470
519
572
613
613
576
507
406
305
233
191
167
142
127
132
122
81
55
54
51
55
76
82
56
31
41
29
-41
-52
-56
-155
248
1395
1742
339
-1018
-848
-218
-121
-142
-67
-83
-82
-23
-39
-66
-23
15
29
85
161
207
255
316
332
291
247
213
167
103
23
-53
-95
-110
-124
-142
-155
-159
-157
-164
-180
-188
-190
-197
-221
-280
-338
-351
-376
-418
-425
-507
-450
325
1223
757
-642
-1109
-601
-351
-423
-354
-288
-315
-286
-251
-253
-211
-154
-134
-100
-28
31
88
176
241
230
202
198
178
122
64
37
38
34
13
-3
-13
-28
-37
-48
-60
-50
-27
-14
-1
-12
-54
-65
-67
-118
-144
-216
-372
-29
955
1268
267
-632
-501
-186
-230
-260
-205
-234
-245
-183
-133
-99
-49
17
95
172
253
350
428
460
468
466
443
411
366
286
199
158
140
97
55
43
12
-48
-74
-56
-40
-39
-43
-50
-70
-116
-151
-149
-165
-181
-212
-359
-176
817
1503
533
-973
-1181
-540
-273
-291
-223
-197
-212
-161
-131
-136
-104
-61
-37
13
95
176
256
323
345
342
338
308
226
127
49
-3
-31
-35
-42
-74
-100
-90
-79
-102
-120
-106
-88
-78
-71
-110
-162
-144
-133
-183
-164
-182
-258
303
1419
1382
-208
-1287
-885
-293
-201
-139
-33
-63
-91
-50
-25
-10
29
75
127
195
272
347
406
437
444
441
423
376
302
225
167
131
106
82
66
59
42
17
4
-13
-42
-52
-43
-44
-60
-87
-96
-76
-85
-104
-109
-231
-149
714
1530
855
-557
-876
-331
-118
-176
-117
-95
-119
-61
-18
-29
-12
25
59
107
166
228
285
319
327
302
245
203
174
108
28
-19
-50
-82
-109
-136
-165
-201
-236
-240
-220
-217
-225
-218
-219
-249
-293
-308
-302
-319
-328
-357
-457
-246
505
818
-82
-1077
-1018
-556
-472
-501
-437
-447
-481
-448
-414
-390
-351
-319
-274
-200
-133
-63
30
98
114
120
134
134
111
85
64
28
-18
-37
-42
-67
-82
-49
-21
-45
-64
-28
14
30
42
42
42
74
78
49
43
-85
-142
575
1591
1267
-193
-829
-345
23
15
53
100
98
140
164
156
192
233
251
305
391
470
557
643
675
661
653
639
564
447
362
319
266
199
161
134
84
32
9
-6
-30
-44
-44
-64
-87
-79
-55
-24
-13
-75
-116
-116
-223
15
1083
1729
572
-1035
-1159
-435
-170
-197
-141
-146
-160
-98
-96
-137
-108
-48
-8
32
75
134
210
263
275
256
215
171
119
38
-54
-123
-154
-163
-193
-250
-292
-304
-305
-317
-341
-340
-315
-324
-358
-372
-368
-333
-294
-318
-348
-395
-455
-11
946
1036
-231
-1173
-859
-360
-316
-320
-268
-277
-254
-206
-177
-133
-118
-124
-56
44
104
176
264
291
275
284
287
247
194
143
83
38
30
45
53
26
-21
-39
-40
-65
-76
-43
-13
8
39
27
-24
-33
-49
-117
-142
-220
-306
224
1218
1205
-31
-780
-436
-85
-118
-100
-29
-41
-32
-5
-4
23
52
42
61
145
234
304
367
412
428
413
365
308
256
192
128
94
64
9
-39
-53
-59
-73
-85
-99
-119
-125
-114
-103
-103
-130
-159
-146
-147
-179
-205
-300
-162
726
1531
759
-851
-1287
-637
-265
-285
-226
-166
-183
-166
-151
-153
-113
-55
-2
60
130
224
336
408
424
419
400
357
287
198
111
56
31
7
-21
-37
-50
-67
-68
-78
-130
-169
-151
-116
-93
-107
-173
-196
-145
-158
-200
-186
-275
-148
776
1509
575
-984
-1192
-471
-184
-246
-198
-166
-177
-128
-90
-75
-34
5
44
115
213
336
455
504
498
514
523
448
332
243
170
101
65
45
7
-38
-75
-103
-94
-67
-99
-171
-190
-168
-152
-142
-177
-231
-223
-223
-256
-251
-326
-211
690
1505
703
-834
-1118
-455
-176
-221
-157
-130
-154
-104
-75
-99
-63
20
62
90
166
275
369
416
403
369
361
352
285
173
79
31
14
14
20
8
-26
-37
-16
-20
-65
-82
-54
-34
-30
-37
-79
-110
-106
-142
-196
-269
-398
-94
913
1371
320
-838
-752
-250
-222
-293
-210
-176
-176
-142
-120
-95
-58
-37
-21
8
42
92
160
187
146
108
106
81
22
-33
-80
-100
-82
-92
-141
-167
-174
-196
-217
-227
-228
-205
-159
-113
-82
-92
-140
-156
-134
-125
-122
-214
-358
25
964
1158
114
-718
-500
-115
-111
-133
-80
-95
-124
-127
-129
-98
-49
-24
4
59
140
250
345
374
375
391
398
359
285
209
153
104
71
76
81
36
-19
-34
-33
-63
-118
-144
-124
-96
-87
-112
-158
-135
-63
-78
-117
-143
-286
-54
1006
1590
434
-1022
-1028
-348
-152
-188
-136
-135
-128
-71
-68
-57
17
63
85
151
242
335
429
478
477
478
485
445
350
234
132
63
20
-14
-32
-32
-35
-35
-19
-30
-82
-99
-64
-49
-56
-56
-83
-115
-105
-105
-109
-142
-302
-114
853
1380
237
-1182
-1136
-401
-196
-234
-151
-147
-185
-138
-84
-52
-15
2
32
120
229
324
389
405
393
383
366
321
236
122
38
6
-33
-91
-115
-111
-127
-166
-184
-171
-175
-211
-227
-206
-182
-171
-188
-221
-216
-216
-260
-285
-395
-474
175
1226
997
-496
-1195
-650
-245
-317
-295
-201
-206
-189
-146
-133
-109
-56
11
85
163
255
345
393
399
384
366
355
313
221
144
120
104
75
47
-4
-73
-101
-88
-93
-120
-129
-120
-123
-134
-129
-132
-162
-163
-147
-178
-211
-306
-447
9
1127
1346
-1
-1087
-780
-239
-211
-202
-103
-119
-106
-32
-38
-54
14
85
124
185
273
357
414
428
402
363
328
290
235
157
77
34
23
4
-17
-26
-52
-103
-117
-80
-62
-88
-108
-89
-58
-60
-101
-111
-73
-84
-146
-225
-376
-213
667
1248
342
-952
-989
-331
-132
-198
-145
-125
-138
-88
-55
-41
15
74
112
166
247
326
370
372
367
380
383
348
284
222
184
175
172
126
58
39
46
14
-33
-53
-66
-72
-45
-3
14
0
-30
-45
-33
-49
-81
-87
-226
-348
225
1189
1055
-175
-779
-373
-75
-151
-150
-96
-106
-92
-86
-107
-72
-9
10
20
59
106
148
198
242
255
239
201
149
92
38
-10
-48
-84
-122
-145
-158
-186
-217
-222
-230
-268
-284
-249
-226
-244
-266
-289
-310
-306
-317
-340
-334
-454
-569
13
986
808
-511
-1129
-632
-245
-277
-241
-160
-171
-152
-100
-75
-42
3
41
88
158
258
353
395
406
424
428
402
352
279
202
147
104
67
59
59
27
-17
-39
-49
-63
-84
-94
-76
-50
-38
-38
-67
-99
-74
-50
-60
-79
-208
-150
681
1477
706
-900
-1321
-665
-265
-217
-124
-112
-177
-128
-42
-31
-20
55
147
211
277
397
531
596
589
569
540
465
354
240
128
37
-12
-39
-62
-73
-81
-93
-112
-124
-101
-73
-103
-147
-134
-96
-79
-85
-87
-79
-117
-153
-124
-212
-197
595
1480
809
-863
-1383
-668
-184
-178
-142
-96
-100
-39
18
21
56
122
166
210
288
379
458
525
554
513
444
395
318
189
86
47
24
-8
-39
-62
-60
-68
-129
-178
-169
-181
-215
-188
-142
-142
-156
-195
-246
-230
-207
-235
-261
-398
-412
363
1324
890
-506
-963
-440
-170
-235
-191
-143
-172
-166
-155
-166
-141
-90
-38
37
148
257
312
312
296
271
221
168
127
46
-74
-128
-105
-101
-115
-103
-118
-181
-223
-200
-149
-114
-81
-31
5
8
-7
-53
-97
-108
-174
-272
-275
-325
-330
254
988
598
-560
-931
-508
-300
-349
-305
-285
-328
-305
-279
-286
-236
-155
-116
-66
46
172
275
352
396
419
428
388
304
236
195
148
104
92
89
71
59
60
63
87
115
75
17
57
138
139
109
113
109
87
46
-1
-7
-77
-116
500
1508
1311
-233
-1141
-701
-189
-157
-137
-74
-97
-76
-11
-1
2
31
63
129
243
369
483
564
596
590
546
440
288
135
9
-79
-136
-177
-200
-197
-175
-170
-201
-233
-236
-239
-266
-263
-211
-174
-181
-208
-233
-237
-244
-255
-235
-318
-326
435
1507
1118
-607
-1429
-827
-275
-247
-223
-167
-174
-120
-50
-54
-54
7
87
156
244
382
520
590
611
614
570
460
309
155
29
-65
-143
-193
-210
-226
-241
-231
-221
-233
-244
-262
-287
-258
-195
-188
-217
-240
-273
-270
-234
-261
-282
-280
-328
113
1291
1670
225
-1198
-995
-294
-200
-229
-104
-91
-116
-59
-31
-27
29
102
154
222
329
447
542
597
590
518
427
346
248
133
44
-8
-38
-52
-62
-66
-48
-42
-75
-82
-45
-46
-87
-105
-108
-114
-119
-150
-175
-144
-129
-153
-198
-271
36
952
1339
283
-890
-794
-228
-175
-233
-67
0
-98
-140
-119
-114
-86
-3
64
85
156
326
445
417
370
392
374
261
135
66
36
-13
-91
-126
-116
-147
-207
-224
-214
-217
-230
-241
-238
-218
-211
-223
-241
-283
-317
-293
-284
-312
-309
-341
-209
507
1141
505
-730
-959
-403
-180
-245
-188
-136
-144
-99
-50
-30
15
74
123
186
281
394
493
550
560
531
476
408
330
249
176
107
48
23
16
-1
-8
-6
-33
-73
-88
-96
-98
-61
-22
-27
-50
-77
-105
-90
-76
-115
-129
-198
-229
428
1445
1129
-513
-1318
-735
-226
-241
-207
-116
-129
-119
-89
-86
-41
26
62
129
256
381
477
551
578
545
483
393
264
136
34
-66
-141
-159
-164
-176
-155
-130
-160
-196
-177
-172
-225
-232
-170
-152
-171
-164
-176
-188
-153
-151
-166
-184
-237
174
1242
1522
104
-1248
-1022
-281
-106
-123
-60
-46
-18
