# session 9
-38
-61
17
35
-204
-456
-421
-383
-649
-955
-1064
-1119
-1186
-1191
-1171
-1159
-1109
-1039
-1000
-973
-934
-902
-895
-897
-880
-855
-837
-786
-732
-743
-739
-731
-743
-330
519
623
-404
-1145
-887
-538
-551
-544
-471
-476
-469
-429
-413
-375
-299
-233
-183
-120
-36
62
161
246
305
331
331
318
302
271
216
174
180
207
210
197
192
196
202
210
218
234
262
288
310
342
353
321
319
342
315
314
331
277
642
1650
1955
691
-551
-416
158
250
213
277
270
231
219
198
215
291
352
369
406
498
605
690
764
814
811
782
742
654
532
422
319
222
170
159
141
113
101
87
56
29
10
-18
-39
-31
-20
-45
-106
-133
-124
-167
-195
-178
-272
-33
1069
1768
576
-1129
-1279
-519
-259
-322
-272
-258
-268
-224
-235
-267
-217
-169
-172
-148
-86
-27
44
99
78
16
-14
-26
-77
-190
-329
-435
-493
-535
-577
-617
-661
-705
-738
-760
-790
-841
-881
-874
-854
-872
-916
-973
-1016
-1012
-1022
-1063
-1093
-1226
-1188
-358
563
73
-1274
-1674
-1205
-1004
-1049
-956
-899
-921
-852
-736
-654
-532
-318
-72
140
337
561
790
983
1145
1275
1353
1381
1377
1337
1269
1215
1200
1206
1223
1252
1276
1269
1229
1175
1152
1187
1246
1293
1340
1390
1412
1403
1398
1375
1261
1074
807
371
128
540
817
-88
-1283
-1370
-851
-684
-621
-381
-248
-265
-273
-289
-305
-273
-225
-171
-90
-8
61
137
201
222
209
178
136
80
-5
-112
-202
-254
-289
-324
-357
-390
-427
-458
-477
-485
-499
-507
-478
-438
-433
-433
-421
-422
-409
-389
-398
-401
-491
-531
132
1171
933
-605
-1398
-873
-350
-287
-230
-161
-170
-141
-94
-62
-9
29
54
122
210
293
395
496
553
571
566
556
544
490
378
282
240
197
168
159
106
91
139
60
29
221
-113
-1417
-2688
-3033
-2489
-1243
53
536
409
361
416
312
168
560
1523
1727
447
-753
-487
279
320
199
492
383
99
798
528
-2772
-5747
-5767
-5577
-5357
-2195
1574
2202
1498
1709
1839
1540
1518
1512
1292
1158
1080
955
894
865
789
717
670
621
586
557
507
470
473
471
450
430
387
339
328
296
252
201
34
168
1112
1806
933
-397
-484
77
166
68
138
139
77
93
98
69
77
95
92
111
168
228
271
291
281
243
201
174
135
54
-39
-97
-129
-168
-206
-233
-260
-290
-318
-343
-363
-374
-376
-369
-354
-341
-352
-392
-416
-402
-408
-430
-468
-604
-527
181
778
190
-858
-995
-533
-392
-456
-414
-396
-437
-461
-478
-450
-363
-297
-253
-178
-94
-18
75
153
165
137
122
108
62
7
-22
-30
-43
-60
-62
-50
-47
-67
-86
-72
-47
-46
-41
10
69
88
92
86
62
72
101
101
94
-13
-70
578
1568
1279
-221
-919
-408
-21
-93
-188
-316
-388
-210
-29
-17
17
133
217
270
343
414
459
492
517
528
525
511
471
389
283
190
126
85
59
41
21
-5
-34
-59
-70
-80
-98
-106
-94
-76
-62
-73
-112
-125
-106
-119
-139
-224
-381
-24
1000
1292
116
-910
-640
-106
-87
-133
-63
-74
-87
-41
-18
0
41
75
125
198
255
300
356
400
398
369
345
325
282
212
146
102
67
26
-12
-34
-47
-65
-90
-109
-122
-138
-139
-114
-92
-93
-113
-141
-144
-133
-157
-182
-259
-435
-192
741
1153
165
-870
-721
-226
-200
-253
-179
-190
-219
-185
-176
-175
-138
-103
-80
-48
-7
42
89
115
120
109
89
64
28
-28
-88
-139
-182
-220
-253
-282
-304
-324
-345
-363
-372
-373
-360
-334
-309
-296
-297
-315
-325
-303
-291
-295
-308
-424
-408
231
942
506
-641
-936
-400
-119
-163
-105
-35
-45
-15
33
49
82
138
189
247
318
392
468
526
553
565
571
553
503
427
343
277
231
188
146
117
103
98
82
47
27
45
81
110
109
90
89
85
52
55
82
53
36
-16
-167
156
1133
1351
68
-1036
-760
-153
-61
-81
-18
-28
-38
-10
-10
1
42
70
100
150
206
271
345
398
418
424
412
360
275
182
99
33
-20
-62
-84
-96
-119
-146
-155
-155
-171
-197
-204
-181
-152
-135
-131
-150
-158
-129
-127
-156
-190
-322
-249
529
1206
503
-752
-889
-281
-86
-155
-88
-61
-94
-52
-13
-11
24
72
106
152
206
254
302
333
327
299
267
232
181
111
42
-13
-59
-98
-125
-153
-192
-223
-234
-244
-269
-288
-279
-256
-235
-213
-201
-228
-262
-263
-288
-343
-355
-439
-554
-150
672
667
-392
-1030
-669
-287
-309
-321
-266
-285
-291
-253
-238
-225
-192
-149
-92
-31
21
87
166
218
241
268
281
248
189
128
62
13
2
3
-21
-69
-111
-126
-117
-99
-84
-83
-73
-22
35
50
45
41
32
30
24
17
16
-106
-114
618
1504
993
-514
-1028
-394
34
31
81
125
81
100
160
192
230
260
279
338
426
498
570
654
702
696
668
623
540
420
293
187
113
59
13
-18
-27
-33
-50
-68
-82
-102
-120
-124
-118
-108
-97
-101
-130
-144
-124
-131
-157
-180
-304
-242
522
1220
480
-971
-1267
-568
-195
-219
-170
-132
-164
-136
-95
-96
-78
-31
13
62
129
215
300
344
351
349
333
281
207
129
47
-28
-73
-100
-131
-152
-151
-162
-190
-203
-205
-224
-248
-251
-236
-208
-181
-188
-224
-225
-209
-230
-241
-332
-490
-86
922
1072
-160
-1044
-659
-160
-184
-204
-115
-133
-136
-71
-56
-59
-13
38
85
153
225
288
343
361
335
300
273
230
158
83
29
-8
-36
-55
-69
-91
-116
-134
-153
-170
-174
-177
-184
-164
-120
-92
-99
-129
-146
-130
-128
-148
-181
-333
-372
253
1038
682
-474
-843
-369
-118
-184
-156
-115
-144
-130
-94
-83
-56
-15
19
64
126
198
276
339
371
382
386
373
331
272
210
151
107
80
51
18
2
-1
-11
-26
-33
-36
-42
-43
-25
5
34
45
10
-26
-6
-1
-22
-9
-120
-138
596
1427
799
-692
-1052
-364
0
-40
0
35
11
44
73
70
100
138
166
224
311
391
456
509
530
515
488
452
365
236
130
50
-41
-120
-141
-129
-137
-178
-216
-231
-236
-234
-232
-253
-283
-281
-249
-232
-261
-296
-286
-287
-295
-269
-361
-345
407
1219
538
-1038
-1466
-746
-289
-285
-231
-165
-192
-186
-134
-96
-64
-8
56
108
176
289
412
487
510
516
513
467
354
208
84
3
-61
-121
-146
-137
-140
-145
-141
-150
-138
-105
-148
-219
-195
-149
-150
-131
-138
-203
-208
-177
-183
-209
-330
-256
557
1297
491
-1072
-1363
-551
-94
-107
-66
-20
-35
7
49
46
72
136
197
263
343
438
538
610
626
608
586
527
399
244
123
44
-16
-51
-61
-78
-110
-132
-144
-163
-177
-176
-186
-199
-182
-149
-131
-137
-170
-186
-164
-166
-185
-223
-414
-373
513
1353
659
-744
-975
-331
-87
-163
-103
-59
-87
-56
-16
-8
24
69
111
174
254
334
405
443
436
406
371
328
271
198
115
46
8
-5
-16
-34
-50
-61
-79
-93
-94
-105
-130
-123
-84
-60
-62
-83
-109
-98
-81
-116
-148
-245
-419
-59
958
1212
65
-861
-569
-102
-114
-146
-73
-87
-97
-45
-14
7
43
79
126
184
242
306
368
390
365
329
293
235
144
43
-34
-78
-103
-132
-166
-189
-201
-216
-236
-258
-273
-277
-273
-255
-224
-196
-188
-208
-232
-219
-200
-215
-247
-382
-493
-6
879
829
-293
-911
-514
-153
-195
-199
-132
-128
-94
-40
-32
-7
52
101
158
242
321
391
467
517
505
462
431
385
289
187
126
83
37
10
0
-24
-50
-62
-86
-110
-93
-70
-88
-104
-77
-45
-49
-88
-112
-82
-82
-133
-146
-255
-379
211
1281
1106
-457
-1289
-716
-166
-183
-187
-102
-113
-110
-56
-34
-33
-7
57
139
212
292
389
462
490
503
491
422
319
203
73
-32
-87
-135
-183
-189
-186
-215
-235
-235
-247
-248
-235
-242
-251
-244
-243
-238
-228
-223
-207
-216
-247
-224
-283
-365
207
1179
912
-646
-1405
-772
-186
-163
-139
-53
-70
-59
0
11
27
101
185
252
331
432
532
610
645
638
606
548
460
358
250
140
66
37
20
7
7
1
-18
-35
-46
-54
-71
-104
-109
-71
-40
-44
-76
-113
-109
-101
-133
-149
-251
-395
112
1205
1252
-140
-1030
-582
-85
-116
-129
-47
-52
-44
-13
-17
7
65
106
147
217
311
400
446
440
412
380
344
288
198
103
37
-6
-36
-50
-58
-77
-98
-115
-132
-144
-157
-180
-189
-164
-140
-141
-155
-183
-210
-204
-204
-226
-274
-445
-449
258
1030
544
-661
-940
-412
-194
-272
-225
-181
-209
-188
-156
-147
-116
-79
-48
1
66
129
193
239
244
219
189
155
97
13
-70
-122
-149
-170
-190
-196
-194
-199
-207
-208
-205
-198
-185
-159
-121
-90
-79
-80
-93
-100
-82
-79
-86
-114
-282
-264
520
1324
725
-631
-920
-288
-2
-77
-22
46
23
41
83
99
131
171
204
252
318
391
464
509
501
471
449
398
293
189
119
52
-25
-81
-106
-126
-155
-171
-165
-163
-183
-202
-203
-197
-182
-149
-122
-129
-172
-203
-179
-161
-176
-183
-296
-326
389
1348
884
-739
-1364
-665
-135
-138
-101
-29
-67
-63
-3
25
58
116
167
218
299
409
512
585
626
628
593
527
419
284
179
108
28
-38
-57
-69
-93
-108
-113
-112
-107
-113
-134
-150
-139
-107
-84
-78
-87
-118
-138
-134
-138
-137
-202
-304
135
1159
1298
-73
-1154
-776
-106
-20
-48
37
43
38
82
93
98
143
188
226
282
356
438
503
518
484
440
394
314
192
73
-8
-71
-133
-172
-173
-173
-193
-208
-210
-222
-237
-239
-247
-250
-221
-187
-180
-194
-225
-233
-202
-206
-241
-300
-462
-307
609
1245
385
-865
-899
-308
-183
-267
-195
-167
-199
-171
-140
-128
-95
-62
-37
15
90
164
219
246
240
202
149
96
33
-49
-136
-196
-227
-253
-280
-293
-295
-309
-324
-321
-311
-304
-298
-290
-268
-227
-190
-181
-209
-235
-202
-163
-169
-174
-252
-306
262
1249
1172
-139
-868
-387
73
41
45
132
121
133
189
210
239
280
301
348
439
531
618
695
728
706
655
584
492
387
270
150
63
15
-23
-51
-62
-81
-109
-120
-126
-149
-171
-182
-183
-154
-111
-99
-124
-167
-184
-155
-143
-159
-176
-322
-319
505
1460
884
-713
-1216
-549
-137
-151
-84
-26
-60
-39
-2
-1
27
79
127
196
283
371
460
529
543
510
462
397
280
128
5
-73
-134
-182
-207
-225
-239
-233
-217
-217
-246
-301
-342
-330
-308
-314
-307
-278
-260
-255
-249
-257
-288
-280
-287
-442
-306
641
1347
430
-1016
-1117
-383
-136
-194
-95
-46
-81
-29
26
21
43
101
165
255
356
443
535
611
613
558
507
447
349
243
152
73
23
2
-23
-50
-54
-50
-61
-84
-113
-134
-144
-164
-184
-173
-157
-155
-155
-161
-153
-131
-159
-196
-225
-371
-238
705
1469
698
-620
-761
-180
-8
-66
1
14
-18
21
50
56
100
149
182
239
320
403
482
533
528
478
418
356
274
176
86
14
-38
-68
-84
-97
-113
-142
-177
-200
-217
-240
-262
-273
-268
-255
-251
-263
-290
-326
-339
-327
-341
-361
-402
-546
-446
289
827
132
-941
-1008
-489
-327
-363
-284
-244
-247
-192
-150
-125
-55
13
61
139
233
305
375
447
475
447
405
368
310
212
101
18
-33
-71
-102
-119
-119
-119
-135
-158
-169
-168
-164
-159
-138
-104
-85
-77
-76
-113
-146
-106
-86
-120
-113
-205
-249
468
1479
1085
-484
-1109
-488
-53
-89
-45
25
-16
-1
58
62
79
142
197
246
324
426
519
586
615
591
538
486
400
260
135
64
2
-60
-81
-72
-80
-112
-137
-142
-150
-182
-200
-180
-177
-208
-206
-155
-123
-145
-165
-130
-114
-155
-151
-189
-299
147
1190
1284
-160
-1271
-911
-255
-142
-139
-72
-98
-102
-38
-11
3
58
130
199
273
370
491
591
624
598
549
488
403
279
142
35
-27
-67
-99
-118
-120
-114
-115
-132
-156
-171
-176
-180
-189
-182
-150
-126
-128
-145
-181
-199
-169
-170
-201
-212
-316
-220
639
1462
808
-583
-867
-266
-24
-104
-54
-5
-19
15
55
71
106
151
200
265
335
410
488
533
523
475
410
338
257
158
58
-11
-49
-81
-119
-158
-187
-214
-247
-276
-295
-312
-323
-319
-297
-262
-230
-214
-208
-214
-220
-197
-188
-213
-245
-354
-354
242
990
657
-482
-884
-436
-198
-294
-280
-221
-230
-195
-143
-132
-106
-52
-4
45
112
195
280
339
351
329
295
249
185
104
16
-68
-129
-157
-180
-214
-235
-235
-237
-252
-270
-275
-275
-280
-277
-249
-220
-217
-219
-218
-250
-282
-256
-240
-261
-275
-396
-348
502
1414
773
-800
-1224
-550
-189
-229
-177
-140
-169
-131
-90
-71
-18
24
50
129
249
362
456
524
556
544
497
433
353
251
138
40
-19
-43
-58
-64
-64
-74
-80
-66
-72
-103
-114
-114
-129
-110
-42
-1
-4
-14
-35
-41
-19
-36
-53
-43
-153
-49
860
1672
849
-749
-1049
-271
115
53
94
161
158
194
236
256
302
354
398
475
575
680
788
853
837
790
747
679
573
454
345
257
193
153
137
128
107
79
59
41
18
-6
-19
-29
-51
-62
-42
-27
-45
-75
-112
-141
-136
-152
-195
-223
-355
-339
437
1285
683
-771
-1129
-505
-239
-340
-299
-256
-296
-276
-244
-247
-225
-190
-162
-113
-43
33
105
148
141
93
27
-44
-125
-225
-326
-399
-437
-458
-471
-481
