# session 33
-31
-83
84
-23
-675
-1229
-1224
-1064
-1073
-1083
-1016
-982
-970
-919
-868
-858
-820
-776
-755
-354
501
690
-355
-1263
-1047
-562
-502
-517
-436
-417
-408
-355
-325
-307
-273
-249
-231
-204
-174
-147
-119
-88
-57
-22
20
65
110
162
223
283
338
389
434
460
466
460
429
362
276
194
126
72
31
7
-3
-5
-4
-3
-2
1
7
12
18
30
39
39
37
39
39
35
36
36
28
25
30
32
25
21
21
19
19
22
23
20
16
15
17
19
21
26
28
25
21
21
19
14
11
13
15
11
4
-3
-9
-16
-11
10
31
39
42
36
11
-5
-6
-23
-24
0
-22
-40
-12
-26
269
1173
1606
551
-759
-813
-230
-45
-73
-24
-25
-51
-24
-12
-21
-15
-14
-17
-8
1
11
30
44
54
74
103
128
158
202
255
304
349
391
427
451
459
448
409
338
238
125
18
-64
-126
-178
-212
-223
-224
-228
-225
-215
-208
-208
-208
-202
-194
-188
-188
-193
-190
-180
-181
-188
-187
-186
-195
-197
-190
-189
-194
-196
-195
-194
-191
-187
-186
-187
-185
-182
-190
-200
-194
-175
-155
-129
-105
-96
-104
-127
-139
-127
-124
-129
-104
-104
-128
-99
-114
15
803
1602
991
-488
-959
-397
-62
-97
-60
-20
-44
-24
0
-11
-4
11
13
21
34
41
52
68
85
106
133
163
198
239
286
339
395
447
487
510
515
503
462
382
276
173
88
15
-42
-76
-94
-108
-115
-112
-104
-101
-97
-90
-85
-80
-74
-72
-72
-70
-70
-73
-76
-77
-78
-84
-90
-93
-93
-94
-95
-97
-100
-100
-98
-97
-97
-96
-93
-91
-88
-86
-85
-86
-85
-85
-87
-92
-99
-108
-115
-117
-109
-87
-63
-47
-39
-45
-69
-81
-72
-81
-90
-69
-78
-98
-80
-97
126
926
1428
603
-584
-685
-180
-52
-123
-76
-64
-91
-63
-45
-53
-44
-36
-37
-28
-17
-11
1
17
35
56
81
108
139
175
219
273
325
369
404
428
436
423
390
328
241
149
72
11
-39
-76
-96
-104
-106
-108
-108
-106
-103
-100
-98
-96
-93
-90
-93
-97
-99
-99
-103
-107
-108
-110
-114
-114
-116
-120
-122
-121
-120
-120
-120
-120
-119
-117
-115
-112
-108
-108
-110
-106
-101
-101
-104
-107
-114
-119
-121
-121
-106
-80
-57
-38
-24
-31
-59
-72
-65
-73
-77
-55
-63
-79
-55
-72
102
829
1367
662
-508
-687
-186
-6
-70
-32
-9
-36
-19
-2
-8
1
8
4
10
22
29
39
52
65
83
107
135
166
204
250
300
349
392
424
443
449
442
409
344
254
162
80
10
-48
-85
-101
-111
-125
-133
-129
-124
-126
-127
-124
-123
-126
-126
-120
-119
-123
-124
-123
-125
-127
-127
-129
-133
-137
-138
-136
-131
-129
-127
-121
-117
-121
-125
-123
-121
-119
-114
-108
-107
-110
-111
-112
-119
-120
-102
-79
-61
-45
-31
-42
-78
-92
-74
-76
-85
-68
-82
-96
-63
-86
126
981
1560
670
-710
-911
-318
-70
-103
-57
-34
-56
-32
-12
-19
-12
0
2
10
21
28
40
63
88
106
124
154
194
236
282
337
391
437
477
508
517
505
471
401
292
173
68
-19
-86
-127
-150
-168
-179
-181
-180
-176
-165
-155
-150
-147
-147
-147
-145
-143
-143
-143
-143
-146
-150
-154
-158
-158
-158
-161
-162
-166
-176
-181
-175
-173
-173
-159
-134
-115
-104
-100
-107
-130
-143
-131
-129
-138
-114
-108
-137
-111
-122
-62
640
1562
1176
-345
-1045
-534
-105
-115
-93
-36
-61
-56
-28
-31
-24
-6
-4
0
14
27
41
57
73
94
123
156
194
235
280
335
392
442
480
505
514
501
460
384
280
170
73
-6
-66
-105
-126
-137
-141
-139
-134
-129
-123
-114
-108
-105
-101
-99
-101
-103
-103
-105
-109
-114
-117
-119
-121
-124
-125
-128
-134
-134
-128
-124
-125
-125
-125
-129
-133
-135
-144
-155
-150
-125
-96
-73
-57
-53
-67
-90
-95
-88
-99
-100
-78
-97
-115
-97
-112
177
1020
1402
440
-681
-652
-145
-60
-122
-66
-60
-82
-54
-43
-49
-36
-28
-28
-18
-8
0
14
31
45
66
95
123
153
194
243
292
340
382
412
430
436
421
376
303
212
122
47
-14
-62
-92
-106
-114
-119
-119
-113
-107
-106
-105
-100
-96
-96
-96
-94
-96
-99
-98
-96
-98
-102
-102
-100
-102
-104
-103
-104
-109
-112
-111
-110
-110
-108
-105
-108
-115
-123
-132
-132
-115
-91
-72
-57
-46
-56
-83
-95
-86
-92
-100
-78
-82
-106
-87
-106
24
711
1325
719
-500
-785
-282
-52
-114
-86
-58
-83
-65
-42
-47
-39
-27
-27
-22
-8
1
9
23
42
63
87
115
148
183
224
273
323
366
398
418
425
416
386
327
241
148
68
6
-43
-81
-103
-111
-111
-111
-110
-107
-102
-98
-95
-93
-88
-85
-83
-82
-84
-84
-81
-84
-91
-89
-85
-90
-94
-92
-90
-89
-86
-86
-89
-90
-90
-87
-82
-81
-83
-80
-76
-77
-78
-76
-79
-86
-94
-106
-104
-72
-36
-26
-23
-11
-21
-53
-60
-55
-72
-66
-47
-72
-70
-56
-69
332
1221
1354
157
-853
-632
-117
-51
-78
-23
-32
-42
-10
-7
-13
0
3
2
11
20
27
44
66
83
100
123
153
191
231
271
316
370
416
443
457
462
452
412
334
231
126
31
-49
-107
-144
-166
-180
-191
-198
-198
-194
-190
-182
-177
-177
-180
-183
-185
-183
-180
-180
-185
-190
-188
-184
-187
-193
-194
-192
-188
-185
-188
-190
-183
-177
-181
-190
-190
-179
-164
-147
-124
-102
-95
-107
-122
-123
-115
-124
-131
-96
-85
-123
-100
-91
-74
521
1506
1365
-111
-1033
-636
-118
-70
-62
-5
-24
-23
7
7
11
26
26
33
52
60
66
84
106
127
151
180
214
254
299
349
406
464
504
526
536
535
506
440
345
236
133
48
-13
-54
-80
-94
-101
-100
-94
-90
-87
-81
-75
-74
-75
-75
-79
-81
-80
-81
-89
-97
-102
-106
-112
-117
-120
-124
-130
-133
-133
-132
-131
-128
-125
-124
-125
-126
-126
-121
-119
-128
-135
-142
-152
-153
-135
-108
-86
-68
-57
-65
-90
-103
-96
-104
-114
-96
-106
-129
-109
-131
34
804
1435
738
-538
-788
-274
-82
-155
-114
-84
-111
-91
-68
-75
-67
-54
-49
-42
-32
-21
-8
6
24
47
73
101
137
180
226
276
326
370
405
429
439
432
399
336
250
156
74
11
-39
-76
-98
-110
-116
-117
-114
-109
-105
-103
-101
-98
-96
-96
-95
-94
-95
-98
-98
-98
-99
-99
-101
-103
-102
-101
-104
-105
-101
-101
-103
-103
-101
-97
-93
-92
-94
-92
-84
-78
-77
-77
-79
-84
-93
-101
-99
-80
-52
-29
-13
-2
-12
-39
-45
-35
-50
-54
-33
-49
-64
-46
-70
184
997
1403
490
-635
-642
-138
-32
-88
-35
-29
-50
-19
-10
-22
-11
-1
-2
5
14
20
33
50
65
81
106
137
170
205
247
294
341
383
412
427
431
419
382
317
229
133
48
-19
-69
-105
-126
-136
-141
-142
-141
-138
-136
-135
-133
-130
-126
-125
-128
-127
-124
-125
-125
-124
-123
-124
-127
-129
-127
-124
-121
-122
-125
-126
-125
-123
-119
-113
-109
-108
-104
-100
-98
-95
-93
-92
-89
-87
-88
-88
-84
-83
-87
-89
-89
-92
-95
-81
-52
-26
-12
-4
-12
-39
-52
-44
-50
-51
-29
-43
-57
-32
-62
146
937
1423
583
-594
-674
-157
-23
-80
-21
-7
-37
-10
5
-7
4
12
5
12
26
31
43
62
74
88
115
150
182
216
257
303
350
392
428
452
459
452
428
369
272
170
84
8
-60
-106
-130
-146
-156
-157
-152
-149
-146
-142
-140
-137
-135
-141
-146
-138
-132
-140
-143
-134
-131
-140
-146
-143
-141
-147
-150
-146
-142
-143
-141
-132
-126
-126
-126
-122
-120
-124
-125
-121
-123
-131
-124
-97
-70
-57
-52
-51
-70
-98
-99
-94
-103
-86
-79
-110
-84
-74
-34
586
1532
1307
-188
-1058
-643
-146
-101
-88
-33
-49
-45
-20
-30
-32
-12
0
7
13
23
42
59
70
94
126
151
181
224
270
321
381
436
478
511
530
527
501
442
346
226
108
11
-61
-112
-147
-167
-176
-179
-180
-176
-168
-160
-154
-150
-146
-145
-144
-140
-136
-137
-138
-140
-144
-150
-153
-152
-149
-148
-150
-150
-145
-143
-142
-139
-138
-141
-141
-140
-145
-148
-136
-110
-83
-64
-56
-61
-81
-96
-87
-83
-95
-80
-66
-96
-86
-86
-78
467
1430
1378
7
-899
-544
-78
-81
-95
-35
-57
-63
-34
-41
-41
-20
-20
-22
-8
1
6
23
43
62
86
116
149
189
237
288
341
392
435
463
473
471
447
387
294
192
99
18
-43
-81
-107
-127
-136
-137
-134
-132
-126
-119
-113
-111
-107
-103
-100
-101
-103
-105
-107
-110
-111
-113
-116
-120
-121
-118
-119
-123
-125
-121
-118
-118
-118
-116
-114
-113
-111
-108
-108
-116
-124
-126
-134
-140
-127
-98
-74
-58
-42
-44
-69
-85
-75
-77
-90
-70
-64
-91
-79
-90
17
683
1409
948
-331
-781
-309
-33
-96
-76
-36
-63
-51
-24
-29
-23
-10
-9
-7
0
7
21
37
48
67
94
120
150
188
232
281
332
379
415
437
447
444
421
368
287
189
98
28
-23
-65
-95
-109
-112
-113
-113
-110
-107
-105
-103
-102
-102
-102
-100
-100
-104
-106
-104
-105
-108
-110
-111
-113
-115
-117
-121
-124
-125
-125
-124
-124
-124
-122
-120
-121
-122
-122
-122
-120
-115
-115
-120
-125
-129
-135
-135
-114
-82
-62
-51
-42
-49
-74
-81
-72
-85
-89
-67
-79
-91
-72
-94
148
926
1323
446
-651
-668
-168
-49
-102
-53
-45
-66
-37
-23
-31
-19
-11
-12
-3
8
16
30
46
62
82
106
134
169
210
251
296
346
394
428
443
450
448
422
362
274
175
93
32
-20
-61
-81
-89
-98
-101
-95
-92
-95
-94
-87
-83
-81
-78
-77
-78
-76
-76
-82
-85
-80
-76
-81
-86
-88
-87
-89
-93
-92
-89
-90
-91
-88
-90
-92
-88
-84
-88
-95
-95
-92
-91
-95
-103
-108
-111
-110
-98
-75
-59
-51
-41
-44
-73
-93
-85
-91
-100
-81
-89
-109
-81
-105
57
841
1479
729
-638
-928
-364
-94
-127
-86
-66
-92
-66
-45
-55
-44
-31
-35
-28
-15
-9
4
26
51
74
91
115
157
203
241
291
357
413
445
467
482
480
456
399
304
190
83
-9
-81
-126
-153
-170
-179
-185
-186
-173
-159
-156
-153
-148
-148
-147
-140
-138
-140
-138
-138
-138
-133
-135
-146
-147
-141
-141
-140
-134
-132
-138
-142
-141
-140
-145
-149
-140
-113
-82
-67
-64
-70
-92
-113
-106
-95
-110
-99
-77
-106
-100
-84
-101
359
1367
1510
157
-988
-763
-188
-88
-98
-37
-44
-53
-24
-22
-21
-3
4
9
23
32
39
54
71
91
118
146
175
214
261
311
365
426
477
507
520
520
496
435
339
225
114
22
-50
-100
-131
-148
-156
-155
-149
-140
-132
-126
-122
-115
-111
-111
-110
-109
-113
-116
-116
-118
-122
-124
-128
-132
-131
-132
-135
-133
-131
-131
-128
-123
-121
-120
-116
-118
-128
-137
-140
-141
-133
-105
-71
-48
-39
-44
-68
-86
-77
-79
-92
-70
-64
-96
-84
-90
39
760
1510
982
-367
-803
-299
-35
-116
-95
-53
-81
-69
-43
-51
-47
-35
-34
-27
-14
-9
1
15
26
45
76
107
140
181
227
276
329
377
413
440
452
440
405
339
243
140
50
-24
-82
-121
-144
-160
-170
-172
-168
-164
-163
-161
-159
-159
-159
-158
-159
-165
-169
-166
-165
-174
-178
-169
-169
-184
-188
-180
-177
-180
-179
-176
-170
-159
-151
-151
-147
-135
-131
-133
-126
-110
-86
-47
-3
32
52
54
37
22
30
32
21
37
52
27
28
9
33
540
1302
1112
-70
-709
-347
-6
-49
-57
-6
-31
-33
-3
-8
-10
9
2
-10
7
20
13
25
52
61
66
85
113
153
204
254
302
352
393
421
438
437
414
366
292
203
117
39
-35
-88
-110
-130
-164
-188
-175
-151
-152
-170
-167
-147
-135
-126
-108
-96
-99
-100
-85
-67
-64
-79
-91
-95
-100
-104
-107
-120
-137
-141
-145
-157
-167
-174
-179
-164
-131
-110
-101
-90
-82
-92
-114
-122
-113
-118
-128
-105
-96
-116
-86
-96
-86
411
1123
879
-248
-795
-430
-95
-84
-72
-47
-64
-48
-20
-19
-13
-6
-8
-4
-2
-2
9
22
32
49
67
81
109
147
183
224
272
316
349
369
383
397
394
346
260
165
76
1
-59
-103
-126
-133
-138
-142
-139
-135
-131
-128
-127
-126
-121
-116
-116
-117
-118
-117
-114
-110
-107
-104
-104
-106
-103
-98
-101
-106
-101
-97
-103
-106
-84
-53
-38
-32
-29
-39
-61
-79
-78
-70
-78
-77
-57
-70
-72
-42
-95
52
774
1279
562
-553
-710
-237
-35
-47
-7
7
-6
14
21
19
35
42
38
45
58
65
73
86
100
119
140
167
197
229
266
311
356
395
423
443
453
446
414
353
267
173
86
16
-36
-74
-100
-114
-117
-119
-121
-120
-117
-116
-117
-118
-121
-124
-127
-133
-138
-140
-141
-144
-149
-155
-161
-164
-168
-175
-180
-181
-189
-193
-172
-144
-133
-126
-119
-126
-150
-171
-174
-169
-180
-184
-166
-178
-187
-163
-208
-75
618
1150
497
-613
-806
-347
-150
-178
-139
-118
-135
-115
-98
-99
-88
-82
-84
-77
-65
-56
-44
-27
-9
12
36
65
98
137
183
232
280
325
360
385
397
396
373
318
234
146
71
10
-39
-70
-86
-95
-98
-94
-86
-76
-66
-57
-46
-34
-25
-18
-10
-1
7
12
19
