# session 35
-43
-62
-24
29
-39
-185
-231
-195
-193
-201
-188
-183
-178
-171
-178
-186
-185
-189
-186
-170
-150
-119
-85
-76
-91
-106
-105
-97
-100
-91
-68
-88
-102
-78
-89
190
1037
1463
525
-635
-641
-126
-34
-102
-46
-42
-68
-36
-23
-28
-12
-4
-3
15
26
28
43
62
76
100
131
160
194
233
273
317
356
377
384
383
368
331
268
185
97
21
-35
-75
-100
-110
-110
-112
-117
-116
-112
-107
-101
-103
-109
-103
-96
-103
-111
-107
-107
-111
-106
-106
-120
-125
-123
-132
-146
-151
-156
-159
-144
-117
-92
-76
-78
-104
-122
-108
-103
-116
-103
-101
-123
-99
-102
0
671
1431
977
-360
-861
-370
-61
-126
-113
-71
-98
-86
-58
-65
-57
-36
-33
-31
-19
-6
9
26
45
70
95
117
149
192
235
272
307
337
353
360
357
333
282
216
141
62
-5
-52
-85
-103
-104
-99
-100
-102
-105
-106
-102
-102
-105
-104
-104
-113
-113
-104
-110
-123
-119
-112
-118
-122
-118
-123
-131
-131
-132
-143
-144
-125
-106
-92
-69
-49
-54
-78
-94
-94
-100
-98
-76
-88
-102
-73
-93
94
873
1444
670
-618
-828
-267
-46
-121
-93
-60
-79
-65
-48
-42
-25
-13
-9
0
2
9
32
53
69
90
119
160
202
224
246
293
337
352
357
362
357
337
290
212
126
49
-19
-66
-89
-109
-127
-127
-125
-134
-134
-125
-122
-121
-120
-125
-127
-123
-128
-139
-141
-135
-134
-139
-140
-132
-128
-139
-148
-152
-162
-162
-137
-111
-97
-75
-60
-76
-104
-108
-92
-90
-91
-79
-95
-104
-65
-92
40
778
1432
790
-494
-801
-283
-39
-93
-63
-38
-65
-47
-23
-22
-12
-6
-6
8
20
21
35
61
84
103
118
133
162
206
248
279
305
327
341
348
349
341
306
233
141
57
-9
-61
-98
-117
-125
-129
-126
-115
-111
-119
-121
-113
-109
-115
-118
-121
-126
-128
-130
-134
-138
-144
-150
-153
-159
-167
-165
-145
-117
-93
-83
-88
-111
-133
-126
-114
-125
-115
-97
-123
-114
-82
-90
292
1192
1392
195
-936
-796
-228
-94
-109
-54
-61
-79
-44
-31
-39
-30
-15
-4
6
12
21
41
67
90
113
140
170
207
254
296
328
365
396
398
388
383
357
291
200
104
13
-59
-105
-131
-149
-165
-168
-160
-153
-155
-154
-145
-139
-141
-145
-144
-144
-147
-147
-148
-156
-159
-159
-169
-178
-164
-138
-120
-106
-92
-97
-124
-139
-126
-126
-135
-110
-107
-137
-111
-112
-48
606
1476
1140
-305
-1020
-552
-110
-102
-87
-38
-64
-59
-23
-23
-19
-3
0
4
21
36
46
60
80
107
138
168
200
240
286
328
364
391
406
407
399
376
323
241
147
60
-11
-65
-102
-121
-127
-130
-133
-133
-129
-127
-127
-125
-120
-117
-119
-122
-124
-123
-121
-129
-145
-154
-159
-168
-174
-165
-145
-121
-100
-95
-112
-135
-137
-127
-134
-132
-115
-132
-138
-119
-136
162
995
1343
388
-689
-653
-171
-91
-150
-99
-92
-109
-80
-65
-67
-57
-49
-43
-29
-20
-10
7
24
43
70
99
129
164
203
247
290
321
338
345
344
328
290
227
144
62
-9
-63
-98
-119
-136
-147
-147
-140
-133
-129
-127
-122
-116
-114
-118
-119
-115
-114
-115
-109
-108
-117
-122
-123
-134
-148
-140
-114
-88
-65
-50
-58
-85
-97
-83
-82
-93
-77
-74
-91
-74
-89
9
631
1277
813
-358
-728
-274
-27
-91
-76
-42
-64
-46
-19
-25
-21
-7
-4
5
18
27
42
63
81
102
131
161
193
233
275
313
346
373
387
387
378
354
305
228
142
67
6
-43
-76
-93
-100
-104
-108
-109
-107
-103
-101
-99
-95
-94
-96
-100
-101
-101
-102
-100
-100
-102
-105
-111
-118
-123
-133
-145
-137
-112
-93
-79
-64
-65
-91
-108
-101
-105
-118
-105
-103
-123
-104
-118
-66
487
1177
841
-323
-807
-389
-91
-136
-130
-90
-115
-111
-87
-94
-93
-77
-72
-71
-66
-57
-40
-20
-3
16
37
59
89
130
172
212
250
277
293
303
306
292
249
176
89
9
-55
-102
-133
-151
-159
-159
-156
-153
-146
-137
-131
-124
-115
-111
-110
-107
-102
-99
-90
-82
-84
-87
-84
-80
-81
-84
-82
-76
-75
-86
-93
-81
-53
-29
-13
3
5
-22
-39
-27
-28
-38
-16
-16
-41
-13
-19
71
730
1462
971
-389
-896
-387
-23
-41
-23
14
-14
-11
12
12
18
28
30
41
53
57
67
86
107
126
147
177
214
250
284
320
355
383
401
405
398
377
328
249
158
73
-4
-69
-115
-141
-154
-158
-156
-156
-157
-153
-151
-152
-152
-148
-147
-143
-137
-137
-144
-146
-146
-148
-148
-147
-151
-154
-153
-152
-157
-164
-171
-178
-184
-175
-146
-112
-94
-93
-104
-124
-128
-118
-126
-127
-110
-125
-131
-116
-134
176
1018
1348
368
-702
-639
-148
-74
-132
-76
-70
-89
-60
-50
-58
-46
-33
-27
-17
-7
5
23
44
68
93
117
150
189
227
269
314
345
359
369
373
361
324
259
173
85
11
-46
-89
-119
-136
-142
-141
-137
-133
-132
-129
-123
-120
-118
-113
-107
-105
-103
-103
-103
-98
-93
-97
-108
-111
-105
-100
-99
-97
-96
-103
-109
-111
-120
-131
-124
-100
-76
-52
-34
-39
-65
-77
-65
-67
-74
-51
-50
-74
-59
-65
79
761
1389
827
-374
-684
-208
2
-75
-51
-21
-47
-33
-13
-19
-8
5
4
9
22
32
46
65
82
101
129
161
195
232
273
316
353
373
380
381
371
339
282
205
118
37
-25
-68
-97
-120
-136
-141
-138
-134
-132
-133
-132
-130
-128
-125
-120
-122
-130
-130
-123
-120
-125
-128
-127
-124
-121
-118
-120
-126
-125
-118
-116
-118
-120
-120
-117
-112
-109
-109
-107
-105
-108
-112
-116
-124
-134
-128
-101
-69
-49
-37
-40
-61
-73
-66
-69
-70
-52
-65
-80
-53
-60
154
905
1382
607
-522
-626
-142
-17
-93
-51
-33
-57
-38
-25
-28
-13
0
4
12
19
27
49
73
89
104
128
164
201
234
269
309
344
369
382
387
380
357
310
242
165
92
27
-25
-54
-68
-82
-93
-92
-88
-89
-86
-81
-83
-89
-87
-84
-86
-88
-88
-89
-91
-91
-90
-92
-96
-96
-95
-95
-98
-100
-100
-98
-95
-92
-91
-92
-90
-86
-86
-87
-85
-83
-83
-80
-78
-79
-80
-78
-74
-68
-65
-67
-67
-61
-60
-61
-61
-60
-62
-63
-59
-56
-56
-58
-59
-57
-51
-52
-64
-72
-74
-82
-86
-68
-42
-20
2
8
-13
-30
-32
-40
-32
-15
-36
-39
-26
-41
290
1087
1300
309
-634
-508
-68
-21
-63
-13
-19
-36
-9
-2
-4
10
14
14
27
37
44
61
78
93
113
137
165
199
233
266
296
325
348
362
362
355
346
319
266
196
123
58
3
-39
-65
-80
-89
-95
-97
-97
-97
-96
-95
-95
-95
-97
-95
-92
-96
-104
-106
-105
-105
-105
-108
-111
-112
-111
-109
-105
-104
-109
-108
-101
-100
-103
-100
-93
-89
-90
-93
-93
-92
-90
-86
-84
-88
-89
-85
-83
-81
-77
-74
-73
-72
-70
-70
-69
-68
-65
-59
-56
-58
-60
-58
-52
-49
-51
-55
-53
-47
-44
-46
-47
-51
-60
-59
-35
-4
10
11
21
26
3
-21
-18
-18
-28
-15
-18
-40
-17
-31
30
618
1325
960
-237
-726
-309
-12
-52
-41
0
-23
-21
0
-3
0
11
13
19
29
36
49
69
85
102
124
146
168
199
239
278
312
344
370
381
384
381
362
316
246
167
93
25
-36
-81
-105
-120
-131
-132
-126
-126
-129
-126
-121
-120
-116
-110
-112
-118
-118
-116
-118
-118
-115
-115
-119
-121
-121
-122
-119
-117
-122
-122
-112
-109
-119
-121
-114
-110
-110
-110
-109
-108
-104
-102
-103
-106
-103
-96
-94
-100
-103
-102
-106
-104
-84
-57
-39
-30
-28
-50
-74
-67
-66
-88
-78
-61
-86
-69
-46
-14
497
1374
1293
-49
-982
-673
-159
-80
-75
-23
-37
-38
-10
-14
-17
5
16
17
26
43
56
66
84
105
127
156
190
223
269
322
369
410
449
473
480
475
447
387
301
198
88
-11
-81
-127
-159
-176
-177
-174
-174
-171
-161
-154
-150
-145
-139
-135
-130
-128
-128
-129
-130
-129
-129
-132
-137
-140
-137
-133
-135
-138
-133
-125
-125
-128
-129
-129
-129
-130
-134
-134
-121
-96
-73
-58
-47
-54
-82
-94
-87
-93
-93
-74
-88
-96
-82
-120
139
1000
1462
525
-702
-768
-220
-56
-105
-59
-48
-69
-40
-22
-29
-19
-3
3
11
21
30
43
64
85
107
134
169
202
238
289
346
393
429
453
464
459
429
362
265
162
67
-13
-73
-111
-135
-155
-167
-166
-157
-152
-152
-147
-139
-129
-123
-121
-119
-116
-117
-120
-119
-119
-124
-125
-123
-127
-132
-127
-120
-122
-127
-128
-122
-115
-116
-122
-124
-132
-145
-143
-120
-91
-69
-51
-46
-67
-87
-79
-76
-89
-74
-61
-84
-75
-76
-8
539
1260
991
-170
-717
-329
-21
-70
-76
-38
-60
-51
-23
-27
-25
-12
-13
-8
6
16
28
44
59
80
107
134
165
203
241
284
333
374
401
417
421
405
365
296
201
103
25
-31
-74
-106
-129
-142
-147
-145
-142
-141
-139
-136
-132
-129
-127
-125
-123
-123
-125
-125
-122
-118
-118
-117
-115
-112
-112
-114
-112
-108
-107
-109
-109
-109
-110
-114
-122
-131
-133
-117
-91
-70
-56
-46
-56
-82
-88
-77
-87
-88
-67
-77
-84
-68
-84
174
916
1238
368
-638
-610
-137
-40
-91
-41
-34
-56
-32
-17
-21
-11
-6
-2
14
25
29
44
65
82
102
128
154
184
225
271
316
357
393
420
436
434
409
350
261
163
73
-2
-60
-101
-131
-150
-155
-154
-153
-152
-152
-154
-152
-142
-135
-133
-130
-126
-123
-119
-121
-126
-125
-120
-124
-128
-125
-123
-123
-121
-122
-128
-132
-132
-133
-135
-123
-94
-72
-67
-64
-70
-94
-101
-91
-101
-102
-81
-98
-106
-78
-94
184
1038
1446
442
-814
-861
-271
-65
-96
-56
-48
-62
-31
-20
-28
-11
1
-4
3
23
36
45
62
86
112
135
161
202
255
305
354
404
447
470
476
474
452
389
289
177
71
-22
-89
-131
-161
-180
-186
-188
-188
-185
-181
-174
-160
-152
-156
-158
-152
-144
-144
-150
-150
-147
-149
-151
-147
-146
-148
-145
-142
-149
-156
-154
-154
-154
-137
-109
-84
-65
-61
-79
-103
-103
-90
-103
-110
-82
-86
-104
-74
-90
82
880
1535
788
-603
-910
-327
-42
-87
-57
-30
-51
-30
-13
-23
-14
-1
1
13
28
35
43
59
83
109
133
159
198
245
293
342
390
429
452
460
456
433
372
274
167
72
-8
-71
-115
-142
-157
-165
-167
-162
-156
-151
-146
-141
-137
-132
-127
-123
-120
-119
-118
-116
-116
-120
-121
-120
-123
-126
-124
-123
-124
-123
-122
-123
-124
-127
-129
-130
-142
-152
-136
-101
-75
-58
-47
-58
-84
-90
-78
-85
-88
-65
-75
-93
-78
-84
170
943
1353
506
-587
-621
-135
-33
-101
-57
-48
-69
-43
-32
-36
-18
-8
-9
4
19
25
39
59
74
90
117
151
186
224
268
312
356
393
416
424
416
386
328
248
157
66
-10
-64
-98
-121
-136
-144
-147
-145
-143
-141
-135
-130
-128
-125
-121
-120
-121
-119
-116
-116
-117
-117
-114
-111
-113
-115
-113
-112
-113
-112
-113
-114
-112
-109
-108
-107
-104
-100
-99
-100
-100
-93
-87
-90
-97
-102
-110
-111
-92
-68
-52
-33
-13
-19
-49
-58
-51
-61
-60
-42
-62
-71
-47
-50
234
978
1236
321
-626
-532
-82
-23
-73
-26
-30
-46
-17
-9
-13
4
12
12
21
29
37
54
72
89
112
140
165
195
234
278
321
361
393
415
428
433
416
369
291
198
112
43
-12
-55
-82
-97
-105
-108
-108
-111
-111
-110
-108
-104
-101
-98
-91
-86
-88
-90
-89
-89
-88
-86
-84
-86
-88
-92
-98
-97
-91
-91
-92
-86
-85
-90
-89
-84
-84
-84
-82
-85
-87
-82
-81
-83
-77
-70
-72
-78
-77
-67
-59
-64
-74
-69
-56
-55
-62
-62
-55
-49
-44
-46
-55
-57
-50
-43
-41
-38
-35
-38
-45
-50
-47
-41
-44
-51
-48
-45
-55
-58
-38
-7
12
15
11
13
11
-13
-33
-31
-42
-56
-34
-30
-56
-37
-45
57
729
1467
989
-349
-860
-384
-49
-70
-51
-20
-47
-35
-11
-15
-9
1
-2
5
22
36
48
60
76
101
124
145
175
212
252
296
341
380
414
437
444
439
426
393
325
232
138
59
-2
-49
-86
-111
-121
-124
-124
-120
-114
-111
-109
-104
-103
-103
-99
-98
-99
-97
-96
-100
-103
-104
-106
-105
-107
-114
-117
-115
-116
-118
-117
-119
-123
-120
-116
-116
-119
-121
-119
-117
-119
-121
-114
-106
-108
-113
-112
-108
-110
-109
-103
-101
-102
-99
-96
-99
-98
-89
-87
-92
-96
-102
-99
-72
-38
-23
-25
-26
-25
-32
-55
-69
-63
-70
-77
-61
-71
-90
-76
-86
145
909
1376
593
-523
-620
-151
-37
-105
-59
-48
-75
-47
-25
-30
-23
-17
-18
-5
11
18
25
42
64
87
110
138
174
215
255
297
344
394
431
446
447
438
402
332
245
152
63
-4
-47
-81
-113
-129
-126
-125
-135
-135
-121
-112
-111
-111
-108
-99
-87
-83
-86
-82
-70
-63
-65
-68
-64
-58
-56
-60
-58
-49
-44
-47
-47
-40
-36
-41
-49
-48
-38
-38
-47
-49
-45
-42
-42
-39
-39
-42
-44
-41
-36
-34
-38
-37
-24
-17
-32
-41
-25
-16
-28
-20
15
38
45
54
54
43
40
38
28
18
8
2
9
