# session 23
-34
-37
-30
48
96
17
-49
-36
-58
-97
-64
-25
-32
-25
4
16
13
15
18
17
15
8
-1
-5
-13
-32
-47
-40
-24
-12
-10
-18
-32
-49
-72
-87
-93
-97
-83
-68
-82
-76
-76
-99
229
957
1088
143
-692
-552
-131
-47
-60
-19
-28
-43
-23
-23
-35
-34
-31
-29
-19
-7
6
22
41
65
102
149
200
253
308
359
392
404
404
398
371
315
243
177
118
60
17
-6
-23
-40
-45
-42
-45
-55
-61
-60
-58
-62
-68
-75
-79
-78
-81
-89
-98
-110
-117
-104
-81
-71
-67
-58
-57
-75
-111
-132
-123
-126
-140
-128
-129
-144
-122
-138
-41
542
1089
545
-626
-979
-505
-200
-212
-189
-157
-183
-174
-145
-145
-145
-134
-127
-111
-76
-44
-31
-14
25
69
104
143
194
255
315
361
386
400
401
376
320
240
145
53
-20
-76
-123
-152
-160
-162
-156
-139
-126
-122
-118
-109
-104
-101
-93
-90
-99
-110
-111
-116
-129
-131
-117
-103
-94
-83
-80
-102
-130
-130
-126
-137
-125
-109
-135
-133
-136
-119
397
1331
1333
-4
-1006
-731
-215
-159
-173
-108
-116
-128
-96
-86
-84
-68
-54
-36
-16
-2
19
50
81
117
160
209
270
338
398
442
472
484
476
451
402
323
229
138
59
-5
-50
-76
-88
-93
-94
-91
-84
-78
-76
-75
-73
-69
-65
-64
-67
-67
-68
-73
-72
-60
-44
-29
-19
-19
-36
-67
-82
-77
-86
-90
-72
-85
-103
-98
-128
125
972
1465
540
-785
-941
-363
-149
-205
-165
-145
-171
-152
-136
-147
-138
-125
-119
-106
-90
-81
-67
-39
-4
39
93
144
201
286
357
367
355
368
370
317
244
186
120
33
-40
-82
-112
-130
-128
-122
-130
-141
-135
-117
-112
-120
-111
-97
-102
-109
-100
-98
-105
-100
-93
-93
-86
-77
-81
-97
-117
-126
-127
-122
-102
-102
-134
-132
-142
-85
485
1306
1114
-161
-910
-560
-163
-178
-195
-143
-158
-160
-133
-138
-141
-125
-114
-100
-81
-66
-44
-18
7
46
101
152
210
282
340
371
391
400
388
357
303
227
145
70
8
-38
-69
-87
-93
-94
-96
-97
-93
-88
-92
-95
-86
-84
-99
-111
-115
-122
-124
-116
-103
-84
-61
-53
-76
-112
-122
-111
-117
-119
-100
-109
-127
-134
-145
186
1018
1337
377
-688
-653
-182
-110
-173
-120
-114
-137
-106
-83
-95
-97
-82
-67
-55
-32
-4
8
20
55
101
150
210
269
315
352
376
379
364
339
295
229
147
63
2
-8
2
-35
-91
-74
4
34
-23
-84
-66
-6
2
-36
-35
0
-10
-62
-81
-56
-33
-20
0
13
-11
-63
-98
-104
-113
-118
-104
-118
-143
-150
-200
-29
670
1146
454
-625
-777
-338
-207
-280
-251
-240
-268
-244
-216
-206
-181
-154
-138
-114
-84
-57
-26
14
57
102
149
199
254
305
340
359
369
367
346
308
252
189
139
98
50
4
-18
-23
-29
-34
-36
-39
-48
-60
-65
-69
-83
-101
-109
-115
-138
-158
-148
-127
-121
-124
-123
-135
-169
-192
-186
-191
-201
-181
-170
-173
-155
-207
-159
437
1082
620
-565
-946
-451
-127
-147
-123
-81
-100
-86
-52
-48
-45
-34
-30
-19
-1
13
28
48
71
101
141
184
224
265
304
333
346
347
342
332
298
227
139
68
24
-7
-31
-40
-39
-44
-47
-36
-30
-32
-24
-17
-22
-28
-29
-28
-11
16
25
24
33
37
15
-22
-32
-24
-33
-38
-21
-28
-36
-35
-102
48
737
1188
452
-656
-789
-274
-56
-90
-63
-53
-79
-65
-56
-71
-67
-57
-60
-64
-60
-50
-30
-3
24
50
87
141
199
241
270
294
303
295
284
260
205
124
39
-34
-88
-126
-155
-172
-174
-175
-176
-169
-162
-164
-167
-169
-174
-179
-182
-186
-180
-157
-136
-135
-137
-134
-147
-173
-175
-172
-187
-175
-159
-179
-181
-207
-172
428
1343
1164
-249
-1112
-724
-226
-185
-182
-122
-136
-137
-103
-98
-96
-77
-64
-51
-30
-8
15
45
82
125
171
223
283
347
403
439
452
449
433
397
334
250
163
83
18
-30
-62
-81
-88
-88
-86
-84
-84
-81
-75
-73
-72
-72
-73
-81
-92
-93
-83
-70
-59
-46
-47
-75
-108
-116
-121
-133
-118
-116
-149
-150
-169
-80
611
1496
1164
-250
-928
-476
-110
-167
-169
-114
-134
-125
-92
-95
-91
-70
-59
-47
-27
-8
16
47
81
119
168
225
283
338
383
408
412
400
373
322
248
162
81
12
-43
-85
-114
-134
-145
-149
-151
-150
-148
-144
-138
-132
-135
-141
-145
-151
-159
-159
-147
-130
-113
-95
-89
-109
-139
-141
-139
-154
-144
-131
-161
-168
-184
-121
503
1404
1199
-165
-924
-523
-130
-179
-193
-132
-150
-152
-122
-123
-118
-97
-87
-80
-64
-46
-22
9
42
81
131
186
243
298
343
371
381
373
349
307
237
151
70
4
-48
-89
-117
-132
-136
-136
-137
-134
-125
-116
-108
-102
-104
-110
-112
-116
-124
-125
-110
-89
-69
-49
-44
-73
-102
-103
-108
-118
-99
-97
-122
-132
-179
-22
785
1539
932
-439
-829
-305
-60
-152
-124
-74
-106
-98
-72
-79
-74
-60
-56
-46
-30
-15
6
33
60
94
138
189
243
290
323
342
342
328
302
256
189
116
51
-1
-41
-71
-88
-96
-100
-104
-105
-104
-101
-98
-99
-102
-103
-109
-119
-124
-129
-142
-148
-132
-110
-95
-78
-79
-111
-129
-125
-135
-137
-117
-129
-144
-153
-195
115
998
1394
428
-705
-696
-200
-114
-179
-128
-121
-141
-111
-99
-106
-89
-75
-72
-55
-32
-13
11
43
76
115
163
216
263
300
323
335
336
323
297
259
203
130
62
12
-22
-45
-53
-54
-57
-59
-53
-53
-60
-59
-52
-55
-64
-64
-67
-84
-97
-97
-103
-123
-130
-114
-91
-72
-53
-52
-81
-105
-102
-107
-113
-95
-101
-118
-120
-177
-9
766
1375
676
-588
-850
-329
-100
-164
-134
-100
-122
-107
-85
-89
-81
-61
-53
-48
-32
-9
12
35
70
112
153
198
243
271
291
320
338
326
296
260
218
167
100
33
-7
-25
-48
-66
-65
-64
-72
-74
-73
-77
-80
-81
-89
-96
-98
-103
-110
-113
-125
-146
-151
-147
-161
-172
-152
-124
-103
-82
-77
-99
-112
-112
-119
-108
-85
-101
-106
-104
-150
119
924
1279
363
-724
-736
-237
-98
-143
-103
-92
-109
-85
-69
-73
-63
-50
-43
-35
-24
-7
15
38
67
100
136
179
227
266
289
302
308
307
301
276
225
162
100
43
0
-24
-38
-48
-51
-51
-53
-52
-48
-53
-63
-65
-64
-67
-70
-72
-82
-88
-84
-90
-108
-117
-122
-129
-119
-90
-65
-46
-37
-55
-80
-79
-78
-83
-67
-65
-78
-67
-103
-15
606
1261
811
-383
-811
-362
-62
-100
-93
-59
-81
-74
-49
-51
-47
-31
-25
-17
-4
3
11
32
62
96
130
170
215
255
283
299
305
302
293
273
231
167
95
30
-21
-54
-74
-84
-90
-93
-95
-94
-93
-95
-96
-95
-98
-107
-113
-116
-119
-121
-125
-137
-146
-148
-155
-165
-153
-126
-106
-89
-75
-89
-116
-116
-111
-122
-109
-101
-122
-109
-140
-148
386
1231
1047
-260
-1010
-614
-163
-145
-155
-110
-122
-116
-82
-76
-71
-57
-52
-40
-17
1
21
51
81
113
157
209
258
304
343
375
398
404
392
372
333
260
172
99
39
-14
-50
-67
-73
-74
-77
-81
-80
-76
-73
-70
-69
-75
-82
-86
-89
-94
-101
-108
-114
-126
-134
-121
-94
-76
-63
-55
-71
-95
-96
-98
-106
-87
-84
-107
-95
-137
-79
588
1371
920
-456
-997
-485
-106
-130
-118
-71
-87
-74
-49
-56
-50
-29
-25
-22
-11
4
28
56
81
111
153
199
248
293
326
345
353
344
325
300
252
175
97
29
-36
-82
-102
-120
-138
-138
-133
-140
-147
-143
-141
-144
-143
-142
-145
-146
-146
-153
-163
-165
-161
-163
-173
-172
-157
-138
-115
-88
-87
-113
-121
-112
-121
-116
-97
-117
-117
-99
-104
299
1253
1503
253
-1008
-919
-295
-114
-134
-86
-82
-87
-56
-51
-52
-30
-19
-15
7
32
51
82
122
152
181
231
297
356
402
434
450
455
449
421
364
280
190
109
32
-37
-80
-97
-107
-114
-111
-106
-105
-102
-99
-100
-100
-96
-100
-113
-118
-114
-120
-140
-157
-166
-175
-187
-190
-177
-153
-129
-113
-123
-149
-155
-152
-159
-142
-122
-141
-138
-144
-113
429
1335
1262
-75
-981
-641
-151
-138
-166
-100
-99
-100
-70
-67
-65
-44
-34
-24
-2
15
32
63
99
129
167
220
278
333
381
411
421
416
399
359
296
215
128
52
-5
-50
-85
-104
-111
-116
-119
-113
-105
-103
-103
-103
-103
-102
-103
-107
-110
-113
-124
-139
-148
-153
-165
-172
-164
-143
-115
-94
-103
-132
-142
-135
-146
-148
-129
-141
-149
-137
-146
185
1057
1393
323
-881
-843
-271
-147
-208
-151
-138
-159
-127
-108
-111
-97
-84
-75
-55
-34
-16
8
39
73
114
164
223
284
335
372
393
393
378
354
306
228
143
69
3
-54
-87
-102
-110
-112
-106
-99
-96
-88
-78
-77
-77
-71
-66
-69
-75
-76
-71
-76
-97
-111
-126
-138
-59
69
41
-99
-112
-54
-84
-110
-55
3
3
-47
-65
-66
-115
190
1112
1581
641
-555
-621
-120
16
-37
4
15
0
20
16
-8
-10
-11
-27
-34
-29
-28
-39
-39
1
49
75
110
174
228
265
310
329
302
271
245
191
114
48
-2
-52
-109
-155
-174
-172
-176
-202
-222
-214
-208
-223
-231
-230
-237
-236
-225
-225
-221
-207
-212
-227
-203
-157
-137
-135
-123
-114
-126
-139
-138
-131
-115
-92
-106
-130
-98
-119
-117
390
1118
868
-298
-865
-466
-100
-93
-78
-35
-43
-19
7
-13
-14
20
34
30
37
55
72
89
112
138
175
231
279
309
346
378
386
395
410
386
324
265
198
114
53
23
-9
-32
-26
-27
-45
-42
-26
-34
-47
-41
-38
-45
-45
-46
-63
-81
-89
-93
-87
-65
-47
-50
-55
-62
-94
-129
-127
-122
-132
-129
-132
-129
-111
-192
-133
538
1199
651
-583
-939
-441
-139
-161
-144
-118
-137
-117
-91
-100
-95
-68
-58
-64
-62
-45
-16
18
45
70
112
174
230
264
290
321
340
336
318
288
237
168
85
1
-60
-89
-108
-129
-144
-149
-140
-122
-111
-115
-126
-123
-108
-109
-129
-134
-124
-120
-127
-134
-131
-114
-98
-88
-69
-57
-74
-94
-93
-111
-136
-109
-84
-107
-101
-124
-92
510
1374
1113
-263
-986
-543
-101
-106
-118
-66
-72
-69
-55
-55
-30
-9
-24
-25
1
24
46
70
88
111
157
217
277
336
387
414
432
450
429
361
292
231
144
48
-14
-48
-93
-135
-138
-130
-143
-147
-122
-107
-121
-126
-116
-117
-125
-117
-110
-125
-141
-142
-141
-148
-146
-122
-97
-83
-81
-101
-126
-126
-128
-141
-117
-98
-124
-131
-159
-89
526
1279
922
-331
-859
-413
-91
-146
-147
-104
-125
-111
-73
-62
-43
-27
-36
-33
-10
3
13
36
74
120
156
187
241
311
360
381
387
384
372
348
295
214
126
53
3
-26
-51
-78
-94
-93
-91
-98
-102
-96
-88
-89
-88
-77
-74
-91
-100
-89
-88
-102
-111
-111
-119
-132
-128
-104
-88
-82
-69
-68
-106
-142
-144
-146
-149
-132
-145
-160
-135
-182
-57
670
1261
553
-711
-948
-396
-144
-185
-146
-120
-143
-117
-87
-86
-76
-59
-51
-42
-28
-9
17
43
72
113
165
219
277
340
396
433
450
455
447
409
334
242
155
81
21
-30
-73
-94
-93
-99
-112
-107
-92
-87
-81
-70
-66
-67
-67
-72
-76
-73
-77
-87
-92
-93
-100
-107
-111
-123
-133
-122
-97
-78
-66
-54
-61
-90
-100
-84
-92
-103
-82
-99
-124
-90
-110
72
922
1604
787
-715
-1083
-493
-162
-167
-121
-87
-102
-84
-72
-75
-55
-40
-42
-32
-14
5
35
70
99
135
182
234
293
362
431
478
488
477
459
417
341
245
146
51
-35
-100
-138
-157
-169
-177
-176
-172
-170
-166
-161
-159
-153
-143
-143
-148
-155
-163
-162
-151
-149
-162
-173
-174
-172
-174
-178
-184
-193
-191
-166
-130
-109
-97
-93
-114
-135
-124
-120
-124
-103
-111
-126
-84
-114
42
934
1735
942
-676
-1114
-488
-128
-133
-78
-42
-64
-42
-27
-32
-12
4
3
20
42
51
68
99
131
168
218
284
352
411
466
518
542
532
512
479
405
291
177
89
28
-23
-68
-93
-99
-102
-102
-99
-97
-94
-87
-82
-80
-81
-90
-98
-99
-108
-122
-123
-112
-117
-140
-158
-162
-163
-169
-172
-176
-182
-185
-187
-195
-198
-182
-154
-125
-98
-81
-93
-118
-117
-107
-122
-116
-93
-116
-122
-124
-156
255
1217
1437
237
-845
-671
-173
-136
-183
-117
-111
-120
-96
-97
-98
-73
-61
-60
-48
-30
-11
9
27
55
105
164
220
279
343
402
437
448
445
424
378
308
224
135
57
-3
-42
-66
-84
-96
-100
-101
-100
-90
-85
-83
-74
-67
-75
-76
-66
-70
-83
-83
-76
-76
-81
-88
-92
-91
-94
-97
-94
-96
-106
-112
-112
-117
-121
-105
-78
-59
-44
-29
-35
-65
-79
-74
-84
-80
-57
-83
-108
-100
-132
122
937
1330
389
-755
-754
-226
-106
-165
-113
-102
-125
-97
-82
-93
-88
-72
-56
-43
-35
-21
1
22
55
102
149
201
269
339
396
440
466
467
448
413
345
242
139
59
-6
-61
-97
-111
-118
-123
-126
-124
-121
-118
-114
-108
-100
-90
-83
-80
-77
-76
-81
-83
-80
-80
-84
-84
-82
-88
-103
-108
-95
-81
-85
-96
-97
-92
-91
-86
-65
-34
-16
-15
