# session 18
6
31
-55
-4
306
545
541
501
491
470
469
409
597
1484
2092
1082
-479
-700
-14
259
193
239
268
228
232
242
235
240
240
242
265
286
307
355
419
480
557
656
739
770
757
717
643
528
396
265
141
40
-28
-78
-117
-138
-146
-152
-154
-159
-172
-177
-172
-182
-208
-227
-224
-210
-215
-241
-254
-249
-259
-281
-283
-272
-277
-282
-275
-278
-287
-282
-276
-285
-299
-312
-310
-285
-268
-271
-246
-199
-200
-228
-220
-218
-238
-215
-199
-215
-173
-185
-143
581
1560
1137
-564
-1405
-845
-287
-244
-218
-148
-164
-154
-102
-86
-79
-53
-28
-7
34
98
158
207
283
397
506
591
664
718
737
711
626
496
368
248
123
21
-31
-61
-90
-107
-114
-120
-123
-117
-107
-106
-120
-123
-112
-119
-136
-133
-131
-143
-142
-126
-131
-147
-151
-147
-139
-128
-125
-132
-130
-114
-108
-124
-132
-115
-103
-117
-129
-123
-123
-134
-127
-103
-72
-36
-27
-55
-72
-80
-98
-81
-63
-91
-69
-34
34
628
1540
1302
-297
-1346
-974
-353
-193
-149
-91
-84
-53
-22
-26
-2
30
32
55
104
139
180
253
335
418
529
665
773
832
855
848
798
688
533
379
248
124
13
-59
-102
-139
-170
-180
-181
-194
-210
-210
-210
-228
-245
-245
-246
-264
-284
-288
-287
-299
-310
-308
-306
-308
-307
-309
-312
-300
-288
-292
-286
-260
-236
-218
-200
-199
-203
-198
-205
-195
-166
-174
-167
-128
-74
430
1460
1605
65
-1412
-1306
-556
-254
-173
-83
-86
-77
-14
1
2
41
75
92
127
185
248
303
377
500
642
771
880
947
955
911
814
671
513
360
213
92
7
-65
-125
-144
-131
-135
-155
-151
-134
-137
-139
-120
-120
-142
-143
-132
-147
-170
-177
-183
-193
-196
-200
-209
-211
-212
-212
-200
-194
-207
-195
-154
-152
-182
-186
-189
-194
-177
-187
-193
-158
-169
124
1095
1628
458
-1172
-1364
-622
-271
-265
-196
-161
-178
-153
-126
-117
-97
-74
-45
-11
19
62
129
209
301
415
545
662
728
733
691
611
487
337
198
83
-19
-101
-154
-184
-200
-206
-199
-187
-187
-197
-192
-173
-167
-168
-161
-155
-156
-158
-168
-186
-196
-201
-213
-222
-212
-193
-184
-175
-145
-108
-97
-117
-127
-108
-96
-93
-78
-86
-93
-72
-116
66
954
1707
916
-644
-1020
-366
-59
-158
-111
-27
-49
-43
-9
-8
3
34
55
76
109
144
190
266
359
449
545
637
682
674
640
576
475
355
231
120
36
-31
-86
-116
-127
-137
-149
-146
-132
-127
-135
-136
-130
-130
-137
-143
-146
-147
-155
-171
-184
-187
-188
-194
-201
-206
-202
-181
-155
-161
-193
-197
-191
-208
-211
-218
-246
-233
-250
-146
607
1481
956
-655
-1306
-697
-241
-279
-264
-194
-207
-189
-145
-137
-119
-89
-70
-43
-1
45
100
169
250
344
449
546
604
611
579
519
434
324
208
108
29
-39
-93
-118
-125
-133
-131
-113
-101
-102
-104
-101
-99
-100
-104
-108
-111
-117
-128
-136
-139
-146
-152
-150
-137
-115
-83
-64
-81
-108
-108
-107
-114
-94
-93
-115
-104
-151
-57
712
1564
1044
-430
-964
-425
-91
-153
-130
-78
-105
-89
-53
-50
-37
-12
3
29
66
103
149
211
287
376
463
529
565
569
543
488
406
300
191
92
6
-58
-93
-114
-128
-132
-130
-131
-133
-131
-129
-133
-140
-145
-150
-155
-161
-166
-169
-169
-174
-183
-189
-190
-195
-196
-187
-170
-146
-119
-111
-128
-142
-143
-155
-158
-136
-141
-149
-137
-195
-22
817
1489
718
-719
-1074
-498
-179
-200
-163
-125
-135
-106
-81
-89
-76
-47
-28
-1
39
82
134
199
279
377
478
554
601
626
629
595
514
394
266
153
55
-27
-79
-102
-110
-117
-119
-116
-121
-139
-146
-137
-138
-151
-155
-152
-160
-169
-173
-178
-184
-188
-192
-192
-187
-191
-201
-197
-180
-160
-137
-115
-110
-124
-135
-136
-142
-133
-114
-134
-132
-90
-108
182
1152
1699
571
-1063
-1331
-628
-237
-195
-132
-97
-100
-75
-61
-53
-26
0
28
68
102
139
199
272
354
460
577
668
722
750
741
681
581
457
316
175
61
-19
-75
-113
-135
-150
-157
-153
-147
-147
-152
-148
-142
-147
-161
-169
-168
-171
-185
-196
-194
-190
-201
-213
-214
-217
-224
-220
-204
-191
-175
-146
-130
-142
-152
-150
-163
-161
-131
-141
-152
-135
-172
116
1084
1595
457
-1051
-1151
-441
-173
-203
-137
-105
-122
-91
-66
-63
-44
-26
-9
25
66
106
154
219
311
419
514
582
622
628
595
530
442
336
224
121
36
-29
-71
-95
-109
-114
-114
-114
-118
-119
-118
-120
-127
-134
-139
-146
-152
-157
-160
-167
-173
-176
-183
-199
-210
-211
-216
-222
-213
-192
-167
-132
-100
-106
-134
-133
-120
-131
-123
-100
-122
-120
-111
-138
277
1229
1399
148
-923
-691
-156
-109
-145
-75
-74
-77
-37
-29
-26
3
22
38
72
113
157
211
274
351
439
520
579
605
592
549
485
399
298
202
121
51
-3
-34
-49
-58
-62
-60
-57
-60
-64
-64
-63
-69
-78
-83
-87
-93
-96
-95
-96
-99
-98
-96
-99
-102
-103
-106
-110
-108
-102
-101
-104
-104
-100
-98
-98
-94
-87
-85
-85
-83
-79
-77
-77
-79
-78
-76
-77
-79
-78
-77
-76
-73
-71
-71
-69
-64
-63
-64
-66
-65
-65
-68
-70
-66
-62
-65
-69
-67
-63
-60
-59
-59
-62
-63
-57
-55
-56
-53
-51
-56
-60
-57
-53
-54
-53
-51
-52
-50
-48
-57
-71
-70
-58
-47
-35
-11
14
16
-6
-20
-31
-45
-31
-20
-48
-45
-55
-5
562
1358
1103
-179
-847
-461
-101
-124
-113
-57
-81
-83
-49
-39
-31
-10
6
27
58
96
134
174
229
301
373
441
508
554
564
549
534
519
481
406
321
248
180
114
62
31
15
2
-15
-32
-38
-37
-38
-37
-38
-47
-53
-55
-63
-65
-58
-64
-78
-73
-65
-76
-89
-87
-82
-85
-89
-86
-75
-73
-82
-82
-72
-68
-67
-63
-63
-66
-63
-60
-64
-63
-52
-47
-57
-62
-55
-52
-56
-58
-62
-70
-77
-83
-78
-59
-51
-65
-84
-95
-99
-94
-90
-96
-102
-108
-123
-138
-137
-130
-135
-143
-149
-164
-173
-168
-166
-168
-149
-125
-133
-167
-185
-187
-213
-230
-206
-217
-242
-212
-198
117
1077
1594
441
-1168
-1395
-717
-373
-319
-235
-224
-245
-199
-165
-156
-127
-100
-80
-35
18
60
111
178
248
333
447
560
647
705
729
709
662
599
504
384
273
183
105
41
-1
-22
-32
-36
-34
-24
-8
8
19
24
28
31
32
35
40
35
23
24
28
19
9
11
11
1
-4
1
4
2
5
10
8
11
23
19
0
-2
6
-3
-15
-8
3
8
11
6
-17
-45
-58
-57
-64
-88
-104
-96
-91
-95
-69
-26
-37
-84
-94
-89
-114
-114
-101
-126
-116
-107
-70
507
1454
1310
-174
-1127
-731
-208
-197
-215
-140
-150
-163
-135
-131
-128
-105
-83
-61
-37
-14
19
67
127
207
301
395
480
547
575
555
500
418
315
207
106
12
-71
-133
-174
-196
-203
-203
-200
-195
-191
-188
-187
-189
-187
-182
-183
-190
-192
-189
-191
-194
-193
-191
-189
-182
-174
-178
-186
-187
-185
-196
-202
-190
-178
-163
-128
-105
-126
-144
-135
-137
-135
-115
-134
-143
-120
-155
118
1041
1544
529
-820
-909
-306
-120
-178
-124
-100
-118
-86
-56
-47
-26
-9
6
38
74
110
157
215
286
378
485
590
666
696
684
639
558
445
318
198
97
17
-44
-87
-111
-120
-118
-113
-109
-105
-99
-98
-102
-100
-94
-95
-101
-105
-110
-118
-118
-114
-113
-112
-115
-125
-131
-132
-146
-162
-155
-133
-115
-83
-49
-61
-96
-100
-96
-102
-89
-90
-106
-90
-135
-35
720
1527
991
-465
-1022
-525
-170
-190
-165
-121
-142
-128
-97
-97
-86
-64
-48
-24
7
33
70
128
200
282
374
469
551
602
612
587
529
435
314
192
85
-8
-80
-125
-146
-159
-168
-172
-172
-172
-172
-172
-174
-174
-166
-165
-174
-180
-178
-179
-185
-192
-194
-189
-181
-180
-186
-194
-199
-204
-209
-209
-196
-177
-152
-118
-104
-127
-144
-141
-144
-134
-114
-129
-130
-134
-178
178
1116
1449
305
-985
-1012
-416
-188
-183
-123
-104
-109
-73
-53
-59
-36
-1
14
30
73
124
169
225
311
412
515
619
713
766
766
730
665
569
449
315
180
67
-8
-56
-88
-102
-105
-103
-99
-98
-102
-101
-88
-84
-94
-103
-109
-117
-122
-120
-115
-119
-133
-140
-144
-155
-156
-149
-157
-171
-165
-145
-125
-101
-91
-108
-121
-125
-143
-138
-107
-122
-130
-95
-89
268
1248
1664
428
-1109
-1238
-558
-256
-229
-151
-131
-148
-111
-86
-87
-75
-55
-30
2
31
65
110
166
247
354
465
564
640
678
674
632
550
433
295
153
29
-74
-157
-215
-246
-259
-262
-262
-263
-254
-239
-235
-242
-236
-224
-227
-238
-245
-244
-238
-237
-245
-255
-258
-261
-264
-260
-258
-261
-253
-235
-211
-175
-152
-165
-173
-165
-172
-157
-125
-138
-133
-120
-101
424
1452
1530
65
-1148
-905
-279
-155
-159
-83
-76
-77
-39
-31
-25
4
23
44
85
124
161
212
280
367
472
580
671
731
743
711
656
582
473
345
235
150
72
7
-32
-50
-57
-61
-57
-47
-43
-52
-58
-51
-47
-56
-68
-74
-79
-86
-95
-102
-110
-117
-124
-136
-151
-162
-173
-182
-170
-144
-123
-103
-84
-92
-110
-109
-114
-128
-112
-111
-139
-129
-164
-98
620
1524
1146
-319
-1010
-567
-188
-212
-202
-153
-173
-164
-136
-136
-121
-96
-88
-73
-40
-7
27
79
147
230
324
417
492
537
545
518
457
366
256
146
49
-33
-101
-151
-183
-197
-194
-187
-188
-190
-182
-172
-171
-170
-168
-171
-175
-177
-181
-183
-180
-180
-182
-183
-181
-177
-173
-171
-169
-160
-156
-167
-177
-171
-173
-186
-176
-150
-135
-110
-62
-49
-84
-99
-87
-94
-87
-61
-79
-91
-88
-122
215
1123
1468
421
-728
-697
-195
-94
-134
-75
-66
-80
-49
-34
-32
-11
8
24
52
85
119
163
221
291
372
458
540
600
624
621
596
538
445
337
234
145
70
11
-29
-51
-63
-63
-55
-53
-58
-59
-54
-55
-61
-65
-66
-67
-72
-77
-78
-79
-79
-76
-75
-81
-88
-84
-78
-77
-80
-78
-76
-77
-77
-73
-68
-68
-71
-69
-66
-67
-68
-65
-64
-65
-63
-61
-63
-59
-47
-41
-47
-53
-52
-48
-48
-47
-45
-45
-47
-50
-51
-49
-46
-46
-44
-38
-34
-39
-47
-49
-47
-49
-53
-50
-42
-38
-43
-51
-53
-44
-40
-43
-42
-40
-44
-45
-40
-41
-46
-47
-43
-37
-29
-29
-39
-46
-35
-25
-34
-38
-22
-22
-49
-61
-48
-28
-4
14
19
29
33
7
-15
-17
-37
-46
-20
-34
-63
-40
-42
218
1122
1734
800
-740
-1097
-514
-180
-159
-107
-85
-101
-72
-56
-60
-39
-21
-15
16
52
76
122
184
235
289
359
432
509
587
632
630
610
581
520
434
351
269
178
100
42
-16
-64
-86
-102
-117
-114
-110
-116
-114
-106
-115
-131
-137
-139
-146
-157
-168
-178
-181
-184
-194
-205
-204
-194
-193
-203
-210
-207
-201
-197
-190
-183
-182
-174
-160
-163
-173
-166
-158
-160
-159
-150
-145
-139
-131
-131
-133
-124
-111
-109
-111
-111
-106
-104
-106
-108
-102
-92
-89
-95
-97
-88
-83
-86
-85
-78
-73
-70
-63
-59
-57
-54
-50
-46
-44
-50
-56
-52
-49
-55
-52
-22
17
34
36
52
58
32
18
21
8
16
36
5
-5
0
31
587
1597
1613
200
-855
-577
-77
-50
-68
2
-4
-10
25
35
39
59
75
99
135
164
191
234
290
354
432
517
607
693
752
767
745
695
619
525
424
318
219
140
79
21
-30
-59
-66
-68
-72
-75
-79
-82
-83
-87
-97
-105
-112
-125
-138
-147
-152
-158
-168
-178
-185
-191
-200
-209
-215
-218
-223
-230
-236
-238
-244
-250
-249
-246
-249
-253
-251
-249
-250
-249
-246
-246
-247
-247
-247
-246
-245
-243
-240
-239
-235
-228
-222
-218
-214
-210
-206
-203
-196
-186
-177
-173
-171
-167
-160
-154
-150
-141
-133
-133
-134
-131
-133
-138
-126
-100
-74
-43
-5
5
-14
-22
-24
-25
-5
-7
-26
-8
-16
155
907
1581
972
-338
-729
-260
-11
-57
-23
17
3
23
48
49
66
85
96
117
146
176
213
255
301
366
450
539
634
721
773
785
767
714
626
520
413
310
216
134
66
11
-27
-47
-56
-56
-53
-58
-70
-72
-67
-71
-80
-83
-84
-92
-105
-115
-126
-134
-136
-136
-141
-151
-160
-163
-164
-173
-184
-188
-189
-190
-183
-176
-181
-187
-184
-192
-219
-232
-210
-176
-153
-133
-117
-124
-142
-153
-170
-173
-143
-151
-184
-163
-150
81
913
1545
706
-843
-1281
-688
-296
-261
-198
-159
-185
-167
-132
-123
-106
-85
-68
-41
-12
11
49
114
188
270
369
490
622
736
804
813
773
693
570
409
249
119
8
-93
-163
-201
-225
-240
-245
-242
-226
-201
-189
-196
-200
-190
-180
-177
-179
-180
-179
-184
-197
-203
-198
-198
-197
-192
-194
-198
-196
-204
-215
-205
-187
-171
-140
-105
-102
-119
-117
-112
-123
-106
-88
-119
-109
-78
-46
485
1517
1588
77
-1209
-988
-320
-163
-176
-108
-97
-97
-62
-51
-46
-26
-11
11
45
71
97
140
197
269
364
479
603
713
780
794
763
696
585
442
301
174
60
-26
-83
-126
-154
-158
-150
-144
-141
-139
-136
-128
-124
-127
-127
-125
-128
-130
-124
-121
-124
-125
-126
-130
-129
-130
-142
-143
-132
-143
-157
-136
