# session 12
-38
-82
49
28
-419
-890
-960
-855
-863
-884
-850
-835
-829
-813
-803
-779
-728
-682
-643
-624
-630
-614
-578
-566
-563
-656
-770
-288
688
685
-597
-1336
-803
-278
-312
-321
-214
-208
-199
-144
-125
-103
-48
-3
45
121
204
271
319
341
334
313
287
251
203
152
106
64
34
18
4
-18
-34
-33
-41
-67
-68
-42
-44
-66
-46
-1
19
19
7
-14
-4
18
8
6
-74
-213
182
1098
1097
-252
-1143
-650
-14
28
1
90
88
77
128
156
158
180
221
272
328
387
467
550
595
601
595
570
510
432
349
259
172
111
72
31
-7
-29
-39
-53
-74
-96
-104
-103
-116
-127
-107
-78
-68
-75
-102
-125
-123
-128
-128
-177
-349
-169
727
1199
189
-1006
-892
-234
-88
-137
-61
-51
-69
-17
5
4
46
89
115
169
241
303
359
402
415
409
393
352
281
195
121
65
12
-39
-68
-79
-99
-128
-140
-144
-163
-184
-193
-206
-216
-194
-158
-147
-161
-184
-190
-186
-203
-215
-269
-439
-316
452
936
161
-878
-855
-321
-201
-265
-202
-181
-205
-177
-154
-149
-124
-99
-76
-26
34
92
154
204
228
237
233
201
139
64
-3
-49
-80
-110
-138
-156
-166
-180
-201
-217
-212
-198
-202
-215
-210
-187
-153
-118
-124
-157
-126
-61
-85
-125
-80
-147
-209
383
1258
944
-443
-1063
-510
-23
-7
12
83
69
64
104
131
143
165
207
267
318
372
457
536
565
571
580
557
476
364
259
171
98
44
19
7
-23
-56
-65
-73
-97
-107
-98
-108
-141
-159
-146
-120
-100
-107
-140
-144
-129
-157
-167
-183
-303
-48
887
1243
17
-1304
-1162
-400
-148
-152
-90
-94
-106
-43
-5
-9
11
63
126
191
268
368
463
511
517
514
497
439
337
218
108
25
-33
-71
-89
-99
-113
-128
-139
-147
-149
-150
-165
-184
-188
-179
-161
-136
-134
-168
-188
-161
-156
-185
-195
-300
-342
282
1141
739
-706
-1249
-604
-148
-193
-177
-104
-122
-106
-61
-53
-30
16
53
102
174
251
324
382
400
381
350
319
264
179
93
32
-9
-38
-57
-70
-74
-79
-99
-120
-129
-134
-141
-153
-163
-149
-117
-97
-97
-121
-148
-137
-120
-140
-168
-284
-375
139
1042
931
-302
-941
-471
-67
-112
-109
-40
-58
-50
-9
-2
19
63
96
135
192
259
337
398
413
393
364
331
282
213
138
79
42
18
-4
-25
-43
-58
-71
-80
-93
-117
-137
-140
-131
-110
-81
-62
-66
-93
-129
-133
-122
-136
-164
-273
-416
-75
766
876
-224
-1060
-732
-208
-165
-193
-117
-111
-120
-83
-59
-36
5
38
76
149
239
319
381
426
443
428
398
354
280
191
118
59
14
-14
-45
-76
-86
-91
-115
-127
-124
-135
-143
-134
-139
-141
-102
-64
-78
-123
-139
-117
-119
-125
-127
-259
-218
587
1384
670
-866
-1225
-509
-114
-147
-104
-60
-79
-33
13
3
15
61
109
173
252
340
429
491
520
535
527
473
370
236
119
44
-12
-62
-88
-101
-126
-143
-139
-140
-152
-156
-155
-164
-181
-187
-166
-139
-134
-153
-174
-163
-144
-170
-176
-195
-304
-26
892
1168
-99
-1334
-1079
-313
-134
-164
-78
-72
-84
-19
3
-11
33
94
137
199
290
393
482
518
507
494
470
400
309
219
121
36
-12
-43
-71
-85
-95
-113
-126
-136
-154
-165
-167
-179
-191
-177
-151
-136
-134
-153
-175
-161
-153
-179
-218
-359
-382
280
1109
710
-576
-987
-423
-103
-170
-133
-69
-98
-86
-38
-21
1
38
75
125
193
266
332
370
374
360
334
291
234
171
104
43
2
-18
-34
-54
-72
-86
-96
-109
-126
-140
-147
-155
-165
-152
-110
-78
-83
-109
-133
-134
-119
-124
-139
-214
-353
-112
687
995
87
-838
-681
-181
-112
-158
-88
-77
-95
-59
-27
-7
28
64
109
175
248
317
383
430
444
428
395
351
291
212
130
68
31
5
-18
-39
-50
-57
-76
-98
-106
-109
-115
-116
-116
-111
-88
-63
-56
-71
-105
-114
-89
-98
-118
-168
-311
-49
933
1351
160
-1136
-970
-245
-96
-154
-64
-48
-79
-28
7
-4
21
80
123
165
251
359
428
459
488
491
452
398
312
176
55
-11
-60
-102
-126
-151
-174
-180
-192
-210
-208
-208
-224
-233
-234
-238
-229
-214
-202
-199
-218
-226
-206
-213
-220
-230
-343
-157
730
1223
133
-1288
-1284
-479
-159
-177
-116
-93
-108
-64
-32
-24
15
75
131
192
276
376
459
514
540
532
495
438
349
238
131
42
-18
-47
-70
-94
-96
-88
-103
-120
-118
-118
-124
-116
-115
-131
-128
-94
-63
-61
-93
-112
-88
-82
-96
-110
-236
-202
550
1322
677
-781
-1140
-447
-58
-101
-61
-3
-29
-10
31
40
65
108
145
196
271
349
418
462
470
450
417
369
296
206
118
44
-10
-41
-60
-73
-82
-95
-108
-119
-131
-146
-151
-152
-168
-184
-168
-135
-122
-129
-147
-164
-154
-144
-162
-185
-306
-397
155
1110
991
-328
-1046
-578
-129
-150
-146
-75
-95
-87
-38
-26
-9
39
78
118
180
253
323
377
397
383
348
304
253
186
101
27
-16
-42
-62
-75
-87
-103
-116
-126
-139
-150
-153
-160
-172
-176
-160
-131
-105
-89
-96
-127
-139
-118
-117
-134
-193
-344
-186
604
1091
316
-729
-731
-214
-89
-147
-86
-61
-80
-52
-27
-20
11
45
74
119
178
245
309
348
356
348
327
288
225
143
65
10
-33
-73
-93
-101
-121
-144
-153
-159
-172
-180
-184
-191
-196
-194
-177
-145
-115
-106
-119
-142
-145
-123
-124
-138
-171
-305
-182
650
1304
520
-827
-1018
-372
-85
-118
-53
-6
-25
4
33
34
71
121
159
223
306
374
443
511
538
527
510
468
382
280
179
81
14
-11
-30
-56
-73
-92
-115
-122
-116
-116
-118
-119
-129
-149
-163
-151
-114
-86
-84
-109
-139
-126
-101
-123
-129
-179
-273
180
1188
1207
-292
-1369
-919
-229
-142
-154
-76
-89
-93
-48
-39
-26
16
49
98
176
245
319
407
455
441
406
366
302
208
102
5
-62
-98
-120
-135
-141
-146
-153
-154
-155
-166
-177
-179
-176
-180
-197
-203
-178
-141
-122
-131
-159
-164
-138
-141
-152
-196
-348
-165
716
1205
262
-879
-767
-147
-39
-111
-34
-11
-33
2
26
40
82
122
160
223
291
348
396
421
418
394
354
302
243
167
89
36
8
-16
-35
-51
-74
-95
-103
-109
-121
-130
-139
-151
-159
-162
-152
-120
-87
-73
-83
-108
-118
-98
-94
-106
-140
-288
-268
396
1079
588
-558
-837
-325
-66
-114
-85
-50
-72
-52
-21
-14
12
48
78
123
182
246
314
371
396
399
388
352
279
181
87
18
-32
-72
-103
-123
-139
-158
-175
-185
-191
-203
-213
-215
-219
-226
-219
-186
-154
-138
-131
-144
-175
-170
-145
-159
-163
-214
-348
-45
863
1117
-1
-1020
-783
-192
-88
-122
-54
-42
-48
-12
8
26
73
117
155
213
292
377
457
518
546
546
518
448
338
222
124
49
-10
-62
-101
-121
-133
-149
-157
-154
-159
-181
-197
-196
-195
-210
-222
-202
-172
-164
-162
-164
-191
-192
-164
-175
-185
-233
-362
-5
1040
1318
-34
-1281
-1010
-301
-163
-173
-70
-72
-102
-49
-14
-7
43
117
171
224
306
403
483
553
602
600
556
490
383
243
132
68
15
-37
-63
-70
-83
-89
-78
-79
-96
-99
-96
-104
-112
-117
-129
-124
-94
-75
-75
-79
-91
-93
-81
-95
-95
-112
-223
39
975
1338
124
-1169
-986
-235
-59
-107
-20
0
-24
13
39
49
90
133
171
232
307
382
453
493
485
459
429
362
254
150
60
-26
-90
-116
-124
-134
-142
-149
-152
-160
-178
-197
-211
-224
-227
-224
-234
-234
-201
-174
-179
-199
-215
-202
-178
-206
-232
-259
-401
-277
561
1200
482
-686
-810
-302
-159
-224
-161
-124
-146
-128
-107
-97
-63
-26
10
65
126
192
273
332
334
307
281
236
157
71
-5
-72
-118
-134
-140
-157
-178
-191
-203
-215
-217
-211
-210
-216
-220
-219
-220
-208
-165
-121
-110
-111
-119
-136
-121
-93
-107
-111
-178
-242
328
1373
1283
-213
-1123
-641
-90
-66
-30
61
14
9
86
99
101
171
226
257
336
433
506
598
693
710
674
630
526
365
243
162
79
13
-28
-66
-75
-54
-47
-68
-96
-119
-128
-118
-110
-125
-151
-162
-151
-123
-93
-68
-62
-95
-113
-82
-88
-109
-112
-226
-92
797
1445
490
-1010
-1184
-462
-135
-130
-53
-44
-101
-87
-66
-60
-20
29
70
137
226
320
404
455
465
442
397
331
244
141
37
-40
-85
-120
-152
-157
-141
-141
-149
-145
-166
-214
-208
-157
-174
-252
-286
-255
-206
-172
-175
-204
-235
-240
-214
-212
-227
-234
-366
-352
444
1365
846
-628
-1091
-492
-158
-225
-187
-124
-144
-123
-78
-61
-39
-2
49
118
189
267
354
421
448
424
352
281
238
177
88
27
-17
-84
-128
-104
-75
-91
-113
-108
-100
-107
-116
-107
-92
-106
-127
-109
-67
-47
-37
-29
-51
-85
-66
-32
-60
-84
-129
-292
-121
756
1305
519
-543
-580
-147
-77
-120
-49
-50
-86
-54
-36
-41
-6
37
58
93
160
248
333
387
403
395
361
305
244
168
76
3
-35
-63
-88
-100
-115
-138
-147
-143
-142
-151
-170
-187
-183
-183
-215
-235
-200
-138
-98
-93
-105
-121
-116
-88
-89
-109
-140
-250
-81
817
1515
695
-747
-1016
-405
-121
-142
-80
-47
-62
-21
9
6
31
73
116
179
266
366
461
523
546
532
494
453
384
256
118
22
-54
-122
-142
-131
-147
-177
-173
-152
-159
-180
-174
-162
-186
-211
-193
-182
-208
-207
-177
-180
-196
-202
-224
-215
-193
-256
-293
-257
-305
13
1071
1522
208
-1272
-1172
-378
-123
-120
-18
-6
-65
-45
36
95
97
105
180
269
344
456
587
648
626
606
589
490
347
240
92
-93
-138
-82
-121
-202
-190
-148
-160
-192
-199
-177
-166
-183
-173
-145
-171
-214
-214
-213
-196
-131
-103
-145
-164
-160
-198
-186
-132
-234
-121
768
1442
457
-1191
-1459
-596
-86
-106
-113
-53
-43
-38
4
56
81
105
174
258
317
400
526
626
661
646
589
509
423
304
154
38
-17
-52
-90
-118
-133
-142
-149
-150
-150
-161
-186
-206
-215
-232
-259
-278
-289
-295
-290
-270
-255
-276
-304
-287
-271
-286
-310
-438
-427
341
1290
856
-626
-1184
-603
-206
-234
-184
-112
-144
-138
-90
-72
-38
27
90
158
250
360
474
575
631
620
562
506
463
387
269
165
111
84
61
44
41
44
40
33
31
23
8
5
3
-12
-25
-24
-23
-18
-5
2
-11
-47
-71
-48
-42
-75
-101
-216
-223
485
1410
1029
-421
-1042
-534
-143
-163
-134
-71
-85
-73
-40
-34
-17
16
47
96
163
236
321
402
440
432
398
342
260
164
77
0
-77
-148
-196
-206
-187
-178
-194
-221
-252
-280
-283
-276
-294
-320
-318
-290
-262
-228
-186
-158
-161
-191
-209
-171
-137
-164
-197
-281
-292
265
1055
799
-409
-978
-584
-268
-302
-298
-259
-260
-219
-173
-163
-128
-67
-21
25
98
189
284
375
436
438
412
391
354
281
199
120
59
39
35
11
-3
6
-5
-22
-5
4
-37
-75
-84
-103
-125
-119
-109
-111
-100
-78
-75
-102
-128
-127
-148
-202
-206
-256
-313
197
1141
1116
-129
-932
-594
-136
-64
-61
-73
-119
-68
21
47
54
80
134
231
311
335
387
498
566
551
527
507
437
337
257
183
93
30
11
-13
-50
-51
-24
-21
-43
-62
-74
-73
-61
-60
-66
-53
-40
-48
-61
-78
-104
-133
-162
-166
-158
-193
-227
-272
-366
-41
942
1384
371
-787
-762
-262
-154
-172
-101
-100
-124
-85
-60
-65
-49
-3
42
82
158
270
362
411
434
423
374
296
205
121
53
-10
-64
-109
-134
-126
-109
-118
-127
-122
-125
-137
-154
-174
-179
-184
-207
-207
-164
-146
-167
-175
-177
-206
-214
-200
-224
-260
-317
-388
-57
756
952
-57
-983
-830
-371
-306
-332
-271
-261
-257
-212
-194
-172
-100
-18
46
118
216
329
429
501
535
521
474
423
363
278
187
115
65
28
-2
-23
-36
-50
-78
-106
-122
-134
-155
-171
-176
-182
-187
-186
-185
-174
-153
-145
-154
-170
-186
-166
-141
-168
-175
-211
-275
248
1389
1534
14
-1235
-935
-253
-123
-136
-49
-23
-26
6
47
90
119
145
208
294
380
484
593
662
669
629
572
512
428
309
185
91
37
15
-4
-33
-45
-24
-8
-21
-42
-58
-64
-60
-65
-84
-97
-110
-130
-124
-92
-81
-107
-149
-171
-152
-159
-190
-189
-280
-217
629
1549
887
-797
-1327
-630
-193
-229
-193
-138
-168
-156
-121
-112
-88
-55
-25
31
113
199
286
360
393
375
319
249
173
85
1
-50
-73
-105
-154
-186
-189
-189
-200
-208
-209
-210
-214
-223
-232
-234
-235
-238
-224
-182
-151
-160
-177
-193
-213
-196
-168
-196
-200
-211
-251
201
1175
1294
57
-862
-545
-93
-123
-147
-62
-74
-84
-36
-15
-1
40
85
131
187
254
330
394
426
425
391
332
275
218
150
77
20
-16
-35
-46
-58
-67
-76
-91
-99
-96
-98
-107
-111
-112
-107
-94
-88
-81
-49
-14
-16
-40
-65
-91
-83
-65
-94
-106
-138
-231
159
1170
1405
152
-924
-656
-105
-76
-102
0
9
-2
43
59
64
98
137
185
247
316
401
489
537
536
509
463
394
309
213
112
23
-41
-85
-113
-133
-149
-160
-172
-186
-199
-210
-221
-231
-236
-234
-237
-257
-270
-242
-202
-200
-231
-252
-247
-253
-275
-252
-246
-354
-386
-146
