# session 0
-46
26
72
130
207
243
281
344
342
586
1407
1913
1126
23
-29
485
631
584
639
661
657
699
712
699
720
739
736
748
771
774
768
772
787
806
827
848
870
898
934
975
1010
1031
1039
1037
1014
961
872
751
610
480
382
310
254
212
184
166
154
141
128
116
103
87
71
58
47
34
17
-1
-15
-31
-53
-76
-94
-110
-129
-148
-166
-181
-192
-200
-213
-228
-239
-244
-250
-257
-260
-263
-268
-275
-280
-279
-280
-287
-290
-289
-290
-288
-284
-292
-301
-298
-299
-310
-309
-305
-319
-333
-332
-328
-327
-323
-322
-322
-320
-317
-311
-302
-299
-298
-290
-280
-282
-290
-292
-283
-262
-239
-224
-206
-189
-201
-219
-209
-212
-229
-212
-214
-246
-242
-281
-165
582
1345
813
-521
-966
-495
-218
-255
-214
-161
-170
-138
-95
-89
-77
-52
-36
-17
8
26
37
51
71
98
126
152
187
235
283
337
404
461
497
531
557
547
504
437
344
241
149
68
4
-20
-16
-16
-28
-35
-34
-31
-23
-14
-16
-26
-25
-10
-7
-16
-17
-8
-10
-20
-26
-20
-15
-21
-37
-43
-35
-30
-31
-24
-19
-22
-23
-23
-29
-29
-24
-27
-33
-26
-20
-27
-38
-43
-46
-46
-43
-49
-67
-78
-60
-34
-25
-15
13
19
-14
-37
-29
-40
-57
-36
-42
-72
-52
-94
-23
716
1572
1138
-183
-627
-131
126
27
21
37
-8
-8
2
-16
-9
9
7
9
23
28
28
49
81
97
108
136
175
214
264
322
363
393
430
460
449
400
329
233
116
8
-79
-152
-206
-235
-254
-262
-252
-239
-238
-238
-228
-216
-208
-201
-197
-198
-198
-195
-192
-192
-185
-181
-191
-195
-180
-174
-187
-188
-172
-167
-174
-180
-181
-175
-162
-155
-154
-150
-146
-140
-127
-121
-124
-121
-119
-127
-125
-100
-75
-67
-53
-24
-21
-47
-57
-54
-57
-38
-22
-44
-35
-48
-76
353
1199
1265
185
-613
-377
-7
-23
-43
20
2
-27
-10
2
19
34
24
25
55
73
69
70
87
118
150
165
177
209
257
315
374
413
434
460
481
467
413
327
225
128
37
-51
-112
-144
-168
-179
-165
-157
-170
-173
-150
-132
-141
-148
-134
-124
-124
-115
-103
-108
-122
-125
-120
-114
-105
-99
-101
-110
-118
-112
-99
-102
-114
-107
-98
-111
-122
-114
-102
-98
-106
-124
-129
-124
-133
-137
-110
-76
-54
-44
-59
-78
-71
-66
-61
-35
-37
-48
-27
-73
58
782
1386
743
-464
-732
-239
2
-45
-41
-33
-50
-28
-14
-26
-16
5
7
11
27
42
50
65
88
111
135
171
216
253
291
344
395
438
476
493
480
453
398
292
157
46
-36
-104
-155
-185
-204
-209
-201
-193
-191
-190
-192
-195
-189
-173
-161
-161
-168
-173
-171
-168
-169
-164
-158
-163
-168
-157
-143
-148
-162
-165
-154
-141
-139
-148
-155
-148
-130
-113
-104
-93
-73
-73
-98
-96
-79
-94
-100
-78
-90
-81
-68
-127
199
1158
1538
425
-813
-783
-209
-53
-90
-44
-37
-50
-23
-9
-7
8
15
19
40
59
69
88
116
136
157
191
229
267
322
392
449
488
528
568
578
540
469
371
243
109
1
-75
-131
-170
-188
-187
-182
-189
-201
-194
-175
-169
-166
-150
-140
-143
-133
-116
-127
-148
-149
-144
-157
-164
-153
-147
-151
-148
-143
-146
-145
-140
-151
-169
-167
-157
-158
-142
-100
-68
-71
-95
-113
-114
-118
-120
-101
-109
-130
-102
-136
-67
625
1427
987
-367
-895
-407
-61
-98
-92
-48
-64
-55
-31
-27
-15
-3
3
22
40
48
76
117
129
127
150
184
214
258
309
352
396
436
457
464
466
446
376
256
128
27
-50
-112
-153
-172
-184
-190
-185
-176
-171
-165
-157
-151
-140
-132
-137
-143
-136
-128
-125
-123
-127
-137
-139
-133
-131
-133
-141
-151
-137
-113
-121
-149
-151
-143
-160
-170
-136
-111
-121
-99
-46
-60
-114
-115
-110
-132
-107
-75
-104
-101
-111
-135
327
1209
1233
94
-685
-419
-77
-107
-112
-59
-82
-75
-47
-68
-66
-28
-21
-24
0
33
56
65
72
90
122
159
197
235
279
333
390
433
446
446
449
439
385
293
192
105
35
-37
-106
-136
-127
-124
-138
-139
-121
-112
-115
-102
-74
-66
-77
-81
-68
-51
-44
-52
-60
-55
-46
-42
-40
-34
-26
-25
-31
-23
3
9
-14
-25
-10
10
26
38
30
-3
-51
-92
-113
-128
-140
-135
-150
-174
-144
-166
-127
534
1450
1176
-234
-985
-580
-155
-145
-157
-114
-110
-110
-119
-129
-111
-98
-88
-64
-64
-85
-71
-37
-23
-9
20
48
90
154
211
254
310
374
413
422
414
386
310
189
60
-54
-146
-222
-280
-301
-298
-317
-345
-331
-286
-248
-224
-222
-237
-237
-217
-204
-204
-201
-178
-154
-169
-199
-198
-190
-203
-207
-188
-170
-151
-116
-82
-69
-77
-99
-113
-92
-70
-75
-68
-67
-90
-71
-97
-110
487
1541
1566
237
-715
-465
-37
-5
0
59
33
6
26
39
49
57
54
76
116
130
138
178
220
228
232
272
319
332
356
447
549
595
614
622
586
522
457
344
182
64
10
-51
-125
-158
-164
-167
-157
-138
-137
-152
-151
-124
-106
-116
-130
-127
-119
-127
-148
-144
-112
-112
-152
-155
-108
-93
-133
-164
-165
-161
-154
-148
-141
-109
-69
-76
-132
-173
-176
-183
-199
-197
-214
-246
-238
-281
-236
429
1314
1025
-323
-1004
-618
-244
-229
-205
-159
-167
-152
-132
-139
-131
-116
-115
-107
-89
-69
-46
-29
-14
11
44
84
122
149
200
284
340
352
366
387
390
372
317
212
91
-1
-59
-109
-157
-186
-196
-203
-212
-213
-185
-135
-110
-122
-122
-90
-65
-67
-65
-47
-41
-52
-54
-41
-32
-27
-27
-34
-32
-20
-14
-13
-14
-33
-64
-79
-69
-51
-32
-7
22
42
41
23
11
2
-11
10
59
46
15
22
-34
133
926
1524
844
-287
-469
-67
30
-18
50
66
35
43
24
-2
25
55
67
72
52
29
42
64
69
87
129
160
176
214
269
294
296
323
361
366
350
320
243
126
22
-52
-110
-152
-180
-210
-241
-255
-252
-237
-219
-220
-234
-232
-232
-248
-247
-229
-231
-244
-239
-224
-222
-239
-258
-265
-262
-261
-264
-261
-251
-249
-249
-238
-233
-238
-231
-218
-219
-212
-187
-177
-193
-185
-131
-83
-64
-37
-20
-50
-76
-61
-47
-25
4
-13
-11
8
-39
277
1215
1623
617
-510
-484
-30
19
-37
28
32
1
24
41
30
22
28
46
69
80
79
83
100
124
154
191
227
261
314
384
433
457
490
530
548
536
496
422
316
198
95
21
-30
-69
-95
-107
-109
-106
-107
-116
-113
-102
-104
-110
-109
-117
-129
-133
-138
-142
-138
-147
-164
-159
-137
-130
-137
-140
-132
-123
-129
-152
-168
-152
-141
-167
-187
-164
-146
-155
-138
-93
-50
-15
-32
-113
-158
-133
-106
-101
-134
-187
-180
-214
-217
416
1431
1298
-106
-936
-560
-147
-154
-139
-68
-82
-81
-51
-66
-86
-63
-25
-12
-19
-9
16
31
52
83
109
139
181
219
268
340
396
415
436
471
479
449
389
294
177
66
-33
-105
-131
-139
-162
-180
-175
-167
-161
-149
-146
-150
-136
-117
-125
-140
-132
-121
-125
-127
-124
-130
-137
-135
-130
-126
-125
-133
-136
-128
-128
-139
-136
-117
-113
-121
-112
-99
-102
-105
-105
-104
-85
-68
-101
-153
-149
-102
-76
-68
-42
-38
-76
-91
-88
-117
-111
-60
-73
-97
-85
-70
319
1177
1389
361
-596
-488
-85
-44
-61
10
7
-19
9
33
28
26
33
40
56
90
109
99
121
187
227
224
219
232
273
335
370
384
425
462
457
442
424
364
260
144
42
-24
-67
-116
-150
-149
-145
-163
-179
-169
-143
-131
-140
-145
-139
-137
-141
-145
-145
-142
-142
-143
-132
-121
-122
-122
-126
-134
-111
-76
-87
-116
-100
-75
-80
-75
-56
-68
-92
-92
-86
-89
-86
-86
-100
-106
-87
-64
-48
-29
-19
-45
-71
-62
-57
-68
-50
-43
-73
-84
-120
-10
643
1320
905
-203
-584
-215
-13
-60
-47
-38
-68
-53
-40
-54
-47
-40
-51
-42
-14
0
7
23
36
52
85
128
163
198
249
303
330
342
370
403
411
381
313
225
142
58
-32
-107
-156
-186
-206
-222
-226
-206
-186
-194
-203
-183
-160
-164
-175
-173
-169
-169
-163
-155
-155
-155
-160
-171
-172
-167
-173
-166
-128
-109
-136
-162
-154
-159
-191
-196
-164
-140
-131
-111
-84
-77
-106
-132
-117
-103
-108
-88
-85
-117
-88
-73
-23
562
1401
1165
-142
-854
-487
-91
-69
-70
-35
-36
-28
-26
-28
-4
8
2
20
46
56
64
75
98
136
157
170
223
281
287
311
414
508
528
536
556
532
460
371
269
155
47
-39
-84
-101
-122
-138
-125
-113
-119
-118
-100
-87
-91
-96
-82
-68
-76
-77
-57
-49
-66
-80
-78
-69
-63
-68
-68
-48
-33
-33
-34
-46
-69
-75
-64
-54
-35
-11
-2
-21
-62
-78
-58
-56
-66
-60
-74
-87
-103
-158
148
1014
1355
377
-685
-649
-206
-134
-163
-99
-97
-119
-101
-94
-91
-73
-67
-68
-54
-39
-30
-14
16
43
59
79
117
165
207
247
292
333
356
366
368
350
305
235
137
22
-89
-176
-217
-230
-258
-294
-303
-294
-285
-277
-272
-270
-259
-252
-266
-277
-267
-269
-281
-266
-259
-288
-283
-237
-236
-264
-245
-208
-208
-226
-223
-192
-150
-114
-85
-61
-52
-67
-98
-111
-83
-49
-41
-52
-64
-51
-62
-66
319
1070
1169
215
-585
-442
-63
7
16
64
55
60
97
110
117
128
118
107
111
132
170
184
170
189
241
270
285
331
390
432
466
499
520
526
523
510
478
410
312
224
155
90
32
-10
-34
-32
-22
-39
-65
-64
-61
-81
-85
-60
-59
-87
-98
-96
-115
-141
-152
-158
-156
-153
-171
-189
-181
-182
-202
-199
-182
-189
-195
-170
-146
-141
-135
-131
-140
-152
-165
-169
-141
-140
-180
-165
-166
-150
348
1133
1008
-121
-805
-529
-185
-150
-119
-88
-130
-120
-62
-54
-67
-63
-55
-41
-22
-9
-1
16
48
87
108
119
147
183
204
228
274
315
333
334
329
321
288
199
78
-12
-71
-140
-192
-200
-207
-222
-206
-190
-212
-218
-194
-198
-206
-177
-174
-206
-186
-137
-137
-151
-144
-155
-173
-162
-154
-159
-143
-114
-106
-104
-86
-71
-92
-119
-117
-120
-121
-82
-79
-116
-101
-135
-34
749
1594
1063
-379
-904
-416
-81
-98
-92
-68
-62
-22
1
-14
-16
-1
10
7
7
31
56
66
86
125
163
194
231
285
344
389
415
448
499
531
512
449
339
199
85
-1
-87
-139
-143
-154
-178
-170
-125
-65
-16
-12
-39
-50
-43
-45
-54
-59
-60
-70
-88
-99
-95
-101
-128
-142
-122
-112
-140
-146
-102
-62
-42
-23
-35
-67
-55
-33
-44
-32
-15
-50
-42
0
-26
265
1081
1371
386
-673
-641
-162
-48
-90
-53
-45
-61
-51
-40
-28
-18
-15
-1
9
0
5
27
47
82
114
110
110
154
208
244
275
305
328
336
323
296
253
177
76
-23
-106
-174
-228
-264
-278
-278
-274
-277
-286
-288
-283
-275
-267
-269
-288
-299
-282
-264
-266
-276
-273
-259
-249
-239
-223
-202
-171
-136
-113
-101
-88
-80
-80
-78
-79
-104
-126
-101
-86
-106
-99
-120
-37
547
1202
816
-314
-742
-323
-32
-68
-72
-43
-61
-47
-17
-21
-24
-11
-4
-5
-3
7
42
83
83
74
119
176
190
218
293
355
375
390
419
436
428
414
386
303
184
107
80
50
14
-4
-8
-8
-11
-13
-5
-8
-17
10
44
25
-8
-1
15
11
3
1
-2
-10
-19
-21
-23
-37
-50
-42
-15
4
8
-5
-41
-85
-105
-102
-77
-48
-77
-128
-144
-217
-133
523
1147
648
-481
-858
-496
-264
-274
-252
-218
-216
-192
-156
-144
-152
-152
-122
-82
-61
-58
-52
-36
-18
-3
17
51
85
112
146
192
230
256
283
298
278
243
210
153
63
-21
-78
-118
-143
-156
-163
-154
-127
-109
-109
-101
-71
-44
-36
-39
-44
-50
-58
-66
-76
-88
-94
-93
-95
-100
-86
-51
-14
8
6
-25
-58
-56
-40
-39
-22
-16
-51
-49
-71
-62
527
1498
1404
37
-851
-539
-94
-48
-38
1
-39
-66
-56
-43
-9
14
-4
-11
26
73
91
95
124
174
216
237
257
297
342
365
387
423
436
420
396
356
298
224
117
3
-79
-138
-175
-188
-208
-229
-212
-182
-184
-205
-216
-214
-212
-214
-205
-190
-202
-220
-212
-222
-259
-255
-223
-226
-229
-185
-142
-134
-151
-184
-197
-173
-163
-161
-148
-174
-184
-182
-294
-94
870
1547
749
-484
-651
-230
-138
-185
-137
-155
-181
-137
-134
-170
-166
-138
-116
-104
-87
-57
-61
-115
-146
-122
-87
-56
-11
52
123
184
227
255
260
241
221
197
135
32
-66
-121
-152
-185
-202
-195
-203
-234
-247
-223
-192
-193
-240
-285
-285
-266
-259
-252
-242
-235
-228
-227
-228
-204
-171
-163
-163
-139
-101
-56
-5
33
36
30
37
36
40
86
113
107
142
109
81
646
1588
1516
307
-410
-88
249
215
208
257
244
255
291
296
308
331
330
335
366
380
364
369
414
455
464
469
504
553
577
590
618
645
647
626
593
555
488
366
234
147
88
41
13
-17
-54
-73
-81
-96
-102
-105
-125
-147
-167
-192
-206
-215
-250
-277
-272
-295
-365
-417
-440
-473
-514
-552
-586
-623
-671
-708
-719
-725
-738
-760
-811
-877
-902
-853
-780
-824
-1037
-1226
-1253
-1262
-1278
-958
-165
