# session 1
-24
-2
-81
72
489
718
659
599
594
547
492
458
436
436
442
423
397
385
384
393
407
410
399
374
331
280
244
232
238
224
169
151
142
77
314
1034
1331
566
-279
-278
49
106
74
78
21
-15
33
57
24
17
43
35
10
31
65
58
44
58
86
110
119
117
135
173
190
198
218
225
228
254
248
162
58
-7
-66
-127
-159
-171
-192
-200
-186
-182
-192
-197
-209
-234
-238
-213
-198
-212
-237
-246
-236
-234
-238
-226
-227
-265
-282
-264
-264
-268
-261
-287
-317
-291
-247
-233
-219
-199
-209
-245
-261
-255
-262
-269
-268
-282
-283
-301
-314
9
627
658
-159
-771
-621
-317
-245
-244
-259
-272
-211
-139
-111
-76
-25
11
34
64
103
134
140
140
163
193
202
208
246
290
308
329
378
432
466
487
499
474
390
294
232
171
96
47
20
-9
-17
-1
-5
-25
-21
4
20
11
0
9
19
9
12
34
35
19
24
31
9
-5
5
-14
-49
-21
44
58
34
15
-2
-19
-45
-73
-64
-54
-78
-77
-120
-191
170
917
981
74
-582
-386
-87
-109
-152
-112
-91
-81
-78
-70
-20
-3
-71
-117
-89
-62
-39
14
43
36
56
99
132
174
221
247
270
303
329
354
382
371
279
145
60
31
-20
-72
-64
-60
-111
-144
-133
-132
-143
-144
-143
-136
-129
-145
-162
-150
-143
-163
-181
-185
-192
-196
-192
-196
-198
-178
-153
-138
-112
-76
-71
-102
-119
-110
-97
-59
-18
-47
-75
-71
-121
121
950
1409
574
-529
-608
-154
-12
-32
9
-6
-37
-5
13
5
2
-16
-24
18
50
37
38
66
77
86
115
144
163
188
216
236
252
276
289
268
223
176
115
17
-93
-173
-219
-248
-267
-274
-274
-275
-271
-257
-248
-243
-222
-211
-224
-223
-205
-206
-214
-212
-223
-242
-251
-264
-275
-261
-232
-195
-158
-170
-237
-275
-243
-217
-219
-192
-173
-196
-163
-159
-178
341
1310
1340
122
-694
-373
60
96
121
189
159
117
95
54
41
85
128
136
145
188
228
235
241
273
312
339
363
397
439
483
518
526
514
507
485
423
342
258
163
79
19
-40
-88
-90
-74
-84
-103
-104
-110
-132
-146
-141
-135
-136
-136
-142
-151
-146
-135
-139
-152
-159
-163
-159
-145
-130
-123
-119
-130
-164
-192
-188
-186
-192
-171
-160
-173
-153
-201
-219
353
1241
1075
-163
-805
-410
-72
-122
-128
-89
-121
-117
-93
-108
-107
-90
-96
-96
-72
-57
-51
-30
5
38
61
82
114
157
201
237
265
287
295
291
284
258
191
97
13
-58
-119
-161
-182
-188
-185
-188
-191
-174
-155
-154
-152
-141
-133
-126
-120
-123
-127
-118
-108
-114
-120
-111
-90
-68
-48
-33
-35
-54
-81
-92
-90
-97
-93
-74
-95
-102
-73
-122
51
815
1314
528
-614
-708
-194
-31
-81
-37
-28
-59
-39
-18
-22
-11
2
11
26
42
55
76
99
111
125
153
190
226
263
301
330
354
369
370
361
341
293
213
122
37
-36
-85
-115
-139
-155
-155
-150
-150
-145
-132
-128
-139
-144
-140
-137
-135
-132
-137
-145
-142
-139
-146
-145
-126
-105
-94
-84
-73
-71
-93
-123
-121
-105
-111
-102
-81
-95
-90
-110
-149
297
1197
1231
15
-838
-522
-82
-91
-118
-61
-75
-79
-47
-50
-52
-30
-19
-19
-11
4
25
43
59
81
109
142
183
224
277
354
444
516
547
535
494
437
357
248
126
15
-65
-109
-132
-153
-173
-182
-175
-163
-164
-173
-175
-164
-152
-153
-165
-174
-166
-154
-157
-170
-178
-178
-171
-167
-173
-165
-132
-97
-86
-107
-140
-145
-132
-142
-138
-109
-125
-136
-118
-194
8
968
1660
755
-691
-879
-261
-52
-116
-65
-58
-98
-76
-72
-78
-33
-11
-30
-14
22
25
30
60
80
98
141
184
207
236
287
339
363
351
342
346
310
219
121
25
-70
-137
-185
-228
-248
-248
-251
-246
-234
-232
-230
-225
-229
-226
-209
-203
-197
-174
-177
-212
-204
-172
-177
-175
-140
-144
-183
-182
-144
-114
-85
-56
-41
-49
-63
-57
-51
-57
-26
2
-38
-29
2
-41
357
1368
1665
548
-463
-300
122
131
107
157
107
80
134
144
119
129
149
156
163
155
135
145
185
203
203
217
236
250
290
349
381
389
403
408
391
369
328
231
93
-32
-111
-166
-226
-271
-290
-302
-306
-297
-306
-335
-343
-329
-323
-323
-312
-308
-315
-313
-301
-300
-303
-289
-272
-263
-251
-234
-222
-223
-236
-241
-228
-211
-192
-150
-106
-112
-148
-156
-151
-164
-149
-127
-146
-129
-138
-211
186
1133
1317
178
-754
-524
-76
-58
-89
-31
-33
-32
6
16
23
49
59
52
53
71
95
112
139
185
221
234
262
318
372
408
439
465
477
477
471
450
387
289
197
120
36
-39
-78
-95
-100
-91
-82
-85
-85
-80
-79
-76
-71
-74
-81
-92
-107
-113
-107
-103
-103
-104
-109
-116
-115
-103
-88
-92
-112
-119
-110
-109
-112
-111
-113
-110
-99
-96
-102
-107
-118
-129
-118
-92
-74
-68
-57
-48
-57
-68
-73
-95
-102
-65
-60
-83
-88
-149
23
821
1423
705
-507
-708
-223
-42
-89
-55
-54
-82
-49
-28
-30
-3
3
-28
-25
20
42
39
46
65
93
134
172
194
223
274
318
340
354
360
362
362
330
254
174
97
8
-57
-91
-132
-163
-151
-143
-160
-152
-122
-124
-141
-131
-115
-116
-120
-117
-120
-131
-137
-131
-132
-144
-134
-115
-131
-158
-150
-137
-135
-134
-146
-162
-146
-115
-97
-72
-40
-49
-92
-106
-92
-89
-80
-69
-103
-115
-97
-139
120
924
1289
412
-589
-556
-110
-32
-81
-33
-20
-34
-24
-19
-7
6
0
6
23
25
34
58
77
94
122
152
187
227
265
302
346
379
385
378
374
361
318
238
137
40
-42
-103
-135
-147
-163
-170
-156
-153
-168
-164
-148
-150
-158
-154
-151
-152
-152
-149
-147
-152
-156
-149
-138
-141
-154
-160
-161
-163
-165
-160
-140
-107
-73
-59
-76
-101
-104
-101
-115
-113
-100
-111
-96
-106
-151
238
1102
1247
171
-725
-531
-96
-59
-90
-35
-31
-44
-30
-30
-27
-6
5
8
21
33
36
51
85
114
136
174
225
267
298
339
391
430
447
449
425
385
343
263
133
17
-50
-102
-145
-161
-166
-180
-184
-159
-136
-143
-144
-119
-114
-143
-151
-133
-130
-137
-139
-146
-151
-147
-139
-133
-137
-154
-166
-160
-148
-125
-92
-72
-75
-93
-109
-97
-87
-96
-78
-71
-120
-118
-117
-133
386
1382
1408
82
-846
-530
-71
-68
-92
-39
-55
-60
-27
-19
-17
-8
-9
-12
0
24
44
53
78
122
152
174
219
270
308
352
401
419
408
402
404
372
289
176
64
-34
-107
-155
-180
-195
-206
-209
-201
-194
-194
-189
-177
-171
-168
-161
-158
-165
-171
-177
-187
-189
-180
-175
-178
-176
-172
-177
-189
-198
-206
-204
-190
-172
-156
-129
-103
-104
-121
-125
-133
-154
-134
-97
-126
-148
-127
-167
73
911
1376
520
-577
-592
-116
-37
-107
-57
-45
-54
-14
-6
-17
6
23
17
29
55
75
93
110
128
152
189
231
265
302
353
397
417
429
439
431
408
368
285
179
94
30
-31
-61
-58
-75
-109
-108
-89
-95
-104
-92
-80
-83
-89
-87
-83
-88
-101
-105
-100
-100
-107
-105
-98
-102
-112
-110
-98
-96
-103
-110
-114
-116
-121
-122
-118
-123
-136
-128
-95
-72
-63
-43
-32
-63
-89
-77
-73
-72
-54
-73
-93
-79
-102
169
1014
1450
534
-621
-652
-150
-37
-90
-34
-32
-68
-37
-14
-34
-38
-21
-3
9
6
7
35
65
81
110
143
158
185
238
278
299
330
362
369
357
341
313
242
128
21
-44
-92
-138
-161
-167
-173
-177
-172
-169
-173
-172
-165
-168
-175
-172
-166
-163
-155
-149
-153
-154
-149
-154
-159
-153
-149
-148
-142
-140
-146
-144
-131
-126
-132
-131
-118
-107
-114
-125
-126
-130
-145
-141
-105
-69
-52
-34
-28
-56
-71
-49
-46
-58
-51
-60
-64
-64
-102
174
974
1318
442
-535
-486
-50
16
-29
13
-15
-51
-5
23
7
14
31
37
50
69
81
98
124
139
162
214
252
252
260
296
323
343
376
391
376
367
349
284
194
113
45
-12
-51
-70
-79
-86
-92
-93
-96
-101
-101
-104
-122
-141
-137
-128
-133
-127
-106
-112
-140
-134
-94
-80
-104
-128
-133
-122
-102
-103
-125
-113
-75
-67
-76
-68
-71
-96
-113
-119
-127
-129
-113
-88
-70
-54
-41
-52
-81
-92
-92
-100
-90
-77
-96
-97
-111
-93
346
1077
1036
21
-649
-377
-32
-75
-113
-38
-39
-68
-45
-30
-33
-22
-15
-15
3
31
52
68
82
99
125
157
192
230
261
283
314
346
359
361
363
350
301
220
126
46
-2
-41
-99
-143
-140
-126
-137
-148
-141
-131
-125
-121
-123
-127
-128
-129
-129
-133
-140
-133
-117
-123
-140
-133
-123
-127
-123
-119
-136
-150
-145
-142
-147
-145
-126
-92
-68
-76
-97
-111
-125
-142
-125
-84
-99
-136
-104
-138
-116
539
1423
1102
-278
-930
-482
-95
-115
-109
-52
-63
-64
-47
-48
-41
-21
-8
-1
8
29
52
68
87
111
134
170
225
283
331
367
404
437
435
414
410
390
310
187
67
-29
-91
-126
-145
-158
-174
-188
-188
-179
-173
-162
-143
-137
-149
-150
-135
-132
-146
-147
-132
-124
-131
-142
-149
-144
-133
-141
-158
-149
-124
-100
-73
-54
-61
-88
-101
-83
-80
-99
-86
-83
-117
-90
-101
-116
465
1470
1400
32
-832
-480
-44
-42
-55
-17
-46
-40
3
-5
-22
-3
15
23
41
65
75
83
108
140
169
203
240
274
308
344
376
400
412
404
381
339
268
171
67
-21
-78
-113
-133
-140
-149
-160
-159
-154
-151
-143
-136
-148
-165
-165
-152
-146
-156
-175
-177
-161
-155
-169
-178
-173
-168
-174
-187
-194
-182
-163
-151
-133
-102
-84
-100
-123
-122
-114
-123
-116
-103
-125
-117
-122
-175
195
1096
1311
220
-757
-584
-118
-74
-120
-74
-70
-71
-43
-42
-48
-36
-23
-12
0
14
40
65
81
102
138
175
203
235
282
325
343
345
355
370
365
328
263
184
100
19
-52
-103
-135
-154
-152
-142
-148
-159
-148
-128
-128
-143
-148
-144
-139
-138
-143
-152
-155
-147
-140
-141
-139
-131
-135
-150
-139
-111
-112
-137
-131
-96
-74
-58
-38
-49
-85
-87
-71
-82
-77
-58
-79
-75
-70
-106
230
1027
1209
249
-608
-473
-69
-6
-36
-9
-9
-5
17
13
15
42
52
43
49
71
85
96
115
139
166
200
236
266
295
328
364
389
393
388
379
352
299
225
138
51
-21
-69
-97
-113
-116
-109
-107
-114
-114
-110
-110
-110
-108
-111
-115
-119
-120
-119
-120
-130
-141
-143
-139
-139
-144
-150
-158
-167
-175
-180
-181
-172
-152
-131
-117
-113
-131
-158
-166
-171
-179
-159
-153
-186
-179
-191
-181
313
1102
971
-176
-841
-506
-140
-140
-136
-77
-77
-75
-54
-44
-31
-18
-11
5
18
24
45
74
99
128
159
192
236
281
317
357
390
395
388
398
396
349
271
173
59
-34
-98
-168
-183
-77
19
-20
-93
-110
-118
-132
-125
-124
-136
-136
-139
-159
-168
-166
-175
-182
-172
-170
-184
-179
-160
-159
-172
-178
-179
-175
-162
-141
-115
-114
-150
-158
-129
-137
-86
96
185
106
40
-53
86
1010
1847
1055
-551
-960
-347
-42
-98
-60
-21
-51
-40
-14
-19
-27
-19
6
30
30
35
65
93
118
160
203
246
300
350
395
453
501
515
511
488
430
344
246
140
29
-69
-135
-171
-204
-230
-211
-167
-159
-185
-181
-136
-121
-152
-159
-135
-132
-150
-163
-164
-145
-143
-188
-205
-169
-166
-196
-195
-188
-183
-147
-135
-169
-163
-125
-153
-193
-135
-87
-162
-189
-140
-174
185
1263
1690
346
-1209
-1229
-461
-134
-136
-122
-120
-96
-51
-62
-72
-45
-38
-40
-14
10
15
34
71
101
126
172
236
290
338
394
439
452
456
462
438
355
219
66
-72
-174
-235
-265
-276
-267
-245
-223
-201
-164
-132
-126
-129
-121
-106
-97
-101
-112
-108
-99
-103
-106
-99
-96
-106
-116
-114
-108
-106
-98
-67
-33
-27
-48
-59
-46
-53
-68
-35
-25
-57
-31
-63
-22
730
1703
1257
-326
-948
-342
55
-32
-32
23
-9
1
35
25
26
44
44
50
67
80
93
119
148
170
194
230
276
316
349
378
400
409
403
378
328
252
157
59
-27
-93
-136
-161
-175
-178
-177
-179
-184
-183
-175
-172
-174
-172
-174
-179
-177
-175
-181
-182
-179
-186
-196
-192
-186
-190
-192
-187
-189
-195
-195
-202
-217
-211
-183
-156
-127
-93
-87
-117
-133
-122
-125
-134
-106
-101
-130
-115
-144
-67
644
1489
1077
-257
-747
-266
-1
-97
-86
-36
-60
-52
-27
-24
-7
11
16
30
48
60
79
104
124
145
177
218
256
292
327
360
389
407
407
396
371
323
249
162
77
9
-37
-68
-89
-101
-104
-100
-94
-97
-104
-99
-89
-90
-95
-94
-93
-96
-96
-93
-93
-93
-92
-93
-94
-93
-92
-91
-90
-87
-84
-82
-79
-75
-73
-73
-67
-62
-66
-65
-55
-49
-54
-56
-50
-47
-47
-44
-42
-44
-42
-36
-34
-36
-32
-29
-29
-31
-32
-32
-32
-36
-45
-50
-45
-36
-30
-27
-25
-23
-22
-17
-13
-16
-20
-15
-8
-6
-12
-16
-13
-8
-12
-19
-9
19
51
67
61
63
78
70
39
31
31
23
36
36
15
36
0
43
740
1677
1376
-30
-696
-238
89
-9
36
