# session 36
-31
-114
121
65
-751
-1566
-1649
-1446
-1424
-1415
-1344
-1280
-1243
-1157
-557
443
433
-951
-1909
-1532
-965
-870
-821
-720
-711
-681
-610
-574
-531
-479
-461
-436
-382
-341
-308
-261
-213
-165
-113
-69
-25
35
105
176
251
330
398
446
481
499
485
434
342
218
99
15
-41
-83
-107
-112
-109
-105
-94
-73
-56
-51
-45
-27
-11
-1
10
23
30
40
51
50
40
41
50
53
48
49
60
66
59
50
52
55
48
41
51
69
83
102
124
124
100
82
80
70
52
65
92
64
39
64
53
320
1178
1648
703
-552
-626
-86
51
-9
44
44
7
38
55
35
39
55
50
46
59
74
77
84
106
126
141
171
213
250
289
335
389
445
480
484
483
469
399
286
174
65
-41
-114
-156
-196
-227
-229
-229
-251
-261
-241
-229
-240
-243
-231
-219
-211
-209
-218
-221
-212
-204
-204
-209
-211
-207
-206
-209
-204
-200
-209
-215
-211
-217
-234
-229
-197
-167
-147
-123
-114
-136
-161
-155
-143
-150
-137
-122
-146
-138
-127
-108
363
1237
1262
64
-797
-508
-82
-97
-124
-60
-74
-84
-53
-45
-39
-23
-22
-18
0
14
24
38
54
75
104
135
165
198
244
299
354
404
443
469
485
478
434
358
264
163
67
-13
-68
-103
-128
-146
-154
-157
-156
-149
-142
-140
-138
-132
-129
-125
-115
-112
-121
-126
-119
-115
-119
-119
-116
-113
-111
-110
-107
-104
-111
-123
-118
-106
-108
-117
-122
-129
-133
-117
-93
-74
-55
-38
-39
-63
-79
-73
-75
-83
-63
-63
-88
-70
-67
48
660
1283
804
-362
-715
-256
-19
-86
-65
-32
-60
-45
-19
-26
-20
-4
0
5
18
27
37
52
71
91
112
135
165
203
247
294
341
385
420
441
449
441
405
332
237
142
57
-15
-65
-93
-113
-130
-136
-131
-129
-132
-132
-130
-124
-116
-112
-110
-108
-107
-106
-105
-107
-105
-99
-99
-103
-100
-96
-104
-112
-110
-105
-107
-109
-106
-105
-109
-107
-101
-105
-117
-122
-122
-126
-117
-89
-68
-56
-39
-39
-74
-96
-84
-88
-100
-75
-72
-96
-75
-79
47
724
1391
842
-451
-861
-355
-53
-99
-75
-29
-55
-56
-33
-29
-25
-21
-20
-9
4
12
27
46
61
80
107
134
162
198
243
295
349
397
432
454
465
458
425
356
260
155
56
-31
-98
-136
-160
-182
-187
-182
-183
-182
-173
-167
-164
-156
-147
-144
-145
-142
-134
-126
-127
-133
-139
-138
-128
-123
-133
-142
-137
-129
-128
-131
-130
-126
-125
-134
-140
-130
-113
-98
-86
-72
-61
-69
-93
-94
-79
-89
-91
-72
-94
-103
-73
-87
243
1178
1561
434
-845
-810
-209
-62
-102
-41
-36
-57
-25
-11
-16
-4
1
3
16
25
34
51
68
83
105
133
166
207
250
297
351
407
451
476
488
490
468
405
304
186
81
-3
-72
-122
-150
-165
-176
-178
-170
-162
-161
-157
-146
-140
-137
-131
-125
-123
-121
-118
-113
-112
-117
-123
-126
-127
-127
-126
-124
-124
-124
-120
-116
-118
-119
-112
-107
-116
-125
-126
-129
-140
-140
-121
-94
-70
-49
-33
-39
-70
-83
-71
-78
-79
-55
-74
-96
-73
-74
221
1073
1478
536
-582
-577
-110
-50
-117
-64
-61
-81
-51
-43
-50
-31
-18
-18
-11
-3
8
23
40
58
80
104
135
171
208
252
305
355
396
422
432
429
405
343
252
155
64
-18
-79
-116
-143
-161
-169
-171
-169
-165
-162
-160
-156
-149
-140
-132
-128
-129
-131
-130
-125
-119
-116
-117
-117
-115
-115
-117
-118
-115
-110
-111
-115
-114
-108
-107
-110
-102
-97
-107
-118
-123
-130
-129
-110
-89
-73
-49
-30
-36
-52
-55
-50
-64
-76
-45
-30
-57
-43
-27
86
693
1386
990
-208
-650
-214
30
-52
-39
1
-28
-17
7
0
3
14
14
21
29
35
48
59
66
83
111
141
172
208
252
300
344
381
409
427
430
415
375
302
209
116
34
-31
-71
-103
-142
-161
-151
-154
-166
-156
-144
-151
-156
-154
-155
-152
-146
-144
-142
-142
-145
-142
-141
-143
-137
-130
-131
-136
-134
-121
-109
-116
-134
-138
-126
-117
-119
-118
-103
-96
-114
-122
-111
-111
-117
-102
-93
-106
-114
-111
-119
-124
-106
-78
-52
-33
-20
-22
-43
-54
-43
-43
-47
-31
-46
-62
-39
-41
231
1044
1452
544
-581
-592
-96
-11
-90
-42
-30
-51
-24
-11
-21
-7
13
13
10
21
37
48
63
82
93
111
145
179
209
252
301
339
371
404
422
416
394
359
298
209
114
30
-31
-68
-99
-128
-139
-135
-132
-129
-122
-118
-116
-108
-109
-120
-121
-113
-109
-112
-114
-112
-111
-109
-109
-115
-120
-117
-120
-132
-134
-123
-117
-116
-109
-116
-136
-134
-126
-143
-150
-122
-89
-66
-47
-49
-76
-96
-90
-91
-111
-101
-83
-96
-90
-108
-48
547
1356
1079
-221
-855
-411
-43
-97
-102
-47
-68
-60
-31
-46
-43
-17
-14
-13
2
14
29
50
62
73
98
132
165
200
238
282
333
381
412
422
421
417
392
317
209
109
26
-50
-102
-126
-141
-152
-152
-149
-151
-152
-148
-142
-137
-134
-129
-124
-128
-137
-139
-138
-144
-145
-138
-140
-139
-127
-133
-159
-167
-160
-163
-160
-130
-94
-76
-70
-71
-92
-121
-117
-102
-115
-113
-92
-107
-97
-78
-88
295
1150
1293
153
-814
-595
-104
-66
-107
-52
-65
-80
-44
-35
-37
-15
-6
-7
11
28
27
29
49
74
102
132
160
194
245
297
336
372
410
433
435
430
409
346
250
156
69
-19
-87
-117
-127
-137
-146
-146
-136
-132
-139
-136
-124
-128
-135
-126
-121
-128
-126
-123
-132
-139
-140
-137
-131
-131
-137
-142
-155
-169
-152
-116
-93
-84
-73
-68
-85
-110
-115
-109
-117
-111
-95
-113
-108
-93
-97
283
1110
1242
132
-823
-624
-130
-74
-115
-60
-61
-75
-42
-28
-36
-31
-23
-20
-12
1
15
32
52
70
84
109
148
183
213
258
313
352
374
393
410
407
378
321
234
139
63
-2
-64
-106
-125
-138
-145
-139
-132
-128
-124
-122
-124
-128
-131
-132
-128
-124
-127
-131
-125
-120
-127
-133
-128
-123
-124
-129
-134
-130
-126
-139
-146
-120
-92
-86
-75
-51
-45
-71
-92
-83
-77
-92
-79
-65
-93
-82
-73
-85
337
1150
1140
-12
-804
-506
-87
-74
-84
-33
-49
-50
-23
-23
-16
0
-5
0
20
25
31
49
61
75
104
136
162
192
225
264
313
355
374
383
393
396
378
324
240
156
82
6
-61
-96
-111
-125
-131
-126
-123
-127
-131
-130
-125
-130
-137
-131
-120
-123
-135
-135
-129
-132
-136
-134
-135
-133
-127
-126
-127
-127
-131
-131
-122
-125
-136
-123
-93
-74
-63
-45
-44
-81
-108
-93
-91
-106
-82
-73
-99
-74
-81
-15
617
1390
969
-397
-967
-473
-87
-97
-73
-27
-61
-56
-21
-25
-24
-3
1
-2
11
27
33
39
62
90
113
146
188
217
240
282
336
371
387
402
415
410
383
329
245
146
52
-36
-107
-142
-153
-161
-163
-164
-169
-163
-146
-150
-168
-166
-152
-152
-153
-146
-148
-154
-150
-150
-162
-165
-155
-156
-163
-160
-156
-155
-157
-156
-142
-110
-84
-80
-83
-95
-120
-124
-103
-105
-113
-99
-111
-111
-83
-103
184
1058
1467
444
-803
-827
-250
-73
-97
-35
-27
-53
-24
-3
-3
9
25
34
34
35
51
73
89
110
142
172
200
237
280
319
357
399
436
460
466
461
441
391
305
199
101
26
-35
-83
-109
-118
-126
-135
-131
-124
-125
-125
-120
-124
-131
-121
-111
-120
-132
-133
-135
-136
-132
-136
-143
-140
-139
-147
-148
-137
-135
-144
-156
-171
-180
-166
-137
-110
-89
-79
-87
-107
-114
-107
-116
-134
-115
-101
-124
-114
-116
-42
557
1339
1033
-235
-812
-376
-50
-117
-123
-75
-92
-82
-60
-71
-57
-33
-35
-33
-15
-4
6
24
40
65
101
131
159
203
256
296
331
366
392
407
413
404
363
282
186
105
32
-42
-93
-115
-136
-156
-155
-143
-141
-146
-142
-135
-137
-145
-147
-139
-132
-133
-135
-133
-130
-129
-127
-125
-126
-129
-130
-128
-125
-122
-121
-124
-130
-130
-123
-129
-151
-152
-122
-92
-70
-47
-37
-57
-83
-78
-67
-81
-78
-48
-56
-66
-61
-54
323
1149
1331
283
-655
-480
-35
-18
-63
-8
-20
-30
5
2
-7
13
21
17
26
40
52
64
76
93
118
142
170
207
245
280
320
365
396
407
409
403
374
319
243
154
69
4
-43
-80
-104
-114
-120
-125
-123
-121
-122
-121
-120
-121
-120
-121
-123
-123
-122
-124
-124
-125
-132
-135
-126
-122
-130
-134
-126
-120
-126
-132
-128
-123
-127
-131
-126
-121
-127
-134
-139
-143
-135
-108
-80
-64
-55
-59
-80
-95
-89
-91
-96
-76
-81
-106
-88
-101
10
644
1265
756
-420
-763
-293
-37
-94
-83
-52
-71
-59
-38
-41
-32
-17
-13
-5
7
17
31
49
67
86
111
140
170
204
247
296
337
363
384
401
402
389
364
309
222
133
57
-8
-59
-90
-105
-115
-120
-118
-116
-118
-117
-110
-105
-107
-108
-100
-96
-105
-109
-100
-99
-108
-109
-105
-106
-108
-107
-107
-110
-110
-107
-107
-110
-109
-99
-91
-96
-106
-104
-94
-92
-100
-105
-104
-104
-108
-99
-74
-53
-41
-26
-25
-51
-65
-56
-66
-69
-45
-60
-68
-33
-54
170
975
1449
563
-679
-797
-240
-31
-68
-23
-4
-27
-11
0
-10
-5
10
22
32
37
45
63
83
97
115
142
171
199
234
277
322
360
388
410
426
431
417
378
314
228
133
40
-42
-99
-130
-151
-169
-175
-170
-162
-155
-154
-153
-148
-144
-147
-147
-140
-142
-148
-144
-138
-141
-145
-150
-154
-152
-148
-147
-145
-141
-138
-135
-136
-143
-147
-147
-155
-157
-138
-111
-95
-84
-67
-66
-93
-110
-101
-106
-107
-79
-86
-106
-80
-103
89
929
1570
747
-677
-950
-345
-64
-101
-54
-28
-62
-42
-17
-27
-23
-3
6
8
16
31
47
61
83
108
129
160
201
241
282
334
385
426
454
468
465
442
390
305
201
96
5
-64
-117
-155
-172
-175
-177
-176
-169
-162
-156
-146
-133
-127
-128
-130
-127
-125
-126
-126
-127
-130
-131
-134
-140
-142
-139
-137
-136
-133
-134
-135
-131
-131
-137
-139
-142
-149
-141
-111
-79
-57
-44
-47
-69
-81
-72
-73
-84
-62
-52
-79
-69
-73
26
678
1448
1056
-237
-752
-295
-3
-79
-75
-29
-49
-38
-13
-18
-13
-3
-6
3
20
31
44
60
76
97
124
153
184
221
260
306
357
398
424
439
444
426
377
300
204
101
14
-48
-93
-130
-150
-156
-162
-165
-161
-160
-159
-149
-140
-138
-134
-130
-134
-135
-130
-127
-129
-129
-130
-132
-129
-126
-128
-131
-131
-129
-128
-127
-125
-122
-118
-119
-123
-126
-132
-143
-142
-115
-81
-59
-47
-41
-53
-76
-81
-74
-81
-76
-56
-77
-88
-64
-64
232
1004
1278
343
-630
-538
-85
-37
-96
-48
-49
-66
-37
-30
-37
-24
-14
-9
8
18
20
29
48
70
97
122
145
175
214
257
305
347
376
399
413
406
382
337
259
164
77
6
-52
-90
-114
-135
-144
-140
-136
-139
-140
-138
-134
-130
-126
-124
-120
-115
-109
-108
-110
-112
-111
-109
-105
-103
-105
-109
-110
-108
-106
-105
-105
-105
-102
-100
-101
-99
-93
-89
-90
-92
-93
-99
-107
-111
-109
-94
-67
-43
-29
-18
-20
-44
-59
-53
-57
-63
-40
-42
-59
-37
-55
67
722
1317
756
-406
-697
-225
-4
-69
-47
-13
-35
-23
-6
-13
-7
4
2
8
22
32
40
54
73
95
119
145
177
214
250
290
335
374
398
412
423
421
395
332
237
138
56
-13
-74
-116
-137
-145
-144
-143
-150
-155
-145
-133
-131
-132
-128
-123
-121
-123
-128
-134
-135
-131
-130
-131
-129
-130
-134
-132
-133
-137
-131
-124
-133
-140
-133
-133
-145
-145
-123
-96
-80
-74
-69
-79
-104
-107
-97
-111
-114
-92
-107
-111
-85
-106
203
1096
1473
397
-859
-860
-268
-90
-121
-63
-51
-71
-43
-30
-41
-31
-18
-18
-11
9
28
45
62
81
100
123
151
189
240
291
339
385
425
456
478
481
452
391
301
194
85
-13
-87
-135
-162
-180
-187
-187
-185
-181
-175
-171
-168
-160
-151
-148
-148
-145
-141
-142
-140
-133
-134
-143
-146
-141
-138
-140
-143
-140
-138
-146
-152
-140
-115
-89
-66
-56
-66
-85
-97
-92
-86
-98
-93
-69
-87
-94
-74
-106
199
1104
1503
468
-726
-696
-152
-45
-100
-40
-33
-52
-21
-13
-26
-12
5
8
14
23
33
49
69
90
115
143
172
205
246
298
351
394
426
450
462
455
426
364
266
157
65
-6
-65
-103
-122
-135
-144
-145
-142
-138
-132
-125
-123
-127
-130
-126
-121
-125
-133
-134
-131
-131
-133
-133
-134
-137
-138
-139
-141
-144
-145
-147
-158
-169
-155
-117
-89
-82
-82
-86
-101
-117
-112
-103
-111
-108
-98
-120
-117
-106
-101
302
1129
1227
126
-746
-507
-83
-97
-144
-88
-100
-108
-67
-61
-72
-57
-44
-43
-38
-27
-11
8
28
50
73
96
125
169
216
257
297
341
379
398
403
395
359
289
202
113
27
-42
-87
-117
-142
-159
-161
-152
-147
-147
-143
-132
-127
-126
-121
-119
-120
-115
-107
-102
-97
-92
-90
-92
-97
-99
-93
-89
-90
-85
-78
-82
-88
-85
-88
-100
-95
-67
-35
-9
11
14
-6
-29
-25
-16
-27
-18
11
-2
-14
-7
-8
346
1159
1358
327
-622
-456
7
40
-9
44
32
22
61
49
