# session 30
-44
-71
-37
-13
-107
-224
-191
-67
7
46
90
111
96
47
-36
-132
-214
-278
-320
-340
-345
-340
-329
-315
-293
-267
-247
-226
-197
-172
-155
-136
-114
-98
-86
-73
-62
-53
-43
-36
-34
-30
-20
-12
-10
-4
10
16
17
22
29
32
34
38
36
27
22
33
58
85
105
122
125
102
78
85
85
66
80
93
65
71
64
95
631
1438
1247
4
-678
-306
49
3
-7
48
24
10
33
32
27
33
36
40
42
43
52
67
83
99
117
143
183
224
268
318
370
410
434
445
443
418
356
264
171
93
24
-40
-91
-121
-133
-141
-150
-158
-160
-158
-155
-152
-146
-141
-142
-146
-144
-145
-153
-154
-147
-143
-143
-144
-150
-155
-158
-166
-172
-169
-168
-176
-178
-169
-159
-154
-160
-169
-167
-159
-160
-166
-164
-160
-164
-170
-168
-149
-121
-99
-88
-82
-93
-112
-116
-119
-128
-105
-96
-131
-113
-105
-73
519
1453
1276
-152
-992
-588
-132
-127
-123
-68
-95
-91
-49
-50
-58
-45
-38
-33
-23
-15
1
29
56
82
112
143
182
235
297
357
410
456
496
518
513
485
435
349
233
124
41
-31
-85
-112
-128
-146
-151
-145
-138
-132
-131
-129
-118
-108
-105
-103
-98
-94
-93
-92
-87
-85
-97
-112
-109
-99
-104
-114
-117
-118
-123
-122
-116
-120
-132
-137
-135
-132
-130
-124
-104
-76
-62
-59
-61
-81
-99
-90
-91
-103
-80
-75
-102
-88
-117
0
771
1571
993
-461
-930
-374
-55
-111
-80
-34
-62
-51
-26
-30
-22
-12
-13
-4
10
19
34
53
68
88
120
159
203
251
308
368
422
464
489
490
474
436
361
260
164
82
11
-42
-76
-93
-98
-99
-104
-110
-109
-100
-87
-80
-78
-71
-61
-56
-56
-55
-52
-51
-53
-57
-57
-60
-66
-68
-69
-76
-81
-77
-74
-73
-70
-72
-77
-69
-58
-58
-59
-62
-93
-133
-129
-98
-86
-85
-75
-65
-60
-55
-52
-52
-52
-57
-56
-43
-45
-73
-86
-71
-60
-59
-52
-39
-34
-34
-33
-30
-30
-31
-27
-20
-20
-22
-18
-14
-15
-17
-15
-10
-7
-12
-17
-17
-18
-22
-22
-21
-27
-33
-31
-31
-38
-45
-45
-50
-60
-63
-44
-10
13
10
0
2
12
2
-24
-29
-29
-47
-41
-28
-59
-55
-50
-37
463
1347
1305
67
-747
-437
-54
-89
-107
-44
-56
-61
-36
-39
-44
-31
-22
-17
-13
-6
15
32
42
63
95
123
154
197
240
289
343
385
412
443
466
459
436
402
334
233
136
57
-11
-69
-105
-117
-121
-131
-135
-126
-126
-134
-128
-118
-120
-121
-115
-117
-121
-119
-122
-127
-125
-128
-138
-138
-133
-132
-131
-136
-146
-145
-134
-134
-140
-139
-135
-128
-121
-125
-129
-120
-113
-120
-124
-118
-114
-118
-120
-114
-104
-100
-103
-101
-95
-96
-105
-109
-102
-92
-91
-96
-86
-53
-23
-15
-19
-18
-13
-21
-44
-48
-44
-63
-61
-32
-52
-65
-57
-72
338
1332
1624
404
-811
-706
-153
-58
-99
-35
-29
-44
-18
-9
-9
0
1
8
27
34
38
57
77
93
120
155
187
224
271
322
381
446
494
514
519
508
468
396
294
181
83
10
-51
-96
-122
-136
-145
-144
-138
-134
-130
-126
-123
-122
-117
-108
-102
-101
-100
-97
-95
-95
-95
-95
-93
-92
-97
-105
-106
-102
-103
-109
-106
-99
-101
-105
-99
-94
-98
-103
-101
-101
-107
-111
-107
-103
-103
-103
-102
-103
-103
-102
-100
-99
-101
-103
-105
-101
-93
-92
-97
-101
-106
-101
-71
-33
-18
-21
-22
-18
-21
-37
-51
-50
-60
-73
-49
-45
-76
-62
-69
47
736
1469
985
-303
-744
-283
-29
-95
-68
-26
-53
-41
-16
-22
-17
-4
-4
3
17
26
41
63
80
97
123
156
191
235
290
342
396
450
490
505
503
486
441
366
273
178
95
29
-19
-50
-66
-77
-87
-92
-91
-84
-74
-66
-63
-62
-60
-58
-58
-60
-64
-70
-77
-94
-118
-140
-163
-198
-230
-252
-279
-304
-300
-274
-251
-239
-230
-221
-213
-212
-210
-200
-185
-173
-160
-145
-131
-120
-109
-97
-85
-72
-65
-62
-57
-46
-39
-38
-37
-36
-36
-33
-28
-28
-31
-32
-34
-29
-4
26
40
42
40
38
37
24
4
-1
-8
-14
11
14
-19
-10
-19
102
785
1489
981
-302
-725
-254
9
-54
-38
2
-15
-4
11
5
14
22
18
26
41
46
52
70
90
110
133
164
201
244
290
341
399
456
492
507
510
492
439
356
256
152
60
-15
-74
-115
-143
-163
-170
-170
-168
-160
-152
-154
-154
-146
-142
-142
-144
-148
-147
-144
-148
-151
-149
-153
-161
-163
-163
-167
-170
-172
-172
-169
-167
-169
-169
-165
-167
-174
-174
-166
-164
-172
-173
-169
-174
-182
-168
-131
-106
-102
-97
-90
-94
-104
-120
-144
-148
-139
-139
-120
-115
-151
-130
-112
-67
559
1549
1366
-163
-1106
-714
-204
-145
-114
-51
-77
-81
-47
-42
-30
-4
4
8
20
33
53
77
98
120
150
185
223
273
335
401
466
530
582
611
616
598
545
452
331
208
103
17
-49
-90
-114
-126
-128
-126
-123
-114
-103
-98
-96
-90
-82
-77
-74
-72
-70
-65
-63
-65
-70
-74
-80
-85
-89
-94
-94
-91
-92
-98
-98
-96
-98
-101
-100
-98
-97
-98
-103
-110
-117
-117
-100
-67
-45
-45
-49
-46
-49
-72
-98
-98
-90
-110
-114
-90
-109
-124
-117
-136
225
1146
1452
350
-776
-681
-179
-115
-162
-100
-99
-115
-87
-82
-85
-65
-55
-56
-48
-39
-30
-14
6
28
50
74
109
158
211
265
315
366
416
449
452
434
396
328
235
138
50
-22
-75
-114
-137
-145
-148
-147
-142
-139
-140
-135
-124
-116
-111
-107
-104
-102
-97
-97
-101
-99
-96
-101
-107
-105
-98
-99
-101
-100
-101
-104
-100
-90
-88
-95
-97
-93
-91
-90
-85
-82
-83
-80
-78
-82
-85
-86
-96
-100
-76
-44
-29
-14
9
3
-33
-45
-38
-55
-59
-39
-62
-78
-58
-74
210
1016
1344
392
-673
-638
-159
-66
-106
-51
-51
-70
-37
-27
-35
-21
-10
-13
-7
7
21
33
47
67
90
116
152
196
244
295
350
403
448
479
494
492
462
399
308
207
115
36
-33
-86
-113
-125
-136
-140
-136
-136
-138
-127
-107
-102
-111
-115
-109
-110
-113
-106
-99
-104
-107
-105
-109
-115
-116
-122
-132
-129
-120
-124
-133
-134
-134
-141
-145
-140
-124
-97
-72
-61
-69
-98
-125
-119
-108
-126
-123
-103
-132
-134
-110
-135
260
1257
1540
278
-980
-882
-287
-134
-145
-90
-97
-111
-78
-66
-69
-59
-51
-40
-30
-26
-14
10
29
50
81
114
150
199
253
313
385
454
501
528
538
521
472
388
271
141
33
-45
-108
-155
-178
-185
-192
-198
-192
-183
-174
-163
-153
-149
-145
-136
-133
-132
-125
-116
-113
-114
-111
-112
-120
-124
-121
-120
-125
-129
-128
-132
-136
-133
-131
-131
-120
-90
-62
-53
-53
-59
-78
-96
-86
-82
-95
-77
-64
-93
-84
-99
-62
562
1481
1251
-158
-920
-498
-85
-107
-103
-44
-63
-59
-31
-38
-37
-21
-18
-15
-7
0
17
39
57
77
104
136
175
222
276
337
395
443
478
497
496
472
416
322
209
107
25
-42
-89
-119
-139
-151
-153
-149
-143
-138
-135
-133
-128
-124
-120
-116
-112
-107
-104
-104
-105
-105
-106
-109
-113
-113
-115
-120
-123
-120
-120
-124
-123
-117
-113
-114
-111
-101
-96
-102
-110
-114
-119
-126
-121
-99
-71
-49
-32
-21
-33
-59
-62
-55
-68
-62
-44
-72
-80
-73
-88
315
1231
1423
261
-765
-577
-95
-64
-107
-44
-51
-70
-38
-27
-30
-19
-13
-10
-1
7
17
33
49
66
90
119
151
196
246
297
350
401
439
463
472
460
422
356
264
164
75
6
-46
-87
-115
-129
-134
-138
-141
-139
-134
-135
-135
-129
-124
-130
-133
-125
-119
-123
-127
-128
-128
-129
-130
-131
-132
-135
-137
-140
-140
-138
-137
-138
-136
-132
-131
-129
-125
-123
-121
-115
-109
-106
-107
-105
-98
-91
-90
-91
-90
-86
-80
-78
-82
-78
-66
-60
-63
-60
-51
-49
-49
-43
-39
-39
-41
-46
-55
-51
-24
6
24
37
50
37
10
9
17
0
3
23
-2
-4
6
4
419
1296
1419
263
-684
-469
-27
-20
-56
6
-7
-25
3
6
-1
11
13
11
23
34
41
54
72
88
105
130
165
204
246
291
339
384
420
446
458
459
443
391
307
218
136
59
-7
-56
-90
-107
-111
-114
-115
-115
-119
-119
-107
-100
-105
-110
-106
-105
-108
-111
-113
-117
-118
-115
-115
-121
-126
-125
-118
-114
-118
-125
-126
-122
-118
-115
-115
-114
-110
-108
-107
-104
-101
-100
-101
-98
-93
-89
-85
-81
-76
-76
-74
-69
-67
-70
-70
-62
-58
-58
-58
-59
-58
-55
-52
-50
-48
-49
-50
-47
-46
-46
-41
-37
-40
-36
-28
-28
-30
-28
-29
-29
-21
-12
-18
-30
-28
-17
-15
-22
-19
-12
-15
-20
-19
-18
-20
-26
-30
-17
10
29
32
31
36
36
17
-10
-12
-9
-30
-27
-10
-39
-44
-33
-35
378
1246
1363
226
-698
-488
-64
-62
-94
-30
-41
-59
-34
-29
-30
-19
-14
-10
1
8
18
33
46
66
93
121
149
180
218
269
322
367
406
437
454
453
435
401
343
261
170
90
27
-24
-65
-92
-108
-116
-115
-111
-114
-117
-109
-101
-101
-101
-99
-100
-102
-102
-102
-101
-103
-108
-109
-107
-113
-124
-125
-122
-124
-124
-119
-118
-121
-121
-121
-123
-123
-120
-115
-114
-120
-121
-116
-116
-119
-113
-108
-110
-108
-104
-104
-104
-99
-97
-99
-97
-93
-92
-93
-89
-82
-78
-81
-81
-74
-69
-74
-76
-70
-68
-75
-65
-34
-8
2
6
5
1
4
-9
-41
-46
-38
-60
-55
-28
-52
-55
-51
-42
468
1440
1479
122
-924
-676
-162
-80
-77
-25
-39
-39
-10
-10
-3
16
16
18
33
46
54
68
90
116
138
158
189
231
275
328
388
448
503
547
566
559
533
484
398
284
168
70
-14
-79
-118
-140
-158
-171
-171
-161
-151
-146
-142
-138
-138
-134
-123
-118
-126
-129
-125
-123
-121
-123
-131
-134
-129
-123
-125
-140
-148
-137
-122
-125
-132
-127
-122
-125
-127
-123
-118
-116
-116
-114
-115
-120
-117
-102
-94
-99
-102
-98
-97
-95
-92
-96
-101
-101
-102
-102
-83
-47
-27
-28
-29
-23
-24
-46
-67
-65
-69
-83
-63
-49
-81
-75
-80
-45
541
1458
1306
-52
-864
-498
-83
-98
-105
-48
-73
-77
-41
-39
-47
-37
-27
-18
-7
-2
7
25
45
63
80
105
145
192
238
291
352
406
451
486
504
497
466
404
312
208
111
28
-37
-85
-117
-135
-140
-141
-144
-144
-137
-130
-126
-121
-114
-111
-110
-105
-100
-101
-104
-99
-94
-98
-104
-106
-107
-109
-109
-110
-111
-112
-111
-104
-97
-95
-96
-91
-84
-85
-85
-80
-77
-77
-74
-66
-63
-64
-63
-57
-50
-48
-46
-44
-44
-46
-44
-40
-44
-45
-26
6
27
31
29
30
35
23
-5
-11
-3
-20
-24
0
-17
-37
-25
-45
237
1084
1496
557
-604
-643
-149
-35
-90
-42
-32
-57
-40
-29
-30
-22
-22
-21
-10
-3
1
17
30
36
58
92
123
155
197
243
293
349
396
429
453
456
434
394
326
225
118
29
-45
-106
-146
-168
-182
-191
-186
-176
-178
-185
-178
-166
-162
-165
-167
-168
-165
-158
-156
-160
-162
-160
-159
-157
-157
-161
-163
-159
-157
-157
-154
-154
-159
-156
-143
-138
-143
-142
-134
-129
-130
-125
-115
-114
-118
-112
-100
-98
-97
-92
-88
-88
-84
-77
-73
-73
-74
-74
-72
-59
-30
-2
9
11
15
21
15
-10
-21
-11
-19
-25
-2
-10
-28
-12
-38
164
947
1483
713
-489
-661
-171
-6
-60
-16
1
-19
12
31
21
30
39
38
45
54
61
75
87
97
119
147
174
208
250
300
353
410
465
500
517
533
533
488
415
332
229
121
42
-14
-65
-99
-113
-118
-122
-123
-121
-117
-116
-119
-121
-120
-121
-123
-117
-107
-109
-118
-121
-121
-130
-138
-135
-129
-129
-130
-129
-130
-137
-142
-143
-143
-143
-139
-138
-142
-141
-138
-138
-138
-137
-141
-146
-148
-149
-144
-124
-97
-78
-70
-70
-73
-76
-91
-113
-113
-109
-125
-113
-95
-129
-120
-100
-100
395
1382
1441
69
-1006
-758
-226
-144
-142
-78
-88
-94
-65
-68
-69
-45
-30
-29
-27
-18
4
27
41
59
87
118
150
191
243
305
373
437
493
538
560
557
535
478
375
250
132
25
-62
-117
-150
-177
-191
-189
-183
-180
-174
-166
-163
-161
-152
-142
-143
-144
-135
-126
-130
-136
-136
-135
-137
-139
-139
-140
-141
-142
-141
-141
-138
-130
-127
-134
-138
-133
-133
-139
-135
-119
-96
-73
-58
-52
-60
-80
-91
-83
-89
-93
-67
-71
-102
-77
-92
8
744
1567
1070
-369
-919
-412
-60
-89
-63
-19
-45
-36
-9
-11
-7
1
0
11
24
26
34
51
63
77
104
138
176
219
267
324
392
457
499
521
529
518
475
395
289
177
84
11
-48
-88
-106
-115
-123
-123
-117
-116
-117
-111
-103
-98
-90
-81
-78
-81
-84
-86
-84
-82
-89
-104
-110
-102
-100
-110
-114
-105
-101
-109
-111
-108
-113
-118
-109
-99
-106
-118
-126
-134
-138
-124
-96
-74
-59
-47
-52
-82
-97
-84
-89
-96
-74
-84
-109
-94
-114
81
860
1424
673
-566
-776
-280
-101
-162
-122
-104
-132
-114
-103
-115
-109
-106
-117
-112
-98
-93
-88
-78
-67
-52
-29
-2
29
66
