# session 21
21
-26
106
100
-326
-781
-829
-695
-670
-654
-584
-549
-530
-483
-434
-385
-322
-257
-187
-100
-1
97
187
251
283
290
274
229
157
71
-17
-96
-160
-207
-237
-249
-246
-236
-228
-220
-210
-202
-193
-186
-184
-184
-178
-173
-173
-173
-171
-169
-168
-166
-167
-170
-171
-173
-179
-176
-154
-125
-95
-66
-48
-56
-74
-70
-57
-64
-56
-33
-50
-53
-44
-50
340
1219
1394
226
-829
-649
-122
-52
-92
-29
-25
-33
3
10
6
25
37
43
63
86
104
129
163
205
253
311
380
452
516
561
582
578
554
508
434
339
242
155
81
22
-20
-46
-57
-61
-65
-67
-65
-64
-68
-71
-74
-78
-83
-88
-95
-102
-108
-111
-115
-119
-125
-130
-133
-141
-153
-163
-171
-180
-180
-161
-132
-105
-82
-75
-93
-115
-113
-105
-114
-108
-92
-110
-113
-112
-107
296
1092
1149
27
-858
-621
-156
-120
-151
-93
-97
-105
-71
-62
-64
-46
-35
-30
-13
8
30
58
90
127
173
230
294
363
428
474
495
494
475
437
374
286
191
106
35
-24
-67
-92
-105
-113
-117
-120
-122
-123
-126
-131
-134
-136
-142
-150
-155
-160
-165
-169
-172
-174
-177
-182
-188
-192
-193
-195
-196
-194
-194
-201
-209
-215
-222
-221
-198
-167
-140
-117
-104
-117
-140
-140
-132
-138
-127
-109
-127
-127
-123
-133
237
1026
1125
42
-854
-638
-163
-107
-133
-76
-76
-81
-46
-36
-34
-14
-2
8
29
51
72
100
134
173
220
273
330
397
465
514
538
542
529
496
442
367
280
194
115
48
8
-12
-33
-48
-49
-48
-46
-44
-48
-55
-55
-55
-60
-63
-66
-75
-81
-78
-77
-82
-88
-91
-97
-100
-100
-98
-95
-91
-93
-100
-98
-90
-86
-85
-86
-89
-90
-84
-80
-83
-82
-80
-82
-81
-77
-78
-79
-78
-79
-79
-73
-69
-73
-74
-72
-72
-73
-75
-80
-84
-76
-53
-36
-32
-20
-3
-21
-55
-52
-44
-56
-47
-48
-73
-55
-66
49
780
1571
1016
-496
-1089
-550
-129
-116
-85
-46
-73
-59
-30
-42
-43
-19
-2
10
27
48
77
104
132
177
232
279
333
405
467
511
549
564
544
512
471
394
287
189
109
36
-24
-64
-95
-119
-132
-130
-121
-121
-134
-138
-126
-118
-126
-134
-132
-129
-136
-149
-157
-162
-166
-170
-175
-179
-176
-170
-171
-178
-172
-159
-157
-160
-155
-149
-147
-146
-142
-135
-129
-128
-129
-121
-111
-112
-116
-110
-102
-100
-97
-91
-90
-94
-92
-87
-88
-92
-96
-102
-102
-85
-65
-51
-31
-7
-13
-39
-48
-53
-62
-40
-32
-64
-51
-46
52
740
1600
1179
-355
-1071
-556
-109
-117
-95
-31
-51
-44
-16
-24
-23
-6
2
14
33
50
74
104
135
175
223
277
345
421
492
548
581
588
569
528
461
372
273
176
93
22
-38
-80
-100
-110
-119
-121
-116
-113
-115
-115
-112
-110
-111
-113
-116
-121
-123
-125
-131
-137
-137
-142
-151
-157
-158
-163
-170
-171
-167
-164
-161
-158
-156
-154
-150
-145
-143
-146
-150
-154
-163
-168
-156
-127
-97
-71
-50
-51
-75
-87
-77
-83
-85
-64
-76
-96
-82
-86
190
1012
1430
505
-678
-725
-205
-82
-145
-88
-67
-85
-55
-37
-42
-25
-10
-5
11
31
47
70
101
137
179
232
297
374
457
531
584
607
600
567
505
413
301
192
99
23
-37
-80
-110
-127
-132
-131
-132
-131
-128
-126
-126
-125
-122
-122
-125
-128
-129
-131
-134
-136
-140
-147
-154
-157
-159
-163
-167
-168
-169
-171
-173
-173
-172
-171
-169
-165
-166
-174
-181
-189
-201
-202
-179
-146
-120
-97
-79
-88
-113
-118
-114
-124
-112
-93
-115
-116
-110
-84
372
1194
1183
-6
-864
-585
-139
-122
-146
-85
-90
-93
-61
-53
-50
-34
-27
-19
0
19
40
67
97
137
186
240
303
383
469
536
578
598
595
562
502
415
308
207
127
59
1
-33
-49
-63
-75
-76
-73
-70
-67
-65
-64
-62
-63
-67
-72
-75
-75
-76
-83
-93
-101
-104
-107
-112
-116
-119
-123
-124
-123
-123
-124
-123
-118
-117
-126
-134
-137
-147
-162
-154
-122
-92
-71
-55
-65
-98
-108
-103
-116
-117
-99
-116
-122
-111
-115
224
1008
1198
186
-770
-640
-182
-123
-164
-108
-102
-111
-83
-76
-79
-60
-43
-30
-15
-1
18
48
76
106
149
205
267
337
409
473
516
534
528
497
439
358
260
163
80
11
-44
-79
-98
-108
-110
-108
-106
-104
-101
-101
-104
-107
-110
-112
-112
-113
-117
-117
-118
-121
-123
-124
-130
-136
-136
-135
-135
-136
-140
-145
-143
-137
-137
-137
-135
-140
-151
-158
-161
-162
-146
-117
-90
-69
-57
-74
-104
-108
-106
-115
-102
-93
-111
-102
-105
-26
527
1214
888
-320
-890
-482
-119
-137
-144
-101
-113
-104
-72
-71
-70
-51
-32
-18
-4
18
49
77
109
153
203
262
337
420
498
560
602
629
629
592
531
440
317
202
114
34
-30
-65
-86
-101
-103
-100
-99
-97
-97
-101
-101
-98
-94
-89
-87
-89
-92
-95
-98
-98
-100
-105
-110
-118
-122
-117
-114
-124
-135
-140
-152
-164
-153
-130
-118
-101
-83
-94
-127
-137
-137
-150
-146
-136
-164
-159
-147
-154
275
1209
1375
128
-1000
-840
-292
-192
-214
-149
-146
-155
-122
-113
-114
-91
-77
-72
-56
-37
-17
11
43
78
127
189
257
335
417
485
523
538
534
502
434
336
229
138
61
-16
-76
-105
-115
-116
-112
-110
-110
-105
-97
-92
-94
-97
-99
-100
-108
-115
-117
-122
-130
-134
-136
-142
-148
-149
-147
-142
-137
-144
-157
-157
-152
-160
-167
-153
-123
-90
-60
-49
-66
-84
-76
-70
-78
-64
-53
-76
-69
-62
14
561
1314
1081
-160
-847
-476
-88
-108
-122
-74
-93
-90
-61
-72
-77
-52
-37
-25
-3
6
18
50
85
118
159
200
260
358
453
500
515
522
508
466
397
300
192
100
27
-35
-81
-112
-132
-129
-113
-115
-127
-125
-114
-111
-115
-119
-111
-101
-110
-131
-137
-131
-132
-141
-151
-159
-163
-149
-119
-100
-122
-165
-180
-154
-133
-153
-165
-111
-41
-39
-83
-97
-83
-92
-114
-92
-60
-88
-95
-48
-77
98
877
1431
623
-689
-902
-309
-54
-129
-106
-47
-44
-31
-23
-35
-30
-17
-10
5
16
13
31
84
135
171
207
249
310
386
441
470
502
529
511
442
352
260
169
76
-5
-59
-89
-106
-119
-132
-150
-159
-149
-140
-153
-168
-160
-141
-142
-156
-160
-162
-173
-171
-165
-181
-191
-174
-164
-169
-171
-179
-187
-181
-191
-211
-188
-139
-115
-95
-78
-105
-140
-129
-124
-154
-143
-111
-126
-117
-109
-100
350
1162
1106
-123
-982
-674
-180
-124
-148
-104
-110
-117
-99
-97
-87
-55
-33
-23
-17
-7
17
54
86
115
160
218
276
345
430
497
524
534
529
491
434
373
296
202
114
47
-3
-39
-55
-51
-40
-31
-28
-30
-31
-33
-39
-42
-42
-50
-56
-46
-37
-42
-52
-60
-65
-67
-71
-71
-67
-75
-92
-98
-104
-121
-119
-88
-57
-34
-18
-35
-69
-66
-58
-81
-88
-83
-100
-75
-60
-73
334
1151
1179
-8
-927
-677
-193
-151
-186
-137
-149
-160
-136
-154
-166
-128
-101
-100
-91
-75
-55
-25
4
36
88
154
220
288
357
409
437
446
440
420
369
277
179
94
-3
-94
-136
-145
-157
-172
-186
-191
-178
-163
-161
-159
-156
-160
-165
-167
-166
-164
-167
-170
-172
-174
-166
-156
-165
-178
-175
-172
-173
-160
-134
-107
-83
-70
-77
-90
-84
-74
-83
-73
-57
-85
-85
-75
-80
384
1372
1498
111
-1095
-882
-257
-124
-134
-64
-68
-87
-59
-49
-39
-8
4
0
7
23
46
73
103
148
202
249
300
381
464
508
527
554
563
522
449
365
269
171
86
14
-39
-71
-87
-84
-76
-82
-88
-83
-80
-83
-93
-110
-108
-92
-98
-119
-128
-134
-143
-155
-171
-182
-187
-196
-200
-193
-181
-161
-131
-109
-118
-151
-166
-148
-133
-124
-119
-138
-143
-144
-141
269
1155
1353
201
-903
-771
-220
-124
-186
-133
-102
-106
-94
-92
-87
-69
-55
-45
-34
-14
19
44
62
95
144
199
267
337
396
449
485
481
450
417
367
280
185
102
24
-41
-87
-128
-148
-135
-125
-139
-149
-147
-139
-124
-119
-136
-154
-157
-152
-143
-142
-151
-157
-163
-169
-162
-157
-169
-181
-186
-177
-144
-108
-98
-110
-129
-138
-135
-130
-111
-97
-122
-124
-121
-120
306
1198
1345
173
-854
-665
-157
-108
-147
-67
-62
-88
-50
-26
-37
-34
-17
-3
7
15
34
77
122
146
173
231
297
343
394
457
490
483
465
437
378
297
211
125
46
-13
-53
-84
-102
-110
-113
-106
-91
-92
-106
-111
-111
-115
-126
-141
-144
-127
-124
-140
-148
-152
-167
-183
-197
-201
-183
-171
-166
-130
-86
-82
-108
-132
-150
-162
-160
-130
-113
-139
-136
-146
-183
248
1215
1414
179
-965
-816
-236
-105
-142
-109
-117
-123
-85
-74
-70
-43
-30
-24
-12
-10
9
55
89
126
198
254
282
342
428
495
540
553
520
479
436
347
228
133
49
-45
-112
-135
-149
-163
-166
-165
-163
-149
-140
-144
-144
-144
-150
-147
-141
-150
-158
-151
-148
-161
-179
-190
-192
-186
-178
-165
-141
-114
-99
-109
-142
-151
-127
-128
-137
-111
-116
-140
-129
-163
66
995
1668
724
-887
-1220
-520
-143
-172
-139
-94
-106
-79
-54
-70
-62
-21
-1
-1
14
40
68
105
140
171
228
306
379
460
541
576
571
554
517
453
373
276
170
77
3
-53
-95
-120
-123
-112
-109
-114
-119
-118
-110
-102
-104
-107
-106
-110
-112
-111
-120
-135
-144
-155
-173
-177
-168
-176
-184
-154
-118
-108
-114
-133
-153
-155
-157
-152
-126
-137
-160
-161
-190
97
1006
1515
527
-844
-978
-378
-164
-205
-144
-121
-142
-113
-98
-102
-77
-55
-57
-49
-23
9
30
52
104
167
218
281
360
420
464
511
539
525
483
418
325
226
132
37
-33
-62
-94
-140
-149
-130
-131
-143
-137
-127
-119
-111
-114
-125
-123
-117
-124
-127
-117
-117
-133
-138
-141
-169
-194
-185
-177
-185
-168
-130
-106
-90
-89
-116
-123
-109
-122
-115
-76
-89
-108
-109
-121
261
1156
1375
226
-863
-724
-208
-140
-190
-138
-145
-165
-128
-106
-105
-91
-73
-60
-47
-30
-6
15
36
84
155
225
288
359
435
491
516
522
514
474
400
323
245
152
61
-2
-43
-72
-91
-101
-105
-97
-78
-68
-76
-84
-80
-76
-81
-88
-89
-91
-93
-92
-102
-120
-114
-91
-97
-125
-137
-143
-162
-168
-146
-122
-98
-69
-61
-88
-108
-100
-106
-128
-114
-93
-102
-103
-133
-43
590
1336
957
-334
-906
-474
-135
-176
-176
-130
-145
-140
-120
-121
-107
-87
-77
-54
-30
-17
7
39
66
104
159
216
274
339
403
444
455
450
429
379
303
215
126
44
-26
-88
-124
-125
-120
-129
-134
-131
-133
-133
-125
-121
-123
-122
-118
-115
-114
-116
-115
-102
-88
-86
-85
-78
-70
-65
-61
-56
-60
-70
-75
-72
-69
-60
-37
-5
17
15
-8
-32
-37
-46
-67
-58
-39
-64
-68
-61
-76
276
1071
1207
123
-842
-676
-189
-116
-148
-95
-100
-117
-90
-85
-89
-70
-58
-58
-44
-22
-1
22
50
83
128
191
257
313
368
425
465
476
469
449
404
321
218
124
48
-25
-88
-121
-125
-129
-142
-150
-148
-143
-139
-137
-138
-139
-139
-143
-153
-164
-165
-156
-153
-166
-175
-166
-159
-173
-184
-181
-185
-197
-190
-160
-131
-118
-112
-110
-124
-136
-129
-130
-132
-107
-115
-144
-107
-92
86
923
1723
993
-698
-1300
-680
-211
-178
-130
-83
-106
-86
-56
-54
-30
-4
-3
14
48
66
86
132
179
215
265
340
419
490
558
619
649
644
615
552
452
336
219
104
7
-62
-104
-132
-152
-162
-157
-152
-156
-156
-147
-143
-143
-143
-146
-150
-152
-154
-162
-172
-175
-175
-181
-191
-200
-207
-209
-209
-207
-197
-173
-144
-122
-124
-148
-157
-143
-152
-158
-128
-133
-158
-122
-117
93
971
1673
802
-811
-1200
-531
-164
-191
-144
-95
-116
-96
-68
-70
-59
-37
-24
-9
8
27
54
88
129
180
238
305
386
469
535
579
598
588
551
490
401
296
195
104
28
-31
-67
-83
-88
-90
-92
-90
-81
-77
-81
-80
-76
-79
-86
-90
-96
-102
-108
-118
-128
-132
-138
-151
-165
-176
-183
-185
-177
-158
-131
-108
-97
-105
-127
-131
-124
-135
-130
-109
-132
-141
-131
-142
251
1178
1396
181
-954
-788
-236
-162
-203
-137
-137
-150
-116
-107
-109
-87
-76
-72
-55
-35
-19
6
40
80
125
177
243
317
388
442
471
477
465
425
352
259
158
62
-16
-75
-119
-150
-166
-171
-172
-170
-168
-164
-161
-162
-163
-161
-164
-168
-168
-168
-174
-178
-177
-176
-179
-179
-180
-187
-197
-206
-216
-225
-218
-194
-165
-135
-112
-112
-132
-143
-131
-130
-136
-113
-107
-132
-118
-124
-23
624
1348
904
-380
-849
-367
-69
-131
-111
-60
-79
-62
-30
-34
-24
-1
8
22
47
68
92
125
162
205
261
324
389
459
526
573
591
590
574
534
459
363
275
200
130
75
41
16
1
1
4
-1
-3
-2
-4
-5
-5
-10
-17
-21
-21
-19
-19
-20
-20
-20
-25
-28
-28
-37
-55
-57
-42
-43
-67
-80
-79
-80
-74
-48
-22
-6
5
2
-24
-48
-51
-59
-72
-61
-68
-100
-91
-111
-31
578
1247
765
-528
-1002
-521
-213
-280
-288
-261
-294
-291
-278
-301
-308
-301
-317
-331
-325
-317
-314
-303
-284
-262
-237
-203
-155
-98
-53
-29
