# session 5
49
279
-337
172
2373
3230
1752
808
1430
1844
1645
1616
1642
1518
1465
1451
1379
1335
1320
1286
1260
1252
1250
1258
1275
1287
1283
1250
1190
1112
1018
910
782
629
480
370
298
242
200
167
135
102
71
38
4
-29
-60
-91
-121
-146
-168
-190
-191
-165
-155
-179
-208
-241
-259
-249
-271
-301
-312
-425
-307
559
1282
523
-828
-1032
-457
-278
-367
-313
-280
-311
-291
-274
-278
-253
-224
-207
-171
-127
-89
-39
24
78
111
122
107
70
22
-39
-129
-234
-315
-364
-394
-406
-404
-407
-415
-415
-411
-408
-403
-401
-405
-403
-397
-395
-392
-373
-343
-310
-279
-261
-259
-276
-295
-277
-252
-262
-257
-300
-385
20
947
1118
32
-829
-588
-175
-178
-200
-135
-146
-157
-125
-116
-104
-69
-40
-12
31
79
132
197
262
315
353
372
371
356
331
278
189
94
30
-7
-29
-40
-41
-40
-40
-43
-45
-50
-52
-42
-40
-55
-54
-36
-38
-54
-49
-23
13
45
53
45
27
5
18
37
9
13
5
-78
311
1319
1529
213
-924
-647
-21
63
24
92
90
80
120
124
125
173
205
215
255
307
344
401
485
542
565
584
582
536
473
401
290
142
12
-60
-89
-117
-137
-130
-127
-152
-170
-164
-165
-180
-192
-193
-190
-194
-201
-197
-193
-204
-196
-156
-136
-148
-152
-158
-164
-147
-148
-150
-145
-232
-28
933
1579
559
-971
-1115
-391
-113
-158
-103
-86
-118
-89
-64
-67
-46
-15
8
40
91
149
205
266
334
385
401
389
356
306
231
124
0
-104
-173
-216
-240
-250
-250
-243
-242
-249
-248
-237
-238
-253
-259
-260
-267
-271
-263
-258
-253
-231
-203
-194
-197
-202
-201
-170
-157
-191
-168
-167
-235
230
1273
1364
-57
-1111
-721
-112
-73
-103
-23
-30
-43
-7
1
6
39
71
105
148
192
246
314
382
441
481
486
460
421
367
281
158
34
-53
-104
-138
-159
-162
-157
-156
-153
-152
-160
-163
-160
-167
-178
-183
-188
-190
-187
-187
-178
-143
-113
-113
-122
-136
-143
-118
-117
-139
-118
-177
-165
520
1382
913
-547
-1036
-393
3
-68
-44
30
9
19
55
62
83
120
148
187
235
283
342
413
473
514
535
529
495
443
370
270
157
58
-12
-53
-74
-86
-94
-98
-102
-111
-120
-124
-130
-142
-152
-158
-162
-167
-173
-184
-182
-148
-117
-121
-139
-153
-160
-143
-141
-158
-150
-236
-278
357
1301
1014
-421
-1072
-518
-74
-113
-108
-44
-67
-63
-25
-20
-7
30
60
95
142
191
247
311
370
415
439
433
403
360
299
206
93
-10
-83
-123
-141
-158
-175
-180
-176
-180
-190
-194
-193
-202
-214
-217
-219
-229
-232
-220
-195
-158
-133
-139
-157
-171
-171
-148
-153
-180
-172
-252
-322
230
1147
1008
-237
-880
-452
-83
-126
-129
-75
-93
-88
-62
-68
-50
-6
21
45
84
129
181
239
294
341
367
363
342
313
266
191
97
13
-38
-71
-102
-118
-115
-116
-122
-120
-119
-121
-115
-113
-122
-124
-119
-124
-125
-115
-108
-87
-42
-22
-46
-70
-88
-87
-58
-69
-103
-98
-179
-125
637
1452
876
-547
-955
-365
-39
-87
-53
-15
-47
-24
6
-6
10
56
83
110
157
212
269
335
402
451
482
492
475
432
363
258
131
8
-84
-129
-159
-204
-226
-207
-202
-231
-241
-229
-240
-274
-284
-272
-275
-292
-292
-282
-285
-264
-215
-203
-228
-231
-222
-211
-197
-215
-205
-181
-261
31
1097
1644
432
-1078
-1081
-336
-98
-129
-48
-21
-41
2
42
55
83
123
171
229
286
353
436
526
612
672
690
684
661
601
500
372
227
97
20
-17
-48
-69
-72
-69
-63
-55
-57
-71
-84
-96
-109
-123
-137
-148
-161
-179
-173
-139
-136
-168
-188
-200
-210
-192
-197
-221
-215
-290
-194
635
1467
826
-657
-1057
-447
-132
-187
-140
-91
-118
-97
-65
-69
-51
-18
2
35
88
142
200
271
343
397
416
400
359
303
227
131
23
-85
-165
-203
-217
-232
-241
-240
-241
-241
-234
-231
-237
-239
-237
-249
-270
-271
-255
-236
-206
-170
-160
-176
-188
-200
-202
-178
-181
-201
-189
-237
-149
520
1176
630
-590
-900
-371
-100
-155
-124
-80
-99
-81
-51
-47
-22
16
41
81
141
195
250
324
405
474
518
511
464
421
371
269
132
20
-58
-126
-176
-192
-193
-209
-234
-243
-238
-247
-257
-244
-240
-274
-295
-272
-265
-287
-281
-256
-247
-222
-193
-196
-183
-159
-177
-174
-132
-124
-117
-152
-148
509
1605
1472
-152
-1177
-724
-112
-11
19
66
58
132
236
261
243
195
157
196
331
556
734
732
746
942
1104
1064
962
915
850
694
515
390
305
265
235
131
66
188
332
300
174
71
21
57
97
26
15
217
338
139
-110
-182
-234
-393
-482
-384
-364
-619
-793
-653
-566
-518
-55
486
710
1116
1383
423
-1008
-1304
-773
-524
-522
-380
-245
-289
-358
-365
-440
-480
-322
-285
-528
-585
-420
-501
-644
-474
-287
-211
-15
36
-276
-468
-374
-458
-698
-653
-446
-447
-621
-743
-668
-435
-315
-432
-551
-527
-463
-404
-298
-153
-16
67
124
221
285
283
298
181
-56
180
789
596
-514
-1043
-234
816
907
409
236
265
324
800
1083
419
-206
43
375
348
425
631
713
728
773
847
914
908
788
565
334
178
5
-217
-307
-225
-165
-163
-132
-193
-399
-416
-165
-100
-266
-248
-142
-143
138
702
872
541
220
79
-13
-97
-160
-148
-41
49
59
62
145
267
225
147
647
1446
1151
-286
-1150
-819
-284
-64
44
100
76
-46
-303
-594
-660
-308
144
100
-262
-266
33
214
285
266
137
183
449
562
441
335
303
228
68
-120
-237
-290
-429
-622
-609
-394
-268
-296
-343
-400
-434
-348
-303
-479
-613
-471
-422
-476
262
1587
1586
-41
-1142
-852
-463
-526
-499
-346
-310
-278
-188
-184
-250
-210
-44
104
186
227
158
-15
-95
29
240
422
518
476
389
417
435
200
-169
-449
-678
-751
-424
8
77
-63
-116
-150
-143
-18
41
-31
-92
-119
-94
-20
-83
-249
-261
-221
-351
-407
-182
24
7
-3
103
150
86
4
-53
-29
85
163
108
-7
280
1342
2078
984
-849
-1150
-246
224
237
322
301
172
192
266
252
260
313
291
337
575
573
174
50
430
728
755
741
681
568
464
337
233
173
21
-210
-359
-428
-444
-268
110
366
295
79
-144
-368
-422
-235
-64
-91
-206
-250
-208
-177
-179
-177
-234
-378
-517
-583
-499
-373
-452
-257
741
1335
292
-1063
-1180
-708
-435
-285
-457
-637
-89
396
-173
-773
-448
-32
-74
-36
186
237
189
264
392
430
406
391
354
308
349
372
119
-355
-715
-846
-843
-665
-371
-263
-264
-77
42
-81
-139
-226
-298
263
879
422
-317
-239
-67
-402
-617
-488
-409
-437
-422
-360
-405
-523
-40
1156
1476
73
-1318
-1309
-731
-443
-299
-176
-85
21
83
110
158
199
223
168
62
232
813
1441
1642
1203
527
414
900
1189
1016
785
618
402
214
134
84
22
1
5
-11
49
232
348
337
297
112
-210
-297
-135
-53
17
141
44
-162
-236
-373
-389
228
1129
1406
827
310
830
1482
592
-1093
-1598
-1030
-597
-438
-297
-244
-234
-218
-275
-312
-314
-478
-606
-329
18
-36
-141
92
305
259
322
515
363
34
115
293
-85
-616
-641
-495
-653
-764
-523
-308
-333
-308
-190
-210
-291
-250
-217
-308
-389
-430
-540
-556
-362
-309
-416
-151
213
-98
-650
-646
-477
-429
249
1360
1205
-421
-1400
-971
-656
-596
331
1182
670
-108
-158
-164
-388
-391
-255
-174
-76
15
53
94
187
348
498
546
543
503
342
131
15
0
38
55
-9
-15
95
124
103
146
29
-15
627
1381
1216
524
58
-226
-154
380
609
312
183
273
202
137
160
108
52
13
373
1600
2296
939
-561
-70
741
209
-389
-180
71
23
-102
-134
24
116
-49
-217
-305
-418
-377
-50
364
624
621
457
392
436
352
164
62
-30
-207
-320
-331
-395
-518
-631
-746
-796
-685
-547
-545
-589
-576
-588
-616
-532
-465
-551
-482
-194
-190
-382
-189
82
-74
-248
-212
-407
-666
-179
1006
1583
712
-536
-800
-415
-296
-379
-320
-249
-312
-384
-356
-313
-376
-519
-624
-616
-510
-320
-25
276
371
340
501
784
793
545
327
118
-106
-125
8
26
-41
-105
-234
-324
-246
-165
-225
-298
-303
-306
-312
-291
-292
-346
-407
-447
-471
-463
-397
-272
-166
-161
-132
-13
-72
65
1270
2462
1619
-23
172
1385
1537
1016
717
430
254
431
557
424
358
464
526
498
522
592
619
676
794
841
865
1004
1075
889
647
524
381
160
-6
-76
-96
-135
-261
-338
-249
-229
-386
-493
-523
-579
-555
-463
-454
-449
-349
-313
-455
-633
-666
-534
-412
-439
-471
-447
-566
-451
467
1191
350
-1099
-1388
-814
-510
-504
-467
-447
-490
-575
-637
-544
-358
-290
-333
-336
-219
16
257
338
271
241
358
504
485
352
306
321
241
72
-78
-149
-175
-250
-328
-274
-206
-300
-404
-396
-396
-361
-197
-74
-71
-69
-104
-208
-236
-205
-241
-229
-105
-128
-350
-495
-543
-357
568
1588
1134
-424
-1116
-667
-276
-238
-186
-147
-205
-242
-188
-101
-67
-59
-40
-125
-236
-35
389
604
648
792
910
870
846
861
788
664
485
236
213
551
868
951
899
636
265
137
181
192
271
367
335
301
308
259
189
132
106
74
-95
-148
33
-144
-296
691
1616
961
502
1285
912
-977
-1651
-853
-521
-717
-554
-299
-325
-374
-295
-213
-266
-465
-528
-202
135
31
-175
-49
137
139
188
293
263
200
143
-11
-96
-233
-721
-785
157
724
54
-548
-481
-568
-820
-783
-697
-711
-595
-393
-325
-370
-330
-196
-146
-158
-157
-256
-363
-286
-147
-100
-181
-188
470
1484
1321
-88
-927
-652
-322
-297
-284
-306
-369
-378
-417
-509
-525
-434
-313
-237
-209
-101
166
378
378
396
572
719
778
792
662
432
276
146
-8
-41
26
25
29
113
79
-117
-197
-93
-43
-74
-65
-105
-152
-23
-31
-308
-91
625
665
48
-181
-104
-158
-133
-115
95
1147
1974
946
-735
-980
-280
54
106
178
140
96
159
200
220
277
315
367
468
514
574
813
1035
1022
974
953
844
919
1127
804
248
381
652
150
-424
-328
-145
-360
-661
-812
-860
-822
-749
-745
-793
-799
-745
-674
-598
-549
-559
-561
-552
-673
-782
-670
-514
-188
541
732
-330
-1352
-1207
-698
-582
-566
-531
-617
-649
-548
-491
-432
-154
254
421
221
-42
-85
6
80
155
232
270
318
373
365
343
342
268
150
114
106
55
41
83
115
110
28
-19
123
215
98
92
132
-83
-140
190
343
224
231
256
108
-103
-284
-131
658
1476
1470
1102
1345
1607
809
-244
-325
19
3
-86
-52
-63
-68
-72
-177
-257
-184
-57
4
1
-19
-25
-6
17
69
217
369
386
370
373
218
-4
-59
-99
-184
-155
-188
-178
329
748
455
398
921
685
-379
-840
-590
-503
-593
-571
-549
-564
-568
-616
-650
-619
-647
-699
-657
-704
-745
-209
518
203
-876
-1236
-823
-627
-661
-494
-279
-214
-251
-413
-603
-590
-404
-242
-168
-167
-168
-42
175
423
775
1036
877
561
526
592
498
361
209
16
-43
4
-39
-88
-57
-90
-190
-215
-200
-233
-288
-315
-280
-236
-267
-285
-228
-196
-116
72
105
-33
-2
108
53
383
1476
2090
1047
-489
-789
-129
371
514
523
441
342
329
401
459
430
393
459
574
616
617
690
828
926
936
954
1080
1112
837
542
426
104
-473
-793
-723
-487
-198
-47
-152
-297
-331
-335
-360
-383
-386
-345
-278
-222
-189
-204
-290
-368
-313
-227
-302
-305
-5
49
-433
-372
767
1380
370
-806
-813
-395
-361
-442
-452
-513
-555
-542
-540
-500
-418
-386
-404
-400
-346
-232
-72
80
203
307
375
387
362
313
202
59
35
101
11
-222
-295
-172
-94
-116
-142
-161
-200
-228
-196
-131
-128
-183
-193
-180
-214
-268
-319
-340
-284
-247
-273
-255
-318
-384
227
1218
1012
-407
-1155
-706
-251
-209
-164
-128
-193
-173
-115
-173
-153
41
116
42
123
313
355
371
546
706
692
654
708
740
643
468
303
155
-2
-123
-157
-162
-202
-247
-269
-296
-335
-355
-340
-322
-325
-301
-230
-176
-136
-55
5
-6
4
54
102
231
302
82
236
1431
2251
1034
-839
-1105
-248
170
148
211
246
192
235
337
384
433
466
369
269
329
408
457
603
707
775
963
677
-311
-706
-28
377
85
-69
-83
-315
-453
-398
-428
-499
-474
-456
-499
-492
-383
-270
-222
-176
-177
-342
-479
-365
-216
-201
-155
-113
-198
-300
-362
-114
819
1532
742
-655
-937
-436
-256
-300
-266
-335
-472
-519
-516
-375
-33
212
146
-6
-50
-48
23
221
392
455
527
579
553
603
698
593
370
268
215
107
42
50
60
57
43
26
21
3
-34
-65
-94
-97
-27
41
-18
-150
-162
-6
70
-91
-265
-366
-554
-385
506
944
-69
-1231
-1177
-654
-552
-564
-469
-417
-354
-329
-377
-177
284
562
508
227
-134
-188
178
480
502
538
642
637
561
507
447
337
163
-43
-190
-256
-317
-386
-416
-425
-459
-500
-535
-563
-516
-396
-330
-334
-308
-255
-219
-196
-184
-142
-66
-53
-80
-124
-166
364
1598
1943
471
-945
-810
-255
-228
-188
1
-28
-94
7
83
72
73
74
82
147
210
216
254
379
523
630
678
632
511
392
307
215
108
34
-14
-97
-206
-273
-273
-244
-241
-280
-310
-309
-295
-259
-206
-155
-79
-5
0
-28
-22
-8
