# session 11
30
-18
131
4
-614
-1090
-1075
-968
-958
-912
-883
-900
-900
-607
513
1637
715
-1749
-2710
-1529
-349
-112
-142
-76
-36
-175
-435
-522
-429
-382
-346
-232
-73
74
103
109
186
202
546
1224
676
-1080
-1347
76
503
-169
-135
319
251
142
329
188
-166
147
299
-1142
-2473
-1452
245
456
92
130
145
110
205
192
87
96
106
-18
176
1130
1865
1082
-329
-650
-162
22
-39
26
55
11
70
145
126
141
172
163
313
435
189
242
1035
1392
756
261
266
93
-160
-178
-240
-358
-306
-287
-393
-369
-266
-321
-390
-305
-245
-293
-276
-179
-145
-144
-103
-74
-79
-96
-146
-206
-240
-273
-318
-438
-497
3
790
579
-693
-1432
-1085
-657
-583
-532
-486
-491
-409
-311
-266
-153
-15
34
113
282
376
349
400
656
934
1012
947
864
742
591
473
362
240
160
123
92
81
101
95
41
6
22
23
-10
-15
7
10
-10
-25
-41
-88
-171
-230
-183
-118
-233
-132
860
1838
1050
-821
-1490
-854
-352
-251
-190
-223
-228
-51
86
94
120
148
153
237
358
433
546
701
776
785
794
748
623
486
346
172
5
-110
-187
-249
-295
-313
-292
-246
-228
-265
-298
-295
-315
-352
-348
-328
-317
-327
-427
-535
-472
-393
-454
-386
-222
-245
120
1181
1514
321
-803
-697
-237
-153
-149
-72
-37
-31
-28
-29
-29
-29
8
56
58
102
202
217
242
401
461
349
319
302
115
-38
-59
-145
-286
-352
-389
-424
-409
-363
-320
-253
-157
-114
-174
-206
-120
-75
-136
-158
-177
-291
-326
-228
-199
-223
-217
-257
16
871
1282
365
-780
-896
-498
-408
-489
-492
-501
-518
-486
-433
-391
-359
-331
-276
-158
1
166
352
547
682
733
720
678
644
589
452
288
195
188
235
264
226
193
215
218
166
99
31
-7
24
80
93
48
-3
-7
-11
-27
-15
-56
-135
-81
185
837
1623
1312
-306
-1386
-1010
-392
-294
-315
-296
-324
-297
-226
-185
-139
-117
-142
-76
118
266
348
517
691
731
758
790
651
422
280
148
1
-32
3
2
14
68
108
76
-66
-233
-285
-256
-256
-249
-201
-193
-226
-258
-323
-372
-307
-259
-312
-315
-327
-246
597
1762
1479
-168
-1010
-516
-65
-87
-44
68
36
-3
44
67
68
160
274
303
361
519
652
722
768
742
674
674
676
555
406
334
249
97
-61
-281
-614
-863
-886
-872
-995
-1136
-1130
-1010
-913
-890
-874
-818
-760
-716
-635
-522
-443
-408
-367
-352
-457
-415
267
1100
839
-338
-946
-659
-361
-333
-286
-218
-208
-188
-145
-132
-153
-176
-200
-239
-238
-139
-30
14
106
285
354
241
135
129
140
123
91
67
82
112
156
258
323
308
448
781
1020
1113
1096
787
319
139
236
255
141
91
156
173
126
140
103
270
1242
2037
1063
-520
-820
-762
-1200
-919
21
240
-16
60
175
122
159
229
222
220
243
329
520
639
560
461
453
395
267
272
401
360
87
-151
-242
-301
-353
-334
-254
-184
-165
-173
-159
-122
-69
-12
-15
-78
-119
-183
-306
-344
-293
-318
-395
-506
-568
25
1178
1274
-194
-1321
-1029
-483
-449
-431
-259
-237
-312
-237
-90
-103
-215
-183
-47
-39
-93
29
262
392
453
517
485
367
304
272
175
61
-5
-45
-81
-110
-45
81
-38
-295
-224
-370
-1373
-2019
-1275
-394
-382
-513
-390
-376
-422
-357
-330
-345
-285
-250
-100
689
1687
1444
8
-789
-350
113
0
-164
-123
-104
-143
-105
-51
-62
-31
52
72
118
248
318
429
634
620
585
781
341
-781
-916
10
280
-141
-192
-42
-70
-15
130
194
225
237
242
317
430
499
439
216
-25
-141
-128
-2
100
76
152
276
218
661
1904
2230
693
-774
-713
-88
195
242
227
299
315
196
480
624
-677
-2093
-1423
95
460
389
677
715
540
639
757
672
544
343
87
-1
-12
-171
-316
-294
-229
-139
-24
-49
-127
-69
-84
-291
-377
-271
-241
-300
-308
-289
-249
-230
-315
-303
-218
-434
-364
634
1004
-565
-2143
-1842
-812
-469
-543
-585
-603
-561
-482
-454
-419
-317
-194
-98
6
159
311
442
618
751
675
546
602
687
584
426
350
264
146
90
90
101
128
132
88
49
38
18
0
8
-33
-177
-300
-306
-340
-481
-561
-543
-540
-546
-542
-295
543
1252
560
-912
-1377
-816
-411
-307
-121
15
-23
-55
-23
-14
-34
-67
-97
-34
136
255
278
358
471
468
432
477
457
261
47
-68
-140
-210
-257
-306
-390
-480
-502
-439
-385
-390
-365
-299
-265
-190
-28
87
125
162
184
207
231
193
152
94
119
854
2044
1911
181
-959
-572
8
97
147
230
200
196
255
276
288
343
388
405
450
537
685
935
1105
986
831
820
568
77
-45
171
167
-16
-86
-112
-162
-162
-131
-123
-152
-213
-281
-304
-245
-160
-173
-249
-265
-275
-320
-269
-176
-196
-253
-370
-462
162
1339
1369
-82
-1076
-785
-332
-274
-266
-242
-261
-289
-382
-471
-441
-401
-451
-504
-496
-433
-307
-159
-54
29
118
162
141
88
12
-52
-56
-45
-86
-101
-17
80
111
122
122
91
82
120
134
107
111
155
134
24
-37
-12
-38
-75
-34
-81
-91
410
986
519
-739
-1370
-1082
-747
-688
-630
-545
-523
-472
-370
-335
-350
-277
-156
-109
-37
185
431
559
609
651
685
658
532
384
315
281
173
17
-48
1
44
32
14
-2
-37
-73
-99
-117
-126
-156
-241
-358
-450
-488
-476
-452
-460
-452
-420
-509
-379
624
1693
1095
-627
-1261
-647
-261
-320
-245
-122
-100
3
117
93
88
193
275
340
493
662
779
912
1049
1087
1040
977
889
768
639
495
387
382
379
327
315
195
-157
-332
-57
190
36
-198
-219
-174
-176
-169
-179
-183
-122
-129
-187
-137
-220
-369
144
902
542
-550
-919
-676
-586
-503
-269
-146
-147
-136
-110
-64
24
168
295
237
162
371
485
323
591
823
-224
-1236
-450
606
340
-153
-165
-279
-425
-351
-328
-369
-305
-238
-219
-186
-159
-145
-118
-103
-98
-40
61
96
51
60
132
113
29
3
-54
29
695
1413
963
-325
-807
-331
-156
-300
-45
-150
-1131
-1505
-711
-228
-400
-286
-3
-33
-80
39
131
190
284
357
356
304
243
177
128
153
195
138
24
-34
-24
-6
-24
-56
-57
-49
-54
-40
-35
-75
-108
-125
-162
-187
-205
-236
-244
-303
-447
-508
-403
-143
110
-179
-992
-1343
-943
-589
-532
-413
-265
-214
-127
2
71
125
218
300
365
480
640
756
819
896
966
948
862
792
740
642
490
352
289
274
236
181
154
146
150
146
68
1
75
41
-308
-524
-267
32
45
8
-3
-106
-146
-122
-127
471
1753
1937
226
-1247
-1031
-359
-191
-138
-97
-163
-113
-12
-49
-49
54
71
41
127
270
366
468
592
657
653
635
581
440
250
92
-22
-137
-262
-368
-433
-474
-508
-522
-511
-492
-466
-428
-411
-422
-417
-391
-400
-426
-397
-336
-322
-316
-218
-156
-199
176
1130
1452
398
-719
-732
-294
-152
-110
-56
-121
-148
-82
-141
-193
-90
-150
-153
213
-196
-1692
-2069
-668
306
200
283
543
375
147
140
116
55
56
55
24
6
13
67
166
223
180
92
-11
-142
-228
-198
-111
-41
10
39
18
-29
-24
-23
-86
224
1225
1853
825
-826
-944
-53
-540
-1983
-1821
-345
183
-176
-182
-21
-50
35
189
241
360
577
754
901
1006
993
898
787
653
513
410
261
-56
-395
-433
-166
70
129
165
241
284
282
235
192
226
214
153
241
211
13
298
370
-1100
-2489
-1660
32
1108
2025
1934
148
-1144
-705
-95
-82
-31
78
39
44
88
63
74
130
170
304
440
254
-165
-445
-469
-156
462
841
692
464
417
353
250
207
187
176
164
142
151
95
-5
82
-79
-1216
-2581
-2595
-1375
-465
-454
-719
-839
-857
-833
-794
-726
-692
-665
-94
1012
1241
126
-704
-415
24
134
248
322
230
154
164
206
254
261
246
289
377
443
485
555
658
674
596
600
588
411
383
385
-256
-1027
-870
-300
-222
-286
-120
0
2
-20
-96
-148
-104
-73
-114
-147
-103
-33
-72
-156
-31
196
125
-211
-487
-570
-360
-65
-279
-816
-815
-338
-101
-91
33
137
108
162
238
147
216
448
299
274
742
76
-1731
-1703
335
1319
851
650
692
457
328
338
221
124
153
191
216
272
324
333
323
321
296
226
170
168
168
130
89
98
130
95
37
107
169
195
840
1902
1604
-177
-1057
-483
-87
163
483
-566
-2182
-2001
-898
-441
-154
-437
-1353
-986
404
739
459
730
982
885
842
787
613
487
405
314
256
193
148
220
212
-164
-667
-869
-781
-540
-161
167
262
228
208
222
198
92
36
57
-23
-58
71
-352
-1777
-3048
-2853
-1706
-989
-896
-762
-518
-458
-458
-368
-300
-252
-151
-47
29
131
277
413
488
562
694
808
874
960
1004
921
803
731
645
532
454
425
424
422
408
410
402
336
261
220
190
202
213
91
-28
-52
-323
-775
-743
-296
-119
-145
-65
-139
-87
766
1486
597
-958
-1273
-659
-356
-283
-94
-23
-13
41
-239
-799
-1012
-903
-935
-858
-299
323
573
637
734
799
759
674
636
550
362
349
360
-461
-2200
-3453
-2886
-1020
281
304
80
222
296
198
184
204
211
280
302
219
203
252
188
129
158
105
461
1657
2263
952
-734
-904
-228
51
106
343
409
-73
-774
-1131
-1040
-633
19
615
737
613
861
1142
904
1050
1494
92
-2193
-1743
474
949
288
351
467
171
92
171
144
163
198
159
157
185
140
90
117
129
100
104
82
32
60
-1
-348
-792
-871
-55
1282
1515
235
-749
-505
-43
-19
-104
12
152
-41
-147
192
-219
-1619
-1851
-553
113
-174
-150
67
1
2
130
103
3
-49
-125
-218
-251
-240
-236
-208
-113
-11
42
80
117
120
112
139
183
191
164
136
42
-182
-370
-354
-281
-266
-211
-237
-338
109
1048
1136
9
-869
-717
-355
-344
-410
-424
-480
-505
-451
-413
-413
-403
-363
-269
-149
-31
127
290
375
442
468
387
407
459
234
174
381
-245
-1361
-1111
76
349
5
77
214
111
99
147
70
-30
-58
-38
-28
-68
-107
-138
-209
-138
68
-22
-43
856
1651
673
-1000
-1272
-540
-192
-204
-137
-93
-119
-92
-17
48
107
170
206
221
331
548
714
783
841
886
883
845
748
585
442
362
297
237
217
218
206
190
174
159
146
130
136
156
109
12
-14
-18
-135
-268
-264
-245
-311
-311
-309
-385
83
1190
1406
94
-992
-768
-288
-261
-283
-232
-253
-245
-190
-168
-140
-93
-63
-22
44
108
187
286
352
382
389
326
203
108
51
-26
-103
-145
-185
-231
-241
-225
-231
-248
-262
-286
-277
-221
-236
-290
-116
316
609
410
-108
-472
-543
-545
-584
-649
-569
-11
566
128
-950
-1267
-813
-561
-601
-558
-487
-474
-447
-417
-395
-340
-267
-199
-123
-41
41
138
236
307
344
346
321
295
257
181
106
71
50
32
38
53
46
28
17
19
28
28
29
65
108
104
98
123
104
60
82
80
26
3
-86
51
1014
1908
1110
-549
-975
-361
-72
-106
-28
9
-24
9
34
41
109
170
171
197
282
378
457
517
552
560
537
486
410
295
168
85
41
-3
-36
-47
-56
-73
-88
-98
-105
-122
-152
-169
-142
-108
-113
-129
-132
-162
-185
-158
-162
-178
-183
-245
82
1119
1561
282
-1187
-1147
-443
-257
-291
-222
-226
-238
-165
-122
-104
-47
-4
15
74
171
275
397
495
520
512
493
421
313
223
138
47
-13
-36
-54
-70
-76
-85
-107
-135
-147
-140
-140
-152
-148
-131
-114
-90
-107
-169
-171
-144
-210
-258
-278
-389
-66
953
1310
151
-970
-841
-395
-371
-377
-314
-351
-337
-253
-249
-249
-166
-93
-70
-36
31
121
218
275
285
285
277
246
204
145
66
9
3
12
1
-14
-16
-22
-38
-59
-81
-90
-85
-83
-72
-39
-15
-30
-76
-105
-77
-73
-137
-154
-189
-300
59
972
1133
41
-796
-561
-217
-268
-304
-274
-313
-306
-241
-206
-174
-141
-118
-47
70
169
253
348
412
434
445
432
389
366
356
310
257
228
179
116
92
99
87
43
-12
-39
-32
-32
-39
-21
5
8
-7
-44
-79
-56
-53
-118
-122
-158
-246
300
1385
1311
-231
-1171
-710
-212
-231
-211
-121
-139
-113
-35
-34
-54
-21
33
94
177
265
353
449
510
506
493
490
437
321
210
134
75
19
-51
-123
-151
-144
-144
-154
-178
-211
-206
-182
-202
-224
-211
-197
-188
-191
-214
-197
-168
-193
-217
-304
-328
332
1322
1008
-586
-1393
-853
-333
-298
-254
-200
-246
-228
-180
-196
-171
-84
-44
-29
49
161
248
317
365
366
343
323
274
179
65
-32
-87
-105
-123
-162
-191
-187
-188
-219
-248
-260
-272
-286
-288
-273
-254
-245
-250
-279
-312
-286
-257
-304
-337
-406
-494
22
1078
1107
-266
-1137
-694
-215
-254
-252
-149
-157
-152
-94
-71
-45
10
54
100
165
229
299
389
462
476
454
447
450
416
362
349
363
335
279
256
264
264
258
253
237
225
226
225
236
271
280
261
260
248
220
226
223
191
162
18
-28
631
1513
1243
77
-401
-57
124
40
52
77
30
18
35
45
68
94
120
157
192
229
284
332
345
344
346
331
271
170
63
-28
-102
-168
-221
-257
-299
-377
-469
-543
-609
-684
-747
-774
-780
-803
-841
-861
-888
-945
-974
-977
-1035
-1088
-1140
-1319
-1233
-457
145
-278
