# session 20
134
230
-153
359
1753
2140
1588
1607
1982
1911
1746
1761
1697
1590
1558
1507
1427
1376
1321
1259
1222
1192
1151
1116
1099
1091
1089
1101
1131
1176
1233
1282
1296
1269
1214
1133
1010
851
683
533
395
267
162
83
22
-27
-67
-99
-124
-147
-171
-194
-213
-230
-249
-270
-288
-302
-318
-337
-352
-364
-376
-389
-402
-412
-423
-436
-448
-457
-469
-479
-484
-489
-491
-491
-497
-509
-516
-524
-537
-534
-509
-483
-459
-425
-407
-428
-446
-438
-440
-439
-412
-412
-423
-405
-404
-136
680
1153
295
-932
-1082
-571
-385
-423
-375
-350
-357
-322
-297
-291
-268
-244
-225
-199
-174
-152
-119
-78
-30
32
101
180
282
399
506
592
647
659
624
550
444
318
197
94
5
-66
-111
-142
-165
-168
-157
-151
-149
-146
-136
-117
-103
-101
-99
-88
-79
-76
-70
-61
-54
-53
-51
-47
-45
-47
-44
-36
-32
-35
-45
-49
-46
-49
-59
-58
-39
-17
6
38
54
31
3
9
15
-1
7
12
-1
23
16
125
828
1633
1154
-360
-1067
-593
-130
-80
-58
-25
-45
-22
9
0
8
32
35
41
65
86
114
153
184
214
273
359
455
563
675
760
808
820
788
708
597
466
323
189
76
-17
-90
-142
-173
-180
-176
-180
-188
-183
-171
-166
-171
-172
-163
-157
-161
-165
-168
-180
-196
-202
-201
-202
-206
-213
-218
-221
-230
-240
-241
-245
-251
-241
-223
-212
-195
-164
-145
-161
-180
-180
-187
-184
-148
-154
-185
-161
-156
78
967
1657
780
-843
-1264
-618
-229
-224
-180
-151
-170
-138
-109
-117
-105
-82
-74
-61
-33
1
36
71
114
175
243
318
417
537
644
714
747
743
693
605
499
377
244
125
33
-39
-93
-124
-133
-133
-136
-139
-131
-123
-126
-125
-118
-117
-119
-118
-120
-124
-128
-132
-136
-136
-139
-146
-149
-157
-172
-178
-173
-179
-191
-190
-191
-201
-198
-179
-157
-127
-99
-109
-149
-160
-145
-154
-161
-143
-158
-173
-168
-164
225
1140
1416
264
-932
-867
-321
-209
-250
-193
-189
-204
-169
-156
-158
-137
-122
-118
-100
-72
-46
-18
20
68
123
191
276
375
473
558
618
644
633
585
501
391
276
171
81
6
-48
-81
-100
-108
-108
-104
-102
-97
-87
-78
-74
-71
-68
-63
-56
-52
-55
-58
-57
-55
-55
-58
-61
-62
-62
-63
-63
-65
-70
-75
-72
-69
-76
-89
-98
-106
-110
-98
-74
-49
-19
10
8
-26
-43
-35
-45
-52
-29
-40
-64
-56
-69
197
1031
1503
621
-597
-721
-238
-110
-171
-121
-105
-130
-107
-91
-97
-81
-64
-60
-48
-28
-5
21
51
87
134
192
263
347
435
512
563
583
576
536
460
360
251
144
51
-21
-79
-121
-148
-164
-172
-171
-166
-160
-157
-158
-157
-152
-146
-143
-143
-144
-142
-140
-135
-130
-127
-125
-118
-111
-111
-112
-107
-106
-111
-111
-107
-106
-104
-98
-93
-92
-88
-80
-78
-78
-73
-68
-66
-67
-68
-66
-64
-66
-65
-55
-49
-50
-49
-45
-44
-45
-42
-36
-32
-30
-29
-25
-23
-23
-19
-10
-11
-16
-14
-8
-10
-14
-11
-6
-5
-8
-6
-1
-2
-6
-3
3
2
-1
0
-1
-5
-2
2
-1
1
9
12
6
0
-3
-6
-12
-19
-25
-28
-21
3
32
42
37
38
36
13
-11
-20
-34
-28
-11
-38
-52
-39
-29
382
1315
1555
339
-895
-848
-301
-157
-168
-111
-114
-127
-95
-91
-100
-80
-57
-45
-32
-13
13
43
77
121
166
209
265
344
426
500
566
615
628
612
587
541
455
353
261
170
81
6
-49
-82
-97
-114
-129
-127
-117
-116
-119
-116
-114
-118
-122
-122
-126
-132
-135
-141
-155
-169
-174
-177
-185
-190
-189
-189
-194
-201
-201
-197
-194
-191
-182
-176
-177
-174
-166
-159
-153
-152
-157
-154
-140
-132
-132
-123
-110
-111
-116
-107
-96
-98
-104
-98
-87
-83
-84
-84
-84
-78
-65
-62
-73
-76
-62
-52
-54
-58
-62
-69
-71
-66
-58
-36
1
24
23
25
33
19
-9
-17
-27
-40
-20
-16
-44
-36
-37
167
981
1676
955
-520
-954
-416
-106
-133
-91
-53
-75
-54
-30
-33
-18
-2
3
21
44
57
81
119
153
191
249
318
390
476
577
666
717
737
731
691
615
511
389
271
173
92
19
-40
-77
-98
-108
-110
-108
-109
-112
-106
-97
-97
-102
-102
-102
-103
-102
-105
-113
-117
-122
-133
-139
-138
-145
-157
-164
-167
-167
-166
-169
-176
-178
-177
-176
-174
-170
-169
-169
-167
-166
-166
-162
-158
-159
-159
-154
-152
-155
-153
-147
-145
-142
-138
-137
-138
-134
-130
-130
-129
-123
-120
-119
-118
-117
-115
-113
-110
-109
-110
-117
-125
-124
-96
-54
-31
-29
-21
-7
-15
-36
-40
-47
-64
-45
-26
-52
-53
-52
49
674
1471
1170
-133
-790
-414
-81
-118
-112
-57
-72
-64
-33
-30
-24
-9
-2
13
39
63
80
102
133
175
229
291
359
439
531
615
679
710
705
677
630
547
431
318
220
127
45
-16
-56
-81
-95
-107
-115
-114
-109
-109
-108
-101
-96
-104
-116
-117
-111
-115
-121
-122
-127
-135
-137
-134
-137
-145
-150
-152
-159
-163
-162
-162
-166
-164
-156
-152
-152
-151
-150
-151
-150
-149
-157
-169
-173
-172
-169
-163
-151
-133
-100
-73
-87
-116
-121
-124
-129
-107
-111
-141
-120
-105
81
848
1550
881
-631
-1169
-629
-228
-209
-173
-132
-150
-131
-99
-99
-97
-85
-70
-50
-37
-24
9
54
95
139
197
263
340
450
580
681
745
786
780
715
618
500
351
204
91
-3
-91
-151
-179
-197
-207
-206
-198
-188
-179
-181
-181
-169
-166
-177
-169
-145
-148
-167
-167
-164
-177
-185
-182
-182
-189
-199
-206
-201
-199
-211
-213
-193
-168
-137
-109
-119
-150
-150
-137
-146
-140
-126
-140
-120
-102
-21
630
1607
1387
-237
-1279
-867
-265
-179
-172
-121
-139
-120
-73
-76
-70
-39
-29
-20
3
19
42
82
124
166
222
292
379
488
603
706
775
795
767
709
615
476
325
198
87
-14
-84
-119
-147
-174
-182
-165
-145
-139
-142
-138
-129
-128
-126
-120
-121
-128
-128
-130
-141
-143
-138
-141
-150
-159
-170
-180
-186
-195
-199
-187
-166
-142
-113
-100
-122
-142
-133
-134
-144
-125
-128
-156
-144
-145
51
835
1487
771
-642
-1026
-478
-182
-229
-199
-157
-176
-158
-127
-128
-124
-110
-98
-82
-65
-47
-17
20
57
100
159
233
320
418
518
595
629
626
596
529
423
301
187
84
-8
-79
-129
-162
-175
-170
-167
-169
-168
-160
-153
-150
-146
-138
-133
-134
-134
-134
-136
-136
-128
-124
-128
-132
-129
-129
-141
-155
-163
-174
-184
-176
-149
-115
-82
-60
-68
-96
-105
-98
-105
-98
-77
-95
-104
-101
-109
274
1168
1415
311
-773
-673
-188
-122
-164
-103
-100
-112
-76
-62
-62
-49
-40
-32
-12
8
27
55
87
124
175
237
308
394
485
562
613
633
622
581
507
402
283
175
86
13
-44
-85
-110
-125
-132
-133
-130
-126
-125
-127
-125
-121
-119
-120
-121
-123
-125
-126
-129
-132
-129
-127
-131
-136
-138
-140
-142
-143
-152
-165
-173
-185
-201
-198
-172
-145
-121
-88
-75
-102
-127
-119
-120
-139
-127
-117
-135
-132
-147
-19
654
1368
902
-421
-969
-531
-190
-201
-180
-141
-167
-155
-125
-133
-127
-96
-87
-89
-66
-26
8
34
66
115
177
237
305
398
498
568
604
619
603
548
465
365
254
144
51
-20
-73
-110
-131
-140
-138
-131
-129
-127
-119
-114
-115
-112
-104
-100
-103
-108
-110
-109
-113
-122
-124
-121
-122
-123
-121
-121
-120
-121
-120
-118
-122
-130
-126
-116
-119
-123
-106
-79
-55
-32
-29
-53
-60
-49
-66
-74
-43
-56
-82
-51
-37
254
1161
1680
623
-907
-1129
-460
-145
-156
-99
-62
-79
-62
-45
-44
-29
-14
-4
11
27
53
91
126
162
214
280
348
426
522
611
666
695
700
660
582
485
369
244
135
38
-49
-107
-137
-157
-168
-164
-163
-172
-172
-159
-150
-154
-159
-157
-157
-166
-177
-183
-189
-198
-203
-206
-213
-217
-220
-230
-241
-243
-248
-258
-261
-263
-268
-271
-266
-241
-203
-201
-249
-273
-228
-188
-208
-214
-172
-179
-211
-210
-255
-23
898
1525
586
-899
-1136
-515
-273
-329
-263
-214
-228
-199
-189
-190
-141
-120
-143
-103
-27
-12
-9
44
98
151
232
299
355
464
599
689
719
686
624
576
492
354
254
199
117
50
45
27
-20
-26
1
2
-20
-29
-16
3
1
-11
13
43
2
-56
-43
-7
0
27
67
47
7
11
4
-41
-56
-38
-42
-27
56
119
73
-5
-18
-14
-43
-49
-30
-14
5
-67
-42
638
1520
1180
-209
-868
-445
-107
-169
-175
-125
-152
-140
-89
-117
-177
-171
-130
-122
-127
-106
-75
-52
-16
36
86
146
233
331
410
462
483
486
485
448
348
223
107
4
-72
-126
-178
-209
-210
-216
-220
-201
-189
-199
-192
-164
-154
-162
-164
-161
-154
-143
-142
-150
-156
-166
-181
-181
-180
-203
-225
-220
-208
-196
-176
-145
-125
-151
-191
-176
-155
-196
-207
-168
-191
-210
-192
-190
217
1114
1226
-56
-1140
-910
-356
-279
-295
-216
-221
-251
-229
-200
-174
-162
-166
-147
-123
-125
-109
-62
-17
26
88
161
241
341
453
547
606
631
616
571
505
404
274
157
77
22
-30
-81
-111
-112
-100
-84
-74
-69
-47
-19
-22
-33
-16
-3
-6
0
1
-11
-7
-5
-36
-60
-39
-3
13
25
43
37
-1
-19
-7
-12
-21
-3
-10
-21
-8
-47
149
917
1422
622
-609
-793
-270
-59
-110
-75
-43
-56
-40
-25
-28
-21
-15
-14
-5
8
22
45
77
113
156
212
278
350
428
501
547
559
549
515
451
356
248
145
57
-18
-78
-121
-142
-146
-153
-167
-173
-171
-174
-183
-189
-193
-199
-211
-220
-221
-229
-237
-231
-227
-242
-255
-245
-221
-199
-183
-177
-192
-218
-225
-221
-224
-204
-179
-200
-206
-205
-206
215
1084
1177
-45
-1085
-889
-352
-249
-267
-209
-207
-210
-171
-154
-150
-133
-121
-109
-87
-62
-33
2
43
93
148
209
289
386
476
543
586
605
593
542
455
351
245
139
41
-30
-74
-112
-142
-141
-129
-134
-139
-124
-112
-118
-118
-111
-112
-122
-126
-125
-134
-147
-151
-156
-168
-174
-161
-136
-111
-91
-87
-107
-124
-114
-112
-124
-101
-87
-117
-105
-103
-8
708
1631
1229
-395
-1226
-726
-211
-171
-150
-95
-110
-97
-66
-68
-57
-36
-29
-13
13
33
62
102
139
183
247
321
402
490
562
606
625
621
586
519
424
312
202
104
21
-41
-80
-103
-118
-126
-122
-109
-101
-109
-120
-120
-117
-121
-129
-139
-143
-142
-149
-166
-181
-191
-201
-206
-199
-181
-156
-131
-117
-121
-142
-152
-142
-143
-147
-126
-130
-148
-133
-153
75
922
1498
620
-779
-1006
-410
-163
-212
-164
-133
-154
-128
-105
-108
-94
-80
-74
-55
-32
-15
9
44
86
137
197
269
349
430
494
531
539
524
485
415
317
212
117
32
-42
-96
-126
-142
-150
-150
-147
-145
-143
-141
-141
-143
-146
-149
-150
-151
-154
-161
-165
-170
-181
-193
-201
-212
-222
-215
-195
-169
-140
-118
-123
-147
-152
-136
-139
-144
-120
-121
-141
-125
-138
43
784
1343
603
-661
-884
-341
-123
-183
-137
-100
-121
-98
-76
-81
-68
-49
-38
-21
-1
18
47
83
122
169
224
289
362
435
492
525
534
522
491
433
350
259
175
102
40
-4
-28
-39
-44
-47
-47
-46
-47
-47
-48
-54
-60
-64
-68
-72
-73
-75
-80
-83
-87
-92
-92
-97
-112
-125
-133
-143
-142
-123
-97
-71
-46
-37
-57
-84
-85
-79
-91
-86
-72
-96
-102
-96
-105
231
957
1040
13
-833
-624
-179
-141
-178
-125
-127
-136
-106
-100
-106
-91
-79
-72
-53
-29
-12
9
40
80
128
186
252
317
376
425
454
458
445
416
359
278
190
109
33
-30
-69
-88
-101
-111
-114
-110
-110
-116
-121
-123
-128
-133
-131
-131
-142
-151
-151
-148
-152
-163
-163
-148
-140
-148
-158
-162
-162
-161
-162
-164
-156
-129
-97
-78
-71
-68
-81
-91
-88
-94
-90
-68
-87
-100
-69
-81
199
1087
1523
428
-979
-1064
-404
-154
-180
-123
-97
-111
-88
-79
-84
-69
-60
-48
-18
1
11
43
85
115
156
222
295
365
436
501
540
545
530
500
440
345
235
132
45
-29
-88
-122
-137
-150
-154
-133
-102
-82
-57
-9
20
3
15
97
145
88
10
-27
-58
-95
-113
-119
-133
-150
-160
-161
-160
-153
-138
-117
-107
-127
-153
-145
-134
-151
-142
-128
-154
-141
-128
-33
648
1544
1137
-489
-1296
-745
-211
-198
-188
-120
-133
-127
-93
-90
-82
-64
-56
-41
-13
8
26
56
100
148
201
268
347
427
496
539
546
529
501
448
355
246
145
53
-27
-85
-123
-149
-162
-166
-163
-160
-161
-168
-175
-180
-186
-195
-202
-206
-209
-215
-220
-226
-236
-244
-244
-245
-256
-260
-243
-214
-181
-151
-132
-136
-152
-151
-138
-143
-137
-112
-123
-127
-100
-108
211
1088
1438
359
-862
-826
-245
-108
-160
-100
-84
-95
-56
-37
-42
-25
-7
2
21
46
70
100
133
172
221
282
354
433
505
556
579
576
556
516
443
346
249
164
88
26
-15
-37
-50
-58
-61
-61
-62
-63
-65
-69
-75
-80
-86
-93
-97
-103
-112
-119
-127
-140
-151
-159
-170
-183
-184
-168
-141
-108
-85
-89
-112
-122
-114
-119
-126
-105
-106
-125
-109
-122
28
722
1321
676
-603
-925
-398
-132
-188
-162
-127
-150
-133
-110
-115
-108
-95
-93
-81
-62
-50
-35
-8
26
