# session 34
4
-4
11
111
177
103
37
69
95
93
120
157
180
212
258
306
354
402
444
474
490
496
480
427
341
246
154
70
2
-41
-64
-81
-92
-97
-98
-100
-99
-96
-93
-93
-93
-91
-90
-90
-91
-90
-89
-92
-97
-100
-102
-104
-107
-112
-115
-116
-116
-116
-119
-123
-129
-140
-150
-141
-116
-95
-76
-59
-57
-76
-98
-96
-85
-99
-103
-77
-90
-109
-88
-106
133
949
1411
527
-643
-688
-169
-55
-123
-70
-57
-79
-52
-43
-53
-38
-29
-30
-21
-11
-4
11
25
41
65
90
118
156
200
245
294
343
383
412
429
432
415
368
289
195
107
30
-29
-70
-97
-115
-122
-122
-121
-120
-118
-117
-115
-113
-112
-109
-107
-107
-107
-107
-107
-110
-111
-110
-112
-116
-117
-118
-120
-120
-121
-124
-125
-122
-120
-119
-117
-117
-118
-116
-112
-113
-116
-123
-133
-139
-129
-105
-77
-51
-36
-40
-62
-79
-73
-73
-88
-71
-54
-83
-78
-73
-63
418
1287
1260
40
-776
-456
-44
-68
-94
-36
-51
-55
-25
-27
-30
-18
-14
-11
-1
5
17
37
55
70
91
120
154
190
229
274
321
365
397
421
436
436
416
371
299
208
120
48
-10
-52
-76
-89
-95
-96
-97
-100
-99
-94
-92
-94
-95
-95
-95
-96
-97
-99
-99
-101
-106
-111
-111
-112
-115
-117
-118
-121
-122
-121
-120
-119
-116
-115
-117
-115
-108
-106
-109
-107
-103
-104
-104
-99
-97
-97
-92
-88
-94
-103
-106
-111
-115
-102
-72
-48
-32
-20
-25
-53
-63
-52
-63
-68
-42
-51
-68
-48
-76
143
949
1443
601
-580
-664
-151
-17
-82
-34
-20
-43
-20
-10
-20
-7
2
-2
2
13
21
32
48
67
87
108
133
166
205
247
290
331
369
397
414
420
413
385
329
248
159
80
17
-35
-72
-91
-103
-113
-115
-111
-108
-106
-105
-105
-106
-108
-111
-113
-114
-117
-119
-121
-124
-128
-132
-134
-135
-136
-136
-137
-140
-141
-137
-134
-134
-133
-129
-125
-122
-118
-114
-114
-114
-110
-106
-106
-105
-103
-104
-106
-108
-113
-117
-107
-82
-55
-37
-25
-24
-43
-63
-60
-60
-69
-50
-45
-73
-55
-66
-28
542
1330
1061
-188
-790
-378
-29
-60
-60
-17
-39
-33
-6
-9
-5
12
13
12
23
35
45
57
72
92
113
136
169
207
246
291
343
388
420
445
459
457
440
395
315
219
131
58
1
-44
-76
-96
-105
-109
-109
-104
-103
-106
-107
-104
-101
-104
-109
-110
-109
-112
-117
-122
-124
-122
-122
-124
-126
-130
-134
-135
-135
-134
-128
-123
-125
-129
-126
-123
-122
-120
-120
-120
-115
-108
-107
-111
-114
-116
-120
-125
-117
-90
-63
-50
-41
-43
-66
-81
-74
-85
-96
-73
-81
-103
-71
-89
48
811
1491
802
-583
-934
-376
-76
-101
-58
-27
-55
-37
-13
-21
-19
-7
-6
1
18
32
40
53
73
95
118
147
181
218
259
303
351
400
437
458
470
470
443
386
299
192
87
1
-69
-120
-150
-168
-177
-175
-168
-159
-154
-154
-153
-150
-148
-148
-145
-141
-138
-137
-140
-143
-144
-143
-144
-146
-147
-147
-148
-148
-142
-137
-139
-143
-142
-146
-147
-130
-100
-77
-67
-63
-67
-86
-101
-90
-83
-93
-72
-57
-86
-72
-83
-81
489
1445
1325
-72
-931
-544
-82
-74
-69
-4
-26
-30
3
2
-2
13
16
18
28
37
45
56
71
95
121
146
178
217
261
310
366
417
454
479
493
489
456
389
290
179
83
6
-55
-100
-129
-144
-148
-148
-146
-144
-141
-139
-136
-134
-136
-135
-134
-137
-142
-143
-146
-151
-156
-161
-164
-164
-165
-167
-166
-165
-163
-162
-162
-160
-156
-160
-165
-166
-173
-180
-170
-143
-114
-92
-81
-88
-110
-121
-107
-106
-119
-99
-93
-122
-108
-116
-39
610
1424
1067
-251
-810
-357
-46
-112
-102
-52
-78
-72
-44
-48
-44
-29
-27
-23
-14
-8
5
23
40
59
84
112
149
193
236
283
335
378
409
437
456
448
409
341
251
159
81
13
-43
-75
-92
-104
-110
-107
-101
-98
-98
-94
-85
-85
-93
-95
-91
-89
-89
-88
-93
-99
-95
-93
-102
-108
-106
-109
-116
-118
-115
-111
-112
-120
-125
-127
-135
-138
-121
-86
-52
-37
-44
-59
-72
-72
-68
-81
-79
-46
-58
-82
-58
-80
105
876
1428
677
-520
-688
-188
-20
-89
-64
-43
-57
-45
-33
-14
14
17
13
22
26
37
61
72
78
109
135
136
180
279
312
267
307
435
469
399
369
382
356
289
205
109
24
-35
-81
-122
-150
-163
-173
-179
-178
-176
-182
-191
-199
-204
-206
-208
-217
-223
-220
-219
-228
-237
-237
-230
-233
-242
-237
-216
-203
-204
-209
-214
-222
-229
-222
-196
-164
-140
-125
-115
-119
-134
-133
-118
-126
-124
-92
-102
-124
-107
-135
61
820
1318
573
-517
-628
-199
-86
-108
-30
-15
-34
8
37
39
56
77
96
112
113
122
150
170
177
200
240
269
289
316
348
379
418
457
479
489
497
491
457
384
288
196
108
26
-26
-49
-63
-67
-70
-86
-97
-87
-85
-102
-111
-109
-110
-114
-121
-140
-158
-151
-132
-139
-165
-173
-167
-170
-172
-173
-185
-194
-192
-198
-206
-198
-176
-149
-131
-137
-158
-175
-180
-170
-170
-182
-158
-136
-162
-148
-131
-109
378
1224
1163
-75
-913
-605
-145
-93
-87
-34
-52
-57
-25
-22
-22
-6
0
6
18
23
30
46
63
81
106
135
166
200
239
284
327
366
396
413
420
421
402
351
271
169
65
-13
-65
-108
-143
-160
-165
-166
-168
-173
-170
-159
-157
-164
-159
-150
-158
-168
-164
-159
-166
-172
-171
-172
-179
-184
-188
-183
-158
-127
-113
-107
-103
-119
-145
-145
-128
-133
-134
-114
-129
-145
-111
-119
100
944
1565
741
-681
-988
-412
-115
-132
-88
-61
-85
-63
-37
-41
-33
-15
-9
-4
12
36
56
72
93
121
153
187
224
262
306
359
413
455
483
496
493
471
422
335
223
115
29
-37
-85
-116
-130
-135
-137
-135
-127
-123
-123
-122
-120
-119
-119
-116
-115
-118
-122
-123
-125
-130
-134
-138
-148
-159
-153
-131
-108
-88
-77
-82
-101
-119
-117
-104
-117
-131
-110
-115
-137
-122
-152
23
828
1481
766
-545
-815
-296
-89
-156
-120
-94
-114
-91
-77
-92
-82
-66
-65
-59
-44
-30
-19
-7
16
46
71
98
137
181
225
269
312
345
369
381
376
354
305
228
140
61
-7
-66
-107
-127
-136
-140
-136
-130
-128
-121
-110
-105
-108
-110
-111
-112
-108
-104
-105
-106
-105
-107
-111
-116
-124
-133
-139
-146
-149
-136
-112
-87
-68
-61
-72
-92
-106
-100
-96
-110
-102
-85
-106
-109
-111
-102
330
1149
1190
87
-720
-463
-74
-96
-126
-65
-74
-84
-55
-50
-50
-36
-31
-26
-14
-4
9
25
40
62
91
118
145
180
221
264
306
339
359
372
379
372
344
289
213
132
60
4
-39
-71
-91
-100
-100
-101
-103
-105
-103
-101
-102
-105
-105
-106
-110
-112
-110
-108
-108
-110
-111
-110
-112
-113
-113
-116
-123
-128
-132
-145
-152
-134
-101
-76
-61
-51
-61
-89
-101
-87
-85
-95
-79
-76
-96
-85
-97
5
587
1175
729
-356
-688
-262
-34
-95
-81
-48
-69
-58
-37
-41
-34
-22
-22
-16
-4
6
18
36
57
77
96
121
159
197
227
261
301
335
358
374
378
365
331
278
209
133
61
1
-40
-62
-76
-86
-92
-94
-91
-89
-90
-96
-106
-112
-109
-108
-114
-118
-113
-111
-118
-125
-127
-129
-133
-140
-143
-142
-142
-142
-141
-141
-145
-152
-158
-158
-144
-124
-103
-81
-66
-74
-98
-105
-101
-109
-104
-85
-99
-102
-84
-110
155
949
1317
401
-710
-724
-203
-52
-93
-51
-43
-60
-41
-36
-39
-23
-17
-18
-6
5
11
28
51
72
95
121
151
187
226
266
307
345
378
404
412
404
394
366
294
195
109
40
-22
-69
-95
-111
-121
-122
-121
-121
-119
-114
-108
-107
-112
-114
-107
-101
-104
-109
-111
-120
-128
-125
-118
-120
-126
-128
-129
-137
-144
-145
-142
-134
-116
-88
-67
-65
-79
-94
-101
-99
-107
-118
-96
-88
-112
-93
-104
-40
607
1444
1079
-336
-990
-506
-94
-111
-98
-44
-72
-77
-44
-37
-36
-30
-27
-18
-7
6
28
47
57
74
105
135
169
212
253
287
327
372
400
408
406
396
361
291
196
97
12
-52
-100
-131
-144
-148
-155
-156
-148
-145
-145
-140
-132
-132
-133
-129
-130
-135
-135
-132
-134
-138
-135
-132
-132
-133
-134
-137
-141
-147
-156
-154
-137
-110
-78
-56
-55
-72
-91
-94
-86
-93
-95
-72
-80
-95
-82
-113
104
902
1415
615
-557
-666
-162
-32
-110
-65
-45
-70
-47
-31
-41
-32
-19
-15
-6
2
7
23
46
64
84
113
147
179
215
260
306
342
366
381
390
385
357
304
233
151
72
7
-43
-79
-103
-113
-116
-118
-118
-116
-111
-105
-104
-108
-108
-104
-104
-109
-110
-109
-114
-119
-118
-118
-125
-131
-132
-131
-131
-135
-145
-152
-155
-159
-157
-137
-108
-82
-68
-68
-86
-107
-106
-98
-105
-99
-83
-103
-106
-94
-98
238
1004
1178
204
-670
-504
-85
-68
-115
-64
-72
-84
-52
-44
-46
-31
-26
-25
-12
-1
8
24
43
59
83
113
144
177
214
252
291
330
358
371
376
372
347
296
226
146
69
8
-35
-66
-86
-97
-102
-105
-104
-102
-104
-106
-106
-104
-106
-107
-106
-109
-113
-109
-106
-107
-109
-109
-108
-107
-105
-107
-111
-112
-108
-103
-102
-106
-112
-116
-122
-128
-121
-96
-65
-42
-29
-28
-48
-72
-69
-61
-72
-64
-49
-66
-64
-65
-58
355
1107
1088
20
-708
-423
-41
-55
-83
-31
-44
-50
-21
-21
-26
-12
-4
-1
9
19
30
45
59
77
101
126
153
189
227
260
292
324
345
354
360
356
331
284
218
140
67
5
-45
-81
-102
-114
-121
-122
-121
-122
-122
-123
-123
-118
-117
-125
-129
-126
-127
-135
-134
-130
-134
-138
-135
-135
-144
-145
-138
-133
-136
-138
-137
-134
-131
-137
-152
-151
-126
-98
-81
-64
-56
-74
-101
-98
-90
-105
-97
-75
-98
-98
-80
-82
317
1186
1308
109
-909
-687
-151
-68
-85
-21
-27
-41
-15
-18
-27
-10
0
5
21
32
40
57
76
93
117
147
179
211
249
293
335
372
401
416
417
411
393
348
273
176
77
-4
-59
-96
-121
-138
-142
-136
-131
-133
-135
-132
-129
-127
-119
-115
-121
-123
-118
-119
-121
-118
-125
-135
-133
-128
-128
-125
-121
-124
-130
-136
-145
-147
-138
-117
-90
-65
-52
-57
-84
-102
-87
-83
-101
-87
-77
-102
-80
-85
-21
615
1435
1058
-346
-971
-473
-67
-90
-85
-37
-61
-58
-32
-37
-34
-21
-21
-14
4
14
21
34
53
76
103
132
160
194
236
283
325
356
376
387
388
376
338
271
186
96
13
-51
-92
-119
-135
-142
-144
-140
-134
-129
-126
-123
-121
-121
-120
-119
-122
-126
-123
-122
-129
-131
-128
-130
-133
-132
-130
-126
-123
-127
-134
-141
-149
-149
-133
-109
-84
-60
-47
-56
-78
-89
-80
-84
-95
-73
-62
-85
-79
-93
-17
580
1309
963
-248
-749
-318
-26
-89
-85
-44
-69
-60
-29
-33
-34
-21
-16
-10
2
13
24
39
59
84
109
135
168
206
246
287
326
355
371
382
384
367
329
270
188
102
31
-22
-66
-97
-109
-111
-114
-115
-114
-113
-112
-109
-108
-112
-116
-115
-117
-122
-124
-123
-123
-124
-125
-127
-127
-128
-128
-124
-124
-131
-138
-142
-150
-152
-134
-105
-76
-54
-51
-67
-86
-90
-81
-83
-87
-71
-75
-94
-80
-98
38
693
1268
701
-437
-702
-231
-26
-93
-66
-36
-62
-47
-22
-27
-24
-14
-10
1
12
19
30
45
61
84
110
139
170
204
242
283
318
343
360
370
366
348
312
249
165
81
9
-51
-95
-119
-131
-139
-144
-141
-135
-132
-133
-134
-133
-132
-133
-137
-136
-131
-138
-147
-140
-129
-132
-141
-140
-135
-137
-142
-144
-142
-144
-150
-149
-129
-103
-90
-81
-67
-72
-100
-109
-95
-100
-96
-77
-99
-103
-75
-91
230
1099
1407
316
-860
-791
-213
-68
-99
-35
-29
-56
-27
-10
-17
-9
4
9
18
30
43
59
77
99
124
154
184
215
251
295
341
382
414
428
428
425
405
350
264
167
74
-2
-56
-101
-138
-154
-152
-144
-141
-145
-148
-140
-128
-125
-129
-127
-123
-124
-128
-126
-123
-126
-125
-123
-127
-134
-137
-140
-146
-149
-149
-142
-125
-99
-77
-69
-76
-97
-112
-104
-103
-116
-98
-88
-114
-98
-94
-34
565
1392
1100
-264
-948
-498
-83
-96
-93
-42
-65
-65
-38
-41
-34
-18
-20
-16
1
10
22
43
62
78
103
135
165
196
239
287
328
361
383
391
385
369
332
261
169
81
6
-54
-93
-114
-127
-134
-132
-129
-130
-128
-123
-122
-124
-124
-122
-121
-121
-123
-127
-127
-127
-132
-140
-140
-136
-141
-152
-154
-158
-171
-171
-152
-129
-106
-82
-75
-91
-110
-112
-104
-112
-115
-92
-100
-122
-105
-117
54
759
1303
645
-495
-689
-211
-47
-124
-91
-67
-90
-67
-47
-55
-50
-38
-31
-17
-7
-3
12
35
54
76
104
133
163
200
244
285
320
348
365
371
365
342
295
224
142
69
9
-39
-72
-87
-96
-101
-99
-94
-92
-88
-83
-84
-85
-82
-78
-77
-74
-70
-69
-70
-66
-63
-64
-64
-60
-60
-61
-60
-61
-64
-71
-81
-78
-53
-22
4
24
29
15
1
-5
-5
1
7
8
15
17
-6
