# session 6
61
160
-91
84
1132
2064
2123
1873
1828
1814
1714
1562
1373
1257
1206
1097
886
509
128
177
569
735
612
537
524
444
370
346
302
232
172
163
252
341
289
202
118
12
437
1493
1698
365
-773
-582
-105
-76
-87
-21
-51
-67
-14
-4
-21
16
24
-88
-186
-200
-270
-333
-212
-66
-84
-137
-121
-105
-115
-138
-195
-283
-337
-329
-361
-434
-364
-218
-248
-346
-302
-248
-312
-420
-487
-433
-295
-264
-362
-424
-386
-335
-360
-389
-365
-409
-257
496
1065
384
-771
-1047
-697
-513
-481
-469
-522
-504
-360
-264
-261
-232
-162
-118
-95
-60
-11
66
164
262
408
573
578
432
352
379
373
270
114
-6
-67
-131
-188
-190
-171
-144
-99
-101
-171
-216
-202
-179
-166
-217
-382
-473
-314
-170
-259
-305
-255
-317
82
1261
1720
447
-900
-829
-234
-100
-100
41
96
1
-65
8
97
59
47
220
401
437
476
629
791
879
928
948
891
796
770
707
456
319
664
1280
1483
595
-1067
-1822
-891
262
479
326
271
130
-7
-28
-50
-65
-73
-141
-180
-178
-207
-153
-77
-46
513
1536
1484
4
-1018
-710
-219
-173
-200
-185
-183
-144
-113
-82
-10
11
-4
63
146
133
81
66
73
93
96
48
0
-19
-103
-272
-422
-515
-575
-578
-550
-521
-420
-266
-209
-214
-158
-108
-108
-66
-6
-19
-80
-113
-98
-72
-80
-103
-84
-100
-251
-200
464
1095
621
-524
-961
-574
-306
-400
-426
-459
-828
-1116
-813
-403
-451
-606
-500
-360
-325
-264
-154
-47
63
164
210
232
298
376
384
352
331
261
122
11
-17
-35
-68
-21
80
45
-108
-164
-95
-26
-10
-45
-77
-77
-100
-117
-148
-255
-284
-315
-553
-219
1131
1707
325
-1092
-946
-286
-84
3
124
156
228
323
334
338
368
391
429
456
473
540
638
744
863
925
918
949
1006
990
880
717
547
410
300
224
208
186
136
164
225
176
85
-39
-298
-466
-315
-89
-2
28
8
-106
-217
-193
-152
-201
256
1467
1877
440
-1073
-1014
-303
-61
-109
-189
-282
-278
-246
-290
-288
-189
-132
-156
-139
-50
35
94
162
241
296
295
255
214
143
-10
-202
-360
-479
-568
-629
-703
-802
-855
-824
-768
-738
-715
-669
-593
-466
-324
-277
-315
-326
-301
-278
-251
-205
-166
-256
-297
278
1084
800
-399
-911
-516
-256
-327
-331
-300
-353
-392
-338
-230
-155
-149
-176
-231
-281
-239
-164
-164
-109
115
300
281
215
224
223
162
105
80
83
122
181
249
353
439
413
323
280
264
225
180
111
37
43
44
-65
-139
-123
-149
-167
-214
-286
271
1381
1357
-178
-1197
-853
-409
-399
-324
-177
-146
-131
-114
-100
8
166
261
327
437
576
708
848
982
988
910
981
988
501
-28
130
575
608
443
413
370
298
321
330
284
293
291
195
126
138
147
158
168
101
118
301
201
-269
-457
-276
48
974
1918
1188
-636
-1268
-640
-231
-232
-186
-182
-256
-264
-269
-287
-217
-104
-49
-56
-77
-57
-20
-16
27
122
132
67
76
111
47
-60
-137
-215
-279
-312
-354
-332
-235
-317
-508
-485
-674
-1396
-1595
-752
-121
-324
-566
-604
-765
-878
-829
-813
-762
-676
-661
-148
1020
1387
236
-769
-504
13
6
-91
-60
-72
-75
-40
-85
-138
-75
-3
-20
-18
36
75
135
202
214
254
269
192
313
393
-340
-1251
-999
-133
111
-8
35
60
60
120
88
23
65
96
69
71
84
88
115
140
144
114
25
-65
-243
-421
230
1654
1864
212
-1061
-745
-163
-111
-126
-43
22
49
30
91
136
27
179
353
-382
-1186
-546
576
726
573
793
886
793
837
850
733
663
622
524
443
457
512
477
360
331
295
43
-129
125
479
532
421
345
275
234
258
239
175
129
-12
75
1024
1946
1159
-553
-1044
-451
-7
233
-36
-1355
-2437
-1803
-415
154
82
58
19
-87
-69
21
90
189
282
301
276
245
242
272
249
121
-29
-128
-195
-260
-290
-262
-229
-225
-214
-214
-247
-231
-173
-183
-242
-262
-259
-309
-401
-362
-229
-342
-525
-398
-436
-779
-618
-213
-464
-813
-666
-654
-938
-1020
-967
-979
-903
-721
-558
-427
-293
-121
64
186
284
433
547
566
596
673
688
632
608
604
522
410
358
277
131
82
128
89
8
17
18
-53
-77
-33
-61
-189
-305
-374
-411
-359
-226
-124
-101
-207
-213
534
1656
1457
-144
-1061
-594
-80
-81
-91
-25
-38
-46
-1
45
64
57
59
67
43
33
81
128
144
166
192
195
197
191
153
84
-17
-127
-166
-168
-215
-195
-83
-190
-487
-448
-66
123
69
68
93
88
144
180
132
123
154
168
192
148
321
1245
2057
1239
-406
-845
-204
189
223
282
293
249
257
274
282
321
389
480
542
527
541
673
785
808
873
915
752
543
454
384
325
157
-325
-665
-390
-35
-91
-199
-133
-95
-128
-155
-171
-173
-197
-246
-278
-322
-350
-308
-304
-347
-367
-472
-305
661
1391
487
-960
-1153
-603
-454
-503
-436
-422
-415
-357
-354
-348
-277
-246
-262
-246
-204
-163
-118
-91
-74
-55
-119
-281
-396
-431
-501
-621
-730
-828
-899
-910
-898
-905
-907
-881
-846
-818
-787
-730
-645
-572
-526
-480
-448
-432
-359
-272
-243
-159
-107
-162
367
1580
1829
502
-490
-137
358
375
406
492
484
563
700
697
669
757
798
752
850
897
461
-169
-478
-469
-111
569
975
847
650
562
409
269
239
229
220
238
244
223
186
151
151
147
95
59
69
57
4
-43
-52
-48
-84
-93
-76
-154
140
1261
1916
693
-1024
-1232
-516
-198
-177
-121
-151
-187
-132
-74
-13
47
48
44
96
171
257
349
416
466
489
453
415
387
94
-702
-1509
-1442
-561
104
110
-26
14
41
-13
-44
-39
-39
-55
-66
-53
-30
-32
-76
-115
-109
-126
-149
-100
-141
-98
675
1579
1036
-489
-1016
-492
-192
-236
-188
-152
-199
-209
-199
-183
-141
-122
-114
-67
-11
44
125
194
217
239
279
286
257
230
182
88
2
-39
-70
-96
-99
-116
-159
-176
-180
-223
-254
-218
-184
-206
-232
-241
-265
-251
-195
-212
-254
-262
-317
-24
912
1386
506
-501
-464
-107
-134
-191
-122
-128
-159
-138
-133
-143
-123
-89
-69
-60
-33
20
68
98
120
128
127
128
123
108
74
2
-88
-140
-148
-147
-149
-147
-152
-165
-179
-190
-189
-171
-143
-109
-62
-36
-68
-96
-60
-53
-90
-84
-144
-93
656
1528
1016
-454
-967
-419
-78
-110
-66
-10
-21
5
34
33
55
98
135
170
211
269
339
402
450
486
500
488
466
435
357
233
126
68
32
2
-18
-32
-48
-63
-72
-89
-121
-136
-113
-93
-106
-137
-178
-199
-179
-206
-271
-261
-332
-353
417
1522
1142
-564
-1327
-691
-158
-165
-171
-122
-104
-69
-89
-117
-46
14
0
14
81
163
246
311
365
402
391
376
375
309
199
118
21
-100
-151
-121
-106
-159
-198
-153
-144
-222
-220
-158
-201
-230
-130
-102
-216
-235
-149
-182
-251
-194
-259
-274
547
1558
953
-790
-1386
-681
-207
-207
-155
-112
-146
-119
-83
-75
-33
15
55
113
173
232
318
422
509
541
523
511
491
409
287
172
68
-2
-26
-37
-56
-71
-76
-75
-78
-96
-118
-116
-111
-123
-115
-94
-126
-163
-138
-145
-184
-174
-283
-313
438
1381
887
-615
-1104
-493
-145
-218
-187
-126
-147
-128
-92
-91
-71
-33
-9
25
86
156
225
286
322
322
304
290
275
226
144
64
6
-31
-57
-81
-97
-95
-112
-167
-208
-214
-218
-195
-138
-121
-149
-176
-200
-204
-194
-208
-202
-265
-433
-75
1008
1400
297
-760
-612
-171
-164
-196
-117
-117
-133
-100
-84
-74
-42
-6
46
118
187
254
322
377
396
384
365
353
327
269
190
117
63
24
-15
-56
-85
-107
-136
-167
-184
-192
-202
-210
-203
-178
-141
-129
-166
-185
-156
-162
-185
-217
-382
-264
700
1489
685
-706
-880
-279
-84
-134
-58
-30
-57
-20
8
12
44
79
102
148
215
281
342
402
444
451
425
394
361
306
233
162
101
65
41
-13
-90
-134
-142
-150
-171
-199
-224
-231
-220
-208
-196
-187
-208
-237
-235
-235
-240
-242
-399
-476
214
1161
797
-604
-1131
-562
-175
-214
-201
-156
-174
-155
-119
-115
-101
-61
-10
33
66
123
198
255
298
328
325
316
325
304
232
156
98
45
9
-3
-17
-51
-84
-97
-105
-108
-100
-113
-136
-98
-19
-12
-75
-90
-35
-22
-53
-71
-213
-291
388
1379
1031
-483
-1089
-452
-15
-90
-77
-12
-50
-36
3
-4
22
56
53
98
170
192
234
329
379
376
380
380
359
329
275
199
131
76
36
12
-13
-33
-39
-63
-97
-93
-75
-85
-93
-82
-53
-18
-33
-89
-92
-77
-94
-86
-206
-393
89
1138
1172
-113
-898
-488
-78
-146
-167
-105
-157
-178
-112
-89
-95
-70
-47
-43
-17
43
106
138
149
173
200
201
187
170
123
39
-48
-106
-145
-187
-224
-247
-271
-297
-304
-310
-343
-372
-355
-312
-275
-233
-218
-266
-290
-250
-254
-283
-322
-455
-222
717
1180
188
-902
-759
-241
-214
-249
-135
-120
-120
-43
-25
-45
4
73
105
138
199
277
353
412
455
479
489
496
484
413
306
217
154
99
57
26
-18
-59
-67
-62
-79
-113
-140
-140
-123
-114
-102
-96
-130
-148
-122
-140
-145
-124
-257
-96
914
1581
499
-1014
-1056
-311
-88
-125
-11
5
-65
-19
37
20
38
113
160
182
239
324
398
462
527
570
579
560
508
421
314
204
119
73
45
11
-22
-43
-68
-97
-101
-87
-100
-138
-139
-110
-105
-125
-151
-163
-148
-161
-184
-192
-322
-253
609
1408
652
-819
-1075
-417
-167
-253
-206
-173
-209
-186
-158
-156
-127
-83
-44
3
57
127
214
283
310
311
299
278
246
187
101
18
-44
-88
-119
-136
-147
-161
-182
-199
-203
-211
-227
-223
-195
-174
-164
-169
-196
-205
-196
-216
-221
-272
-427
-148
815
1204
192
-805
-626
-157
-147
-190
-114
-117
-132
-100
-93
-80
-33
2
28
75
137
205
272
318
336
331
312
289
252
190
115
55
7
-37
-68
-85
-105
-131
-155
-172
-185
-192
-196
-187
-161
-135
-123
-134
-168
-171
-150
-169
-189
-258
-398
-57
926
1225
123
-845
-591
-99
-94
-131
-54
-54
-49
3
11
20
74
120
155
212
279
344
413
471
489
470
444
416
366
290
198
108
42
8
-17
-48
-83
-108
-121
-134
-145
-152
-164
-169
-146
-117
-115
-148
-173
-150
-150
-193
-188
-273
-414
124
1243
1228
-295
-1248
-740
-158
-166
-179
-90
-109
-116
-65
-54
-48
-4
49
112
186
254
330
413
470
493
493
466
425
378
290
156
46
-11
-53
-84
-91
-104
-131
-143
-143
-154
-167
-179
-185
-164
-128
-122
-156
-184
-174
-168
-177
-173
-283
-341
310
1272
934
-598
-1270
-638
-122
-142
-130
-58
-83
-78
-33
-21
-3
42
91
148
213
275
344
409
448
462
449
416
368
293
186
76
-5
-63
-104
-128
-144
-162
-183
-201
-210
-210
-219
-231
-218
-186
-169
-172
-193
-211
-193
-191
-216
-239
-379
-402
332
1252
837
-511
-917
-341
-55
-143
-108
-54
-77
-52
-16
-10
18
60
96
148
205
265
334
398
429
425
401
374
339
278
200
130
78
36
0
-28
-57
-92
-119
-135
-154
-174
-181
-174
-155
-130
-119
-137
-171
-183
-168
-179
-203
-259
-430
-350
406
993
331
-728
-795
-300
-182
-258
-206
-182
-207
-186
-168
-161
-127
-88
-54
-8
54
128
203
265
298
292
264
243
214
147
71
17
-28
-75
-110
-124
-135
-159
-186
-189
-172
-164
-172
-165
-125
-73
-43
-43
-67
-71
-33
-18
-24
-51
-212
-113
818
1601
762
-731
-941
-241
42
-17
28
50
22
54
80
77
98
139
185
235
281
347
422
467
500
534
528
478
422
334
206
103
39
-24
-67
-74
-102
-153
-164
-150
-164
-186
-190
-189
-189
-185
-166
-140
-152
-183
-165
-146
-169
-185
-299
-332
368
1310
861
-706
-1278
-581
-96
-136
-111
-34
-55
-47
-7
7
39
89
130
185
255
327
406
477
520
529
509
467
411
324
205
89
-1
-68
-114
-145
-168
-189
-209
-231
-250
-260
-271
-290
-288
-258
-232
-229
-249
-275
-270
-255
-272
-287
-393
-542
-76
980
1101
-170
-1037
-634
-151
-182
-201
-117
-126
-127
-85
-68
-40
13
51
90
150
218
291
355
383
375
353
325
286
232
161
86
27
-15
-49
-73
-89
-110
-136
-155
-165
-174
-187
-189
-172
-150
-136
-128
-151
-191
-184
-159
-183
-203
-284
-410
-27
881
997
-115
-891
-536
-101
-131
-156
-81
-85
-74
-22
-8
15
71
122
175
236
296
364
434
474
474
455
433
407
352
255
151
76
22
-27
-63
-84
-105
-132
-161
-182
-184
-176
-179
-181
-160
-135
-128
-141
-166
-175
-156
-160
-171
-197
-364
-282
629
1429
627
-881
-1127
-413
-92
-137
-86
-71
-112
-60
2
10
34
76
116
169
237
321
412
478
508
520
512
476
412
320
209
107
31
-13
-36
-55
-77
-92
-98
-102
-113
-123
-127
-134
-136
-118
-101
-103
-123
-153
-153
-137
-157
-177
-258
-395
-1
1004
1166
-153
-1179
-799
-187
-148
-178
-94
-110
-127
-78
-61
-52
-7
37
77
136
200
267
331
371
376
348
306
267
213
124
27
-41
-77
-97
-114
-133
-148
-151
-148
-150
-161
-171
-170
-153
-121
-82
-48
-50
-93
-104
-67
-68
-90
-132
-297
-177
701
1346
545
-651
-665
-92
-9
-86
8
-13
