# session 3
-193
-236
-44
-173
-888
-1523
-1588
-1269
-778
-267
-127
-609
-1359
-1821
-1862
-1662
-1406
-1274
-1281
-1222
-1061
-939
-878
-842
-822
-788
-738
-691
-664
-627
-494
-434
-736
-1090
-1002
-715
-640
-694
-520
379
1681
1777
217
-1065
-660
548
1232
1228
1124
1185
972
267
-314
-297
-52
-39
-169
-167
-38
45
72
120
157
176
230
287
304
394
594
636
496
579
644
67
-465
29
769
697
242
7
-132
-246
-247
-225
-259
-211
-39
-2
-14
452
1205
1526
1499
1374
797
-1
-269
-140
-127
-151
-104
-120
-133
-55
-66
-263
-212
562
1417
1160
59
-587
-545
-396
-329
-322
-298
-118
21
-94
-240
-220
-128
-32
38
34
46
101
46
60
512
1097
1245
1128
1101
1060
1018
1046
756
-40
-831
-1165
-1130
-1025
-1035
-1140
-1270
-1387
-1412
-1330
-1223
-1076
-964
-1069
-1139
-800
-386
-341
-387
-278
-283
-426
-412
-263
-155
-91
-94
-112
10
179
234
241
220
356
1099
1917
1492
147
-345
316
854
796
706
779
697
465
409
491
431
369
473
347
-268
-883
-905
-352
255
509
498
437
312
276
501
444
-305
-948
-949
-914
-838
-106
667
596
198
183
329
344
274
160
98
141
148
88
61
38
13
85
179
181
165
155
115
135
148
-30
-190
-77
92
70
-114
-170
380
1203
1035
-173
-921
-690
-364
-316
-275
-228
-248
-265
-291
-345
-369
-383
-453
-513
-416
-179
-1
27
-15
-89
-180
-177
-56
15
-17
13
126
140
71
99
158
80
-45
-99
-174
-307
-375
-345
-314
-344
-385
-381
-357
-353
-351
-325
-277
-207
-134
-94
-93
-117
-131
-122
-127
-146
-134
-137
-165
-134
-146
-93
663
1812
1684
126
-839
-498
-116
-84
35
-126
-780
-1392
-1610
-1171
-304
-272
-1106
-1057
22
533
327
334
533
586
617
664
661
732
878
925
885
872
854
813
816
801
679
533
438
351
270
251
273
264
214
170
182
200
145
110
197
266
185
77
-11
-191
-319
-238
-191
-231
-59
120
-54
-271
-198
212
988
1423
689
-382
-528
-116
37
47
154
234
194
25
-161
-177
-89
-73
-81
-38
-6
-2
17
27
2
-21
-22
-37
-84
-124
-122
-104
-129
-175
-154
-95
-126
-232
-310
-375
-436
-427
-381
-364
-334
-291
-306
-329
-268
-189
-182
-214
-221
-219
-223
-197
-156
-172
-229
-263
-264
-231
-222
-280
-298
-308
-289
313
1337
1268
-183
-1206
-977
-530
-442
-415
-354
-330
-369
-483
-535
-451
-394
-412
-395
-363
-352
-296
-234
-239
-226
-150
-83
-62
-57
2
168
363
472
495
492
504
532
488
346
233
197
161
141
171
174
143
153
187
190
181
180
174
151
121
101
93
95
105
66
-19
-30
16
26
82
119
126
734
1880
1961
559
-426
-83
385
338
290
380
368
264
162
106
118
142
136
125
119
116
119
113
107
121
128
134
187
255
276
290
309
281
247
238
170
61
19
-12
-104
-170
-178
-214
-268
-281
-304
-376
-424
-416
-412
-405
-344
-264
-231
-257
-315
-341
-316
-329
-359
-327
-307
-320
-315
-358
-138
717
1299
527
-669
-862
-443
-310
-351
-328
-346
-408
-477
-544
-512
-407
-374
-397
-378
-333
-291
-235
-169
-98
22
163
212
222
352
493
469
432
538
634
622
562
441
290
241
246
180
114
120
106
35
0
25
38
3
-42
-34
49
91
-24
-186
-225
-198
-236
-325
-419
-472
-404
-332
-383
-76
851
1271
306
-861
-931
-440
-264
-272
-151
-23
-54
-142
-117
-62
-121
-176
-117
-65
-76
-65
-18
30
81
132
170
202
237
281
319
327
309
290
267
212
129
43
-48
-153
-238
-273
-286
-297
-286
-259
-221
-138
-43
-14
-15
24
87
165
236
214
154
176
183
117
99
90
63
117
92
185
1059
1974
1301
-328
-878
-351
-42
-82
-33
7
-52
-30
26
-12
75
324
261
-164
-379
-253
-189
-295
-356
-288
-183
-122
-85
-13
60
90
144
243
273
248
279
280
165
75
72
33
-37
-28
12
-19
-80
-88
-50
-8
26
49
65
71
54
26
20
-22
-140
-217
-232
-295
-354
-411
-412
185
1199
1138
-221
-1067
-702
-257
-226
-202
-128
-88
14
88
28
-21
66
182
186
121
123
180
200
197
216
247
284
309
300
301
341
372
358
333
338
330
257
185
94
-152
-304
-80
48
-284
-528
-393
-348
-503
-541
-467
-456
-480
-447
-378
-366
-367
-286
-244
-305
-289
-198
-193
-300
-419
-138
753
1243
422
-671
-760
-342
-256
-321
-270
-242
-271
-279
-275
-278
-289
-307
-310
-302
-308
-316
-320
-323
-295
-242
-207
-175
-95
46
214
366
498
595
627
643
679
635
470
321
273
247
191
157
150
116
89
146
216
201
162
177
193
169
139
104
59
31
-9
-69
-55
-54
-162
151
1178
1806
1105
-53
-577
-566
-420
-293
-275
-297
-264
-228
-208
-188
-179
-168
-160
-164
-154
-120
-44
40
24
-21
72
188
183
204
304
344
349
398
417
388
372
329
233
171
150
82
-1
-4
-20
-134
-131
107
219
-13
-221
-171
-125
-205
-225
-152
-118
-133
-112
-55
-36
-27
-26
-86
211
1203
1793
870
-446
-611
-101
72
27
84
132
96
24
-32
-18
45
93
121
118
72
45
79
153
247
262
122
10
84
180
188
233
304
272
177
93
-1
-106
-223
-379
-544
-693
-835
-919
-917
-937
-1010
-991
-816
-650
-628
-651
-602
-523
-446
-399
-470
-590
-622
-592
-530
-493
-526
-172
761
1142
214
-819
-852
-488
-405
-416
-369
-353
-355
-357
-368
-363
-361
-348
-260
-134
-26
101
202
190
183
312
438
463
508
584
566
492
478
505
538
612
638
465
198
60
37
19
8
16
39
43
-26
-72
-30
-8
33
114
41
70
487
604
86
-207
-24
45
-2
15
276
1262
2154
1318
-441
-951
-344
21
72
182
241
243
282
239
91
15
45
55
96
251
316
202
193
381
542
615
680
738
796
851
873
864
820
759
724
650
459
233
90
32
-16
-73
-41
89
112
-10
-37
90
205
269
356
416
341
200
193
320
342
153
-30
-63
-181
-315
237
1231
1114
-264
-1135
-872
-527
-538
-550
-540
-607
-640
-629
-660
-717
-778
-888
-1014
-1066
-1103
-1183
-1153
-1002
-1002
-1187
-1286
-1254
-1252
-1292
-1309
-1319
-1318
-1282
-1216
-1083
-856
-640
-527
-464
-380
-270
-156
-116
-127
-33
123
137
84
151
251
268
279
315
291
229
243
288
251
199
137
72
470
1303
1301
109
-707
-411
-28
-23
46
184
203
244
362
457
523
586
657
728
735
666
635
703
755
709
670
735
834
879
878
873
870
843
780
717
668
581
450
335
247
172
126
95
62
68
81
12
-58
6
86
30
-80
-145
-196
-258
-289
-265
-260
-300
-337
-423
-259
697
1667
1059
-612
-1315
-785
-280
-307
-534
-638
-570
-545
-634
-635
-504
-372
-269
-201
-185
-165
-120
-98
-76
-37
-24
-24
-13
-46
-93
-62
-5
-6
-30
-34
-27
-32
-93
-176
-156
-52
-2
-18
-23
26
99
80
-30
-20
141
222
187
196
250
250
225
233
255
270
218
175
595
1442
1576
523
-408
-287
147
201
86
46
70
94
20
-84
-33
110
161
137
122
121
146
189
192
190
268
369
416
449
446
372
356
428
408
327
385
460
330
134
-4
-236
-495
-525
-452
-556
-755
-863
-911
-981
-1094
-1228
-1337
-1435
-1580
-1750
-1838
-1875
-2021
-2142
-1987
-1758
-1393
-306
832
459
-877
-1235
-588
-179
-129
4
130
141
163
213
255
320
382
412
474
567
618
643
693
750
789
803
790
798
856
873
807
808
875
829
782
817
629
418
781
1193
785
127
39
132
-9
-108
-80
-95
-108
-80
-80
-67
-33
-82
-148
-100
-13
25
-37
-221
47
1219
1953
842
-747
-909
-302
-145
-155
-16
-34
-114
-13
63
-25
-88
-70
-79
-84
-37
-38
-90
-54
43
65
74
163
249
282
326
374
382
378
373
325
214
81
5
17
38
-28
-132
-141
-50
28
39
9
-28
-30
16
49
8
-80
-121
-104
-124
-175
-186
-247
-180
523
1375
980
-517
-1270
-662
14
-61
-334
-304
-224
-343
-493
-513
-460
-406
-399
-470
-526
-456
-328
-233
-167
-162
-189
-88
84
84
-54
-108
-46
32
61
28
-10
-18
-45
-113
-148
-141
-181
-223
-185
-208
-274
-98
137
-5
-300
-354
-318
-362
-407
-427
-385
-293
-255
-213
-188
-197
337
1408
1552
355
-501
-245
120
105
51
45
40
62
88
154
237
223
174
201
239
201
139
175
241
147
114
314
227
22
681
1506
1045
130
49
191
89
196
272
-27
-237
-163
-149
-216
-188
-182
-269
-265
-151
-113
-91
-4
-94
-391
-511
-347
-220
-260
-249
-199
-345
-199
845
1641
750
-699
-901
-354
-178
-176
-72
-88
-137
-65
-48
-112
-98
-58
-73
-57
4
29
30
50
102
182
246
310
408
440
387
420
544
566
459
314
134
-78
-247
-302
-243
-164
-186
-292
-352
-360
-436
-543
-551
-454
-280
-195
-346
-333
-92
-283
-261
1086
2070
803
-675
13
1354
990
-533
-1288
-926
-470
-389
-386
-325
-282
-276
-295
-258
-164
-146
-77
283
680
742
646
681
660
369
64
4
59
89
130
143
115
136
134
72
95
96
-46
-54
-71
-330
228
1995
2697
1075
-632
-798
-567
-729
-779
-676
-695
-708
-643
-581
-505
-455
-412
-299
-331
-401
235
1289
1232
25
-679
-453
-236
-245
-166
-88
-84
-62
-70
-98
-60
-34
-73
-84
-45
-29
-38
-28
10
4
-132
-247
-111
66
-43
-204
-114
-10
-87
-160
-154
-172
-215
-256
-296
-323
-335
-284
-193
-261
-371
-61
540
774
631
623
657
283
-258
-404
-309
-390
-503
-503
-463
46
1084
1293
-50
-1267
-923
-305
-594
-301
1188
1532
110
-687
-295
-190
-373
-209
-96
-183
-114
0
-19
35
198
267
275
390
547
610
616
622
602
574
572
535
462
454
480
438
406
440
425
373
386
385
311
240
201
229
264
167
164
325
157
-24
611
1134
306
-532
274
1468
985
-665
-1483
-1083
-595
-495
-473
-457
-510
-542
-530
-507
-471
-418
-311
-170
-144
-266
-309
-92
200
249
58
-100
-124
-120
-118
-113
-134
-107
-56
-149
-239
-235
-409
-462
-238
-607
-920
393
1579
577
-750
-1028
-913
217
1585
710
-1127
-1311
-869
-1004
-920
-673
-741
-699
-573
-410
469
1421
907
-386
-685
-211
-17
-36
19
13
-12
38
57
53
96
98
69
134
221
234
260
302
279
271
356
444
347
35
7
636
1138
722
105
125
276
28
-214
-206
-234
-339
-323
-236
-233
-285
-292
-249
-201
-165
-148
-143
-126
-113
-165
-314
-427
-158
513
966
969
1057
1089
315
-787
-1030
-502
-181
-270
-219
-71
-261
-260
218
211
188
1368
2029
670
-497
-185
45
-178
-69
101
95
209
303
225
188
236
266
281
242
123
21
0
4
-8
7
52
35
26
243
575
735
755
666
343
-9
-119
-107
-107
-116
-133
-111
-151
-248
-99
204
625
1566
2175
1295
138
-81
-340
-945
-1040
-874
-920
-886
-777
-785
-763
-692
-667
-622
-538
-466
-408
-377
-352
-290
-240
-224
-175
-148
-208
-225
-154
-149
-210
-201
-159
-181
-228
-252
-285
-352
-396
-378
-347
-246
133
641
782
679
842
870
281
-156
-20
-162
-651
-701
-567
-635
-170
747
636
-572
-1210
-834
-488
-523
-534
-467
-431
-373
-305
-272
-228
-148
-80
-43
19
131
240
318
386
452
517
588
645
680
715
759
803
834
825
760
654
540
446
368
273
195
235
337
285
68
-78
-65
-23
-25
-60
-108
-129
-124
-111
-80
-91
-136
-141
-206
-92
788
1706
1069
-580
-1190
-629
-210
-199
-184
-158
-177
-168
-156
-172
-161
-105
-72
-113
-156
-108
-17
32
59
112
172
219
274
325
320
291
316
339
262
164
122
53
-59
-102
-90
-117
-162
-184
-192
-185
-168
-162
-156
-151
-152
-120
-89
-132
-177
-174
-174
-132
-141
-247
204
1318
1481
29
-1120
-827
-312
-323
-332
-245
-300
-326
-241
-212
-229
-204
-167
-136
-82
-29
-18
-18
33
110
147
173
234
264
220
189
212
236
220
155
74
33
15
-34
-85
-94
-85
-73
-61
-80
-119
-108
-46
-8
-27
-46
-41
-54
-76
-86
-131
-166
-169
-262
-128
645
1192
484
-553
-628
-246
-205
-253
-177
-150
-146
-97
-73
-64
-31
9
42
56
51
62
89
104
131
189
243
268
273
263
252
262
286
279
215
136
89
53
-4
-50
-63
-88
-131
-147
-142
-155
-174
-168
-139
-120
-130
-149
-178
-222
-225
-205
-234
-237
-239
-302
148
1294
1603
194
-1136
-958
-319
-195
-209
-140
-148
-147
-96
-93
-90
-45
-24
-13
30
61
71
116
176
220
288
365
386
367
351
351
371
379
330
249
173
94
22
-19
-39
-63
-107
-161
-191
-192
-189
-189
-194
-200
-190
-165
-152
-164
-165
-138
-160
-204
-153
-165
-150
586
1630
1267
-363
-1117
-589
-189
-245
-215
-154
-209
-222
-188
-190
-186
-163
-144
-111
-68
-40
-13
28
73
114
161
203
224
218
205
210
225
219
195
159
97
38
8
-4
-7
-14
-44
-68
-68
-68
-70
-60
-32
8
29
13
-26
-61
-52
-28
-57
-67
-83
-174
149
1065
1341
290
-663
-490
-76
-89
-139
-58
-32
-65
-100
-102
-46
1
7
27
62
80
98
136
188
228
240
252
280
276
248
267
305
279
215
175
130
54
-13
-56
-96
-142
-187
-221
-247
-276
-292
-285
-274
-263
-239
-225
-237
-268
-303
-305
-283
-305
-333
-345
-373
-54
781
1018
-133
