# session 31
0
46
-106
85
787
1272
1209
1067
1073
1047
982
952
914
862
829
797
753
714
681
644
603
564
528
496
463
425
386
357
333
305
273
248
227
204
180
157
140
124
102
79
65
50
25
-2
-23
-39
-47
-44
-36
-28
-24
-29
-56
-93
-107
-112
-135
-136
-123
-154
-166
-162
-175
212
1080
1238
96
-896
-706
-239
-216
-261
-198
-207
-230
-201
-191
-198
-189
-182
-179
-167
-154
-148
-139
-122
-101
-79
-49
-12
26
69
124
183
236
282
316
334
338
323
276
194
97
5
-70
-127
-168
-198
-216
-221
-219
-215
-210
-200
-191
-187
-185
-174
-161
-158
-160
-155
-146
-142
-140
-136
-134
-136
-134
-129
-128
-131
-132
-130
-127
-124
-120
-118
-115
-110
-106
-105
-101
-95
-93
-90
-82
-75
-75
-76
-71
-65
-61
-58
-57
-57
-52
-45
-42
-42
-42
-40
-38
-42
-52
-52
-37
-14
8
30
47
43
15
-1
12
8
-1
21
17
-7
8
-10
150
881
1488
833
-402
-677
-189
21
-37
-2
22
-6
11
27
15
20
33
37
43
47
48
65
90
104
114
136
165
194
229
276
323
372
422
462
484
496
492
466
414
332
229
134
58
-3
-53
-87
-105
-113
-115
-117
-117
-114
-112
-117
-116
-106
-105
-116
-118
-108
-108
-118
-121
-121
-127
-133
-135
-138
-140
-136
-134
-140
-144
-142
-139
-138
-140
-139
-130
-127
-137
-142
-134
-129
-131
-133
-135
-134
-121
-112
-119
-130
-133
-130
-131
-133
-123
-105
-90
-73
-50
-49
-84
-107
-89
-86
-106
-91
-78
-96
-69
-78
-26
634
1540
1212
-269
-1016
-562
-132
-123
-96
-50
-85
-74
-35
-42
-38
-14
-8
-8
0
8
21
41
63
88
111
137
176
221
266
316
372
431
486
523
534
528
504
449
357
242
130
39
-32
-94
-141
-161
-160
-156
-153
-147
-141
-140
-136
-124
-119
-123
-122
-115
-117
-122
-118
-116
-121
-122
-125
-136
-139
-134
-136
-141
-138
-133
-134
-135
-134
-131
-130
-133
-142
-149
-152
-155
-150
-129
-99
-72
-56
-58
-80
-100
-95
-87
-105
-104
-78
-94
-106
-94
-116
231
1162
1508
406
-777
-706
-167
-75
-126
-66
-64
-85
-53
-43
-49
-36
-25
-20
-9
-1
9
27
43
60
85
115
148
192
242
295
355
417
471
507
526
528
504
445
352
239
129
41
-25
-74
-105
-119
-131
-142
-140
-129
-123
-123
-116
-103
-98
-103
-101
-92
-92
-98
-94
-91
-102
-112
-110
-107
-109
-111
-116
-119
-117
-115
-118
-117
-115
-117
-115
-110
-113
-117
-117
-117
-126
-138
-142
-133
-114
-91
-65
-44
-43
-68
-94
-90
-79
-95
-91
-68
-92
-102
-91
-104
279
1188
1419
277
-787
-630
-135
-91
-135
-73
-80
-103
-78
-69
-69
-56
-50
-47
-38
-29
-17
-1
14
36
67
93
120
160
212
267
325
381
428
462
479
479
464
416
329
224
125
41
-24
-76
-112
-129
-131
-131
-132
-131
-130
-126
-115
-104
-106
-110
-108
-106
-108
-109
-108
-105
-103
-104
-105
-104
-107
-113
-118
-118
-114
-112
-111
-108
-104
-102
-101
-99
-92
-86
-88
-98
-103
-103
-111
-119
-110
-85
-62
-42
-23
-21
-49
-76
-69
-64
-80
-65
-51
-84
-79
-75
-51
466
1319
1206
-57
-833
-481
-69
-78
-89
-39
-62
-63
-30
-28
-27
-14
-15
-11
1
8
14
26
40
61
89
119
149
184
228
277
328
378
425
459
471
466
443
390
304
202
107
29
-37
-84
-109
-126
-138
-140
-134
-128
-126
-124
-125
-126
-121
-116
-119
-122
-120
-121
-127
-125
-121
-125
-131
-129
-126
-129
-134
-137
-137
-135
-135
-135
-131
-129
-132
-133
-124
-116
-119
-123
-115
-109
-113
-119
-122
-128
-130
-118
-93
-69
-49
-36
-36
-56
-73
-64
-62
-78
-62
-47
-77
-68
-63
-56
429
1288
1232
-8
-825
-500
-71
-68
-82
-27
-43
-45
-15
-18
-19
-1
4
6
16
24
32
51
77
102
128
158
187
218
265
320
367
415
464
494
502
508
502
457
372
272
176
86
7
-50
-83
-99
-107
-114
-120
-114
-101
-102
-118
-116
-97
-94
-106
-109
-107
-116
-119
-111
-110
-117
-123
-129
-135
-139
-136
-131
-133
-142
-141
-132
-135
-144
-143
-133
-132
-140
-145
-147
-153
-160
-155
-136
-115
-93
-77
-75
-88
-114
-131
-125
-130
-142
-122
-119
-145
-123
-134
-23
711
1523
1004
-479
-1075
-565
-161
-148
-117
-74
-92
-78
-55
-64
-58
-43
-41
-32
-16
-15
-6
27
55
64
83
126
171
208
250
304
367
427
469
492
506
507
482
417
313
194
84
-8
-82
-132
-163
-180
-181
-174
-174
-173
-163
-154
-152
-149
-139
-133
-132
-132
-125
-117
-115
-118
-116
-116
-121
-123
-118
-113
-114
-118
-115
-109
-109
-111
-109
-110
-116
-110
-87
-65
-49
-35
-27
-37
-57
-62
-51
-59
-72
-51
-47
-73
-55
-79
1
730
1609
1173
-287
-889
-387
-29
-74
-57
-9
-37
-30
1
1
3
10
14
27
36
35
49
72
84
104
141
172
197
241
303
359
412
467
510
532
536
524
484
405
296
186
91
12
-49
-91
-117
-128
-129
-130
-130
-125
-119
-115
-111
-109
-109
-109
-106
-105
-112
-124
-130
-129
-132
-141
-149
-156
-166
-174
-179
-182
-184
-185
-189
-200
-208
-212
-224
-242
-239
-211
-183
-168
-161
-165
-187
-210
-208
-196
-214
-226
-202
-206
-226
-212
-245
-44
772
1343
536
-737
-911
-378
-201
-266
-220
-192
-210
-186
-171
-175
-160
-150
-150
-136
-114
-98
-81
-54
-20
9
36
72
108
154
222
287
342
409
471
500
512
516
486
417
329
242
166
107
64
38
26
21
16
15
22
24
23
34
58
73
60
34
32
53
61
51
36
22
17
24
34
39
32
19
29
50
46
27
28
37
34
33
55
85
95
87
83
71
31
-5
-7
-11
-24
-9
-16
-51
-46
-73
10
607
1211
716
-451
-824
-382
-116
-153
-142
-125
-155
-143
-122
-134
-137
-130
-135
-135
-126
-123
-123
-116
-100
-78
-52
-25
6
47
95
146
195
240
279
307
319
313
288
235
152
58
-23
-85
-137
-178
-203
-210
-207
-203
-200
-194
-184
-176
-172
-169
-165
-160
-160
-161
-161
-160
-159
-155
-156
-162
-164
-169
-175
-157
-117
-93
-89
-83
-78
-88
-105
-108
-95
-90
-95
-75
-64
-87
-69
-70
-65
418
1242
1157
-47
-825
-517
-100
-73
-74
-25
-40
-38
-7
-9
-12
1
6
10
23
31
37
49
66
86
111
141
175
215
266
324
387
444
483
504
519
512
461
375
270
158
58
-15
-71
-122
-148
-145
-143
-153
-157
-152
-148
-144
-138
-133
-132
-128
-124
-123
-121
-114
-113
-122
-130
-133
-136
-145
-158
-157
-133
-103
-90
-82
-72
-79
-104
-123
-118
-112
-122
-108
-92
-117
-113
-119
-149
295
1231
1340
114
-859
-612
-136
-108
-134
-76
-91
-98
-58
-54
-66
-51
-40
-42
-35
-23
-12
0
17
36
61
93
133
178
230
282
332
376
411
436
447
441
409
338
233
128
42
-29
-85
-123
-147
-163
-168
-166
-165
-162
-156
-151
-144
-135
-133
-136
-132
-123
-124
-129
-127
-122
-124
-131
-139
-146
-152
-161
-159
-134
-104
-86
-71
-63
-72
-94
-112
-107
-99
-107
-98
-86
-111
-107
-104
-123
289
1150
1239
86
-812
-557
-102
-88
-124
-68
-75
-82
-51
-50
-52
-35
-32
-35
-23
-12
-3
14
34
53
81
115
149
187
236
288
338
386
423
440
443
435
400
329
234
138
56
-13
-67
-101
-118
-128
-130
-127
-127
-128
-124
-121
-123
-123
-117
-114
-115
-117
-117
-115
-114
-114
-117
-120
-119
-115
-116
-125
-135
-139
-142
-152
-152
-127
-94
-75
-62
-57
-68
-91
-101
-90
-89
-103
-90
-79
-100
-91
-108
-86
451
1265
1079
-161
-842
-457
-76
-103
-112
-60
-78
-77
-45
-44
-45
-33
-29
-24
-13
-4
9
26
43
63
90
122
157
196
241
290
335
373
403
423
431
423
391
325
237
147
67
1
-50
-85
-105
-112
-112
-112
-111
-108
-105
-103
-101
-101
-105
-108
-111
-111
-110
-110
-109
-111
-113
-114
-114
-115
-117
-120
-121
-121
-120
-118
-118
-122
-125
-127
-136
-143
-127
-95
-71
-54
-43
-53
-81
-96
-87
-92
-106
-86
-78
-111
-99
-105
-71
486
1297
1060
-211
-859
-446
-76
-105
-104
-55
-75
-71
-44
-47
-45
-30
-25
-18
-9
-3
13
36
57
76
100
132
169
206
246
293
345
391
426
447
451
439
406
347
258
158
74
5
-57
-102
-122
-131
-139
-141
-138
-130
-122
-121
-123
-122
-123
-126
-123
-121
-128
-131
-126
-127
-136
-140
-136
-134
-140
-144
-140
-136
-137
-138
-137
-137
-146
-150
-135
-109
-89
-74
-63
-69
-94
-107
-96
-105
-129
-104
-78
-111
-101
-103
-98
496
1528
1428
-89
-1080
-696
-161
-107
-100
-47
-69
-62
-23
-26
-27
-8
-5
-2
16
27
30
50
82
104
125
158
196
234
281
334
387
439
477
494
493
477
443
377
276
161
60
-22
-89
-130
-147
-159
-175
-180
-163
-146
-146
-147
-143
-147
-152
-144
-132
-134
-141
-142
-138
-140
-146
-150
-151
-151
-152
-153
-149
-144
-147
-152
-151
-155
-159
-141
-110
-87
-75
-70
-75
-94
-109
-104
-101
-114
-101
-79
-104
-103
-101
-139
282
1268
1475
228
-868
-663
-141
-90
-120
-54
-68
-80
-40
-39
-52
-33
-23
-27
-20
-7
5
19
36
56
82
112
142
178
221
272
326
371
403
426
435
426
395
334
243
144
58
-13
-68
-105
-129
-142
-146
-145
-142
-136
-129
-124
-119
-113
-108
-107
-106
-104
-104
-107
-113
-118
-120
-120
-121
-121
-121
-125
-127
-125
-127
-136
-143
-145
-143
-126
-94
-64
-47
-42
-54
-82
-97
-82
-76
-92
-79
-68
-94
-87
-91
-34
533
1313
1051
-194
-801
-387
-41
-86
-87
-39
-61
-56
-29
-33
-32
-19
-16
-7
7
10
17
35
53
71
97
127
160
201
248
296
345
390
423
441
443
429
391
322
229
135
57
-7
-58
-92
-110
-121
-126
-125
-126
-129
-127
-119
-112
-107
-103
-104
-108
-107
-102
-105
-113
-113
-110
-114
-118
-119
-123
-128
-125
-119
-123
-132
-131
-130
-140
-139
-110
-80
-74
-68
-56
-68
-101
-110
-96
-107
-115
-92
-105
-123
-99
-124
107
982
1553
629
-761
-931
-321
-97
-151
-99
-72
-98
-78
-60
-65
-59
-52
-51
-42
-32
-23
-5
16
35
58
86
117
155
199
251
306
354
392
415
421
416
395
335
236
125
21
-68
-134
-185
-228
-248
-247
-245
-237
-224
-212
-177
-110
-76
-124
-210
-261
-260
-241
-220
-194
-170
-162
-161
-151
-136
-130
-136
-157
-183
-176
-139
-98
-31
43
63
73
126
154
133
121
121
118
110
104
133
164
149
145
132
165
628
1300
1088
-34
-658
-357
-63
-104
-90
-7
-10
-18
1
-5
-11
-7
-28
-39
-35
-64
-45
101
188
85
8
87
145
103
80
101
120
147
190
231
273
305
298
251
186
115
41
-24
-77
-131
-183
-218
-251
-284
-292
-281
-283
-295
-294
-292
-328
-372
-319
-195
-146
-173
-180
-181
-199
-200
-185
-172
-154
-127
-84
-26
11
23
43
64
61
40
34
39
11
-15
20
16
-60
5
152
116
268
905
1115
290
-503
-393
7
116
133
188
190
188
220
242
254
261
251
239
228
212
197
158
80
23
36
81
115
150
178
163
116
82
70
62
56
57
55
23
-51
-137
-195
-234
-288
-342
-361
-360
-373
-400
-423
-428
-412
-382
-355
-336
-319
-299
-278
-253
-228
-213
-211
-205
-186
-153
-117
-90
-76
-64
-51
-45
-48
-55
-66
-61
-39
-36
-41
-22
-20
-23
5
-14
99
668
1145
655
-295
-552
-207
-3
0
25
40
27
34
43
47
62
71
72
80
89
93
102
115
125
137
154
174
196
224
258
296
330
357
377
390
396
382
339
273
206
143
82
28
-11
-37
-52
-57
-58
-59
-62
-64
-65
-68
-71
-74
-76
-82
-92
-97
-99
-111
-125
-119
-97
-84
-85
-86
-92
-110
-133
-151
-155
-150
-160
-167
-148
-154
-166
-140
-169
-53
600
1162
567
-575
-830
-358
-132
-174
-145
-119
-137
-119
-101
-106
-95
-81
-82
-78
-69
-60
-46
-27
-10
9
37
73
113
158
207
260
311
348
369
381
380
357
305
222
128
45
-19
-70
-105
-127
-141
-146
-144
-141
-140
-133
-123
-119
-117
-112
-106
-103
-102
-104
-106
-110
-116
-115
-99
-75
-60
-51
-46
-52
-71
-94
-99
-90
-99
-105
-85
-95
-113
-94
-128
37
767
1287
560
-598
-761
-267
-82
-128
-88
-67
-89
-70
-51
-55
-49
-43
-41
-30
-16
-5
12
32
51
73
104
142
181
221
266
312
353
386
409
417
409
380
320
234
142
61
-6
-56
-87
-105
-118
-123
-122
-120
-120
-118
-115
-114
-114
-114
-112
-109
-110
-117
-124
-129
-138
-145
-136
-114
-98
-88
-79
-81
-98
-119
-127
-120
-124
-135
-117
-113
-140
-127
-145
-105
470
1243
945
-296
-863
-442
-109
-146
-140
-93
-111
-105
-84
-90
-85
-70
-69
-62
-47
-36
-25
-8
10
34
65
99
136
179
224
272
319
354
375
388
387
363
312
238
149
64
0
-48
-87
-111
-121
-125
-126
-124
-120
-118
-115
-112
-112
-111
-107
-104
-101
-99
-99
-100
-104
-109
-113
-121
-124
-111
-85
-61
-44
-37
-46
-64
-74
-66
-63
-74
-62
-43
-66
-68
-62
-86
278
1123
1300
229
-706
-518
-61
-25
-60
-3
-8
-18
13
17
18
36
34
