# session 41
35
25
12
60
292
948
1720
1535
362
-324
-8
325
274
242
274
240
235
256
231
213
223
219
205
202
206
209
212
214
224
240
254
273
296
321
354
388
403
405
408
409
390
342
269
182
94
19
-38
-85
-121
-139
-142
-148
-157
-157
-152
-154
-161
-163
-167
-174
-180
-177
-173
-180
-191
-192
-184
-185
-190
-192
-196
-201
-198
-195
-199
-208
-219
-223
-212
-189
-160
-131
-120
-135
-161
-166
-151
-154
-170
-154
-143
-167
-160
-158
-79
466
1157
881
-232
-737
-362
-80
-129
-127
-89
-114
-112
-87
-82
-69
-56
-56
-46
-28
-19
-7
15
36
52
73
102
137
174
207
242
278
303
314
326
333
313
272
219
150
68
-1
-47
-80
-100
-107
-109
-108
-105
-101
-98
-97
-94
-90
-89
-92
-92
-90
-87
-86
-84
-82
-82
-81
-79
-81
-87
-88
-82
-78
-78
-77
-76
-76
-77
-83
-95
-96
-76
-47
-26
-8
1
-13
-40
-48
-40
-47
-48
-30
-40
-52
-40
-65
142
844
1254
521
-500
-592
-147
2
-39
-11
-7
-29
-8
5
-2
3
10
12
22
33
39
48
68
89
102
116
142
173
203
236
274
307
330
345
350
346
336
309
245
149
58
-10
-67
-111
-132
-141
-152
-155
-149
-146
-146
-143
-141
-143
-145
-144
-143
-143
-143
-141
-138
-139
-143
-145
-144
-145
-150
-145
-133
-132
-142
-144
-140
-141
-141
-124
-99
-79
-63
-55
-71
-97
-97
-90
-101
-91
-78
-105
-90
-58
-48
395
1316
1437
175
-922
-753
-210
-81
-80
-30
-41
-49
-20
-17
-20
-5
-1
0
14
28
35
47
66
86
106
129
155
185
224
267
299
323
349
369
371
365
342
282
197
100
-1
-60
-80
-132
-192
-178
-143
-159
-171
-143
-124
-120
-104
-93
-101
-108
-110
-111
-112
-114
-120
-125
-129
-131
-133
-139
-143
-151
-168
-166
-159
-189
-210
-168
-117
-79
-30
-35
-101
-118
-85
-96
-125
-89
-30
-27
-28
-18
-85
49
730
1257
680
-346
-557
-167
-13
-72
-67
-62
-78
-64
-56
-66
-76
-66
-27
-36
-95
-78
-3
8
-4
33
71
107
168
210
238
309
369
345
313
341
366
348
322
281
211
138
84
38
-3
-30
-40
-45
-58
-73
-65
-64
-91
-75
-19
-48
-146
-162
-107
-90
-98
-81
-57
-45
-38
-32
-29
-30
-39
-50
-52
-46
-41
-36
-37
-47
-65
-93
-130
-153
-164
-181
-181
-165
-186
-201
-182
-205
-39
545
873
255
-589
-678
-307
-127
-124
-118
-112
-98
-67
-49
-36
-25
-22
-23
-12
5
5
3
30
49
26
22
70
103
106
131
171
203
243
283
299
302
307
291
242
175
112
56
5
-30
-45
-62
-82
-82
-75
-83
-91
-90
-91
-93
-93
-98
-100
-93
-89
-89
-88
-83
-75
-68
-64
-63
-57
-36
-8
11
22
28
22
10
-1
-1
3
-4
1
14
3
0
6
-15
192
756
965
297
-448
-456
-125
-16
-29
-6
-1
-10
-6
-3
1
3
0
0
1
-1
0
5
14
29
41
54
75
97
116
146
182
204
213
224
230
228
221
188
115
34
-29
-85
-138
-170
-188
-206
-210
-198
-188
-187
-190
-194
-197
-194
-186
-184
-191
-190
-178
-179
-186
-177
-167
-179
-174
-133
-102
-101
-98
-98
-122
-140
-130
-122
-129
-121
-108
-124
-126
-102
-112
45
555
842
312
-421
-501
-188
-63
-82
-66
-61
-68
-47
-26
-18
-9
-2
2
11
25
39
51
61
75
93
115
140
166
194
228
261
291
316
336
347
350
340
305
247
184
122
67
27
2
-13
-20
-18
-13
-7
-4
-3
2
9
12
13
16
15
8
9
10
3
2
22
43
48
47
46
36
14
-11
-19
-13
-20
-26
-17
-26
-31
-16
-57
43
573
1002
552
-297
-522
-222
-53
-64
-54
-49
-62
-56
-53
-63
-61
-52
-48
-45
-46
-46
-38
-26
-15
1
21
41
65
93
122
154
189
214
227
233
231
212
169
98
13
-66
-127
-174
-212
-236
-245
-248
-251
-254
-261
-268
-265
-262
-264
-263
-264
-261
-252
-271
-298
-255
-196
-224
-255
-207
-187
-240
-283
-303
-317
-313
-307
-302
-283
-282
-301
-333
-332
-32
563
723
38
-710
-768
-480
-376
-376
-331
-319
-333
-310
-300
-315
-299
-242
-186
-165
-133
-17
120
169
177
229
305
383
479
587
688
768
818
840
850
855
844
809
760
705
646
591
555
535
537
566
598
610
607
602
585
547
498
449
398
343
287
238
189
135
94
75
45
-5
-49
-76
-110
-158
-200
-222
-236
-260
-273
-277
-304
-317
-319
-338
-128
399
559
-85
-754
-736
-443
-366
-384
-367
-372
-383
-374
-373
-373
-362
-354
-350
-338
-325
-315
-303
-287
-268
-245
-219
-192
-163
-129
-93
-56
-24
1
18
30
37
26
-15
-75
-139
-193
-236
-266
-284
-293
-294
-290
-281
-270
-260
-249
-234
-217
-203
-190
-175
-165
-155
-130
-92
-64
-50
-37
-23
-22
-33
-36
-21
-9
-7
14
33
29
49
53
50
368
953
978
221
-341
-189
101
147
143
173
171
173
192
199
201
206
207
210
216
218
224
235
245
256
271
291
312
319
316
356
433
465
443
440
450
428
388
333
236
140
94
66
34
13
-11
-44
-70
-87
-96
-88
-70
-59
-66
-77
-82
-96
-128
-139
-109
-75
-67
-76
-100
-131
-145
-166
-206
-213
-180
-150
-142
-181
-232
-210
-200
-181
246
914
786
-229
-830
-550
-237
-252
-248
-185
-202
-216
-165
-124
-150
-193
-162
-90
-105
-170
-144
-76
-88
-95
2
72
37
24
88
160
201
211
227
279
283
199
124
96
35
-69
-156
-199
-226
-282
-333
-310
-255
-226
-208
-211
-221
-183
-146
-155
-134
-100
-124
-136
-114
-116
-98
-44
-52
-95
-63
-4
-10
-38
-28
-30
-52
-20
24
10
15
5
7
493
1356
1368
253
-528
-296
51
38
3
25
7
19
41
16
-1
11
9
0
2
10
25
45
53
62
103
154
176
195
239
289
337
368
360
351
371
364
296
200
110
37
-40
-118
-137
-98
-93
-132
-148
-136
-141
-180
-207
-175
-120
-109
-125
-122
-114
-120
-128
-134
-142
-142
-138
-137
-125
-96
-78
-78
-88
-112
-135
-138
-139
-149
-136
-123
-148
-146
-134
-143
189
917
1057
142
-657
-505
-116
-81
-119
-73
-70
-85
-71
-61
-52
-40
-41
-33
-15
-5
3
24
47
66
88
119
154
190
228
268
304
336
362
376
377
364
325
251
162
81
14
-39
-75
-95
-107
-116
-120
-118
-114
-111
-105
-95
-87
-85
-85
-84
-81
-73
-66
-68
-72
-68
-60
-61
-71
-76
-71
-68
-68
-66
-65
-67
-67
-64
-59
-56
-61
-69
-66
-61
-63
-63
-59
-54
-51
-49
-49
-45
-37
-41
-51
-48
-37
-35
-35
-33
-32
-31
-27
-25
-24
-21
-21
-27
-27
-20
-16
-16
-15
-13
-12
-11
-10
-9
-9
-12
-15
-15
-16
-18
-17
-14
-16
-18
-19
-25
-30
-16
10
23
23
22
25
25
11
-5
-13
-27
-25
-6
-29
-54
-46
-63
186
935
1299
496
-461
-451
-60
-26
-88
-37
-37
-62
-36
-27
-40
-33
-24
-21
-10
2
8
19
38
55
70
89
112
136
163
195
229
255
274
293
312
324
324
311
278
224
156
90
34
-11
-48
-75
-91
-100
-109
-112
-112
-115
-117
-115
-114
-117
-119
-119
-113
-106
-110
-117
-115
-111
-115
-117
-113
-111
-114
-118
-115
-108
-104
-102
-101
-102
-102
-99
-93
-89
-89
-87
-83
-81
-84
-84
-80
-78
-76
-75
-74
-74
-70
-65
-65
-65
-66
-67
-67
-62
-60
-63
-61
-56
-55
-56
-51
-48
-51
-53
-49
-48
-56
-61
-49
-22
0
7
8
9
6
-8
-25
-26
-32
-47
-31
-15
-45
-47
-36
-4
433
1168
1115
82
-574
-304
2
-38
-55
-9
-30
-33
-3
-3
-6
7
12
12
22
36
47
58
76
97
115
134
162
193
224
260
299
332
354
371
376
367
346
306
243
170
94
26
-18
-43
-71
-100
-111
-106
-100
-100
-104
-102
-97
-95
-91
-87
-87
-85
-78
-78
-85
-87
-85
-88
-89
-88
-90
-94
-96
-92
-85
-88
-96
-98
-93
-92
-94
-97
-100
-96
-91
-94
-99
-98
-94
-93
-94
-93
-94
-96
-94
-89
-90
-91
-84
-78
-84
-88
-83
-78
-78
-78
-76
-75
-71
-66
-66
-68
-71
-76
-70
-43
-19
-11
-6
-1
-3
-9
-23
-35
-34
-39
-46
-27
-31
-57
-44
-56
74
704
1280
787
-266
-544
-154
12
-53
-36
-19
-45
-26
-2
-10
-9
5
12
19
30
40
43
49
68
89
107
130
159
187
219
260
300
329
352
374
385
378
349
300
229
148
71
5
-48
-84
-108
-122
-130
-131
-126
-119
-117
-116
-108
-98
-95
-97
-91
-85
-86
-87
-83
-87
-99
-104
-102
-100
-98
-94
-93
-95
-98
-102
-103
-97
-93
-96
-96
-90
-89
-93
-89
-80
-81
-87
-86
-84
-88
-89
-84
-80
-81
-83
-83
-79
-77
-77
-75
-74
-75
-74
-71
-76
-78
-71
-74
-82
-69
-40
-20
-11
-7
-8
-16
-39
-61
-58
-55
-68
-56
-45
-71
-56
-45
-24
472
1318
1250
29
-787
-497
-79
-55
-62
-8
-11
-16
-5
-9
3
22
23
26
41
55
70
95
120
137
155
180
208
244
289
329
367
413
455
473
482
489
476
431
356
261
161
75
6
-49
-87
-108
-122
-131
-129
-125
-123
-121
-115
-111
-112
-111
-106
-102
-105
-111
-116
-119
-121
-126
-136
-144
-144
-139
-137
-146
-157
-157
-155
-158
-153
-144
-148
-157
-153
-142
-139
-146
-154
-155
-151
-147
-146
-147
-142
-132
-130
-136
-137
-134
-133
-132
-129
-128
-130
-128
-131
-143
-140
-107
-76
-70
-68
-62
-62
-72
-90
-98
-96
-105
-100
-85
-109
-111
-93
-85
314
1181
1369
314
-604
-437
-47
-66
-109
-47
-62
-76
-34
-25
-35
-15
7
19
34
46
56
70
91
112
133
158
192
230
266
309
360
410
450
476
490
492
475
424
347
262
175
98
40
-5
-38
-57
-66
-64
-56
-50
-46
-42
-37
-30
-26
-26
-26
-24
-24
-27
-30
-34
-37
-41
-46
-50
-53
-59
-64
-68
-78
-88
-90
-88
-93
-99
-99
-98
-101
-107
-113
-115
-114
-117
-123
-123
-122
-127
-129
-129
-129
-128
-127
-137
-148
-148
-134
-108
-79
-67
-73
-74
-70
-82
-109
-117
-110
-117
-115
-97
-125
-138
-94
-86
195
1062
1533
563
-759
-897
-328
-99
-116
-74
-66
-76
-43
-36
-47
-31
-16
-13
-1
10
17
36
56
70
91
121
149
177
213
257
310
366
411
442
468
484
474
435
368
269
155
52
-28
-90
-134
-160
-173
-178
-175
-168
-164
-160
-153
-146
-141
-137
-136
-138
-136
-129
-125
-125
-127
-126
-126
-129
-130
-124
-119
-121
-124
-119
-113
-112
-113
-113
-111
-105
-100
-99
-99
-94
-91
-92
-92
-89
-88
-88
-85
-84
-92
-101
-105
-109
-107
-90
-66
-45
-23
-14
-34
-54
-52
-63
-71
-52
-61
-87
-73
-80
140
936
1525
815
-405
-638
-170
0
-65
-42
-39
-65
-40
-24
-26
-7
11
24
42
53
68
97
119
130
152
178
201
230
263
297
345
392
408
418
454
475
442
389
329
237
138
66
-1
-63
-95
-116
-136
-131
-117
-132
-146
-126
-113
-131
-137
-124
-123
-127
-119
-115
-130
-141
-133
-124
-131
-137
-129
-131
-148
-150
-144
-151
-152
-140
-134
-138
-146
-155
-155
-146
-140
-144
-156
-162
-169
-180
-165
-129
-115
-102
-69
-69
-107
-111
-94
-98
-87
-73
-92
-88
-106
-84
469
1374
1337
158
-620
-365
-35
-78
-107
-54
-67
-76
-45
-35
-42
-33
-14
0
10
15
20
40
67
82
99
136
176
202
230
278
336
379
400
413
416
404
376
316
217
113
24
-54
-110
-133
-149
-169
-173
-166
-172
-181
-174
-152
-137
-138
-145
-143
-136
-128
-124
-135
-146
-138
-129
-132
-133
-129
-133
-134
-128
-133
-142
-131
-116
-120
-124
-119
-117
-116
-110
-113
-123
-133
-143
-138
-109
-75
-54
-38
-32
-48
-61
-51
-48
-50
-33
-41
-61
-36
-59
40
733
1494
1067
-168
-618
-207
17
-62
-52
-16
-40
-32
-10
-7
7
17
12
16
27
36
53
75
87
96
115
146
181
218
252
287
329
371
402
416
417
399
352
278
192
97
2
-70
-115
-149
-173
-175
-169
-169
-168
-163
-168
-172
-162
-152
-152
-156
-157
-152
-147
-152
-158
-156
-152
-151
-150
-152
-151
-144
-139
-143
-144
-137
-134
-136
-136
-127
-119
-122
-125
-115
-105
-109
-115
-120
-134
-135
-113
-87
-62
-35
-26
-46
-65
-57
-48
-58
-51
-36
-47
-35
-46
-57
398
1274
1347
221
-640
-419
-21
-10
-31
17
-2
-14
9
9
19
44
46
47
65
74
77
92
115
136
151
172
211
255
283
310
353
402
439
454
449
444
434
382
292
202
120
38
-31
-75
-96
-99
-104
-122
-130
-111
-94
-105
-120
-115
-107
-114
-121
-118
-115
-114
-111
-114
-125
-132
-131
-130
-132
-135
-137
-140
-138
-135
-140
-144
-134
-126
-138
-150
-144
-145
-158
-159
-152
-167
-191
-181
-137
-111
-117
-122
-124
-141
-153
-156
-162
-152
-146
-170
-157
-160
-178
244
1077
1132
26
-812
-583
-169
-146
-172
-125
-132
-133
-104
-104
-105
-89
-85
-76
-51
-45
-48
-30
-6
14
41
69
90
125
169
207
249
301
341
361
376
384
375
343
279
187
95
23
-32
-66
-81
-89
-87
-68
-53
-53
-50
-34
-20
-12
1
16
23
29
48
