# session 24
-27
-50
34
3
-308
-634
-719
-703
-737
-752
-724
-708
-691
-654
-619
-595
-574
-549
-526
-513
-501
-477
-448
-433
-427
-415
-398
-385
-375
-358
-337
-325
-320
-310
-294
-287
-285
-273
-255
-241
-222
-190
-154
-128
-113
-122
-138
-127
-115
-119
-91
-73
-103
-74
-62
-22
646
1667
1405
-220
-1125
-639
-111
-74
-46
19
-4
8
53
50
47
70
84
91
107
125
142
172
214
253
295
348
410
483
558
615
649
665
655
615
556
470
353
237
150
86
34
-1
-18
-21
-20
-21
-20
-16
-12
-11
-11
-13
-13
-14
-20
-24
-29
-37
-48
-59
-71
-77
-79
-90
-97
-95
-105
-121
-125
-125
-131
-129
-119
-105
-77
-47
-47
-77
-98
-91
-92
-103
-81
-73
-106
-99
-118
-65
604
1530
1219
-264
-1008
-531
-105
-137
-138
-83
-107
-104
-74
-79
-75
-59
-58
-49
-30
-20
-6
23
53
84
124
171
226
292
358
408
438
448
436
398
334
246
143
39
-46
-104
-147
-181
-197
-200
-202
-205
-200
-195
-196
-196
-193
-190
-190
-190
-188
-185
-187
-193
-200
-206
-209
-210
-210
-214
-222
-230
-233
-239
-250
-251
-234
-211
-198
-180
-133
-86
-108
-182
-211
-193
-184
-187
-194
-172
-142
-175
92
983
1501
594
-653
-734
-184
-31
-94
-45
-28
-47
-14
8
6
15
17
14
27
36
34
40
57
72
82
104
154
212
256
310
366
388
385
373
326
251
189
139
85
47
38
43
48
52
59
69
73
67
57
51
48
43
28
10
2
-9
-39
-63
-62
-58
-56
-48
-47
-51
-38
-16
-10
-15
-10
13
43
62
62
65
71
50
13
-2
-22
-70
-82
-72
-105
-114
-118
-159
195
997
1076
-45
-920
-664
-198
-159
-181
-124
-116
-84
-26
-44
-91
-92
-74
-63
-49
-33
-14
15
43
68
102
142
184
236
295
338
362
374
371
348
305
237
153
72
-3
-68
-111
-137
-160
-172
-169
-166
-162
-148
-141
-149
-154
-151
-153
-160
-164
-164
-166
-171
-174
-181
-190
-192
-192
-202
-208
-193
-165
-144
-131
-119
-124
-150
-162
-151
-156
-162
-141
-146
-156
-122
-147
2
780
1464
773
-628
-1006
-456
-139
-153
-110
-75
-100
-85
-64
-68
-58
-44
-36
-17
6
21
40
65
97
139
193
249
309
376
445
497
518
513
497
463
393
295
190
94
17
-35
-70
-92
-96
-89
-87
-85
-75
-67
-65
-62
-55
-50
-53
-58
-60
-66
-73
-73
-73
-88
-108
-121
-135
-144
-139
-124
-107
-89
-84
-103
-123
-116
-114
-124
-103
-93
-123
-110
-118
-71
558
1456
1186
-243
-997
-564
-142
-155
-154
-104
-125
-115
-82
-87
-85
-68
-65
-59
-40
-26
-7
21
49
77
116
166
226
292
352
397
421
422
409
383
330
245
156
79
11
-43
-77
-92
-94
-97
-102
-100
-92
-88
-89
-89
-90
-91
-93
-98
-104
-109
-109
-110
-115
-125
-133
-141
-152
-155
-139
-115
-96
-81
-76
-94
-118
-117
-112
-125
-115
-95
-116
-113
-113
-120
321
1192
1239
22
-909
-645
-163
-129
-159
-101
-109
-122
-94
-88
-88
-74
-70
-64
-48
-34
-19
5
36
71
116
171
231
288
344
394
423
426
419
398
345
262
170
81
6
-48
-88
-118
-136
-142
-141
-138
-134
-134
-132
-128
-130
-130
-123
-118
-124
-128
-125
-125
-130
-136
-145
-152
-156
-159
-152
-132
-111
-94
-74
-78
-114
-126
-104
-111
-124
-100
-113
-137
-99
-104
118
1006
1652
729
-806
-1091
-445
-141
-165
-106
-74
-100
-77
-58
-69
-60
-44
-38
-20
9
36
64
90
116
155
211
272
335
402
464
504
521
518
499
458
385
282
174
83
12
-45
-83
-103
-116
-120
-109
-104
-114
-118
-103
-93
-102
-109
-102
-97
-103
-108
-110
-118
-132
-139
-142
-153
-165
-165
-150
-131
-112
-99
-106
-138
-154
-137
-141
-156
-133
-132
-155
-136
-154
46
921
1629
798
-741
-1093
-469
-154
-189
-143
-110
-133
-106
-82
-90
-81
-66
-61
-48
-31
-14
11
40
67
104
153
208
270
331
380
417
439
435
406
363
299
211
118
41
-20
-69
-98
-112
-117
-117
-113
-108
-106
-104
-100
-96
-92
-92
-97
-100
-97
-98
-105
-110
-114
-119
-123
-128
-139
-146
-149
-157
-162
-146
-115
-86
-67
-58
-67
-88
-94
-86
-94
-93
-71
-85
-97
-87
-112
181
1031
1393
386
-768
-731
-189
-78
-137
-84
-76
-95
-66
-55
-63
-47
-33
-30
-18
-2
14
36
60
86
121
165
215
269
325
371
398
409
413
401
361
295
216
138
69
13
-29
-55
-68
-75
-81
-85
-84
-79
-76
-77
-79
-85
-93
-95
-92
-98
-108
-112
-117
-129
-137
-134
-132
-138
-138
-134
-136
-140
-143
-153
-159
-151
-145
-141
-120
-92
-74
-66
-78
-105
-109
-95
-103
-102
-88
-114
-113
-93
-117
262
1211
1461
227
-965
-816
-221
-102
-131
-69
-77
-98
-62
-47
-49
-35
-24
-11
8
19
36
70
98
122
168
221
269
330
396
443
472
491
492
470
423
350
256
155
66
-5
-62
-105
-131
-143
-144
-141
-141
-137
-126
-120
-123
-121
-117
-117
-116
-109
-109
-115
-120
-127
-137
-137
-129
-131
-144
-154
-158
-165
-171
-162
-141
-119
-97
-76
-76
-103
-123
-116
-118
-125
-99
-96
-126
-98
-112
-26
743
1661
1151
-466
-1135
-571
-137
-144
-113
-62
-87
-71
-40
-46
-40
-25
-25
-18
0
18
40
63
88
124
170
223
284
353
415
457
477
479
461
422
354
258
155
70
1
-55
-93
-115
-130
-138
-136
-132
-125
-117
-112
-110
-109
-107
-105
-106
-112
-115
-115
-120
-128
-134
-140
-148
-152
-156
-161
-164
-162
-166
-176
-179
-179
-187
-192
-178
-150
-123
-100
-90
-108
-133
-127
-121
-139
-128
-109
-140
-142
-133
-94
449
1355
1250
-101
-947
-564
-120
-147
-147
-66
-105
-99
24
71
-23
-134
-150
-81
-24
-10
12
57
98
140
194
248
300
357
419
466
486
485
481
469
428
358
280
199
116
62
42
18
-2
-4
-15
-29
-31
-43
-39
19
63
52
51
74
64
30
14
14
8
-8
-31
-53
-74
-98
-121
-139
-155
-171
-188
-200
-184
-141
-121
-150
-180
-190
-203
-217
-218
-207
-179
-168
-169
-139
-150
-65
494
1075
620
-501
-867
-427
-157
-205
-209
-190
-212
-198
-174
-183
-179
-156
-136
-111
-80
-56
-34
-6
29
71
119
166
215
272
332
377
402
413
411
390
345
276
191
113
54
5
-35
-61
-71
-78
-88
-92
-84
-78
-79
-82
-83
-84
-84
-82
-81
-85
-92
-93
-93
-100
-107
-109
-115
-120
-106
-80
-69
-66
-56
-55
-81
-110
-106
-90
-99
-100
-81
-94
-88
-59
-54
249
965
1135
163
-800
-731
-256
-100
-89
-40
-36
-44
-24
-18
-17
-5
0
3
16
33
58
87
106
119
141
178
222
265
303
341
374
389
387
373
343
296
232
158
86
28
-14
-45
-68
-82
-84
-80
-76
-72
-74
-76
-71
-72
-83
-83
-76
-82
-94
-98
-103
-110
-114
-120
-123
-107
-85
-74
-67
-64
-76
-102
-123
-120
-118
-130
-121
-109
-137
-127
-104
-107
252
993
1034
-39
-902
-718
-267
-157
-138
-89
-100
-109
-89
-87
-86
-69
-63
-63
-51
-34
-15
7
28
50
80
119
162
211
266
312
342
358
361
347
315
260
184
104
36
-17
-60
-91
-106
-114
-119
-116
-109
-107
-107
-104
-100
-101
-102
-99
-99
-104
-111
-115
-115
-120
-130
-126
-105
-85
-77
-70
-63
-74
-104
-117
-108
-112
-117
-91
-91
-106
-82
-113
-23
611
1239
733
-452
-833
-393
-118
-140
-113
-72
-84
-71
-50
-53
-47
-33
-29
-21
-6
10
25
43
70
103
139
184
241
296
344
391
422
418
395
368
322
247
164
95
38
-9
-45
-64
-68
-68
-75
-84
-88
-88
-87
-84
-84
-85
-84
-83
-88
-96
-103
-105
-110
-124
-131
-118
-98
-88
-84
-80
-84
-105
-124
-121
-123
-134
-116
-110
-133
-114
-123
-92
433
1159
885
-311
-887
-484
-125
-135
-131
-85
-97
-96
-77
-78
-71
-57
-53
-45
-31
-17
-1
19
44
76
110
151
204
264
316
357
380
385
378
355
306
236
159
84
22
-24
-59
-83
-92
-95
-98
-98
-96
-95
-93
-89
-89
-92
-92
-90
-93
-98
-99
-104
-110
-111
-116
-128
-123
-97
-76
-69
-65
-61
-76
-101
-107
-100
-112
-113
-94
-111
-121
-103
-139
80
825
1195
331
-740
-761
-263
-115
-144
-96
-88
-102
-68
-51
-56
-47
-41
-38
-25
-12
-1
22
48
72
104
147
193
244
296
342
373
389
391
380
350
296
225
148
76
19
-21
-47
-62
-70
-77
-80
-76
-72
-74
-79
-81
-81
-80
-82
-86
-89
-88
-88
-93
-99
-106
-113
-119
-128
-138
-131
-105
-83
-76
-73
-70
-85
-114
-121
-116
-126
-118
-96
-119
-123
-103
-135
155
962
1234
223
-821
-729
-223
-121
-155
-100
-95
-109
-81
-72
-74
-56
-43
-39
-29
-18
-4
23
53
81
113
157
210
263
314
358
388
402
406
392
353
290
210
127
54
-8
-56
-91
-110
-118
-119
-120
-116
-109
-107
-107
-99
-91
-94
-101
-102
-101
-103
-108
-113
-111
-109
-121
-137
-142
-146
-158
-157
-128
-97
-88
-84
-82
-102
-118
-104
-102
-120
-104
-96
-121
-96
-109
-21
723
1616
1122
-465
-1132
-571
-129
-137
-112
-58
-85
-76
-45
-48
-44
-27
-20
-8
11
33
63
90
112
149
197
246
302
368
427
464
478
476
462
430
365
267
162
70
-4
-65
-106
-128
-143
-156
-156
-149
-146
-144
-140
-137
-137
-138
-139
-136
-133
-135
-141
-139
-137
-150
-166
-169
-173
-185
-191
-183
-164
-135
-114
-106
-109
-128
-145
-133
-130
-142
-120
-117
-149
-129
-144
-39
747
1642
1096
-491
-1083
-500
-112
-156
-127
-74
-102
-86
-53
-61
-60
-42
-31
-19
-3
14
38
66
94
132
178
228
286
350
408
447
465
464
446
408
340
248
154
75
10
-42
-75
-93
-104
-110
-107
-103
-103
-101
-93
-89
-91
-93
-93
-94
-92
-92
-101
-109
-112
-117
-124
-130
-139
-151
-161
-170
-179
-178
-163
-134
-103
-84
-89
-115
-127
-116
-121
-135
-110
-103
-135
-120
-126
-8
722
1516
985
-451
-946
-402
-84
-155
-129
-77
-108
-96
-64
-69
-63
-46
-43
-35
-15
0
19
46
75
109
152
201
256
314
365
397
413
417
404
368
306
228
147
74
16
-29
-64
-84
-92
-93
-91
-90
-91
-93
-90
-86
-88
-92
-94
-95
-98
-103
-107
-110
-114
-119
-125
-128
-131
-134
-135
-134
-138
-146
-149
-152
-161
-159
-135
-104
-79
-60
-55
-72
-92
-89
-86
-98
-79
-60
-94
-92
-81
-80
412
1360
1367
9
-958
-612
-101
-94
-122
-53
-68
-76
-41
-42
-50
-31
-22
-21
-10
6
21
42
69
102
138
182
237
293
344
384
410
418
411
388
346
284
202
118
51
2
-36
-65
-81
-89
-88
-81
-77
-79
-78
-75
-75
-78
-81
-84
-86
-88
-94
-101
-107
-111
-116
-119
-120
-124
-131
-135
-135
-138
-138
-134
-136
-145
-149
-152
-158
-157
-136
-103
-71
-53
-53
-74
-98
-95
-87
-99
-90
-71
-94
-92
-82
-92
316
1183
1274
75
-879
-616
-116
-84
-119
-57
-63
-72
-38
-35
-42
-22
-10
-8
0
14
30
49
69
97
133
174
222
274
322
362
386
393
389
378
347
291
218
142
75
22
-18
-45
-59
-65
-66
-66
-65
-64
-64
-64
-65
-66
-71
-75
-77
-79
-83
-90
-96
-98
-100
-104
-108
-109
-109
-116
-122
-121
-118
-119
-118
-115
-116
-117
-113
-115
-126
-135
-140
-145
-133
-101
-75
-61
-50
-54
-81
-99
-92
-98
-102
-77
-88
-121
-101
-132
-14
740
1456
804
-595
-964
-395
-103
-155
-114
-69
-90
-65
-38
-44
-28
-5
-8
-2
23
43
56
84
123
160
198
239
287
341
397
439
461
462
450
429
392
322
229
140
65
-1
-49
-75
-87
-94
-97
-98
-101
-101
-97
-97
-100
-97
-91
-96
-105
-110
-117
-125
-128
-134
-143
-145
-145
-155
-160
-151
-143
-146
-152
-155
-163
-173
-169
-149
-126
-109
-91
-72
-74
-105
-119
-104
-110
-115
-89
-102
-118
-84
-111
147
1130
1744
669
-902
-1097
-425
-143
-144
-66
-54
-87
-51
-27
-37
-23
-4
3
15
32
50
75
101
132
174
218
265
327
397
457
502
531
534
506
455
382
285
173
73
-5
-68
-113
-129
-132
-143
-149
-142
-135
-131
-126
-129
-135
-136
-133
-131
-133
-138
-143
-149
-156
-161
-164
-163
-159
-161
-166
-171
-174
-177
-179
-181
-184
-177
-160
-137
-114
-95
-97
-124
-138
-126
-132
-140
-112
-119
-145
-116
-149
7
878
1647
875
-657
-1025
-413
-113
-155
-104
-68
-96
-72
-46
-54
-41
-22
-18
-10
6
21
42
69
97
131
175
225
282
344
403
446
469
475
465
435
376
291
202
125
59
9
-23
-41
-51
-54
-52
-46
-41
-42
-40
-34
-35
-39
-37
-34
-38
-44
-49
-59
-67
-72
-80
-93
-102
-106
-111
-118
-121
-125
-135
-146
-154
-162
-164
-150
-126
-100
-80
-74
-90
-119
-126
-121
-133
-129
-106
-129
-146
-134
-142
198
1053
1319
255
-810
-694
-201
-146
-197
-132
-130
-149
-118
-104
-110
-99
-90
-84
-71
-56
-40
-21
3
34
70
109
159
217
271
315
347
366
371
358
324
270
198
118
51
0
-39
-68
-83
-87
-85
-80
-78
-75
-67
-58
-55
-55
-50
-44
-42
-43
-41
-39
-39
-40
-38
-37
-35
-33
-30
-26
-22
-21
-18
-12
-5
1
4
1
-4
-7
