# session 25
-9
10
-40
18
234
364
303
224
209
189
164
161
155
140
133
126
114
103
97
91
84
76
64
53
44
35
27
19
8
-3
-11
-20
-28
-31
-32
-40
-49
-54
-52
-50
-55
-66
-74
-83
-96
-99
-78
-43
-23
-18
-15
-29
-58
-62
-53
-66
-60
-52
-87
-83
-73
-64
436
1351
1305
-49
-982
-638
-133
-107
-131
-76
-87
-90
-64
-67
-66
-51
-49
-43
-23
-8
6
32
56
79
120
170
214
271
342
395
419
435
446
435
399
336
248
154
68
-12
-76
-110
-129
-151
-161
-149
-142
-148
-147
-138
-134
-135
-133
-131
-130
-125
-119
-121
-129
-132
-132
-138
-147
-150
-150
-151
-151
-147
-145
-143
-142
-148
-158
-161
-157
-152
-141
-120
-92
-72
-75
-98
-112
-105
-108
-112
-80
-78
-117
-97
-104
-8
757
1668
1152
-478
-1155
-580
-131
-139
-108
-50
-75
-66
-37
-42
-39
-19
-9
0
13
26
47
75
102
132
171
219
277
339
397
450
487
500
490
462
407
323
225
128
42
-23
-64
-97
-121
-127
-122
-117
-115
-109
-102
-98
-96
-93
-91
-92
-92
-91
-94
-100
-102
-104
-111
-119
-124
-129
-133
-134
-133
-132
-132
-133
-133
-132
-127
-127
-133
-141
-149
-153
-143
-119
-92
-67
-46
-47
-74
-88
-78
-83
-90
-63
-66
-94
-76
-89
80
860
1521
817
-530
-827
-282
-51
-123
-85
-52
-79
-58
-31
-36
-27
-14
-13
-6
9
24
42
61
81
110
147
188
236
292
346
391
421
431
426
407
361
291
210
131
59
4
-34
-60
-77
-85
-88
-89
-86
-82
-80
-79
-77
-75
-75
-79
-81
-82
-85
-90
-95
-100
-104
-104
-105
-109
-112
-115
-116
-119
-122
-123
-122
-121
-118
-114
-111
-112
-113
-109
-102
-98
-101
-106
-115
-128
-133
-117
-89
-65
-48
-36
-43
-68
-80
-74
-83
-89
-69
-80
-95
-79
-96
141
946
1426
562
-663
-775
-240
-74
-130
-77
-60
-88
-62
-41
-49
-40
-25
-17
-3
11
21
38
65
97
136
175
213
261
324
387
428
450
464
467
443
392
321
231
133
49
-11
-56
-92
-115
-124
-131
-136
-135
-132
-130
-122
-111
-110
-119
-123
-115
-106
-109
-120
-121
-116
-123
-135
-132
-127
-133
-137
-130
-131
-143
-143
-131
-126
-125
-124
-129
-139
-142
-139
-134
-129
-118
-94
-63
-46
-56
-77
-80
-75
-95
-94
-59
-76
-99
-65
-76
210
1196
1783
687
-884
-1069
-381
-100
-123
-56
-32
-63
-44
-28
-32
-15
1
5
19
39
54
69
92
122
156
198
252
308
367
434
490
516
522
517
485
421
332
228
125
40
-34
-94
-126
-134
-140
-146
-140
-127
-124
-127
-124
-115
-110
-111
-111
-107
-107
-112
-113
-114
-121
-130
-135
-139
-142
-144
-148
-150
-145
-144
-148
-148
-146
-147
-152
-160
-165
-160
-145
-121
-95
-72
-70
-94
-111
-99
-103
-121
-97
-86
-122
-111
-117
-25
691
1564
1113
-402
-1037
-500
-105
-151
-139
-87
-113
-102
-70
-77
-76
-60
-53
-42
-24
-11
4
28
53
79
115
162
216
274
333
390
430
445
438
415
371
296
202
110
35
-24
-69
-95
-108
-116
-117
-109
-104
-102
-95
-85
-79
-75
-69
-64
-60
-60
-61
-59
-58
-62
-60
-59
-67
-73
-72
-75
-78
-76
-77
-81
-77
-71
-75
-84
-91
-102
-116
-113
-92
-69
-45
-17
-9
-32
-57
-55
-48
-63
-54
-34
-66
-79
-57
-52
341
1237
1434
264
-802
-628
-122
-82
-136
-78
-80
-93
-63
-61
-70
-56
-51
-50
-37
-23
-9
10
32
57
90
127
170
223
283
340
375
392
401
394
361
303
225
140
63
0
-47
-78
-100
-115
-118
-113
-109
-106
-102
-96
-91
-90
-92
-94
-94
-94
-96
-97
-99
-101
-105
-111
-115
-114
-113
-117
-119
-118
-118
-117
-114
-115
-114
-109
-106
-106
-107
-114
-122
-128
-136
-136
-116
-86
-61
-38
-29
-47
-70
-69
-62
-75
-68
-49
-72
-79
-70
-63
342
1181
1288
149
-793
-572
-106
-83
-122
-60
-69
-84
-51
-45
-49
-33
-28
-26
-9
5
13
32
55
77
107
145
185
235
291
336
364
383
395
387
361
321
258
176
101
43
-6
-44
-67
-79
-87
-87
-83
-82
-82
-82
-81
-78
-78
-86
-88
-83
-87
-97
-101
-104
-111
-114
-112
-112
-116
-124
-128
-124
-119
-122
-128
-125
-119
-118
-114
-105
-98
-96
-98
-103
-112
-118
-109
-80
-44
-20
-14
-21
-41
-51
-44
-52
-59
-40
-50
-61
-38
-65
169
1020
1544
611
-753
-920
-320
-72
-102
-54
-34
-55
-30
-18
-28
-18
-8
-9
4
24
35
49
77
107
134
171
218
265
316
373
425
461
473
468
451
407
324
226
140
61
-19
-79
-107
-127
-147
-153
-140
-129
-134
-138
-131
-128
-134
-134
-126
-127
-138
-140
-135
-143
-153
-148
-140
-147
-157
-162
-167
-169
-167
-166
-169
-176
-177
-172
-169
-163
-142
-113
-86
-86
-115
-128
-114
-123
-123
-89
-105
-134
-94
-100
134
1070
1739
764
-844
-1154
-486
-147
-151
-93
-61
-84
-61
-36
-40
-31
-15
-4
5
13
28
52
77
104
137
177
225
283
347
407
458
497
517
512
482
425
338
232
129
44
-25
-81
-116
-126
-122
-124
-130
-128
-120
-112
-104
-97
-96
-99
-101
-102
-102
-103
-106
-108
-109
-114
-121
-125
-128
-134
-135
-134
-141
-146
-147
-155
-161
-151
-136
-125
-102
-68
-58
-83
-105
-98
-95
-107
-89
-82
-114
-104
-117
-67
575
1478
1197
-240
-985
-531
-100
-121
-126
-70
-87
-83
-57
-61
-57
-40
-38
-33
-16
-1
15
35
57
86
120
159
210
269
324
373
414
434
435
421
384
317
232
146
70
7
-42
-76
-92
-100
-105
-103
-93
-90
-94
-90
-82
-82
-85
-84
-84
-89
-91
-94
-100
-103
-105
-108
-111
-115
-121
-122
-121
-128
-138
-143
-151
-160
-154
-129
-98
-73
-57
-59
-82
-103
-95
-90
-99
-84
-76
-102
-93
-98
-38
545
1344
1073
-222
-875
-456
-79
-110
-114
-64
-82
-77
-48
-53
-50
-33
-26
-21
-11
-2
17
42
59
81
117
157
201
255
312
359
388
399
399
389
359
301
217
130
60
6
-41
-76
-96
-103
-104
-102
-101
-101
-97
-92
-89
-90
-92
-93
-92
-93
-97
-101
-102
-101
-103
-107
-112
-115
-118
-118
-116
-119
-125
-130
-137
-149
-158
-157
-146
-124
-97
-73
-61
-73
-102
-113
-102
-109
-117
-97
-103
-121
-102
-124
57
831
1424
671
-642
-891
-332
-87
-137
-95
-64
-88
-67
-49
-54
-40
-29
-35
-23
6
24
34
55
93
126
147
187
257
323
372
424
463
468
459
447
408
336
246
154
76
4
-66
-111
-118
-113
-117
-120
-118
-115
-111
-105
-107
-108
-97
-90
-98
-109
-108
-99
-94
-102
-115
-124
-126
-124
-128
-142
-150
-149
-151
-152
-137
-109
-86
-77
-79
-96
-112
-105
-102
-112
-92
-92
-136
-110
-83
-21
641
1628
1352
-279
-1218
-753
-201
-146
-120
-59
-87
-84
-43
-44
-48
-35
-24
-5
11
18
39
73
98
123
162
212
265
320
382
444
488
507
507
482
426
349
255
147
44
-32
-86
-128
-152
-160
-163
-162
-156
-149
-142
-135
-133
-137
-138
-130
-124
-130
-137
-135
-134
-138
-140
-143
-151
-152
-151
-159
-168
-171
-177
-187
-186
-173
-156
-131
-104
-95
-113
-136
-135
-130
-145
-139
-116
-138
-141
-130
-162
212
1166
1450
271
-895
-770
-216
-120
-159
-99
-97
-110
-75
-62
-66
-51
-39
-33
-18
-3
12
32
56
82
114
153
197
254
318
372
409
433
441
434
410
357
279
201
130
60
6
-24
-42
-57
-62
-60
-58
-57
-53
-48
-46
-47
-45
-43
-46
-49
-51
-55
-60
-67
-71
-72
-74
-81
-87
-90
-95
-100
-104
-109
-114
-122
-132
-131
-109
-77
-52
-38
-37
-54
-76
-75
-71
-86
-80
-59
-81
-89
-82
-83
302
1129
1255
143
-802
-604
-132
-88
-126
-76
-84
-93
-60
-55
-61
-48
-42
-38
-22
-9
1
18
39
62
91
128
170
218
269
320
361
380
383
379
358
307
233
153
78
19
-28
-71
-99
-109
-113
-118
-120
-119
-119
-119
-117
-115
-114
-110
-101
-98
-102
-106
-107
-106
-106
-113
-117
-111
-105
-108
-114
-115
-112
-112
-114
-111
-107
-110
-109
-100
-96
-101
-104
-102
-105
-116
-124
-119
-102
-80
-59
-38
-20
-26
-53
-65
-61
-71
-70
-50
-72
-90
-68
-77
237
1137
1528
434
-860
-863
-258
-87
-124
-61
-52
-73
-43
-39
-55
-37
-19
-19
-9
11
25
37
59
91
127
164
207
260
310
359
410
448
455
446
437
406
335
244
155
67
-10
-60
-90
-113
-127
-134
-137
-131
-121
-119
-118
-109
-100
-102
-107
-103
-99
-101
-101
-104
-110
-109
-107
-112
-117
-120
-132
-139
-128
-118
-122
-125
-125
-127
-129
-131
-137
-134
-116
-99
-80
-52
-35
-49
-75
-76
-70
-87
-81
-49
-70
-82
-60
-92
234
1208
1623
459
-896
-891
-260
-75
-106
-46
-35
-53
-26
-15
-18
-6
0
2
13
24
41
65
82
99
128
168
215
270
326
379
429
462
465
452
427
379
299
202
115
41
-26
-76
-104
-120
-134
-137
-128
-123
-122
-118
-114
-110
-105
-101
-100
-98
-100
-105
-108
-110
-115
-118
-120
-127
-135
-137
-139
-145
-148
-146
-142
-141
-142
-139
-130
-124
-127
-129
-127
-122
-116
-114
-115
-114
-112
-113
-119
-127
-130
-126
-114
-89
-57
-33
-26
-40
-65
-67
-59
-69
-61
-46
-73
-72
-65
-47
434
1312
1310
77
-796
-506
-75
-82
-105
-43
-58
-64
-27
-26
-35
-19
-9
-10
-1
13
24
40
62
89
120
156
199
246
297
349
392
418
429
431
417
381
322
244
160
88
37
-3
-37
-58
-66
-68
-65
-64
-70
-69
-61
-58
-64
-67
-66
-67
-70
-74
-79
-85
-87
-85
-87
-95
-101
-105
-106
-106
-110
-114
-114
-110
-107
-106
-105
-102
-98
-98
-100
-100
-97
-93
-91
-88
-85
-85
-86
-80
-75
-80
-86
-88
-97
-110
-105
-77
-48
-30
-14
-6
-24
-49
-50
-51
-61
-48
-43
-68
-51
-50
10
581
1353
1074
-184
-806
-403
-56
-99
-103
-52
-72
-72
-45
-44
-42
-36
-41
-34
-16
-6
4
29
58
80
105
143
189
238
292
352
394
408
414
421
407
360
291
209
125
50
-13
-59
-84
-99
-111
-121
-122
-115
-109
-111
-112
-108
-103
-101
-97
-94
-94
-99
-103
-103
-107
-113
-113
-110
-118
-122
-115
-114
-122
-122
-113
-108
-116
-126
-120
-108
-109
-112
-106
-107
-113
-104
-97
-106
-116
-118
-122
-119
-103
-78
-52
-31
-23
-41
-72
-76
-65
-76
-72
-51
-73
-71
-53
-36
461
1444
1505
93
-1045
-793
-213
-106
-101
-34
-48
-62
-33
-29
-28
-11
-3
9
23
25
33
58
82
108
150
198
238
284
344
408
464
504
522
520
501
450
362
262
165
67
-15
-68
-103
-129
-140
-141
-142
-142
-137
-130
-122
-116
-116
-116
-111
-108
-111
-115
-118
-119
-121
-128
-137
-139
-133
-134
-143
-147
-142
-140
-143
-147
-149
-150
-149
-155
-159
-152
-141
-126
-100
-74
-65
-78
-106
-115
-103
-109
-111
-88
-105
-117
-89
-123
151
1112
1657
590
-875
-1006
-356
-110
-137
-80
-66
-93
-62
-40
-49
-41
-25
-15
-5
3
13
36
62
86
117
156
200
253
311
372
430
472
491
492
473
423
347
254
152
57
-18
-71
-109
-132
-140
-138
-133
-131
-128
-122
-115
-110
-106
-103
-104
-106
-107
-106
-108
-110
-112
-117
-122
-124
-124
-130
-133
-130
-129
-131
-130
-123
-120
-121
-122
-124
-134
-144
-140
-120
-96
-70
-43
-30
-44
-68
-70
-60
-73
-72
-50
-74
-89
-67
-79
257
1171
1514
407
-789
-718
-163
-65
-120
-61
-56
-77
-47
-37
-44
-28
-19
-21
-12
3
17
32
52
76
103
136
176
225
282
342
392
424
439
440
423
382
311
221
133
59
-5
-55
-86
-104
-116
-120
-116
-113
-112
-107
-102
-99
-98
-95
-93
-94
-95
-98
-101
-100
-101
-110
-114
-111
-113
-120
-123
-123
-125
-126
-124
-120
-119
-126
-128
-129
-141
-153
-141
-110
-79
-53
-38
-45
-66
-78
-72
-78
-88
-71
-70
-95
-80
-88
39
718
1393
855
-428
-827
-328
-51
-113
-94
-55
-78
-62
-37
-46
-40
-22
-21
-18
-5
7
22
43
64
88
121
158
200
251
308
358
396
419
423
413
387
330
244
155
78
13
-41
-77
-96
-109
-124
-133
-131
-125
-121
-120
-119
-117
-120
-123
-117
-112
-118
-122
-116
-113
-120
-129
-130
-129
-128
-129
-130
-130
-127
-126
-126
-121
-120
-132
-140
-134
-130
-139
-144
-127
-92
-63
-53
-55
-71
-91
-92
-90
-103
-88
-74
-100
-85
-77
-40
546
1471
1276
-199
-1081
-657
-148
-122
-121
-59
-75
-76
-47
-50
-47
-30
-29
-22
1
15
24
46
76
108
142
181
227
283
348
414
469
505
515
506
481
433
352
249
150
65
-9
-67
-102
-120
-130
-128
-121
-120
-125
-122
-107
-98
-100
-96
-88
-87
-87
-86
-92
-99
-97
-99
-110
-112
-108
-110
-114
-116
-119
-125
-137
-144
-134
-119
-105
-80
-53
-51
-77
-101
-94
-89
-101
-87
-77
-107
-86
-80
-49
582
1588
1384
-211
-1177
-736
-189
-149
-139
-73
-93
-93
-58
-59
-60
-44
-42
-36
-19
-7
3
23
45
68
102
146
197
254
313
368
415
447
456
442
406
342
248
139
40
-40
-108
-162
-190
-198
-201
-203
-201
-191
-180
-176
-172
-162
-152
-149
-150
-149
-147
-144
-139
-132
-126
-127
-129
-127
