# session 39
-16
-16
-44
-14
98
182
193
194
203
189
164
164
176
164
157
177
169
156
173
155
376
1120
1542
716
-408
-476
45
199
138
178
188
158
177
192
179
182
187
182
184
191
194
198
205
216
234
255
275
300
332
367
401
431
451
455
449
435
399
331
236
138
48
-26
-80
-117
-148
-169
-176
-181
-190
-192
-189
-190
-193
-193
-193
-197
-203
-207
-209
-213
-216
-218
-222
-229
-232
-235
-240
-243
-245
-248
-247
-243
-245
-247
-245
-244
-244
-237
-228
-227
-227
-219
-213
-209
-203
-200
-200
-200
-207
-209
-184
-148
-123
-100
-79
-81
-105
-114
-104
-107
-110
-84
-77
-97
-78
-79
29
618
1239
818
-295
-671
-245
-3
-67
-51
-9
-33
-26
-2
-6
3
26
25
24
48
73
82
89
109
137
166
193
224
258
295
337
375
401
423
436
430
410
371
306
224
144
72
12
-32
-61
-76
-79
-79
-82
-81
-72
-68
-68
-60
-55
-62
-59
-45
-48
-61
-58
-50
-54
-58
-59
-62
-62
-61
-68
-74
-72
-74
-76
-77
-79
-79
-74
-74
-76
-74
-70
-66
-67
-77
-80
-71
-69
-79
-76
-67
-71
-75
-68
-68
-80
-85
-83
-79
-69
-51
-30
-13
-8
-23
-48
-55
-51
-61
-64
-53
-63
-59
-52
-58
259
965
1115
215
-594
-455
-64
-26
-64
-23
-28
-41
-14
-3
-8
-4
-2
2
12
21
34
50
61
69
87
111
136
167
203
239
274
304
326
340
344
340
325
282
208
129
59
-7
-65
-103
-123
-135
-143
-144
-140
-137
-141
-141
-133
-128
-131
-130
-123
-123
-128
-126
-121
-120
-121
-123
-125
-120
-116
-121
-126
-122
-119
-117
-114
-116
-117
-111
-105
-103
-100
-100
-98
-92
-88
-88
-87
-87
-85
-81
-85
-93
-89
-64
-36
-20
-10
3
2
-21
-35
-29
-34
-34
-15
-24
-37
-20
-41
112
723
1142
534
-417
-552
-153
-6
-45
-16
-5
-23
-4
3
-4
12
27
22
25
37
41
44
58
75
92
114
142
169
199
236
275
311
343
367
376
371
356
319
251
163
83
22
-29
-69
-93
-105
-111
-110
-108
-104
-97
-91
-91
-92
-89
-84
-82
-83
-86
-90
-90
-89
-89
-94
-99
-99
-102
-108
-110
-108
-111
-115
-116
-115
-113
-113
-114
-111
-104
-103
-107
-106
-104
-106
-108
-115
-124
-119
-99
-80
-65
-46
-31
-37
-63
-78
-69
-73
-77
-58
-66
-82
-52
-72
35
671
1257
707
-442
-739
-273
-31
-75
-52
-22
-41
-27
-9
-14
-9
-1
0
11
27
35
42
58
76
95
121
151
182
217
259
306
351
384
405
416
419
404
364
292
198
101
17
-48
-97
-132
-149
-150
-144
-141
-139
-134
-128
-125
-123
-117
-112
-115
-119
-116
-114
-117
-121
-117
-115
-121
-127
-130
-127
-123
-126
-134
-135
-138
-146
-140
-114
-91
-77
-66
-65
-83
-110
-116
-103
-109
-114
-93
-107
-124
-91
-109
68
830
1397
634
-662
-914
-367
-94
-114
-78
-58
-79
-55
-33
-37
-29
-17
-11
1
13
19
31
50
69
91
119
150
185
226
272
321
367
402
426
436
426
395
335
241
134
41
-34
-92
-131
-151
-161
-162
-158
-153
-148
-142
-135
-127
-121
-120
-117
-113
-112
-113
-112
-113
-116
-116
-115
-115
-115
-115
-117
-115
-113
-115
-117
-119
-127
-128
-108
-75
-52
-40
-36
-44
-66
-76
-67
-69
-76
-58
-57
-76
-62
-84
12
637
1291
836
-339
-729
-279
-14
-65
-50
-14
-37
-26
-2
-6
-2
10
13
21
34
40
47
63
83
103
126
152
184
220
263
307
345
376
401
411
405
382
332
246
146
55
-17
-73
-112
-138
-156
-164
-162
-160
-158
-152
-147
-143
-138
-134
-133
-133
-132
-131
-127
-126
-130
-135
-135
-135
-135
-132
-129
-130
-128
-124
-124
-128
-130
-135
-144
-137
-112
-85
-67
-52
-52
-76
-100
-96
-88
-100
-95
-76
-94
-96
-85
-101
214
989
1205
235
-700
-571
-109
-46
-90
-40
-40
-55
-29
-21
-24
-8
2
3
10
17
26
42
60
78
104
131
158
190
227
269
314
354
379
394
401
392
356
283
186
93
18
-40
-84
-119
-142
-148
-145
-146
-144
-136
-128
-117
-104
-96
-95
-92
-89
-90
-89
-83
-79
-83
-86
-83
-79
-78
-80
-86
-93
-96
-92
-92
-98
-101
-97
-94
-98
-107
-116
-125
-131
-126
-106
-79
-58
-52
-59
-77
-94
-95
-99
-104
-91
-99
-119
-91
-102
-13
631
1347
884
-410
-883
-394
-66
-99
-79
-40
-73
-66
-32
-31
-33
-19
-2
11
15
17
30
50
74
101
126
153
192
237
279
318
365
413
443
460
467
452
402
315
196
78
-2
-49
-89
-127
-148
-153
-154
-141
-125
-135
-147
-125
-106
-123
-132
-115
-99
-94
-88
-85
-84
-87
-87
-81
-76
-80
-83
-87
-93
-88
-77
-72
-70
-72
-76
-72
-75
-95
-100
-82
-66
-49
-27
-15
-28
-48
-48
-48
-67
-66
-48
-69
-68
-46
-61
287
1163
1410
283
-835
-719
-167
-46
-77
-22
-26
-51
-27
-12
-19
-16
-10
-1
14
23
26
35
57
84
102
117
147
190
233
274
308
334
364
397
406
384
343
270
157
40
-57
-135
-189
-216
-229
-241
-243
-233
-227
-221
-211
-206
-201
-187
-182
-189
-193
-201
-205
-198
-202
-215
-201
-180
-188
-195
-192
-209
-217
-189
-176
-190
-185
-164
-148
-136
-143
-168
-161
-131
-141
-167
-144
-99
-84
-78
-51
-25
-24
-34
-41
-40
-38
-22
10
0
-19
8
-8
122
785
1375
841
-256
-535
-128
52
-2
21
48
40
56
69
83
109
105
92
113
133
125
126
148
161
170
198
233
259
290
338
389
440
482
484
455
435
419
378
309
223
133
57
2
-32
-51
-62
-80
-100
-103
-90
-87
-98
-102
-100
-99
-94
-90
-90
-89
-93
-97
-98
-105
-111
-104
-103
-117
-123
-115
-110
-120
-141
-143
-118
-101
-116
-132
-126
-124
-136
-132
-119
-144
-177
-156
-120
-115
-107
-83
-89
-130
-147
-113
-89
-118
-142
-136
-132
-118
-141
-151
244
952
970
51
-614
-429
-133
-155
-192
-142
-135
-148
-132
-121
-133
-138
-121
-115
-119
-91
-61
-71
-74
-40
-10
11
35
65
120
186
210
219
260
305
322
323
290
212
132
66
3
-50
-86
-101
-86
-80
-124
-170
-159
-126
-110
-102
-92
-84
-74
-55
-34
-26
-26
-10
11
3
-14
-6
6
5
13
16
-4
-17
-8
-6
-10
-4
-5
-9
1
4
-12
-5
24
38
43
60
73
72
63
54
52
46
26
32
60
45
36
54
14
220
933
1284
461
-562
-598
-135
7
-31
3
20
8
11
0
-13
-5
3
7
16
17
20
44
65
60
63
94
125
151
185
220
259
305
340
358
366
364
344
286
189
87
0
-90
-170
-213
-230
-245
-253
-255
-262
-257
-234
-223
-234
-234
-222
-223
-226
-213
-205
-208
-199
-186
-188
-195
-192
-188
-186
-182
-176
-173
-175
-181
-185
-180
-158
-132
-119
-103
-83
-82
-104
-122
-115
-99
-105
-108
-78
-78
-103
-87
-109
33
756
1402
796
-447
-757
-261
-17
-66
-35
-7
-33
-17
10
9
18
33
35
43
59
64
73
100
120
127
152
191
218
247
295
345
383
421
456
464
445
412
360
271
161
62
-8
-57
-96
-128
-146
-149
-150
-154
-152
-141
-138
-144
-139
-119
-111
-124
-134
-130
-121
-119
-128
-132
-118
-109
-123
-131
-122
-120
-126
-122
-116
-117
-119
-124
-130
-135
-144
-151
-137
-112
-92
-75
-62
-64
-77
-89
-90
-93
-103
-91
-73
-100
-106
-81
-78
255
1041
1251
293
-594
-458
-61
-31
-47
12
-12
-20
56
68
-5
-13
66
104
70
53
75
98
115
134
149
164
191
227
260
290
327
372
407
409
387
363
341
304
236
138
39
-34
-79
-106
-121
-142
-168
-175
-163
-153
-145
-138
-140
-140
-135
-131
-124
-110
-101
-106
-111
-107
-106
-108
-100
-94
-109
-120
-109
-102
-104
-105
-107
-114
-116
-113
-101
-76
-55
-54
-63
-79
-104
-117
-104
-104
-119
-106
-99
-124
-116
-124
-27
608
1336
907
-398
-916
-442
-110
-152
-131
-81
-116
-115
-76
-73
-77
-63
-51
-45
-39
-27
-3
16
23
35
64
99
132
172
223
273
313
347
382
399
387
361
321
238
113
1
-75
-134
-184
-215
-229
-235
-229
-218
-216
-224
-224
-208
-183
-172
-178
-175
-159
-151
-154
-154
-151
-142
-130
-128
-136
-139
-134
-129
-127
-122
-120
-120
-109
-85
-59
-32
-7
0
-9
-15
-18
-16
-8
-10
-1
22
8
3
31
7
277
1135
1572
653
-465
-452
34
93
11
62
68
51
89
97
77
90
107
102
103
115
123
132
152
173
185
199
229
270
307
338
374
413
436
439
435
426
381
289
180
88
12
-59
-114
-150
-177
-196
-200
-195
-202
-219
-225
-218
-208
-200
-199
-207
-208
-200
-193
-193
-199
-206
-206
-205
-212
-214
-203
-201
-213
-214
-206
-202
-201
-201
-212
-227
-227
-213
-190
-161
-139
-130
-128
-134
-151
-157
-146
-155
-157
-119
-118
-152
-131
-117
37
708
1304
725
-442
-708
-234
-47
-122
-82
-48
-80
-66
-40
-44
-34
-18
-16
-4
15
25
38
65
86
97
122
163
197
228
272
317
356
396
420
420
414
395
339
258
174
94
24
-27
-54
-68
-83
-98
-98
-89
-86
-83
-74
-69
-68
-66
-68
-71
-68
-71
-76
-68
-60
-67
-72
-66
-63
-67
-64
-63
-72
-75
-64
-58
-65
-73
-69
-61
-63
-69
-64
-60
-70
-84
-92
-91
-81
-66
-47
-22
-6
-11
-32
-56
-63
-51
-53
-57
-41
-53
-73
-64
-73
177
920
1306
504
-518
-552
-111
-21
-87
-52
-41
-53
-31
-26
-23
-2
-6
-20
-4
15
14
17
34
55
81
107
121
141
179
222
260
291
316
336
350
342
311
266
200
115
33
-32
-86
-131
-156
-157
-154
-163
-163
-147
-138
-148
-148
-136
-133
-138
-135
-126
-120
-116
-114
-118
-119
-113
-109
-110
-103
-92
-90
-94
-95
-96
-96
-89
-81
-80
-83
-78
-69
-66
-67
-69
-74
-78
-71
-61
-67
-79
-80
-88
-100
-91
-66
-43
-25
-12
-11
-19
-35
-43
-41
-50
-44
-17
-34
-55
-40
-54
194
929
1271
450
-511
-493
-72
-8
-71
-31
-22
-36
-17
-14
-19
-2
10
8
15
32
44
47
50
67
97
126
152
181
213
250
292
331
353
360
367
373
358
308
238
163
81
2
-52
-81
-103
-124
-133
-128
-121
-121
-120
-114
-112
-111
-108
-111
-117
-108
-100
-109
-113
-99
-92
-103
-110
-109
-108
-104
-98
-96
-102
-107
-100
-88
-95
-105
-94
-82
-90
-97
-86
-78
-85
-89
-85
-86
-84
-69
-68
-84
-84
-72
-79
-87
-81
-88
-98
-71
-37
-33
-29
-11
-25
-65
-72
-56
-61
-60
-52
-75
-64
-44
-42
363
1212
1314
151
-819
-612
-121
-55
-80
-26
-34
-45
-15
-14
-26
-14
4
14
19
25
41
60
73
89
113
137
161
195
236
269
306
353
386
399
406
407
389
346
269
167
75
5
-56
-105
-130
-138
-145
-151
-146
-132
-125
-127
-130
-130
-128
-123
-119
-118
-116
-109
-108
-112
-113
-109
-109
-118
-117
-105
-104
-114
-110
-96
-96
-104
-98
-88
-93
-94
-82
-80
-93
-98
-92
-86
-86
-92
-102
-104
-97
-78
-47
-20
-15
-27
-47
-58
-54
-59
-64
-40
-36
-66
-57
-69
21
654
1409
1054
-171
-677
-264
6
-61
-53
-10
-28
-9
14
1
8
24
20
29
51
61
71
85
90
103
136
168
188
212
250
291
330
367
389
387
375
359
318
241
146
56
-24
-88
-129
-154
-181
-204
-205
-190
-188
-198
-195
-181
-184
-199
-199
-191
-193
-197
-193
-198
-207
-195
-184
-198
-209
-197
-189
-197
-199
-196
-197
-185
-163
-153
-148
-145
-170
-186
-134
-93
-137
-152
-57
15
-17
-57
-56
-56
-64
-75
-92
-84
-60
-62
-73
-105
-14
544
1185
877
-167
-604
-254
-1
-31
-47
-51
-2
147
185
59
-11
23
53
68
76
74
96
132
146
158
187
216
240
276
315
347
377
404
423
434
435
417
371
294
198
106
34
-25
-74
-110
-130
-136
-137
-133
-123
-111
-100
-97
-100
-95
-84
-83
-91
-95
-96
-93
-86
-86
-86
-79
-80
-95
-101
-91
-91
-104
-108
-91
-71
-63
-58
-52
-62
-91
-117
-119
-110
-119
-128
-116
-129
-145
-118
-120
9
584
1054
523
-474
-715
-328
-123
-130
-93
-79
-103
-86
-65
-71
-65
-50
-45
-41
-36
-29
-16
-1
14
31
50
73
100
126
160
208
253
282
302
324
338
331
294
227
141
54
-20
-75
-112
-134
-146
-152
-148
-141
-142
-149
-148
-141
-139
-136
-132
-134
-139
-137
-129
-126
-133
-141
-139
-133
-137
-145
-131
-98
-76
-72
-69
-67
-80
-100
-107
-98
-98
-103
-87
-81
-101
-85
-87
-67
359
1024
905
-84
-674
-410
-77
-12
4
-23
-51
29
80
45
58
72
20
17
73
76
50
67
100
121
144
166
189
223
260
294
337
375
395
408
412
394
353
288
198
105
31
-23
-64
-98
-125
-137
-137
-138
-140
-139
-133
-125
-114
-108
-111
-118
-119
-114
-106
-105
-113
-114
-112
-121
-119
-89
-74
-88
-90
-77
-89
-119
-134
-129
-130
-137
-123
-111
-133
-131
-122
-111
213
819
838
-8
-663
-514
-184
-119
-113
-77
-86
-88
-63
-59
-64
-52
-42
-43
-40
-29
-14
4
18
25
45
82
111
131
168
215
251
281
310
322
322
320
298
234
142
48
