# session 38
-27
-7
-69
-21
230
430
420
360
355
342
313
301
287
265
251
242
233
219
197
175
156
138
133
147
162
171
171
150
118
104
97
75
72
79
51
42
34
23
401
1172
1243
198
-624
-408
-8
-3
-46
-5
-22
-36
-11
-10
-15
-5
-6
-10
-2
6
13
27
44
62
83
107
135
166
200
235
265
285
295
299
293
269
221
152
70
-9
-74
-122
-160
-185
-196
-199
-199
-196
-193
-191
-190
-188
-185
-183
-182
-180
-178
-176
-177
-180
-182
-182
-181
-182
-181
-177
-174
-176
-178
-175
-169
-168
-173
-179
-186
-192
-179
-149
-122
-103
-89
-91
-111
-115
-106
-114
-109
-86
-98
-103
-94
-116
177
942
1193
258
-693
-588
-120
-47
-94
-45
-40
-53
-24
-14
-19
-7
2
7
22
36
45
57
76
98
121
149
183
220
256
295
334
361
378
386
384
369
332
269
188
107
38
-17
-57
-80
-91
-97
-100
-99
-97
-97
-98
-97
-96
-96
-98
-98
-98
-99
-99
-99
-98
-101
-104
-104
-102
-101
-101
-102
-102
-100
-97
-94
-92
-94
-100
-106
-115
-117
-98
-68
-46
-29
-22
-42
-65
-62
-62
-73
-58
-57
-77
-59
-81
-10
584
1247
827
-347
-760
-305
-17
-61
-49
-11
-34
-25
2
-2
0
15
20
23
32
45
61
77
90
112
140
167
197
236
277
312
340
362
376
380
370
342
291
218
132
56
0
-46
-82
-102
-109
-113
-110
-104
-101
-101
-90
-74
-68
-83
-109
-122
-116
-111
-115
-120
-122
-127
-133
-136
-139
-143
-140
-139
-143
-143
-139
-140
-141
-135
-133
-133
-132
-132
-132
-132
-139
-142
-123
-93
-76
-65
-59
-75
-100
-102
-100
-110
-94
-83
-107
-92
-90
-87
371
1158
1052
-146
-884
-521
-81
-70
-83
-27
-40
-43
-10
-8
-8
9
16
18
29
41
52
67
86
105
126
155
191
227
263
304
342
366
381
390
386
369
337
282
204
122
56
2
-44
-72
-83
-86
-87
-87
-89
-88
-83
-79
-79
-79
-80
-82
-80
-79
-81
-85
-88
-91
-94
-101
-106
-105
-103
-107
-108
-101
-97
-103
-105
-104
-105
-102
-96
-97
-105
-106
-103
-109
-120
-116
-92
-66
-48
-33
-43
-75
-84
-72
-79
-76
-63
-84
-77
-65
-78
315
1171
1283
104
-887
-671
-151
-67
-87
-34
-43
-56
-30
-27
-30
-13
-6
-9
-1
16
29
37
47
73
104
127
154
193
235
277
317
347
368
382
386
376
342
277
188
95
14
-53
-107
-144
-159
-162
-166
-168
-164
-157
-152
-148
-144
-138
-130
-126
-126
-124
-120
-119
-121
-122
-120
-119
-121
-124
-119
-111
-108
-107
-102
-100
-105
-107
-104
-109
-113
-100
-76
-54
-32
-19
-35
-60
-59
-59
-70
-54
-43
-67
-49
-54
-39
501
1356
1181
-140
-906
-508
-58
-46
-51
-3
-25
-25
9
10
8
22
27
31
42
54
68
84
100
119
143
170
205
248
293
337
378
412
432
437
428
404
349
261
163
75
-4
-71
-114
-135
-149
-161
-167
-166
-161
-156
-152
-151
-152
-151
-148
-146
-149
-150
-152
-156
-159
-162
-166
-168
-169
-171
-173
-169
-165
-166
-165
-161
-157
-154
-152
-155
-157
-158
-165
-171
-156
-126
-101
-81
-67
-77
-104
-108
-101
-110
-101
-80
-98
-99
-85
-81
286
1078
1212
180
-692
-492
-60
-44
-87
-34
-39
-49
-16
-7
-11
3
12
18
31
42
50
65
83
105
130
159
192
228
267
308
349
382
403
416
418
403
363
297
211
126
56
2
-40
-70
-87
-94
-98
-101
-100
-96
-92
-90
-88
-86
-84
-84
-84
-85
-85
-87
-90
-92
-92
-92
-92
-92
-94
-98
-100
-99
-99
-98
-96
-95
-95
-93
-91
-95
-103
-110
-121
-125
-110
-83
-63
-47
-36
-48
-74
-79
-70
-78
-77
-62
-81
-88
-73
-86
204
950
1188
259
-678
-571
-114
-51
-101
-53
-52
-68
-42
-35
-40
-26
-16
-14
-4
7
17
33
51
68
91
119
149
182
223
268
311
347
371
385
388
377
344
282
198
109
35
-21
-63
-93
-111
-120
-124
-124
-124
-125
-123
-119
-119
-120
-118
-115
-115
-114
-111
-112
-113
-110
-106
-104
-100
-96
-98
-99
-95
-94
-95
-93
-90
-87
-84
-84
-86
-87
-85
-83
-80
-74
-71
-72
-72
-71
-71
-69
-64
-64
-65
-61
-58
-59
-63
-69
-78
-75
-54
-31
-16
3
17
-1
-28
-27
-32
-46
-29
-24
-47
-27
-34
55
658
1316
870
-334
-755
-297
-8
-52
-38
0
-23
-15
4
-5
0
13
12
18
33
39
45
65
88
102
119
150
184
217
257
300
337
370
395
404
404
393
359
298
215
122
32
-39
-88
-120
-136
-145
-152
-153
-148
-147
-147
-142
-139
-138
-133
-130
-133
-135
-133
-135
-134
-129
-134
-145
-144
-136
-137
-144
-146
-141
-132
-130
-135
-133
-129
-133
-135
-127
-126
-132
-134
-135
-134
-124
-105
-87
-67
-49
-52
-79
-90
-78
-84
-85
-59
-67
-82
-65
-84
185
1055
1532
556
-767
-874
-267
-41
-80
-37
-18
-37
-14
-4
-12
0
14
18
26
38
51
69
88
104
124
153
188
225
269
318
364
404
442
465
467
454
422
356
257
149
53
-27
-89
-127
-148
-160
-166
-166
-163
-158
-149
-140
-134
-129
-123
-117
-114
-117
-117
-112
-110
-114
-119
-122
-122
-121
-124
-126
-124
-122
-123
-123
-120
-117
-113
-108
-105
-106
-105
-99
-100
-107
-111
-114
-120
-116
-94
-68
-47
-26
-20
-41
-63
-59
-59
-74
-59
-51
-76
-65
-73
-4
590
1355
1044
-204
-772
-348
-22
-75
-76
-29
-50
-44
-16
-20
-16
1
5
10
22
31
41
56
71
91
117
146
180
219
260
305
350
387
410
422
419
397
349
272
179
88
11
-47
-88
-115
-132
-140
-139
-137
-136
-135
-133
-130
-128
-128
-129
-128
-127
-128
-129
-129
-131
-134
-135
-137
-139
-140
-138
-137
-136
-135
-134
-133
-131
-130
-129
-127
-124
-122
-119
-118
-119
-123
-127
-133
-141
-137
-117
-92
-71
-49
-38
-51
-77
-79
-69
-77
-72
-52
-67
-70
-54
-56
265
1027
1223
258
-646
-499
-55
-14
-60
-6
-7
-22
6
17
15
27
35
40
55
68
77
91
109
129
155
185
219
255
295
341
388
428
458
476
484
476
444
382
298
208
127
62
12
-23
-43
-49
-53
-57
-60
-67
-79
-95
-109
-119
-127
-136
-142
-144
-149
-161
-175
-187
-197
-206
-212
-216
-217
-216
-212
-206
-200
-193
-187
-181
-174
-170
-164
-156
-152
-151
-144
-133
-130
-133
-130
-121
-111
-106
-104
-101
-100
-105
-111
-115
-119
-109
-80
-54
-39
-21
-13
-35
-57
-53
-56
-57
-35
-44
-63
-36
-45
120
819
1341
630
-559
-745
-212
2
-58
-20
13
-10
2
18
13
21
34
38
39
42
53
76
96
106
120
145
175
206
245
294
341
380
413
438
451
456
443
398
323
225
125
41
-26
-79
-111
-125
-136
-145
-144
-139
-136
-131
-123
-122
-119
-104
-96
-106
-114
-108
-104
-109
-108
-100
-105
-118
-117
-107
-110
-119
-115
-108
-108
-106
-101
-102
-106
-110
-115
-118
-113
-107
-106
-99
-77
-50
-34
-38
-65
-87
-80
-73
-75
-56
-64
-91
-64
-65
80
838
1567
891
-629
-1092
-471
-82
-102
-61
-17
-52
-41
-14
-22
-17
-1
1
4
15
26
42
61
76
96
128
164
198
238
287
343
398
440
459
470
477
451
373
265
146
29
-69
-139
-187
-220
-241
-248
-243
-244
-249
-231
-205
-206
-215
-204
-190
-193
-198
-194
-190
-191
-194
-189
-182
-185
-185
-170
-166
-178
-173
-152
-141
-141
-144
-148
-145
-134
-129
-122
-102
-71
-41
-19
-12
-26
-41
-33
-24
-35
-18
10
-12
-7
10
27
510
1414
1383
12
-954
-581
-23
8
-23
41
25
12
45
46
39
52
53
51
60
66
73
88
103
119
141
170
206
250
300
354
408
454
484
498
495
465
401
303
187
76
-16
-82
-128
-159
-176
-183
-185
-185
-179
-170
-162
-157
-153
-149
-146
-145
-143
-141
-142
-145
-147
-148
-151
-155
-159
-159
-160
-165
-165
-162
-168
-177
-179
-181
-184
-181
-165
-135
-101
-89
-102
-122
-131
-119
-112
-124
-112
-92
-121
-118
-80
-24
435
1217
1145
-24
-758
-409
-28
-80
-107
-46
-64
-65
-29
-31
-34
-16
-8
-2
14
26
37
54
75
98
124
154
190
230
273
322
370
408
433
442
429
393
332
247
148
58
-13
-63
-101
-124
-134
-138
-140
-141
-143
-141
-137
-137
-138
-137
-135
-134
-135
-136
-135
-132
-128
-125
-123
-120
-119
-122
-122
-118
-119
-123
-121
-116
-117
-122
-127
-135
-140
-133
-121
-105
-75
-48
-47
-68
-85
-82
-74
-85
-80
-62
-81
-81
-59
-46
344
1177
1312
192
-757
-534
-55
-37
-88
-28
-34
-49
-20
-16
-21
-5
3
6
20
30
39
56
76
95
121
152
183
218
261
310
354
392
419
432
430
411
364
287
192
97
17
-42
-82
-109
-125
-132
-133
-130
-128
-125
-122
-120
-119
-120
-121
-123
-123
-123
-124
-125
-125
-124
-122
-122
-125
-128
-127
-126
-125
-123
-121
-120
-118
-115
-112
-110
-108
-105
-107
-114
-118
-123
-128
-120
-100
-76
-50
-33
-39
-66
-80
-70
-72
-83
-65
-59
-80
-63
-74
16
647
1357
912
-358
-811
-318
-13
-78
-69
-25
-52
-44
-18
-23
-18
-1
3
9
19
27
40
60
79
99
125
155
187
223
263
305
345
374
392
401
399
376
326
254
167
81
12
-39
-76
-100
-112
-116
-114
-111
-109
-107
-107
-111
-114
-114
-116
-121
-121
-121
-123
-124
-123
-124
-126
-125
-123
-123
-123
-121
-119
-117
-116
-116
-115
-113
-111
-110
-110
-109
-106
-107
-111
-116
-123
-131
-123
-99
-74
-52
-31
-30
-56
-75
-67
-65
-74
-56
-51
-74
-57
-68
-31
516
1267
982
-257
-844
-405
-30
-57
-63
-18
-38
-35
-7
-10
-6
11
16
21
32
42
53
68
85
105
130
161
193
226
264
304
342
373
392
400
400
386
348
282
198
113
37
-23
-65
-92
-104
-107
-108
-109
-108
-107
-108
-106
-105
-106
-105
-103
-104
-107
-108
-110
-112
-113
-111
-109
-110
-115
-119
-116
-111
-110
-112
-111
-106
-104
-108
-114
-117
-120
-126
-128
-117
-93
-65
-48
-44
-55
-80
-97
-89
-85
-87
-70
-81
-104
-69
-77
10
639
1273
697
-603
-962
-383
-45
-85
-62
-23
-51
-34
0
-10
-13
2
11
21
31
36
48
70
89
103
131
167
197
229
268
312
356
390
407
415
418
404
362
294
202
103
18
-43
-86
-116
-133
-138
-135
-130
-130
-132
-126
-119
-119
-120
-119
-120
-118
-113
-109
-116
-124
-121
-116
-120
-123
-113
-107
-116
-130
-128
-105
-97
-104
-68
-18
-35
-68
-63
-78
-108
-111
-109
-101
-99
-128
-107
-73
-49
440
1315
1158
-390
-1446
-1018
-341
-230
-245
-186
-191
-187
-145
-137
-131
-101
-78
-55
-18
17
45
73
102
133
168
210
255
303
353
404
454
498
527
539
537
519
477
398
291
177
80
9
-43
-77
-95
-100
-99
-96
-92
-89
-87
-84
-81
-80
-81
-82
-84
-88
-90
-92
-100
-110
-114
-117
-120
-122
-126
-131
-132
-134
-140
-147
-155
-160
-155
-137
-112
-82
-60
-60
-80
-101
-99
-88
-96
-93
-72
-90
-102
-82
-89
211
1030
1350
361
-712
-630
-118
-46
-111
-55
-49
-68
-37
-26
-33
-18
-7
-5
7
19
28
45
65
84
106
133
167
208
250
293
337
375
400
410
405
381
333
257
162
65
-15
-75
-119
-150
-167
-173
-173
-170
-168
-166
-164
-162
-162
-162
-162
-162
-164
-164
-164
-163
-163
-164
-163
-162
-160
-157
-159
-167
-171
-172
-173
-166
-147
-122
-93
-74
-78
-96
-109
-109
-100
-105
-107
-84
-87
-104
-80
-87
73
772
1327
640
-574
-775
-223
-9
-87
-51
-18
-45
-26
-1
-4
7
24
29
40
53
61
70
86
108
133
159
188
226
268
311
354
394
422
435
434
417
374
302
209
114
33
-31
-78
-108
-125
-131
-133
-131
-129
-127
-123
-120
-120
-120
-120
-121
-123
-124
-125
-124
-124
-126
-127
-127
-127
-129
-130
-127
-126
-130
-134
-136
-142
-149
-142
-121
-97
-71
-53
-56
-79
-97
-92
-84
-96
-89
-69
-89
-89
-67
-76
240
1010
1182
147
-790
-596
-99
-49
-99
-43
-47
-65
-34
-26
-30
-14
-4
-1
11
21
29
44
64
85
109
136
166
201
241
284
325
356
378
392
393
377
339
273
186
97
21
-39
-81
-107
-120
-128
-130
-127
-123
-122
-119
-117
-118
-120
-120
-119
-120
-122
-123
-123
-122
-121
-120
-117
-115
-114
-113
-110
-108
-106
-104
-100
-98
-100
-103
-107
-112
-116
-106
-83
-57
-37
-23
-21
-38
-59
-57
-48
-58
-53
-36
-53
-51
-35
-59
242
1008
1210
207
-742
-582
-84
-12
-58
-6
-4
-20
6
14
9
18
24
28
41
51
55
63
79
100
122
147
177
208
238
274
315
346
362
369
370
357
324
267
188
98
16
-48
-98
-133
-150
-157
-159
-156
-152
-149
-146
-145
-144
-142
-143
-145
-144
-144
-145
-143
-143
-147
-148
-145
-144
-147
-143
-137
-137
-141
-140
-142
-150
-154
-154
-156
-149
-126
-100
-81
-73
-76
-94
-113
-109
-102
-117
-110
-88
-112
-108
-77
-87
266
1117
1292
116
-958
-765
-184
-67
-96
-36
-31
-44
-19
-14
-17
3
17
23
38
53
66
83
100
118
145
176
210
250
289
325
370
413
438
444
444
433
402
338
245
147
63
