# session 19
-6
41
-93
-9
523
984
987
855
846
826
758
727
705
662
631
609
577
547
520
488
458
438
417
388
363
345
321
293
274
259
236
211
192
181
168
145
114
90
82
73
44
17
17
16
8
26
47
22
-10
-23
-50
-65
-53
-76
-92
-90
-72
401
1375
1499
99
-1158
-995
-385
-256
-277
-214
-211
-220
-196
-200
-201
-175
-164
-160
-141
-117
-89
-50
-7
48
124
218
322
423
511
564
569
531
464
364
242
124
20
-73
-155
-216
-253
-275
-289
-293
-287
-283
-278
-266
-255
-251
-248
-243
-240
-239
-237
-238
-240
-242
-242
-240
-239
-241
-243
-241
-236
-232
-239
-252
-257
-256
-256
-250
-228
-202
-173
-134
-111
-129
-148
-140
-142
-146
-119
-123
-147
-135
-152
65
904
1538
762
-608
-907
-380
-147
-195
-149
-111
-126
-100
-75
-73
-55
-35
-24
0
34
67
103
150
213
291
383
491
607
706
765
778
751
681
567
432
302
188
92
19
-35
-73
-94
-103
-106
-103
-97
-91
-87
-86
-83
-78
-79
-83
-82
-82
-88
-92
-91
-92
-95
-96
-99
-101
-101
-102
-103
-103
-114
-128
-137
-149
-157
-144
-117
-91
-57
-29
-39
-69
-73
-70
-84
-73
-58
-86
-91
-95
-64
448
1306
1236
-29
-892
-599
-166
-154
-169
-108
-117
-119
-88
-89
-92
-68
-49
-38
-17
8
36
75
128
192
264
353
460
556
615
641
644
606
518
402
285
176
81
2
-63
-116
-151
-163
-159
-153
-152
-155
-159
-161
-155
-148
-147
-149
-151
-152
-156
-164
-166
-160
-158
-166
-174
-176
-175
-176
-180
-179
-174
-173
-175
-177
-185
-189
-189
-193
-192
-173
-150
-126
-95
-78
-95
-115
-118
-127
-126
-102
-113
-131
-110
-123
94
917
1521
698
-754
-1117
-549
-211
-195
-142
-111
-129
-102
-75
-78
-67
-48
-29
0
29
54
94
148
205
269
358
470
580
666
721
740
715
653
564
451
323
202
100
10
-61
-105
-132
-148
-150
-148
-148
-142
-128
-121
-127
-136
-139
-135
-129
-137
-153
-156
-146
-152
-169
-172
-166
-176
-189
-186
-177
-177
-180
-180
-180
-179
-187
-196
-189
-171
-155
-128
-87
-72
-99
-118
-108
-116
-125
-98
-96
-113
-88
-92
144
1031
1697
797
-823
-1235
-578
-175
-164
-117
-77
-92
-66
-39
-35
-14
2
2
28
73
104
135
187
253
318
398
506
623
711
756
766
740
670
564
447
330
214
107
28
-20
-60
-92
-98
-91
-95
-99
-93
-88
-93
-97
-95
-96
-100
-108
-116
-118
-120
-132
-144
-149
-159
-176
-185
-180
-181
-192
-198
-199
-208
-218
-224
-234
-245
-243
-226
-207
-181
-148
-144
-177
-197
-182
-186
-199
-183
-187
-205
-199
-218
46
925
1464
543
-815
-996
-433
-228
-277
-225
-197
-215
-185
-157
-149
-128
-114
-109
-81
-42
-7
29
76
139
221
318
418
513
592
644
658
628
567
480
369
258
167
91
21
-29
-54
-62
-63
-65
-63
-52
-41
-40
-40
-33
-30
-33
-31
-28
-29
-30
-30
-34
-37
-37
-41
-47
-48
-48
-53
-56
-57
-60
-60
-55
-54
-55
-53
-53
-56
-56
-52
-48
-45
-45
-45
-45
-45
-44
-44
-46
-47
-46
-48
-53
-55
-53
-50
-53
-57
-57
-53
-51
-53
-56
-56
-56
-57
-58
-58
-58
-64
-77
-90
-87
-66
-48
-40
-21
11
12
-26
-44
-42
-57
-52
-35
-63
-75
-80
-61
429
1315
1328
105
-798
-564
-160
-157
-178
-119
-122
-123
-99
-102
-100
-78
-63
-47
-23
0
27
64
111
168
234
305
379
457
529
579
592
570
529
475
398
308
222
142
59
-6
-41
-60
-78
-94
-103
-105
-104
-101
-98
-99
-104
-107
-102
-99
-102
-107
-112
-116
-115
-113
-120
-131
-128
-122
-125
-125
-118
-122
-131
-125
-113
-114
-123
-121
-109
-98
-94
-93
-98
-101
-91
-77
-78
-88
-90
-86
-78
-69
-66
-65
-60
-58
-66
-69
-59
-53
-51
-47
-44
-44
-44
-46
-43
-35
-35
-41
-35
-25
-27
-30
-23
-26
-38
-31
-16
-25
-39
-26
-11
-30
-49
-33
-12
-18
-28
-27
-25
-29
-33
-33
-27
-24
-30
-34
-37
-45
-39
-4
23
26
36
51
29
-13
-30
-36
-44
-31
-33
-53
-34
-45
108
906
1743
1157
-477
-1198
-693
-222
-163
-123
-87
-115
-102
-70
-66
-51
-33
-23
2
29
43
74
128
180
233
297
373
468
575
659
703
712
693
649
582
488
377
266
164
76
-1
-61
-90
-102
-126
-146
-136
-120
-124
-129
-123
-122
-129
-130
-125
-125
-134
-145
-145
-143
-152
-164
-167
-171
-176
-176
-174
-173
-172
-174
-177
-176
-174
-175
-169
-162
-164
-167
-159
-152
-154
-154
-145
-137
-137
-140
-138
-132
-127
-126
-125
-123
-121
-121
-118
-114
-116
-124
-127
-130
-138
-134
-114
-87
-56
-29
-34
-54
-56
-62
-72
-46
-43
-81
-75
-69
120
912
1634
974
-489
-961
-439
-126
-163
-130
-86
-107
-93
-73
-76
-60
-38
-27
-7
18
38
70
115
163
223
300
390
492
596
676
719
729
706
637
528
401
280
172
81
6
-54
-96
-121
-133
-135
-132
-133
-132
-127
-127
-133
-131
-121
-120
-127
-127
-125
-129
-135
-137
-138
-141
-149
-157
-156
-152
-153
-155
-155
-155
-153
-153
-161
-167
-170
-181
-191
-177
-146
-121
-89
-62
-74
-105
-104
-99
-109
-94
-84
-111
-109
-114
14
692
1430
976
-355
-897
-453
-136
-175
-159
-111
-129
-117
-88
-86
-76
-58
-50
-30
-1
20
46
87
135
192
269
366
473
578
659
703
707
670
592
480
351
225
114
20
-55
-107
-139
-162
-171
-166
-163
-170
-169
-160
-158
-159
-154
-153
-163
-168
-161
-159
-164
-168
-168
-169
-172
-176
-174
-166
-166
-175
-179
-181
-187
-189
-191
-205
-214
-193
-157
-127
-100
-92
-117
-137
-129
-126
-123
-113
-129
-132
-124
-133
228
1122
1427
309
-943
-966
-401
-200
-201
-147
-137
-140
-109
-107
-108
-81
-67
-60
-27
9
33
70
123
177
244
333
434
542
652
737
771
755
702
611
481
334
203
99
17
-53
-112
-148
-160
-160
-160
-157
-146
-132
-123
-127
-133
-125
-112
-112
-117
-114
-114
-127
-132
-132
-137
-133
-119
-126
-150
-151
-137
-142
-152
-139
-118
-110
-94
-56
-35
-58
-82
-71
-68
-74
-49
-49
-75
-50
-31
206
1090
1807
933
-773
-1271
-600
-159
-143
-89
-41
-70
-55
-23
-21
-15
-1
13
39
72
101
130
171
226
298
383
483
593
696
766
785
762
706
609
473
326
185
58
-43
-120
-182
-223
-243
-253
-257
-255
-254
-257
-258
-259
-266
-272
-273
-276
-283
-292
-297
-303
-314
-323
-327
-329
-334
-336
-339
-345
-352
-362
-370
-360
-339
-322
-301
-259
-228
-241
-262
-256
-252
-254
-227
-219
-241
-216
-208
-70
667
1478
964
-535
-1143
-610
-201
-216
-187
-127
-142
-122
-77
-68
-54
-28
-13
10
49
83
113
158
219
292
374
467
573
678
755
788
784
746
670
561
440
327
232
153
88
41
14
2
-3
-2
2
5
6
8
10
9
7
7
4
-2
-8
-15
-24
-27
-29
-40
-49
-49
-54
-64
-70
-72
-77
-79
-80
-86
-92
-91
-89
-98
-114
-128
-139
-141
-128
-103
-78
-51
-35
-54
-90
-95
-95
-114
-104
-88
-117
-121
-126
-63
523
1368
1163
-142
-884
-533
-173
-210
-217
-160
-176
-174
-141
-137
-133
-117
-106
-87
-62
-40
-15
18
61
118
188
266
353
438
509
554
562
535
481
401
296
190
99
20
-48
-96
-122
-139
-149
-147
-141
-139
-137
-129
-121
-118
-115
-111
-111
-115
-112
-105
-104
-110
-113
-115
-115
-113
-113
-114
-114
-112
-113
-115
-113
-106
-100
-98
-98
-94
-86
-77
-74
-73
-68
-65
-68
-67
-58
-48
-47
-51
-49
-39
-35
-42
-45
-39
-39
-42
-33
-22
-23
-27
-19
-14
-20
-23
-14
-5
-4
-6
-5
-2
2
6
7
2
-1
3
5
4
4
6
8
8
4
-4
-9
-9
-2
2
-7
-19
-14
-3
-10
-26
-27
-14
-12
-26
-30
-22
-25
-35
-37
-39
-33
1
31
28
25
32
13
-20
-27
-37
-48
-22
-20
-62
-60
-57
152
1006
1770
1022
-608
-1158
-583
-193
-193
-143
-94
-128
-129
-99
-88
-80
-68
-55
-30
-2
24
52
86
136
201
259
321
409
504
580
638
669
657
619
568
491
389
289
198
111
40
-7
-44
-79
-98
-101
-106
-111
-108
-105
-103
-94
-90
-97
-98
-98
-107
-109
-104
-114
-131
-136
-140
-153
-159
-155
-159
-166
-166
-162
-157
-156
-159
-154
-144
-142
-143
-136
-131
-135
-135
-130
-126
-121
-114
-110
-110
-110
-108
-102
-99
-99
-96
-90
-91
-96
-92
-80
-74
-78
-80
-79
-79
-78
-73
-73
-73
-67
-62
-67
-69
-65
-63
-59
-51
-48
-51
-51
-50
-52
-53
-52
-50
-50
-57
-68
-70
-55
-30
-3
13
20
29
25
-1
-16
-27
-49
-36
-13
-48
-59
-49
-4
543
1482
1441
81
-882
-598
-146
-137
-148
-80
-90
-94
-59
-54
-52
-32
-19
-11
5
29
60
92
127
178
243
315
396
491
585
657
700
706
676
617
532
426
316
215
126
47
-18
-65
-94
-111
-120
-124
-124
-119
-112
-110
-109
-104
-102
-105
-104
-98
-97
-103
-110
-114
-117
-119
-120
-120
-121
-128
-135
-134
-132
-135
-136
-132
-131
-132
-128
-122
-118
-116
-116
-113
-107
-103
-103
-103
-103
-104
-104
-103
-101
-100
-98
-93
-90
-89
-86
-85
-87
-85
-83
-84
-83
-80
-80
-79
-74
-70
-70
-69
-68
-68
-67
-66
-67
-68
-65
-62
-62
-65
-66
-66
-73
-82
-73
-42
-13
-6
-5
7
11
-8
-25
-34
-53
-49
-30
-52
-62
-53
-40
374
1241
1403
285
-724
-602
-171
-127
-151
-95
-103
-107
-68
-63
-68
-46
-32
-23
0
24
44
70
108
156
214
279
348
428
525
621
683
700
684
639
562
464
359
250
145
50
-26
-78
-106
-123
-134
-138
-136
-130
-127
-127
-123
-117
-115
-113
-106
-105
-113
-119
-120
-122
-126
-127
-126
-125
-128
-133
-136
-131
-124
-130
-144
-145
-130
-118
-120
-118
-113
-116
-119
-109
-103
-104
-96
-92
-103
-103
-88
-88
-95
-85
-75
-88
-99
-88
-77
-79
-80
-78
-75
-62
-55
-67
-76
-68
-65
-78
-85
-67
-30
-1
1
-1
6
-7
-39
-45
-42
-66
-70
-56
-85
-84
-46
-12
469
1486
1666
245
-1114
-1016
-375
-184
-178
-117
-118
-120
-81
-81
-90
-56
-25
-16
-4
17
41
71
111
160
217
288
381
492
607
715
793
819
795
735
637
505
364
227
98
-5
-77
-137
-183
-203
-209
-219
-221
-210
-202
-200
-193
-187
-187
-183
-174
-173
-175
-175
-179
-187
-193
-200
-209
-207
-197
-198
-211
-222
-218
-208
-205
-208
-208
-205
-206
-211
-209
-205
-212
-218
-201
-178
-159
-124
-98
-120
-147
-138
-133
-136
-117
-124
-139
-128
-122
221
1143
1562
463
-920
-1008
-389
-171
-197
-136
-116
-129
-89
-65
-67
-47
-24
-16
2
29
56
89
133
182
237
313
420
542
662
764
832
853
828
764
657
511
362
236
132
41
-25
-66
-92
-110
-116
-115
-115
-112
-102
-95
-98
-103
-101
-93
-92
-99
-102
-99
-97
-103
-110
-115
-121
-128
-133
-143
-158
-173
-185
-202
-211
-198
-174
-153
-126
-107
-125
-152
-151
-154
-163
-142
-140
-172
-166
-180
-45
690
1446
908
-492
-1006
-525
-209
-246
-222
-180
-200
-181
-148
-149
-139
-119
-111
-96
-69
-43
-13
24
65
121
199
292
395
507
609
677
707
697
641
542
419
290
172
74
-5
-66
-103
-119
-129
-139
-142
-135
-127
-122
-118
-115
-113
-108
-101
-97
-98
-100
-102
-102
-101
-101
-104
-106
-106
-105
-106
-106
-112
-124
-136
-143
-156
-163
-149
-124
-102
-76
-58
-78
-110
-114
-118
-133
-120
-116
-148
-147
-158
-72
551
1319
958
-371
-1002
-585
-225
-253
-254
-208
-225
-220
-192
-189
-178
-160
-154
-145
-124
-101
-74
-38
7
59
124
205
302
406
503
571
600
594
552
472
363
243
131
36
-39
-98
-142
-165
-170
-169
-167
-158
-144
-133
-127
-119
-105
-96
-93
-81
-69
-71
-71
-60
-53
-57
-60
-54
-44
-39
-46
-51
-43
-33
-34
-33
-23
-22
-34
-32
-15
-8
-16
-23
-31
-41
-33
-11
2
16
45
60
36
13
24
27
10
16
11
-18
-2
-4
123
872
1715
1182
-437
-1170
-651
-174
-140
-113
-67
-92
-87
-59
-58
-52
-40
-33
-19
-1
22
54
87
130
191
258
327
419
528
625
688
709
699
662
587
472
340
211
94
-2
-76
-131
-165
-178
-179
-182
-181
-174
-170
-172
-171
-166
-160
-154
-153
-156
-155
-150
-155
-166
-176
-185
-188
-184
-186
-193
-194
-190
-191
-190
-184
-183
-186
-182
-171
-164
-159
-153
-150
-152
-149
-140
-135
-137
-135
-127
-119
-118
-117
-115
-114
-110
-102
-99
-101
-100
-95
-92
-92
-90
-83
-81
-82
-79
-78
-89
-99
-91
-76
-67
-54
-23
6
1
-27
-34
-34
-47
-36
-25
-59
-61
-48
20
601
1491
1334
-47
-920
-578
-140
-141
-151
-89
-101
-103
-73
-70
-67
-47
-38
-32
-15
9
37
69
105
154
211
274
351
441
530
602
645
655
638
593
520
423
317
215
126
51
-8
-53
-84
-97
-100
-102
-106
-107
-101
-95
-95
-96
-93
-93
-97
-96
-94
-96
-97
-98
-100
-101
-106
-110
-110
-109
-110
-112
-112
-111
-108
-105
-101
-98
-95
-91
-84
-78
-72
-67
-64
-58
-53
-54
-56
-52
-45
-43
-40
-34
-30
-28
-24
-20
-18
-14
-11
-9
-6
0
4
6
6
7
7
