# session 28
-34
-67
61
-40
-545
-945
-940
-845
-854
-837
-787
-775
-763
-732
-715
-703
-684
-662
-643
-629
-615
-604
-596
-567
-511
-465
-444
-423
-400
-396
-397
-381
-367
-361
-329
-308
-316
-276
-265
-235
326
1199
1041
-267
-1045
-670
-212
-167
-154
-97
-104
-95
-61
-51
-39
-12
7
20
34
53
84
113
135
165
206
252
303
356
407
461
509
540
556
560
551
528
470
369
263
185
118
57
23
13
3
-7
-7
-2
0
6
11
7
4
8
9
4
-6
-18
-27
-32
-41
-52
-54
-57
-62
-55
-37
-26
-19
-20
-45
-67
-56
-59
-79
-60
-57
-89
-54
-55
27
797
1758
1280
-389
-1145
-608
-145
-134
-106
-59
-85
-72
-44
-50
-44
-35
-37
-24
-5
1
11
36
61
85
119
165
216
266
319
371
409
431
442
434
404
352
272
170
68
-16
-81
-125
-151
-165
-171
-172
-171
-169
-163
-161
-162
-158
-156
-164
-166
-159
-164
-176
-180
-182
-196
-213
-224
-228
-223
-213
-195
-170
-152
-157
-184
-199
-190
-195
-203
-176
-173
-197
-179
-206
-62
765
1579
924
-628
-1132
-550
-188
-220
-184
-134
-162
-153
-119
-114
-109
-99
-89
-77
-66
-49
-22
2
24
59
95
131
184
249
303
348
392
424
433
428
408
359
277
184
105
38
-19
-61
-83
-89
-85
-83
-84
-78
-67
-62
-60
-54
-51
-56
-60
-61
-62
-67
-78
-88
-94
-103
-115
-120
-115
-98
-71
-46
-40
-58
-85
-92
-83
-92
-90
-69
-86
-95
-87
-126
173
1083
1511
494
-742
-764
-213
-76
-130
-78
-66
-88
-64
-51
-54
-43
-37
-38
-28
-14
2
21
41
62
88
118
158
208
261
313
357
384
398
409
406
374
310
226
140
62
2
-41
-76
-100
-107
-104
-103
-104
-103
-97
-94
-98
-97
-85
-77
-84
-93
-97
-101
-107
-114
-122
-127
-138
-154
-157
-138
-109
-84
-70
-72
-92
-118
-123
-111
-114
-110
-95
-119
-122
-92
-137
88
920
1381
467
-736
-801
-268
-108
-147
-97
-93
-120
-89
-68
-74
-74
-79
-77
-52
-32
-32
-29
-8
21
49
76
110
153
202
240
270
303
331
329
307
282
240
169
86
7
-61
-104
-131
-156
-171
-175
-177
-176
-170
-163
-158
-159
-161
-152
-147
-158
-163
-155
-152
-162
-172
-172
-168
-173
-188
-196
-196
-189
-170
-144
-124
-107
-93
-89
-107
-144
-159
-135
-121
-116
-87
-79
-82
-71
-109
104
885
1365
553
-606
-710
-172
40
0
15
31
43
74
69
56
80
104
105
101
111
143
176
195
215
249
288
326
355
377
410
457
494
506
508
507
498
456
378
294
228
161
86
35
16
3
-20
-40
-58
-73
-77
-83
-102
-112
-106
-113
-136
-155
-170
-173
-164
-164
-176
-186
-200
-219
-214
-198
-208
-222
-207
-180
-164
-146
-128
-134
-158
-169
-160
-169
-189
-168
-150
-178
-160
-133
-130
248
958
923
-123
-833
-556
-145
-91
-89
-48
-58
-51
-24
-33
-40
-19
3
19
18
-10
-22
5
39
54
60
76
106
139
183
244
281
276
280
316
346
341
295
215
128
48
-24
-83
-131
-165
-170
-159
-159
-167
-176
-196
-217
-223
-226
-241
-259
-271
-273
-269
-270
-273
-270
-265
-263
-259
-252
-240
-215
-180
-148
-126
-113
-114
-135
-146
-138
-142
-140
-116
-127
-136
-97
-114
108
970
1548
635
-796
-1039
-434
-130
-113
-43
-10
-22
5
28
30
40
50
53
54
60
94
139
163
185
216
246
283
335
382
425
479
533
565
580
591
579
520
442
372
290
195
121
71
39
36
47
42
34
44
54
48
44
47
44
30
14
5
2
-8
-32
-57
-76
-90
-94
-91
-86
-78
-76
-89
-118
-151
-158
-148
-174
-204
-185
-185
-203
-187
-218
-28
818
1498
733
-698
-1061
-526
-243
-262
-217
-185
-204
-187
-176
-191
-186
-169
-160
-152
-145
-136
-119
-91
-59
-30
-5
32
87
144
196
244
283
309
322
316
290
241
163
71
-12
-78
-131
-168
-187
-201
-206
-196
-186
-186
-179
-167
-165
-163
-153
-152
-157
-148
-139
-151
-164
-161
-164
-184
-193
-173
-145
-133
-125
-111
-108
-125
-142
-140
-141
-141
-115
-114
-139
-113
-124
-93
489
1324
1093
-189
-877
-498
-105
-92
-79
-23
-31
-29
-5
-3
-5
-2
2
20
41
51
64
86
110
134
164
206
255
301
347
399
440
464
480
485
469
426
354
263
177
112
60
15
-15
-30
-44
-53
-54
-55
-60
-57
-46
-39
-37
-37
-43
-51
-54
-54
-64
-80
-89
-92
-104
-110
-93
-71
-62
-58
-56
-70
-98
-111
-106
-121
-138
-116
-114
-150
-137
-153
-102
517
1324
982
-356
-981
-548
-177
-193
-180
-132
-155
-154
-130
-134
-134
-122
-116
-101
-83
-72
-56
-27
1
31
69
109
149
198
261
320
356
376
391
398
384
339
264
169
76
-1
-60
-99
-124
-143
-154
-152
-151
-154
-147
-137
-138
-139
-131
-122
-116
-110
-114
-132
-142
-129
-118
-137
-152
-136
-118
-110
-94
-71
-67
-91
-112
-102
-96
-110
-97
-94
-124
-106
-118
-41
660
1535
1113
-388
-1064
-573
-151
-140
-122
-87
-94
-52
-19
-49
-68
-52
-27
-6
1
8
43
81
91
106
155
201
223
269
345
390
397
408
421
414
391
344
259
160
78
5
-62
-109
-127
-126
-131
-147
-164
-182
-188
-165
-159
-190
-191
-151
-135
-141
-139
-154
-180
-185
-170
-153
-153
-173
-188
-184
-161
-111
-77
-102
-137
-121
-98
-121
-141
-122
-126
-129
-91
-156
-102
643
1476
1020
-269
-704
-264
-44
-114
-80
-47
-73
-31
-4
-54
-45
12
-18
-62
-13
28
22
54
85
60
59
119
188
235
252
278
334
348
308
294
281
222
189
170
59
-69
-79
-45
-76
-115
-108
-98
-102
-85
-63
-73
-92
-83
-60
-51
-57
-62
-58
-64
-89
-93
-67
-67
-91
-89
-98
-143
-149
-91
-53
-68
-80
-58
-42
-61
-87
-94
-88
-70
-71
-91
-94
-169
-149
502
1366
1103
-109
-658
-297
-58
-133
-122
-58
-60
-64
-53
-52
-61
-74
-63
-27
-17
-30
-8
37
45
30
42
85
135
172
197
230
277
307
306
290
267
238
183
87
-12
-52
-50
-72
-113
-118
-104
-109
-117
-112
-112
-114
-105
-101
-101
-98
-106
-122
-127
-134
-147
-136
-102
-90
-105
-117
-123
-123
-104
-96
-129
-146
-108
-90
-107
-78
-25
-27
-42
-31
-48
-72
-52
-30
-36
-62
-91
-83
-131
-181
309
1240
1306
195
-584
-347
-40
-107
-119
-25
-30
-72
-76
-71
-50
-29
-34
-30
-6
4
3
19
40
55
73
97
125
161
198
223
243
267
276
264
251
235
186
110
47
-6
-57
-79
-91
-134
-167
-144
-119
-123
-113
-95
-110
-127
-107
-84
-83
-81
-73
-78
-87
-82
-69
-59
-59
-78
-106
-105
-81
-82
-104
-104
-93
-100
-128
-152
-145
-121
-110
-95
-63
-54
-83
-102
-91
-86
-94
-66
-41
-73
-73
-72
-176
74
980
1453
601
-440
-458
-62
-37
-122
-62
-28
-50
-35
-4
3
-2
3
23
35
29
38
69
88
95
127
170
186
191
230
293
332
342
341
331
322
325
301
227
149
96
46
3
-19
-37
-52
-50
-45
-55
-58
-51
-58
-58
-34
-21
-35
-45
-54
-64
-61
-57
-73
-82
-66
-59
-86
-108
-92
-81
-104
-119
-117
-128
-129
-106
-94
-83
-65
-78
-108
-104
-96
-130
-153
-136
-129
-116
-141
-279
-104
745
1306
570
-520
-655
-249
-129
-180
-168
-190
-221
-182
-140
-147
-163
-155
-128
-110
-121
-136
-115
-75
-52
-41
-16
20
55
89
121
146
174
204
215
205
188
146
66
-9
-52
-96
-152
-179
-169
-163
-166
-150
-133
-142
-139
-106
-90
-96
-89
-71
-65
-63
-53
-44
-52
-56
-36
-19
-35
-52
-41
-24
-17
-14
-18
-33
-35
-16
-1
15
45
61
54
54
66
51
19
29
75
60
16
40
-14
-38
561
1427
1219
61
-501
-194
46
17
34
53
8
18
67
63
41
58
74
58
55
81
93
96
120
141
141
160
205
238
254
286
342
372
338
289
263
237
197
144
83
46
15
-61
-133
-140
-126
-116
-97
-100
-124
-111
-76
-80
-106
-102
-72
-67
-104
-127
-94
-59
-87
-134
-114
-54
-54
-85
-52
-25
-108
-201
-189
-130
-92
-76
-87
-92
-67
-71
-100
-93
-91
-103
-74
-75
-111
-128
-222
-136
582
1250
786
-237
-548
-278
-162
-193
-170
-166
-196
-195
-161
-145
-194
-229
-157
-102
-163
-196
-156
-160
-159
-77
-50
-100
-65
8
-6
-11
50
57
30
70
83
-7
-84
-119
-205
-295
-301
-299
-361
-410
-382
-341
-346
-362
-359
-336
-293
-253
-221
-174
-172
-243
-252
-165
-142
-204
-214
-170
-146
-109
-31
31
58
97
158
219
275
325
357
364
375
422
457
436
442
505
522
490
433
353
614
1340
1573
732
-123
-130
150
204
195
180
124
123
138
89
66
116
137
103
96
130
139
116
111
131
155
177
202
231
263
294
312
315
314
314
310
281
211
123
48
-25
-98
-144
-165
-190
-221
-234
-237
-248
-260
-263
-264
-277
-292
-292
-285
-286
-289
-278
-261
-265
-285
-291
-283
-283
-295
-294
-267
-238
-230
-228
-215
-212
-228
-232
-222
-219
-199
-161
-167
-173
-145
-169
-1
653
1074
417
-555
-682
-279
-110
-126
-106
-109
-127
-116
-117
-131
-138
-153
-163
-148
-127
-114
-97
-75
-56
-34
-1
37
68
102
148
194
230
253
266
275
273
241
182
117
52
-7
-46
-67
-83
-92
-90
-81
-70
-61
-53
-42
-33
-27
-27
-31
-31
-24
-25
-32
-33
-34
-48
-55
-39
-17
-7
4
18
16
-8
-27
-24
-24
-36
-25
-8
-22
-9
-14
-29
405
1261
1311
133
-794
-586
-130
-51
-47
1
-17
-23
10
13
3
13
20
19
20
27
43
68
95
121
145
178
221
256
289
339
383
404
421
434
411
353
292
220
127
42
-14
-52
-81
-99
-106
-110
-117
-112
-98
-102
-112
-99
-93
-124
-144
-129
-129
-152
-161
-158
-169
-186
-189
-174
-149
-129
-115
-113
-134
-161
-155
-139
-157
-162
-128
-142
-174
-158
-183
6
757
1266
518
-638
-800
-316
-125
-151
-105
-94
-120
-102
-89
-98
-89
-74
-69
-60
-49
-39
-20
5
23
42
75
111
141
182
240
287
309
321
333
330
308
267
196
107
30
-29
-80
-115
-130
-140
-144
-138
-129
-125
-118
-111
-112
-119
-121
-118
-123
-133
-139
-139
-141
-137
-124
-105
-91
-83
-81
-92
-121
-143
-136
-132
-140
-120
-119
-149
-128
-129
-27
670
1494
1057
-376
-983
-489
-107
-126
-102
-48
-69
-61
-33
-36
-31
-16
-13
-4
11
22
37
60
85
114
147
184
223
269
320
365
396
407
409
405
381
322
238
153
81
17
-34
-65
-85
-98
-102
-98
-97
-99
-100
-102
-102
-104
-108
-109
-109
-118
-129
-136
-146
-156
-152
-133
-114
-100
-91
-91
-111
-132
-129
-125
-139
-126
-110
-140
-139
-139
-139
319
1172
1178
15
-797
-521
-127
-136
-156
-99
-112
-119
-91
-87
-90
-79
-71
-63
-53
-44
-27
0
27
51
78
115
160
205
246
286
321
343
350
349
333
290
221
146
80
22
-27
-60
-79
-91
-96
-91
-86
-88
-91
-90
-89
-90
-91
-93
-97
-100
-104
-109
-118
-130
-142
-135
-109
-87
-79
-70
-70
-95
-119
-113
-114
-128
-113
-107
-134
-119
-127
-97
422
1166
947
-206
-791
-426
-102
-131
-129
-83
-103
-100
-73
-76
-75
-60
-55
-49
-31
-14
0
17
39
68
102
136
176
221
266
307
338
352
355
354
339
293
220
139
65
1
-50
-82
-101
-114
-121
-119
-112
-113
-116
-113
-106
-106
-110
-114
-119
-119
-114
-116
-128
-134
-131
-138
-154
-152
-121
-90
-75
-69
-75
-98
-105
-98
-114
-118
-87
-99
-114
-87
-101
195
1116
1571
504
-841
-903
-304
-110
-135
-72
-62
-89
-66
-57
-69
-53
-33
-28
-17
2
14
25
52
90
127
162
203
249
293
333
373
405
414
406
397
376
310
206
104
28
-38
-97
-131
-143
-150
-150
-145
-147
-150
-142
-135
-133
-130
-131
-136
-132
-123
-132
-146
-145
-151
-171
-176
-163
-149
-134
-113
-97
-98
-120
-136
-129
-138
-150
-125
-126
-159
-132
-143
3
830
1651
986
-578
-1074
-487
-131
-156
-113
-78
-113
-93
-64
-73
-65
-47
-42
-30
-12
-1
17
46
76
105
139
180
226
280
336
380
409
424
426
411
375
308
218
130
54
-14
-67
-97
-113
-122
-123
-118
-116
-114
-110
-105
-101
-100
-98
-97
-97
-99
-103
-110
-115
-119
-122
-129
-138
-148
-157
-159
-149
-126
-99
-74
-67
-89
-109
-102
-106
-119
-98
-95
-123
-109
-138
-34
730
1569
1047
-395
-892
-366
-70
-146
-126
-81
-108
-94
-72
-87
-82
-63
-60
-54
-36
-17
1
19
41
72
107
143
191
246
292
323
352
378
385
369
337
282
195
99
25
-26
-64
-98
-122
-132
-133
-134
-135
-130
-124
-123
-121
-111
-104
-106
-109
-108
-108
-112
-113
-110
-110
-119
-132
-138
-143
-154
-162
-154
-132
-103
-76
-63
-77
-100
-98
-94
-108
-101
-91
-119
-107
-103
-107
392
1337
1347
38
-882
-559
-96
-103
-132
-74
-89
-91
-57
-63
-68
-51
-46
-42
-23
-9
1
21
47
73
101
137
182
229
271
314
356
381
386
379
363
324
251
162
83
20
-34
-73
-89
-98
-105
-102
-92
-89
-87
-80
-73
-70
-66
-66
-70
-70
-63
-62
-64
-60
-58
-62
-60
-55
-57
-61
-59
-60
-65
-71
-75
