# session 2
40
0
118
6
-490
-870
-863
-779
-774
-727
-660
-644
-626
-580
-531
-472
-409
-357
-302
-234
-166
-94
-13
58
124
194
242
262
282
294
262
193
108
13
-81
-166
-228
-245
-248
-277
-298
-268
-233
-230
-218
-188
-180
-180
-157
-143
-161
-170
-152
-139
-140
-132
-111
-96
-93
-100
-114
-117
-93
-66
-62
-55
-39
-48
-51
7
63
53
22
9
6
8
12
22
36
21
22
35
-43
127
957
1569
831
-401
-615
-130
65
36
80
77
36
53
31
-20
25
94
52
-8
25
73
76
104
160
170
160
203
282
347
398
448
481
487
500
538
523
412
288
202
95
-29
-99
-126
-153
-158
-137
-140
-171
-177
-152
-143
-163
-171
-158
-149
-152
-160
-181
-192
-163
-134
-151
-176
-168
-160
-181
-191
-177
-184
-210
-203
-174
-161
-166
-185
-197
-174
-144
-148
-145
-95
-63
-88
-104
-89
-104
-128
-106
-102
-117
-86
-121
-63
574
1307
926
-252
-724
-346
-75
-102
-90
-50
-62
-58
-39
-33
-19
2
8
0
-3
10
37
65
89
111
148
196
231
267
322
365
391
421
440
436
437
426
355
238
119
14
-44
-62
-102
-159
-175
-160
-147
-137
-132
-134
-124
-107
-115
-130
-114
-93
-108
-131
-124
-108
-119
-138
-132
-121
-129
-134
-123
-119
-127
-135
-146
-141
-120
-116
-126
-121
-117
-135
-150
-142
-133
-140
-136
-106
-76
-60
-49
-65
-100
-96
-76
-96
-107
-100
-103
-87
-115
-67
504
1231
946
-164
-646
-305
-84
-136
-94
-37
-79
-98
-68
-43
-24
-18
-23
-9
28
54
56
60
100
166
208
212
231
294
359
398
432
471
491
494
500
485
419
326
231
130
27
-37
-55
-70
-92
-93
-84
-100
-126
-127
-112
-102
-91
-80
-84
-86
-72
-69
-90
-101
-90
-83
-98
-118
-113
-101
-107
-107
-92
-96
-109
-98
-91
-107
-111
-94
-86
-84
-78
-81
-94
-83
-57
-57
-70
-64
-58
-60
-52
-48
-54
-51
-49
-40
-19
-34
-73
-61
-31
-44
-48
-25
-32
-55
-39
-13
-19
-29
-21
-30
-51
-35
-15
-36
-54
-37
-22
-32
-48
-49
-30
-9
4
23
44
37
1
-20
-6
0
-21
-19
-15
-31
-34
-80
-13
556
1189
855
-128
-490
-186
-15
-54
-37
-17
-34
-31
-24
-21
-14
-13
-13
-10
-5
15
29
29
60
110
119
106
134
183
209
234
278
310
316
320
328
330
313
256
155
64
12
-42
-102
-131
-140
-148
-145
-149
-172
-171
-149
-150
-164
-160
-147
-137
-137
-149
-146
-133
-133
-130
-113
-121
-153
-161
-141
-130
-134
-125
-103
-96
-112
-120
-105
-100
-115
-109
-80
-72
-87
-92
-81
-72
-75
-77
-68
-63
-61
-47
-41
-54
-53
-38
-39
-47
-37
-22
-18
-18
-15
-12
-3
18
39
48
49
50
56
53
37
26
14
3
23
31
0
10
-4
-30
384
1141
1137
180
-436
-216
30
-17
-32
1
-19
-5
28
18
15
35
34
33
58
78
82
86
95
116
153
178
181
196
235
276
309
337
353
367
375
356
308
240
140
35
-32
-79
-134
-175
-183
-179
-169
-162
-164
-158
-145
-145
-152
-154
-158
-159
-151
-152
-160
-160
-159
-167
-169
-164
-171
-180
-170
-158
-165
-173
-166
-162
-158
-151
-156
-162
-153
-151
-160
-155
-143
-146
-145
-132
-128
-130
-127
-121
-116
-116
-116
-93
-54
-40
-45
-38
-25
-29
-50
-64
-65
-70
-65
-59
-73
-63
-73
-89
343
1229
1358
238
-698
-516
-75
-32
-59
-8
-20
-29
13
22
3
13
36
52
67
78
88
104
121
140
171
208
245
281
320
367
421
471
511
532
533
522
478
372
244
148
76
5
-55
-98
-131
-147
-145
-140
-140
-135
-132
-138
-137
-133
-140
-145
-134
-133
-146
-142
-132
-152
-178
-166
-143
-150
-164
-154
-138
-141
-145
-133
-120
-118
-115
-104
-97
-101
-104
-94
-88
-97
-107
-107
-109
-116
-109
-80
-54
-47
-44
-28
-33
-78
-110
-103
-98
-87
-68
-92
-106
-99
-131
166
1024
1409
479
-604
-601
-137
-48
-104
-61
-54
-75
-52
-38
-49
-47
-29
-14
-6
9
29
37
46
75
107
125
150
201
255
296
335
372
404
432
441
423
384
308
195
86
-6
-88
-145
-172
-186
-192
-197
-194
-180
-174
-169
-148
-139
-148
-139
-121
-121
-124
-126
-134
-135
-127
-125
-126
-121
-117
-118
-121
-126
-134
-139
-141
-145
-140
-117
-96
-83
-53
-26
-55
-103
-102
-87
-101
-94
-79
-108
-106
-92
-129
171
954
1223
357
-531
-485
-106
-34
-66
-31
-20
-24
-15
-17
-7
22
35
37
56
79
83
80
88
121
164
184
199
248
305
337
367
412
442
440
425
410
362
257
131
29
-45
-101
-140
-167
-187
-202
-204
-187
-171
-169
-158
-138
-143
-169
-171
-139
-110
-118
-137
-137
-141
-158
-156
-142
-149
-155
-140
-129
-125
-117
-123
-143
-142
-132
-130
-115
-77
-28
1
-35
-106
-120
-93
-90
-79
-70
-95
-77
-68
-90
270
977
1002
97
-529
-325
-37
-43
-57
-22
-31
-38
-21
-14
-12
-16
-23
-8
26
42
38
58
96
102
90
112
159
192
223
274
326
361
389
401
373
327
289
221
108
15
-34
-88
-146
-172
-173
-163
-152
-162
-182
-176
-154
-148
-151
-142
-128
-132
-148
-150
-139
-131
-126
-119
-120
-129
-128
-114
-99
-91
-83
-84
-111
-145
-154
-142
-127
-97
-63
-47
-37
-26
-46
-75
-60
-52
-82
-77
-52
-63
-74
-120
-43
594
1341
996
-168
-632
-243
-7
-86
-79
-27
-46
-47
-22
-21
-24
-21
-27
-26
-1
29
40
54
87
109
123
175
240
265
287
351
407
419
429
454
445
385
307
213
91
-16
-77
-127
-173
-184
-172
-172
-181
-194
-202
-180
-149
-143
-155
-154
-141
-132
-136
-149
-153
-144
-137
-131
-131
-135
-115
-89
-114
-156
-151
-125
-124
-130
-130
-134
-132
-117
-94
-69
-44
-38
-62
-82
-73
-73
-85
-62
-53
-102
-94
-84
-145
250
1210
1417
260
-718
-505
-59
-59
-99
-31
-33
-53
-40
-41
-34
-10
6
14
10
12
46
73
75
97
132
151
178
230
284
334
371
382
390
408
407
371
309
218
106
9
-58
-104
-135
-164
-184
-182
-172
-167
-155
-148
-149
-140
-132
-145
-152
-137
-121
-113
-115
-128
-140
-141
-132
-119
-118
-131
-134
-124
-115
-106
-108
-126
-131
-114
-100
-97
-100
-105
-102
-99
-104
-100
-103
-126
-123
-87
-71
-67
-31
-1
-26
-55
-45
-48
-65
-36
-24
-63
-68
-101
-14
652
1379
958
-199
-570
-162
33
-39
-28
-13
-34
-8
4
-13
4
31
30
28
42
57
68
81
104
128
140
160
204
253
284
310
341
369
390
401
391
362
305
213
108
25
-35
-76
-105
-132
-145
-137
-130
-136
-137
-127
-121
-126
-130
-119
-103
-97
-92
-88
-93
-98
-93
-94
-103
-98
-86
-87
-95
-97
-95
-87
-83
-91
-90
-72
-69
-80
-72
-61
-77
-87
-69
-57
-63
-65
-64
-67
-65
-55
-53
-56
-53
-47
-47
-50
-46
-39
-40
-41
-39
-41
-39
-31
-25
-29
-37
-41
-32
-22
-25
-35
-41
-39
-31
-29
-31
-25
-27
-43
-45
-30
-33
-34
-5
20
12
3
11
22
13
-14
-28
-29
-41
-31
-10
-39
-58
-62
-92
235
1031
1255
348
-484
-361
-19
-37
-81
-10
-11
-53
-40
-11
-3
-8
-15
-6
14
30
45
61
70
78
98
132
165
189
214
248
280
314
352
361
342
337
339
300
225
150
80
10
-49
-82
-96
-104
-112
-112
-111
-112
-111
-112
-121
-120
-107
-102
-109
-101
-79
-80
-111
-129
-118
-114
-122
-113
-107
-119
-121
-111
-115
-118
-114
-118
-120
-117
-125
-133
-127
-119
-120
-118
-106
-99
-105
-110
-105
-109
-117
-109
-90
-78
-81
-83
-71
-62
-65
-52
-33
-36
-48
-53
-58
-49
-31
-39
-40
-5
21
26
47
56
31
12
8
0
-8
-11
4
24
3
-6
-9
-69
188
984
1329
459
-514
-479
-59
0
-58
-19
-16
-41
-33
-29
-24
-5
1
0
5
11
24
51
76
87
92
106
129
166
206
240
281
330
353
352
362
365
326
257
175
81
-10
-76
-122
-160
-184
-187
-183
-187
-187
-170
-157
-162
-168
-160
-148
-143
-144
-139
-131
-129
-129
-125
-123
-119
-110
-116
-129
-126
-115
-110
-99
-84
-85
-87
-74
-63
-66
-66
-59
-57
-53
-38
-39
-48
-34
-15
-19
-20
-13
-28
-49
-52
-45
-25
13
38
39
38
43
34
7
-4
6
-15
-44
-31
-35
-56
-24
-56
39
764
1495
930
-400
-814
-329
-46
-65
-25
-2
-36
-18
7
-1
11
33
27
15
32
64
80
82
97
132
171
202
234
271
318
386
459
501
516
533
539
509
441
329
184
46
-58
-135
-198
-239
-255
-255
-257
-263
-261
-247
-231
-222
-229
-238
-230
-214
-216
-235
-241
-231
-224
-229
-239
-244
-235
-219
-216
-224
-226
-223
-223
-215
-199
-191
-195
-199
-201
-202
-185
-148
-119
-109
-101
-96
-99
-112
-137
-143
-127
-131
-134
-114
-121
-112
-101
-166
156
1178
1666
568
-758
-787
-214
-59
-88
-22
-14
-34
2
22
10
17
31
41
60
80
87
96
119
150
177
209
253
306
360
417
479
531
562
576
578
562
506
398
264
135
24
-64
-115
-144
-172
-196
-197
-184
-174
-171
-163
-149
-140
-138
-130
-111
-104
-115
-121
-113
-112
-117
-120
-124
-127
-122
-118
-119
-119
-119
-123
-122
-118
-122
-125
-102
-65
-41
-29
-32
-58
-74
-61
-64
-75
-45
-38
-69
-61
-101
-3
763
1608
1117
-274
-764
-272
8
-63
-45
-3
-29
-13
18
11
9
21
28
38
48
53
63
81
102
131
163
192
223
273
340
402
441
466
489
500
482
425
326
194
54
-57
-130
-189
-233
-242
-250
-294
-326
-305
-271
-265
-267
-263
-258
-244
-229
-234
-249
-256
-253
-245
-250
-275
-279
-247
-243
-283
-279
-236
-243
-272
-264
-245
-209
-155
-155
-188
-180
-154
-126
-110
-143
-169
-162
-185
-233
-315
-175
644
1436
796
-698
-1194
-677
-346
-316
-214
-146
-178
-208
-218
-153
-36
-36
-112
-64
53
49
-18
16
83
89
156
306
363
330
365
463
487
436
465
546
447
277
318
276
-128
-383
-227
-253
-597
-636
-209
204
241
-8
-66
223
325
95
106
429
542
393
346
439
452
395
423
485
497
472
392
341
425
441
233
25
-61
-97
-61
-37
-50
79
37
-218
540
2179
2079
-167
-1384
-445
255
-227
-379
156
318
-6
-155
-66
-43
-125
-151
-52
58
98
158
284
414
513
588
705
856
788
484
381
539
411
-67
-326
-416
-898
-1367
-1114
-844
-1301
-1576
-1111
-910
-1351
-1602
-1367
-1043
-798
-599
-475
-434
-391
-314
-301
-346
-324
-276
-293
-300
-290
-382
-473
-348
-151
-144
-156
39
229
244
219
156
69
128
72
-296
-62
1282
2101
1028
-538
-844
-320
28
148
145
38
49
196
275
240
131
44
107
203
148
68
189
446
519
307
156
269
371
330
350
479
612
716
754
689
497
142
-173
-178
-134
-372
-519
-278
-57
-34
57
171
202
285
339
241
197
280
278
180
145
163
131
11
-135
-162
-31
111
131
59
-1
-56
-187
-252
-94
-17
-197
-281
-384
-661
-121
1270
1456
-77
-1320
-1334
-858
-395
-170
-246
-304
-255
-261
-273
-242
-229
-224
-172
-18
211
348
302
124
-96
-199
-65
146
217
270
442
503
407
382
294
98
142
170
-213
-382
37
331
236
179
168
61
1
26
90
170
144
43
49
127
134
85
9
-92
-134
-75
-23
-76
-171
-238
-332
-468
-548
-512
-398
-345
-425
-433
-354
-373
46
1134
1369
39
-1035
-913
-697
-612
-183
81
-63
-87
0
-70
-93
1
5
-44
-8
53
88
132
164
136
64
59
204
367
412
497
700
809
857
1000
994
702
481
439
265
-73
-240
-87
140
148
-13
-110
-111
-106
-73
0
-29
-180
-234
-142
-121
-199
-224
-244
-331
-353
-263
-207
-233
-292
-361
-402
-420
-431
-356
-316
-476
-292
682
1396
737
-522
-1093
-946
-607
-280
-45
20
-37
-88
-77
-68
-81
-63
-34
-54
-97
-86
-26
26
107
234
239
71
-23
88
255
357
413
444
453
453
387
166
-80
-157
-168
-270
-385
-425
-324
-55
157
128
21
-53
-140
-133
3
61
-22
-89
-80
-62
-69
-115
-212
-308
-282
-129
-19
-68
-166
-185
-208
-327
-409
-414
-363
184
1191
1231
-190
-1183
-728
-246
-415
-275
230
281
-20
-144
-118
-59
33
25
3
133
124
-34
179
402
171
387
774
-340
-1645
-725
841
856
449
710
927
790
634
528
369
161
58
-12
-291
-467
-124
377
492
236
7
116
389
446
348
362
429
420
389
378
370
360
304
190
115
164
201
58
147
994
1749
1034
-481
-967
-445
-212
-378
-182
283
246
-230
-235
259
311
-96
-109
238
322
184
119
121
108
63
48
46
-60
-67
99
136
375
758
-144
-1792
-1538
133
589
121
131
178
-86
-160
-23
75
-2
-297
-501
-453
-390
-245
37
-66
-619
-901
-745
-622
-573
-395
-235
-287
-468
-506
-366
-418
-564
-348
-450
-1444
-1894
-972
-254
-616
-925
-272
896
1234
119
-1107
-1129
-581
-408
-462
-345
-140
-305
-912
-1175
-739
-385
-416
-266
25
64
47
106
86
111
221
273
364
394
388
835
967
-452
-1751
-768
876
1075
737
795
660
358
433
644
610
506
590
865
1060
733
78
-13
472
651
532
637
703
511
425
518
546
481
427
432
470
494
