# session 0
38
77
73
11
-85
-185
-292
-410
-525
-630
-730
-804
-827
-793
-719
-637
-572
-525
-504
-520
-541
-551
-583
-642
-712
-801
-889
-933
-941
-934
-902
-853
-804
-758
-735
-746
-769
-791
-825
-869
-905
-918
-905
-871
-814
-753
-728
-738
-788
-877
-704
4
609
225
-680
-951
-585
-327
-306
-261
-207
-235
-309
-382
-406
-330
-188
-63
-7
-11
-39
-61
-78
-95
-96
-80
-52
-4
74
170
272
367
435
476
509
540
546
519
480
448
430
430
448
466
482
513
548
547
512
477
453
429
404
382
355
323
302
304
304
269
216
171
124
90
61
-8
128
804
1482
1166
146
-344
-116
70
10
-20
-22
-90
-170
-228
-258
-206
-61
100
206
258
280
270
233
200
170
118
54
11
2
24
68
125
189
242
258
234
188
130
68
9
-32
-34
-1
21
12
1
-1
-9
-16
-16
-30
-54
-63
-62
-58
-39
-1
48
103
143
156
157
145
134
123
52
108
689
1442
1328
363
-240
-61
193
172
125
120
55
-52
-143
-186
-158
-75
18
77
68
-3
-97
-190
-280
-359
-412
-437
-433
-400
-341
-260
-178
-120
-100
-105
-126
-158
-192
-232
-265
-268
-246
-228
-208
-172
-139
-132
-154
-197
-240
-279
-317
-341
-351
-364
-385
-410
-426
-418
-404
-400
-398
-422
-492
-592
-760
-840
-397
330
280
-701
-1424
-1318
-1041
-1031
-1081
-1072
-1076
-1106
-1139
-1146
-1096
-999
-870
-717
-573
-472
-420
-413
-425
-408
-363
-332
-318
-279
-195
-87
16
112
207
298
381
470
567
651
705
736
767
824
914
1010
1111
1233
1361
1467
1536
1558
1535
1486
1415
1325
1248
1211
1208
1227
1244
1223
1169
1100
992
862
745
593
598
1170
1934
1829
883
311
510
770
751
700
690
630
536
450
389
375
412
484
554
566
510
419
316
208
115
46
-15
-67
-88
-75
-43
-8
18
21
1
-30
-61
-104
-178
-274
-360
-414
-427
-407
-392
-408
-447
-495
-545
-578
-590
-605
-638
-688
-750
-809
-857
-892
-895
-878
-888
-923
-956
-1010
-1080
-1162
-1259
-1062
-292
344
-119
-1148
-1488
-1158
-954
-991
-994
-973
-999
-1030
-1042
-1032
-1000
-962
-916
-855
-809
-810
-850
-904
-951
-992
-1024
-1040
-1036
-1002
-925
-823
-738
-683
-652
-648
-673
-712
-752
-799
-848
-873
-853
-795
-713
-624
-543
-476
-426
-405
-401
-373
-313
-228
-130
-51
-17
2
40
101
186
271
335
401
478
570
701
791
858
1344
2302
2691
1922
1114
1312
2013
2473
2761
3064
3294
3421
3462
3367
3113
2766
2425
2135
1860
1563
1268
1010
796
622
497
408
335
275
241
230
220
198
167
100
-39
-222
-397
-571
-772
-967
-1124
-1255
-1359
-1413
-1397
-1292
-1109
-909
-751
-646
-551
-426
-281
-151
-40
67
160
234
301
361
388
381
375
361
320
263
150
82
490
1291
1406
382
-634
-773
-617
-757
-975
-1082
-1161
-1197
-1146
-1051
-911
-695
-424
-124
185
453
643
772
860
905
918
929
940
936
930
944
977
1012
1031
1035
1067
1155
1276
1388
1470
1520
1547
1560
1549
1511
1457
1380
1276
1170
1083
1006
930
821
648
428
191
-73
-358
-634
-892
-1140
-1360
-1537
-1697
-1864
-2000
-2082
-2136
-2154
-2154
-2140
-1790
-910
-333
-931
-1990
-2289
-1991
-1884
-2017
-2137
-2264
-2428
-2573
-2692
-2779
-2804
-2776
-2701
-2584
-2455
-2336
-2213
-2077
-1947
-1850
-1796
-1773
-1762
-1756
-1751
-1751
-1779
-1849
-1934
-2005
-2060
-2083
-2075
-2067
-2068
-2063
-2058
-2049
-1995
-1898
-1800
-1669
-1446
-1156
-845
-520
-232
-29
157
391
638
872
1111
1341
1558
1821
2145
2458
2694
2842
2935
3010
3102
3244
3417
3560
3661
3691
3656
3950
4809
5378
4799
3836
3637
3913
3872
3573
3359
3246
3187
3162
3076
2867
2566
2254
2028
1892
1773
1612
1306
740
11
-640
-1108
-1423
-1621
-1735
-1731
-1513
-1111
-713
-430
-223
-60
32
64
103
202
387
657
962
1249
1499
1707
1860
1938
1917
1810
1696
1664
1741
1910
2134
2370
2560
2629
2492
2100
1460
634
-280
-1179
-1993
-2683
-3200
-3510
-3639
-3625
-3509
-3333
-3054
-2674
-2297
-1678
-478
590
444
-463
-845
-549
-135
339
988
1678
2302
2860
3333
3707
3982
4113
4074
3906
3678
3437
3155
2729
2156
1623
1298
1178
1224
1443
1817
2324
2895
3407
3931
4588
5188
5682
6266
6626
6707
7216
7636
7369
7628
5675
-5265
-22374
-33230
-34207
-32579
-32165
-31506
-30429
-29744
-29252
-27998
-25075
-21303
-18488
-16713
-15057
-13446
-11861
-9847
-7344
-4640
-1895
757
3201
5458
7475
9139
10805
12975
14995
15579
14914
14267
13896
13419
13080
13104
13185
13141
12986
12630
12067
11385
10656
10072
9754
9471
8971
8295
7589
6913
6207
5328
4259
3185
2272
1567
1059
699
424
204
30
-98
-176
-214
-233
-256
-278
-255
-192
-110
61
386
804
1226
1606
1869
1956
1913
1839
1789
1742
1615
1353
976
549
161
-133
-362
-539
-652
-776
-983
-1231
-1500
-1827
-2159
-2405
-2559
-2670
-2810
-2966
-3015
-3005
-3032
-2658
-1600
-898
-1608
-2924
-3467
-3264
-3039
-3007
-3091
-3223
-3313
-3374
-3459
-3536
-3591
-3596
-3430
-3067
-2640
-2247
-1878
-1497
-1101
-710
-336
20
342
597
805
1006
1200
1367
1537
1721
1862
1916
1921
1946
2028
2159
2315
2488
2664
2813
2937
3067
3215
3364
3507
3665
3818
3906
3915
3886
3780
3568
3352
3215
3258
3744
4628
5369
5696
5844
5971
6151
6550
7124
7751
8487
9134
9422
9705
10200
10250
9723
9579
9889
9688
9180
8723
7063
4134
634
-6802
-19831
-30573
-32509
-30473
-29668
-28932
-28104
-27309
-23137
-15358
-8689
-4860
-1891
773
2547
3716
4550
4837
4638
4072
2910
1357
-529
-4874
-13143
-21341
-24402
-23434
-22513
-22371
-21740
-20888
-20767
-20176
-16622
-10567
-5225
-1784
904
3188
4775
5901
6692
7121
7481
7981
8534
9053
9447
9613
9580
9475
9428
9467
9490
9475
9443
9386
9679
10588
11100
10128
8607
8115
8511
8846
8961
8997
8887
8690
8504
8277
7997
7704
7366
6996
6681
6430
6199
5982
5773
5517
5194
4861
4574
4342
4150
3986
3836
3680
3509
3314
3089
2828
2527
2210
1907
1586
1183
740
372
95
-166
-379
-414
-306
-298
-536
-918
-1276
-1576
-1860
-2094
-2216
-2269
-2373
-2596
-2913
-3299
-3805
-4449
-5140
-5832
-6541
-7104
-7300
-7246
-7218
-7244
-7255
-7141
-6408
-4954
-3998
-4444
-5196
-4974
-4223
-3757
-3477
-3169
-2960
-2842
-2657
-2358
-1995
-1649
-1389
-1205
-1028
-824
-623
-447
-273
-93
75
250
487
784
1073
1288
1399
1389
1267
1054
775
470
174
-106
-338
-443
-360
-114
216
541
801
973
1033
980
898
863
833
716
513
301
124
-90
-442
-905
-1314
-1555
-1707
-1904
-2090
-2156
-2202
-2430
-2869
-3370
-3712
-3779
-3652
-3406
-3051
-2601
-1750
-268
864
464
-698
-1016
-510
-96
65
209
365
593
956
1395
1838
2259
2632
2934
3156
3343
3552
3775
3990
4229
4510
4777
4996
5197
5358
5393
5264
5004
4673
4367
4140
3942
3710
3402
2904
2120
1210
491
30
-355
-676
-759
-603
-336
15
439
873
1309
1730
2035
2147
2114
2036
1985
1991
2065
2195
2346
2481
2581
2624
2553
2286
1797
1198
619
7
-740
-1628
-2828
-4388
-5576
-5957
-6606
-8191
-9354
-9029
-8054
-7282
-6528
-5599
-4613
-3620
-2651
-1762
-973
-340
81
345
583
889
1230
1515
1715
1834
1840
1732
1589
1437
1069
110
-1622
-3830
-5881
-7163
-7437
-6997
-6332
-5638
-4853
-3966
-3045
-2149
-1302
-468
341
1006
1476
1791
1980
2115
2295
2506
2680
2784
2771
2621
2400
2151
1907
1753
1698
1638
1548
1472
1387
1297
1254
1225
1179
1173
1214
1277
1318
1294
1594
2567
3177
2108
216
-704
-665
-652
-803
-902
-998
-1057
-1033
-1000
-909
-681
-433
-303
-274
-274
-267
-245
-206
-144
-80
-47
-27
16
68
103
119
116
80
23
-25
-24
52
200
407
703
1112
1570
1961
2221
2360
2394
2329
2150
1846
1505
1274
1149
1008
855
784
775
652
282
-252
-864
-1666
-2638
-3465
-3976
-4246
-4255
-3948
-3392
-2649
-1824
-1137
-649
-250
307
1535
3285
4086
3268
2392
2724
3507
3900
4102
4308
4460
4654
4942
5261
5609
5967
6257
6483
6683
6816
6822
6729
6601
6449
6259
6048
5854
5693
5552
5415
5275
5090
4793
4369
3861
3291
2658
1969
1243
469
-528
-2221
-5126
-9391
-14642
-19744
-22977
-23529
-22453
-21192
-20060
-18870
-17823
-17190
-17079
-17536
-18140
-18015
-16774
-14935
-13112
-11257
-8992
-6388
-3973
-2153
-931
10
989
2047
3042
3830
4555
5865
7734
8616
7785
6868
7105
7660
7751
7620
7384
6982
6637
6466
6368
6349
6423
6493
6498
6460
6374
6224
6039
5854
5662
5451
5235
5023
4821
4649
4487
4294
4072
3840
3596
3345
3101
2878
2672
2456
2182
1847
1519
1262
1058
857
647
441
238
9
-231
-352
-299
-257
-370
-532
-644
-741
-812
-811
-790
-830
-941
-1062
-1137
-1162
-1165
-1156
-1114
-1014
-920
-928
-972
-1004
-1032
-571
733
1724
1119
-138
-456
-97
24
-58
-142
-303
-442
-474
-513
-583
-658
-803
-1014
-1176
-1220
-1177
-1111
-1047
-972
-918
-933
-990
-1036
-1056
-1036
-939
-771
-585
-414
-258
-136
-106
-202
-375
-538
-671
-787
-879
-938
-970
-991
-1056
-1187
-1334
-1485
-1681
-1870
-1910
-1758
-1518
-1306
-1153
-1056
-1004
-969
-920
-865
-790
-661
-507
-382
-284
-193
-108
-54
-73
-131
-200
-220
265
1423
2037
1055
-346
-604
-149
18
-27
-1
-4
-34
-7
33
85
185
288
352
390
421
452
470
458
426
396
361
316
280
267
252
213
166
136
115
89
64
47
41
55
92
134
164
198
256
331
400
457
493
501
498
492
477
461
450
431
406
398
405
410
410
400
362
307
265
235
211
210
209
193
206
227
192
136
84
233
1066
2175
2076
645
-349
-166
172
133
70
51
-21
-29
52
133
195
230
227
212
197
179
163
148
124
96
63
25
-6
-24
-37
-51
-64
-82
-115
-162
-209
-249
-282
-300
-295
-286
-295
-313
-311
-283
-242
-205
-184
-180
-178
-176
-182
-198
-219
-236
-240
-234
-220
-199
-183
-198
-244
-295
-334
-359
-369
-379
-403
-414
-406
-434
-483
-531
-533
-70
1030
1635
725
-599
-822
-344
-145
-152
-100
-112
-157
-120
-63
-21
43
99
121
136
150
157
168
182
180
158
125
83
42
20
9
-10
-32
-48
-65
-85
-96
-107
-125
-142
-150
-154
-153
-140
-120
-98
-78
-75
-94
-123
-153
-180
-195
-192
-177
-149
-115
-88
-65
-49
-53
-64
-60
-51
-42
-26
-22
-31
-14
0
-26
-45
-60
107
897
1865
1631
228
-619
-333
49
82
114
163
108
72
103
134
165
197
207
199
183
160
140
124
96
55
13
-30
-80
-120
-133
-124
-111
-99
-95
-91
-79
-70
-79
-90
-89
-94
-110
-104
-68
-33
-20
-15
-8
-5
-9
-9
-8
-15
-20
-11
3
15
34
45
29
-1
-29
-67
-111
-156
-217
-274
-291
-312
-348
-365
-372
-66
874
1602
907
-504
-954
-488
-191
-179
-104
-42
-38
41
182
320
445
525
543
518
452
355
250
138
8
-126
-249
-355
-425
-437
-390
-316
-244
-180
-122
-75
-51
-49
-55
-55
-60
-75
-82
-72
-58
-46
-31
-21
-32
-61
-86
-100
-115
-123
-116
-96
-64
-14
31
51
60
68
75
84
81
62
62
68
44
32
21
122
772
1729
1701
428
-543
-388
29
110
126
169
124
74
89
117
145
175
189
180
152
117
96
84
68
49
26
-8
-49
-72
-62
-36
-26
-47
-103
-187
-279
-358
-407
-424
-418
-401
-365
-293
-204
-139
-104
-86
-90
-124
-180
-241
-297
-339
-368
-382
-369
-336
-305
-277
-240
-208
-193
-191
-215
-247
-253
-271
-306
-319
-327
-90
741
1483
946
-392
-936
-535
-190
-153
-131
-132
-196
-209
-162
-110
-51
13
61
81
70
48
32
21
14
18
32
44
56
98
188
293
356
359
331
308
295
285
286
302
313
310
326
368
395
384
357
326
287
253
235
227
231
248
265
276
274
243
184
121
61
4
-27
-23
18
90
131
117
93
40
149
840
1650
1316
-35
-806
-539
-188
-150
-136
-132
-215
-264
-240
-204
-160
-116
-100
-112
-139
-170
-188
-198
-213
-235
-256
-277
-296
-296
-271
-240
-221
-213
-209
-200
-194
-202
-217
-225
-229
-240
-248
-241
-221
-195
-172
-158
-151
-139
-131
-132
-137
-138
-139
-137
-134
-133
-133
-130
-128
-124
-101
-79
-81
-70
-53
-65
-78
-115
-37
607
1513
1382
67
-860
-669
-230
-82
10
89
51
-5
-4
26
71
120
152
157
131
88
56
46
44
45
38
14
-8
-3
13
27
59
106
131
131
118
81
19
-41
-85
-104
-84
-38
-1
23
46
61
60
48
32
15
7
19
58
111
149
152
124
84
50
31
9
-39
-99
-131
-156
-195
-201
-212
-116
550
1526
1466
121
-894
-721
-244
-106
-76
-53
-109
-165
-174
-157
-95
-12
38
52
53
51
56
69
82
90
89
89
97
105
117
148
182
182
144
92
38
-6
-30
-52
-94
-139
-150
-123
-96
-91
-90
-85
-84
-92
-105
-122
-135
-137
-132
-127
-116
-105
-104
-105
-106
-114
-121
-128
-144
-143
-126
-139
-156
-171
-154
316
1344
1758
686
-639
-798
-288
-61
-50
-17
-54
-140
-160
-122
-50
37
91
92
60
20
-8
-14
-4
3
1
-3
-3
3
26
64
94
101
88
64
32
2
-15
-17
-19
-37
-51
-34
4
28
35
37
39
34
22
2
-19
-22
-8
5
13
24
27
10
-9
-18
-24
-22
-23
-40
-44
-30
-50
-82
-119
-94
442
1511
1845
676
-620
-705
-222
-81
-112
-84
-128
-204
-197
-152
-112
-65
-40
-48
-61
-65
-70
-79
-85
-88
-94
-100
-102
-97
-85
-66
-53
-57
-76
-104
-128
-143
-158
-172
-172
-166
-163
-151
-127
-100
-74
-54
-52
-66
-85
-104
-127
-152
-166
-157
-134
-111
-87
-68
-75
-109
-142
-166
-185
-189
-192
-201
-186
-170
-188
-205
-216
-26
807
1826
1615
191
-675
-375
11
7
8
60
19
-13
16
49
95
152
184
191
186
174
165
162
159
149
136
126
124
