# session 27
-103
-120
-73
-37
-136
-289
-323
-269
-233
-209
-197
-223
-244
-237
-234
-237
-232
-226
-218
-203
-194
-181
-175
-180
-26
474
1032
1020
273
-626
-1024
-876
-571
-334
-137
2
39
45
74
98
111
134
158
177
200
228
257
287
322
365
413
466
521
580
640
693
736
766
776
763
724
657
564
451
327
200
82
-20
-107
-175
-222
-244
-251
-252
-251
-245
-235
-225
-214
-204
-199
-197
-195
-193
-194
-198
-205
-210
-210
-212
-215
-216
-215
-215
-212
-209
-207
-204
-201
-199
-194
-186
-182
-181
-178
-171
-165
-164
-163
-158
-154
-153
-150
-146
-142
-134
-129
-129
-126
-118
-111
-89
-52
-36
-57
-83
-94
-102
-106
-106
-107
-107
-101
-101
-98
-88
-106
-61
292
909
1231
783
-174
-880
-931
-614
-337
-150
0
59
58
80
110
122
138
161
178
199
226
252
281
316
355
399
450
504
561
622
681
730
767
786
783
756
704
625
517
391
263
141
27
-74
-155
-213
-252
-274
-278
-273
-270
-267
-260
-252
-246
-238
-233
-232
-230
-228
-231
-235
-237
-241
-245
-245
-247
-248
-245
-243
-242
-237
-231
-231
-228
-221
-217
-217
-215
-207
-199
-195
-192
-189
-185
-177
-168
-166
-164
-157
-154
-149
-115
-73
-70
-101
-122
-127
-130
-128
-124
-126
-123
-113
-114
-110
-101
-112
-3
452
1045
1133
458
-461
-948
-868
-562
-309
-117
26
73
74
95
120
133
151
173
191
213
239
264
291
324
364
410
457
507
560
617
672
715
738
745
734
701
642
557
447
327
211
101
-1
-90
-161
-210
-236
-247
-251
-250
-244
-238
-232
-223
-218
-218
-219
-219
-219
-221
-224
-228
-230
-230
-233
-236
-234
-232
-231
-228
-222
-218
-217
-214
-211
-207
-204
-200
-196
-190
-188
-182
-172
-165
-164
-158
-153
-149
-127
-86
-65
-80
-107
-121
-127
-132
-130
-127
-127
-123
-118
-119
-109
-107
-119
45
556
1084
1020
265
-601
-975
-820
-508
-270
-84
40
68
72
103
125
133
154
176
193
216
244
272
302
335
376
423
473
524
578
634
685
722
743
747
731
693
628
537
425
305
187
77
-22
-107
-171
-213
-235
-246
-250
-247
-241
-232
-226
-221
-218
-215
-215
-217
-219
-220
-223
-226
-231
-235
-236
-236
-237
-237
-236
-233
-229
-226
-224
-220
-216
-210
-205
-201
-198
-195
-192
-187
-183
-178
-173
-168
-165
-161
-158
-155
-150
-144
-144
-143
-138
-135
-124
-88
-49
-47
-73
-94
-101
-103
-100
-98
-99
-96
-93
-99
-96
-92
-117
-34
378
968
1176
651
-285
-914
-894
-550
-279
-104
27
70
69
95
123
137
160
182
198
220
248
276
306
343
383
426
474
528
585
638
689
734
766
778
771
743
691
617
521
405
281
165
62
-29
-107
-164
-197
-214
-222
-222
-217
-212
-208
-203
-197
-195
-195
-196
-198
-203
-209
-213
-216
-218
-219
-219
-218
-217
-216
-214
-212
-210
-206
-201
-199
-197
-193
-187
-183
-179
-174
-169
-165
-162
-157
-152
-150
-148
-145
-142
-137
-133
-132
-131
-126
-123
-119
-114
-111
-111
-106
-101
-100
-102
-100
-97
-94
-91
-89
-89
-87
-81
-80
-82
-80
-78
-71
-38
1
3
-27
-50
-60
-66
-67
-68
-70
-64
-64
-64
-53
-75
-68
206
776
1188
950
115
-695
-918
-639
-321
-136
0
72
73
86
116
129
142
166
185
202
227
253
281
313
348
388
434
483
532
585
638
683
716
739
743
724
688
633
554
453
341
228
119
22
-63
-132
-184
-217
-231
-236
-240
-243
-240
-234
-230
-229
-229
-231
-236
-240
-241
-245
-249
-253
-257
-258
-256
-255
-254
-250
-246
-243
-238
-233
-231
-227
-221
-217
-215
-209
-202
-197
-193
-190
-184
-176
-170
-168
-163
-158
-152
-149
-147
-143
-136
-133
-132
-125
-116
-115
-113
-105
-101
-88
-52
-23
-34
-64
-82
-87
-87
-87
-90
-89
-81
-84
-84
-73
-80
6
424
1010
1132
503
-395
-901
-849
-547
-291
-108
34
92
94
111
138
151
168
189
206
224
246
270
298
331
365
403
445
493
543
593
639
675
697
706
699
670
616
543
454
351
241
133
35
-49
-116
-166
-198
-215
-222
-225
-223
-218
-215
-215
-215
-213
-214
-218
-223
-226
-227
-229
-232
-237
-239
-238
-237
-238
-236
-231
-227
-224
-219
-215
-213
-209
-205
-203
-199
-190
-185
-183
-182
-178
-173
-170
-163
-151
-148
-151
-145
-137
-133
-106
-64
-53
-79
-106
-115
-118
-118
-119
-122
-117
-109
-108
-101
-101
-114
34
523
1070
1075
361
-545
-979
-833
-499
-255
-78
39
65
68
99
123
134
156
178
195
217
242
267
297
333
371
414
463
515
568
620
666
701
722
723
705
666
606
523
421
305
190
84
-12
-96
-160
-201
-221
-231
-236
-237
-233
-226
-219
-214
-213
-214
-214
-214
-217
-221
-224
-226
-228
-230
-231
-232
-232
-231
-228
-225
-221
-218
-215
-210
-206
-201
-195
-191
-188
-185
-181
-177
-173
-168
-164
-160
-157
-154
-149
-145
-142
-135
-128
-130
-130
-123
-116
-99
-62
-34
-45
-72
-89
-97
-100
-101
-101
-96
-91
-92
-87
-91
-113
11
477
1061
1171
531
-420
-954
-846
-492
-239
-75
41
70
70
99
124
134
155
177
194
214
241
270
301
332
369
413
461
512
567
620
666
703
729
736
722
690
636
556
455
343
229
121
20
-69
-141
-188
-215
-230
-236
-235
-231
-227
-223
-220
-218
-217
-218
-219
-220
-222
-227
-232
-235
-237
-238
-238
-239
-237
-233
-231
-230
-226
-220
-217
-214
-208
-202
-200
-197
-193
-189
-184
-179
-175
-172
-167
-161
-157
-153
-151
-148
-146
-139
-130
-129
-133
-127
-118
-111
-84
-43
-33
-61
-85
-93
-99
-101
-101
-100
-93
-89
-91
-83
-92
-88
157
732
1193
968
106
-721
-961
-708
-389
-181
-25
62
71
81
112
129
145
169
187
200
224
252
280
311
347
385
427
475
524
571
617
660
691
705
702
682
643
580
491
387
283
179
75
-20
-95
-148
-183
-205
-217
-222
-221
-215
-211
-212
-212
-214
-216
-219
-224
-229
-230
-230
-236
-242
-243
-241
-238
-237
-238
-236
-231
-230
-227
-220
-217
-215
-209
-203
-198
-194
-190
-186
-182
-175
-169
-168
-168
-160
-148
-145
-144
-134
-129
-127
-102
-61
-53
-80
-105
-115
-118
-117
-116
-116
-107
-102
-109
-98
-92
-94
105
649
1131
953
137
-672
-953
-758
-453
-227
-55
50
70
79
109
129
140
160
182
202
224
246
274
306
338
375
419
466
513
563
611
649
678
695
694
670
627
566
484
383
271
165
67
-23
-101
-154
-185
-205
-215
-218
-217
-213
-209
-207
-204
-202
-207
-212
-212
-212
-215
-218
-222
-227
-230
-230
-230
-229
-227
-224
-220
-217
-214
-210
-207
-204
-200
-195
-190
-186
-182
-176
-172
-169
-167
-163
-156
-153
-151
-143
-133
-136
-137
-128
-122
-113
-78
-41
-45
-78
-101
-108
-108
-106
-107
-105
-99
-101
-96
-83
-105
-73
259
856
1199
820
-95
-843
-945
-621
-323
-140
1
62
61
82
114
127
143
166
183
203
229
255
282
317
355
395
439
488
540
591
638
679
704
712
703
675
626
553
459
351
238
130
32
-57
-131
-180
-206
-220
-226
-225
-223
-219
-213
-207
-205
-205
-205
-206
-212
-216
-218
-221
-226
-230
-231
-232
-232
-231
-228
-227
-226
-224
-218
-212
-208
-205
-201
-198
-194
-189
-185
-183
-180
-174
-167
-163
-160
-157
-152
-148
-144
-141
-139
-135
-127
-124
-123
-119
-114
-106
-74
-35
-32
-62
-85
-91
-95
-100
-100
-96
-91
-93
-91
-83
-105
-87
205
791
1211
951
68
-765
-963
-655
-333
-148
-9
63
66
82
115
128
142
169
189
207
233
259
288
322
358
398
446
498
548
599
647
689
718
734
729
702
653
584
492
381
266
157
54
-41
-118
-172
-206
-226
-233
-233
-229
-223
-219
-216
-213
-213
-215
-217
-220
-224
-228
-231
-233
-234
-235
-238
-240
-240
-237
-231
-226
-223
-220
-215
-212
-211
-208
-201
-194
-192
-192
-186
-176
-172
-170
-166
-160
-153
-149
-146
-142
-141
-139
-131
-122
-124
-123
-112
-108
-100
-64
-28
-36
-70
-89
-91
-92
-94
-97
-96
-88
-87
-87
-77
-88
-33
331
922
1152
637
-257
-856
-881
-590
-318
-128
16
79
84
100
125
138
156
178
195
214
238
264
292
324
358
396
440
487
533
578
622
658
681
690
680
648
594
523
437
333
222
119
25
-59
-125
-167
-191
-207
-215
-215
-213
-209
-206
-205
-204
-202
-204
-209
-213
-217
-221
-225
-229
-232
-231
-231
-234
-234
-230
-228
-226
-220
-214
-213
-212
-207
-202
-200
-197
-192
-187
-183
-180
-175
-169
-164
-161
-155
-144
-140
-142
-139
-137
-129
-94
-51
-49
-80
-101
-110
-115
-113
-112
-113
-106
-103
-105
-94
-98
-103
107
644
1121
978
183
-664
-968
-744
-423
-207
-41
58
68
74
107
126
141
164
184
201
224
250
277
309
343
383
429
478
527
578
626
669
701
716
708
681
635
568
476
367
252
142
40
-50
-120
-168
-202
-225
-231
-224
-218
-218
-216
-209
-203
-199
-198
-200
-203
-204
-207
-211
-214
-217
-218
-220
-222
-224
-224
-221
-217
-214
-213
-210
-206
-202
-200
-199
-195
-189
-186
-184
-180
-175
-171
-166
-161
-158
-156
-152
-147
-143
-141
-136
-129
-124
-126
-125
-119
-112
-88
-47
-29
-51
-77
-89
-97
-99
-97
-98
-95
-90
-92
-86
-87
-114
-9
431
1016
1179
601
-343
-922
-851
-498
-238
-73
41
70
69
98
122
134
156
180
199
221
246
272
303
341
380
422
470
523
578
633
680
717
739
742
726
692
634
551
446
330
214
106
8
-80
-148
-191
-214
-225
-227
-225
-220
-214
-207
-201
-196
-194
-193
-192
-195
-201
-205
-205
-208
-212
-214
-217
-217
-214
-211
-208
-204
-199
-196
-194
-192
-189
-183
-178
-175
-172
-168
-164
-160
-155
-150
-147
-145
-139
-131
-128
-128
-127
-124
-117
-113
-112
-110
-107
-105
-100
-96
-94
-92
-87
-82
-81
-81
-81
-79
-73
-72
-74
-68
-63
-61
-36
3
9
-21
-44
-51
-54
-57
-59
-61
-56
-55
-57
-46
-56
-49
211
773
1162
874
36
-705
-885
-629
-335
-143
4
83
88
98
125
138
155
178
192
207
232
256
280
311
347
383
423
470
520
566
610
647
675
688
683
657
613
554
473
372
268
168
69
-23
-98
-152
-188
-206
-213
-218
-218
-214
-209
-207
-205
-203
-201
-200
-204
-212
-218
-220
-226
-232
-234
-234
-236
-235
-231
-229
-229
-230
-228
-224
-221
-218
-213
-208
-205
-202
-197
-191
-185
-180
-178
-173
-166
-161
-158
-154
-152
-149
-144
-139
-137
-136
-133
-128
-125
-121
-111
-104
-105
-100
-94
-90
-69
-30
-17
-40
-64
-74
-81
-83
-83
-87
-83
-75
-77
-72
-70
-87
49
518
1039
1034
352
-498
-904
-766
-448
-216
-48
64
90
94
123
145
158
180
199
214
239
266
291
320
355
395
440
486
533
587
641
682
713
734
736
713
672
610
524
419
306
194
90
-4
-86
-149
-188
-207
-216
-219
-216
-208
-200
-194
-187
-183
-182
-182
-182
-185
-188
-192
-196
-199
-202
-204
-204
-205
-205
-203
-202
-200
-196
-192
-189
-185
-181
-179
-177
-174
-169
-166
-162
-157
-153
-149
-146
-143
-139
-135
-131
-129
-126
-123
-120
-118
-115
-112
-110
-109
-107
-103
-100
-98
-96
-94
-91
-89
-89
-84
-80
-81
-79
-71
-70
-75
-72
-68
-59
-28
8
5
-25
-47
-56
-62
-65
-68
-67
-64
-67
-63
-59
-89
-29
341
907
1159
722
-165
-826
-854
-518
-242
-84
30
71
71
93
119
132
151
173
191
211
234
260
291
323
358
402
452
502
556
612
662
702
731
742
731
700
651
578
480
366
249
139
39
-53
-131
-188
-222
-238
-244
-244
-241
-233
-223
-215
-210
-207
-205
-205
-206
-208
-212
-216
-219
-221
-223
-226
-227
-226
-225
-224
-222
-217
-210
-205
-204
-202
-197
-193
-189
-183
-179
-175
-170
-164
-161
-156
-149
-144
-141
-137
-131
-129
-125
-120
-119
-117
-112
-107
-105
-102
-99
-96
-91
-85
-83
-82
-78
-74
-75
-74
-69
-67
-68
-61
-54
-57
-58
-50
-49
-41
-5
27
15
-16
-33
-41
-44
-43
-43
-41
-37
-41
-36
-30
-47
80
549
1080
1065
370
-468
-861
-735
-429
-195
-27
86
112
111
136
159
171
188
207
223
243
265
289
317
350
386
427
470
518
568
617
659
693
713
716
698
660
603
526
428
320
212
109
13
-70
-136
-182
-210
-225
-231
-231
-226
-221
-216
-212
-210
-209
-210
-210
-213
-218
-224
-229
-233
-236
-239
-242
-244
-245
-242
-239
-237
-236
-234
-230
-228
-229
-227
-222
-220
-219
-214
-208
-205
-201
-196
-193
-190
-185
-181
-178
-174
-170
-168
-164
-162
-162
-158
-148
-145
-145
-138
-134
-127
-93
-57
-60
-91
-111
-120
-124
-123
-123
-122
-116
-117
-117
-104
-120
-107
176
741
1098
779
-64
-794
-951
-675
-374
-178
-25
54
58
72
104
120
135
160
178
196
223
251
281
314
350
394
444
496
547
602
657
703
734
748
741
712
660
583
485
373
257
144
41
-49
-120
-171
-201
-215
-219
-216
-208
-200
-192
-183
-174
-166
-160
-155
-153
-152
-151
-151
-152
-156
-157
-154
-151
-152
-151
-147
-143
-140
-135
-128
-123
-120
-116
-112
-107
-103
-97
-91
-86
-82
-78
-73
-69
-64
-58
-55
-52
-48
-46
-45
-43
-40
-38
-37
-35
-33
-31
-28
-27
-25
-23
-22
-20
-16
-17
-20
-19
-18
-15
10
46
53
21
