# session 13
1
38
-44
37
391
623
517
339
259
178
82
26
-7
-33
-42
-48
-52
-44
-36
-33
-32
-29
-26
-26
-31
-36
-40
-47
-56
-64
-70
-79
-86
-91
-93
-95
-95
-94
-95
-96
-94
-95
-96
-94
-88
-86
-91
-93
-92
-89
-87
-86
-86
-85
-84
-82
-80
-78
-79
-74
-66
-66
-65
-61
-64
-55
-19
7
-9
-38
-53
-63
-70
-75
-77
-72
-71
-79
-70
-68
-96
-7
343
771
869
410
-361
-869
-822
-513
-271
-102
27
68
67
88
110
121
138
156
173
194
218
241
267
300
338
380
428
484
537
582
628
675
708
711
686
645
584
498
389
272
155
47
-47
-126
-186
-226
-252
-263
-263
-260
-258
-250
-239
-226
-209
-199
-202
-206
-203
-202
-203
-201
-199
-199
-202
-209
-215
-214
-211
-213
-212
-209
-209
-206
-200
-196
-195
-191
-185
-180
-176
-172
-167
-161
-156
-153
-139
-123
-126
-138
-140
-137
-133
-122
-112
-110
-106
-99
-97
-81
-43
-20
-34
-58
-72
-79
-83
-85
-86
-81
-82
-84
-72
-79
-94
51
435
817
805
241
-530
-913
-756
-434
-208
-44
59
77
83
113
131
141
158
175
193
216
241
269
298
330
370
419
470
522
577
632
684
726
750
752
732
690
623
531
415
289
171
67
-28
-107
-160
-195
-222
-236
-236
-233
-230
-222
-213
-206
-200
-194
-189
-184
-183
-186
-190
-194
-197
-197
-200
-208
-213
-211
-211
-213
-210
-205
-205
-204
-200
-198
-194
-186
-180
-180
-176
-167
-160
-158
-157
-152
-145
-143
-142
-134
-129
-131
-127
-115
-110
-112
-106
-100
-94
-66
-31
-30
-56
-76
-86
-92
-97
-101
-95
-88
-92
-87
-87
-113
-30
325
788
932
496
-302
-872
-866
-543
-276
-99
29
68
66
91
116
126
144
163
179
202
225
246
273
309
350
395
443
492
549
610
664
703
730
739
723
685
626
541
433
311
190
80
-15
-97
-159
-199
-222
-236
-239
-235
-228
-218
-208
-202
-196
-188
-184
-184
-184
-184
-186
-190
-192
-195
-201
-205
-206
-206
-207
-207
-203
-199
-199
-198
-194
-192
-191
-187
-181
-177
-174
-171
-167
-162
-158
-157
-153
-147
-144
-141
-135
-133
-131
-122
-115
-111
-104
-97
-89
-61
-26
-22
-46
-70
-81
-87
-90
-92
-86
-82
-87
-81
-78
-98
-2
358
796
862
341
-454
-935
-859
-527
-257
-70
52
82
80
105
125
135
157
181
195
212
235
260
290
326
366
409
457
511
569
622
673
718
745
748
730
693
627
534
422
303
186
75
-24
-106
-166
-207
-229
-237
-240
-238
-231
-223
-214
-204
-197
-195
-191
-188
-190
-191
-190
-195
-204
-207
-208
-213
-215
-214
-216
-216
-212
-208
-207
-204
-201
-199
-197
-192
-189
-183
-176
-171
-167
-163
-161
-157
-150
-146
-145
-139
-130
-127
-125
-121
-109
-78
-46
-44
-68
-90
-101
-106
-110
-112
-105
-99
-103
-92
-83
-112
-41
309
772
887
392
-433
-967
-914
-567
-277
-80
46
79
83
112
129
137
162
185
195
213
239
266
296
331
370
415
462
513
570
628
680
724
753
761
745
704
637
547
433
306
184
73
-27
-111
-173
-213
-236
-245
-246
-244
-239
-229
-219
-212
-205
-195
-193
-199
-200
-196
-199
-203
-202
-207
-223
-232
-228
-226
-225
-220
-219
-221
-217
-211
-210
-207
-202
-201
-197
-187
-181
-182
-179
-172
-168
-161
-149
-146
-147
-139
-130
-129
-113
-79
-64
-81
-100
-109
-115
-115
-111
-108
-104
-107
-104
-85
-93
-60
244
768
1004
591
-206
-798
-873
-624
-372
-180
-11
77
82
94
124
138
151
172
187
201
228
258
281
309
346
387
429
479
532
580
629
672
695
698
689
661
604
523
424
315
203
95
-1
-83
-148
-189
-210
-223
-229
-224
-216
-210
-203
-196
-193
-191
-190
-193
-196
-197
-196
-198
-202
-210
-215
-216
-217
-216
-214
-214
-214
-213
-213
-209
-204
-204
-204
-195
-187
-185
-179
-170
-165
-160
-152
-143
-118
-83
-72
-91
-112
-124
-131
-133
-135
-133
-125
-126
-124
-111
-129
-131
71
498
822
651
-34
-749
-967
-723
-423
-223
-59
35
45
58
90
107
122
145
163
178
197
218
244
277
314
356
406
459
515
575
629
673
706
718
706
676
622
534
424
311
198
86
-12
-89
-150
-192
-215
-223
-226
-226
-222
-212
-202
-196
-188
-179
-175
-175
-173
-174
-177
-177
-177
-183
-190
-192
-193
-196
-196
-194
-192
-192
-189
-186
-185
-184
-180
-179
-176
-166
-159
-157
-152
-149
-146
-123
-84
-70
-87
-111
-127
-130
-127
-132
-134
-123
-123
-125
-109
-120
-124
75
519
877
734
48
-703
-965
-741
-435
-222
-50
44
51
64
96
109
122
146
161
175
201
228
253
284
321
363
411
460
510
566
623
664
688
700
693
656
597
518
414
295
182
78
-17
-97
-156
-196
-219
-228
-229
-225
-218
-211
-202
-194
-186
-182
-179
-177
-174
-173
-176
-179
-182
-185
-190
-193
-195
-199
-200
-200
-200
-199
-196
-194
-193
-190
-186
-183
-179
-173
-168
-165
-162
-154
-147
-145
-143
-139
-133
-113
-78
-61
-73
-94
-110
-118
-119
-120
-121
-116
-115
-117
-105
-111
-130
-5
369
769
775
203
-585
-978
-820
-482
-232
-57
45
62
71
99
112
122
147
169
183
201
226
256
292
328
367
415
468
522
579
639
688
722
743
746
725
678
602
500
384
265
145
33
-59
-126
-171
-201
-224
-236
-233
-229
-226
-213
-198
-195
-196
-191
-187
-189
-189
-191
-198
-205
-206
-207
-209
-211
-210
-209
-209
-208
-204
-197
-194
-195
-190
-183
-182
-181
-171
-165
-163
-158
-152
-150
-145
-135
-130
-127
-126
-123
-101
-68
-58
-72
-89
-104
-111
-108
-107
-108
-102
-103
-106
-89
-94
-88
128
576
875
639
-57
-713
-897
-676
-400
-202
-33
69
80
85
112
127
139
161
178
192
213
235
256
281
312
349
395
443
490
536
582
618
639
643
629
596
542
470
381
278
170
73
-10
-81
-138
-172
-188
-195
-197
-195
-190
-181
-173
-169
-165
-158
-153
-155
-159
-161
-161
-164
-169
-171
-175
-180
-181
-175
-171
-176
-182
-179
-173
-172
-170
-163
-156
-152
-149
-147
-147
-145
-140
-135
-133
-131
-129
-126
-122
-122
-123
-113
-104
-106
-107
-100
-94
-82
-53
-30
-35
-55
-74
-82
-83
-85
-82
-77
-82
-81
-69
-88
-79
137
546
826
638
-21
-700
-898
-654
-357
-159
-8
68
73
83
107
120
136
155
170
187
210
237
263
292
327
369
414
460
509
562
611
650
675
682
671
639
586
511
414
302
190
89
-1
-79
-140
-183
-212
-226
-226
-221
-218
-213
-206
-200
-196
-191
-188
-190
-191
-190
-193
-198
-198
-197
-201
-207
-214
-216
-210
-204
-202
-202
-198
-195
-194
-188
-181
-177
-176
-175
-172
-165
-158
-153
-151
-148
-140
-133
-127
-122
-121
-120
-102
-69
-50
-60
-80
-96
-104
-108
-111
-109
-101
-103
-102
-84
-93
-105
62
459
794
688
72
-653
-947
-742
-417
-190
-25
67
77
88
119
135
148
167
180
199
227
246
265
296
330
367
414
464
513
568
623
665
693
704
689
651
599
527
428
316
206
101
2
-80
-141
-183
-206
-215
-217
-216
-211
-202
-194
-184
-175
-169
-166
-163
-163
-164
-164
-166
-171
-172
-173
-180
-188
-189
-186
-184
-185
-186
-185
-182
-176
-171
-168
-167
-166
-166
-163
-155
-150
-150
-149
-145
-141
-137
-135
-133
-123
-110
-106
-108
-110
-109
-92
-60
-39
-50
-74
-89
-100
-111
-108
-87
-79
-103
-110
-77
-76
-80
128
587
925
719
-1
-715
-939
-726
-438
-222
-47
51
69
77
93
107
133
153
155
171
204
235
263
295
326
364
413
469
528
585
630
665
693
712
708
665
600
530
438
316
200
101
5
-77
-137
-187
-221
-232
-230
-225
-219
-216
-208
-200
-200
-196
-189
-192
-196
-193
-199
-213
-217
-219
-226
-227
-224
-227
-226
-220
-220
-224
-219
-209
-206
-205
-199
-194
-191
-185
-175
-166
-161
-162
-161
-140
-102
-80
-90
-112
-130
-136
-134
-134
-138
-131
-124
-129
-120
-111
-127
-22
383
871
915
309
-520
-961
-868
-575
-332
-122
33
71
68
101
131
137
152
179
202
220
239
264
297
335
376
419
469
529
584
632
676
707
717
706
676
624
547
445
327
211
103
2
-86
-158
-205
-228
-239
-244
-238
-227
-220
-214
-202
-197
-201
-202
-197
-196
-202
-208
-211
-213
-218
-224
-225
-224
-225
-224
-220
-217
-217
-215
-211
-207
-204
-204
-204
-195
-185
-181
-177
-175
-170
-141
-100
-87
-99
-119
-144
-154
-148
-153
-160
-147
-136
-121
-101
-133
-150
65
522
890
773
86
-715
-1014
-782
-455
-224
-41
52
53
66
104
121
135
161
184
204
227
251
283
322
363
406
457
515
575
633
687
736
769
775
758
723
659
561
448
325
193
69
-34
-119
-187
-231
-254
-267
-271
-269
-265
-256
-243
-237
-235
-226
-217
-218
-221
-223
-227
-232
-234
-235
-238
-239
-239
-240
-239
-238
-237
-232
-223
-215
-206
-203
-204
-181
-137
-114
-132
-154
-165
-178
-185
-178
-170
-167
-165
-164
-154
-150
-162
-53
333
808
868
255
-625
-1093
-967
-607
-305
-89
25
44
56
90
108
118
143
174
196
214
236
270
310
348
390
444
502
560
618
673
719
753
767
757
723
663
573
459
328
195
78
-21
-113
-187
-226
-243
-252
-253
-253
-257
-261
-267
-264
-233
-202
-201
-213
-218
-225
-233
-233
-235
-241
-242
-241
-245
-246
-241
-237
-237
-236
-233
-225
-212
-202
-199
-194
-186
-180
-164
-126
-96
-103
-131
-148
-155
-159
-150
-133
-135
-153
-153
-127
-124
-149
-42
362
875
1002
466
-405
-965
-935
-602
-301
-88
38
65
67
97
121
132
152
173
188
209
244
284
320
352
381
414
464
534
604
658
698
731
750
744
711
657
581
475
346
220
107
-3
-102
-173
-218
-246
-262
-267
-262
-254
-253
-253
-245
-234
-231
-236
-237
-235
-236
-240
-240
-236
-235
-238
-240
-241
-242
-241
-239
-237
-231
-223
-216
-210
-205
-203
-200
-175
-135
-116
-134
-160
-171
-172
-168
-167
-169
-163
-155
-157
-146
-136
-158
-97
224
685
836
363
-477
-1028
-969
-611
-312
-98
46
84
84
111
135
146
166
185
199
222
252
278
306
342
384
430
478
529
585
638
682
710
720
712
684
633
554
451
331
211
104
10
-75
-137
-172
-193
-206
-208
-203
-197
-195
-191
-182
-177
-178
-177
-177
-182
-185
-186
-192
-195
-194
-197
-203
-201
-199
-198
-196
-195
-194
-188
-184
-187
-187
-177
-170
-169
-168
-163
-158
-154
-152
-148
-141
-134
-129
-125
-126
-122
-96
-60
-48
-63
-81
-99
-113
-117
-115
-113
-109
-113
-113
-99
-108
-108
79
507
854
679
-50
-804
-1028
-763
-417
-173
-5
70
76
93
122
135
147
168
186
204
225
251
281
313
348
393
444
493
542
597
650
689
712
721
713
679
618
539
442
329
212
103
4
-84
-148
-184
-205
-220
-228
-226
-219
-209
-201
-202
-204
-201
-199
-202
-205
-208
-215
-220
-221
-223
-227
-230
-232
-234
-234
-230
-227
-225
-217
-206
-206
-210
-202
-191
-191
-191
-181
-167
-161
-164
-148
-108
-86
-104
-131
-145
-153
-151
-141
-144
-149
-146
-145
-132
-118
-143
-100
236
778
1022
582
-300
-934
-953
-644
-370
-162
-1
52
50
75
103
117
136
158
181
208
235
265
299
336
380
426
455
492
559
622
651
670
695
707
692
648
569
467
353
231
112
10
-74
-141
-181
-199
-210
-216
-214
-207
-202
-196
-190
-189
-189
-192
-197
-200
-202
-209
-215
-217
-221
-223
-218
-217
-222
-221
-212
-209
-209
-205
-201
-198
-192
-186
-185
-181
-172
-166
-161
-154
-152
-145
-116
-80
-75
-97
-115
-122
-129
-134
-133
-128
-122
-124
-125
-105
-104
-101
117
608
935
626
-157
-796
-924
-705
-454
-249
-57
56
72
79
111
131
141
160
180
200
222
246
272
305
342
381
422
468
517
564
607
635
645
639
620
581
519
440
345
240
136
42
-40
-107
-154
-182
-195
-199
-198
-193
-183
-176
-173
-168
-161
-160
-166
-171
-171
-174
-180
-184
-189
-194
-194
-191
-193
-195
-192
-189
-189
-189
-184
-180
-175
-171
-168
-166
-159
-150
-144
-140
-140
-134
-106
-68
-58
-77
-101
-117
-122
-119
-123
-126
-116
-109
-115
-106
-99
-111
19
431
841
753
98
-630
-918
-761
-492
-277
-84
50
80
82
106
126
139
160
179
194
213
237
265
296
331
370
413
460
509
558
602
631
645
648
633
592
529
453
360
255
152
57
-30
-100
-151
-185
-205
-214
-216
-210
-199
-189
-183
-177
-171
-164
-159
-161
-166
-167
-169
-176
-184
-191
-194
-196
-200
-205
-204
-201
-202
-200
-196
-194
-194
-192
-188
-187
-185
-179
-174
-169
-163
-156
-148
-146
-150
-138
-103
-81
-89
-110
-129
-141
-141
-138
-141
-137
-129
-133
-126
-114
-136
-69
270
717
811
335
-415
-898
-870
-581
-335
-151
-5
46
45
66
94
108
126
147
164
185
212
236
262
299
345
389
433
487
544
591
628
654
663
652
619
566
492
399
293
186
89
5
-67
-123
-162
-185
-194
-196
-193
-183
-173
-167
-160
-145
-130
-125
-126
-123
-117
-116
-121
-125
-127
-131
-131
-130
-133
-135
-131
-124
-120
-117
-115
-114
-109
-101
-94
-89
-85
-82
-75
-65
-60
-58
-53
-46
-42
-40
-38
-34
-27
-22
-21
-19
-13
-7
-3
0
2
5
10
10
10
13
17
17
16
16
19
