# session 9
-7
-3
-6
-20
-21
-2
5
-8
-20
-24
-29
-36
-39
-42
-47
-50
-48
-47
-50
-50
-49
-52
-53
-51
-48
-47
-50
-54
-54
-52
-52
-55
-54
-53
-54
-54
-55
-55
-55
-57
-57
-55
-56
-60
-60
-57
-57
-57
-54
-54
-57
-54
-54
-58
-54
-47
-52
-55
-46
-49
-52
-19
17
4
-32
-50
-58
-64
-66
-66
-63
-62
-66
-61
-64
-74
77
493
840
640
-55
-690
-866
-691
-456
-257
-67
56
78
79
101
120
132
149
165
182
202
218
237
266
299
336
378
424
473
528
581
625
660
681
683
668
631
568
481
376
264
156
54
-44
-126
-184
-222
-245
-254
-255
-255
-252
-243
-233
-226
-218
-210
-203
-198
-194
-194
-197
-199
-199
-201
-203
-204
-205
-207
-208
-206
-203
-200
-197
-194
-188
-184
-182
-180
-174
-169
-166
-161
-156
-152
-150
-147
-144
-140
-135
-129
-123
-121
-119
-113
-109
-108
-105
-103
-99
-87
-80
-84
-82
-75
-78
-68
-29
-3
-19
-44
-55
-63
-67
-67
-69
-68
-67
-66
-55
-56
-70
40
374
736
735
223
-469
-827
-719
-443
-224
-52
65
93
96
124
148
158
173
190
207
226
245
268
296
330
370
415
463
515
572
630
684
724
745
750
735
692
622
527
414
297
182
73
-18
-90
-149
-191
-212
-222
-229
-227
-218
-211
-203
-191
-181
-175
-165
-157
-154
-153
-151
-154
-159
-159
-159
-164
-171
-171
-169
-173
-176
-173
-168
-166
-165
-161
-158
-155
-150
-147
-148
-145
-137
-133
-135
-133
-129
-126
-125
-123
-119
-115
-113
-112
-109
-106
-104
-103
-99
-96
-94
-92
-88
-84
-83
-85
-84
-79
-77
-77
-75
-72
-72
-74
-69
-59
-58
-62
-61
-61
-57
-28
6
5
-18
-34
-44
-53
-60
-62
-58
-58
-58
-47
-54
-67
55
389
718
684
171
-496
-829
-708
-429
-208
-40
64
84
87
111
130
144
163
179
194
213
232
255
286
320
358
400
448
502
559
616
668
712
743
755
740
699
636
552
446
327
209
101
4
-78
-143
-185
-210
-225
-231
-230
-226
-218
-206
-197
-191
-183
-171
-166
-165
-161
-158
-163
-166
-166
-167
-172
-174
-176
-179
-180
-179
-178
-178
-178
-175
-170
-167
-164
-160
-156
-150
-145
-141
-136
-133
-130
-126
-121
-119
-121
-117
-110
-107
-107
-104
-100
-97
-93
-89
-86
-83
-81
-80
-76
-72
-72
-73
-72
-69
-66
-66
-66
-66
-65
-63
-61
-59
-57
-57
-57
-58
-56
-49
-41
-43
-45
-40
-40
-41
-16
22
29
2
-24
-35
-39
-42
-43
-39
-41
-44
-37
-49
-61
78
424
745
701
183
-499
-839
-703
-406
-183
-22
74
88
94
121
136
146
167
185
196
212
234
259
286
315
353
399
449
502
559
615
666
710
740
749
734
695
634
550
446
327
205
93
-3
-81
-146
-195
-225
-238
-241
-239
-234
-230
-222
-208
-195
-190
-188
-181
-175
-174
-174
-174
-177
-181
-182
-183
-185
-187
-188
-187
-185
-186
-185
-181
-177
-174
-169
-165
-162
-158
-153
-150
-146
-139
-136
-136
-132
-125
-123
-123
-125
-124
-118
-113
-112
-111
-108
-105
-100
-94
-93
-93
-89
-84
-82
-81
-80
-78
-76
-74
-73
-73
-72
-69
-68
-68
-68
-66
-62
-61
-57
-49
-47
-49
-46
-46
-38
-6
22
12
-15
-30
-38
-46
-51
-48
-48
-54
-43
-37
-70
-24
264
684
884
583
-137
-764
-850
-555
-281
-105
28
79
77
97
124
136
153
174
188
207
229
253
282
316
353
397
449
506
563
622
684
740
778
795
796
774
720
639
536
411
278
153
42
-57
-135
-195
-237
-263
-274
-276
-271
-263
-257
-249
-238
-227
-219
-214
-213
-215
-213
-208
-211
-220
-222
-217
-219
-225
-224
-220
-219
-217
-213
-209
-207
-204
-199
-194
-190
-188
-183
-178
-175
-172
-164
-155
-151
-149
-144
-139
-136
-133
-129
-125
-120
-114
-111
-110
-107
-105
-102
-97
-90
-89
-86
-77
-73
-74
-70
-68
-73
-56
-14
7
-12
-36
-49
-58
-59
-59
-60
-58
-57
-52
-40
-54
-29
244
716
916
509
-240
-772
-821
-585
-346
-153
17
102
103
107
134
152
164
179
194
214
236
257
279
310
345
381
423
475
532
587
638
683
718
738
734
704
651
577
481
365
243
128
25
-65
-136
-188
-223
-242
-245
-244
-241
-232
-223
-219
-211
-200
-193
-193
-193
-191
-191
-193
-195
-197
-204
-210
-212
-210
-210
-212
-211
-207
-204
-202
-200
-198
-196
-192
-189
-187
-181
-175
-174
-172
-168
-160
-152
-148
-149
-149
-139
-128
-128
-128
-120
-121
-120
-84
-42
-47
-78
-91
-95
-103
-102
-97
-94
-88
-89
-89
-76
-85
-53
224
686
862
435
-314
-819
-842
-604
-371
-173
2
83
89
105
133
147
161
181
196
215
238
260
286
318
356
398
446
500
557
614
671
722
753
763
757
726
667
584
477
352
227
113
8
-84
-152
-196
-224
-240
-244
-242
-240
-234
-221
-210
-203
-196
-187
-181
-179
-180
-181
-181
-183
-187
-193
-196
-196
-197
-197
-197
-198
-200
-197
-192
-189
-188
-184
-182
-181
-178
-174
-172
-166
-158
-157
-159
-155
-147
-142
-142
-142
-140
-134
-130
-130
-128
-125
-123
-117
-108
-106
-108
-101
-97
-93
-63
-24
-21
-47
-66
-76
-82
-84
-86
-83
-80
-86
-79
-70
-94
-38
272
715
881
498
-248
-810
-844
-564
-310
-125
26
84
81
103
133
144
159
181
198
217
239
264
294
329
367
411
459
513
574
636
693
743
782
800
791
758
702
619
509
384
259
141
34
-56
-127
-178
-211
-230
-235
-232
-227
-222
-212
-200
-188
-179
-174
-170
-167
-164
-165
-169
-173
-175
-176
-178
-182
-185
-185
-181
-176
-173
-174
-175
-172
-169
-166
-163
-158
-153
-150
-147
-145
-142
-138
-132
-127
-123
-119
-117
-115
-112
-109
-108
-105
-101
-100
-98
-94
-90
-89
-89
-86
-82
-80
-79
-74
-73
-73
-71
-68
-69
-68
-66
-66
-66
-63
-61
-59
-60
-59
-57
-55
-56
-50
-44
-47
-51
-49
-48
-38
-2
27
18
-10
-29
-40
-49
-53
-51
-48
-54
-52
-39
-62
-66
141
569
886
728
83
-620
-880
-677
-375
-162
-3
78
80
87
118
137
150
168
183
199
221
245
269
301
338
379
424
477
533
589
646
703
748
775
781
764
723
656
563
452
331
210
95
-7
-91
-158
-207
-238
-255
-260
-257
-249
-242
-233
-222
-215
-212
-206
-198
-196
-198
-201
-201
-201
-204
-212
-218
-216
-212
-213
-217
-215
-209
-206
-206
-204
-199
-196
-192
-187
-183
-178
-173
-168
-162
-158
-154
-149
-143
-139
-133
-126
-126
-128
-122
-114
-110
-108
-106
-105
-101
-95
-91
-87
-82
-79
-79
-76
-69
-68
-74
-72
-62
-61
-63
-57
-56
-59
-32
11
16
-14
-36
-44
-49
-51
-52
-49
-44
-48
-44
-34
-53
23
380
813
812
235
-476
-825
-743
-499
-284
-92
60
112
114
134
155
162
178
197
209
224
246
271
298
326
357
398
439
479
529
586
632
668
696
709
699
669
615
534
434
324
208
95
2
-75
-143
-193
-218
-229
-235
-237
-236
-230
-217
-208
-207
-206
-197
-190
-190
-191
-191
-194
-197
-196
-199
-206
-208
-207
-206
-202
-200
-200
-197
-192
-190
-190
-187
-181
-174
-169
-166
-163
-160
-158
-153
-149
-149
-144
-133
-131
-132
-123
-117
-118
-93
-50
-42
-70
-91
-97
-101
-102
-102
-102
-95
-88
-90
-83
-84
-85
86
503
800
538
-162
-738
-857
-669
-442
-240
-47
68
86
93
121
137
145
163
182
199
220
242
266
293
325
364
410
460
512
565
618
668
704
722
722
700
648
570
470
354
234
120
15
-73
-141
-190
-222
-240
-247
-250
-246
-237
-228
-222
-214
-205
-197
-193
-188
-184
-185
-186
-186
-191
-197
-199
-201
-202
-203
-205
-204
-201
-198
-198
-197
-195
-193
-189
-185
-183
-180
-177
-174
-169
-162
-156
-156
-152
-144
-142
-143
-138
-136
-128
-91
-55
-63
-93
-107
-112
-119
-121
-119
-114
-108
-108
-100
-90
-107
-76
165
574
806
528
-179
-788
-892
-641
-376
-168
0
70
75
99
129
139
155
178
192
209
234
257
284
322
360
398
447
508
572
637
699
748
783
804
801
769
707
617
505
378
249
130
25
-66
-133
-176
-206
-225
-228
-223
-219
-216
-207
-195
-186
-178
-168
-160
-156
-155
-152
-150
-151
-154
-156
-156
-156
-157
-157
-154
-152
-150
-146
-142
-139
-137
-135
-132
-126
-120
-116
-112
-108
-103
-98
-95
-93
-90
-84
-79
-78
-76
-72
-70
-69
-67
-64
-61
-57
-54
-54
-52
-50
-48
-47
-45
-41
-36
-35
-40
-44
-42
-41
-42
-42
-42
-41
-41
-41
-40
-39
-41
-42
-41
-41
-42
-42
-42
-41
-40
-40
-41
-39
-38
-41
-45
-45
-44
-42
-41
-42
-45
-47
-43
-34
-33
-38
-43
-53
-52
-15
22
11
-24
-42
-49
-56
-52
-51
-64
-62
-51
-80
-56
198
601
808
547
-102
-700
-838
-590
-301
-107
18
62
60
79
105
117
133
155
171
186
208
231
257
291
330
373
419
472
529
587
644
696
737
762
769
753
711
646
559
450
330
209
94
-8
-92
-159
-210
-240
-253
-259
-261
-256
-247
-240
-232
-223
-213
-207
-208
-207
-203
-202
-206
-208
-209
-213
-216
-218
-217
-215
-212
-210
-208
-205
-202
-197
-192
-189
-187
-184
-177
-170
-166
-163
-161
-156
-148
-141
-137
-133
-129
-124
-120
-117
-113
-109
-107
-104
-98
-92
-88
-87
-83
-79
-76
-73
-69
-67
-66
-64
-62
-61
-58
-56
-56
-55
-51
-49
-51
-51
-47
-44
-43
-44
-46
-41
-28
-20
-27
-32
-30
-27
-10
22
28
-3
-28
-27
-27
-33
-29
-27
-33
-23
-26
-41
115
538
895
742
94
-573
-827
-667
-394
-181
-11
90
105
108
136
154
163
180
196
211
231
251
274
305
338
373
418
470
521
575
632
683
725
754
762
744
706
646
559
449
329
212
102
1
-86
-153
-202
-234
-248
-251
-249
-244
-234
-223
-213
-204
-197
-191
-188
-186
-183
-185
-189
-190
-192
-199
-203
-202
-203
-207
-205
-201
-201
-201
-197
-194
-190
-185
-182
-179
-175
-171
-166
-161
-158
-156
-153
-148
-143
-140
-138
-135
-132
-131
-127
-121
-118
-116
-114
-111
-107
-104
-104
-102
-96
-93
-92
-88
-83
-84
-83
-79
-78
-78
-74
-71
-70
-68
-68
-67
-55
-44
-49
-57
-57
-51
-29
3
9
-19
-47
-52
-53
-54
-49
-50
-52
-40
-50
-59
106
501
827
691
68
-602
-850
-673
-395
-176
-4
90
102
110
138
154
167
186
203
219
239
258
281
313
348
384
430
484
539
598
657
711
755
784
792
775
735
669
580
470
347
223
110
12
-73
-139
-185
-216
-234
-239
-237
-231
-223
-215
-204
-194
-187
-181
-176
-173
-172
-173
-176
-177
-180
-185
-190
-192
-192
-192
-192
-192
-189
-186
-183
-178
-175
-175
-174
-167
-161
-160
-160
-156
-152
-149
-142
-138
-135
-130
-127
-126
-123
-119
-116
-111
-106
-107
-107
-100
-97
-96
-92
-89
-88
-82
-79
-79
-76
-71
-71
-70
-67
-66
-67
-69
-71
-68
-61
-60
-62
-60
-56
-55
-55
-56
-51
-43
-43
-45
-42
-39
-22
10
26
6
-23
-38
-43
-49
-55
-55
-55
-58
-47
-46
-73
16
357
751
783
285
-441
-873
-800
-486
-219
-38
70
94
96
120
140
152
173
191
205
224
245
264
294
331
367
410
463
517
573
635
694
743
782
802
793
763
712
629
521
401
275
153
44
-50
-129
-187
-224
-245
-255
-254
-249
-244
-238
-226
-215
-208
-201
-193
-189
-189
-189
-188
-191
-193
-195
-198
-197
-197
-198
-197
-194
-193
-191
-188
-187
-185
-179
-175
-173
-168
-163
-159
-155
-151
-146
-141
-137
-134
-127
-123
-123
-120
-113
-109
-110
-109
-104
-97
-94
-93
-93
-91
-88
-85
-80
-77
-77
-77
-73
-67
-67
-69
-66
-66
-69
-62
-53
-56
-57
-50
-52
-45
-6
25
8
-25
-41
-48
-58
-66
-63
-59
-68
-67
-55
-78
-48
258
773
1024
644
-172
-821
-908
-618
-332
-138
9
67
63
78
106
120
132
151
168
188
208
228
257
291
326
368
418
471
524
587
651
702
738
762
763
734
681
605
504
383
253
125
7
-95
-179
-243
-287
-311
-319
-318
-315
-308
-296
-288
-283
-275
-265
-262
-264
-263
-260
-264
-270
-272
-269
-269
-270
-271
-270
-265
-261
-259
-254
-246
-242
-240
-234
-225
-218
-214
-212
-206
-196
-186
-180
-176
-170
-161
-151
-144
-141
-136
-125
-115
-110
-104
-97
-93
-72
-29
-4
-21
-45
-53
-55
-55
-51
-49
-42
-35
-36
-25
-15
-24
117
571
1026
930
234
-526
-845
-707
-422
-183
13
144
177
181
208
234
248
264
282
302
325
348
373
403
438
479
525
578
635
695
751
803
848
878
884
865
822
755
659
537
406
281
164
55
-35
-101
-144
-171
-185
-189
-188
-185
-179
-173
-169
-169
-171
-173
-172
-175
-184
-192
-197
-205
-216
-223
-229
-238
-243
-244
-246
-251
-255
-258
-262
-264
-264
-266
-270
-273
-275
-276
-277
-278
-278
-276
-278
-279
-281
-286
-287
-281
-281
-287
-290
-291
-282
-249
-219
-233
-268
-288
-297
-303
-306
-309
-307
-301
-305
-299
-292
-317
-241
131
634
768
264
-572
-1120
-1094
-777
-509
-312
-163
-110
-107
-79
-44
-24
0
27
51
79
111
145
184
229
279
335
398
467
539
612
684
749
797
821
822
803
760
688
588
474
364
261
170
96
45
15
5
10
25
47
74
101
129
162
