# session 0
14
-57
-100
-136
-195
-276
-349
-400
-446
-495
-529
-553
-588
-616
-645
-691
-638
-359
-19
6
-454
-1130
-1526
-1466
-1214
-1004
-833
-709
-676
-673
-641
-610
-592
-569
-541
-516
-488
-456
-422
-378
-327
-282
-238
-177
-108
-48
10
65
106
130
140
129
97
54
0
-72
-152
-219
-272
-322
-363
-384
-390
-386
-371
-352
-333
-308
-280
-254
-227
-199
-177
-164
-155
-141
-122
-107
-97
-84
-72
-68
-65
-52
-34
-21
-7
8
19
29
42
56
71
85
96
102
115
132
140
146
160
170
172
180
192
196
197
204
214
218
222
229
237
240
242
246
246
240
241
249
251
245
243
248
252
249
244
240
237
236
233
222
211
212
210
206
225
250
244
211
183
168
156
143
134
122
103
99
99
60
75
334
757
933
558
-171
-709
-749
-501
-261
-79
46
78
77
99
115
114
123
135
141
151
166
177
193
217
242
267
297
327
357
385
402
406
399
378
335
264
165
50
-81
-238
-422
-601
-734
-804
-833
-849
-852
-832
-798
-754
-695
-619
-531
-437
-350
-275
-213
-165
-131
-103
-79
-58
-39
-23
-13
1
26
58
90
119
143
157
159
158
168
186
189
171
157
153
145
132
119
103
84
74
72
61
43
30
20
4
-13
-19
-17
-23
-42
-52
-44
-43
-54
-58
-55
-57
-43
-19
-21
-52
-83
-101
-113
-126
-136
-140
-147
-149
-139
-156
-145
94
533
744
394
-307
-830
-890
-670
-451
-271
-103
-18
-11
5
37
55
71
94
114
133
154
173
195
228
265
300
344
400
452
497
542
577
588
581
559
515
449
369
277
177
81
1
-65
-121
-165
-187
-193
-198
-199
-192
-183
-175
-163
-157
-159
-155
-147
-147
-151
-152
-151
-153
-159
-163
-162
-161
-162
-160
-157
-154
-149
-143
-140
-138
-132
-128
-126
-121
-113
-111
-112
-110
-105
-102
-98
-90
-86
-82
-70
-64
-65
-45
-10
-3
-27
-50
-60
-67
-72
-78
-74
-65
-65
-63
-55
-72
-25
262
690
831
414
-308
-789
-785
-538
-317
-132
25
86
86
103
129
145
162
179
193
212
232
252
280
311
345
389
437
481
529
582
621
642
654
645
605
546
470
370
260
159
66
-23
-94
-145
-184
-209
-218
-219
-215
-207
-204
-205
-197
-183
-175
-171
-165
-160
-161
-163
-165
-168
-174
-180
-182
-182
-184
-182
-178
-178
-180
-179
-175
-173
-170
-165
-161
-156
-151
-148
-148
-146
-143
-140
-137
-134
-132
-130
-126
-123
-122
-121
-117
-110
-107
-107
-101
-91
-87
-87
-79
-72
-70
-50
-19
-11
-30
-49
-60
-67
-74
-83
-81
-74
-75
-65
-65
-97
-27
294
703
792
343
-380
-834
-789
-515
-283
-101
25
58
66
100
126
140
159
177
193
215
237
259
283
315
358
406
450
497
556
612
651
678
689
681
649
593
515
421
315
205
108
27
-47
-108
-148
-172
-187
-191
-185
-179
-172
-160
-149
-144
-139
-132
-131
-136
-137
-135
-140
-148
-150
-148
-150
-154
-156
-155
-153
-153
-153
-150
-143
-139
-136
-136
-135
-129
-124
-121
-116
-110
-110
-109
-106
-101
-96
-92
-91
-89
-86
-83
-79
-77
-73
-69
-68
-68
-64
-59
-59
-58
-56
-54
-53
-52
-51
-48
-45
-47
-48
-44
-41
-43
-45
-43
-38
-35
-32
-28
-25
-26
-29
-28
-25
-27
-29
-27
-26
-28
-32
-34
-32
-28
-28
-24
-11
-6
-11
-11
-10
-6
17
38
22
-9
-20
-25
-29
-25
-27
-29
-14
-25
-24
183
590
810
516
-135
-660
-745
-535
-317
-148
8
87
89
101
131
142
148
162
179
198
218
235
254
278
309
350
400
447
486
530
577
607
615
611
595
561
506
432
350
263
170
84
14
-45
-101
-142
-162
-171
-174
-171
-167
-164
-160
-151
-144
-140
-136
-134
-140
-147
-145
-147
-157
-164
-163
-167
-177
-184
-186
-184
-181
-178
-178
-178
-177
-175
-172
-171
-169
-164
-160
-162
-164
-159
-155
-155
-155
-152
-148
-149
-150
-146
-143
-143
-141
-137
-136
-134
-130
-126
-124
-126
-128
-123
-113
-108
-109
-105
-100
-105
-110
-105
-102
-103
-99
-99
-100
-82
-55
-56
-82
-102
-110
-118
-123
-117
-113
-119
-114
-107
-134
-99
157
555
747
459
-202
-750
-822
-580
-342
-158
-10
46
44
65
93
110
130
147
160
182
206
227
252
287
326
371
422
478
536
592
639
677
701
702
680
638
573
483
382
281
185
99
26
-29
-65
-87
-98
-100
-92
-80
-70
-57
-37
-17
-3
11
28
41
47
56
65
69
71
70
72
78
79
78
86
91
88
88
85
63
53
65
59
46
71
106
106
92
76
35
-5
-8
4
5
-10
-34
-52
-63
-99
-189
-328
-481
-609
-714
-814
-870
-857
-836
-796
-754
-1128
-2218
-3374
-3682
-3145
-2323
-1465
-642
6
465
850
1211
1490
1599
1547
1467
1489
1654
1889
2051
2094
2050
1881
1589
1338
1212
1100
942
814
723
611
574
819
1334
1735
1566
870
217
-18
-25
-104
-388
-979
-1864
-2764
-3260
-3099
-2499
-1956
-1638
-1372
-1119
-1000
-1039
-1128
-1141
-1010
-773
-498
-225
29
240
398
500
506
407
314
352
503
611
584
481
392
324
256
197
155
125
104
97
106
123
141
157
176
192
192
183
191
211
218
213
219
226
214
194
178
170
175
180
169
157
160
161
152
141
129
123
131
135
126
121
118
98
75
63
59
60
67
74
77
69
49
25
11
2
-10
-26
-47
-57
-40
-27
-50
-87
-113
-135
-150
-157
-166
-171
-175
-182
-179
-181
-203
-118
214
598
578
-4
-728
-1060
-951
-716
-514
-321
-196
-174
-142
-47
45
114
170
179
120
33
-51
-133
-198
-216
-187
-145
-102
-49
18
92
159
192
177
148
153
228
371
518
593
590
530
398
213
69
20
14
26
135
388
763
1271
1832
2125
1907
1357
791
309
-80
-309
-395
-440
-486
-523
-553
-559
-537
-534
-556
-535
-474
-449
-469
-476
-455
-438
-423
-383
-316
-256
-228
-232
-254
-276
-293
-318
-357
-392
-389
-345
-311
-322
-346
-343
-330
-318
-294
-270
-251
-215
-181
-176
-161
-129
-152
-220
-246
-225
-205
-176
-125
-69
0
77
123
136
144
143
124
106
107
131
176
239
273
240
267
549
975
1099
641
-120
-603
-568
-296
-73
113
269
306
290
285
164
-20
42
354
550
466
257
121
149
224
174
95
148
248
313
404
481
461
385
317
268
241
208
134
40
-42
-112
-175
-229
-266
-280
-281
-287
-292
-283
-272
-265
-255
-245
-238
-225
-211
-205
-203
-203
-199
-191
-190
-200
-198
-184
-174
-166
-149
-132
-115
-86
-48
-14
16
51
86
107
114
114
107
89
63
32
-1
-27
-40
-48
-55
-61
-66
-74
-78
-75
-77
-88
-86
-71
-65
-65
-56
-51
-48
-23
6
0
-31
-51
-54
-53
-56
-59
-49
-37
-35
-21
-12
-27
75
440
823
760
169
-500
-783
-667
-442
-257
-80
55
84
69
84
112
127
137
141
145
159
175
183
191
212
242
272
305
348
399
452
499
531
546
541
513
458
379
283
181
80
-9
-82
-142
-190
-221
-238
-250
-249
-232
-216
-206
-191
-166
-146
-131
-116
-104
-96
-91
-86
-85
-84
-82
-83
-87
-91
-95
-98
-98
-96
-96
-95
-89
-83
-79
-74
-71
-72
-70
-64
-62
-64
-60
-51
-44
-36
-24
-10
0
0
-7
-12
-15
-18
-18
-17
-19
-21
-20
-20
-20
-21
-23
-23
-21
-19
-17
-18
-18
-17
-17
-22
-28
-34
-40
-41
-41
-44
-48
-46
-42
-42
-44
-46
-48
-51
-51
-50
-54
-58
-61
-64
-65
-65
-66
-68
-70
-71
-70
-68
-69
-69
-66
-64
-68
-65
-57
-55
-55
-49
-47
-37
-6
15
-2
-32
-46
-50
-58
-63
-58
-59
-59
-44
-57
-67
112
498
764
582
-6
-601
-808
-636
-378
-173
-8
75
76
82
112
133
150
171
189
209
231
246
264
296
332
367
412
466
519
575
630
672
697
705
688
649
595
519
417
308
201
96
1
-77
-139
-186
-214
-231
-241
-239
-233
-228
-223
-212
-198
-185
-174
-167
-162
-160
-160
-161
-162
-164
-167
-169
-173
-175
-172
-168
-170
-172
-170
-164
-162
-160
-155
-149
-147
-145
-139
-134
-132
-128
-122
-118
-115
-108
-101
-99
-97
-93
-92
-93
-88
-81
-79
-80
-81
-79
-75
-69
-66
-64
-61
-57
-54
-52
-53
-55
-54
-49
-45
-44
-41
-37
-35
-32
-25
-20
-20
-22
-21
-19
-20
-20
-15
-11
-14
-20
-16
-4
0
-7
-10
-8
-9
2
24
20
-11
-26
-26
-35
-39
-30
-35
-37
-21
-35
0
284
687
724
230
-402
-732
-689
-487
-295
-118
38
104
100
110
141
165
177
185
197
214
229
241
260
292
329
366
403
446
490
535
577
610
625
620
596
551
488
407
313
211
112
22
-56
-118
-163
-197
-216
-217
-215
-224
-225
-210
-198
-195
-189
-180
-173
-166
-160
-161
-166
-169
-169
-172
-177
-180
-179
-175
-171
-171
-171
-166
-163
-165
-164
-158
-155
-152
-145
-140
-141
-138
-132
-129
-130
-128
-120
-115
-115
-113
-105
-101
-100
-94
-88
-88
-84
-76
-75
-80
-76
-65
-61
-58
-47
-46
-55
-37
2
11
-16
-40
-49
-49
-49
-55
-54
-45
-43
-38
-30
-37
67
418
754
612
7
-561
-744
-628
-439
-261
-74
71
114
110
134
166
176
184
207
228
235
244
268
297
319
343
375
412
457
509
556
591
615
624
614
582
526
445
348
244
138
44
-32
-95
-146
-181
-201
-211
-213
-214
-219
-215
-199
-187
-182
-175
-168
-164
-159
-156
-158
-161
-165
-171
-178
-183
-190
-195
-194
-192
-194
-197
-195
-192
-187
-181
-176
-175
-174
-168
-161
-160
-159
-154
-150
-148
-143
-136
-136
-131
-117
-109
-110
-104
-99
-99
-80
-45
-39
-63
-83
-92
-96
-98
-100
-99
-91
-90
-91
-82
-95
-81
132
518
708
404
-230
-722
-800
-606
-388
-195
-24
58
64
81
117
137
148
164
185
207
225
245
275
308
342
382
431
485
547
611
664
703
730
732
701
643
569
471
352
231
123
31
-47
-107
-151
-178
-190
-196
-202
-200
-191
-184
-180
-170
-154
-140
-128
-118
-109
-102
-100
-103
-105
-104
-106
-109
-110
-109
-108
-109
-108
-105
-103
-102
-96
-89
-88
-86
-82
-81
-82
-82
-78
-72
-69
-69
-69
-65
-59
-54
-49
-44
-41
-38
-34
-33
-34
-32
-27
-26
-30
-28
-24
-23
-26
-28
-26
-25
-23
-20
-23
-30
-29
-24
-26
-34
-38
-42
-47
-47
-45
-44
-41
-38
-39
-42
-39
-34
-33
-32
-32
-35
-37
-39
-39
-36
-34
-36
-35
-32
-30
-29
-29
-30
-34
-39
-42
-42
-43
-45
-44
-45
-46
-45
-46
-47
-38
-29
-37
-49
-53
-53
-37
-6
1
-25
-44
-48
-56
-62
-57
-60
-65
-61
-81
-79
91
420
653
521
14
-539
-755
-610
-362
-160
-16
39
35
50
85
107
122
143
165
184
201
219
243
270
301
339
382
432
490
552
609
656
690
705
697
667
615
539
444
338
231
131
40
-40
-106
-153
-186
-208
-218
-218
-214
-215
-218
-213
-200
-183
-172
-165
-158
-151
-150
-155
-158
-160
-160
-160
-163
-164
-161
-158
-160
-163
-162
-162
-162
-160
-159
-156
-148
-139
-137
-134
-126
-118
-116
-113
-108
-103
-99
-96
-93
-91
-89
-85
-81
-78
-76
-72
-65
-61
-60
-60
-58
-55
-52
-48
-42
-40
-41
-40
-36
-33
-33
-31
-30
-31
-30
-30
-32
-32
-28
-25
-24
-22
-21
-21
-21
-21
-21
-21
-21
-19
-16
-16
-20
-20
-15
-11
-12
-13
-13
-12
-12
-13
-14
-18
-15
-2
5
-2
-10
-11
-5
16
36
24
-10
-26
-28
-36
-40
-35
-40
-42
-27
-42
-27
205
592
725
364
-241
-659
-707
-528
-322
-135
19
82
78
92
127
150
162
171
183
197
212
227
249
279
313
349
390
439
492
543
588
628
654
658
641
606
546
464
367
260
154
63
-16
-88
-146
-184
-208
-227
-239
-239
-229
-224
-220
-206
-190
-182
-174
-161
-151
-145
-144
-145
-146
-146
-149
-150
-148
-146
-148
-149
-152
-152
-148
-144
-144
-144
-144
-141
-133
-127
-124
-121
-119
-115
-109
-103
-101
-99
-95
-92
-89
-85
-82
-78
-72
-65
-63
-64
-63
-58
-54
-51
-48
-47
-48
-49
-48
-46
-44
-43
-41
-42
-46
-46
-41
-37
-38
-39
-39
-38
-40
-44
-44
-40
-39
-43
-47
-47
-47
-48
-39
-27
-28
-35
-37
-36
-25
-2
4
-22
-48
-53
-57
-64
-59
-56
-64
-54
-50
-71
34
379
697
589
54
-510
-757
-669
-455
-253
-76
34
52
52
85
114
124
135
153
171
188
203
223
251
284
318
356
402
459
519
574
621
660
681
677
646
590
513
416
306
192
83
-11
-88
-149
-197
-228
-247
-260
-266
-262
-252
-246
-240
-224
-206
-193
-179
-165
-157
-152
-148
-148
-154
-157
-151
-147
-150
-152
-148
-146
-147
-145
-140
-138
-134
-128
-122
-116
-109
-104
-99
-90
-82
-77
-74
-67
-60
-56
-53
-48
-41
-33
-29
-26
-20
-13
-7
-3
3
5
7
10
17
24
28
28
29
35
42
46
46
46
46
48
51
54
53
52
55
59
60
59
61
62
62
62
61
60
61
63
61
56
55
54
53
51
46
43
43
41
34
35
45
45
30
18
17
28
47
52
26
-9
-28
-36
-46
-49
-51
-66
-68
-69
-103
-50
237
586
617
200
-407
-806
-818
-603
-378
-198
-84
-60
-67
-51
-29
-19
