# session 8
14
63
-43
30
501
952
1030
967
983
972
894
814
710
570
435
311
191
87
6
-53
-91
-114
-124
-123
-122
-120
-111
-105
-105
-102
-97
-97
-101
-105
-109
-110
-113
-122
-128
-127
-127
-131
-133
-130
-129
-131
-132
-129
-123
-119
-120
-121
-118
-115
-115
-114
-106
-100
-102
-102
-98
-93
-91
-94
-96
-91
-87
-84
-79
-79
-80
-72
-71
-77
-54
-9
-1
-34
-59
-66
-70
-73
-77
-74
-68
-74
-75
-59
-69
-9
335
826
914
343
-459
-896
-839
-582
-355
-152
16
79
82
102
125
137
157
175
188
207
230
250
277
311
345
382
426
473
523
573
617
650
676
686
671
634
581
507
405
292
183
79
-20
-102
-157
-191
-216
-232
-233
-226
-225
-225
-218
-210
-211
-215
-212
-209
-211
-218
-221
-220
-222
-230
-234
-230
-226
-225
-222
-219
-216
-212
-207
-206
-206
-201
-193
-188
-185
-180
-174
-169
-164
-160
-156
-151
-142
-136
-136
-131
-121
-125
-117
-75
-40
-55
-85
-98
-102
-108
-108
-107
-100
-94
-93
-86
-85
-90
50
460
848
714
25
-678
-919
-748
-488
-273
-76
56
85
90
121
144
152
170
192
210
227
247
271
301
337
376
416
463
520
577
628
669
699
715
713
688
639
566
470
359
246
135
33
-54
-124
-177
-209
-220
-223
-225
-220
-209
-202
-198
-189
-183
-183
-182
-177
-177
-182
-186
-188
-192
-197
-201
-201
-201
-200
-200
-200
-197
-192
-190
-188
-185
-182
-180
-175
-170
-168
-165
-158
-152
-152
-149
-141
-136
-134
-132
-130
-126
-115
-107
-108
-104
-98
-95
-75
-37
-24
-43
-65
-78
-86
-88
-85
-81
-81
-85
-73
-69
-96
-34
254
644
774
388
-337
-853
-838
-540
-290
-107
34
79
80
107
134
146
165
183
198
219
242
262
290
327
365
407
455
507
561
618
671
711
736
741
724
685
624
538
431
313
198
93
0
-78
-137
-177
-200
-211
-213
-211
-205
-197
-190
-182
-172
-165
-161
-158
-157
-160
-161
-159
-161
-166
-169
-171
-173
-175
-175
-177
-177
-174
-169
-165
-163
-162
-160
-157
-154
-150
-147
-144
-139
-134
-131
-128
-124
-121
-119
-117
-113
-111
-111
-109
-106
-103
-101
-100
-98
-94
-89
-88
-88
-86
-83
-81
-78
-75
-75
-74
-72
-73
-73
-72
-72
-71
-67
-66
-66
-59
-54
-55
-54
-56
-57
-30
9
15
-10
-32
-43
-52
-59
-60
-56
-58
-60
-49
-58
-81
43
411
804
836
316
-456
-887
-767
-447
-212
-43
63
80
84
113
132
146
168
185
201
222
243
267
301
336
370
417
471
526
583
642
693
734
764
773
760
724
664
581
476
356
233
119
17
-71
-140
-188
-218
-234
-241
-240
-234
-225
-216
-205
-194
-189
-185
-182
-181
-182
-185
-190
-193
-194
-197
-201
-202
-204
-203
-199
-197
-195
-191
-190
-189
-180
-174
-176
-174
-169
-166
-162
-158
-151
-144
-140
-137
-132
-128
-123
-118
-117
-115
-109
-105
-104
-100
-96
-96
-94
-87
-81
-79
-80
-77
-70
-67
-70
-68
-65
-65
-65
-63
-61
-62
-61
-56
-53
-56
-58
-56
-51
-46
-49
-53
-45
-35
-39
-42
-36
-35
-20
20
41
19
-9
-22
-32
-45
-50
-45
-44
-51
-44
-42
-69
1
326
758
875
425
-345
-867
-845
-529
-246
-53
65
93
96
123
142
153
174
192
205
229
254
275
304
339
375
420
474
529
584
641
700
752
786
797
788
761
708
625
518
396
265
141
32
-61
-141
-203
-242
-259
-264
-264
-264
-260
-250
-238
-231
-225
-217
-209
-204
-207
-213
-214
-214
-221
-229
-229
-230
-233
-234
-232
-230
-228
-227
-226
-222
-218
-216
-214
-211
-208
-201
-194
-193
-190
-181
-175
-173
-168
-160
-154
-150
-146
-143
-142
-140
-135
-131
-127
-120
-116
-115
-112
-107
-104
-101
-98
-92
-84
-81
-79
-74
-71
-66
-37
1
6
-20
-45
-55
-59
-65
-68
-63
-61
-64
-55
-58
-79
40
439
885
888
267
-555
-964
-820
-478
-209
-19
88
106
115
142
158
171
194
212
231
254
273
297
334
371
407
455
509
564
626
689
742
788
824
832
811
768
704
609
485
351
222
99
-13
-103
-172
-221
-251
-264
-267
-264
-258
-253
-245
-235
-224
-215
-210
-211
-212
-209
-209
-212
-215
-217
-219
-220
-223
-223
-218
-216
-219
-214
-207
-205
-206
-203
-199
-196
-189
-183
-180
-179
-175
-171
-165
-161
-159
-156
-150
-146
-143
-140
-135
-129
-126
-126
-124
-120
-118
-116
-114
-112
-105
-94
-93
-94
-85
-81
-85
-60
-14
-2
-27
-52
-65
-70
-70
-72
-71
-64
-69
-70
-59
-64
44
469
977
960
254
-584
-952
-818
-525
-276
-63
77
106
106
133
153
161
180
203
220
236
257
285
316
346
382
425
475
532
592
647
697
743
772
773
753
716
653
562
450
329
202
84
-15
-96
-165
-211
-228
-234
-242
-238
-226
-218
-215
-211
-209
-208
-206
-205
-205
-208
-211
-214
-216
-222
-226
-225
-224
-224
-221
-218
-218
-214
-210
-210
-209
-205
-201
-197
-191
-188
-186
-182
-176
-172
-168
-164
-159
-152
-147
-145
-144
-142
-138
-136
-134
-126
-120
-122
-122
-115
-108
-87
-47
-27
-48
-78
-93
-94
-95
-100
-99
-91
-94
-93
-85
-102
-43
298
824
1037
571
-311
-929
-934
-618
-345
-138
25
78
71
93
125
142
161
182
197
216
240
265
295
330
371
417
469
525
584
643
698
745
776
786
772
737
674
581
467
343
214
93
-11
-99
-170
-219
-246
-258
-261
-258
-252
-244
-234
-225
-218
-212
-209
-207
-204
-205
-208
-211
-215
-218
-221
-223
-226
-225
-220
-217
-216
-214
-210
-206
-206
-205
-200
-195
-193
-189
-180
-175
-176
-174
-163
-152
-149
-144
-138
-138
-125
-85
-57
-71
-102
-119
-123
-124
-126
-125
-115
-108
-112
-103
-97
-97
75
533
909
683
-74
-752
-933
-739
-484
-268
-69
57
84
92
118
137
149
166
184
204
225
244
268
301
336
376
424
475
527
584
639
685
720
739
736
707
654
576
476
359
238
123
20
-68
-140
-190
-221
-235
-241
-241
-238
-229
-217
-210
-205
-200
-195
-193
-191
-190
-192
-197
-199
-201
-207
-214
-212
-205
-205
-209
-207
-202
-199
-199
-198
-194
-191
-188
-184
-177
-172
-169
-165
-163
-162
-155
-142
-139
-139
-135
-136
-128
-90
-55
-61
-87
-102
-112
-116
-113
-115
-114
-106
-108
-105
-93
-107
-50
276
757
907
426
-383
-903
-880
-593
-342
-140
21
80
81
104
131
141
154
175
195
218
243
266
290
324
366
411
462
518
573
628
690
738
755
757
746
708
640
548
434
308
187
73
-27
-104
-160
-199
-221
-228
-227
-223
-216
-207
-197
-187
-174
-161
-157
-160
-155
-145
-142
-144
-145
-150
-159
-166
-174
-186
-195
-201
-206
-212
-217
-217
-212
-210
-209
-205
-197
-197
-199
-188
-172
-165
-164
-160
-157
-153
-149
-146
-142
-136
-134
-132
-127
-122
-118
-116
-110
-100
-96
-100
-99
-95
-92
-69
-28
-12
-30
-49
-60
-69
-75
-81
-79
-76
-83
-79
-67
-92
-81
154
604
941
759
20
-738
-945
-684
-386
-176
-4
76
74
89
124
139
152
170
185
207
234
255
279
315
356
399
447
502
561
619
675
728
768
784
777
749
692
609
510
392
260
138
33
-60
-137
-189
-221
-241
-250
-250
-246
-243
-238
-229
-215
-204
-199
-197
-192
-189
-191
-195
-199
-205
-207
-208
-211
-213
-210
-206
-205
-204
-202
-201
-201
-199
-195
-189
-182
-176
-173
-171
-166
-160
-156
-153
-150
-146
-140
-135
-132
-130
-128
-125
-120
-115
-110
-110
-106
-94
-87
-90
-87
-81
-81
-60
-18
-1
-25
-52
-64
-69
-70
-69
-69
-64
-65
-67
-54
-55
-66
93
517
885
724
25
-670
-877
-677
-420
-221
-36
80
99
106
133
149
163
184
199
210
231
259
284
309
344
385
426
474
528
581
632
680
714
727
721
697
650
579
485
372
254
147
48
-44
-118
-171
-206
-228
-239
-239
-232
-222
-212
-202
-195
-190
-185
-179
-177
-178
-176
-172
-178
-190
-195
-194
-195
-199
-202
-203
-203
-201
-199
-196
-195
-195
-193
-187
-185
-184
-177
-169
-169
-169
-163
-158
-159
-158
-154
-150
-147
-145
-140
-130
-125
-124
-119
-117
-118
-109
-98
-98
-99
-98
-100
-83
-41
-24
-47
-71
-79
-87
-92
-92
-92
-92
-91
-90
-79
-83
-106
-7
337
726
750
239
-480
-872
-776
-488
-257
-78
47
79
82
107
128
142
165
184
197
219
249
276
306
341
380
425
479
535
594
655
710
748
772
783
767
720
652
560
446
325
206
92
-4
-77
-132
-173
-195
-206
-211
-209
-201
-191
-180
-170
-161
-151
-138
-131
-132
-133
-128
-125
-131
-136
-139
-142
-145
-146
-149
-149
-146
-146
-149
-147
-144
-143
-139
-134
-133
-131
-126
-124
-122
-114
-107
-108
-109
-104
-98
-95
-91
-89
-94
-96
-90
-89
-93
-90
-84
-81
-82
-82
-81
-81
-80
-74
-69
-69
-65
-63
-63
-58
-50
-51
-52
-44
-39
-45
-48
-47
-50
-53
-50
-50
-51
-51
-50
-48
-48
-53
-57
-55
-53
-56
-55
-52
-54
-54
-48
-47
-50
-47
-49
-49
-22
18
22
-5
-28
-42
-53
-58
-58
-58
-63
-63
-54
-70
-79
86
489
848
755
136
-586
-886
-711
-405
-172
-8
70
73
82
112
127
140
165
184
198
218
242
265
293
328
370
417
471
529
590
651
707
752
782
792
778
739
676
587
478
354
226
107
3
-85
-157
-206
-236
-255
-262
-257
-252
-249
-239
-228
-221
-214
-204
-196
-195
-196
-200
-203
-204
-204
-209
-213
-214
-212
-207
-200
-200
-207
-205
-196
-194
-198
-195
-188
-182
-176
-173
-170
-163
-154
-148
-143
-137
-132
-128
-124
-119
-114
-110
-109
-105
-99
-95
-93
-89
-86
-82
-78
-74
-69
-64
-60
-58
-57
-56
-52
-48
-48
-51
-51
-47
-44
-42
-41
-38
-38
-38
-35
-32
-35
-35
-29
-27
-29
-20
-7
-13
-25
-22
-18
-12
14
35
16
-15
-23
-25
-33
-31
-24
-33
-32
-21
-43
19
367
829
888
341
-412
-829
-765
-494
-263
-79
62
106
101
123
149
160
176
192
200
213
234
256
282
316
352
391
432
479
532
589
643
688
717
727
719
688
629
548
449
337
219
108
6
-83
-153
-202
-235
-254
-259
-257
-253
-247
-240
-230
-221
-215
-211
-207
-204
-203
-204
-206
-208
-211
-213
-214
-214
-217
-220
-218
-216
-217
-214
-207
-203
-201
-199
-198
-193
-186
-181
-175
-170
-166
-163
-158
-154
-151
-149
-145
-140
-136
-131
-128
-127
-123
-116
-112
-112
-108
-98
-94
-90
-81
-84
-89
-60
-17
-15
-45
-63
-68
-74
-76
-75
-72
-68
-72
-66
-53
-67
-3
333
777
815
250
-489
-864
-782
-527
-307
-111
52
112
113
133
159
171
185
201
215
235
260
282
306
338
375
416
464
519
577
631
683
727
756
765
752
713
647
557
447
325
202
89
-9
-92
-157
-200
-225
-240
-246
-243
-238
-232
-221
-209
-201
-196
-191
-187
-180
-177
-182
-186
-186
-193
-202
-204
-200
-201
-205
-206
-204
-202
-201
-200
-197
-192
-188
-186
-183
-180
-178
-174
-168
-163
-161
-158
-154
-150
-147
-146
-143
-140
-137
-136
-133
-128
-125
-121
-114
-109
-109
-107
-102
-103
-87
-45
-20
-35
-58
-70
-80
-90
-93
-89
-82
-83
-88
-77
-80
-93
46
441
834
785
176
-573
-912
-762
-469
-241
-54
64
83
87
119
142
154
174
193
210
232
257
282
313
350
391
441
496
553
613
675
732
778
807
815
797
751
679
581
460
328
202
89
-13
-96
-156
-199
-226
-234
-234
-234
-231
-221
-206
-196
-188
-180
-170
-164
-163
-163
-164
-166
-168
-169
-173
-176
-176
-176
-176
-174
-170
-167
-168
-166
-162
-158
-156
-153
-149
-145
-142
-139
-134
-129
-127
-125
-121
-117
-112
-107
-104
-104
-103
-101
-98
-95
-94
-92
-91
-88
-85
-83
-82
-80
-75
-73
-74
-72
-70
-70
-69
-67
-67
-67
-66
-65
-66
-66
-64
-62
-61
-61
-62
-60
-59
-60
-58
-59
-59
-52
-49
-53
-48
-43
-47
-29
10
22
-4
-27
-39
-49
-55
-58
-56
-57
-64
-57
-54
-81
-1
350
785
852
353
-400
-864
-813
-506
-238
-54
57
84
86
110
132
147
169
187
202
222
245
268
296
329
370
418
469
522
581
643
703
754
790
806
802
773
719
637
530
406
278
157
46
-50
-126
-181
-221
-244
-249
-249
-249
-245
-235
-222
-213
-204
-195
-187
-183
-181
-183
-188
-190
-190
-191
-195
-198
-197
-197
-198
-197
-193
-189
-187
-185
-183
-180
-175
-170
-167
-161
-153
-148
-145
-141
-136
-130
-127
-125
-119
-113
-111
-108
-104
-102
-98
-92
-90
-92
-90
-85
-79
-74
-71
-72
-72
-69
-66
-65
-65
-64
-60
-57
-59
-63
-61
-55
-52
-51
-51
-52
-54
-51
-49
-50
-43
-30
-33
-45
-46
-45
-39
-14
8
-11
-46
-56
-57
-67
-64
-57
-67
-64
-58
-82
9
391
819
782
177
-538
-867
-756
-496
-282
-102
29
66
65
85
106
118
132
146
162
183
203
224
251
283
319
359
405
455
511
566
615
656
686
698
688
654
601
527
428
316
201
90
-8
-90
-156
-205
-233
-247
-251
-247
-240
-234
-224
-212
-205
-199
-191
-184
-178
-176
-176
-175
-173
-173
-176
-176
-173
-171
-169
-165
-159
-152
-149
-145
-137
-130
-124
-117
-111
-105
-99
-91
-85
-78
-71
-64
-60
-55
-50
-45
-40
-36
-33
-31
-25
-16
-8
-4
-1
2
8
14
