# session 21
-41
-56
-27
25
-19
-148
-200
-166
-159
-174
-167
-161
-163
-157
-153
-155
-153
-145
-142
-140
-136
-133
-131
-126
-121
-124
-124
-116
-113
-104
-71
-41
-50
-76
-91
-102
-108
-108
-113
-113
-102
-105
-104
-92
-117
-67
293
848
1081
661
-176
-829
-905
-607
-337
-162
-15
48
44
62
92
104
122
144
159
180
208
233
260
293
328
366
413
465
518
571
622
664
693
707
703
678
634
566
474
366
252
143
39
-54
-127
-178
-213
-232
-237
-237
-235
-228
-219
-214
-212
-211
-210
-209
-209
-214
-219
-222
-224
-228
-229
-227
-227
-227
-225
-222
-219
-215
-208
-202
-199
-195
-191
-186
-182
-178
-173
-168
-163
-155
-151
-148
-142
-133
-129
-128
-123
-119
-120
-124
-122
-116
-113
-114
-109
-106
-110
-92
-50
-33
-55
-79
-89
-96
-97
-95
-97
-94
-90
-91
-80
-79
-93
70
537
958
842
181
-547
-870
-734
-448
-232
-64
56
85
85
112
135
146
165
186
205
224
246
271
302
336
373
414
461
511
562
613
660
697
717
721
708
674
618
540
441
331
223
120
24
-60
-126
-169
-192
-203
-210
-212
-209
-203
-197
-193
-192
-190
-188
-188
-190
-191
-194
-198
-202
-207
-212
-214
-215
-215
-214
-212
-212
-210
-205
-200
-198
-195
-191
-188
-183
-177
-173
-170
-167
-164
-161
-158
-155
-151
-146
-142
-139
-136
-134
-131
-127
-124
-123
-119
-116
-114
-108
-101
-102
-100
-92
-89
-77
-42
-15
-26
-52
-69
-78
-83
-84
-85
-81
-78
-83
-75
-75
-103
7
426
926
1012
477
-349
-870
-818
-490
-233
-69
43
75
76
100
124
138
158
176
191
214
240
266
294
329
369
412
460
513
568
623
674
716
744
755
747
718
667
592
493
379
261
147
42
-50
-126
-181
-214
-229
-234
-235
-232
-226
-221
-215
-209
-207
-207
-205
-202
-205
-212
-215
-215
-221
-228
-230
-228
-228
-228
-225
-222
-220
-215
-209
-205
-203
-199
-195
-191
-187
-180
-175
-172
-168
-163
-158
-152
-146
-142
-141
-139
-135
-132
-129
-124
-120
-118
-114
-108
-105
-104
-100
-95
-94
-92
-86
-83
-81
-73
-68
-66
-42
-8
-5
-32
-54
-60
-63
-66
-71
-66
-59
-65
-62
-50
-74
-1
397
931
1043
505
-304
-819
-813
-524
-268
-91
43
92
88
108
139
150
162
180
197
218
241
263
290
324
360
398
442
488
538
591
638
673
700
713
707
679
632
563
473
369
261
153
54
-33
-108
-165
-196
-212
-223
-227
-224
-220
-216
-211
-209
-210
-209
-208
-210
-214
-221
-227
-230
-233
-237
-238
-239
-240
-237
-234
-232
-229
-224
-221
-220
-216
-210
-206
-204
-200
-194
-188
-183
-180
-175
-169
-165
-161
-154
-149
-148
-145
-143
-138
-129
-124
-122
-115
-109
-106
-81
-43
-36
-62
-84
-93
-95
-93
-95
-95
-86
-88
-93
-79
-89
-65
227
756
1026
662
-121
-763
-892
-637
-351
-156
-3
77
84
97
125
141
156
177
195
213
235
258
285
318
353
392
437
487
538
591
642
685
715
730
726
699
651
583
491
379
263
153
52
-41
-117
-172
-205
-223
-231
-233
-228
-222
-216
-208
-202
-200
-200
-199
-200
-204
-207
-211
-216
-220
-221
-222
-223
-224
-224
-223
-223
-221
-217
-212
-209
-205
-200
-195
-192
-190
-185
-179
-176
-172
-167
-163
-159
-155
-151
-147
-144
-141
-135
-127
-125
-124
-117
-112
-103
-72
-38
-41
-68
-88
-97
-101
-100
-101
-100
-92
-94
-94
-87
-108
-45
325
874
1066
582
-278
-882
-899
-574
-286
-104
26
73
74
96
123
134
151
174
192
213
238
263
291
326
363
405
453
507
562
617
668
711
741
754
745
716
664
586
484
367
247
132
27
-65
-140
-193
-223
-237
-242
-242
-238
-231
-223
-216
-212
-209
-208
-208
-210
-213
-216
-218
-222
-225
-228
-231
-234
-234
-231
-228
-224
-221
-217
-213
-212
-210
-204
-198
-194
-190
-185
-181
-178
-173
-167
-162
-158
-154
-149
-147
-146
-142
-134
-128
-127
-121
-112
-109
-97
-62
-32
-42
-70
-86
-93
-96
-98
-100
-97
-93
-98
-94
-83
-97
8
444
978
1020
383
-455
-906
-830
-526
-271
-88
39
80
82
104
127
139
157
176
189
212
241
266
291
322
359
402
448
496
549
602
649
684
707
714
701
668
613
534
434
325
214
107
8
-77
-143
-183
-206
-222
-230
-227
-221
-215
-211
-209
-206
-204
-206
-207
-211
-218
-224
-224
-227
-232
-234
-233
-232
-230
-226
-223
-222
-220
-218
-215
-210
-205
-201
-198
-193
-187
-184
-181
-176
-172
-166
-153
-146
-145
-140
-136
-135
-110
-69
-58
-82
-104
-114
-120
-120
-118
-120
-114
-104
-107
-100
-92
-105
38
504
970
882
197
-568
-917
-798
-507
-268
-83
42
75
78
103
126
139
160
180
196
217
240
264
293
326
363
407
456
507
559
608
651
684
704
708
690
650
587
501
397
286
176
72
-21
-101
-160
-194
-210
-218
-222
-218
-212
-207
-202
-197
-193
-193
-194
-198
-201
-204
-207
-212
-217
-220
-220
-221
-222
-223
-222
-221
-219
-215
-210
-207
-204
-200
-196
-193
-189
-184
-181
-180
-175
-171
-168
-164
-158
-153
-150
-141
-134
-134
-133
-125
-119
-105
-71
-43
-53
-81
-97
-105
-109
-108
-110
-109
-101
-102
-100
-86
-105
-87
203
746
1067
743
-79
-794
-944
-659
-348
-145
4
74
77
95
126
137
152
178
198
215
238
264
293
326
364
406
453
505
560
614
665
710
742
757
752
728
679
606
510
396
276
161
57
-36
-113
-166
-199
-216
-221
-219
-216
-212
-203
-196
-192
-188
-184
-184
-187
-191
-195
-198
-202
-205
-209
-212
-213
-213
-213
-212
-209
-206
-204
-200
-194
-192
-191
-186
-182
-179
-176
-170
-166
-163
-159
-154
-149
-146
-142
-139
-133
-129
-128
-127
-124
-121
-117
-112
-108
-107
-105
-102
-99
-94
-90
-89
-84
-77
-78
-82
-73
-66
-64
-37
0
-2
-34
-54
-61
-67
-68
-70
-72
-67
-68
-69
-59
-81
-45
289
846
1093
668
-168
-804
-882
-587
-295
-110
22
80
80
95
123
139
156
176
193
214
237
259
285
319
355
395
439
489
540
591
638
680
711
725
720
695
651
587
496
389
280
173
68
-24
-99
-156
-192
-210
-220
-226
-224
-217
-212
-208
-204
-200
-197
-199
-206
-212
-215
-219
-224
-230
-236
-237
-235
-235
-235
-233
-230
-226
-225
-223
-216
-207
-207
-207
-201
-194
-190
-185
-180
-176
-169
-161
-158
-157
-152
-145
-141
-140
-139
-135
-130
-127
-125
-123
-115
-104
-100
-96
-88
-89
-84
-49
-17
-29
-61
-76
-82
-85
-83
-86
-86
-79
-83
-81
-65
-81
-16
370
899
995
442
-347
-833
-825
-547
-288
-104
36
92
93
113
139
149
165
188
205
224
248
272
297
327
365
409
454
500
551
603
649
685
710
718
706
672
616
539
445
338
227
123
27
-59
-126
-171
-198
-213
-218
-215
-209
-204
-199
-194
-191
-188
-184
-185
-190
-196
-199
-203
-208
-212
-215
-218
-219
-219
-217
-215
-212
-210
-208
-205
-201
-198
-196
-193
-188
-182
-178
-175
-171
-166
-162
-159
-154
-151
-147
-142
-138
-137
-135
-133
-130
-126
-124
-123
-117
-107
-104
-104
-97
-91
-86
-59
-24
-21
-49
-71
-80
-85
-85
-86
-86
-81
-84
-85
-71
-87
-87
164
693
1064
822
38
-718
-936
-681
-365
-159
-4
78
81
92
123
139
155
178
195
213
238
263
290
324
361
401
447
499
552
607
661
706
739
758
757
731
683
615
521
407
288
173
66
-30
-108
-166
-206
-226
-232
-233
-230
-223
-215
-207
-201
-196
-191
-188
-190
-194
-198
-201
-205
-209
-213
-216
-217
-217
-218
-216
-212
-211
-210
-207
-202
-197
-193
-189
-187
-184
-180
-177
-171
-164
-160
-157
-153
-149
-144
-138
-135
-135
-133
-131
-127
-123
-121
-119
-113
-105
-101
-102
-101
-97
-93
-91
-91
-90
-82
-75
-74
-72
-68
-71
-61
-22
7
-8
-39
-55
-61
-63
-64
-70
-67
-61
-66
-58
-52
-73
54
515
1025
1025
382
-440
-872
-771
-458
-216
-48
65
91
92
120
141
150
170
192
208
229
253
278
306
340
377
417
466
518
569
618
667
703
723
730
721
685
627
550
452
337
222
116
16
-72
-141
-188
-216
-230
-233
-230
-226
-221
-214
-209
-206
-202
-198
-198
-200
-203
-208
-213
-216
-221
-226
-227
-226
-227
-227
-225
-223
-222
-219
-215
-212
-210
-206
-202
-197
-192
-187
-182
-178
-175
-169
-162
-159
-156
-151
-146
-143
-141
-139
-134
-130
-127
-125
-122
-119
-116
-113
-106
-97
-93
-91
-84
-79
-74
-49
-14
-11
-38
-60
-69
-73
-77
-81
-78
-73
-79
-76
-62
-87
-66
222
718
976
636
-151
-815
-925
-622
-306
-104
35
93
96
114
140
153
170
191
207
226
248
271
300
335
372
411
458
509
562
617
669
716
751
767
760
733
685
611
510
394
275
160
50
-46
-120
-176
-214
-233
-239
-238
-235
-232
-227
-219
-209
-202
-197
-194
-195
-197
-199
-204
-209
-210
-212
-217
-219
-216
-214
-216
-216
-214
-210
-206
-206
-207
-203
-198
-194
-189
-183
-179
-178
-175
-169
-164
-159
-155
-151
-148
-147
-144
-141
-137
-134
-131
-129
-127
-125
-117
-111
-110
-105
-95
-90
-74
-39
-20
-38
-67
-83
-90
-92
-96
-100
-95
-93
-97
-87
-93
-108
77
585
1052
942
206
-621
-965
-773
-429
-186
-25
67
82
89
118
136
148
171
192
210
233
258
285
314
350
394
442
493
547
604
660
710
750
773
776
757
714
647
553
437
314
195
81
-22
-107
-172
-217
-240
-247
-249
-247
-241
-234
-229
-221
-213
-212
-215
-217
-217
-218
-222
-226
-229
-231
-235
-236
-233
-230
-228
-227
-225
-221
-215
-212
-212
-209
-203
-197
-192
-187
-183
-178
-174
-172
-166
-159
-154
-151
-146
-142
-138
-136
-135
-131
-122
-113
-111
-108
-99
-96
-88
-56
-24
-31
-61
-78
-84
-89
-88
-90
-90
-82
-83
-82
-67
-80
-14
377
939
1064
491
-342
-849
-845
-570
-310
-120
28
90
89
106
136
148
160
182
200
215
237
262
288
321
358
397
440
491
543
588
631
670
697
706
693
662
608
531
433
324
215
111
12
-74
-139
-180
-207
-220
-222
-219
-217
-215
-213
-208
-203
-200
-200
-202
-206
-211
-215
-219
-223
-226
-227
-227
-227
-227
-227
-224
-219
-214
-211
-212
-210
-204
-200
-198
-195
-192
-187
-182
-177
-172
-168
-163
-158
-153
-151
-149
-140
-132
-132
-127
-119
-118
-103
-65
-40
-56
-84
-96
-101
-104
-103
-103
-100
-92
-94
-92
-78
-95
-46
314
871
1067
583
-254
-843
-889
-602
-326
-136
14
83
85
101
129
144
162
184
199
217
243
269
297
330
367
408
455
506
560
615
665
705
731
741
730
695
638
559
458
342
225
117
18
-71
-140
-184
-208
-223
-228
-225
-219
-213
-206
-199
-195
-193
-194
-195
-196
-199
-202
-206
-212
-217
-217
-218
-218
-218
-216
-215
-212
-210
-208
-206
-202
-198
-195
-189
-184
-183
-181
-173
-167
-165
-163
-157
-153
-149
-145
-141
-139
-137
-136
-133
-129
-126
-123
-119
-117
-111
-103
-102
-101
-94
-89
-73
-37
-16
-34
-60
-72
-80
-84
-85
-87
-85
-83
-85
-74
-80
-102
48
506
970
936
285
-533
-932
-784
-452
-211
-42
63
82
85
116
137
149
170
190
206
227
252
278
308
345
386
431
479
534
592
645
692
731
755
760
745
708
647
559
450
332
216
106
5
-81
-147
-193
-220
-232
-237
-236
-230
-221
-212
-206
-200
-197
-196
-196
-197
-202
-204
-204
-207
-212
-214
-217
-220
-217
-213
-214
-216
-211
-203
-199
-196
-191
-188
-186
-181
-175
-169
-164
-159
-154
-149
-147
-143
-137
-132
-130
-127
-122
-120
-119
-115
-109
-107
-104
-98
-96
-97
-95
-85
-77
-78
-75
-66
-65
-58
-24
4
-9
-38
-54
-62
-65
-66
-71
-68
-63
-68
-62
-60
-80
56
527
1033
999
315
-508
-906
-780
-463
-217
-45
64
90
92
116
137
150
170
186
199
220
243
268
299
333
367
408
456
506
557
610
656
689
709
713
694
654
594
511
407
294
182
74
-24
-108
-175
-218
-241
-254
-261
-258
-251
-249
-249
-246
-242
-238
-237
-239
-244
-247
-249
-255
-263
-269
-270
-268
-267
-265
-263
-260
-259
-258
-255
-251
-246
-243
-240
-238
-231
-224
-218
-214
-209
-204
-199
-194
-188
-181
-176
-173
-170
-162
-153
-151
-148
-137
-133
-126
-92
-55
-58
-86
-103
-108
-110
-107
-104
-101
-89
-87
-92
-75
-76
-64
203
749
1064
706
-92
-733
-877
-648
-360
-146
20
115
129
140
170
188
202
225
249
269
292
318
346
378
417
461
506
556
613
668
717
760
790
802
797
771
720
644
549
439
326
216
112
24
-46
-95
-124
-136
-143
-144
-138
-130
-123
-119
-115
-114
-115
-114
-115
-119
-127
-133
-136
-140
-144
-147
-151
-153
-155
-157
-156
-155
-154
-153
-151
-152
-154
-154
-153
-153
-151
-151
-151
-151
-151
-151
-151
-151
-151
-150
-151
-154
-157
-158
-158
-158
-161
-164
-162
-158
-163
-169
-166
-166
-161
-130
-102
-116
-153
-177
-189
-196
-200
-207
-210
-207
-215
-218
-213
-239
-168
223
757
872
316
-528
-1056
-1028
-712
-439
-257
-129
-86
-88
-65
-38
-28
-11
12
30
51
77
104
137
174
214
261
314
371
432
494
550
596
628
642
636
610
561
486
388
279
168
64
-28
-104
-163
-199
-215
-216
-207
-191
-171
-151
-128
-104
-81
-61
-43
-26
-9
8
