# session 16
14
33
3
-8
104
268
333
331
362
411
447
492
547
598
653
711
759
791
808
810
791
745
674
580
470
353
240
133
40
-38
-98
-137
-157
-165
-166
-164
-161
-154
-145
-141
-137
-133
-132
-133
-135
-137
-141
-145
-148
-155
-161
-162
-160
-162
-165
-165
-162
-160
-160
-158
-156
-156
-155
-152
-149
-147
-143
-139
-138
-139
-135
-130
-127
-121
-117
-115
-110
-108
-110
-89
-48
-31
-54
-82
-94
-99
-103
-105
-107
-101
-96
-101
-94
-91
-107
17
429
861
825
219
-534
-920
-819
-529
-295
-111
24
61
61
85
108
118
137
156
170
190
214
238
266
298
336
381
430
483
540
595
644
684
707
708
690
650
585
494
385
267
154
49
-48
-128
-184
-222
-247
-258
-259
-257
-252
-242
-233
-225
-216
-208
-204
-203
-201
-201
-202
-205
-209
-213
-216
-219
-219
-218
-217
-215
-213
-210
-207
-203
-199
-198
-196
-189
-183
-182
-179
-169
-160
-158
-156
-146
-137
-128
-101
-66
-62
-83
-104
-118
-126
-126
-126
-129
-124
-122
-125
-111
-114
-129
28
469
904
864
221
-599
-996
-845
-521
-277
-86
35
57
61
94
116
127
146
167
185
208
232
257
289
330
373
420
470
527
587
647
702
743
766
767
747
702
628
527
407
281
159
49
-48
-129
-189
-225
-245
-254
-255
-253
-249
-242
-232
-224
-218
-212
-204
-199
-199
-203
-206
-207
-209
-213
-217
-218
-218
-220
-221
-220
-215
-212
-211
-207
-203
-201
-198
-192
-187
-183
-181
-178
-171
-161
-158
-157
-151
-144
-130
-97
-63
-61
-86
-110
-122
-127
-128
-130
-133
-127
-117
-122
-120
-106
-128
-108
179
712
1045
743
-94
-849
-1018
-732
-408
-179
-8
63
63
83
117
131
146
169
188
209
234
259
290
327
365
408
460
518
577
637
696
746
783
803
798
767
712
627
512
383
255
134
22
-75
-150
-202
-234
-250
-256
-255
-251
-245
-236
-226
-219
-214
-211
-207
-202
-200
-201
-207
-211
-213
-215
-218
-219
-218
-217
-214
-211
-209
-206
-201
-195
-191
-188
-185
-181
-176
-172
-168
-165
-161
-157
-150
-141
-135
-131
-129
-124
-119
-118
-116
-110
-106
-105
-105
-104
-97
-84
-79
-79
-73
-70
-71
-49
-9
1
-24
-49
-63
-75
-80
-76
-77
-82
-82
-83
-80
-64
-76
-34
292
820
1018
550
-263
-819
-857
-600
-347
-147
21
96
96
109
138
155
170
190
207
222
243
268
294
323
357
400
446
492
542
597
652
695
722
733
728
704
658
587
494
386
276
171
67
-27
-96
-146
-184
-207
-211
-210
-209
-205
-198
-195
-192
-187
-184
-186
-188
-190
-194
-200
-207
-212
-215
-216
-218
-219
-220
-219
-216
-212
-209
-209
-207
-203
-200
-197
-193
-188
-184
-183
-180
-174
-167
-164
-162
-159
-153
-149
-146
-143
-140
-138
-137
-134
-131
-126
-123
-120
-119
-116
-115
-113
-106
-99
-98
-93
-87
-89
-75
-32
-6
-28
-60
-74
-79
-83
-81
-85
-88
-81
-79
-84
-72
-75
-91
72
525
950
859
186
-590
-929
-776
-476
-238
-47
69
88
92
122
144
159
178
193
210
233
256
283
316
350
387
436
488
540
596
654
703
742
767
773
757
721
661
574
468
355
241
131
33
-49
-116
-163
-189
-201
-206
-203
-196
-187
-178
-171
-165
-160
-157
-158
-160
-164
-168
-173
-178
-181
-182
-183
-185
-187
-187
-185
-183
-182
-180
-176
-173
-169
-164
-159
-155
-151
-149
-146
-141
-137
-131
-125
-121
-119
-116
-113
-108
-103
-98
-95
-94
-93
-90
-86
-83
-82
-80
-78
-76
-73
-67
-63
-63
-61
-57
-55
-55
-52
-52
-54
-54
-53
-53
-55
-57
-58
-58
-58
-60
-61
-59
-58
-60
-58
-56
-58
-56
-45
-45
-52
-48
-41
-38
-15
23
27
-4
-31
-42
-49
-53
-57
-56
-52
-58
-61
-47
-65
-56
204
707
1006
709
-55
-742
-916
-665
-359
-147
6
74
74
88
117
131
145
166
183
201
223
245
273
308
345
387
436
485
537
596
656
705
741
765
769
750
708
645
561
456
338
219
108
9
-78
-150
-200
-230
-245
-250
-249
-246
-242
-236
-228
-219
-214
-214
-212
-211
-214
-221
-226
-229
-232
-237
-240
-239
-236
-235
-234
-230
-225
-222
-222
-220
-213
-206
-204
-202
-196
-189
-183
-177
-173
-171
-166
-157
-151
-150
-148
-143
-137
-132
-128
-126
-124
-120
-115
-111
-107
-102
-98
-95
-90
-86
-83
-79
-78
-77
-70
-64
-66
-63
-56
-60
-56
-17
21
10
-25
-46
-52
-53
-52
-56
-59
-51
-51
-51
-36
-49
2
350
874
1010
477
-327
-826
-830
-574
-326
-126
38
110
112
128
157
171
187
204
217
236
257
279
306
340
373
412
460
510
561
615
666
706
737
752
746
716
664
591
495
383
268
155
53
-37
-114
-171
-204
-220
-228
-229
-225
-219
-213
-206
-202
-201
-197
-195
-199
-201
-202
-206
-213
-217
-218
-221
-223
-223
-224
-222
-219
-220
-220
-216
-208
-203
-202
-201
-198
-193
-188
-185
-182
-178
-175
-170
-164
-161
-158
-154
-151
-147
-142
-139
-136
-132
-130
-128
-122
-119
-120
-118
-114
-107
-97
-93
-93
-86
-83
-79
-50
-9
-9
-40
-62
-70
-78
-82
-85
-84
-77
-78
-80
-70
-89
-81
178
692
1018
739
-40
-760
-955
-701
-386
-167
-3
80
86
100
132
148
163
186
206
223
246
273
302
335
372
417
468
522
578
638
698
749
788
812
814
790
740
665
565
446
318
194
81
-19
-103
-167
-212
-237
-247
-246
-243
-237
-230
-221
-212
-204
-199
-194
-193
-195
-198
-198
-198
-201
-206
-208
-209
-210
-213
-213
-209
-206
-203
-199
-195
-191
-188
-185
-181
-177
-173
-167
-163
-160
-155
-151
-149
-145
-140
-135
-133
-131
-127
-124
-122
-119
-115
-113
-112
-108
-103
-99
-99
-98
-94
-90
-89
-86
-81
-79
-79
-80
-80
-75
-69
-69
-68
-62
-61
-49
-11
17
1
-31
-48
-57
-62
-64
-68
-67
-60
-65
-62
-55
-77
15
431
958
1030
432
-412
-899
-837
-522
-257
-70
55
90
89
115
140
150
169
189
204
224
249
273
301
336
376
421
471
524
581
637
691
737
769
783
776
745
688
606
504
389
269
150
40
-53
-129
-189
-229
-247
-253
-255
-249
-238
-230
-227
-225
-220
-214
-213
-216
-218
-217
-220
-228
-234
-235
-235
-237
-237
-232
-229
-229
-227
-223
-221
-218
-211
-206
-206
-203
-196
-190
-187
-183
-178
-174
-168
-159
-155
-153
-148
-143
-143
-139
-133
-130
-128
-123
-119
-116
-113
-111
-107
-98
-89
-88
-84
-79
-82
-73
-35
-7
-22
-52
-67
-73
-73
-71
-75
-75
-68
-73
-70
-57
-64
54
490
969
910
229
-537
-884
-781
-512
-278
-84
57
102
105
127
150
163
181
200
214
233
258
284
312
342
378
422
472
522
574
628
680
723
749
757
745
709
649
566
463
346
229
119
18
-72
-141
-187
-214
-227
-233
-235
-230
-221
-214
-211
-206
-202
-202
-203
-203
-207
-210
-211
-215
-221
-224
-225
-227
-226
-223
-223
-223
-220
-217
-215
-212
-206
-203
-202
-198
-192
-188
-186
-182
-178
-175
-170
-165
-160
-156
-150
-148
-147
-144
-142
-136
-127
-122
-123
-116
-109
-102
-74
-38
-36
-64
-86
-96
-100
-100
-102
-103
-95
-95
-94
-81
-97
-78
203
737
1052
726
-94
-807
-963
-689
-378
-165
-1
80
85
97
126
142
159
183
200
219
242
265
293
327
365
410
461
516
575
636
694
744
781
800
796
770
718
637
532
410
282
158
45
-52
-130
-189
-227
-248
-257
-256
-253
-247
-239
-229
-220
-214
-209
-205
-205
-205
-205
-207
-211
-216
-218
-218
-220
-223
-224
-223
-222
-220
-216
-211
-207
-205
-204
-201
-197
-193
-189
-185
-180
-176
-173
-168
-163
-159
-155
-149
-145
-144
-141
-136
-134
-132
-129
-127
-120
-110
-107
-105
-98
-92
-76
-41
-20
-39
-67
-80
-90
-97
-95
-94
-93
-89
-91
-87
-85
-105
1
434
970
1036
409
-468
-956
-871
-539
-264
-72
49
79
82
110
134
146
167
188
206
227
252
279
312
350
391
438
491
545
602
665
725
771
800
812
802
766
704
616
504
375
245
125
16
-76
-149
-200
-229
-243
-247
-245
-242
-236
-225
-213
-206
-202
-200
-200
-202
-202
-204
-207
-212
-218
-223
-222
-219
-218
-220
-220
-215
-210
-209
-207
-204
-202
-199
-193
-188
-183
-179
-175
-172
-166
-161
-157
-154
-149
-142
-136
-135
-134
-132
-128
-125
-119
-115
-113
-109
-107
-105
-102
-98
-94
-88
-82
-79
-70
-67
-71
-53
-13
-2
-29
-54
-62
-68
-72
-73
-72
-67
-70
-76
-60
-58
-55
179
709
1067
759
-50
-730
-893
-679
-414
-203
-21
81
92
97
125
144
158
176
192
209
230
256
283
311
343
382
428
475
524
576
630
676
707
725
728
708
664
601
515
410
296
183
76
-20
-99
-157
-195
-217
-229
-233
-229
-224
-221
-214
-207
-204
-205
-203
-201
-205
-211
-213
-216
-222
-228
-228
-226
-226
-227
-226
-224
-221
-217
-212
-211
-210
-206
-201
-197
-194
-190
-185
-179
-173
-169
-166
-160
-154
-152
-148
-142
-141
-140
-130
-123
-120
-113
-110
-111
-85
-41
-34
-63
-86
-93
-97
-97
-96
-96
-88
-84
-91
-81
-76
-80
90
550
944
768
52
-654
-902
-740
-476
-258
-64
63
90
94
122
145
157
175
193
210
232
254
279
311
347
384
429
480
532
585
638
684
717
736
739
719
672
601
510
404
289
174
67
-28
-105
-164
-202
-220
-224
-224
-221
-216
-208
-200
-195
-192
-188
-184
-183
-185
-189
-192
-197
-202
-205
-207
-209
-211
-212
-210
-208
-207
-205
-201
-197
-194
-193
-191
-188
-185
-181
-176
-172
-166
-162
-160
-159
-155
-150
-144
-139
-139
-139
-134
-130
-128
-126
-121
-114
-109
-106
-100
-95
-89
-63
-28
-25
-50
-70
-81
-88
-88
-87
-88
-82
-81
-85
-73
-83
-84
139
632
978
725
-29
-732
-940
-719
-417
-189
-14
80
90
100
131
147
159
182
202
219
240
264
292
326
364
404
452
508
566
623
679
730
770
791
793
769
721
646
549
434
310
189
77
-20
-101
-162
-203
-226
-235
-236
-232
-225
-216
-206
-198
-191
-185
-181
-179
-178
-180
-183
-187
-190
-192
-195
-198
-200
-202
-201
-199
-198
-196
-193
-189
-184
-180
-177
-175
-172
-167
-161
-159
-156
-151
-147
-143
-137
-132
-131
-128
-124
-121
-120
-116
-112
-110
-106
-104
-103
-100
-96
-95
-93
-89
-88
-87
-83
-79
-80
-79
-76
-75
-76
-74
-72
-68
-62
-61
-62
-56
-52
-48
-22
11
10
-19
-42
-55
-61
-63
-65
-64
-59
-64
-62
-51
-76
-37
296
820
1028
597
-215
-822
-878
-579
-288
-98
31
80
83
104
129
140
157
181
197
214
238
266
296
329
368
409
456
511
570
627
681
730
764
780
780
755
702
627
532
416
292
173
63
-34
-114
-173
-215
-239
-249
-250
-246
-239
-230
-221
-213
-209
-205
-201
-201
-203
-204
-205
-210
-215
-219
-223
-226
-225
-223
-222
-221
-218
-215
-210
-207
-205
-201
-196
-192
-188
-182
-177
-172
-167
-160
-156
-152
-146
-140
-137
-134
-132
-128
-122
-116
-115
-114
-109
-103
-100
-97
-92
-89
-86
-82
-79
-79
-79
-78
-75
-71
-69
-68
-61
-55
-55
-52
-47
-49
-40
-5
21
9
-20
-37
-44
-46
-46
-50
-47
-41
-46
-41
-35
-47
88
535
984
882
191
-548
-860
-737
-468
-241
-53
76
109
109
132
153
164
183
201
213
230
254
277
303
336
373
414
459
509
563
616
662
700
724
731
718
682
623
540
440
331
217
107
8
-77
-145
-193
-221
-235
-239
-237
-233
-228
-223
-218
-213
-208
-206
-204
-202
-204
-209
-214
-218
-224
-230
-233
-235
-237
-235
-232
-230
-229
-227
-224
-220
-216
-214
-211
-207
-202
-199
-196
-191
-187
-183
-178
-172
-166
-163
-158
-154
-152
-152
-148
-143
-140
-137
-135
-130
-118
-110
-110
-105
-96
-94
-74
-35
-21
-45
-68
-79
-86
-88
-87
-88
-80
-76
-83
-73
-70
-89
50
496
950
899
246
-546
-929
-796
-476
-223
-36
80
104
109
139
160
171
192
213
230
252
279
305
336
372
414
462
514
571
631
691
745
788
814
820
805
763
691
595
480
355
230
113
10
-75
-140
-186
-214
-227
-229
-228
-223
-214
-204
-194
-186
-178
-173
-171
-172
-175
-177
-180
-185
-190
-194
-197
-198
-200
-202
-201
-198
-198
-197
-193
-188
-187
-186
-184
-180
-177
-175
-172
-168
-166
-164
-159
-154
-151
-148
-145
-144
-143
-142
-140
-138
-136
-134
-132
-130
-130
-129
-128
-127
-124
-120
-118
-119
-116
-108
-106
-106
-100
-97
-98
-75
-37
-31
-60
-85
-98
-106
-108
-110
-112
-108
-110
-112
-100
-115
-106
157
683
1012
704
-100
-806
-971
-709
-399
-185
-29
45
49
62
92
109
123
144
162
181
207
234
264
298
336
379
428
481
539
599
656
706
747
771
773
752
707
636
537
422
301
183
71
-25
-103
-164
-205
-223
-229
-231
-228
-215
-203
-197
-189
-177
-168
-161
-157
-158
-161
-162
-161
-164
-168
-168
-166
-166
-165
-162
-157
-150
-144
-142
-142
-138
-132
-125
-118
-112
-107
-99
-91
-87
-83
-74
-66
-63
-60
-53
-46
-44
-43
-40
-36
-30
-27
-25
-21
-17
-15
-14
-10
-7
-6
-2
-1
-5
-1
7
6
5
8
5
11
42
63
43
11
-7
-16
-21
-24
-30
-28
-28
-41
-39
-36
-51
112
587
969
739
11
-649
-877
-727
-477
-282
-106
18
21
