# session 1
-37
14
-136
-8
619
1109
1075
921
912
884
814
784
753
702
668
640
613
591
559
521
493
469
453
448
427
373
323
298
275
245
227
211
183
170
154
118
236
624
943
741
96
-503
-717
-603
-399
-218
-49
62
74
58
75
99
107
106
108
120
134
141
153
179
209
237
272
316
367
420
471
516
549
568
566
539
486
414
322
212
95
-15
-114
-197
-262
-312
-347
-367
-378
-379
-370
-365
-363
-347
-328
-320
-316
-305
-293
-284
-276
-274
-272
-268
-268
-269
-267
-265
-265
-262
-257
-255
-251
-243
-238
-235
-231
-224
-215
-206
-200
-196
-190
-184
-180
-176
-169
-163
-156
-147
-140
-135
-129
-121
-114
-108
-104
-99
-94
-87
-80
-73
-66
-63
-58
-52
-48
-48
-47
-44
-41
-38
-33
-29
-27
-24
-18
-16
-21
-20
-15
-13
-7
8
12
6
4
7
16
39
56
38
8
1
2
-4
-1
6
-4
0
13
-9
57
390
784
775
267
-359
-693
-651
-436
-227
-47
88
133
131
153
186
203
212
223
241
263
283
300
323
354
389
426
467
517
573
632
689
733
760
765
744
699
631
539
429
310
195
89
-4
-81
-140
-181
-207
-226
-236
-235
-229
-224
-218
-205
-192
-183
-177
-170
-159
-152
-153
-154
-155
-156
-157
-160
-166
-168
-166
-167
-170
-170
-170
-168
-166
-166
-166
-160
-152
-147
-146
-147
-147
-144
-139
-134
-131
-127
-123
-121
-120
-116
-111
-108
-105
-104
-103
-99
-94
-92
-89
-89
-90
-89
-86
-87
-87
-84
-81
-80
-81
-81
-81
-80
-79
-76
-76
-78
-78
-75
-72
-71
-69
-67
-65
-65
-64
-63
-60
-59
-58
-56
-55
-57
-56
-52
-53
-57
-47
-33
-37
-47
-42
-33
-16
15
30
8
-20
-27
-27
-32
-29
-22
-26
-20
-10
-32
15
302
689
769
360
-278
-710
-727
-495
-248
-50
81
118
117
136
159
179
203
225
243
264
281
298
324
354
386
425
470
518
576
640
699
746
784
803
793
757
692
585
448
312
189
68
-46
-135
-196
-236
-258
-271
-279
-279
-279
-282
-277
-265
-259
-257
-240
-213
-196
-175
-137
-118
-134
-140
-130
-151
-190
-200
-193
-200
-207
-198
-188
-191
-200
-202
-197
-187
-172
-161
-158
-160
-158
-154
-152
-150
-152
-158
-164
-170
-172
-168
-165
-171
-168
-151
-152
-163
-143
-102
-79
-60
-21
19
39
33
2
-27
-35
-50
-63
-20
22
-32
-122
-142
-118
-101
-85
-75
-84
-90
-79
-67
-59
-41
-13
-3
-18
-30
-18
4
13
4
-7
-9
-6
7
34
48
23
-8
-12
-8
-9
-10
-20
-16
22
32
42
264
682
897
623
-3
-605
-829
-634
-319
-107
11
57
51
60
97
146
207
232
214
238
287
262
205
220
286
335
371
426
498
572
641
713
770
773
725
684
665
612
500
380
275
172
74
-12
-85
-120
-121
-133
-154
-164
-190
-234
-244
-213
-199
-211
-197
-168
-192
-253
-277
-266
-270
-280
-273
-257
-254
-258
-249
-233
-229
-235
-237
-233
-222
-217
-227
-222
-185
-172
-212
-257
-275
-267
-218
-147
-130
-182
-221
-205
-184
-181
-169
-148
-131
-116
-118
-146
-152
-116
-93
-111
-116
-100
-114
-126
-55
38
18
-88
-138
-80
-7
-25
-95
-118
-101
-97
-106
-113
-24
290
680
736
259
-450
-881
-853
-614
-389
-174
1
68
80
106
133
155
183
194
184
180
206
260
304
307
321
412
518
529
484
506
596
674
723
759
762
719
646
555
442
312
187
86
3
-71
-119
-147
-166
-146
-98
-94
-123
-136
-162
-183
-138
-75
-67
-95
-108
-40
70
48
-85
-120
-79
-131
-225
-206
-123
-123
-140
-4
136
14
-128
58
263
223
349
568
205
-432
-533
-344
-369
-409
-320
-262
-245
-249
-278
-244
-171
-175
-209
-191
-173
-201
-232
-245
-257
-272
-281
-277
-261
-242
-221
-196
-164
-119
-62
-11
30
67
92
90
79
87
109
124
133
135
129
118
87
90
279
638
805
451
-262
-813
-894
-673
-432
-228
-54
17
8
32
94
128
131
113
64
16
-6
-23
-36
-12
46
117
205
298
372
443
535
620
667
682
674
644
595
526
430
312
194
99
28
-32
-91
-144
-176
-186
-189
-195
-195
-191
-200
-217
-211
-180
-162
-175
-180
-152
-127
-140
-165
-170
-154
-133
-127
-136
-118
-77
-70
-93
-93
-64
-32
-4
16
19
14
7
-15
-38
-34
-38
-81
-103
-68
-47
-71
-86
-83
-73
-48
-25
-27
-29
-12
1
9
27
46
57
69
81
74
58
61
73
62
42
40
41
16
-18
-36
-38
-41
-52
-67
-79
-72
-50
-37
-38
-33
-24
-31
-45
-60
-87
-114
-123
-129
-137
-117
-80
-81
-111
-121
-114
-119
-125
-129
-138
-126
-111
-133
-59
277
644
573
1
-637
-916
-800
-542
-328
-155
-10
57
57
81
146
168
134
138
203
253
263
277
312
349
380
408
438
482
549
623
678
711
731
738
729
690
623
542
442
322
205
103
2
-93
-166
-220
-264
-284
-286
-298
-308
-288
-259
-253
-252
-234
-209
-193
-183
-173
-163
-153
-145
-142
-142
-140
-136
-135
-137
-139
-141
-137
-125
-114
-111
-108
-100
-94
-87
-74
-63
-63
-55
-35
-33
-56
-68
-60
-55
-52
-46
-40
-34
-28
-11
33
62
16
-68
-113
-127
-146
-163
-169
-170
-168
-167
-168
-161
-144
-133
-133
-126
-109
-93
-86
-81
-76
-72
-65
-57
-52
-51
-50
-46
-37
-24
-13
-8
-3
8
14
4
-5
-3
1
4
9
16
23
22
13
3
2
20
49
54
27
0
-9
-13
-17
-16
-23
-22
-12
-36
-13
243
649
788
411
-257
-749
-806
-574
-321
-122
24
78
73
88
118
135
152
174
196
216
232
250
278
308
334
372
427
484
531
579
637
695
739
758
746
713
662
589
492
377
253
139
43
-47
-133
-198
-237
-264
-284
-290
-283
-273
-262
-251
-239
-229
-220
-210
-203
-199
-195
-192
-192
-197
-200
-200
-205
-211
-210
-202
-202
-207
-206
-202
-201
-199
-192
-186
-183
-177
-167
-161
-159
-154
-148
-143
-137
-128
-121
-116
-109
-105
-101
-93
-84
-81
-79
-73
-69
-66
-59
-49
-45
-44
-39
-33
-31
-30
-25
-22
-22
-21
-20
-21
-20
-19
-18
-15
-12
-9
-5
-4
-7
-10
-10
-11
-14
-14
-9
-9
-13
-12
-10
-13
-14
-5
2
-4
-14
-16
-14
0
28
38
12
-20
-29
-30
-36
-34
-35
-40
-28
-35
-43
145
565
821
535
-142
-705
-836
-640
-386
-179
-11
79
88
97
128
151
165
182
200
213
226
240
258
282
314
354
397
443
494
547
603
657
698
718
718
697
648
572
474
364
247
129
24
-65
-140
-196
-233
-260
-275
-275
-270
-267
-258
-245
-235
-226
-215
-204
-194
-185
-183
-186
-183
-178
-180
-184
-184
-183
-186
-189
-187
-184
-181
-177
-171
-165
-161
-155
-152
-152
-151
-147
-141
-139
-135
-130
-127
-128
-128
-125
-119
-113
-108
-102
-94
-85
-80
-78
-76
-70
-66
-67
-69
-67
-68
-71
-70
-68
-67
-65
-59
-57
-62
-65
-62
-62
-60
-48
-37
-41
-47
-48
-48
-33
-2
8
-19
-42
-44
-46
-54
-54
-57
-59
-39
-41
-40
173
612
837
484
-213
-721
-792
-595
-373
-184
-8
93
106
112
143
170
185
198
213
232
250
264
284
314
349
383
421
472
526
579
632
678
710
728
724
693
638
561
464
356
246
137
35
-52
-122
-172
-207
-230
-240
-238
-233
-228
-223
-215
-205
-195
-188
-181
-171
-165
-165
-169
-171
-169
-171
-177
-181
-179
-175
-175
-179
-184
-183
-179
-175
-175
-175
-172
-168
-167
-164
-160
-160
-159
-153
-146
-145
-144
-137
-130
-128
-126
-117
-109
-107
-106
-101
-96
-93
-92
-90
-88
-85
-81
-79
-78
-76
-74
-73
-69
-66
-65
-56
-42
-41
-50
-53
-53
-48
-23
0
-14
-45
-56
-55
-61
-61
-56
-61
-55
-50
-69
24
378
752
684
103
-552
-840
-732
-488
-275
-90
41
80
88
114
137
153
177
196
210
227
242
253
275
309
346
388
438
493
551
609
663
709
738
743
724
683
618
528
418
301
189
87
0
-74
-132
-174
-199
-213
-216
-208
-199
-190
-179
-170
-165
-158
-150
-142
-135
-133
-132
-131
-133
-140
-147
-153
-160
-163
-160
-159
-160
-160
-158
-159
-159
-154
-150
-144
-136
-126
-116
-109
-108
-112
-116
-113
-105
-101
-103
-104
-98
-92
-87
-86
-90
-90
-84
-83
-87
-89
-88
-90
-91
-88
-85
-83
-77
-70
-70
-70
-68
-65
-64
-66
-70
-75
-77
-75
-76
-79
-81
-80
-76
-71
-69
-62
-48
-40
-46
-50
-48
-41
-18
6
-3
-34
-51
-59
-69
-67
-63
-71
-63
-54
-76
5
339
717
709
192
-481
-847
-773
-499
-253
-67
49
77
77
101
127
146
172
196
211
226
244
265
288
317
355
403
453
504
563
627
687
738
777
795
785
749
688
599
484
358
235
121
20
-67
-137
-188
-218
-235
-246
-249
-244
-235
-228
-218
-205
-195
-188
-179
-172
-169
-168
-168
-171
-177
-178
-177
-178
-184
-186
-182
-179
-178
-175
-167
-161
-157
-155
-153
-154
-152
-146
-141
-137
-133
-130
-127
-123
-118
-117
-117
-114
-110
-103
-98
-96
-94
-88
-85
-83
-79
-75
-76
-75
-72
-71
-69
-63
-59
-59
-58
-54
-49
-48
-50
-54
-55
-52
-50
-49
-47
-43
-38
-36
-33
-29
-29
-32
-33
-31
-31
-24
-14
-14
-21
-24
-24
-14
14
24
-5
-33
-34
-36
-46
-41
-40
-47
-39
-46
-47
160
598
845
524
-177
-728
-830
-621
-376
-177
-10
80
93
102
130
152
168
184
197
212
227
242
262
291
328
367
408
453
506
561
616
667
707
729
730
705
655
586
497
388
271
160
57
-38
-114
-168
-207
-234
-246
-246
-243
-237
-228
-221
-214
-203
-193
-186
-180
-176
-174
-174
-177
-180
-182
-186
-190
-189
-187
-189
-188
-184
-181
-181
-180
-175
-170
-168
-164
-159
-158
-155
-147
-144
-147
-147
-141
-138
-136
-130
-123
-119
-113
-107
-105
-104
-99
-93
-89
-87
-86
-87
-85
-77
-74
-77
-78
-75
-74
-75
-72
-66
-63
-63
-62
-53
-41
-39
-44
-45
-42
-33
-11
8
-4
-34
-48
-44
-44
-40
-36
-41
-35
-27
-43
68
452
804
630
-25
-622
-803
-658
-436
-242
-58
77
116
114
135
168
189
201
212
226
239
250
268
295
324
356
393
437
482
528
577
628
669
689
691
675
633
569
489
393
282
170
68
-22
-97
-155
-196
-221
-232
-235
-233
-227
-219
-211
-204
-196
-190
-188
-182
-176
-172
-170
-171
-177
-181
-182
-185
-189
-190
-191
-192
-192
-190
-186
-185
-186
-183
-177
-172
-168
-166
-163
-157
-150
-148
-147
-141
-137
-136
-135
-132
-127
-123
-121
-119
-111
-105
-106
-105
-97
-94
-97
-86
-67
-64
-74
-75
-70
-61
-36
-15
-29
-57
-65
-63
-68
-64
-57
-65
-60
-41
-55
17
359
750
684
92
-547
-813
-713
-488
-289
-104
47
104
104
122
151
168
183
199
212
228
244
260
286
322
356
392
440
493
545
599
652
691
712
718
703
665
602
515
413
302
191
86
-6
-82
-139
-176
-201
-214
-212
-209
-210
-205
-192
-182
-175
-165
-155
-151
-149
-145
-142
-143
-147
-149
-153
-158
-163
-165
-166
-166
-165
-162
-163
-166
-166
-162
-159
-156
-153
-149
-148
-145
-141
-138
-137
-135
-133
-128
-123
-121
-118
-114
-113
-113
-110
-107
-109
-110
-107
-102
-98
-94
-92
-91
-89
-86
-84
-86
-85
-82
-83
-84
-73
-64
-69
-74
-72
-72
-57
-24
-12
-40
-69
-74
-75
-81
-78
-76
-81
-71
-70
-88
31
391
711
582
3
-596
-828
-699
-465
-257
-72
44
67
74
104
129
144
164
183
200
217
235
257
285
318
355
397
444
497
553
611
665
707
731
738
723
679
611
522
416
301
188
85
-4
-77
-134
-176
-201
-211
-211
-207
-200
-191
-184
-175
-162
-150
-141
-132
-121
-113
-113
-117
-119
-120
-120
-119
-119
-121
-125
-123
-120
-120
-120
-119
-116
-111
-103
-98
-96
-92
-86
-83
-83
-82
-79
-76
-75
-74
-71
-67
-64
-60
-55
-52
-52
-48
-44
-45
-44
-40
-37
-35
-31
-26
-27
-27
-25
-25
-27
-28
-25
-23
-22
-22
-23
-24
-23
-22
-25
-28
-27
-24
-24
-25
-26
-27
-28
-30
-32
-34
-35
-35
-34
-35
-35
-36
-40
-40
-41
-48
-52
-48
-50
-54
-43
-35
-48
-62
-63
-58
-40
-13
-13
-45
-68
-73
-83
-94
-92
-95
-100
-91
-107
-112
67
441
676
456
-138
-699
-878
-699
-426
-205
-56
6
12
28
54
73
96
117
130
146
167
182
201
229
262
298
340
388
443
502
560
616
665
697
704
686
642
573
484
378
259
140
30
-66
-147
-209
-255
-286
-301
-299
-291
-286
-280
-270
-255
-238
-226
-216
-204
-194
-192
-190
-186
-184
-183
-180
-174
-169
-168
-166
-162
-159
-157
-155
-149
-140
-130
-124
-116
-105
-96
-90
-83
-73
-65
-59
-51
-45
-39
-32
-23
-14
-6
2
10
17
25
33
40
46
51
54
57
62
66
69
73
78
84
87
89
94
98
101
103
107
111
111
114
116
114
114
117
114
105
105
109
107
104
102
94
87
89
86
80
86
92
79
64
61
59
66
87
85
46
13
2
-14
-29
-31
-43
-63
-60
-77
-98
82
502
762
481
-206
-796
-949
-763
-522
-331
-180
-114
-125
-130
-114
-108
-107
-106
-108
-111
-115
-117
-111
-99
-83
-62
-38
