# session 20
-30
-34
-16
-46
-132
-178
-164
-154
-155
-149
-147
-150
-143
-135
-135
-134
-130
-124
-119
-116
-115
-114
-113
-110
-107
-106
-106
-104
-102
-102
-100
-96
-92
-87
-84
-83
-78
-78
-86
-74
-32
-9
-29
-59
-72
-78
-82
-84
-89
-87
-85
-90
-81
-76
-91
63
537
964
802
93
-605
-875
-745
-487
-268
-87
38
70
69
92
113
124
142
160
172
191
218
243
268
296
330
370
417
469
522
575
627
672
702
717
713
686
630
552
455
342
226
113
10
-80
-153
-208
-243
-258
-263
-263
-258
-251
-242
-234
-229
-225
-221
-219
-219
-218
-218
-220
-224
-228
-228
-228
-229
-228
-223
-220
-222
-221
-218
-212
-207
-206
-204
-198
-192
-189
-186
-179
-172
-169
-167
-161
-155
-150
-144
-138
-136
-131
-125
-127
-114
-72
-40
-56
-89
-102
-104
-103
-101
-105
-104
-90
-89
-91
-75
-87
-40
303
816
947
443
-319
-810
-837
-594
-348
-155
11
92
94
105
135
152
164
182
197
214
238
263
289
320
355
395
441
488
540
600
656
703
738
756
752
726
678
603
502
386
267
150
41
-53
-126
-182
-221
-240
-245
-244
-242
-237
-228
-219
-212
-206
-199
-195
-196
-197
-197
-200
-203
-207
-213
-218
-218
-215
-213
-213
-212
-210
-206
-203
-203
-204
-202
-199
-194
-190
-187
-185
-184
-178
-171
-170
-169
-163
-159
-158
-154
-150
-146
-139
-136
-137
-134
-131
-128
-102
-63
-53
-78
-100
-109
-112
-111
-112
-116
-109
-101
-107
-99
-88
-114
-33
352
833
908
395
-362
-846
-834
-554
-306
-125
16
69
70
91
116
127
146
169
184
203
228
253
282
316
354
396
445
500
560
618
674
728
768
786
781
757
709
632
528
410
289
172
64
-31
-106
-162
-197
-216
-224
-225
-220
-212
-203
-193
-183
-171
-164
-160
-157
-153
-154
-157
-158
-158
-159
-161
-163
-162
-161
-160
-158
-154
-150
-146
-142
-137
-132
-127
-124
-121
-115
-109
-105
-101
-97
-92
-86
-81
-78
-76
-72
-70
-67
-64
-60
-58
-57
-57
-57
-55
-53
-52
-51
-49
-47
-45
-44
-44
-41
-39
-40
-40
-38
-37
-37
-37
-38
-40
-38
-38
-40
-41
-41
-41
-42
-41
-42
-43
-41
-40
-42
-44
-44
-43
-43
-45
-47
-47
-46
-45
-47
-48
-48
-47
-47
-47
-49
-46
-37
-33
-42
-52
-54
-48
-25
2
-1
-34
-57
-60
-64
-72
-68
-69
-79
-70
-74
-97
64
518
916
811
208
-483
-822
-701
-396
-172
-39
34
47
51
76
95
106
124
143
161
181
204
230
260
293
333
378
427
480
537
594
651
702
738
757
757
737
694
628
540
432
311
193
85
-13
-100
-169
-214
-242
-256
-260
-258
-253
-246
-237
-228
-219
-211
-205
-202
-201
-202
-203
-206
-210
-213
-214
-215
-214
-213
-213
-213
-210
-205
-202
-200
-196
-190
-184
-180
-174
-168
-164
-161
-155
-149
-143
-137
-131
-128
-124
-119
-114
-109
-104
-101
-100
-97
-92
-87
-82
-79
-80
-78
-72
-68
-65
-60
-59
-58
-55
-51
-50
-48
-47
-47
-45
-43
-42
-40
-40
-41
-37
-31
-32
-35
-33
-29
-30
-31
-28
-24
-23
-25
-25
-17
-7
-10
-21
-25
-22
-9
18
34
16
-17
-31
-30
-35
-39
-31
-34
-43
-30
-43
-49
202
735
1059
749
1
-640
-816
-610
-336
-145
-1
79
86
92
118
132
143
163
178
190
210
235
260
286
317
353
397
447
499
552
605
656
698
725
736
726
692
636
558
459
346
230
119
16
-73
-143
-197
-233
-251
-257
-257
-252
-245
-235
-226
-218
-212
-206
-201
-200
-201
-201
-202
-208
-216
-220
-220
-222
-224
-223
-222
-222
-221
-217
-214
-213
-213
-211
-206
-199
-192
-189
-187
-182
-175
-171
-165
-159
-156
-150
-143
-141
-141
-138
-133
-129
-125
-120
-117
-114
-112
-110
-106
-101
-97
-94
-91
-89
-86
-81
-75
-73
-72
-69
-67
-63
-63
-63
-52
-38
-40
-47
-45
-39
-23
6
17
-8
-37
-44
-42
-47
-46
-39
-43
-41
-28
-55
-27
272
741
926
568
-124
-684
-789
-546
-277
-94
41
101
103
118
142
151
165
185
198
214
236
256
279
310
345
382
426
475
526
579
635
687
725
747
753
734
690
625
540
433
317
203
96
1
-80
-142
-186
-216
-232
-237
-235
-230
-222
-209
-198
-189
-183
-179
-175
-172
-171
-171
-172
-176
-182
-185
-187
-189
-191
-192
-193
-190
-188
-189
-188
-183
-182
-181
-176
-170
-167
-164
-161
-159
-154
-147
-143
-141
-137
-132
-129
-126
-125
-124
-119
-115
-115
-113
-108
-105
-104
-101
-98
-95
-95
-93
-88
-85
-84
-84
-82
-80
-78
-78
-78
-76
-75
-74
-72
-72
-71
-69
-69
-67
-55
-45
-49
-56
-56
-49
-27
2
5
-23
-48
-53
-55
-62
-56
-50
-57
-49
-47
-80
18
412
853
881
372
-350
-803
-762
-454
-196
-40
55
82
83
106
128
137
153
174
193
212
234
257
284
316
356
400
448
501
560
618
675
727
770
796
798
776
732
663
567
451
327
204
91
-10
-97
-166
-211
-238
-251
-254
-251
-246
-239
-229
-220
-214
-207
-200
-197
-197
-197
-198
-200
-203
-206
-209
-211
-211
-211
-211
-210
-207
-204
-201
-199
-196
-192
-190
-186
-181
-176
-172
-166
-161
-159
-156
-151
-145
-140
-136
-132
-130
-127
-123
-118
-114
-112
-109
-105
-102
-100
-97
-92
-88
-87
-85
-80
-77
-76
-75
-73
-71
-71
-71
-66
-63
-66
-67
-64
-60
-58
-59
-59
-53
-47
-49
-48
-43
-42
-27
10
27
2
-30
-44
-48
-50
-53
-52
-48
-53
-53
-43
-67
-24
327
885
1101
647
-175
-774
-840
-565
-292
-108
25
77
75
94
120
131
148
171
186
204
228
251
277
309
344
381
427
480
535
594
651
700
740
769
777
760
721
660
575
466
347
226
110
8
-80
-153
-207
-239
-252
-255
-256
-254
-246
-235
-229
-225
-219
-215
-215
-217
-218
-221
-223
-226
-230
-234
-235
-236
-238
-241
-241
-238
-235
-233
-229
-223
-217
-215
-213
-206
-199
-195
-193
-186
-179
-174
-170
-165
-161
-158
-154
-150
-146
-142
-136
-132
-129
-126
-120
-116
-114
-110
-105
-101
-99
-98
-94
-86
-82
-82
-76
-71
-70
-55
-19
1
-17
-44
-58
-62
-62
-63
-65
-61
-58
-63
-52
-50
-54
149
673
1089
862
91
-625
-868
-697
-419
-200
-24
85
104
107
135
154
164
182
202
219
239
262
286
312
344
384
428
474
522
574
628
680
723
750
762
755
725
670
590
486
369
250
136
29
-66
-142
-196
-229
-245
-251
-254
-251
-245
-238
-231
-224
-219
-216
-216
-216
-215
-215
-218
-224
-228
-230
-232
-234
-234
-234
-233
-231
-229
-226
-221
-217
-214
-210
-205
-201
-198
-195
-191
-186
-181
-177
-172
-168
-165
-161
-156
-153
-149
-144
-140
-138
-136
-133
-130
-127
-123
-116
-112
-110
-103
-98
-90
-59
-25
-29
-59
-80
-86
-88
-88
-88
-87
-79
-80
-81
-69
-86
-51
280
838
1085
656
-177
-807
-894
-615
-327
-130
17
83
85
102
131
144
160
183
200
217
239
263
293
326
362
404
452
504
561
620
677
728
769
794
799
781
738
669
576
462
339
217
101
-4
-92
-161
-209
-235
-246
-249
-247
-241
-235
-226
-216
-209
-206
-202
-198
-197
-199
-201
-203
-206
-209
-211
-213
-216
-217
-217
-217
-215
-210
-206
-204
-200
-195
-191
-187
-184
-180
-177
-172
-167
-163
-159
-156
-153
-148
-144
-141
-137
-132
-128
-125
-123
-122
-119
-117
-115
-112
-109
-106
-103
-101
-99
-96
-94
-90
-82
-79
-82
-76
-69
-65
-44
-10
-4
-28
-50
-62
-70
-73
-75
-76
-71
-75
-76
-65
-84
-64
239
802
1117
761
-78
-779
-915
-635
-331
-134
6
69
72
89
118
131
146
167
183
203
228
252
279
312
348
389
437
487
539
598
658
711
753
782
791
776
738
676
591
484
363
239
121
14
-78
-150
-203
-236
-252
-256
-257
-254
-245
-232
-222
-218
-215
-211
-208
-208
-213
-216
-218
-221
-225
-226
-227
-230
-231
-230
-228
-226
-222
-218
-214
-210
-204
-199
-196
-192
-188
-184
-183
-176
-167
-163
-162
-159
-152
-145
-141
-140
-137
-132
-130
-127
-122
-117
-115
-112
-109
-105
-101
-98
-92
-84
-82
-82
-77
-77
-70
-37
-6
-14
-43
-60
-70
-75
-73
-75
-77
-68
-70
-75
-63
-71
-5
378
940
1078
510
-331
-841
-837
-568
-315
-126
24
87
86
102
133
144
155
175
193
209
229
254
282
312
345
384
427
474
525
580
634
678
709
727
731
713
671
605
518
414
300
187
82
-13
-97
-160
-199
-221
-232
-235
-232
-227
-222
-216
-213
-212
-210
-208
-207
-209
-213
-219
-224
-228
-231
-232
-233
-233
-232
-230
-230
-228
-225
-223
-222
-217
-210
-207
-205
-200
-194
-191
-189
-184
-177
-172
-168
-164
-161
-156
-152
-152
-148
-139
-131
-131
-127
-121
-118
-98
-58
-36
-57
-87
-99
-102
-103
-101
-103
-100
-90
-93
-94
-82
-100
-29
368
922
1044
488
-342
-865
-865
-580
-317
-129
16
77
80
100
128
139
155
176
193
214
239
263
292
325
358
399
448
499
552
610
667
711
743
762
760
736
689
616
518
402
282
167
60
-35
-115
-174
-210
-227
-234
-235
-231
-222
-214
-209
-203
-197
-195
-192
-191
-195
-201
-203
-204
-209
-215
-217
-218
-219
-218
-215
-214
-212
-208
-206
-204
-201
-198
-195
-190
-186
-182
-179
-175
-171
-167
-163
-159
-153
-148
-146
-143
-140
-138
-136
-133
-129
-126
-126
-128
-123
-112
-107
-108
-102
-96
-95
-75
-35
-18
-41
-68
-80
-88
-92
-91
-92
-89
-87
-90
-81
-88
-105
65
554
1029
967
283
-541
-930
-778
-450
-217
-55
50
70
72
102
127
141
160
179
197
218
243
271
301
335
376
421
468
521
582
639
689
735
767
778
770
743
690
608
505
388
267
149
43
-49
-124
-181
-216
-231
-235
-236
-233
-226
-216
-207
-203
-201
-195
-190
-191
-194
-197
-202
-206
-207
-210
-212
-213
-216
-216
-210
-205
-205
-203
-198
-195
-192
-185
-181
-181
-178
-170
-165
-163
-158
-152
-147
-141
-138
-136
-134
-127
-121
-119
-117
-114
-113
-110
-105
-100
-97
-96
-92
-88
-84
-81
-76
-76
-79
-77
-73
-74
-72
-66
-64
-63
-59
-60
-58
-27
10
9
-21
-43
-52
-56
-57
-61
-60
-53
-57
-59
-48
-67
-8
362
888
1010
492
-292
-799
-815
-550
-298
-114
29
86
86
104
132
144
159
178
192
208
228
250
276
307
340
378
421
467
517
571
619
657
688
707
704
680
640
580
497
398
291
185
88
-3
-82
-142
-180
-203
-213
-214
-212
-207
-202
-197
-193
-189
-186
-186
-186
-187
-191
-195
-200
-204
-206
-207
-208
-210
-210
-210
-210
-208
-204
-202
-198
-192
-188
-186
-181
-178
-176
-172
-166
-161
-158
-153
-148
-145
-142
-138
-135
-132
-128
-125
-124
-122
-118
-118
-117
-113
-110
-108
-106
-103
-100
-95
-90
-89
-85
-79
-78
-77
-73
-73
-70
-42
-6
-5
-31
-53
-66
-70
-69
-73
-73
-67
-73
-74
-65
-87
-23
344
870
1047
593
-220
-815
-856
-559
-291
-116
17
70
69
88
117
131
146
166
183
204
226
250
277
309
345
387
432
479
535
593
643
685
719
741
742
721
677
613
524
414
296
182
76
-18
-99
-162
-205
-227
-236
-239
-236
-228
-220
-214
-206
-199
-196
-195
-192
-191
-197
-203
-203
-204
-211
-217
-219
-217
-214
-213
-213
-212
-205
-200
-200
-204
-203
-196
-188
-185
-185
-181
-176
-172
-169
-163
-159
-156
-150
-144
-141
-139
-137
-132
-127
-125
-125
-123
-120
-115
-105
-100
-101
-96
-89
-91
-78
-35
-7
-26
-57
-72
-78
-80
-78
-80
-79
-75
-79
-70
-63
-76
69
532
992
901
222
-532
-875
-757
-474
-245
-67
54
85
88
112
132
145
165
182
195
217
241
264
293
326
360
399
446
500
555
608
656
696
724
732
719
686
634
558
461
353
241
131
32
-55
-126
-179
-209
-222
-226
-228
-226
-218
-210
-207
-204
-198
-196
-199
-201
-203
-208
-214
-215
-216
-220
-224
-226
-226
-225
-225
-223
-221
-217
-212
-209
-207
-205
-201
-197
-193
-189
-185
-179
-173
-169
-166
-161
-157
-152
-148
-146
-143
-140
-137
-135
-131
-126
-123
-119
-116
-115
-110
-102
-98
-93
-86
-85
-70
-34
-15
-33
-56
-69
-76
-79
-83
-85
-78
-75
-76
-63
-77
-81
132
607
967
794
103
-636
-914
-707
-390
-171
-10
82
92
100
130
148
163
184
200
217
241
266
292
323
357
395
441
490
542
599
655
707
750
776
784
774
738
678
596
491
371
255
148
48
-41
-113
-163
-193
-206
-209
-209
-205
-196
-187
-182
-176
-169
-165
-165
-166
-167
-170
-174
-180
-184
-186
-189
-193
-195
-193
-190
-190
-190
-187
-184
-182
-181
-180
-178
-174
-171
-170
-168
-165
-162
-160
-157
-153
-152
-150
-146
-145
-146
-145
-143
-142
-141
-138
-137
-139
-137
-130
-127
-129
-124
-118
-114
-94
-61
-54
-83
-110
-122
-131
-138
-142
-145
-142
-142
-147
-140
-153
-147
105
658
1056
783
-55
-821
-1027
-776
-463
-248
-89
-10
-5
8
41
57
69
91
111
129
152
178
207
241
277
319
369
422
479
541
601
654
698
727
737
725
690
630
544
433
311
191
78
-25
-111
-179
-229
-257
-266
-264
-257
-251
-240
-225
-212
-205
-200
-191
-184
-184
-183
-177
-176
-178
-175
-170
-167
-162
-154
-145
-137
-127
-117
-107
-97
-91
-83
-72
-63
-55
-43
