# session 22
-6
-4
-15
83
214
181
60
13
3
-23
-32
-26
-30
-30
-26
-27
-29
-29
-32
-37
-42
-51
-60
-66
-72
-80
-86
-90
-94
-98
-99
-100
-101
-99
-96
-97
-99
-98
-98
-99
-97
-95
-95
-94
-92
-91
-90
-89
-89
-86
-82
-80
-79
-77
-78
-79
-71
-61
-63
-68
-64
-62
-60
-32
6
6
-28
-54
-61
-66
-70
-69
-73
-77
-72
-73
-75
-61
-75
-57
242
803
1099
700
-148
-811
-922
-656
-364
-155
5
82
85
98
128
142
155
177
195
211
231
256
286
317
350
391
437
489
544
598
645
685
714
726
714
681
627
550
451
340
226
115
12
-76
-148
-198
-226
-238
-244
-246
-240
-230
-222
-218
-216
-213
-212
-212
-213
-216
-221
-225
-227
-229
-231
-234
-235
-233
-231
-230
-227
-223
-220
-217
-213
-208
-204
-201
-197
-192
-188
-184
-180
-175
-170
-166
-162
-159
-152
-146
-143
-141
-138
-135
-133
-130
-127
-124
-120
-116
-113
-110
-107
-104
-96
-88
-87
-86
-78
-73
-62
-27
4
-8
-41
-58
-64
-70
-71
-71
-74
-71
-68
-71
-62
-66
-82
86
575
1051
965
235
-601
-950
-764
-427
-183
-11
88
102
108
137
154
167
191
211
227
248
274
301
333
368
409
456
506
560
616
670
719
758
779
779
762
723
658
566
454
335
220
109
7
-77
-142
-189
-215
-225
-227
-227
-222
-214
-205
-199
-195
-192
-192
-193
-193
-194
-201
-207
-209
-212
-216
-215
-214
-215
-214
-211
-210
-207
-202
-198
-195
-193
-190
-185
-182
-179
-174
-168
-164
-161
-157
-150
-145
-142
-138
-135
-133
-129
-122
-121
-122
-118
-112
-110
-109
-104
-100
-97
-92
-90
-89
-89
-87
-84
-81
-78
-80
-82
-75
-64
-63
-67
-60
-53
-54
-34
8
20
-9
-39
-50
-56
-59
-60
-66
-65
-57
-60
-57
-48
-61
61
520
1027
961
231
-570
-908
-779
-487
-239
-47
76
109
113
136
155
166
184
203
217
236
258
283
311
343
380
423
469
518
569
619
663
697
717
718
702
667
608
526
432
329
218
109
11
-72
-136
-179
-204
-218
-226
-228
-224
-219
-216
-214
-212
-212
-211
-209
-211
-219
-227
-228
-226
-231
-239
-238
-234
-235
-236
-231
-227
-225
-223
-220
-215
-211
-211
-209
-202
-195
-190
-184
-179
-175
-171
-167
-163
-157
-152
-151
-148
-142
-137
-136
-135
-126
-117
-118
-115
-102
-99
-97
-63
-21
-24
-58
-79
-85
-91
-91
-88
-89
-85
-78
-83
-78
-66
-82
26
466
962
910
219
-555
-903
-797
-513
-258
-60
70
107
109
133
157
170
189
210
227
246
270
294
322
356
396
442
491
541
595
651
698
730
748
748
727
685
617
527
419
302
186
79
-16
-98
-162
-201
-218
-226
-229
-229
-223
-217
-210
-207
-204
-198
-196
-199
-203
-205
-205
-206
-211
-218
-220
-220
-222
-221
-219
-219
-218
-213
-209
-208
-205
-202
-199
-197
-193
-189
-184
-179
-176
-172
-168
-165
-162
-158
-153
-149
-146
-142
-139
-141
-138
-134
-132
-126
-117
-116
-116
-107
-103
-95
-59
-21
-28
-63
-84
-90
-95
-94
-94
-97
-92
-89
-91
-80
-83
-98
80
573
1016
878
136
-657
-963
-771
-445
-197
-15
84
95
104
137
156
167
190
209
227
249
273
300
335
373
415
463
517
573
633
690
738
774
794
793
770
724
654
557
441
318
198
85
-13
-93
-156
-197
-219
-228
-228
-226
-221
-213
-202
-195
-191
-186
-182
-182
-183
-183
-185
-190
-192
-192
-194
-198
-199
-197
-195
-194
-192
-190
-186
-181
-178
-176
-173
-169
-166
-162
-158
-156
-153
-147
-142
-139
-134
-129
-125
-121
-117
-116
-116
-112
-107
-104
-103
-103
-100
-96
-93
-90
-89
-86
-83
-82
-81
-77
-74
-73
-71
-69
-70
-71
-69
-67
-67
-67
-63
-58
-58
-58
-51
-47
-51
-49
-43
-43
-25
14
33
12
-18
-38
-49
-51
-53
-57
-55
-54
-56
-47
-60
-72
146
676
1075
831
41
-695
-911
-676
-360
-141
9
87
95
105
131
144
157
179
197
212
234
259
288
320
356
399
446
494
546
602
657
704
737
757
760
742
699
633
544
438
323
208
97
-3
-86
-152
-200
-231
-246
-249
-246
-243
-238
-230
-225
-222
-220
-220
-223
-224
-225
-231
-236
-238
-239
-241
-243
-244
-242
-240
-237
-233
-228
-225
-225
-220
-214
-210
-209
-205
-200
-195
-191
-183
-176
-173
-171
-162
-153
-151
-151
-147
-141
-137
-134
-129
-125
-120
-115
-113
-110
-105
-102
-97
-91
-88
-86
-79
-74
-74
-67
-60
-63
-51
-10
15
-5
-35
-49
-57
-61
-60
-63
-63
-57
-61
-56
-44
-53
89
574
1055
908
137
-619
-893
-741
-458
-216
-29
90
118
119
145
167
178
197
217
230
250
273
296
326
361
396
437
487
540
590
640
683
716
735
735
714
671
604
515
410
297
186
81
-15
-99
-160
-196
-216
-227
-232
-229
-223
-219
-216
-213
-210
-209
-209
-208
-210
-214
-218
-221
-225
-229
-230
-231
-232
-229
-226
-227
-227
-224
-220
-216
-212
-209
-208
-205
-200
-195
-193
-189
-183
-178
-175
-172
-167
-162
-156
-151
-149
-148
-144
-140
-139
-135
-127
-124
-123
-115
-107
-102
-74
-31
-22
-54
-82
-90
-94
-95
-94
-95
-90
-84
-86
-80
-76
-96
29
481
969
918
228
-576
-944
-811
-495
-233
-40
79
107
113
141
163
174
193
213
230
249
271
296
330
369
409
455
508
566
625
683
734
773
795
797
774
727
656
559
443
319
196
82
-19
-102
-165
-209
-234
-243
-243
-239
-233
-225
-217
-210
-204
-199
-196
-193
-190
-189
-192
-197
-200
-202
-204
-208
-209
-208
-209
-209
-206
-203
-200
-196
-192
-190
-187
-184
-180
-178
-175
-171
-166
-161
-157
-152
-148
-145
-142
-137
-135
-134
-131
-126
-124
-123
-120
-116
-115
-112
-109
-106
-105
-102
-100
-95
-92
-93
-91
-81
-77
-82
-77
-70
-69
-46
-3
7
-24
-52
-63
-70
-74
-77
-80
-76
-75
-76
-66
-78
-89
120
627
1025
811
35
-723
-960
-724
-390
-153
9
87
93
106
137
152
166
189
208
227
250
275
303
337
375
419
469
524
582
643
701
752
794
818
820
799
753
681
579
459
331
208
93
-9
-95
-164
-211
-236
-246
-250
-249
-242
-232
-223
-214
-208
-205
-201
-197
-198
-201
-202
-203
-207
-212
-213
-213
-215
-216
-212
-208
-207
-204
-198
-194
-194
-190
-186
-184
-181
-175
-170
-165
-159
-154
-151
-147
-142
-135
-131
-130
-128
-124
-121
-118
-112
-109
-106
-103
-102
-100
-95
-91
-88
-85
-82
-78
-73
-72
-73
-72
-69
-67
-66
-64
-64
-64
-59
-55
-56
-58
-50
-41
-42
-42
-39
-44
-36
6
40
25
-13
-34
-40
-42
-42
-47
-47
-40
-42
-41
-34
-48
70
527
1024
931
189
-582
-883
-748
-468
-225
-37
85
118
119
140
163
176
194
210
221
240
267
289
314
347
382
422
471
524
573
621
668
705
728
733
717
680
623
545
443
330
218
113
15
-72
-139
-183
-210
-227
-235
-234
-231
-230
-227
-223
-219
-215
-212
-215
-220
-222
-224
-229
-234
-236
-236
-238
-241
-241
-240
-241
-239
-234
-230
-228
-225
-222
-218
-212
-208
-205
-200
-196
-194
-189
-181
-175
-172
-169
-163
-156
-151
-149
-146
-143
-141
-136
-131
-128
-127
-122
-117
-116
-111
-100
-95
-94
-86
-81
-80
-52
-9
-5
-39
-62
-67
-74
-78
-77
-79
-78
-74
-76
-68
-67
-79
93
602
1063
885
96
-667
-919
-723
-416
-177
-2
97
113
118
145
166
179
199
217
234
255
279
307
339
376
417
465
517
573
631
689
739
775
794
794
774
725
648
548
433
311
190
77
-22
-103
-163
-206
-230
-240
-241
-239
-233
-224
-216
-210
-203
-196
-191
-190
-194
-195
-194
-196
-201
-204
-207
-211
-210
-208
-210
-213
-210
-206
-202
-198
-195
-193
-189
-186
-183
-177
-172
-171
-168
-162
-158
-157
-153
-146
-141
-137
-134
-130
-129
-127
-124
-119
-114
-112
-111
-110
-108
-104
-99
-96
-96
-93
-89
-87
-84
-83
-84
-78
-67
-68
-74
-66
-48
-30
-8
-4
-29
-54
-63
-68
-71
-72
-72
-66
-67
-69
-58
-73
-68
193
722
1036
693
-122
-793
-921
-647
-334
-113
38
101
102
119
148
160
173
197
215
232
255
280
306
338
377
422
471
524
581
643
703
753
785
803
805
784
733
654
550
431
305
179
61
-40
-122
-184
-227
-252
-262
-261
-256
-251
-246
-236
-225
-217
-215
-213
-209
-209
-210
-211
-213
-217
-221
-223
-224
-224
-225
-224
-221
-221
-220
-215
-209
-207
-206
-204
-200
-196
-191
-185
-180
-176
-173
-167
-162
-159
-156
-150
-144
-140
-138
-135
-132
-130
-126
-121
-117
-115
-111
-107
-106
-104
-97
-95
-98
-88
-69
-71
-79
-67
-50
-38
-17
-6
-32
-62
-68
-69
-74
-76
-76
-71
-71
-73
-61
-67
-61
193
745
1080
699
-155
-808
-915
-664
-372
-147
24
104
111
124
151
164
178
200
218
235
255
275
304
341
378
416
463
518
575
627
678
725
759
773
768
743
694
618
519
401
277
157
48
-46
-122
-180
-219
-240
-247
-250
-248
-238
-230
-227
-226
-222
-218
-216
-218
-221
-223
-225
-231
-236
-237
-236
-235
-234
-235
-236
-233
-231
-227
-222
-217
-216
-215
-211
-206
-201
-196
-192
-189
-183
-175
-171
-167
-162
-158
-155
-152
-151
-143
-129
-124
-130
-123
-105
-90
-70
-56
-71
-97
-106
-108
-107
-102
-104
-103
-91
-93
-94
-79
-91
-14
392
922
957
313
-490
-904
-845
-568
-306
-102
45
101
104
123
149
162
178
198
218
238
259
283
315
349
385
429
481
535
589
647
698
734
756
762
746
702
633
542
432
312
192
79
-20
-102
-166
-206
-229
-239
-240
-237
-230
-221
-213
-208
-203
-200
-199
-196
-195
-197
-203
-209
-211
-211
-214
-219
-222
-221
-218
-215
-215
-216
-213
-209
-205
-204
-202
-198
-194
-191
-188
-183
-178
-173
-168
-164
-161
-157
-150
-148
-149
-144
-138
-140
-135
-118
-114
-123
-116
-93
-75
-54
-40
-59
-88
-96
-96
-97
-96
-98
-96
-87
-89
-86
-76
-98
-25
365
893
987
407
-426
-913
-863
-552
-278
-79
56
98
97
120
144
153
172
195
212
230
254
281
313
349
389
435
488
544
603
663
717
758
783
789
774
735
671
579
464
340
220
104
0
-85
-148
-194
-221
-233
-235
-233
-228
-218
-206
-197
-192
-186
-177
-170
-168
-168
-169
-172
-175
-175
-178
-184
-187
-187
-188
-190
-188
-185
-182
-179
-176
-173
-167
-164
-163
-159
-154
-151
-147
-141
-138
-135
-128
-122
-120
-115
-111
-112
-111
-106
-102
-101
-100
-97
-94
-90
-88
-88
-86
-81
-78
-77
-75
-71
-70
-71
-70
-68
-66
-66
-67
-66
-63
-63
-62
-60
-61
-61
-55
-53
-57
-54
-47
-43
-22
14
23
-4
-30
-44
-53
-55
-57
-60
-56
-59
-63
-52
-71
-71
186
711
1038
740
-37
-727
-902
-650
-335
-118
24
84
86
101
129
142
157
178
193
212
236
259
287
321
358
400
449
503
562
622
678
727
765
784
782
761
720
650
553
438
316
195
80
-23
-108
-173
-220
-248
-260
-260
-256
-252
-245
-236
-229
-223
-217
-213
-212
-213
-213
-212
-215
-220
-225
-229
-231
-232
-232
-233
-232
-228
-225
-222
-215
-211
-210
-206
-201
-198
-193
-188
-187
-182
-174
-169
-167
-159
-150
-149
-148
-141
-136
-135
-132
-127
-124
-123
-118
-111
-107
-105
-101
-96
-91
-89
-88
-85
-82
-79
-75
-75
-78
-74
-63
-58
-58
-51
-50
-47
-17
21
16
-18
-39
-44
-48
-49
-50
-52
-46
-44
-50
-38
-41
-31
225
764
1084
728
-76
-713
-849
-625
-350
-143
20
111
120
126
154
172
183
202
218
232
252
277
301
331
367
406
449
500
554
605
654
701
735
748
743
718
670
598
503
392
279
168
62
-32
-109
-166
-202
-221
-229
-232
-231
-224
-216
-210
-204
-199
-196
-193
-190
-191
-195
-198
-201
-207
-213
-218
-219
-219
-220
-220
-219
-215
-214
-216
-214
-210
-206
-204
-201
-197
-195
-191
-185
-179
-177
-175
-171
-164
-157
-154
-154
-149
-144
-141
-140
-138
-134
-130
-128
-126
-124
-119
-111
-106
-105
-98
-92
-94
-77
-35
-14
-37
-67
-79
-88
-94
-91
-93
-95
-89
-91
-94
-80
-93
-76
221
770
1041
639
-172
-796
-903
-645
-353
-144
10
82
85
100
129
142
156
178
197
215
237
261
290
323
360
403
453
508
565
622
678
725
758
771
762
731
677
595
487
366
244
129
22
-71
-145
-197
-230
-249
-254
-250
-244
-237
-228
-218
-209
-201
-193
-189
-187
-186
-187
-187
-187
-188
-191
-194
-195
-195
-193
-190
-187
-184
-181
-178
-173
-168
-163
-158
-153
-148
-145
-142
-136
-129
-123
-119
-114
-108
-102
-97
-92
-86
-82
-79
-78
-75
-71
-67
-65
-62
-58
-51
-47
-46
-42
-37
-32
-30
-27
-25
-23
-22
-20
-17
-16
-15
-13
-11
-10
-8
-6
-4
-4
-4
-2
-1
-1
0
1
-2
1
8
8
4
7
11
18
48
77
64
30
11
0
-10
-13
-17
-18
-17
-25
-25
-25
-56
36
456
965
1014
428
-379
-849
-789
-472
-213
-50
50
70
65
88
106
111
125
142
153
170
190
210
234
265
301
342
386
436
489
542
590
630
657
666
653
617
558
475
371
251
127
8
-101
-197
-278
-340
-381
-402
-410
-410
-405
-399
-392
-380
-367
-358
-353
-346
-338
-335
-336
-335
-330
-325
-320
-315
-308
-298
-285
-272
