# session 4
24
49
-16
110
487
739
741
740
813
862
901
963
1010
1033
1047
1040
1002
941
855
745
616
482
356
242
143
61
-2
-47
-75
-86
-88
-89
-89
-84
-77
-70
-66
-62
-58
-57
-60
-65
-71
-78
-84
-89
-95
-101
-106
-109
-113
-117
-118
-117
-120
-122
-120
-118
-118
-116
-113
-113
-114
-113
-111
-110
-108
-104
-104
-104
-102
-99
-95
-94
-93
-91
-88
-88
-88
-87
-88
-90
-89
-86
-85
-84
-83
-81
-80
-79
-78
-80
-82
-80
-76
-76
-76
-74
-71
-70
-73
-74
-74
-74
-73
-74
-74
-72
-71
-74
-76
-75
-74
-70
-63
-64
-67
-66
-64
-51
-18
2
-13
-39
-55
-63
-69
-73
-72
-72
-78
-71
-66
-96
-28
314
747
820
342
-393
-866
-837
-541
-279
-94
29
65
66
90
114
129
152
173
187
204
227
249
271
301
340
384
432
484
544
609
672
726
768
796
803
784
737
664
569
454
327
201
84
-21
-109
-176
-224
-254
-267
-270
-270
-264
-253
-243
-237
-227
-216
-208
-204
-201
-199
-202
-206
-211
-213
-212
-213
-214
-213
-210
-208
-207
-206
-203
-198
-193
-191
-189
-185
-177
-172
-170
-166
-159
-155
-154
-150
-141
-135
-131
-127
-123
-121
-116
-111
-108
-105
-101
-97
-95
-94
-93
-88
-82
-77
-73
-71
-71
-69
-66
-63
-64
-64
-61
-58
-57
-54
-52
-53
-45
-32
-31
-38
-37
-33
-21
6
20
-1
-31
-41
-41
-47
-44
-38
-44
-37
-27
-50
49
450
878
797
152
-553
-854
-737
-475
-248
-61
69
107
110
133
157
170
187
205
220
234
250
270
296
328
365
403
446
499
557
612
665
716
754
770
767
742
691
615
517
402
279
162
55
-38
-116
-176
-216
-235
-242
-245
-246
-238
-227
-219
-211
-201
-195
-193
-189
-185
-186
-193
-197
-197
-201
-204
-203
-202
-203
-203
-201
-200
-198
-194
-192
-191
-188
-183
-178
-176
-174
-170
-165
-160
-156
-152
-149
-148
-143
-136
-134
-133
-127
-120
-118
-117
-115
-113
-111
-108
-105
-102
-99
-95
-89
-87
-87
-86
-83
-80
-78
-76
-74
-70
-70
-70
-63
-54
-54
-55
-50
-50
-41
-7
18
2
-29
-44
-48
-55
-65
-64
-57
-62
-60
-48
-71
-38
255
711
877
472
-268
-812
-858
-594
-329
-127
28
87
86
106
137
153
170
190
204
222
244
266
290
319
352
392
439
491
547
609
671
728
774
806
813
793
749
681
585
464
335
210
94
-9
-97
-164
-211
-239
-251
-254
-253
-248
-240
-228
-216
-208
-204
-198
-191
-188
-189
-190
-191
-195
-201
-204
-205
-207
-209
-209
-208
-206
-204
-202
-201
-198
-192
-186
-183
-180
-176
-172
-169
-163
-157
-152
-147
-140
-137
-137
-134
-127
-123
-121
-116
-112
-111
-109
-105
-104
-100
-94
-91
-92
-88
-82
-82
-82
-76
-71
-73
-73
-69
-70
-69
-56
-51
-54
-51
-48
-54
-39
0
15
-7
-34
-47
-50
-52
-57
-53
-49
-55
-47
-39
-58
45
437
853
785
163
-540
-855
-743
-482
-261
-73
64
105
106
129
154
168
182
196
211
231
248
266
293
325
360
400
446
497
549
606
663
715
751
768
765
739
689
615
518
404
283
166
56
-39
-116
-173
-211
-232
-240
-244
-243
-234
-223
-217
-212
-206
-198
-194
-192
-189
-188
-189
-194
-199
-201
-201
-204
-206
-204
-202
-202
-201
-200
-201
-202
-199
-198
-198
-195
-190
-186
-182
-178
-176
-173
-165
-158
-154
-151
-146
-143
-140
-136
-133
-132
-131
-128
-126
-125
-124
-122
-121
-119
-118
-117
-114
-112
-114
-110
-100
-94
-92
-85
-81
-75
-43
-6
-8
-37
-56
-60
-61
-67
-70
-62
-57
-59
-47
-49
-62
84
485
856
760
136
-575
-874
-719
-433
-202
-14
99
116
122
152
174
188
209
228
244
264
285
309
338
371
409
456
507
558
610
665
721
769
800
814
806
771
709
623
510
376
244
123
10
-91
-171
-227
-264
-287
-294
-290
-283
-276
-267
-256
-242
-229
-221
-214
-206
-203
-204
-204
-206
-210
-213
-212
-212
-212
-211
-207
-204
-200
-195
-188
-184
-180
-176
-171
-165
-160
-155
-149
-145
-141
-137
-131
-127
-124
-122
-119
-113
-107
-104
-104
-102
-96
-89
-85
-83
-79
-75
-72
-69
-66
-62
-56
-53
-51
-48
-41
-36
-34
-32
-31
-31
-30
-30
-33
-33
-28
-27
-31
-34
-31
-28
-30
-29
-29
-34
-23
11
28
9
-16
-28
-35
-44
-50
-49
-51
-59
-54
-52
-84
-17
325
767
853
373
-384
-872
-841
-537
-273
-87
38
72
71
96
119
131
151
173
189
208
229
248
273
304
340
380
428
483
542
604
666
722
767
796
800
777
732
664
566
443
313
189
71
-35
-121
-186
-232
-260
-272
-276
-274
-269
-260
-248
-235
-226
-219
-212
-206
-206
-207
-208
-210
-213
-214
-215
-219
-220
-218
-217
-216
-213
-209
-208
-205
-202
-201
-197
-190
-184
-180
-176
-172
-169
-164
-160
-156
-150
-144
-140
-138
-136
-132
-126
-122
-120
-117
-113
-112
-110
-102
-95
-95
-95
-91
-84
-80
-78
-78
-72
-64
-63
-63
-54
-50
-51
-27
11
13
-15
-39
-48
-53
-57
-60
-56
-52
-57
-47
-42
-57
73
494
902
783
105
-608
-879
-728
-469
-252
-57
72
98
101
130
153
165
184
200
214
232
251
269
295
326
359
400
447
498
553
611
665
715
752
767
758
727
673
594
492
372
249
133
25
-70
-144
-196
-230
-247
-252
-252
-247
-241
-235
-226
-215
-208
-203
-198
-196
-196
-198
-202
-207
-208
-211
-219
-223
-219
-217
-220
-221
-218
-213
-211
-211
-209
-204
-202
-198
-191
-185
-185
-182
-172
-166
-164
-160
-156
-154
-149
-144
-142
-137
-127
-123
-119
-110
-108
-107
-76
-39
-40
-68
-87
-95
-99
-97
-98
-96
-86
-85
-81
-68
-85
-32
304
771
833
279
-465
-865
-815
-570
-347
-149
20
93
96
113
144
158
169
187
205
223
244
266
289
320
358
397
438
490
550
609
664
713
748
765
763
737
685
605
504
387
264
143
37
-53
-127
-182
-215
-231
-237
-237
-235
-228
-220
-212
-205
-198
-192
-190
-188
-187
-187
-190
-195
-200
-202
-202
-204
-205
-205
-205
-204
-201
-199
-198
-193
-189
-188
-186
-182
-180
-177
-174
-170
-166
-163
-161
-157
-151
-148
-147
-142
-136
-135
-136
-132
-127
-123
-119
-111
-106
-103
-97
-96
-94
-70
-35
-29
-52
-74
-85
-92
-96
-97
-93
-88
-91
-87
-74
-93
-71
182
624
850
519
-212
-799
-887
-644
-386
-179
-6
72
77
94
123
138
154
174
189
207
230
255
281
309
343
385
433
485
544
605
665
722
769
797
804
788
744
671
572
453
326
200
87
-11
-89
-149
-189
-213
-227
-230
-225
-216
-206
-197
-187
-178
-169
-160
-156
-155
-156
-154
-153
-157
-162
-163
-162
-164
-166
-165
-163
-161
-157
-156
-156
-154
-148
-143
-140
-136
-132
-128
-124
-118
-113
-112
-109
-102
-97
-95
-93
-90
-87
-84
-83
-81
-76
-72
-71
-69
-65
-62
-61
-59
-57
-55
-53
-51
-46
-44
-46
-47
-45
-43
-41
-42
-43
-42
-40
-40
-41
-42
-40
-37
-37
-39
-39
-36
-34
-35
-36
-36
-35
-36
-36
-35
-36
-38
-37
-39
-41
-34
-31
-36
-37
-35
-36
-19
14
21
-5
-27
-36
-50
-61
-59
-57
-67
-62
-49
-79
-56
220
650
825
481
-210
-768
-849
-587
-310
-118
13
61
60
79
106
121
138
159
176
195
213
231
254
284
319
359
404
456
514
572
628
684
734
763
769
758
727
667
582
477
356
231
116
12
-79
-151
-201
-234
-254
-262
-261
-256
-248
-239
-230
-222
-213
-205
-199
-199
-198
-198
-201
-205
-206
-208
-209
-210
-212
-213
-212
-209
-209
-208
-204
-199
-198
-194
-186
-179
-175
-173
-169
-164
-158
-153
-147
-140
-135
-132
-127
-123
-120
-115
-111
-110
-107
-99
-95
-93
-88
-84
-83
-79
-72
-69
-71
-71
-68
-65
-64
-63
-61
-59
-57
-55
-54
-53
-49
-47
-48
-45
-43
-45
-42
-28
-18
-21
-27
-26
-20
-2
21
20
-8
-28
-31
-36
-37
-29
-33
-35
-19
-35
-15
261
726
902
488
-240
-755
-807
-570
-322
-126
31
99
100
114
142
155
169
187
199
216
239
255
275
307
343
378
421
469
521
578
638
692
737
766
774
757
715
651
561
448
325
205
94
-7
-93
-159
-206
-238
-254
-256
-253
-249
-239
-226
-215
-209
-203
-197
-192
-190
-191
-192
-193
-195
-201
-207
-210
-211
-211
-210
-208
-207
-205
-204
-203
-201
-196
-192
-190
-186
-181
-177
-175
-171
-165
-162
-161
-157
-151
-147
-144
-139
-135
-133
-132
-129
-126
-123
-120
-117
-113
-108
-104
-102
-100
-99
-96
-91
-88
-89
-86
-80
-77
-76
-75
-75
-73
-59
-49
-54
-61
-59
-48
-23
6
6
-24
-48
-50
-51
-52
-46
-48
-50
-36
-51
-50
171
616
904
665
-20
-667
-851
-628
-344
-139
17
92
94
105
135
152
168
189
202
215
237
259
280
310
347
387
432
481
535
598
664
724
770
804
819
808
767
701
612
497
367
239
121
12
-80
-151
-202
-236
-251
-255
-253
-250
-243
-231
-220
-214
-209
-201
-194
-192
-192
-192
-196
-200
-202
-204
-209
-212
-212
-212
-213
-213
-212
-212
-211
-209
-206
-203
-200
-200
-198
-194
-191
-190
-187
-185
-183
-179
-173
-168
-163
-160
-154
-146
-141
-140
-139
-134
-129
-126
-123
-120
-116
-113
-112
-105
-98
-99
-92
-74
-67
-76
-78
-71
-60
-38
-16
-25
-54
-67
-66
-70
-71
-65
-68
-65
-50
-68
-42
221
654
827
444
-270
-786
-825
-580
-333
-132
29
95
96
113
143
156
168
186
206
225
242
259
284
314
346
382
427
480
534
590
649
705
749
775
778
757
713
647
554
437
313
192
83
-9
-87
-150
-192
-213
-221
-224
-224
-219
-209
-201
-195
-184
-170
-162
-157
-149
-144
-146
-149
-151
-153
-156
-160
-162
-162
-163
-167
-168
-165
-163
-162
-163
-159
-153
-151
-148
-142
-137
-134
-132
-129
-126
-124
-121
-119
-119
-115
-110
-109
-110
-107
-101
-98
-97
-95
-94
-90
-83
-80
-79
-77
-76
-76
-76
-74
-75
-73
-69
-69
-71
-69
-69
-69
-66
-63
-64
-63
-61
-61
-56
-49
-51
-52
-46
-46
-42
-12
16
8
-20
-39
-46
-53
-58
-54
-56
-62
-53
-57
-74
46
393
728
674
137
-535
-856
-724
-437
-209
-35
72
90
93
119
139
149
168
188
205
221
240
261
288
319
353
391
438
491
545
602
662
714
749
769
769
744
692
621
527
411
286
167
61
-34
-113
-171
-211
-236
-246
-245
-242
-237
-228
-218
-213
-206
-198
-192
-190
-189
-191
-192
-194
-199
-206
-209
-209
-211
-214
-215
-216
-215
-211
-207
-206
-205
-202
-198
-194
-191
-186
-183
-181
-176
-171
-166
-161
-157
-155
-150
-145
-142
-141
-137
-135
-133
-127
-121
-119
-118
-114
-111
-110
-107
-102
-96
-92
-91
-86
-79
-79
-79
-73
-69
-58
-26
0
-10
-41
-60
-65
-67
-72
-72
-68
-71
-66
-52
-75
-53
230
721
980
642
-140
-791
-893
-614
-333
-133
25
90
87
105
133
144
163
188
202
218
240
262
287
319
353
393
440
491
549
612
672
726
775
807
814
797
755
684
584
465
338
210
87
-19
-107
-178
-226
-254
-265
-266
-261
-256
-249
-239
-230
-226
-222
-218
-214
-215
-218
-220
-221
-225
-231
-235
-236
-236
-235
-230
-224
-222
-221
-220
-217
-213
-209
-207
-202
-196
-193
-188
-181
-173
-168
-166
-163
-157
-152
-149
-145
-141
-139
-132
-125
-120
-113
-105
-102
-98
-88
-86
-82
-52
-21
-28
-56
-74
-81
-83
-81
-82
-81
-79
-85
-76
-67
-78
54
483
902
778
85
-631
-901
-755
-497
-280
-84
55
93
95
119
144
157
172
191
208
225
242
265
293
325
363
406
452
502
559
617
673
720
755
770
765
734
676
593
489
369
244
124
18
-72
-144
-194
-224
-236
-237
-235
-232
-227
-217
-208
-204
-202
-198
-195
-195
-198
-201
-204
-209
-213
-215
-216
-218
-219
-216
-213
-213
-212
-208
-207
-205
-201
-197
-194
-189
-186
-184
-180
-173
-169
-167
-162
-156
-153
-151
-147
-143
-140
-137
-133
-131
-130
-129
-127
-121
-109
-103
-102
-98
-97
-95
-69
-30
-25
-51
-71
-82
-88
-90
-92
-89
-82
-85
-80
-68
-89
-45
267
736
898
463
-313
-856
-872
-592
-334
-138
19
80
81
104
134
147
165
188
205
222
243
263
289
321
357
398
446
498
554
615
674
723
763
788
790
767
720
650
554
439
318
200
90
-5
-80
-137
-176
-195
-199
-198
-196
-190
-179
-169
-162
-157
-151
-145
-142
-143
-146
-148
-150
-154
-158
-162
-162
-161
-160
-160
-160
-159
-157
-154
-153
-154
-152
-148
-145
-141
-135
-133
-132
-129
-127
-128
-130
-126
-119
-117
-119
-119
-116
-115
-115
-110
-107
-107
-107
-104
-100
-99
-99
-100
-98
-96
-97
-96
-92
-93
-97
-94
-87
-88
-89
-84
-84
-77
-50
-26
-36
-63
-82
-91
-99
-107
-108
-104
-110
-110
-104
-131
-105
155
580
800
509
-202
-834
-955
-681
-390
-191
-46
10
8
28
57
69
85
108
124
141
163
186
212
242
277
319
365
414
471
536
599
655
703
737
746
730
693
633
543
427
301
178
61
-44
-131
-197
-246
-275
-284
-283
-279
-269
-256
-243
-229
-215
-206
-196
-185
-179
-176
-171
-168
-169
-170
-170
-169
-165
-158
-154
-148
-139
-132
-129
-123
-114
-105
-100
-92
-79
-65
-55
-49
-40
-30
-23
