# session 14
79
82
80
39
6
47
101
115
128
154
174
192
215
236
263
301
339
377
423
473
525
582
638
683
715
734
734
710
666
600
513
408
295
188
90
-3
-83
-142
-179
-199
-209
-211
-205
-195
-187
-183
-178
-170
-162
-159
-160
-161
-159
-161
-168
-175
-182
-187
-188
-187
-187
-188
-185
-182
-181
-180
-177
-173
-171
-169
-164
-159
-155
-150
-145
-144
-146
-143
-137
-132
-127
-125
-123
-118
-113
-112
-111
-109
-106
-102
-98
-97
-95
-92
-91
-89
-85
-82
-81
-79
-75
-73
-71
-62
-53
-58
-63
-60
-58
-48
-19
-3
-24
-53
-58
-54
-59
-61
-53
-56
-59
-46
-57
-20
281
759
897
413
-335
-800
-801
-561
-329
-138
28
106
108
118
146
162
173
190
209
226
246
270
298
326
362
405
449
496
549
597
637
671
692
692
671
629
567
484
384
274
163
63
-21
-96
-158
-196
-213
-223
-229
-226
-218
-211
-205
-199
-195
-190
-183
-181
-184
-187
-187
-187
-191
-197
-200
-200
-204
-205
-200
-195
-198
-200
-195
-189
-186
-184
-181
-177
-173
-169
-165
-159
-152
-149
-147
-144
-140
-138
-136
-133
-131
-126
-122
-119
-117
-115
-112
-106
-103
-100
-93
-83
-81
-82
-81
-82
-76
-46
-18
-27
-57
-72
-70
-71
-72
-66
-65
-70
-60
-60
-71
82
497
851
696
39
-628
-862
-690
-423
-212
-31
84
107
113
139
157
167
188
205
220
244
272
295
320
356
404
452
500
555
612
662
706
742
753
737
701
646
565
459
342
226
119
19
-68
-134
-180
-213
-233
-236
-231
-225
-219
-209
-198
-191
-187
-181
-174
-172
-175
-176
-176
-178
-182
-185
-190
-192
-193
-194
-196
-196
-194
-193
-193
-191
-188
-186
-182
-177
-174
-171
-166
-161
-158
-155
-151
-147
-143
-139
-138
-136
-132
-128
-126
-124
-122
-120
-117
-114
-111
-109
-106
-104
-102
-95
-90
-90
-83
-70
-68
-76
-81
-79
-64
-29
-7
-25
-56
-68
-66
-70
-71
-64
-66
-66
-53
-71
-74
135
579
930
801
143
-608
-893
-677
-366
-161
-4
84
88
96
127
144
157
179
197
215
240
264
292
328
366
407
458
516
575
633
687
733
765
776
765
732
671
583
476
358
235
118
18
-67
-136
-183
-215
-236
-243
-239
-233
-225
-215
-204
-195
-186
-180
-176
-174
-174
-176
-177
-178
-181
-186
-188
-188
-191
-193
-193
-192
-191
-187
-183
-181
-178
-173
-172
-172
-168
-162
-158
-156
-152
-146
-140
-137
-136
-132
-126
-122
-122
-122
-119
-114
-110
-109
-107
-105
-102
-98
-95
-94
-93
-90
-84
-80
-80
-78
-74
-73
-75
-76
-73
-69
-67
-68
-67
-66
-68
-60
-45
-43
-52
-56
-53
-39
-9
13
0
-31
-48
-50
-54
-56
-49
-49
-54
-46
-54
-67
112
570
962
827
146
-598
-897
-710
-385
-148
9
89
96
105
134
148
159
184
207
223
242
267
296
330
368
410
457
512
570
631
689
739
774
791
787
759
706
627
521
399
272
151
41
-52
-126
-184
-227
-252
-258
-257
-254
-248
-237
-225
-217
-211
-205
-198
-195
-195
-194
-193
-195
-202
-208
-209
-209
-213
-215
-213
-211
-212
-211
-208
-205
-202
-198
-194
-188
-183
-179
-175
-170
-166
-161
-157
-153
-148
-142
-135
-132
-133
-132
-124
-118
-120
-120
-113
-106
-102
-102
-102
-97
-91
-89
-86
-80
-79
-80
-77
-72
-70
-71
-71
-67
-66
-64
-54
-44
-46
-49
-47
-43
-25
3
8
-23
-49
-47
-43
-49
-46
-39
-46
-42
-34
-54
46
458
937
928
302
-465
-845
-754
-477
-242
-57
74
110
106
128
154
166
179
195
213
236
257
278
307
344
383
424
473
530
585
632
676
715
735
732
709
664
594
502
394
279
166
59
-33
-107
-169
-210
-229
-237
-241
-239
-233
-225
-216
-209
-204
-200
-196
-192
-191
-192
-194
-198
-203
-206
-207
-208
-210
-211
-212
-213
-211
-207
-203
-198
-195
-195
-194
-188
-181
-179
-175
-166
-160
-159
-158
-155
-152
-148
-142
-139
-136
-130
-126
-126
-125
-119
-114
-113
-102
-88
-88
-91
-88
-87
-78
-47
-24
-41
-71
-81
-77
-78
-79
-73
-76
-79
-62
-67
-55
189
665
909
544
-198
-758
-844
-623
-378
-180
-3
92
101
110
137
151
164
184
201
219
243
267
293
324
361
406
455
505
557
612
662
700
725
732
716
676
613
523
415
299
181
67
-29
-105
-166
-211
-237
-249
-250
-247
-243
-236
-227
-220
-213
-206
-201
-199
-195
-193
-194
-197
-202
-208
-211
-212
-215
-219
-219
-217
-218
-220
-219
-213
-210
-209
-205
-201
-199
-192
-187
-187
-184
-177
-170
-167
-166
-163
-158
-152
-145
-139
-143
-134
-96
-62
-67
-94
-112
-119
-120
-120
-123
-119
-113
-115
-107
-93
-112
-60
263
741
920
506
-271
-844
-881
-597
-337
-144
16
81
79
98
129
143
160
183
200
220
246
275
307
343
385
435
490
548
607
666
721
764
788
788
764
715
638
534
414
288
168
59
-35
-110
-163
-196
-217
-227
-224
-217
-212
-204
-190
-178
-169
-160
-149
-142
-140
-137
-136
-139
-143
-146
-148
-151
-151
-150
-149
-149
-149
-147
-145
-144
-142
-138
-132
-130
-128
-123
-118
-116
-112
-105
-102
-101
-96
-89
-88
-89
-84
-79
-79
-81
-78
-74
-72
-71
-68
-66
-65
-63
-61
-61
-61
-58
-53
-51
-52
-51
-49
-48
-49
-50
-51
-50
-48
-47
-47
-49
-48
-47
-48
-48
-49
-49
-47
-46
-48
-47
-46
-49
-50
-49
-50
-50
-47
-47
-45
-33
-28
-37
-45
-46
-37
-13
11
3
-27
-46
-52
-59
-64
-59
-62
-66
-59
-79
-74
154
604
890
652
-22
-667
-865
-642
-332
-122
8
65
68
79
105
121
136
157
175
194
217
241
269
302
341
385
434
489
549
610
666
717
756
775
771
748
699
622
523
409
285
164
56
-38
-116
-177
-221
-247
-258
-259
-255
-249
-241
-232
-220
-209
-200
-193
-190
-189
-186
-186
-188
-192
-194
-196
-197
-198
-198
-195
-194
-196
-194
-189
-187
-184
-179
-175
-172
-167
-161
-159
-154
-148
-144
-141
-135
-127
-123
-120
-115
-110
-106
-103
-101
-98
-93
-88
-85
-83
-78
-74
-73
-72
-69
-64
-61
-59
-57
-54
-53
-53
-52
-49
-47
-46
-46
-46
-44
-42
-42
-44
-42
-39
-38
-37
-37
-37
-36
-33
-33
-34
-32
-29
-31
-31
-20
-11
-18
-28
-30
-21
1
25
26
0
-27
-38
-40
-45
-44
-41
-48
-46
-39
-65
15
407
897
954
397
-377
-834
-785
-482
-220
-46
63
91
90
114
136
145
164
182
195
215
242
266
293
327
369
415
466
521
577
634
690
736
759
762
745
703
633
542
432
309
186
75
-20
-103
-173
-219
-244
-263
-272
-266
-257
-250
-238
-226
-219
-212
-202
-196
-194
-192
-190
-189
-192
-195
-197
-200
-204
-206
-203
-202
-204
-205
-203
-197
-191
-189
-188
-182
-174
-173
-172
-164
-157
-156
-152
-143
-136
-134
-132
-128
-122
-118
-116
-114
-111
-108
-102
-95
-91
-89
-85
-82
-79
-76
-73
-71
-70
-69
-66
-61
-60
-63
-60
-55
-53
-52
-51
-50
-47
-44
-43
-42
-41
-42
-33
-19
-21
-33
-33
-27
-19
4
27
13
-22
-35
-28
-32
-39
-32
-32
-37
-23
-30
-16
243
734
958
551
-203
-738
-803
-579
-342
-153
17
109
115
123
149
160
170
191
206
220
242
266
290
320
354
392
436
486
539
593
644
686
713
725
717
682
624
549
452
338
222
113
12
-75
-142
-191
-225
-241
-246
-246
-243
-235
-225
-217
-211
-205
-200
-195
-190
-188
-189
-190
-190
-194
-197
-195
-196
-201
-203
-200
-198
-197
-196
-194
-192
-190
-187
-182
-178
-173
-169
-166
-162
-158
-155
-151
-146
-142
-138
-135
-134
-133
-128
-122
-119
-118
-114
-110
-107
-103
-99
-99
-97
-89
-85
-87
-85
-80
-78
-71
-61
-60
-65
-66
-64
-52
-22
-4
-21
-50
-58
-55
-59
-60
-51
-53
-56
-39
-43
-27
218
673
877
483
-247
-760
-805
-577
-347
-160
16
114
120
126
155
173
182
200
219
236
255
275
302
337
372
407
452
509
565
614
665
712
741
746
732
697
639
555
449
330
212
104
7
-76
-141
-188
-219
-233
-238
-238
-234
-225
-214
-204
-198
-192
-185
-179
-175
-173
-171
-171
-172
-174
-179
-182
-183
-184
-188
-189
-187
-185
-185
-186
-184
-181
-181
-179
-175
-170
-166
-162
-160
-155
-148
-145
-147
-145
-142
-139
-137
-134
-131
-129
-127
-124
-119
-118
-116
-112
-107
-106
-106
-103
-100
-97
-92
-92
-94
-81
-67
-73
-83
-80
-77
-63
-28
-10
-34
-63
-68
-66
-71
-73
-69
-70
-70
-57
-64
-73
96
508
832
663
29
-613
-845
-678
-410
-196
-20
86
103
107
134
154
166
184
199
213
236
263
288
316
352
397
446
498
557
620
679
730
771
793
788
761
709
628
525
407
282
161
55
-36
-111
-165
-200
-222
-234
-236
-231
-223
-217
-208
-196
-183
-174
-167
-161
-154
-150
-148
-149
-150
-150
-151
-155
-161
-162
-160
-162
-164
-162
-159
-160
-156
-152
-152
-150
-142
-140
-143
-139
-132
-128
-124
-118
-115
-113
-109
-103
-100
-98
-97
-94
-93
-91
-87
-85
-85
-83
-79
-77
-74
-70
-68
-67
-65
-63
-61
-59
-58
-59
-59
-58
-58
-57
-55
-54
-55
-55
-53
-53
-55
-53
-51
-51
-51
-50
-50
-50
-50
-48
-44
-44
-45
-35
-28
-35
-42
-43
-43
-26
7
15
-10
-37
-48
-53
-57
-58
-53
-56
-59
-50
-66
-75
117
550
867
691
62
-593
-849
-673
-372
-150
-2
73
80
85
111
130
144
163
179
195
218
244
270
300
339
383
430
484
544
607
667
719
762
789
793
769
721
645
545
427
300
176
65
-31
-115
-181
-224
-248
-263
-269
-264
-256
-249
-241
-228
-216
-207
-200
-191
-184
-180
-180
-182
-183
-183
-182
-185
-190
-191
-188
-186
-183
-182
-182
-179
-173
-171
-170
-166
-161
-157
-151
-146
-141
-136
-133
-130
-123
-115
-110
-106
-101
-98
-97
-96
-92
-86
-82
-80
-79
-75
-73
-71
-66
-61
-59
-57
-53
-50
-48
-47
-48
-48
-45
-42
-41
-41
-41
-40
-38
-35
-36
-37
-34
-33
-34
-34
-33
-31
-29
-28
-28
-28
-27
-24
-22
-23
-24
-25
-26
-22
-12
-12
-21
-25
-25
-16
12
34
16
-18
-34
-34
-37
-44
-42
-40
-49
-46
-42
-67
30
432
889
882
303
-427
-824
-757
-472
-225
-53
59
89
88
108
129
141
160
178
190
209
232
255
281
314
353
400
452
508
568
626
679
727
758
764
749
714
648
555
446
327
205
90
-13
-100
-169
-218
-251
-270
-278
-276
-270
-263
-252
-240
-231
-225
-219
-212
-206
-204
-205
-204
-201
-202
-206
-209
-210
-213
-215
-214
-212
-211
-207
-202
-202
-201
-196
-191
-188
-184
-179
-174
-167
-161
-156
-152
-147
-142
-136
-132
-130
-126
-120
-115
-112
-110
-106
-100
-98
-95
-90
-85
-82
-78
-73
-72
-70
-68
-66
-66
-65
-61
-58
-58
-57
-54
-53
-48
-37
-34
-39
-39
-36
-31
-9
19
14
-18
-37
-33
-32
-38
-35
-29
-35
-28
-18
-34
90
513
922
799
146
-527
-805
-692
-443
-227
-44
85
118
117
142
164
169
183
204
217
232
256
283
309
338
377
421
467
516
572
627
674
710
734
739
722
679
610
518
409
290
171
64
-27
-108
-173
-215
-238
-252
-256
-252
-246
-238
-230
-223
-217
-212
-207
-204
-202
-200
-199
-202
-204
-204
-203
-207
-212
-211
-210
-212
-211
-205
-202
-204
-203
-199
-195
-192
-189
-186
-182
-175
-171
-168
-165
-162
-159
-156
-150
-145
-143
-142
-139
-136
-132
-128
-126
-125
-119
-114
-113
-105
-95
-96
-97
-89
-92
-99
-68
-18
-12
-43
-64
-69
-73
-74
-77
-76
-69
-71
-71
-56
-67
-34
250
704
859
436
-274
-760
-802
-580
-346
-146
24
103
108
123
151
165
179
199
213
229
253
281
309
338
374
418
468
523
581
637
689
736
770
784
773
737
676
589
480
359
239
126
22
-64
-127
-173
-204
-220
-227
-226
-221
-215
-208
-196
-184
-177
-173
-167
-161
-159
-157
-155
-155
-158
-160
-164
-169
-172
-173
-174
-172
-171
-173
-173
-169
-166
-165
-164
-162
-161
-156
-150
-148
-149
-147
-141
-136
-134
-132
-131
-129
-126
-124
-122
-119
-118
-119
-116
-113
-112
-111
-109
-108
-105
-96
-94
-98
-96
-93
-91
-67
-29
-23
-50
-73
-85
-93
-94
-96
-104
-102
-96
-103
-101
-94
-118
-48
291
724
805
343
-371
-844
-841
-573
-324
-135
7
53
47
68
97
108
120
137
153
172
194
220
250
284
323
367
416
472
535
598
656
705
737
745
732
696
631
536
421
296
170
55
-45
-128
-192
-235
-262
-276
-280
-280
-274
-264
-252
-238
-225
-216
-206
-193
-184
-180
-177
-174
-172
-170
-169
-169
-169
-169
-170
-166
-161
-161
-160
-154
-146
-142
-136
-127
-121
-115
-108
-102
-98
-90
-79
-71
-66
-58
-49
-40
-35
-33
-27
-17
-11
-8
-2
5
11
17
23
27
30
36
42
47
51
57
61
64
69
73
76
78
81
83
84
84
85
87
90
92
93
93
94
94
92
92
94
93
92
91
89
88
89
86
81
79
77
75
71
64
64
69
66
53
42
34
40
65
77
52
15
-8
-21
-35
-45
-50
-63
-81
-82
-96
-128
-7
383
763
705
140
-569
-954
-871
-578
-345
-202
-130
-128
-137
-126
-121
-125
-119
-114
-116
-112
-101
-89
-73
-52
-27
