# session 19
-53
-59
-39
-64
-152
-212
-205
-191
-193
-189
-183
-185
-185
-178
-173
-172
-169
-167
-164
-160
-157
-153
-150
-148
-145
-140
-140
-138
-126
-113
-117
-125
-125
-115
-91
-61
-58
-85
-109
-113
-110
-112
-110
-103
-107
-106
-91
-112
-82
245
782
997
578
-191
-775
-865
-603
-319
-131
1
59
60
77
106
118
133
157
177
196
219
243
272
306
344
387
439
493
549
610
671
723
764
789
793
773
730
661
565
449
325
204
90
-11
-96
-160
-207
-237
-252
-253
-247
-240
-231
-221
-210
-199
-190
-185
-178
-170
-168
-172
-174
-172
-174
-178
-179
-180
-182
-182
-178
-175
-174
-172
-168
-164
-160
-155
-152
-148
-145
-140
-135
-130
-126
-122
-117
-114
-111
-107
-101
-98
-95
-91
-88
-87
-84
-80
-79
-78
-76
-71
-70
-68
-64
-60
-58
-58
-56
-53
-53
-54
-54
-53
-52
-52
-51
-49
-47
-48
-48
-47
-47
-48
-48
-47
-46
-46
-44
-43
-44
-44
-44
-45
-42
-41
-44
-38
-26
-27
-38
-42
-41
-29
-1
18
1
-32
-51
-53
-54
-60
-60
-58
-66
-62
-62
-87
40
496
982
959
336
-439
-850
-756
-440
-193
-43
47
67
68
92
115
126
143
163
180
199
221
246
277
314
354
397
446
501
561
621
678
730
768
788
786
758
704
627
528
408
280
159
50
-48
-132
-195
-238
-265
-277
-277
-273
-267
-259
-248
-236
-226
-220
-216
-210
-205
-204
-207
-210
-212
-213
-215
-217
-218
-216
-215
-213
-210
-206
-202
-198
-195
-192
-188
-182
-178
-174
-168
-162
-156
-150
-146
-144
-139
-130
-125
-123
-120
-117
-113
-108
-102
-98
-95
-92
-90
-87
-81
-77
-76
-73
-68
-66
-66
-62
-59
-58
-57
-55
-55
-53
-50
-46
-47
-49
-47
-44
-42
-40
-36
-35
-35
-33
-31
-34
-31
-21
-17
-19
-21
-25
-23
3
30
21
-12
-32
-34
-34
-40
-40
-36
-44
-44
-31
-48
31
440
970
1020
410
-377
-808
-770
-507
-264
-83
50
98
97
116
141
151
165
183
197
214
236
258
283
315
350
389
432
479
533
592
648
695
729
750
749
726
680
611
517
407
290
172
61
-37
-117
-182
-227
-251
-262
-265
-263
-257
-249
-241
-234
-228
-226
-223
-218
-217
-220
-221
-221
-225
-230
-232
-233
-235
-235
-233
-232
-229
-225
-220
-218
-217
-212
-206
-205
-204
-198
-192
-189
-183
-176
-173
-170
-163
-157
-154
-150
-144
-140
-139
-137
-131
-126
-123
-119
-115
-114
-110
-104
-100
-97
-95
-95
-90
-76
-68
-72
-72
-72
-76
-53
-10
0
-30
-55
-60
-59
-59
-63
-63
-56
-58
-54
-44
-60
42
462
945
926
305
-435
-817
-755
-490
-255
-77
58
109
110
129
152
164
181
200
215
235
258
282
309
340
375
419
467
517
570
627
683
730
764
780
776
748
693
612
512
396
273
155
49
-44
-122
-180
-218
-238
-245
-246
-243
-238
-230
-220
-212
-207
-202
-198
-195
-195
-197
-200
-203
-206
-209
-211
-214
-216
-216
-215
-212
-209
-208
-206
-204
-202
-200
-198
-194
-191
-188
-185
-181
-176
-171
-169
-166
-162
-158
-155
-151
-147
-144
-142
-138
-135
-135
-132
-128
-126
-124
-119
-114
-114
-115
-109
-99
-97
-97
-91
-86
-82
-56
-21
-20
-46
-67
-77
-82
-82
-86
-87
-82
-85
-85
-72
-93
-68
235
755
1012
667
-89
-731
-875
-622
-332
-137
7
74
77
93
124
138
153
175
193
210
233
258
287
320
357
400
449
502
562
626
686
738
782
811
817
796
750
679
581
462
336
210
94
-8
-95
-161
-205
-232
-248
-251
-246
-238
-229
-220
-210
-201
-194
-188
-181
-175
-174
-174
-176
-176
-176
-179
-182
-182
-183
-185
-185
-182
-178
-175
-173
-170
-166
-162
-157
-154
-151
-148
-145
-143
-139
-133
-128
-125
-121
-116
-112
-107
-104
-102
-101
-100
-98
-94
-91
-90
-88
-86
-83
-80
-78
-76
-74
-71
-68
-66
-64
-63
-63
-62
-61
-62
-63
-61
-58
-58
-59
-58
-58
-58
-57
-57
-58
-56
-55
-56
-53
-46
-47
-49
-44
-43
-37
-6
22
10
-22
-41
-48
-53
-58
-60
-55
-59
-64
-52
-67
-70
173
690
1038
795
67
-638
-873
-655
-342
-135
-3
62
67
79
108
123
134
155
175
193
212
234
262
294
330
370
418
470
525
584
646
703
750
780
791
781
746
685
603
498
375
250
132
23
-71
-148
-206
-245
-266
-276
-276
-271
-263
-254
-242
-232
-226
-221
-214
-210
-210
-211
-212
-216
-222
-224
-222
-221
-221
-223
-225
-222
-216
-213
-212
-208
-203
-199
-194
-188
-182
-177
-172
-167
-163
-157
-151
-146
-142
-138
-134
-130
-125
-122
-121
-117
-111
-106
-103
-100
-96
-92
-88
-83
-80
-77
-75
-75
-73
-70
-68
-67
-64
-61
-60
-58
-57
-56
-52
-48
-49
-48
-38
-29
-31
-35
-33
-26
-10
13
16
-9
-33
-35
-32
-39
-40
-32
-39
-41
-29
-47
36
453
981
1014
391
-394
-815
-765
-493
-251
-76
53
102
102
121
144
153
168
188
202
218
240
263
289
317
351
392
439
486
539
598
651
694
728
747
744
721
675
603
506
396
281
165
56
-41
-123
-185
-226
-251
-262
-263
-259
-254
-245
-237
-230
-225
-220
-218
-217
-217
-219
-223
-225
-225
-229
-233
-235
-237
-240
-238
-237
-240
-236
-228
-226
-228
-223
-219
-217
-211
-205
-202
-197
-191
-187
-182
-175
-169
-164
-160
-159
-158
-151
-146
-144
-141
-137
-132
-128
-127
-121
-111
-109
-108
-98
-95
-99
-75
-29
-16
-43
-68
-76
-79
-80
-80
-79
-73
-77
-81
-63
-69
-58
205
728
1029
700
-59
-697
-860
-646
-375
-175
-10
87
101
108
137
155
167
187
205
223
247
271
296
326
362
404
451
502
557
615
672
725
767
792
796
777
733
664
570
456
334
214
102
-1
-87
-151
-195
-223
-236
-238
-233
-227
-219
-209
-201
-196
-190
-184
-179
-177
-176
-179
-183
-185
-187
-192
-196
-196
-195
-196
-197
-196
-193
-189
-185
-185
-185
-181
-176
-172
-169
-167
-165
-164
-160
-154
-149
-147
-145
-140
-135
-133
-132
-130
-127
-124
-123
-122
-121
-118
-114
-111
-109
-107
-105
-103
-101
-100
-98
-95
-93
-91
-88
-86
-85
-79
-75
-76
-72
-71
-71
-49
-12
-6
-32
-53
-62
-71
-74
-76
-78
-71
-72
-78
-67
-76
-87
120
616
1002
830
142
-582
-879
-707
-402
-184
-31
60
72
78
109
128
139
159
179
196
218
243
268
299
336
376
420
471
529
590
649
705
753
785
797
788
754
695
610
502
382
259
139
31
-61
-134
-188
-222
-240
-247
-247
-241
-232
-223
-213
-201
-191
-185
-180
-175
-172
-173
-174
-174
-175
-178
-180
-182
-183
-184
-183
-181
-178
-175
-173
-169
-163
-158
-155
-150
-145
-140
-135
-130
-125
-121
-117
-113
-109
-104
-99
-95
-92
-88
-84
-83
-81
-77
-73
-72
-70
-67
-65
-62
-58
-56
-55
-52
-48
-46
-46
-42
-40
-42
-42
-39
-37
-39
-42
-41
-38
-37
-37
-36
-36
-37
-37
-34
-33
-33
-34
-36
-37
-37
-36
-36
-35
-36
-35
-35
-37
-38
-35
-35
-38
-36
-33
-35
-39
-39
-39
-25
9
24
3
-25
-40
-50
-58
-65
-66
-61
-67
-72
-63
-81
-69
210
730
1014
690
-58
-702
-861
-616
-316
-122
1
54
56
72
99
111
126
148
164
181
205
229
254
285
322
364
412
466
522
580
639
693
737
769
782
770
734
677
594
487
367
245
127
20
-74
-152
-210
-249
-272
-281
-279
-274
-267
-256
-245
-234
-225
-216
-211
-209
-207
-207
-208
-209
-213
-218
-219
-218
-219
-219
-217
-216
-215
-209
-203
-200
-199
-195
-190
-184
-179
-175
-171
-166
-162
-156
-149
-142
-137
-133
-128
-122
-120
-118
-114
-109
-105
-102
-99
-95
-90
-86
-83
-78
-72
-70
-69
-65
-62
-61
-59
-58
-56
-52
-51
-52
-52
-49
-45
-43
-44
-45
-43
-40
-37
-37
-36
-35
-36
-33
-22
-16
-23
-29
-26
-19
-1
23
23
-5
-30
-34
-34
-42
-41
-36
-43
-41
-33
-52
44
473
994
1012
382
-408
-825
-760
-479
-238
-66
55
95
96
117
138
144
159
180
195
210
230
255
283
314
349
390
436
485
539
596
654
702
735
754
755
731
683
613
518
404
285
171
62
-38
-120
-183
-229
-255
-264
-266
-265
-255
-243
-237
-232
-223
-215
-213
-212
-210
-209
-208
-208
-212
-220
-227
-227
-225
-225
-224
-222
-221
-220
-216
-212
-209
-206
-201
-199
-197
-191
-187
-183
-177
-169
-162
-157
-154
-151
-145
-140
-136
-134
-133
-129
-122
-117
-116
-112
-107
-105
-103
-97
-92
-92
-90
-83
-82
-83
-74
-68
-72
-68
-62
-70
-59
-14
10
-13
-41
-51
-55
-56
-57
-63
-60
-54
-58
-49
-43
-47
145
642
1012
750
8
-632
-833
-682
-431
-215
-37
76
102
106
131
151
161
176
195
211
228
249
275
303
332
367
409
455
507
564
615
660
702
734
745
734
700
642
559
452
335
219
107
1
-89
-158
-206
-237
-254
-260
-257
-252
-244
-235
-229
-225
-220
-215
-212
-210
-210
-211
-212
-217
-222
-224
-228
-232
-231
-227
-226
-227
-226
-225
-223
-219
-217
-214
-210
-203
-198
-197
-193
-185
-179
-177
-172
-167
-161
-155
-151
-146
-139
-138
-138
-112
-70
-58
-81
-103
-111
-114
-116
-115
-115
-108
-101
-104
-95
-82
-100
-5
395
875
895
307
-452
-866
-810
-544
-309
-118
32
88
89
110
137
149
166
186
203
224
249
270
296
330
368
411
461
515
573
632
689
738
771
784
777
745
684
596
487
364
239
123
16
-76
-147
-196
-228
-244
-249
-248
-244
-239
-230
-219
-211
-205
-197
-190
-186
-186
-186
-185
-187
-192
-199
-203
-204
-205
-206
-205
-204
-202
-199
-196
-195
-193
-190
-188
-187
-186
-182
-176
-171
-170
-167
-160
-154
-154
-155
-151
-147
-144
-141
-139
-136
-133
-129
-126
-126
-124
-114
-108
-109
-107
-103
-99
-75
-37
-29
-54
-77
-87
-94
-97
-96
-98
-94
-91
-98
-89
-82
-112
-29
359
846
946
461
-305
-828
-836
-545
-284
-107
19
63
64
88
114
126
144
165
180
201
226
253
283
317
356
400
451
508
568
630
689
741
780
801
800
774
723
645
541
419
292
170
60
-36
-114
-171
-205
-225
-235
-235
-229
-223
-216
-206
-196
-185
-174
-165
-161
-159
-157
-158
-160
-161
-160
-159
-162
-165
-164
-164
-163
-161
-159
-157
-152
-145
-141
-139
-135
-129
-124
-120
-116
-112
-107
-103
-99
-95
-91
-87
-81
-77
-75
-74
-70
-65
-62
-61
-59
-57
-55
-52
-49
-47
-45
-43
-41
-38
-35
-34
-34
-33
-30
-29
-31
-31
-28
-28
-30
-30
-29
-29
-28
-29
-30
-30
-29
-29
-28
-27
-27
-28
-29
-30
-31
-32
-32
-31
-31
-31
-32
-33
-33
-33
-34
-35
-38
-40
-40
-43
-47
-43
-39
-43
-46
-49
-55
-41
-3
12
-14
-46
-58
-62
-70
-74
-68
-74
-79
-69
-91
-77
204
705
956
628
-86
-695
-845
-606
-311
-124
-11
37
40
54
79
93
108
129
145
162
185
211
238
268
304
347
394
445
501
561
618
670
717
750
763
755
726
671
588
486
372
251
133
27
-66
-144
-203
-241
-264
-274
-273
-267
-260
-251
-241
-230
-222
-215
-209
-206
-204
-203
-204
-207
-210
-212
-216
-218
-219
-218
-215
-213
-209
-205
-202
-199
-191
-183
-180
-179
-174
-166
-159
-155
-151
-146
-139
-131
-126
-122
-117
-111
-107
-103
-100
-95
-91
-85
-82
-80
-77
-72
-65
-59
-57
-56
-53
-48
-43
-42
-42
-39
-37
-34
-31
-31
-31
-29
-26
-24
-24
-24
-22
-19
-15
-13
-13
-14
-14
-13
-12
-13
-12
-7
-7
-9
-1
9
5
-4
-7
-6
6
34
48
27
-3
-14
-15
-22
-26
-19
-23
-32
-19
-30
-16
274
814
1058
636
-142
-711
-807
-577
-315
-130
14
92
98
104
127
142
155
172
186
199
218
238
262
291
323
359
401
447
499
554
607
655
695
721
731
718
682
619
533
432
321
203
88
-14
-101
-173
-227
-263
-279
-284
-284
-280
-271
-264
-259
-252
-245
-239
-237
-240
-243
-244
-246
-251
-255
-256
-260
-264
-265
-266
-266
-262
-257
-255
-254
-250
-245
-241
-239
-235
-227
-220
-216
-214
-210
-201
-195
-194
-191
-186
-180
-175
-171
-168
-165
-160
-153
-148
-147
-144
-136
-131
-128
-123
-117
-114
-113
-108
-102
-101
-100
-91
-82
-80
-77
-74
-79
-67
-22
10
-8
-40
-51
-51
-49
-48
-46
-39
-40
-43
-24
-25
-22
214
721
1022
702
-31
-629
-785
-601
-346
-142
31
138
157
161
188
209
224
245
263
277
297
323
348
378
413
452
496
545
595
649
706
757
797
828
840
826
793
735
645
541
433
317
200
98
15
-55
-106
-134
-146
-151
-152
-146
-138
-132
-128
-123
-119
-117
-115
-114
-117
-124
-130
-137
-145
-151
-155
-159
-163
-166
-167
-168
-169
-170
-171
-172
-173
-174
-175
-176
-177
-178
-177
-176
-179
-180
-179
-179
-179
-180
-181
-183
-183
-185
-188
-190
-193
-195
-197
-198
-195
-192
-198
-204
-204
-208
-203
-169
-140
-155
-189
-209
-220
-228
-229
-232
-236
-234
-240
-242
-230
-250
-234
47
540
771
415
-311
-904
-1038
-817
-552
-356
-194
-106
-98
-88
-60
-44
-28
-3
16
34
59
89
123
160
199
242
294
352
415
482
549
608
655
688
701
691
659
601
517
413
300
189
89
0
-73
-123
-152
-166
-167
-156
-137
-114
-89
-63
-37
-13
13
39
65
