# session 24
140
141
109
174
119
-329
-744
-647
-302
-78
73
184
195
186
213
226
229
245
260
271
287
307
327
353
384
419
461
509
561
615
670
722
763
786
790
770
727
660
565
445
316
188
69
-39
-131
-202
-250
-281
-299
-304
-301
-296
-290
-282
-276
-270
-263
-256
-252
-251
-250
-250
-250
-254
-258
-260
-262
-264
-267
-267
-265
-264
-263
-260
-256
-252
-249
-243
-237
-233
-229
-224
-219
-215
-210
-204
-199
-194
-188
-182
-176
-170
-165
-163
-161
-157
-152
-148
-145
-141
-138
-135
-130
-125
-122
-118
-113
-110
-106
-101
-97
-96
-92
-88
-86
-80
-74
-75
-74
-66
-58
-41
-5
15
-5
-36
-51
-55
-56
-58
-59
-54
-52
-56
-46
-48
-71
83
573
1075
1039
365
-462
-872
-742
-413
-171
-12
84
102
106
135
155
165
186
206
223
246
273
299
329
365
406
451
501
558
617
676
730
775
808
822
811
772
711
628
521
396
270
152
45
-50
-124
-176
-211
-235
-242
-237
-231
-228
-222
-210
-199
-193
-190
-186
-185
-186
-189
-191
-194
-198
-203
-206
-209
-211
-209
-207
-208
-206
-200
-196
-194
-190
-189
-188
-183
-176
-172
-169
-164
-160
-155
-151
-148
-142
-136
-134
-133
-130
-127
-123
-118
-114
-111
-109
-106
-103
-98
-95
-95
-92
-86
-83
-83
-81
-77
-75
-75
-73
-72
-72
-71
-67
-66
-66
-64
-60
-60
-61
-61
-58
-51
-46
-47
-44
-42
-47
-32
9
28
5
-23
-35
-44
-47
-48
-52
-47
-43
-51
-46
-43
-49
142
662
1090
876
113
-603
-853
-691
-414
-196
-28
77
98
98
124
147
156
171
188
205
224
246
271
300
332
367
408
455
507
560
610
658
700
727
734
722
690
636
556
456
345
232
123
22
-64
-133
-184
-217
-234
-239
-237
-232
-225
-218
-211
-205
-200
-198
-197
-195
-194
-197
-203
-208
-213
-217
-218
-217
-218
-220
-223
-226
-228
-227
-224
-223
-221
-219
-217
-214
-207
-203
-200
-194
-188
-184
-183
-179
-175
-173
-172
-169
-165
-158
-151
-149
-147
-143
-138
-133
-129
-128
-124
-119
-117
-116
-109
-103
-100
-93
-89
-85
-59
-20
-13
-40
-63
-73
-79
-80
-79
-81
-77
-73
-78
-68
-63
-87
38
498
1012
1020
386
-431
-871
-786
-474
-220
-45
68
97
99
125
148
159
180
201
218
239
264
290
320
355
394
438
490
544
600
661
719
764
793
804
792
755
694
607
495
370
246
128
20
-71
-143
-194
-227
-244
-251
-249
-241
-232
-225
-217
-209
-201
-195
-190
-187
-186
-184
-185
-189
-193
-197
-200
-201
-203
-205
-206
-203
-200
-199
-198
-195
-190
-185
-181
-179
-176
-171
-167
-164
-160
-156
-153
-149
-144
-141
-137
-133
-130
-126
-123
-122
-119
-115
-115
-113
-109
-106
-104
-101
-99
-98
-93
-90
-89
-86
-83
-83
-82
-81
-79
-73
-71
-72
-68
-61
-57
-38
-2
11
-15
-43
-53
-57
-60
-66
-71
-65
-63
-67
-58
-64
-82
103
617
1077
948
223
-566
-900
-735
-413
-177
-18
71
84
92
122
139
150
171
191
207
230
254
274
303
343
385
429
480
534
589
646
698
741
769
779
766
729
666
579
471
348
225
111
10
-79
-154
-208
-240
-256
-262
-260
-253
-247
-239
-229
-219
-215
-213
-213
-211
-210
-212
-216
-219
-222
-227
-230
-229
-229
-231
-230
-225
-221
-218
-214
-212
-211
-209
-205
-198
-192
-189
-184
-178
-174
-170
-164
-158
-154
-149
-144
-138
-135
-134
-132
-127
-122
-117
-115
-114
-109
-103
-102
-100
-94
-89
-88
-87
-82
-75
-73
-69
-62
-62
-56
-22
6
-7
-37
-51
-57
-61
-59
-61
-63
-57
-59
-61
-45
-56
-25
306
870
1090
616
-199
-768
-840
-591
-320
-124
26
99
105
118
147
158
170
192
211
226
247
272
298
326
361
402
449
498
550
605
659
705
739
759
758
733
685
614
519
406
289
174
66
-32
-113
-172
-210
-231
-242
-245
-241
-233
-223
-215
-209
-205
-203
-201
-198
-196
-199
-204
-208
-212
-216
-220
-223
-224
-224
-224
-223
-221
-221
-219
-213
-208
-208
-206
-201
-197
-193
-189
-185
-181
-176
-171
-167
-163
-159
-154
-151
-148
-145
-142
-140
-137
-132
-127
-125
-123
-121
-118
-114
-110
-108
-105
-97
-90
-90
-89
-83
-79
-64
-29
-7
-23
-51
-64
-72
-78
-78
-79
-77
-73
-78
-73
-66
-92
-11
398
946
1074
536
-305
-852
-842
-528
-254
-76
46
87
89
112
137
147
165
189
207
227
250
276
306
341
378
422
472
527
585
642
696
744
779
793
785
758
705
623
517
398
276
158
49
-46
-122
-176
-214
-237
-245
-242
-236
-230
-221
-211
-203
-197
-190
-185
-185
-187
-188
-190
-193
-196
-198
-201
-204
-205
-205
-203
-204
-202
-197
-193
-191
-187
-184
-181
-178
-174
-170
-165
-161
-158
-153
-148
-144
-140
-136
-132
-129
-125
-122
-119
-118
-116
-112
-108
-104
-101
-100
-99
-95
-92
-90
-89
-86
-83
-79
-78
-78
-79
-77
-75
-74
-73
-72
-71
-73
-68
-59
-58
-60
-54
-49
-43
-13
18
11
-20
-41
-49
-54
-55
-58
-57
-54
-59
-54
-49
-78
4
423
974
1086
525
-316
-846
-826
-508
-232
-61
49
84
83
105
128
140
158
178
194
215
241
264
291
324
361
404
455
509
563
618
672
718
752
770
767
741
691
618
520
406
284
166
57
-40
-122
-185
-225
-246
-256
-258
-254
-248
-241
-232
-224
-219
-214
-211
-211
-212
-213
-217
-221
-223
-224
-229
-234
-234
-233
-233
-231
-227
-225
-224
-221
-217
-214
-210
-205
-199
-193
-189
-186
-180
-174
-170
-164
-157
-153
-149
-144
-143
-141
-135
-128
-125
-121
-118
-115
-113
-108
-102
-97
-95
-94
-90
-87
-85
-77
-71
-73
-70
-64
-66
-53
-12
9
-15
-43
-52
-58
-62
-59
-62
-63
-56
-57
-53
-46
-61
67
540
1053
997
299
-488
-857
-759
-473
-232
-54
68
103
102
125
149
161
177
196
211
228
250
275
306
339
372
412
459
512
567
620
668
710
739
751
742
708
650
570
471
356
239
128
26
-65
-139
-191
-220
-234
-241
-240
-234
-228
-222
-215
-210
-209
-206
-202
-203
-205
-206
-211
-219
-222
-223
-226
-228
-229
-228
-226
-223
-222
-221
-217
-214
-213
-209
-204
-203
-201
-194
-190
-188
-184
-179
-176
-171
-165
-161
-158
-155
-150
-146
-144
-141
-137
-133
-130
-127
-125
-122
-112
-105
-106
-103
-95
-90
-69
-30
-17
-41
-66
-75
-83
-89
-88
-90
-87
-82
-86
-81
-74
-98
-8
415
967
1083
520
-335
-875
-851
-533
-258
-78
44
84
85
109
134
146
165
188
207
229
255
281
309
342
381
425
475
528
585
643
699
745
778
793
788
755
697
615
510
388
265
148
39
-56
-130
-183
-218
-237
-243
-243
-238
-230
-223
-214
-205
-197
-192
-187
-184
-186
-190
-192
-194
-198
-201
-203
-206
-207
-205
-203
-202
-200
-196
-194
-192
-187
-183
-180
-177
-175
-171
-166
-162
-159
-156
-150
-146
-142
-137
-132
-129
-128
-126
-123
-119
-116
-115
-112
-109
-106
-104
-100
-97
-94
-93
-92
-88
-85
-83
-81
-78
-79
-80
-77
-75
-75
-68
-63
-64
-63
-59
-58
-41
-2
14
-10
-37
-50
-58
-63
-64
-65
-61
-61
-66
-55
-63
-81
110
632
1105
996
271
-549
-904
-731
-402
-174
-21
67
79
82
110
129
141
161
180
198
222
247
272
301
335
376
423
472
525
583
640
692
735
764
774
765
732
673
589
485
367
245
128
21
-71
-145
-198
-234
-252
-255
-252
-249
-243
-233
-225
-219
-213
-209
-208
-206
-207
-212
-217
-218
-220
-225
-228
-227
-228
-229
-227
-223
-219
-216
-214
-211
-206
-202
-200
-197
-192
-186
-180
-176
-173
-167
-158
-152
-149
-146
-142
-139
-135
-132
-128
-123
-118
-117
-114
-109
-105
-103
-98
-93
-90
-86
-83
-82
-80
-79
-78
-74
-66
-63
-63
-56
-54
-58
-38
5
18
-11
-38
-44
-48
-53
-58
-60
-52
-49
-56
-43
-39
-40
187
735
1135
856
48
-661
-865
-664
-384
-175
-10
86
100
107
134
146
156
179
197
209
229
253
276
303
337
376
419
464
514
569
621
667
706
728
729
713
676
613
528
424
311
197
89
-10
-96
-163
-209
-236
-249
-252
-250
-245
-239
-231
-225
-223
-220
-216
-215
-216
-219
-223
-228
-233
-236
-239
-240
-240
-241
-241
-239
-237
-235
-231
-227
-223
-219
-218
-216
-212
-205
-201
-198
-194
-190
-186
-179
-171
-165
-163
-160
-156
-153
-151
-148
-138
-131
-128
-123
-119
-115
-89
-47
-35
-62
-88
-96
-99
-101
-100
-101
-97
-89
-92
-88
-78
-97
3
444
1000
1083
477
-385
-893
-846
-529
-261
-79
45
83
85
111
135
147
169
191
205
225
253
280
309
343
383
427
479
535
592
647
701
747
776
786
777
741
678
591
482
360
237
121
16
-74
-143
-191
-221
-237
-242
-240
-234
-226
-218
-211
-204
-197
-191
-188
-187
-185
-185
-189
-193
-195
-198
-202
-206
-206
-205
-205
-204
-201
-198
-197
-193
-188
-185
-184
-182
-178
-173
-169
-167
-165
-161
-157
-154
-149
-144
-140
-138
-136
-133
-130
-129
-129
-127
-122
-119
-117
-113
-112
-112
-109
-103
-99
-98
-99
-94
-86
-85
-88
-85
-79
-67
-37
-8
-15
-44
-63
-73
-79
-82
-85
-83
-77
-80
-82
-71
-94
-69
251
822
1131
775
-57
-762
-903
-617
-311
-122
12
72
71
87
116
130
147
171
186
204
229
255
284
319
357
398
446
499
554
611
668
720
758
780
783
762
716
647
553
439
315
194
83
-15
-98
-162
-206
-229
-238
-241
-240
-233
-224
-215
-205
-195
-187
-183
-181
-181
-184
-188
-190
-191
-193
-195
-197
-198
-197
-195
-193
-192
-189
-187
-183
-175
-169
-167
-162
-157
-155
-152
-146
-141
-136
-131
-124
-119
-114
-109
-105
-103
-99
-95
-91
-89
-88
-84
-78
-76
-75
-72
-68
-66
-63
-60
-57
-54
-51
-48
-48
-49
-47
-44
-43
-44
-44
-44
-42
-38
-36
-38
-38
-34
-33
-34
-34
-33
-33
-32
-31
-29
-29
-31
-27
-21
-24
-29
-24
-23
-27
-3
35
36
5
-19
-28
-34
-39
-46
-46
-41
-47
-49
-40
-61
16
426
969
1047
457
-349
-816
-787
-511
-264
-89
38
82
78
98
122
130
146
165
177
195
219
240
264
296
330
367
411
458
507
558
608
650
680
695
693
670
626
559
471
370
262
154
54
-38
-118
-180
-219
-240
-251
-256
-256
-252
-246
-239
-233
-228
-225
-224
-222
-223
-228
-231
-234
-240
-244
-245
-248
-251
-249
-246
-244
-243
-241
-238
-235
-232
-229
-226
-221
-215
-210
-207
-201
-196
-191
-187
-183
-178
-174
-168
-160
-155
-155
-152
-147
-142
-137
-130
-126
-123
-115
-109
-107
-82
-41
-29
-54
-78
-87
-92
-92
-88
-89
-87
-79
-82
-77
-66
-85
9
442
995
1077
473
-371
-866
-827
-522
-254
-71
55
98
100
123
149
162
178
198
216
237
260
286
317
351
389
434
483
538
596
653
705
751
782
791
778
741
679
589
478
355
230
111
6
-84
-155
-202
-231
-250
-256
-252
-245
-238
-230
-221
-213
-205
-197
-192
-192
-192
-192
-194
-199
-202
-204
-206
-208
-210
-211
-212
-211
-209
-205
-201
-198
-196
-192
-188
-186
-183
-179
-174
-169
-165
-163
-159
-155
-151
-147
-144
-139
-135
-133
-130
-130
-129
-125
-121
-118
-116
-112
-109
-108
-103
-96
-94
-94
-87
-79
-73
-49
-14
-10
-39
-61
-69
-77
-79
-79
-82
-78
-75
-80
-71
-75
-98
60
554
1062
1041
379
-466
-905
-785
-450
-204
-43
56
76
79
107
128
140
160
181
200
220
244
272
304
339
378
425
477
534
592
650
705
749
777
789
780
743
679
590
477
353
230
113
4
-87
-155
-205
-240
-257
-260
-257
-254
-248
-239
-228
-217
-208
-204
-205
-203
-200
-201
-206
-210
-213
-217
-218
-218
-219
-221
-220
-218
-214
-209
-206
-203
-200
-198
-196
-192
-186
-183
-180
-173
-166
-162
-159
-153
-147
-146
-146
-141
-136
-134
-129
-123
-120
-120
-117
-113
-109
-105
-102
-98
-94
-91
-91
-89
-88
-85
-82
-81
-79
-73
-68
-65
-59
-58
-58
-33
7
13
-19
-43
-49
-55
-58
-55
-55
-55
-54
-56
-44
-41
-55
117
623
1100
984
254
-535
-864
-710
-413
-188
-20
84
104
108
136
154
163
183
203
220
238
261
288
317
349
386
429
477
528
581
636
686
725
749
756
740
702
646
567
464
348
234
124
21
-66
-132
-181
-213
-228
-231
-229
-224
-217
-209
-201
-196
-191
-187
-186
-189
-190
-191
-196
-202
-204
-206
-211
-215
-217
-218
-217
-216
-216
-215
-213
-210
-208
-206
-201
-197
-194
-193
-191
-184
-176
-172
-172
-171
-167
-162
-155
-152
-152
-152
-148
-145
-142
-138
-136
-135
-131
-127
-126
-125
-122
-113
-107
-107
-104
-104
-101
-76
-40
-37
-66
-91
-99
-104
-106
-106
-111
-108
-101
-107
-104
-97
-121
-34
385
931
1031
465
-363
-875
-856
-560
-299
-118
10
54
54
75
100
115
133
152
168
190
213
237
267
302
340
384
433
487
544
599
652
699
731
743
736
707
652
570
466
348
229
117
14
-77
-149
-199
-231
-247
-251
-247
-239
-231
-220
-208
-197
-187
-180
-175
-170
-165
-165
-167
-166
-166
-167
-167
-166
-165
-164
-162
-158
-154
-148
-142
-137
-131
-123
-116
-112
-108
-101
-95
-90
-84
-76
-70
-65
-59
-52
-45
-39
-33
-28
-24
-21
-18
-13
-8
-3
0
2
7
12
14
16
19
21
