# session 11
-19
-27
-18
58
110
48
-16
-7
-7
-33
-38
-38
-50
-55
-54
-57
-61
-64
-64
-64
-65
-65
-66
-68
-69
-67
-67
-68
-69
-70
-73
-75
-75
-76
-78
-79
-78
-79
-81
-82
-83
-83
-83
-84
-88
-90
-82
-74
-77
-79
-79
-77
-58
-24
-9
-27
-51
-69
-81
-86
-90
-91
-86
-87
-88
-77
-94
-100
74
458
798
752
184
-570
-921
-737
-412
-195
-40
47
53
59
91
110
121
141
160
177
198
222
249
282
320
360
403
457
516
572
629
684
728
751
752
728
681
612
516
400
278
161
53
-41
-116
-174
-213
-234
-240
-240
-238
-233
-223
-211
-200
-192
-186
-180
-176
-175
-174
-170
-170
-173
-177
-179
-183
-185
-185
-184
-182
-182
-182
-181
-180
-176
-170
-167
-165
-159
-153
-152
-150
-143
-136
-133
-130
-126
-122
-117
-114
-114
-113
-110
-106
-104
-99
-95
-93
-90
-85
-83
-83
-82
-79
-75
-70
-68
-67
-63
-60
-59
-60
-58
-56
-55
-55
-56
-54
-52
-49
-46
-47
-53
-52
-42
-38
-42
-39
-35
-36
-13
27
35
8
-17
-28
-38
-46
-43
-36
-41
-49
-37
-42
-70
40
404
814
868
368
-404
-869
-784
-458
-203
-34
68
88
93
121
139
148
167
185
202
222
242
265
298
334
370
417
472
524
578
639
696
740
771
784
774
739
679
593
487
367
239
118
14
-75
-149
-203
-237
-256
-262
-261
-258
-250
-240
-232
-224
-217
-212
-208
-208
-209
-210
-210
-213
-216
-217
-217
-220
-222
-222
-219
-216
-212
-210
-208
-205
-201
-200
-198
-194
-188
-183
-178
-174
-172
-167
-161
-157
-153
-148
-143
-138
-133
-130
-128
-124
-123
-124
-120
-111
-109
-109
-104
-100
-99
-98
-93
-89
-86
-84
-80
-78
-78
-71
-64
-66
-65
-56
-55
-55
-26
14
17
-11
-35
-45
-50
-55
-56
-52
-52
-55
-45
-49
-70
59
466
898
882
268
-532
-930
-789
-457
-199
-19
85
103
109
136
153
167
189
207
221
241
264
289
320
358
397
442
494
552
610
668
723
768
797
806
788
745
679
588
469
336
208
91
-16
-104
-169
-216
-246
-260
-263
-262
-257
-248
-239
-229
-219
-212
-210
-207
-205
-206
-210
-212
-214
-217
-218
-219
-222
-224
-222
-221
-223
-221
-214
-209
-209
-206
-198
-193
-192
-188
-183
-182
-180
-172
-166
-164
-160
-154
-150
-147
-142
-139
-137
-135
-132
-128
-123
-120
-119
-116
-112
-108
-100
-93
-93
-90
-84
-81
-63
-23
-6
-30
-59
-72
-76
-81
-85
-85
-78
-81
-82
-71
-85
-45
285
838
1081
630
-234
-862
-915
-622
-339
-136
22
87
89
109
137
148
162
185
203
222
245
268
297
332
369
411
460
515
572
631
687
736
768
780
770
736
676
592
486
365
237
112
4
-85
-158
-212
-241
-253
-258
-255
-248
-240
-232
-225
-221
-218
-214
-212
-214
-216
-219
-224
-226
-227
-231
-235
-233
-230
-230
-230
-228
-223
-216
-216
-217
-211
-205
-203
-198
-194
-191
-184
-177
-175
-173
-167
-164
-160
-149
-141
-137
-131
-129
-127
-104
-66
-56
-79
-104
-114
-117
-115
-114
-115
-106
-102
-108
-95
-92
-76
170
682
982
623
-174
-796
-916
-696
-435
-221
-33
74
88
94
122
141
154
174
193
211
232
255
281
312
349
390
437
489
546
603
655
699
731
744
737
706
649
564
459
343
225
112
6
-82
-147
-192
-219
-229
-229
-229
-226
-216
-206
-201
-198
-193
-189
-186
-186
-188
-190
-193
-198
-202
-204
-207
-210
-209
-208
-207
-203
-200
-203
-203
-198
-193
-189
-187
-184
-179
-174
-172
-167
-160
-155
-151
-147
-142
-133
-128
-129
-125
-120
-116
-90
-49
-42
-71
-94
-100
-104
-106
-107
-103
-94
-94
-93
-79
-93
-83
147
602
912
682
-45
-746
-929
-679
-394
-194
-23
69
74
85
117
133
149
169
184
202
224
245
272
308
345
385
433
487
543
601
658
706
736
747
740
711
656
574
468
348
227
112
7
-81
-148
-195
-226
-243
-247
-242
-235
-232
-226
-216
-207
-198
-192
-190
-188
-186
-187
-189
-192
-196
-201
-204
-206
-209
-211
-208
-205
-207
-208
-203
-198
-196
-195
-192
-187
-182
-178
-175
-170
-163
-160
-160
-154
-147
-146
-147
-143
-137
-133
-131
-129
-123
-112
-106
-106
-104
-101
-90
-56
-23
-30
-58
-76
-85
-90
-91
-92
-88
-81
-86
-82
-74
-100
-47
285
785
993
582
-242
-864
-898
-584
-308
-119
25
77
79
103
129
140
161
184
199
219
244
270
301
335
374
421
475
531
589
649
704
752
785
795
783
750
689
601
490
365
238
120
14
-75
-146
-195
-223
-238
-243
-241
-233
-224
-215
-206
-197
-190
-185
-183
-182
-184
-186
-190
-193
-196
-199
-201
-202
-202
-202
-202
-201
-199
-194
-187
-184
-183
-180
-174
-169
-166
-162
-159
-157
-153
-147
-142
-138
-135
-131
-126
-122
-120
-119
-115
-110
-112
-112
-105
-99
-99
-97
-92
-90
-88
-85
-82
-80
-79
-76
-74
-71
-71
-72
-70
-62
-59
-60
-57
-53
-54
-36
5
21
-3
-29
-42
-48
-51
-56
-57
-50
-53
-54
-41
-57
-45
212
704
992
685
-80
-744
-883
-625
-341
-142
19
94
93
106
136
148
159
181
199
215
237
260
284
315
354
394
437
489
546
603
654
699
733
752
749
721
670
598
505
396
278
163
59
-31
-110
-171
-208
-227
-236
-239
-238
-230
-219
-211
-203
-196
-192
-191
-190
-192
-196
-199
-202
-206
-212
-216
-217
-218
-220
-220
-218
-216
-214
-210
-206
-205
-203
-201
-198
-192
-186
-183
-179
-173
-167
-164
-161
-157
-150
-144
-140
-138
-136
-134
-128
-123
-120
-117
-112
-108
-108
-105
-99
-96
-93
-89
-88
-84
-74
-70
-74
-71
-65
-70
-59
-18
7
-11
-38
-48
-53
-56
-58
-61
-55
-49
-57
-51
-43
-58
66
488
913
820
164
-555
-859
-727
-456
-235
-49
81
112
111
135
158
170
188
205
222
243
263
287
317
349
383
428
478
530
583
636
684
722
744
746
728
687
622
537
433
317
201
95
0
-82
-144
-187
-213
-223
-224
-221
-216
-206
-196
-190
-185
-179
-175
-173
-173
-175
-179
-182
-187
-192
-196
-199
-201
-203
-204
-205
-204
-201
-199
-197
-197
-194
-190
-188
-184
-179
-175
-173
-168
-165
-162
-157
-151
-147
-146
-145
-142
-138
-137
-134
-129
-126
-125
-123
-121
-117
-113
-110
-107
-105
-103
-100
-97
-91
-84
-81
-82
-79
-74
-75
-61
-22
2
-15
-42
-57
-64
-69
-73
-75
-71
-71
-74
-63
-71
-89
66
498
918
863
229
-553
-916
-761
-444
-207
-33
70
87
95
123
140
153
177
197
212
232
257
284
316
353
395
444
497
552
612
673
726
768
796
800
780
736
666
568
451
326
201
87
-12
-97
-163
-208
-234
-248
-252
-248
-239
-230
-221
-212
-201
-192
-186
-186
-185
-184
-186
-190
-192
-195
-198
-200
-200
-200
-199
-198
-196
-195
-192
-189
-186
-182
-177
-176
-174
-168
-161
-156
-154
-150
-146
-141
-136
-131
-129
-126
-121
-117
-115
-114
-111
-106
-102
-100
-99
-97
-94
-89
-83
-81
-81
-80
-77
-75
-74
-74
-72
-70
-69
-65
-65
-67
-62
-53
-53
-56
-51
-49
-44
-11
24
19
-11
-33
-43
-47
-50
-51
-47
-47
-51
-39
-45
-64
95
545
955
845
179
-565
-879
-719
-421
-198
-27
79
97
99
126
146
158
177
194
207
224
248
276
304
336
374
420
470
523
579
637
687
723
742
746
730
688
621
534
427
307
189
83
-13
-98
-166
-213
-241
-252
-253
-250
-246
-239
-229
-220
-215
-211
-207
-205
-206
-207
-208
-211
-215
-220
-223
-226
-229
-232
-232
-228
-227
-227
-225
-221
-217
-215
-211
-207
-203
-201
-198
-193
-187
-184
-180
-174
-168
-164
-161
-156
-152
-148
-144
-141
-138
-132
-128
-127
-119
-107
-104
-105
-98
-95
-84
-49
-19
-27
-53
-69
-79
-83
-81
-80
-79
-77
-79
-71
-66
-88
3
372
817
877
363
-401
-869
-818
-515
-260
-75
58
97
97
123
150
161
177
198
215
235
257
282
312
348
387
434
487
542
599
658
714
760
790
798
784
744
677
583
468
341
218
102
-1
-85
-148
-198
-229
-240
-242
-240
-236
-229
-218
-206
-197
-191
-186
-183
-181
-180
-181
-184
-188
-191
-195
-196
-198
-200
-201
-200
-198
-195
-193
-191
-189
-186
-184
-181
-176
-172
-169
-168
-165
-160
-156
-153
-150
-147
-144
-140
-135
-132
-130
-129
-125
-123
-122
-120
-119
-116
-112
-110
-108
-105
-100
-98
-93
-84
-83
-87
-80
-75
-72
-44
-6
-6
-36
-57
-66
-74
-78
-79
-78
-75
-79
-75
-68
-93
-39
304
818
1002
539
-296
-881
-894
-576
-286
-91
39
83
85
107
133
146
166
187
203
224
248
273
304
341
380
425
479
537
597
659
717
766
801
817
810
776
715
630
520
391
261
139
27
-68
-142
-197
-234
-252
-254
-252
-250
-242
-231
-223
-217
-208
-199
-194
-193
-193
-197
-201
-205
-209
-213
-215
-215
-213
-211
-211
-210
-206
-204
-203
-200
-196
-192
-187
-183
-179
-174
-171
-168
-163
-157
-153
-149
-145
-141
-138
-135
-132
-127
-123
-119
-114
-111
-111
-108
-104
-103
-102
-97
-90
-88
-87
-85
-81
-78
-78
-76
-70
-67
-65
-61
-62
-53
-20
9
1
-28
-49
-57
-58
-60
-64
-61
-58
-63
-53
-51
-63
99
569
1000
869
158
-595
-892
-728
-440
-217
-38
74
92
97
128
146
153
171
192
208
226
249
274
304
340
380
423
468
520
579
635
682
719
742
744
727
688
622
534
427
307
186
77
-18
-101
-166
-210
-233
-242
-244
-245
-238
-225
-217
-215
-212
-206
-205
-206
-206
-206
-209
-213
-217
-222
-223
-223
-225
-229
-227
-224
-222
-221
-217
-215
-214
-209
-204
-201
-200
-196
-189
-182
-177
-173
-168
-163
-159
-156
-150
-143
-140
-140
-134
-124
-122
-122
-114
-105
-105
-87
-46
-28
-52
-78
-86
-89
-93
-95
-94
-85
-79
-84
-74
-72
-79
90
546
920
720
6
-667
-885
-715
-456
-242
-53
72
100
105
130
148
159
181
201
216
237
262
286
314
349
389
433
482
538
593
647
696
731
748
748
726
678
603
507
395
275
158
51
-40
-117
-175
-211
-228
-232
-232
-229
-221
-212
-205
-199
-194
-189
-186
-184
-185
-187
-190
-192
-195
-202
-208
-209
-210
-212
-213
-210
-208
-207
-205
-203
-203
-199
-194
-191
-188
-183
-178
-177
-177
-172
-165
-160
-157
-154
-151
-150
-150
-146
-141
-139
-136
-128
-121
-119
-117
-115
-110
-83
-46
-38
-61
-83
-93
-100
-104
-105
-103
-95
-97
-99
-84
-96
-107
87
550
932
789
99
-655
-943
-743
-433
-209
-36
62
72
80
113
133
146
167
187
205
228
253
281
315
353
396
445
501
560
622
680
732
773
796
796
773
724
647
544
422
294
174
65
-31
-107
-161
-198
-221
-230
-228
-222
-214
-205
-195
-184
-174
-168
-162
-157
-155
-156
-158
-161
-163
-165
-169
-171
-172
-172
-171
-168
-165
-162
-160
-158
-156
-151
-147
-144
-141
-137
-134
-129
-125
-121
-116
-110
-107
-102
-96
-94
-93
-90
-87
-85
-82
-78
-76
-74
-70
-66
-63
-61
-60
-57
-55
-52
-51
-49
-47
-44
-44
-45
-45
-42
-39
-40
-41
-37
-33
-34
-38
-37
-34
-34
-34
-32
-31
-30
-31
-32
-30
-28
-27
-28
-29
-29
-28
-29
-28
-25
-27
-31
-28
-29
-31
-8
30
33
4
-21
-32
-39
-45
-48
-47
-52
-57
-44
-56
-68
130
593
945
763
84
-616
-872
-677
-379
-171
-20
63
69
75
104
121
134
156
171
184
205
231
257
284
318
359
406
455
506
561
619
670
709
733
738
723
687
626
540
438
327
212
100
0
-86
-154
-204
-239
-259
-262
-258
-255
-250
-240
-230
-224
-220
-216
-212
-210
-212
-216
-220
-223
-226
-230
-235
-237
-236
-234
-233
-233
-231
-226
-223
-223
-219
-212
-209
-206
-200
-194
-193
-192
-187
-179
-172
-168
-164
-157
-152
-150
-146
-140
-138
-136
-134
-130
-126
-122
-117
-114
-112
-108
-102
-98
-98
-92
-85
-85
-83
-73
-71
-74
-66
-64
-68
-45
0
11
-18
-40
-47
-52
-54
-57
-57
-49
-51
-53
-38
-51
-28
258
755
964
554
-202
-756
-827
-585
-329
-133
32
115
121
132
161
177
192
212
226
242
263
286
313
347
383
424
471
524
580
637
691
738
774
790
784
754
700
623
523
407
285
170
66
-25
-101
-156
-191
-209
-215
-214
-209
-201
-193
-183
-174
-166
-162
-159
-156
-154
-154
-157
-162
-166
-169
-173
-177
-179
-179
-177
-175
-174
-173
-170
-169
-168
-166
-164
-160
-155
-151
-149
-146
-142
-139
-137
-134
-130
-124
-121
-122
-121
-118
-115
-114
-112
-110
-109
-106
-105
-107
-104
-100
-100
-100
-96
-93
-94
-92
-90
-88
-88
-88
-89
-89
-89
-89
-89
-88
-85
-80
-81
-84
-80
-76
-70
-42
-11
-16
-46
-68
-76
-81
-87
-92
-89
-90
-96
-87
-92
-116
22
452
877
825
214
-541
-918
-792
-473
-231
-69
27
46
49
75
94
106
126
145
162
183
207
233
264
301
343
391
445
501
561
622
679
728
763
774
759
719
655
565
451
324
199
81
-24
-113
-184
-232
-260
-276
-279
-274
-267
-258
-247
-235
-222
-210
-202
-195
-189
-184
-182
-182
-182
-183
-182
-181
-179
-176
-174
-170
-164
-160
-156
-149
-140
-134
-129
-121
-114
-107
-101
-94
-86
-78
-71
-64
-55
-48
-43
-38
-31
-24
-20
-16
-11
-6
-1
3
6
