# session 23
-16
-20
-6
-51
-151
-195
-172
-159
-171
-165
-150
-175
-120
246
803
1008
537
-310
-916
-956
-644
-346
-154
-27
19
20
43
72
84
103
127
144
165
193
221
250
286
327
374
428
485
544
604
661
710
745
764
760
728
670
589
484
362
236
116
5
-90
-165
-220
-257
-276
-283
-282
-274
-263
-253
-245
-237
-228
-220
-213
-208
-207
-208
-208
-209
-212
-215
-215
-216
-218
-218
-215
-214
-213
-207
-200
-196
-194
-190
-185
-181
-174
-166
-160
-157
-155
-149
-142
-139
-135
-128
-123
-119
-115
-110
-104
-102
-102
-98
-92
-90
-89
-83
-77
-76
-74
-70
-75
-83
-74
-56
-51
-53
-51
-51
-52
-47
-45
-48
-41
-34
-37
-20
19
34
10
-19
-33
-36
-36
-41
-48
-41
-36
-43
-32
-34
-25
230
785
1133
785
-41
-710
-862
-634
-351
-145
13
99
107
115
142
155
162
183
202
216
235
258
284
314
349
387
430
478
529
582
633
676
709
726
724
703
658
588
493
385
269
154
48
-45
-125
-186
-227
-251
-263
-265
-260
-255
-251
-243
-235
-231
-228
-225
-224
-226
-227
-229
-235
-240
-244
-248
-249
-247
-246
-247
-245
-241
-241
-241
-237
-232
-228
-224
-220
-219
-216
-210
-204
-199
-194
-189
-185
-180
-171
-167
-167
-161
-150
-146
-142
-135
-134
-125
-89
-52
-57
-86
-103
-107
-110
-109
-107
-107
-100
-94
-100
-88
-79
-87
84
594
1059
900
142
-619
-910
-755
-461
-224
-43
74
104
106
130
153
165
182
203
222
242
266
294
327
363
403
451
503
558
614
670
722
759
778
776
752
704
629
528
410
286
168
60
-37
-116
-173
-209
-229
-236
-237
-235
-229
-220
-209
-200
-193
-189
-186
-183
-181
-181
-182
-184
-188
-192
-196
-198
-200
-201
-201
-198
-197
-198
-197
-192
-187
-185
-183
-178
-174
-171
-168
-165
-164
-160
-155
-151
-151
-147
-141
-136
-135
-132
-128
-127
-126
-122
-120
-119
-115
-112
-111
-109
-108
-107
-102
-92
-89
-90
-86
-83
-77
-46
-11
-13
-42
-63
-74
-81
-81
-83
-86
-81
-82
-85
-74
-87
-91
144
670
1056
833
78
-663
-912
-694
-379
-162
-10
72
80
90
120
135
148
172
191
207
230
256
283
315
354
397
444
498
557
616
674
724
761
782
784
762
716
644
548
431
307
188
77
-23
-105
-164
-205
-230
-240
-241
-238
-230
-222
-215
-205
-195
-188
-183
-178
-177
-179
-180
-179
-181
-184
-187
-189
-190
-191
-191
-190
-188
-186
-182
-178
-175
-171
-168
-164
-160
-155
-150
-145
-141
-138
-134
-127
-122
-118
-115
-110
-107
-105
-104
-99
-95
-94
-93
-88
-83
-79
-78
-77
-75
-72
-69
-67
-63
-61
-61
-60
-57
-55
-56
-57
-55
-52
-52
-51
-49
-48
-49
-49
-46
-43
-42
-41
-43
-43
-37
-33
-34
-33
-31
-34
-18
20
38
13
-18
-33
-41
-46
-49
-54
-51
-52
-58
-49
-62
-66
179
723
1086
795
9
-686
-878
-648
-345
-140
1
74
82
92
118
130
142
166
183
197
220
245
270
302
338
376
419
472
526
579
633
683
718
736
738
720
674
605
518
412
294
177
70
-28
-112
-177
-221
-250
-267
-271
-267
-261
-252
-245
-239
-232
-224
-221
-221
-222
-222
-222
-224
-228
-232
-238
-242
-243
-242
-242
-241
-239
-237
-235
-232
-228
-224
-220
-216
-212
-206
-201
-195
-187
-180
-177
-176
-172
-165
-157
-154
-152
-146
-139
-137
-135
-132
-125
-117
-110
-108
-106
-96
-90
-90
-72
-33
-14
-34
-61
-74
-80
-80
-78
-81
-79
-69
-73
-71
-60
-76
31
477
992
972
311
-467
-854
-775
-495
-248
-65
63
105
105
126
152
165
184
203
218
238
262
288
320
354
389
432
483
536
592
649
701
739
762
768
754
712
642
549
439
319
199
85
-17
-102
-165
-207
-232
-246
-251
-247
-238
-230
-223
-215
-207
-201
-197
-195
-195
-195
-195
-198
-204
-210
-213
-214
-215
-217
-219
-220
-218
-213
-209
-209
-207
-204
-203
-200
-195
-191
-189
-187
-184
-180
-173
-168
-166
-162
-157
-154
-151
-146
-143
-143
-139
-134
-133
-131
-122
-117
-117
-112
-107
-102
-79
-40
-28
-51
-77
-88
-94
-94
-93
-95
-92
-86
-92
-89
-80
-103
-19
392
928
1025
465
-361
-871
-841
-529
-258
-78
44
84
85
110
137
148
166
189
206
226
251
279
310
343
381
428
481
538
597
656
709
752
781
792
778
740
676
587
475
351
230
117
13
-75
-142
-187
-215
-227
-230
-228
-226
-219
-208
-197
-189
-181
-174
-170
-170
-171
-171
-173
-175
-178
-179
-181
-184
-186
-187
-186
-184
-182
-181
-178
-173
-168
-165
-161
-158
-156
-152
-147
-143
-139
-136
-134
-130
-124
-119
-116
-115
-110
-107
-105
-104
-100
-96
-93
-92
-91
-89
-84
-82
-82
-80
-77
-76
-75
-71
-67
-67
-67
-67
-67
-67
-66
-66
-65
-63
-63
-63
-61
-59
-58
-59
-61
-57
-51
-52
-53
-50
-47
-32
2
22
3
-27
-42
-50
-56
-60
-63
-58
-56
-62
-55
-58
-83
60
529
1004
954
301
-485
-873
-746
-423
-181
-25
67
83
86
113
132
142
161
183
200
220
243
270
302
336
375
425
477
527
584
645
699
740
769
779
766
731
676
595
490
369
247
133
27
-68
-143
-197
-234
-252
-254
-252
-250
-243
-232
-224
-218
-212
-208
-205
-202
-203
-205
-207
-209
-213
-217
-219
-220
-221
-220
-220
-220
-217
-212
-207
-203
-198
-196
-194
-190
-184
-178
-173
-168
-164
-159
-153
-149
-144
-139
-135
-131
-126
-121
-118
-117
-115
-112
-108
-104
-101
-97
-91
-86
-84
-82
-81
-77
-74
-73
-71
-69
-67
-66
-64
-63
-63
-60
-57
-57
-57
-53
-50
-51
-49
-42
-41
-41
-33
-33
-36
-11
28
29
-2
-24
-35
-42
-43
-45
-49
-42
-41
-50
-38
-42
-33
233
784
1091
713
-88
-710
-841
-617
-340
-136
17
98
105
113
140
156
169
188
204
219
240
262
286
316
352
392
438
489
541
595
648
696
732
751
751
730
687
621
532
424
308
197
92
-7
-91
-153
-191
-215
-230
-234
-232
-226
-218
-210
-205
-200
-194
-190
-189
-187
-187
-191
-195
-197
-199
-204
-210
-214
-215
-215
-213
-213
-214
-212
-208
-205
-202
-197
-195
-193
-187
-180
-178
-174
-167
-162
-159
-155
-151
-146
-140
-136
-135
-133
-130
-128
-124
-120
-117
-115
-111
-108
-106
-102
-99
-97
-95
-91
-87
-85
-84
-83
-80
-78
-75
-75
-75
-72
-68
-68
-66
-60
-59
-61
-58
-53
-47
-21
13
17
-10
-35
-46
-49
-50
-54
-55
-48
-52
-55
-42
-58
-43
243
786
1085
735
-62
-726
-867
-605
-304
-106
31
95
97
110
139
154
167
186
203
221
245
269
295
327
365
406
454
507
563
620
676
725
761
784
785
761
713
642
548
431
307
188
77
-24
-109
-172
-215
-241
-254
-259
-256
-248
-238
-229
-221
-212
-206
-204
-202
-199
-198
-199
-202
-205
-209
-213
-213
-213
-214
-214
-213
-211
-209
-206
-202
-199
-195
-192
-190
-186
-180
-175
-170
-164
-159
-153
-147
-144
-142
-138
-133
-130
-126
-122
-118
-116
-113
-109
-106
-103
-100
-96
-93
-89
-85
-81
-78
-78
-77
-75
-73
-74
-72
-68
-67
-68
-65
-61
-60
-56
-48
-48
-53
-48
-41
-32
-4
24
13
-22
-42
-45
-45
-49
-53
-47
-42
-51
-51
-44
-60
55
507
1025
1012
346
-465
-867
-766
-462
-215
-43
70
100
101
125
146
155
172
191
206
225
247
271
298
329
367
410
454
504
563
621
671
710
738
751
739
702
645
567
464
345
226
115
14
-78
-153
-206
-239
-258
-265
-262
-255
-250
-244
-238
-232
-224
-219
-219
-219
-217
-218
-224
-227
-228
-232
-238
-239
-239
-239
-238
-236
-236
-233
-230
-227
-225
-222
-218
-214
-209
-204
-201
-198
-192
-185
-179
-176
-174
-167
-160
-157
-155
-149
-146
-142
-133
-126
-125
-121
-113
-108
-87
-48
-33
-57
-83
-92
-96
-97
-94
-96
-91
-83
-88
-86
-76
-90
30
492
1010
980
297
-507
-900
-805
-505
-249
-65
59
99
101
122
146
159
177
198
215
235
258
283
313
348
387
431
483
538
597
655
707
749
775
782
767
727
661
568
453
327
203
87
-17
-102
-167
-213
-241
-253
-256
-255
-248
-238
-231
-223
-214
-208
-204
-202
-201
-200
-199
-201
-206
-209
-211
-214
-216
-215
-214
-215
-215
-213
-209
-206
-204
-203
-198
-192
-189
-189
-185
-179
-175
-171
-168
-167
-163
-157
-152
-149
-145
-142
-139
-134
-131
-132
-128
-119
-115
-115
-110
-105
-100
-73
-34
-26
-53
-77
-88
-94
-95
-97
-98
-91
-87
-91
-79
-86
-99
104
628
1075
914
152
-648
-950
-745
-413
-181
-22
68
82
91
121
139
153
175
193
211
235
259
287
321
356
395
443
496
554
614
672
723
765
791
795
776
732
660
562
443
316
192
77
-26
-110
-172
-214
-240
-251
-252
-249
-243
-235
-225
-217
-212
-206
-198
-193
-194
-195
-194
-195
-201
-204
-204
-205
-208
-209
-208
-208
-207
-206
-204
-200
-194
-191
-190
-186
-181
-177
-174
-171
-167
-161
-156
-152
-147
-142
-139
-134
-129
-127
-126
-122
-119
-118
-115
-111
-108
-106
-103
-98
-94
-94
-91
-87
-85
-83
-76
-73
-77
-72
-63
-60
-46
-10
8
-13
-41
-54
-60
-63
-65
-70
-68
-63
-67
-63
-61
-82
49
527
1061
1051
364
-479
-898
-783
-461
-209
-42
63
88
90
116
139
150
167
186
203
222
245
271
302
337
376
419
469
522
578
634
686
729
758
766
751
714
656
573
465
342
219
106
2
-87
-158
-210
-241
-254
-258
-260
-256
-248
-238
-229
-223
-221
-218
-215
-216
-220
-224
-228
-233
-235
-237
-238
-239
-240
-241
-240
-236
-233
-230
-227
-224
-221
-218
-213
-207
-203
-199
-196
-191
-184
-178
-175
-171
-165
-160
-156
-150
-145
-141
-137
-134
-132
-128
-122
-115
-108
-106
-100
-92
-89
-77
-42
-17
-34
-64
-77
-81
-86
-84
-84
-86
-78
-79
-82
-66
-75
-54
256
834
1119
697
-135
-763
-875
-626
-341
-141
10
91
100
109
137
155
170
190
206
222
246
272
301
333
369
410
459
513
567
622
677
721
752
769
766
740
688
608
507
393
275
160
53
-41
-117
-172
-207
-224
-227
-225
-223
-217
-206
-198
-194
-187
-182
-181
-180
-179
-184
-191
-195
-195
-199
-204
-206
-206
-206
-206
-204
-202
-200
-197
-192
-192
-194
-190
-185
-183
-179
-173
-171
-170
-165
-159
-154
-152
-148
-144
-141
-139
-136
-132
-131
-130
-127
-123
-120
-117
-115
-114
-113
-112
-108
-104
-100
-96
-94
-93
-88
-81
-82
-84
-79
-75
-66
-35
-4
-13
-43
-61
-69
-77
-77
-79
-83
-78
-78
-79
-67
-85
-80
197
756
1114
828
31
-701
-903
-652
-342
-143
-1
70
73
86
117
132
146
169
188
205
229
255
283
316
353
394
443
496
553
611
667
717
755
776
777
756
712
643
548
433
311
194
84
-15
-97
-160
-202
-223
-232
-234
-232
-224
-215
-205
-195
-185
-181
-179
-176
-174
-175
-178
-181
-185
-186
-186
-188
-190
-190
-189
-189
-187
-183
-180
-177
-171
-166
-164
-160
-154
-150
-147
-143
-137
-132
-128
-123
-118
-114
-111
-106
-99
-95
-95
-94
-89
-85
-84
-82
-79
-75
-73
-70
-66
-63
-61
-59
-56
-54
-52
-49
-49
-49
-48
-47
-47
-46
-44
-43
-41
-39
-38
-38
-37
-38
-40
-39
-37
-37
-37
-35
-32
-32
-33
-32
-31
-32
-32
-32
-32
-27
-26
-32
-31
-27
-26
-10
24
35
12
-16
-33
-42
-46
-51
-51
-46
-53
-55
-46
-71
-10
373
920
1062
537
-279
-811
-813
-514
-244
-74
39
79
76
95
118
130
148
168
183
202
227
249
275
309
345
383
429
482
537
592
645
692
724
740
738
714
668
599
506
395
281
169
62
-36
-115
-176
-219
-246
-259
-262
-259
-251
-242
-237
-233
-224
-215
-213
-215
-216
-215
-216
-222
-229
-232
-232
-234
-238
-240
-238
-232
-228
-227
-227
-224
-220
-216
-213
-210
-205
-198
-193
-189
-184
-178
-176
-171
-163
-158
-155
-148
-142
-140
-140
-135
-129
-125
-123
-120
-118
-116
-112
-106
-101
-97
-94
-92
-89
-87
-86
-84
-81
-80
-78
-76
-75
-70
-65
-65
-63
-56
-54
-46
-13
15
5
-25
-44
-50
-51
-51
-57
-55
-46
-49
-49
-40
-55
47
485
1010
1030
396
-400
-826
-769
-484
-231
-51
71
111
112
133
156
169
187
207
223
243
265
289
316
348
386
431
479
531
587
643
696
742
771
782
775
743
685
604
503
387
267
153
49
-44
-119
-172
-205
-222
-230
-229
-223
-215
-207
-201
-192
-183
-178
-177
-177
-175
-175
-178
-182
-184
-187
-191
-194
-195
-195
-193
-191
-188
-188
-186
-182
-178
-173
-170
-167
-164
-160
-159
-158
-153
-147
-144
-141
-137
-133
-131
-127
-124
-124
-122
-119
-117
-116
-114
-112
-111
-109
-108
-106
-104
-103
-103
-101
-98
-98
-97
-96
-92
-88
-88
-89
-87
-85
-78
-50
-20
-25
-58
-80
-88
-93
-97
-104
-108
-104
-106
-108
-98
-121
-94
229
792
1073
687
-140
-810
-932
-652
-353
-162
-31
24
22
37
67
79
93
115
133
150
174
201
229
261
298
340
389
445
503
561
620
672
711
733
735
710
661
589
491
370
245
124
11
-90
-170
-228
-269
-293
-302
-300
-294
-283
-271
-259
-248
-235
-222
-214
-207
-200
-194
-191
-189
-185
-181
-179
-178
-173
-168
-163
-156
-147
-139
-129
-119
-109
-100
