# session 26
9
-6
19
48
-24
-153
-180
-154
-172
-7
506
976
856
135
-659
-997
-830
-510
-274
-104
-1
18
23
53
74
88
111
130
146
170
197
224
255
292
332
380
435
491
545
603
658
698
721
727
710
667
600
508
396
277
161
51
-47
-127
-188
-228
-250
-259
-259
-254
-246
-238
-226
-213
-204
-197
-191
-186
-184
-182
-182
-183
-186
-190
-195
-196
-196
-198
-198
-196
-194
-190
-185
-182
-179
-174
-168
-163
-160
-154
-146
-139
-135
-133
-129
-124
-119
-115
-111
-108
-104
-98
-94
-90
-86
-82
-80
-77
-74
-73
-73
-69
-66
-64
-62
-60
-59
-58
-55
-52
-48
-46
-45
-44
-44
-45
-46
-46
-45
-44
-44
-45
-42
-38
-38
-40
-40
-40
-43
-41
-32
-32
-37
-33
-27
-26
-6
27
31
3
-20
-33
-41
-42
-44
-47
-45
-50
-51
-41
-67
-40
285
825
1063
667
-119
-741
-844
-564
-269
-88
31
80
78
93
119
133
151
173
187
202
224
248
275
307
342
382
429
480
535
591
644
690
724
743
743
725
683
617
528
422
308
194
85
-16
-100
-163
-209
-238
-250
-250
-248
-243
-237
-230
-222
-216
-213
-209
-205
-206
-207
-209
-213
-217
-221
-227
-230
-229
-227
-227
-223
-218
-218
-220
-215
-208
-205
-202
-198
-191
-184
-181
-177
-171
-166
-161
-154
-147
-146
-145
-138
-131
-127
-124
-121
-116
-112
-109
-105
-101
-98
-92
-87
-86
-85
-80
-76
-74
-72
-70
-67
-65
-63
-62
-61
-60
-59
-54
-51
-53
-50
-41
-39
-42
-37
-33
-35
-18
20
34
11
-16
-28
-32
-32
-35
-41
-34
-30
-35
-23
-28
-26
222
758
1080
743
-26
-655
-818
-616
-345
-145
12
102
112
116
141
155
165
186
202
216
237
260
284
311
342
380
424
470
516
569
623
667
698
717
719
700
658
592
504
403
292
182
78
-20
-103
-165
-209
-236
-248
-249
-246
-241
-233
-227
-220
-213
-211
-209
-205
-204
-208
-211
-213
-217
-222
-227
-231
-233
-234
-233
-233
-233
-231
-227
-225
-223
-221
-217
-212
-207
-203
-200
-195
-190
-187
-182
-176
-172
-168
-163
-157
-153
-153
-150
-143
-138
-136
-135
-131
-128
-125
-119
-110
-106
-104
-97
-92
-90
-64
-24
-17
-45
-66
-75
-81
-83
-85
-89
-83
-76
-83
-77
-72
-89
59
539
1024
957
274
-516
-888
-764
-454
-209
-38
69
94
98
125
145
158
179
200
216
236
261
289
319
353
393
438
488
541
598
656
709
752
777
784
769
728
663
573
463
341
219
106
4
-82
-148
-193
-221
-237
-241
-238
-232
-224
-214
-204
-196
-189
-182
-178
-176
-176
-180
-183
-184
-186
-189
-192
-194
-195
-195
-194
-193
-189
-185
-181
-179
-178
-175
-171
-168
-165
-160
-155
-152
-149
-145
-141
-137
-132
-128
-126
-123
-121
-121
-119
-114
-110
-108
-107
-104
-101
-98
-96
-94
-92
-90
-87
-83
-81
-81
-80
-78
-75
-76
-77
-75
-74
-74
-68
-65
-67
-64
-60
-58
-37
0
11
-12
-38
-52
-60
-62
-64
-67
-62
-62
-67
-56
-69
-79
146
672
1074
879
143
-607
-885
-680
-359
-142
-1
73
80
90
119
134
144
166
187
204
224
248
276
307
341
382
428
475
529
589
647
696
735
762
770
755
716
652
562
452
332
213
99
-4
-91
-160
-210
-239
-253
-259
-257
-250
-242
-234
-226
-218
-211
-206
-203
-201
-202
-205
-209
-213
-216
-218
-223
-225
-224
-222
-221
-218
-215
-213
-210
-205
-201
-199
-195
-189
-184
-181
-177
-171
-165
-160
-157
-152
-146
-141
-139
-136
-130
-127
-126
-122
-119
-117
-113
-109
-106
-103
-98
-92
-89
-87
-83
-82
-80
-77
-75
-76
-72
-63
-62
-62
-53
-51
-52
-26
14
14
-18
-38
-44
-50
-51
-52
-53
-47
-50
-53
-38
-52
-24
304
873
1117
665
-160
-756
-834
-573
-297
-106
33
97
99
113
139
150
165
187
202
219
241
262
286
317
350
387
432
482
533
587
641
686
717
732
730
706
659
587
491
381
266
152
44
-49
-125
-184
-224
-246
-254
-255
-252
-248
-239
-230
-225
-221
-213
-207
-209
-212
-213
-214
-219
-226
-231
-234
-237
-236
-233
-233
-233
-229
-227
-226
-224
-221
-219
-215
-208
-204
-201
-197
-192
-188
-184
-179
-175
-171
-165
-159
-155
-152
-150
-148
-143
-139
-134
-127
-121
-119
-112
-104
-100
-82
-45
-29
-49
-76
-87
-92
-94
-92
-94
-91
-82
-83
-82
-72
-93
-24
377
942
1073
514
-317
-841
-844
-555
-281
-90
44
94
94
115
143
155
171
194
211
229
253
280
308
339
377
422
471
522
577
635
690
738
770
780
768
736
679
594
486
367
246
130
25
-65
-137
-188
-219
-235
-241
-238
-233
-228
-218
-208
-199
-192
-187
-184
-182
-181
-183
-187
-188
-191
-198
-202
-201
-200
-201
-202
-201
-199
-196
-194
-191
-187
-184
-181
-178
-175
-171
-167
-163
-159
-157
-154
-149
-145
-141
-137
-133
-130
-129
-128
-124
-120
-118
-116
-113
-111
-109
-106
-103
-101
-99
-97
-94
-91
-88
-88
-88
-81
-75
-78
-76
-70
-67
-55
-21
1
-16
-45
-60
-67
-70
-71
-75
-74
-69
-73
-68
-64
-93
2
428
965
1059
499
-333
-851
-815
-493
-226
-60
49
81
80
103
126
139
160
180
194
213
238
263
293
328
366
410
459
512
571
631
685
731
766
782
774
743
688
607
506
392
270
151
42
-50
-126
-184
-221
-239
-246
-245
-240
-233
-224
-214
-206
-200
-193
-188
-188
-189
-187
-188
-195
-200
-202
-203
-203
-203
-204
-204
-200
-196
-194
-192
-188
-184
-180
-176
-174
-173
-167
-158
-153
-151
-144
-136
-133
-133
-128
-121
-118
-118
-114
-108
-104
-102
-99
-95
-92
-89
-86
-84
-82
-76
-71
-71
-71
-68
-64
-63
-64
-64
-60
-55
-54
-57
-54
-49
-48
-50
-50
-46
-45
-45
-45
-46
-41
-34
-33
-32
-28
-28
-25
5
35
24
-8
-27
-35
-37
-40
-48
-48
-41
-46
-43
-37
-56
72
543
1042
984
302
-475
-841
-732
-440
-207
-43
65
90
89
115
137
146
164
184
197
214
235
257
284
315
350
393
441
488
537
589
637
678
705
713
705
679
629
552
455
347
236
130
31
-61
-136
-187
-221
-239
-245
-246
-244
-237
-228
-223
-219
-212
-207
-205
-204
-204
-207
-211
-216
-220
-224
-229
-230
-229
-228
-229
-229
-226
-222
-217
-215
-212
-209
-207
-204
-198
-194
-190
-185
-181
-176
-170
-165
-162
-157
-152
-148
-143
-139
-137
-133
-130
-128
-126
-121
-118
-117
-112
-106
-104
-100
-94
-91
-90
-82
-76
-78
-75
-67
-64
-49
-13
5
-15
-42
-54
-59
-61
-62
-66
-65
-57
-63
-63
-51
-72
-12
371
926
1082
568
-252
-802
-825
-532
-256
-75
51
100
101
120
147
158
173
194
213
231
253
277
305
337
372
414
463
516
572
628
681
726
759
776
772
743
689
611
508
389
266
150
45
-48
-125
-183
-219
-239
-248
-248
-243
-237
-228
-219
-211
-205
-198
-192
-190
-191
-192
-193
-196
-200
-204
-205
-207
-209
-209
-208
-208
-206
-203
-200
-195
-191
-189
-188
-185
-180
-176
-172
-168
-164
-162
-159
-154
-148
-144
-140
-136
-133
-130
-127
-125
-124
-122
-118
-115
-112
-109
-107
-106
-105
-102
-97
-94
-92
-90
-86
-84
-82
-82
-81
-75
-69
-72
-70
-63
-58
-41
-7
8
-13
-39
-53
-61
-64
-66
-69
-64
-63
-67
-56
-63
-81
99
606
1071
964
250
-551
-896
-725
-400
-169
-14
75
87
90
117
135
149
172
190
204
226
251
276
307
345
385
429
480
535
592
649
705
749
775
781
770
736
675
587
477
356
234
117
10
-82
-154
-207
-239
-253
-257
-256
-253
-246
-234
-222
-216
-212
-205
-200
-201
-201
-203
-208
-211
-212
-215
-218
-217
-217
-217
-215
-214
-213
-209
-204
-200
-195
-191
-188
-187
-183
-180
-177
-171
-166
-159
-153
-148
-145
-141
-138
-136
-130
-125
-124
-121
-114
-112
-111
-106
-103
-101
-96
-91
-89
-87
-83
-81
-78
-74
-73
-73
-73
-72
-72
-68
-61
-59
-57
-51
-51
-46
-16
16
13
-16
-37
-48
-51
-51
-55
-55
-46
-47
-47
-35
-54
10
402
967
1102
542
-291
-806
-807
-526
-263
-80
51
102
99
114
142
157
169
185
202
223
243
263
290
322
357
396
440
489
542
595
645
689
721
734
728
703
655
582
486
377
263
149
45
-47
-123
-182
-221
-240
-246
-246
-245
-239
-231
-224
-221
-216
-210
-206
-207
-209
-210
-215
-221
-224
-227
-230
-232
-234
-235
-233
-231
-230
-229
-226
-224
-222
-218
-214
-210
-206
-201
-197
-193
-187
-182
-178
-173
-167
-161
-159
-157
-154
-150
-147
-144
-143
-140
-134
-128
-126
-124
-116
-105
-103
-101
-92
-88
-86
-60
-23
-20
-49
-70
-77
-83
-85
-85
-87
-83
-79
-82
-69
-70
-84
105
627
1078
909
161
-598
-892
-726
-422
-189
-22
78
96
100
129
151
164
183
202
219
241
265
291
323
357
396
442
494
548
605
660
712
754
778
782
765
725
658
566
455
334
213
102
2
-83
-150
-195
-222
-234
-237
-234
-227
-218
-210
-201
-192
-184
-180
-179
-179
-181
-181
-181
-184
-188
-190
-193
-196
-195
-193
-194
-194
-189
-186
-184
-182
-177
-172
-169
-167
-166
-162
-157
-154
-150
-144
-139
-137
-133
-129
-125
-123
-120
-119
-117
-112
-109
-108
-106
-103
-102
-99
-95
-93
-91
-87
-84
-83
-82
-80
-79
-77
-76
-77
-75
-75
-74
-72
-71
-73
-69
-61
-62
-64
-58
-54
-45
-15
12
2
-28
-46
-54
-58
-61
-65
-63
-58
-63
-57
-51
-80
9
432
968
1057
497
-325
-835
-800
-482
-215
-49
55
83
80
104
127
137
156
178
193
212
238
264
293
325
362
403
453
507
563
620
674
719
752
768
763
735
685
612
512
394
272
156
50
-45
-125
-187
-228
-248
-253
-253
-251
-247
-238
-227
-217
-212
-208
-204
-201
-201
-202
-205
-209
-212
-215
-219
-222
-222
-219
-216
-217
-217
-212
-205
-203
-202
-198
-194
-190
-185
-180
-176
-172
-165
-159
-155
-150
-146
-142
-136
-132
-129
-128
-124
-118
-114
-112
-111
-107
-101
-97
-96
-94
-88
-83
-80
-79
-77
-76
-74
-71
-69
-67
-66
-65
-62
-59
-59
-55
-49
-49
-48
-40
-37
-29
3
29
17
-15
-34
-39
-39
-38
-43
-44
-40
-43
-36
-29
-48
85
563
1066
997
295
-484
-837
-727
-443
-209
-37
76
104
104
129
150
158
175
195
212
230
249
270
297
329
364
405
450
499
551
605
654
693
720
731
721
688
633
556
455
344
232
122
19
-70
-142
-196
-229
-247
-254
-254
-249
-242
-234
-227
-221
-217
-213
-209
-208
-210
-214
-218
-223
-229
-232
-233
-233
-234
-234
-234
-231
-228
-228
-228
-224
-220
-217
-213
-209
-206
-201
-196
-192
-188
-183
-177
-173
-170
-165
-160
-158
-156
-151
-146
-144
-142
-137
-133
-134
-128
-114
-109
-110
-105
-100
-94
-63
-26
-26
-58
-78
-84
-89
-92
-92
-92
-86
-85
-86
-72
-82
-85
160
710
1096
828
36
-690
-910
-688
-380
-162
-4
81
89
98
128
143
156
179
200
218
240
264
292
326
360
399
449
502
556
613
671
720
760
785
785
761
714
643
546
429
303
180
69
-30
-114
-177
-217
-242
-253
-252
-246
-241
-234
-224
-214
-206
-200
-195
-190
-187
-188
-190
-190
-191
-193
-197
-201
-203
-202
-201
-201
-201
-198
-194
-190
-186
-182
-179
-176
-172
-168
-164
-159
-154
-150
-149
-146
-138
-132
-129
-126
-122
-119
-117
-114
-111
-110
-107
-101
-98
-96
-93
-89
-87
-87
-84
-80
-76
-73
-71
-70
-67
-60
-59
-61
-55
-48
-41
-14
17
13
-17
-37
-45
-50
-54
-58
-57
-51
-55
-54
-46
-72
-21
341
897
1107
647
-190
-797
-846
-542
-254
-71
50
93
91
110
137
149
164
185
203
221
242
267
296
330
366
407
454
506
564
622
677
725
760
778
777
752
698
622
524
405
279
159
48
-54
-135
-194
-237
-263
-272
-273
-274
-272
-261
-250
-243
-237
-230
-227
-227
-228
-229
-233
-237
-242
-247
-251
-253
-254
-253
-252
-253
-253
-249
-246
-243
-241
-239
-237
-233
-227
-222
-220
-217
-210
-204
-201
-197
-191
-187
-183
-180
-177
-174
-170
-167
-164
-158
-153
-149
-146
-143
-140
-135
-131
-126
-120
-116
-115
-114
-109
-105
-103
-101
-98
-93
-86
-80
-78
-72
-65
-64
-49
-12
10
-7
-35
-47
-49
-46
-45
-45
-39
-36
-38
-22
-21
-20
218
767
1144
848
59
-617
-806
-604
-322
-110
51
142
156
167
197
214
226
248
268
284
306
333
360
389
420
458
506
556
608
663
716
764
801
825
831
815
777
715
630
530
420
305
196
102
22
-45
-92
-118
-130
-134
-132
-125
-119
-112
-104
-101
-100
-96
-93
-96
-102
-106
-109
-116
-124
-132
-139
-142
-144
-147
-151
-153
-154
-156
-158
-160
-161
-159
-158
-161
-163
-163
-162
-165
-166
-165
-164
-165
-166
-168
-170
-172
-174
-176
-179
-183
-187
-189
-190
-193
-195
-196
-199
-202
-203
-204
-209
-210
-209
-212
-219
-221
-222
-226
-226
-223
-226
-228
-226
-227
-219
-185
-163
-188
-229
-252
-265
-275
-280
-284
-281
-277
-284
-279
-274
-296
-170
290
790
769
131
-649
-1050
-952
-642
-390
-220
-107
-71
-62
-32
-1
21
51
82
107
137
170
207
250
297
347
406
471
538
608
681
751
810
855
883
890
875
835
771
687
590
489
392
309
241
188
154
141
144
158
179
