# session 6
-57
-55
-57
-64
-63
-54
-54
-62
-65
-68
-71
-67
-66
-72
-70
-69
-75
-57
-15
-3
-33
-62
-75
-84
-90
-93
-99
-99
-96
-101
-97
-96
-115
-23
334
760
788
229
-540
-954
-869
-585
-336
-128
18
56
58
86
113
127
143
162
180
200
220
243
275
312
350
394
447
504
564
626
687
738
772
787
777
741
680
590
474
348
222
103
-5
-95
-164
-213
-241
-254
-258
-254
-247
-238
-226
-214
-207
-200
-191
-184
-180
-179
-179
-179
-178
-178
-180
-181
-182
-184
-182
-176
-172
-169
-166
-162
-157
-154
-150
-145
-142
-139
-135
-131
-127
-119
-113
-112
-108
-101
-96
-94
-91
-87
-84
-81
-77
-73
-73
-72
-69
-66
-66
-65
-61
-58
-56
-53
-50
-48
-46
-43
-40
-39
-38
-38
-37
-36
-35
-36
-35
-34
-34
-35
-34
-34
-36
-36
-36
-36
-39
-41
-39
-37
-42
-44
-41
-41
-41
-30
-25
-32
-36
-38
-34
-7
24
20
-13
-35
-43
-51
-56
-53
-53
-59
-51
-51
-78
8
346
744
794
323
-399
-860
-813
-498
-225
-46
57
77
77
102
125
135
155
177
193
211
235
260
286
318
356
399
447
501
560
620
676
728
771
797
798
774
727
658
562
444
315
190
75
-26
-112
-179
-226
-253
-266
-272
-272
-267
-260
-250
-240
-231
-223
-217
-215
-213
-213
-216
-220
-220
-220
-221
-222
-222
-222
-219
-216
-213
-210
-206
-202
-196
-191
-189
-186
-182
-178
-174
-168
-162
-158
-154
-148
-141
-137
-133
-127
-121
-117
-113
-109
-107
-104
-99
-94
-91
-88
-87
-84
-80
-78
-72
-66
-64
-63
-59
-57
-57
-56
-55
-52
-48
-49
-51
-47
-43
-42
-40
-38
-39
-35
-30
-29
-26
-13
-5
-11
-19
-23
-20
1
30
29
-6
-29
-26
-29
-39
-33
-31
-40
-30
-35
-46
141
598
931
693
-17
-666
-853
-652
-380
-167
5
98
105
110
139
156
168
187
201
213
231
252
277
307
339
376
419
465
516
572
628
676
719
751
759
740
703
644
558
451
335
215
101
0
-86
-156
-205
-237
-256
-260
-255
-248
-241
-234
-227
-221
-214
-208
-204
-204
-207
-209
-211
-215
-218
-219
-220
-224
-228
-227
-223
-221
-221
-219
-214
-209
-205
-202
-202
-200
-192
-186
-183
-177
-171
-168
-164
-157
-154
-152
-145
-140
-141
-140
-133
-125
-123
-123
-118
-110
-108
-108
-102
-94
-90
-88
-85
-84
-77
-61
-57
-63
-64
-60
-54
-26
1
-12
-47
-56
-51
-58
-60
-47
-47
-49
-32
-40
-10
283
753
874
369
-377
-811
-788
-552
-328
-133
39
121
125
136
162
177
190
208
221
236
258
280
303
332
363
398
442
491
542
595
650
698
730
746
744
722
675
600
501
390
274
157
47
-47
-121
-174
-209
-228
-233
-230
-227
-224
-216
-208
-204
-201
-195
-188
-186
-187
-188
-194
-202
-207
-211
-213
-215
-219
-223
-220
-216
-218
-218
-215
-214
-212
-208
-206
-203
-199
-196
-193
-187
-181
-179
-178
-173
-167
-161
-156
-154
-153
-151
-146
-144
-143
-135
-125
-124
-123
-116
-116
-109
-70
-38
-47
-73
-88
-96
-99
-99
-100
-94
-87
-87
-80
-83
-88
63
466
810
634
-46
-698
-891
-711
-464
-253
-55
71
96
102
129
150
164
183
203
220
240
260
284
314
349
387
430
481
538
596
654
712
760
789
795
780
740
674
580
463
336
215
102
2
-79
-139
-183
-209
-218
-221
-219
-212
-203
-193
-183
-174
-165
-156
-148
-144
-144
-144
-145
-147
-150
-153
-156
-158
-157
-155
-154
-153
-151
-151
-149
-145
-141
-137
-134
-130
-127
-126
-122
-117
-113
-109
-103
-99
-96
-92
-89
-88
-89
-87
-83
-79
-78
-77
-74
-73
-72
-67
-64
-63
-60
-57
-57
-55
-54
-54
-54
-53
-54
-56
-53
-51
-52
-52
-50
-51
-53
-52
-49
-49
-49
-50
-52
-51
-49
-48
-49
-49
-48
-47
-48
-48
-46
-48
-46
-35
-29
-37
-45
-50
-44
-17
14
9
-24
-45
-49
-56
-58
-56
-62
-58
-50
-80
-47
231
638
776
416
-249
-764
-825
-567
-294
-101
30
74
73
94
121
132
149
170
185
201
222
244
268
300
338
377
422
474
533
591
648
703
750
778
785
769
728
661
570
458
336
213
96
-7
-92
-157
-204
-235
-251
-257
-255
-250
-242
-232
-220
-211
-202
-193
-187
-186
-186
-186
-187
-188
-190
-194
-197
-198
-198
-198
-199
-197
-194
-191
-187
-183
-179
-176
-173
-169
-164
-161
-158
-153
-148
-145
-141
-134
-127
-122
-119
-116
-113
-109
-107
-103
-99
-97
-97
-94
-90
-86
-82
-79
-77
-75
-71
-69
-66
-63
-61
-62
-62
-59
-58
-59
-57
-54
-52
-52
-51
-50
-48
-46
-46
-47
-47
-47
-46
-43
-41
-41
-36
-26
-22
-30
-37
-38
-29
-3
22
16
-13
-34
-40
-47
-51
-47
-51
-57
-46
-56
-71
97
515
865
742
119
-582
-874
-699
-383
-148
5
78
86
96
123
140
155
176
194
211
233
255
278
310
346
385
430
484
540
598
662
725
777
814
832
824
786
723
634
519
388
253
127
15
-83
-160
-216
-254
-275
-283
-283
-278
-270
-260
-248
-236
-227
-221
-215
-209
-207
-206
-204
-205
-208
-211
-214
-217
-217
-217
-216
-215
-212
-208
-206
-204
-201
-195
-189
-186
-182
-176
-170
-167
-163
-156
-148
-143
-137
-133
-131
-130
-126
-120
-117
-114
-108
-102
-99
-96
-94
-92
-86
-79
-75
-74
-75
-70
-64
-62
-62
-60
-58
-58
-56
-52
-49
-48
-47
-46
-44
-40
-37
-37
-36
-33
-30
-33
-34
-23
-9
-9
-17
-21
-19
-5
21
31
7
-20
-24
-24
-32
-33
-29
-38
-34
-23
-48
33
416
867
852
250
-479
-837
-744
-473
-241
-54
75
109
106
129
154
168
184
199
212
229
244
263
294
325
355
395
444
493
545
602
660
711
748
766
763
739
689
612
511
395
274
155
44
-54
-132
-190
-230
-254
-263
-263
-262
-258
-247
-234
-225
-223
-220
-215
-209
-208
-210
-209
-210
-216
-223
-225
-224
-224
-225
-224
-222
-220
-216
-213
-211
-210
-208
-206
-203
-198
-194
-193
-189
-184
-182
-177
-170
-165
-161
-156
-152
-147
-142
-140
-139
-136
-130
-126
-124
-120
-115
-112
-109
-105
-103
-101
-97
-94
-94
-83
-67
-64
-71
-70
-65
-54
-29
-12
-27
-53
-60
-60
-67
-65
-55
-60
-59
-44
-60
-7
328
793
857
319
-418
-831
-786
-528
-294
-101
56
118
117
135
167
182
194
213
230
246
265
289
319
347
378
422
473
524
579
642
702
753
794
819
820
797
744
664
561
439
309
186
72
-29
-111
-168
-207
-232
-241
-240
-238
-233
-224
-214
-207
-203
-198
-191
-185
-181
-183
-189
-193
-194
-199
-206
-208
-208
-209
-207
-203
-204
-204
-202
-198
-195
-191
-185
-178
-172
-166
-160
-155
-153
-151
-144
-138
-138
-136
-130
-126
-123
-120
-119
-119
-117
-114
-114
-112
-108
-107
-104
-101
-102
-103
-99
-95
-93
-89
-85
-82
-78
-75
-76
-75
-72
-72
-72
-69
-68
-63
-49
-40
-45
-50
-49
-40
-13
16
11
-21
-40
-40
-46
-51
-43
-46
-52
-38
-52
-56
164
618
896
620
-88
-718
-880
-651
-359
-143
16
90
93
101
128
143
155
173
190
207
227
247
273
305
341
381
428
479
537
601
666
727
779
816
830
818
780
715
623
506
375
243
120
12
-80
-153
-204
-235
-253
-261
-260
-255
-248
-237
-224
-214
-206
-199
-195
-192
-190
-192
-196
-198
-200
-204
-206
-206
-204
-202
-200
-199
-198
-196
-192
-189
-185
-181
-177
-172
-166
-162
-158
-153
-149
-145
-141
-136
-131
-125
-120
-120
-120
-115
-111
-110
-106
-102
-98
-95
-93
-90
-87
-85
-82
-80
-80
-77
-73
-71
-71
-71
-70
-68
-66
-65
-66
-64
-59
-57
-57
-53
-51
-50
-48
-48
-47
-35
-25
-29
-37
-38
-32
-13
14
20
-6
-35
-41
-41
-48
-48
-45
-50
-42
-41
-64
65
490
903
804
153
-570
-886
-746
-448
-209
-34
73
94
96
122
144
156
175
194
209
226
243
263
292
326
365
407
457
513
570
628
685
736
773
792
791
763
708
628
524
402
275
153
41
-56
-133
-190
-230
-256
-266
-265
-258
-249
-242
-236
-228
-216
-210
-210
-207
-203
-204
-207
-210
-212
-216
-220
-221
-220
-218
-218
-219
-217
-213
-210
-210
-207
-201
-196
-192
-186
-181
-175
-169
-165
-163
-156
-148
-146
-145
-140
-136
-134
-131
-125
-119
-116
-114
-109
-103
-100
-98
-95
-91
-88
-84
-81
-81
-81
-78
-72
-70
-72
-64
-46
-43
-54
-56
-48
-38
-15
5
-8
-37
-48
-48
-54
-51
-40
-45
-45
-30
-42
29
396
852
830
200
-523
-847
-750
-506
-294
-104
56
119
118
135
163
172
183
204
221
232
247
270
297
325
356
392
434
480
532
586
640
685
718
738
738
714
666
593
495
386
274
159
51
-41
-116
-171
-206
-226
-235
-235
-230
-227
-222
-213
-205
-203
-203
-199
-195
-195
-198
-201
-204
-207
-211
-213
-214
-216
-216
-215
-214
-212
-208
-207
-207
-205
-203
-199
-194
-189
-185
-181
-178
-177
-173
-166
-161
-158
-156
-152
-148
-144
-141
-139
-138
-134
-128
-125
-126
-118
-99
-92
-100
-103
-97
-84
-58
-35
-47
-80
-91
-85
-88
-87
-76
-80
-82
-68
-80
-33
274
717
798
287
-441
-853
-809
-560
-332
-137
27
97
99
116
143
159
176
195
209
227
249
271
297
329
365
405
453
507
566
627
686
736
777
802
802
775
725
646
543
424
298
175
66
-27
-105
-162
-199
-219
-226
-227
-225
-220
-211
-201
-192
-184
-179
-172
-167
-166
-166
-165
-167
-174
-178
-178
-179
-183
-183
-180
-180
-180
-178
-175
-173
-171
-169
-168
-166
-161
-157
-154
-150
-148
-145
-141
-138
-133
-127
-124
-124
-123
-119
-116
-115
-114
-112
-110
-108
-105
-102
-100
-97
-95
-95
-93
-88
-86
-86
-85
-82
-81
-81
-78
-76
-76
-73
-62
-55
-61
-67
-68
-60
-32
-1
-6
-39
-59
-60
-65
-68
-63
-67
-65
-53
-77
-62
185
618
844
552
-137
-742
-871
-618
-329
-128
16
77
75
90
119
133
149
172
188
204
225
246
271
303
339
381
430
483
539
602
667
723
768
800
813
799
757
690
599
485
356
229
113
7
-84
-154
-201
-231
-248
-254
-250
-241
-233
-226
-218
-212
-205
-196
-189
-189
-191
-191
-192
-197
-199
-199
-201
-202
-202
-203
-202
-197
-195
-197
-194
-187
-182
-179
-175
-171
-167
-162
-158
-152
-145
-146
-147
-139
-130
-128
-124
-118
-117
-119
-118
-115
-117
-118
-108
-96
-95
-97
-89
-81
-76
-70
-71
-74
-68
-59
-58
-59
-57
-56
-51
-46
-44
-34
-20
-26
-38
-37
-35
-29
-2
12
-17
-46
-48
-53
-64
-56
-51
-54
-39
-37
-44
128
542
814
529
-166
-712
-797
-592
-375
-193
-9
106
122
123
146
162
171
187
205
222
237
250
271
303
333
358
392
436
480
526
576
621
655
681
688
673
641
587
507
411
310
200
88
-4
-80
-145
-192
-218
-231
-237
-237
-234
-233
-228
-215
-205
-203
-199
-194
-196
-197
-193
-195
-200
-200
-200
-202
-202
-202
-205
-207
-206
-199
-193
-191
-190
-188
-187
-183
-173
-164
-166
-170
-162
-154
-154
-155
-151
-145
-140
-139
-138
-128
-117
-116
-115
-116
-124
-106
-61
-46
-76
-99
-95
-92
-103
-104
-93
-95
-96
-79
-85
-87
91
471
720
496
-116
-663
-793
-594
-357
-174
-13
80
90
96
123
142
155
170
182
194
213
232
255
280
304
335
376
419
467
520
571
616
655
679
680
656
610
545
458
351
236
129
35
-49
-122
-173
-201
-222
-237
-237
-228
-222
-216
-205
-195
-187
-178
-173
-173
-167
-156
-150
-152
-153
-157
-165
-164
-152
-151
-159
-154
-144
-147
-153
-152
-149
-147
-145
-145
-146
-144
-142
-144
-146
-140
-133
-132
-129
-127
-131
-119
-81
-59
-75
-101
-116
-122
-123
-126
-126
-121
-121
-120
-107
-117
-107
96
478
688
424
-191
-710
-814
-607
-367
-182
-30
45
52
69
97
109
124
146
154
161
183
210
230
253
288
326
360
405
464
520
568
617
659
678
677
659
611
531
436
333
222
110
5
-78
-129
-162
-195
-215
-215
-218
-225
-216
-196
-182
-171
-159
-152
-152
-158
-164
-164
-156
-154
-161
-163
-158
-156
-157
-157
-158
-160
-161
-162
-161
-160
-165
-166
-162
-165
-168
-160
-152
-153
-157
-157
-156
-156
-154
-148
-145
-144
-139
-138
-135
-111
-75
-63
-80
-102
-113
-112
-109
-112
-115
-111
-106
-94
-89
-111
-54
238
641
740
307
-391
-832
-800
-539
-312
-125
28
78
68
88
126
147
157
167
182
207
233
250
268
297
335
370
410
466
530
585
635
685
722
734
726
702
653
576
476
357
224
89
-17
-67
-86
-116
-149
-167
-177
-188
-194
-191
-181
-169
-165
-162
-153
-145
-149
-155
-153
-150
-152
-155
-156
-157
-157
-156
-155
-155
-156
-154
-148
-145
-143
-137
-130
-129
-127
-120
-116
-116
-115
-111
-107
-102
-97
-95
-92
-90
-88
-84
-80
-79
-75
-69
-65
-63
-59
-54
-51
-49
-48
-47
-47
-46
-47
-48
-45
-43
-41
-39
-38
-35
-33
-35
-33
-24
-21
-24
-21
-22
-21
6
42
44
18
-5
-18
-26
-33
-37
-36
-38
-34
-29
-64
-61
163
560
790
561
-78
-699
-863
-628
-369
-204
-67
4
-1
5
32
38
33
38
47
54
61
77
101
121
140
169
204
238
275
315
351
378
393
390
371
332
268
185
