# session 12
20
27
21
18
43
80
92
85
85
86
79
74
71
65
55
45
36
27
19
11
5
1
-4
-8
-9
-10
-12
-13
-13
-14
-16
-18
-17
-16
-17
-16
-17
-19
-21
-21
-23
-25
-26
-26
-28
-30
-30
-31
-34
-35
-34
-36
-38
-39
-39
-41
-42
-43
-45
-46
-46
-48
-49
-49
-49
-52
-54
-55
-54
-55
-55
-56
-57
-58
-59
-58
-57
-58
-60
-62
-62
-63
-64
-63
-63
-64
-64
-65
-67
-66
-67
-70
-71
-68
-68
-71
-69
-70
-70
-46
-13
-9
-35
-60
-71
-79
-87
-92
-88
-92
-99
-88
-98
-118
49
486
866
766
152
-566
-894
-738
-424
-199
-52
27
37
44
72
89
102
125
145
162
185
208
235
267
304
345
394
447
504
566
628
685
734
765
778
771
737
676
592
487
364
238
121
13
-82
-155
-209
-247
-268
-274
-273
-270
-263
-254
-243
-233
-225
-218
-212
-210
-209
-210
-211
-215
-217
-217
-215
-216
-219
-220
-217
-213
-211
-209
-204
-198
-196
-193
-188
-183
-180
-175
-170
-166
-161
-155
-149
-144
-140
-134
-129
-125
-122
-117
-111
-110
-110
-104
-97
-94
-91
-87
-86
-83
-76
-71
-71
-71
-66
-61
-58
-59
-55
-49
-49
-47
-39
-39
-43
-21
19
27
0
-25
-34
-37
-38
-41
-42
-39
-45
-47
-31
-46
-12
302
814
998
540
-237
-768
-811
-566
-316
-122
37
106
104
118
147
158
170
192
208
222
241
265
293
324
357
396
442
495
552
607
658
705
741
758
751
720
668
591
489
370
248
130
22
-70
-145
-203
-240
-257
-264
-265
-262
-254
-244
-235
-229
-223
-217
-213
-211
-210
-209
-210
-214
-219
-225
-229
-232
-232
-231
-233
-233
-231
-228
-227
-225
-222
-219
-217
-215
-211
-206
-202
-196
-191
-186
-182
-178
-174
-168
-164
-161
-158
-155
-151
-141
-133
-132
-128
-124
-122
-97
-55
-41
-63
-87
-100
-105
-103
-102
-106
-100
-94
-97
-86
-83
-104
26
460
917
895
277
-506
-907
-797
-493
-250
-67
54
83
87
118
141
152
171
192
210
232
255
282
315
351
391
438
493
552
614
677
735
782
812
819
800
755
683
581
457
326
198
80
-23
-107
-170
-213
-240
-251
-250
-245
-241
-233
-222
-212
-202
-191
-184
-181
-179
-178
-179
-179
-180
-185
-190
-191
-192
-195
-196
-193
-189
-188
-187
-183
-179
-178
-176
-171
-168
-165
-160
-156
-152
-145
-141
-138
-134
-130
-127
-121
-117
-118
-118
-114
-111
-107
-102
-102
-102
-97
-92
-90
-89
-88
-86
-82
-79
-78
-78
-78
-74
-67
-66
-67
-62
-60
-59
-32
7
12
-17
-42
-53
-58
-58
-60
-60
-56
-62
-61
-45
-66
-48
232
730
1008
704
-53
-721
-866
-608
-331
-144
7
80
78
92
124
136
146
165
185
204
226
250
277
308
340
383
435
487
542
603
661
711
748
767
764
741
695
621
521
404
281
159
46
-50
-127
-187
-229
-251
-256
-259
-260
-252
-239
-230
-223
-214
-208
-205
-204
-203
-202
-203
-207
-211
-213
-215
-218
-221
-222
-220
-219
-219
-216
-212
-209
-208
-204
-199
-196
-194
-190
-185
-182
-178
-171
-167
-163
-156
-148
-145
-145
-143
-139
-135
-131
-126
-121
-118
-115
-112
-110
-108
-103
-97
-90
-84
-82
-79
-76
-78
-66
-27
-2
-16
-45
-59
-63
-64
-66
-69
-65
-59
-65
-60
-49
-65
15
384
847
894
346
-401
-824
-776
-511
-278
-94
50
104
104
122
150
166
183
201
214
231
255
280
306
337
377
421
466
517
577
636
685
728
761
774
762
727
670
586
477
357
239
127
22
-67
-133
-182
-215
-230
-234
-234
-230
-221
-210
-202
-194
-188
-182
-177
-174
-173
-176
-179
-183
-187
-192
-196
-201
-205
-205
-202
-200
-199
-199
-196
-192
-191
-191
-188
-183
-181
-178
-173
-169
-167
-163
-158
-154
-151
-148
-144
-141
-138
-135
-133
-131
-128
-125
-123
-122
-119
-116
-114
-111
-109
-105
-103
-102
-97
-89
-85
-85
-83
-83
-79
-50
-12
-10
-38
-59
-70
-77
-79
-81
-81
-76
-80
-81
-66
-85
-88
132
596
942
775
91
-644
-907
-691
-382
-168
-11
68
72
86
118
134
148
169
187
206
230
254
281
316
353
395
444
502
565
626
684
740
787
814
815
794
750
677
574
452
321
192
75
-24
-107
-171
-212
-237
-250
-251
-246
-240
-233
-224
-214
-203
-192
-186
-182
-179
-177
-177
-180
-186
-189
-188
-189
-192
-193
-193
-193
-189
-184
-184
-185
-180
-172
-169
-168
-164
-159
-155
-150
-144
-140
-137
-132
-127
-123
-120
-118
-114
-110
-108
-104
-100
-98
-95
-92
-90
-87
-84
-82
-80
-75
-69
-69
-69
-66
-61
-58
-58
-60
-59
-54
-53
-55
-53
-49
-50
-50
-47
-45
-43
-40
-40
-41
-36
-35
-32
-6
28
30
2
-24
-35
-36
-37
-42
-38
-35
-43
-38
-35
-48
99
534
927
789
124
-564
-832
-689
-431
-224
-49
70
96
97
118
138
149
166
181
195
215
236
259
287
321
356
396
442
494
546
597
648
691
716
722
709
675
618
537
437
324
210
101
0
-86
-151
-199
-231
-246
-250
-250
-247
-238
-229
-222
-215
-209
-205
-201
-200
-203
-204
-204
-209
-215
-216
-216
-220
-224
-224
-221
-219
-219
-218
-215
-212
-211
-209
-204
-200
-197
-191
-185
-181
-176
-170
-165
-159
-154
-151
-148
-143
-140
-137
-134
-131
-128
-124
-118
-116
-116
-111
-100
-94
-96
-91
-85
-87
-72
-29
-7
-27
-52
-62
-71
-75
-75
-77
-72
-68
-72
-64
-59
-75
45
443
863
832
246
-482
-847
-747
-473
-247
-64
64
99
102
128
150
163
183
201
214
234
258
283
311
345
384
430
481
538
597
653
707
755
785
791
776
735
667
575
463
337
213
101
1
-87
-152
-194
-221
-239
-246
-243
-237
-229
-220
-211
-201
-191
-186
-183
-178
-173
-175
-180
-184
-187
-191
-194
-194
-195
-197
-198
-195
-192
-190
-190
-188
-186
-184
-181
-177
-174
-171
-168
-165
-159
-154
-151
-150
-148
-143
-138
-135
-133
-132
-131
-128
-124
-121
-119
-115
-113
-112
-111
-107
-103
-101
-99
-96
-95
-92
-85
-80
-81
-81
-78
-75
-55
-16
0
-22
-48
-60
-67
-71
-75
-78
-73
-73
-76
-65
-77
-90
85
523
915
845
229
-532
-887
-726
-410
-187
-30
62
76
84
114
132
145
167
187
202
224
251
278
308
345
390
439
493
551
611
672
730
776
804
814
800
761
691
592
472
344
217
98
-6
-94
-164
-211
-237
-248
-252
-251
-246
-237
-228
-219
-210
-201
-193
-187
-184
-183
-186
-189
-193
-195
-197
-199
-201
-202
-201
-199
-198
-198
-195
-190
-185
-183
-180
-175
-169
-166
-165
-160
-153
-149
-146
-141
-134
-127
-126
-127
-122
-114
-112
-114
-109
-102
-100
-98
-93
-89
-87
-85
-81
-77
-75
-75
-74
-72
-71
-69
-67
-65
-63
-61
-62
-62
-58
-56
-56
-54
-53
-52
-46
-42
-42
-36
-33
-41
-30
12
37
17
-13
-27
-33
-38
-43
-42
-36
-45
-49
-38
-54
-24
259
742
972
607
-154
-752
-840
-590
-330
-135
18
81
79
96
127
142
156
171
185
205
226
249
279
311
345
388
438
490
546
606
663
712
752
776
777
753
707
637
541
425
298
173
61
-35
-118
-184
-230
-256
-265
-266
-264
-258
-247
-236
-227
-220
-214
-207
-203
-203
-206
-209
-212
-214
-218
-222
-222
-221
-223
-224
-221
-218
-216
-212
-208
-206
-203
-199
-194
-191
-189
-185
-181
-176
-169
-163
-160
-157
-150
-145
-141
-136
-132
-129
-124
-119
-117
-116
-112
-109
-107
-102
-97
-95
-92
-87
-84
-83
-80
-71
-65
-68
-69
-66
-65
-48
-9
11
-10
-38
-47
-49
-55
-59
-55
-51
-61
-59
-43
-65
-36
262
755
994
651
-105
-734
-847
-591
-324
-136
19
89
91
108
135
146
160
180
194
210
234
258
284
316
350
391
441
492
547
605
660
710
748
766
762
735
685
608
506
388
268
148
36
-59
-132
-190
-232
-252
-260
-266
-264
-253
-242
-235
-228
-221
-214
-209
-205
-205
-207
-207
-209
-216
-222
-222
-222
-228
-231
-228
-225
-226
-227
-225
-221
-215
-212
-213
-209
-201
-196
-195
-192
-185
-180
-175
-171
-168
-162
-155
-153
-150
-142
-136
-133
-128
-125
-126
-104
-60
-41
-62
-87
-99
-104
-104
-104
-105
-96
-91
-97
-88
-87
-97
55
494
909
811
148
-588
-892
-742
-467
-250
-66
57
81
85
113
135
149
170
187
201
224
251
277
306
343
387
433
483
541
603
660
711
757
785
785
763
722
652
551
434
311
185
68
-30
-111
-174
-214
-236
-247
-250
-245
-238
-230
-219
-207
-197
-189
-183
-180
-178
-177
-179
-182
-185
-190
-197
-199
-196
-195
-196
-195
-193
-193
-191
-186
-184
-183
-181
-177
-172
-168
-166
-162
-157
-152
-148
-144
-141
-139
-135
-130
-127
-125
-124
-122
-118
-113
-112
-113
-108
-104
-106
-104
-93
-87
-88
-83
-79
-77
-55
-19
-11
-34
-56
-68
-76
-80
-83
-79
-74
-80
-73
-60
-88
-63
200
631
863
589
-112
-751
-887
-625
-336
-135
15
79
81
98
125
139
157
176
189
209
233
254
280
315
353
396
444
495
551
611
668
719
760
783
782
758
711
636
536
418
292
172
63
-34
-112
-168
-205
-226
-236
-238
-235
-227
-218
-210
-201
-190
-182
-179
-176
-174
-175
-176
-176
-179
-183
-186
-189
-191
-192
-191
-192
-193
-191
-189
-187
-185
-182
-179
-175
-170
-166
-161
-156
-153
-150
-145
-140
-136
-132
-129
-126
-122
-120
-119
-115
-111
-110
-108
-103
-99
-99
-97
-93
-92
-90
-84
-80
-82
-82
-80
-79
-78
-75
-73
-76
-77
-70
-64
-64
-62
-58
-56
-39
-3
13
-7
-33
-49
-58
-60
-63
-64
-59
-62
-60
-51
-77
-51
244
746
1004
669
-102
-763
-894
-616
-313
-114
23
80
79
97
125
138
155
177
192
210
235
262
289
322
359
402
451
505
563
624
682
735
775
796
798
777
730
657
559
440
310
185
71
-31
-116
-181
-223
-247
-261
-265
-260
-252
-244
-238
-230
-220
-214
-211
-209
-206
-205
-210
-216
-219
-222
-226
-229
-231
-231
-229
-224
-220
-219
-220
-217
-212
-207
-203
-199
-195
-189
-185
-182
-176
-170
-166
-162
-156
-153
-151
-147
-142
-139
-136
-132
-129
-128
-126
-122
-117
-115
-112
-109
-105
-103
-98
-95
-94
-86
-76
-73
-72
-67
-69
-64
-30
3
-5
-34
-49
-56
-61
-65
-69
-61
-55
-63
-58
-54
-73
42
445
886
888
318
-442
-860
-773
-472
-227
-48
69
98
101
128
150
162
182
199
214
236
258
281
312
347
386
430
479
533
590
648
701
747
778
789
779
744
684
600
492
371
250
134
28
-63
-133
-186
-219
-235
-242
-241
-233
-224
-216
-207
-198
-193
-190
-187
-186
-185
-189
-195
-200
-201
-205
-208
-208
-209
-212
-211
-206
-203
-202
-200
-197
-193
-192
-190
-186
-181
-179
-176
-170
-166
-162
-156
-152
-151
-146
-139
-135
-134
-131
-127
-125
-124
-121
-118
-115
-112
-108
-107
-104
-99
-97
-96
-92
-88
-86
-86
-85
-78
-71
-73
-73
-67
-65
-52
-15
9
-9
-38
-53
-62
-68
-71
-72
-69
-70
-72
-60
-75
-83
129
617
1000
829
104
-664
-942
-721
-393
-170
-14
70
79
89
119
136
149
170
188
204
226
252
280
313
350
390
438
493
551
609
669
726
772
801
810
794
754
688
594
477
346
216
97
-8
-98
-170
-219
-247
-260
-264
-262
-258
-251
-240
-228
-222
-219
-216
-212
-210
-213
-218
-220
-219
-220
-224
-229
-231
-230
-225
-221
-220
-217
-211
-208
-206
-201
-196
-193
-188
-182
-178
-173
-168
-164
-159
-152
-145
-139
-135
-135
-134
-128
-123
-120
-116
-110
-106
-104
-100
-95
-91
-89
-87
-84
-76
-68
-66
-64
-60
-63
-60
-27
10
6
-25
-45
-51
-54
-58
-62
-59
-56
-61
-52
-48
-61
99
573
998
843
128
-598
-880
-728
-446
-220
-40
73
96
100
130
150
159
177
195
210
231
254
275
303
335
369
410
459
512
563
615
664
701
723
730
715
675
611
527
421
300
185
82
-12
-98
-163
-203
-227
-238
-240
-238
-233
-225
-216
-211
-210
-214
-213
-205
-202
-206
-213
-219
-225
-228
-228
-227
-227
-227
-225
-222
-222
-223
-222
-217
-213
-210
-205
-201
-200
-195
-190
-189
-187
-183
-181
-178
-172
-169
-168
-165
-160
-159
-158
-155
-151
-150
-147
-137
-131
-130
-127
-122
-119
-102
-63
-41
-56
-82
-95
-100
-104
-107
-103
-95
-98
-97
-79
-94
-85
173
683
1022
780
22
-715
-928
-680
-381
-182
-19
74
81
92
125
142
157
181
199
216
240
264
292
325
362
404
454
508
564
621
677
726
764
786
784
759
712
641
548
437
316
199
95
3
-75
-132
-165
-182
-188
-190
-184
-173
-162
-156
-151
-146
-142
-140
-137
-136
-142
-148
-150
-153
-158
-161
-161
-161
-163
-164
-162
-157
-154
-156
-157
-153
-149
-151
-149
-142
-140
-142
-138
-135
-136
-133
-128
-128
-128
-124
-121
-122
-126
-127
-120
-116
-119
-117
-113
-117
-107
-70
-46
-65
-98
-117
-126
-129
-135
-142
-138
-139
-147
-139
-145
-153
47
526
874
630
-103
-779
-994
-811
-540
-329
-157
-53
-34
-32
-9
8
19
37
54
69
89
114
139
163
196
239
283
329
385
441
491
536
573
592
590
570
529
462
373
272
163
57
-40
-126
-198
-247
-271
-278
-277
-273
-262
-245
-226
-210
-194
-178
-163
-148
-133
-118
-106
-94
-84
