# session 7
1
3
4
-77
-154
-109
-64
-95
-92
-68
-96
-101
-82
-95
-70
-155
-402
1
1213
1383
-289
-1588
-1106
-255
-64
-12
107
94
78
132
153
158
179
210
272
353
398
410
451
509
503
467
499
522
413
243
124
44
-34
-91
-116
-129
-133
-121
-106
-111
-135
-167
-189
-182
-170
-202
-223
-169
-139
-195
-209
-174
-192
-251
-436
-505
310
1412
858
-993
-1636
-783
-172
-161
-95
2
-33
-34
35
85
111
145
182
220
275
335
378
425
460
442
429
460
435
303
156
55
-13
-70
-135
-199
-216
-207
-226
-238
-196
-165
-207
-246
-229
-215
-239
-265
-272
-254
-210
-172
-184
-209
-206
-276
-263
353
1133
620
-989
-1671
-957
-273
-143
-54
51
51
80
135
139
151
201
250
299
350
387
420
457
487
497
484
471
445
347
201
94
18
-57
-95
-98
-102
-95
-85
-96
-99
-91
-111
-135
-137
-148
-166
-158
-147
-157
-144
-120
-153
-171
-177
-356
-279
652
1336
274
-1328
-1402
-506
-112
-86
46
93
52
94
138
131
156
215
267
314
358
388
408
424
433
429
422
400
316
178
64
4
-64
-146
-164
-145
-176
-208
-194
-198
-180
-85
-42
-106
-150
-163
-196
-193
-180
-215
-201
-136
-139
-153
-239
-452
-97
1004
1172
-377
-1587
-1111
-290
-116
-73
64
81
58
77
107
161
197
205
264
358
402
407
436
482
494
474
461
435
340
198
88
28
-30
-106
-141
-122
-123
-161
-165
-138
-148
-180
-171
-146
-155
-185
-191
-168
-166
-194
-186
-166
-191
-172
-234
-489
-186
974
1265
-271
-1567
-1132
-290
-105
-83
4
-1
36
114
104
95
150
198
234
284
329
363
397
416
409
393
383
355
271
152
55
-5
-59
-111
-144
-156
-164
-169
-165
-156
-148
-149
-159
-161
-144
-142
-169
-171
-146
-147
-138
-112
-136
-148
-206
-492
-396
674
1326
172
-1234
-1068
-262
-66
-88
35
68
53
99
122
138
188
230
265
313
355
388
418
435
435
432
435
423
351
213
81
5
-38
-82
-119
-141
-152
-164
-189
-204
-181
-163
-200
-232
-206
-180
-200
-218
-199
-185
-191
-172
-153
-167
-181
-340
-605
-207
916
1100
-250
-1210
-755
-150
-91
-49
71
67
74
133
145
161
214
245
268
323
379
416
454
484
475
455
465
447
333
178
74
10
-64
-127
-154
-167
-179
-185
-186
-183
-175
-180
-208
-219
-196
-185
-206
-215
-194
-177
-170
-162
-164
-155
-188
-335
-202
541
925
-56
-1298
-1261
-492
-141
-93
22
82
82
125
155
159
194
239
272
316
367
407
441
468
476
467
448
406
317
189
62
-29
-78
-105
-123
-129
-123
-117
-113
-104
-89
-87
-115
-144
-140
-132
-160
-184
-169
-159
-160
-140
-149
-173
-160
-289
-386
267
1185
693
-909
-1460
-699
-139
-103
-21
74
53
68
113
125
155
205
239
277
334
387
424
449
458
440
412
385
324
207
82
-7
-68
-109
-130
-140
-149
-154
-154
-152
-145
-135
-143
-167
-174
-160
-167
-190
-183
-170
-176
-158
-142
-171
-160
-236
-484
-186
911
1210
-149
-1297
-908
-196
-92
-78
57
55
20
87
145
147
151
180
228
284
339
381
404
418
413
383
359
332
255
137
32
-42
-92
-126
-148
-158
-164
-166
-162
-159
-161
-160
-169
-189
-188
-168
-176
-199
-186
-167
-177
-163
-141
-155
-185
-360
-525
101
1250
1111
-481
-1339
-746
-139
-84
-34
72
68
46
44
61
134
197
208
248
342
420
445
459
489
511
507
474
393
279
172
67
-35
-84
-99
-148
-208
-217
-201
-194
-169
-142
-161
-189
-189
-196
-204
-183
-190
-239
-216
-118
-105
-173
-157
-157
-324
-159
667
998
-127
-1372
-1252
-482
-137
-50
44
66
96
145
122
126
202
244
268
337
403
437
478
506
483
453
448
408
295
162
57
-18
-73
-115
-143
-147
-140
-141
-141
-123
-96
-94
-131
-157
-133
-118
-154
-166
-110
-55
-51
-80
-150
-200
-188
-331
-477
144
1145
798
-784
-1435
-720
-137
-103
-42
56
47
59
93
104
145
196
222
262
320
375
420
443
437
414
385
344
268
148
24
-57
-107
-144
-163
-170
-176
-177
-174
-173
-172
-166
-174
-204
-214
-191
-197
-229
-222
-199
-203
-181
-163
-184
-152
-245
-544
-229
925
1220
-123
-1176
-749
-98
-39
-32
87
88
77
125
142
155
199
237
273
319
365
411
448
458
443
418
382
322
225
109
16
-41
-79
-102
-110
-115
-123
-127
-123
-120
-119
-114
-116
-135
-143
-127
-133
-153
-141
-131
-149
-132
-116
-149
-134
-219
-482
-167
888
1018
-423
-1421
-863
-127
-48
-40
74
69
61
115
128
138
192
238
266
314
384
437
458
458
442
416
387
336
237
102
-35
-129
-147
-132
-151
-181
-176
-171
-192
-204
-186
-166
-167
-185
-193
-185
-188
-200
-189
-173
-188
-190
-159
-167
-173
-178
-355
-290
610
1241
111
-1503
-1479
-465
-47
-59
56
124
97
126
166
186
224
267
310
365
428
495
541
546
541
547
539
497
408
273
132
27
-44
-95
-130
-155
-174
-181
-180
-183
-188
-182
-180
-200
-215
-200
-187
-207
-223
-206
-186
-178
-163
-167
-180
-173
-282
-345
264
1090
580
-993
-1537
-748
-136
-85
-10
94
77
96
165
192
214
256
291
323
370
429
475
494
494
484
471
451
387
258
117
15
-56
-110
-137
-151
-166
-169
-156
-150
-150
-139
-124
-137
-169
-180
-167
-180
-214
-213
-195
-197
-179
-166
-205
-194
-232
-442
-174
841
1058
-374
-1561
-1117
-276
-73
-41
76
90
90
140
156
176
225
258
298
364
421
463
502
519
508
493
478
427
312
171
60
-18
-67
-81
-91
-129
-159
-146
-127
-127
-126
-118
-120
-144
-168
-169
-167
-185
-189
-168
-174
-180
-159
-177
-186
-189
-387
-366
516
1189
139
-1426
-1429
-475
-74
-74
34
82
53
94
133
140
174
216
256
314
374
421
463
494
497
475
451
417
331
195
65
-25
-86
-130
-152
-160
-172
-184
-181
-176
-179
-168
-141
-133
-156
-172
-164
-163
-183
-186
-164
-158
-148
-111
-121
-145
-137
-300
-348
438
1240
393
-1244
-1441
-495
-35
-50
66
148
93
105
159
174
197
245
285
328
383
430
454
469
479
467
443
421
364
248
114
14
-48
-91
-126
-150
-156
-156
-168
-177
-169
-160
-156
-147
-152
-180
-191
-176
-184
-208
-192
-161
-168
-169
-145
-157
-170
-259
-509
-296
745
1190
-4
-1194
-917
-214
-83
-80
46
68
59
113
138
145
187
234
268
309
363
418
459
479
479
470
459
423
331
194
60
-36
-95
-137
-162
-172
-177
-177
-176
-185
-198
-199
-185
-174
-184
-197
-188
-183
-201
-211
-191
-176
-167
-138
-127
-140
-153
-279
-341
246
1030
561
-886
-1377
-655
-109
-72
-5
92
86
107
153
162
182
228
272
320
371
417
465
507
524
516
494
449
356
219
80
-26
-100
-146
-161
-165
-172
-170
-156
-153
-158
-156
-149
-147
-157
-173
-173
-168
-186
-205
-186
-171
-182
-161
-141
-170
-164
-237
-420
22
1136
1177
-412
-1482
-932
-203
-108
-64
62
56
55
110
121
135
186
229
271
331
392
452
505
528
518
498
466
395
274
136
19
-68
-135
-178
-195
-194
-184
-174
-175
-178
-168
-154
-153
-168
-195
-209
-202
-203
-220
-212
-187
-191
-182
-154
-182
-190
-205
-380
-159
927
1442
90
-1440
-1263
-370
-99
-88
40
68
50
100
122
134
186
229
266
335
408
466
519
552
549
530
507
451
338
195
66
-36
-112
-154
-169
-176
-181
-179
-172
-167
-162
-158
-151
-150
-167
-185
-178
-164
-179
-194
-174
-158
-156
-138
-144
-163
-185
-377
-421
424
1407
776
-871
-1317
-562
-112
-106
-14
65
44
67
105
119
153
199
243
299
358
413
468
509
516
484
441
400
316
174
41
-55
-136
-184
-193
-205
-223
-221
-212
-215
-220
-215
-201
-186
-195
-218
-215
-190
-192
-224
-229
-199
-191
-201
-171
-157
-194
-229
-401
-511
254
1428
1119
-535
-1257
-644
-169
-151
-68
12
-13
15
75
96
128
177
231
298
361
422
494
553
574
575
572
543
455
311
161
40
-53
-118
-152
-162
-166
-175
-185
-185
-178
-178
-184
-180
-181
-208
-224
-203
-190
-210
-218
-196
-186
-188
-166
-152
-156
-152
-285
-427
179
1305
1160
-482
-1411
-826
-205
-142
-55
74
48
52
122
141
156
202
247
297
360
421
486
547
578
566
525
469
385
253
105
-10
-93
-161
-201
-212
-213
-209
-195
-180
-176
-178
-174
-163
-163
-183
-201
-195
-186
-203
-218
-189
-157
-158
-143
-137
-181
-209
-308
-393
218
1312
1157
-473
-1418
-877
-264
-178
-91
25
13
31
88
100
124
175
210
256
330
412
487
540
559
556
532
468
363
228
79
-45
-121
-174
-217
-235
-231
-218
-196
-178
-182
-180
-157
-144
-152
-154
-151
-158
-157
-154
-175
-182
-165
-174
-176
-155
-178
-189
-236
-397
23
1307
1716
207
-1197
-946
-275
-167
-120
9
-13
-22
56
74
69
116
174
227
284
344
416
490
526
520
504
470
385
249
109
-8
-106
-184
-224
-237
-242
-240
-235
-234
-229
-219
-216
-211
-201
-204
-221
-230
-221
-211
-218
-230
-213
-195
-213
-199
-159
-195
-221
-256
-397
15
1267
1654
152
-1232
-970
-287
-165
-115
17
12
8
70
90
107
158
200
246
319
403
484
550
592
608
601
563
473
329
173
49
-45
-122
-176
-201
-202
-192
-184
-186
-187
-178
-171
-169
-164
-169
-185
-186
-170
-178
-207
-204
-169
-164
-176
-147
-135
-167
-179
-303
-363
410
1540
1123
-690
-1487
-780
-191
-154
-65
42
16
31
86
103
131
176
213
273
350
419
493
562
588
576
548
489
376
224
78
-33
-117
-182
-222
-232
-231
-236
-232
-217
-208
-210
-208
-201
-197
-199
-211
-227
-224
-210
-221
-242
-222
-195
-200
-178
-150
-185
-192
-252
-439
-1
1274
1580
-1
-1348
-995
-264
-139
-94
37
29
24
87
102
115
170
216
265
340
418
489
551
588
593
574
536
459
329
179
60
-30
-106
-157
-176
-177
-173
-170
-173
-174
-170
-173
-177
-167
-161
-177
-190
-186
-186
-193
-202
-204
-184
-170
-175
-153
-149
-188
-210
-353
-402
447
1613
1147
-619
-1289
-616
-169
-172
-76
3
-27
4
53
66
98
139
180
242
310
379
456
503
503
487
465
417
328
198
58
-54
-133
-195
-235
-245
-238
-233
-228
-221
-215
-210
-204
-200
-197
-189
-185
-195
-206
-201
-192
-197
-206
-197
-176
-180
-190
-152
-141
-184
-197
-294
-273
551
1541
957
-717
-1264
-591
-156
-125
-17
55
33
68
117
135
172
216
262
327
399
470
544
600
623
623
609
571
477
329
179
57
-42
-115
-152
-165
-168
-169
-170
-173
-174
-174
-175
-184
-187
-168
-163
-200
-224
-201
-193
-235
-255
-206
-168
-182
-169
-141
-176
-194
-263
-401
121
1364
1486
-195
-1427
-950
-233
-157
-120
26
38
32
71
82
108
163
207
260
329
394
466
539
575
568
542
497
402
258
108
-16
-112
-181
-222
-237
-238
-241
-244
-235
-219
-215
-219
-215
-211
-210
-203
-198
-214
-226
-213
-201
-215
-228
-207
-184
-188
-170
-141
-164
-170
-224
-427
-120
1078
1585
221
-1225
-1045
-290
-125
-129
12
60
52
93
114
123
162
209
260
327
402
479
537
563
579
582
544
462
342
196
61
-40
-118
-174
-196
-196
-191
-182
-174
-174
-174
-168
-164
-168
-169
-161
-159
-176
-190
-185
-179
-185
-198
-197
-176
-172
-174
-141
-136
-179
-198
-334
-356
530
1693
1195
-583
-1252
-595
-160
-155
-50
23
-10
27
71
65
95
152
193
245
308
369
434
487
502
491
471
433
355
234
101
-11
-93
-149
-184
-200
-201
-193
-182
-181
-186
-184
-179
-179
-179
-181
-188
-188
-181
-183
-187
-179
-176
-195
-204
-171
-145
-148
-124
-111
-149
-169
-301
-413
328
1597
1398
-365
-1281
-688
-155
-144
-65
42
26
51
97
100
140
205
239
278
346
422
500
568
605
608
587
543
455
314
160
34
-63
-137
-182
-204
-214
-221
-226
-229
-231
-223
-208
-208
-230
-237
-214
-200
-216
-227
-214
-201
-211
-227
-224
-201
-189
-175
-153
-165
-176
-209
-381
-233
736
1376
308
-1213
-1257
-445
-137
-131
6
66
49
99
131
132
177
233
270
323
392
460
524
564
568
549
513
443
324
178
50
-44
-116
-165
-189
-198
-198
-188
-175
-167
-163
-159
-160
-165
-165
-158
-149
-150
-165
-176
-166
-157
-174
-187
-160
-138
-147
-124
-101
-135
-134
-222
-435
55
1362
1581
-43
-1282
-854
-181
-111
-65
62
43
39
101
109
118
170
210
248
312
381
445
507
549
557
538
494
415
293
146
20
-67
-133
-186
-209
-212
-214
-211
-199
-191
-190
-187
-182
-179
-175
-166
-159
-167
-185
-189
-177
-179
-197
-194
-170
-167
-165
-133
-145
-169
-174
-358
-379
568
1638
946
-817
-1288
-524
-104
-117
-14
59
24
56
104
109
136
181
219
269
331
396
462
510
527
520
492
430
322
178
39
-62
-134
-192
-228
-236
-233
-232
-232
-230
-227
-228
-230
-227
-219
-212
-202
-191
-196
-211
-208
-190
-192
-213
-209
-174
-166
-184
-162
-141
-165
-177
-308
-441
223
1420
1265
-394
-1269
-668
-107
-91
-30
72
55
77
124
124
148
201
237
283
352
419
477
529
559
556
533
499
424
299
169
67
-21
-91
-122
-129
-131
-128
-122
-121
-121
-113
-102
-95
-94
-92
-87
-79
-68
-65
-77
-77
-58
-53
-63
-53
-29
-11
7
17
26
52
33
-85
