# session 3
-42
-30
-30
-126
-195
-67
119
185
218
286
320
342
422
486
418
210
-24
-125
-135
-236
-334
-273
-269
-400
-378
-244
-291
-411
-403
-361
-355
-341
-307
-245
-207
-256
-288
-226
-177
-192
-201
-201
-215
-231
-227
-258
-434
-352
744
2109
1764
-44
-957
-508
-87
-12
76
5
-143
-43
101
21
-91
13
232
294
200
221
379
449
418
400
384
389
480
573
567
497
417
343
264
111
-87
-163
-126
-145
-199
-185
-184
-250
-280
-283
-352
-402
-363
-379
-431
-352
-323
-484
-591
-556
-75
1288
2204
918
-1037
-1165
-307
-174
-320
-167
-93
-135
-104
-81
-44
47
96
123
184
225
237
255
256
249
311
422
469
467
525
573
478
324
225
147
108
84
-57
-206
-156
-95
-202
-264
-231
-313
-418
-370
-330
-354
-230
-45
-46
-103
-51
-56
-164
-185
-156
-226
-303
-285
-251
-249
-226
-171
-154
-184
-171
-134
-169
-195
-192
-76
707
1791
1380
-554
-1586
-996
-391
-333
-246
-153
-185
-157
-88
-63
-26
15
26
39
67
132
234
283
246
218
253
319
422
549
619
613
591
566
502
404
276
130
27
-17
-81
-169
-198
-175
-163
-150
-109
-74
-84
-109
-93
-50
-33
-47
-80
-136
-171
-163
-162
-160
-141
-161
-198
-254
-389
-68
1192
2062
986
-772
-1115
-482
-205
-235
-213
-202
-156
-57
-13
21
66
63
75
139
160
154
204
260
274
309
368
394
411
456
492
478
404
256
48
-152
-283
-371
-484
-580
-548
-441
-424
-463
-411
-341
-375
-398
-390
-509
-564
-294
-33
-143
-342
-339
-295
-305
-282
-248
-227
-260
-340
63
1172
1655
494
-863
-884
-326
-188
-173
-50
-34
-58
-15
5
2
36
98
138
137
217
325
-16
-800
-1057
-325
554
865
863
924
1048
1113
1054
909
737
530
348
286
265
154
6
-87
-169
-259
-279
-239
-213
-185
-123
-78
-90
-119
-123
-142
-215
-263
-252
-275
-309
-274
-278
-352
-446
-664
-464
947
2182
1112
-951
-1346
-600
-340
-302
-126
-165
-216
-47
49
31
48
34
3
40
88
131
203
236
207
211
269
335
427
541
596
558
460
328
187
55
-74
-187
-257
-288
-276
-237
-234
-256
-239
-212
-221
-229
-211
-196
-186
-190
-221
-215
-153
-143
-176
-174
-192
-260
-393
-487
133
1533
1951
447
-995
-808
-191
-266
-419
-162
72
19
-77
-57
-18
6
48
66
49
43
53
74
128
191
224
244
288
350
391
390
348
286
218
104
-75
-202
-192
-173
-237
-287
-285
-292
-285
-242
-219
-229
-246
-242
-197
-180
-250
-294
-235
-202
-247
-263
-243
-230
-261
-426
-344
620
1663
1142
-393
-916
-374
-77
-153
-112
-31
-36
-28
6
29
53
77
97
136
226
346
402
376
372
410
422
447
537
616
671
735
704
542
394
276
89
-88
-164
-201
-229
-225
-235
-271
-286
-293
-311
-302
-281
-278
-247
-201
-235
-305
-302
-280
-274
-208
-188
-303
-372
-345
-89
863
1794
1014
-923
-1658
-990
-466
-379
-247
-143
-134
-89
-44
-40
-21
23
59
69
89
133
134
104
140
239
330
393
452
541
644
690
646
545
410
268
148
38
-74
-156
-194
-202
-187
-182
-196
-180
-151
-179
-199
-138
-97
-137
-158
-148
-195
-264
-243
-168
-146
-171
-287
-342
332
1509
1422
-260
-1340
-866
-241
-158
-153
-151
-164
-66
-29
-93
-62
11
12
-1
11
48
98
112
108
150
206
246
301
375
432
456
439
377
286
195
101
-34
-172
-202
-143
-138
-197
-213
-187
-172
-162
-176
-220
-223
-185
-182
-189
-197
-254
-280
-241
-271
-382
-502
-442
348
1551
1439
-270
-1403
-1008
-452
-361
-180
59
56
-5
10
8
-4
30
74
87
108
189
282
310
302
316
359
431
511
557
598
685
737
676
575
456
247
51
5
-29
-178
-243
-78
77
26
-75
-156
-349
-518
-446
-320
-341
-372
-341
-328
-297
-256
-317
-409
-417
-323
201
1241
1576
247
-1366
-1549
-835
-403
-238
-76
-43
-91
-65
-19
-8
39
113
96
18
51
188
238
158
130
255
393
405
352
336
392
515
590
514
393
322
186
-57
-262
-345
-334
-279
-232
-205
-183
-182
-194
-176
-173
-232
-276
-254
-225
-209
-192
-179
-149
-135
-204
-286
-397
-387
480
1883
1755
-170
-1326
-801
-239
-220
-158
-123
-175
-25
163
148
93
121
158
151
139
187
252
229
172
191
237
261
293
312
291
271
265
233
179
144
118
48
-40
-61
-53
-95
-113
-88
-154
-274
-273
-207
-222
-286
-337
-375
-344
-227
-187
-294
-349
-367
-494
-94
1285
2016
588
-1280
-1408
-611
-342
-335
-173
-94
-118
-104
-66
-22
14
28
60
106
125
133
152
202
289
341
335
379
491
581
658
755
759
604
404
279
211
104
-62
-162
-149
-187
-314
-345
-313
-387
-448
-307
-72
33
-73
-266
-345
-280
-236
-313
-400
-424
-495
-305
681
1579
807
-907
-1454
-819
-334
-201
-84
-40
-14
62
50
16
96
141
54
-14
15
55
54
44
72
145
235
308
328
307
348
478
553
519
475
390
192
-1
-105
-193
-259
-270
-307
-355
-320
-267
-282
-298
-273
-266
-284
-276
-255
-257
-231
-189
-218
-273
-371
-398
343
1705
1820
151
-1101
-780
-207
-135
-60
82
74
58
96
90
66
52
58
152
243
163
66
158
255
231
280
405
446
484
567
591
576
527
356
141
5
-93
-172
-202
-246
-313
-305
-249
-273
-334
-305
-248
-271
-314
-316
-307
-288
-300
-361
-404
-504
-356
781
2045
1305
-847
-1621
-824
-317
-338
-216
-118
-170
-114
-1
-4
-55
-68
-52
-20
10
13
29
133
289
365
341
323
360
411
453
489
480
381
237
119
26
-54
-96
-118
-152
-172
-155
-134
-135
-141
-122
-76
-66
-121
-177
-196
-222
-252
-217
-174
-219
-272
-332
-404
102
1367
1871
610
-821
-923
-453
-304
-270
-211
-227
-223
-191
-186
-129
-26
6
-19
-21
6
47
108
167
207
242
288
334
358
367
387
406
391
331
229
104
6
-55
-112
-150
-150
-150
-162
-150
-127
-124
-143
-204
-295
-343
-335
-304
-265
-265
-327
-438
-591
-362
731
1687
929
-760
-1283
-655
-234
-206
-142
-68
-46
-25
-20
-2
38
54
80
136
163
179
238
302
344
395
440
463
503
574
635
656
658
648
518
262
125
161
102
-35
-38
-30
-139
-221
-246
-253
-167
-94
-189
-299
-310
-331
-341
-304
-332
-382
-396
-438
-36
1161
1749
390
-1384
-1554
-782
-403
-283
-131
-128
-175
-131
-109
-105
-66
-58
-65
-28
6
20
69
141
175
188
226
280
311
318
338
389
433
404
273
104
-5
-73
-163
-238
-262
-266
-249
-220
-246
-301
-272
-210
-227
-236
-182
-196
-252
-242
-256
-310
-390
-494
38
1476
2065
585
-1012
-944
-287
-180
-184
-30
20
-12
9
64
94
86
101
136
121
100
135
160
160
209
285
314
340
425
505
504
467
452
408
297
176
73
-35
-102
-103
-116
-153
-151
-142
-179
-192
-152
-152
-219
-256
-259
-291
-300
-277
-292
-305
-406
-479
364
1906
1867
-202
-1546
-1016
-342
-284
-195
-67
-125
-164
-123
-106
-94
-77
-72
-66
-64
-62
-28
38
105
156
187
208
243
303
359
375
354
305
210
96
35
18
-40
-134
-184
-176
-170
-175
-161
-132
-111
-116
-146
-166
-155
-125
-99
-134
-213
-281
-373
-102
1033
1943
997
-797
-1223
-525
-174
-229
-176
-41
50
61
4
-2
43
13
-69
-83
-31
28
88
121
85
43
75
138
179
215
242
259
276
250
166
94
56
18
-16
-30
-44
-62
-73
-90
-108
-105
-100
-129
-181
-231
-246
-243
-264
-279
-350
-481
-17
1281
1768
305
-1278
-1240
-544
-300
-187
-30
-48
-106
-57
15
59
69
50
44
71
104
130
143
158
203
263
301
332
373
405
446
492
477
393
288
187
104
24
-73
-131
-163
-268
-340
-230
-121
-178
-242
-216
-190
-179
-146
-94
-68
-129
-237
-375
-374
330
1413
1206
-445
-1425
-953
-381
-294
-197
-65
-68
-55
16
45
64
77
36
21
92
135
111
125
163
165
188
236
235
215
244
297
337
360
346
272
176
107
41
-38
-81
-102
-176
-284
-330
-285
-229
-240
-273
-269
-269
-262
-219
-245
-312
-352
-459
-159
1065
1894
807
-848
-1078
-476
-265
-240
-112
-85
-107
-57
-23
-24
-4
26
56
82
93
107
150
204
201
149
167
278
321
278
321
421
413
332
238
91
2
63
81
-67
-227
-282
-269
-253
-260
-256
-230
-237
-265
-269
-278
-275
-225
-210
-207
-176
-215
160
1422
2102
640
-1319
-1483
-614
-283
-292
-162
-93
-119
-68
18
40
30
55
88
86
97
137
152
153
176
201
225
264
305
359
427
428
337
245
184
108
32
-16
-59
-99
-120
-155
-203
-198
-161
-176
-227
-217
-171
-175
-181
-152
-172
-219
-329
-539
-98
1384
2080
587
-1095
-1014
-352
-338
-367
-135
-77
-132
-66
-4
-29
-31
43
130
133
55
11
53
121
154
157
167
193
210
210
231
278
273
183
104
84
36
-30
-19
2
-63
-136
-157
-163
-173
-207
-240
-209
-193
-250
-254
-202
-205
-287
-490
-364
824
2044
1263
-741
-1396
-704
-313
-337
-225
-128
-138
-110
-79
-65
-17
21
26
43
80
116
140
165
199
210
206
251
310
316
330
397
401
308
229
183
108
31
-17
-64
-109
-125
-120
-131
-186
-250
-253
-199
-174
-177
-121
-79
-178
-279
-326
-311
277
1297
1183
-354
-1316
-892
-370
-307
-217
-87
-88
-81
-25
4
17
35
68
111
139
149
164
184
199
214
229
242
290
376
420
412
440
459
362
227
122
0
-76
-41
-47
-178
-283
-290
-296
-342
-358
-317
-291
-318
-314
-259
-264
-291
-295
-400
-192
908
1788
831
-912
-1301
-636
-288
-246
-131
-81
-65
8
17
-1
56
87
70
113
186
209
209
221
240
276
334
371
354
336
374
411
371
293
244
219
171
93
20
-41
-111
-189
-257
-283
-264
-282
-351
-346
-280
-276
-278
-234
-238
-244
-217
-148
418
1379
1242
-391
-1527
-1109
-417
-252
-162
-53
-79
-64
8
3
2
53
84
108
136
136
156
213
226
202
206
214
197
184
191
235
306
308
199
80
27
-3
-44
-71
-74
-87
-129
-174
-186
-175
-187
-216
-213
-191
-209
-232
-229
-242
-248
-316
-415
143
1442
1714
122
-1245
-975
-353
-268
-189
-20
-22
-60
-35
38
149
173
98
88
152
190
184
144
113
143
187
210
239
253
224
202
204
174
114
88
82
46
16
26
5
-61
-100
-118
-153
-174
-178
-191
-214
-228
-201
-193
-265
-286
-380
-665
-106
1726
2456
614
-1224
-1045
-344
-284
-253
-140
-207
-196
-72
-55
-68
-15
23
33
51
68
91
139
187
200
189
179
182
199
206
175
125
86
23
-74
-127
-115
-113
-111
-79
-107
-179
-143
-73
-136
-188
-99
-76
-166
-145
-77
-133
-236
-406
-390
550
1773
1359
-405
-1207
-694
-296
-290
-191
-84
-70
-27
-12
-61
-76
-46
-12
32
86
146
203
231
246
277
303
316
347
373
354
341
372
356
257
177
129
46
-22
-26
-53
-150
-237
-229
-144
-123
-230
-307
-281
-279
-293
-256
-275
-335
-389
-479
-64
1143
1604
223
-1195
-1035
-376
-256
-220
-79
-84
-109
-60
-53
-51
4
44
58
88
124
153
177
173
160
184
208
201
237
309
305
260
266
246
143
61
6
-89
-140
-96
-80
-134
-167
-170
-189
-219
-240
-227
-181
-165
-177
-174
-193
-202
-181
-170
291
1415
1775
297
-1328
-1333
-577
-273
-193
-52
-20
-50
-27
11
30
46
67
80
74
83
117
140
152
187
231
242
223
218
242
269
277
254
201
131
59
8
-26
-79
-129
-128
-124
-153
-154
-119
-128
-173
-178
-154
-164
-175
-152
-157
-168
-181
-305
-83
1012
1791
741
-930
-1184
-507
-201
-133
16
45
-4
9
42
84
104
78
95
157
178
172
174
166
159
169
184
178
137
107
141
181
142
64
18
-18
-76
-122
-122
-112
-123
-123
-109
-127
-148
-140
-158
-196
-193
-192
-198
-175
-206
-251
-252
-325
56
1345
1949
438
-1303
-1247
-460
-240
-194
-81
-108
-103
-14
-38
-93
-47
6
-6
-18
10
48
69
92
145
199
209
186
165
171
200
211
172
117
82
52
11
-20
-30
-40
-67
-89
-84
-70
-81
-114
-119
-93
-119
-186
-186
-149
-138
-172
-304
-130
840
1566
629
-915
-1164
-545
-271
-214
-74
-55
-103
-69
-41
-39
-9
11
15
32
58
85
122
157
174
179
183
175
151
147
172
186
167
141
118
94
73
51
37
31
4
-42
-61
-52
-65
-106
-139
-140
-142
-170
-172
-165
-203
-240
-349
-390
370
1604
1387
-415
-1411
-844
-281
-244
-129
13
-7
18
82
67
72
138
169
163
191
249
291
306
304
307
330
349
354
367
376
359
331
284
202
138
115
76
23
8
1
-49
-100
-88
-60
-91
-149
-163
-169
-212
-228
-214
-248
-286
-357
-472
-4
1224
1585
91
-1399
-1285
-583
-341
-242
-117
-112
-86
-21
-41
-59
-8
38
70
103
118
140
180
202
202
205
194
164
164
215
257
229
146
62
-12
-89
-149
-181
-210
-230
-241
-277
-308
-294
-304
-354
-358
-331
-345
-361
-326
-300
-327
-342
-366
-400
66
1179
1533
163
-1304
-1248
-528
-264
-191
-55
-35
-45
17
50
53
88
115
120
142
180
210
240
268
285
305
328
333
341
386
423
394
315
225
137
72
52
42
16
10
18
-20
-79
-82
-55
-48
-41
-19
-1
12
31
52
