# session 16
-48
-34
-52
-133
-141
-11
65
18
-14
-15
-63
-144
-187
-118
50
166
113
5
13
67
-3
-101
19
373
786
985
529
-687
-1803
-1777
-828
-114
-29
-10
104
-2
-90
168
352
218
280
673
890
830
784
771
740
773
777
626
422
254
91
-44
-122
-170
-205
-251
-267
-191
-129
-147
-147
-207
-400
-483
-392
-360
-358
-282
-250
-224
-116
-88
-143
-118
-113
-158
-80
-23
-157
-262
-190
193
1078
1624
620
-1131
-1692
-975
-264
-67
-107
-94
13
-10
-129
-18
194
146
-28
-22
133
295
401
468
602
810
914
822
607
349
142
46
-27
-152
-238
-175
-43
-22
-114
-170
-190
-270
-330
-293
-275
-337
-346
-261
-220
-270
-318
-349
-382
-337
-227
-201
-276
-326
-327
-393
-374
264
1296
1267
-187
-1264
-936
-309
-162
-51
176
163
-66
-170
-72
81
240
341
340
498
912
1151
1042
872
653
297
43
4
31
33
-47
-195
-298
-344
-343
-258
-188
-200
-177
-111
-112
-125
-94
-126
-215
-205
-118
-117
-189
-178
-58
0
-115
-201
-57
76
-31
-192
-305
-144
823
1797
1031
-867
-1578
-930
-374
-242
-139
-17
53
13
-73
-3
129
141
165
252
313
493
818
959
918
992
985
609
214
88
-6
-123
-129
-298
-763
-970
-584
-79
62
-46
-111
-85
-85
-162
-217
-196
-202
-297
-389
-400
-355
-295
-272
-299
-262
-147
-135
-176
-163
-278
-50
1244
2199
880
-1215
-1483
-568
-213
-258
-147
-43
12
59
19
-7
54
100
142
257
399
538
675
723
661
582
485
332
166
-28
-246
-333
-288
-290
-320
-263
-199
-188
-138
-47
-12
-31
-59
-109
-134
-100
-107
-153
-97
-24
-100
-215
-239
-201
-154
-134
-133
-180
-81
788
1961
1535
-491
-1635
-1103
-424
-288
-278
-277
-333
-371
-217
204
494
363
200
279
376
423
518
593
618
634
597
512
436
312
117
-34
-120
-199
-212
-160
-168
-207
-196
-218
-289
-309
-330
-400
-404
-346
-303
-230
-175
-241
-313
-289
-258
-224
-186
-273
-410
-472
-513
-49
1275
1929
519
-1201
-1166
-369
-185
-128
104
92
55
243
304
173
138
140
-43
-251
-49
590
1083
1103
957
850
689
492
325
134
-112
-309
-352
-348
-424
-419
-243
-146
-224
-280
-282
-323
-348
-321
-313
-342
-358
-332
-283
-241
-247
-282
-241
-117
-75
-195
-339
-27
1268
2707
2304
58
-1617
-1546
-842
-439
-257
-137
-68
-12
37
39
2
37
182
269
252
321
475
508
472
539
597
470
280
272
408
354
83
3
100
-65
-346
-276
-37
-38
-201
-236
-90
12
-118
-282
-205
-59
-104
-178
-125
-138
-230
-196
-155
-268
-406
-368
247
1350
1415
-340
-1929
-1660
-675
-285
-187
-58
-77
-150
-118
-73
-75
-67
15
162
273
324
445
645
760
767
738
587
310
145
148
110
-19
-159
-359
-589
-641
-489
-347
-305
-263
-209
-239
-322
-311
-219
-199
-238
-203
-145
-189
-265
-232
-117
-57
-54
-55
-165
3
1246
2615
1913
-284
-1234
-668
-219
-158
-97
-122
-48
212
233
37
58
198
125
63
378
818
902
698
595
617
540
363
227
88
-163
-379
-350
-210
-176
-196
-210
-288
-382
-384
-338
-332
-362
-406
-440
-403
-310
-276
-290
-250
-185
-129
-97
-185
-263
-189
-228
-40
1146
2059
739
-1378
-1652
-718
-337
-317
-141
-30
16
67
16
-20
27
28
94
282
329
319
542
721
606
579
721
620
363
340
391
198
-35
-49
-47
-163
-161
-51
-105
-207
-123
-25
-65
-80
-45
-104
-169
-105
-54
-131
-177
-143
-223
-396
-481
-510
-265
720
1636
807
-1236
-2056
-1229
-453
-313
-215
-100
-137
-156
-96
-64
-21
109
257
341
415
553
710
814
836
786
726
681
529
210
-93
-213
-257
-345
-383
-314
-267
-298
-298
-220
-173
-222
-295
-312
-285
-268
-282
-291
-265
-246
-260
-241
-192
-181
-150
-190
-338
211
1685
2103
343
-1319
-1133
-445
-339
-227
18
14
-70
-14
91
169
191
251
442
561
523
626
800
655
370
315
332
245
144
11
-158
-237
-239
-250
-263
-240
-188
-174
-237
-282
-270
-274
-253
-174
-151
-186
-172
-138
-238
-471
-200
1224
2517
1583
-655
-1439
-729
-307
-335
-167
-30
-129
-135
39
141
130
164
226
263
367
484
453
357
325
278
150
4
-102
-149
-155
-144
-98
-56
-80
-128
-133
-92
-62
-119
-186
-105
-51
-211
-294
-219
-326
-451
-246
-48
-114
-112
10
-28
-177
-250
-261
-244
-180
-158
-313
-276
654
1778
1199
-805
-1753
-1091
-429
-278
-135
-81
-166
-116
-41
-107
-111
55
232
336
411
505
618
690
736
844
936
840
598
365
177
2
-164
-299
-342
-295
-251
-209
-158
-210
-331
-352
-333
-357
-289
-177
-230
-359
-369
-308
-286
-238
-101
-5
-47
-159
-352
-221
1006
2351
1555
-712
-1488
-638
-198
-283
-68
98
-18
-31
20
41
216
391
361
346
443
497
527
592
635
613
508
349
208
43
-147
-215
-173
-207
-302
-326
-322
-351
-356
-339
-355
-373
-360
-341
-315
-280
-250
-226
-231
-248
-210
-169
-180
-204
-318
-205
879
2113
1394
-809
-1771
-1079
-431
-262
-106
-37
-64
-10
42
49
106
183
209
217
279
394
487
547
619
658
618
541
435
293
177
105
17
-54
-41
-11
-30
-34
-14
-36
-48
-7
-60
-197
-140
43
-1
-104
39
42
-323
-542
-469
-467
-547
-481
116
1332
1766
275
-1456
-1498
-701
-388
-321
-197
-204
-183
13
123
47
10
95
172
196
259
398
546
649
708
710
634
485
293
105
-31
-139
-253
-308
-291
-322
-400
-414
-397
-421
-452
-451
-407
-325
-304
-381
-415
-361
-355
-387
-362
-362
-401
-442
-584
-357
887
1920
904
-1033
-1468
-699
-276
-201
-19
90
92
134
180
232
327
398
443
530
631
702
791
901
950
922
858
747
575
376
196
61
-40
-133
-237
-349
-389
-315
-237
-237
-257
-263
-279
-275
-252
-269
-298
-298
-312
-313
-253
-259
-330
-342
-515
-521
798
2576
2008
-535
-1684
-927
-378
-413
-269
-83
-70
-54
-8
56
145
212
285
367
396
429
532
633
669
665
691
709
503
115
-74
-38
-113
-286
-334
-302
-300
-312
-342
-382
-372
-328
-298
-260
-205
-172
-144
-109
-117
-128
-96
-114
-160
-207
-329
100
1555
2316
823
-1016
-1055
-355
-236
-216
-28
-16
-78
-46
0
39
93
197
302
236
167
335
438
501
829
474
-1094
-1879
-752
335
218
-32
-1
-63
-25
-23
-507
-894
-455
94
-51
-135
222
9
-200
525
-366
-3622
-4329
-1183
766
150
-180
92
591
1842
2146
334
-1139
-745
-78
-30
42
179
100
47
141
177
148
242
402
417
387
515
649
626
619
733
809
763
620
402
218
154
81
-93
-226
-218
-170
-159
-154
-128
-111
-151
-213
-194
-149
-225
-313
-263
-239
-324
-330
-329
-428
-265
215
674
1405
2215
1568
-504
-1666
-1203
-608
-393
-96
104
51
38
77
68
124
201
170
150
263
371
372
411
555
595
460
390
429
321
86
-28
-85
-222
-248
-116
-113
-224
-202
-142
-169
-158
-123
-140
-125
-122
-207
-222
-166
-232
-310
-274
-293
-402
-548
-468
506
1797
1414
-485
-1410
-855
-390
-354
-191
-75
-183
-192
-51
-28
-29
97
23
-45
460
492
-752
-1239
98
1036
664
443
543
285
54
107
51
-131
-240
-299
-271
-145
-147
-277
-230
-54
-96
-278
-263
-131
-149
-226
-204
-189
-221
-225
-331
-284
636
1769
1206
-754
-1657
-1020
-436
-343
-186
-51
-92
-89
-30
-14
42
153
227
267
321
394
514
675
753
701
647
603
449
234
85
-15
-76
-62
-58
-114
-127
-96
-108
-86
2
2
-86
-107
-85
-132
-202
-211
-156
-107
-155
-245
-324
-385
59
1245
1770
462
-1151
-1280
-641
-403
-358
-214
-159
-165
-110
-28
65
153
195
222
278
364
473
567
611
637
650
585
466
378
246
22
-116
-109
-140
-205
-177
-151
-192
-181
-141
-194
-276
-303
-321
-335
-325
-345
-361
-275
-210
-290
-351
-394
-472
126
1495
1726
-11
-1463
-1181
-522
-430
-386
-235
-181
-112
-7
30
59
138
229
291
361
502
664
762
825
879
874
797
646
436
254
137
21
-115
-199
-188
-151
-183
-255
-289
-280
-249
-246
-324
-417
-435
-425
-431
-423
-461
-520
-424
-298
-135
706
1804
1266
-832
-1931
-1282
-562
-432
-319
-189
-192
-144
-75
-120
-86
132
272
240
283
432
525
638
807
798
620
549
541
377
139
-16
-132
-225
-229
-180
-167
-185
-190
-192
-218
-239
-215
-185
-202
-231
-236
-262
-303
-309
-302
-295
-372
-590
-272
1173
2259
1176
-757
-1173
-488
-215
-249
-78
38
-30
-21
81
53
-74
-42
139
235
252
345
488
592
649
636
557
468
352
183
49
-28
-115
-158
-120
-130
-200
-181
-113
-115
-124
-97
-117
-173
-187
-197
-270
-316
-273
-273
-324
-352
-570
-560
765
2394
1711
-654
-1600
-938
-548
-540
-292
-86
-65
-25
-19
-71
-51
18
58
114
235
380
529
637
588
468
526
669
571
283
96
22
-75
-172
-214
-238
-244
-196
-159
-190
-217
-177
-139
-173
-246
-271
-221
-187
-249
-282
-249
-345
-153
965
1854
790
-1086
-1454
-697
-348
-342
-202
-115
-113
-60
-36
-75
-99
-77
-33
1
70
225
367
407
437
533
577
462
296
214
168
65
-61
-153
-223
-267
-261
-235
-199
-115
-43
-107
-238
-256
-173
-125
-117
-121
-176
-243
-362
-475
167
1677
2079
285
-1451
-1298
-526
-352
-299
-120
-112
-173
-123
-58
-43
-21
45
130
194
272
410
558
650
696
713
681
598
479
317
135
7
-49
-67
-67
-107
-207
-219
-121
-121
-204
-171
-115
-163
-195
-224
-314
-293
-174
-184
-306
-365
37
1078
1535
271
-1296
-1369
-660
-400
-355
-191
-120
-128
-82
-43
-18
52
102
89
122
260
360
367
431
563
603
566
567
530
374
200
88
-10
-121
-181
-148
-102
-130
-196
-228
-228
-245
-303
-349
-331
-303
-293
-275
-256
-278
-428
-470
353
1708
1599
-319
-1605
-1142
-454
-356
-276
-107
-73
-72
-57
-40
39
105
107
186
352
446
476
560
654
649
578
524
479
382
211
39
-49
-89
-163
-229
-268
-344
-347
-150
48
41
-90
-222
-265
-228
-278
-358
-309
-304
-390
-339
-9
829
1740
1220
-736
-1881
-1341
-565
-326
-201
-100
-134
-153
-103
-71
-54
-11
52
114
200
335
456
528
607
676
669
601
470
284
140
-5
-254
-386
-170
110
106
-52
-124
-119
-76
-47
-125
-207
-165
-179
-334
-364
-245
-234
-297
-380
-429
268
1711
1947
185
-1273
-981
-327
-263
-248
-141
-165
-142
-10
36
7
38
108
160
267
462
579
529
492
600
731
732
581
366
200
55
-133
-245
-241
-290
-397
-412
-381
-381
-341
-296
-310
-286
-244
-322
-373
-271
-260
-349
-368
-526
-343
1119
2374
1031
-1422
-1901
-926
-477
-434
-223
-136
-196
-126
16
59
31
64
109
42
53
294
474
464
534
698
702
544
369
230
140
39
-101
-149
-66
-16
-50
-95
-145
-171
-137
-134
-181
-180
-159
-151
-100
-73
-128
-257
-453
-88
1310
2147
876
-823
-968
-478
-447
-416
-267
-227
-65
92
-38
-134
2
111
148
217
237
265
420
534
510
515
531
411
236
102
-15
-63
-29
-29
-58
-41
-47
-124
-166
-164
-208
-260
-277
-327
-352
-252
-195
-296
-460
-627
-246
1186
2131
747
-1380
-1688
-837
-469
-380
-186
-173
-224
-117
-20
-26
-33
-1
46
91
142
217
328
458
537
514
430
325
204
99
17
-70
-126
-119
-107
-113
-99
-88
-94
-73
-56
-88
-105
-92
-131
-171
-133
-117
-230
-478
-484
463
1782
1529
-255
-1232
-773
-305
-269
-184
-89
-116
-139
-137
-158
-168
-94
75
202
208
250
408
500
496
581
620
402
224
287
243
24
-69
-93
-182
-172
-77
-92
-161
-165
-168
-197
-186
-185
-253
-248
-147
-194
-346
-380
-371
40
1263
1860
393
-1407
-1422
-591
-341
-346
-207
-138
-135
-101
-66
-25
8
16
52
115
163
239
366
476
541
583
595
551
448
324
220
123
32
-3
16
0
-59
-60
-3
-16
-80
-36
3
-167
-331
-276
-206
-192
-195
-333
-30
1183
1702
180
-1495
-1413
-670
-483
-392
-173
-151
-195
-114
-16
37
59
69
123
212
272
324
406
469
475
464
458
404
276
131
17
-85
-182
-239
-230
-173
-145
-196
-238
-188
-129
-156
-219
-237
-221
-216
-198
-114
-94
-365
-535
283
1562
1324
-462
-1460
-946
-367
-248
-119
-45
-131
-143
-102
-133
-144
-82
-15
46
145
276
389
450
471
506
574
594
502
386
315
231
133
70
-4
-101
-112
-58
-75
-118
-73
-26
-67
-134
-193
-231
-219
-230
-272
-324
-462
-176
1083
1926
633
-1371
-1699
-878
-428
-265
-59
-35
-96
-51
-3
13
26
-1
11
139
267
312
369
486
592
652
663
587
428
256
122
33
-14
-48
-82
-102
-127
-181
-233
-249
-251
-273
-321
-344
-299
-270
-353
-421
-394
-524
-535
440
1684
1146
-778
-1577
-954
-497
-463
-327
-225
-227
-130
-30
-21
36
136
145
136
247
391
443
486
579
624
600
560
449
270
186
207
147
0
-38
25
-12
-125
-114
-36
-87
-176
-143
-115
-181
-194
-174
-262
-336
-298
-106
665
1783
1626
-205
-1581
-1264
-513
-286
-200
-69
-73
-126
-96
-22
8
-13
9
105
182
217
275
369
432
395
353
432
424
155
-38
32
52
-37
-9
52
-1
-85
-153
-194
-159
-136
-216
-268
-217
-183
-179
-172
-248
-346
-463
-620
-27
1579
2116
363
-1292
-1053
-368
-307
-259
-142
-209
-206
-142
-175
-135
-43
-42
-4
80
76
111
245
306
310
342
287
138
35
