# session 4
-7
-12
29
-79
-320
-417
-358
-345
-390
-401
-378
-361
-372
-381
-353
-344
-357
-329
-338
-387
-335
-367
-400
397
1579
1186
-592
-1350
-717
-259
-268
-171
-71
-96
-74
-24
-15
9
42
61
88
117
133
147
169
193
210
212
189
159
159
194
206
161
98
58
29
-11
-62
-117
-147
-136
-129
-157
-180
-163
-150
-164
-170
-142
-124
-152
-163
-129
-143
-168
-187
-351
-207
825
1585
646
-777
-887
-290
-100
-95
-3
9
-7
18
20
30
70
93
101
120
140
156
171
185
187
174
165
163
158
168
197
211
196
174
142
89
40
4
-29
-48
-54
-76
-112
-132
-129
-122
-130
-143
-136
-131
-145
-126
-102
-142
-163
-199
-246
273
1264
1165
-334
-1257
-796
-236
-150
-68
25
-4
4
55
62
78
120
139
143
162
192
216
229
240
251
262
272
273
270
282
290
252
181
105
22
-57
-103
-126
-138
-127
-122
-181
-260
-257
-199
-195
-235
-234
-216
-239
-235
-184
-205
-233
-249
-435
-253
917
1682
515
-1047
-1038
-325
-156
-138
28
29
-53
-8
48
42
60
114
138
138
163
195
204
212
221
207
188
189
191
197
210
190
131
82
44
-9
-57
-84
-106
-112
-114
-133
-141
-125
-132
-169
-194
-182
-149
-149
-174
-171
-173
-193
-193
-339
-468
201
1324
1143
-360
-1110
-609
-185
-184
-113
-23
-46
-47
-24
-9
29
49
41
57
92
121
147
164
173
188
193
165
145
177
222
223
183
125
63
13
-29
-78
-127
-154
-157
-151
-156
-166
-162
-143
-131
-137
-144
-127
-114
-123
-102
-77
-117
-130
-138
-167
301
1188
1032
-426
-1269
-748
-172
-109
-56
35
17
26
69
71
86
121
142
165
191
213
241
268
278
291
315
332
341
359
384
385
332
248
173
107
29
-49
-98
-120
-127
-131
-162
-207
-212
-178
-178
-213
-214
-196
-214
-211
-180
-215
-242
-275
-491
-287
915
1628
379
-1188
-1126
-370
-195
-202
-61
-33
-54
2
28
29
65
94
115
149
174
199
237
246
227
238
260
239
222
248
250
194
122
57
-1
-40
-78
-122
-146
-146
-148
-157
-166
-182
-193
-170
-149
-178
-188
-141
-131
-162
-167
-180
-170
-194
-399
-186
984
1669
505
-928
-877
-255
-138
-127
-18
-45
-80
-25
-5
0
29
29
29
78
130
154
168
184
201
214
214
215
240
267
248
188
134
90
32
-34
-82
-101
-108
-122
-148
-175
-184
-171
-161
-168
-177
-179
-172
-170
-183
-172
-145
-179
-215
-264
-439
-201
871
1433
319
-966
-857
-238
-102
-79
46
45
5
37
56
55
70
83
100
134
166
180
188
208
233
251
262
280
314
344
343
289
185
82
32
2
-52
-98
-119
-147
-168
-152
-140
-159
-169
-156
-158
-169
-148
-123
-137
-145
-121
-143
-183
-225
-393
-258
735
1476
504
-1004
-1120
-411
-159
-149
-11
26
-9
37
70
59
86
128
142
153
180
218
253
278
301
330
337
315
315
347
343
275
194
129
59
-14
-60
-90
-132
-169
-177
-185
-214
-242
-244
-233
-244
-262
-248
-230
-247
-243
-215
-234
-249
-328
-497
-44
1203
1494
-59
-1384
-1031
-298
-175
-141
-9
-9
-20
31
42
52
98
121
123
157
235
299
300
289
308
291
228
226
295
339
312
222
107
18
-46
-100
-132
-149
-171
-164
-120
-104
-138
-164
-147
-118
-128
-164
-150
-112
-140
-150
-94
-106
-155
-202
-305
81
1185
1480
86
-1152
-881
-257
-156
-117
-5
-22
-32
18
24
26
58
76
92
125
156
188
221
238
243
248
247
243
252
257
225
158
80
12
-34
-67
-100
-132
-148
-153
-158
-173
-189
-195
-192
-183
-180
-187
-177
-168
-204
-210
-164
-176
-204
-261
-412
-6
1226
1633
235
-1059
-828
-248
-189
-151
-26
-47
-50
29
48
43
74
104
127
159
187
216
253
286
305
312
316
328
340
328
277
189
89
17
-29
-80
-134
-166
-181
-186
-180
-182
-202
-216
-205
-191
-201
-220
-207
-185
-191
-175
-141
-169
-192
-238
-385
-16
1167
1574
146
-1257
-1045
-334
-175
-126
14
11
-8
52
71
68
102
136
158
189
223
253
282
307
323
329
328
333
343
335
280
180
75
-3
-57
-95
-120
-136
-143
-141
-140
-143
-152
-169
-181
-171
-168
-189
-198
-195
-196
-172
-154
-185
-188
-280
-467
46
1346
1591
41
-1186
-834
-209
-141
-128
-41
-54
-31
35
36
33
67
99
135
169
183
205
228
217
212
243
253
229
218
212
178
125
61
-17
-85
-111
-126
-166
-200
-188
-166
-177
-198
-200
-193
-179
-154
-150
-173
-172
-166
-192
-200
-197
-216
-217
-311
-362
320
1360
1075
-427
-1076
-512
-106
-121
-52
9
-35
-22
12
14
51
93
102
125
175
210
223
247
291
313
301
307
347
385
393
349
245
136
64
0
-64
-100
-123
-153
-166
-159
-162
-179
-189
-187
-184
-182
-182
-172
-158
-165
-163
-128
-132
-154
-171
-301
-144
821
1463
330
-1288
-1335
-455
-99
-64
76
109
80
128
130
108
162
209
213
237
258
251
263
303
328
335
332
313
297
306
300
228
122
45
-1
-52
-104
-132
-149
-173
-182
-171
-173
-195
-214
-218
-202
-197
-231
-251
-226
-207
-187
-161
-191
-202
-226
-378
-87
952
1264
-84
-1304
-989
-285
-150
-115
10
4
-13
45
63
64
112
153
158
172
210
236
253
292
327
325
318
334
338
302
239
174
118
51
-39
-110
-128
-123
-132
-145
-155
-161
-156
-151
-169
-189
-181
-165
-159
-149
-142
-150
-141
-135
-167
-189
-311
-505
-12
1226
1480
100
-954
-617
-128
-140
-107
24
6
-28
-3
6
23
63
78
85
115
148
169
195
221
232
232
232
233
248
260
211
107
19
-36
-83
-120
-142
-158
-166
-167
-173
-181
-174
-156
-155
-171
-171
-159
-164
-158
-136
-159
-175
-124
-128
-190
-246
-384
-153
907
1538
462
-900
-866
-257
-131
-121
1
-6
-26
48
71
53
80
110
127
168
210
231
259
293
310
326
347
353
359
376
349
251
139
55
-13
-64
-90
-114
-144
-164
-166
-169
-182
-194
-192
-180
-178
-190
-190
-170
-164
-175
-160
-146
-168
-185
-301
-430
139
1286
1293
-218
-1188
-732
-182
-143
-85
29
13
15
62
69
76
106
131
161
195
219
243
270
285
290
295
296
291
290
269
192
83
2
-46
-92
-139
-170
-181
-187
-191
-186
-171
-174
-204
-220
-200
-190
-218
-230
-203
-197
-205
-177
-175
-199
-212
-358
-353
467
1369
747
-782
-1188
-522
-140
-132
-36
36
17
44
80
83
102
136
167
195
222
256
292
312
324
337
338
334
347
355
312
217
112
28
-32
-77
-111
-134
-145
-152
-156
-146
-142
-163
-183
-176
-165
-170
-180
-179
-168
-169
-168
-148
-156
-178
-203
-332
-203
725
1498
656
-869
-1139
-471
-151
-128
-17
27
6
50
83
82
110
147
170
200
238
276
310
334
357
375
367
337
317
303
252
154
56
-13
-65
-113
-144
-154
-155
-156
-152
-143
-148
-174
-201
-202
-183
-181
-204
-202
-179
-191
-197
-170
-190
-223
-276
-433
-130
1027
1586
315
-1148
-1055
-339
-163
-155
-23
0
-25
27
54
45
76
123
140
159
220
284
302
300
308
310
309
316
318
298
240
142
45
-20
-66
-106
-132
-146
-159
-167
-163
-159
-168
-180
-179
-166
-158
-173
-196
-186
-173
-194
-188
-163
-191
-220
-313
-433
116
1296
1378
-136
-1183
-768
-204
-148
-96
3
-14
-4
49
59
72
108
137
170
204
231
268
309
333
342
351
355
358
360
329
238
125
30
-46
-105
-139
-160
-179
-193
-200
-198
-195
-208
-225
-216
-193
-193
-208
-194
-171
-184
-186
-155
-168
-193
-222
-373
-179
864
1540
469
-1031
-1094
-389
-149
-128
10
47
25
73
99
98
128
156
172
207
252
291
333
372
388
380
368
367
366
337
257
143
40
-34
-84
-117
-137
-155
-164
-160
-155
-155
-161
-180
-195
-183
-165
-175
-194
-192
-192
-197
-169
-161
-191
-212
-339
-351
438
1480
1051
-574
-1244
-648
-190
-159
-66
19
-6
9
48
59
88
123
139
165
207
251
282
302
321
336
331
314
304
296
256
162
42
-50
-105
-146
-174
-183
-188
-194
-188
-170
-170
-191
-199
-187
-180
-187
-196
-191
-181
-194
-189
-150
-165
-206
-224
-313
-76
909
1479
392
-1036
-1072
-402
-173
-144
-24
1
-20
14
28
35
73
103
127
165
201
232
268
301
321
333
340
345
349
329
262
153
40
-37
-82
-112
-130
-137
-147
-156
-145
-131
-144
-165
-163
-143
-138
-157
-162
-145
-155
-165
-128
-133
-180
-209
-355
-248
779
1715
850
-831
-1138
-421
-116
-132
-21
30
4
40
68
68
100
137
157
190
236
280
315
336
352
364
361
359
365
340
254
137
33
-53
-122
-162
-181
-203
-223
-232
-230
-224
-222
-232
-241
-228
-213
-222
-229
-209
-198
-201
-169
-157
-200
-217
-315
-408
210
1275
1066
-498
-1282
-691
-159
-142
-79
22
9
26
67
63
82
130
158
181
216
256
295
329
353
369
377
381
390
386
333
228
112
19
-49
-95
-121
-134
-143
-149
-153
-151
-149
-163
-185
-188
-171
-170
-184
-176
-162
-179
-175
-144
-167
-192
-241
-425
-163
973
1551
327
-1095
-1002
-310
-129
-100
28
36
14
63
86
96
130
154
180
225
261
293
330
354
363
369
371
368
357
310
216
95
-23
-111
-160
-187
-208
-222
-227
-221
-207
-198
-207
-230
-241
-228
-210
-212
-216
-197
-194
-212
-194
-180
-215
-236
-311
-295
405
1350
973
-541
-1203
-665
-218
-173
-93
-8
-5
17
43
58
100
136
153
187
226
254
287
318
327
330
340
342
331
311
255
160
64
-17
-78
-102
-103
-117
-133
-129
-126
-138
-145
-147
-154
-157
-156
-163
-173
-162
-150
-167
-166
-138
-163
-193
-231
-323
91
1220
1537
125
-1192
-963
-293
-149
-102
29
36
29
77
85
88
136
173
192
230
282
329
377
425
443
427
417
414
373
296
212
94
-41
-117
-139
-173
-209
-217
-216
-215
-194
-181
-208
-242
-246
-237
-239
-246
-248
-244
-235
-215
-194
-206
-210
-227
-332
-50
1000
1543
281
-1343
-1377
-527
-173
-128
2
37
12
62
92
83
117
175
214
252
292
329
375
430
462
463
457
444
407
327
208
83
-14
-89
-146
-176
-186
-189
-184
-173
-162
-152
-156
-182
-209
-211
-206
-213
-212
-198
-209
-216
-179
-172
-197
-218
-335
-175
820
1585
524
-1240
-1478
-607
-185
-158
-26
37
10
49
78
76
118
168
195
231
276
324
378
421
450
471
468
447
429
387
279
134
14
-68
-134
-181
-200
-204
-203
-183
-149
-138
-159
-185
-201
-212
-215
-208
-192
-172
-179
-200
-178
-159
-198
-233
-337
-336
457
1563
1146
-653
-1465
-773
-171
-132
-70
21
-4
7
70
105
125
144
171
217
259
291
341
400
436
446
431
403
389
369
289
165
47
-51
-112
-129
-142
-168
-173
-154
-145
-148
-157
-186
-208
-186
-164
-184
-193
-155
-135
-175
-205
-168
-159
-209
-224
-301
-292
431
1363
879
-712
-1321
-686
-193
-134
-48
17
-9
16
59
64
89
130
155
187
230
269
309
352
383
393
388
386
391
367
280
151
37
-40
-98
-142
-168
-181
-191
-201
-203
-194
-184
-188
-206
-218
-211
-201
-200
-199
-181
-175
-191
-173
-151
-184
-207
-296
-413
152
1325
1331
-279
-1336
-847
-218
-143
-79
36
23
36
90
94
106
145
176
218
268
301
334
381
425
446
444
437
433
397
301
171
55
-32
-92
-133
-166
-186
-186
-183
-191
-195
-179
-162
-178
-208
-207
-185
-188
-206
-196
-178
-184
-174
-151
-172
-180
-227
-369
6
1121
1407
-58
-1374
-1054
-287
-122
-84
54
60
43
97
119
126
166
196
220
269
319
359
404
444
461
459
451
434
394
310
187
60
-44
-117
-159
-182
-200
-210
-204
-194
-194
-192
-180
-181
-200
-212
-206
-201
-209
-215
-197
-186
-200
-183
-155
-185
-202
-273
-410
95
1304
1447
-145
-1330
-895
-219
-136
-94
27
16
11
56
60
77
128
160
186
228
271
317
361
394
419
427
412
394
365
281
144
15
-66
-117
-165
-200
-205
-202
-217
-235
-223
-198
-187
-192
-205
-214
-207
-197
-210
-228
-209
-178
-195
-211
-172
-170
-213
-233
-353
-261
671
1536
717
-897
-1203
-486
-140
-130
-28
9
-18
21
48
48
83
122
148
188
232
272
316
354
377
384
380
374
369
334
243
120
17
-47
-91
-132
-162
-177
-184
-187
-184
-182
-181
-170
-149
-142
-151
-154
-139
-127
-135
-134
-106
-100
-120
-98
-79
-115
-131
-237
-313
385
1512
1242
-423
-1223
-612
-85
-56
24
113
82
97
141
148
179
227
248
278
325
363
398
436
465
483
490
484
476
451
376
249
115
13
-50
-89
-120
-148
-164
-166
-168
-174
-178
-178
-180
-192
-208
-210
-195
-189
-207
-218
-199
-191
-202
-181
-162
-185
-212
-317
-323
367
1275
804
-791
-1404
-716
-189
-156
-72
18
-4
21
69
70
89
129
152
181
222
254
291
336
362
360
353
347
321
259
165
50
-65
-151
-204
-246
-274
-284
-286
-287
-284
-286
-292
-283
-265
-266
-291
-306
-294
-281
-289
-292
-273
-263
-263
-234
-218
-238
-243
-344
-403
232
1212
914
-632
-1366
-755
-194
-142
-71
36
33
49
96
113
142
180
208
254
308
350
394
440
475
494
490
474
462
430
354
249
150
78
37
14
0
4
26
47
58
67
82
101
110
