# session 12
-34
-48
-15
62
50
-63
-80
19
83
114
175
225
229
219
220
220
177
85
-3
-57
-89
-105
-108
-118
-121
-99
-95
-136
-172
-171
-187
-223
-218
-196
-204
-177
-139
-183
-195
-219
-359
113
1380
1536
-263
-1632
-1125
-315
-198
-141
-12
-47
-45
36
53
70
135
180
215
275
346
410
439
424
402
406
414
378
295
210
140
75
23
-14
-48
-70
-76
-81
-99
-125
-136
-122
-118
-133
-135
-131
-124
-98
-113
-145
-179
-410
-477
453
1563
985
-656
-1130
-492
-163
-183
-88
-40
-80
-48
-3
2
32
81
122
171
226
277
318
340
348
367
401
405
345
248
160
93
40
-4
-44
-81
-101
-104
-118
-153
-171
-156
-154
-173
-169
-161
-177
-172
-167
-205
-246
-405
-544
77
1151
892
-749
-1555
-921
-326
-254
-161
-51
-69
-54
0
20
53
110
160
212
267
314
356
377
371
369
385
385
333
248
169
103
48
9
-19
-44
-53
-44
-55
-100
-126
-107
-106
-147
-163
-146
-157
-158
-127
-147
-177
-225
-400
-168
893
1397
132
-1301
-1187
-452
-243
-208
-74
-54
-70
-18
13
30
79
123
163
216
267
306
327
316
291
287
297
274
211
137
81
45
12
-28
-56
-59
-52
-54
-77
-108
-111
-103
-123
-136
-114
-117
-126
-99
-116
-155
-185
-382
-333
648
1500
595
-987
-1194
-488
-200
-190
-80
-55
-86
-44
-9
3
45
84
115
168
224
269
308
325
325
339
371
364
289
192
111
43
-7
-36
-65
-90
-91
-86
-107
-140
-145
-128
-137
-154
-143
-137
-143
-116
-118
-152
-176
-369
-448
458
1670
1161
-678
-1372
-675
-202
-202
-109
-25
-57
-36
5
12
46
97
137
180
231
291
347
371
378
394
402
369
289
181
82
14
-37
-79
-107
-123
-124
-114
-124
-165
-193
-187
-189
-208
-205
-196
-203
-180
-163
-192
-192
-292
-451
108
1262
1166
-519
-1530
-966
-312
-225
-151
-39
-51
-31
22
25
50
110
150
196
264
324
368
398
401
392
389
376
320
223
118
38
-9
-39
-63
-78
-80
-77
-88
-120
-147
-144
-144
-164
-163
-156
-177
-170
-145
-172
-182
-253
-412
71
1279
1388
-281
-1496
-1012
-292
-195
-143
-23
-51
-60
2
14
28
82
119
155
230
306
345
360
364
358
366
367
303
200
133
82
11
-37
-50
-67
-84
-83
-92
-121
-133
-120
-121
-127
-94
-71
-99
-93
-74
-149
-199
-255
-524
-330
929
1668
410
-1133
-1062
-353
-203
-200
-65
-55
-90
-50
-22
1
46
86
134
195
251
298
327
338
350
363
365
344
266
143
55
20
-26
-81
-94
-91
-113
-140
-158
-183
-191
-175
-170
-172
-162
-169
-172
-143
-144
-157
-216
-481
-406
708
1614
594
-1116
-1317
-530
-197
-172
-44
-8
-38
9
48
60
95
127
159
214
267
312
357
377
367
361
364
338
254
140
55
12
-16
-56
-99
-109
-80
-65
-97
-139
-158
-163
-171
-169
-154
-160
-172
-145
-137
-150
-146
-289
-324
467
1360
609
-1147
-1595
-740
-197
-152
-47
28
3
38
82
82
114
160
196
258
328
369
403
436
434
404
386
364
294
187
93
34
-7
-45
-61
-52
-62
-89
-91
-100
-139
-149
-132
-139
-152
-162
-183
-164
-139
-174
-180
-262
-448
56
1313
1413
-318
-1562
-1044
-273
-164
-132
-22
-39
-40
6
-4
13
97
149
157
194
268
313
302
277
276
295
290
224
140
89
10
-127
-193
-109
-13
-24
-78
-98
-107
-133
-147
-136
-135
-138
-109
-101
-137
-118
-84
-123
-157
-307
-515
38
1214
1160
-397
-1268
-722
-185
-158
-100
-4
-16
0
37
39
64
110
143
180
232
277
300
312
330
355
375
372
331
255
162
73
6
-33
-60
-88
-117
-135
-136
-141
-160
-158
-127
-122
-144
-144
-143
-146
-113
-102
-131
-181
-426
-572
230
1364
949
-666
-1234
-566
-142
-154
-62
25
0
24
65
71
104
156
194
233
276
318
356
376
381
392
404
387
313
201
110
62
17
-42
-87
-114
-132
-131
-124
-145
-180
-189
-179
-183
-198
-199
-195
-178
-150
-164
-177
-188
-354
-314
527
1227
289
-1297
-1478
-626
-198
-160
-35
22
-7
44
93
83
106
161
207
257
313
359
395
414
408
396
389
356
267
156
77
27
-24
-64
-73
-75
-90
-91
-78
-105
-163
-172
-143
-152
-170
-158
-162
-165
-138
-153
-170
-204
-404
-235
862
1509
249
-1361
-1317
-466
-170
-144
-15
21
0
28
41
52
88
123
168
221
263
307
342
353
360
354
313
262
208
133
60
13
-28
-60
-62
-52
-70
-112
-126
-110
-111
-130
-131
-126
-118
-106
-119
-126
-107
-128
-151
-208
-448
-309
763
1447
380
-1016
-995
-341
-170
-154
-24
-18
-57
-9
20
21
65
111
135
190
263
295
304
326
341
344
356
337
253
158
84
15
-42
-74
-102
-130
-148
-148
-140
-156
-184
-165
-129
-140
-146
-131
-160
-163
-99
-105
-143
-211
-500
-422
708
1516
455
-1006
-966
-273
-130
-148
-21
-9
-35
23
54
61
106
159
209
254
286
328
370
373
367
386
390
336
241
144
65
7
-40
-86
-125
-139
-147
-166
-182
-195
-214
-217
-204
-210
-222
-213
-202
-180
-151
-176
-189
-197
-388
-359
500
1167
197
-1291
-1345
-503
-155
-147
-19
41
18
70
119
133
180
232
268
323
376
403
427
445
433
412
393
349
258
149
70
23
-28
-81
-101
-99
-105
-105
-98
-118
-148
-147
-132
-148
-164
-146
-134
-134
-115
-122
-131
-142
-357
-435
427
1425
742
-950
-1361
-565
-122
-127
-28
45
10
33
73
80
113
167
211
257
309
361
386
362
341
367
382
332
233
121
25
-36
-73
-101
-123
-144
-160
-155
-155
-178
-190
-176
-188
-215
-191
-156
-180
-184
-136
-146
-182
-277
-583
-443
775
1589
431
-1138
-1120
-369
-170
-172
-43
-26
-53
1
34
49
99
147
188
248
304
346
374
373
360
372
385
342
243
141
64
8
-36
-71
-96
-108
-118
-121
-118
-134
-163
-158
-135
-152
-173
-154
-149
-157
-125
-119
-146
-192
-421
-458
453
1434
740
-853
-1198
-497
-157
-155
-43
17
1
38
62
75
134
179
204
254
318
375
410
404
397
408
390
331
263
176
71
-5
-32
-53
-83
-95
-88
-88
-110
-141
-162
-161
-159
-178
-191
-186
-187
-172
-147
-167
-177
-220
-421
-248
718
1163
-76
-1455
-1269
-430
-164
-138
3
46
26
68
99
111
154
208
258
314
372
429
466
457
424
403
375
303
195
87
1
-60
-97
-119
-133
-141
-140
-134
-137
-161
-188
-189
-178
-187
-196
-184
-181
-175
-150
-161
-180
-231
-436
-298
742
1482
419
-1180
-1281
-471
-155
-162
-38
29
8
37
69
84
130
183
225
287
365
420
449
456
437
406
373
308
199
89
1
-61
-89
-101
-126
-146
-135
-115
-122
-155
-178
-166
-147
-156
-163
-142
-139
-143
-129
-150
-170
-243
-492
-276
923
1585
320
-1192
-1085
-330
-146
-137
-9
-3
-36
9
31
45
104
158
197
249
306
358
386
372
343
332
322
267
167
68
0
-45
-77
-98
-114
-123
-115
-102
-108
-138
-158
-144
-133
-149
-145
-129
-154
-159
-123
-142
-173
-262
-496
-183
1041
1508
77
-1319
-1045
-290
-145
-122
6
0
-21
35
66
90
141
176
213
282
350
391
409
417
417
405
377
312
198
80
6
-44
-86
-109
-123
-146
-153
-137
-143
-177
-194
-182
-183
-200
-195
-177
-168
-145
-136
-160
-161
-279
-484
-19
1074
1034
-570
-1555
-939
-211
-128
-86
40
39
44
96
105
122
182
235
280
339
398
440
451
433
415
400
353
263
153
56
-14
-60
-91
-114
-129
-140
-143
-133
-133
-164
-186
-174
-172
-191
-182
-160
-162
-148
-139
-166
-160
-274
-498
-29
1137
1187
-400
-1448
-909
-216
-128
-82
34
24
22
73
94
116
156
201
268
341
395
433
446
430
410
389
339
256
154
58
-3
-41
-85
-117
-118
-117
-127
-129
-139
-165
-161
-124
-125
-168
-171
-144
-149
-145
-122
-143
-180
-326
-561
-117
1101
1297
-240
-1361
-862
-169
-104
-77
26
0
-5
48
64
88
135
174
228
291
330
356
366
346
324
322
302
234
145
62
-5
-50
-78
-107
-131
-137
-131
-127
-129
-140
-146
-129
-118
-138
-149
-128
-126
-130
-103
-108
-144
-222
-482
-464
512
1367
461
-1107
-1224
-402
-89
-108
12
57
21
60
95
103
143
193
238
292
342
387
426
428
410
415
417
353
239
134
54
-13
-57
-86
-123
-154
-155
-142
-138
-150
-172
-175
-157
-165
-186
-173
-158
-164
-145
-126
-138
-143
-285
-481
-28
874
613
-890
-1554
-798
-131
-80
-21
100
91
97
149
162
181
227
265
310
376
434
466
469
449
431
416
372
278
167
83
23
-34
-77
-99
-113
-126
-131
-128
-123
-135
-161
-164
-149
-161
-176
-159
-153
-154
-120
-112
-130
-153
-387
-528
237
1205
617
-927
-1252
-461
-73
-120
-23
58
11
24
77
95
122
169
220
282
334
365
392
402
386
365
350
312
224
110
26
-20
-60
-102
-120
-118
-120
-122
-112
-109
-133
-150
-133
-122
-147
-153
-130
-132
-133
-108
-128
-170
-257
-503
-384
596
1163
33
-1333
-1173
-346
-89
-81
30
49
29
78
105
111
153
196
237
294
343
368
378
367
347
345
328
248
136
53
-3
-52
-82
-94
-109
-121
-117
-105
-95
-89
-100
-119
-116
-107
-124
-131
-105
-98
-106
-89
-93
-120
-199
-481
-504
451
1376
582
-981
-1194
-420
-88
-103
11
70
42
79
118
128
175
228
266
324
382
413
431
438
427
422
421
368
250
129
38
-33
-82
-109
-128
-143
-149
-153
-154
-155
-177
-203
-191
-167
-182
-205
-199
-192
-179
-144
-136
-145
-177
-368
-382
371
1086
316
-1152
-1372
-575
-147
-119
-5
75
64
99
136
144
185
238
277
325
386
441
473
470
445
427
400
327
210
91
-4
-67
-98
-114
-137
-150
-144
-141
-142
-137
-155
-194
-198
-172
-181
-202
-183
-166
-169
-133
-106
-151
-195
-308
-412
177
1270
1141
-467
-1407
-859
-237
-164
-102
6
0
13
56
56
75
139
206
272
334
384
432
462
442
391
353
330
269
146
18
-58
-89
-103
-109
-116
-125
-121
-105
-102
-118
-147
-167
-162
-157
-176
-176
-151
-156
-156
-134
-158
-199
-304
-454
12
1157
1301
-226
-1389
-971
-271
-148
-107
2
-7
-11
43
65
90
141
187
246
316
372
415
436
415
391
390
364
278
161
57
-20
-70
-102
-124
-131
-125
-120
-124
-128
-136
-158
-170
-151
-148
-181
-188
-163
-168
-161
-127
-154
-184
-250
-414
-14
1205
1527
-43
-1433
-1072
-277
-127
-94
42
42
30
84
100
115
174
227
270
319
377
439
474
467
448
426
374
281
165
56
-22
-80
-128
-154
-159
-162
-163
-156
-154
-169
-196
-207
-193
-191
-210
-211
-199
-199
-173
-151
-174
-176
-285
-513
-99
1037
1149
-397
-1486
-959
-230
-139
-96
44
43
38
97
114
128
188
243
289
353
417
455
465
441
397
362
319
222
101
12
-53
-114
-148
-150
-146
-145
-143
-138
-132
-136
-152
-155
-140
-142
-164
-163
-143
-146
-135
-99
-117
-145
-210
-434
-208
948
1545
243
-1267
-1128
-328
-123
-123
0
19
3
51
66
80
143
197
233
298
376
430
446
433
403
366
326
266
166
58
-21
-78
-119
-131
-130
-137
-141
-130
-121
-135
-161
-172
-158
-143
-149
-162
-155
-151
-152
-118
-102
-146
-180
-301
-378
257
1232
882
-689
-1372
-725
-174
-118
-46
32
8
27
74
86
116
168
215
274
339
388
423
432
411
393
381
332
235
125
31
-40
-92
-121
-128
-130
-139
-147
-140
-131
-143
-171
-180
-158
-153
-182
-188
-164
-163
-160
-142
-165
-174
-232
-443
-158
982
1402
-5
-1383
-1100
-308
-132
-111
23
40
28
80
103
120
173
225
276
346
416
464
477
467
451
424
373
290
177
68
-4
-56
-106
-132
-136
-148
-163
-162
-142
-125
-136
-164
-168
-163
-197
-224
-188
-152
-160
-156
-146
-141
-136
-297
-375
361
1298
692
-1010
-1533
-714
-154
-119
-15
88
63
78
123
133
163
212
258
324
405
461
491
497
472
424
376
314
216
103
10
-61
-115
-147
-156
-156
-149
-141
-140
-144
-150
-168
-195
-198
-188
-201
-213
-196
-182
-165
-135
-149
-167
-190
-395
-346
624
1440
473
-1184
-1383
-542
-132
-108
-7
47
44
86
107
118
172
222
265
340
419
477
512
510
475
436
385
299
195
87
-14
-86
-128
-150
-156
-152
-154
-158
-151
-142
-151
-183
-204
-188
-172
-186
-191
-173
-174
-174
-136
-128
-153
-195
-416
-479
400
1454
838
-869
-1363
-615
-165
-152
-49
21
-11
17
59
70
116
175
223
288
354
400
434
442
419
399
379
319
217
108
13
-57
-98
-123
-141
-147
-145
-144
-142
-135
-128
-133
-147
-153
-145
-141
-155
-158
-138
-137
-136
-97
-93
-123
-176
-390
-340
653
1546
670
-953
-1186
-429
-107
-117
-8
42
18
61
95
105
159
225
271
328
397
455
487
483
462
445
415
339
227
112
11
-70
-118
-137
-150
-160
-162
-163
-171
-174
-165
-164
-178
-184
-175
-186
-208
-193
-168
-174
-159
-128
-156
-171
-216
-407
-140
960
1376
-33
-1469
-1222
-385
-169
-151
-6
30
16
65
98
120
165
199
239
321
410
469
497
490
454
404
337
241
130
25
-65
-132
-175
-194
-193
-189
-192
-184
-165
-151
-145
-148
-171
-189
-178
-164
-169
-167
-148
-128
-111
-94
-78
