# session 2
-1
-1
32
-103
-332
-355
-234
-197
-201
-160
-126
-108
-71
-32
-6
27
69
105
136
180
235
287
336
380
411
425
408
328
195
65
-44
-142
-208
-233
-253
-269
-254
-231
-223
-211
-199
-202
-199
-179
-171
-172
-160
-153
-155
-146
-136
-141
-141
-129
-117
-106
-103
-108
-99
-80
-82
-83
-52
-27
-40
-58
-69
-83
-73
-62
-77
-62
-43
-83
-109
-184
-209
509
1665
1446
-242
-1143
-589
-47
-21
21
91
67
81
114
107
118
142
152
167
185
202
225
245
264
289
318
352
390
409
417
438
461
445
378
270
145
27
-71
-143
-178
-189
-199
-204
-198
-196
-197
-187
-177
-184
-191
-182
-170
-165
-170
-178
-178
-170
-166
-166
-169
-174
-161
-136
-140
-159
-141
-116
-125
-120
-91
-98
-124
-129
-134
-135
-126
-139
-135
-104
-127
-152
-197
-304
145
1338
1652
207
-1074
-805
-170
-78
-63
37
27
24
68
63
63
98
113
123
150
168
185
215
233
252
300
345
365
395
440
473
488
479
419
311
184
51
-68
-149
-196
-229
-249
-249
-238
-225
-219
-220
-221
-217
-213
-209
-206
-212
-213
-200
-189
-196
-204
-199
-189
-178
-171
-175
-173
-147
-129
-136
-130
-107
-109
-133
-147
-149
-137
-131
-144
-133
-116
-144
-169
-248
-245
502
1650
1400
-332
-1264
-691
-114
-77
-24
63
37
49
96
97
110
140
153
177
205
213
232
268
294
321
367
405
438
484
521
530
527
501
416
276
124
-3
-97
-170
-226
-246
-235
-231
-237
-231
-217
-212
-211
-202
-190
-187
-194
-194
-186
-182
-181
-179
-178
-178
-170
-161
-159
-154
-144
-142
-136
-110
-97
-118
-136
-140
-145
-138
-136
-149
-125
-110
-153
-181
-266
-251
553
1688
1325
-410
-1212
-599
-90
-84
-20
65
34
46
91
91
97
125
144
161
180
198
223
253
281
311
348
391
430
461
487
508
514
476
372
223
82
-30
-123
-191
-224
-241
-251
-248
-234
-225
-220
-214
-207
-202
-202
-206
-203
-194
-190
-191
-189
-186
-183
-174
-168
-173
-172
-149
-134
-145
-137
-108
-114
-139
-144
-149
-154
-140
-147
-152
-122
-135
-167
-200
-342
-73
1129
1887
697
-945
-1014
-282
-63
-71
32
38
18
73
86
75
111
135
133
151
181
201
220
247
283
324
357
379
408
446
474
484
475
421
302
154
26
-74
-157
-212
-231
-234
-236
-232
-217
-212
-216
-211
-199
-195
-193
-189
-188
-186
-178
-171
-170
-170
-169
-167
-167
-159
-135
-121
-129
-122
-99
-105
-128
-130
-132
-137
-126
-133
-139
-106
-115
-152
-168
-287
-77
1036
1837
756
-905
-1055
-311
-53
-69
31
48
18
62
85
80
101
113
120
151
178
190
203
226
259
291
319
356
398
423
435
447
438
387
289
156
24
-73
-138
-183
-212
-228
-231
-220
-212
-213
-203
-188
-191
-196
-182
-171
-177
-175
-163
-161
-169
-172
-170
-159
-142
-144
-157
-147
-120
-110
-109
-107
-111
-116
-125
-138
-130
-120
-132
-114
-93
-134
-144
-183
-235
380
1541
1474
-174
-1201
-703
-114
-71
-26
63
35
39
83
83
93
119
124
139
167
183
201
229
255
285
323
358
396
439
472
491
496
466
383
257
119
-3
-103
-183
-230
-237
-231
-233
-235
-231
-226
-217
-202
-196
-199
-195
-194
-205
-203
-176
-164
-178
-182
-176
-170
-159
-160
-171
-160
-145
-148
-143
-136
-140
-133
-129
-148
-149
-138
-144
-130
-115
-138
-165
-259
-191
668
1691
1142
-594
-1257
-593
-103
-68
17
74
33
62
110
108
123
146
154
178
211
224
245
287
320
341
378
428
472
504
527
545
546
486
353
201
83
-16
-121
-213
-255
-253
-249
-252
-248
-238
-232
-221
-205
-200
-206
-208
-200
-183
-168
-170
-182
-181
-179
-190
-186
-158
-152
-167
-155
-129
-125
-124
-118
-126
-132
-137
-151
-141
-121
-137
-135
-109
-129
-163
-248
-260
450
1593
1390
-312
-1262
-701
-109
-65
-17
66
40
54
106
107
102
123
152
179
187
198
236
268
286
324
379
421
451
476
495
510
513
469
358
208
71
-40
-130
-193
-231
-254
-260
-252
-248
-248
-234
-211
-205
-209
-202
-194
-197
-197
-187
-182
-183
-178
-177
-186
-187
-171
-156
-155
-159
-149
-131
-122
-115
-105
-112
-131
-135
-130
-130
-129
-134
-124
-98
-123
-146
-165
-306
-52
1123
1867
690
-949
-1031
-289
-49
-58
44
60
36
80
97
89
112
131
142
168
193
208
226
255
291
331
361
388
426
467
495
506
479
393
271
143
21
-78
-145
-194
-228
-235
-227
-224
-223
-220
-213
-200
-184
-172
-160
-151
-155
-166
-167
-157
-146
-143
-155
-165
-159
-149
-148
-152
-153
-146
-132
-109
-97
-110
-113
-84
-80
-109
-106
-93
-109
-120
-132
-135
-87
-74
-120
-144
-255
-137
873
1830
980
-769
-1134
-386
-41
-61
38
73
36
83
107
75
95
136
148
165
186
193
204
233
273
305
323
346
386
406
397
405
419
376
275
166
65
-31
-110
-164
-196
-211
-218
-224
-230
-214
-185
-170
-165
-153
-149
-156
-154
-143
-134
-134
-143
-148
-143
-137
-134
-133
-133
-132
-123
-115
-114
-116
-115
-111
-111
-112
-109
-102
-96
-84
-78
-86
-89
-77
-78
-88
-91
-101
-105
-98
-103
-92
-67
-104
-133
-135
-199
148
1214
1628
318
-1085
-964
-260
-73
-59
40
41
23
64
75
80
112
132
146
169
186
206
236
263
292
333
377
426
484
538
569
582
571
507
383
241
114
-1
-98
-160
-194
-215
-225
-228
-230
-227
-218
-213
-211
-205
-196
-190
-189
-189
-189
-191
-191
-186
-182
-183
-181
-177
-178
-177
-163
-149
-149
-158
-154
-133
-121
-123
-107
-84
-94
-115
-120
-128
-134
-127
-131
-124
-104
-125
-143
-171
-189
328
1348
1330
-263
-1418
-951
-197
-64
-34
82
82
76
120
124
132
168
178
182
214
246
266
289
321
360
404
452
504
549
576
589
590
547
443
302
163
40
-61
-136
-187
-222
-240
-239
-231
-227
-223
-214
-204
-200
-196
-190
-184
-182
-180
-178
-177
-178
-178
-175
-172
-172
-164
-150
-152
-161
-146
-125
-125
-113
-86
-95
-132
-145
-148
-157
-149
-143
-152
-135
-130
-160
-176
-221
-55
785
1527
704
-978
-1432
-684
-178
-110
-9
60
38
66
108
108
122
153
172
186
206
231
260
291
322
360
401
440
481
521
548
552
524
456
349
220
94
-14
-96
-150
-184
-209
-221
-214
-202
-197
-188
-172
-165
-170
-172
-164
-155
-150
-144
-136
-137
-146
-144
-137
-132
-120
-112
-124
-120
-88
-76
-81
-63
-56
-91
-118
-120
-132
-134
-117
-124
-128
-103
-119
-148
-151
-141
286
1246
1436
55
-1277
-1123
-399
-140
-79
25
36
27
68
86
91
117
134
144
165
186
207
233
258
284
319
359
393
418
438
457
464
436
365
260
144
35
-56
-126
-170
-194
-214
-228
-227
-218
-211
-205
-194
-185
-181
-178
-172
-160
-153
-158
-164
-163
-160
-159
-151
-146
-154
-150
-124
-115
-126
-112
-91
-110
-139
-142
-151
-159
-145
-155
-165
-128
-137
-183
-189
-239
33
1115
1824
653
-1098
-1295
-506
-162
-125
-1
26
3
66
108
106
130
152
159
186
219
238
260
300
342
384
439
503
557
604
645
668
645
540
366
192
54
-71
-167
-217
-247
-272
-273
-263
-267
-272
-264
-250
-237
-226
-225
-226
-218
-208
-200
-198
-204
-203
-184
-175
-188
-179
-149
-153
-168
-139
-116
-143
-165
-164
-172
-169
-157
-167
-152
-127
-163
-182
-223
-227
469
1653
1464
-378
-1486
-910
-220
-132
-63
50
29
36
87
93
107
137
145
158
187
214
241
275
311
356
409
465
522
577
618
645
638
564
420
246
85
-45
-141
-205
-243
-267
-276
-274
-269
-261
-250
-243
-238
-229
-220
-214
-207
-202
-202
-201
-194
-191
-189
-180
-168
-171
-173
-153
-139
-147
-136
-104
-109
-143
-154
-153
-158
-146
-145
-159
-132
-122
-164
-171
-233
-123
827
1874
1156
-753
-1386
-616
-114
-105
-9
65
29
59
100
90
109
144
149
159
189
215
239
270
308
354
407
464
521
566
600
626
617
539
397
232
79
-44
-136
-198
-236
-251
-250
-251
-253
-245
-232
-224
-214
-205
-205
-209
-205
-199
-196
-191
-184
-182
-187
-186
-176
-174
-172
-151
-138
-149
-138
-107
-115
-146
-151
-156
-172
-160
-151
-159
-131
-128
-180
-178
-215
-129
763
1822
1169
-749
-1440
-667
-124
-109
-27
45
9
43
90
78
86
117
131
152
177
190
214
254
289
319
362
415
461
499
537
563
548
475
353
209
68
-48
-129
-186
-226
-246
-249
-247
-242
-233
-222
-212
-205
-200
-194
-187
-183
-177
-169
-166
-167
-167
-164
-162
-157
-146
-143
-149
-143
-124
-117
-109
-86
-90
-123
-132
-128
-144
-141
-124
-133
-118
-94
-138
-155
-179
-194
484
1704
1564
-288
-1419
-837
-152
-89
-36
65
36
45
95
89
99
136
147
159
190
215
237
267
303
348
401
454
512
576
621
638
634
577
445
274
115
-19
-127
-199
-238
-260
-272
-274
-272
-266
-257
-248
-242
-239
-234
-225
-223
-226
-217
-203
-211
-227
-224
-213
-209
-201
-190
-192
-192
-177
-171
-175
-154
-125
-135
-155
-155
-161
-166
-155
-162
-158
-127
-148
-173
-187
-290
52
1264
1846
415
-1290
-1240
-387
-118
-94
44
67
45
99
118
111
141
165
176
203
234
257
289
329
366
409
470
539
596
645
690
702
649
521
343
157
1
-115
-198
-250
-272
-279
-284
-284
-274
-263
-258
-252
-241
-232
-223
-214
-205
-201
-197
-187
-183
-189
-183
-172
-194
-215
-196
-177
-167
-127
-104
-124
-114
-84
-105
-136
-134
-137
-140
-134
-140
-124
-102
-136
-161
-240
-313
361
1700
1773
11
-1252
-819
-164
-110
-79
32
28
57
125
116
104
128
139
145
155
177
230
270
283
321
379
430
492
549
575
606
611
507
352
242
135
-17
-152
-219
-243
-258
-268
-263
-257
-260
-232
-194
-220
-254
-201
-148
-176
-202
-180
-156
-159
-187
-200
-172
-154
-159
-144
-129
-137
-131
-119
-124
-123
-108
-104
-121
-149
-140
-94
-104
-152
-143
-120
-128
-124
-140
-161
-220
-326
138
1350
1669
178
-1160
-895
-249
-173
-138
-1
-43
-82
7
52
57
98
102
95
154
200
196
223
232
180
180
263
369
494
556
499
485
527
393
153
83
90
-30
-175
-220
-209
-201
-263
-331
-224
-91
-188
-319
-273
-233
-260
-193
-107
-151
-226
-227
-238
-305
-342
-346
-342
-219
-5
114
217
475
866
1373
1496
398
-1262
-1746
-1032
-427
-190
6
36
4
173
313
263
237
253
234
323
446
346
167
198
333
391
423
473
523
584
602
522
378
206
62
-6
-105
-278
-370
-385
-453
-492
-425
-374
-398
-406
-316
-215
-265
-346
-263
-184
-163
42
224
38
-261
-400
-423
-266
-13
76
81
117
78
54
119
92
12
40
97
194
332
175
-262
-436
-267
-170
-169
-74
-2
-59
-110
-118
-171
-208
-137
-58
-92
-138
-112
-131
-187
-164
-69
439
1524
1856
423
-1089
-1000
-348
-284
-266
-1
77
-5
-20
-14
7
42
23
19
76
88
72
140
208
189
216
312
315
278
346
451
527
571
500
379
325
178
-72
-114
-24
-118
-188
-58
-100
-323
-282
-110
-160
-211
-98
2
102
177
-2
-303
-386
-288
-228
-217
-146
-3
52
-103
-297
-310
-248
-310
-394
-337
-231
-175
-133
-134
-178
-90
202
681
1275
1296
87
-1375
-1551
-741
-211
-124
-49
67
181
250
189
135
195
179
62
46
99
100
127
191
224
282
349
323
265
307
443
537
468
288
146
53
-24
-34
-15
-83
-175
-167
-92
-27
-28
-93
-76
63
61
-167
-306
-180
-72
-244
-446
-324
-68
7
26
100
92
62
102
58
-69
-81
-11
-52
-190
-242
-183
-213
-376
-389
-99
431
1177
1605
762
-957
-1815
-1291
-520
-217
-148
-87
-28
38
130
204
167
101
204
348
330
358
533
519
282
172
226
285
379
487
538
586
613
545
429
270
76
-22
-105
-348
-517
-395
-257
-267
-238
-198
-230
-150
-75
-315
-535
-332
-113
-187
-194
-101
-190
-260
-186
-274
-407
-268
-106
-129
-89
28
-5
-119
-162
-180
-233
-313
-359
-335
-336
-176
647
1555
993
-827
-1808
-1300
-568
-283
-173
-119
-92
3
75
39
3
75
194
246
259
313
361
377
404
417
418
447
424
349
383
482
448
341
310
242
3
-225
-231
-183
-320
-473
-436
-394
-464
-448
-315
-238
-215
-131
30
157
119
14
20
-4
-158
-212
-116
-79
-106
-129
-164
-125
7
73
48
58
115
120
7
-118
132
976
1654
996
-643
-1546
-1132
-389
-10
123
189
241
271
249
234
273
323
351
355
363
441
557
617
662
739
727
650
711
802
679
558
685
748
474
141
10
-56
-163
-203
-167
-149
-150
-165
-213
-233
-190
-133
-87
-78
-153
-246
-244
-176
-128
-93
-53
-30
-10
35
38
-28
-37
8
-80
-199
-128
-106
-334
-551
-550
-6
1298
2009
709
-1129
-1396
-710
-370
-210
-73
-198
-318
-242
-234
-330
-339
-274
-221
-182
-142
-100
-71
-60
-43
-5
56
133
213
321
447
474
345
182
59
-123
-400
-597
-590
-554
-658
-732
-629
-561
-669
-793
-862
-913
-835
-602
-449
-497
-583
-585
-576
-578
-521
-472
-532
-622
-640
-564
-400
-243
-167
-120
-110
-147
-187
-106
644
2065
2393
613
-1160
-1014
-133
31
-54
223
455
251
24
263
663
722
592
589
668
713
712
672
630
622
653
752
904
1004
1010
982
955
881
737
593
522
492
441
