# session 6
129
129
114
93
133
38
45
1131
2569
1953
-283
-1170
-410
86
72
217
332
257
214
208
212
282
324
271
260
369
475
505
557
661
726
756
795
764
609
406
215
44
-80
-144
-195
-259
-285
-252
-232
-257
-271
-256
-238
-219
-214
-240
-273
-295
-291
-259
-279
-358
-422
-542
-410
629
1762
1122
-744
-1434
-774
-327
-326
-259
-222
-264
-220
-160
-137
-81
-26
-20
-35
-20
73
215
322
378
405
414
439
457
381
223
77
-19
-95
-199
-294
-284
-244
-298
-304
-171
-136
-244
-235
-137
-190
-303
-299
-280
-321
-329
-314
-335
-452
-614
-184
1075
1581
191
-1321
-1236
-551
-373
-288
-99
-95
-112
-4
47
21
26
38
58
148
270
358
439
536
600
632
683
718
665
539
388
225
74
-44
-145
-227
-253
-241
-234
-208
-156
-119
-86
-48
-61
-113
-146
-196
-251
-223
-181
-236
-282
-310
-411
-72
1080
1713
483
-1237
-1443
-672
-301
-253
-109
-4
18
36
17
2
46
90
106
152
251
314
311
379
514
541
531
659
759
633
399
197
36
-55
-87
-135
-185
-193
-198
-232
-254
-250
-247
-240
-222
-227
-259
-268
-267
-279
-248
-216
-261
-292
-370
-424
340
1764
1808
11
-1219
-825
-281
-238
-153
-36
-51
-11
61
39
21
95
202
261
271
309
412
522
591
629
644
631
584
475
296
100
-45
-115
-154
-211
-271
-295
-285
-267
-253
-261
-285
-280
-249
-266
-330
-343
-304
-299
-309
-336
-394
-389
-445
-511
253
1657
1544
-492
-1784
-1206
-466
-366
-271
-113
-106
-101
-80
-93
-58
14
68
143
216
248
300
401
488
531
558
583
573
491
354
195
31
-78
-83
-73
-140
-212
-188
-114
-85
-100
-83
-27
-25
-89
-122
-131
-169
-157
-106
-143
-198
-271
-394
131
1490
1843
227
-1188
-900
-291
-276
-184
53
15
-120
-130
-97
-61
-24
13
68
120
166
249
346
413
455
464
442
412
356
249
130
26
-96
-220
-264
-218
-179
-180
-166
-148
-176
-195
-180
-212
-269
-230
-163
-232
-333
-293
-259
-357
-435
-470
-254
704
1597
827
-888
-1384
-722
-328
-287
-136
-43
-81
-67
-33
-41
-17
60
124
155
204
295
395
478
549
616
684
732
728
658
509
288
94
19
17
-6
-56
-100
-128
-148
-165
-154
-118
-123
-162
-152
-131
-187
-247
-242
-262
-302
-269
-322
-349
375
1511
1242
-554
-1612
-1095
-432
-297
-195
-49
-61
-104
-40
48
41
-28
-33
54
165
240
277
345
441
451
414
469
532
450
284
139
14
-85
-155
-216
-247
-220
-173
-159
-182
-206
-193
-173
-194
-228
-209
-178
-202
-217
-188
-203
-236
-290
-405
-42
1101
1616
345
-1151
-1157
-487
-268
-217
-75
-29
6
72
45
25
95
126
132
220
316
349
370
397
441
519
575
581
552
431
227
68
-32
-133
-194
-186
-175
-188
-194
-184
-183
-208
-238
-233
-230
-274
-297
-254
-229
-236
-240
-269
-274
-325
-462
92
1608
2078
253
-1527
-1291
-434
-287
-262
-58
-52
-154
-107
-12
13
34
98
145
175
236
282
314
404
476
456
459
512
492
382
255
132
18
-62
-105
-150
-213
-233
-195
-184
-211
-206
-163
-147
-169
-157
-98
-101
-161
-173
-181
-225
-310
-455
-79
1249
2025
748
-1031
-1232
-511
-218
-212
-86
2
-51
-92
-55
-53
-128
-152
-80
8
92
187
261
283
272
290
341
362
335
287
207
101
26
-17
-72
-126
-135
-129
-139
-141
-139
-159
-167
-175
-224
-241
-207
-227
-245
-186
-190
-241
-280
-397
-1
1320
1853
259
-1430
-1287
-511
-326
-249
-65
-33
5
90
51
3
65
106
99
143
213
255
309
377
398
381
388
411
389
299
182
89
55
73
66
-21
-106
-89
-34
-44
-92
-107
-101
-109
-118
-126
-177
-215
-120
-6
-69
-236
-393
-289
567
1569
1056
-741
-1636
-1103
-512
-359
-238
-124
-90
-43
-8
8
55
84
88
136
202
248
325
412
435
436
463
456
410
377
303
164
69
24
-75
-160
-106
-23
-36
-81
-114
-163
-171
-140
-179
-260
-275
-255
-248
-221
-220
-254
-258
-380
-458
309
1547
1315
-475
-1465
-940
-395
-331
-205
-91
-144
-124
-5
55
62
70
107
167
210
266
367
429
443
491
519
467
448
473
405
252
128
48
-17
-53
-46
-37
-87
-170
-208
-224
-271
-278
-215
-186
-222
-258
-287
-296
-271
-273
-284
-256
-215
209
1221
1570
176
-1477
-1578
-799
-393
-261
-136
-139
-151
-78
-38
-19
26
54
121
262
364
397
437
479
496
496
463
417
397
352
245
133
32
-57
-81
-76
-119
-140
-69
-4
-44
-139
-185
-164
-155
-206
-255
-260
-253
-229
-198
-220
-256
-369
-561
-42
1458
2045
498
-1120
-1004
-333
-238
-214
-40
-34
-74
26
117
85
31
83
183
199
212
327
391
284
174
216
333
390
361
274
157
47
-25
-94
-175
-203
-192
-187
-123
-60
-177
-323
-252
-155
-235
-294
-243
-239
-243
-203
-209
-222
-336
-498
245
1842
1932
-171
-1654
-1148
-403
-294
-186
-67
-116
-79
13
-21
-63
-5
81
132
150
183
270
368
402
388
389
401
376
307
213
108
-6
-101
-140
-148
-163
-163
-146
-140
-131
-98
-71
-62
-67
-104
-141
-135
-110
-97
-115
-146
-179
-343
-351
578
1786
1320
-471
-1216
-683
-346
-339
-182
-92
-140
-128
-79
-20
57
82
94
151
202
252
323
349
339
366
395
374
352
327
217
49
-41
-45
-86
-166
-176
-141
-154
-177
-173
-193
-210
-170
-148
-199
-252
-262
-247
-221
-221
-218
-238
-388
-192
897
1710
702
-999
-1321
-628
-253
-178
-52
-16
-44
-7
29
42
89
134
147
164
214
290
365
413
452
504
537
504
428
351
249
118
30
1
-47
-115
-119
-79
-91
-130
-124
-106
-113
-114
-129
-188
-240
-264
-288
-283
-252
-251
-301
-378
-122
828
1490
485
-1237
-1637
-902
-400
-251
-106
-66
-80
-19
16
26
81
97
59
85
197
307
352
358
383
416
420
407
401
349
205
47
-38
-89
-154
-194
-185
-169
-168
-181
-198
-202
-196
-195
-199
-191
-150
-124
-161
-183
-173
-203
-225
-313
-365
371
1642
1531
-195
-1228
-760
-222
-151
-50
38
-22
-24
52
91
121
169
193
213
269
313
332
401
471
453
457
531
521
399
253
79
-78
-136
-125
-95
-86
-142
-195
-172
-153
-191
-212
-193
-191
-212
-208
-195
-228
-248
-195
-193
-241
-252
-383
-211
1036
2098
955
-1106
-1483
-691
-374
-320
-96
-40
-113
-71
-15
-23
-31
-9
39
77
96
149
225
270
273
245
250
344
423
362
213
83
-5
-50
-60
-79
-122
-160
-193
-218
-212
-185
-162
-133
-119
-143
-174
-176
-142
-121
-175
-248
-385
-559
-24
1358
1743
206
-1162
-929
-346
-273
-212
-99
-143
-147
-65
-52
-88
-85
-40
12
77
192
312
351
365
422
463
446
393
328
279
240
167
64
-32
-90
-85
-48
-45
-76
-99
-109
-131
-177
-209
-173
-131
-187
-260
-213
-142
-148
-186
-317
-203
822
1848
998
-959
-1527
-756
-323
-318
-160
-50
-83
-36
22
6
33
113
172
217
251
264
311
375
375
371
416
410
356
348
276
78
-23
6
-73
-203
-170
-78
-65
-46
-12
-63
-131
-122
-112
-160
-178
-119
-74
-125
-193
-172
-212
-290
264
1352
1292
-385
-1598
-1232
-588
-444
-290
-83
-87
-118
-69
-51
-26
30
49
84
193
291
319
336
376
410
424
412
375
335
275
160
35
-36
-76
-108
-106
-91
-99
-105
-81
-62
-78
-113
-142
-149
-148
-176
-182
-113
-118
-254
-344
-434
-389
481
1615
1109
-741
-1510
-861
-368
-321
-198
-110
-112
-48
-28
-62
3
92
102
125
204
285
372
445
450
444
482
485
439
416
345
169
38
11
-60
-160
-137
-49
-55
-115
-125
-114
-131
-155
-178
-212
-238
-245
-237
-189
-150
-177
-242
-364
-232
730
1726
985
-936
-1667
-981
-408
-249
-66
19
-22
21
72
48
55
88
87
126
241
339
364
378
430
462
447
449
478
438
303
156
34
-72
-135
-138
-149
-208
-225
-148
-121
-219
-278
-223
-203
-229
-183
-154
-234
-267
-215
-225
-241
-270
-339
196
1437
1678
152
-1143
-892
-291
-194
-171
-97
-123
-104
-40
-40
-14
61
83
80
119
171
217
275
304
299
334
404
407
332
249
149
2
-125
-171
-170
-157
-138
-124
-127
-146
-168
-171
-158
-161
-184
-193
-188
-203
-203
-168
-182
-204
-208
-310
-22
1164
1832
445
-1393
-1490
-641
-303
-228
-70
-54
-74
3
34
28
85
145
167
195
243
294
345
392
411
404
407
410
354
232
100
2
-54
-84
-108
-128
-131
-117
-106
-116
-145
-147
-118
-121
-151
-143
-139
-159
-136
-114
-151
-190
-323
-333
499
1609
1153
-618
-1376
-724
-195
-168
-100
-26
-45
11
106
145
164
173
178
217
260
286
340
406
420
401
389
374
330
239
120
21
-79
-187
-212
-161
-159
-199
-195
-168
-160
-165
-173
-169
-165
-185
-202
-200
-200
-193
-193
-209
-251
-384
-259
635
1418
587
-1065
-1459
-719
-278
-237
-113
-28
-52
-26
16
24
54
97
128
175
236
292
345
389
415
428
434
427
385
292
170
66
-3
-46
-71
-91
-102
-90
-74
-89
-119
-124
-117
-143
-195
-218
-216
-218
-189
-162
-204
-209
-240
-415
4
1374
1867
261
-1347
-1163
-417
-258
-209
-68
-69
-69
-3
11
30
89
118
142
201
257
299
341
376
394
396
409
428
373
235
124
73
17
-46
-90
-128
-151
-160
-194
-230
-215
-180
-171
-171
-185
-215
-227
-217
-196
-186
-221
-248
-352
-572
-134
1277
1860
445
-1022
-919
-356
-298
-273
-134
-131
-140
-76
-45
-35
-8
20
71
143
200
246
294
336
368
388
407
427
405
310
185
85
20
-30
-74
-98
-109
-126
-140
-149
-180
-210
-198
-184
-201
-199
-188
-209
-194
-152
-181
-201
-220
-310
131
1310
1589
17
-1434
-1189
-425
-230
-174
-31
-14
-24
24
40
47
86
120
143
182
239
296
335
357
365
357
339
319
283
207
102
8
-56
-120
-185
-188
-123
-70
-75
-114
-150
-168
-165
-168
-188
-195
-186
-191
-183
-161
-174
-177
-229
-393
-25
1184
1634
195
-1295
-1128
-369
-179
-157
-27
-6
-12
34
43
50
94
130
161
205
246
295
346
370
372
374
373
358
315
229
123
32
-28
-61
-80
-100
-110
-101
-101
-124
-142
-136
-132
-154
-178
-174
-175
-189
-176
-180
-203
-174
-308
-547
31
1342
1408
-234
-1305
-823
-240
-213
-157
-37
-65
-65
1
15
23
61
96
136
194
250
293
326
353
373
370
363
361
328
244
148
73
13
-38
-73
-90
-106
-124
-123
-120
-149
-185
-187
-177
-189
-200
-192
-197
-204
-178
-179
-211
-223
-322
-230
666
1547
731
-1055
-1543
-771
-274
-212
-100
-39
-60
-17
24
30
71
118
139
164
203
265
350
402
385
344
348
390
393
314
197
94
13
-46
-82
-107
-127
-136
-132
-130
-148
-182
-194
-172
-161
-174
-163
-143
-147
-132
-115
-139
-158
-283
-403
257
1468
1378
-249
-1203
-714
-192
-165
-103
-6
-27
-14
33
35
54
107
142
171
214
257
284
299
324
344
337
330
337
297
188
89
37
-14
-76
-120
-138
-145
-150
-154
-164
-190
-208
-195
-189
-215
-222
-194
-185
-189
-180
-188
-187
-221
-395
-227
754
1385
326
-1195
-1298
-531
-192
-157
-33
30
24
63
95
103
129
155
179
216
259
299
326
344
361
366
358
358
340
260
148
56
-6
-47
-72
-88
-102
-106
-97
-94
-119
-153
-155
-142
-157
-179
-175
-175
-182
-153
-147
-181
-177
-284
-403
238
1360
1126
-584
-1493
-884
-259
-184
-101
11
-6
7
58
67
91
143
179
215
263
305
343
376
384
372
371
382
364
293
188
86
10
-36
-66
-93
-114
-118
-114
-103
-101
-128
-156
-149
-144
-169
-170
-153
-165
-156
-126
-152
-164
-216
-402
-61
1091
1397
-140
-1519
-1158
-325
-145
-121
9
10
-10
43
59
63
112
155
180
221
274
321
352
365
362
356
364
365
320
229
132
57
4
-39
-73
-95
-110
-121
-120
-115
-134
-167
-170
-153
-164
-181
-167
-171
-196
-160
-130
-166
-196
-360
-505
196
1357
1053
-658
-1418
-735
-193
-188
-117
-26
-65
-52
3
11
31
76
109
147
203
254
285
303
317
321
321
337
349
301
199
109
39
-33
-92
-124
-147
-173
-187
-183
-180
-196
-210
-199
-196
-220
-222
-191
-183
-185
-167
-177
-186
-192
-320
-216
616
1211
225
-1291
-1405
-547
-130
-113
-3
78
69
101
138
143
171
218
254
289
325
360
405
445
448
427
418
422
395
310
206
128
69
23
-7
-27
-35
-32
-33
-38
-46
-77
-108
-104
-101
-124
-133
-121
-109
-92
-90
-102
-95
-183
-230
338
1159
757
-773
-1467
-828
-210
-113
-38
66
65
83
132
153
192
238
245
268
332
379
407
441
460
448
429
401
341
247
144
60
1
-46
-80
-99
-110
-109
-93
-83
-98
-129
-150
-152
-156
-177
-188
-184
-191
-186
-168
-191
-200
-219
-415
-329
601
1257
212
-1332
-1415
-586
-226
-207
-91
-52
-97
-56
2
10
31
67
72
81
170
299
344
316
310
323
313
288
231
125
18
-54
-115
-164
-182
-187
-206
-214
-192
-176
-198
-227
-226
-217
-237
-259
-249
-248
-267
-256
-265
-302
-269
-381
-623
-56
1255
1264
-450
-1473
-873
-247
-224
-154
-26
-56
-49
21
34
55
119
167
208
272
338
392
435
461
466
465
472
466
408
308
219
163
122
92
75
63
53
52
64
77
75
70
88
114
120
