# session 11
-55
-34
-68
-62
46
142
162
184
223
266
361
484
591
718
830
818
699
578
464
286
93
16
-4
-98
-200
-256
-327
-353
-318
-359
-425
-370
-298
-322
-318
-244
-215
-196
-107
-42
-60
-148
-342
-494
-484
-414
139
1423
1900
385
-1357
-1429
-618
-179
-45
51
96
153
202
163
102
106
165
208
220
334
591
774
772
774
870
894
769
581
369
137
-42
-129
-184
-241
-265
-245
-221
-234
-267
-256
-229
-244
-201
-66
-53
-209
-286
-237
-229
-259
-256
-252
-237
-305
-452
61
1430
1864
310
-1228
-1113
-472
-336
-285
-144
-113
-98
-59
-43
-6
32
81
199
292
313
387
534
614
568
484
447
418
315
155
-19
-188
-278
-254
-221
-244
-246
-205
-192
-223
-267
-311
-305
-237
-204
-250
-281
-266
-276
-288
-233
-207
-272
-364
-492
-224
1044
2148
1146
-951
-1520
-728
-333
-377
-197
6
-5
-38
4
43
49
73
143
227
308
417
553
632
624
621
629
515
288
109
8
-92
-173
-204
-229
-251
-227
-180
-156
-157
-165
-164
-148
-130
-123
-136
-156
-156
-155
-172
-181
-192
-202
-266
-516
-384
930
2187
1309
-689
-1290
-769
-634
-679
-429
-259
-243
-152
-56
-18
39
117
193
278
380
498
620
724
790
812
800
732
556
325
189
134
-2
-198
-291
-289
-283
-282
-304
-343
-325
-282
-305
-325
-262
-222
-263
-281
-259
-253
-238
-232
-251
-256
-392
-399
562
1854
1417
-472
-1320
-752
-320
-281
-108
16
-21
10
70
74
104
171
231
293
371
466
553
606
638
652
640
601
499
321
151
46
-32
-114
-173
-186
-194
-254
-305
-275
-273
-338
-336
-308
-360
-367
-281
-260
-303
-315
-329
-358
-353
-311
-307
-306
190
1274
1506
-60
-1658
-1547
-690
-360
-263
-107
-106
-124
-16
32
-2
44
146
212
274
373
483
587
685
742
733
689
598
429
230
55
-111
-230
-235
-210
-258
-278
-185
-120
-162
-180
-150
-158
-172
-170
-189
-176
-112
-91
-95
-77
-98
-144
-253
-381
202
1667
2118
380
-1407
-1300
-464
-243
-222
-43
15
-37
-2
107
197
220
192
170
211
316
428
513
574
612
617
562
420
236
96
13
-71
-177
-248
-243
-227
-255
-270
-239
-224
-237
-219
-181
-188
-236
-261
-254
-263
-272
-238
-227
-275
-360
-528
-340
845
1961
1096
-911
-1560
-863
-411
-341
-193
-136
-169
-108
-65
-77
-9
85
119
183
314
428
500
561
604
635
657
602
442
258
121
19
-87
-175
-187
-162
-194
-238
-187
-105
-114
-178
-205
-177
-135
-137
-162
-161
-191
-255
-263
-264
-316
-396
-445
26
1164
1512
80
-1408
-1315
-572
-313
-283
-203
-170
-117
-25
29
79
135
172
240
345
431
521
629
683
674
660
620
525
404
241
54
-35
-33
-60
-41
84
92
-62
-119
-109
-218
-275
-180
-179
-313
-374
-348
-338
-338
-306
-278
-315
-360
-421
-466
147
1486
1775
155
-1273
-1060
-475
-415
-347
-195
-206
-171
-56
-52
-44
75
167
202
283
412
554
703
792
796
795
798
708
521
321
154
30
-65
-145
-160
-115
-120
-178
-203
-225
-295
-349
-342
-316
-305
-318
-355
-389
-374
-345
-371
-394
-402
-341
345
1607
1718
-86
-1661
-1430
-639
-424
-346
-152
-77
-60
-16
2
42
120
160
201
312
426
508
626
751
794
759
672
522
339
168
13
-121
-192
-195
-213
-283
-332
-328
-324
-311
-256
-212
-234
-267
-278
-305
-339
-363
-392
-376
-325
-325
-359
-499
-581
294
1938
2136
310
-1048
-770
-318
-320
-201
-43
-66
-42
27
3
-12
52
116
158
215
319
465
586
581
470
416
453
426
304
190
75
-75
-184
-234
-253
-234
-205
-198
-177
-167
-219
-271
-265
-262
-285
-270
-241
-267
-276
-240
-238
-229
-311
-461
273
1986
2287
174
-1537
-1123
-306
-199
-184
-118
-125
-4
80
-30
-59
53
114
155
244
312
376
487
582
603
586
549
449
286
128
-3
-138
-223
-193
-151
-202
-237
-185
-175
-225
-193
-109
-111
-161
-167
-162
-159
-111
-76
-85
-82
-225
-401
245
1559
1557
-237
-1502
-1094
-413
-269
-202
-117
-147
-139
-81
-74
-82
-51
15
89
163
258
351
407
464
524
518
440
359
272
136
-12
-100
-146
-192
-217
-205
-168
-105
-64
-86
-102
-81
-88
-101
-87
-141
-240
-221
-155
-192
-251
-365
-461
184
1432
1408
-384
-1676
-1280
-568
-389
-278
-141
-143
-126
-55
-31
-11
49
113
163
208
298
431
532
592
636
623
558
487
367
174
31
-8
-58
-125
-90
-31
-104
-194
-149
-83
-98
-116
-97
-89
-109
-155
-218
-227
-164
-163
-248
-328
-464
-313
728
1727
953
-856
-1453
-826
-389
-302
-122
33
33
-20
-53
-13
88
153
161
175
238
326
399
474
568
635
649
620
521
351
193
95
28
-15
-43
-105
-168
-167
-156
-197
-240
-241
-218
-204
-233
-279
-286
-289
-315
-314
-287
-244
-266
-395
-28
1201
1800
477
-1143
-1203
-554
-392
-380
-211
-123
-90
-29
-9
10
58
90
147
240
293
325
422
546
594
571
546
512
413
262
124
12
-75
-118
-147
-179
-168
-160
-271
-413
-396
-277
-219
-220
-221
-221
-235
-265
-248
-189
-215
-251
-214
-180
334
1542
1785
20
-1659
-1483
-673
-437
-348
-171
-132
-131
-57
13
53
90
158
261
347
410
494
596
669
667
600
530
471
384
263
144
34
-85
-199
-251
-208
-129
-100
-134
-178
-189
-179
-193
-240
-263
-245
-252
-276
-237
-186
-196
-272
-503
-472
630
1939
1358
-640
-1479
-859
-417
-437
-287
-72
-46
-68
-46
-11
49
136
214
272
351
455
497
449
426
461
441
351
289
238
122
-27
-142
-211
-239
-238
-198
-119
-80
-129
-183
-179
-171
-195
-216
-225
-251
-263
-227
-219
-228
-170
-265
-303
710
2125
1562
-678
-1659
-931
-335
-236
-89
-48
-135
-116
-88
-115
-91
-17
94
217
273
292
351
437
527
608
620
533
388
221
57
-62
-113
-144
-191
-203
-151
-105
-116
-130
-106
-76
-73
-80
-77
-80
-100
-105
-113
-140
-120
-206
-379
224
1630
1765
-94
-1463
-1004
-334
-296
-207
-70
-167
-193
-89
-76
-74
4
46
38
81
175
260
326
378
397
396
381
313
195
92
3
-110
-211
-232
-203
-169
-117
-93
-153
-182
-109
-96
-195
-239
-175
-121
-132
-151
-150
-192
-391
-666
-391
902
1943
981
-952
-1452
-704
-308
-311
-205
-163
-210
-139
-12
58
74
69
92
141
194
295
426
501
535
582
594
519
397
283
193
118
39
-29
-52
-63
-96
-87
-16
-8
-106
-161
-99
-50
-96
-152
-170
-183
-214
-293
-353
-318
-358
-257
620
1509
757
-945
-1439
-782
-366
-284
-127
-53
-84
-24
94
175
222
236
234
258
320
396
450
471
500
553
564
504
426
347
259
168
66
-24
-66
-87
-98
-86
-96
-153
-217
-238
-233
-287
-301
-192
-236
-309
-79
-178
-505
47
-79
-2191
-2443
682
1901
-369
-1575
-736
-317
-341
-95
-45
-104
41
128
116
153
180
231
336
397
463
599
674
683
761
812
686
497
399
332
181
29
39
103
12
-102
-37
38
-54
-173
-187
-168
-205
-274
-306
-304
-296
-291
-322
-349
-330
-298
156
1279
1679
132
-1675
-1691
-762
-355
-263
-109
-79
-113
-77
-19
61
131
156
225
312
333
397
541
630
647
637
563
460
354
177
8
-12
3
-62
-105
-103
-172
-262
-253
-208
-218
-222
-174
-157
-199
-221
-219
-244
-268
-297
-357
-383
-512
-676
56
1689
2055
330
-1100
-839
-275
-244
-219
-104
-78
-48
-40
-42
54
121
104
169
263
233
206
309
431
465
430
378
308
189
58
-36
-110
-167
-174
-157
-162
-180
-189
-196
-212
-234
-240
-230
-234
-232
-220
-257
-268
-197
-204
-224
-169
-409
-389
1102
2539
1240
-1265
-1689
-654
-243
-217
-21
-16
-82
28
53
-5
67
153
152
182
259
346
459
561
594
568
502
414
306
167
45
-29
-105
-189
-226
-225
-214
-205
-227
-272
-280
-237
-201
-194
-184
-176
-168
-115
-100
-202
-294
-416
-455
373
1769
1664
-194
-1326
-856
-322
-286
-183
-43
-37
-7
59
84
75
38
35
113
180
190
225
286
300
294
319
318
238
126
39
-28
-88
-115
-99
-76
-60
-37
-36
-103
-177
-173
-144
-161
-166
-153
-204
-238
-180
-173
-198
-218
-390
-92
1346
2240
742
-1330
-1491
-613
-289
-270
-154
-124
-115
-46
-27
-39
-30
-20
3
60
141
230
308
361
393
410
409
358
242
111
9
-78
-150
-167
-127
-78
-54
-58
-57
-16
32
25
-12
-32
-79
-147
-128
-63
-107
-159
-122
-227
-137
916
1948
1059
-861
-1376
-659
-286
-277
-155
-121
-182
-154
-127
-125
-62
9
38
77
151
226
291
355
404
414
407
381
289
166
92
30
-69
-128
-122
-117
-94
-42
-61
-123
-92
-37
-98
-175
-149
-111
-108
-73
-69
-138
-215
-399
-391
636
1965
1442
-627
-1552
-863
-318
-350
-294
-151
-99
-50
-32
-68
-68
-36
-26
-10
65
162
214
249
313
359
369
384
358
238
109
49
19
0
-11
-51
-90
-79
-87
-147
-165
-133
-129
-149
-170
-198
-198
-170
-193
-234
-161
-85
-260
-286
522
1377
708
-889
-1424
-849
-429
-330
-181
-85
-83
-65
-58
-39
40
98
122
194
291
339
360
403
438
445
458
474
441
354
253
158
85
38
4
-10
5
12
-25
-72
-93
-128
-198
-236
-224
-237
-263
-199
-125
-188
-245
-260
-374
24
1310
1789
229
-1383
-1233
-496
-345
-282
-86
-77
-118
-43
-8
-39
-16
45
90
171
302
389
430
491
539
551
569
524
358
193
107
38
-39
-95
-100
-54
-51
-118
-115
-46
-66
-145
-175
-201
-258
-286
-266
-242
-260
-288
-329
-422
-105
1010
1649
371
-1479
-1734
-874
-385
-264
-116
-74
-93
-29
3
-13
37
111
132
164
260
359
416
466
513
520
498
488
443
307
143
34
-28
-69
-99
-130
-147
-138
-132
-146
-165
-170
-171
-203
-243
-233
-192
-164
-154
-184
-215
-276
-434
-103
1202
2009
767
-1020
-1222
-528
-305
-301
-139
-62
-60
-2
23
10
37
52
39
107
250
317
296
293
301
287
289
289
243
194
159
58
-105
-185
-143
-116
-150
-165
-174
-212
-221
-191
-186
-214
-234
-227
-221
-210
-161
-156
-192
-166
-224
-122
941
2116
1266
-950
-1752
-990
-435
-329
-177
-124
-135
-30
44
76
170
207
164
214
343
414
423
446
486
494
479
471
406
247
102
21
-58
-125
-132
-127
-145
-146
-138
-178
-224
-204
-170
-181
-180
-164
-187
-177
-118
-112
-122
-209
-419
31
1395
1747
13
-1546
-1228
-401
-222
-192
-74
-60
-49
-3
18
83
184
243
265
279
300
334
364
392
409
381
320
242
123
-8
-82
-120
-169
-208
-206
-171
-130
-118
-146
-169
-156
-165
-236
-274
-213
-146
-131
-159
-218
-184
-173
-374
45
1594
2229
422
-1514
-1408
-548
-302
-212
-55
-87
-122
-53
-34
-36
4
36
86
182
245
254
292
369
414
412
399
348
222
75
-17
-79
-143
-162
-143
-161
-192
-167
-129
-131
-122
-97
-105
-129
-136
-123
-77
-82
-192
-234
-277
-468
-29
1367
1847
284
-1218
-1010
-335
-257
-274
-149
-147
-202
-189
-161
-116
-26
53
82
110
182
263
321
370
398
403
423
416
300
178
172
155
7
-129
-117
-27
18
-31
-113
-110
-47
-60
-123
-137
-157
-201
-162
-100
-132
-166
-275
-415
235
1617
1700
-141
-1488
-1064
-384
-312
-247
-89
-92
-83
4
5
-35
4
79
119
155
222
288
331
368
390
370
339
317
244
114
27
-7
-52
-85
-70
-54
-66
-89
-95
-53
-30
-109
-185
-163
-156
-188
-150
-125
-188
-229
-340
-382
427
1675
1363
-558
-1624
-1083
-488
-411
-292
-128
-116
-120
-79
-41
0
33
69
156
269
350
394
416
429
436
431
407
349
255
150
59
-23
-87
-107
-78
-34
-24
-44
-51
-41
-61
-136
-201
-188
-165
-197
-192
-160
-233
-333
-418
-403
290
1397
1212
-431
-1380
-898
-362
-288
-180
-52
-69
-87
-59
-32
1
33
76
144
207
258
311
368
422
438
419
411
380
269
152
86
27
-20
-43
-86
-114
-83
-77
-136
-160
-128
-127
-162
-175
-183
-214
-219
-218
-256
-252
-284
-401
98
1368
1636
10
-1424
-1177
-482
-325
-244
-84
-84
-116
-59
-5
14
28
58
123
203
280
361
421
451
484
523
507
422
314
205
88
-12
-65
-92
-122
-139
-123
-114
-155
-204
-205
-199
-234
-259
-244
-237
-229
-204
-206
-219
-271
-308
221
1301
1403
-127
-1422
-1184
-509
-304
-199
-59
-67
-82
-11
39
61
99
145
194
247
308
376
425
431
421
426
425
372
273
174
89
7
-49
-64
-61
-63
-66
-69
-80
-87
-74
-76
-119
-157
-174
-200
-193
-163
-191
-201
-239
-423
-65
1268
1889
467
-1142
-1088
-405
-257
-229
-83
-74
-111
-69
-21
16
46
65
110
172
226
285
340
365
371
374
371
347
285
200
124
54
-7
-22
4
17
4
-1
-2
-29
-68
-83
-91
-107
-114
-128
-154
-145
-145
-188
-183
-174
-47
675
1439
771
-893
-1502
-855
-333
-241
-152
-105
-148
-142
-115
-113
-87
-47
-18
27
93
150
203
257
288
296
312
314
257
162
78
3
-61
-98
-127
-160
-174
-179
-206
-241
-243
-235
-244
-248
-255
-284
-277
-256
-295
-290
-332
-590
-294
1061
1713
280
-1303
-1168
-446
-323
-315
-159
-136
-158
-103
-67
-57
-55
-44
39
159
232
284
343
375
381
391
398
388
340
255
173
124
95
77
76
85
103
110
84
59
78
112
115
111
131
149
157
195
245
231
150
62
