# session 1
14
13
46
-74
-286
-311
-201
-162
-161
-120
-88
-75
-44
-1
34
61
98
148
187
224
295
374
418
452
508
564
592
566
457
287
114
-29
-134
-201
-250
-292
-311
-307
-295
-282
-263
-243
-233
-233
-224
-203
-193
-198
-195
-180
-170
-170
-174
-176
-173
-163
-155
-156
-157
-153
-149
-142
-126
-110
-110
-110
-87
-67
-74
-92
-104
-103
-92
-101
-107
-79
-88
-135
-163
-228
58
1183
1994
938
-804
-1105
-417
-121
-98
33
73
44
84
113
120
147
157
157
178
198
212
231
252
287
335
379
429
496
547
581
629
663
624
514
366
202
53
-66
-160
-226
-255
-267
-275
-272
-259
-248
-239
-227
-218
-206
-191
-190
-194
-181
-170
-177
-180
-169
-166
-178
-188
-185
-175
-169
-177
-192
-191
-170
-166
-183
-168
-127
-125
-152
-166
-168
-161
-153
-156
-144
-142
-179
-215
-346
-363
515
1866
1715
-42
-1061
-614
-147
-145
-80
15
-7
2
34
26
40
73
85
99
117
129
159
201
220
237
289
350
396
450
517
567
594
595
544
432
275
99
-68
-198
-266
-272
-257
-253
-249
-240
-236
-240
-236
-228
-225
-217
-201
-192
-191
-188
-187
-185
-178
-181
-191
-180
-162
-162
-163
-158
-158
-155
-147
-157
-173
-156
-125
-115
-114
-101
-97
-103
-102
-111
-128
-120
-102
-93
-76
-89
-131
-188
-277
75
1244
1903
706
-889
-977
-305
-109
-98
26
29
-1
75
125
109
102
115
134
153
175
199
208
222
269
309
320
355
424
477
498
516
550
556
466
314
185
79
-40
-133
-173
-195
-219
-240
-236
-203
-180
-189
-192
-171
-162
-175
-171
-146
-130
-137
-158
-176
-178
-172
-178
-182
-162
-145
-156
-165
-148
-138
-153
-162
-146
-132
-131
-109
-77
-90
-132
-141
-125
-113
-119
-133
-113
-108
-156
-177
-233
-183
599
1661
1311
-298
-1045
-527
-114
-117
-50
17
-13
7
36
20
35
64
68
81
106
124
147
171
188
219
260
294
340
400
443
476
524
549
497
380
240
104
-8
-85
-141
-182
-203
-215
-223
-220
-204
-185
-183
-191
-187
-185
-198
-196
-178
-178
-183
-166
-154
-168
-183
-182
-173
-164
-160
-166
-164
-152
-154
-159
-129
-98
-108
-111
-84
-82
-95
-96
-109
-125
-118
-100
-75
-83
-129
-154
-248
-222
628
1828
1525
-207
-1086
-580
-145
-139
-23
84
30
26
77
87
98
109
100
100
114
139
182
213
224
253
302
340
373
421
475
527
564
554
486
381
244
90
-40
-128
-186
-226
-254
-266
-252
-224
-228
-259
-259
-219
-198
-216
-226
-201
-168
-162
-179
-194
-184
-156
-145
-168
-186
-169
-151
-157
-164
-161
-150
-134
-126
-118
-102
-104
-124
-121
-111
-123
-128
-126
-121
-109
-154
-243
-309
-287
301
1515
1824
352
-1048
-888
-260
-134
-88
34
21
8
60
60
53
82
102
116
135
141
153
191
241
277
292
312
354
399
434
470
504
520
500
422
288
140
22
-69
-152
-209
-229
-237
-239
-224
-209
-213
-210
-186
-177
-196
-205
-186
-169
-169
-178
-186
-184
-168
-145
-142
-159
-164
-158
-156
-146
-133
-146
-154
-134
-121
-107
-67
-65
-119
-153
-148
-129
-96
-98
-133
-123
-115
-154
-183
-259
-91
887
1812
1075
-567
-1026
-417
-83
-81
3
54
29
24
15
34
105
139
117
108
120
131
167
221
247
257
289
333
370
411
447
474
501
500
439
333
208
74
-42
-119
-175
-207
-204
-203
-229
-237
-204
-176
-166
-144
-129
-162
-207
-205
-159
-125
-137
-155
-139
-125
-147
-165
-150
-132
-133
-130
-113
-102
-104
-107
-103
-85
-66
-72
-89
-99
-109
-103
-88
-94
-84
-65
-106
-150
-186
-181
329
1260
1237
-135
-1124
-811
-271
-148
-61
57
35
-11
10
53
91
99
94
115
139
141
155
191
208
222
253
263
274
336
400
421
432
430
384
312
228
137
52
-21
-90
-155
-196
-185
-161
-177
-194
-170
-156
-167
-153
-128
-143
-175
-172
-153
-157
-165
-162
-160
-163
-157
-138
-118
-131
-157
-133
-84
-88
-103
-56
-22
-80
-140
-127
-104
-106
-103
-108
-103
-54
-31
-75
-161
-115
487
1351
1128
-309
-1200
-820
-276
-146
-71
17
15
17
44
56
79
105
112
124
143
159
188
230
255
265
292
337
383
425
460
488
521
546
517
405
254
117
6
-82
-143
-186
-210
-209
-202
-209
-208
-192
-183
-186
-188
-187
-180
-171
-172
-184
-185
-164
-152
-174
-199
-191
-178
-182
-179
-170
-175
-168
-138
-126
-140
-151
-157
-154
-152
-175
-178
-133
-130
-170
-229
-315
84
1258
1804
546
-960
-976
-318
-129
-119
0
32
21
52
56
54
83
105
119
145
169
191
217
242
260
288
341
401
434
458
501
544
551
508
410
265
111
-21
-111
-172
-227
-261
-254
-238
-238
-236
-231
-229
-222
-212
-208
-206
-210
-218
-205
-174
-168
-187
-182
-157
-158
-172
-155
-139
-153
-156
-138
-138
-148
-158
-181
-180
-153
-152
-152
-139
-152
-186
-292
-259
570
1756
1497
-236
-1196
-694
-159
-114
-51
36
16
32
81
85
93
112
111
114
149
198
216
206
221
260
297
350
413
456
488
522
541
544
492
337
145
20
-61
-155
-227
-246
-249
-256
-255
-245
-233
-226
-229
-240
-246
-233
-209
-197
-204
-212
-216
-215
-206
-194
-191
-183
-161
-148
-156
-158
-151
-155
-159
-157
-158
-147
-137
-142
-126
-116
-153
-184
-290
-304
507
1769
1574
-200
-1223
-725
-164
-103
-38
33
-5
18
83
87
76
97
142
182
189
194
233
275
293
312
354
402
437
472
508
531
546
548
489
355
194
51
-66
-169
-246
-267
-249
-237
-238
-238
-232
-216
-208
-221
-228
-223
-219
-199
-172
-171
-162
-143
-175
-211
-167
-136
-192
-216
-151
-112
-138
-153
-150
-158
-155
-159
-177
-143
-116
-162
-192
-257
-181
624
1558
981
-664
-1241
-607
-165
-117
-22
21
-10
39
82
61
67
101
117
124
135
161
198
220
233
268
320
365
397
416
434
459
471
438
362
259
142
25
-80
-165
-211
-216
-211
-212
-208
-196
-183
-179
-191
-195
-171
-146
-150
-162
-162
-153
-142
-138
-140
-135
-123
-114
-109
-96
-77
-77
-86
-83
-91
-113
-105
-92
-106
-85
-55
-92
-134
-201
-171
530
1545
1249
-345
-1163
-656
-171
-127
-47
33
7
19
49
47
72
105
113
127
147
151
160
195
229
246
270
314
343
352
363
367
364
366
333
233
116
24
-70
-162
-205
-207
-214
-222
-207
-199
-214
-213
-195
-189
-188
-179
-169
-152
-140
-153
-158
-134
-128
-158
-161
-124
-106
-108
-97
-93
-101
-94
-104
-143
-146
-132
-151
-130
-95
-139
-158
-175
-217
323
1394
1367
-156
-1162
-744
-181
-111
-75
-9
-33
-10
54
51
27
46
91
129
140
146
194
245
244
248
314
383
410
440
493
543
566
539
478
385
225
50
-56
-144
-240
-271
-265
-287
-272
-210
-207
-244
-229
-200
-209
-216
-209
-219
-222
-203
-199
-213
-216
-199
-180
-187
-213
-215
-194
-168
-135
-158
-221
-183
-90
-82
-60
-21
-127
-251
-336
-363
359
1664
1554
-307
-1380
-736
-100
-114
-57
72
34
35
101
119
136
150
149
199
244
215
205
260
309
350
406
451
487
535
562
561
568
561
478
328
174
39
-95
-207
-259
-266
-273
-270
-253
-257
-259
-218
-204
-258
-294
-263
-223
-226
-251
-254
-235
-226
-218
-198
-194
-213
-209
-179
-167
-174
-173
-180
-181
-154
-150
-170
-144
-140
-187
-190
-306
-377
465
1778
1485
-372
-1260
-604
-75
-101
-33
75
50
65
102
81
87
131
163
188
192
185
223
281
293
301
356
403
416
450
505
533
538
523
444
291
113
-32
-118
-163
-214
-274
-286
-241
-209
-229
-255
-253
-233
-226
-242
-255
-249
-252
-255
-222
-195
-227
-258
-225
-189
-206
-215
-181
-170
-182
-169
-164
-182
-184
-181
-167
-142
-166
-187
-243
-416
-17
1353
1970
492
-1145
-1034
-266
-84
-71
52
61
50
97
95
81
109
138
154
167
184
217
253
283
313
335
363
418
465
487
513
526
505
464
370
197
20
-94
-166
-219
-244
-258
-269
-258
-234
-231
-243
-239
-218
-202
-191
-179
-180
-189
-175
-154
-161
-172
-155
-137
-137
-137
-138
-135
-121
-137
-184
-193
-175
-188
-174
-135
-169
-168
-175
-392
-110
1278
2058
649
-1081
-1044
-289
-143
-140
37
42
-38
14
72
65
83
135
166
161
162
198
236
259
297
348
370
382
420
478
530
547
512
446
352
201
31
-80
-147
-223
-281
-285
-273
-272
-268
-260
-256
-249
-240
-242
-247
-237
-214
-204
-209
-214
-215
-211
-196
-181
-183
-196
-198
-184
-178
-188
-180
-167
-182
-178
-155
-187
-207
-245
-392
-8
1288
1882
480
-1121
-1061
-324
-122
-103
12
23
18
76
97
95
112
129
155
179
186
207
249
283
303
332
378
431
478
510
527
543
537
466
333
178
17
-123
-183
-195
-240
-290
-283
-256
-245
-232
-222
-226
-219
-203
-194
-190
-186
-180
-177
-182
-183
-168
-158
-163
-172
-176
-161
-136
-145
-170
-162
-159
-180
-150
-125
-180
-192
-261
-411
199
1628
1847
109
-1221
-828
-178
-117
-66
57
29
17
66
71
77
109
124
140
159
170
203
253
272
281
328
381
402
425
469
500
515
507
419
247
87
-9
-90
-189
-253
-251
-242
-261
-265
-241
-226
-233
-235
-234
-234
-218
-198
-207
-223
-212
-206
-212
-199
-181
-188
-194
-188
-191
-187
-168
-159
-178
-207
-186
-139
-170
-210
-233
-376
-97
1177
2015
772
-1036
-1185
-393
-120
-122
-4
12
-14
55
94
82
96
126
150
170
185
212
244
266
301
362
414
447
485
529
566
586
563
469
320
158
9
-109
-183
-231
-272
-294
-283
-270
-276
-276
-254
-235
-235
-230
-211
-193
-195
-207
-199
-189
-200
-201
-180
-181
-200
-196
-173
-165
-178
-184
-163
-166
-192
-158
-132
-189
-195
-270
-430
226
1692
1848
62
-1208
-768
-156
-131
-78
50
22
20
80
87
85
108
125
145
170
190
214
238
265
309
355
396
446
492
522
555
573
531
420
259
75
-78
-165
-217
-266
-290
-271
-252
-269
-284
-262
-234
-240
-255
-235
-204
-204
-215
-203
-189
-200
-212
-197
-183
-192
-186
-164
-171
-186
-187
-197
-184
-159
-174
-172
-153
-183
-190
-276
-371
377
1778
1710
-184
-1338
-787
-160
-86
-2
46
-16
61
134
56
43
129
151
125
142
191
238
270
287
309
359
426
476
506
553
613
610
512
378
231
56
-87
-152
-184
-224
-269
-306
-295
-238
-224
-261
-259
-215
-206
-223
-208
-179
-188
-214
-215
-206
-198
-192
-197
-196
-177
-178
-195
-175
-148
-155
-161
-162
-174
-155
-136
-163
-146
-113
-158
-162
-214
-368
266
1774
1964
66
-1301
-790
-115
-133
-83
99
68
23
82
107
109
130
136
152
196
212
192
211
271
304
331
399
451
451
456
500
536
504
389
250
127
0
-117
-184
-219
-242
-242
-237
-240
-232
-229
-242
-237
-207
-187
-188
-194
-185
-168
-176
-196
-185
-161
-161
-171
-176
-178
-169
-156
-156
-156
-153
-146
-116
-89
-110
-140
-136
-116
-92
-97
-145
-131
-76
-114
-143
-173
-295
201
1515
1779
109
-1252
-879
-183
-100
-59
68
46
33
88
91
84
113
130
140
158
177
204
234
248
262
294
325
353
399
439
442
442
444
392
285
170
62
-33
-109
-171
-206
-217
-229
-231
-210
-199
-202
-194
-184
-183
-176
-163
-159
-160
-162
-160
-156
-158
-159
-153
-151
-154
-144
-134
-139
-145
-137
-122
-108
-100
-110
-136
-147
-133
-127
-129
-112
-87
-84
-94
-90
-98
-135
-115
-42
-67
-134
-182
-339
2
1394
2165
724
-1047
-1008
-239
-85
-79
64
46
12
88
104
87
128
159
158
168
188
218
248
255
283
358
416
440
483
539
564
583
611
570
417
234
91
-36
-156
-233
-265
-286
-303
-291
-268
-281
-305
-283
-251
-256
-257
-229
-216
-223
-224
-231
-229
-185
-158
-223
-292
-259
-195
-193
-205
-186
-170
-174
-181
-174
-153
-152
-178
-181
-150
-148
-189
-184
-134
-156
-194
-232
-420
-162
1204
2162
905
-996
-1159
-338
-76
-93
30
42
3
63
90
83
116
147
175
207
205
204
250
297
325
369
433
506
570
599
632
694
690
545
348
190
48
-95
-182
-201
-218
-256
-284
-297
-303
-287
-264
-254
-244
-232
-225
-213
-210
-225
-215
-187
-190
-202
-186
-181
-191
-181
-175
-183
-164
-149
-166
-158
-127
-135
-136
-93
-88
-127
-132
-117
-115
-110
-115
-115
-102
-125
-141
-224
-444
-12
1496
2220
741
-940
-881
-192
-68
-63
54
48
39
91
92
88
125
150
165
178
187
216
251
266
291
342
398
445
483
517
551
573
554
468
317
150
16
-90
-183
-250
-289
-316
-324
-318
-311
-304
-296
-290
-278
-257
-244
-244
-239
-227
-224
-225
-217
-209
-210
-210
-198
-193
-199
-187
-169
-188
-210
-184
-161
-171
-150
-109
-119
-140
-138
-153
-161
-145
-162
-157
-101
-115
-164
-229
-391
-3
1361
2056
718
-868
-855
-221
-105
-104
24
38
22
69
81
78
109
130
133
148
173
205
237
254
275
316
358
393
434
471
491
504
504
461
366
240
105
-15
-98
-146
-175
-195
-206
-207
-194
-175
-168
-164
-147
-134
-136
-129
-112
-108
-114
-117
-114
-112
-110
-112
-111
-106
-108
-103
-87
-88
-102
-90
-77
-88
-73
-31
-34
-72
-93
-102
-97
-80
-98
-111
-90
-122
-161
-205
-379
-70
1266
2061
778
-900
-954
-288
-143
-144
-23
-31
-68
-23
-8
-13
6
17
20
