# session 9
5
13
-7
-19
-2
-30
-126
-185
-178
-156
-103
-79
-146
-172
-193
-188
516
1750
1599
-326
-1615
-1155
-443
-291
-195
-57
-32
-21
-10
-3
48
95
127
196
260
303
379
456
486
506
524
511
462
356
200
58
-45
-122
-158
-166
-166
-127
-71
-87
-162
-191
-171
-180
-191
-156
-162
-211
-197
-186
-230
-242
-338
-301
594
1661
1047
-736
-1346
-693
-305
-301
-164
-75
-99
-50
-14
-32
15
103
149
162
179
215
251
286
345
402
421
413
363
261
153
58
-35
-111
-163
-182
-171
-171
-194
-197
-194
-206
-214
-227
-250
-233
-209
-219
-203
-201
-248
-217
-206
-112
766
1850
1190
-846
-1677
-967
-408
-319
-150
-55
-111
-58
32
21
26
89
112
118
174
231
249
255
245
221
250
316
312
227
132
47
-25
-54
-49
-50
-63
-79
-89
-85
-80
-87
-95
-98
-97
-114
-175
-192
-128
-130
-179
-212
-405
-236
1076
2157
1060
-839
-1112
-398
-222
-281
-110
-21
-48
-22
4
16
51
78
112
180
236
263
293
314
309
322
351
326
236
130
35
-41
-99
-138
-142
-116
-102
-123
-151
-152
-140
-152
-193
-221
-210
-198
-201
-212
-249
-253
-285
-483
-185
1185
1981
509
-1437
-1525
-675
-385
-306
-107
-86
-122
-47
-6
-1
47
91
122
172
221
266
323
373
400
409
404
366
276
162
75
16
-42
-75
-64
-41
-27
-18
-20
-27
-20
-24
-79
-129
-106
-81
-104
-96
-89
-128
-155
-336
-438
504
1930
1563
-440
-1366
-730
-247
-273
-210
-129
-117
-35
22
-8
-39
-56
-37
46
134
195
266
336
369
376
374
346
284
200
106
14
-55
-96
-115
-122
-122
-121
-128
-152
-176
-178
-184
-225
-245
-226
-223
-199
-145
-173
-218
-197
-176
249
1206
1305
-192
-1479
-1226
-528
-316
-227
-110
-116
-114
-58
-35
-6
53
89
117
163
209
253
301
337
358
380
399
382
314
219
136
71
21
-5
-14
-22
-22
-21
-57
-105
-101
-81
-108
-135
-126
-125
-124
-128
-165
-157
-228
-458
-29
1369
1857
326
-1134
-925
-303
-253
-238
-102
-109
-126
-64
-31
-12
25
55
88
129
175
231
274
285
284
291
294
273
212
122
35
-27
-63
-86
-106
-115
-107
-98
-112
-137
-141
-131
-149
-173
-170
-172
-170
-137
-142
-170
-197
-344
-198
821
1590
515
-1237
-1483
-668
-272
-228
-91
-32
-55
-11
26
31
70
125
167
200
239
296
348
365
367
371
368
352
309
226
127
50
-2
-28
-38
-51
-57
-46
-54
-99
-138
-152
-165
-171
-156
-159
-188
-179
-172
-202
-185
-272
-434
212
1575
1582
-239
-1428
-931
-295
-218
-145
-52
-74
-35
25
16
37
86
111
155
221
267
295
314
318
319
324
324
299
229
132
49
-11
-60
-94
-113
-125
-122
-113
-126
-154
-161
-153
-158
-160
-156
-173
-165
-122
-155
-214
-272
-492
-328
921
1917
916
-786
-1051
-445
-256
-263
-154
-145
-163
-99
-73
-79
-43
-1
31
72
108
143
180
194
190
196
219
244
241
192
116
51
12
-16
-45
-69
-79
-84
-105
-133
-138
-121
-124
-149
-151
-141
-149
-136
-124
-160
-176
-241
-276
380
1469
1235
-483
-1451
-901
-291
-211
-141
-41
-46
-20
37
56
82
123
151
189
245
304
350
372
373
373
378
379
350
278
188
104
34
-13
-41
-58
-55
-44
-69
-128
-160
-153
-158
-182
-189
-190
-195
-176
-175
-204
-183
-267
-417
145
1287
1186
-482
-1486
-922
-259
-172
-96
35
21
-6
13
29
68
112
130
167
221
258
297
333
327
300
300
310
283
217
130
50
2
-16
-40
-73
-76
-48
-52
-106
-136
-114
-105
-130
-139
-138
-150
-132
-126
-168
-158
-266
-557
-150
1157
1474
-45
-1277
-920
-282
-198
-154
-46
-77
-83
-13
7
12
59
99
130
180
238
276
293
294
286
290
309
306
250
154
61
-3
-33
-45
-63
-89
-101
-99
-119
-154
-151
-132
-157
-187
-179
-184
-192
-156
-160
-207
-222
-346
-307
549
1433
706
-923
-1346
-660
-252
-205
-92
-38
-73
-41
8
23
50
92
126
156
189
232
272
287
281
275
287
301
276
207
138
87
45
15
-8
-30
-34
-23
-38
-77
-87
-76
-91
-117
-114
-120
-149
-131
-108
-152
-172
-274
-436
156
1435
1462
-223
-1314
-832
-250
-206
-133
-19
-35
-14
34
27
53
110
136
176
243
292
324
343
334
327
355
379
344
254
154
70
0
-54
-87
-107
-122
-128
-139
-173
-198
-182
-171
-196
-207
-190
-188
-168
-140
-162
-160
-219
-470
-252
827
1257
-14
-1255
-987
-296
-165
-141
-17
-15
-24
29
41
53
104
138
164
212
263
308
352
368
349
339
352
330
245
152
86
31
-17
-49
-63
-67
-68
-77
-108
-139
-139
-131
-151
-168
-157
-162
-177
-164
-163
-166
-186
-368
-344
501
1264
411
-1177
-1440
-632
-198
-173
-64
8
-16
11
56
73
104
144
178
219
267
318
364
385
376
357
358
358
299
193
100
37
-12
-43
-56
-64
-66
-57
-62
-105
-148
-134
-112
-143
-162
-157
-198
-216
-164
-150
-153
-208
-323
153
1294
1370
-287
-1509
-1046
-317
-212
-175
-61
-74
-75
-27
-17
20
85
116
156
213
253
299
344
357
358
371
378
354
282
177
99
58
12
-37
-50
-50
-70
-92
-107
-130
-136
-119
-112
-114
-119
-150
-163
-123
-124
-164
-211
-411
-415
445
1328
677
-754
-1064
-468
-180
-173
-84
-56
-87
-51
-23
-21
16
60
85
124
185
245
284
297
302
316
337
342
304
221
129
57
12
-22
-63
-97
-95
-83
-109
-149
-149
-131
-142
-155
-136
-131
-154
-143
-128
-150
-170
-316
-447
182
1261
1018
-604
-1426
-827
-242
-174
-102
-4
-9
15
60
65
93
152
191
221
271
339
387
395
392
399
403
401
368
269
141
66
33
-13
-61
-76
-74
-71
-76
-113
-160
-168
-162
-193
-219
-204
-192
-184
-164
-184
-188
-194
-344
-160
802
1269
3
-1479
-1366
-522
-233
-202
-75
-47
-56
2
25
34
88
124
143
200
265
302
329
346
337
334
361
359
287
197
131
76
32
2
-37
-69
-54
-28
-50
-97
-109
-96
-111
-138
-134
-118
-109
-96
-126
-173
-195
-392
-529
239
1399
1094
-459
-1107
-571
-200
-187
-88
-39
-81
-36
10
-3
21
76
120
161
197
228
266
286
280
282
302
309
267
185
101
30
-21
-43
-64
-96
-103
-89
-115
-167
-173
-134
-119
-134
-130
-114
-131
-139
-106
-104
-122
-197
-418
-254
761
1355
235
-1202
-1176
-437
-190
-174
-67
-53
-76
-29
-3
13
69
114
142
196
254
291
319
340
342
345
364
363
311
223
136
67
14
-22
-48
-70
-77
-66
-68
-106
-136
-129
-127
-145
-142
-139
-168
-161
-129
-158
-178
-233
-376
32
1127
1266
-283
-1485
-1051
-303
-167
-133
-15
-9
-4
46
61
78
117
153
204
262
303
346
389
399
386
384
388
352
261
154
71
13
-31
-68
-91
-90
-75
-81
-125
-169
-174
-162
-172
-178
-166
-174
-173
-157
-193
-193
-191
-439
-405
626
1402
357
-1144
-1128
-365
-165
-181
-34
-5
-44
19
60
51
86
138
168
205
260
318
364
374
355
342
343
317
240
132
39
-19
-58
-93
-114
-121
-125
-121
-118
-141
-172
-174
-174
-191
-189
-174
-169
-140
-128
-158
-144
-253
-495
-52
1103
1177
-333
-1304
-780
-172
-139
-96
20
1
0
51
55
65
121
173
211
253
303
359
399
395
376
386
389
329
223
116
24
-35
-64
-85
-98
-97
-97
-117
-151
-175
-173
-168
-178
-178
-164
-169
-163
-143
-169
-190
-255
-512
-352
750
1372
176
-1234
-1079
-315
-127
-123
-3
14
-5
28
38
68
123
140
172
243
288
307
339
352
331
320
329
313
246
158
86
34
-11
-54
-84
-98
-103
-104
-106
-119
-140
-140
-127
-133
-139
-117
-115
-133
-116
-110
-140
-170
-311
-333
378
1210
634
-851
-1275
-603
-175
-144
-53
12
-10
21
68
77
106
157
198
239
287
333
365
382
388
401
425
422
351
237
139
65
2
-45
-75
-102
-121
-116
-114
-147
-184
-177
-165
-184
-190
-174
-179
-173
-149
-165
-165
-217
-436
-217
818
1209
-131
-1468
-1187
-370
-160
-135
-5
15
8
62
76
79
123
168
215
273
323
375
420
416
387
386
383
323
219
119
39
-24
-74
-105
-115
-118
-119
-115
-128
-173
-206
-192
-176
-190
-191
-183
-187
-165
-143
-166
-160
-232
-409
-18
981
995
-469
-1432
-905
-226
-134
-93
24
23
25
75
95
121
164
191
233
290
338
391
435
424
390
385
377
310
207
110
28
-35
-68
-61
-46
-66
-106
-124
-133
-154
-160
-135
-124
-136
-130
-120
-126
-105
-98
-137
-141
-258
-466
67
1287
1315
-282
-1279
-760
-185
-178
-149
-51
-72
-65
-11
4
32
88
133
174
223
279
336
364
359
360
374
364
309
219
112
15
-46
-83
-117
-132
-132
-143
-158
-156
-153
-158
-164
-176
-178
-154
-147
-171
-156
-118
-141
-180
-275
-448
-112
910
1186
-77
-1200
-924
-277
-135
-117
-29
-21
-19
17
30
57
104
133
164
207
242
282
322
326
311
317
328
303
237
150
68
16
-15
-47
-77
-85
-82
-86
-98
-115
-131
-130
-126
-143
-159
-185
-253
-257
-130
-53
-111
-245
-442
-215
816
1374
222
-1199
-1145
-404
-163
-142
-19
11
-6
43
79
97
142
188
229
285
346
401
434
429
417
425
423
368
266
150
51
-19
-59
-80
-99
-120
-126
-117
-122
-158
-185
-172
-165
-194
-201
-175
-169
-158
-139
-169
-179
-206
-365
-116
884
1254
-32
-1323
-1085
-343
-174
-155
-11
17
-2
50
77
84
130
175
207
254
309
352
377
382
375
371
360
311
216
104
17
-35
-76
-114
-132
-132
-129
-124
-125
-149
-176
-178
-173
-179
-174
-164
-171
-157
-124
-141
-150
-182
-409
-295
765
1504
441
-1068
-1095
-370
-162
-181
-57
-6
-12
22
27
42
105
155
188
240
307
372
402
386
352
326
314
294
219
93
-20
-79
-106
-133
-155
-154
-143
-149
-166
-187
-206
-194
-170
-179
-187
-156
-157
-188
-158
-130
-161
-196
-317
-279
530
1420
794
-782
-1246
-587
-175
-151
-69
-12
-32
-9
21
41
88
130
164
219
276
318
357
376
367
359
370
366
306
206
112
44
-3
-37
-70
-97
-104
-97
-97
-116
-146
-162
-157
-157
-168
-157
-143
-158
-151
-139
-174
-186
-257
-353
222
1356
1271
-398
-1427
-883
-236
-169
-114
-4
-23
-14
49
61
74
127
176
218
273
337
390
410
403
399
402
377
301
186
70
-19
-80
-115
-129
-141
-163
-171
-158
-159
-192
-210
-193
-194
-218
-209
-183
-177
-156
-150
-180
-177
-287
-449
112
1218
1057
-596
-1491
-858
-221
-166
-90
35
11
-1
31
36
75
147
191
234
301
365
411
429
408
384
383
367
296
184
75
-5
-53
-78
-98
-115
-124
-129
-127
-120
-133
-159
-155
-134
-140
-148
-133
-132
-128
-100
-124
-155
-202
-450
-367
775
1722
732
-942
-1115
-372
-122
-141
-26
-11
-58
-7
40
61
115
160
183
235
304
340
343
344
349
343
327
293
218
109
8
-62
-101
-125
-147
-168
-181
-182
-170
-169
-193
-203
-172
-157
-194
-210
-180
-173
-174
-155
-176
-211
-275
-412
-92
914
1209
-86
-1289
-1025
-328
-154
-120
-13
-1
-3
40
54
70
114
152
192
244
290
323
336
336
343
361
372
354
283
179
97
45
-5
-48
-66
-72
-82
-87
-88
-103
-135
-153
-137
-130
-152
-155
-143
-152
-133
-112
-155
-176
-248
-343
244
1388
1290
-373
-1371
-838
-240
-184
-108
5
-12
7
67
76
97
154
205
256
311
364
419
438
412
401
414
391
305
181
54
-41
-90
-118
-147
-170
-186
-196
-189
-179
-198
-223
-213
-210
-239
-245
-221
-220
-205
-167
-184
-192
-205
-377
-189
862
1437
200
-1312
-1230
-421
-171
-150
-15
10
-9
46
69
74
127
183
232
288
331
376
426
442
437
443
429
361
253
132
29
-35
-79
-119
-139
-143
-160
-166
-143
-153
-214
-225
-170
-162
-203
-200
-184
-196
-166
-133
-155
-171
-342
-526
175
1458
1306
-393
-1274
-698
-181
-163
-88
4
-17
3
37
42
95
153
177
231
302
339
368
396
388
363
351
323
246
134
21
-67
-115
-130
-142
-165
-178
-172
-164
-168
-190
-213
-204
-177
-182
-198
-176
-161
-180
-166
-143
-160
-196
-377
-464
346
1536
1190
-519
-1265
-648
-185
-188
-99
-3
-40
-29
24
34
51
100
157
209
256
307
346
346
335
335
329
311
264
161
49
-16
-51
-86
-113
-130
-140
-138
-132
-137
-153
-162
-151
-145
-167
-176
-137
-114
-132
-120
-108
-132
-165
-332
-394
426
1559
1141
-552
-1239
-616
-158
-138
-51
24
5
40
88
104
150
204
235
283
357
429
475
483
476
478
477
445
357
224
97
15
-38
-87
-122
-131
-135
-147
-148
-139
-158
-192
-195
-186
-198
-197
-179
-189
-185
-134
-136
-175
-182
-318
-296
563
1418
595
-1099
-1453
-647
-200
-165
-43
23
-10
20
66
88
131
162
178
229
300
357
395
407
394
368
328
262
169
61
-37
-108
-154
-183
-200
-207
-209
-209
-199
-186
-207
-247
-249
-229
-244
-263
-252
-249
-243
-215
-227
-240
-243
-431
-421
502
1378
537
-1082
-1339
-567
-212
-215
-99
-24
-28
19
55
64
102
153
203
265
326
386
440
458
434
406
388
340
241
124
29
-29
-55
-74
-102
-113
-95
-77
-64
-49
-50
-58
-51
-39
-40
-39
-17
24
52
46
