# session 31
-21
-22
-8
-31
-88
-98
-48
-13
-32
-76
-103
-110
-114
-107
-104
-114
-98
-83
-116
-130
-217
-289
514
2171
2582
859
-712
-592
-67
-110
-194
-124
-143
-162
-117
-110
-110
-81
-68
-66
-49
-29
-14
3
29
59
85
108
139
170
190
209
235
262
274
250
182
95
13
-60
-123
-167
-187
-190
-179
-164
-158
-158
-151
-139
-136
-136
-131
-122
-116
-109
-107
-111
-114
-115
-115
-110
-107
-113
-115
-92
-48
-6
2
-31
-70
-84
-91
-97
-89
-94
-102
-78
-83
-116
-117
-208
-55
1117
2458
1864
-220
-1161
-557
-80
-143
-143
-88
-122
-112
-76
-83
-74
-47
-37
-28
-9
9
30
56
79
101
129
161
192
218
237
253
279
304
295
235
147
57
-29
-104
-158
-192
-210
-216
-212
-202
-192
-181
-171
-162
-155
-148
-139
-132
-132
-132
-131
-134
-138
-138
-146
-165
-166
-131
-86
-51
-39
-64
-104
-119
-122
-124
-117
-121
-129
-105
-104
-140
-178
-288
-39
1295
2697
2081
69
-764
-252
-16
-206
-196
-133
-174
-159
-123
-136
-128
-102
-94
-81
-64
-54
-38
-18
2
27
53
76
105
132
145
155
178
203
199
152
83
12
-56
-117
-157
-175
-181
-183
-181
-176
-168
-161
-153
-146
-140
-134
-129
-126
-123
-118
-114
-115
-110
-109
-125
-138
-124
-86
-42
-7
-10
-52
-84
-89
-96
-94
-85
-94
-88
-67
-92
-120
-199
-295
387
2080
2844
1345
-429
-549
-43
-88
-220
-141
-144
-179
-136
-125
-136
-113
-96
-94
-78
-60
-47
-27
-2
22
47
72
96
125
151
168
186
214
230
202
132
53
-21
-89
-140
-169
-185
-195
-196
-190
-183
-176
-167
-159
-153
-147
-140
-135
-132
-128
-125
-121
-117
-115
-115
-123
-131
-121
-87
-40
-3
-7
-50
-84
-94
-103
-102
-93
-104
-102
-80
-102
-127
-198
-342
181
1792
2736
1434
-425
-704
-145
-72
-201
-150
-141
-171
-136
-124
-135
-109
-87
-83
-66
-46
-31
-11
13
36
59
84
112
145
172
191
211
240
259
235
169
89
9
-66
-128
-168
-190
-198
-198
-196
-191
-182
-171
-162
-155
-148
-141
-136
-134
-131
-124
-124
-126
-123
-118
-121
-132
-136
-118
-82
-41
-7
-12
-55
-86
-91
-97
-94
-87
-99
-90
-73
-105
-124
-209
-325
381
2065
2662
1002
-715
-677
-87
-93
-192
-114
-121
-148
-104
-96
-103
-77
-62
-59
-41
-21
-7
14
38
62
87
116
148
177
198
213
232
259
273
244
170
80
-3
-73
-128
-167
-189
-199
-203
-200
-192
-180
-167
-155
-147
-140
-130
-125
-126
-123
-117
-119
-125
-127
-124
-123
-122
-111
-89
-60
-27
-16
-53
-100
-113
-114
-118
-107
-106
-111
-86
-88
-120
-135
-266
-153
1063
2564
2135
99
-899
-390
-20
-161
-184
-129
-163
-145
-97
-107
-110
-79
-59
-51
-37
-18
1
19
41
67
91
115
144
165
167
174
207
245
256
217
122
15
-61
-110
-145
-167
-186
-205
-213
-203
-186
-173
-168
-159
-139
-133
-153
-163
-138
-116
-126
-128
-113
-109
-101
-80
-86
-99
-102
-133
-133
-34
32
-32
-95
-85
-75
-67
-53
-75
-82
-57
-83
-124
-207
-262
484
2100
2601
979
-607
-550
-55
-100
-182
-124
-156
-158
-96
-109
-133
-89
-56
-57
-49
-29
-16
-4
11
20
34
85
148
171
172
191
215
238
253
210
105
28
-1
-57
-141
-183
-184
-194
-209
-202
-177
-162
-165
-165
-149
-136
-131
-121
-118
-124
-120
-110
-116
-124
-116
-108
-113
-120
-121
-129
-140
-130
-98
-61
-27
-14
-39
-72
-84
-88
-87
-80
-86
-81
-59
-82
-107
-149
-278
108
1533
2543
1463
-352
-702
-125
-19
-172
-119
-90
-127
-94
-67
-80
-69
-50
-42
-25
-9
0
15
37
59
80
105
136
167
193
213
234
257
268
246
184
102
21
-49
-107
-149
-172
-182
-186
-188
-185
-179
-172
-164
-156
-148
-141
-135
-130
-126
-124
-122
-120
-118
-117
-118
-122
-122
-118
-118
-121
-122
-129
-141
-134
-101
-63
-33
-22
-42
-76
-88
-88
-91
-80
-71
-84
-72
-57
-93
-125
-224
-249
644
2331
2685
944
-554
-407
17
-122
-207
-117
-140
-160
-114
-115
-121
-93
-82
-80
-62
-45
-32
-13
7
22
38
61
92
124
147
166
188
215
228
199
131
54
-17
-81
-133
-163
-178
-185
-186
-183
-175
-167
-161
-156
-148
-138
-130
-126
-123
-119
-115
-114
-111
-106
-104
-103
-102
-101
-100
-98
-97
-98
-101
-114
-124
-105
-65
-25
5
8
-28
-64
-73
-78
-78
-71
-83
-83
-62
-85
-112
-173
-307
190
1775
2757
1496
-388
-693
-123
-51
-196
-138
-119
-156
-125
-107
-117
-98
-79
-74
-58
-40
-27
-9
14
37
62
91
122
152
179
203
222
245
265
255
199
117
34
-42
-104
-148
-173
-186
-192
-190
-182
-172
-162
-155
-150
-143
-136
-133
-134
-132
-128
-125
-121
-118
-118
-119
-118
-113
-110
-111
-111
-116
-136
-151
-129
-87
-47
-15
-14
-47
-72
-80
-85
-78
-79
-92
-73
-66
-104
-120
-226
-226
778
2420
2464
543
-799
-482
-25
-128
-181
-109
-138
-144
-100
-102
-107
-83
-71
-61
-41
-26
-12
9
35
61
90
117
146
175
201
220
240
266
273
235
161
78
0
-73
-130
-163
-181
-191
-195
-190
-179
-168
-158
-152
-147
-140
-136
-135
-134
-130
-127
-130
-130
-124
-118
-117
-118
-118
-117
-115
-124
-137
-127
-89
-44
-15
-18
-54
-87
-98
-105
-103
-97
-107
-97
-76
-104
-120
-176
-279
333
1945
2686
1179
-637
-754
-139
-75
-188
-124
-121
-150
-111
-96
-103
-82
-66
-61
-42
-24
-12
10
36
60
88
118
147
176
204
223
243
272
288
262
196
115
29
-54
-117
-155
-174
-186
-191
-190
-184
-176
-167
-158
-148
-138
-134
-132
-128
-124
-122
-122
-120
-117
-115
-115
-113
-111
-110
-112
-122
-138
-135
-100
-54
-18
-11
-43
-83
-96
-99
-98
-88
-94
-100
-77
-88
-121
-166
-306
10
1471
2784
1936
-81
-755
-220
-33
-200
-175
-134
-176
-153
-123
-133
-118
-96
-93
-79
-57
-44
-26
-2
20
45
75
105
133
161
182
201
225
245
238
190
114
35
-39
-102
-147
-173
-185
-189
-188
-182
-174
-167
-159
-152
-145
-140
-136
-133
-131
-128
-125
-122
-120
-119
-117
-112
-109
-117
-130
-135
-115
-72
-25
-4
-25
-69
-92
-96
-97
-91
-93
-104
-83
-74
-111
-132
-243
-237
788
2470
2557
641
-736
-453
-17
-138
-197
-121
-149
-159
-117
-120
-121
-95
-85
-78
-59
-44
-29
-6
19
43
69
98
127
156
182
201
220
244
253
217
145
64
-14
-86
-138
-167
-183
-193
-193
-187
-181
-176
-169
-159
-151
-146
-142
-139
-136
-131
-127
-124
-121
-117
-115
-115
-113
-115
-125
-134
-125
-91
-41
-4
-9
-49
-83
-97
-105
-100
-91
-100
-91
-69
-97
-120
-188
-315
267
1918
2791
1385
-469
-678
-114
-78
-209
-141
-130
-166
-133
-119
-130
-109
-89
-82
-63
-43
-30
-23
-15
11
55
90
115
147
183
210
231
253
266
248
189
102
14
-63
-123
-164
-182
-188
-195
-194
-180
-171
-170
-164
-153
-145
-142
-138
-131
-125
-127
-131
-127
-121
-123
-119
-109
-106
-115
-122
-113
-83
-36
-2
-14
-58
-84
-95
-108
-103
-88
-99
-94
-73
-104
-137
-217
-320
338
1990
2692
1115
-698
-761
-132
-86
-202
-131
-122
-147
-110
-105
-112
-79
-58
-57
-37
-10
7
24
46
69
97
130
162
192
220
241
259
286
300
267
191
102
14
-65
-127
-167
-189
-201
-208
-207
-200
-190
-178
-168
-162
-153
-143
-138
-134
-131
-131
-130
-123
-121
-123
-122
-127
-142
-145
-116
-69
-31
-24
-54
-90
-106
-109
-104
-93
-104
-109
-81
-93
-127
-157
-287
-23
1353
2648
1821
-228
-925
-316
-34
-173
-152
-107
-144
-116
-83
-98
-85
-58
-53
-40
-16
0
16
35
55
80
114
148
179
206
227
245
268
284
264
200
113
24
-55
-117
-160
-187
-203
-209
-210
-207
-199
-191
-182
-168
-152
-142
-136
-128
-122
-121
-121
-119
-118
-120
-122
-122
-119
-121
-132
-140
-126
-88
-42
-12
-24
-65
-92
-97
-102
-96
-86
-99
-93
-70
-95
-129
-222
-326
366
2062
2796
1260
-516
-606
-69
-96
-222
-141
-142
-177
-136
-121
-129
-106
-90
-84
-65
-45
-28
-8
11
34
62
92
123
155
184
207
228
250
261
233
160
73
-8
-79
-136
-170
-188
-196
-198
-198
-193
-185
-177
-168
-158
-147
-141
-137
-132
-125
-121
-118
-115
-113
-113
-113
-113
-112
-117
-130
-140
-129
-92
-46
-14
-21
-57
-86
-94
-97
-90
-81
-91
-79
-56
-85
-112
-195
-315
344
2058
2868
1372
-452
-607
-78
-87
-215
-147
-148
-180
-141
-129
-140
-119
-102
-96
-78
-58
-39
-14
10
35
66
96
128
163
194
220
246
270
279
253
187
99
13
-63
-121
-159
-186
-199
-196
-192
-193
-190
-183
-174
-163
-150
-140
-133
-124
-116
-112
-110
-106
-104
-103
-102
-102
-104
-107
-109
-113
-125
-142
-138
-103
-54
-21
-31
-76
-108
-110
-113
-112
-103
-112
-106
-82
-101
-128
-209
-323
315
1995
2811
1342
-486
-643
-89
-80
-212
-143
-140
-175
-137
-124
-134
-113
-101
-98
-78
-60
-49
-26
-2
19
51
90
121
150
182
209
234
263
279
259
197
116
34
-42
-103
-143
-165
-177
-181
-180
-177
-170
-161
-155
-149
-141
-133
-127
-123
-121
-117
-111
-106
-104
-101
-95
-94
-95
-91
-85
-84
-94
-108
-110
-84
-39
3
14
-19
-66
-86
-93
-96
-87
-93
-102
-77
-81
-120
-154
-301
-147
1149
2665
2197
181
-769
-300
-14
-177
-183
-123
-161
-152
-115
-124
-120
-99
-90
-77
-61
-49
-33
-10
11
34
65
99
130
158
186
209
231
256
259
217
142
59
-19
-86
-134
-163
-178
-183
-183
-179
-172
-166
-159
-148
-140
-137
-131
-122
-121
-123
-116
-111
-114
-114
-110
-107
-106
-105
-102
-99
-105
-121
-123
-94
-41
8
16
-24
-69
-85
-91
-94
-84
-92
-101
-77
-84
-119
-158
-317
-120
1233
2682
2094
106
-734
-262
-26
-185
-176
-126
-167
-151
-117
-127
-119
-96
-90
-80
-63
-48
-29
-9
11
36
62
87
118
151
174
191
216
242
242
198
122
43
-29
-93
-142
-167
-179
-186
-187
-184
-177
-167
-157
-150
-144
-137
-131
-126
-120
-116
-112
-107
-104
-101
-94
-89
-88
-84
-77
-74
-82
-92
-92
-67
-17
32
38
-8
-52
-64
-71
-73
-65
-76
-81
-59
-81
-106
-140
-305
-26
1370
2575
1731
-121
-707
-227
-51
-176
-156
-130
-161
-139
-116
-121
-106
-87
-80
-66
-48
-36
-21
0
21
44
71
100
127
152
176
198
224
250
249
202
127
51
-25
-95
-143
-168
-181
-190
-193
-187
-175
-166
-164
-162
-152
-139
-133
-134
-135
-131
-127
-125
-122
-121
-123
-117
-109
-111
-124
-132
-119
-81
-28
6
-7
-51
-80
-87
-90
-82
-78
-93
-80
-63
-94
-106
-182
-295
396
2053
2660
1036
-699
-720
-128
-86
-178
-116
-122
-145
-107
-99
-104
-81
-67
-62
-44
-27
-10
14
38
61
90
121
154
188
219
242
263
290
303
273
200
110
20
-63
-126
-166
-188
-203
-211
-212
-207
-199
-191
-183
-173
-164
-154
-148
-144
-140
-138
-140
-142
-137
-132
-133
-136
-138
-137
-120
-77
-31
-25
-63
-97
-104
-113
-120
-109
-114
-123
-100
-107
-143
-191
-343
-69
1400
2839
2094
14
-773
-258
-51
-223
-197
-147
-191
-169
-132
-143
-131
-107
-103
-90
-68
-53
-34
-10
12
35
66
96
124
152
178
198
221
243
236
183
106
28
-47
-109
-150
-174
-186
-187
-182
-176
-171
-168
-162
-153
-147
-144
-136
-123
-113
-110
-110
-107
-100
-94
-96
-106
-115
-111
-84
-38
7
15
-22
-64
-79
-86
-90
-83
-91
-97
-73
-84
-115
-154
-312
-51
1373
2736
1977
-21
-751
-248
-35
-183
-165
-123
-160
-139
-110
-118
-105
-84
-83
-74
-57
-46
-28
-5
15
38
66
96
124
152
176
199
225
248
243
193
116
34
-42
-106
-151
-178
-194
-199
-196
-191
-185
-179
-172
-166
-160
-153
-150
-146
-142
-139
-139
-138
-134
-131
-137
-147
-140
-105
-53
-14
-22
-68
-103
-111
-116
-116
-109
-121
-118
-94
-113
-133
-200
-362
116
1743
2817
1601
-345
-741
-189
-88
-228
-179
-157
-191
-161
-139
-146
-130
-113
-107
-88
-67
-52
-32
-7
18
47
77
104
133
165
189
210
237
256
238
177
94
10
-66
-125
-163
-185
-193
-194
-193
-191
-184
-175
-168
-161
-153
-147
-141
-134
-131
-130
-129
-124
-120
-123
-134
-135
-110
-65
-19
2
-21
-64
-86
-91
-95
-86
-85
-95
-72
-64
-100
-125
-255
-224
891
2580
2533
546
-749
-408
-1
-133
-176
-104
-139
-143
-101
-107
-105
-79
-69
-60
-42
-27
-12
11
31
52
83
114
141
169
195
214
234
259
266
227
152
66
-13
-79
-125
-153
-167
-170
-169
-165
-159
-151
-144
-138
-132
-129
-125
-120
-117
-116
-115
-114
-112
-109
-114
-126
-124
-93
-44
-9
-15
-61
-99
-106
-110
-111
-104
-117
-120
-94
-112
-147
-212
-366
56
1644
2809
1669
-355
-825
-233
-93
-244
-199
-172
-209
-176
-151
-165
-151
-131
-128
-116
-96
-81
-65
-46
-24
4
34
63
91
118
139
159
186
208
191
129
47
-35
-113
-174
-211
-231
-244
-249
-245
-236
-228
-222
-211
-201
-193
-185
-176
-171
-165
-157
-152
-150
-145
-144
-151
-151
-124
-73
-25
-8
-34
-72
-85
-86
-86
-71
-67
-76
-50
-40
-75
-107
-235
-116
1120
2737
2453
403
-721
-276
82
-77
-95
-19
-55
-46
3
1
7
37
51
61
84
