# session 5
-118
-163
6
-77
-667
-1165
-1169
-1058
-1094
-1129
-1126
-1116
-1045
-947
-866
-801
-800
-844
-843
-797
-757
-729
-680
-594
-562
-583
-540
-616
-641
389
2072
2088
199
-1026
-704
-320
-420
-433
-305
-239
-203
-173
-132
-81
-75
-59
33
98
98
156
246
238
205
269
330
277
177
116
90
86
108
138
144
100
48
66
119
136
163
218
209
126
52
28
44
0
-122
-146
-145
-167
497
1862
2088
446
-988
-856
-313
-248
-229
-92
-88
-150
-137
-83
-28
22
37
21
37
127
213
198
152
194
273
304
337
371
283
124
80
107
28
-104
-125
-60
-29
-18
46
110
83
24
7
1
24
52
-17
-52
-30
-191
99
1551
2524
1172
-838
-1081
-287
-22
-79
1
18
-27
12
62
64
30
-24
-43
-44
-88
-109
-49
10
9
-24
-40
-15
6
-22
-65
-115
-183
-217
-223
-268
-315
-311
-282
-232
-194
-231
-264
-227
-218
-267
-296
-331
-345
-311
-499
-556
686
2517
2252
-73
-1391
-878
-357
-399
-359
-258
-301
-321
-259
-190
-148
-123
-70
-1
19
7
10
19
42
107
179
200
178
144
91
22
-30
-73
-128
-153
-124
-90
-82
-56
1
16
-37
-82
-88
-72
-26
-13
-32
21
-45
-108
811
2368
2247
209
-1030
-524
29
-60
-141
-85
-79
-108
-219
-339
-281
-126
-60
-62
-57
-45
-34
-8
32
65
83
98
87
20
-36
-41
-77
-177
-244
-241
-239
-261
-247
-168
-95
-93
-121
-122
-132
-169
-167
-166
-210
-213
-355
-588
183
2068
2663
854
-875
-802
-242
-215
-232
-113
-96
-124
-125
-129
-105
-56
-14
15
24
32
69
107
103
82
96
144
186
203
185
122
44
-1
-26
-65
-75
-29
11
18
48
90
85
70
68
37
29
45
-17
-64
-114
-288
165
1748
2598
1074
-925
-1141
-445
-259
-306
-209
-190
-235
-219
-206
-209
-197
-173
-112
-47
-58
-80
-13
66
66
31
14
9
8
-3
-53
-138
-219
-263
-286
-309
-296
-242
-227
-223
-152
-116
-185
-223
-212
-238
-214
-157
-181
-192
-298
-451
357
2091
2407
546
-925
-673
-194
-262
-265
-147
-158
-147
-81
-75
-73
-40
-17
13
55
74
87
108
112
110
125
132
139
164
154
80
14
-10
-34
-57
-44
-19
-12
4
46
73
84
134
168
108
39
40
38
7
-87
-272
-14
1131
2005
1206
-330
-788
-341
-97
-132
-112
-67
-32
-2
-34
-81
-97
-132
-167
-149
-127
-139
-160
-172
-170
-144
-106
-79
-76
-80
-73
-96
-166
-202
-192
-232
-286
-254
-197
-189
-179
-196
-283
-297
-174
-77
-73
-100
-127
-115
-206
-348
333
1901
2286
529
-1096
-941
-255
-135
-162
-88
-77
-77
-64
-70
-43
-13
-30
-30
22
89
132
146
172
217
245
273
317
339
337
304
212
125
120
132
97
70
92
118
92
-16
-138
-171
-165
-215
-234
-168
-139
-163
-202
-329
-103
1080
2140
1246
-794
-1509
-770
-244
-279
-247
-162
-234
-274
-204
-214
-280
-211
-92
-88
-100
-38
-25
-82
-78
-22
-13
-21
23
78
76
11
-73
-110
-72
-44
-81
-93
-41
-12
-7
27
40
-7
-71
-112
-85
-28
-55
-118
-169
-281
104
1556
2670
1641
-307
-833
-278
-90
-191
-143
-147
-206
-159
-122
-148
-120
-42
8
36
89
167
214
197
166
177
214
242
265
277
252
201
137
55
-17
-71
-153
-227
-205
-125
-87
-103
-157
-223
-265
-282
-276
-237
-208
-221
-317
-299
479
1820
1903
80
-1465
-1240
-499
-357
-387
-306
-313
-329
-274
-263
-286
-277
-259
-216
-130
-85
-114
-127
-83
-58
-69
-45
27
82
89
63
11
-53
-87
-56
33
109
96
39
14
-16
-70
-62
-20
-43
-54
-15
-55
-104
-112
-253
41
1496
2700
1709
-257
-765
-181
-58
-263
-194
-94
-136
-130
-102
-108
-57
7
4
22
93
147
176
175
178
287
387
316
222
193
96
-11
-26
-77
-151
-104
-41
-66
-78
-51
-67
-106
-107
-103
-162
-214
-192
-221
-307
-296
-389
-426
612
2212
1931
-274
-1500
-908
-300
-314
-322
-291
-330
-273
-195
-204
-216
-210
-192
-134
-91
-73
21
150
172
132
187
307
342
262
145
51
-3
-33
-73
-106
-82
-17
25
44
60
35
-23
-46
-50
-63
-39
-32
-76
-95
-215
-176
913
2431
2135
131
-948
-503
-140
-238
-195
-92
-99
-66
-12
3
39
81
104
153
222
248
220
184
188
220
206
124
56
50
43
5
-30
-66
-118
-154
-154
-151
-165
-178
-189
-231
-278
-293
-327
-373
-374
-400
-437
-415
-535
-458
717
2070
1380
-739
-1563
-910
-518
-647
-663
-601
-600
-571
-527
-495
-452
-414
-385
-350
-319
-285
-246
-228
-238
-229
-176
-122
-107
-117
-163
-258
-314
-240
-100
0
67
151
247
313
328
320
335
339
307
338
446
452
397
428
310
299
1373
2840
2477
541
-426
19
386
355
389
383
252
151
58
-38
-74
-100
-146
-155
-142
-161
-194
-204
-219
-268
-297
-252
-162
-65
33
94
99
105
150
186
179
176
207
240
241
217
212
213
148
79
105
74
-56
-73
-138
-161
822
2376
2142
21
-1194
-643
-63
-104
-115
-41
-100
-184
-251
-335
-380
-392
-409
-412
-402
-400
-403
-424
-457
-458
-415
-361
-318
-309
-340
-404
-489
-558
-579
-597
-648
-683
-671
-639
-580
-483
-387
-316
-271
-222
-153
-119
-83
11
-50
-25
941
2265
1958
201
-675
-200
183
119
142
207
167
158
177
165
169
182
177
161
116
46
10
-9
-63
-120
-127
-115
-122
-143
-166
-211
-278
-332
-358
-379
-393
-380
-351
-306
-225
-146
-108
-69
-23
0
38
70
59
55
-73
-183
587
2044
2173
509
-695
-368
150
141
116
187
155
127
157
158
146
153
154
159
189
216
219
215
196
157
155
215
246
199
153
148
112
34
-14
-10
-9
-33
-54
-52
-29
-9
-21
-48
-63
-93
-121
-98
-105
-161
-193
-351
-361
653
2040
1645
-345
-1351
-802
-295
-320
-329
-291
-315
-289
-248
-249
-237
-210
-194
-178
-158
-134
-112
-124
-152
-145
-109
-69
-13
38
35
-9
-54
-88
-106
-110
-111
-100
-73
-44
-26
-31
-61
-110
-157
-154
-115
-139
-190
-234
-394
-203
1012
2128
1340
-426
-912
-324
-116
-262
-224
-156
-170
-149
-128
-135
-114
-82
-62
-30
12
41
50
38
21
18
31
61
107
144
152
130
88
55
44
27
-2
-10
1
15
20
-7
-46
-59
-71
-91
-79
-88
-127
-146
-310
-357
631
2109
1907
56
-917
-399
16
-98
-99
-17
-47
-48
-25
-50
-46
-7
13
25
44
62
73
72
61
58
74
118
173
193
164
121
83
51
33
17
-8
-24
-19
-7
0
-20
-63
-99
-129
-156
-148
-160
-201
-213
-391
-571
213
1690
1713
-44
-1128
-619
-80
-155
-191
-107
-143
-174
-135
-117
-112
-95
-81
-65
-44
-24
-15
-30
-64
-93
-92
-39
38
72
51
22
-8
-53
-93
-114
-137
-174
-198
-166
-97
-83
-137
-173
-177
-181
-163
-162
-197
-191
-339
-622
-86
1385
1795
307
-931
-619
-71
-116
-177
-98
-121
-143
-99
-79
-59
-33
-42
-48
-30
-30
-43
-47
-57
-76
-79
-43
32
103
116
75
34
23
24
9
-19
-30
-21
10
56
54
-15
-54
-42
-50
-48
-24
-38
-50
-177
-473
-98
1341
2079
848
-570
-507
54
82
4
86
100
94
151
179
180
202
227
244
259
269
268
252
241
240
238
264
337
400
400
379
378
362
314
271
253
239
231
239
245
196
74
-49
-127
-207
-279
-301
-331
-370
-472
-785
-776
267
1280
621
-823
-1111
-545
-357
-444
-386
-356
-399
-380
-359
-358
-303
-234
-198
-167
-154
-180
-185
-152
-133
-128
-112
-83
-26
20
-3
-41
-33
-35
-75
-92
-92
-112
-105
-62
-66
-101
-76
-46
-113
-179
-127
-107
-177
-152
-258
-592
-133
1297
1611
-13
-1291
-901
-195
-56
-40
-4
-32
19
82
49
71
162
153
102
163
239
194
141
173
170
114
150
247
239
171
174
190
133
65
38
20
7
25
47
32
5
12
40
19
-59
-88
-40
-44
-83
-128
-372
-369
714
1875
1172
-588
-1039
-308
23
-90
-27
64
0
-29
36
72
52
55
99
108
84
100
129
95
40
42
87
130
156
153
112
57
18
-4
-23
-31
-21
-8
12
39
26
-31
-59
-59
-86
-90
-63
-87
-114
-231
-548
-289
1081
1898
691
-864
-863
-191
-74
-162
-101
-99
-130
-96
-84
-92
-65
-38
-27
-13
1
9
14
-2
-34
-43
-9
38
61
40
-17
-66
-77
-81
-101
-116
-109
-93
-72
-45
-39
-72
-105
-112
-130
-142
-127
-144
-162
-227
-513
-452
741
1866
1050
-674
-1020
-317
-58
-177
-140
-99
-131
-107
-81
-80
-45
-4
7
21
48
72
83
73
42
26
54
107
137
129
104
72
42
28
24
10
6
30
62
79
65
22
-10
-25
-44
-39
-34
-75
-91
-220
-567
-303
1038
1753
514
-946
-868
-194
-70
-137
-70
-69
-101
-61
-31
-27
-5
23
46
71
88
96
100
85
55
51
93
141
151
125
89
53
23
8
-4
-22
-24
8
41
45
19
-27
-58
-66
-80
-77
-59
-79
-106
-242
-555
-278
1046
1771
537
-954
-864
-143
-50
-178
-95
-55
-107
-99
-68
-59
-42
-15
6
29
49
58
57
47
20
6
42
100
119
95
58
30
19
7
-18
-29
-14
12
42
47
-7
-63
-71
-77
-89
-78
-97
-111
-146
-451
-588
393
1626
1102
-567
-1039
-340
-15
-132
-112
-79
-115
-80
-53
-73
-55
-27
-17
19
68
78
54
31
20
6
13
74
124
98
55
38
12
-8
4
1
-27
-19
41
82
46
-9
-9
-10
-53
-53
-25
-49
-48
-130
-472
-385
726
1511
584
-763
-810
-173
17
-46
4
26
-2
27
64
69
75
85
104
136
155
156
155
132
89
77
114
151
151
121
76
30
4
-3
-16
-39
-43
-28
-13
-4
-20
-68
-97
-101
-136
-154
-121
-133
-144
-178
-495
-559
540
1653
813
-969
-1331
-544
-128
-129
-80
-61
-89
-61
-40
-37
-15
0
20
63
84
87
103
107
80
69
97
141
176
161
87
21
5
-8
-33
-37
-26
-24
-18
-3
-17
-69
-106
-110
-123
-134
-117
-128
-154
-220
-464
-391
724
1829
1108
-596
-1028
-333
-20
-139
-110
-32
-39
-30
-18
-22
-2
19
29
46
66
79
84
72
48
36
64
126
159
130
76
33
5
-10
-15
-18
-13
8
34
34
-6
-56
-81
-100
-117
-103
-103
-135
-163
-354
-531
204
1611
1676
37
-1006
-524
3
-72
-112
-34
-68
-87
-54
-55
-41
-3
9
21
49
56
49
46
25
-5
2
50
90
88
54
11
-22
-38
-48
-63
-67
-48
-17
11
9
-36
-80
-93
-109
-120
-99
-106
-134
-188
-454
-512
519
1789
1292
-443
-1033
-373
-31
-163
-145
-80
-119
-106
-63
-64
-49
-18
-4
23
63
78
68
54
33
11
25
89
131
95
42
32
0
-66
-49
38
30
-47
4
124
96
-4
9
27
-38
-26
27
-46
-102
-173
-490
-358
885
1794
830
-665
-828
-242
-68
-142
-112
-96
-109
-98
-100
-98
-69
-48
-35
-16
0
3
-8
-28
-45
-39
0
45
65
55
15
-36
-71
-101
-129
-111
-52
-13
15
38
11
-36
-36
-37
-57
-25
-8
-51
-87
-311
-554
171
1622
1746
221
-754
-379
14
-78
-115
-47
-60
-76
-68
-73
-60
-39
-31
-15
6
13
11
0
-30
-57
-50
-10
31
51
44
10
-26
-35
-28
-32
-30
3
46
69
60
11
-40
-47
-51
-70
-67
-88
-116
-130
-383
-601
243
1651
1469
-283
-1184
-634
-123
-123
-114
-66
-89
-68
-26
-25
-6
31
42
51
84
119
133
124
97
69
83
140
178
153
87
23
-29
-60
-69
-75
-78
-61
-32
-10
-1
-20
-61
-82
-95
-123
-113
-90
-123
-153
-270
-515
-95
1332
1990
619
-930
-868
-194
-80
-150
-83
-82
-105
-68
-55
-57
-30
-7
8
31
47
49
41
19
-6
-8
24
64
81
59
9
-39
-64
-76
-84
-73
-39
3
35
32
-12
-55
-63
-68
-80
-72
-82
-117
-175
-372
-358
615
1832
1412
-292
-971
-352
12
-132
-130
-45
-79
-86
-51
-47
-34
-5
10
25
41
45
50
45
13
-17
3
46
57
37
5
-32
-53
-52
-66
-92
-89
-62
-39
-18
-5
-33
-74
-83
-87
-102
-94
-110
-141
-162
-391
-579
226
1617
1592
53
-822
-427
-77
-154
-153
-91
-107
-95
-67
-64
-37
-7
1
27
60
69
72
78
63
32
24
49
80
87
64
22
-16
-34
-46
-69
-78
-57
-26
-2
14
-7
-63
-89
-76
-83
-96
-87
-97
-92
-181
-500
-314
998
1898
770
-883
-990
-252
-19
-82
-29
-10
-29
5
28
31
54
72
77
93
119
132
120
92
59
43
65
101
116
94
43
-12
-41
-47
-56
-66
-63
-44
-15
5
-4
-39
-68
-79
-97
-110
-90
-100
-144
-167
-337
-479
284
1661
1676
59
-945
-503
-32
-109
-149
-80
-106
-114
-68
-61
-67
-44
-11
12
24
28
25
0
-43
-68
-51
-3
42
47
11
-22
-32
-35
-43
-52
-59
-46
-10
23
21
-23
-71
-88
-100
-110
-88
-89
-121
-152
-383
-564
261
1638
1482
-220
-1066
-481
-23
-114
-122
-44
-62
-57
-41
-65
-57
-15
6
21
50
70
57
30
12
-13
-25
34
104
85
23
-4
-15
-27
-31
-44
-51
-28
4
34
67
58
6
-20
-13
-9
4
-1
-40
-38
-142
-431
-156
1049
1647
504
-807
-729
-102
34
-25
27
27
-17
12
