# session 21
-16
-7
-21
-31
13
70
64
24
6
9
13
4
-4
10
6
-19
-54
-188
-61
1002
2223
1807
103
-729
-325
-9
-106
-128
-83
-104
-99
-72
-72
-63
-47
-45
-38
-18
0
16
37
63
92
122
157
189
210
223
232
223
185
133
75
11
-47
-86
-113
-134
-144
-145
-147
-148
-146
-142
-138
-130
-121
-117
-115
-109
-106
-114
-122
-110
-87
-63
-37
-27
-43
-69
-89
-98
-91
-89
-103
-95
-80
-102
-125
-225
-343
219
1582
2137
908
-494
-586
-150
-115
-195
-148
-147
-165
-133
-120
-124
-105
-88
-82
-66
-43
-24
-6
19
49
80
114
153
183
200
216
223
197
145
88
26
-39
-88
-118
-136
-143
-145
-149
-152
-151
-149
-146
-137
-126
-118
-114
-112
-104
-94
-92
-91
-86
-86
-91
-95
-105
-113
-100
-75
-52
-30
-27
-53
-74
-74
-75
-76
-75
-87
-80
-66
-87
-96
-160
-270
237
1566
2158
896
-665
-842
-293
-111
-159
-125
-108
-116
-89
-73
-73
-62
-49
-33
-15
-1
17
42
68
99
140
184
225
257
277
296
306
282
228
164
97
27
-37
-89
-120
-132
-138
-146
-150
-147
-141
-130
-119
-118
-119
-112
-104
-106
-107
-107
-115
-120
-111
-102
-91
-70
-62
-77
-95
-109
-115
-98
-93
-111
-92
-72
-98
-109
-214
-297
459
1912
2090
376
-1016
-780
-177
-128
-181
-107
-85
-83
-61
-66
-62
-37
-35
-40
-18
5
9
28
78
125
156
198
246
272
290
309
302
259
203
139
58
-22
-76
-109
-135
-151
-152
-149
-156
-163
-163
-158
-147
-134
-133
-132
-121
-120
-125
-105
-88
-109
-128
-116
-94
-69
-41
-43
-79
-104
-100
-90
-86
-96
-107
-85
-84
-130
-175
-289
-193
833
2214
2045
341
-687
-386
-81
-197
-216
-162
-209
-203
-140
-130
-132
-101
-85
-99
-94
-59
-45
-55
-21
50
87
108
150
183
196
206
197
153
90
42
15
-31
-106
-145
-128
-119
-141
-158
-163
-162
-157
-150
-144
-133
-122
-108
-89
-82
-99
-115
-112
-98
-92
-97
-87
-55
-24
-13
-17
-40
-70
-71
-52
-67
-94
-63
-24
-58
-106
-201
-339
125
1502
2333
1322
-219
-548
-156
-83
-176
-156
-167
-177
-122
-118
-139
-94
-56
-84
-94
-51
-21
-18
0
29
56
105
165
196
219
243
222
175
166
149
62
-25
-54
-80
-112
-116
-121
-138
-138
-134
-140
-127
-99
-89
-105
-113
-97
-80
-78
-75
-78
-98
-109
-94
-72
-61
-48
-25
-13
-34
-64
-81
-90
-85
-79
-89
-87
-89
-105
-108
-226
-289
467
1806
1929
399
-815
-659
-194
-139
-163
-128
-140
-137
-108
-100
-86
-70
-70
-53
-21
-13
-12
25
74
105
138
186
223
243
262
279
279
250
188
110
40
-22
-77
-119
-146
-166
-176
-177
-175
-169
-159
-157
-157
-143
-131
-124
-106
-88
-91
-104
-117
-118
-104
-92
-78
-44
-32
-62
-83
-80
-85
-89
-90
-95
-83
-80
-101
-104
-221
-262
609
2097
2185
445
-891
-695
-191
-157
-186
-131
-137
-135
-91
-83
-100
-93
-69
-49
-33
-11
12
39
73
109
147
194
242
270
291
309
300
252
192
126
43
-36
-90
-130
-157
-169
-179
-193
-203
-202
-193
-183
-173
-158
-140
-130
-130
-135
-140
-142
-144
-145
-135
-108
-73
-52
-58
-78
-92
-102
-105
-89
-81
-95
-87
-81
-110
-130
-237
-291
517
2076
2443
857
-633
-616
-156
-154
-229
-171
-163
-169
-137
-124
-123
-109
-98
-90
-82
-65
-36
-9
10
43
88
115
127
160
210
237
243
244
214
138
39
-54
-106
-124
-164
-212
-213
-188
-180
-173
-179
-212
-205
-133
-97
-138
-161
-123
-83
-80
-108
-138
-124
-88
-84
-64
-4
-13
-92
-99
-34
-30
-89
-107
-58
-32
-90
-112
-104
-261
-85
1164
2411
1824
113
-607
-300
-133
-179
-126
-124
-161
-105
-73
-101
-82
-47
-64
-64
-8
25
7
5
45
89
128
168
200
230
260
259
238
229
184
65
-41
-77
-109
-153
-163
-163
-178
-167
-143
-160
-199
-207
-172
-124
-106
-117
-123
-122
-131
-138
-141
-146
-139
-118
-101
-88
-71
-66
-85
-107
-112
-114
-114
-118
-121
-95
-85
-122
-122
-182
-299
288
1726
2247
815
-761
-857
-312
-161
-186
-133
-118
-121
-99
-98
-94
-69
-63
-62
-32
-2
9
31
72
101
127
177
239
285
310
331
346
333
277
189
97
17
-47
-100
-135
-152
-163
-170
-165
-153
-147
-148
-148
-137
-117
-107
-103
-105
-114
-112
-102
-114
-132
-120
-101
-93
-68
-45
-61
-85
-91
-101
-102
-86
-95
-102
-86
-104
-115
-149
-325
-27
1398
2554
1585
-377
-1006
-477
-173
-198
-161
-135
-155
-132
-110
-111
-99
-80
-66
-50
-37
-20
9
38
67
110
167
218
251
274
301
326
320
270
193
114
38
-33
-92
-129
-149
-158
-159
-160
-160
-156
-150
-144
-132
-124
-120
-119
-128
-132
-116
-110
-137
-150
-126
-109
-102
-73
-47
-63
-93
-107
-122
-124
-100
-102
-113
-95
-109
-133
-160
-331
-146
1174
2531
1902
-43
-909
-485
-159
-209
-208
-179
-193
-161
-130
-140
-133
-105
-96
-91
-76
-56
-28
9
42
74
111
156
206
246
268
287
293
251
173
103
40
-33
-94
-128
-150
-157
-152
-157
-169
-163
-146
-137
-132
-124
-121
-117
-114
-115
-112
-105
-116
-131
-118
-90
-70
-51
-39
-59
-86
-91
-92
-94
-94
-103
-93
-73
-100
-117
-175
-327
116
1611
2587
1469
-354
-804
-318
-145
-212
-170
-154
-180
-151
-130
-133
-112
-92
-90
-76
-48
-28
-11
16
49
88
136
184
216
241
272
291
270
217
150
81
15
-48
-103
-136
-151
-162
-168
-167
-164
-159
-154
-149
-136
-124
-123
-125
-119
-114
-111
-118
-138
-143
-117
-88
-67
-47
-44
-69
-91
-102
-106
-94
-90
-104
-89
-76
-106
-114
-211
-325
384
1962
2467
941
-633
-697
-218
-162
-211
-155
-155
-166
-134
-122
-119
-104
-97
-86
-60
-40
-27
-8
17
50
97
151
192
219
249
280
290
270
221
149
69
-2
-61
-109
-144
-158
-153
-147
-150
-152
-148
-144
-136
-129
-128
-125
-117
-115
-117
-114
-120
-139
-144
-123
-95
-75
-53
-42
-62
-93
-106
-97
-82
-88
-114
-100
-73
-106
-120
-170
-334
104
1600
2520
1328
-485
-873
-353
-157
-205
-168
-154
-167
-136
-115
-113
-99
-86
-76
-62
-50
-35
-6
31
64
98
145
195
235
268
292
297
279
235
168
96
20
-57
-112
-136
-153
-172
-175
-164
-157
-155
-151
-143
-136
-135
-135
-130
-124
-124
-124
-122
-129
-147
-153
-128
-94
-79
-69
-54
-59
-85
-101
-99
-87
-86
-98
-83
-68
-104
-122
-191
-329
211
1730
2503
1214
-485
-746
-256
-136
-197
-150
-140
-156
-125
-105
-101
-87
-78
-71
-52
-33
-13
9
27
54
104
158
199
230
258
286
302
283
230
165
98
25
-43
-88
-114
-135
-152
-156
-151
-147
-144
-137
-128
-123
-118
-119
-123
-113
-95
-95
-110
-113
-119
-138
-140
-115
-90
-75
-53
-49
-76
-95
-94
-98
-97
-95
-108
-94
-79
-116
-129
-203
-353
203
1735
2464
1130
-542
-755
-259
-155
-217
-161
-147
-163
-132
-116
-121
-110
-93
-74
-51
-43
-39
-13
27
62
96
135
178
212
235
261
284
269
216
154
89
14
-56
-103
-130
-144
-153
-158
-158
-152
-146
-143
-145
-142
-130
-122
-120
-112
-105
-111
-118
-122
-134
-145
-136
-117
-98
-72
-42
-40
-68
-93
-99
-94
-83
-86
-95
-75
-80
-115
-110
-229
-318
542
2117
2300
560
-847
-714
-222
-161
-173
-128
-141
-136
-102
-96
-89
-71
-63
-49
-29
-13
8
33
57
99
154
198
233
273
309
334
338
307
246
173
99
24
-49
-106
-135
-147
-157
-161
-154
-149
-148
-143
-135
-131
-128
-124
-120
-118
-121
-126
-125
-130
-148
-153
-130
-104
-86
-69
-64
-80
-97
-104
-104
-98
-103
-115
-93
-82
-117
-124
-225
-342
370
1916
2365
839
-676
-702
-222
-162
-209
-163
-165
-160
-122
-122
-125
-98
-78
-70
-56
-40
-23
2
27
55
94
142
186
221
247
265
268
244
191
128
65
-3
-71
-122
-148
-158
-169
-180
-178
-164
-151
-144
-140
-136
-127
-117
-111
-108
-107
-110
-112
-121
-134
-128
-100
-78
-55
-31
-39
-72
-85
-85
-86
-79
-85
-89
-64
-74
-103
-115
-265
-203
895
2297
1996
199
-811
-484
-122
-162
-176
-127
-129
-119
-99
-100
-86
-65
-62
-54
-31
-14
7
34
54
79
130
184
214
239
267
281
275
245
186
120
55
-16
-79
-115
-139
-160
-164
-157
-155
-149
-138
-140
-141
-129
-121
-120
-113
-109
-115
-114
-114
-135
-151
-127
-96
-82
-63
-45
-64
-97
-104
-100
-100
-100
-106
-97
-88
-116
-121
-181
-349
77
1504
2373
1250
-445
-800
-314
-142
-194
-158
-143
-156
-131
-114
-108
-89
-79
-71
-56
-43
-24
8
38
64
100
139
173
206
235
257
267
252
204
140
78
17
-44
-98
-137
-158
-167
-167
-158
-151
-150
-145
-138
-134
-122
-104
-105
-121
-126
-119
-118
-130
-145
-140
-113
-87
-64
-38
-37
-70
-94
-92
-86
-82
-89
-91
-68
-71
-100
-111
-248
-249
732
2209
2159
427
-749
-516
-125
-156
-181
-133
-149
-140
-102
-103
-106
-89
-80
-69
-41
-17
-3
22
53
81
116
155
191
227
261
280
281
256
203
135
65
-8
-76
-121
-139
-146
-154
-159
-153
-142
-140
-140
-129
-116
-111
-109
-106
-107
-110
-118
-140
-157
-140
-110
-91
-74
-57
-61
-81
-97
-112
-117
-102
-104
-116
-91
-92
-126
-122
-241
-275
685
2217
2177
318
-962
-688
-202
-184
-195
-142
-156
-147
-110
-108
-106
-87
-75
-59
-39
-27
-9
29
68
96
130
174
215
249
280
301
302
272
211
132
51
-23
-83
-127
-157
-172
-178
-180
-173
-164
-159
-153
-144
-138
-131
-120
-114
-121
-128
-128
-139
-158
-151
-120
-99
-87
-65
-57
-75
-90
-93
-96
-91
-90
-101
-85
-76
-103
-113
-225
-284
556
2111
2385
749
-659
-572
-136
-153
-208
-149
-156
-162
-125
-115
-116
-101
-90
-78
-59
-45
-28
-3
22
55
100
146
180
206
230
251
259
238
187
122
58
-2
-60
-108
-134
-143
-150
-156
-153
-144
-140
-137
-127
-116
-115
-114
-106
-104
-110
-115
-126
-145
-153
-133
-106
-85
-63
-51
-63
-83
-94
-101
-94
-80
-92
-95
-74
-90
-113
-174
-332
38
1460
2512
1536
-266
-769
-290
-112
-202
-169
-140
-162
-140
-118
-117
-102
-88
-83
-70
-50
-31
-10
12
41
79
122
162
196
222
243
259
252
212
153
88
13
-60
-110
-139
-158
-165
-163
-159
-154
-150
-147
-142
-136
-132
-132
-129
-118
-111
-117
-126
-131
-142
-153
-141
-114
-101
-91
-68
-55
-71
-94
-106
-105
-90
-89
-97
-75
-81
-119
-111
-227
-287
634
2196
2248
426
-907
-680
-195
-166
-173
-123
-144
-137
-97
-95
-88
-66
-58
-48
-26
-8
13
43
77
115
156
198
244
284
311
335
348
320
249
170
101
29
-45
-100
-132
-152
-159
-154
-154
-158
-149
-134
-129
-126
-118
-112
-111
-106
-103
-109
-118
-128
-146
-158
-143
-117
-95
-76
-66
-79
-93
-98
-109
-113
-100
-103
-104
-84
-101
-126
-152
-314
-130
1146
2450
1824
-63
-871
-433
-136
-206
-191
-150
-169
-151
-127
-134
-123
-104
-94
-79
-59
-45
-26
0
31
67
109
154
196
225
243
262
267
233
173
110
43
-28
-86
-124
-142
-148
-152
-160
-164
-159
-147
-131
-124
-128
-123
-108
-98
-95
-91
-92
-101
-105
-112
-132
-140
-117
-89
-71
-51
-42
-60
-81
-86
-87
-79
-75
-90
-82
-64
-90
-108
-187
-319
237
1744
2495
1207
-474
-716
-218
-114
-198
-150
-131
-148
-123
-106
-102
-85
-75
-71
-56
-34
-14
4
26
58
95
129
171
217
246
259
272
265
216
147
82
16
-48
-98
-130
-151
-160
-162
-161
-151
-139
-137
-137
-127
-116
-111
-106
-100
-96
-95
-99
-106
-108
-118
-140
-143
-116
-87
-64
-42
-46
-75
-90
-94
-104
-94
-85
-96
-84
-77
-108
-116
-224
-319
464
2017
2320
648
-843
-763
-230
-158
-196
-143
-136
-136
-113
-113
-106
-85
-80
-70
-38
-14
-4
16
51
89
126
171
218
254
285
317
328
300
243
176
105
31
-46
-107
-136
-147
-163
-180
-180
-167
-161
-157
-139
-123
-127
-135
-132
-125
-113
-103
-112
-123
-122
-131
-145
-131
-103
-91
-79
-60
-64
-84
-92
-100
-100
-85
-99
-111
-73
-80
-116
-110
-263
-207
974
2409
1902
-124
-1102
-626
-192
-188
-158
-113
-133
-122
-103
-100
-80
-68
-66
-42
-19
-14
6
42
73
108
158
208
250
283
311
340
351
313
236
156
83
10
-62
-116
-144
-156
-165
-170
-165
-154
-148
-143
-136
-130
-122
-109
-98
-97
-98
-95
-97
-108
-116
-123
-127
-116
-92
-69
-48
-36
-47
-67
-78
-86
-81
-68
-79
-86
-66
-79
-99
-131
-293
-48
1294
2528
1762
-130
-832
-358
-95
-176
-156
-120
-145
-122
-92
-96
-87
-68
-60
-49
-34
-23
-8
22
54
83
121
168
210
241
264
281
279
242
181
115
47
-26
-90
-133
-156
-165
-169
-174
-176
-177
-173
-162
-151
-148
-144
-132
-125
-127
-126
-127
-136
-144
-154
-168
-167
-145
-124
-106
-88
-89
-112
-126
-133
-142
-134
-124
-136
-129
-117
-143
-157
-255
-374
289
1844
2447
1027
-576
-707
-233
-179
-254
-199
-187
-205
-178
-162
-159
-142
-130
-119
-99
-79
-61
-37
-6
25
61
108
158
195
224
256
277
263
215
159
102
34
-32
-74
-97
-113
-116
-112
-109
-101
-86
-75
-67
-52
-35
-27
-19
-6
1
3
11
18
15
