# session 9
-52
-34
-91
51
397
564
502
480
507
458
373
311
245
181
144
125
115
114
111
98
90
94
102
111
113
85
42
19
-1
-10
11
-10
-51
-98
-362
-425
667
2052
1572
-302
-1062
-459
-48
-97
-75
-32
-58
-33
-1
-2
23
57
75
108
150
173
178
164
139
133
145
142
109
62
15
-34
-81
-110
-114
-108
-109
-103
-78
-52
-36
-17
-8
-37
-74
-82
-93
-106
-97
-110
-135
-217
-485
-371
883
2097
1347
-441
-927
-303
-67
-200
-159
-107
-146
-129
-96
-90
-59
-21
-1
26
62
93
108
93
60
47
59
51
6
-46
-80
-108
-139
-158
-160
-159
-162
-168
-166
-136
-95
-79
-82
-86
-106
-129
-139
-154
-151
-136
-155
-186
-339
-610
-199
1212
1920
703
-744
-748
-191
-127
-201
-129
-115
-133
-97
-79
-71
-32
2
27
70
110
128
129
111
92
92
97
77
33
-17
-62
-93
-107
-110
-109
-103
-98
-96
-88
-64
-38
-21
-11
-20
-49
-68
-73
-84
-75
-65
-93
-112
-261
-559
-183
1182
1833
615
-770
-728
-146
-43
-94
-27
-14
-26
-1
8
28
81
110
123
159
199
222
238
244
234
222
218
198
149
91
45
2
-41
-63
-57
-46
-40
-43
-54
-58
-41
-25
-23
-20
-27
-56
-74
-83
-98
-83
-72
-102
-131
-317
-549
107
1603
1887
247
-1094
-816
-191
-109
-132
-71
-80
-88
-55
-44
-25
13
36
55
91
122
134
126
105
85
81
84
71
34
-14
-61
-102
-133
-147
-147
-144
-144
-137
-115
-91
-71
-49
-36
-57
-94
-116
-131
-137
-112
-105
-136
-190
-404
-468
479
1881
1702
-14
-909
-413
-30
-158
-168
-84
-114
-117
-75
-71
-62
-25
9
34
51
64
79
72
40
20
28
36
16
-19
-44
-57
-77
-101
-108
-101
-98
-100
-107
-119
-119
-101
-79
-59
-40
-46
-74
-89
-96
-103
-82
-79
-118
-141
-313
-519
177
1680
1919
276
-956
-595
-43
-84
-131
-45
-58
-72
-31
-16
2
36
52
76
113
136
154
164
145
118
120
133
119
76
28
-12
-44
-64
-70
-70
-69
-63
-58
-67
-84
-85
-63
-42
-29
-24
-46
-76
-82
-86
-88
-71
-85
-116
-181
-451
-467
608
1849
1297
-424
-972
-319
3
-122
-100
-39
-71
-53
-14
-14
1
29
46
74
112
131
125
106
85
78
87
91
71
29
-14
-48
-75
-87
-80
-76
-80
-74
-72
-99
-121
-103
-76
-68
-55
-41
-56
-79
-87
-101
-98
-75
-94
-116
-181
-480
-469
664
1810
1093
-585
-963
-269
15
-98
-66
-23
-54
-24
18
17
26
55
85
117
146
168
173
154
130
122
127
127
97
44
3
-23
-54
-72
-63
-57
-68
-73
-72
-78
-88
-90
-79
-55
-27
-18
-41
-72
-77
-80
-92
-78
-77
-94
-128
-375
-544
283
1593
1391
-249
-1029
-460
-20
-91
-83
-8
-39
-43
-5
-3
3
34
64
100
142
163
156
135
111
97
104
110
86
42
0
-42
-81
-98
-100
-100
-93
-86
-94
-105
-111
-114
-108
-85
-64
-54
-56
-75
-97
-109
-116
-101
-86
-111
-122
-224
-521
-347
809
1613
710
-655
-779
-219
-56
-116
-68
-50
-68
-40
-17
0
40
73
98
140
181
202
206
192
170
165
177
170
130
83
37
-23
-69
-69
-53
-54
-56
-53
-57
-58
-59
-74
-77
-55
-38
-28
-21
-39
-70
-84
-92
-77
-51
-75
-83
-129
-400
-282
887
1757
697
-985
-1192
-435
-85
-80
-20
3
-9
25
45
49
79
115
142
169
196
232
260
246
209
191
190
171
124
68
14
-38
-89
-126
-135
-123
-114
-115
-115
-111
-110
-106
-96
-83
-73
-75
-99
-122
-127
-130
-117
-97
-121
-150
-239
-499
-324
919
1947
1077
-576
-892
-252
-39
-159
-119
-79
-112
-91
-65
-63
-28
11
26
49
85
108
112
100
75
58
59
52
19
-20
-50
-74
-95
-115
-128
-123
-107
-98
-96
-103
-111
-98
-60
-29
-19
-19
-35
-56
-67
-79
-82
-68
-82
-96
-165
-439
-369
802
1964
1264
-431
-873
-240
9
-121
-88
-36
-71
-60
-32
-26
3
36
60
100
137
158
168
160
139
133
133
114
77
38
-1
-40
-74
-90
-90
-90
-87
-74
-68
-83
-99
-95
-68
-39
-21
-24
-53
-79
-76
-83
-97
-80
-80
-106
-185
-447
-417
676
1868
1292
-362
-854
-241
18
-121
-92
-32
-71
-64
-31
-24
-2
27
46
73
104
128
145
131
93
77
95
92
44
-6
-30
-55
-89
-106
-101
-100
-110
-110
-99
-100
-116
-120
-107
-98
-87
-58
-39
-68
-111
-120
-108
-91
-94
-124
-137
-287
-603
-254
1119
1790
515
-937
-840
-171
-78
-161
-78
-55
-82
-45
-17
-29
-32
-8
35
91
152
195
191
157
129
110
104
114
95
27
-39
-63
-68
-62
-25
-2
-31
-40
19
65
48
12
-17
-42
-77
-104
-67
-23
-68
-114
-107
-142
-157
-74
-8
-40
-288
-575
28
1461
1727
174
-1043
-720
-81
66
98
139
125
177
198
57
-76
-80
-38
44
192
294
288
278
269
170
98
197
307
261
156
94
36
-36
-81
-83
-68
-70
-83
-77
-64
-87
-117
-100
-95
-145
-151
-120
-164
-198
-179
-281
-409
-334
-224
-249
-355
-484
-94
1079
1548
196
-1335
-1374
-654
-232
-82
-21
44
118
-4
-237
-249
-63
66
65
57
153
246
208
186
312
453
464
343
194
166
205
113
-35
-29
29
-19
-51
25
87
76
8
-85
-102
-48
-63
-131
-151
-165
-192
-165
-140
-216
-276
-169
-109
-187
327
1662
2135
527
-1439
-1738
-930
-347
-132
-105
-196
-139
22
19
-10
87
147
141
155
180
275
404
400
353
401
399
309
287
266
108
-90
-190
-168
-76
-49
-127
-144
-76
-109
-187
-124
-41
-52
0
77
-59
-284
-308
-201
-140
-131
-178
-226
-220
-292
-77
1135
2370
1638
-420
-1278
-679
-192
-160
-84
-36
-131
-141
-30
-10
-111
-121
-3
43
2
45
149
213
282
351
330
252
166
31
-81
-83
-119
-254
-289
-220
-237
-266
-186
-160
-248
-263
-177
-142
-208
-294
-293
-238
-278
-349
-290
-244
-275
-213
-287
-364
679
2440
2337
67
-1427
-966
-281
-227
-186
-51
-70
-97
-32
19
50
89
107
145
213
234
249
359
473
476
435
380
254
147
122
48
-78
-121
-117
-140
-146
-134
-95
20
95
8
-67
16
32
-187
-399
-389
-298
-263
-226
-192
-189
-135
-113
-111
528
1839
2094
375
-1365
-1333
-484
-190
-226
-144
-171
-319
-270
-124
-166
-239
-166
-153
-238
-160
95
294
319
223
163
235
283
172
33
-39
-125
-198
-185
-170
-165
-72
11
-31
-55
22
70
54
50
60
57
33
-14
-26
59
125
-8
-128
18
-2
-169
755
2474
2407
252
-1098
-623
-73
-161
-211
-127
-149
-191
-222
-266
-242
-186
-199
-196
-69
122
271
335
330
305
265
192
102
18
-52
-101
-170
-298
-426
-477
-448
-374
-280
-221
-268
-376
-382
-279
-243
-257
-162
-116
-323
-460
-269
-116
-202
-339
-483
-50
1529
2628
1329
-837
-1304
-540
-169
-177
-90
-47
-62
2
31
-14
36
173
240
264
347
439
475
462
389
312
357
450
402
263
203
154
16
-85
-79
-47
14
62
-39
-163
-119
-67
-179
-286
-264
-236
-253
-250
-241
-237
-177
-110
-131
-207
-213
268
1501
2292
1136
-908
-1542
-849
-344
-260
-228
-338
-471
-387
-269
-272
-264
-207
-176
-176
-157
-53
110
187
165
188
246
194
55
-22
-28
-46
-84
-134
-204
-224
-147
-79
-65
-1
80
38
-14
94
175
57
-26
57
89
53
77
5
-117
-48
-89
-119
950
2534
2205
55
-1148
-683
-109
33
128
103
-48
-82
-82
-174
-214
-144
-98
-94
-30
75
143
193
265
298
248
163
79
-24
-117
-156
-192
-312
-467
-526
-484
-425
-355
-291
-355
-499
-438
-169
-79
-245
-320
-257
-284
-335
-289
-245
-268
-418
-402
672
2378
2393
294
-1246
-923
-266
-191
-165
-24
27
70
142
160
147
125
102
145
256
378
490
538
505
491
497
422
312
230
129
46
50
74
38
-60
-136
-73
10
-90
-167
13
142
-7
-124
-74
-121
-291
-363
-292
-200
-175
-197
-220
-184
318
1461
1998
717
-1091
-1405
-614
-203
-278
-273
-199
-269
-391
-363
-200
-100
-97
-86
-75
-74
-49
-30
-2
90
140
51
-47
-6
81
30
-122
-191
-163
-136
-99
-82
-162
-250
-226
-150
-113
-104
-94
-104
-132
-123
-92
-129
-193
-194
-157
-57
23
-127
64
1370
2501
1478
-576
-1099
-341
3
-79
-4
46
8
79
144
102
86
132
136
70
32
105
221
267
255
256
264
206
85
23
33
-49
-218
-275
-203
-158
-178
-192
-159
-124
-164
-233
-219
-191
-309
-486
-491
-350
-307
-395
-392
-209
-181
-567
-480
1108
2725
1898
-458
-1388
-698
-184
-224
-212
-117
-100
-96
-62
-15
26
48
99
206
285
277
268
325
375
376
400
447
395
241
142
133
101
22
-29
-30
-12
-22
-38
64
242
251
128
114
92
-80
-119
72
139
-54
-222
-204
-251
-363
252
1679
2080
438
-1248
-1197
-435
-255
-353
-309
-295
-333
-314
-291
-291
-295
-311
-258
-105
-21
-57
-2
153
138
-28
-79
-73
-181
-267
-278
-362
-405
-270
-170
-211
-221
-190
-208
-234
-237
-208
-97
0
-22
-39
-37
-183
-322
-232
-165
-245
-232
-269
-123
1233
2956
2418
-1
-1137
-478
0
-119
-113
-62
-141
-145
-62
29
136
194
183
215
318
427
521
598
624
551
368
195
155
138
-7
-180
-240
-245
-260
-260
-235
-207
-221
-293
-315
-211
-103
-135
-259
-306
-260
-287
-329
-216
-145
-254
-363
-508
-250
1290
2878
2067
-311
-1298
-731
-380
-495
-434
-262
-213
-204
-153
-109
-124
-145
-114
-52
49
209
310
296
293
311
254
168
98
2
-63
-47
-55
-131
-169
-125
-95
-141
-150
-47
21
-14
19
92
32
-46
-37
-64
-68
14
23
-12
-48
37
973
2534
2635
704
-924
-919
-418
-268
-262
-289
-336
-317
-286
-270
-215
-174
-173
-138
-83
-67
-50
-16
-8
7
16
-84
-225
-258
-266
-356
-404
-334
-295
-348
-388
-384
-378
-326
-205
-128
-130
-112
-79
-106
-135
-105
-70
-83
-132
-160
-190
-216
282
1588
2355
1240
-512
-971
-486
-279
-379
-412
-398
-356
-271
-227
-221
-183
-123
-76
-16
95
236
364
469
536
555
580
625
612
525
451
441
443
381
299
313
351
297
266
306
252
120
69
38
-60
-134
-144
-173
-253
-340
-353
-348
-456
-207
990
2023
1094
-976
-1765
-1100
-532
-502
-529
-490
-486
-538
-567
-468
-315
-235
-175
-90
-22
80
237
335
373
450
517
476
370
263
136
7
-31
39
93
61
9
-48
-168
-274
-246
-159
-142
-157
-151
-169
-211
-214
-189
-202
-221
-158
-170
-322
170
1717
2589
1224
-741
-1086
-408
-127
-139
-42
4
-15
16
32
28
77
156
183
95
-23
26
205
282
227
169
116
54
51
75
-11
-192
-295
-291
-314
-367
-347
-294
-278
-246
-188
-182
-238
-280
-249
-186
-198
-269
-306
-333
-343
-366
-480
-89
1352
2394
1323
-556
-1000
-405
-143
-170
-107
-79
-57
4
-47
-128
-95
-98
-185
-167
-29
78
126
160
212
264
237
151
140
195
199
151
109
62
6
-11
-1
-25
-40
20
74
48
18
14
-37
-105
-68
53
58
-51
-56
-138
-340
361
2033
2358
378
-1420
-1359
-665
-375
-207
-60
-58
-92
-132
-184
-153
-83
-68
-28
87
175
212
279
342
324
259
180
71
-15
-53
-123
-202
-228
-300
-402
-350
-218
-219
-274
-232
-159
-151
-170
-127
-56
-88
-157
-127
-131
-197
-166
-259
-380
492
2093
2196
376
-976
-776
-304
-239
-219
-208
-244
-176
-102
-103
-66
-10
36
167
301
310
350
534
645
561
487
486
411
345
410
406
235
106
42
-109
-255
-237
-166
-204
-299
-326
-286
-253
-251
-271
-312
-340
-323
-343
-407
-382
-386
-398
332
1709
1841
89
-1362
-1135
-468
-346
-339
-226
-221
-234
-152
-104
-129
-134
-98
-39
34
97
148
207
253
256
251
267
242
136
40
14
-25
-131
-230
-252
-241
-261
-282
-256
-216
-180
-114
-83
-126
-139
-89
-53
-39
-31
-12
-46
-237
-5
1392
2710
1883
-226
-1060
-480
-30
-68
-93
13
85
25
-45
-4
12
-14
55
111
83
165
326
335
236
188
134
31
-15
-5
-57
-162
-227
-248
-260
-270
-272
-243
-183
-146
-156
-162
-170
-227
-260
-200
-126
-118
-159
-171
-158
-291
-215
917
2353
1947
-60
-1127
-700
-297
-353
-360
-333
-364
-312
-244
-285
-335
-252
-78
30
26
6
41
128
188
110
-45
-117
-103
-107
-157
-210
-204
-164
-183
-216
-156
-61
-39
-56
-18
58
75
48
52
19
-46
-11
44
18
-44
-225
-33
1435
3025
2348
108
-872
-370
-16
-44
29
97
94
124
126
101
108
104
81
83
117
147
137
139
209
214
82
11
71
50
-93
-177
-190
-236
-292
-316
-340
-352
-293
-174
-84
-83
-141
-206
-252
-280
-293
-300
-344
-364
-346
-488
-343
982
2478
1929
-134
-1150
-775
-403
-339
-293
-348
-385
-245
-132
-147
-193
-252
-268
-195
-133
-102
-18
57
39
45
160
219
112
-8
-42
-81
-130
-117
-90
-118
-151
-131
-95
-86
-62
-27
-34
-39
-16
-41
-93
-116
-117
-100
-230
-327
557
2156
2227
305
-1089
-815
-317
-308
-307
-282
-302
-171
-27
-62
-112
-97
-118
-138
-75
20
88
146
221
278
269
218
187
158
85
4
-13
2
-48
-139
-136
-23
74
118
151
156
142
172
188
132
125
202
227
214
161
22
359
1664
2867
2306
-19
