# session 13
-140
-177
-60
-53
-412
-764
-685
-486
-542
-654
-658
-696
-741
-674
-577
-512
-428
-368
-403
-488
-565
-596
-528
-451
-474
-461
-445
-593
-185
1393
2479
1310
-597
-1000
-460
-307
-364
-276
-228
-184
-65
-11
13
107
157
126
149
221
235
218
239
278
318
342
294
199
152
109
-8
-89
-44
50
133
217
256
203
130
121
88
-5
-4
57
12
-23
-54
-83
654
2110
2222
306
-1216
-976
-387
-337
-331
-268
-318
-326
-258
-197
-145
-158
-195
-120
-22
-34
-32
89
185
165
159
226
256
218
165
80
3
26
74
54
54
109
99
22
-27
-50
-42
32
51
-34
-58
-163
-296
533
2222
2456
497
-1093
-840
-197
-149
-140
20
38
-20
-5
28
35
28
28
64
116
148
175
186
147
108
114
100
25
-74
-150
-180
-184
-192
-176
-121
-85
-98
-159
-250
-290
-284
-341
-406
-392
-403
-427
-441
-502
-12
1407
2117
701
-1126
-1329
-674
-465
-519
-472
-427
-402
-389
-387
-319
-235
-223
-215
-172
-136
-90
-38
-22
7
92
158
160
127
71
1
-47
-64
-57
-28
13
40
21
-25
-51
-90
-142
-105
-42
-67
-105
-216
-213
742
2273
2294
541
-646
-368
20
-38
-13
114
113
83
98
117
132
130
119
158
243
281
236
178
144
107
69
31
-9
-13
20
14
-47
-90
-82
-62
-62
-77
-101
-140
-193
-233
-216
-196
-279
-348
-328
-440
-235
1100
2343
1392
-753
-1462
-814
-416
-434
-410
-394
-396
-347
-317
-296
-234
-169
-121
-77
-39
4
67
134
173
202
236
226
144
67
36
-17
-80
-54
25
42
25
26
-7
-63
-77
-69
-56
-61
-104
-88
-140
-323
260
1897
2516
848
-914
-880
-203
-78
-89
36
56
31
78
115
101
101
157
210
188
170
225
236
157
129
159
93
-50
-114
-92
-86
-114
-141
-156
-137
-85
-63
-102
-159
-201
-243
-277
-267
-280
-339
-344
-410
-431
407
1850
1847
-3
-1307
-977
-430
-408
-406
-326
-336
-332
-292
-277
-261
-236
-203
-161
-118
-36
59
40
-55
-50
18
10
-13
29
37
-40
-97
-84
-68
-72
-62
-55
-81
-115
-136
-138
-95
-69
-107
-98
-135
-250
353
1852
2371
867
-682
-674
-128
-46
-75
2
14
24
88
106
83
88
118
148
165
166
183
219
237
262
328
330
190
22
-71
-129
-155
-114
-51
-8
30
43
-8
-76
-109
-141
-168
-134
-126
-185
-205
-300
-280
750
2297
2063
-80
-1381
-882
-261
-257
-280
-224
-252
-250
-208
-209
-199
-148
-118
-125
-117
-75
-41
-28
-7
33
75
109
121
76
-34
-138
-151
-89
-33
-5
5
-24
-78
-114
-153
-180
-163
-185
-238
-239
-378
-374
694
2130
1738
-237
-1224
-724
-292
-325
-289
-217
-232
-206
-166
-160
-130
-98
-99
-79
-35
-5
15
36
39
37
74
130
139
103
67
24
-31
-42
4
53
60
20
-30
-50
-62
-76
-44
-27
-75
-90
-189
-326
380
1965
2417
862
-604
-578
-163
-174
-202
-134
-147
-145
-105
-107
-96
-50
-26
-13
16
42
62
82
93
101
120
147
150
113
57
3
-41
-61
-50
-30
-14
-17
-64
-119
-144
-167
-184
-190
-215
-204
-259
-464
-35
1458
2183
653
-1200
-1249
-467
-269
-337
-262
-247
-271
-224
-194
-183
-132
-89
-81
-62
-22
10
23
19
9
20
53
57
20
-11
-30
-62
-77
-48
-9
26
50
28
-15
-29
-45
-64
-47
-69
-115
-141
-332
-300
866
2257
1677
-326
-1133
-531
-154
-233
-201
-148
-179
-148
-101
-96
-70
-37
-24
-1
26
47
70
78
68
88
151
202
198
154
105
75
65
67
72
90
109
87
35
12
-2
-29
-27
-36
-78
-110
-309
-446
495
2141
2197
330
-935
-610
-171
-241
-256
-177
-204
-207
-158
-147
-141
-111
-79
-50
-27
-18
-10
-5
-12
1
49
87
68
21
-17
-53
-83
-83
-64
-52
-56
-83
-123
-159
-199
-210
-169
-173
-210
-223
-419
-485
525
1902
1493
-383
-1196
-584
-159
-245
-238
-178
-205
-186
-134
-115
-91
-66
-58
-37
-7
8
11
9
11
48
110
137
113
86
61
22
-2
4
6
-2
-12
-32
-58
-89
-122
-118
-110
-137
-147
-283
-550
-111
1289
1921
712
-641
-666
-224
-195
-249
-194
-201
-222
-192
-179
-171
-138
-113
-101
-82
-61
-49
-46
-41
-16
36
89
116
110
86
68
61
59
66
82
100
106
86
56
29
5
11
30
8
-16
-120
-417
-227
1079
2119
1248
-347
-681
-178
-30
-105
-61
-61
-88
-41
-27
-53
-27
12
11
12
37
66
82
79
81
128
196
218
191
162
140
112
96
105
111
104
95
64
13
-30
-68
-88
-83
-120
-158
-197
-467
-517
598
1929
1338
-570
-1283
-652
-240
-270
-226
-184
-227
-205
-149
-135
-118
-79
-45
-30
-33
-32
-15
-9
-5
35
89
93
56
34
22
-10
-45
-49
-32
-18
-15
-42
-87
-114
-138
-171
-169
-162
-192
-229
-363
-410
340
1556
1446
-201
-1238
-789
-200
-177
-233
-208
-226
-211
-175
-179
-167
-133
-127
-134
-126
-106
-83
-71
-64
-38
5
38
35
8
-3
4
10
26
54
56
36
20
-8
-48
-57
-29
-18
-49
-67
-131
-387
-329
760
1927
1429
-111
-677
-264
-80
-162
-90
-16
-34
-12
25
13
-21
-42
4
101
142
113
93
92
83
107
172
210
184
137
108
96
91
90
112
161
175
107
26
10
31
39
7
-58
-53
-47
-351
-484
594
2012
1569
-283
-1051
-492
-122
-165
-132
-129
-183
-128
-73
-71
-21
-8
-74
-51
44
40
0
31
45
26
78
152
129
57
26
-6
-70
-69
4
13
-33
-48
-123
-249
-220
-102
-151
-303
-289
-204
-461
-664
317
1827
1523
-456
-1433
-832
-299
-277
-211
-147
-212
-244
-207
-147
-114
-138
-126
-49
-29
-52
6
81
70
70
158
181
71
12
65
44
-58
-52
14
-18
-46
14
24
-25
-13
18
-5
-68
-134
-148
-246
-364
332
1818
2062
292
-1135
-780
-105
-91
-128
-55
-146
-215
-173
-167
-114
24
80
38
-8
-34
-7
57
83
110
152
121
80
117
99
-14
-27
62
38
-51
-5
85
39
-39
-37
-47
-70
-71
-130
-189
-237
-431
-200
1126
2186
1223
-524
-874
-270
-77
-190
-169
-125
-137
-178
-199
-107
4
4
-19
0
-2
-25
-35
-25
24
96
120
106
113
99
16
-43
-7
45
59
62
38
-14
-34
-31
-52
-55
-51
-84
-123
-329
-624
-9
1625
2136
532
-956
-793
-217
-183
-251
-219
-224
-196
-151
-157
-167
-165
-134
-59
-4
4
11
17
22
65
130
144
93
44
11
-57
-101
-39
36
24
-10
-17
-44
-98
-142
-141
-123
-146
-144
-180
-505
-549
656
2033
1462
-342
-965
-423
-172
-262
-200
-162
-223
-199
-147
-160
-161
-104
-35
4
8
-7
-23
-31
-29
-4
34
39
-5
-33
-21
-31
-78
-96
-61
3
45
1
-66
-51
-44
-107
-105
-43
-61
-243
-552
-352
923
2023
1319
-205
-622
-209
-93
-182
-137
-121
-156
-129
-93
-83
-55
-18
7
30
45
43
37
37
53
96
148
156
116
75
60
55
56
68
91
119
129
102
66
36
-1
-11
3
-19
-36
-135
-447
-259
1079
2085
1052
-674
-964
-335
-116
-181
-131
-108
-128
-102
-91
-89
-53
-17
4
23
32
46
59
50
53
111
171
158
89
34
11
-12
-42
-46
-25
-9
-12
-42
-82
-108
-131
-141
-132
-157
-171
-231
-508
-392
866
1921
895
-988
-1342
-563
-214
-255
-192
-167
-206
-165
-124
-132
-112
-58
-13
14
32
54
68
55
50
82
111
91
36
-25
-75
-101
-94
-65
-29
-1
-2
-27
-41
-52
-81
-74
-48
-78
-109
-227
-513
-182
1250
2098
888
-740
-865
-273
-157
-225
-158
-152
-180
-142
-113
-101
-72
-51
-29
9
25
16
15
25
45
91
144
147
92
35
11
2
2
26
66
83
61
32
27
7
-42
-50
-34
-51
-80
-261
-478
181
1735
2218
790
-549
-484
-94
-143
-193
-125
-139
-151
-113
-98
-84
-58
-49
-31
6
24
18
9
10
30
66
92
80
32
-13
-32
-36
-36
-27
-4
17
-1
-45
-71
-92
-113
-104
-119
-151
-172
-421
-624
264
1751
1594
-244
-1238
-706
-206
-245
-240
-169
-192
-181
-127
-117
-113
-80
-46
-20
7
36
48
35
36
85
149
162
106
29
-10
-18
-33
-46
-40
-26
-15
-25
-65
-90
-98
-120
-124
-117
-147
-166
-301
-533
4
1479
1928
330
-1174
-965
-271
-179
-227
-145
-140
-151
-104
-78
-60
-19
14
40
73
99
107
105
109
143
194
211
170
100
44
11
-6
-3
17
48
73
65
32
9
-12
-36
-25
-24
-61
-95
-297
-491
281
1817
2012
379
-789
-465
-27
-117
-152
-71
-100
-116
-82
-83
-82
-62
-54
-35
-8
-9
-25
-28
-12
33
101
140
120
71
29
-1
-7
17
34
36
50
54
19
-24
-56
-66
-56
-81
-109
-149
-394
-441
528
1692
1218
-374
-953
-428
-128
-201
-178
-137
-163
-145
-122
-133
-118
-81
-61
-43
-24
-20
-28
-43
-46
-15
26
29
-5
-39
-60
-77
-80
-61
-41
-20
0
-11
-46
-69
-93
-104
-86
-103
-137
-197
-453
-484
466
1536
1008
-522
-1038
-503
-174
-205
-181
-147
-163
-146
-116
-101
-78
-51
-16
25
47
53
57
58
74
122
168
167
120
68
37
19
12
21
39
53
58
35
2
-16
-33
-34
-8
-29
-50
-87
-391
-474
607
1856
1230
-545
-1090
-430
-44
-68
-27
4
-21
4
26
23
51
83
98
123
150
159
149
138
151
198
234
213
150
90
51
20
-9
-16
5
29
37
18
-15
-30
-41
-64
-55
-52
-97
-136
-327
-602
-11
1536
2037
598
-733
-602
-153
-182
-220
-145
-169
-193
-154
-132
-106
-71
-62
-45
-3
31
49
42
19
33
85
95
40
-17
-48
-74
-95
-91
-68
-36
-15
-29
-55
-65
-84
-105
-93
-101
-122
-145
-375
-564
188
1487
1437
-80
-974
-584
-173
-205
-211
-154
-173
-168
-132
-126
-113
-77
-49
-23
5
26
32
20
13
45
89
89
47
6
-17
-37
-54
-54
-46
-35
-20
-17
-39
-58
-77
-106
-102
-87
-113
-115
-243
-576
-274
1064
1710
410
-1074
-1024
-346
-164
-190
-119
-98
-98
-57
-38
-24
16
47
69
107
145
158
148
138
155
194
218
197
136
75
47
39
32
39
58
71
81
83
61
26
-3
-8
14
-12
-56
-72
-308
-523
330
1809
1683
-145
-1163
-638
-117
-134
-123
-57
-89
-84
-41
-35
-22
9
29
51
75
88
87
77
80
119
162
164
117
50
2
-16
-32
-50
-45
-18
0
-9
-38
-57
-66
-90
-102
-76
-89
-129
-194
-465
-482
649
2011
1536
-235
-927
-402
-119
-221
-186
-138
-182
-167
-129
-126
-102
-68
-51
-19
25
42
35
30
50
99
143
135
86
33
-18
-63
-77
-63
-58
-52
-29
-28
-61
-84
-99
-111
-89
-80
-100
-128
-336
-510
245
1595
1596
38
-908
-497
-71
-134
-144
-69
-91
-89
-55
-67
-61
-23
-13
-6
21
21
-10
-24
-9
7
18
31
21
-20
-56
-74
-93
-98
-71
-32
-4
-3
-34
-63
-75
-82
-70
-61
-97
-118
-224
-522
-328
852
1627
665
-726
-845
-281
-112
-159
-112
-106
-129
-99
-82
-88
-77
-40
25
78
70
38
26
34
65
103
108
78
20
-45
-57
-15
-10
-53
-81
-77
-45
-6
-33
-95
-96
-62
-46
-48
-87
-129
-281
-604
-294
1155
2043
867
-738
-846
-221
-72
-161
-121
-70
-54
-27
13
43
23
24
119
175
120
116
193
204
158
155
176
170
121
49
23
33
-11
-55
-5
36
-10
-30
4
-3
-42
-65
-68
-61
-73
-66
-120
-431
-402
787
1984
1343
-261
-734
-267
-107
-217
-155
-42
-14
-24
-35
-22
3
31
78
106
95
95
105
95
90
113
134
110
43
-15
-36
-53
-84
-97
-77
-47
-29
-33
-63
-100
-123
-145
-165
-148
-135
-169
-217
-394
-589
4
1427
1945
717
-543
-560
-219
-265
-337
-286
-293
-299
-254
-246
-259
-235
-190
-164
-161
-157
-152
-169
-176
-132
-79
-65
-79
-114
-162
-181
-176
-171
-147
-113
-98
-77
-55
-75
-110
-121
-122
-107
-97
-126
-167
-324
-503
81
1516
2101
927
-354
-430
-115
-140
-185
-121
-115
-112
-72
-60
-52
-18
12
35
64
95
109
87
67
106
168
184
162
128
87
58
49
40
34
44
58
63
52
32
14
-18
-51
-42
-52
-91
-98
-302
-586
111
1692
1939
225
-1073
-750
-191
-174
-190
-126
-157
-168
-136
-127
-90
-26
6
34
80
111
121
127
134
144
159
157
119
67
27
-2
-16
8
63
103
98
57
0
-36
-37
-41
-42
-11
-24
-81
-154
-386
-424
501
1631
1172
-395
-946
-383
-84
-199
-202
-155
-165
-146
-135
-117
-41
-13
-53
-25
61
83
60
53
35
4
24
77
75
12
-38
-43
-33
-35
-38
-23
4
12
-16
-52
-75
-103
-112
-85
-97
-135
-199
-450
-490
416
1469
1012
-452
-1008
-532
-197
-222
-200
-119
-111
-147
-143
-78
-26
-9
34
76
58
57
122
149
110
117
197
225
141
39
8
27
30
-7
-50
-40
27
72
42
-13
-41
-59
-58
-43
-84
-115
-137
-449
-628
398
1810
1371
-476
-1183
-534
-106
-109
-42
-31
-93
-38
18
-13
-47
-41
30
124
150
151
145
92
123
255
233
61
-2
36
53
68
38
-54
-87
-33
59
151
83
-132
-178
-48
-50
-148
-147
-89
-132
-449
-613
323
1713
1502
-95
-787
-319
-126
-216
-22
19
-211
-141
83
-29
