# session 27
-19
-43
8
79
-20
-250
-348
-304
-295
-312
-291
-275
-272
-258
-243
-234
-220
-206
-196
-187
-181
-174
-165
-159
-156
-148
-145
-159
-163
-134
-93
-59
-34
-37
-76
-107
-109
-112
-109
-99
-109
-106
-80
-99
-125
-183
-316
194
1835
2860
1526
-492
-828
-186
-65
-208
-149
-126
-163
-126
-102
-116
-102
-82
-74
-57
-40
-24
0
29
59
93
130
168
210
252
287
315
334
327
277
192
98
7
-72
-128
-156
-171
-181
-183
-180
-180
-176
-166
-155
-145
-134
-132
-135
-126
-115
-117
-116
-106
-103
-106
-103
-105
-116
-105
-68
-32
-6
-4
-39
-78
-87
-92
-96
-87
-92
-97
-72
-79
-114
-145
-279
-53
1306
2674
1892
-276
-1103
-454
-69
-186
-173
-117
-154
-138
-104
-113
-107
-85
-76
-64
-44
-28
-7
22
50
83
123
166
207
245
274
299
325
327
282
199
106
13
-73
-136
-177
-203
-215
-218
-218
-214
-206
-194
-181
-169
-159
-149
-138
-130
-124
-121
-116
-113
-116
-117
-119
-133
-140
-115
-74
-40
-18
-26
-69
-101
-104
-108
-108
-96
-105
-109
-82
-93
-131
-193
-328
95
1678
2888
1775
-312
-830
-209
-61
-236
-186
-145
-190
-159
-129
-141
-123
-101
-99
-86
-66
-52
-31
-5
20
50
87
127
166
201
229
257
281
279
233
155
67
-18
-94
-151
-184
-200
-207
-210
-209
-204
-198
-190
-182
-171
-160
-152
-144
-136
-128
-120
-116
-117
-116
-112
-119
-126
-104
-63
-27
-4
-9
-51
-88
-96
-101
-104
-94
-101
-104
-79
-91
-126
-181
-329
40
1584
2831
1762
-358
-912
-246
-36
-204
-162
-118
-163
-137
-106
-116
-100
-79
-76
-60
-39
-25
-6
19
46
83
124
161
199
235
262
285
307
303
253
170
79
-10
-89
-143
-173
-193
-205
-211
-213
-210
-201
-192
-182
-168
-154
-147
-142
-131
-121
-117
-114
-110
-109
-106
-104
-116
-122
-96
-57
-25
-1
-7
-53
-87
-88
-94
-102
-95
-101
-100
-74
-94
-127
-181
-331
65
1621
2770
1587
-511
-978
-278
-51
-189
-147
-116
-157
-127
-99
-112
-103
-83
-75
-57
-39
-25
-1
29
58
92
134
176
214
247
276
302
324
323
273
183
88
-2
-85
-147
-183
-201
-211
-214
-213
-213
-210
-196
-180
-173
-172
-161
-143
-137
-144
-141
-128
-127
-128
-120
-125
-146
-142
-98
-54
-33
-33
-64
-98
-105
-106
-113
-101
-98
-108
-83
-80
-120
-132
-239
-141
1049
2598
2170
-46
-1200
-615
-81
-150
-157
-86
-120
-116
-75
-80
-75
-50
-42
-34
-16
2
24
50
77
112
152
189
231
270
293
312
337
342
297
214
121
29
-57
-126
-170
-195
-205
-209
-211
-210
-201
-189
-180
-170
-159
-149
-139
-132
-127
-121
-117
-121
-125
-128
-142
-154
-138
-103
-71
-46
-50
-89
-118
-116
-118
-123
-112
-115
-119
-94
-98
-134
-187
-298
95
1590
2798
1767
-311
-874
-231
-41
-225
-181
-130
-176
-151
-117
-127
-113
-91
-88
-75
-54
-39
-20
5
29
59
96
135
173
206
231
255
276
269
216
134
49
-33
-104
-154
-182
-195
-199
-199
-200
-199
-196
-193
-186
-176
-168
-160
-148
-138
-131
-125
-126
-128
-121
-120
-133
-130
-100
-63
-32
-18
-45
-88
-101
-96
-97
-90
-86
-92
-76
-70
-104
-134
-221
-72
1066
2540
2244
278
-795
-339
9
-174
-194
-107
-150
-152
-106
-114
-112
-83
-77
-71
-52
-37
-21
1
25
50
82
119
158
193
219
241
264
268
229
155
72
-5
-75
-129
-159
-176
-189
-196
-197
-196
-193
-187
-179
-167
-155
-147
-142
-135
-129
-125
-122
-117
-110
-108
-109
-110
-119
-131
-123
-93
-57
-28
-25
-58
-93
-100
-103
-106
-96
-97
-103
-79
-83
-117
-149
-251
39
1399
2683
1870
-175
-862
-243
-3
-191
-163
-102
-152
-134
-96
-106
-95
-70
-67
-57
-37
-22
-4
21
45
75
110
145
181
215
241
266
291
293
248
167
77
-11
-87
-143
-175
-192
-202
-205
-203
-197
-192
-186
-178
-168
-159
-150
-141
-135
-130
-125
-118
-115
-116
-113
-108
-108
-113
-113
-116
-127
-120
-87
-47
-17
-10
-40
-79
-90
-93
-97
-85
-87
-101
-78
-70
-107
-126
-227
-122
1026
2540
2177
77
-1018
-460
-7
-151
-177
-95
-133
-135
-92
-99
-100
-74
-63
-51
-34
-29
-27
-15
21
85
143
172
195
226
252
275
303
318
289
221
136
47
-38
-107
-151
-175
-187
-193
-190
-181
-170
-160
-150
-137
-127
-123
-120
-115
-109
-107
-105
-103
-103
-105
-104
-104
-108
-111
-109
-117
-125
-108
-73
-38
-9
-10
-48
-83
-90
-94
-94
-83
-94
-100
-77
-92
-122
-152
-276
55
1490
2667
1633
-427
-963
-280
-40
-198
-164
-119
-161
-134
-103
-115
-101
-80
-76
-61
-39
-28
-9
22
50
76
108
145
180
211
234
256
281
289
254
185
103
17
-65
-126
-164
-186
-196
-197
-192
-184
-177
-167
-153
-141
-135
-130
-127
-125
-124
-120
-115
-111
-111
-113
-112
-107
-111
-122
-113
-79
-43
-16
-6
-34
-73
-87
-89
-91
-80
-83
-93
-71
-75
-107
-108
-203
-69
1116
2529
1964
-200
-1209
-580
-72
-141
-146
-87
-122
-113
-75
-83
-79
-56
-48
-35
-13
2
22
51
79
108
143
181
218
251
278
302
325
332
298
223
132
39
-50
-122
-167
-193
-210
-221
-223
-212
-200
-191
-183
-170
-159
-152
-145
-136
-131
-129
-125
-120
-121
-123
-124
-134
-144
-127
-92
-60
-32
-29
-67
-105
-111
-113
-114
-103
-105
-106
-81
-91
-123
-162
-280
65
1520
2749
1767
-309
-903
-258
-39
-211
-174
-123
-170
-147
-113
-124
-110
-87
-83
-72
-52
-35
-15
7
31
61
96
130
166
198
221
242
264
269
231
158
73
-10
-85
-143
-175
-189
-198
-203
-199
-188
-179
-170
-159
-149
-143
-137
-129
-124
-122
-118
-115
-115
-114
-115
-125
-127
-101
-65
-32
-7
-18
-63
-93
-95
-100
-95
-87
-99
-93
-72
-99
-123
-195
-305
332
1986
2715
1139
-700
-759
-112
-78
-209
-133
-127
-162
-121
-107
-117
-95
-80
-78
-59
-38
-23
-2
23
48
80
115
148
183
213
236
259
280
273
219
139
53
-32
-106
-155
-181
-196
-205
-207
-200
-191
-183
-172
-160
-151
-147
-143
-137
-132
-128
-125
-123
-119
-118
-130
-136
-115
-79
-43
-10
-4
-46
-92
-100
-98
-98
-93
-102
-99
-73
-89
-116
-170
-333
39
1561
2703
1568
-469
-929
-257
-44
-183
-144
-113
-146
-112
-87
-104
-94
-75
-67
-48
-27
-14
9
40
68
97
129
161
192
219
243
269
291
291
252
177
84
-7
-80
-133
-171
-194
-202
-200
-193
-183
-179
-174
-161
-148
-146
-144
-139
-131
-123
-121
-123
-119
-119
-125
-118
-94
-60
-26
-16
-53
-98
-112
-115
-117
-102
-104
-122
-99
-93
-125
-140
-259
-185
939
2404
1973
-165
-1257
-653
-100
-155
-166
-97
-127
-123
-83
-86
-81
-55
-45
-33
-10
10
31
60
92
125
162
199
236
270
294
314
336
342
302
221
130
41
-45
-115
-158
-182
-196
-203
-204
-199
-190
-178
-166
-155
-144
-135
-128
-121
-117
-116
-114
-115
-129
-135
-114
-80
-48
-23
-31
-75
-108
-115
-120
-116
-107
-117
-111
-89
-114
-142
-210
-276
422
2061
2688
1056
-716
-702
-81
-103
-238
-148
-147
-184
-139
-123
-133
-109
-92
-89
-73
-53
-38
-17
6
31
62
97
132
164
190
212
236
251
233
174
93
11
-67
-129
-168
-192
-204
-205
-202
-199
-193
-185
-179
-170
-159
-152
-146
-139
-134
-129
-130
-141
-139
-109
-71
-36
-14
-32
-79
-105
-110
-115
-109
-106
-118
-103
-88
-120
-152
-256
-221
778
2367
2367
428
-870
-462
15
-143
-205
-107
-140
-155
-106
-108
-110
-84
-75
-66
-44
-31
-16
9
32
57
91
127
160
191
215
237
260
264
227
154
70
-12
-86
-142
-174
-189
-198
-201
-202
-201
-198
-191
-182
-174
-162
-148
-140
-134
-126
-125
-132
-124
-90
-53
-18
4
-16
-65
-93
-98
-102
-97
-100
-112
-92
-86
-127
-170
-319
-276
851
2456
2249
218
-920
-414
10
-162
-198
-113
-153
-158
-113
-120
-117
-88
-79
-70
-47
-32
-17
8
35
66
100
135
170
203
226
250
278
283
239
161
75
-10
-85
-138
-170
-187
-194
-194
-191
-187
-180
-172
-163
-154
-144
-134
-128
-125
-119
-114
-119
-124
-104
-67
-31
0
-1
-47
-88
-98
-103
-104
-97
-109
-108
-83
-105
-139
-224
-400
76
1674
2619
1245
-672
-854
-157
-57
-204
-136
-117
-159
-122
-101
-113
-93
-75
-73
-56
-34
-21
0
27
54
85
120
156
190
217
240
269
292
280
222
140
54
-28
-96
-142
-168
-181
-187
-188
-183
-176
-167
-157
-147
-139
-132
-125
-118
-113
-111
-111
-108
-104
-108
-111
-109
-117
-129
-112
-72
-35
-8
-5
-42
-81
-88
-90
-93
-83
-88
-89
-64
-79
-111
-146
-290
-3
1431
2706
1763
-335
-956
-289
-28
-189
-158
-106
-145
-124
-94
-108
-96
-74
-71
-59
-37
-20
-1
24
50
80
112
143
176
211
237
260
289
303
271
195
104
18
-57
-113
-150
-172
-181
-180
-175
-172
-166
-155
-146
-136
-124
-121
-126
-128
-125
-124
-126
-125
-118
-114
-119
-125
-127
-127
-121
-110
-117
-139
-133
-91
-49
-22
-22
-60
-94
-96
-96
-95
-84
-91
-95
-69
-81
-106
-125
-253
32
1434
2648
1640
-507
-1147
-430
-64
-155
-125
-83
-113
-85
-57
-71
-59
-34
-23
-5
16
31
52
79
105
136
172
207
238
265
285
306
333
340
299
220
132
45
-40
-110
-157
-187
-202
-203
-199
-195
-188
-178
-172
-168
-161
-151
-146
-142
-138
-136
-134
-130
-129
-130
-129
-127
-133
-146
-158
-151
-123
-93
-64
-40
-49
-88
-110
-110
-109
-99
-93
-111
-106
-85
-115
-138
-208
-285
441
2107
2646
878
-917
-831
-137
-98
-200
-113
-112
-142
-97
-84
-93
-65
-44
-40
-23
-1
19
43
71
103
140
179
220
260
290
309
331
349
328
260
170
78
-13
-90
-143
-175
-195
-205
-209
-209
-209
-206
-197
-186
-178
-173
-165
-154
-145
-141
-137
-135
-133
-129
-129
-133
-130
-130
-142
-144
-117
-83
-54
-32
-42
-83
-105
-102
-103
-100
-93
-104
-98
-76
-99
-124
-194
-287
368
2024
2746
1153
-715
-784
-122
-81
-214
-133
-122
-158
-117
-99
-107
-85
-69
-66
-49
-30
-16
7
33
61
94
132
171
210
240
264
290
309
294
234
149
58
-29
-103
-153
-182
-198
-208
-215
-218
-215
-207
-196
-181
-166
-152
-140
-130
-123
-117
-112
-108
-106
-107
-104
-104
-110
-115
-120
-133
-135
-113
-79
-46
-22
-31
-71
-93
-92
-95
-91
-80
-90
-86
-63
-85
-118
-200
-293
385
2084
2844
1265
-598
-683
-72
-80
-224
-139
-132
-169
-125
-110
-123
-100
-83
-81
-64
-45
-30
-8
18
46
80
118
157
197
231
258
284
307
298
239
151
62
-23
-97
-147
-176
-192
-200
-201
-200
-196
-190
-185
-178
-168
-158
-150
-142
-133
-125
-120
-117
-114
-111
-110
-110
-109
-106
-106
-111
-113
-111
-120
-127
-104
-63
-25
-3
-16
-60
-88
-87
-90
-91
-82
-92
-94
-68
-86
-122
-186
-313
183
1793
2825
1520
-485
-806
-153
-54
-217
-150
-123
-167
-132
-107
-119
-101
-83
-80
-63
-43
-29
-8
19
45
77
114
152
190
225
253
278
302
304
260
179
91
6
-75
-135
-168
-185
-194
-198
-195
-187
-180
-174
-166
-157
-148
-141
-135
-130
-124
-120
-117
-115
-112
-110
-109
-107
-102
-102
-105
-105
-110
-123
-120
-89
-48
-10
8
-21
-71
-90
-91
-102
-95
-86
-100
-89
-74
-109
-133
-231
-256
676
2364
2554
607
-894
-582
-21
-116
-197
-104
-124
-148
-106
-100
-109
-100
-85
-47
-6
9
18
41
67
93
121
152
192
235
265
284
305
326
313
250
159
69
-13
-85
-138
-173
-189
-186
-178
-176
-174
-168
-162
-155
-147
-141
-137
-130
-123
-119
-118
-119
-119
-116
-116
-116
-115
-116
-116
-113
-118
-125
-111
-77
-39
-9
-15
-59
-92
-95
-99
-99
-94
-106
-101
-82
-110
-128
-181
-276
328
1901
2566
963
-901
-950
-214
-90
-201
-135
-125
-154
-113
-95
-106
-86
-67
-62
-45
-24
-8
15
45
76
110
146
183
224
261
288
312
331
322
269
183
85
-12
-93
-153
-194
-216
-227
-236
-237
-224
-209
-202
-196
-183
-170
-161
-154
-145
-141
-139
-137
-133
-132
-133
-133
-132
-138
-148
-144
-118
-78
-37
-22
-54
-95
-106
-106
-112
-101
-99
-109
-85
-81
-119
-139
-241
-122
1045
2542
2143
46
-1012
-438
2
-153
-175
-90
-129
-129
-82
-86
-82
-55
-48
-38
-13
3
21
48
75
104
139
177
217
255
285
310
335
346
318
248
158
69
-10
-73
-118
-141
-149
-155
-158
-152
-140
-131
-123
-113
-102
-93
-86
-80
-76
-72
-70
-69
-67
-66
-65
-64
-72
-84
-78
-49
-10
27
34
-6
-50
-63
-68
-74
-66
-70
-78
-55
-60
-93
-130
-253
2
1346
2643
1823
-274
-992
-320
-4
-173
-161
-102
-150
-136
-99
-113
-107
-82
-79
-72
-50
-31
-17
-3
19
53
91
126
158
188
212
234
258
261
219
139
48
-40
-121
-186
-230
-255
-267
-272
-272
-270
-267
-258
-247
-243
-242
-235
-225
-218
-220
-225
-224
-221
-223
-225
-220
-222
-235
-234
-205
-162
-123
-110
-142
-185
-195
-192
-196
-192
-192
-195
-167
-164
-197
-197
-287
-206
899
2396
2048
-70
-1224
-656
-96
-155
-171
-91
-114
-106
-58
-55
-44
-11
3
20
54
84
110
143
181
220
264
311
359
403
439
473
511
534
512
448
366
281
198
135
101
86
79
81
89
