# session 10
429
351
512
378
-351
-983
-1004
-836
-863
-954
-1014
-1086
-1145
-1178
-1171
-1096
-1010
-980
-964
-918
-873
-850
-841
-840
-799
-733
-791
-868
-756
-823
-1008
-4
1919
2008
-166
-1594
-1174
-674
-741
-699
-572
-574
-508
-392
-376
-387
-346
-285
-201
-88
-2
21
20
45
80
86
79
73
43
-17
-72
-67
-15
-24
-73
-27
49
28
38
120
101
30
47
33
-39
-23
45
76
-5
-137
413
1887
2526
1085
-644
-813
-196
46
-8
-130
-268
-263
-183
-193
-216
-165
-106
-84
-55
30
108
101
65
87
129
136
123
97
24
-80
-122
-115
-194
-307
-263
-134
-107
-119
-88
-93
-125
-128
-155
-192
-177
-187
-238
-345
-541
-175
1295
2354
1283
-548
-934
-387
-227
-265
-143
-96
-117
-105
-159
-224
-184
-108
-48
20
69
99
175
282
320
302
351
436
402
276
190
154
143
160
158
135
167
265
360
374
308
260
237
164
144
215
168
69
50
-148
-62
1197
2346
1316
-727
-1279
-648
-338
-354
-297
-278
-305
-321
-346
-302
-213
-193
-193
-158
-122
-68
-16
-28
-59
-61
-73
-57
17
6
-137
-231
-204
-185
-228
-241
-187
-132
-123
-144
-185
-212
-193
-200
-263
-278
-248
-230
-212
-311
-247
729
1967
1566
-229
-1136
-698
-304
-318
-266
-202
-218
-151
-74
-101
-112
-57
-24
5
61
100
134
202
248
263
306
328
274
215
192
167
133
96
55
52
107
176
203
149
18
-112
-172
-202
-244
-236
-188
-196
-221
-271
-286
339
1601
1852
302
-1175
-1100
-444
-242
-247
-223
-238
-227
-213
-260
-240
-138
-129
-194
-164
-74
-48
-27
44
66
22
31
82
64
9
-4
-33
-120
-157
-121
-129
-148
-68
8
-10
10
62
-34
-208
-216
-109
-112
-170
-180
-303
-135
1184
2717
2232
142
-899
-428
-9
-49
-48
-20
-50
-33
21
95
174
214
264
329
328
324
407
484
484
483
513
478
350
233
122
-78
-257
-277
-257
-275
-233
-167
-155
-129
-104
-171
-258
-294
-316
-311
-300
-340
-358
-401
-358
476
1819
1751
-76
-1366
-1054
-510
-503
-530
-439
-416
-426
-448
-462
-381
-290
-297
-301
-233
-188
-174
-109
-6
60
69
67
86
81
32
-24
-124
-291
-378
-303
-199
-157
-121
-53
-15
-43
-57
-1
53
41
1
5
-25
-198
30
1341
2584
1817
-165
-883
-241
172
93
90
139
91
54
74
114
138
144
196
270
254
185
189
234
203
126
114
154
124
10
-70
-82
-127
-225
-258
-173
-97
-124
-161
-148
-179
-254
-278
-275
-273
-272
-290
-265
-342
-558
47
1827
2603
892
-1086
-1197
-512
-363
-432
-399
-395
-338
-214
-161
-144
-118
-121
-104
-30
42
113
194
192
88
17
33
54
41
17
-10
-39
-73
-93
-40
49
68
64
131
157
76
35
56
28
18
85
134
67
-121
29
1096
2171
1570
-158
-902
-419
-9
-15
-5
35
-67
-198
-186
-94
-77
-115
-120
-107
-76
1
71
81
16
-88
-98
21
83
-21
-163
-220
-229
-285
-341
-270
-168
-203
-245
-176
-170
-261
-273
-261
-352
-429
-378
-281
-333
-452
137
1584
2134
696
-901
-979
-441
-324
-320
-224
-231
-240
-158
-142
-218
-255
-218
-171
-128
-52
48
109
130
166
233
284
294
285
269
234
184
142
134
163
192
214
245
240
185
165
162
81
32
102
116
63
12
-123
267
1766
2729
1328
-759
-1063
-374
-345
-595
-458
-266
-247
-218
-101
26
53
-31
-100
-102
-88
-50
28
74
54
28
29
33
18
-46
-138
-176
-171
-206
-253
-246
-229
-243
-228
-181
-200
-286
-346
-344
-276
-196
-227
-352
-497
-432
514
2078
2297
562
-922
-809
-276
-231
-314
-300
-278
-237
-211
-214
-169
-109
-105
-96
-30
32
72
114
108
59
62
108
116
112
102
29
-34
12
68
77
146
253
286
279
250
161
31
-140
-237
-104
69
38
-172
-354
183
1636
2286
862
-866
-997
-354
-195
-288
-255
-241
-257
-236
-244
-257
-197
-135
-137
-119
-35
12
-22
-31
26
52
12
-37
-54
-43
-65
-178
-300
-320
-282
-241
-192
-166
-123
-11
26
-56
-37
73
25
-143
-182
-115
-245
-364
491
2174
2528
704
-1000
-940
-298
-163
-185
-153
-192
-170
-83
-101
-148
-75
53
99
79
119
224
252
179
173
284
338
285
287
349
307
183
90
14
-15
43
54
-48
-107
-72
-53
-72
-83
-80
-82
-116
-155
-183
-238
81
1268
2260
1333
-695
-1414
-721
-246
-318
-349
-323
-350
-301
-216
-212
-230
-206
-173
-145
-98
-76
-141
-227
-230
-165
-95
-43
-11
-7
-63
-184
-257
-186
-63
-35
-71
-51
2
-28
-126
-164
-128
-119
-130
-103
-109
-152
-189
-306
-26
1381
2739
1952
-137
-922
-375
-99
-206
-157
-120
-163
-100
-37
-56
-21
69
115
123
119
110
158
248
268
214
201
234
177
-8
-195
-291
-332
-343
-286
-189
-132
-123
-108
-64
-41
-91
-173
-195
-176
-213
-243
-204
-337
-417
523
2033
1890
-111
-1438
-1098
-540
-484
-453
-342
-316
-305
-288
-298
-270
-209
-211
-238
-179
-95
-113
-163
-140
-103
-84
-23
36
10
-33
-34
-68
-148
-162
-77
22
112
211
241
170
114
107
84
70
80
95
184
189
91
728
2223
2657
1117
-358
-341
80
77
54
123
113
85
50
27
115
234
279
293
265
171
115
126
101
57
117
248
307
272
230
198
136
71
72
124
153
157
160
86
-74
-197
-276
-366
-424
-479
-532
-517
-685
-789
332
2080
1819
-439
-1703
-1224
-767
-779
-635
-484
-540
-548
-466
-432
-408
-352
-318
-281
-188
-96
-44
-6
-11
-81
-128
-92
-52
-83
-144
-152
-138
-176
-197
-112
-13
15
35
66
65
59
44
18
45
57
4
24
-15
-96
687
2282
2556
778
-730
-574
-2
57
-10
1
-30
-56
-52
-63
-85
-100
-106
-106
-84
-32
11
15
10
20
32
33
14
-32
-104
-167
-183
-201
-280
-325
-263
-204
-217
-225
-200
-187
-225
-278
-257
-228
-287
-318
-422
-560
282
2135
2583
645
-1064
-908
-360
-394
-400
-245
-250
-303
-268
-207
-129
-50
-12
2
-5
-18
15
73
76
42
56
107
111
72
54
52
42
36
42
78
151
208
218
205
186
175
166
144
169
238
259
267
211
95
655
2062
2519
1014
-485
-400
155
131
-12
37
29
-63
-121
-139
-137
-130
-122
-87
-34
5
26
18
-22
-47
-38
-45
-76
-109
-171
-251
-298
-318
-323
-292
-236
-179
-139
-138
-144
-159
-259
-372
-362
-343
-401
-376
-401
-517
133
1622
2009
461
-979
-926
-470
-463
-479
-346
-299
-304
-236
-133
-86
-137
-204
-194
-157
-151
-131
-100
-108
-127
-102
-49
-25
-58
-99
-113
-145
-192
-168
-63
27
48
34
22
12
33
111
177
197
200
144
72
13
-95
277
1570
2345
1104
-658
-842
-135
35
-102
-73
-99
-200
-178
-91
-32
9
31
51
83
100
100
99
67
23
22
41
36
17
-33
-131
-201
-199
-194
-206
-188
-163
-157
-126
-89
-106
-170
-224
-197
-137
-173
-220
-273
-471
-115
1429
2504
1289
-675
-1060
-447
-246
-266
-110
-25
-43
-13
-30
-126
-163
-114
-65
-25
39
91
76
31
35
86
126
121
79
36
13
-14
-65
-86
-31
55
110
124
110
105
128
131
114
164
221
145
55
37
-117
8
1195
2390
1633
-255
-844
-221
12
-196
-231
-264
-400
-374
-229
-168
-162
-144
-141
-144
-124
-96
-78
-71
-55
-5
47
32
-37
-96
-152
-229
-293
-304
-289
-291
-292
-265
-249
-274
-276
-244
-271
-322
-305
-297
-287
-280
-507
-366
1157
2700
1819
-450
-1207
-550
-228
-328
-287
-218
-194
-125
-76
-72
-86
-121
-132
-100
-64
-15
52
93
93
89
109
131
121
78
29
-8
-21
-7
31
78
111
135
162
151
120
130
126
83
99
120
78
27
-121
-12
1158
2486
1850
-186
-1016
-416
-7
-78
-110
-120
-148
-125
-149
-190
-152
-123
-129
-88
-31
-16
-15
-19
-49
-66
-34
7
3
-43
-93
-128
-160
-199
-226
-222
-203
-196
-193
-184
-180
-212
-274
-273
-203
-247
-348
-323
-421
-386
835
2467
2056
-89
-1156
-660
-261
-326
-298
-237
-263
-236
-187
-187
-177
-149
-150
-168
-152
-100
-64
-72
-77
-34
24
36
2
-34
-43
-47
-72
-94
-67
-12
39
101
153
144
122
139
129
91
111
116
78
79
-30
22
1125
2594
2233
256
-771
-340
6
-92
-85
-43
-110
-130
-120
-165
-207
-206
-182
-140
-90
-59
-56
-54
-29
7
32
47
45
16
-23
-51
-71
-87
-98
-90
-62
-27
-21
-58
-96
-115
-149
-161
-132
-170
-228
-247
-389
-181
1156
2407
1552
-425
-1061
-522
-289
-353
-270
-234
-276
-248
-233
-240
-188
-143
-140
-97
-24
3
-1
-7
-14
0
21
2
-45
-91
-145
-195
-218
-224
-225
-208
-165
-115
-107
-147
-164
-145
-152
-153
-120
-129
-150
-190
-315
43
1316
2114
1033
-574
-819
-271
-126
-203
-144
-119
-141
-112
-86
-80
-61
-44
-20
15
31
29
32
37
41
45
61
93
116
110
101
104
100
91
105
140
167
177
171
143
103
61
29
27
28
-5
-11
-70
-229
116
1254
1829
779
-551
-680
-211
-71
-95
-51
-50
-61
-28
-14
-18
-6
3
10
33
55
60
56
56
59
70
86
94
80
39
-20
-69
-90
-97
-106
-103
-85
-66
-66
-94
-134
-167
-192
-193
-186
-207
-214
-291
-465
-35
1284
1824
383
-1242
-1221
-469
-242
-269
-200
-195
-233
-213
-187
-171
-146
-127
-96
-54
-29
-8
20
23
10
32
74
80
37
-20
-58
-74
-86
-87
-61
-23
1
13
12
-12
-26
-26
-40
-46
-43
-73
-109
-246
-387
298
1805
2128
417
-1078
-848
-191
-124
-162
-91
-111
-124
-79
-79
-81
-46
-13
18
46
59
93
132
111
85
140
201
176
128
112
79
19
-11
-7
-13
-18
10
48
41
-7
-36
-42
-67
-79
-65
-101
-152
-195
-324
-47
1220
2216
1192
-710
-1145
-431
-139
-257
-211
-143
-164
-134
-86
-83
-73
-42
-6
40
86
110
119
135
153
160
173
190
178
121
46
-10
-31
-34
-41
-39
-22
-4
-5
-22
-32
-41
-82
-117
-107
-121
-162
-219
-381
-211
962
2125
1396
-502
-1172
-539
-172
-273
-264
-208
-232
-221
-195
-187
-165
-148
-134
-92
-47
-26
-23
-31
-36
-8
48
90
76
20
-29
-63
-88
-85
-66
-62
-61
-45
-47
-78
-100
-121
-154
-148
-127
-154
-172
-283
-489
37
1525
2086
581
-969
-850
-194
-129
-205
-126
-128
-162
-135
-127
-131
-107
-77
-52
-35
-19
11
29
11
11
67
141
172
145
101
72
34
-11
-10
23
29
33
61
55
8
-19
-30
-41
-34
-37
-58
-169
-467
-363
830
1965
1311
-256
-709
-244
-86
-192
-157
-127
-156
-138
-123
-127
-97
-62
-46
-19
12
30
43
51
61
91
128
143
130
94
58
44
38
23
13
18
37
60
44
-3
-21
-30
-50
-38
-50
-96
-120
-354
-595
210
1694
1625
-164
-1179
-661
-146
-168
-156
-81
-111
-115
-78
-71
-55
-20
-3
7
31
61
75
72
73
105
164
205
189
138
92
58
35
18
-1
-21
-22
-10
-4
-22
-54
-85
-120
-145
-122
-115
-157
-181
-337
-517
186
1635
1752
-8
-1272
-863
-234
-206
-227
-158
-184
-185
-136
-131
-119
-86
-72
-51
-12
8
16
21
9
15
75
135
128
75
30
-1
-35
-60
-60
-35
-4
16
12
-17
-34
-32
-50
-64
-43
-40
-69
-173
-377
-101
1112
1930
895
-690
-855
-203
-64
-197
-130
-88
-128
-111
-86
-84
-68
-55
-41
-6
20
20
13
0
-8
23
84
113
88
57
43
17
-27
-54
-47
-23
2
0
-31
-51
-59
-79
-75
-58
-99
-132
-171
-431
-436
653
1858
1268
-402
-890
-277
-27
-162
-128
-87
-137
-95
-27
-49
-74
-44
-7
12
23
22
7
-7
-14
1
49
102
110
74
45
42
27
-7
-22
-6
15
26
16
-5
-10
-18
-40
-36
-32
-52
-63
-252
-519
59
1452
1715
210
-926
-566
-38
-81
-124
-46
-70
-77
-27
-28
-35
-14
-7
1
24
25
6
-14
-32
-29
23
89
112
89
54
31
10
-14
-25
-17
-4
3
-5
-25
-40
-51
-76
-77
-53
-75
-89
-142
-442
-426
686
1697
825
-821
-1042
-281
-21
-140
-102
-62
-92
-72
-52
-53
-25
1
6
19
37
36
25
19
20
43
95
134
117
74
53
37
6
-17
-17
-4
10
15
-3
-30
-47
-67
-72
-56
-80
-99
-121
-398
-544
350
1492
966
-667
-1140
-425
-40
-122
-93
-38
-82
-77
-39
-47
-54
-29
4
19
17
29
48
36
16
43
97
120
108
85
60
41
30
16
1
-2
9
22
22
-1
-25
-51
-74
-58
-45
-59
-46
-196
-504
-111
1126
1485
193
-934
-688
-120
-44
-75
-10
-6
-20
4
17
20
35
56
88
120
130
124
110
95
97
139
196
201
140
71
31
8
0
-2
-10
-10
9
19
-2
-31
-51
-82
-96
-67
-75
-117
-102
-283
-630
-110
1328
1632
80
-1133
-792
-183
-119
-130
-63
-85
-99
-58
-38
-26
-9
-1
15
47
66
76
83
82
88
126
178
186
121
36
-12
-33
-63
-78
-60
-43
-46
-59
-76
-96
-122
-152
-140
-108
-137
-159
-251
-576
-421
917
1964
982
-683
-916
-283
-117
-218
-163
-136
-166
-150
-136
-122
-74
-43
-31
0
31
40
37
25
27
78
144
161
124
69
27
6
-7
-14
-1
28
55
70
53
15
-8
-18
-9
7
-23
-48
-119
-431
-396
805
1967
1207
-479
-859
-230
-5
-108
-50
-15
-66
-16
