# session 29
-31
-36
-18
-11
-63
-138
-168
-165
-169
-171
-160
-152
-145
-132
-117
-105
-96
-90
-86
-82
-80
-81
-81
-80
-81
-85
-86
-88
-91
-89
-87
-89
-88
-89
-105
-107
-72
-29
3
20
1
-42
-61
-63
-70
-63
-64
-78
-57
-46
-91
-132
-266
-206
960
2661
2527
438
-840
-414
11
-149
-188
-104
-143
-149
-105
-111
-111
-85
-78
-69
-47
-32
-16
10
36
64
100
142
186
231
269
300
328
345
322
252
154
55
-35
-108
-157
-183
-196
-203
-208
-210
-211
-208
-201
-189
-179
-170
-159
-151
-144
-139
-135
-132
-129
-126
-126
-125
-121
-118
-118
-118
-116
-113
-111
-111
-109
-108
-119
-130
-110
-66
-27
1
-4
-47
-80
-84
-88
-88
-82
-94
-89
-66
-95
-126
-208
-331
317
2041
2851
1287
-601
-711
-95
-80
-215
-137
-131
-165
-123
-109
-120
-97
-80
-78
-59
-38
-22
1
29
59
94
132
175
223
269
304
335
359
357
307
216
115
21
-62
-128
-168
-184
-192
-198
-199
-199
-198
-191
-180
-169
-159
-150
-142
-132
-126
-126
-124
-117
-111
-110
-112
-110
-105
-105
-107
-105
-102
-103
-102
-100
-99
-97
-103
-121
-124
-91
-45
-7
14
-6
-55
-82
-84
-86
-77
-76
-90
-71
-65
-109
-142
-254
-183
953
2606
2470
423
-826
-403
10
-158
-198
-110
-149
-158
-112
-114
-115
-92
-85
-77
-58
-45
-31
-6
20
48
86
126
165
208
250
283
314
334
318
255
167
73
-16
-93
-146
-176
-189
-194
-194
-193
-191
-188
-182
-175
-170
-163
-156
-149
-144
-141
-140
-138
-132
-128
-126
-123
-123
-124
-122
-118
-118
-116
-114
-111
-106
-111
-123
-110
-66
-18
12
8
-33
-69
-78
-83
-82
-78
-87
-75
-60
-89
-110
-201
-308
406
2083
2717
1139
-563
-597
-63
-81
-193
-123
-126
-153
-114
-103
-111
-90
-76
-72
-53
-36
-25
-7
21
53
88
126
169
211
249
284
317
339
336
289
204
109
20
-62
-128
-164
-178
-187
-195
-198
-197
-192
-185
-178
-170
-161
-154
-148
-142
-140
-138
-133
-129
-128
-126
-124
-122
-116
-113
-112
-113
-112
-109
-109
-122
-131
-105
-53
-7
5
-28
-74
-93
-96
-99
-93
-99
-104
-75
-83
-124
-147
-270
-68
1247
2632
1924
-213
-1080
-462
-64
-164
-151
-97
-135
-123
-83
-85
-79
-60
-51
-33
-10
5
26
58
88
119
161
211
256
292
324
359
391
401
363
276
172
77
-14
-101
-166
-196
-204
-208
-217
-220
-213
-202
-193
-183
-173
-165
-156
-150
-149
-146
-139
-135
-136
-135
-132
-133
-134
-130
-131
-144
-149
-128
-88
-48
-26
-43
-83
-108
-118
-122
-111
-110
-125
-103
-91
-128
-141
-219
-158
885
2460
2335
271
-1067
-638
-83
-149
-193
-117
-144
-148
-104
-106
-106
-79
-68
-59
-34
-15
1
28
61
93
132
178
223
266
307
341
366
379
358
284
179
74
-21
-99
-150
-179
-197
-208
-212
-211
-206
-198
-189
-178
-168
-158
-148
-138
-132
-127
-122
-119
-119
-119
-117
-118
-119
-119
-129
-141
-129
-93
-55
-23
-13
-47
-89
-99
-101
-106
-96
-99
-105
-82
-89
-125
-176
-294
76
1570
2818
1824
-270
-879
-252
-44
-216
-179
-130
-176
-153
-120
-130
-117
-93
-88
-74
-52
-36
-16
11
38
68
105
148
192
235
269
297
322
328
288
203
106
14
-69
-136
-177
-199
-209
-210
-210
-210
-205
-195
-186
-180
-173
-163
-156
-151
-146
-142
-137
-132
-129
-130
-129
-126
-125
-123
-127
-140
-137
-103
-62
-30
-15
-37
-78
-93
-95
-101
-92
-89
-102
-80
-72
-114
-149
-261
-149
1044
2655
2385
285
-895
-417
-5
-166
-196
-115
-157
-158
-112
-115
-111
-86
-80
-70
-47
-31
-14
13
41
69
104
144
187
228
262
292
323
340
317
246
150
53
-35
-107
-157
-184
-195
-199
-199
-194
-185
-180
-177
-170
-162
-156
-150
-144
-138
-134
-131
-127
-122
-119
-118
-116
-116
-116
-115
-113
-112
-121
-132
-120
-81
-38
-6
-3
-39
-77
-86
-89
-90
-81
-90
-95
-71
-85
-122
-177
-296
136
1682
2811
1654
-389
-838
-193
-43
-212
-160
-123
-169
-141
-112
-121
-105
-86
-81
-63
-41
-28
-7
19
45
78
115
152
192
233
264
289
315
326
291
213
120
29
-57
-125
-169
-192
-203
-205
-201
-195
-187
-179
-171
-164
-159
-154
-152
-149
-146
-143
-139
-135
-131
-127
-125
-126
-125
-122
-121
-121
-121
-130
-140
-128
-90
-45
-11
-10
-47
-82
-91
-95
-92
-82
-94
-95
-70
-90
-121
-173
-282
225
1804
2764
1429
-529
-808
-154
-51
-202
-141
-118
-156
-121
-103
-112
-90
-71
-69
-50
-30
-15
10
37
61
94
142
194
231
257
299
344
356
341
296
205
106
36
-31
-103
-146
-156
-163
-170
-173
-178
-164
-126
-119
-154
-163
-132
-119
-125
-113
-99
-104
-111
-114
-120
-108
-86
-88
-107
-112
-106
-111
-130
-139
-118
-72
-27
-11
-42
-96
-124
-130
-138
-133
-130
-142
-124
-112
-147
-169
-271
-236
816
2468
2441
420
-934
-550
-64
-188
-243
-156
-185
-195
-149
-148
-146
-121
-115
-105
-77
-61
-47
-21
6
31
65
103
140
183
222
247
273
301
299
250
172
84
-2
-74
-127
-160
-175
-177
-173
-163
-150
-134
-123
-117
-109
-101
-97
-94
-90
-89
-91
-88
-87
-91
-91
-86
-88
-94
-94
-98
-108
-97
-57
-11
15
3
-46
-84
-90
-90
-85
-79
-91
-87
-76
-105
-117
-182
-291
364
1998
2632
989
-817
-821
-141
-74
-190
-125
-120
-147
-106
-93
-103
-85
-72
-62
-37
-18
-6
17
46
71
104
143
179
215
255
288
314
334
330
283
202
110
16
-71
-135
-170
-189
-201
-207
-203
-195
-186
-176
-163
-153
-147
-140
-135
-134
-133
-129
-125
-126
-129
-131
-130
-127
-130
-141
-140
-115
-76
-38
-29
-61
-100
-112
-117
-121
-114
-122
-130
-107
-116
-140
-146
-255
-33
1272
2575
1767
-393
-1207
-523
-85
-172
-160
-100
-125
-109
-83
-96
-83
-58
-52
-32
3
20
31
58
94
126
160
204
250
287
317
348
375
385
355
276
169
68
-20
-100
-163
-198
-213
-217
-216
-206
-194
-189
-186
-179
-167
-153
-146
-148
-145
-131
-126
-137
-142
-133
-132
-143
-139
-110
-78
-56
-48
-69
-108
-128
-129
-122
-111
-122
-126
-97
-115
-147
-121
-205
-36
1196
2491
1683
-515
-1340
-609
-112
-159
-129
-70
-97
-79
-49
-51
-31
-10
-9
7
34
51
71
100
129
158
193
238
292
335
355
373
400
410
371
286
183
77
-21
-100
-154
-185
-199
-205
-212
-214
-202
-188
-185
-184
-172
-157
-149
-146
-144
-142
-137
-129
-131
-143
-143
-122
-98
-75
-55
-66
-105
-132
-141
-141
-130
-132
-148
-126
-117
-155
-160
-242
-231
730
2267
2197
213
-1103
-687
-119
-159
-199
-124
-144
-147
-107
-105
-99
-72
-59
-47
-27
-10
12
39
63
91
129
172
213
254
289
320
349
361
330
256
161
62
-32
-109
-160
-189
-203
-210
-213
-211
-203
-195
-188
-177
-166
-160
-153
-145
-141
-136
-127
-130
-143
-141
-113
-77
-42
-26
-54
-102
-123
-127
-128
-117
-116
-124
-100
-97
-138
-169
-285
-149
1058
2562
2142
64
-969
-426
-29
-184
-202
-128
-166
-159
-116
-123
-116
-89
-84
-71
-42
-24
-6
21
50
81
123
167
209
250
285
311
335
341
304
222
123
27
-59
-128
-173
-196
-205
-209
-211
-210
-206
-201
-195
-187
-179
-174
-170
-165
-159
-153
-146
-147
-157
-153
-121
-78
-40
-25
-56
-105
-125
-125
-128
-118
-116
-127
-110
-108
-146
-188
-328
-190
1094
2709
2342
230
-866
-381
-29
-200
-211
-132
-173
-169
-126
-135
-130
-102
-93
-83
-59
-42
-29
-8
25
62
98
138
185
231
266
294
322
333
296
209
104
5
-78
-137
-173
-196
-208
-206
-198
-194
-196
-197
-189
-177
-169
-161
-151
-146
-146
-141
-131
-124
-124
-123
-116
-116
-127
-122
-87
-46
-17
-14
-46
-82
-94
-98
-99
-90
-97
-103
-76
-86
-122
-154
-291
-53
1333
2710
1908
-274
-1107
-464
-74
-176
-160
-109
-144
-125
-89
-95
-86
-65
-59
-42
-17
2
26
56
85
121
165
209
257
302
339
372
402
406
358
264
155
48
-50
-127
-176
-202
-214
-219
-220
-218
-211
-201
-193
-185
-172
-160
-152
-147
-140
-134
-128
-123
-122
-126
-128
-129
-130
-130
-133
-138
-139
-144
-158
-156
-120
-82
-56
-39
-52
-89
-104
-102
-108
-104
-97
-111
-98
-77
-113
-147
-247
-332
475
2259
2863
1136
-637
-633
-82
-115
-218
-138
-145
-169
-126
-119
-122
-93
-80
-78
-59
-41
-28
-4
31
61
92
134
182
223
261
301
337
366
369
317
222
120
26
-60
-125
-163
-182
-192
-194
-189
-184
-182
-180
-175
-172
-168
-162
-157
-153
-149
-144
-138
-134
-132
-130
-128
-126
-124
-123
-120
-117
-120
-121
-118
-128
-143
-125
-82
-49
-30
-25
-52
-86
-93
-92
-97
-88
-91
-105
-84
-79
-124
-167
-290
-142
1135
2762
2403
230
-950
-462
-44
-184
-203
-124
-160
-155
-110
-113
-109
-85
-77
-64
-40
-24
-6
21
49
81
124
172
221
271
314
350
383
401
376
300
196
91
-5
-84
-138
-167
-184
-194
-200
-203
-202
-196
-190
-183
-175
-166
-160
-155
-147
-140
-136
-133
-129
-127
-128
-129
-130
-131
-130
-129
-131
-131
-128
-126
-121
-114
-114
-117
-116
-125
-135
-112
-67
-32
-8
-5
-40
-73
-75
-77
-82
-72
-77
-83
-57
-68
-115
-182
-326
62
1671
3043
2058
-116
-799
-220
-41
-218
-177
-131
-176
-151
-120
-130
-113
-88
-83
-71
-52
-38
-16
12
37
68
109
154
202
251
295
332
366
383
357
282
180
77
-18
-95
-146
-177
-194
-200
-202
-204
-203
-198
-194
-189
-183
-177
-171
-163
-154
-146
-139
-134
-132
-128
-125
-125
-125
-122
-120
-119
-119
-117
-114
-113
-112
-109
-106
-104
-100
-99
-112
-125
-106
-59
-18
8
6
-31
-65
-72
-77
-79
-70
-81
-82
-56
-78
-120
-190
-321
201
1882
2981
1685
-370
-768
-165
-65
-218
-158
-134
-173
-138
-116
-127
-109
-90
-84
-64
-43
-28
-5
22
50
86
128
171
219
270
312
347
378
392
361
279
177
76
-17
-94
-145
-174
-190
-196
-199
-200
-199
-195
-192
-189
-181
-171
-164
-158
-152
-146
-142
-138
-134
-131
-129
-129
-129
-129
-126
-123
-121
-119
-116
-112
-111
-110
-109
-105
-101
-97
-91
-85
-91
-108
-110
-79
-28
12
20
-12
-52
-68
-74
-79
-68
-69
-82
-57
-54
-104
-145
-274
-132
1165
2805
2425
265
-867
-385
-18
-178
-192
-118
-158
-153
-111
-118
-113
-86
-78
-69
-49
-31
-12
13
40
72
110
151
196
245
291
330
364
391
385
326
231
129
32
-57
-123
-162
-183
-195
-199
-200
-198
-195
-190
-184
-178
-171
-164
-158
-153
-148
-145
-143
-140
-136
-134
-135
-136
-135
-132
-129
-125
-123
-122
-120
-117
-114
-107
-102
-110
-124
-119
-81
-29
6
3
-37
-75
-83
-87
-91
-83
-91
-101
-75
-83
-129
-183
-322
-24
1452
2855
2025
-123
-888
-293
-35
-200
-175
-121
-165
-146
-112
-121
-108
-85
-80
-66
-45
-28
-6
20
43
75
115
158
204
254
298
335
368
388
369
302
205
103
5
-79
-138
-174
-192
-199
-202
-202
-200
-198
-194
-186
-177
-172
-164
-152
-143
-141
-141
-137
-133
-130
-128
-127
-126
-123
-120
-119
-119
-118
-117
-113
-107
-101
-100
-111
-125
-113
-68
-17
7
-8
-52
-84
-92
-98
-92
-80
-92
-88
-62
-90
-130
-214
-335
293
2007
2861
1319
-634
-804
-157
-84
-208
-134
-117
-146
-108
-91
-96
-77
-65
-59
-41
-23
-2
24
49
77
116
159
205
256
301
339
374
405
414
379
297
188
80
-15
-94
-151
-184
-199
-206
-208
-206
-204
-204
-200
-192
-183
-174
-162
-155
-155
-152
-144
-140
-137
-135
-137
-139
-136
-133
-132
-133
-129
-121
-117
-126
-138
-124
-76
-26
-5
-29
-74
-97
-98
-105
-102
-95
-109
-102
-81
-113
-147
-228
-308
414
2119
2780
1104
-755
-799
-155
-110
-219
-143
-139
-167
-125
-111
-116
-91
-79
-78
-59
-38
-21
3
31
58
90
132
184
240
289
326
361
394
402
356
259
146
41
-50
-126
-181
-205
-212
-224
-232
-226
-222
-236
-246
-231
-209
-205
-201
-177
-163
-174
-176
-163
-163
-170
-166
-162
-166
-167
-163
-167
-174
-174
-172
-162
-130
-80
-36
-25
-55
-93
-104
-103
-100
-84
-91
-117
-97
-84
-129
-165
-293
-251
892
2665
2706
704
-691
-420
-28
-158
-195
-121
-151
-141
-97
-112
-109
-77
-75
-68
-36
-17
-7
17
46
76
113
154
204
260
301
330
362
387
372
304
214
143
70
-46
-154
-181
-174
-194
-209
-197
-192
-194
-181
-167
-165
-158
-139
-119
-108
-103
-99
-92
-81
-71
-68
-70
-72
-71
-71
-71
-72
-83
-90
-65
-23
7
18
3
-39
-65
-66
-74
-77
-64
-74
-75
-45
-63
-112
-200
-305
306
2001
2955
1544
-441
-743
-152
-81
-223
-164
-151
-187
-150
-133
-147
-129
-113
-113
-100
-80
-67
-51
-25
3
33
72
117
157
198
240
274
298
309
278
189
79
-21
-110
-188
-239
-266
-282
-290
-290
-287
-286
-282
-273
-266
-261
-257
-252
-248
-237
-225
-222
-222
-213
-204
-210
-216
-208
-199
-201
-209
-220
-228
-208
-155
-99
-76
-100
-144
-166
-162
-161
-157
-144
-149
-150
-120
-126
-160
-228
-350
124
1735
2907
1772
-268
-762
-173
-32
-188
-141
-109
-140
-98
-69
-78
-55
-26
-19
-2
23
43
69
104
136
167
204
250
299
346
388
422
455
479
461
390
296
204
114
