# session 26
-21
-36
-3
70
52
-73
-145
-148
-170
-190
-182
-176
-168
-166
-163
-140
-144
-170
-228
-342
107
1663
2805
1662
-395
-871
-227
-74
-252
-198
-153
-200
-172
-139
-146
-127
-104
-98
-82
-60
-42
-18
10
39
76
115
153
191
224
251
277
295
280
225
146
61
-20
-89
-138
-165
-177
-183
-186
-184
-177
-169
-160
-149
-138
-132
-128
-124
-119
-115
-113
-112
-110
-116
-126
-114
-79
-45
-18
-11
-47
-94
-110
-115
-118
-108
-110
-118
-92
-93
-130
-181
-336
-115
1262
2687
1968
-164
-972
-332
-10
-184
-174
-107
-151
-138
-100
-110
-99
-70
-63
-49
-24
-6
15
45
72
101
138
176
214
248
275
296
311
304
256
175
83
-5
-82
-139
-174
-190
-196
-199
-200
-196
-185
-175
-168
-162
-154
-148
-143
-138
-137
-136
-130
-132
-140
-130
-96
-61
-36
-32
-64
-104
-120
-123
-121
-111
-118
-123
-101
-110
-140
-185
-340
-83
1279
2511
1597
-489
-1136
-422
-57
-175
-154
-97
-130
-115
-85
-91
-77
-58
-57
-41
-14
3
27
58
85
119
163
206
242
276
303
328
347
333
270
180
86
-5
-83
-135
-166
-186
-196
-200
-203
-201
-190
-172
-161
-158
-156
-145
-130
-121
-124
-126
-120
-126
-138
-127
-95
-59
-23
-16
-59
-106
-120
-122
-122
-112
-119
-121
-92
-99
-132
-171
-310
-38
1335
2544
1557
-576
-1179
-403
-36
-171
-151
-98
-141
-120
-78
-81
-70
-48
-39
-20
7
27
50
80
112
149
188
225
259
289
311
329
339
321
264
184
99
15
-63
-122
-158
-178
-192
-201
-206
-206
-201
-192
-182
-171
-161
-154
-146
-137
-132
-123
-108
-107
-112
-93
-52
-15
10
3
-42
-78
-84
-87
-85
-79
-95
-96
-77
-103
-125
-190
-373
55
1621
2619
1294
-746
-1111
-390
-128
-217
-174
-148
-176
-142
-114
-119
-103
-79
-62
-41
-20
0
27
58
88
126
169
210
248
284
310
329
338
315
249
161
68
-26
-108
-158
-186
-209
-224
-227
-228
-226
-215
-198
-184
-171
-154
-138
-129
-118
-109
-119
-131
-125
-121
-131
-122
-89
-59
-40
-37
-69
-111
-125
-128
-131
-118
-120
-132
-105
-102
-144
-164
-295
-234
948
2576
2280
99
-1157
-661
-120
-165
-179
-114
-144
-138
-94
-95
-85
-53
-44
-31
0
22
38
69
108
142
178
224
271
309
338
366
385
375
322
236
138
43
-47
-120
-161
-176
-185
-195
-199
-198
-192
-181
-172
-169
-165
-157
-150
-143
-140
-143
-143
-142
-154
-162
-137
-97
-72
-55
-54
-88
-125
-133
-136
-140
-127
-128
-137
-114
-122
-165
-224
-386
-113
1407
2951
2214
-27
-950
-398
-103
-256
-237
-178
-219
-200
-162
-170
-157
-127
-118
-108
-86
-63
-39
-13
20
61
105
151
197
233
261
292
315
299
236
150
60
-30
-109
-162
-190
-205
-212
-213
-211
-209
-207
-202
-193
-183
-176
-169
-158
-148
-145
-145
-137
-130
-140
-146
-119
-80
-53
-31
-26
-58
-96
-107
-109
-107
-96
-105
-108
-82
-97
-138
-208
-375
29
1701
3075
2003
-234
-907
-295
-85
-240
-196
-153
-196
-170
-140
-150
-133
-110
-104
-88
-64
-46
-23
9
44
84
129
179
228
269
301
334
351
324
253
160
65
-27
-103
-154
-185
-200
-204
-204
-206
-206
-201
-195
-190
-182
-173
-165
-159
-154
-148
-141
-139
-139
-137
-145
-159
-147
-110
-77
-49
-28
-44
-85
-105
-107
-111
-100
-95
-109
-88
-73
-115
-158
-296
-284
849
2703
2816
720
-818
-541
-66
-185
-243
-157
-186
-195
-148
-148
-149
-123
-112
-103
-81
-64
-44
-15
16
52
94
139
186
232
271
305
333
331
282
198
102
8
-78
-142
-183
-204
-211
-209
-206
-205
-203
-202
-198
-191
-184
-178
-171
-164
-159
-150
-142
-138
-134
-132
-133
-128
-127
-143
-152
-128
-89
-59
-32
-25
-55
-89
-95
-93
-95
-91
-100
-107
-79
-82
-125
-182
-349
-112
1367
2926
2233
-12
-963
-393
-58
-204
-198
-139
-177
-161
-126
-130
-113
-88
-84
-71
-49
-30
-3
28
52
82
127
178
228
270
304
340
370
359
297
208
112
14
-70
-128
-164
-185
-191
-189
-187
-187
-182
-175
-169
-165
-158
-152
-150
-145
-135
-129
-128
-127
-124
-119
-116
-117
-118
-119
-129
-142
-136
-106
-74
-45
-23
-33
-71
-93
-93
-98
-96
-91
-105
-96
-76
-110
-146
-246
-328
486
2294
2893
1069
-815
-801
-158
-138
-237
-154
-157
-180
-134
-123
-129
-104
-90
-84
-60
-40
-23
5
38
68
108
155
203
248
289
323
350
357
323
246
149
53
-38
-115
-167
-194
-207
-214
-216
-214
-210
-206
-201
-194
-184
-174
-167
-160
-150
-142
-138
-132
-127
-130
-131
-126
-126
-133
-137
-146
-156
-145
-112
-77
-45
-24
-40
-79
-94
-92
-97
-92
-85
-98
-86
-63
-100
-151
-275
-314
651
2552
3058
1151
-647
-584
-60
-153
-256
-159
-173
-199
-149
-142
-149
-122
-109
-105
-83
-63
-47
-22
7
37
74
117
163
208
249
283
313
325
295
220
128
37
-49
-120
-167
-191
-201
-201
-201
-201
-200
-196
-193
-191
-186
-176
-169
-164
-156
-145
-138
-134
-127
-121
-121
-121
-117
-117
-123
-126
-134
-145
-137
-105
-68
-36
-15
-30
-69
-86
-83
-89
-86
-79
-92
-80
-57
-94
-140
-252
-332
519
2391
3043
1251
-614
-629
-73
-131
-246
-157
-167
-192
-139
-130
-144
-121
-107
-102
-83
-63
-45
-18
12
44
81
122
167
216
258
294
330
345
310
232
144
55
-40
-119
-163
-186
-202
-208
-205
-204
-203
-199
-195
-191
-186
-179
-170
-161
-156
-150
-141
-137
-134
-126
-122
-120
-114
-113
-121
-123
-115
-121
-133
-117
-80
-47
-21
-8
-32
-67
-75
-74
-81
-72
-70
-83
-58
-46
-93
-133
-260
-208
948
2676
2565
409
-975
-560
-56
-159
-198
-117
-148
-153
-111
-115
-112
-86
-78
-67
-42
-24
-7
21
54
89
128
170
219
266
302
331
356
359
314
230
132
35
-55
-126
-171
-198
-213
-219
-220
-218
-215
-209
-202
-194
-183
-174
-166
-158
-150
-145
-140
-135
-130
-126
-124
-123
-120
-119
-125
-129
-131
-142
-148
-125
-85
-52
-26
-23
-55
-87
-90
-89
-92
-82
-86
-95
-70
-72
-120
-182
-321
-44
1436
2973
2292
95
-827
-291
-35
-226
-210
-145
-194
-177
-135
-147
-137
-110
-104
-93
-72
-56
-37
-11
16
49
90
135
181
223
257
286
311
310
263
182
92
4
-75
-136
-172
-189
-197
-201
-201
-198
-196
-194
-188
-180
-169
-159
-151
-145
-137
-130
-123
-118
-113
-110
-107
-105
-103
-102
-104
-105
-107
-120
-125
-97
-53
-21
0
-5
-43
-76
-78
-79
-82
-70
-77
-87
-64
-71
-115
-176
-315
32
1571
2956
2045
-122
-843
-250
-41
-223
-188
-134
-182
-159
-124
-135
-121
-96
-94
-83
-61
-44
-25
1
29
62
101
146
194
237
271
300
322
317
268
185
91
0
-80
-140
-177
-196
-203
-206
-207
-206
-200
-194
-189
-181
-170
-162
-156
-151
-146
-139
-131
-126
-124
-124
-123
-119
-117
-116
-119
-131
-141
-123
-81
-42
-14
-11
-46
-83
-90
-93
-99
-90
-93
-106
-78
-73
-117
-162
-293
-105
1234
2786
2264
107
-907
-374
-34
-203
-207
-133
-171
-166
-130
-139
-130
-102
-93
-81
-62
-42
-18
6
30
65
108
152
198
242
273
300
328
333
285
198
106
17
-68
-136
-175
-192
-202
-209
-209
-202
-189
-181
-181
-178
-162
-148
-146
-149
-142
-129
-120
-117
-116
-113
-113
-118
-114
-109
-120
-128
-98
-52
-21
-7
-19
-57
-83
-85
-89
-85
-76
-87
-81
-60
-84
-105
-172
-256
437
2103
2733
1028
-850
-877
-184
-96
-191
-119
-122
-152
-109
-99
-111
-90
-72
-66
-49
-31
-12
16
48
79
115
158
204
249
286
315
343
357
332
260
164
66
-30
-114
-171
-202
-219
-231
-236
-234
-228
-219
-207
-195
-186
-180
-172
-164
-155
-147
-143
-139
-135
-135
-138
-137
-144
-158
-151
-115
-76
-45
-32
-56
-95
-107
-106
-112
-102
-95
-109
-92
-77
-114
-147
-251
-212
859
2577
2630
603
-832
-503
-32
-172
-233
-143
-173
-183
-136
-139
-140
-110
-102
-98
-76
-58
-42
-16
13
43
83
129
170
209
243
272
297
305
271
197
107
18
-62
-126
-169
-191
-200
-204
-204
-199
-193
-187
-180
-171
-162
-154
-146
-139
-133
-126
-123
-122
-118
-123
-134
-122
-85
-48
-18
-8
-39
-87
-105
-106
-107
-97
-97
-108
-84
-79
-121
-159
-284
-155
1084
2677
2319
188
-945
-442
-39
-194
-214
-134
-173
-169
-125
-134
-129
-99
-91
-83
-58
-39
-21
5
35
65
104
150
195
232
261
289
316
317
271
188
96
8
-74
-138
-177
-198
-211
-217
-216
-209
-202
-198
-191
-177
-164
-161
-160
-150
-140
-139
-138
-136
-142
-141
-115
-78
-47
-25
-36
-79
-107
-111
-118
-119
-116
-128
-116
-92
-122
-152
-244
-376
280
1973
2694
1082
-769
-827
-171
-108
-214
-137
-137
-176
-137
-118
-120
-96
-82
-76
-48
-25
-14
14
53
81
116
166
208
242
282
317
337
348
329
255
154
62
-23
-99
-146
-171
-193
-204
-199
-194
-195
-189
-174
-158
-151
-149
-143
-134
-130
-124
-115
-119
-122
-103
-68
-36
-17
-29
-72
-107
-118
-124
-117
-108
-123
-115
-91
-120
-147
-220
-347
256
1891
2615
1006
-895
-968
-236
-102
-203
-135
-124
-154
-118
-99
-106
-88
-70
-60
-40
-20
-1
26
57
89
126
168
211
252
286
312
337
348
314
233
138
44
-48
-123
-172
-199
-213
-222
-228
-227
-216
-205
-196
-186
-174
-162
-150
-144
-140
-134
-135
-147
-144
-113
-77
-45
-26
-48
-96
-121
-127
-134
-127
-122
-136
-120
-102
-139
-178
-292
-273
771
2511
2632
630
-834
-517
-37
-181
-249
-153
-183
-198
-148
-149
-151
-123
-114
-107
-83
-65
-49
-23
7
37
75
116
157
196
228
255
280
285
246
169
82
-3
-84
-145
-178
-193
-201
-205
-206
-203
-196
-190
-183
-173
-163
-153
-144
-139
-133
-126
-130
-134
-109
-66
-31
-5
-4
-45
-87
-100
-106
-106
-97
-108
-111
-86
-101
-144
-234
-404
60
1729
2924
1724
-355
-803
-183
-67
-237
-182
-150
-194
-161
-133
-144
-127
-109
-105
-88
-66
-50
-26
4
34
71
113
156
198
235
266
293
307
284
218
127
32
-55
-125
-170
-193
-204
-212
-215
-212
-209
-207
-201
-189
-176
-165
-155
-147
-138
-128
-125
-122
-119
-128
-130
-103
-66
-36
-12
-18
-61
-93
-100
-108
-104
-91
-105
-105
-80
-102
-136
-230
-388
208
1953
2898
1410
-576
-792
-158
-96
-233
-159
-145
-182
-142
-122
-133
-113
-95
-90
-70
-48
-30
-7
20
52
92
134
174
215
253
289
323
339
311
240
148
54
-37
-109
-155
-178
-190
-198
-201
-199
-194
-190
-184
-173
-161
-151
-145
-140
-135
-131
-126
-123
-119
-119
-124
-123
-122
-136
-146
-122
-81
-50
-30
-37
-75
-102
-103
-105
-102
-92
-102
-99
-74
-93
-125
-195
-341
154
1805
2878
1556
-518
-889
-216
-69
-217
-159
-129
-169
-135
-109
-119
-102
-83
-79
-63
-43
-26
-3
26
56
92
135
181
225
264
295
326
346
331
267
176
82
-9
-91
-148
-181
-202
-213
-216
-217
-216
-209
-198
-187
-175
-163
-151
-140
-131
-124
-120
-115
-110
-108
-108
-107
-108
-106
-103
-106
-114
-115
-120
-134
-131
-98
-60
-27
-7
-27
-67
-82
-82
-88
-80
-76
-90
-74
-61
-101
-143
-279
-260
856
2642
2696
635
-798
-460
-9
-161
-218
-126
-159
-169
-121
-125
-127
-101
-93
-85
-63
-46
-30
-5
22
53
91
131
172
213
249
279
308
322
295
224
134
45
-39
-109
-154
-177
-188
-193
-196
-197
-194
-188
-181
-173
-163
-154
-144
-136
-129
-123
-117
-111
-106
-103
-101
-100
-99
-98
-97
-94
-91
-89
-85
-82
-86
-91
-97
-109
-111
-83
-42
-8
16
8
-33
-59
-62
-69
-66
-58
-71
-66
-42
-71
-112
-216
-331
400
2196
2958
1312
-562
-636
-62
-96
-228
-141
-142
-178
-137
-126
-133
-108
-96
-97
-78
-58
-42
-18
11
38
71
111
155
201
242
273
301
325
316
255
169
80
-12
-98
-154
-183
-199
-212
-217
-216
-212
-211
-208
-203
-196
-188
-180
-172
-165
-158
-150
-146
-147
-146
-144
-141
-139
-134
-130
-129
-126
-123
-125
-124
-121
-122
-121
-116
-126
-137
-117
-72
-36
-11
-10
-44
-79
-84
-85
-84
-71
-80
-87
-59
-69
-111
-168
-318
17
1531
2832
1835
-318
-956
-298
-42
-191
-157
-115
-158
-132
-100
-110
-95
-72
-67
-49
-23
-6
16
45
75
108
149
195
245
292
331
362
385
383
337
253
155
57
-31
-99
-142
-165
-178
-187
-192
-191
-183
-173
-163
-151
-137
-122
-109
-98
-89
-81
-75
-70
-68
-67
-66
-65
-62
-61
-61
-58
-60
-63
-63
-68
-79
-69
-31
8
38
49
21
-22
-36
-38
-46
-38
-35
-50
-32
-19
-64
-111
-240
-186
957
2698
2669
598
-775
-412
16
-148
-200
-111
-150
-161
-115
-122
-125
-98
-93
-90
-71
-57
-42
-19
4
31
66
107
150
192
228
257
284
293
260
183
89
-7
-98
-172
-220
-246
-261
-272
-280
-286
-291
-292
-288
-279
-269
-260
-250
-241
-233
-228
-224
-219
-214
-212
-210
-209
-208
-205
-204
-210
-211
-210
-221
-228
-205
-163
-127
-102
-108
-149
-178
-180
-184
-186
-174
-181
-179
-150
-165
-202
-268
-398
91
1735
2863
1625
-432
-846
-216
-94
-252
-185
-146
-183
-144
-112
-116
-91
-64
-53
-28
1
24
56
94
132
177
230
284
341
398
446
486
519
521
475
396
309
224
151
101
74
64
66
72
78
84
