# session 23
-20
-28
-7
73
113
63
56
130
177
191
211
196
127
47
-30
-114
-190
-241
-269
-284
-292
-292
-284
-271
-257
-242
-227
-212
-198
-186
-175
-166
-158
-152
-148
-145
-140
-137
-140
-144
-152
-164
-161
-135
-96
-57
-29
-31
-62
-85
-88
-90
-84
-74
-82
-74
-50
-72
-104
-186
-252
487
2216
2918
1251
-653
-732
-100
-85
-217
-132
-124
-158
-114
-98
-106
-80
-61
-57
-36
-14
2
29
63
97
139
189
239
282
314
340
358
351
306
231
146
61
-20
-88
-130
-151
-163
-171
-173
-171
-165
-157
-150
-143
-135
-128
-122
-118
-117
-114
-111
-111
-111
-110
-112
-121
-129
-138
-149
-144
-117
-82
-49
-27
-39
-78
-100
-101
-103
-97
-94
-107
-94
-79
-115
-149
-250
-241
750
2481
2675
672
-923
-662
-94
-175
-256
-166
-186
-203
-152
-146
-149
-122
-109
-101
-76
-51
-28
0
30
67
112
160
208
252
286
313
331
320
267
187
98
10
-69
-129
-170
-194
-206
-210
-208
-201
-193
-183
-174
-167
-159
-150
-145
-144
-140
-137
-138
-138
-135
-137
-142
-146
-158
-168
-152
-116
-83
-57
-45
-68
-103
-116
-119
-118
-104
-107
-118
-95
-95
-131
-176
-306
-60
1327
2765
2040
-177
-1099
-474
-78
-206
-201
-134
-167
-155
-120
-124
-111
-84
-74
-52
-21
-3
15
47
89
132
177
228
281
321
348
372
384
356
285
197
107
16
-61
-115
-152
-176
-186
-186
-181
-172
-162
-156
-149
-140
-133
-128
-122
-117
-116
-115
-111
-112
-121
-124
-127
-139
-143
-120
-91
-68
-47
-51
-84
-110
-116
-122
-117
-110
-122
-113
-95
-123
-144
-218
-271
497
2161
2657
853
-981
-928
-216
-140
-237
-159
-153
-178
-136
-122
-128
-103
-86
-78
-56
-32
-11
20
57
95
138
189
240
282
313
338
356
346
294
216
127
34
-52
-119
-162
-187
-202
-209
-210
-204
-194
-183
-174
-165
-156
-148
-141
-133
-130
-132
-131
-128
-132
-141
-149
-162
-167
-147
-110
-76
-48
-42
-70
-104
-114
-116
-112
-101
-105
-108
-85
-94
-130
-189
-299
155
1739
2937
1802
-347
-912
-263
-71
-243
-197
-150
-195
-169
-135
-142
-127
-104
-96
-77
-54
-35
-10
21
55
95
140
187
232
268
295
318
323
292
226
147
63
-19
-87
-134
-161
-174
-179
-180
-178
-169
-158
-151
-144
-138
-132
-126
-119
-115
-113
-112
-111
-112
-112
-111
-116
-121
-123
-134
-146
-136
-104
-71
-39
-24
-48
-87
-101
-102
-105
-98
-101
-114
-90
-82
-124
-164
-285
-173
1034
2668
2390
214
-1046
-552
-68
-198
-233
-145
-176
-178
-132
-136
-131
-99
-91
-90
-74
-53
-26
7
36
69
113
158
203
248
283
308
323
312
260
178
92
12
-63
-123
-157
-172
-185
-196
-194
-184
-177
-169
-154
-141
-136
-132
-124
-114
-109
-111
-112
-107
-102
-108
-112
-108
-113
-127
-124
-100
-73
-42
-17
-28
-69
-93
-99
-102
-90
-84
-96
-81
-69
-98
-105
-195
-246
618
2251
2461
497
-1158
-938
-234
-144
-188
-112
-115
-131
-99
-92
-85
-57
-43
-33
-11
6
29
65
103
146
195
239
283
335
376
397
407
395
343
255
155
55
-35
-104
-151
-179
-196
-208
-213
-206
-194
-188
-179
-162
-149
-143
-138
-131
-125
-123
-129
-134
-134
-143
-163
-170
-153
-126
-100
-76
-70
-91
-118
-135
-145
-140
-134
-139
-123
-110
-144
-163
-241
-305
481
2192
2723
923
-939
-934
-252
-167
-252
-178
-178
-199
-154
-137
-140
-114
-95
-85
-62
-40
-17
17
53
93
141
192
243
292
331
357
370
353
293
208
120
28
-63
-132
-173
-194
-206
-214
-219
-219
-210
-199
-191
-180
-163
-148
-140
-139
-141
-136
-129
-138
-154
-150
-125
-98
-71
-49
-56
-87
-108
-117
-120
-109
-107
-120
-104
-93
-134
-178
-298
-228
918
2680
2698
598
-889
-571
-82
-204
-261
-170
-200
-210
-162
-162
-162
-132
-121
-112
-87
-65
-46
-16
18
56
102
154
205
247
275
297
306
281
219
141
59
-27
-104
-154
-180
-197
-205
-206
-204
-200
-196
-191
-186
-177
-169
-163
-157
-154
-153
-148
-147
-154
-152
-126
-93
-66
-42
-40
-71
-102
-111
-113
-109
-98
-109
-109
-83
-100
-143
-232
-317
354
2097
3017
1526
-495
-770
-165
-115
-264
-187
-163
-203
-168
-145
-150
-128
-110
-104
-84
-63
-45
-18
13
45
88
138
186
229
263
292
311
302
250
175
93
8
-73
-133
-169
-189
-198
-198
-197
-196
-194
-186
-176
-167
-160
-154
-152
-153
-153
-162
-172
-154
-114
-79
-52
-38
-60
-99
-118
-124
-127
-117
-119
-135
-116
-108
-153
-224
-375
-185
1188
2873
2513
333
-861
-426
-76
-252
-272
-190
-227
-224
-180
-184
-178
-151
-145
-133
-105
-85
-66
-35
3
41
82
127
170
206
234
261
273
245
181
101
18
-61
-127
-171
-194
-204
-208
-208
-204
-199
-194
-189
-184
-173
-157
-153
-162
-162
-157
-168
-170
-142
-107
-80
-53
-49
-84
-118
-125
-126
-120
-113
-128
-126
-98
-119
-162
-260
-407
198
1981
2993
1495
-603
-887
-214
-111
-249
-175
-151
-184
-139
-115
-132
-115
-87
-72
-53
-32
-9
22
54
91
137
184
231
275
309
335
356
351
304
228
144
58
-24
-87
-129
-153
-163
-164
-161
-156
-149
-145
-143
-134
-123
-121
-124
-125
-123
-122
-129
-142
-141
-120
-95
-69
-47
-53
-89
-117
-125
-130
-126
-120
-134
-127
-100
-125
-165
-265
-360
385
2182
2952
1268
-712
-835
-192
-156
-285
-201
-191
-223
-180
-164
-174
-149
-129
-123
-104
-83
-65
-38
-5
30
72
118
160
196
223
245
266
266
227
159
84
4
-72
-130
-165
-187
-197
-198
-195
-190
-182
-171
-162
-154
-147
-141
-137
-136
-140
-145
-152
-164
-170
-154
-120
-87
-60
-49
-69
-104
-122
-127
-129
-116
-115
-125
-102
-95
-139
-201
-347
-163
1205
2889
2521
336
-850
-416
-79
-256
-263
-177
-220
-218
-171
-181
-182
-151
-137
-129
-108
-88
-69
-38
3
40
76
116
155
188
215
239
253
243
198
128
56
-13
-84
-139
-162
-166
-168
-164
-154
-147
-141
-134
-130
-126
-119
-110
-102
-98
-97
-95
-96
-99
-96
-96
-107
-104
-79
-53
-31
-15
-30
-64
-76
-75
-79
-72
-70
-80
-61
-56
-93
-119
-236
-191
911
2560
2421
262
-1147
-713
-121
-163
-198
-115
-137
-140
-99
-100
-94
-63
-52
-41
-15
6
26
54
86
122
163
205
243
271
290
308
319
300
243
166
87
7
-71
-132
-171
-191
-199
-199
-195
-188
-178
-168
-160
-152
-145
-142
-140
-136
-136
-142
-149
-159
-175
-178
-160
-132
-100
-76
-82
-114
-134
-136
-138
-131
-122
-131
-124
-108
-127
-150
-228
-209
656
2235
2542
811
-717
-576
-75
-162
-256
-165
-176
-197
-149
-142
-147
-118
-105
-103
-85
-67
-51
-28
-4
20
51
84
115
139
155
170
184
183
154
101
40
-20
-76
-121
-145
-152
-154
-157
-154
-145
-138
-135
-130
-123
-119
-116
-112
-106
-100
-98
-103
-106
-114
-128
-128
-106
-77
-46
-19
-25
-58
-81
-86
-88
-79
-77
-90
-77
-64
-94
-117
-199
-136
857
2414
2433
541
-795
-475
-20
-156
-221
-129
-156
-172
-125
-124
-129
-104
-94
-86
-64
-48
-36
-13
12
39
74
108
138
163
181
197
214
210
171
108
42
-24
-85
-128
-153
-166
-170
-167
-161
-154
-147
-140
-135
-134
-133
-128
-120
-116
-113
-112
-116
-124
-133
-145
-148
-128
-95
-61
-31
-32
-68
-97
-101
-103
-99
-93
-102
-96
-80
-102
-123
-191
-241
472
2065
2638
1050
-642
-636
-71
-109
-234
-145
-144
-177
-133
-119
-126
-100
-85
-83
-62
-40
-25
-4
21
45
72
103
133
157
175
191
209
216
193
142
79
14
-46
-95
-126
-143
-147
-140
-130
-124
-121
-115
-109
-105
-102
-101
-104
-105
-104
-108
-114
-119
-130
-141
-127
-92
-60
-31
-18
-45
-86
-98
-97
-96
-88
-92
-99
-78
-86
-122
-177
-317
-18
1391
2669
1809
-236
-900
-288
-49
-222
-196
-144
-193
-176
-142
-152
-141
-117
-111
-96
-74
-58
-39
-16
7
36
69
96
122
143
160
183
205
194
144
82
20
-49
-114
-155
-181
-200
-199
-184
-177
-173
-158
-146
-145
-142
-138
-138
-133
-129
-133
-133
-133
-144
-143
-116
-89
-63
-25
-21
-71
-107
-100
-94
-94
-89
-93
-78
-63
-87
-92
-159
-228
506
2048
2340
468
-1198
-959
-183
-71
-126
-50
-62
-86
-43
-33
-36
-13
3
20
45
60
78
107
133
163
205
241
269
299
322
339
358
358
316
246
166
72
-20
-85
-121
-141
-150
-150
-144
-136
-130
-124
-119
-115
-110
-102
-100
-105
-108
-116
-135
-142
-125
-103
-85
-69
-79
-112
-135
-145
-151
-145
-147
-158
-136
-129
-166
-183
-293
-278
727
2258
2090
55
-1178
-670
-111
-189
-224
-140
-172
-180
-136
-136
-134
-105
-94
-84
-61
-42
-22
9
39
67
101
138
172
196
214
234
251
239
189
122
51
-26
-95
-143
-170
-187
-193
-189
-177
-165
-155
-147
-135
-124
-124
-129
-133
-142
-152
-140
-104
-65
-31
-14
-33
-72
-93
-97
-97
-90
-96
-104
-85
-88
-135
-230
-414
-156
1278
2763
2152
100
-776
-286
-51
-239
-229
-166
-212
-199
-160
-168
-154
-124
-116
-99
-72
-56
-36
-10
10
34
74
116
145
160
176
203
224
208
158
98
32
-38
-94
-124
-137
-148
-153
-147
-136
-129
-126
-124
-118
-110
-112
-121
-119
-118
-128
-125
-97
-66
-37
-14
-29
-71
-91
-96
-105
-98
-98
-114
-96
-83
-119
-184
-381
-321
919
2570
2258
143
-973
-452
-39
-189
-205
-125
-165
-166
-123
-124
-115
-85
-76
-64
-42
-25
-3
25
49
79
117
151
173
190
211
242
261
242
188
122
49
-33
-102
-136
-152
-171
-182
-175
-168
-166
-157
-144
-131
-116
-109
-118
-123
-125
-133
-128
-101
-70
-42
-29
-56
-99
-118
-120
-116
-101
-104
-114
-93
-104
-143
-167
-327
-231
987
2383
1714
-450
-1310
-576
-74
-157
-150
-82
-116
-105
-65
-69
-64
-35
-18
-5
14
41
76
104
128
158
193
229
268
298
316
338
344
297
216
144
75
-13
-93
-137
-157
-175
-183
-181
-176
-172
-164
-154
-146
-138
-135
-134
-134
-138
-135
-121
-112
-107
-88
-78
-89
-100
-115
-133
-120
-104
-122
-116
-91
-118
-128
-168
-289
189
1544
2069
541
-1170
-1145
-343
-104
-151
-91
-72
-83
-53
-46
-43
-16
-15
-17
18
49
60
76
108
152
200
239
265
293
327
353
354
325
272
204
128
48
-29
-90
-122
-130
-135
-147
-154
-147
-133
-128
-128
-120
-103
-86
-84
-98
-95
-68
-62
-79
-63
-19
-19
-66
-102
-107
-94
-87
-108
-120
-97
-104
-123
-135
-265
-163
838
1910
1270
-541
-1229
-574
-103
-138
-116
-44
-70
-83
-57
-30
-10
-23
-35
12
58
43
31
72
120
142
161
191
223
246
260
270
264
227
170
105
32
-31
-72
-103
-130
-139
-135
-135
-137
-132
-128
-125
-119
-113
-109
-103
-96
-91
-93
-100
-98
-92
-86
-70
-49
-54
-83
-108
-120
-115
-102
-111
-119
-102
-107
-124
-155
-259
2
1131
2059
1237
-421
-854
-262
-22
-145
-123
-83
-122
-108
-81
-91
-80
-55
-50
-47
-32
-17
-2
15
39
71
104
134
158
179
201
220
216
182
130
71
7
-55
-101
-127
-144
-152
-152
-151
-151
-146
-136
-131
-126
-117
-107
-103
-100
-98
-98
-98
-94
-94
-98
-104
-114
-127
-126
-105
-74
-41
-16
-24
-58
-80
-83
-86
-81
-77
-88
-79
-63
-92
-146
-246
-142
934
2619
2772
883
-597
-418
-26
-185
-256
-160
-187
-202
-153
-153
-158
-131
-121
-117
-98
-82
-68
-45
-16
12
42
73
106
134
155
175
194
193
155
97
36
-25
-83
-124
-147
-159
-164
-165
-165
-164
-158
-153
-149
-145
-139
-132
-126
-120
-112
-106
-103
-101
-100
-100
-102
-102
-100
-101
-104
-104
-105
-111
-117
-124
-134
-129
-99
-61
-28
-4
-13
-49
-68
-70
-74
-63
-55
-69
-54
-37
-77
-131
-261
-189
978
2761
2779
694
-755
-444
-19
-183
-238
-144
-178
-187
-137
-141
-145
-119
-109
-99
-79
-65
-48
-20
5
32
69
108
144
175
199
218
237
241
208
145
75
3
-67
-123
-156
-174
-182
-183
-178
-173
-167
-163
-161
-155
-147
-142
-140
-137
-134
-132
-128
-125
-128
-130
-127
-129
-135
-133
-131
-137
-143
-146
-156
-159
-134
-94
-56
-28
-32
-66
-91
-96
-99
-92
-85
-99
-88
-69
-100
-138
-244
-290
604
2397
2869
1028
-700
-604
-61
-144
-250
-158
-171
-197
-145
-133
-138
-112
-98
-91
-68
-48
-33
-9
21
55
96
137
177
215
245
270
293
297
263
198
125
51
-21
-79
-116
-135
-146
-151
-150
-146
-140
-132
-123
-116
-107
-97
-90
-87
-82
-77
-76
-76
-75
-74
-75
-75
-74
-78
-86
-90
-97
-107
-101
-72
-37
-2
21
1
-41
-58
-60
-62
-52
-54
-69
-50
-47
-89
-136
-268
-104
1199
2813
2424
272
-865
-392
-32
-206
-224
-145
-187
-184
-142
-151
-146
-120
-115
-106
-85
-73
-57
-30
-2
30
69
108
144
177
203
228
248
236
181
106
28
-51
-125
-178
-208
-224
-235
-240
-240
-235
-228
-219
-208
-199
-195
-192
-188
-184
-176
-165
-160
-163
-164
-163
-169
-174
-173
-175
-184
-199
-211
-199
-168
-133
-96
-72
-89
-128
-145
-149
-147
-132
-133
-142
-117
-116
-150
-188
-324
-117
1249
2774
2212
78
-903
-382
-44
-190
-188
-120
-155
-138
-96
-97
-80
-49
-39
-19
13
35
62
101
140
182
230
281
334
379
405
430
456
453
406
337
262
184
112
64
42
