# session 19
-20
-20
-28
47
164
192
176
209
256
293
347
400
420
426
428
403
347
277
201
123
52
-3
-39
-58
-66
-74
-82
-87
-88
-88
-83
-77
-75
-79
-78
-71
-70
-81
-88
-78
-58
-34
-11
-8
-34
-64
-83
-89
-78
-78
-97
-85
-70
-110
-167
-297
-253
766
2340
2334
427
-887
-551
-90
-204
-251
-160
-185
-195
-148
-150
-153
-124
-112
-105
-79
-49
-19
19
63
112
167
214
244
257
255
225
168
102
39
-27
-89
-133
-157
-166
-167
-170
-174
-177
-175
-171
-170
-169
-161
-148
-142
-140
-134
-136
-147
-147
-130
-109
-83
-55
-53
-79
-99
-111
-119
-110
-107
-119
-105
-94
-132
-188
-312
-229
836
2379
2287
378
-860
-506
-90
-221
-258
-165
-191
-197
-152
-151
-148
-119
-107
-94
-68
-44
-15
27
75
130
187
234
266
287
289
260
203
137
73
4
-61
-106
-127
-135
-139
-141
-145
-148
-147
-141
-135
-128
-121
-113
-105
-98
-90
-89
-89
-88
-97
-116
-113
-84
-55
-32
-15
-24
-53
-73
-81
-79
-68
-73
-81
-60
-64
-108
-181
-295
63
1458
2660
1804
-161
-818
-280
-82
-246
-214
-160
-200
-179
-145
-156
-143
-115
-106
-89
-63
-42
-13
30
77
125
175
219
250
268
263
225
164
102
37
-36
-103
-142
-157
-167
-176
-178
-175
-175
-176
-172
-163
-152
-145
-140
-133
-125
-119
-116
-117
-113
-104
-103
-113
-117
-114
-117
-119
-115
-125
-136
-117
-75
-39
-16
-15
-46
-77
-84
-80
-71
-60
-70
-68
-48
-74
-109
-167
-247
336
1901
2673
1177
-746
-931
-247
-111
-213
-138
-118
-145
-101
-76
-77
-51
-31
-24
-4
24
61
102
137
182
241
288
321
349
368
364
322
245
167
103
32
-47
-109
-141
-153
-158
-162
-161
-151
-136
-127
-117
-103
-104
-121
-126
-115
-113
-117
-110
-104
-115
-132
-144
-155
-162
-154
-133
-104
-76
-72
-94
-117
-127
-128
-115
-108
-120
-111
-98
-120
-136
-216
-213
614
2079
2249
528
-854
-617
-100
-169
-246
-156
-163
-180
-137
-129
-130
-103
-89
-78
-54
-35
-18
17
62
107
159
207
241
259
264
246
197
132
67
4
-58
-108
-133
-145
-154
-160
-161
-163
-164
-159
-149
-139
-138
-140
-131
-117
-110
-109
-105
-98
-94
-94
-99
-107
-116
-126
-131
-122
-99
-67
-43
-34
-41
-59
-79
-80
-59
-55
-71
-60
-54
-82
-103
-183
-109
829
2212
2119
346
-811
-458
-36
-153
-190
-103
-139
-154
-100
-86
-83
-62
-53
-43
-22
-3
27
63
91
130
186
237
268
288
296
279
231
162
94
33
-27
-79
-108
-119
-128
-133
-134
-136
-133
-120
-109
-108
-109
-107
-105
-99
-93
-94
-101
-102
-101
-107
-110
-110
-123
-141
-142
-126
-100
-66
-43
-54
-80
-94
-98
-95
-86
-93
-95
-74
-82
-108
-142
-226
109
1355
2331
1404
-392
-858
-263
-73
-234
-193
-139
-184
-164
-123
-132
-128
-104
-88
-66
-40
-18
8
44
91
144
190
223
248
268
272
242
186
126
67
-1
-65
-107
-128
-136
-139
-142
-143
-134
-125
-121
-119
-116
-109
-100
-96
-99
-99
-97
-94
-91
-94
-105
-113
-116
-120
-110
-77
-43
-33
-51
-72
-80
-87
-90
-85
-87
-80
-67
-81
-98
-172
-233
391
1790
2259
798
-731
-695
-130
-122
-226
-148
-145
-172
-128
-116
-126
-97
-71
-61
-36
-9
8
31
71
120
172
222
258
279
290
286
253
196
130
61
-9
-66
-101
-121
-136
-145
-146
-139
-127
-118
-110
-98
-90
-91
-92
-89
-83
-83
-89
-97
-102
-112
-128
-133
-117
-93
-64
-43
-48
-72
-86
-95
-101
-95
-98
-101
-78
-81
-112
-163
-287
-4
1262
2325
1420
-453
-966
-341
-103
-234
-183
-127
-162
-143
-132
-161
-144
-109
-92
-61
-45
-53
-24
44
96
142
192
223
252
281
287
277
241
155
88
66
-16
-150
-210
-186
-137
-113
-151
-157
-71
-56
-147
-156
-92
-90
-109
-86
-63
-58
-85
-137
-143
-87
-37
-25
-16
-7
-27
-63
-71
-58
-56
-75
-96
-78
-56
-79
-78
-131
-227
365
1756
2133
521
-1055
-953
-276
-142
-180
-117
-134
-149
-76
-42
-88
-107
-41
21
-6
-27
54
125
122
159
248
290
308
353
359
321
310
279
175
103
85
-24
-173
-181
-131
-146
-119
-78
-160
-193
-70
-75
-201
-115
27
-109
-271
-189
-92
-111
-108
-96
-113
-80
-52
-104
-145
-129
-99
-75
-97
-142
-138
-139
-176
-248
-382
-9
1357
2280
1124
-699
-942
-237
-112
-254
-115
-106
-248
-124
31
-124
-268
-165
-66
-44
13
7
-20
107
198
99
99
254
273
172
159
197
194
160
102
21
-83
-179
-201
-182
-176
-124
-68
-140
-207
-99
-19
-121
-181
-99
-74
-110
-45
24
-61
-133
-35
42
-22
-61
-37
-62
-54
36
0
-149
-103
50
-12
-146
-193
-153
546
1823
1847
20
-1393
-1020
-210
-72
-186
-131
-19
10
-45
-89
-46
28
42
4
11
100
193
204
155
165
296
399
356
334
445
491
346
169
119
133
48
-135
-229
-188
-168
-199
-159
-74
-95
-200
-216
-147
-151
-201
-150
-74
-127
-223
-179
-36
5
-77
-113
-104
-162
-171
-82
-108
-193
-123
-82
-188
-244
-392
-494
437
2035
2033
153
-1066
-665
-160
-200
-221
-166
-163
-87
-52
-144
-162
-87
-50
-16
17
1
14
74
103
147
244
272
214
233
336
339
224
154
127
31
-75
-103
-103
-105
-105
-133
-175
-174
-133
-107
-116
-127
-107
-88
-102
-117
-107
-93
-72
-38
-30
-58
-87
-104
-108
-97
-102
-114
-98
-102
-140
-231
-467
-355
887
2266
1738
-147
-938
-409
-82
-199
-201
-152
-182
-168
-138
-139
-115
-79
-61
-45
-38
-27
28
105
148
167
195
237
273
273
247
228
203
148
90
44
0
-49
-103
-140
-136
-128
-135
-111
-73
-81
-94
-72
-64
-83
-85
-68
-46
-11
23
21
-27
-86
-111
-82
-39
-46
-79
-77
-87
-122
-168
-378
-439
535
1978
1786
-80
-1165
-669
-126
-194
-264
-178
-133
-108
-95
-92
-53
-25
-33
-54
-84
-24
125
151
86
149
268
321
360
354
313
326
271
111
83
100
-65
-172
-105
-158
-222
-93
-116
-281
-158
-33
-224
-233
-14
-122
-307
-135
-6
-110
-114
-56
-75
-73
-129
-221
-145
-81
-199
-224
-92
-62
-227
-539
-471
778
2331
2021
117
-862
-435
-116
-201
-149
-140
-260
-183
-32
-84
-137
-45
-28
-88
-20
47
-21
4
145
161
138
243
298
227
208
243
214
151
86
-5
-78
-85
-91
-149
-166
-103
-111
-202
-177
-67
-95
-193
-159
-69
-90
-165
-168
-98
-50
-74
-91
-54
-40
-65
-82
-115
-143
-112
-89
-97
-74
-87
-151
-202
-382
-355
789
2334
2064
173
-785
-365
-123
-256
-174
-121
-223
-189
-95
-99
-97
-56
-36
-44
-65
-55
6
66
95
135
207
266
271
255
269
277
219
139
98
59
-17
-86
-111
-121
-131
-136
-142
-143
-130
-126
-133
-121
-98
-94
-95
-90
-96
-99
-82
-82
-105
-106
-81
-61
-43
-36
-54
-65
-63
-85
-110
-122
-148
-128
-58
-58
-94
-167
-358
-19
1396
2355
1177
-727
-1122
-464
-164
-187
-136
-127
-159
-121
-78
-67
-58
-61
-59
-20
23
51
80
115
162
233
304
337
349
369
371
326
258
191
114
32
-40
-105
-149
-160
-166
-184
-187
-174
-164
-152
-146
-156
-152
-125
-107
-103
-94
-93
-103
-106
-107
-121
-128
-129
-145
-157
-139
-110
-87
-57
-41
-70
-106
-105
-102
-123
-131
-119
-98
-84
-107
-124
-163
-302
44
1467
2612
1653
-302
-904
-364
-135
-235
-193
-165
-217
-201
-154
-135
-109
-86
-76
-61
-45
-24
15
61
103
154
214
263
293
317
334
314
247
163
87
17
-46
-94
-129
-155
-166
-170
-178
-187
-189
-183
-170
-156
-153
-147
-125
-105
-97
-91
-93
-103
-100
-83
-76
-88
-110
-116
-103
-98
-102
-81
-48
-26
-8
-14
-54
-73
-58
-56
-66
-66
-64
-47
-45
-88
-123
-231
-262
619
2271
2622
897
-661
-588
-111
-159
-238
-161
-175
-198
-144
-113
-114
-104
-87
-63
-35
-18
4
48
95
139
198
261
305
332
353
352
312
245
169
84
1
-57
-97
-137
-159
-151
-151
-174
-187
-178
-169
-163
-153
-142
-134
-114
-91
-85
-91
-93
-86
-81
-76
-72
-72
-73
-75
-83
-88
-74
-58
-65
-80
-78
-66
-65
-69
-70
-70
-67
-61
-58
-64
-64
-53
-51
-59
-57
-45
-37
-36
-37
-38
-37
-37
-36
-31
-26
-25
-24
-28
-35
-38
-35
-32
-33
-37
-36
-32
-35
-38
-28
-18
-26
-41
-45
-37
-24
-3
27
46
44
37
39
30
2
-28
-40
-29
-29
-50
-37
-17
-57
-95
-186
-212
644
2302
2682
907
-781
-774
-227
-173
-214
-134
-146
-184
-155
-123
-99
-75
-76
-76
-40
-3
16
43
67
88
159
239
247
255
329
393
409
388
278
132
74
44
-49
-121
-126
-132
-144
-146
-153
-135
-108
-130
-138
-95
-110
-166
-137
-99
-133
-113
-56
-110
-140
-34
-38
-194
-203
-93
-107
-152
-120
-143
-194
-147
-103
-135
-135
-106
-134
-146
-105
-116
-159
-129
-92
-112
-103
-67
-84
-97
-75
-92
-110
-57
-5
2
20
26
-18
-60
-84
-106
-96
-53
-29
-51
-104
-141
-207
-256
348
1862
2730
1555
-240
-670
-215
-100
-220
-201
-185
-214
-191
-151
-134
-122
-99
-78
-80
-75
-26
35
63
71
101
170
241
296
360
394
341
265
222
146
36
-14
-36
-119
-179
-141
-110
-147
-182
-186
-185
-164
-137
-138
-139
-133
-143
-137
-116
-122
-120
-90
-86
-64
-4
-35
-145
-148
-72
-68
-70
-2
-6
-120
-155
-75
-58
-111
-68
22
-14
-89
-37
14
-66
-127
-81
-42
-39
-19
10
2
-61
-113
-55
15
-22
-16
96
85
-38
-13
72
3
-64
-3
18
-49
-52
9
-6
-79
-90
-132
-131
641
2158
2597
1071
-494
-542
-81
-139
-280
-179
-131
-182
-155
-103
-116
-126
-101
-86
-65
-33
-22
22
84
64
66
211
318
288
307
381
329
230
226
199
55
-72
-107
-125
-167
-208
-215
-171
-142
-201
-264
-214
-132
-142
-200
-195
-125
-89
-140
-169
-110
-95
-159
-137
-47
-82
-181
-148
-58
-89
-161
-120
-56
-103
-166
-140
-108
-123
-124
-95
-71
-81
-103
-100
-99
-131
-129
-82
-69
-97
-120
-116
-62
-3
-25
-53
4
27
-42
-61
-39
-90
-119
-64
-60
-101
-75
-67
-108
-121
-208
-35
1088
2317
1779
-94
-1018
-584
-114
-72
-119
-150
-138
-68
-28
-34
-52
-43
34
85
31
26
147
200
131
168
327
386
388
479
525
504
564
518
287
226
269
42
-179
-78
-39
-209
-185
-18
-111
-298
-234
-143
-242
-256
-110
-78
-103
-23
-53
-230
-250
-132
-71
-13
10
-90
-106
-26
-126
-244
-99
10
-86
-77
-17
-155
-217
-27
60
-79
-172
-159
-146
-94
-1
31
34
52
-23
-139
-86
8
-83
-179
-101
-51
-132
-164
-74
-55
-258
-306
516
1886
2171
805
-613
-814
-414
-244
-238
-199
-177
-187
-182
-161
-150
-135
-57
32
-21
-143
-73
122
111
-35
65
320
360
322
394
312
161
313
407
137
22
107
-104
-325
-198
-136
-203
-85
-69
-288
-272
-104
-179
-217
-53
-52
-148
-83
-79
-190
-149
-54
-114
-169
-85
-28
-112
-184
-131
-77
-88
-76
-50
-55
-40
-48
-139
-158
-56
-60
-142
-87
-58
-141
-114
-170
-175
872
2344
1945
19
-786
-308
-185
-339
-168
-114
-251
-177
-31
-49
-123
-145
-121
-94
-31
76
50
-102
-47
213
324
248
219
312
442
505
443
301
169
88
22
-38
-43
-31
-91
-157
-143
-114
-126
-156
-165
-97
-20
-72
-148
-123
-119
-157
-96
-15
-67
-167
-158
-69
-40
-95
-87
-4
-18
-119
-138
-79
-72
-132
-158
-127
-109
-85
-105
-196
257
1502
2001
639
-979
-1137
-498
-184
-168
-156
-119
-84
-98
-153
-149
-55
-9
-73
-41
100
46
-60
133
306
194
211
425
465
437
511
454
273
217
215
88
-87
-167
-144
-135
-224
-289
-211
-133
-148
-164
-189
-215
-167
-144
-176
-130
-96
-147
-141
-123
-165
-104
-5
-59
-107
-69
-128
-172
-55
-31
-167
-193
-118
-129
-262
-352
196
1487
2021
749
-765
-829
-189
-49
-189
-171
-155
-207
-163
-53
-31
-95
-134
-110
-56
-10
22
50
52
59
180
307
243
166
285
387
320
246
197
73
-47
-60
-47
-97
-159
-173
-161
-172
-192
-157
-85
-94
-159
-130
-69
-105
-131
-82
-90
-147
-126
-82
-95
-60
35
10
-119
-146
-104
-105
-76
-48
-99
-102
-75
-138
-227
-234
296
1603
2221
917
-614
-610
-120
-227
-289
-51
-30
-172
-173
-111
-113
-133
-84
-3
-38
-110
-17
109
83
56
131
180
192
270
356
334
269
252
200
80
1
-23
-62
-95
-101
-130
-151
-118
-101
-98
-48
-63
-140
-88
-21
-109
-139
-32
-30
-132
-126
-22
17
-5
27
25
-109
-165
-72
-64
-96
-5
-11
-178
-229
-255
-213
658
2033
1962
233
-839
-449
-72
-211
-223
-132
-173
-172
-121
-136
-149
-122
-104
-100
-89
-45
12
15
-10
35
107
124
173
287
300
214
177
130
28
-5
-27
-127
-156
-139
-218
-234
-149
-182
-237
-166
-152
-200
-137
-81
-142
-188
-197
-212
-172
-97
-75
-105
-131
-115
-95
-133
-171
-141
-117
-126
-104
-111
-182
-257
-397
-290
770
2080
1721
-4
-755
-255
-64
-291
-222
-113
-227
-235
-100
-45
-69
-122
-166
-112
-13
4
-14
24
50
45
130
250
235
204
312
355
237
186
195
76
-36
-4
0
-66
-46
5
-55
-118
-67
-16
-13
48
102
26
-54
-23
44
