# session 20
-4
-1
2
-22
-13
114
249
208
73
95
233
255
257
430
531
358
257
393
381
174
169
259
73
-165
-132
-34
-60
-118
-151
-135
-68
-58
-86
-76
-109
-160
-93
-34
-130
-170
-6
97
-31
-118
-6
1
-184
-205
-67
-76
-99
-25
-109
-262
-298
-231
473
1801
2044
578
-660
-577
-207
-174
-183
-177
-189
-170
-178
-145
-55
-101
-215
-159
-51
-59
-54
20
50
47
89
147
174
186
214
260
265
175
56
-9
-44
-87
-120
-148
-168
-157
-145
-168
-183
-159
-140
-140
-127
-113
-124
-134
-113
-81
-63
-41
-16
-15
-39
-65
-81
-76
-72
-93
-97
-80
-97
-126
-235
-399
81
1478
2196
982
-629
-845
-298
-125
-178
-141
-130
-143
-115
-99
-97
-76
-59
-45
-21
-1
19
53
90
123
171
232
276
296
310
318
292
231
157
83
9
-60
-118
-155
-166
-167
-173
-181
-181
-176
-173
-164
-143
-128
-134
-151
-161
-154
-131
-102
-72
-47
-44
-61
-81
-95
-95
-87
-98
-104
-82
-96
-146
-220
-370
-103
1197
2426
1771
-27
-747
-332
-120
-237
-220
-173
-199
-185
-157
-155
-138
-116
-108
-92
-69
-48
-19
16
50
94
147
191
221
245
265
260
216
153
90
25
-43
-101
-136
-149
-152
-156
-160
-158
-152
-144
-137
-135
-136
-129
-124
-132
-130
-106
-77
-54
-31
-21
-38
-63
-83
-94
-90
-91
-101
-84
-76
-114
-169
-322
-332
594
2103
2231
598
-643
-475
-110
-185
-227
-160
-178
-184
-144
-139
-138
-115
-101
-88
-63
-44
-25
8
47
89
135
181
218
250
272
270
234
173
101
27
-41
-94
-134
-161
-169
-166
-168
-174
-172
-165
-159
-152
-148
-147
-142
-131
-127
-137
-147
-140
-119
-95
-69
-48
-50
-74
-96
-105
-102
-93
-101
-105
-85
-91
-125
-202
-347
-21
1300
2415
1654
-74
-670
-253
-98
-222
-193
-151
-177
-157
-130
-136
-124
-104
-92
-74
-52
-34
-8
25
62
105
150
192
231
263
276
265
224
162
96
27
-42
-97
-126
-139
-148
-157
-160
-157
-153
-151
-148
-141
-130
-124
-122
-116
-117
-130
-131
-110
-84
-60
-34
-27
-46
-68
-79
-82
-76
-80
-94
-80
-76
-106
-150
-313
-330
594
2021
2035
426
-681
-447
-91
-163
-202
-145
-158
-158
-127
-122
-113
-90
-78
-61
-38
-21
1
34
68
108
158
202
236
268
293
293
260
201
128
50
-22
-80
-121
-147
-159
-162
-163
-167
-168
-163
-153
-148
-142
-133
-126
-121
-112
-105
-106
-106
-108
-120
-123
-106
-88
-64
-34
-30
-55
-73
-78
-81
-76
-80
-86
-62
-63
-100
-138
-284
-247
737
2102
1955
306
-705
-427
-99
-169
-190
-138
-154
-151
-121
-119
-112
-91
-77
-63
-43
-23
2
33
70
110
156
201
236
267
300
311
274
211
153
86
12
-50
-113
-178
-199
-178
-156
-151
-164
-175
-157
-137
-141
-134
-114
-116
-109
-78
-77
-104
-107
-94
-84
-72
-83
-119
-125
-99
-83
-66
-31
-21
-52
-78
-97
-112
-87
-39
-4
17
-12
-65
-25
56
28
-45
-58
-51
-40
-26
-48
-131
-279
-43
1109
2175
1545
-56
-667
-307
-96
-128
-131
-152
-126
-74
-143
-175
-51
-9
-83
-41
42
-23
-63
71
170
112
84
180
282
324
330
318
285
216
134
98
73
-6
-84
-113
-141
-180
-196
-175
-121
-95
-145
-166
-111
-117
-196
-184
-85
-68
-121
-92
-24
-80
-191
-171
-77
-77
-131
-122
-82
-101
-164
-175
-114
-81
-104
-71
2
-26
-103
-80
-28
-62
-118
-93
-7
0
-112
-137
-105
-234
99
1454
2315
1093
-744
-1053
-389
-142
-213
-157
-96
-114
-126
-100
-55
-60
-100
-76
-30
-23
34
128
131
110
197
298
305
308
363
390
361
322
276
200
98
0
-55
-76
-131
-209
-218
-170
-159
-174
-156
-135
-152
-174
-162
-136
-128
-130
-117
-98
-108
-128
-128
-125
-135
-122
-86
-98
-142
-114
-43
-48
-105
-124
-103
-63
-44
-83
-121
-114
-104
-131
-236
-91
932
2188
1882
171
-754
-349
0
-142
-205
-124
-91
-86
-111
-148
-107
-50
-75
-89
-11
29
-30
-34
56
119
143
181
207
243
305
301
223
180
159
71
-37
-86
-105
-127
-145
-148
-135
-139
-169
-164
-124
-128
-160
-151
-131
-129
-109
-81
-85
-93
-83
-78
-86
-86
-82
-84
-91
-110
-132
-127
-109
-101
-82
-47
-42
-67
-80
-91
-102
-85
-74
-95
-93
-88
-110
-128
-225
-149
799
2091
1884
201
-774
-409
-55
-159
-179
-108
-131
-133
-97
-97
-91
-68
-62
-55
-31
-12
5
33
65
99
145
194
231
261
294
307
278
224
162
89
14
-47
-87
-111
-127
-136
-133
-127
-130
-133
-134
-131
-120
-104
-97
-93
-91
-93
-89
-80
-81
-86
-81
-84
-105
-120
-116
-113
-116
-105
-75
-51
-45
-43
-44
-64
-84
-74
-62
-78
-76
-65
-90
-102
-166
-226
402
1763
2164
763
-616
-580
-120
-119
-181
-112
-122
-156
-134
-125
-120
-97
-83
-66
-35
-26
-29
-4
41
79
110
152
197
225
249
279
276
224
166
113
31
-54
-95
-116
-139
-150
-153
-160
-153
-133
-131
-143
-139
-125
-128
-123
-94
-88
-112
-114
-106
-123
-126
-100
-103
-121
-94
-58
-57
-48
-27
-46
-82
-79
-61
-59
-66
-72
-62
-54
-72
-73
-142
-248
248
1462
1922
742
-587
-678
-217
-98
-142
-115
-116
-131
-110
-98
-90
-70
-61
-56
-35
-14
5
33
68
103
136
175
217
252
279
303
302
254
188
137
73
-15
-81
-109
-128
-148
-155
-147
-139
-135
-129
-117
-108
-103
-96
-88
-84
-84
-85
-85
-82
-84
-97
-108
-101
-81
-55
-34
-33
-47
-61
-76
-85
-74
-77
-90
-69
-68
-106
-107
-185
-199
558
1757
1653
47
-1035
-737
-226
-146
-139
-95
-110
-105
-71
-61
-54
-36
-21
-3
21
42
62
88
126
171
217
261
299
329
351
356
328
267
196
122
43
-34
-92
-130
-153
-164
-169
-173
-167
-154
-145
-138
-130
-130
-133
-128
-120
-120
-129
-144
-148
-131
-108
-84
-62
-61
-81
-96
-106
-109
-97
-100
-113
-96
-93
-121
-152
-275
-203
736
1942
1684
101
-769
-424
-94
-169
-189
-137
-155
-153
-125
-125
-116
-91
-81
-71
-51
-29
-2
23
46
83
127
164
195
224
244
250
231
185
127
70
10
-49
-94
-119
-130
-137
-138
-131
-124
-120
-109
-94
-90
-92
-91
-91
-92
-98
-112
-119
-106
-80
-50
-20
-14
-38
-63
-76
-79
-73
-78
-85
-67
-69
-99
-128
-267
-248
652
1915
1778
245
-684
-403
-78
-140
-162
-117
-138
-134
-104
-107
-102
-79
-70
-62
-40
-17
3
28
57
91
131
169
198
225
249
255
234
193
138
74
9
-48
-92
-118
-129
-133
-136
-135
-131
-125
-121
-117
-111
-108
-113
-116
-116
-124
-132
-123
-102
-79
-47
-30
-45
-70
-87
-95
-89
-86
-93
-77
-72
-102
-128
-257
-354
333
1655
1869
442
-740
-584
-136
-127
-173
-125
-133
-140
-109
-103
-100
-79
-65
-53
-34
-17
5
34
61
89
133
178
208
233
255
266
250
210
154
92
24
-41
-89
-117
-133
-144
-146
-141
-133
-123
-115
-107
-97
-94
-94
-93
-102
-121
-121
-99
-79
-57
-31
-31
-56
-76
-89
-91
-80
-86
-97
-84
-93
-120
-179
-359
-206
910
2024
1448
-163
-768
-321
-78
-169
-160
-124
-150
-134
-106
-107
-91
-68
-60
-50
-29
-7
16
44
76
113
153
189
218
239
255
258
231
179
119
55
-10
-66
-106
-128
-136
-142
-149
-146
-133
-129
-129
-122
-117
-114
-111
-116
-129
-122
-97
-73
-48
-27
-32
-55
-75
-86
-84
-76
-86
-84
-66
-84
-114
-203
-387
-65
1196
2080
1186
-326
-653
-200
-80
-179
-147
-124
-149
-130
-111
-109
-92
-77
-69
-48
-28
-13
12
44
74
106
145
181
211
234
248
243
211
159
97
33
-30
-80
-111
-128
-138
-144
-146
-143
-135
-126
-119
-113
-113
-114
-107
-104
-117
-123
-104
-77
-46
-16
-13
-39
-59
-72
-77
-72
-76
-82
-67
-79
-111
-146
-321
-303
652
1896
1658
124
-705
-393
-102
-165
-174
-133
-154
-157
-140
-142
-129
-103
-90
-76
-50
-30
-15
14
57
101
139
175
211
234
245
249
230
184
126
65
-2
-60
-94
-112
-131
-145
-147
-146
-143
-134
-126
-123
-120
-113
-108
-100
-92
-95
-103
-97
-79
-58
-27
1
-6
-36
-54
-57
-54
-58
-74
-69
-46
-63
-83
-125
-276
-45
1069
1952
1155
-400
-857
-371
-94
-122
-105
-85
-104
-90
-72
-74
-64
-50
-41
-26
-5
10
31
62
93
126
167
205
228
239
250
251
223
171
113
53
-10
-66
-104
-123
-136
-151
-160
-154
-143
-139
-136
-128
-114
-101
-97
-95
-88
-90
-103
-106
-93
-78
-57
-34
-33
-53
-71
-87
-94
-85
-90
-102
-83
-87
-116
-133
-262
-233
680
1921
1692
56
-906
-574
-157
-150
-156
-115
-128
-121
-95
-96
-87
-66
-56
-43
-20
5
28
54
84
122
161
198
229
255
273
275
252
201
136
71
6
-54
-98
-124
-144
-158
-162
-162
-161
-156
-147
-135
-124
-114
-106
-97
-89
-87
-87
-90
-102
-114
-110
-94
-76
-52
-28
-31
-58
-80
-89
-84
-76
-87
-89
-68
-79
-105
-150
-281
-8
1199
2222
1471
-199
-769
-318
-89
-175
-158
-121
-144
-132
-109
-109
-96
-75
-66
-51
-31
-15
7
39
72
107
150
193
226
246
261
262
233
177
112
49
-13
-71
-114
-135
-144
-153
-161
-165
-165
-160
-148
-134
-121
-107
-96
-90
-83
-76
-73
-73
-71
-70
-70
-70
-71
-78
-85
-85
-93
-111
-108
-77
-46
-22
-8
-26
-61
-73
-70
-69
-63
-66
-74
-56
-54
-81
-110
-240
-187
773
2081
1910
278
-718
-433
-91
-155
-176
-122
-135
-131
-103
-105
-98
-75
-64
-52
-31
-14
4
31
62
97
136
177
215
246
269
284
274
230
170
112
49
-20
-74
-109
-129
-137
-140
-145
-146
-141
-133
-128
-121
-109
-100
-97
-94
-86
-79
-76
-75
-75
-76
-76
-77
-79
-79
-82
-87
-87
-84
-85
-87
-87
-88
-82
-74
-82
-96
-99
-105
-114
-99
-67
-34
-3
6
-23
-51
-54
-53
-50
-43
-50
-49
-37
-55
-71
-137
-261
185
1518
2289
1211
-361
-656
-196
-78
-164
-131
-116
-135
-108
-90
-92
-74
-58
-55
-38
-13
5
25
51
82
118
159
199
233
257
273
283
272
227
162
100
40
-23
-75
-105
-121
-130
-136
-137
-134
-132
-130
-124
-116
-111
-103
-94
-90
-90
-88
-85
-84
-84
-87
-90
-89
-88
-90
-91
-92
-93
-93
-90
-88
-88
-88
-87
-87
-85
-81
-79
-83
-86
-92
-107
-113
-92
-59
-30
-5
-1
-25
-48
-54
-53
-47
-46
-58
-46
-34
-60
-84
-178
-220
496
1890
2231
804
-550
-534
-114
-117
-183
-127
-129
-141
-107
-98
-102
-84
-67
-57
-42
-25
-4
20
46
78
118
160
200
234
259
276
279
255
205
144
82
18
-43
-91
-120
-136
-145
-148
-150
-152
-149
-142
-137
-132
-121
-107
-96
-91
-88
-83
-78
-79
-79
-78
-79
-80
-80
-80
-80
-78
-80
-84
-81
-78
-80
-81
-79
-78
-78
-73
-71
-76
-80
-92
-104
-94
-61
-31
0
21
3
-34
-46
-47
-47
-39
-41
-45
-29
-37
-64
-105
-229
-18
1114
2237
1681
32
-670
-288
-57
-155
-152
-114
-138
-125
-98
-99
-89
-70
-63
-50
-31
-14
7
32
59
91
130
175
218
247
266
278
269
230
176
115
47
-20
-72
-106
-128
-142
-149
-149
-146
-147
-149
-147
-144
-139
-129
-118
-114
-110
-102
-93
-87
-85
-86
-89
-88
-82
-79
-82
-87
-88
-84
-84
-91
-100
-112
-123
-112
-81
-48
-23
-18
-45
-74
-81
-82
-83
-76
-81
-82
-63
-74
-96
-136
-246
38
1196
2136
1378
-195
-690
-261
-81
-177
-158
-129
-155
-137
-112
-115
-103
-84
-74
-58
-41
-26
-6
18
47
84
126
167
209
244
265
269
250
205
147
85
18
-45
-92
-120
-134
-137
-138
-144
-148
-145
-136
-129
-124
-117
-104
-92
-88
-86
-81
-74
-70
-71
-70
-63
-61
-68
-71
-72
-80
-76
-50
-19
8
25
11
-23
-44
-48
-44
-38
-46
-49
-28
-38
-63
-74
-178
-80
830
1902
1570
92
-687
-383
-81
-116
-128
-96
-111
-103
-79
-77
-66
-45
-36
-25
-8
8
26
51
81
116
159
202
241
272
296
308
292
244
182
117
47
-22
-76
-111
-131
-139
-144
-150
-153
-149
-143
-135
-127
-121
-115
-107
-101
-101
-102
-97
-89
-90
-96
-97
-103
-118
-116
-92
-65
-41
-26
-42
-74
-93
-101
-101
-95
-104
-108
-88
-98
-118
-136
-255
-95
924
1939
1375
-215
-891
-479
-152
-174
-174
-145
-159
-147
-125
-123
-112
-96
-86
-71
-52
-33
-10
15
42
79
123
167
207
233
250
258
239
184
114
47
-23
-94
-146
-175
-194
-208
-212
-212
-211
-208
-203
-198
-192
-182
-175
-170
-164
-157
-154
-152
-154
-160
-158
-139
-114
-86
-62
-68
-94
-110
-117
-118
-109
-106
-109
-89
-86
-110
-122
-223
-221
585
1852
1855
341
-747
-525
-102
-103
-136
-87
-92
-88
-55
-50
-44
-19
-5
10
37
56
73
101
135
169
208
253
294
327
350
360
351
318
265
203
137
75
27
-4
-22
-30
-31
-33
-33
-26
-16
-6
1
4
8
10
8
7
7
-2
-10
2
27
53
78
83
55
20
4
-2
-3
-7
-21
-18
-13
-38
-60
-158
-275
257
1541
2040
834
-527
-617
-177
-121
-205
-178
-178
-195
-176
-174
-182
-173
-167
-164
-157
-148
-131
-114
-103
-80
-46
-20
-1
25
50
69
67
22
-52
-113
-164
-229
