# session 35
-28
-43
-26
75
118
1
-94
-61
-26
-37
-40
-36
-34
-20
-8
-8
-6
10
28
37
47
68
95
114
123
128
136
154
184
201
179
121
51
-14
-66
-105
-132
-146
-150
-142
-122
-90
-54
-19
11
39
60
57
39
45
83
117
133
128
91
41
20
26
18
6
25
29
-1
-26
-155
-192
609
1923
1953
429
-616
-321
90
16
-55
-19
-45
-37
17
5
-43
-66
-78
-88
-90
-89
-83
-65
-49
-37
-22
-6
11
29
42
49
69
104
129
118
74
16
-41
-91
-133
-169
-194
-204
-199
-193
-197
-202
-201
-201
-198
-188
-188
-206
-219
-213
-187
-140
-96
-93
-128
-166
-186
-182
-177
-185
-172
-155
-184
-197
-255
-367
125
1436
2000
740
-713
-746
-182
-88
-175
-128
-116
-136
-107
-89
-88
-68
-53
-50
-33
-10
5
21
44
66
86
103
118
134
149
154
163
196
230
221
169
103
36
-21
-58
-86
-115
-126
-112
-96
-90
-85
-80
-77
-73
-70
-72
-75
-74
-78
-91
-95
-68
-20
16
11
-25
-66
-87
-77
-68
-79
-72
-66
-92
-93
-165
-234
444
1823
2085
513
-865
-696
-121
-66
-121
-64
-67
-82
-62
-64
-60
-33
-21
-20
-9
5
22
43
61
78
96
113
129
143
153
162
182
209
221
198
145
79
10
-57
-110
-142
-159
-165
-158
-145
-137
-131
-123
-117
-113
-108
-107
-114
-120
-125
-138
-149
-139
-111
-75
-47
-46
-78
-117
-134
-122
-117
-131
-123
-113
-137
-143
-228
-271
507
1969
2200
583
-739
-534
-61
-122
-189
-117
-141
-164
-122
-113
-115
-93
-84
-78
-57
-39
-29
-13
5
26
50
73
90
104
117
130
151
178
193
170
114
48
-16
-72
-111
-142
-164
-167
-159
-158
-157
-145
-132
-127
-123
-118
-112
-107
-108
-109
-110
-114
-119
-116
-113
-122
-134
-124
-96
-63
-32
-24
-49
-83
-103
-101
-90
-94
-87
-62
-83
-113
-151
-271
71
1391
2369
1382
-395
-822
-246
-31
-131
-101
-77
-112
-90
-65
-74
-66
-44
-27
-9
4
12
25
44
64
86
115
143
160
171
188
212
237
260
265
230
158
73
0
-53
-98
-139
-160
-159
-158
-156
-141
-128
-133
-131
-116
-109
-115
-115
-111
-113
-115
-116
-118
-116
-111
-112
-122
-136
-142
-130
-101
-70
-46
-43
-63
-89
-99
-83
-79
-97
-85
-67
-101
-109
-152
-261
286
1740
2339
883
-775
-825
-192
-66
-138
-83
-78
-101
-72
-61
-63
-43
-33
-34
-19
5
21
33
54
80
102
121
144
169
190
205
218
241
267
262
207
127
49
-18
-75
-121
-154
-171
-176
-175
-170
-158
-146
-141
-138
-131
-125
-122
-121
-121
-122
-125
-129
-130
-128
-125
-128
-131
-129
-124
-122
-125
-136
-147
-143
-128
-106
-69
-37
-39
-65
-90
-98
-86
-84
-93
-70
-63
-100
-122
-230
-190
815
2324
2258
440
-732
-400
-11
-127
-162
-88
-116
-120
-81
-86
-89
-68
-62
-56
-37
-25
-14
4
25
46
68
91
114
139
162
179
194
218
239
225
169
99
34
-30
-88
-127
-148
-161
-171
-170
-163
-153
-142
-131
-121
-112
-105
-103
-105
-106
-101
-99
-104
-107
-105
-104
-106
-107
-104
-101
-102
-105
-101
-95
-96
-104
-112
-122
-127
-117
-92
-55
-17
-5
-25
-54
-68
-60
-54
-69
-62
-35
-56
-87
-151
-249
277
1758
2587
1369
-319
-550
-55
-33
-166
-105
-94
-130
-97
-80
-90
-74
-60
-56
-41
-30
-23
-7
12
30
51
73
95
118
139
157
173
193
220
232
198
128
60
2
-53
-99
-128
-145
-157
-159
-152
-146
-145
-140
-133
-129
-125
-118
-113
-110
-106
-103
-102
-104
-104
-100
-98
-103
-105
-99
-96
-99
-100
-95
-93
-92
-90
-89
-89
-90
-90
-85
-81
-80
-78
-77
-81
-84
-85
-93
-105
-98
-70
-34
-1
10
-10
-38
-53
-47
-39
-52
-50
-28
-48
-76
-139
-248
251
1709
2539
1340
-339
-577
-77
-32
-155
-99
-89
-124
-94
-79
-86
-65
-52
-54
-43
-28
-19
-3
15
31
52
74
93
116
140
156
167
181
203
220
210
169
112
48
-16
-69
-104
-121
-129
-133
-134
-129
-123
-122
-122
-117
-109
-108
-113
-114
-105
-100
-104
-108
-107
-107
-107
-103
-99
-100
-102
-103
-102
-99
-95
-94
-94
-90
-85
-82
-81
-80
-86
-98
-98
-76
-38
0
11
-10
-41
-67
-74
-64
-66
-71
-51
-61
-88
-108
-228
-47
1116
2306
1662
-175
-888
-350
-26
-123
-118
-73
-101
-88
-62
-68
-59
-45
-46
-34
-12
2
16
35
55
79
103
121
141
166
185
198
212
229
241
229
182
112
42
-19
-72
-116
-147
-162
-161
-153
-144
-138
-132
-122
-114
-112
-109
-105
-105
-104
-102
-104
-109
-108
-102
-100
-105
-110
-109
-105
-103
-102
-100
-97
-95
-95
-92
-88
-100
-120
-118
-82
-33
-2
-8
-38
-64
-78
-76
-71
-81
-73
-55
-77
-98
-153
-251
258
1684
2437
1209
-413
-591
-83
-48
-174
-118
-104
-135
-106
-93
-100
-83
-71
-69
-55
-37
-22
-4
10
25
51
78
99
122
146
162
174
189
206
216
194
135
64
1
-53
-96
-125
-146
-161
-161
-152
-149
-146
-135
-126
-126
-121
-111
-106
-110
-112
-108
-105
-103
-95
-90
-100
-111
-106
-98
-100
-101
-92
-86
-91
-100
-108
-101
-65
-18
5
-12
-44
-72
-81
-66
-60
-75
-64
-56
-80
-78
-158
-169
669
2054
2029
262
-970
-640
-94
-75
-103
-48
-68
-74
-43
-39
-36
-22
-19
-8
12
23
35
53
73
96
120
141
163
187
204
216
228
245
259
247
197
125
50
-21
-84
-132
-161
-170
-167
-163
-160
-152
-143
-136
-129
-125
-125
-127
-128
-130
-129
-128
-133
-141
-142
-139
-136
-132
-128
-137
-157
-160
-131
-86
-49
-42
-64
-92
-109
-110
-98
-101
-108
-86
-86
-116
-133
-235
-108
988
2328
1928
68
-832
-339
4
-141
-155
-88
-126
-120
-79
-87
-86
-62
-56
-53
-42
-30
-14
5
18
33
57
80
102
119
131
143
158
171
179
164
120
62
7
-46
-93
-120
-131
-140
-147
-143
-134
-127
-121
-116
-115
-115
-108
-100
-99
-101
-99
-96
-95
-97
-99
-99
-103
-118
-125
-112
-81
-38
-10
-27
-63
-81
-86
-82
-74
-77
-70
-62
-81
-90
-154
-209
436
1845
2287
831
-628
-558
-32
-61
-173
-99
-95
-123
-90
-79
-84
-68
-58
-51
-35
-26
-19
-3
15
33
50
64
81
100
114
121
129
145
162
161
130
78
15
-44
-86
-117
-138
-144
-140
-136
-132
-126
-122
-120
-117
-116
-115
-113
-111
-107
-103
-98
-98
-101
-103
-102
-105
-119
-129
-114
-73
-30
-19
-37
-62
-84
-98
-92
-86
-94
-81
-77
-105
-106
-166
-149
668
2033
2073
397
-786
-454
7
-98
-163
-83
-110
-127
-85
-83
-87
-67
-63
-58
-37
-25
-19
-3
17
36
50
57
65
80
91
97
106
124
147
148
114
64
13
-36
-81
-111
-122
-121
-119
-114
-105
-99
-100
-101
-102
-101
-101
-101
-100
-100
-98
-95
-98
-101
-95
-91
-106
-121
-114
-84
-40
-7
-15
-53
-80
-87
-84
-83
-94
-84
-66
-87
-94
-128
-208
295
1636
2236
912
-648
-679
-79
-29
-152
-88
-80
-117
-89
-75
-79
-55
-43
-49
-36
-19
-10
6
27
42
52
62
72
82
87
85
87
106
137
149
124
78
27
-24
-71
-103
-116
-115
-108
-102
-98
-98
-99
-97
-96
-96
-96
-97
-97
-96
-96
-99
-99
-98
-102
-114
-122
-109
-74
-31
-6
-16
-53
-86
-96
-86
-85
-100
-89
-77
-103
-101
-147
-226
366
1730
2134
666
-753
-623
-53
-52
-153
-85
-89
-117
-79
-69
-84
-70
-52
-42
-28
-18
-9
6
22
36
49
59
65
69
68
65
69
94
131
145
120
73
21
-32
-76
-106
-118
-114
-105
-102
-99
-92
-88
-90
-90
-91
-99
-104
-100
-100
-112
-126
-125
-103
-87
-118
-163
-122
-14
42
18
-27
-67
-88
-81
-80
-87
-71
-71
-88
-69
-152
-190
554
1794
1763
189
-875
-533
-31
-39
-84
-37
-64
-80
-42
-33
-43
-39
-26
-6
13
19
26
40
49
61
78
88
88
90
94
95
102
128
160
165
130
76
17
-41
-85
-103
-105
-103
-101
-94
-86
-83
-83
-83
-85
-84
-81
-83
-90
-91
-86
-89
-98
-109
-113
-99
-62
-18
2
-19
-60
-90
-95
-89
-96
-99
-77
-84
-114
-106
-195
-220
549
1795
1781
277
-743
-460
-42
-80
-133
-91
-108
-115
-86
-86
-88
-66
-52
-49
-39
-24
-14
-3
13
27
36
43
50
54
53
50
58
85
113
115
84
39
-12
-63
-108
-135
-143
-135
-124
-119
-114
-105
-99
-96
-92
-92
-94
-87
-78
-83
-94
-100
-106
-107
-92
-58
-17
2
-19
-63
-95
-104
-92
-90
-103
-89
-85
-112
-100
-157
-228
389
1636
1840
390
-879
-754
-199
-61
-76
-43
-51
-52
-19
-13
-20
-5
15
28
45
66
82
99
119
131
137
153
169
171
170
168
173
200
226
214
174
121
46
-21
-55
-91
-132
-134
-114
-113
-116
-103
-93
-86
-79
-78
-88
-94
-90
-86
-93
-103
-98
-75
-37
-9
-27
-79
-118
-127
-116
-115
-130
-119
-109
-139
-134
-180
-307
156
1421
1946
718
-679
-735
-214
-95
-148
-117
-123
-139
-109
-95
-95
-76
-63
-55
-35
-12
1
9
23
42
59
73
84
83
78
85
97
105
115
123
106
61
9
-40
-90
-132
-147
-140
-132
-129
-120
-109
-102
-97
-96
-100
-99
-94
-92
-96
-97
-84
-58
-22
4
-11
-52
-84
-98
-97
-91
-103
-103
-80
-98
-119
-146
-292
-76
1084
2090
1343
-281
-789
-302
-56
-131
-124
-97
-118
-104
-80
-82
-72
-53
-44
-41
-30
-10
9
23
45
70
86
95
106
115
116
125
147
171
177
150
95
39
-12
-69
-117
-136
-138
-142
-137
-122
-111
-105
-104
-107
-99
-79
-71
-78
-83
-84
-76
-46
-6
2
-30
-63
-82
-94
-88
-82
-96
-86
-69
-99
-104
-147
-273
216
1617
2260
889
-790
-925
-286
-78
-115
-71
-67
-84
-57
-47
-50
-32
-19
-14
1
16
28
45
62
79
99
115
127
139
149
154
161
182
200
183
129
64
-3
-68
-122
-161
-189
-202
-201
-191
-182
-172
-158
-147
-138
-129
-120
-116
-114
-118
-132
-140
-129
-98
-60
-41
-61
-98
-119
-132
-136
-128
-133
-135
-115
-127
-151
-196
-332
2
1373
2459
1515
-330
-822
-255
-61
-194
-164
-127
-159
-136
-109
-116
-103
-84
-79
-66
-48
-36
-19
2
23
45
68
86
103
119
133
148
171
192
184
137
72
8
-51
-99
-130
-149
-162
-167
-163
-155
-146
-133
-119
-108
-103
-97
-92
-87
-84
-82
-80
-78
-78
-81
-79
-83
-99
-104
-82
-47
-10
14
1
-34
-54
-62
-67
-60
-63
-67
-41
-46
-84
-124
-267
-96
1139
2507
1995
119
-714
-259
5
-138
-140
-90
-124
-112
-80
-86
-77
-57
-55
-46
-27
-15
-1
18
38
59
81
103
125
143
156
167
190
218
222
186
125
59
-6
-60
-99
-122
-136
-145
-150
-148
-140
-136
-133
-124
-113
-107
-102
-98
-93
-88
-88
-89
-88
-88
-92
-96
-96
-96
-97
-98
-100
-98
-93
-92
-93
-90
-88
-89
-87
-82
-78
-79
-77
-71
-66
-64
-62
-59
-58
-57
-55
-53
-51
-51
-52
-52
-47
-41
-42
-46
-42
-33
-34
-42
-43
-40
-46
-47
-33
-14
12
49
60
29
-5
-17
-23
-23
-26
-37
-15
-1
-41
-69
-166
-192
677
2271
2542
842
-585
-454
-22
-83
-143
-79
-105
-116
-76
-77
-86
-67
-55
-46
-31
-20
-7
12
27
40
59
80
101
120
135
148
161
178
202
223
215
172
110
47
-9
-57
-94
-114
-118
-122
-126
-123
-118
-117
-118
-117
-116
-115
-115
-116
-117
-114
-112
-115
-119
-119
-116
-114
-114
-111
-107
-111
-122
-123
-116
-111
-108
-106
-105
-105
-105
-101
-94
-92
-93
-90
-85
-82
-80
-75
-74
-78
-78
-74
-67
-61
-60
-66
-66
-57
-54
-57
-57
-55
-59
-63
-52
-23
12
31
32
35
35
16
-10
-27
-38
-35
-32
-45
-35
-14
-44
-78
-155
-223
465
2066
2743
1313
-355
-501
-51
-76
-187
-120
-120
-146
-109
-99
-110
-89
-72
-69
-56
-38
-25
-13
4
26
46
62
85
113
137
156
172
188
208
218
196
144
80
18
-40
-85
-115
-132
-141
-153
-164
-165
-160
-155
-150
-142
-136
-130
-122
-113
-107
-107
-107
-102
-96
-95
-97
-98
-97
-96
-97
-97
-92
-91
-96
-96
-91
-92
-94
-89
-83
-82
-80
-77
-79
-79
-74
-71
-70
-68
-67
-62
-55
-54
-57
-55
-53
-54
-50
-46
-51
-57
-46
-19
13
33
36
35
37
25
-1
-21
-36
-40
-25
-28
-38
-19
-30
-67
-105
-224
55
1399
2672
1955
62
-656
-208
-17
-153
-131
-93
-130
-106
-74
-87
-83
-60
-44
-30
-21
-16
-1
21
40
63
91
119
146
172
196
217
236
258
271
252
195
125
57
-8
-61
-100
-123
-135
-143
-154
-160
-159
-152
-143
-135
-125
-117
-112
-110
-105
-99
-101
-105
-105
-104
-104
-103
-103
-104
-104
-106
-110
-109
-106
-108
-112
-111
-108
-106
-104
-101
-100
-100
-100
-98
-96
-94
-91
-92
-95
-94
-89
-89
-88
-84
-82
-83
-84
-87
-90
-83
-56
-20
0
-5
-9
-3
-15
-45
-65
-73
-68
-63
-76
-68
-49
-78
-108
-181
-245
428
2008
2684
1260
-417
-569
-101
-104
-213
-149
-145
-169
-132
-120
-124
-103
-90
-89
-78
-64
-53
-37
-18
0
20
44
71
99
126
150
167
180
193
192
155
91
19
