# session 18
13
-1
30
0
-137
-219
-194
-207
-269
-410
-588
26
1709
2463
865
-1014
-1077
-357
-220
-297
-214
-194
-208
-164
-144
-138
-104
-84
-69
-26
22
61
106
164
229
291
329
338
342
340
296
218
145
76
1
-55
-95
-136
-159
-153
-151
-151
-139
-131
-134
-124
-107
-109
-115
-110
-111
-118
-105
-77
-56
-41
-42
-61
-82
-96
-106
-101
-104
-119
-100
-88
-134
-187
-347
-415
534
2204
2290
271
-1198
-816
-178
-184
-222
-137
-155
-160
-112
-107
-102
-72
-58
-43
-11
23
64
119
175
231
280
307
316
311
283
228
161
94
25
-45
-104
-137
-152
-162
-169
-171
-168
-165
-161
-151
-137
-131
-128
-117
-119
-135
-136
-111
-86
-63
-43
-50
-80
-104
-119
-125
-118
-123
-131
-107
-106
-163
-278
-443
-81
1414
2725
1853
-213
-912
-344
-124
-290
-253
-195
-236
-212
-173
-180
-164
-135
-124
-102
-70
-40
3
58
115
168
210
235
250
246
208
147
89
35
-26
-83
-118
-135
-144
-148
-149
-153
-160
-162
-152
-138
-126
-114
-100
-93
-89
-83
-88
-104
-102
-80
-57
-33
-6
-7
-39
-64
-76
-81
-74
-79
-91
-71
-65
-119
-216
-356
-61
1351
2825
2237
153
-808
-350
-89
-262
-249
-177
-216
-202
-160
-165
-151
-120
-111
-94
-62
-33
4
56
114
172
221
252
268
270
243
186
119
55
-11
-74
-119
-146
-159
-166
-169
-175
-182
-185
-178
-164
-149
-136
-123
-113
-107
-104
-100
-96
-93
-94
-99
-102
-101
-103
-105
-104
-104
-105
-106
-110
-116
-122
-135
-143
-123
-82
-43
-7
3
-31
-68
-78
-79
-76
-69
-77
-72
-49
-75
-126
-242
-370
288
2060
3024
1585
-404
-716
-176
-146
-285
-210
-191
-220
-173
-152
-168
-147
-119
-104
-78
-48
-20
19
70
128
188
237
267
286
295
284
243
184
125
62
-5
-61
-96
-109
-110
-110
-111
-110
-104
-96
-86
-74
-65
-63
-67
-67
-59
-51
-47
-48
-51
-52
-51
-54
-57
-59
-66
-72
-71
-66
-63
-61
-60
-60
-60
-57
-53
-48
-47
-46
-45
-44
-45
-43
-39
-39
-40
-41
-43
-43
-41
-41
-42
-40
-40
-44
-48
-47
-46
-46
-43
-40
-40
-40
-40
-44
-51
-47
-23
14
38
39
37
44
31
-6
-38
-56
-59
-51
-62
-69
-45
-56
-108
-194
-323
127
1751
3054
2012
-178
-896
-354
-167
-323
-277
-226
-264
-236
-202
-210
-192
-163
-151
-130
-101
-74
-38
10
58
107
154
194
221
236
234
211
167
111
61
17
-34
-81
-111
-128
-142
-148
-139
-125
-119
-121
-121
-112
-101
-93
-89
-91
-95
-95
-89
-83
-83
-88
-90
-88
-84
-84
-88
-90
-87
-87
-88
-86
-82
-79
-77
-72
-66
-61
-58
-57
-60
-64
-67
-65
-53
-21
17
31
25
27
25
-4
-37
-57
-70
-65
-59
-72
-59
-43
-75
-104
-205
-233
676
2370
2648
722
-942
-777
-176
-174
-236
-151
-159
-172
-126
-114
-111
-82
-64
-46
-15
13
44
91
148
213
286
347
384
399
390
343
264
179
102
23
-53
-110
-147
-168
-175
-179
-190
-200
-200
-192
-184
-173
-159
-148
-139
-132
-126
-119
-113
-110
-108
-106
-107
-109
-113
-116
-116
-115
-116
-117
-116
-113
-112
-109
-105
-100
-96
-95
-93
-88
-89
-97
-96
-74
-40
-13
-1
12
27
16
-22
-52
-66
-70
-64
-71
-83
-64
-60
-110
-196
-289
121
1588
2902
2128
98
-719
-287
-121
-294
-260
-201
-239
-211
-169
-178
-162
-128
-114
-97
-70
-46
-16
27
79
139
203
258
295
308
293
250
183
111
44
-21
-83
-126
-148
-157
-159
-159
-161
-166
-171
-172
-166
-158
-150
-141
-129
-118
-111
-108
-104
-97
-93
-90
-85
-82
-84
-86
-83
-84
-88
-88
-87
-86
-84
-83
-83
-86
-95
-96
-74
-46
-18
22
46
18
-28
-47
-53
-56
-48
-53
-53
-34
-50
-98
-189
-274
314
1921
2886
1616
-326
-721
-194
-130
-279
-211
-184
-224
-190
-164
-170
-149
-128
-117
-92
-64
-39
0
51
108
173
241
295
328
338
316
257
179
103
29
-47
-113
-154
-175
-184
-189
-192
-193
-196
-195
-190
-181
-173
-162
-150
-145
-143
-137
-129
-126
-124
-122
-121
-122
-130
-133
-114
-84
-60
-30
-6
-26
-73
-102
-112
-110
-100
-108
-113
-95
-108
-142
-214
-369
-3
1477
2662
1646
-401
-992
-371
-122
-253
-215
-163
-194
-170
-138
-139
-117
-89
-76
-50
-16
13
55
113
178
251
324
383
420
427
389
315
231
147
58
-33
-103
-142
-163
-174
-175
-177
-184
-188
-182
-173
-167
-158
-148
-140
-131
-122
-117
-117
-111
-105
-115
-129
-119
-90
-64
-36
-20
-48
-89
-105
-110
-113
-108
-116
-113
-90
-108
-137
-197
-351
35
1509
2545
1334
-737
-1210
-489
-160
-221
-173
-138
-161
-129
-104
-109
-87
-58
-40
-10
25
58
105
167
236
310
380
430
459
465
429
350
260
175
83
-11
-83
-127
-151
-165
-172
-176
-177
-175
-169
-158
-148
-139
-132
-130
-131
-130
-136
-148
-140
-113
-82
-52
-33
-49
-83
-105
-118
-121
-113
-120
-128
-106
-112
-166
-288
-471
-74
1434
2570
1498
-497
-979
-328
-121
-271
-225
-177
-215
-188
-154
-160
-140
-112
-101
-79
-47
-18
23
78
137
200
262
306
327
330
301
240
167
92
13
-61
-114
-145
-161
-170
-173
-176
-177
-172
-165
-156
-144
-132
-129
-132
-128
-133
-147
-140
-107
-71
-40
-17
-28
-64
-88
-100
-105
-96
-101
-111
-92
-93
-146
-268
-472
-173
1283
2615
1793
-246
-934
-337
-85
-243
-213
-155
-195
-173
-135
-143
-127
-96
-81
-59
-28
2
41
94
153
217
276
317
344
352
328
269
198
126
48
-29
-87
-121
-140
-148
-150
-152
-152
-147
-138
-130
-123
-115
-106
-100
-105
-112
-112
-118
-130
-126
-100
-69
-37
-16
-32
-68
-92
-106
-111
-101
-105
-115
-94
-95
-145
-242
-432
-194
1198
2613
1937
-122
-948
-391
-100
-258
-244
-176
-213
-200
-162
-166
-152
-124
-111
-92
-59
-29
7
55
110
169
226
271
299
310
292
244
180
114
43
-32
-95
-133
-150
-158
-166
-165
-154
-144
-138
-134
-129
-123
-113
-103
-99
-103
-112
-116
-113
-116
-129
-127
-103
-77
-52
-26
-32
-67
-93
-106
-111
-95
-91
-109
-92
-80
-126
-195
-364
-318
824
2458
2276
189
-1088
-643
-133
-206
-226
-143
-169
-168
-121
-116
-107
-75
-57
-37
-5
28
66
118
175
235
294
341
369
375
358
311
242
168
93
11
-66
-119
-146
-159
-168
-173
-170
-161
-152
-143
-134
-130
-129
-126
-120
-117
-115
-116
-121
-126
-134
-151
-160
-150
-127
-99
-71
-65
-84
-104
-116
-118
-105
-102
-114
-98
-89
-125
-171
-285
-183
912
2448
2295
331
-900
-510
-78
-215
-259
-172
-202
-208
-157
-155
-155
-128
-116
-107
-81
-50
-14
29
79
132
183
225
254
266
255
217
159
100
43
-16
-72
-112
-135
-145
-150
-156
-160
-155
-147
-138
-128
-121
-115
-109
-106
-105
-102
-102
-107
-110
-116
-133
-141
-121
-90
-60
-34
-31
-53
-75
-82
-84
-80
-83
-89
-68
-61
-98
-160
-278
-67
1156
2565
2150
215
-781
-365
-67
-229
-238
-164
-201
-194
-148
-151
-144
-117
-106
-93
-67
-43
-12
31
77
127
180
221
243
255
249
211
152
93
35
-26
-80
-113
-130
-138
-143
-146
-146
-142
-134
-125
-120
-119
-115
-107
-102
-102
-99
-96
-95
-96
-101
-110
-116
-125
-135
-133
-112
-83
-51
-31
-39
-64
-86
-100
-99
-89
-93
-93
-72
-84
-124
-207
-300
231
1747
2679
1461
-425
-789
-221
-126
-277
-213
-179
-222
-193
-160
-161
-140
-118
-109
-86
-55
-29
4
50
101
154
203
240
261
269
256
213
154
96
33
-34
-89
-120
-136
-147
-153
-150
-140
-132
-124
-111
-101
-100
-103
-101
-96
-93
-93
-93
-93
-97
-102
-103
-113
-132
-138
-118
-87
-55
-28
-29
-55
-75
-82
-80
-71
-76
-82
-61
-65
-101
-166
-314
-50
1299
2605
1864
-160
-934
-369
-74
-219
-210
-159
-198
-181
-144
-148
-132
-103
-92
-70
-38
-11
23
69
119
174
228
267
288
302
299
260
198
136
70
-4
-72
-119
-144
-154
-158
-161
-159
-147
-132
-121
-115
-110
-107
-106
-106
-106
-107
-106
-103
-105
-113
-118
-126
-142
-148
-131
-106
-78
-47
-39
-63
-87
-99
-105
-97
-98
-106
-83
-79
-113
-148
-297
-242
878
2407
2128
88
-1077
-606
-123
-202
-224
-150
-177
-176
-132
-131
-125
-92
-72
-55
-30
-2
34
82
136
191
245
288
318
339
340
304
242
177
109
31
-41
-89
-120
-143
-156
-157
-152
-148
-145
-133
-117
-112
-110
-104
-100
-99
-94
-95
-105
-112
-108
-114
-135
-138
-108
-74
-57
-53
-59
-76
-95
-109
-105
-93
-103
-103
-80
-100
-132
-173
-310
23
1430
2525
1426
-667
-1242
-531
-153
-206
-170
-134
-159
-131
-101
-100
-78
-52
-40
-15
20
54
97
150
206
268
328
368
389
399
383
328
252
176
97
14
-59
-110
-143
-162
-173
-177
-177
-171
-161
-152
-145
-137
-130
-123
-117
-117
-122
-124
-132
-152
-160
-140
-114
-92
-69
-65
-88
-111
-123
-127
-117
-116
-128
-111
-102
-143
-210
-357
-236
950
2499
2222
192
-960
-506
-91
-233
-264
-183
-215
-215
-166
-166
-164
-136
-119
-100
-71
-44
-12
32
80
135
193
237
263
277
272
238
182
122
59
-11
-75
-118
-141
-152
-155
-155
-155
-152
-143
-131
-123
-118
-111
-103
-106
-111
-110
-119
-140
-139
-107
-74
-47
-22
-26
-59
-85
-95
-94
-83
-86
-91
-70
-75
-125
-236
-426
-97
1400
2736
1883
-178
-883
-317
-87
-246
-218
-165
-206
-186
-150
-154
-138
-112
-101
-78
-45
-18
15
61
113
170
225
263
284
295
284
240
175
111
43
-29
-91
-129
-151
-159
-160
-160
-160
-154
-146
-139
-131
-124
-118
-112
-113
-116
-115
-120
-138
-141
-116
-85
-55
-31
-35
-64
-90
-107
-108
-94
-100
-112
-91
-95
-145
-243
-442
-187
1257
2678
1940
-147
-944
-383
-109
-263
-245
-186
-219
-198
-162
-168
-154
-127
-114
-91
-60
-31
7
57
113
168
216
256
287
301
288
249
190
123
55
-15
-76
-117
-140
-151
-154
-152
-150
-145
-135
-124
-115
-107
-99
-95
-99
-106
-105
-105
-120
-131
-115
-88
-65
-42
-31
-48
-73
-89
-97
-89
-85
-99
-86
-71
-107
-157
-309
-390
498
2185
2443
539
-1031
-782
-164
-173
-238
-156
-166
-178
-133
-125
-123
-93
-78
-67
-37
-7
22
64
117
173
231
281
311
327
327
295
233
165
97
20
-57
-113
-144
-159
-166
-170
-170
-164
-158
-150
-140
-131
-125
-119
-117
-119
-119
-125
-143
-146
-121
-92
-68
-44
-42
-68
-96
-110
-111
-98
-99
-109
-88
-82
-129
-216
-388
-203
1115
2645
2185
113
-902
-411
-80
-245
-249
-172
-211
-203
-158
-160
-151
-121
-108
-92
-63
-37
-3
43
92
143
193
233
259
274
269
233
174
111
47
-21
-82
-124
-144
-154
-160
-163
-163
-158
-152
-145
-137
-130
-126
-119
-112
-113
-115
-112
-121
-141
-139
-112
-85
-58
-33
-38
-72
-97
-108
-109
-99
-103
-110
-87
-89
-136
-228
-407
-127
1328
2754
2019
-86
-912
-364
-98
-263
-245
-182
-223
-207
-168
-170
-153
-124
-112
-91
-60
-33
2
47
96
151
203
243
272
291
287
246
183
119
53
-20
-84
-123
-142
-152
-159
-162
-159
-153
-145
-135
-126
-118
-112
-105
-102
-102
-98
-97
-102
-106
-112
-130
-137
-116
-87
-62
-33
-24
-50
-81
-94
-96
-85
-81
-91
-71
-56
-94
-148
-297
-299
738
2463
2602
642
-846
-594
-106
-205
-269
-182
-204
-215
-166
-162
-161
-128
-109
-95
-68
-41
-10
35
84
133
185
233
266
284
289
267
214
150
88
20
-51
-105
-133
-146
-152
-155
-159
-156
-143
-131
-126
-119
-111
-107
-101
-94
-94
-95
-94
-91
-91
-94
-94
-91
-93
-102
-110
-119
-133
-129
-99
-63
-31
-12
-27
-65
-87
-91
-92
-82
-81
-92
-73
-67
-107
-149
-281
-174
1016
2594
2291
170
-1056
-602
-133
-229
-253
-178
-205
-202
-158
-157
-146
-115
-101
-85
-55
-26
9
55
102
155
215
265
297
318
323
298
244
179
112
38
-37
-97
-134
-152
-161
-165
-163
-156
-148
-138
-130
-121
-112
-108
-108
-105
-106
-113
-116
-122
-141
-149
-129
-99
-70
-41
-38
-68
-94
-105
-110
-102
-99
-113
-98
-80
-116
-173
-328
-336
693
2423
2579
633
-853
-595
-104
-208
-274
-185
-203
-214
-166
-161
-156
-124
-107
-92
-62
-34
-7
36
89
145
203
251
281
298
299
269
209
141
76
5
-68
-118
-143
-156
-164
-169
-174
-175
-172
-166
-159
-149
-137
-126
-119
-112
-103
-98
-96
-96
-103
-109
-109
-119
-137
-133
-105
-78
-48
-25
-36
-65
-80
-89
-94
-85
-87
-94
-70
-71
-114
-187
-337
-36
1422
2833
2068
-73
-929
-388
-108
-258
-242
-185
-221
-200
-162
-171
-157
-129
-120
-103
-71
-42
-9
37
91
148
201
244
274
293
295
265
202
131
65
-6
-76
-128
-158
-171
-176
-180
-180
-175
-169
-161
-149
-140
-135
-126
-120
-122
-117
-101
-96
-110
-116
-116
-130
-146
-134
-105
-82
-57
-42
-57
-84
-98
-102
-94
-84
-94
-85
-60
-84
-123
-220
-347
270
1919
2699
1149
-793
-966
-279
-138
-236
-168
-152
-180
-141
-118
-119
-93
-72
-62
-34
3
35
73
122
179
242
300
341
364
373
357
302
228
156
82
1
-65
-105
-127
-141
-146
-148
-149
-144
-134
-122
-112
-100
-88
-79
-73
-68
-61
-59
-63
-67
-73
-91
-101
-84
-53
-22
8
19
2
-26
-38
-35
-29
-27
