# session 28
-39
-46
-22
-24
-102
-186
-195
-170
-166
-163
-151
-148
-148
-142
-139
-137
-130
-129
-142
-146
-120
-79
-38
-13
-31
-79
-106
-111
-113
-104
-103
-118
-99
-84
-117
-138
-246
-244
752
2377
2373
374
-972
-555
-25
-139
-199
-110
-139
-150
-102
-102
-104
-77
-67
-56
-33
-17
-1
26
53
81
115
149
185
219
245
268
296
313
288
221
132
41
-42
-109
-154
-176
-186
-194
-197
-192
-184
-176
-167
-158
-149
-138
-130
-128
-125
-120
-117
-115
-115
-116
-113
-112
-120
-122
-101
-61
-16
9
-14
-65
-89
-90
-94
-87
-86
-100
-81
-75
-110
-122
-232
-248
744
2362
2334
334
-995
-577
-36
-124
-183
-108
-133
-142
-101
-104
-103
-78
-68
-59
-39
-24
-8
16
42
70
106
142
176
209
238
263
288
306
286
221
134
48
-34
-105
-151
-178
-193
-200
-199
-196
-189
-180
-170
-159
-148
-142
-138
-133
-128
-125
-123
-123
-123
-123
-123
-120
-120
-128
-122
-89
-44
-7
-1
-37
-80
-97
-105
-105
-90
-96
-103
-80
-90
-117
-149
-304
-59
1328
2627
1778
-284
-974
-346
-46
-181
-164
-116
-155
-138
-107
-117
-104
-78
-72
-62
-41
-21
4
29
51
80
120
155
189
223
252
277
305
313
274
199
113
24
-60
-121
-158
-179
-192
-196
-194
-189
-182
-174
-162
-148
-137
-131
-125
-115
-104
-101
-105
-110
-110
-107
-102
-100
-106
-119
-119
-93
-52
-13
3
-23
-69
-92
-98
-103
-94
-92
-104
-84
-78
-117
-137
-260
-249
807
2433
2337
294
-1020
-595
-66
-143
-187
-114
-143
-149
-105
-106
-106
-80
-67
-55
-33
-17
2
33
62
88
121
160
199
235
264
287
314
334
314
244
150
53
-36
-105
-149
-177
-195
-205
-208
-206
-200
-193
-185
-177
-166
-156
-148
-144
-141
-141
-137
-132
-131
-133
-133
-141
-148
-133
-96
-55
-22
-22
-65
-101
-107
-111
-111
-100
-110
-110
-86
-104
-131
-188
-302
224
1817
2738
1346
-620
-863
-180
-66
-216
-154
-129
-166
-130
-109
-118
-96
-76
-73
-57
-36
-22
0
27
54
87
126
166
203
236
262
288
310
303
250
166
74
-17
-93
-143
-174
-192
-199
-200
-202
-199
-190
-182
-173
-161
-149
-140
-134
-127
-120
-116
-115
-114
-112
-113
-113
-116
-127
-128
-102
-63
-26
-2
-18
-66
-95
-101
-105
-97
-92
-107
-92
-75
-110
-136
-238
-281
628
2348
2635
731
-838
-596
-41
-128
-214
-122
-140
-162
-117
-113
-115
-88
-79
-76
-55
-37
-21
4
29
55
89
128
165
201
233
260
287
307
291
226
137
47
-39
-112
-159
-183
-195
-202
-205
-205
-199
-189
-181
-174
-166
-158
-150
-144
-140
-138
-134
-131
-130
-128
-125
-126
-128
-128
-136
-142
-123
-86
-47
-14
-12
-55
-94
-101
-105
-103
-91
-98
-99
-74
-88
-119
-180
-311
152
1724
2773
1518
-495
-858
-192
-48
-206
-151
-119
-163
-134
-107
-116
-96
-73
-70
-56
-31
-10
13
39
68
99
135
175
216
251
278
304
330
332
286
203
109
18
-62
-121
-156
-173
-181
-186
-185
-178
-169
-162
-154
-147
-140
-132
-126
-121
-116
-114
-112
-110
-109
-109
-106
-107
-112
-115
-120
-132
-129
-97
-55
-18
-6
-40
-85
-99
-104
-109
-99
-102
-111
-86
-92
-129
-158
-290
-92
1243
2681
2027
-86
-950
-360
-35
-195
-189
-127
-168
-155
-117
-124
-112
-88
-84
-73
-51
-35
-16
11
37
68
104
141
181
219
248
274
304
316
284
209
117
27
-55
-121
-164
-185
-193
-197
-198
-194
-187
-178
-171
-165
-158
-149
-143
-141
-136
-129
-126
-126
-123
-119
-117
-119
-122
-121
-120
-131
-136
-110
-64
-23
-2
-19
-63
-90
-94
-95
-91
-93
-108
-91
-75
-104
-121
-224
-267
645
2325
2539
615
-910
-631
-58
-123
-199
-112
-129
-146
-102
-97
-100
-80
-73
-63
-39
-20
-3
23
49
75
111
154
191
223
253
281
307
325
310
249
164
75
-14
-94
-145
-170
-183
-188
-187
-185
-180
-169
-157
-149
-141
-133
-126
-119
-113
-108
-104
-104
-107
-111
-113
-112
-113
-113
-110
-115
-127
-120
-86
-43
-7
-5
-45
-84
-93
-99
-100
-89
-97
-100
-76
-94
-123
-162
-271
170
1678
2679
1405
-624
-984
-262
-54
-193
-145
-112
-152
-122
-95
-106
-90
-68
-63
-46
-22
-4
18
45
74
109
149
189
227
262
290
317
342
342
292
207
111
16
-72
-138
-176
-198
-212
-219
-219
-214
-207
-200
-191
-182
-173
-164
-157
-152
-149
-143
-139
-138
-137
-136
-138
-139
-139
-148
-158
-142
-103
-61
-26
-23
-62
-99
-105
-108
-106
-95
-104
-103
-81
-99
-128
-186
-307
202
1800
2786
1475
-481
-781
-151
-59
-215
-154
-130
-169
-136
-114
-123
-100
-82
-81
-62
-41
-29
-8
19
44
76
114
153
191
225
253
278
301
300
256
178
89
2
-75
-130
-162
-179
-187
-190
-187
-181
-172
-163
-155
-149
-145
-139
-134
-130
-125
-121
-119
-115
-109
-110
-113
-112
-117
-129
-118
-82
-43
-10
0
-33
-79
-95
-98
-97
-86
-93
-99
-74
-82
-113
-141
-276
-39
1338
2702
1919
-193
-963
-342
-34
-187
-174
-118
-159
-144
-109
-116
-105
-83
-79
-65
-41
-26
-9
16
44
75
109
144
184
224
253
276
304
316
281
206
117
24
-64
-128
-165
-186
-198
-201
-199
-193
-185
-180
-174
-165
-156
-152
-148
-143
-136
-132
-132
-132
-129
-128
-127
-126
-135
-145
-129
-91
-48
-17
-26
-73
-106
-108
-111
-107
-103
-118
-110
-87
-117
-133
-184
-288
332
1951
2637
1024
-837
-892
-192
-89
-195
-127
-115
-139
-100
-86
-94
-72
-55
-48
-27
-6
12
38
64
90
129
175
209
240
277
307
329
349
345
287
197
104
9
-79
-138
-168
-188
-202
-204
-199
-195
-187
-174
-165
-162
-156
-145
-138
-135
-134
-131
-130
-134
-134
-133
-141
-150
-137
-105
-69
-39
-38
-77
-113
-121
-124
-122
-111
-121
-120
-94
-110
-136
-181
-293
184
1731
2705
1386
-624
-949
-245
-68
-207
-152
-122
-157
-125
-103
-114
-96
-75
-68
-48
-28
-14
7
34
62
95
134
172
207
240
267
292
312
306
255
171
79
-10
-88
-144
-176
-195
-204
-205
-203
-197
-189
-178
-169
-160
-154
-147
-139
-133
-130
-125
-121
-121
-122
-127
-140
-139
-109
-69
-32
-8
-28
-74
-95
-98
-101
-84
-68
-87
-90
-84
-92
-89
-202
-183
884
2538
2479
452
-866
-473
-22
-171
-222
-135
-171
-181
-137
-142
-139
-106
-96
-90
-70
-54
-42
-19
9
37
70
105
137
168
193
215
243
258
231
159
74
-10
-92
-159
-199
-219
-229
-231
-226
-219
-210
-198
-190
-182
-168
-157
-150
-142
-132
-123
-115
-110
-106
-104
-111
-114
-92
-52
-11
20
18
-22
-61
-73
-78
-74
-70
-87
-82
-60
-90
-121
-201
-322
317
2020
2816
1252
-637
-746
-122
-99
-233
-156
-149
-183
-144
-131
-139
-111
-93
-91
-73
-51
-34
-10
18
45
77
115
158
200
235
260
284
303
294
242
158
65
-23
-95
-144
-175
-190
-195
-197
-195
-190
-184
-178
-168
-160
-154
-147
-141
-132
-124
-125
-130
-122
-109
-113
-134
-144
-122
-82
-46
-14
-6
-48
-94
-94
-86
-91
-84
-82
-85
-76
-96
-122
-189
-336
129
1706
2704
1370
-652
-962
-248
-61
-181
-127
-106
-143
-121
-114
-119
-84
-60
-62
-53
-32
-8
17
36
61
104
147
183
218
254
279
299
319
322
280
193
92
8
-61
-128
-182
-201
-202
-208
-205
-187
-182
-192
-187
-163
-147
-143
-144
-143
-137
-129
-123
-122
-126
-125
-124
-140
-152
-125
-75
-36
-28
-59
-103
-114
-107
-111
-110
-120
-140
-118
-101
-128
-128
-217
-187
845
2401
2196
57
-1265
-761
-135
-145
-156
-72
-101
-112
-72
-67
-60
-37
-27
-16
6
26
49
78
104
135
176
218
255
291
321
342
369
386
354
270
174
79
-15
-92
-144
-173
-186
-193
-199
-199
-191
-182
-170
-157
-146
-138
-130
-125
-123
-120
-117
-120
-126
-125
-125
-139
-153
-141
-106
-70
-43
-45
-81
-112
-121
-123
-118
-113
-124
-112
-93
-116
-131
-189
-242
434
1915
2338
708
-868
-721
-81
-85
-195
-113
-119
-148
-98
-82
-93
-71
-57
-57
-39
-19
-7
12
39
66
91
122
162
201
229
251
275
288
270
212
130
43
-36
-102
-146
-166
-172
-175
-181
-182
-176
-171
-165
-155
-144
-138
-133
-125
-118
-118
-119
-116
-110
-109
-108
-109
-122
-132
-115
-80
-45
-17
-21
-60
-89
-92
-95
-92
-85
-93
-87
-69
-94
-114
-166
-209
455
1958
2483
937
-680
-630
-51
-80
-204
-120
-117
-149
-108
-97
-103
-80
-68
-64
-44
-27
-14
8
33
58
88
123
157
193
226
251
274
289
271
210
126
41
-38
-101
-144
-170
-182
-187
-189
-187
-181
-176
-169
-158
-150
-143
-137
-131
-126
-121
-115
-110
-110
-114
-115
-111
-109
-112
-117
-117
-117
-129
-135
-101
-46
-15
-18
-42
-73
-89
-81
-77
-88
-106
-112
-85
-81
-109
-117
-206
-103
990
2435
2080
50
-998
-432
12
-139
-163
-77
-115
-114
-70
-77
-70
-42
-43
-38
-12
5
20
42
64
87
118
154
192
231
260
280
305
322
294
219
129
44
-35
-103
-152
-178
-184
-184
-185
-181
-172
-160
-151
-145
-138
-131
-128
-128
-127
-123
-118
-113
-114
-119
-118
-115
-114
-111
-107
-111
-118
-125
-134
-129
-99
-60
-23
-4
-29
-74
-91
-90
-89
-83
-90
-95
-68
-75
-110
-132
-220
57
1356
2560
1716
-279
-894
-239
6
-180
-152
-93
-144
-126
-87
-100
-92
-70
-67
-53
-31
-17
3
27
48
73
106
140
177
211
234
254
282
295
264
189
101
19
-59
-121
-158
-177
-189
-192
-185
-178
-172
-166
-160
-154
-147
-140
-137
-135
-134
-131
-125
-120
-122
-124
-122
-118
-117
-116
-114
-113
-120
-128
-118
-85
-42
-7
-6
-45
-82
-91
-93
-89
-84
-95
-86
-68
-97
-111
-152
-203
463
1999
2508
865
-801
-697
-57
-75
-197
-108
-108
-140
-93
-84
-99
-75
-59
-57
-38
-19
-6
16
41
66
95
126
160
196
229
254
281
307
307
260
178
90
7
-65
-120
-156
-175
-182
-181
-176
-169
-163
-158
-149
-141
-139
-138
-135
-130
-126
-123
-121
-117
-117
-121
-125
-123
-121
-128
-138
-131
-100
-58
-21
-11
-44
-84
-97
-99
-96
-90
-102
-97
-68
-89
-114
-137
-227
206
1641
2535
1248
-656
-892
-176
-36
-194
-132
-102
-146
-115
-92
-105
-83
-61
-61
-47
-25
-8
13
39
63
92
129
161
189
219
247
271
297
304
263
181
92
5
-72
-127
-160
-182
-196
-196
-188
-179
-171
-163
-152
-143
-137
-132
-126
-123
-121
-118
-116
-115
-112
-112
-112
-109
-113
-127
-128
-99
-55
-14
0
-30
-73
-90
-93
-93
-88
-98
-99
-74
-88
-117
-135
-241
64
1407
2509
1494
-494
-974
-263
-15
-177
-142
-95
-138
-115
-86
-100
-87
-64
-59
-44
-21
-6
10
35
61
90
119
150
185
217
243
269
298
308
275
201
112
23
-57
-118
-156
-178
-189
-190
-185
-175
-163
-152
-146
-141
-134
-127
-124
-122
-118
-115
-117
-119
-116
-110
-113
-126
-132
-116
-79
-34
-6
-22
-69
-98
-106
-111
-103
-102
-115
-98
-91
-120
-121
-214
-215
726
2227
2133
190
-1037
-569
-32
-127
-177
-97
-128
-138
-94
-96
-93
-62
-56
-53
-29
-10
3
27
55
81
112
146
178
211
240
263
289
310
296
233
145
55
-32
-103
-151
-178
-193
-199
-198
-190
-179
-170
-159
-148
-142
-143
-140
-131
-126
-125
-125
-122
-116
-116
-127
-136
-119
-79
-31
0
-16
-61
-87
-93
-97
-89
-88
-99
-78
-71
-105
-113
-221
-219
761
2277
2149
207
-970
-495
-2
-116
-161
-81
-113
-123
-81
-83
-82
-59
-54
-49
-31
-17
1
25
46
70
104
135
160
188
215
239
265
286
271
209
126
44
-37
-106
-149
-170
-183
-187
-182
-176
-168
-156
-147
-142
-135
-127
-125
-126
-127
-127
-126
-124
-131
-142
-139
-112
-67
-21
-10
-50
-95
-112
-117
-115
-108
-119
-115
-94
-118
-139
-198
-366
48
1549
2508
1273
-573
-815
-164
-48
-195
-139
-113
-150
-120
-100
-110
-90
-71
-68
-51
-28
-13
5
30
57
85
112
140
172
199
220
244
270
272
231
159
72
-19
-96
-144
-173
-193
-201
-196
-188
-185
-185
-178
-165
-151
-144
-143
-143
-140
-138
-139
-137
-138
-144
-141
-114
-69
-27
-23
-65
-111
-128
-130
-122
-112
-127
-128
-103
-121
-133
-167
-318
62
1498
2395
1083
-857
-1122
-350
-66
-139
-97
-78
-99
-64
-50
-59
-29
-2
0
14
40
61
84
115
150
184
218
254
294
329
357
388
417
405
340
254
162
59
-31
-84
-117
-146
-162
-162
-159
-155
-145
-132
-118
-110
-109
-103
-95
-92
-84
-73
-77
-89
-77
-50
-26
-4
-7
-50
-89
-101
-108
-108
-101
-113
-107
-89
-118
-131
-171
-284
229
1689
2318
762
-1048
-1062
-273
-83
-162
-99
-92
-121
-83
-66
-73
-52
-36
-31
-15
6
25
48
74
103
138
172
209
247
278
300
325
344
322
249
151
49
-48
-130
-185
-218
-239
-251
-255
-253
-247
-240
-234
-227
-219
-212
-206
-201
-197
-193
-199
-213
-212
-184
-143
-108
-99
-133
-177
-195
-202
-205
-196
-202
-209
-183
-188
-227
-284
-409
-62
1376
2566
1570
-451
-965
-295
-99
-281
-233
-177
-223
-196
-158
-165
-147
-118
-110
-92
-65
-43
-16
18
52
90
131
173
216
255
287
317
346
346
299
221
139
63
-1
-42
-62
-70
-69
-61
-51
-39
-24
-8
4
17
32
45
55
66
