# session 12
49
76
13
44
237
295
174
117
-73
-238
574
1799
1389
-377
-1125
-504
15
41
33
71
79
37
-5
91
235
236
217
318
390
334
272
275
297
335
375
308
136
26
21
5
-24
6
20
-46
-93
-83
-99
-115
-71
-21
9
48
53
21
32
45
-52
-152
-97
-44
-182
-323
-207
-1
-154
-462
91
1387
1527
-41
-1319
-1188
-652
-387
-205
-162
-254
-243
-190
-216
-214
-127
2
112
137
141
153
37
-108
-15
160
99
-73
-102
-82
-178
-271
-173
9
43
-22
-61
-148
-170
69
239
79
6
143
92
-41
81
205
88
11
93
91
53
123
-4
-105
768
1929
1361
-516
-1341
-826
-349
-212
-97
-123
-259
-263
-176
-104
-32
15
26
81
204
315
277
73
-34
98
159
17
-30
11
-96
-232
-270
-311
-334
-335
-360
-275
-118
-156
-286
-232
-109
-149
-270
-270
-183
-158
-139
-67
-93
-215
-251
-205
-180
-240
-189
643
2058
2229
538
-880
-650
-86
-215
-339
-83
45
-3
130
326
313
223
257
319
300
333
473
507
388
328
352
340
356
423
334
72
-63
-15
-55
-186
-174
-76
-79
-104
-45
37
81
38
-106
-204
-180
-189
-285
-319
-251
-215
-273
-315
-366
-539
-226
1175
2222
1091
-934
-1453
-836
-574
-581
-449
-414
-369
-109
20
-129
-210
-139
-98
-47
57
65
9
117
335
368
197
67
-6
-150
-260
-223
-189
-232
-232
-198
-197
-126
24
63
16
72
141
68
-12
3
53
130
148
50
20
95
78
-98
-201
446
1917
2463
948
-721
-749
-181
-174
-246
-91
-63
-152
-156
-130
-138
-119
3
215
351
301
200
163
146
150
140
32
-55
-66
-204
-389
-337
-195
-201
-242
-274
-392
-456
-362
-260
-217
-186
-192
-196
-164
-202
-287
-278
-216
-206
-224
-178
-115
-186
40
1189
2200
1343
-506
-1123
-572
-220
-209
-152
-119
-124
-62
-2
10
33
95
161
173
153
237
426
509
434
385
395
347
278
201
30
-101
-93
-139
-238
-187
-57
61
222
270
77
-105
-87
-43
-123
-217
-212
-189
-194
-124
-12
18
22
-58
-179
397
1682
1875
212
-1298
-1204
-516
-236
-215
-271
-332
-261
-182
-220
-236
-150
-64
-61
-105
-62
100
216
188
149
178
182
107
24
-42
-142
-267
-305
-239
-201
-233
-236
-193
-190
-206
-173
-131
-109
-59
-35
-99
-114
-40
-28
-41
-18
-59
-85
-92
-59
789
2358
2489
564
-890
-653
-193
-167
-69
16
-5
57
51
45
247
299
102
110
228
97
-22
85
170
146
123
96
69
43
-56
-190
-247
-277
-361
-412
-358
-324
-356
-294
-155
-133
-151
-84
-98
-212
-223
-204
-246
-213
-190
-252
-241
-303
-196
989
2426
1835
-336
-1368
-838
-332
-299
-335
-383
-380
-254
-148
-100
-68
-73
-49
35
69
80
185
302
326
328
344
295
198
133
74
7
20
77
37
-39
-12
37
29
34
55
92
203
267
151
8
5
71
102
85
43
-29
-266
-422
367
1832
1961
230
-1193
-1065
-463
-222
-156
-147
-129
-33
-22
-88
-50
-16
-62
-29
30
-10
14
143
142
15
-67
-104
-113
-101
-161
-241
-231
-237
-285
-234
-163
-226
-278
-201
-177
-268
-296
-236
-231
-284
-290
-230
-188
-222
-245
-157
-135
-364
-236
1028
2419
1977
105
-936
-629
-196
-121
-100
-55
-39
-37
-10
95
184
144
109
170
208
239
372
488
434
331
333
361
322
309
326
211
34
0
-20
-200
-315
-199
-106
-214
-324
-244
-87
-56
-152
-212
-184
-178
-226
-263
-294
-287
-263
-417
-253
1150
2648
1850
-521
-1512
-881
-471
-561
-500
-394
-382
-363
-466
-617
-520
-273
-90
96
269
279
171
85
114
283
398
276
117
125
134
31
-35
-56
-151
-228
-161
-78
-94
-105
-42
24
54
51
17
-14
-31
-49
-29
-1
-38
-72
-159
-281
381
2090
2864
1218
-859
-1067
-261
-27
-119
27
140
29
-91
-126
-162
-203
-163
-66
-25
-19
37
112
158
181
164
117
72
23
-33
-111
-225
-314
-342
-358
-333
-241
-230
-343
-375
-275
-214
-206
-161
-124
-132
-143
-181
-255
-231
-123
-253
-473
238
1946
2566
914
-954
-1090
-412
-167
-113
5
-26
-135
-173
-154
-80
-12
-20
-30
-8
36
162
345
417
328
240
282
332
257
166
135
36
-120
-142
-69
-102
-183
-114
46
91
35
48
131
144
56
-24
-4
48
-48
-226
-250
-308
-479
84
1531
2016
534
-1061
-1150
-556
-331
-325
-299
-323
-308
-211
-203
-284
-215
-24
-9
-128
-66
113
129
19
-31
-16
-67
-257
-391
-229
24
38
-65
-75
-113
-230
-263
-201
-153
-116
-80
-86
-122
-110
-26
7
-81
-132
-117
-202
-254
-208
-345
-67
1515
2929
1983
-194
-999
-496
-146
-147
-130
-81
-24
1
-31
-2
132
275
355
367
403
535
618
565
554
621
594
514
457
288
72
27
9
-150
-239
-188
-225
-340
-342
-266
-229
-205
-191
-248
-320
-335
-361
-386
-335
-326
-354
-325
-433
-242
1134
2452
1461
-782
-1477
-793
-480
-546
-409
-349
-510
-539
-367
-262
-290
-258
-144
-133
-129
56
209
137
89
197
213
67
-26
-8
1
-49
-128
-209
-250
-225
-173
-140
-120
-110
-104
-69
-34
-63
-105
-78
-29
2
26
26
55
75
-12
375
1749
2684
1569
-260
-643
-54
128
51
167
216
108
88
176
216
150
40
-5
44
86
65
66
112
124
84
27
-62
-171
-247
-298
-336
-333
-308
-323
-357
-342
-292
-259
-230
-198
-176
-159
-167
-242
-328
-315
-258
-314
-394
-372
-511
-523
706
2465
2121
-212
-1443
-828
-273
-325
-268
-184
-313
-358
-202
-72
-43
-24
9
17
27
109
226
267
245
257
260
185
117
99
35
-46
-32
22
34
50
89
116
147
195
234
264
265
207
134
81
47
66
106
93
47
-97
-144
679
2134
2264
498
-1008
-967
-505
-468
-491
-400
-331
-282
-304
-375
-320
-188
-141
-108
1
83
112
161
193
161
133
120
47
-48
-54
-59
-205
-364
-346
-272
-325
-381
-277
-149
-154
-204
-201
-185
-174
-172
-208
-235
-243
-293
-310
-325
-367
302
1982
2780
1208
-824
-1108
-451
-263
-322
-251
-255
-290
-187
-78
-63
-54
-16
48
186
343
405
409
471
583
640
599
511
432
359
250
122
91
173
185
78
33
63
10
-95
-132
-138
-194
-264
-295
-334
-393
-391
-341
-337
-401
-496
-209
927
1919
1078
-865
-1563
-882
-398
-421
-399
-364
-399
-317
-172
-130
-146
-147
-153
-144
-75
48
179
232
191
186
237
197
69
-19
-61
-89
-94
-120
-178
-200
-190
-184
-145
-70
-13
-2
-69
-189
-238
-210
-213
-223
-200
-198
-196
-274
-380
302
1970
2738
1322
-481
-760
-234
-106
-180
-42
128
143
119
199
302
287
258
336
396
379
419
517
577
614
594
432
199
11
-126
-240
-327
-353
-308
-281
-330
-365
-328
-307
-335
-324
-275
-276
-322
-355
-351
-319
-342
-385
-286
-311
-524
246
2169
2664
560
-1383
-1264
-547
-421
-430
-368
-385
-362
-301
-290
-262
-197
-135
-74
-30
41
206
336
312
275
318
306
198
102
18
-90
-156
-150
-134
-149
-161
-118
-41
-12
-25
10
63
35
-61
-140
-113
-28
-69
-132
-49
-112
1
1344
2950
2385
177
-904
-454
54
180
144
10
-5
96
63
-14
14
-4
-121
-180
-126
-46
3
51
93
64
-6
-40
-92
-201
-284
-317
-345
-365
-403
-469
-478
-392
-284
-214
-170
-123
-90
-93
-103
-109
-121
-129
-152
-180
-247
-415
-108
1285
2407
1372
-699
-1378
-809
-407
-278
-134
-167
-328
-388
-384
-382
-332
-244
-193
-174
-88
69
157
145
174
257
257
193
193
197
110
53
101
92
-32
-117
-109
-77
-9
116
215
207
132
69
32
63
168
161
23
-7
-81
-144
799
2458
2462
401
-1090
-832
-254
-162
-160
-135
-171
-182
-181
-208
-207
-184
-178
-114
8
38
0
73
197
177
77
79
124
59
-41
-47
-66
-177
-237
-209
-212
-203
-106
-30
-36
-57
-99
-164
-195
-209
-217
-203
-238
-294
-307
-314
144
1439
2237
1148
-513
-855
-379
-237
-308
-311
-364
-387
-299
-234
-204
-140
-125
-148
-25
214
314
271
292
380
415
412
403
344
249
179
134
100
75
41
10
20
19
-37
-66
-51
-96
-167
-182
-226
-326
-407
-511
-574
-534
-520
-32
1481
2490
1136
-1107
-1629
-824
-393
-395
-301
-230
-299
-376
-360
-258
-214
-229
-68
185
218
145
188
205
158
215
265
141
-1
-27
-44
-125
-205
-221
-195
-193
-181
-100
-31
-26
12
68
28
-61
-111
-120
-80
-22
-16
-51
-199
-230
729
2442
2697
770
-900
-792
-243
-219
-196
-43
-37
-32
41
29
30
138
173
117
180
331
370
338
362
415
423
314
100
-21
19
4
-145
-253
-257
-253
-284
-309
-278
-206
-195
-267
-291
-236
-240
-304
-289
-258
-296
-287
-334
-411
342
1933
2287
511
-1150
-1103
-518
-424
-452
-403
-423
-406
-317
-289
-278
-200
-142
-136
-64
78
150
123
100
130
185
239
260
186
27
-97
-129
-143
-162
-127
-49
-4
5
28
24
-58
-107
-31
19
-58
-102
-75
-93
-101
-123
-87
682
2033
2140
474
-858
-668
-128
-59
-94
-33
14
51
91
117
107
50
-15
-48
-24
80
172
130
35
36
93
85
9
-72
-157
-239
-265
-264
-315
-352
-281
-193
-157
-99
-50
-93
-147
-140
-145
-164
-154
-201
-283
-336
-470
-161
1365
2777
1850
-414
-1256
-695
-348
-344
-236
-205
-305
-341
-290
-179
-40
34
-5
-117
-203
-159
-11
92
98
100
136
127
53
-11
-35
-62
-114
-154
-151
-127
-84
25
161
231
238
257
293
276
202
171
199
211
186
74
151
1035
2181
1911
272
-790
-605
-208
-170
-257
-292
-288
-314
-356
-320
-262
-272
-243
-131
-77
-95
-88
-66
-54
-24
-13
-42
-49
-53
-129
-232
-262
-231
-236
-281
-262
-187
-163
-170
-154
-170
-208
-203
-193
-233
-324
-352
-249
-328
-485
401
2137
2284
256
-1250
-919
-308
-282
-264
-159
-223
-294
-242
-169
-96
-7
30
5
23
118
205
259
331
386
372
338
295
200
128
162
199
161
125
127
147
226
330
337
271
251
247
179
134
196
212
75
-7
-69
-329
-25
1539
2587
1139
-1134
-1568
-756
-438
-519
-438
-392
-463
-455
-366
-283
-245
-242
-201
-108
-22
41
76
70
57
54
36
7
-47
-153
-239
-247
-229
-216
-212
-263
-318
-261
-130
-57
-87
-161
-161
-97
-119
-215
-253
-213
-135
-195
-306
388
1873
2160
462
-1039
-915
-336
-213
-195
-161
-221
-223
-167
-157
-109
-31
-31
-22
88
192
244
336
445
488
502
529
528
477
374
262
226
232
171
114
193
284
241
199
237
150
-78
-191
-175
-211
-295
-369
-423
-439
-433
-57
1063
1874
920
-855
-1394
-816
-450
-447
-397
-348
-341
-296
-267
-258
-202
-151
-155
-121
-36
-1
14
85
134
110
104
109
37
-45
-41
-35
-102
-153
-135
-117
-116
-92
-69
-94
-142
-150
-110
-77
-74
-66
-102
-209
-255
-301
-323
463
2098
2568
870
-833
-838
-263
-189
-214
-120
-129
-124
-20
7
-19
40
122
160
228
326
378
398
428
438
410
370
344
346
353
309
208
90
-28
-119
-174
-226
-257
-227
-195
-206
-211
-224
-276
-277
-237
-286
-339
-320
-344
51
1325
2132
933
-933
-1314
-681
-423
-451
-396
-405
-373
-218
-223
-360
-329
-194
-159
-141
-75
-60
-61
10
41
-47
-89
-7
33
-57
-164
-215
-242
-247
-213
-170
-152
-123
-60
-50
-148
-234
-221
-209
-218
-189
-194
-182
-107
-222
-55
1357
2843
2088
-55
-864
-349
-91
-123
-1
36
5
110
184
177
224
269
271
292
315
359
457
479
409
432
497
400
215
108
29
-89
-171
-170
-161
-179
-157
-85
-66
-154
-268
-318
-309
-283
-235
-218
-272
-271
-262
-360
106
1550
2342
1010
-845
-1172
-605
-436
-512
-455
-415
-417
-365
-282
-198
-171
-240
-298
-241
-100
27
68
42
37
77
103
79
40
0
-110
-289
-394
-355
-260
-180
-111
-54
-33
-90
-166
-123
-27
-40
-91
-118
-193
-225
-211
-106
759
2201
2268
488
-794
-463
43
-7
-58
-7
21
108
102
4
69
165
79
36
131
116
-11
-40
5
27
54
75
33
-61
-156
-201
-191
-170
-145
-115
-108
-80
-11
-21
-104
-105
-91
-156
-133
-45
-115
-189
-230
-427
63
1823
2764
1104
-1038
-1252
-498
-282
-349
-300
-255
-199
-142
-171
-207
-202
-197
-149
-50
36
113
162
117
42
33
46
31
27
13
-53
-122
-138
-115
-65
0
48
94
121
65
22
85
97
0
-16
55
98
82
-47
133
1238
2275
1527
-242
-880
-396
-69
-29
3
-142
-340
-307
-206
-229
-261
-241
-226
-183
-127
-157
-205
-155
-84
-57
-1
51
-16
-124
-127
-88
-136
-220
-229
-198
-190
-154
-73
-57
-140
-225
-257
-263
-257
-251
-203
-156
-355
-407
710
2278
1981
-45
-1178
-763
-316
-349
-352
-219
-110
-119
-205
-233
-247
-279
-172
-60
-151
-145
141
317
240
240
362
352
230
176
162
75
-27
-25
60
147
211
239
237
233
217
168
108
89
116
89
-5
-77
-210
-101
1052
2523
2175
188
-931
-564
-193
-314
-380
-290
-215
-157
-125
-169
-260
-289
-206
-98
-45
-19
-11
-39
-68
-73
-63
-25
1
-60
-129
-117
-140
-241
-262
-185
-169
-187
-120
-65
-125
-185
-173
-167
-206
-246
-217
-217
-361
-21
1309
2139
931
-816
-1014
-314
-116
-294
-351
-273
-139
-80
-154
-192
-130
-91
-85
-41
11
38
80
125
125
109
145
199
186
139
130
120
65
31
70
124
114
48
17
74
