# session 14
-13
-68
83
54
-435
-903
-950
-860
-836
-778
-777
-834
-730
-585
-632
-644
-457
-354
-455
-521
-434
-301
-261
-311
-312
-275
-333
-377
-296
-302
-409
-305
-117
-219
-352
-166
-43
-245
-301
-80
-100
-297
-188
-182
-665
-470
1081
2066
950
-586
-690
-167
-113
-123
29
-73
-262
-157
22
33
20
71
112
117
117
123
114
102
150
218
198
147
140
91
33
103
175
104
44
86
108
98
97
58
15
41
95
106
10
-108
-74
-193
-562
-31
1611
2053
344
-1060
-706
-22
49
-30
-70
-103
-5
102
86
69
118
197
253
204
164
293
389
283
269
438
437
244
162
161
90
42
49
17
-7
29
36
9
21
10
-70
-122
-128
-154
-196
-185
-116
-275
-683
-313
1202
1861
380
-1201
-1064
-317
-187
-236
-98
-96
-231
-217
-156
-204
-163
14
65
2
20
18
-61
-15
116
103
32
49
-1
-144
-172
-145
-188
-151
-91
-212
-271
-99
-37
-179
-246
-231
-228
-186
-206
-311
-365
-601
-796
183
1774
1509
-448
-1260
-568
-254
-478
-400
-240
-285
-277
-202
-202
-161
-18
66
56
86
155
141
24
-1
252
483
285
117
653
1419
1542
1159
833
594
396
380
374
156
-30
-19
-46
-136
-90
-30
-131
-236
-336
-554
-266
972
1720
641
-827
-905
-290
-158
-295
-312
-293
-265
-232
-230
-193
-128
-120
-160
-180
-124
4
78
29
-15
-7
-68
-158
-128
-50
-69
-147
-181
-166
-175
-221
-161
6
29
-116
-181
-154
-163
-167
-150
-157
-173
-384
-696
-139
1389
1912
467
-955
-840
-209
-74
-175
-210
-172
-100
-96
-113
-24
67
67
70
121
169
186
183
201
237
206
132
137
171
113
20
-6
3
5
11
22
41
65
63
38
18
-10
-48
-41
-21
-50
-78
-245
-602
-263
1212
2021
760
-819
-844
-183
-39
-116
-65
-52
-65
-29
-13
-6
29
53
60
78
98
106
103
93
97
126
143
117
62
12
-25
-54
-75
-77
-61
-43
-26
-12
-25
-57
-82
-112
-137
-126
-136
-173
-238
-511
-661
217
1573
1422
-180
-999
-517
-128
-211
-213
-138
-150
-133
-86
-78
-56
-9
21
47
83
100
86
63
61
82
96
79
42
-2
-44
-68
-71
-81
-96
-91
-66
-40
-16
-14
-39
-64
-84
-94
-76
-82
-110
-140
-389
-641
85
1532
1665
115
-935
-583
-124
-157
-176
-101
-112
-116
-81
-72
-49
9
51
75
103
124
126
126
142
172
194
178
116
52
15
-9
-27
-28
-24
-32
-30
-8
15
21
6
-16
-38
-68
-72
-43
-59
-75
-99
-399
-551
447
1782
1326
-467
-1151
-507
-68
-96
-62
-4
-15
10
35
32
54
87
114
148
173
181
177
157
142
164
186
154
83
18
-28
-57
-69
-78
-86
-78
-56
-39
-36
-46
-68
-95
-121
-125
-83
-58
-103
-137
-267
-615
-406
965
1944
906
-723
-910
-282
-130
-226
-166
-142
-168
-133
-112
-111
-78
-44
-22
13
39
43
39
34
44
74
88
64
20
-29
-74
-100
-105
-100
-94
-84
-61
-29
-16
-38
-66
-73
-84
-92
-73
-79
-108
-177
-457
-532
490
1855
1549
-103
-817
-320
-36
-163
-144
-79
-109
-92
-55
-59
-39
-2
20
51
80
74
56
44
40
55
78
72
37
4
-27
-51
-55
-55
-73
-81
-56
-25
-3
10
2
-18
-32
-50
-54
-34
-46
-77
-164
-469
-491
581
1810
1346
-218
-764
-263
-35
-158
-138
-78
-97
-83
-55
-46
-16
17
33
64
93
83
58
49
58
80
99
87
48
12
-15
-38
-46
-47
-62
-74
-64
-46
-25
-3
-7
-32
-47
-62
-80
-70
-76
-103
-118
-324
-602
-62
1224
1469
153
-849
-578
-122
-115
-148
-99
-108
-108
-75
-67
-53
-15
16
43
74
93
97
96
101
122
146
138
90
33
-7
-29
-39
-40
-44
-57
-70
-74
-69
-52
-25
-17
-43
-65
-72
-79
-63
-58
-89
-89
-224
-553
-227
1084
1669
411
-954
-860
-220
-65
-96
-34
-19
-34
-15
2
23
55
76
104
144
168
177
187
196
209
231
231
182
112
56
13
-19
-30
-21
-18
-39
-58
-52
-39
-36
-40
-54
-72
-83
-104
-108
-84
-103
-131
-178
-477
-573
463
1718
1147
-636
-1229
-541
-104
-127
-89
-48
-79
-56
-21
-20
4
43
71
105
143
162
163
152
145
158
171
147
89
24
-33
-73
-88
-87
-86
-91
-90
-77
-61
-50
-47
-61
-84
-98
-118
-130
-109
-119
-153
-201
-465
-604
336
1715
1437
-301
-1100
-521
-79
-139
-130
-65
-87
-74
-32
-26
-9
23
47
82
123
145
144
128
117
131
146
128
82
35
-6
-40
-55
-54
-50
-53
-51
-38
-19
1
10
-9
-37
-50
-64
-72
-60
-76
-104
-175
-460
-492
551
1769
1264
-376
-920
-327
-33
-146
-120
-61
-87
-68
-33
-29
-5
27
49
85
119
128
124
115
106
110
116
98
58
19
-16
-45
-54
-46
-47
-59
-65
-59
-41
-15
3
4
-11
-39
-70
-81
-61
-64
-90
-87
-237
-560
-235
1042
1657
509
-801
-755
-186
-79
-130
-72
-67
-83
-49
-28
-16
18
41
54
83
114
124
112
93
91
104
104
77
34
-9
-43
-66
-76
-73
-67
-74
-81
-71
-58
-45
-24
-22
-54
-81
-95
-109
-98
-95
-122
-138
-309
-616
-207
1124
1675
481
-767
-688
-173
-104
-156
-104
-94
-98
-72
-67
-58
-17
22
51
83
103
103
97
95
100
110
106
76
29
-19
-56
-76
-80
-79
-77
-79
-86
-85
-70
-53
-37
-25
-39
-65
-77
-86
-82
-61
-69
-85
-176
-488
-432
719
1795
1036
-603
-980
-329
-25
-81
-34
3
-26
-2
33
39
60
87
110
152
196
213
212
204
203
219
227
197
142
82
25
-15
-30
-32
-32
-31
-36
-44
-38
-21
-6
-1
-17
-43
-58
-75
-81
-62
-77
-109
-170
-467
-583
418
1766
1388
-356
-1080
-487
-84
-160
-151
-93
-121
-117
-88
-85
-65
-28
5
42
80
107
111
93
81
92
97
71
28
-15
-59
-97
-116
-113
-108
-115
-124
-120
-107
-88
-60
-42
-58
-86
-97
-109
-116
-102
-114
-135
-189
-461
-550
400
1651
1301
-307
-978
-440
-77
-151
-136
-69
-86
-74
-41
-40
-23
18
54
92
136
170
180
168
161
174
175
138
88
45
6
-23
-35
-37
-31
-21
-20
-27
-22
-12
0
20
27
0
-32
-51
-73
-70
-54
-79
-96
-193
-483
-322
837
1689
812
-619
-822
-262
-71
-135
-94
-67
-84
-62
-40
-28
6
38
64
104
144
168
173
160
148
150
141
100
41
-16
-67
-102
-115
-114
-108
-95
-87
-92
-92
-78
-62
-46
-36
-58
-95
-114
-127
-124
-102
-122
-146
-204
-491
-500
588
1757
1124
-559
-1058
-420
-74
-139
-112
-64
-82
-55
-16
-8
9
39
71
114
161
193
195
178
181
200
194
159
116
59
1
-34
-50
-50
-30
-15
-26
-37
-32
-23
-15
-1
13
5
-27
-50
-57
-73
-71
-57
-79
-96
-211
-538
-342
983
1934
877
-799
-1006
-316
-77
-148
-96
-65
-86
-59
-41
-39
-8
23
45
82
125
151
153
137
128
140
143
107
49
-3
-48
-85
-103
-105
-96
-83
-83
-97
-99
-78
-53
-33
-21
-37
-76
-98
-105
-106
-88
-92
-121
-162
-394
-558
262
1691
1736
163
-845
-492
-86
-160
-192
-126
-138
-133
-96
-96
-89
-51
-22
10
50
69
65
59
54
52
54
42
17
-3
-32
-83
-111
-97
-88
-95
-82
-70
-88
-94
-57
-12
14
24
7
-24
-36
-39
-47
-36
-32
-57
-88
-271
-501
57
1451
1936
695
-528
-480
-94
-116
-164
-98
-112
-126
-82
-70
-65
-27
3
22
60
96
104
89
65
53
57
52
22
-14
-50
-95
-132
-141
-133
-129
-119
-106
-113
-134
-134
-107
-71
-33
0
4
-19
-30
-29
-44
-45
-36
-65
-88
-191
-483
-279
982
1873
862
-728
-938
-306
-91
-157
-112
-84
-93
-59
-39
-33
6
44
69
110
157
185
191
190
197
211
200
151
95
49
-11
-76
-95
-79
-78
-77
-54
-48
-70
-78
-77
-98
-119
-112
-83
-59
-81
-130
-136
-116
-108
-86
-96
-124
-118
-315
-497
343
1747
1527
-343
-1353
-796
-195
-113
-65
-9
-27
-1
40
45
75
124
153
188
237
278
303
305
286
274
273
247
184
112
48
-17
-71
-94
-89
-77
-68
-62
-66
-84
-102
-103
-94
-85
-69
-59
-75
-93
-92
-109
-122
-104
-121
-146
-187
-437
-421
724
1999
1372
-481
-1134
-508
-133
-198
-171
-120
-153
-135
-86
-77
-67
-27
23
64
100
142
172
169
155
154
148
114
64
13
-35
-84
-122
-132
-119
-103
-90
-77
-74
-77
-74
-64
-53
-36
-22
-36
-70
-89
-101
-123
-110
-79
-99
-137
-276
-478
18
1423
2024
715
-764
-787
-237
-159
-228
-156
-135
-153
-124
-107
-98
-58
-14
20
57
92
127
153
145
126
123
100
41
-8
-35
-75
-123
-144
-133
-109
-96
-98
-95
-90
-101
-115
-107
-91
-75
-52
-34
-49
-83
-97
-98
-103
-84
-66
-98
-122
-230
-447
-40
1313
2024
893
-542
-674
-218
-132
-163
-95
-90
-103
-64
-37
-18
21
52
82
127
172
207
228
227
216
210
194
148
89
34
-20
-68
-88
-80
-63
-54
-52
-55
-59
-64
-72
-83
-93
-93
-77
-58
-57
-87
-117
-114
-114
-120
-90
-88
-125
-142
-333
-472
422
1928
1851
15
-1112
-688
-180
-182
-172
-103
-125
-117
-73
-67
-52
-11
22
60
112
164
204
212
199
209
224
179
93
38
2
-60
-123
-134
-111
-98
-93
-79
-73
-85
-99
-110
-112
-105
-92
-71
-55
-78
-110
-109
-118
-139
-115
-107
-142
-160
-326
-413
503
1966
1842
0
-1124
-702
-181
-172
-166
-99
-124
-128
-89
-74
-51
-13
24
75
129
169
200
219
215
201
186
158
115
56
-14
-67
-95
-118
-134
-116
-82
-71
-76
-74
-68
-66
-67
-61
-36
-15
-34
-75
-93
-103
-117
-102
-97
-135
-158
-293
-495
85
1592
2153
717
-821
-851
-310
-206
-241
-189
-190
-191
-163
-170
-153
-92
-64
-44
22
82
98
117
145
148
127
89
35
-11
-46
-103
-168
-200
-194
-169
-135
-124
-129
-101
-64
-96
-156
-156
-121
-105
-88
-60
-59
-78
-73
-69
-83
-59
-45
-86
-83
-174
-358
240
1743
2211
659
-918
-917
-289
-91
-107
-73
-61
-54
-30
-11
19
57
83
118
175
232
272
296
328
372
373
298
204
140
80
5
-65
-118
-145
-134
-99
-73
-66
-60
-44
-43
-71
-97
-94
-91
-94
-76
-67
-105
-132
-114
-121
-131
-105
-124
-150
-191
-404
-157
1265
2389
1299
-721
-1251
-602
-242
-218
-136
-104
-127
-100
-75
-70
-39
5
40
85
151
224
262
252
237
241
218
153
100
61
-21
-126
-184
-197
-194
-184
-167
-142
-113
-101
-114
-132
-140
-134
-128
-146
-163
-139
-121
-164
-201
-185
-190
-204
-165
-155
-173
-178
-345
-290
834
2146
1607
-310
-1210
-727
-251
-199
-179
-132
-115
-99
-91
-61
-5
17
20
60
132
201
248
269
280
283
263
217
160
91
14
-43
-70
-101
-138
-137
-95
-57
-37
-30
-40
-58
-74
-86
-86
-79
-80
-77
-61
-71
-109
-123
-126
-136
-104
-82
-120
-120
-199
-367
230
1754
2277
730
-907
-951
-352
-192
-223
-179
-165
-156
-130
-127
-111
-81
-70
-31
45
91
120
174
212
203
189
179
131
51
-7
-44
-90
-131
-144
-147
-141
-102
-61
-61
-62
-43
-37
-41
-32
-28
-37
-35
-28
-48
-80
-93
-109
-117
-92
-110
-151
-161
-340
-328
829
2345
1968
-18
-1031
-586
-196
-246
-233
-184
-203
-195
-186
-181
-123
-66
-40
8
70
146
249
301
269
273
318
289
208
147
80
12
-33
-90
-132
-130
-145
-157
-96
-37
-44
-44
-29
-59
-87
-52
2
25
0
-66
-109
-103
-111
-126
-104
-102
-108
-136
-328
-140
1179
2402
1547
-469
-1210
-664
-279
-266
-214
-172
-187
-164
-127
-109
-86
-58
-20
33
98
172
233
249
240
233
206
139
52
-24
-81
-136
-202
-256
-270
-262
-251
-231
-208
-193
-188
-201
-221
-212
-177
-155
-147
-129
-127
-162
-182
-167
-169
-168
-134
-145
-165
-176
-315
-108
1143
2325
1571
-308
-1022
-532
-195
-192
-141
-118
-161
-165
-157
-148
-104
-49
1
59
119
179
236
282
302
295
267
216
141
71
24
-23
-75
-116
-147
-155
-120
-69
-61
-91
-100
-64
-27
-40
-75
-65
-33
-41
-61
-58
-68
-83
-63
-36
-30
-70
-141
-130
-161
-320
247
1911
2679
1071
-903
-1106
-423
-188
-185
-105
-105
-135
-102
-83
-82
-42
19
68
112
177
245
281
289
297
299
262
179
84
16
-36
-104
-171
-200
-198
-179
-148
-132
-137
-132
-122
-125
-129
-137
-139
-109
-92
-127
-157
-163
-171
-170
-172
-178
-168
-181
-192
-222
-405
-159
1277
2587
1701
-390
-1123
-544
-218
-286
-242
-180
-197
-177
-150
-140
-92
-42
-27
16
106
176
213
255
289
285
254
190
95
15
-36
-93
-140
-150
-164
-197
-202
-169
-144
-144
-142
-125
-123
-151
-158
-116
-92
-107
-94
-68
-103
-148
-147
-151
-137
-81
-110
-188
-208
-304
-66
1273
2602
1825
-269
-1071
-487
-150
-256
-225
-144
-157
-141
-112
-108
-76
-19
26
79
154
229
277
300
311
323
322
265
149
43
-29
-101
-160
-171
-157
-151
-155
-172
-190
-181
-146
-126
-139
-165
-185
-188
-160
-121
-112
-120
-116
-112
-124
-171
-253
-258
-140
-85
-146
-191
-329
-261
894
2391
1982
-107
-1199
-691
-223
-294
-316
-262
-286
-274
-211
-154
-121
-146
-153
-63
31
64
98
144
170
182
164
94
