# session 30
-22
-30
-7
52
56
-15
-42
7
57
88
123
151
174
199
200
153
71
-13
-87
-152
-198
-220
-229
-232
-221
-204
-194
-195
-194
-186
-174
-165
-159
-154
-150
-144
-136
-131
-128
-120
-113
-123
-142
-142
-112
-64
-18
0
-23
-62
-85
-91
-94
-84
-79
-93
-77
-54
-87
-122
-217
-222
711
2415
2685
794
-760
-539
-24
-125
-198
-100
-127
-154
-105
-98
-103
-79
-65
-59
-42
-23
-1
20
36
63
100
137
175
213
245
273
297
316
319
280
199
105
13
-71
-129
-160
-184
-198
-193
-185
-185
-180
-171
-167
-162
-153
-145
-138
-140
-144
-136
-127
-131
-134
-130
-138
-155
-148
-106
-55
-23
-32
-66
-93
-111
-129
-124
-106
-115
-114
-85
-105
-140
-189
-298
168
1736
2826
1643
-348
-767
-173
-69
-236
-177
-142
-188
-165
-138
-141
-127
-116
-112
-91
-70
-58
-37
-8
20
45
67
100
141
175
201
226
249
263
248
188
102
22
-53
-126
-177
-190
-191
-193
-189
-179
-174
-170
-159
-150
-149
-152
-150
-140
-132
-137
-141
-137
-130
-130
-137
-149
-150
-131
-93
-40
-8
-41
-101
-121
-115
-115
-108
-104
-113
-93
-85
-123
-136
-227
-221
773
2439
2537
608
-788
-486
-26
-148
-209
-131
-162
-169
-124
-131
-132
-101
-93
-85
-59
-42
-31
-10
13
38
69
103
137
168
198
228
256
274
273
236
162
75
-8
-81
-135
-167
-183
-189
-184
-175
-166
-159
-154
-151
-144
-137
-136
-136
-128
-124
-122
-114
-108
-115
-120
-122
-130
-127
-94
-47
-14
-16
-54
-91
-100
-104
-104
-95
-107
-110
-81
-91
-120
-173
-312
75
1566
2697
1646
-302
-792
-222
-60
-197
-152
-121
-168
-148
-117
-121
-110
-93
-83
-65
-49
-36
-14
14
36
58
87
119
152
186
214
235
259
283
271
207
121
40
-37
-106
-155
-182
-199
-201
-187
-176
-177
-177
-165
-155
-148
-139
-133
-135
-134
-128
-127
-130
-120
-104
-111
-137
-147
-124
-79
-30
-6
-34
-82
-100
-102
-110
-106
-104
-119
-101
-87
-117
-128
-230
-274
627
2260
2446
582
-888
-645
-103
-131
-183
-111
-136
-154
-113
-107
-106
-84
-77
-67
-40
-20
-3
26
53
69
91
126
163
195
225
252
279
308
315
273
194
107
20
-60
-120
-162
-191
-200
-196
-192
-190
-184
-172
-157
-145
-140
-136
-133
-129
-127
-126
-124
-121
-118
-120
-130
-136
-123
-92
-55
-23
-24
-66
-101
-107
-114
-118
-113
-123
-119
-96
-116
-136
-176
-291
184
1709
2640
1328
-639
-976
-300
-89
-186
-139
-119
-146
-110
-94
-106
-84
-59
-55
-41
-18
5
30
54
74
105
145
179
210
242
267
288
316
334
308
236
140
41
-47
-118
-166
-192
-206
-216
-217
-206
-190
-177
-166
-157
-151
-147
-143
-136
-130
-126
-124
-127
-128
-118
-117
-141
-159
-144
-109
-67
-30
-31
-74
-109
-110
-111
-114
-106
-108
-105
-83
-103
-135
-181
-314
71
1594
2787
1727
-311
-844
-238
-56
-209
-176
-146
-182
-149
-122
-131
-111
-89
-81
-62
-43
-30
-8
14
29
58
98
130
159
193
223
242
263
284
273
207
118
36
-44
-116
-160
-184
-198
-197
-192
-191
-185
-173
-167
-162
-150
-143
-141
-135
-129
-127
-123
-116
-119
-127
-126
-120
-127
-140
-130
-88
-38
-12
-34
-78
-100
-104
-108
-95
-87
-109
-98
-74
-109
-138
-230
-301
524
2255
2734
988
-646
-555
-52
-129
-220
-136
-152
-174
-129
-121
-123
-99
-88
-78
-57
-48
-38
-13
13
32
58
96
134
163
189
218
245
269
275
242
170
85
1
-74
-132
-169
-187
-190
-191
-196
-193
-179
-169
-168
-159
-147
-142
-142
-141
-137
-132
-129
-126
-124
-123
-122
-119
-119
-128
-137
-128
-92
-41
-7
-20
-65
-92
-97
-104
-99
-89
-102
-93
-68
-96
-124
-204
-328
305
1979
2779
1314
-488
-646
-109
-93
-210
-143
-142
-172
-134
-121
-128
-104
-87
-84
-67
-50
-37
-16
10
33
62
98
130
159
198
238
261
275
289
272
206
117
30
-49
-111
-152
-177
-189
-191
-190
-188
-182
-174
-165
-158
-152
-145
-137
-133
-134
-133
-129
-125
-123
-119
-117
-117
-115
-113
-112
-116
-129
-134
-106
-52
-8
-4
-38
-75
-87
-93
-97
-86
-90
-99
-76
-82
-119
-153
-296
-112
1211
2680
2113
61
-847
-341
-33
-172
-170
-117
-155
-142
-109
-118
-108
-83
-75
-60
-37
-25
-11
12
39
69
99
131
168
206
237
258
281
305
304
255
174
90
10
-68
-136
-177
-193
-199
-203
-202
-196
-188
-178
-169
-158
-151
-150
-150
-147
-141
-133
-128
-132
-137
-130
-124
-129
-134
-134
-143
-153
-137
-92
-41
-11
-30
-82
-106
-102
-106
-104
-97
-107
-96
-77
-105
-127
-220
-300
494
2201
2712
988
-699
-643
-92
-119
-210
-130
-140
-165
-124
-114
-114
-88
-76
-71
-50
-33
-21
2
27
50
78
114
153
190
222
248
273
297
306
272
198
112
28
-57
-126
-167
-189
-205
-212
-210
-202
-193
-180
-171
-170
-165
-152
-142
-137
-131
-126
-123
-124
-130
-130
-120
-117
-134
-149
-139
-111
-70
-28
-20
-58
-95
-106
-115
-114
-92
-98
-116
-91
-93
-134
-172
-307
-73
1332
2806
2137
21
-842
-299
-27
-199
-189
-127
-170
-158
-117
-123
-120
-96
-81
-68
-56
-40
-15
9
25
47
83
121
154
188
223
250
271
286
275
227
150
53
-42
-113
-159
-188
-205
-213
-214
-205
-199
-202
-196
-181
-173
-168
-157
-150
-148
-143
-136
-133
-126
-121
-131
-151
-156
-133
-91
-47
-22
-38
-81
-107
-114
-121
-111
-98
-113
-110
-90
-116
-143
-228
-303
470
2210
2835
1160
-606
-621
-75
-117
-232
-146
-152
-189
-152
-137
-136
-109
-93
-89
-77
-64
-46
-17
11
38
68
95
125
163
199
225
251
278
286
254
185
93
-6
-86
-138
-173
-198
-209
-210
-204
-197
-190
-187
-186
-183
-172
-158
-149
-144
-139
-134
-128
-123
-129
-146
-145
-114
-67
-28
-14
-43
-89
-110
-114
-118
-107
-106
-118
-97
-90
-128
-156
-280
-212
947
2599
2440
406
-829
-436
-34
-170
-203
-131
-165
-161
-119
-127
-123
-94
-86
-76
-52
-36
-20
4
27
52
86
122
154
186
217
241
263
286
284
234
151
63
-21
-95
-147
-181
-205
-215
-216
-214
-206
-193
-187
-183
-173
-167
-164
-154
-146
-149
-150
-139
-133
-144
-154
-138
-97
-51
-24
-41
-91
-119
-122
-128
-124
-114
-126
-116
-85
-110
-135
-192
-298
291
1896
2649
1101
-792
-897
-189
-69
-178
-105
-93
-131
-96
-75
-83
-64
-43
-34
-17
1
17
40
67
92
119
151
186
222
253
278
301
327
338
300
216
123
38
-49
-125
-174
-203
-220
-221
-221
-221
-213
-201
-191
-174
-158
-158
-160
-149
-143
-146
-143
-134
-133
-145
-150
-125
-81
-46
-42
-71
-112
-136
-146
-146
-132
-136
-153
-133
-129
-166
-172
-263
-200
888
2457
2257
185
-1094
-661
-127
-165
-173
-92
-129
-151
-111
-92
-76
-55
-53
-38
-6
10
20
45
79
114
153
190
224
261
297
327
355
379
372
313
222
121
22
-65
-125
-161
-185
-200
-202
-197
-191
-186
-180
-171
-165
-161
-157
-153
-151
-150
-149
-148
-149
-158
-170
-163
-128
-85
-55
-56
-91
-123
-131
-137
-139
-132
-139
-137
-113
-129
-159
-208
-320
146
1715
2805
1621
-380
-816
-219
-90
-242
-189
-157
-193
-157
-130
-137
-116
-95
-92
-77
-57
-43
-23
6
31
55
85
121
152
178
201
222
241
251
226
159
75
-5
-77
-135
-172
-189
-196
-198
-192
-183
-177
-171
-162
-156
-151
-143
-136
-131
-127
-123
-120
-126
-142
-144
-117
-75
-40
-22
-41
-84
-106
-112
-117
-108
-101
-117
-105
-91
-124
-151
-241
-205
787
2425
2538
660
-727
-458
-26
-159
-217
-130
-159
-170
-123
-123
-126
-100
-91
-82
-58
-42
-30
-8
17
42
71
102
132
163
190
213
237
259
255
208
132
49
-27
-93
-141
-169
-184
-191
-189
-185
-181
-177
-170
-164
-160
-156
-150
-144
-140
-139
-137
-133
-128
-133
-146
-144
-112
-67
-31
-23
-51
-92
-109
-111
-115
-107
-107
-119
-99
-90
-134
-168
-276
-196
939
2598
2495
473
-798
-419
-24
-184
-218
-134
-174
-180
-136
-141
-138
-110
-102
-92
-70
-57
-44
-19
6
29
57
91
126
156
180
202
227
252
252
207
133
52
-25
-94
-143
-170
-182
-184
-179
-170
-165
-162
-157
-151
-146
-141
-140
-142
-140
-137
-136
-136
-136
-142
-154
-151
-119
-71
-31
-21
-56
-98
-112
-116
-121
-110
-109
-118
-96
-92
-129
-165
-286
-91
1223
2748
2281
234
-749
-289
-19
-205
-209
-142
-185
-176
-137
-147
-143
-120
-112
-101
-83
-69
-51
-28
-6
18
46
74
102
130
154
174
198
225
227
186
116
43
-26
-86
-129
-154
-165
-166
-160
-154
-149
-145
-142
-141
-140
-140
-139
-136
-132
-128
-125
-120
-116
-117
-127
-139
-126
-84
-35
-5
-12
-54
-93
-105
-109
-106
-97
-108
-109
-89
-110
-133
-186
-335
96
1662
2757
1593
-371
-797
-215
-77
-214
-165
-132
-163
-143
-132
-137
-111
-90
-86
-69
-47
-32
-13
9
36
68
95
117
147
182
207
222
246
274
271
215
129
46
-26
-92
-143
-168
-172
-173
-168
-159
-152
-145
-137
-134
-137
-137
-134
-133
-130
-132
-136
-129
-122
-137
-151
-130
-84
-44
-22
-35
-76
-108
-121
-125
-111
-106
-125
-108
-84
-119
-141
-215
-278
502
2153
2578
797
-870
-741
-123
-113
-195
-120
-133
-156
-115
-108
-110
-83
-71
-67
-47
-27
-11
8
30
57
86
114
143
171
192
208
228
255
268
241
171
84
2
-72
-131
-170
-189
-195
-193
-186
-179
-170
-158
-150
-147
-141
-134
-134
-136
-132
-129
-130
-130
-138
-155
-149
-112
-69
-37
-30
-64
-106
-121
-127
-127
-116
-123
-125
-97
-109
-147
-201
-335
52
1607
2895
1924
-121
-726
-187
-54
-232
-191
-151
-196
-169
-138
-151
-138
-117
-113
-99
-80
-67
-49
-27
-6
17
44
72
100
123
140
161
186
204
197
152
80
7
-59
-118
-156
-167
-171
-178
-177
-164
-152
-145
-143
-145
-143
-131
-126
-131
-130
-122
-120
-122
-128
-139
-133
-96
-49
-17
-17
-53
-91
-105
-114
-117
-106
-106
-100
-81
-106
-132
-179
-323
112
1707
2830
1619
-422
-849
-216
-56
-191
-141
-119
-158
-123
-98
-109
-91
-69
-66
-52
-31
-10
11
33
55
87
119
146
172
198
218
234
257
276
258
195
111
29
-50
-118
-160
-181
-192
-197
-193
-186
-180
-176
-173
-166
-155
-146
-145
-147
-148
-146
-139
-139
-154
-163
-139
-93
-53
-37
-55
-96
-121
-126
-126
-116
-117
-130
-108
-101
-142
-173
-293
-235
895
2569
2482
460
-822
-440
-28
-182
-227
-143
-176
-183
-138
-139
-136
-109
-100
-93
-71
-54
-39
-20
0
24
53
80
105
128
147
163
186
214
215
170
97
18
-59
-122
-164
-186
-199
-204
-201
-193
-181
-171
-164
-155
-146
-139
-132
-124
-119
-116
-114
-115
-125
-138
-130
-93
-48
-16
-14
-48
-85
-97
-101
-100
-94
-104
-105
-81
-94
-124
-191
-333
114
1706
2870
1760
-230
-705
-151
-50
-215
-164
-137
-182
-148
-120
-130
-114
-97
-94
-76
-55
-43
-23
2
24
48
77
106
136
163
182
199
224
245
225
161
83
8
-64
-122
-155
-169
-178
-186
-192
-189
-177
-164
-153
-145
-140
-135
-127
-122
-121
-118
-116
-114
-111
-115
-131
-133
-103
-58
-20
-16
-52
-91
-101
-105
-109
-100
-105
-111
-87
-96
-130
-168
-305
-23
1396
2695
1794
-322
-1002
-344
-46
-184
-156
-107
-149
-130
-97
-104
-91
-68
-62
-49
-29
-13
7
30
51
76
105
134
164
192
215
237
262
280
262
197
108
21
-58
-123
-165
-191
-205
-208
-202
-195
-185
-173
-163
-154
-143
-132
-126
-125
-126
-125
-122
-122
-126
-127
-134
-149
-145
-109
-66
-33
-22
-52
-93
-108
-110
-110
-100
-104
-109
-87
-94
-126
-171
-296
7
1416
2722
1923
-70
-747
-202
-18
-203
-173
-120
-167
-146
-109
-118
-104
-79
-76
-66
-46
-34
-18
7
28
50
76
102
129
157
180
199
223
242
228
172
94
13
-63
-122
-159
-179
-190
-194
-197
-199
-194
-186
-178
-170
-160
-148
-139
-133
-126
-121
-120
-120
-118
-118
-120
-119
-124
-132
-119
-82
-41
-10
-13
-54
-91
-98
-101
-99
-91
-100
-98
-75
-95
-123
-185
-292
267
1883
2789
1409
-492
-724
-116
-61
-207
-138
-122
-163
-126
-105
-113
-92
-78
-76
-57
-36
-24
-5
20
44
72
103
133
163
190
211
234
263
276
245
173
87
4
-70
-128
-167
-190
-203
-208
-205
-198
-192
-183
-172
-162
-154
-147
-140
-134
-129
-126
-125
-126
-127
-128
-129
-128
-133
-149
-151
-121
-75
-35
-19
-43
-84
-102
-106
-109
-98
-97
-108
-84
-77
-118
-152
-265
-138
1067
2636
2329
295
-797
-340
2
-175
-196
-121
-164
-159
-116
-125
-121
-97
-94
-85
-61
-48
-35
-8
17
41
72
106
134
161
190
212
231
254
255
209
131
49
-26
-92
-139
-164
-178
-187
-187
-182
-177
-171
-163
-155
-148
-143
-135
-127
-123
-121
-116
-114
-114
-108
-102
-103
-105
-110
-119
-113
-77
-28
8
6
-35
-73
-88
-99
-101
-91
-101
-100
-78
-100
-126
-182
-342
78
1638
2744
1606
-340
-773
-204
-69
-207
-167
-145
-178
-145
-122
-128
-110
-93
-92
-76
-51
-36
-19
5
29
54
84
117
149
179
206
230
263
290
272
203
119
39
-39
-110
-159
-181
-184
-186
-189
-178
-156
-142
-141
-140
-135
-123
-104
-88
-87
-87
-77
-69
-68
-67
-62
-62
-65
