# session 34
-18
-20
-22
92
219
164
50
41
22
-78
-127
-106
-120
-133
-105
-138
-210
-184
-116
-112
-121
-105
-88
-79
-103
-147
-146
-108
-90
-90
-95
-104
-95
-68
-73
-112
-112
-43
28
39
-2
-42
-54
-69
-89
-71
-44
-66
-71
-40
-67
-89
-77
-191
-7
1040
1915
1174
-299
-711
-243
-3
-64
-77
-57
-46
-26
-38
-63
-44
6
27
10
6
38
52
44
75
114
103
100
153
186
170
168
191
210
227
223
158
73
35
13
-48
-110
-132
-134
-133
-127
-121
-121
-117
-108
-103
-104
-104
-101
-102
-111
-118
-112
-108
-118
-116
-106
-114
-120
-104
-93
-99
-77
-22
16
1
-45
-74
-83
-96
-99
-84
-93
-92
-60
-78
-105
-119
-236
-29
1022
1873
1124
-324
-732
-307
-87
-98
-60
-61
-94
-68
-47
-67
-65
-35
-22
-10
16
31
40
61
71
66
83
113
134
159
186
191
190
211
233
222
170
97
28
-26
-74
-117
-140
-148
-166
-173
-146
-122
-120
-105
-94
-123
-131
-82
-69
-121
-138
-107
-119
-157
-133
-76
-79
-138
-150
-52
39
-22
-132
-115
-43
-54
-101
-89
-72
-113
-122
-57
-54
-91
-98
-261
-168
957
2072
1332
-389
-883
-340
-116
-169
-55
10
-70
-109
-90
-51
0
-1
-29
16
79
62
21
34
64
69
84
152
222
213
184
242
308
274
237
258
222
117
38
-31
-100
-114
-125
-161
-153
-144
-202
-224
-138
-62
-80
-126
-126
-108
-119
-138
-132
-127
-120
-89
-85
-143
-161
-84
-21
-37
-54
-42
-57
-91
-96
-86
-93
-111
-124
-97
-68
-100
-112
-137
-293
16
1263
2060
1016
-551
-813
-275
-71
-111
-85
-84
-95
-62
-50
-54
-31
-17
-35
-34
0
30
41
51
69
84
98
122
155
180
190
202
229
251
238
199
150
86
11
-54
-102
-136
-152
-155
-159
-164
-155
-139
-130
-128
-133
-134
-121
-111
-121
-131
-127
-118
-111
-118
-144
-142
-81
-25
-19
-35
-58
-84
-101
-111
-98
-76
-108
-138
-96
-83
-98
-90
-232
-132
939
2027
1389
-247
-811
-329
-54
-116
-94
-32
-54
-92
-78
-37
-31
-52
-51
-30
14
80
92
49
61
131
141
101
112
161
179
186
219
235
219
206
171
99
40
-16
-110
-179
-173
-139
-134
-155
-161
-132
-115
-137
-145
-116
-104
-123
-121
-106
-112
-114
-101
-108
-122
-111
-79
-25
13
-37
-113
-96
-64
-102
-111
-87
-120
-113
-44
-73
-139
-200
-308
99
1328
1996
971
-445
-698
-250
-59
-105
-119
-84
-36
-39
-103
-105
-44
-29
-34
-12
-18
-26
35
85
58
46
96
133
138
158
190
200
199
218
242
224
149
62
1
-46
-103
-147
-154
-149
-153
-153
-140
-126
-124
-135
-141
-138
-133
-118
-99
-113
-134
-114
-99
-129
-135
-103
-105
-105
-41
7
-29
-79
-89
-96
-105
-99
-109
-127
-92
-70
-107
-84
-141
-342
154
1585
2128
738
-736
-750
-208
-80
-114
-80
-83
-88
-51
-33
-30
-12
-9
-18
20
79
83
63
69
74
75
104
145
185
225
245
254
291
327
303
240
178
98
-7
-97
-143
-160
-173
-184
-188
-195
-206
-187
-146
-145
-181
-177
-130
-116
-141
-150
-139
-133
-136
-148
-161
-153
-134
-114
-79
-50
-66
-97
-107
-120
-142
-140
-126
-119
-100
-113
-163
-128
-144
-351
42
1524
2412
1183
-615
-943
-348
-89
-111
-84
-84
-87
-41
-37
-69
-59
-22
2
20
39
35
26
68
116
100
90
147
196
213
248
280
300
321
298
228
175
117
21
-47
-67
-111
-165
-157
-125
-137
-158
-145
-110
-91
-105
-116
-94
-85
-110
-109
-84
-87
-108
-109
-105
-119
-139
-139
-111
-74
-59
-73
-88
-93
-112
-138
-134
-139
-187
-178
-110
-110
-116
-135
-277
110
1513
2354
1096
-721
-1016
-415
-216
-231
-106
-62
-102
-74
-42
-57
-66
-55
-42
-41
-40
-8
41
76
104
117
110
130
192
238
247
259
281
287
273
244
175
69
-25
-77
-114
-152
-172
-177
-182
-181
-168
-155
-145
-127
-110
-106
-96
-74
-70
-84
-93
-94
-85
-70
-84
-115
-99
-62
-57
-42
-9
-25
-69
-81
-93
-113
-99
-75
-57
-42
-81
-103
-85
-244
-138
1088
2412
1745
-252
-1063
-489
-79
-131
-127
-87
-112
-88
-44
-52
-67
-68
-78
-49
54
109
28
-28
52
107
78
109
179
189
210
253
254
282
336
272
133
66
22
-72
-147
-166
-186
-217
-230
-247
-255
-210
-183
-233
-235
-139
-98
-156
-161
-88
-92
-194
-221
-147
-118
-129
-115
-156
-225
-159
-29
-50
-162
-164
-58
5
-28
-71
-51
-52
-150
-207
-144
-138
-196
-131
-85
-180
-161
-183
-402
227
2004
2714
1105
-693
-873
-331
-149
-181
-173
-141
-88
-47
-45
-76
-132
-151
-123
-119
-119
-35
83
111
69
74
132
142
114
134
177
217
308
385
345
273
224
80
-125
-152
-9
22
-93
-135
-86
-55
-31
-29
-47
-4
19
-58
-85
-37
-78
-145
-76
27
16
-33
-19
23
60
112
126
39
-22
82
215
184
68
23
62
102
47
-61
-62
23
47
1
-39
-34
-122
-301
240
1871
2769
1412
-469
-752
-181
-101
-245
-178
-135
-187
-192
-192
-215
-204
-187
-200
-194
-151
-135
-156
-155
-125
-95
-48
7
4
-33
-6
64
100
122
143
92
-24
-116
-168
-224
-284
-320
-329
-342
-359
-333
-283
-289
-317
-286
-238
-243
-279
-286
-249
-226
-257
-261
-198
-173
-210
-215
-203
-222
-204
-124
-68
-77
-117
-145
-140
-129
-127
-116
-109
-95
-64
-81
-104
-149
-306
76
1564
2608
1496
-346
-730
-193
-49
-117
-42
-26
-53
-3
19
-28
-51
-14
21
-3
-28
33
115
120
91
77
53
69
185
265
217
210
327
379
299
224
167
73
8
-11
-52
-96
-119
-132
-94
-6
-1
-134
-208
-63
67
-33
-80
105
144
-67
-95
77
59
-53
37
142
74
50
164
222
203
220
177
42
60
211
121
-115
-33
164
48
-128
-214
-286
439
2048
2433
692
-852
-705
-154
-156
-257
-224
-198
-181
-185
-192
-151
-143
-178
-155
-127
-165
-179
-161
-174
-130
-14
15
-22
25
102
121
165
262
329
341
308
220
115
39
-8
-44
-93
-174
-248
-263
-253
-262
-268
-276
-311
-309
-249
-249
-330
-350
-280
-244
-286
-337
-350
-336
-311
-249
-147
-127
-260
-344
-230
-138
-213
-246
-175
-177
-219
-197
-168
-190
-334
-328
622
2113
2121
319
-978
-676
-130
-160
-233
-100
-24
-61
-99
-112
-109
-67
11
42
-18
-60
-4
66
105
167
178
88
84
238
310
222
214
332
351
266
238
215
108
9
-39
-56
-19
2
-60
-101
-67
-35
-18
8
-15
-69
-59
-10
3
15
-5
-88
-64
47
0
-79
4
36
-43
-21
53
49
12
-37
-69
-46
-21
15
40
-44
-172
-254
-32
973
2073
1636
38
-673
-289
-57
-98
-65
-151
-232
-55
62
-49
-111
-86
-99
-73
5
-6
-84
-62
34
34
-3
108
221
125
45
172
245
169
197
249
83
-83
-21
32
-105
-226
-192
-150
-214
-245
-152
-110
-195
-238
-206
-182
-142
-118
-157
-161
-131
-167
-194
-137
-102
-116
-103
-83
-96
-116
-140
-155
-130
-113
-144
-135
-90
-128
-163
-147
-259
-96
989
2003
1339
-231
-762
-328
-104
-172
-142
-77
-89
-129
-146
-100
-34
-31
-53
-35
-8
-17
-31
-25
-9
22
88
152
167
167
197
212
200
231
274
220
96
8
-7
32
20
-110
-200
-126
-51
-81
-103
-83
-114
-199
-231
-139
-16
-9
-85
-128
-134
-127
-94
-70
-92
-110
-36
69
16
-155
-159
-28
-66
-176
-90
27
-42
-142
-145
-172
-160
343
1388
1842
742
-725
-721
170
177
-392
-283
83
-12
-117
-47
-37
85
130
-135
-223
-73
5
170
218
-33
0
224
74
7
278
285
90
115
182
242
355
248
0
-67
-105
-223
-237
-187
-163
-110
-106
-152
-118
-128
-241
-185
-28
-118
-231
-66
32
-125
-231
-230
-210
-35
140
-4
-158
-24
-81
-385
-246
83
-106
-293
-83
-73
-239
-256
-175
553
1707
1540
183
-366
-90
-178
-317
-49
-16
-368
-328
128
190
-106
-80
121
6
-195
-117
60
72
42
109
99
-2
81
270
263
176
219
275
255
221
162
72
21
-8
-47
-54
-55
-105
-146
-135
-126
-117
-97
-117
-134
-67
-12
-66
-127
-115
-111
-135
-107
-29
-14
-84
-115
-68
-52
-99
-115
-80
-62
-79
-103
-124
-109
-76
-183
-226
487
1662
1705
357
-617
-431
-87
-91
-85
-50
-124
-151
-82
-58
-78
-57
-16
-3
-3
-1
-17
-31
26
105
92
54
115
191
181
162
185
182
163
177
170
100
18
-42
-93
-128
-152
-174
-175
-153
-144
-151
-149
-144
-146
-147
-142
-141
-148
-159
-157
-136
-107
-89
-82
-85
-103
-130
-152
-160
-150
-145
-161
-157
-137
-161
-168
-179
-294
-19
1101
1896
1016
-484
-845
-374
-163
-204
-177
-158
-173
-162
-156
-160
-146
-130
-119
-104
-96
-91
-70
-46
-31
-9
17
30
45
73
90
101
137
184
198
175
142
103
64
35
5
-13
6
20
4
17
68
81
55
48
43
30
55
84
54
30
92
148
120
106
144
129
47
-7
2
52
77
39
20
36
30
26
-58
-95
627
1914
2041
560
-643
-525
-51
69
31
-43
-112
-100
-99
-152
-165
-128
-84
-73
-128
-183
-162
-124
-105
-65
-30
-27
-6
26
36
53
66
61
85
92
10
-72
-97
-154
-237
-249
-244
-292
-310
-265
-245
-254
-231
-198
-181
-162
-168
-227
-260
-212
-173
-189
-151
-66
-91
-173
-160
-146
-205
-188
-104
-101
-133
-140
-160
-134
-167
-293
225
1564
2043
730
-632
-647
-197
-114
-106
-63
-121
-134
-69
-65
-69
-17
0
-40
-51
-27
6
70
126
107
92
150
188
168
189
257
289
282
275
250
204
158
103
28
-55
-123
-134
-104
-122
-148
-95
-74
-137
-94
15
-53
-193
-151
-43
-58
-103
-60
12
31
-9
-99
-181
-158
-70
-53
-94
-108
-103
-116
-143
-112
-81
-203
20
1197
2208
1401
-323
-835
-281
-100
-293
-171
44
-57
-198
-76
46
-80
-167
-33
-6
-123
-34
137
89
36
104
80
42
127
158
139
221
281
247
250
251
154
11
-105
-143
-108
-101
-160
-208
-185
-121
-149
-282
-277
-91
-40
-182
-226
-143
-140
-191
-163
-134
-157
-94
6
-79
-229
-191
-126
-162
-127
-88
-191
-203
-78
-189
-383
234
1713
2382
1156
-444
-683
-173
-84
-207
-118
-63
-162
-177
-82
-74
-148
-148
-89
-73
-67
-21
2
-17
7
84
108
78
128
235
233
160
183
263
240
128
60
41
-39
-153
-175
-132
-148
-196
-191
-165
-165
-156
-141
-154
-138
-81
-96
-175
-178
-111
-75
-63
-53
-72
-94
-96
-110
-116
-95
-101
-121
-111
-118
-122
-121
-226
0
1122
2107
1398
-179
-682
-230
-37
-145
-120
-68
-107
-124
-98
-72
-57
-59
-58
-36
-20
-16
6
38
55
76
111
132
135
145
161
173
190
209
205
163
106
51
-14
-80
-117
-132
-146
-147
-129
-120
-128
-132
-126
-124
-123
-118
-123
-132
-122
-100
-70
-33
-28
-68
-99
-102
-109
-114
-112
-116
-104
-96
-119
-121
-191
-262
342
1600
1913
616
-586
-532
-129
-114
-163
-123
-132
-135
-101
-96
-104
-98
-87
-71
-57
-51
-34
-9
7
23
48
69
84
97
111
129
141
149
160
156
115
50
-13
-67
-110
-139
-157
-158
-141
-120
-121
-139
-141
-112
-84
-83
-94
-103
-105
-96
-71
-40
-33
-71
-122
-147
-146
-135
-129
-135
-122
-103
-110
-95
-142
-234
299
1604
2088
780
-646
-677
-151
-55
-113
-67
-68
-94
-77
-72
-73
-55
-47
-51
-41
-16
5
10
18
45
73
88
101
122
147
169
180
194
217
215
169
101
34
-30
-84
-119
-140
-145
-134
-126
-127
-124
-120
-127
-131
-126
-133
-144
-134
-110
-84
-59
-59
-93
-131
-153
-153
-142
-157
-167
-139
-154
-182
-149
-233
-149
871
2071
1558
-235
-1020
-512
-114
-134
-109
-62
-74
-42
-7
-14
-2
25
38
48
60
72
90
112
132
148
163
186
217
232
236
260
299
313
294
253
192
117
47
-14
-69
-109
-129
-135
-137
-137
-140
-147
-154
-160
-173
-190
-194
-188
-181
-155
-124
-141
-197
-234
-248
-251
-240
-236
-220
-198
-257
-319
-303
-405
-262
931
2218
1581
-316
-1031
-462
-126
-188
-145
-123
-204
-202
-157
-153
-141
-111
-92
-80
-78
-74
-42
-6
9
21
48
90
134
167
186
198
212
227
231
196
122
48
-10
-72
-127
-152
-153
-142
-124
-112
-116
-112
-87
-71
-69
-45
-16
-33
-51
-13
27
7
-41
-76
-75
-55
-81
-113
-75
-67
-115
-121
-220
-142
947
2368
2033
170
-760
-301
11
-152
-153
-53
-96
-145
-118
-76
-56
-69
-72
-33
-1
7
34
85
116
109
92
115
178
220
210
196
208
209
169
111
64
2
-85
-155
-183
-191
-203
-214
-184
-131
-145
-207
-211
-196
-229
-245
-207
-155
-104
-68
-75
-106
-131
-154
-167
-162
-162
-172
-167
-168
-181
-249
-378
9
1395
2434
1474
-309
-743
-211
-86
-217
-147
-116
-166
-115
-80
-141
-138
-52
-40
-99
-96
-40
-14
5
48
65
55
68
96
113
130
142
158
201
209
113
0
-44
-74
-133
-177
-180
-154
-128
-147
-182
-172
-144
-140
-144
-139
-131
-113
-84
-43
-10
-33
-97
-133
-129
-128
-147
-156
-131
-132
-176
-199
-312
-340
497
1874
1892
272
-817
-492
-68
-148
-202
-144
-159
-153
-117
-130
-143
-124
-113
-108
-97
-82
-62
-37
-18
-7
2
18
41
54
60
77
