# session 37
-33
-34
-34
-34
-35
-35
-35
-36
-30
-26
-44
-75
-90
-92
-93
-93
-93
-98
-101
-90
-56
-16
-3
-31
-65
-80
-88
-91
-81
-88
-96
-71
-75
-103
-87
-161
-114
749
1914
1650
27
-920
-577
-129
-86
-89
-61
-77
-67
-41
-43
-41
-26
-18
-8
9
23
39
58
75
93
114
138
162
180
191
198
205
218
230
221
181
123
62
-1
-57
-96
-120
-135
-141
-139
-132
-126
-123
-119
-115
-113
-112
-110
-110
-111
-112
-113
-115
-116
-116
-119
-121
-117
-115
-122
-131
-127
-101
-58
-22
-22
-58
-89
-96
-99
-97
-87
-93
-94
-73
-85
-107
-141
-253
45
1254
2221
1410
-213
-677
-207
-39
-155
-139
-114
-143
-123
-103
-109
-95
-79
-75
-63
-48
-38
-23
-5
9
27
49
70
93
114
129
138
150
166
173
155
112
58
3
-48
-87
-112
-125
-132
-136
-137
-134
-128
-123
-117
-113
-107
-99
-93
-92
-90
-86
-82
-78
-77
-76
-71
-66
-74
-85
-82
-60
-21
19
27
-11
-61
-84
-82
-69
-60
-68
-72
-60
-74
-94
-126
-245
-24
1093
2151
1556
-32
-644
-237
-9
-102
-113
-92
-108
-89
-74
-87
-89
-85
-74
-50
-36
-38
-28
1
30
48
62
80
94
107
131
149
145
149
168
160
116
63
-1
-63
-98
-119
-145
-160
-155
-144
-138
-135
-132
-128
-122
-116
-112
-106
-96
-86
-82
-80
-76
-71
-69
-72
-70
-63
-67
-82
-85
-69
-41
-5
14
-14
-57
-72
-77
-84
-76
-75
-88
-71
-65
-92
-82
-155
-206
474
1694
1792
380
-722
-564
-132
-82
-108
-79
-90
-96
-76
-72
-68
-54
-46
-35
-19
-8
3
20
40
59
78
97
121
147
161
166
173
189
207
211
184
126
57
-2
-50
-91
-118
-129
-135
-139
-137
-128
-122
-117
-113
-111
-111
-109
-104
-97
-95
-98
-98
-94
-91
-93
-89
-86
-92
-100
-94
-64
-24
0
-15
-52
-75
-81
-85
-81
-80
-89
-75
-69
-99
-91
-130
-234
264
1547
2066
811
-639
-737
-206
-60
-112
-84
-81
-96
-72
-59
-57
-44
-36
-28
-10
4
14
31
49
65
84
107
127
144
163
178
184
190
202
204
174
122
63
1
-55
-93
-121
-143
-151
-146
-142
-139
-134
-132
-130
-125
-121
-120
-117
-114
-114
-115
-113
-111
-112
-113
-112
-110
-114
-123
-122
-104
-69
-29
-14
-43
-84
-98
-98
-103
-96
-92
-93
-72
-72
-101
-105
-191
-181
649
1941
1904
332
-728
-449
-42
-91
-137
-88
-106
-111
-77
-72
-71
-54
-45
-38
-22
-8
4
19
37
57
78
98
117
135
148
156
164
176
188
183
149
95
38
-15
-60
-93
-113
-127
-135
-134
-131
-128
-123
-117
-114
-113
-110
-106
-103
-98
-92
-90
-89
-88
-87
-84
-79
-81
-91
-98
-87
-58
-18
9
0
-39
-69
-77
-82
-79
-72
-83
-87
-66
-81
-104
-125
-239
-7
1116
2088
1367
-219
-723
-255
-32
-123
-113
-81
-103
-90
-71
-74
-62
-45
-42
-35
-18
-4
8
24
44
62
79
102
128
144
150
158
174
190
195
175
133
80
22
-33
-79
-110
-127
-132
-135
-136
-136
-132
-128
-122
-117
-116
-116
-113
-110
-109
-108
-108
-109
-109
-107
-106
-104
-101
-99
-100
-107
-113
-98
-57
-13
-6
-43
-80
-85
-83
-87
-84
-89
-92
-68
-75
-101
-100
-203
-127
850
2064
1694
-20
-901
-484
-80
-105
-112
-74
-95
-88
-63
-69
-64
-41
-30
-22
-5
12
24
33
51
77
99
115
133
153
169
178
186
203
221
213
172
116
57
-3
-55
-87
-105
-119
-126
-128
-126
-115
-100
-98
-104
-101
-98
-98
-93
-88
-94
-102
-101
-97
-93
-90
-91
-94
-95
-92
-93
-101
-109
-97
-61
-21
2
-11
-48
-73
-76
-77
-73
-71
-82
-73
-57
-84
-102
-165
-255
298
1669
2233
928
-550
-596
-85
-55
-159
-110
-112
-140
-105
-88
-97
-83
-70
-66
-56
-44
-34
-19
-1
20
42
60
75
93
111
123
131
143
160
168
150
102
45
-7
-55
-96
-119
-126
-131
-130
-124
-122
-122
-118
-114
-112
-107
-102
-102
-103
-101
-100
-98
-95
-92
-89
-88
-88
-87
-81
-77
-80
-87
-83
-57
-13
22
19
-16
-46
-57
-64
-64
-53
-60
-66
-46
-59
-84
-103
-213
-15
1075
2110
1468
-146
-711
-242
-13
-126
-125
-93
-122
-107
-81
-87
-79
-63
-56
-44
-27
-15
-2
16
34
52
71
92
113
127
137
144
148
158
173
169
133
83
35
-16
-64
-98
-116
-122
-120
-113
-109
-108
-104
-98
-97
-100
-101
-100
-100
-106
-110
-105
-96
-96
-102
-104
-103
-100
-95
-93
-96
-100
-103
-99
-67
-20
0
-27
-64
-81
-87
-82
-67
-75
-90
-66
-66
-102
-95
-168
-164
637
1867
1765
177
-857
-544
-80
-68
-101
-67
-79
-76
-51
-51
-46
-30
-20
-8
5
16
32
55
71
86
105
124
142
158
168
172
179
189
201
202
172
116
58
3
-50
-92
-117
-129
-132
-128
-122
-119
-116
-112
-106
-105
-111
-114
-112
-112
-115
-115
-109
-106
-107
-107
-103
-101
-103
-111
-118
-110
-79
-33
-4
-18
-59
-83
-88
-94
-90
-85
-94
-83
-69
-93
-101
-160
-229
365
1691
2104
735
-642
-599
-90
-63
-153
-105
-106
-126
-96
-86
-89
-70
-58
-54
-40
-25
-14
2
21
37
54
78
99
111
119
129
137
144
159
165
144
100
48
-5
-50
-81
-104
-119
-121
-115
-109
-105
-99
-95
-94
-94
-94
-95
-96
-96
-94
-94
-98
-99
-96
-95
-95
-91
-92
-102
-106
-91
-60
-19
5
-14
-54
-76
-83
-88
-78
-76
-88
-72
-66
-94
-92
-162
-197
508
1779
1905
435
-713
-506
-51
-60
-120
-76
-88
-99
-72
-69
-68
-47
-37
-32
-20
-7
6
23
37
52
73
93
108
121
132
142
150
161
175
176
148
98
44
-5
-50
-85
-105
-113
-117
-117
-114
-107
-99
-96
-98
-97
-91
-90
-94
-98
-97
-94
-94
-98
-99
-95
-92
-95
-94
-91
-97
-105
-98
-77
-45
-7
3
-29
-67
-80
-86
-84
-76
-84
-82
-61
-80
-96
-96
-192
32
1110
2019
1242
-382
-891
-370
-56
-92
-83
-61
-83
-71
-52
-55
-46
-30
-22
-11
2
15
30
46
61
81
101
114
125
138
149
152
154
167
183
177
138
86
36
-14
-64
-97
-112
-118
-120
-113
-102
-99
-98
-95
-93
-94
-95
-96
-96
-96
-94
-94
-95
-96
-96
-95
-96
-98
-96
-90
-95
-108
-106
-82
-46
-10
-1
-34
-70
-80
-83
-83
-76
-84
-84
-63
-77
-94
-120
-232
56
1230
2123
1261
-319
-692
-176
-9
-130
-111
-83
-112
-94
-74
-79
-65
-49
-48
-37
-21
-10
4
21
36
53
72
89
101
112
119
121
123
136
150
145
109
60
13
-33
-72
-100
-113
-116
-115
-112
-105
-98
-95
-94
-92
-92
-91
-92
-94
-94
-93
-92
-93
-92
-93
-95
-96
-96
-96
-98
-104
-107
-94
-59
-15
2
-27
-68
-80
-82
-87
-81
-83
-88
-69
-73
-94
-88
-181
-104
822
1968
1614
6
-798
-392
-34
-82
-99
-69
-94
-87
-60
-57
-45
-32
-31
-20
0
15
32
49
63
81
103
117
125
138
151
151
150
164
184
179
142
89
33
-25
-74
-105
-126
-141
-141
-131
-123
-119
-115
-113
-109
-106
-108
-110
-107
-106
-106
-102
-101
-104
-104
-102
-99
-92
-88
-96
-105
-103
-83
-43
-7
-12
-48
-69
-75
-85
-81
-77
-97
-92
-69
-94
-96
-107
-188
255
1509
2081
805
-763
-884
-265
-63
-111
-78
-70
-83
-56
-44
-48
-33
-19
-12
2
18
32
49
65
83
105
123
135
148
164
171
169
173
191
204
183
135
78
20
-33
-77
-106
-122
-128
-128
-122
-110
-103
-100
-98
-95
-91
-88
-90
-94
-92
-87
-86
-89
-94
-95
-93
-94
-95
-92
-95
-109
-115
-96
-57
-20
-16
-49
-82
-93
-98
-96
-89
-99
-102
-80
-90
-112
-142
-245
59
1277
2248
1397
-279
-725
-195
-18
-157
-136
-100
-134
-117
-93
-100
-86
-65
-63
-54
-37
-24
-10
6
21
41
61
78
90
101
108
111
115
129
143
133
94
44
-6
-53
-91
-114
-129
-138
-137
-131
-123
-116
-112
-112
-109
-105
-102
-101
-100
-99
-96
-92
-92
-93
-92
-92
-92
-90
-94
-103
-102
-80
-42
-3
8
-23
-59
-69
-74
-76
-65
-68
-71
-49
-58
-83
-96
-201
-11
1096
2181
1535
-158
-757
-243
15
-107
-104
-63
-97
-87
-58
-63
-54
-36
-31
-23
-9
2
16
33
49
66
86
103
117
130
137
139
145
160
171
160
120
65
10
-40
-83
-110
-124
-130
-130
-125
-118
-114
-111
-108
-105
-104
-102
-100
-99
-97
-97
-96
-96
-96
-95
-95
-95
-95
-93
-93
-91
-87
-88
-97
-99
-82
-45
-6
3
-30
-66
-79
-84
-82
-77
-86
-82
-62
-80
-95
-118
-229
76
1256
2096
1175
-395
-725
-192
-15
-118
-96
-75
-106
-87
-63
-64
-50
-36
-36
-27
-11
0
12
26
42
60
82
100
111
121
130
133
139
158
175
166
129
82
31
-21
-64
-92
-109
-115
-113
-108
-102
-95
-92
-93
-93
-93
-96
-97
-95
-94
-94
-93
-92
-92
-92
-92
-92
-91
-89
-86
-83
-81
-83
-88
-90
-80
-50
-8
11
-13
-51
-69
-74
-72
-63
-74
-81
-56
-62
-84
-74
-158
-40
919
1981
1479
-170
-917
-462
-67
-78
-82
-56
-78
-69
-45
-47
-38
-19
-11
-3
11
25
40
57
73
90
108
125
142
155
161
162
165
176
188
183
149
95
37
-20
-71
-108
-130
-141
-142
-134
-127
-124
-121
-116
-112
-109
-108
-108
-107
-105
-104
-104
-105
-106
-107
-106
-104
-107
-110
-107
-101
-107
-118
-113
-86
-46
-15
-19
-56
-82
-88
-91
-86
-82
-92
-81
-65
-86
-92
-149
-213
385
1708
2114
748
-612
-554
-56
-48
-142
-90
-92
-115
-85
-75
-77
-59
-48
-45
-30
-15
-4
12
29
45
64
84
99
111
121
128
130
137
153
162
141
95
42
-7
-51
-84
-105
-116
-121
-119
-111
-104
-102
-100
-95
-92
-89
-85
-84
-85
-85
-85
-84
-82
-80
-83
-85
-83
-84
-85
-81
-81
-90
-95
-81
-49
-7
14
-12
-54
-70
-73
-75
-68
-72
-79
-60
-67
-91
-92
-189
-86
885
2020
1596
-37
-788
-343
-10
-94
-111
-72
-100
-96
-69
-72
-67
-49
-42
-34
-21
-9
3
20
37
55
74
93
111
124
130
135
141
151
163
160
127
76
22
-28
-74
-107
-126
-132
-129
-121
-116
-113
-110
-108
-105
-100
-97
-95
-93
-94
-98
-98
-94
-94
-96
-97
-95
-91
-91
-94
-93
-88
-89
-96
-95
-74
-32
2
-11
-56
-83
-89
-91
-82
-82
-90
-75
-75
-98
-81
-146
-158
582
1793
1767
239
-836
-569
-95
-67
-102
-64
-76
-77
-49
-45
-44
-30
-21
-9
8
19
31
48
66
84
106
125
140
152
160
165
172
183
194
195
173
123
66
14
-35
-71
-83
-89
-113
-126
-107
-84
-76
-75
-93
-121
-131
-120
-109
-103
-96
-87
-81
-84
-95
-113
-124
-109
-82
-78
-93
-104
-103
-74
-21
8
-17
-55
-70
-74
-75
-68
-75
-86
-69
-68
-81
-57
-133
-107
741
1957
1765
119
-879
-505
-44
-70
-105
-51
-68
-76
-57
-72
-68
-23
-9
-19
1
30
32
35
57
81
101
118
122
126
144
159
159
160
172
178
157
103
23
-55
-89
-89
-92
-113
-152
-177
-143
-102
-118
-129
-101
-102
-124
-109
-100
-135
-149
-114
-84
-94
-130
-155
-138
-112
-122
-135
-116
-102
-101
-71
-40
-57
-83
-92
-126
-158
-134
-110
-122
-113
-117
-143
-134
-216
-203
628
1832
1637
25
-906
-504
-73
-128
-168
-124
-143
-117
-59
-86
-125
-92
-53
-53
-47
-15
4
3
18
58
78
71
92
139
139
112
153
233
227
145
91
49
-11
-28
-33
-93
-131
-118
-136
-139
-85
-78
-120
-107
-78
-89
-84
-62
-76
-95
-80
-60
-65
-90
-96
-62
-38
-71
-106
-86
-47
-21
7
28
12
-29
-51
-51
-53
-62
-69
-53
-33
-50
-49
-68
-218
68
1391
2448
1478
-413
-921
-263
54
-73
-110
-70
-36
3
-9
-2
82
102
43
57
118
117
108
154
206
239
266
280
306
359
380
335
306
349
390
356
283
223
161
85
35
26
2
-48
-67
-43
-24
-25
-26
-23
-21
-21
-21
-19
-27
-34
-11
7
-43
-118
-118
-80
-99
-116
-48
-11
-80
-106
-42
-41
-108
-124
-123
-154
-155
-144
-158
-146
-152
-196
-184
-237
-180
802
2196
1879
-159
-1340
-852
-283
-290
-323
-283
-313
-315
-292
-304
-300
-275
-279
-292
-277
-258
-258
-252
-225
-198
-181
-162
-142
-124
-111
-112
-104
-66
-45
-81
-144
-201
-264
-336
-389
-405
-416
-457
-495
-493
-469
-451
-434
-416
-401
-393
-395
-398
-389
-369
-354
-353
-358
-354
-341
-333
-330
-314
-285
-248
-196
-163
-196
-248
-252
-232
-220
-202
-187
-165
-126
-139
-170
-145
-197
3
1193
2495
1867
-169
-1020
-383
58
-26
5
90
47
48
109
125
137
204
284
319
326
352
380
378
383
439
516
564
586
621
679
721
710
696
730
750
698
624
573
527
490
466
439
423
438
459
466
470
477
480
480
481
484
482
476
477
482
473
452
439
431
411
381
363
364
379
409
414
350
264
214
179
149
137
102
52
43
13
-51
-109
-255
-82
1150
2439
1705
-387
-1204
-597
-297
-507
-544
-516
-604
-645
-653
-695
-720
-744
-785
-802
-815
-851
-877
-887
-903
-918
-923
-924
-927
-934
-945
-958
-964
-958
-962
-993
