# session 6
-16
-25
17
-17
-182
-318
-330
-319
-341
-342
-309
-286
-273
-240
-217
-243
-278
-281
-280
-257
-203
-217
-267
-311
-557
-661
234
1402
993
-544
-1051
-421
-76
-179
-169
-104
-121
-109
-81
-74
-39
0
8
32
78
85
55
48
63
55
50
92
128
95
49
44
30
-10
-16
-7
-44
-74
-37
0
5
23
26
-21
-66
-75
-47
22
30
-43
-45
-133
-390
10
1262
1602
179
-1081
-824
-150
-1
-13
56
68
47
42
40
72
124
137
132
171
228
206
116
89
136
152
159
215
207
86
0
5
-6
-55
-78
-70
-70
-66
-43
-26
-29
-32
-37
-60
-97
-111
-73
-48
-92
-184
-408
-546
204
1563
1664
181
-798
-440
-40
-127
-152
-70
-71
-52
-22
-41
-40
-27
-42
-16
53
68
34
14
-20
-79
-74
0
33
9
1
-12
-65
-86
-50
-43
-79
-90
-66
-36
-8
-6
-37
-56
-69
-105
-97
-45
-51
-91
-232
-543
-303
977
1773
694
-751
-764
-130
-13
-112
-76
-68
-71
-35
-27
-7
29
17
19
73
99
92
101
85
23
-6
35
80
74
28
-21
-39
-35
-57
-98
-110
-100
-101
-92
-47
-6
-21
-71
-96
-100
-115
-98
-71
-101
-122
-246
-570
-314
1004
1758
592
-841
-779
-128
-26
-105
-47
-49
-76
-47
-33
-13
31
36
23
46
86
107
108
89
50
18
28
57
45
6
-8
-11
-27
-45
-73
-96
-67
-15
-17
-48
-30
5
-11
-42
-49
-55
-43
-49
-110
-119
-204
-504
-211
1103
1705
348
-1132
-992
-223
-18
-66
-13
8
2
29
44
50
88
145
179
172
165
186
198
178
160
169
178
167
150
107
11
-69
-68
-53
-74
-82
-63
-44
-29
-33
-51
-37
-17
-43
-79
-100
-113
-104
-114
-142
-179
-403
-491
440
1738
1386
-350
-1088
-477
-73
-168
-135
-46
-84
-74
-17
-21
-26
-1
16
52
104
109
86
88
89
67
65
93
99
62
11
-36
-75
-97
-102
-105
-107
-97
-72
-44
-26
-32
-58
-77
-91
-114
-112
-91
-109
-127
-234
-520
-298
975
1873
891
-632
-780
-168
-33
-140
-82
-48
-70
-45
-41
-54
-15
32
38
36
60
87
74
27
-1
4
20
45
63
42
-3
-44
-80
-96
-86
-93
-123
-114
-60
-22
-25
-37
-42
-38
-47
-74
-71
-48
-68
-101
-240
-512
-189
1118
1850
730
-680
-678
-98
-44
-149
-81
-64
-93
-63
-40
-36
-16
-2
10
39
63
62
40
11
-15
-20
10
53
54
20
-11
-42
-68
-61
-49
-65
-80
-81
-86
-61
-8
-1
-45
-61
-65
-116
-125
-73
-92
-123
-156
-413
-331
868
1887
925
-772
-982
-252
-24
-108
-33
-5
-49
-19
18
24
44
62
71
89
104
121
136
125
97
93
119
138
124
99
70
20
-19
-21
-27
-37
-26
-24
-45
-45
-22
-5
-3
-30
-57
-55
-63
-76
-58
-72
-93
-122
-375
-453
504
1659
1118
-543
-1087
-455
-78
-112
-63
-14
-53
-44
-14
-9
16
48
64
88
111
118
118
106
73
48
65
99
99
57
8
-34
-75
-106
-119
-114
-100
-98
-102
-80
-50
-46
-59
-79
-101
-115
-119
-99
-87
-124
-161
-293
-549
-195
1080
1683
493
-829
-730
-145
-72
-121
-54
-81
-109
-51
-26
-24
13
40
57
102
136
114
75
54
36
22
41
70
61
23
-10
-35
-52
-57
-52
-43
-48
-66
-59
-23
-6
-7
0
-4
-29
-65
-99
-88
-68
-102
-105
-196
-510
-250
1074
1773
491
-1033
-982
-256
-39
-48
21
16
-5
39
62
57
82
118
139
158
185
193
173
155
150
151
166
175
145
89
30
-29
-75
-97
-105
-94
-79
-98
-125
-107
-67
-46
-42
-54
-84
-113
-130
-119
-91
-115
-146
-176
-410
-450
569
1808
1299
-415
-1000
-368
-37
-154
-141
-90
-118
-85
-36
-34
-16
16
30
51
82
92
81
60
52
70
95
102
89
57
13
-25
-47
-65
-83
-87
-82
-87
-91
-76
-51
-34
-33
-64
-118
-141
-115
-70
-61
-106
-129
-216
-521
-405
849
1963
1166
-466
-816
-240
-46
-144
-148
-174
-143
3
41
-31
-17
64
111
125
138
153
161
146
114
94
97
110
104
57
-9
-63
-104
-126
-122
-105
-102
-117
-132
-126
-106
-85
-67
-64
-83
-99
-115
-130
-108
-90
-116
-135
-306
-557
23
1467
1827
350
-879
-616
-93
-99
-135
-55
-62
-71
-42
-46
-37
5
28
44
76
106
115
101
71
45
43
64
83
61
5
-35
-56
-85
-109
-102
-85
-86
-89
-76
-61
-51
-33
-20
-39
-60
-63
-80
-85
-58
-80
-118
-170
-431
-433
662
1856
1224
-466
-933
-291
-5
-106
-68
-22
-59
-38
1
5
21
46
73
119
153
155
145
132
112
99
107
121
114
72
15
-24
-47
-71
-90
-90
-80
-84
-95
-88
-64
-43
-31
-39
-71
-92
-99
-112
-101
-86
-121
-139
-229
-518
-319
901
1724
752
-665
-776
-207
-65
-138
-94
-74
-85
-55
-43
-38
-4
28
47
76
108
124
123
106
80
70
83
89
68
31
-13
-58
-91
-100
-94
-84
-82
-85
-83
-75
-67
-52
-28
-22
-51
-75
-81
-109
-120
-87
-98
-130
-196
-474
-444
676
1769
1020
-640
-1036
-393
-83
-117
-68
-49
-72
-24
11
6
29
61
83
125
179
210
214
204
189
181
189
197
171
111
50
-4
-58
-91
-86
-74
-74
-71
-73
-84
-76
-47
-37
-50
-59
-64
-78
-106
-119
-87
-79
-111
-126
-305
-490
246
1682
1769
95
-1056
-669
-116
-98
-112
-49
-68
-68
-33
-33
-25
8
34
63
98
122
141
149
130
104
99
107
98
56
-2
-51
-90
-133
-163
-164
-151
-146
-142
-123
-93
-69
-55
-47
-59
-88
-105
-121
-133
-114
-119
-152
-193
-401
-447
532
1903
1642
-84
-931
-430
-54
-154
-154
-88
-116
-106
-70
-75
-54
-8
16
40
79
107
116
114
101
88
95
107
80
15
-33
-52
-82
-118
-126
-118
-118
-122
-129
-133
-115
-76
-40
-18
-25
-58
-71
-66
-85
-94
-78
-97
-124
-238
-478
-122
1229
2013
918
-548
-662
-152
-79
-158
-96
-79
-94
-61
-45
-41
-8
23
46
81
115
139
150
133
106
103
115
100
57
11
-31
-72
-107
-127
-125
-117
-119
-118
-111
-120
-124
-96
-70
-65
-57
-58
-84
-104
-119
-125
-102
-114
-147
-172
-403
-516
438
1797
1472
-284
-1074
-514
-89
-121
-94
-39
-54
-28
-1
-7
26
69
82
122
184
207
204
221
235
226
218
218
191
124
53
-4
-58
-102
-119
-117
-112
-103
-92
-94
-107
-107
-91
-82
-73
-60
-76
-108
-113
-118
-136
-123
-124
-152
-178
-374
-455
485
1897
1687
-114
-1082
-579
-105
-148
-151
-86
-107
-100
-65
-60
-42
-11
9
42
86
114
131
138
125
107
107
116
99
49
-10
-59
-99
-125
-135
-138
-136
-129
-118
-109
-104
-92
-71
-47
-27
-31
-64
-88
-88
-96
-95
-80
-96
-116
-202
-384
-7
1316
2096
970
-582
-704
-128
-56
-173
-95
-69
-109
-79
-52
-52
-28
0
17
42
69
90
100
93
72
58
63
66
40
-15
-65
-92
-110
-131
-141
-127
-114
-123
-136
-128
-122
-136
-136
-100
-59
-41
-40
-48
-58
-75
-107
-111
-76
-85
-121
-162
-367
-345
695
1940
1510
-138
-808
-320
-34
-132
-107
-47
-74
-64
-38
-47
-22
25
46
71
115
145
151
144
128
115
116
116
92
36
-26
-64
-91
-126
-141
-124
-114
-112
-93
-79
-97
-117
-121
-118
-107
-78
-48
-38
-50
-73
-85
-90
-109
-110
-77
-84
-114
-166
-371
-318
668
1739
1287
-129
-654
-259
-53
-125
-99
-59
-74
-57
-37
-40
-19
16
39
67
103
129
142
140
121
101
100
104
86
42
-10
-53
-87
-112
-122
-115
-106
-109
-111
-106
-105
-108
-108
-115
-125
-120
-100
-82
-69
-65
-82
-104
-107
-111
-114
-87
-84
-109
-127
-317
-443
371
1704
1610
0
-935
-515
-62
-73
-73
-24
-49
-37
6
10
23
54
75
105
148
184
212
219
198
183
193
197
172
118
52
0
-42
-91
-123
-119
-110
-111
-104
-91
-91
-93
-93
-107
-129
-135
-126
-118
-105
-83
-85
-118
-129
-121
-132
-123
-109
-143
-146
-228
-472
-71
1362
2057
725
-839
-859
-240
-101
-141
-83
-83
-87
-38
-30
-33
9
47
68
105
148
179
201
205
189
175
174
165
127
66
3
-56
-111
-148
-157
-147
-132
-121
-112
-106
-103
-105
-114
-120
-107
-85
-74
-68
-69
-93
-112
-114
-123
-111
-84
-105
-126
-208
-395
30
1438
2175
898
-713
-783
-162
-76
-184
-106
-75
-110
-87
-63
-60
-40
-6
36
75
97
114
133
137
123
105
95
91
64
1
-54
-80
-109
-142
-151
-144
-143
-143
-136
-127
-118
-115
-115
-110
-96
-75
-54
-41
-46
-59
-56
-69
-114
-132
-129
-147
-172
-320
-401
425
1895
2011
359
-812
-486
-38
-127
-170
-78
-90
-99
-53
-36
-29
-4
15
37
78
117
135
142
147
138
122
114
91
36
-21
-58
-90
-125
-151
-162
-160
-149
-136
-137
-144
-138
-128
-132
-133
-120
-107
-91
-61
-53
-83
-111
-124
-131
-104
-83
-117
-129
-229
-486
-112
1312
2097
869
-703
-769
-154
-42
-126
-61
-38
-54
-27
-20
-17
17
45
69
106
145
184
209
200
186
188
188
171
131
66
2
-45
-88
-123
-125
-106
-97
-101
-103
-101
-96
-90
-98
-123
-131
-110
-87
-71
-59
-74
-105
-109
-108
-108
-88
-103
-130
-131
-330
-462
402
1722
1488
-190
-1030
-532
-87
-97
-83
-35
-52
-36
-6
1
24
53
73
107
151
190
211
208
203
205
194
177
161
125
62
-3
-56
-96
-122
-133
-118
-89
-78
-89
-96
-91
-92
-109
-124
-113
-90
-78
-74
-72
-89
-110
-111
-101
-79
-71
-106
-110
-151
-392
-275
821
1734
930
-592
-925
-330
-15
-49
-72
-85
-95
-73
-60
-39
4
37
67
106
131
157
199
212
177
148
143
125
95
73
30
-27
-63
-99
-146
-154
-121
-90
-77
-70
-73
-86
-90
-58
-35
-76
-115
-81
-53
-101
-158
-153
-95
-56
-78
-109
-109
-85
-69
-215
-320
430
1787
1849
114
-1320
-1175
-495
-201
-102
-62
-161
-217
-96
21
53
103
112
84
198
342
332
335
409
408
417
442
295
81
-13
-81
-162
-201
-295
-391
-271
-137
-323
-509
-278
10
-44
-131
-38
-25
-70
36
94
-53
-130
-24
12
-70
-57
9
-84
-197
-161
-259
-277
685
1993
1597
-306
-1308
-814
-241
-120
-78
-106
-190
-88
107
148
138
246
316
196
72
130
246
277
293
353
362
257
98
-4
0
39
-5
-142
-252
-262
-215
-130
-15
-11
-121
-116
-20
-59
-140
-99
-70
-115
-104
-84
-144
-156
-106
-160
-249
-203
-138
-232
-493
-471
660
2281
2147
127
-1147
-756
-224
-171
-153
-160
-181
-115
-160
-253
-143
-9
-27
-10
50
-2
-12
148
257
208
152
122
61
12
-1
-28
-68
-94
-112
-114
-85
-62
-74
-68
-11
-13
-153
-250
-163
-96
-178
-190
-80
-80
-191
-241
-251
-306
-381
-332
-111
-106
-402
73
1707
2514
1092
-719
-955
-352
-125
-128
-42
5
-28
-75
-94
-23
94
143
137
147
165
182
206
203
193
249
287
193
67
21
4
-39
-113
-181
-155
-80
-81
-122
-115
-87
-68
-82
-142
-176
-160
-148
-109
-18
26
-15
-66
-88
-131
-190
-168
-189
-346
36
1332
2015
794
-799
-931
-302
-99
-94
17
19
-38
-12
-1
26
100
42
-84
-36
45
2
58
172
61
-33
127
144
-79
-51
178
111
-142
-223
-239
-297
-258
-175
-202
-258
-245
-203
-166
-138
-121
-86
-70
-156
-267
-263
-192
-157
-129
-84
-50
-98
-358
-345
911
2622
2392
253
-1066
-691
-134
-33
-10
-63
-154
-80
8
4
97
259
228
71
127
365
381
152
74
187
211
162
153
93
5
8
15
-81
-199
-250
-250
-214
-148
-137
-193
-163
-110
-244
-345
-191
-192
-473
-457
-180
-268
-513
-391
-170
-140
-237
-481
-193
1374
2622
1475
-678
-1228
-540
-228
-309
-261
-167
-116
-75
-75
-69
-22
-3
6
80
170
206
233
282
290
258
287
352
328
255
198
28
-260
-394
-270
-104
-75
-143
-177
-125
-59
-8
73
115
53
13
28
-30
-118
-129
-124
-178
-244
-233
-236
-335
50
1320
2136
1110
-559
-974
-436
-130
-153
-185
-224
-219
-101
-28
-88
-104
-17
3
-45
-3
88
127
172
216
182
156
190
122
-54
-91
5
-22
-149
-198
-218
-255
-210
-149
-186
-199
-122
-96
-141
-113
-14
28
-29
-88
-83
-66
-44
-8
-50
-92
-59
-117
260
1705
2623
1142
-1029
-1317
-422
8
69
134
68
-16
21
94
178
222
114
-51
-50
101
167
107
123
236
264
203
177
151
57
-45
-103
-172
-259
-284
-239
-207
-215
-259
-319
-320
-262
-241
-251
-268
-368
-489
-475
-426
-482
-509
-421
-308
-267
-492
-679
298
2140
2405
486
-1076
-935
-377
-248
-206
-140
-134
-119
-105
-90
-24
28
19
6
28
117
257
326
303
320
372
359
321
296
199
73
26
-13
-102
-133
-86
-68
-89
-90
-50
58
186
204
142
144
174
126
50
0
-55
-122
-167
-156
-190
-240
367
1765
2246
745
-864
-863
-239
-112
-111
-22
-131
-248
-154
-131
-266
-241
-49
0
-76
-66
-14
-27
-28
57
166
197
145
56
-103
-245
-176
-52
-165
-307
-216
-114
-142
-136
-118
-196
-263
-206
-92
-72
-160
-183
-136
-199
-281
-220
-220
-335
-257
-177
-357
173
1915
2816
1350
-517
-771
-302
-252
-291
-211
-220
-184
-54
-36
-86
-64
-33
-44
-29
35
