# session 1
41
-49
133
140
9
835
2245
1990
56
-996
-559
-182
-262
-244
-190
-234
-210
-147
-153
-162
-130
-109
-109
-92
-56
-27
-11
6
36
69
92
110
133
156
168
176
192
199
173
117
50
-12
-60
-101
-137
-154
-159
-165
-165
-156
-146
-134
-117
-108
-110
-117
-121
-120
-121
-123
-125
-126
-127
-129
-123
-117
-123
-131
-128
-135
-150
-142
-114
-84
-57
-49
-63
-76
-83
-79
-66
-77
-92
-70
-79
-120
-129
-215
-78
962
2132
1633
-104
-876
-403
-48
-110
-112
-70
-88
-74
-47
-47
-30
-4
4
17
40
59
77
100
122
144
164
182
198
208
212
212
219
235
239
209
149
82
22
-29
-76
-111
-125
-126
-131
-134
-125
-117
-119
-121
-115
-111
-110
-114
-121
-127
-128
-126
-125
-126
-125
-121
-122
-127
-118
-109
-125
-145
-131
-107
-87
-52
-29
-53
-81
-83
-79
-68
-63
-83
-67
-34
-69
-86
-132
-289
172
1660
2463
1157
-580
-799
-225
-64
-114
-70
-78
-103
-66
-52
-66
-53
-33
-27
-26
-17
9
34
40
50
79
101
113
137
161
166
164
179
200
192
145
82
24
-31
-85
-129
-153
-156
-150
-142
-137
-136
-128
-113
-112
-125
-125
-118
-118
-117
-117
-130
-137
-127
-120
-128
-136
-130
-128
-146
-151
-120
-90
-74
-58
-65
-98
-116
-112
-99
-90
-104
-108
-89
-104
-113
-162
-324
51
1463
2415
1320
-450
-806
-235
-42
-125
-88
-64
-89
-68
-45
-41
-29
-20
-13
4
21
35
49
68
96
118
131
146
162
173
183
187
194
209
200
149
86
24
-33
-75
-106
-133
-140
-133
-137
-142
-128
-116
-123
-134
-132
-130
-130
-124
-118
-121
-118
-113
-127
-143
-136
-127
-124
-112
-105
-117
-123
-115
-102
-72
-31
-19
-48
-73
-77
-84
-87
-73
-72
-73
-64
-78
-89
-147
-255
213
1565
2298
1111
-522
-743
-181
-38
-129
-85
-69
-98
-65
-37
-48
-44
-27
-15
-1
13
31
58
74
79
95
118
127
126
131
141
152
161
163
151
122
75
19
-32
-73
-109
-130
-124
-110
-114
-125
-119
-98
-84
-90
-108
-114
-103
-94
-101
-108
-99
-92
-106
-118
-107
-105
-120
-131
-137
-130
-101
-75
-55
-27
-29
-65
-83
-84
-96
-98
-101
-106
-80
-75
-111
-128
-233
-213
663
1940
1799
180
-811
-469
-51
-91
-127
-74
-79
-78
-51
-47
-44
-28
-15
-3
12
25
36
56
90
119
120
107
112
132
144
136
121
128
143
123
75
35
-1
-46
-83
-107
-119
-116
-106
-99
-94
-93
-91
-87
-90
-101
-100
-85
-80
-91
-94
-94
-105
-110
-93
-83
-92
-97
-101
-110
-106
-77
-38
-10
-11
-37
-68
-94
-102
-84
-76
-84
-68
-68
-98
-101
-188
-208
555
1800
1788
275
-761
-480
-50
-75
-117
-64
-72
-82
-52
-38
-39
-33
-20
-2
9
15
37
70
85
89
107
132
135
121
116
121
120
118
126
124
89
44
7
-42
-92
-109
-102
-107
-116
-111
-100
-92
-89
-96
-100
-95
-94
-98
-95
-98
-106
-104
-96
-95
-99
-103
-105
-107
-113
-115
-89
-38
0
-10
-52
-81
-94
-94
-83
-85
-92
-74
-79
-100
-87
-172
-167
600
1709
1554
110
-777
-484
-82
-66
-92
-66
-71
-63
-46
-47
-35
-13
-5
3
22
40
58
77
92
106
122
135
142
144
144
142
141
150
163
157
121
69
17
-34
-78
-100
-102
-106
-112
-105
-92
-95
-104
-103
-102
-108
-114
-113
-111
-114
-113
-110
-114
-113
-106
-109
-121
-121
-103
-69
-32
-24
-55
-85
-96
-100
-98
-99
-107
-88
-83
-114
-95
-146
-236
395
1739
2000
451
-941
-822
-231
-91
-102
-59
-71
-80
-50
-39
-34
-21
-13
2
25
38
53
77
96
109
123
134
143
150
150
141
141
157
169
154
114
63
9
-43
-85
-112
-125
-125
-117
-108
-101
-101
-106
-106
-102
-100
-100
-101
-104
-106
-108
-112
-113
-111
-120
-134
-128
-96
-53
-27
-41
-79
-101
-106
-104
-95
-102
-107
-81
-86
-113
-118
-235
-149
887
2144
1729
-24
-841
-361
-9
-110
-121
-66
-92
-84
-52
-54
-45
-20
-13
-6
12
29
43
59
75
89
101
111
115
109
96
85
86
102
114
98
57
13
-26
-66
-101
-122
-126
-121
-115
-110
-108
-110
-113
-116
-119
-119
-115
-116
-122
-121
-110
-106
-117
-126
-122
-104
-69
-27
-11
-40
-78
-98
-104
-98
-89
-97
-93
-83
-102
-99
-131
-251
129
1358
2064
999
-511
-736
-212
-52
-131
-109
-96
-104
-72
-59
-67
-51
-31
-24
-11
12
36
57
75
92
109
124
126
120
122
124
117
123
143
133
89
43
3
-43
-90
-124
-140
-136
-123
-119
-123
-117
-104
-100
-111
-119
-117
-112
-110
-112
-113
-108
-101
-106
-121
-121
-95
-51
-17
-26
-59
-80
-93
-90
-72
-89
-111
-76
-68
-98
-108
-220
-96
959
2098
1522
-240
-978
-471
-74
-88
-75
-51
-87
-73
-35
-36
-29
-1
10
12
35
70
90
100
113
131
141
141
145
161
167
163
167
174
168
148
109
45
-23
-70
-95
-109
-124
-129
-119
-110
-111
-113
-120
-119
-104
-102
-124
-145
-154
-158
-156
-156
-169
-178
-163
-123
-73
-50
-81
-125
-140
-140
-145
-159
-168
-140
-116
-131
-105
-161
-323
207
1645
2190
741
-817
-805
-179
-48
-106
-52
-35
-37
-13
-14
-5
33
42
46
77
93
90
106
136
161
183
191
175
161
161
145
125
142
166
129
56
19
13
-25
-100
-159
-179
-173
-151
-128
-138
-155
-120
-69
-86
-126
-112
-95
-117
-106
-82
-117
-130
-68
-62
-129
-105
-30
-93
-199
-157
-75
-86
-31
179
294
107
-151
-183
-188
-285
221
1434
1735
296
-1142
-1138
-522
-214
-74
-45
-142
-105
-31
-113
-42
218
191
-39
7
164
95
21
108
147
135
222
263
141
75
173
237
173
102
69
25
-30
-78
-107
-109
-146
-260
-355
-344
-269
-169
-74
-51
-70
-74
-118
-149
-36
53
-42
-78
54
59
-104
-135
-41
-63
-169
-212
-220
-242
-216
-99
-11
-120
-265
-172
-21
222
1202
2342
1812
-206
-1400
-1022
-361
-102
36
98
-34
-127
22
137
-23
-125
90
279
232
189
168
-12
-114
128
376
271
88
179
360
338
236
279
348
273
170
132
49
-65
-84
-13
79
102
-21
-162
-157
-122
-154
-107
4
-14
-78
-16
82
92
-18
-216
-252
7
145
-136
-411
-310
-129
-139
-212
-290
-384
-331
-165
-167
-332
-476
-499
-33
1046
1655
883
-270
-547
-348
-396
-452
-263
-103
-91
-53
0
-74
-153
-46
112
134
83
26
-42
-40
25
23
8
80
76
-88
-196
-146
-31
106
163
73
-13
-115
-354
-406
-78
142
-9
-131
-42
-7
-93
-109
-7
110
166
135
102
137
139
68
40
9
-105
-155
-89
-68
-98
-91
-101
-119
-86
-100
-165
-173
-204
-53
769
1631
1159
-307
-1050
-714
-282
-128
-22
9
-67
-87
-32
22
76
71
15
67
196
215
152
117
106
137
201
219
209
213
222
266
330
334
313
280
144
-14
-54
-58
-90
-68
-33
-80
-114
-55
-19
-50
-11
74
29
-103
-143
-106
-95
-112
-124
-124
-109
-63
-22
-63
-168
-191
-93
-32
-23
20
-133
-299
519
1962
1895
79
-1144
-853
-332
-227
-147
-29
-37
-96
-81
-42
-114
-232
-196
-73
-44
-23
48
14
-102
-106
-7
37
2
-31
-56
-100
-94
2
86
73
-28
-162
-244
-240
-225
-215
-158
-130
-204
-243
-150
-74
-108
-130
-84
-94
-163
-133
-2
32
-71
-106
12
77
-43
-155
-50
111
75
-34
-4
47
-21
-157
-81
787
2130
2180
468
-915
-723
-128
-39
-32
123
148
51
80
179
91
-126
-194
-103
-23
25
67
89
123
166
166
153
168
159
80
-27
-92
-94
-79
-89
-100
-112
-162
-223
-275
-369
-451
-422
-364
-355
-290
-155
-126
-226
-277
-226
-153
-72
8
18
-32
-78
-122
-130
-72
-54
-79
-17
6
-136
-229
-277
-220
723
2269
2348
573
-745
-540
-46
42
48
35
-38
-47
-43
-95
-86
18
76
31
18
95
123
77
119
237
264
217
223
270
313
344
292
143
39
27
-12
-92
-137
-164
-175
-134
-109
-133
-144
-138
-138
-161
-239
-285
-250
-254
-254
-176
-239
-435
-416
-298
-414
-517
-352
-239
-333
-381
-374
-393
-363
-435
-363
796
2453
2311
310
-947
-606
-165
-194
-140
-16
-67
-118
-55
-1
8
4
-44
-102
-89
-39
-4
78
184
202
184
248
331
298
207
228
317
284
183
203
272
203
44
-50
-48
-6
16
-4
-19
1
-8
-88
-168
-185
-160
-124
-102
-122
-155
-162
-155
-134
-109
-131
-155
-150
-231
-306
-210
-231
-195
891
2392
1976
-194
-1327
-745
-219
-352
-405
-210
-96
-130
-189
-203
-191
-167
-138
-109
-22
85
62
-9
53
146
172
228
271
208
155
179
199
209
210
151
61
-15
-86
-120
-109
-128
-179
-186
-147
-109
-87
-80
-87
-117
-150
-105
-25
-44
-94
-61
-74
-186
-223
-136
-38
-13
-54
-74
-155
-326
167
1667
2436
1064
-748
-983
-343
-123
-180
-131
-81
-51
-4
-53
-190
-204
-75
-50
-155
-149
-60
-62
-37
87
117
32
11
56
77
90
147
238
257
121
-51
-119
-172
-259
-219
-54
6
-68
-115
-138
-199
-214
-150
-108
-103
-84
-63
-50
-28
-41
-120
-189
-180
-112
-66
-85
-99
-60
-14
34
-54
-318
80
1664
2699
1466
-516
-963
-311
16
-63
-149
-200
-209
-156
-33
151
231
144
87
89
-13
-123
-75
1
-11
4
66
70
55
74
59
32
46
3
-103
-125
-125
-215
-258
-225
-268
-289
-188
-167
-225
-143
-66
-159
-213
-169
-192
-230
-210
-195
-156
-115
-170
-214
-135
-44
-62
-136
-167
-277
-409
307
2017
2683
1105
-644
-740
-205
-145
-180
-71
-80
-155
-113
-8
30
11
59
160
202
194
172
123
105
126
127
163
235
221
170
185
193
175
186
144
12
-133
-224
-140
96
178
24
-119
-193
-265
-272
-235
-228
-186
-108
-97
-127
-119
-108
-129
-162
-189
-211
-262
-321
-288
-237
-302
-354
-401
-458
279
1947
2535
973
-683
-845
-469
-384
-301
-226
-326
-404
-372
-314
-222
-109
-37
-19
-49
-90
-73
13
107
138
102
72
69
39
-7
-12
17
50
79
86
69
35
-5
-10
24
25
-10
5
54
37
-27
-42
-2
46
78
84
81
70
10
-23
54
107
78
110
145
54
-89
-303
-245
871
2271
1867
-56
-1039
-582
-138
-147
-156
-156
-217
-199
-123
-93
-102
-122
-122
-83
-67
-100
-100
-30
25
2
-54
-48
28
60
32
64
122
89
38
0
-115
-196
-117
-31
-42
-70
-102
-165
-202
-156
-71
-63
-123
-113
-68
-134
-224
-205
-148
-140
-156
-158
-143
-111
-67
-63
-86
-77
-202
-256
702
2385
2621
847
-669
-632
-154
-100
-181
-160
-101
-69
-90
-84
-11
28
41
112
161
84
-54
-132
-115
-68
-52
-44
-22
4
53
102
103
85
67
-6
-103
-136
-151
-216
-261
-231
-232
-291
-274
-190
-187
-220
-176
-156
-228
-264
-230
-225
-251
-240
-216
-245
-294
-300
-282
-203
-124
-223
48
1373
2439
1420
-511
-1008
-351
-13
-86
-144
-181
-172
-101
-72
-72
-54
-36
4
83
133
125
131
206
272
275
297
351
332
272
295
369
389
360
318
266
198
120
38
-38
-114
-168
-140
-28
66
38
-102
-254
-330
-309
-242
-210
-235
-245
-196
-179
-241
-272
-246
-267
-263
-190
-205
110
1363
2348
1227
-886
-1407
-550
-119
-203
-164
-159
-252
-237
-215
-217
-117
-44
-105
-165
-167
-113
40
155
96
33
105
168
143
143
197
253
308
298
149
-7
-43
-62
-131
-159
-143
-134
-95
-43
-37
-40
-26
-5
41
86
77
23
-70
-150
-116
-43
-72
-111
-88
-122
-167
-193
-261
270
1767
2553
1247
-444
-654
-216
-220
-317
-270
-297
-326
-271
-216
-150
-93
-96
-104
-96
-116
-110
-45
6
20
38
32
-16
-39
-3
56
120
149
93
-2
-89
-172
-188
-147
-194
-286
-239
-163
-234
-305
-259
-219
-197
-100
-17
-55
-129
-149
-149
-166
-150
-89
-87
-158
-201
-291
-223
796
2392
2515
757
-601
-448
-61
-135
-168
-92
-120
-115
-31
-9
-55
-116
-129
-41
28
-19
-42
23
65
90
132
118
107
200
268
207
106
24
-37
-63
-92
-144
-183
-198
-185
-150
-157
-201
-196
-156
-159
-186
-164
-88
-44
-89
-133
-120
-166
-264
-249
-174
-204
-272
-223
-121
-285
-533
227
2029
2659
1032
-699
-807
-297
-234
-320
-269
-179
-83
-61
-151
-197
-129
-42
17
50
48
34
20
-18
-40
3
52
55
64
104
140
184
223
205
163
153
133
72
28
24
15
-14
-25
-1
21
17
25
64
93
70
6
-43
-47
-67
-113
-89
-17
1
-26
-185
-306
396
1739
1889
324
-941
-751
-221
-151
-181
-148
-165
-149
-103
-121
-133
-106
-108
-99
-35
-12
-61
-73
-17
19
16
35
48
2
-36
-6
28
18
6
-5
-56
-138
-188
-181
-174
-205
-226
-203
-178
-178
-166
-122
-76
-57
-65
-101
-150
-166
-153
-188
-235
-197
-153
-165
-152
-233
-280
539
2020
2200
559
-786
-668
-201
-140
-126
-40
-41
-60
-21
7
-10
22
138
166
20
-79
7
98
71
57
141
193
139
97
135
157
107
41
17
31
21
-42
-102
-123
-142
-175
-197
-208
-207
-182
-156
-148
-146
-151
-175
-200
-205
-207
-229
-217
-148
-163
-258
-252
-328
-395
537
2172
2220
333
-936
-608
-176
-245
-244
-152
-150
-120
-104
-174
-180
-96
-55
-41
19
51
10
-25
-15
1
26
86
