# session 40
-11
-4
-22
-15
60
131
123
85
90
94
73
81
84
46
32
-52
-97
615
1933
2127
681
-523
-410
-7
-14
-68
-29
-39
-48
-28
-28
-27
-15
-10
-6
4
15
28
38
50
75
100
111
124
149
167
171
178
196
211
207
176
121
53
-10
-54
-89
-124
-145
-141
-132
-131
-130
-128
-135
-141
-132
-123
-130
-142
-138
-125
-126
-139
-148
-148
-143
-126
-90
-54
-49
-79
-113
-129
-137
-137
-122
-122
-136
-122
-127
-152
-147
-259
-258
672
2049
1936
257
-802
-510
-125
-160
-182
-135
-151
-150
-123
-116
-108
-95
-86
-76
-68
-56
-29
-6
7
24
49
74
101
126
141
157
183
207
216
205
166
107
45
-14
-69
-111
-134
-144
-146
-143
-137
-128
-121
-120
-120
-115
-112
-114
-116
-118
-118
-112
-110
-130
-148
-123
-69
-37
-32
-34
-50
-80
-103
-110
-101
-88
-98
-100
-74
-89
-109
-116
-265
-112
1083
2316
1709
-72
-790
-342
-65
-138
-127
-99
-125
-105
-80
-92
-87
-67
-60
-49
-31
-19
-8
12
34
50
68
93
121
142
157
169
185
205
217
201
158
98
37
-20
-69
-104
-119
-124
-128
-128
-119
-114
-118
-120
-112
-108
-113
-116
-110
-109
-115
-120
-118
-118
-125
-133
-125
-94
-51
-25
-40
-77
-96
-101
-105
-96
-91
-108
-100
-81
-105
-111
-172
-296
229
1647
2314
1068
-468
-626
-152
-78
-159
-121
-119
-136
-104
-91
-98
-85
-67
-55
-46
-37
-21
-2
12
29
50
70
88
110
135
151
161
174
191
197
176
127
68
10
-43
-83
-108
-121
-126
-127
-127
-127
-124
-124
-125
-121
-117
-116
-115
-113
-115
-118
-121
-123
-119
-115
-123
-132
-119
-84
-41
-17
-38
-80
-95
-92
-99
-98
-86
-92
-88
-81
-109
-113
-174
-286
243
1600
2169
923
-513
-612
-149
-80
-149
-110
-108
-120
-89
-80
-87
-73
-57
-48
-38
-27
-12
5
20
37
57
74
95
117
132
145
160
171
183
196
184
131
68
17
-31
-76
-107
-122
-123
-115
-113
-117
-115
-109
-106
-106
-106
-104
-103
-107
-110
-109
-111
-116
-113
-106
-110
-119
-116
-95
-62
-28
-18
-45
-78
-91
-98
-95
-78
-84
-93
-68
-74
-103
-103
-225
-187
766
1997
1710
127
-703
-366
-61
-111
-115
-80
-98
-87
-68
-75
-65
-46
-43
-34
-16
-5
6
21
36
55
78
99
117
131
138
151
170
187
197
192
160
108
52
-4
-55
-90
-108
-119
-124
-123
-120
-117
-110
-107
-108
-111
-113
-113
-113
-117
-118
-115
-117
-119
-111
-108
-123
-136
-121
-87
-50
-22
-27
-68
-95
-92
-92
-95
-90
-94
-87
-69
-95
-104
-126
-273
4
1199
2058
1174
-332
-673
-219
-55
-123
-102
-88
-102
-79
-62
-65
-58
-50
-40
-25
-13
0
18
32
46
69
88
101
120
139
150
161
174
186
194
184
141
83
30
-23
-75
-100
-104
-117
-125
-114
-128
-156
-135
-95
-96
-107
-98
-96
-103
-104
-109
-111
-102
-101
-104
-94
-95
-120
-127
-96
-55
-25
-19
-43
-73
-85
-93
-92
-75
-80
-89
-62
-72
-113
-101
-209
-247
598
1899
1804
245
-721
-438
-79
-103
-117
-77
-91
-87
-68
-67
-57
-44
-40
-29
-17
-8
8
28
42
57
77
99
118
135
151
164
172
188
209
209
177
121
54
-8
-55
-93
-121
-132
-129
-128
-132
-131
-124
-117
-112
-111
-113
-115
-116
-117
-114
-111
-114
-116
-112
-110
-120
-127
-112
-75
-35
-15
-36
-74
-87
-87
-95
-92
-93
-102
-81
-80
-112
-101
-187
-278
426
1767
1933
460
-695
-522
-101
-87
-119
-84
-98
-98
-72
-69
-66
-53
-46
-38
-29
-19
5
31
43
55
76
99
118
136
151
163
175
191
207
206
175
122
65
9
-46
-89
-114
-124
-125
-121
-118
-119
-119
-115
-111
-112
-114
-109
-102
-98
-101
-104
-105
-107
-105
-105
-115
-126
-118
-85
-41
-12
-26
-68
-91
-94
-99
-94
-82
-94
-93
-74
-93
-100
-139
-284
52
1290
2090
1123
-368
-647
-190
-63
-139
-102
-84
-105
-86
-74
-78
-63
-48
-44
-32
-12
1
8
19
38
62
86
107
123
136
151
163
174
189
199
186
142
80
21
-26
-72
-110
-127
-133
-143
-140
-126
-124
-131
-127
-117
-112
-109
-109
-110
-110
-111
-113
-112
-109
-109
-113
-120
-118
-85
-33
-9
-40
-84
-94
-93
-104
-99
-94
-108
-90
-72
-107
-112
-173
-296
226
1549
2060
818
-537
-589
-140
-74
-130
-95
-96
-100
-72
-70
-73
-52
-40
-37
-23
-7
5
20
38
55
75
100
124
143
155
169
184
194
206
221
203
138
69
20
-31
-86
-117
-127
-133
-136
-135
-134
-127
-118
-118
-113
-101
-105
-122
-119
-105
-112
-127
-119
-102
-100
-105
-111
-120
-111
-73
-28
-17
-49
-86
-95
-97
-99
-85
-91
-111
-85
-74
-112
-103
-191
-296
432
1854
2037
463
-779
-592
-128
-102
-127
-84
-100
-101
-74
-76
-70
-47
-39
-36
-22
-5
12
29
45
66
93
119
141
163
184
201
218
233
250
257
223
146
70
9
-53
-107
-127
-131
-142
-147
-144
-144
-144
-136
-128
-125
-115
-104
-110
-120
-117
-113
-123
-126
-111
-105
-121
-131
-122
-107
-77
-33
-28
-78
-108
-95
-96
-105
-94
-99
-101
-76
-93
-118
-141
-267
3
1216
2165
1294
-339
-760
-260
-56
-133
-111
-91
-111
-84
-60
-66
-59
-48
-48
-40
-20
-2
12
30
50
64
79
104
123
134
154
180
193
195
201
187
135
71
20
-31
-91
-133
-139
-138
-142
-139
-134
-135
-133
-127
-119
-112
-110
-111
-102
-93
-97
-103
-99
-96
-100
-105
-109
-111
-103
-75
-31
-1
-12
-52
-80
-86
-89
-78
-64
-76
-73
-57
-92
-108
-123
-252
55
1295
2178
1244
-339
-692
-209
-48
-126
-94
-77
-97
-73
-60
-69
-58
-47
-44
-28
-8
7
28
45
52
66
91
115
137
157
170
183
207
229
230
200
149
89
27
-38
-97
-132
-144
-148
-150
-152
-156
-150
-136
-133
-137
-131
-128
-135
-134
-122
-123
-136
-140
-129
-120
-123
-131
-138
-139
-126
-99
-64
-36
-45
-86
-108
-109
-117
-110
-94
-107
-106
-88
-115
-112
-138
-300
84
1460
2252
1046
-628
-861
-280
-79
-125
-92
-83
-89
-58
-48
-54
-42
-32
-22
3
22
31
42
64
88
110
129
153
178
198
217
231
245
269
280
248
186
118
44
-25
-69
-99
-128
-140
-135
-128
-126
-126
-126
-120
-110
-105
-106
-105
-104
-104
-102
-99
-101
-106
-106
-104
-104
-102
-100
-105
-116
-113
-87
-47
-16
-16
-48
-77
-85
-89
-88
-80
-92
-95
-66
-82
-112
-117
-242
-91
1028
2168
1563
-122
-756
-300
-48
-134
-122
-92
-119
-102
-76
-81
-73
-58
-55
-41
-23
-16
-4
18
38
54
74
95
114
135
155
169
182
200
215
207
166
100
28
-33
-78
-114
-138
-148
-150
-152
-153
-147
-139
-135
-128
-118
-114
-115
-113
-108
-105
-109
-112
-106
-100
-104
-110
-107
-100
-98
-98
-101
-108
-110
-90
-49
-9
1
-27
-60
-70
-75
-79
-70
-73
-81
-59
-61
-92
-85
-180
-205
610
1898
1858
327
-680
-417
-48
-84
-111
-67
-83
-82
-55
-51
-46
-31
-25
-16
-1
9
21
39
56
73
95
115
132
149
170
187
198
211
227
224
187
132
73
9
-52
-89
-110
-131
-143
-137
-131
-133
-134
-128
-125
-123
-119
-114
-111
-109
-110
-110
-107
-104
-110
-113
-104
-98
-104
-107
-98
-91
-96
-106
-105
-91
-61
-19
5
-17
-58
-75
-79
-83
-74
-74
-97
-84
-63
-92
-99
-154
-259
251
1516
1984
767
-536
-568
-128
-71
-130
-90
-90
-104
-79
-69
-68
-52
-42
-35
-19
-5
5
23
38
48
70
99
115
128
155
177
183
195
217
218
189
147
95
30
-32
-78
-106
-121
-132
-137
-132
-123
-121
-125
-120
-108
-102
-104
-101
-96
-98
-100
-94
-92
-94
-94
-95
-100
-100
-93
-93
-106
-119
-105
-64
-24
-4
-13
-40
-58
-68
-84
-83
-68
-84
-94
-73
-92
-108
-122
-267
-57
1101
2067
1284
-282
-717
-258
-57
-115
-96
-83
-99
-76
-60
-58
-45
-36
-28
-11
1
9
26
46
67
89
108
127
151
175
194
209
225
242
247
230
190
122
38
-30
-80
-123
-145
-139
-136
-148
-155
-149
-140
-133
-132
-136
-136
-128
-119
-119
-124
-123
-117
-118
-125
-123
-113
-107
-114
-125
-122
-100
-62
-20
-9
-47
-87
-91
-89
-93
-84
-91
-103
-78
-82
-113
-103
-219
-221
709
2009
1769
105
-802
-436
-76
-107
-103
-64
-92
-94
-75
-73
-60
-44
-38
-28
-13
1
17
30
45
72
99
121
141
161
185
206
216
229
251
242
186
120
67
4
-67
-113
-129
-140
-153
-155
-145
-141
-141
-131
-121
-121
-119
-109
-108
-118
-119
-108
-107
-115
-110
-98
-98
-101
-99
-106
-119
-111
-69
-16
2
-29
-69
-76
-71
-80
-86
-85
-89
-73
-70
-98
-91
-167
-281
318
1681
2098
758
-561
-541
-109
-89
-142
-91
-99
-113
-80
-74
-81
-66
-54
-43
-23
-15
-14
4
30
49
68
91
110
132
157
178
191
202
217
221
193
136
72
9
-52
-93
-111
-125
-143
-150
-147
-144
-143
-136
-128
-124
-122
-122
-122
-113
-101
-106
-117
-110
-98
-105
-112
-104
-107
-121
-118
-92
-59
-26
-13
-41
-75
-84
-86
-91
-83
-87
-94
-69
-72
-104
-99
-208
-222
643
1934
1822
262
-694
-405
-57
-100
-120
-89
-113
-96
-58
-67
-74
-53
-38
-31
-17
-6
1
17
45
67
80
103
129
147
164
181
195
212
227
220
183
125
57
-10
-62
-96
-120
-139
-146
-143
-140
-139
-137
-131
-124
-118
-120
-123
-120
-114
-114
-117
-114
-107
-107
-113
-109
-105
-116
-125
-112
-81
-39
-11
-30
-76
-92
-87
-92
-89
-78
-87
-83
-65
-90
-102
-142
-282
75
1320
2082
1081
-389
-631
-169
-53
-132
-99
-83
-103
-89
-78
-73
-54
-46
-43
-26
-11
-5
8
27
47
72
94
109
132
160
177
190
209
225
227
204
153
90
31
-27
-78
-109
-124
-136
-140
-135
-129
-120
-110
-120
-137
-126
-103
-106
-118
-109
-102
-110
-111
-103
-104
-104
-98
-102
-115
-114
-91
-53
-12
-2
-43
-86
-91
-83
-77
-72
-90
-96
-63
-74
-109
-105
-228
-208
733
1988
1738
158
-683
-345
-47
-119
-130
-90
-111
-97
-66
-72
-75
-65
-59
-45
-26
-17
-6
13
36
60
81
98
120
149
170
177
189
218
238
226
182
115
42
-19
-68
-106
-127
-141
-151
-148
-139
-139
-135
-124
-124
-128
-119
-113
-120
-129
-128
-126
-126
-117
-106
-113
-129
-124
-93
-53
-27
-33
-66
-89
-94
-98
-95
-85
-98
-99
-81
-106
-108
-113
-265
-7
1226
2136
1183
-453
-814
-282
-59
-111
-89
-79
-93
-75
-69
-67
-42
-29
-31
-21
-4
9
24
42
61
80
99
123
151
176
193
205
221
238
239
214
165
94
20
-38
-80
-119
-147
-154
-148
-144
-145
-144
-135
-124
-122
-124
-117
-108
-114
-127
-125
-114
-109
-108
-108
-114
-116
-111
-98
-66
-23
-16
-58
-94
-95
-95
-100
-97
-104
-103
-78
-95
-119
-121
-256
-158
885
2031
1554
-30
-699
-304
-50
-124
-124
-97
-121
-109
-82
-80
-70
-58
-55
-43
-23
-9
3
17
37
60
78
96
119
141
161
178
189
203
220
210
163
103
42
-19
-64
-90
-113
-134
-138
-129
-120
-118
-119
-116
-109
-106
-101
-93
-92
-95
-92
-90
-93
-87
-83
-99
-108
-83
-46
-16
-3
-23
-61
-75
-70
-76
-77
-73
-82
-72
-64
-93
-86
-147
-271
257
1565
2017
728
-614
-629
-156
-69
-112
-84
-98
-108
-78
-72
-66
-39
-35
-45
-32
-5
16
26
35
61
93
102
103
123
148
159
169
184
190
183
158
111
53
-6
-64
-108
-128
-136
-147
-157
-158
-152
-150
-150
-139
-121
-108
-105
-120
-133
-123
-105
-105
-106
-102
-109
-121
-115
-89
-56
-31
-30
-59
-88
-89
-87
-98
-100
-103
-104
-89
-102
-109
-101
-230
-113
934
2015
1415
-242
-878
-401
-79
-113
-95
-66
-97
-87
-51
-50
-55
-38
-20
-16
-8
14
37
52
61
77
105
127
137
154
178
191
203
222
229
209
166
101
27
-35
-85
-136
-167
-165
-154
-157
-165
-167
-158
-143
-137
-138
-134
-128
-127
-124
-124
-135
-140
-125
-113
-122
-132
-124
-110
-90
-47
-14
-38
-88
-100
-96
-110
-109
-94
-96
-87
-81
-103
-95
-168
-245
413
1715
1911
441
-771
-597
-104
-56
-99
-62
-65
-63
-36
-30
-25
-12
-6
6
28
44
55
73
94
107
117
140
174
198
204
209
223
240
250
242
209
155
91
27
-27
-58
-76
-103
-126
-121
-102
-97
-98
-92
-78
-63
-64
-77
-75
-58
-55
-61
-60
-58
-64
-65
-56
-49
-55
-64
-62
-47
-18
23
45
16
-36
-53
-48
-53
-48
-41
-56
-51
-44
-74
-68
-121
-208
377
1667
1985
599
-677
-582
-101
-65
-120
-71
-80
-104
-81
-61
-55
-53
-54
-42
-26
-27
-27
-2
28
38
41
59
82
90
94
111
125
125
132
145
123
57
-14
-75
-134
-182
-202
-219
-245
-251
-237
-234
-240
-230
-214
-210
-215
-221
-217
-199
-188
-198
-207
-196
-191
-201
-199
-186
-187
-196
-192
-186
-180
-152
-103
-72
-84
-118
-142
-148
-138
-120
-118
-137
-126
-89
-103
-129
-149
-265
-24
1117
2088
1358
-205
-683
-216
9
-75
-77
-44
-46
-29
-12
-6
15
37
46
55
75
101
121
132
146
171
201
225
248
279
305
307
310
338
357
331
280
218
139
