# session 2
10
6
-5
115
219
127
76
136
54
-144
-352
-382
487
2001
2169
482
-847
-660
-166
-114
-119
-77
-90
-49
20
14
-13
5
67
129
115
57
65
123
143
127
125
151
159
120
114
206
291
280
253
262
213
67
-74
-130
-149
-189
-211
-181
-149
-144
-125
-102
-118
-150
-168
-187
-225
-269
-267
-251
-282
-256
-219
-237
359
1782
2272
732
-897
-893
-286
-211
-291
-214
-190
-250
-303
-289
-191
-139
-186
-178
-103
-110
-149
-93
0
67
123
148
151
155
104
25
52
155
174
100
23
-30
-68
-89
-95
-84
-67
-53
-35
-15
8
42
52
11
-47
-115
-168
-145
-114
-117
-79
-145
-250
371
1622
1813
448
-668
-524
-117
-125
-201
-213
-299
-351
-283
-209
-202
-218
-210
-185
-173
-137
-23
80
62
3
14
44
29
14
43
72
43
12
43
58
2
-37
-38
-74
-118
-109
-100
-117
-101
-63
-56
-75
-106
-143
-171
-193
-150
-36
-42
-156
-189
-221
87
1350
2384
1372
-559
-1044
-418
-174
-253
-183
-120
-104
-42
3
25
35
20
45
99
103
126
165
97
40
154
259
190
113
162
240
260
259
282
307
295
264
221
128
16
-36
-59
-135
-241
-279
-214
-152
-207
-305
-316
-286
-294
-293
-272
-259
-211
-217
-233
397
1666
1895
291
-1262
-1215
-482
-164
-132
-126
-129
-88
-77
-154
-214
-181
-50
75
17
-109
-51
47
-43
-118
25
155
69
-35
38
146
127
67
54
41
6
-38
-83
-85
-64
-105
-170
-169
-135
-114
-73
-15
-20
-102
-122
-33
3
-106
-250
-263
-141
-170
-201
702
2225
2226
378
-887
-585
-143
-157
-69
82
21
-59
-14
2
-113
-223
-193
-145
-210
-252
-168
-80
-64
-76
-82
-52
-5
-12
-37
18
116
141
102
92
77
-24
-125
-118
-81
-60
18
103
93
36
-12
-91
-192
-228
-166
-81
-84
-149
-151
-209
-354
182
1721
2510
1128
-678
-842
-200
-164
-383
-305
-217
-261
-223
-119
-93
-113
-113
-110
-84
-21
19
30
64
104
118
121
114
91
74
82
142
257
334
274
127
47
66
68
36
54
77
55
74
123
83
3
-34
-118
-254
-281
-222
-231
-245
-256
-364
-44
1139
1894
813
-888
-1237
-587
-233
-217
-152
-124
-158
-131
-115
-173
-171
-72
-31
-69
-48
11
-8
-69
-95
-107
-117
-105
-103
-154
-200
-122
61
139
30
-83
-89
-82
-103
-116
-115
-88
-71
-131
-177
-104
-42
-100
-151
-156
-221
-266
-188
-161
-200
-143
-195
-117
1012
2415
1877
-163
-1052
-450
-25
-113
-79
41
26
-7
31
83
112
146
178
146
112
188
254
199
212
352
342
152
98
198
164
28
47
183
209
93
-58
-173
-213
-193
-167
-130
-49
5
-62
-190
-242
-205
-179
-216
-255
-246
-254
-244
-194
-350
-316
940
2518
1999
-196
-1259
-742
-279
-274
-271
-300
-364
-313
-198
-94
-81
-213
-280
-139
-26
-83
-136
-100
-55
-23
18
71
89
10
-86
-44
97
177
160
111
81
70
36
-25
-58
-29
32
60
33
7
13
-15
-96
-111
-27
0
-15
-6
-149
-5
1255
2517
1700
-322
-980
-348
-111
-364
-410
-329
-320
-271
-210
-203
-162
-113
-168
-227
-145
-22
-3
-38
-33
-16
-21
-16
-4
-1
18
50
69
93
114
69
-52
-163
-170
-107
-108
-166
-152
-94
-114
-175
-184
-172
-199
-227
-199
-177
-202
-180
-232
-360
288
1883
2437
810
-900
-894
-257
-162
-218
-132
-161
-253
-224
-148
-107
-57
-14
-34
-53
18
96
87
69
106
139
165
196
174
142
197
281
324
346
314
226
182
197
203
173
108
82
137
112
-71
-202
-185
-181
-247
-265
-234
-251
-272
-297
-425
-182
965
1895
1040
-665
-1172
-612
-261
-266
-269
-265
-235
-158
-141
-181
-193
-165
-108
-65
-78
-122
-151
-128
-31
61
23
-75
-51
53
66
40
117
196
149
92
116
105
20
-35
-34
-15
8
-4
-60
-97
-126
-204
-266
-228
-158
-165
-211
-172
-179
-336
109
1637
2594
1364
-507
-827
-195
-11
-119
-72
-25
-24
0
-7
-19
17
63
90
78
48
84
133
63
-49
-77
-66
-48
-16
-53
-131
-112
-52
-84
-147
-168
-186
-184
-128
-73
-58
-52
-51
-86
-158
-213
-218
-223
-222
-190
-214
-237
-191
-323
-168
1262
2769
1961
-257
-1035
-432
-180
-320
-270
-230
-290
-263
-182
-129
-114
-164
-198
-97
45
48
-36
-22
50
2
-114
-135
-104
-113
-99
-18
63
94
76
34
10
-8
-39
-33
23
69
89
92
51
9
18
18
-4
24
39
3
-6
-110
-113
778
2083
1869
125
-887
-485
-13
-11
-82
-154
-211
-146
-109
-158
-142
-103
-140
-166
-145
-126
-74
-7
-28
-88
-79
-70
-116
-123
-90
-95
-75
1
8
-49
-35
12
-14
-87
-139
-124
-33
36
-11
-107
-159
-197
-234
-216
-193
-200
-130
-122
-234
306
1654
2051
596
-826
-781
-272
-214
-257
-203
-211
-226
-233
-275
-251
-162
-127
-116
-75
-42
-20
14
36
48
47
21
28
86
103
84
137
241
299
301
265
204
183
213
233
257
284
214
78
35
36
-60
-152
-146
-166
-206
-208
-279
-60
944
1741
904
-666
-1077
-520
-215
-218
-168
-168
-229
-230
-215
-199
-143
-120
-148
-143
-107
-96
-100
-88
-50
-11
-20
-71
-100
-81
-30
43
84
50
19
66
106
41
-30
20
105
81
-5
-26
-21
-93
-193
-223
-207
-188
-179
-207
-209
-238
-394
6
1528
2566
1357
-614
-1012
-330
-37
-100
-86
-43
-2
25
11
54
137
135
106
145
176
140
119
155
174
146
142
144
60
-50
-41
46
73
32
-6
-11
-12
-78
-207
-288
-253
-148
-56
-66
-186
-290
-297
-253
-213
-239
-315
-316
-353
-390
402
1991
2308
528
-1044
-886
-296
-284
-338
-242
-256
-292
-245
-222
-231
-221
-199
-168
-144
-121
-55
7
-5
-30
-12
-9
-59
-117
-125
-53
49
65
-12
-60
-38
-24
-38
-30
0
9
-8
-30
-40
-34
-41
-48
14
67
9
-17
-27
-129
391
1901
2622
1205
-488
-570
14
86
-2
45
20
-59
-120
-184
-196
-159
-139
-116
-74
-55
-81
-119
-139
-149
-159
-149
-131
-127
-98
-42
-22
-48
-81
-102
-116
-122
-98
-33
26
38
10
-44
-89
-114
-202
-281
-168
-46
-142
-224
-312
-495
177
1915
2504
834
-780
-696
-180
-191
-210
-121
-217
-330
-304
-275
-276
-240
-187
-163
-173
-181
-130
-45
-16
-38
-38
-16
-11
-7
37
125
214
249
220
171
143
138
147
166
181
193
217
218
147
63
34
29
15
-23
-73
-75
-192
-384
226
1711
2095
484
-1010
-920
-387
-333
-353
-276
-280
-286
-248
-234
-216
-189
-205
-219
-177
-130
-120
-104
-66
-63
-112
-154
-143
-92
-38
4
52
110
126
72
11
15
35
10
-9
13
10
-31
-46
-42
-90
-158
-132
-64
-112
-188
-239
-390
-86
1254
2222
1155
-624
-971
-371
-153
-204
-143
-123
-146
-109
-70
-42
2
49
90
102
91
128
194
205
188
187
164
120
110
128
166
236
287
263
217
200
153
42
-48
-80
-88
-78
-65
-91
-155
-233
-291
-282
-231
-219
-205
-144
-218
-228
580
1802
1645
0
-1054
-762
-325
-281
-272
-248
-246
-195
-184
-220
-200
-164
-153
-124
-102
-112
-104
-86
-88
-68
-37
-82
-167
-160
-45
87
171
171
95
13
-18
-37
-101
-157
-121
-35
-10
-73
-168
-218
-198
-132
-45
-28
-94
-91
-137
-221
536
2091
2305
480
-966
-686
-63
20
15
57
31
48
86
79
96
113
85
95
159
186
167
128
28
-112
-175
-147
-123
-115
-85
-50
-38
-33
-23
-12
10
28
7
-45
-83
-93
-127
-209
-255
-233
-226
-205
-146
-171
-218
-232
-328
108
1604
2521
1235
-623
-922
-363
-213
-265
-225
-265
-321
-281
-235
-221
-208
-205
-200
-168
-128
-121
-136
-126
-122
-188
-277
-293
-248
-207
-169
-114
-57
-21
-23
-40
-7
86
140
116
98
120
111
69
50
74
140
173
111
83
52
-84
383
1799
2398
891
-811
-810
-100
55
-49
-86
-175
-231
-195
-177
-166
-120
-92
-98
-102
-73
-10
50
47
-16
-53
-31
-22
-49
-58
-23
38
73
37
-24
-40
-11
37
51
1
-47
-65
-103
-139
-145
-179
-217
-220
-235
-236
-285
-366
218
1630
2158
765
-740
-765
-219
-122
-205
-215
-253
-263
-208
-174
-187
-205
-168
-88
-58
-82
-73
-33
-24
-29
1
41
43
31
66
130
149
145
175
181
122
73
74
76
71
74
40
-22
-23
35
52
2
-77
-116
-122
-282
-344
521
1852
1702
-45
-1141
-771
-268
-255
-263
-189
-194
-207
-184
-170
-165
-167
-161
-106
-43
-43
-94
-133
-130
-113
-118
-126
-104
-82
-59
10
97
122
87
44
9
-17
-23
-10
2
-17
-89
-159
-127
-36
-18
-52
-73
-129
-165
-197
-354
-4
1477
2529
1326
-650
-1016
-337
-120
-203
-132
-94
-103
-46
-15
-24
-12
12
49
87
86
84
116
123
98
112
138
103
53
87
182
240
256
258
214
137
107
85
-33
-172
-199
-175
-213
-255
-221
-180
-204
-240
-258
-264
-248
-291
-174
760
2024
1724
-234
-1439
-959
-324
-287
-280
-203
-233
-194
-78
-81
-154
-150
-98
-101
-140
-120
-52
-29
-55
-73
-72
-73
-83
-82
-12
108
144
93
94
119
57
-25
-48
-46
-33
-14
-40
-78
-67
-71
-125
-137
-122
-141
-161
-279
-234
835
2403
2262
304
-891
-498
-85
-175
-154
-76
-141
-139
-77
-85
-70
-12
-9
-24
7
47
83
120
115
68
28
-27
-112
-140
-68
12
36
30
11
-33
-78
-87
-70
-40
-1
-3
-76
-131
-124
-135
-154
-139
-179
-228
-234
-372
-126
1274
2463
1405
-656
-1143
-440
-167
-259
-246
-283
-314
-211
-147
-164
-155
-141
-145
-128
-107
-96
-39
60
93
16
-51
-24
17
12
26
86
106
54
5
-2
-7
-15
-6
2
-17
-50
-48
-23
-48
-93
-74
-68
-109
-94
-208
-351
499
2221
2526
725
-725
-522
-71
-153
-178
-67
-117
-182
-134
-124
-210
-280
-293
-287
-237
-134
-92
-158
-205
-192
-202
-237
-234
-194
-119
-37
-24
-64
-58
-39
-83
-119
-71
-23
-53
-98
-86
-61
-108
-186
-151
-54
-86
-155
-207
-416
-129
1437
2685
1527
-585
-1034
-328
-94
-175
-75
-43
-108
-89
-50
-20
13
-30
-60
38
127
120
89
49
53
116
50
-146
-182
-55
-36
-104
-72
23
65
67
77
81
60
68
152
209
164
123
138
130
131
168
124
16
-88
-116
459
1687
2101
904
-377
-498
-194
-231
-390
-416
-334
-252
-261
-289
-238
-182
-214
-290
-301
-216
-144
-190
-270
-248
-190
-228
-288
-244
-142
-74
-58
-66
-56
-46
-62
-38
31
17
-70
-84
-38
-31
-52
-69
-82
-90
-103
-98
-115
-185
130
1128
1759
967
-294
-595
-243
-108
-152
-127
-122
-154
-129
-87
-118
-182
-180
-144
-137
-128
-106
-94
-95
-134
-196
-211
-196
-195
-166
-93
-40
-32
-44
-46
-46
-51
-25
38
71
68
80
67
-3
-50
-28
22
40
9
-21
-96
-138
379
1396
1618
540
-451
-426
-105
-72
-96
-70
-74
-76
-95
-139
-129
-101
-115
-106
-62
-55
-66
-53
-51
-67
-71
-79
-98
-80
-11
59
92
102
103
102
116
147
165
160
155
136
91
60
49
31
37
47
8
-16
-87
-216
276
1590
2117
838
-581
-625
-152
-114
-185
-128
-131
-157
-129
-121
-131
-117
-105
-105
-95
-81
-72
-67
-75
-98
-123
-138
-139
-113
-49
26
57
40
23
5
-37
-68
-58
-42
-47
-77
-125
-148
-149
-178
-190
-164
-197
-233
-252
-390
-71
1298
2225
999
-890
-1155
-428
-190
-266
-214
-207
-233
-182
-159
-169
-145
-123
-117
-94
-75
-68
-52
-42
-52
-63
-69
-68
-39
24
79
91
77
46
-16
-72
-71
-45
-48
-62
-76
-119
-150
-132
-129
-139
-114
-126
-161
-172
-330
-241
953
2345
1850
2
-762
-261
7
-136
-126
-52
-83
-105
-99
-85
-39
-14
-50
-61
-4
32
4
-35
-60
-86
-100
-98
-84
-35
50
102
92
71
69
62
52
64
89
98
82
46
19
10
-13
-28
-10
-36
-80
-99
-242
-156
874
2013
1516
-82
-726
-315
-83
-170
-162
-127
-143
-126
-108
-112
-102
-89
-77
-60
-57
-61
-55
-56
-76
-97
-116
-124
-103
-52
11
53
53
28
7
-13
-36
-38
-21
-12
-19
-49
-97
-122
-132
-143
-122
-117
-160
-180
-304
-407
348
1742
1805
152
-986
-637
-149
-180
-214
-154
-170
-166
-135
-147
-147
-116
-97
-88
-75
-66
-58
-44
-43
-69
-97
-101
-84
-40
35
93
95
70
37
6
-4
3
11
26
33
-5
-52
-60
-68
-86
-72
-76
-118
-180
-382
-359
682
2019
1746
143
-635
-264
-42
-187
-188
-121
-156
-167
-130
-119
-118
-102
-75
-44
-30
-43
-53
-44
-50
-85
-114
-112
-67
33
130
137
72
28
9
-31
-61
-43
-21
-21
-15
-18
-55
-80
-82
-86
-66
-54
-90
-96
-214
-483
-8
1509
2156
758
-732
-677
-126
-80
-140
-95
-118
-128
-92
-85
-68
-41
-48
-42
-15
-10
-10
-6
-32
-68
-78
-70
-46
10
79
122
123
98
63
19
-22
-32
-9
11
2
-33
-70
-81
-92
-119
-112
-90
-126
-160
-269
-512
-129
1303
2127
976
-526
-616
-119
-97
-190
-124
-123
-152
-121
-104
-105
-91
-71
-47
-28
-27
-26
-29
-51
-85
-124
-148
-125
-62
8
65
91
79
47
15
-6
-13
-15
-15
-3
-7
-54
-95
-103
-110
-101
-84
-111
-131
-240
-497
-118
1293
2005
707
-820
-794
-170
-86
-171
-121
-123
-132
-88
-83
-87
-58
-43
-34
-9
7
