# session 0
-132
-57
4
79
154
208
283
364
399
484
595
578
647
895
765
408
967
1978
1015
-2598
-6097
-6663
-4973
-3825
-4085
-4324
-3912
-3577
-3500
-3315
-3097
-2975
-2824
-2643
-2498
-2354
-2205
-2058
-1889
-1748
-1726
-1728
-1391
-457
664
1090
479
-500
-977
-818
-522
-430
-429
-354
-243
-160
-77
17
105
191
280
367
451
537
623
704
777
837
882
916
939
948
938
908
866
821
776
736
705
687
682
683
686
691
698
706
713
720
727
731
730
728
729
731
732
731
724
712
694
676
661
650
638
627
627
633
627
602
567
535
510
495
479
454
435
437
431
353
213
266
857
1818
2334
1822
714
-45
-84
164
223
120
75
95
93
79
81
86
91
105
120
133
150
170
190
206
211
205
189
163
125
75
13
-57
-133
-210
-282
-342
-386
-417
-439
-454
-463
-468
-474
-479
-479
-476
-472
-469
-466
-461
-454
-448
-445
-446
-448
-451
-453
-453
-451
-451
-448
-433
-408
-394
-404
-423
-433
-433
-426
-420
-426
-424
-393
-361
-405
-528
-495
51
1025
1676
1350
328
-485
-609
-366
-249
-317
-358
-321
-289
-272
-240
-206
-177
-142
-103
-63
-16
35
83
127
161
185
197
196
177
143
94
31
-37
-101
-152
-188
-210
-222
-227
-224
-218
-209
-199
-190
-181
-171
-162
-150
-134
-119
-104
-92
-81
-73
-69
-63
-53
-48
-52
-57
-57
-52
-46
-35
-16
2
3
-12
-25
-27
-22
-15
-15
-25
-15
22
20
-79
-154
130
939
1831
2027
1312
329
-176
-123
49
52
-20
-26
4
17
32
60
85
106
133
166
202
239
276
314
350
372
375
366
352
326
276
201
116
36
-35
-94
-138
-165
-176
-181
-184
-184
-178
-171
-166
-162
-153
-142
-134
-129
-124
-118
-113
-109
-106
-103
-101
-104
-110
-114
-115
-114
-114
-113
-110
-107
-105
-107
-108
-106
-105
-108
-109
-108
-107
-107
-106
-102
-96
-94
-95
-94
-91
-93
-103
-111
-104
-82
-58
-42
-37
-41
-52
-66
-76
-84
-87
-83
-88
-96
-76
-43
-70
-175
-181
243
1148
1964
1951
1079
109
-288
-172
-22
-53
-119
-110
-83
-72
-51
-26
-11
12
47
82
116
156
198
240
278
307
323
326
319
303
276
230
165
92
20
-46
-102
-147
-180
-202
-215
-220
-221
-219
-214
-205
-197
-195
-192
-185
-175
-167
-162
-159
-154
-150
-149
-153
-159
-163
-163
-160
-158
-158
-158
-160
-162
-161
-158
-156
-155
-155
-155
-154
-154
-155
-160
-171
-184
-197
-212
-228
-233
-221
-195
-165
-145
-140
-150
-167
-175
-171
-164
-161
-171
-209
-267
-334
-412
-530
-696
-731
-292
607
1268
984
-38
-881
-1006
-728
-586
-654
-705
-682
-673
-677
-657
-613
-535
-401
-235
-78
52
168
309
517
809
1175
1607
2074
2479
2680
2599
2298
1922
1575
1279
1027
818
654
526
422
334
254
184
123
68
16
-29
-66
-94
-118
-143
-169
-190
-207
-226
-248
-269
-286
-300
-314
-329
-342
-351
-357
-362
-365
-368
-371
-375
-378
-379
-377
-374
-373
-373
-370
-367
-366
-364
-359
-354
-350
-346
-339
-332
-326
-321
-319
-321
-325
-318
-291
-250
-217
-204
-210
-222
-228
-225
-221
-220
-213
-205
-207
-197
-158
-135
-203
-312
-168
525
1529
2043
1557
504
-239
-327
-130
-68
-139
-161
-126
-105
-91
-62
-35
-11
22
59
96
138
183
229
277
320
352
372
379
372
348
299
229
149
68
-6
-68
-114
-147
-168
-181
-188
-188
-184
-179
-174
-169
-164
-158
-152
-143
-134
-126
-120
-115
-108
-102
-99
-98
-96
-94
-92
-91
-90
-89
-89
-88
-85
-83
-83
-83
-79
-76
-76
-76
-75
-73
-71
-69
-66
-64
-69
-80
-89
-84
-62
-32
-9
1
-5
-21
-35
-41
-45
-45
-42
-46
-55
-42
-13
-29
-137
-191
170
1080
1982
2045
1162
124
-310
-179
-6
-36
-109
-98
-68
-63
-49
-25
-5
18
47
77
110
149
194
239
279
307
325
334
332
313
271
206
128
47
-31
-101
-156
-194
-221
-242
-256
-261
-261
-260
-260
-259
-255
-249
-242
-235
-229
-223
-219
-214
-205
-196
-191
-190
-190
-184
-177
-173
-175
-178
-177
-173
-168
-163
-159
-159
-160
-159
-155
-155
-160
-164
-157
-138
-111
-84
-65
-64
-78
-93
-101
-103
-98
-94
-95
-90
-71
-51
-75
-157
-107
408
1308
1853
1429
386
-354
-380
-92
15
-56
-79
-39
-23
-17
10
35
52
79
112
147
187
230
276
325
368
395
406
406
395
369
320
251
170
86
7
-66
-125
-162
-180
-189
-200
-209
-207
-198
-194
-195
-190
-178
-167
-164
-161
-154
-144
-140
-141
-141
-138
-132
-129
-130
-131
-131
-130
-130
-131
-128
-122
-120
-125
-130
-124
-107
-89
-70
-51
-43
-55
-78
-96
-102
-100
-96
-104
-122
-126
-98
-64
-95
-137
112
822
1533
1498
640
-272
-546
-294
-59
-53
-99
-84
-64
-55
-27
1
16
39
70
98
132
187
247
295
329
355
371
372
358
327
267
177
76
-15
-97
-175
-244
-294
-321
-329
-327
-321
-315
-308
-301
-294
-285
-273
-261
-253
-241
-222
-209
-212
-221
-214
-196
-185
-188
-195
-200
-202
-201
-196
-187
-171
-148
-133
-139
-157
-168
-169
-163
-156
-160
-165
-142
-99
-117
-228
-230
230
1131
1812
1602
670
-155
-350
-145
-11
-56
-101
-74
-49
-46
-34
-16
-5
10
35
66
103
147
199
252
298
334
362
381
384
364
319
257
190
123
58
0
-44
-71
-86
-89
-83
-75
-68
-63
-61
-55
-41
-27
-22
-27
-29
-20
-8
-6
-9
-9
-8
-9
-12
-16
-25
-30
-21
-6
-4
-19
-37
-40
-28
-24
-39
-52
-40
-30
-88
-221
-211
281
1189
1801
1487
509
-262
-366
-123
-13
-79
-118
-92
-79
-77
-57
-35
-16
9
35
58
85
118
155
192
221
236
238
228
207
171
117
51
-19
-89
-159
-219
-258
-279
-293
-306
-313
-311
-305
-302
-301
-297
-289
-277
-267
-262
-261
-265
-272
-278
-279
-276
-275
-269
-251
-230
-224
-234
-246
-252
-249
-235
-230
-249
-263
-249
-251
-352
-492
-347
355
1268
1578
948
-29
-542
-454
-234
-219
-311
-337
-324
-332
-345
-347
-347
-344
-342
-340
-325
-292
-258
-231
-207
-182
-165
-163
-176
-198
-229
-267
-312
-359
-401
-433
-457
-470
-468
-450
-426
-399
-373
-348
-324
-302
-281
-258
-233
-208
-185
-168
-155
-136
-109
-79
-47
-10
36
80
109
124
137
154
177
204
224
244
286
341
355
274
186
427
1212
2103
2297
1596
693
325
497
716
726
675
705
770
822
878
930
979
1040
1103
1157
1209
1265
1314
1344
1342
1306
1250
1187
1125
1050
906
646
326
100
88
265
508
722
892
1030
1135
1216
1292
1361
1413
1447
1481
1531
1555
1488
1339
1208
1178
1222
1255
1223
1088
775
255
-346
-837
-1168
-1400
-1528
-1476
-1233
-898
-577
-348
-252
-175
89
392
119
-1100
-2875
-4540
-5774
-6561
-6949
-7057
-7015
-6746
-6081
-5151
-4324
-3682
-2970
-2102
-1317
-851
-785
-1124
-1762
-2452
-2970
-3247
-3269
-2989
-2429
-1734
-1044
-450
-37
177
292
416
558
685
819
1016
1261
1478
1629
1747
1863
1960
1985
1905
1756
1619
1547
1538
1577
1669
1801
1921
2002
2057
2078
2040
1970
1927
1918
1885
1804
1739
1735
1743
1687
1558
1467
1643
2147
2586
2437
1733
1072
896
1040
1106
1004
903
862
814
764
747
733
696
656
626
598
563
527
498
475
444
398
350
306
260
210
157
96
23
-58
-136
-208
-277
-337
-381
-411
-436
-459
-482
-501
-516
-525
-534
-547
-565
-581
-591
-597
-602
-604
-601
-596
-593
-599
-623
-654
-678
-691
-696
-699
-706
-714
-711
-700
-708
-771
-836
-662
-76
603
737
144
-630
-961
-820
-618
-587
-622
-608
-573
-544
-508
-474
-451
-425
-396
-364
-315
-249
-196
-171
-154
-127
-108
-104
-97
-81
-78
-104
-143
-172
-195
-219
-243
-260
-273
-279
-275
-263
-245
-230
-224
-215
-186
-150
-141
-162
-162
-115
-62
-54
-71
-60
-23
-7
-23
-35
-19
10
25
7
-34
-52
-20
26
13
-70
-61
325
1078
1644
1440
602
-142
-309
-92
73
67
39
53
66
75
97
117
140
180
218
241
274
333
397
436
441
423
400
388
383
369
338
297
252
206
157
109
71
40
9
-15
-28
-35
-34
-28
-27
-32
-30
-18
-8
2
15
29
37
40
48
54
40
6
-28
-53
-71
-88
-111
-138
-149
-146
-167
-245
-289
-31
667
1381
1412
641
-251
-581
-381
-147
-128
-170
-141
-98
-84
-62
-33
-15
4
33
67
105
146
182
215
241
255
256
247
227
193
145
86
17
-54
-119
-171
-207
-229
-238
-237
-228
-218
-208
-196
-184
-172
-163
-163
-173
-187
-198
-203
-201
-191
-174
-157
-155
-172
-194
-212
-218
-217
-223
-237
-230
-201
-206
-285
-334
-79
621
1379
1510
825
-79
-508
-395
-179
-150
-208
-204
-168
-153
-135
-105
-78
-51
-19
14
49
88
127
161
190
209
218
219
211
193
160
111
50
-15
-75
-125
-161
-187
-203
-212
-215
-214
-208
-200
-192
-186
-180
-174
-166
-159
-158
-158
-154
-144
-136
-129
-116
-95
-79
-83
-99
-114
-123
-124
-120
-124
-128
-110
-85
-105
-181
-171
199
976
1650
1564
726
-142
-429
-240
-57
-73
-127
-109
-77
-65
-44
-15
9
35
64
93
126
165
208
250
285
307
316
313
302
280
246
198
142
82
27
-21
-61
-96
-128
-156
-176
-187
-189
-187
-184
-183
-182
-180
-178
-174
-168
-162
-162
-168
-171
-166
-160
-155
-144
-125
-110
-112
-128
-142
-149
-151
-145
-146
-155
-148
-122
-122
-185
-228
6
697
1509
1724
1062
89
-429
-352
-125
-89
-156
-158
-118
-102
-90
-66
-44
-21
9
38
68
103
135
161
183
196
202
201
195
182
161
128
85
33
-23
-76
-119
-151
-171
-182
-188
-189
-185
-177
-172
-170
-166
-158
-149
-143
-140
-138
-134
-128
-121
-114
-114
-119
-119
-109
-99
-94
-87
-69
-52
-53
-69
-80
-81
-79
-77
-83
-93
-89
-71
-74
-135
-185
39
729
1519
1659
913
-71
-513
-348
-85
-44
-98
-82
-40
-30
-19
6
30
58
91
122
154
189
220
242
259
271
270
257
237
217
194
158
105
47
-8
-60
-107
-141
-162
-175
-189
-200
-203
-203
-208
-225
-248
-267
-271
-264
-261
-269
-276
-270
-256
-249
-253
-251
-239
-227
-219
-207
-192
-185
-192
-198
-194
-188
-182
-177
-176
-174
-162
-144
-162
-225
-163
314
1137
1650
1270
275
-482
-553
-265
-103
-123
-132
-89
-67
-61
-37
-8
20
60
107
153
201
248
290
321
341
349
351
346
332
304
262
208
147
88
34
-13
-54
-85
-105
-114
-115
-114
-113
-115
-116
-115
-112
-109
-106
-104
-101
-96
-94
-96
-101
-102
-99
-97
-98
-93
-78
-67
-78
-100
-113
-116
-115
-116
-124
-126
-110
-87
-97
-165
-166
193
982
1665
1546
647
-244
-499
-268
-73
-93
-143
-118
-91
-87
-70
-45
-26
-5
24
55
89
125
161
192
214
223
223
217
201
169
122
68
9
-52
-109
-155
-188
-213
-230
-239
-243
-243
-238
-232
-226
-219
-213
-206
-199
-193
-188
-182
-177
-177
-181
-184
-181
-175
-171
-163
-148
-134
-137
-154
-167
-170
-167
-160
-157
-160
-147
-118
-115
-179
-230
5
726
1576
1797
1106
104
-416
-327
-97
-64
-133
-135
-99
-86
-72
-46
-25
-3
27
59
93
130
165
198
226
246
253
251
242
225
193
144
81
15
-45
-95
-134
-161
-176
-183
-185
-182
-177
-170
-162
-154
-148
-142
-137
-133
-129
-127
-128
-128
-124
-118
-119
-125
-129
-124
-115
-104
-90
-73
-67
-79
-96
-103
-105
-104
-99
-100
-106
-91
-65
-82
-166
-178
183
989
1721
1682
846
-52
-374
-208
-35
-58
-120
-106
-77
-70
-54
-29
-10
13
40
68
99
134
168
200
225
240
245
243
234
215
182
133
72
6
-55
-107
-146
-174
-191
-201
-204
-202
-198
-192
-185
-178
-173
-168
-162
-158
-156
-153
-152
-151
-149
-149
-149
-147
-145
-145
-150
-154
-151
-143
-133
-119
-101
-89
-96
-113
-123
-125
-124
-119
-121
-126
-116
-90
-89
-154
-211
11
702
1505
1682
988
34
-423
-300
-72
-51
-121
-121
-88
-77
-65
-39
-18
3
30
59
89
123
155
185
210
226
232
230
224
209
184
144
90
29
-31
-85
-129
-162
-185
-200
-206
-206
-203
-197
-190
-184
-178
-174
-171
-166
-161
-158
-155
-153
-152
-151
-151
-151
-146
-142
-145
-150
-149
-142
-134
-122
-103
-86
-87
-102
-115
-119
-118
-112
-109
-114
-110
-86
-71
-113
-190
-80
487
1324
1716
1209
232
-383
-354
-90
-10
-77
-93
-55
-38
-29
-4
18
39
67
97
126
158
190
219
244
260
266
264
256
241
218
184
139
85
29
-24
-68
-101
-124
-139
-148
-151
-150
-145
-139
-133
-125
-116
-108
-103
-99
-95
-93
-93
-92
-91
-91
-92
-92
-88
-85
-87
-94
-97
-93
-84
-71
-53
-38
-39
-55
-71
-77
-78
-75
-74
-81
-81
-62
-45
-78
-156
-85
421
1244
1703
1272
298
-377
-391
-116
-8
-74
-103
-71
-55
-52
-32
-12
5
28
54
80
107
134
157
178
191
192
184
169
151
127
96
52
-2
-59
-112
-158
-195
-222
-239
-250
-256
-258
-255
-251
-246
-241
-235
-230
-225
-221
-220
-221
-221
-220
-220
-221
-223
-222
-219
-220
-224
-225
-219
-208
-196
-180
-163
-159
-170
-185
-193
-192
-186
-181
-182
-177
-154
-133
-155
-217
-137
369
1196
1661
1228
242
-440
-444
-150
-28
-84
-101
-54
-29
-18
11
43
70
102
136
171
209
248
284
315
339
350
350
344
334
321
300
272
240
204
165
130
105
88
79
75
