# session 17
-40
-39
-40
-42
-44
-44
-45
-46
-46
-47
-49
-49
-49
-50
-51
-50
-48
-48
-47
-47
-47
-48
-49
-48
-47
-46
-46
-46
-46
-44
-42
-44
-52
-58
-54
-36
-12
5
10
4
-13
-32
-45
-51
-53
-51
-53
-62
-56
-33
-27
-79
-133
59
709
1515
1742
1073
84
-422
-301
-35
11
-66
-74
-39
-31
-25
-4
13
31
55
79
103
133
163
194
228
261
289
308
319
319
310
288
249
194
126
53
-20
-86
-142
-186
-216
-234
-243
-248
-249
-246
-243
-239
-235
-229
-223
-216
-209
-201
-193
-186
-179
-174
-168
-163
-159
-155
-152
-149
-147
-145
-142
-140
-138
-136
-134
-132
-129
-127
-124
-122
-119
-116
-112
-110
-108
-105
-100
-101
-109
-114
-106
-83
-55
-35
-27
-33
-49
-65
-71
-71
-72
-69
-70
-76
-68
-41
-34
-90
-149
43
703
1528
1773
1112
114
-408
-295
-26
23
-52
-61
-24
-14
-7
16
34
50
72
97
122
152
184
216
251
285
313
334
347
349
340
317
278
221
151
76
3
-63
-117
-158
-188
-206
-216
-220
-220
-218
-214
-210
-204
-199
-192
-185
-177
-170
-165
-159
-154
-148
-144
-142
-139
-134
-130
-128
-126
-126
-124
-121
-119
-118
-117
-115
-113
-112
-111
-110
-108
-103
-100
-103
-112
-114
-101
-76
-51
-34
-33
-45
-64
-79
-84
-85
-86
-83
-83
-88
-78
-51
-51
-116
-169
66
776
1586
1738
994
5
-441
-280
-24
-1
-76
-75
-39
-32
-23
0
16
33
57
81
107
138
170
202
235
267
294
313
323
323
314
293
254
197
127
52
-21
-85
-137
-176
-202
-218
-226
-229
-229
-225
-220
-214
-207
-199
-191
-184
-178
-172
-165
-158
-153
-149
-144
-140
-137
-135
-133
-131
-130
-130
-128
-126
-124
-122
-120
-118
-117
-116
-114
-110
-107
-110
-117
-118
-103
-77
-51
-36
-35
-48
-68
-81
-84
-83
-81
-79
-83
-86
-68
-43
-57
-133
-141
218
1021
1727
1617
710
-193
-443
-195
11
-17
-80
-59
-30
-27
-13
10
27
47
70
90
115
147
178
207
237
264
287
301
306
302
288
264
225
170
104
36
-28
-86
-134
-171
-195
-211
-219
-222
-220
-216
-211
-206
-199
-192
-185
-178
-172
-169
-167
-163
-158
-152
-147
-145
-146
-146
-143
-140
-139
-139
-137
-136
-135
-133
-133
-135
-134
-126
-109
-88
-68
-55
-59
-78
-97
-104
-106
-106
-103
-104
-107
-97
-75
-71
-122
-140
158
920
1673
1653
759
-223
-549
-296
-37
-33
-96
-76
-42
-39
-28
-3
14
33
60
85
111
140
172
206
240
268
289
301
304
299
283
256
215
161
97
30
-34
-92
-140
-175
-198
-212
-219
-220
-218
-215
-211
-205
-198
-189
-180
-174
-167
-160
-153
-149
-145
-142
-140
-138
-136
-134
-133
-133
-133
-133
-129
-126
-127
-131
-131
-120
-101
-78
-61
-56
-68
-89
-104
-108
-109
-106
-104
-109
-105
-83
-66
-98
-166
-59
510
1391
1850
1351
297
-408
-403
-106
-2
-77
-106
-69
-53
-49
-28
-7
10
32
57
83
113
145
176
209
241
268
286
295
295
287
268
233
181
115
44
-26
-88
-141
-181
-206
-221
-229
-230
-229
-224
-220
-214
-206
-198
-190
-182
-175
-169
-163
-158
-154
-150
-148
-146
-144
-143
-142
-141
-137
-135
-138
-142
-139
-128
-109
-88
-71
-65
-77
-99
-114
-118
-117
-114
-112
-119
-118
-95
-75
-108
-188
-116
418
1324
1885
1490
448
-338
-414
-137
-13
-82
-120
-86
-67
-64
-44
-21
-4
19
44
69
99
131
163
196
228
254
273
283
285
279
261
228
177
113
43
-26
-88
-138
-176
-201
-217
-225
-228
-226
-221
-214
-207
-200
-192
-183
-176
-170
-164
-158
-152
-147
-144
-142
-140
-138
-136
-135
-134
-133
-131
-126
-123
-127
-130
-125
-108
-86
-66
-53
-54
-71
-91
-101
-102
-102
-100
-99
-104
-101
-79
-59
-92
-173
-96
449
1358
1901
1481
431
-338
-393
-114
-1
-74
-110
-74
-56
-52
-32
-11
6
29
54
79
107
137
167
198
228
253
272
281
282
276
261
230
183
122
55
-12
-73
-123
-161
-187
-203
-211
-214
-213
-209
-202
-195
-187
-179
-173
-166
-160
-154
-149
-144
-141
-137
-135
-133
-131
-130
-129
-128
-126
-124
-123
-121
-118
-116
-114
-111
-109
-108
-105
-101
-103
-109
-110
-95
-67
-41
-28
-30
-45
-64
-77
-78
-78
-81
-79
-79
-83
-74
-48
-46
-111
-173
43
748
1590
1796
1081
74
-415
-283
-30
-1
-77
-80
-46
-39
-31
-8
10
28
50
72
96
123
151
177
205
230
248
258
263
262
255
237
206
164
112
54
-7
-65
-114
-153
-180
-198
-207
-210
-209
-205
-199
-193
-189
-183
-176
-171
-167
-161
-155
-150
-148
-146
-143
-142
-144
-146
-144
-140
-137
-137
-138
-136
-133
-130
-131
-130
-124
-118
-121
-127
-123
-107
-83
-61
-47
-45
-59
-80
-94
-94
-91
-90
-87
-87
-89
-78
-54
-55
-118
-134
207
1011
1732
1615
665
-272
-513
-228
3
-20
-82
-54
-19
-14
-1
19
36
61
90
112
137
168
199
228
255
279
300
311
310
298
281
256
219
169
109
45
-17
-73
-119
-154
-179
-194
-202
-205
-206
-205
-200
-194
-186
-179
-174
-171
-167
-162
-155
-150
-147
-145
-145
-144
-143
-142
-141
-141
-142
-142
-140
-139
-137
-136
-135
-132
-130
-128
-124
-123
-124
-125
-120
-105
-83
-61
-48
-49
-64
-83
-91
-89
-88
-88
-87
-91
-92
-73
-48
-64
-142
-132
282
1126
1773
1524
528
-333
-480
-181
7
-36
-85
-52
-25
-22
-5
17
33
57
85
110
136
167
200
235
268
295
315
325
324
315
298
268
220
159
91
23
-41
-97
-140
-171
-191
-203
-209
-210
-208
-205
-201
-195
-187
-177
-169
-163
-158
-152
-147
-143
-140
-136
-134
-132
-132
-132
-131
-130
-129
-128
-128
-127
-127
-126
-127
-126
-125
-122
-118
-113
-112
-117
-123
-119
-100
-73
-52
-44
-48
-63
-81
-90
-91
-91
-90
-89
-95
-94
-69
-47
-81
-169
-125
355
1233
1856
1578
592
-243
-398
-142
9
-47
-97
-66
-43
-40
-23
-1
16
38
64
89
118
149
180
214
247
276
298
312
317
313
298
267
218
155
83
10
-57
-113
-156
-186
-205
-215
-219
-219
-217
-212
-205
-198
-191
-183
-175
-169
-163
-157
-152
-147
-143
-139
-136
-134
-133
-130
-127
-125
-125
-124
-123
-122
-121
-118
-115
-113
-111
-110
-108
-107
-105
-103
-101
-97
-96
-100
-108
-110
-95
-69
-45
-31
-30
-40
-56
-71
-76
-76
-77
-75
-75
-82
-76
-49
-39
-93
-164
-16
596
1459
1850
1322
314
-334
-325
-66
13
-61
-85
-50
-35
-31
-9
10
26
49
73
97
126
156
187
218
248
275
295
307
309
303
286
254
206
145
76
7
-57
-111
-153
-183
-201
-212
-216
-216
-212
-207
-200
-191
-184
-177
-171
-166
-161
-156
-151
-146
-142
-139
-137
-134
-131
-130
-128
-127
-125
-124
-122
-121
-119
-117
-116
-115
-113
-111
-109
-107
-106
-104
-102
-98
-93
-95
-105
-112
-103
-79
-51
-34
-29
-36
-51
-69
-77
-77
-77
-75
-73
-78
-80
-59
-38
-67
-145
-104
343
1172
1775
1525
586
-226
-387
-138
20
-30
-81
-54
-28
-24
-8
12
26
46
72
97
124
152
179
206
235
262
282
292
294
289
276
251
213
162
101
35
-31
-87
-130
-163
-186
-202
-210
-211
-208
-204
-199
-193
-186
-181
-174
-166
-160
-157
-154
-148
-144
-142
-142
-140
-137
-134
-133
-134
-135
-134
-131
-128
-127
-127
-126
-126
-125
-121
-116
-113
-110
-109
-113
-119
-117
-101
-76
-54
-41
-41
-54
-72
-84
-87
-89
-89
-85
-87
-89
-73
-50
-63
-132
-120
273
1086
1726
1507
542
-315
-478
-187
9
-29
-80
-50
-22
-18
-2
19
35
58
84
106
132
163
194
223
252
278
299
309
307
298
283
258
219
166
105
43
-18
-73
-121
-159
-185
-200
-205
-206
-207
-207
-202
-196
-191
-187
-181
-173
-167
-163
-158
-151
-148
-149
-150
-147
-143
-141
-140
-140
-140
-139
-138
-137
-135
-134
-133
-133
-132
-127
-119
-104
-84
-65
-55
-62
-81
-98
-102
-103
-104
-102
-101
-103
-96
-74
-64
-107
-150
77
783
1589
1710
908
-115
-542
-333
-48
-17
-84
-73
-33
-29
-24
0
22
44
67
89
115
147
181
215
248
277
299
313
315
307
291
265
224
168
102
34
-29
-86
-135
-172
-197
-210
-216
-218
-218
-216
-211
-206
-198
-190
-181
-174
-168
-162
-155
-149
-146
-146
-144
-142
-139
-138
-137
-136
-135
-135
-136
-136
-134
-131
-129
-130
-132
-129
-116
-95
-72
-57
-57
-74
-92
-101
-104
-104
-100
-99
-104
-96
-72
-62
-110
-173
-7
637
1503
1826
1202
165
-423
-341
-64
-5
-83
-95
-57
-46
-41
-17
4
21
44
69
95
125
158
191
224
254
279
298
308
308
297
274
234
177
108
35
-36
-99
-150
-187
-212
-226
-232
-233
-232
-228
-222
-214
-206
-198
-190
-183
-176
-170
-164
-159
-153
-149
-147
-145
-143
-141
-140
-140
-139
-136
-135
-139
-143
-138
-122
-100
-80
-68
-70
-87
-106
-116
-118
-116
-112
-115
-122
-110
-83
-82
-144
-193
46
776
1636
1847
1121
92
-420
-301
-57
-35
-115
-117
-81
-72
-62
-38
-18
1
25
50
77
108
140
173
206
237
261
277
286
286
275
250
208
150
80
6
-62
-121
-168
-201
-221
-231
-235
-235
-231
-225
-218
-209
-199
-191
-183
-175
-168
-162
-157
-153
-148
-145
-142
-139
-136
-134
-132
-128
-126
-128
-131
-129
-117
-97
-75
-58
-54
-65
-87
-103
-107
-106
-104
-102
-109
-109
-88
-66
-91
-172
-132
339
1225
1875
1613
618
-242
-415
-166
-18
-77
-128
-99
-75
-72
-55
-32
-14
8
33
58
86
116
147
178
209
234
253
264
267
262
246
215
168
107
38
-31
-93
-144
-183
-209
-224
-231
-233
-231
-225
-217
-208
-200
-191
-182
-175
-169
-163
-157
-152
-147
-143
-140
-138
-136
-135
-134
-131
-127
-129
-133
-132
-126
-115
-99
-78
-62
-64
-85
-104
-107
-105
-104
-101
-104
-108
-93
-65
-73
-145
-173
140
932
1731
1768
922
-60
-437
-248
-29
-39
-110
-99
-68
-65
-53
-30
-14
7
34
59
83
111
141
169
196
220
238
248
249
244
232
208
168
117
58
-6
-68
-120
-159
-189
-211
-222
-224
-223
-220
-215
-208
-200
-192
-184
-177
-169
-161
-156
-154
-153
-149
-145
-139
-135
-135
-137
-134
-129
-129
-134
-133
-125
-114
-101
-85
-68
-66
-83
-102
-107
-105
-101
-98
-101
-104
-89
-63
-67
-134
-161
145
924
1703
1714
845
-137
-488
-264
-22
-28
-100
-84
-47
-41
-29
-6
10
29
55
81
106
133
163
194
222
243
257
264
263
255
242
217
179
129
73
15
-41
-94
-137
-170
-191
-203
-209
-209
-206
-202
-199
-194
-187
-181
-177
-172
-164
-157
-153
-151
-149
-146
-147
-149
-147
-145
-147
-148
-145
-143
-144
-145
-141
-133
-122
-107
-89
-81
-93
-111
-118
-117
-118
-116
-113
-114
-107
-84
-72
-109
-162
1
629
1471
1767
1119
73
-500
-390
-87
-10
-80
-89
-51
-39
-33
-10
10
28
53
78
104
134
165
196
227
253
270
280
283
277
262
236
197
147
89
25
-36
-90
-133
-167
-191
-204
-210
-212
-211
-209
-203
-196
-187
-179
-171
-163
-155
-150
-145
-141
-139
-137
-135
-133
-131
-129
-128
-128
-128
-129
-128
-123
-120
-123
-127
-128
-123
-114
-97
-75
-60
-65
-85
-97
-95
-93
-92
-89
-91
-97
-83
-54
-57
-125
-165
114
873
1678
1763
956
-29
-430
-246
-11
-12
-87
-77
-43
-39
-28
-4
15
34
60
85
112
142
173
205
237
265
286
299
304
301
287
258
215
157
88
18
-47
-104
-149
-180
-200
-211
-216
-216
-214
-208
-200
-193
-185
-178
-171
-164
-156
-150
-145
-140
-137
-134
-132
-130
-128
-126
-124
-123
-123
-123
-121
-118
-116
-115
-113
-111
-109
-107
-104
-102
-100
-99
-95
-90
-85
-87
-96
-99
-85
-58
-34
-22
-23
-31
-45
-62
-70
-71
-72
-72
-70
-76
-80
-62
-37
-60
-141
-134
247
1056
1758
1660
778
-118
-394
-182
7
-24
-89
-70
-41
-37
-23
1
17
37
62
85
110
138
167
196
226
253
274
288
293
291
280
258
220
167
103
34
-33
-92
-140
-175
-200
-215
-223
-225
-223
-219
-213
-205
-199
-193
-187
-182
-176
-171
-167
-163
-158
-154
-151
-150
-148
-146
-144
-142
-140
-138
-136
-134
-131
-129
-126
-124
-121
-118
-115
-114
-111
-109
-106
-103
-101
-97
-91
-90
-96
-103
-96
-74
-45
-24
-17
-22
-34
-52
-64
-65
-62
-64
-63
-60
-66
-64
-38
-20
-60
-138
-58
455
1302
1823
1456
483
-261
-342
-80
44
-19
-57
-24
-3
0
19
41
58
80
104
128
155
186
216
247
277
302
320
331
333
327
313
286
244
187
122
55
-9
-64
-108
-141
-164
-176
-182
-184
-183
-180
-176
-169
-162
-157
-152
-146
-139
-134
-131
-129
-126
-122
-119
-117
-115
-114
-115
-115
-114
-115
-116
-116
-115
-114
-114
-114
-113
-113
-113
-113
-114
-113
-112
-112
-113
-114
-113
-110
-107
-109
-118
-129
-128
-109
-84
-65
-58
-63
-78
-97
-111
-115
-117
-120
-121
-124
-130
-122
-98
-99
-157
-203
16
692
1491
1682
987
7
-473
-344
-93
-61
-136
-138
-100
-90
-83
-61
-44
-27
-5
20
47
78
108
135
165
194
218
232
238
237
232
220
194
153
100
44
-12
-67
-115
-153
-179
-192
-196
-194
-189
-183
-173
-159
-144
-132
-121
-108
-95
-81
-66
-50
-37
