# session 5
-61
-54
-45
-40
-45
-54
-56
-51
-50
-52
-55
-58
-65
-71
-68
-59
-53
-48
-39
-28
-26
-39
-55
-66
-70
-65
-60
-64
-71
-61
-39
-38
-96
-98
279
1128
1856
1692
690
-261
-490
-214
-13
-50
-104
-74
-47
-45
-30
-8
11
39
70
96
127
167
208
245
277
303
323
333
330
313
281
231
164
87
7
-66
-130
-180
-212
-232
-246
-253
-253
-249
-245
-241
-236
-231
-224
-214
-206
-199
-195
-190
-184
-179
-176
-174
-172
-172
-171
-168
-166
-167
-166
-159
-156
-159
-161
-156
-148
-143
-136
-120
-103
-99
-112
-124
-125
-121
-118
-113
-114
-117
-102
-74
-71
-133
-180
90
879
1744
1852
1003
-46
-476
-284
-38
-36
-105
-89
-54
-51
-37
-7
13
33
63
98
137
178
216
255
294
327
350
364
369
364
342
298
233
154
71
-7
-72
-122
-158
-182
-197
-204
-206
-204
-200
-198
-193
-184
-174
-166
-163
-161
-155
-146
-138
-134
-132
-132
-130
-127
-125
-126
-128
-128
-124
-122
-122
-124
-124
-123
-123
-122
-119
-114
-111
-109
-106
-103
-101
-98
-97
-96
-95
-92
-89
-85
-82
-80
-76
-70
-68
-74
-79
-72
-50
-23
-7
-4
-9
-20
-35
-45
-48
-50
-50
-47
-52
-60
-45
-15
-26
-108
-143
165
968
1824
1958
1170
143
-343
-231
-21
-20
-96
-93
-58
-50
-38
-13
7
25
51
79
110
144
181
219
258
296
327
350
364
368
359
330
278
205
123
41
-34
-98
-148
-183
-204
-216
-223
-225
-223
-217
-210
-201
-193
-187
-183
-178
-173
-170
-168
-165
-162
-159
-158
-157
-156
-154
-152
-150
-149
-148
-146
-144
-144
-143
-140
-137
-134
-132
-131
-129
-125
-121
-118
-116
-114
-112
-110
-107
-105
-103
-102
-99
-96
-93
-92
-89
-86
-84
-80
-79
-83
-90
-86
-65
-38
-21
-15
-17
-26
-39
-51
-56
-53
-53
-56
-53
-52
-59
-51
-23
-19
-82
-150
27
692
1604
2015
1474
437
-249
-279
-51
10
-68
-92
-57
-43
-36
-13
8
27
52
79
106
138
173
209
250
290
326
355
374
382
378
357
315
252
172
86
5
-65
-120
-160
-186
-202
-210
-212
-211
-207
-201
-195
-188
-181
-176
-172
-168
-164
-161
-158
-155
-152
-150
-147
-144
-143
-141
-139
-136
-134
-132
-130
-128
-126
-124
-122
-120
-119
-117
-114
-111
-110
-109
-107
-105
-103
-100
-99
-97
-94
-92
-91
-91
-90
-89
-86
-84
-81
-79
-77
-76
-75
-72
-69
-71
-78
-79
-66
-40
-18
-7
-8
-17
-31
-46
-54
-53
-54
-57
-55
-57
-63
-52
-24
-30
-103
-155
89
829
1705
1940
1239
212
-328
-248
-27
-8
-87
-89
-53
-45
-36
-12
7
26
53
79
107
138
173
210
250
289
324
351
368
374
367
343
298
232
152
70
-7
-75
-131
-172
-199
-214
-220
-222
-221
-218
-213
-207
-201
-194
-187
-181
-176
-171
-167
-165
-163
-159
-155
-151
-149
-148
-148
-146
-142
-139
-138
-137
-136
-133
-131
-129
-128
-126
-122
-119
-117
-114
-110
-107
-107
-107
-104
-100
-97
-96
-95
-92
-89
-85
-81
-80
-84
-92
-95
-84
-60
-35
-19
-13
-17
-32
-49
-59
-61
-60
-57
-57
-64
-58
-35
-25
-68
-137
-20
554
1429
1888
1415
394
-309
-332
-70
19
-58
-87
-51
-34
-30
-9
11
27
52
81
109
140
175
212
251
289
321
345
359
364
359
339
299
239
166
87
9
-59
-114
-157
-187
-206
-215
-218
-219
-219
-217
-213
-208
-202
-196
-190
-186
-183
-179
-174
-169
-165
-163
-162
-160
-156
-155
-155
-154
-152
-150
-150
-149
-146
-144
-143
-142
-140
-136
-132
-130
-127
-125
-123
-119
-113
-110
-116
-122
-117
-97
-71
-50
-41
-46
-60
-73
-82
-85
-83
-80
-85
-85
-67
-43
-60
-139
-133
277
1123
1791
1578
606
-262
-437
-164
10
-38
-89
-57
-30
-27
-10
13
30
53
81
109
140
177
215
256
298
337
367
387
395
391
371
328
263
181
94
11
-63
-123
-168
-197
-214
-223
-226
-225
-222
-218
-213
-207
-199
-191
-184
-178
-173
-167
-161
-155
-152
-149
-147
-146
-145
-145
-144
-144
-143
-142
-141
-140
-139
-138
-137
-137
-134
-131
-132
-137
-141
-132
-111
-86
-66
-59
-67
-85
-100
-106
-107
-103
-101
-108
-107
-85
-64
-94
-177
-118
398
1293
1859
1481
455
-322
-397
-123
-4
-74
-111
-75
-56
-53
-33
-10
8
33
60
88
123
160
198
238
278
314
342
360
367
361
338
291
223
140
54
-27
-97
-151
-190
-214
-227
-232
-233
-230
-226
-220
-214
-207
-200
-192
-184
-178
-172
-166
-162
-158
-154
-151
-149
-148
-147
-147
-146
-146
-145
-145
-144
-142
-138
-137
-140
-145
-144
-132
-111
-86
-67
-63
-76
-95
-107
-112
-111
-106
-107
-112
-103
-78
-69
-122
-186
14
724
1609
1860
1142
89
-440
-313
-54
-27
-107
-107
-68
-60
-51
-27
-7
14
41
69
99
134
170
207
248
286
318
340
351
350
336
305
253
181
99
16
-59
-120
-166
-198
-217
-227
-230
-229
-226
-222
-217
-211
-204
-196
-188
-180
-174
-169
-164
-158
-155
-153
-152
-152
-151
-150
-149
-149
-148
-146
-147
-151
-152
-146
-130
-109
-89
-76
-77
-95
-114
-123
-124
-120
-117
-121
-123
-106
-79
-89
-166
-176
215
1086
1831
1689
715
-219
-458
-206
-23
-70
-129
-101
-72
-69
-51
-26
-7
17
45
73
105
140
177
214
251
284
308
322
325
319
300
261
201
124
44
-30
-94
-146
-185
-209
-222
-228
-229
-227
-223
-218
-213
-206
-197
-189
-182
-176
-170
-165
-161
-158
-155
-153
-152
-151
-150
-150
-149
-149
-152
-154
-150
-137
-118
-96
-78
-77
-94
-115
-125
-127
-124
-119
-119
-123
-110
-85
-86
-158
-205
96
914
1755
1802
925
-83
-454
-248
-29
-52
-126
-110
-77
-70
-54
-28
-11
7
33
61
93
128
160
194
230
262
282
292
294
287
269
234
180
114
44
-22
-82
-135
-175
-201
-215
-221
-221
-220
-217
-214
-208
-199
-191
-186
-181
-175
-169
-164
-159
-154
-151
-149
-150
-154
-155
-152
-148
-142
-127
-105
-95
-106
-127
-138
-139
-137
-134
-137
-141
-126
-99
-106
-183
-230
66
862
1665
1682
808
-167
-499
-270
-44
-61
-128
-107
-74
-72
-58
-31
-12
8
35
63
95
132
167
199
228
255
275
283
278
266
245
209
156
92
26
-36
-92
-137
-172
-195
-208
-214
-217
-215
-210
-203
-197
-192
-185
-178
-170
-165
-159
-153
-145
-141
-143
-144
-141
-134
-130
-127
-116
-97
-84
-93
-113
-125
-128
-129
-127
-126
-129
-121
-98
-88
-139
-216
-59
596
1467
1758
1087
46
-496
-366
-79
-28
-102
-102
-61
-52
-44
-17
5
22
47
74
104
141
179
218
254
282
301
308
303
289
269
234
179
109
39
-24
-82
-135
-176
-202
-217
-224
-225
-221
-217
-215
-212
-205
-196
-189
-184
-180
-173
-165
-160
-160
-159
-154
-151
-153
-157
-157
-153
-149
-138
-119
-108
-115
-132
-142
-147
-149
-146
-143
-146
-139
-117
-102
-141
-214
-90
528
1436
1849
1273
198
-459
-409
-123
-49
-123
-134
-91
-80
-74
-48
-23
-3
23
51
82
119
158
197
233
263
283
294
300
296
277
238
181
112
39
-32
-94
-145
-183
-210
-228
-237
-238
-235
-231
-227
-220
-212
-206
-201
-195
-186
-177
-172
-168
-162
-157
-155
-152
-150
-150
-152
-152
-146
-140
-135
-126
-112
-101
-104
-116
-124
-127
-130
-127
-121
-121
-116
-94
-76
-106
-175
-68
521
1443
1934
1431
347
-388
-399
-112
-12
-81
-100
-61
-46
-39
-12
14
36
64
95
129
169
209
249
290
327
355
373
381
378
361
325
269
195
114
38
-27
-82
-124
-151
-166
-172
-174
-174
-171
-164
-157
-150
-145
-138
-129
-121
-113
-108
-105
-102
-99
-95
-93
-93
-93
-92
-92
-93
-94
-93
-90
-88
-88
-86
-83
-82
-82
-78
-72
-68
-67
-68
-66
-62
-61
-59
-57
-56
-56
-54
-50
-49
-49
-48
-46
-46
-46
-47
-46
-45
-44
-44
-42
-41
-41
-42
-41
-39
-41
-43
-43
-40
-39
-41
-43
-44
-42
-40
-41
-43
-44
-44
-44
-44
-45
-45
-44
-44
-45
-44
-43
-44
-45
-46
-46
-46
-45
-44
-46
-48
-43
-28
-10
-2
-6
-11
-17
-27
-38
-48
-54
-53
-49
-56
-59
-38
-19
-58
-146
-101
374
1270
1976
1811
861
-61
-350
-168
-19
-64
-123
-103
-78
-72
-54
-29
-10
13
41
66
92
124
160
197
234
271
304
331
348
357
358
346
314
259
190
114
41
-25
-82
-127
-160
-182
-195
-200
-199
-194
-187
-180
-174
-168
-164
-159
-156
-154
-151
-149
-148
-148
-148
-148
-150
-154
-157
-156
-154
-153
-152
-150
-147
-144
-140
-136
-133
-129
-125
-122
-117
-112
-110
-109
-105
-100
-96
-93
-90
-88
-84
-81
-79
-78
-75
-72
-70
-69
-68
-67
-65
-64
-62
-58
-53
-50
-50
-50
-48
-48
-48
-48
-48
-46
-44
-43
-42
-41
-40
-39
-38
-37
-37
-36
-35
-34
-35
-34
-32
-31
-32
-31
-22
-6
9
16
14
7
-3
-16
-27
-29
-30
-32
-30
-32
-41
-31
-1
-6
-81
-135
98
819
1706
2007
1373
342
-270
-250
-31
7
-72
-88
-54
-42
-35
-12
8
26
51
77
103
134
167
202
241
281
319
351
374
387
387
374
342
287
212
126
42
-33
-97
-146
-182
-206
-220
-226
-227
-225
-222
-217
-211
-205
-200
-195
-191
-188
-184
-179
-176
-173
-170
-166
-163
-159
-156
-153
-151
-149
-146
-142
-139
-137
-134
-131
-128
-125
-122
-119
-117
-114
-111
-107
-105
-102
-100
-97
-94
-92
-90
-88
-85
-83
-81
-78
-76
-74
-72
-71
-70
-68
-65
-63
-61
-60
-58
-56
-56
-54
-50
-48
-47
-47
-47
-47
-46
-44
-43
-43
-42
-41
-38
-36
-32
-23
-6
8
13
10
3
-9
-22
-31
-36
-35
-31
-36
-42
-25
0
-18
-97
-117
211
1007
1803
1854
1033
56
-352
-201
1
-11
-82
-72
-41
-36
-24
1
19
39
65
90
119
153
189
227
268
310
350
382
404
414
411
391
349
285
202
112
26
-49
-112
-160
-191
-211
-221
-226
-227
-225
-222
-219
-218
-216
-211
-206
-200
-196
-192
-189
-185
-179
-173
-169
-167
-164
-161
-158
-155
-152
-150
-147
-145
-143
-140
-138
-137
-134
-130
-126
-124
-122
-119
-117
-114
-112
-109
-105
-103
-102
-100
-97
-94
-92
-91
-90
-87
-85
-82
-79
-76
-75
-72
-68
-64
-62
-61
-60
-62
-64
-57
-37
-13
3
7
2
-11
-28
-40
-43
-42
-38
-41
-51
-45
-19
-11
-61
-127
27
660
1542
1917
1341
298
-345
-312
-49
18
-60
-76
-37
-24
-18
3
21
37
61
87
112
143
177
214
254
293
328
358
377
384
382
368
334
276
201
120
41
-36
-104
-156
-191
-216
-234
-241
-240
-238
-239
-240
-236
-229
-224
-219
-212
-203
-196
-193
-190
-186
-180
-174
-168
-165
-162
-160
-159
-158
-157
-155
-152
-150
-149
-147
-143
-140
-139
-138
-135
-131
-128
-126
-122
-118
-120
-123
-118
-104
-84
-65
-52
-48
-59
-76
-85
-89
-90
-89
-91
-95
-83
-58
-52
-104
-154
71
789
1624
1779
993
-48
-509
-327
-49
-17
-86
-77
-40
-33
-20
7
24
41
66
93
124
163
205
248
294
338
377
408
428
433
421
390
336
262
172
78
-11
-85
-142
-183
-212
-230
-240
-247
-250
-248
-243
-237
-233
-227
-218
-210
-204
-201
-195
-189
-183
-178
-173
-168
-164
-161
-158
-154
-150
-150
-151
-149
-144
-139
-139
-139
-137
-136
-136
-135
-126
-108
-85
-68
-63
-72
-87
-99
-104
-107
-103
-98
-101
-101
-82
-61
-84
-153
-61
504
1403
1881
1378
299
-427
-423
-121
-10
-79
-100
-58
-40
-35
-13
8
24
49
80
111
146
184
225
273
320
360
392
413
422
414
388
342
273
185
91
2
-75
-137
-182
-212
-229
-238
-242
-243
-242
-239
-234
-228
-222
-217
-211
-204
-199
-193
-186
-181
-177
-175
-173
-172
-170
-168
-166
-165
-164
-163
-161
-160
-162
-167
-170
-165
-154
-137
-120
-107
-104
-115
-130
-139
-143
-141
-135
-136
-135
-118
-93
-101
-166
-175
186
1028
1803
1733
792
-187
-493
-258
-50
-79
-139
-112
-81
-79
-62
-35
-16
7
35
63
97
139
181
224
269
314
353
380
394
395
379
340
275
189
95
3
-78
-142
-189
-221
-240
-251
-255
-255
-253
-249
-241
-231
-223
-217
-209
-201
-193
-187
-183
-178
-172
-167
-163
-161
-159
-157
-154
-148
-144
-144
-147
-145
-139
-132
-122
-105
-85
-78
-90
-103
-105
-102
-99
-93
-95
-97
-80
-52
-57
-124
-149
162
957
1779
1856
1031
29
-387
-224
-9
-17
-90
-79
-46
-40
-27
-1
19
40
67
95
125
161
200
243
288
329
365
394
409
410
394
359
299
217
124
33
-48
-113
-162
-196
-217
-227
-232
-233
-233
-232
-229
-223
-215
-207
-201
-198
-195
-190
-184
-181
-178
-176
-175
-176
-176
-173
-170
-172
-180
-184
-181
-175
-168
-154
-136
-127
-137
-156
-166
-167
-168
-166
-165
-172
-169
-144
-128
-173
-251
-134
462
1373
1863
1399
358
-380
-436
-188
-98
-172
-204
-170
-152
-146
-123
-101
-83
-57
-28
0
34
71
111
153
195
232
263
284
294
291
270
227
160
79
-6
-85
-152
-203
-238
-258
-268
-271
-268
-262
-254
-243
-232
-220
-207
-193
-182
-170
-159
-147
-136
-126
-116
-107
-97
-87
-79
-70
-58
-47
-40
-36
-26
-10
8
30
60
90
105
100
92
99
113
127
141
154
160
176
214
241
205
142
302
955
1869
2279
1722
680
51
78
