# session 25
46
630
1476
1961
1477
432
-276
-301
-27
81
8
-26
10
25
27
48
69
84
105
129
154
181
209
234
260
281
295
301
299
287
266
236
196
145
86
25
-35
-87
-129
-159
-179
-191
-197
-197
-194
-189
-183
-177
-170
-164
-158
-152
-147
-144
-141
-137
-136
-136
-136
-136
-136
-137
-135
-134
-137
-141
-138
-125
-106
-86
-72
-69
-82
-103
-118
-123
-124
-120
-119
-126
-124
-100
-84
-126
-200
-101
458
1350
1866
1440
404
-360
-428
-156
-37
-104
-139
-104
-85
-81
-59
-35
-16
7
32
58
87
117
145
171
194
207
213
211
203
188
162
126
80
26
-30
-84
-131
-168
-196
-213
-222
-224
-223
-219
-212
-204
-195
-187
-180
-174
-167
-160
-155
-152
-147
-143
-141
-140
-140
-139
-136
-135
-137
-137
-128
-110
-90
-72
-57
-57
-76
-98
-107
-107
-108
-107
-109
-113
-100
-72
-68
-126
-185
17
710
1587
1871
1200
149
-425
-335
-68
-17
-94
-103
-64
-53
-44
-20
0
19
44
68
94
122
150
176
201
218
226
226
221
213
197
172
137
93
43
-11
-61
-105
-139
-162
-178
-186
-189
-189
-185
-180
-175
-169
-164
-159
-155
-151
-148
-147
-146
-147
-148
-146
-143
-147
-156
-161
-156
-146
-136
-122
-102
-91
-102
-125
-137
-138
-136
-131
-132
-138
-127
-98
-96
-163
-223
-6
700
1552
1783
1084
61
-462
-344
-80
-38
-113
-117
-78
-69
-61
-38
-18
1
27
52
75
102
130
158
183
198
203
201
194
183
169
148
119
79
34
-10
-51
-89
-122
-147
-162
-169
-169
-166
-163
-161
-155
-147
-141
-138
-136
-132
-128
-129
-133
-137
-137
-138
-143
-145
-142
-136
-128
-113
-93
-85
-100
-123
-134
-135
-133
-129
-133
-139
-125
-96
-100
-172
-220
37
765
1554
1653
872
-101
-505
-318
-62
-44
-115
-107
-69
-61
-50
-25
-5
14
40
65
90
118
143
166
185
195
195
189
178
163
143
115
81
42
-1
-45
-88
-127
-156
-175
-187
-194
-194
-191
-185
-178
-172
-165
-157
-149
-144
-139
-135
-131
-127
-123
-122
-124
-125
-121
-114
-105
-90
-70
-58
-70
-94
-109
-113
-112
-109
-110
-116
-106
-76
-73
-147
-227
-29
676
1557
1827
1149
117
-429
-330
-71
-29
-107
-114
-77
-68
-61
-37
-16
2
26
51
75
101
125
147
167
180
184
180
170
155
138
114
82
41
-4
-51
-94
-131
-159
-179
-191
-197
-198
-195
-189
-182
-175
-168
-162
-154
-147
-140
-136
-133
-131
-128
-125
-123
-127
-134
-135
-128
-120
-111
-95
-75
-68
-82
-102
-110
-111
-110
-107
-110
-115
-99
-72
-82
-164
-206
98
896
1719
1785
947
-55
-461
-281
-52
-54
-127
-117
-85
-80
-68
-42
-22
-3
23
48
74
102
128
149
167
177
180
176
167
154
137
111
77
36
-11
-60
-105
-144
-173
-191
-200
-203
-203
-199
-195
-189
-181
-172
-164
-158
-153
-148
-144
-139
-134
-133
-134
-132
-126
-125
-132
-139
-137
-127
-114
-99
-79
-67
-75
-95
-107
-109
-108
-103
-101
-108
-104
-77
-63
-113
-193
-68
543
1450
1900
1382
326
-374
-378
-102
-7
-78
-103
-70
-59
-55
-32
-11
6
31
58
81
105
130
153
173
186
189
184
174
161
145
125
99
62
17
-29
-72
-111
-144
-167
-181
-188
-192
-192
-187
-178
-167
-160
-156
-150
-141
-131
-123
-118
-116
-116
-116
-117
-119
-119
-116
-115
-119
-123
-120
-111
-101
-91
-77
-64
-66
-86
-107
-113
-110
-106
-106
-113
-114
-93
-67
-82
-158
-158
219
1039
1745
1612
671
-253
-503
-244
-30
-56
-117
-92
-58
-52
-37
-13
8
31
55
76
101
129
154
173
187
194
193
185
172
157
139
114
82
45
4
-39
-81
-118
-147
-168
-181
-187
-188
-187
-183
-177
-170
-164
-158
-152
-146
-142
-139
-137
-136
-135
-136
-135
-134
-132
-131
-132
-132
-128
-122
-123
-128
-130
-124
-114
-100
-79
-61
-60
-77
-93
-96
-94
-94
-91
-90
-94
-85
-58
-52
-109
-167
46
746
1582
1776
1039
14
-472
-315
-40
-3
-78
-78
-41
-32
-23
2
22
43
70
95
119
146
174
198
219
231
235
231
221
206
186
158
123
80
31
-19
-68
-110
-144
-168
-182
-189
-192
-192
-187
-180
-173
-167
-160
-154
-147
-141
-136
-132
-129
-128
-128
-129
-130
-131
-131
-130
-130
-133
-132
-127
-124
-129
-135
-136
-129
-116
-96
-74
-63
-71
-92
-105
-105
-103
-102
-99
-104
-108
-90
-63
-80
-159
-175
175
989
1749
1712
828
-125
-447
-233
-22
-42
-110
-92
-61
-57
-42
-16
3
25
50
74
100
128
154
179
200
214
218
215
207
194
175
146
107
62
12
-39
-86
-126
-157
-178
-191
-196
-196
-193
-188
-181
-174
-166
-157
-150
-143
-137
-132
-126
-122
-120
-117
-113
-110
-110
-111
-110
-109
-108
-107
-105
-104
-102
-99
-95
-96
-103
-108
-100
-76
-49
-30
-25
-34
-54
-72
-78
-78
-79
-78
-79
-89
-91
-69
-54
-97
-181
-98
438
1311
1828
1423
413
-339
-407
-137
-15
-80
-117
-82
-61
-56
-35
-13
5
28
54
78
104
131
156
180
198
208
211
209
202
188
166
136
97
51
0
-50
-95
-132
-160
-178
-188
-192
-192
-189
-184
-177
-169
-160
-152
-146
-141
-136
-132
-128
-123
-119
-117
-116
-114
-112
-112
-112
-111
-109
-108
-108
-108
-104
-100
-101
-108
-112
-104
-80
-53
-35
-33
-42
-61
-78
-85
-86
-88
-88
-89
-95
-91
-65
-51
-97
-175
-68
494
1354
1809
1347
339
-359
-382
-108
1
-63
-92
-58
-42
-37
-14
9
23
44
68
91
116
142
166
187
203
210
208
200
186
169
150
125
90
46
-2
-51
-96
-133
-160
-177
-188
-195
-198
-197
-190
-182
-178
-173
-166
-159
-153
-151
-147
-144
-143
-140
-136
-132
-132
-134
-134
-131
-128
-129
-133
-131
-126
-124
-126
-123
-107
-83
-61
-52
-57
-73
-92
-103
-103
-103
-102
-99
-101
-99
-80
-58
-78
-146
-102
351
1193
1781
1460
438
-394
-503
-194
-13
-57
-97
-59
-32
-29
-10
15
33
56
82
107
135
163
188
209
227
238
240
232
217
199
176
148
113
74
28
-23
-72
-109
-134
-154
-169
-181
-188
-189
-184
-176
-168
-162
-156
-150
-146
-143
-142
-140
-136
-132
-129
-128
-128
-127
-129
-133
-134
-131
-130
-133
-137
-133
-123
-111
-98
-82
-71
-75
-92
-105
-107
-106
-105
-104
-107
-110
-95
-70
-71
-124
-124
216
998
1707
1604
667
-288
-560
-285
-39
-44
-98
-72
-41
-39
-24
2
22
46
75
99
124
155
187
215
234
244
246
240
226
208
183
148
105
58
8
-42
-90
-132
-166
-190
-203
-207
-207
-206
-203
-199
-192
-184
-176
-169
-163
-156
-149
-146
-145
-143
-139
-137
-135
-135
-139
-143
-141
-135
-130
-126
-115
-98
-91
-105
-122
-130
-132
-130
-122
-121
-125
-116
-91
-89
-145
-174
105
865
1689
1794
971
-66
-513
-333
-71
-49
-119
-110
-73
-65
-51
-25
-5
16
43
69
99
133
164
191
215
234
242
240
229
210
184
149
104
51
-7
-65
-116
-156
-184
-203
-214
-218
-219
-218
-213
-205
-196
-186
-177
-170
-165
-161
-156
-149
-144
-140
-135
-131
-133
-139
-142
-138
-130
-118
-102
-85
-79
-92
-111
-122
-124
-123
-117
-114
-122
-117
-88
-77
-134
-205
-43
612
1539
1981
1447
375
-349
-380
-123
-35
-110
-137
-102
-85
-79
-56
-32
-12
12
37
63
94
126
156
183
202
212
215
212
201
182
152
110
57
-2
-61
-115
-158
-189
-211
-223
-226
-225
-221
-216
-207
-198
-188
-180
-172
-165
-159
-154
-148
-142
-138
-136
-135
-130
-124
-124
-129
-133
-129
-121
-109
-93
-73
-64
-73
-93
-103
-104
-103
-99
-99
-108
-103
-75
-63
-118
-196
-63
553
1474
1961
1486
436
-311
-375
-126
-31
-104
-136
-101
-84
-79
-57
-34
-15
8
34
58
86
115
142
166
184
195
200
198
189
174
148
111
64
10
-46
-98
-144
-179
-203
-216
-221
-219
-214
-207
-200
-192
-183
-174
-166
-160
-154
-148
-141
-137
-133
-130
-128
-127
-125
-121
-120
-124
-129
-127
-119
-107
-90
-69
-56
-65
-87
-100
-101
-100
-98
-97
-104
-103
-80
-62
-101
-181
-93
459
1368
1925
1533
494
-305
-408
-149
-26
-91
-131
-99
-81
-77
-55
-32
-16
7
33
57
82
110
136
158
174
183
184
180
171
156
134
104
67
21
-32
-84
-129
-165
-189
-204
-209
-209
-206
-200
-193
-184
-175
-168
-160
-152
-144
-137
-130
-126
-124
-122
-119
-118
-118
-116
-111
-111
-118
-122
-116
-105
-93
-76
-57
-48
-59
-79
-90
-91
-92
-91
-92
-97
-89
-62
-53
-105
-171
-6
635
1505
1849
1248
207
-414
-362
-87
-14
-89
-106
-69
-56
-51
-29
-10
8
32
57
80
106
130
151
170
182
184
178
170
159
144
123
95
59
18
-26
-70
-111
-144
-168
-182
-189
-190
-187
-185
-181
-174
-167
-159
-152
-145
-139
-135
-131
-128
-128
-131
-131
-127
-125
-129
-135
-134
-127
-118
-108
-93
-77
-76
-92
-111
-121
-123
-121
-118
-121
-123
-105
-84
-106
-178
-139
309
1148
1748
1455
458
-376
-509
-219
-40
-80
-124
-91
-66
-63
-44
-20
-3
20
46
70
95
122
144
161
174
178
174
163
148
131
111
85
53
16
-25
-68
-106
-136
-159
-175
-183
-186
-186
-182
-173
-164
-155
-147
-140
-133
-126
-121
-116
-111
-110
-109
-106
-104
-108
-112
-111
-104
-96
-85
-67
-52
-56
-77
-95
-99
-99
-95
-94
-102
-104
-83
-62
-90
-172
-133
333
1207
1843
1573
577
-278
-440
-177
-17
-73
-124
-93
-69
-66
-49
-25
-7
15
40
64
90
117
140
159
171
175
173
168
156
138
113
81
43
0
-46
-92
-133
-166
-190
-204
-211
-212
-209
-204
-197
-189
-180
-170
-162
-154
-146
-140
-136
-132
-130
-128
-124
-123
-128
-135
-133
-125
-114
-101
-83
-67
-69
-89
-106
-110
-109
-107
-104
-110
-111
-89
-66
-98
-187
-150
325
1218
1872
1611
612
-255
-433
-179
-22
-76
-127
-98
-74
-71
-52
-29
-12
11
36
58
83
110
133
152
167
173
170
162
150
135
113
84
48
7
-39
-85
-126
-158
-181
-196
-204
-205
-202
-196
-189
-182
-173
-164
-155
-147
-141
-136
-132
-128
-124
-121
-120
-122
-121
-117
-114
-117
-123
-122
-114
-101
-83
-62
-49
-58
-81
-94
-96
-95
-92
-92
-98
-96
-72
-55
-94
-176
-88
466
1365
1884
1451
409
-346
-400
-125
-10
-79
-113
-78
-61
-58
-37
-15
3
26
50
73
96
119
140
160
175
179
175
165
152
137
117
90
55
13
-32
-77
-118
-151
-174
-189
-196
-199
-198
-192
-184
-176
-168
-158
-151
-147
-141
-134
-129
-127
-125
-123
-124
-125
-124
-118
-115
-120
-127
-127
-119
-108
-93
-74
-58
-59
-79
-97
-101
-99
-96
-95
-101
-103
-82
-57
-77
-154
-140
270
1111
1788
1600
641
-248
-458
-197
-10
-50
-108
-83
-56
-54
-38
-13
5
27
52
75
99
124
145
161
172
176
173
165
150
131
111
90
65
32
-11
-57
-97
-128
-152
-170
-182
-186
-184
-182
-178
-170
-161
-155
-151
-146
-140
-136
-131
-126
-125
-128
-132
-134
-131
-126
-125
-129
-132
-129
-121
-113
-100
-83
-71
-80
-101
-113
-114
-113
-112
-112
-114
-108
-87
-73
-106
-166
-45
530
1385
1788
1242
186
-485
-445
-133
-20
-83
-102
-61
-44
-37
-13
9
25
48
72
97
124
149
170
185
193
193
184
169
152
136
119
93
61
23
-20
-61
-95
-123
-147
-166
-177
-180
-179
-176
-172
-166
-159
-152
-145
-139
-135
-133
-130
-128
-126
-126
-125
-122
-120
-122
-129
-132
-127
-118
-112
-105
-91
-74
-72
-90
-108
-111
-108
-107
-107
-110
-110
-94
-71
-77
-139
-138
233
1054
1762
1612
638
-304
-542
-259
-34
-55
-108
-79
-48
-45
-29
-1
20
42
67
91
119
145
166
186
202
209
203
189
172
152
126
93
57
20
-20
-63
-104
-139
-165
-180
-188
-192
-194
-193
-187
-181
-173
-165
-157
-150
-145
-140
-136
-132
-129
-128
-128
-126
-124
-126
-131
-133
-128
-123
-117
-106
-88
-78
-87
-108
-118
-118
-118
-115
-114
-120
-115
-90
-78
-122
-186
-47
563
1457
1889
1359
299
-400
-399
-118
-23
-96
-120
-81
-66
-61
-38
-14
5
31
58
84
114
143
168
189
204
210
209
200
185
163
133
93
45
-7
-58
-106
-146
-176
-196
-208
-213
-213
-211
-206
-199
-190
-182
-173
-165
-159
-153
-147
-142
-139
-138
-136
-135
-133
-132
-128
-126
-130
-136
-136
-129
-119
-104
-84
-68
-70
-89
-105
-106
-104
-105
-103
-106
-111
-95
-66
-74
-148
-186
100
880
1732
1875
1092
65
-412
-278
-46
-37
-115
-111
-75
-67
-55
-30
-9
12
38
64
89
118
144
169
191
206
212
211
205
192
173
144
105
57
3
-49
-96
-134
-163
-182
-193
-196
-194
-189
-182
-173
-165
-157
-151
-143
-135
-130
-125
-120
-116
-113
-111
-109
-107
-106
-104
-102
-101
-99
-96
-94
-94
-92
-89
-87
-85
-84
-82
-80
-78
-75
-72
-73
-81
-87
-78
-55
-29
-14
-11
-18
-33
-51
-60
-62
-64
-63
-61
-69
-70
-46
-27
-66
-149
-100
355
1185
1787
1541
604
-219
-398
-158
2
-44
-96
-70
-46
-43
-26
-4
12
32
55
77
100
124
146
166
183
192
193
189
180
167
149
124
93
53
7
-42
-88
-129
-162
-185
-199
-206
-206
-202
-196
-189
-181
-173
-166
-159
-152
-145
-139
-135
-130
-125
-121
-118
-115
-111
-107
-102
