# session 23
-10
134
98
31
58
87
83
99
125
139
158
182
203
227
254
278
299
317
327
330
326
317
301
278
245
202
152
96
40
-11
-53
-85
-108
-121
-127
-130
-129
-126
-121
-116
-110
-105
-102
-99
-96
-92
-91
-91
-91
-91
-91
-91
-92
-94
-95
-94
-92
-96
-103
-105
-100
-90
-74
-54
-42
-46
-66
-82
-84
-84
-86
-84
-87
-94
-84
-57
-59
-129
-189
47
785
1651
1850
1104
67
-435
-304
-56
-35
-114
-115
-80
-74
-65
-42
-23
-4
20
44
68
95
121
145
167
182
190
191
186
176
160
136
103
61
12
-40
-91
-136
-171
-197
-213
-221
-223
-221
-217
-210
-201
-192
-185
-179
-173
-167
-162
-156
-152
-149
-146
-143
-142
-141
-139
-137
-135
-133
-131
-128
-125
-123
-119
-113
-111
-114
-118
-117
-107
-89
-65
-46
-41
-53
-69
-75
-75
-76
-75
-71
-77
-76
-51
-33
-72
-155
-88
412
1265
1808
1455
472
-292
-382
-115
18
-43
-83
-48
-25
-22
-4
16
30
51
78
105
130
152
172
193
212
225
229
224
210
192
173
150
120
81
36
-14
-63
-104
-135
-156
-172
-183
-187
-184
-178
-173
-169
-165
-160
-153
-147
-141
-138
-136
-135
-135
-135
-134
-133
-133
-134
-134
-133
-132
-132
-130
-125
-124
-129
-133
-129
-120
-107
-89
-70
-64
-79
-100
-106
-103
-101
-100
-102
-107
-99
-73
-65
-113
-164
31
690
1504
1713
1005
-16
-519
-371
-80
-23
-92
-93
-54
-44
-36
-11
9
27
52
77
101
131
162
188
210
225
234
234
225
209
189
162
128
88
42
-7
-55
-97
-133
-159
-175
-184
-188
-189
-187
-181
-172
-164
-157
-149
-140
-132
-125
-119
-114
-111
-109
-107
-106
-106
-105
-105
-104
-105
-105
-104
-101
-101
-105
-110
-110
-104
-91
-72
-50
-40
-49
-70
-83
-85
-85
-84
-82
-88
-91
-72
-51
-77
-157
-131
294
1122
1749
1518
566
-272
-441
-178
-7
-52
-104
-76
-51
-49
-32
-9
9
30
55
80
108
136
163
188
210
223
228
226
217
201
178
147
106
57
5
-49
-99
-141
-173
-195
-208
-214
-216
-214
-209
-202
-195
-188
-181
-173
-165
-159
-153
-147
-144
-141
-137
-134
-132
-132
-131
-129
-128
-128
-126
-120
-118
-124
-128
-126
-118
-104
-83
-61
-51
-62
-82
-92
-92
-91
-89
-85
-90
-90
-70
-50
-78
-158
-118
343
1195
1801
1520
545
-274
-417
-154
-1
-53
-98
-68
-44
-40
-21
1
17
39
64
88
114
143
173
199
219
230
233
231
223
207
184
155
116
68
15
-40
-91
-133
-163
-182
-193
-200
-204
-203
-199
-193
-186
-178
-172
-168
-164
-157
-147
-141
-141
-141
-139
-135
-131
-131
-130
-129
-127
-130
-134
-134
-130
-123
-112
-95
-77
-73
-88
-106
-112
-112
-112
-109
-108
-115
-109
-83
-74
-127
-184
13
693
1543
1790
1097
57
-484
-365
-84
-26
-99
-106
-68
-57
-47
-22
-1
18
43
69
96
125
153
181
204
217
222
221
215
204
188
166
134
91
41
-8
-53
-95
-133
-163
-181
-190
-196
-196
-191
-184
-181
-179
-174
-165
-157
-150
-146
-143
-142
-140
-137
-136
-138
-138
-134
-133
-136
-136
-130
-121
-114
-102
-83
-72
-84
-107
-116
-114
-110
-109
-112
-118
-108
-82
-71
-110
-155
26
666
1495
1757
1076
19
-545
-418
-105
-24
-91
-96
-52
-39
-32
-9
12
32
59
88
116
145
174
203
230
249
257
256
248
232
208
174
132
84
34
-18
-71
-119
-155
-181
-197
-205
-207
-207
-206
-204
-198
-190
-183
-178
-171
-163
-156
-152
-150
-147
-144
-143
-142
-138
-138
-143
-147
-143
-137
-132
-122
-104
-89
-94
-115
-129
-132
-130
-127
-124
-127
-125
-105
-84
-106
-172
-118
351
1205
1793
1472
457
-373
-494
-203
-33
-79
-121
-87
-61
-55
-34
-10
8
32
61
89
120
153
186
217
243
259
265
263
253
232
200
159
107
48
-13
-70
-120
-159
-186
-203
-213
-217
-216
-213
-207
-200
-192
-183
-176
-169
-162
-155
-147
-142
-138
-134
-129
-125
-126
-133
-136
-133
-126
-117
-102
-84
-74
-84
-104
-115
-114
-114
-111
-108
-114
-114
-89
-69
-109
-192
-124
389
1290
1918
1635
636
-223
-410
-178
-33
-87
-136
-107
-83
-79
-60
-36
-17
6
32
58
86
117
147
175
198
214
222
223
217
203
180
143
93
35
-25
-81
-130
-168
-195
-212
-220
-221
-219
-214
-206
-197
-188
-179
-172
-167
-162
-156
-150
-145
-141
-137
-133
-131
-131
-130
-127
-123
-121
-121
-119
-113
-108
-108
-112
-115
-113
-104
-87
-66
-47
-45
-61
-80
-85
-83
-85
-84
-84
-92
-86
-58
-47
-104
-185
-57
545
1435
1888
1405
378
-332
-367
-107
-9
-78
-108
-72
-56
-51
-29
-7
10
33
57
81
108
136
161
187
209
223
229
230
225
213
193
161
118
67
11
-44
-95
-136
-166
-185
-195
-200
-200
-196
-188
-181
-176
-170
-162
-155
-150
-145
-139
-134
-131
-131
-130
-128
-126
-125
-125
-124
-122
-120
-118
-118
-116
-110
-107
-111
-117
-118
-111
-95
-72
-51
-46
-62
-82
-89
-86
-87
-88
-88
-93
-90
-66
-49
-90
-171
-104
389
1239
1797
1467
487
-298
-412
-149
-8
-65
-108
-74
-49
-46
-28
-5
12
35
61
84
107
134
161
185
202
212
216
214
206
192
173
146
111
69
22
-27
-76
-119
-152
-174
-187
-192
-191
-188
-184
-180
-174
-168
-163
-159
-155
-149
-142
-138
-135
-134
-133
-133
-134
-132
-131
-133
-135
-132
-125
-122
-127
-131
-127
-119
-110
-92
-72
-64
-78
-96
-102
-100
-102
-101
-99
-102
-97
-75
-61
-97
-148
13
629
1452
1740
1101
67
-503
-396
-92
-11
-80
-90
-49
-35
-27
-4
16
33
57
81
105
132
160
187
211
226
231
229
220
204
185
160
128
88
41
-7
-54
-98
-135
-162
-180
-190
-197
-199
-196
-189
-184
-179
-173
-167
-160
-154
-149
-145
-141
-139
-137
-136
-137
-138
-136
-133
-131
-135
-138
-135
-130
-123
-110
-90
-73
-77
-98
-113
-114
-111
-108
-106
-112
-112
-91
-69
-92
-162
-111
354
1203
1799
1500
505
-322
-457
-180
-15
-63
-110
-79
-55
-52
-34
-10
8
32
59
85
114
143
170
197
219
232
234
229
218
201
175
139
94
43
-11
-64
-113
-153
-181
-200
-210
-213
-212
-208
-202
-194
-185
-177
-168
-161
-155
-148
-141
-136
-133
-131
-131
-129
-124
-123
-127
-133
-133
-127
-118
-104
-84
-69
-71
-91
-107
-112
-113
-111
-107
-111
-114
-96
-72
-93
-172
-161
249
1102
1816
1672
724
-198
-455
-219
-31
-68
-129
-105
-76
-72
-56
-31
-13
8
33
59
86
113
139
164
185
199
204
200
191
176
155
124
82
34
-19
-71
-117
-154
-183
-203
-213
-216
-214
-208
-201
-193
-184
-175
-168
-160
-152
-145
-140
-136
-132
-128
-128
-127
-124
-120
-121
-127
-130
-126
-117
-106
-91
-70
-57
-67
-89
-102
-104
-103
-100
-100
-107
-102
-77
-63
-109
-187
-67
532
1433
1889
1381
328
-381
-392
-117
-22
-96
-124
-88
-71
-66
-44
-23
-5
18
43
66
92
120
144
166
182
191
191
184
173
157
134
103
63
17
-32
-81
-124
-159
-184
-199
-205
-205
-204
-199
-192
-183
-174
-165
-158
-150
-142
-135
-131
-127
-124
-123
-123
-122
-119
-117
-121
-127
-126
-118
-107
-93
-74
-57
-57
-76
-94
-99
-99
-96
-93
-98
-102
-86
-63
-80
-158
-157
230
1070
1796
1677
741
-187
-453
-217
-21
-54
-115
-92
-62
-60
-45
-20
0
22
46
66
90
118
142
162
177
184
184
179
169
154
134
110
78
38
-8
-53
-95
-132
-161
-180
-191
-196
-197
-192
-184
-178
-173
-168
-160
-151
-145
-142
-139
-136
-134
-133
-132
-132
-132
-131
-133
-136
-135
-130
-122
-112
-96
-81
-79
-92
-109
-116
-117
-117
-113
-113
-117
-107
-83
-84
-144
-166
132
889
1647
1655
792
-189
-542
-311
-53
-42
-106
-89
-52
-47
-34
-7
14
34
59
83
110
138
162
181
196
204
204
197
183
165
146
124
93
56
16
-28
-71
-108
-140
-166
-181
-185
-185
-185
-184
-177
-170
-164
-159
-152
-145
-143
-141
-136
-131
-130
-133
-132
-130
-132
-136
-133
-125
-121
-116
-102
-86
-82
-98
-114
-119
-119
-119
-115
-115
-118
-108
-85
-82
-132
-144
168
940
1692
1663
761
-225
-554
-305
-49
-43
-102
-81
-48
-46
-31
-1
21
42
69
95
121
149
177
202
221
227
223
214
203
186
160
127
87
44
0
-45
-90
-132
-163
-179
-187
-194
-200
-201
-196
-188
-182
-177
-170
-161
-153
-148
-146
-146
-144
-140
-138
-139
-140
-138
-138
-138
-137
-133
-129
-124
-112
-95
-90
-102
-118
-123
-123
-121
-117
-119
-119
-103
-79
-82
-137
-139
199
991
1732
1666
744
-228
-533
-280
-41
-52
-113
-87
-49
-42
-27
-3
16
39
68
93
120
152
182
208
228
238
239
233
220
200
174
141
100
53
3
-48
-95
-135
-165
-183
-192
-198
-202
-201
-195
-186
-179
-175
-170
-162
-154
-149
-145
-141
-138
-138
-138
-138
-136
-134
-138
-144
-144
-137
-130
-125
-116
-101
-93
-101
-117
-125
-127
-126
-122
-122
-125
-114
-89
-85
-136
-181
34
732
1597
1851
1149
88
-473
-365
-90
-39
-112
-116
-78
-68
-59
-32
-10
11
39
65
91
123
155
184
208
226
235
235
227
212
190
157
112
58
2
-51
-100
-143
-176
-199
-211
-213
-213
-213
-209
-201
-192
-184
-177
-170
-164
-158
-153
-148
-143
-140
-138
-136
-136
-137
-135
-132
-132
-132
-129
-123
-122
-127
-129
-124
-114
-100
-80
-63
-60
-74
-91
-95
-91
-91
-89
-86
-92
-89
-59
-41
-90
-178
-89
460
1367
1945
1595
582
-234
-371
-125
7
-53
-96
-64
-41
-37
-16
8
27
52
79
105
135
165
195
224
247
263
272
272
264
248
223
186
137
78
17
-40
-90
-129
-156
-173
-181
-184
-183
-178
-171
-163
-154
-146
-139
-134
-129
-124
-119
-114
-109
-106
-103
-100
-98
-95
-94
-93
-91
-89
-87
-86
-85
-83
-83
-81
-78
-76
-75
-75
-74
-73
-72
-71
-70
-68
-66
-65
-65
-64
-63
-63
-61
-61
-61
-60
-59
-58
-57
-56
-56
-56
-56
-56
-54
-53
-53
-53
-52
-51
-52
-52
-50
-48
-51
-57
-53
-33
-6
8
5
-2
-7
-17
-32
-42
-46
-50
-48
-50
-59
-52
-24
-24
-87
-139
47
678
1528
1909
1397
402
-271
-310
-82
-7
-80
-107
-73
-56
-50
-29
-9
7
29
53
76
100
126
150
174
195
212
221
223
221
214
200
179
147
106
59
8
-43
-91
-132
-163
-184
-196
-200
-199
-196
-191
-185
-180
-174
-169
-163
-156
-151
-147
-144
-142
-140
-138
-137
-136
-135
-134
-133
-131
-129
-128
-126
-124
-122
-121
-119
-116
-113
-111
-110
-108
-106
-103
-101
-99
-98
-97
-94
-91
-91
-97
-98
-83
-55
-31
-22
-25
-33
-46
-62
-71
-74
-75
-73
-73
-80
-75
-49
-41
-89
-149
-12
549
1356
1745
1269
307
-339
-347
-85
14
-51
-78
-44
-26
-20
2
23
39
62
88
113
139
167
194
219
239
251
256
254
245
228
204
172
130
80
27
-27
-77
-118
-150
-172
-187
-194
-196
-195
-192
-186
-177
-169
-163
-159
-154
-147
-141
-136
-132
-128
-125
-122
-121
-119
-116
-113
-113
-114
-113
-109
-106
-107
-108
-106
-103
-101
-100
-98
-95
-91
-89
-92
-98
-96
-80
-56
-35
-27
-31
-44
-60
-70
-75
-79
-79
-79
-83
-79
-55
-41
-83
-155
-58
471
1296
1739
1287
294
-394
-406
-116
7
-53
-81
-43
-23
-21
-2
20
37
60
87
112
139
166
193
218
237
248
250
245
232
214
191
160
121
75
25
-24
-71
-111
-144
-167
-182
-191
-196
-197
-195
-189
-181
-173
-168
-165
-160
-155
-149
-142
-135
-131
-132
-136
-139
-137
-133
-131
-131
-131
-131
-130
-130
-128
-125
-124
-128
-130
-124
-109
-90
-70
-56
-54
-67
-87
-99
-102
-104
-102
-100
-100
-94
-74
-60
-90
-143
-8
573
1400
1739
1143
93
-527
-441
-116
-8
-71
-84
-42
-27
-21
4
27
43
66
93
120
150
179
206
235
260
273
273
263
247
224
193
155
112
63
8
-48
-97
-135
-164
-186
-199
-205
-208
-210
-208
-201
-193
-187
-183
-178
-170
-161
-154
-152
-151
-150
-149
-147
-146
-147
-147
-145
-143
-143
-144
-141
-135
-134
-137
-133
-117
-95
-77
-68
-71
-87
-103
-111
-110
-104
-100
-107
-113
-96
-67
-67
-121
-117
232
1022
1724
1606
664
-281
-546
-270
-26
-31
-87
-62
-31
-26
-8
18
36
57
87
116
146
178
210
240
264
280
288
287
276
257
230
192
146
96
42
-15
-68
-114
-148
-170
-184
-190
-193
-194
-193
-187
-180
-174
-170
-164
-156
-146
-136
-130
-129
-130
-128
-125
-123
-123
-123
-125
-124
-122
-121
-122
-120
-112
-100
-85
-71
-64
-73
-92
-106
-109
-108
-103
-103
-110
-107
-85
-67
-93
-154
-60
474
1341
1838
1392
340
-417
-455
-154
-20
-82
-111
-72
-52
-48
-26
-3
16
40
67
93
125
160
190
218
243
261
266
259
243
221
189
143
89
30
-33
-93
-144
-184
-213
-232
-242
-246
-247
-246
-243
-237
-229
-221
-215
-209
-202
-195
-190
-187
-184
-181
-178
-177
-174
-171
-173
-180
-182
-178
-170
-161
-146
-128
-123
-138
-157
-165
-167
-166
-161
-161
-166
-152
-124
-131
-201
-228
68
843
1678
1807
1021
-5
-484
-353
-118
-102
-179
-179
-145
-138
-130
-107
-89
-71
-46
-23
1
29
57
83
107
123
129
