# session 27
54
-2
-73
55
651
1513
1906
1364
334
-323
-299
-20
68
-9
-34
1
14
16
35
54
70
92
114
137
163
188
210
231
246
253
253
245
233
214
186
150
106
56
3
-49
-95
-131
-158
-175
-185
-190
-189
-186
-182
-178
-171
-164
-156
-150
-145
-141
-137
-134
-131
-129
-127
-126
-126
-125
-125
-126
-126
-126
-125
-124
-122
-122
-123
-121
-115
-112
-117
-125
-128
-120
-103
-80
-60
-53
-65
-83
-92
-92
-93
-94
-91
-96
-99
-78
-53
-78
-159
-145
247
1054
1730
1594
691
-193
-440
-206
-11
-40
-102
-82
-53
-48
-32
-8
8
28
54
77
101
127
152
175
193
204
208
205
195
180
162
138
108
70
23
-28
-75
-112
-141
-164
-182
-193
-196
-193
-186
-180
-176
-173
-167
-162
-156
-152
-147
-142
-139
-136
-134
-133
-135
-135
-134
-134
-135
-132
-127
-127
-133
-137
-133
-123
-112
-98
-79
-66
-73
-92
-103
-102
-101
-101
-98
-99
-98
-80
-58
-72
-134
-99
328
1161
1787
1524
518
-357
-517
-217
-13
-45
-93
-59
-28
-22
-5
17
32
55
84
108
134
163
190
215
233
242
243
237
223
203
178
149
114
71
20
-33
-78
-111
-139
-166
-187
-193
-191
-191
-193
-191
-183
-173
-166
-162
-159
-155
-150
-145
-141
-140
-139
-137
-135
-136
-139
-139
-133
-129
-132
-136
-133
-127
-120
-111
-93
-76
-76
-93
-106
-106
-104
-107
-108
-108
-107
-95
-75
-70
-111
-137
101
798
1596
1727
939
-99
-560
-367
-70
-23
-91
-84
-42
-31
-20
4
21
40
70
100
127
156
184
213
238
254
260
256
243
225
200
169
129
82
30
-24
-76
-120
-153
-177
-194
-203
-204
-202
-201
-201
-199
-192
-183
-175
-168
-162
-156
-150
-147
-145
-144
-143
-142
-143
-144
-142
-138
-139
-142
-142
-135
-127
-122
-110
-93
-85
-95
-112
-118
-117
-116
-113
-112
-115
-108
-84
-69
-106
-158
3
632
1495
1830
1203
130
-497
-419
-111
-20
-89
-102
-61
-46
-37
-11
10
29
56
87
116
146
174
202
231
252
263
264
256
239
213
179
136
85
31
-25
-80
-128
-162
-183
-196
-204
-208
-209
-206
-200
-193
-186
-179
-173
-168
-162
-157
-152
-148
-144
-140
-140
-141
-141
-138
-135
-136
-141
-145
-143
-137
-129
-116
-100
-89
-93
-109
-120
-120
-120
-117
-113
-116
-119
-99
-72
-90
-166
-169
193
1020
1804
1795
915
-74
-446
-256
-40
-53
-122
-106
-71
-65
-51
-26
-6
16
44
71
99
132
163
193
220
239
248
251
247
233
206
166
115
57
-5
-65
-116
-158
-188
-206
-216
-219
-219
-216
-210
-202
-193
-185
-178
-172
-166
-161
-157
-153
-149
-144
-139
-136
-135
-133
-131
-128
-127
-126
-123
-118
-114
-118
-124
-124
-118
-105
-84
-62
-52
-61
-81
-92
-91
-91
-91
-88
-90
-97
-79
-50
-67
-151
-174
152
955
1783
1882
1085
77
-385
-257
-38
-31
-106
-101
-64
-56
-44
-18
2
21
47
73
98
127
156
184
208
228
241
246
244
234
217
188
146
93
34
-26
-81
-125
-157
-179
-192
-198
-199
-194
-187
-180
-173
-165
-158
-153
-147
-142
-139
-135
-130
-127
-124
-121
-119
-118
-117
-114
-113
-112
-111
-110
-109
-108
-107
-105
-103
-101
-99
-97
-95
-93
-92
-92
-91
-89
-85
-83
-87
-96
-95
-77
-50
-29
-20
-22
-32
-49
-64
-69
-71
-73
-71
-71
-79
-70
-42
-43
-105
-154
39
671
1485
1793
1223
244
-353
-324
-74
-3
-73
-92
-57
-42
-35
-13
6
23
46
69
92
119
145
169
191
210
223
229
227
220
208
190
162
124
77
25
-27
-75
-115
-147
-169
-182
-188
-188
-184
-178
-170
-163
-157
-154
-149
-144
-139
-135
-131
-129
-128
-127
-125
-126
-128
-127
-126
-124
-124
-124
-124
-122
-118
-114
-113
-113
-112
-108
-106
-112
-118
-111
-88
-61
-43
-37
-41
-56
-76
-88
-88
-87
-87
-84
-88
-92
-72
-46
-68
-148
-146
219
1008
1708
1627
756
-150
-441
-222
-11
-26
-87
-69
-37
-32
-17
7
22
41
64
85
110
139
165
186
203
214
218
215
208
195
176
148
116
77
32
-18
-66
-108
-141
-163
-175
-181
-187
-193
-194
-189
-180
-173
-171
-166
-156
-147
-143
-144
-143
-140
-138
-138
-137
-134
-133
-133
-132
-129
-127
-125
-125
-124
-123
-121
-121
-120
-113
-96
-73
-53
-45
-50
-65
-82
-92
-95
-94
-91
-88
-91
-90
-70
-49
-71
-135
-57
457
1309
1799
1346
288
-463
-481
-155
-5
-59
-86
-44
-23
-21
0
23
39
60
88
115
143
170
196
222
243
252
249
240
228
210
182
147
107
61
11
-38
-84
-122
-153
-175
-188
-195
-198
-197
-195
-192
-188
-181
-173
-166
-160
-154
-147
-143
-142
-141
-139
-138
-136
-134
-132
-135
-139
-137
-132
-131
-133
-131
-119
-98
-80
-70
-71
-85
-103
-114
-117
-117
-113
-112
-118
-115
-90
-71
-103
-171
-75
468
1339
1829
1372
318
-432
-462
-156
-19
-81
-112
-73
-52
-47
-25
-2
16
42
71
97
127
158
188
217
238
249
251
246
233
211
179
138
91
38
-18
-72
-119
-154
-179
-195
-204
-207
-207
-205
-201
-194
-184
-175
-167
-159
-151
-145
-140
-135
-130
-128
-127
-126
-125
-126
-125
-123
-123
-128
-130
-124
-108
-89
-73
-62
-63
-80
-101
-112
-113
-114
-113
-112
-118
-117
-93
-74
-110
-188
-113
413
1314
1903
1555
525
-302
-427
-163
-25
-87
-130
-96
-72
-68
-48
-24
-6
18
45
71
100
130
159
186
208
222
228
226
217
199
173
135
86
31
-26
-80
-128
-165
-192
-207
-215
-217
-215
-210
-203
-196
-187
-178
-170
-163
-156
-150
-144
-139
-135
-133
-130
-129
-128
-126
-122
-123
-129
-133
-130
-119
-103
-84
-66
-59
-71
-93
-106
-108
-109
-108
-106
-111
-113
-91
-70
-99
-180
-141
321
1206
1886
1668
680
-221
-440
-199
-31
-79
-135
-107
-78
-74
-56
-32
-15
7
33
58
84
112
138
164
186
199
204
203
196
182
159
126
83
32
-21
-73
-119
-157
-185
-202
-210
-212
-211
-206
-198
-191
-183
-173
-164
-158
-152
-145
-140
-136
-133
-130
-128
-127
-127
-124
-122
-124
-129
-132
-128
-119
-105
-85
-65
-60
-77
-98
-104
-103
-103
-101
-103
-110
-100
-71
-69
-133
-188
37
753
1624
1871
1169
123
-426
-325
-68
-31
-110
-113
-73
-62
-57
-36
-16
4
30
54
77
104
130
154
176
192
197
194
189
179
161
134
101
61
15
-35
-84
-125
-156
-177
-190
-197
-197
-192
-185
-179
-172
-164
-156
-148
-142
-138
-134
-128
-123
-121
-123
-124
-123
-120
-120
-126
-129
-127
-121
-112
-97
-79
-68
-75
-96
-109
-112
-113
-112
-112
-116
-113
-90
-74
-113
-185
-81
475
1345
1816
1348
307
-420
-442
-145
-21
-85
-115
-76
-56
-53
-34
-12
6
28
53
77
104
131
154
172
183
186
182
173
161
143
120
93
60
22
-20
-64
-106
-140
-164
-181
-189
-192
-192
-190
-186
-181
-174
-167
-160
-155
-150
-146
-142
-138
-136
-137
-137
-133
-133
-137
-140
-136
-129
-123
-112
-94
-77
-80
-99
-114
-117
-115
-113
-112
-116
-114
-91
-69
-98
-173
-119
364
1230
1817
1490
475
-348
-464
-176
-14
-65
-108
-74
-50
-46
-27
-4
15
38
62
85
112
139
163
185
201
207
204
194
180
162
138
106
67
23
-23
-68
-108
-141
-166
-182
-190
-192
-189
-183
-177
-169
-160
-153
-146
-138
-131
-126
-123
-120
-117
-115
-116
-117
-115
-112
-114
-122
-127
-124
-117
-106
-90
-72
-66
-80
-102
-112
-112
-111
-109
-111
-118
-109
-82
-76
-134
-198
-8
677
1568
1883
1232
169
-437
-365
-94
-34
-112
-127
-90
-77
-69
-44
-24
-6
18
43
67
95
122
145
164
177
183
182
174
162
144
119
87
47
1
-47
-93
-132
-162
-180
-191
-197
-198
-194
-187
-178
-168
-159
-152
-145
-137
-130
-125
-119
-115
-113
-111
-109
-109
-110
-111
-109
-109
-109
-105
-102
-105
-111
-113
-107
-95
-77
-57
-46
-53
-74
-87
-89
-89
-91
-89
-91
-96
-81
-55
-64
-136
-168
134
914
1713
1763
928
-59
-447
-258
-28
-31
-104
-94
-59
-52
-40
-16
3
24
48
70
92
119
145
168
187
198
200
197
189
178
161
137
104
63
18
-30
-75
-115
-145
-166
-178
-182
-182
-177
-171
-163
-155
-147
-140
-132
-125
-119
-113
-109
-106
-104
-104
-105
-105
-104
-104
-103
-103
-104
-104
-102
-100
-99
-98
-98
-98
-96
-94
-93
-92
-91
-93
-100
-106
-98
-76
-49
-31
-26
-33
-50
-70
-79
-79
-80
-79
-76
-82
-85
-64
-40
-66
-150
-141
255
1074
1749
1597
681
-197
-430
-191
-2
-33
-89
-65
-38
-36
-21
3
19
39
64
85
107
130
152
171
186
196
199
195
185
170
153
132
105
72
34
-9
-53
-92
-125
-149
-164
-172
-173
-170
-165
-159
-154
-149
-142
-135
-127
-122
-118
-113
-108
-106
-106
-107
-107
-109
-110
-110
-108
-107
-108
-109
-109
-108
-107
-107
-106
-104
-102
-107
-115
-113
-97
-72
-48
-36
-39
-54
-74
-88
-92
-92
-93
-92
-91
-96
-92
-68
-55
-103
-174
-31
580
1423
1752
1150
124
-467
-384
-90
-8
-79
-93
-53
-40
-35
-13
7
25
49
72
95
119
144
167
186
199
203
199
189
175
158
136
110
78
40
-2
-44
-83
-115
-141
-159
-169
-173
-175
-172
-165
-156
-148
-142
-136
-129
-122
-116
-112
-109
-106
-104
-102
-100
-99
-99
-100
-100
-100
-99
-99
-98
-98
-98
-97
-94
-93
-92
-89
-88
-92
-100
-102
-86
-59
-34
-22
-25
-38
-56
-70
-74
-76
-76
-74
-77
-83
-72
-44
-48
-118
-167
81
798
1593
1712
948
-32
-457
-283
-29
-9
-81
-77
-41
-34
-25
-2
17
35
59
83
105
130
154
178
199
211
215
213
205
191
172
148
116
78
36
-10
-57
-100
-134
-158
-172
-179
-182
-183
-179
-173
-165
-157
-149
-142
-135
-128
-122
-116
-112
-109
-108
-107
-107
-106
-105
-105
-105
-105
-105
-104
-103
-103
-103
-101
-99
-99
-99
-99
-96
-93
-93
-100
-108
-106
-89
-62
-39
-30
-33
-48
-67
-79
-82
-82
-83
-80
-84
-88
-74
-49
-61
-136
-163
146
909
1654
1652
814
-123
-458
-248
-20
-25
-91
-76
-42
-37
-26
-4
13
33
58
81
106
132
156
177
198
211
215
213
205
191
172
147
115
76
32
-15
-61
-101
-135
-158
-173
-181
-184
-183
-179
-173
-166
-158
-151
-142
-135
-128
-122
-117
-112
-108
-106
-105
-105
-105
-105
-104
-102
-102
-101
-101
-100
-99
-99
-99
-100
-98
-95
-93
-97
-105
-107
-92
-66
-41
-28
-30
-44
-64
-77
-82
-84
-85
-83
-87
-91
-77
-52
-62
-137
-161
155
924
1657
1626
768
-160
-470
-245
-20
-27
-92
-76
-43
-38
-25
-1
15
33
57
82
108
135
159
179
197
211
217
213
202
187
167
143
112
74
31
-15
-61
-103
-136
-157
-172
-182
-187
-186
-182
-175
-168
-159
-151
-145
-139
-132
-126
-123
-122
-121
-119
-116
-115
-114
-114
-114
-114
-116
-118
-118
-115
-114
-117
-122
-124
-120
-108
-88
-65
-48
-48
-66
-90
-103
-105
-106
-106
-105
-108
-106
-85
-65
-92
-156
-68
455
1300
1772
1315
277
-453
-468
-153
-9
-66
-97
-59
-37
-30
-9
12
27
50
77
101
127
153
178
199
216
223
221
210
194
178
160
135
100
59
16
-28
-73
-113
-141
-161
-176
-185
-187
-185
-182
-178
-174
-168
-163
-156
-149
-144
-142
-139
-134
-131
-131
-132
-131
-128
-126
-128
-132
-132
-127
-126
-128
-127
-116
-96
-76
-60
-55
-63
-83
-101
-110
-112
-107
-101
-103
-105
-90
-66
-73
-129
-90
342
1175
1783
1485
451
-422
-555
-231
-22
-54
-98
-61
-30
-26
-9
15
35
62
93
117
138
163
192
221
238
244
245
241
228
205
176
141
102
60
13
-36
-81
-121
-152
-176
-192
-198
-198
-196
-196
-195
-190
-181
-174
-170
-165
-158
-153
-151
-149
-147
-145
-144
-143
-144
-142
-140
-140
-141
-138
-128
-114
-98
-86
-86
-101
-119
-128
-131
-132
-129
-130
-134
-124
-100
-91
-133
-167
63
764
1583
1740
960
-91
-573
-396
-98
-45
-110
-104
-64
-54
-42
-14
8
28
55
83
111
143
173
203
229
244
247
242
232
214
189
155
113
62
7
-44
-91
-130
-161
-183
-197
-204
-206
-205
-202
-197
-189
-181
-173
-167
-162
-155
-147
-139
-134
-133
-131
-126
-125
-129
-133
-130
-122
-116
-107
-90
-76
-81
-102
-119
-123
-122
-117
-114
-122
-121
-95
-76
-113
-186
-95
443
1340
1908
1540
503
-322
-442
-171
-25
-82
-124
-88
-64
-60
-38
-14
4
27
57
86
117
149
178
206
229
243
248
243
230
210
180
137
83
23
-36
-90
-134
-169
-193
-206
-213
-216
-216
-212
-206
-200
-193
-185
-177
-171
-167
-163
-159
-156
-152
-147
-145
-149
-155
-156
-150
-144
-135
-120
-103
-99
-114
-132
-141
-143
-143
-140
-144
-151
-136
-104
-114
-199
-239
60
861
1739
1912
1143
95
-428
-328
-101
-83
-161
-163
-127
-118
-107
-80
-58
-36
-9
17
45
77
108
135
160
180
192
196
193
180
158
124
80
26
-31
-88
-136
-173
-197
-212
-220
-220
-217
-209
-199
-190
-181
-171
-160
-149
-141
-134
-127
-119
-111
-105
-99
-92
-87
-81
-76
-71
-67
-60
-52
-46
-47
-45
-34
-12
13
38
53
53
36
18
14
19
22
28
33
30
35
68
87
38
-35
91
680
1580
2073
1612
584
-138
-218
57
