# session 9
-17
-10
7
28
48
73
101
130
163
199
234
269
302
330
347
353
349
338
318
280
223
154
84
17
-43
-93
-130
-155
-172
-179
-180
-180
-179
-175
-168
-162
-157
-150
-142
-134
-130
-125
-120
-117
-116
-118
-120
-120
-115
-109
-109
-115
-118
-113
-105
-101
-94
-79
-65
-69
-88
-101
-101
-97
-94
-95
-101
-97
-76
-56
-81
-155
-68
509
1446
1958
1453
347
-398
-396
-97
-2
-84
-108
-67
-52
-48
-24
-1
15
41
71
100
132
166
202
236
264
285
299
303
297
280
249
198
129
52
-22
-86
-139
-180
-210
-229
-239
-243
-243
-240
-236
-231
-226
-218
-208
-201
-197
-192
-186
-180
-177
-173
-170
-170
-170
-165
-161
-164
-170
-170
-163
-156
-149
-135
-118
-111
-123
-139
-143
-142
-139
-136
-137
-139
-123
-96
-97
-166
-209
101
948
1843
1936
1056
-8
-439
-260
-41
-61
-140
-126
-91
-84
-69
-43
-25
-2
29
58
88
123
160
198
236
268
289
300
302
296
275
232
167
88
8
-64
-123
-170
-204
-225
-236
-240
-240
-239
-234
-227
-220
-213
-206
-199
-192
-187
-183
-178
-172
-167
-164
-162
-160
-158
-154
-148
-147
-150
-153
-151
-144
-133
-117
-99
-89
-98
-113
-119
-117
-117
-114
-111
-115
-111
-86
-64
-104
-197
-116
474
1464
2086
1696
617
-216
-336
-99
-6
-89
-128
-93
-74
-69
-47
-23
-4
22
50
80
114
148
182
219
253
280
297
306
308
298
270
218
149
70
-8
-78
-134
-176
-204
-219
-227
-230
-230
-226
-221
-216
-208
-201
-195
-190
-185
-181
-175
-170
-166
-164
-161
-158
-154
-152
-150
-149
-148
-146
-143
-141
-139
-137
-136
-131
-123
-118
-120
-127
-130
-125
-112
-92
-71
-60
-67
-82
-90
-88
-87
-85
-81
-86
-90
-71
-42
-57
-149
-178
203
1103
1934
1892
953
-37
-367
-166
10
-39
-109
-88
-59
-55
-38
-12
6
27
55
82
111
143
176
210
243
271
293
306
310
306
291
259
206
136
60
-13
-77
-130
-169
-196
-213
-220
-223
-223
-221
-215
-207
-199
-193
-188
-183
-178
-174
-170
-167
-163
-161
-159
-158
-157
-155
-153
-152
-151
-150
-149
-147
-145
-143
-141
-139
-137
-134
-128
-121
-119
-124
-130
-129
-118
-99
-78
-64
-65
-79
-89
-90
-88
-88
-84
-85
-89
-78
-49
-47
-120
-192
52
836
1747
1944
1162
108
-378
-234
-2
-5
-88
-83
-48
-44
-34
-9
11
32
58
84
112
144
177
211
244
273
294
307
312
308
294
265
217
152
79
5
-61
-117
-159
-190
-210
-221
-225
-226
-225
-221
-215
-207
-200
-194
-189
-184
-178
-173
-169
-166
-163
-160
-158
-158
-157
-155
-154
-153
-153
-152
-149
-148
-147
-142
-136
-136
-142
-146
-143
-131
-111
-89
-76
-78
-92
-103
-105
-105
-102
-97
-99
-103
-88
-60
-63
-140
-187
127
965
1818
1859
972
-40
-408
-204
5
-27
-103
-87
-55
-52
-38
-13
5
27
55
81
110
143
175
208
241
268
288
298
301
295
280
247
194
125
51
-20
-84
-136
-176
-203
-219
-228
-231
-232
-229
-224
-218
-211
-203
-196
-190
-184
-178
-173
-169
-165
-162
-159
-157
-155
-154
-153
-153
-153
-150
-146
-146
-150
-153
-151
-144
-130
-110
-90
-82
-94
-111
-116
-114
-112
-108
-108
-111
-101
-75
-63
-118
-192
9
751
1682
1950
1207
121
-417
-284
-27
-12
-99
-99
-61
-52
-42
-16
4
21
46
73
101
133
164
195
227
254
274
285
286
278
261
232
188
129
58
-14
-77
-130
-170
-198
-214
-223
-229
-231
-229
-225
-218
-210
-202
-195
-189
-184
-179
-176
-173
-168
-163
-160
-157
-155
-155
-154
-151
-148
-152
-158
-158
-149
-136
-120
-100
-87
-94
-112
-124
-126
-123
-119
-118
-121
-111
-86
-72
-117
-189
-18
672
1580
1877
1176
100
-453
-323
-46
-13
-98
-100
-58
-49
-40
-16
2
20
49
78
104
131
161
192
224
249
263
269
270
264
248
218
176
121
56
-12
-72
-119
-155
-183
-204
-215
-220
-220
-218
-214
-209
-202
-194
-186
-179
-176
-173
-168
-164
-160
-159
-158
-155
-150
-148
-152
-155
-153
-149
-142
-131
-113
-96
-96
-112
-127
-132
-131
-126
-124
-128
-124
-103
-79
-103
-183
-112
444
1365
1872
1374
284
-440
-421
-110
-7
-84
-105
-63
-47
-43
-22
-2
18
48
77
103
136
171
204
234
260
277
285
288
282
264
231
185
126
58
-11
-72
-123
-162
-188
-204
-215
-223
-226
-223
-218
-214
-209
-200
-190
-184
-181
-175
-166
-158
-157
-160
-161
-155
-145
-144
-152
-157
-153
-143
-135
-129
-116
-100
-99
-113
-126
-132
-132
-128
-126
-130
-124
-101
-82
-114
-189
-81
518
1429
1862
1300
219
-447
-391
-92
-13
-94
-108
-64
-51
-47
-24
-2
19
50
80
105
135
170
208
243
268
282
291
294
288
268
232
180
116
46
-24
-89
-140
-177
-204
-221
-229
-232
-232
-230
-226
-221
-212
-203
-196
-189
-183
-178
-174
-172
-168
-162
-157
-155
-156
-159
-159
-155
-152
-149
-141
-123
-105
-104
-121
-136
-141
-140
-136
-132
-136
-134
-112
-90
-115
-200
-148
384
1334
1954
1577
501
-326
-416
-137
-18
-94
-132
-95
-74
-69
-46
-23
-4
23
54
84
118
154
187
219
251
276
291
295
290
273
241
189
123
49
-25
-91
-145
-185
-212
-228
-235
-237
-237
-234
-229
-221
-212
-204
-197
-190
-185
-180
-175
-170
-165
-161
-159
-158
-155
-150
-150
-154
-157
-154
-147
-140
-130
-114
-100
-100
-114
-124
-125
-125
-120
-115
-118
-116
-92
-65
-92
-185
-145
377
1346
2041
1752
695
-199
-374
-129
-1
-72
-121
-89
-67
-64
-42
-15
6
31
59
88
122
159
197
235
269
296
314
323
324
313
281
226
153
73
-5
-75
-131
-173
-201
-217
-226
-229
-227
-222
-217
-211
-204
-196
-187
-181
-177
-173
-168
-163
-160
-157
-155
-152
-150
-148
-147
-145
-143
-140
-138
-135
-132
-130
-129
-127
-125
-122
-119
-116
-113
-109
-107
-105
-102
-98
-91
-89
-95
-102
-95
-75
-49
-31
-24
-28
-40
-55
-63
-65
-65
-64
-63
-70
-72
-49
-25
-56
-146
-123
340
1263
2006
1840
861
-71
-332
-124
21
-40
-101
-76
-50
-46
-27
-2
17
40
68
95
124
156
190
224
257
286
308
322
327
323
309
276
223
152
75
0
-68
-123
-165
-193
-212
-222
-225
-224
-221
-215
-209
-203
-197
-193
-189
-185
-181
-177
-173
-171
-168
-165
-163
-162
-161
-160
-158
-156
-155
-152
-150
-148
-145
-142
-140
-139
-137
-134
-132
-129
-124
-120
-118
-115
-112
-109
-106
-101
-97
-100
-107
-107
-91
-65
-43
-32
-30
-36
-51
-65
-68
-67
-69
-67
-66
-73
-68
-42
-27
-76
-165
-56
562
1518
2032
1549
480
-260
-300
-48
27
-58
-86
-50
-35
-30
-6
17
36
61
88
116
148
181
214
250
285
312
330
338
339
332
310
268
206
131
53
-21
-86
-136
-172
-197
-212
-220
-223
-222
-221
-216
-209
-202
-197
-193
-189
-184
-179
-174
-171
-166
-162
-159
-156
-153
-150
-149
-148
-147
-146
-143
-141
-139
-137
-136
-134
-132
-129
-125
-122
-119
-116
-113
-111
-108
-105
-101
-98
-96
-93
-89
-88
-95
-102
-95
-74
-48
-29
-22
-27
-42
-59
-66
-66
-66
-65
-63
-68
-68
-48
-26
-53
-140
-112
360
1273
1950
1692
684
-182
-351
-102
35
-33
-84
-53
-31
-29
-10
15
32
55
83
111
142
175
208
243
277
307
329
342
346
339
319
282
226
154
76
-1
-68
-123
-165
-193
-211
-220
-224
-225
-225
-223
-218
-211
-204
-198
-193
-187
-181
-176
-171
-167
-163
-160
-157
-154
-151
-150
-149
-147
-146
-145
-144
-142
-141
-138
-136
-134
-132
-129
-126
-122
-119
-117
-115
-112
-110
-107
-103
-99
-97
-102
-109
-107
-88
-61
-40
-29
-29
-42
-59
-69
-71
-70
-67
-67
-74
-70
-45
-30
-72
-156
-52
545
1465
1939
1432
376
-321
-319
-48
31
-52
-77
-40
-26
-22
2
24
41
66
94
121
153
185
219
255
289
317
336
345
346
338
314
270
208
132
54
-20
-84
-136
-173
-199
-215
-224
-227
-226
-224
-222
-218
-212
-204
-198
-192
-186
-179
-174
-170
-167
-163
-159
-157
-155
-152
-149
-148
-147
-147
-146
-144
-142
-140
-138
-137
-135
-132
-129
-128
-125
-122
-118
-113
-109
-112
-120
-123
-112
-87
-61
-42
-38
-48
-67
-79
-83
-83
-79
-77
-83
-82
-62
-40
-65
-151
-118
365
1269
1904
1593
568
-262
-381
-107
29
-40
-86
-52
-31
-28
-8
15
31
56
84
111
142
174
208
244
279
309
329
341
343
337
317
277
218
144
65
-12
-79
-132
-172
-200
-216
-224
-229
-230
-229
-225
-220
-213
-206
-200
-194
-187
-182
-176
-171
-166
-163
-160
-158
-156
-155
-152
-149
-148
-147
-146
-145
-144
-143
-141
-138
-136
-134
-130
-125
-125
-131
-134
-123
-99
-73
-55
-50
-61
-80
-91
-94
-93
-90
-89
-94
-90
-68
-49
-82
-168
-97
456
1381
1923
1476
411
-341
-369
-81
21
-58
-90
-54
-38
-34
-12
9
26
51
78
106
138
171
204
239
274
303
324
333
333
324
302
260
198
123
44
-31
-96
-148
-185
-209
-224
-230
-232
-231
-229
-225
-221
-215
-208
-201
-193
-187
-182
-177
-172
-168
-165
-162
-160
-157
-155
-154
-153
-151
-149
-148
-146
-145
-142
-138
-137
-141
-145
-142
-127
-102
-77
-61
-62
-78
-95
-104
-106
-105
-100
-101
-105
-94
-69
-64
-124
-176
87
878
1753
1873
1027
-22
-448
-253
-11
-19
-97
-85
-50
-46
-34
-9
9
29
57
85
114
147
180
213
248
279
303
317
321
316
301
271
223
154
77
1
-67
-125
-169
-198
-216
-227
-233
-234
-231
-226
-221
-214
-207
-201
-193
-186
-179
-173
-171
-170
-168
-163
-156
-152
-152
-154
-153
-149
-146
-145
-146
-145
-143
-144
-146
-143
-127
-102
-79
-68
-72
-89
-104
-110
-112
-111
-109
-110
-110
-96
-73
-76
-138
-146
226
1083
1844
1724
745
-216
-469
-203
-3
-45
-108
-81
-51
-47
-32
-10
8
34
61
84
111
147
181
212
240
265
285
296
296
288
271
240
191
127
56
-14
-76
-127
-165
-191
-208
-220
-227
-229
-224
-217
-211
-207
-201
-194
-187
-180
-174
-171
-169
-165
-160
-155
-152
-153
-155
-155
-153
-151
-148
-146
-142
-134
-123
-109
-95
-85
-89
-105
-118
-123
-122
-119
-119
-124
-120
-101
-81
-105
-175
-70
529
1453
1905
1338
224
-477
-430
-114
-16
-90
-105
-63
-51
-47
-23
0
20
46
73
100
135
170
204
238
269
292
305
307
299
283
255
207
143
70
-2
-68
-124
-168
-198
-219
-232
-236
-237
-237
-237
-231
-222
-215
-210
-204
-196
-189
-184
-180
-174
-169
-164
-160
-159
-160
-162
-158
-150
-143
-139
-130
-112
-99
-106
-125
-139
-141
-136
-131
-135
-137
-122
-97
-99
-162
-188
132
941
1722
1687
772
-200
-502
-251
-25
-47
-112
-89
-56
-51
-35
-9
9
33
64
95
127
162
196
231
265
294
314
324
321
308
282
238
175
99
22
-46
-104
-151
-188
-211
-224
-230
-232
-232
-229
-224
-217
-209
-203
-197
-190
-182
-175
-169
-165
-161
-156
-153
-154
-154
-148
-141
-136
-130
-115
-100
-103
-120
-134
-141
-142
-137
-137
-141
-128
-99
-95
-161
-234
-23
722
1648
1915
1180
100
-445
-321
-63
-41
-125
-124
-84
-74
-63
-38
-21
-3
27
58
89
122
159
198
236
265
284
294
296
286
263
223
164
91
14
-59
-123
-172
-205
-227
-242
-249
-249
-246
-244
-240
-234
-227
-220
-212
-205
-199
-195
-190
-185
-179
-174
-171
-170
-171
-172
-170
-168
-164
-155
-138
-120
-116
-130
-143
-149
-152
-150
-146
-149
-149
-126
-98
-119
-211
-211
234
1180
1975
1830
817
-163
-434
-203
-35
-90
-149
-120
-92
-88
-69
-43
-23
1
32
64
100
137
173
212
251
283
305
316
317
306
278
226
155
76
-3
-73
-131
-173
-201
-217
-227
-230
-228
-223
-216
-208
-199
-191
-183
-176
-168
-161
-155
-150
-144
-140
-134
-130
-127
-124
-120
-118
-116
-113
-109
-105
-101
-98
-96
-92
-88
-86
-82
-75
-68
-64
-68
-72
-63
-40
-14
3
8
3
-9
-23
-30
-29
-29
-27
-24
-29
-30
-5
19
-18
-113
-76
422
1367
2087
1866
854
-64
-297
-79
61
-3
-61
-34
-10
-8
9
32
51
74
99
124
154
187
220
255
289
318
341
355
359
354
334
294
233
154
70
-10
-78
-134
-178
-208
-227
-237
-243
-245
-242
-238
-233
-230
-228
-226
-223
-221
-221
-220
-219
-218
-218
-218
-219
-220
-222
-222
-223
-223
-224
-224
-225
-226
-225
-225
-225
-224
-223
-223
-221
-220
-219
-218
-216
-215
-214
-212
-210
-209
-207
-205
-203
-201
-199
-197
-196
-194
-191
-187
-186
-191
-196
-189
-165
-137
-119
-112
-115
-124
-135
-144
-144
-139
-138
-136
-130
-130
-132
-112
-80
-88
-166
-201
118
953
1840
1975
1167
134
-332
-201
6
-5
-80
-68
-28
-17
2
34
60
86
119
152
187
225
264
303
344
384
419
445
462
471
471
456
421
365
297
226
159
101
54
23
3
-7
-11
-9
-2
6
15
25
34
43
51
59
66
72
78
82
85
89
92
93
94
96
96
95
93
91
89
87
84
80
76
72
67
62
56
50
43
35
27
18
8
-2
-13
-24
-38
-52
-66
-80
-94
-111
-128
-144
-163
-188
-217
-237
-241
-238
-242
-260
-290
-327
-368
-409
-441
-468
-500
-530
-558
-594
-627
-639
-649
-705
-824
-845
-443
408
1096
919
-82
