# session 22
283
266
249
232
215
200
186
173
156
136
120
114
118
125
129
125
105
72
39
19
6
-4
-13
-28
-46
-43
-28
-43
-119
-163
108
853
1643
1717
901
-96
-513
-341
-108
-107
-184
-180
-151
-151
-146
-127
-113
-97
-76
-56
-33
-7
19
44
68
85
95
98
95
85
66
36
-5
-55
-110
-168
-224
-274
-313
-340
-355
-362
-365
-364
-358
-349
-339
-329
-320
-312
-303
-293
-282
-275
-270
-265
-258
-252
-248
-244
-238
-231
-227
-226
-224
-215
-198
-177
-155
-134
-124
-131
-148
-160
-162
-161
-155
-150
-151
-144
-118
-97
-128
-197
-102
444
1321
1822
1386
352
-394
-436
-145
-14
-74
-104
-66
-44
-36
-11
12
28
52
82
111
140
168
196
224
245
257
265
266
257
240
218
191
154
107
54
2
-45
-85
-115
-135
-148
-154
-154
-149
-144
-140
-136
-129
-122
-113
-105
-101
-100
-98
-94
-93
-92
-89
-88
-92
-95
-93
-88
-81
-67
-48
-38
-49
-71
-87
-92
-92
-88
-87
-93
-88
-65
-54
-98
-162
-22
578
1435
1809
1238
186
-465
-417
-115
-15
-81
-98
-58
-42
-37
-16
4
22
50
76
98
123
152
180
202
217
225
226
220
205
183
156
122
82
35
-17
-70
-117
-155
-182
-202
-215
-221
-220
-217
-213
-207
-200
-195
-191
-182
-174
-170
-170
-168
-163
-159
-158
-159
-160
-157
-151
-149
-147
-136
-115
-102
-112
-135
-146
-145
-143
-142
-141
-142
-133
-111
-100
-136
-187
-42
554
1401
1770
1198
146
-504
-450
-141
-37
-103
-118
-74
-56
-49
-25
-1
19
46
72
97
127
159
187
212
233
246
247
240
227
209
180
140
94
45
-11
-66
-114
-151
-178
-195
-204
-208
-209
-208
-202
-195
-190
-184
-176
-168
-162
-158
-152
-147
-145
-144
-140
-139
-143
-145
-139
-132
-128
-124
-110
-93
-90
-106
-124
-131
-130
-127
-123
-126
-126
-107
-83
-94
-155
-140
245
1070
1782
1651
698
-250
-519
-262
-42
-61
-118
-92
-60
-56
-40
-15
5
29
59
86
115
145
173
201
227
245
251
249
239
221
195
159
114
61
1
-57
-107
-146
-176
-196
-208
-214
-216
-213
-208
-202
-196
-190
-182
-174
-167
-162
-158
-153
-149
-144
-141
-140
-141
-144
-146
-145
-139
-134
-136
-142
-143
-137
-129
-119
-102
-84
-75
-84
-100
-108
-106
-105
-101
-96
-99
-99
-76
-53
-80
-162
-134
313
1195
1893
1698
717
-195
-423
-175
4
-39
-96
-68
-38
-33
-14
11
30
55
84
109
138
170
201
232
260
280
291
295
291
279
257
223
175
118
57
-3
-56
-100
-133
-156
-169
-175
-175
-172
-164
-155
-148
-142
-135
-129
-123
-117
-113
-109
-105
-102
-100
-98
-97
-97
-98
-97
-95
-94
-94
-92
-90
-88
-86
-84
-81
-80
-78
-76
-74
-72
-70
-68
-66
-66
-66
-64
-62
-61
-60
-59
-59
-58
-56
-56
-55
-54
-53
-52
-52
-51
-51
-51
-50
-49
-49
-49
-48
-47
-46
-45
-45
-45
-46
-46
-44
-43
-42
-43
-45
-46
-44
-42
-45
-48
-39
-19
1
7
2
-2
-5
-15
-28
-40
-47
-46
-43
-53
-55
-30
-17
-63
-135
-54
427
1261
1880
1677
763
-98
-349
-157
-6
-51
-108
-86
-61
-56
-39
-16
0
19
42
64
87
113
140
167
193
216
233
243
246
244
236
221
196
159
112
59
5
-47
-95
-135
-164
-183
-194
-198
-198
-194
-189
-184
-180
-176
-172
-167
-161
-157
-153
-150
-147
-144
-142
-141
-140
-140
-139
-138
-136
-134
-133
-132
-130
-128
-126
-124
-121
-118
-116
-113
-111
-109
-106
-104
-102
-100
-98
-96
-94
-93
-91
-89
-85
-83
-82
-81
-82
-81
-78
-76
-79
-76
-57
-29
-12
-10
-16
-21
-28
-41
-54
-59
-61
-61
-58
-60
-67
-53
-26
-36
-106
-133
142
871
1678
1835
1111
124
-362
-251
-20
3
-69
-69
-35
-26
-16
8
27
46
72
97
122
148
174
201
228
253
270
278
279
273
259
235
199
156
106
48
-13
-66
-108
-140
-165
-183
-193
-196
-194
-191
-188
-182
-174
-166
-159
-154
-150
-145
-140
-135
-132
-131
-130
-128
-127
-126
-124
-123
-123
-123
-123
-124
-122
-118
-116
-117
-118
-116
-113
-112
-113
-112
-109
-105
-102
-100
-98
-96
-96
-93
-89
-89
-93
-92
-74
-46
-23
-17
-24
-39
-55
-67
-70
-72
-74
-71
-73
-76
-64
-39
-42
-99
-125
139
854
1625
1711
920
-67
-481
-294
-34
-9
-75
-66
-31
-25
-14
11
30
51
77
101
125
156
188
217
242
263
277
283
279
269
253
229
196
153
101
44
-12
-64
-110
-148
-174
-189
-195
-198
-200
-203
-202
-196
-187
-181
-177
-172
-166
-160
-156
-152
-149
-147
-146
-143
-138
-137
-142
-145
-141
-137
-136
-136
-135
-134
-133
-130
-125
-120
-119
-121
-119
-109
-90
-70
-55
-52
-62
-80
-93
-97
-98
-97
-93
-95
-98
-86
-66
-74
-130
-118
249
1036
1696
1523
570
-331
-542
-250
-19
-33
-81
-52
-23
-19
-1
24
41
62
90
118
149
182
215
250
281
303
317
321
315
296
266
227
178
120
55
-9
-66
-113
-150
-178
-198
-210
-215
-215
-212
-208
-203
-198
-190
-182
-174
-168
-162
-155
-149
-143
-139
-137
-137
-136
-134
-130
-130
-133
-135
-135
-134
-134
-133
-130
-127
-129
-133
-130
-115
-92
-72
-60
-60
-73
-91
-101
-105
-106
-102
-101
-106
-98
-71
-62
-113
-181
-25
616
1510
1891
1305
241
-415
-377
-94
-12
-87
-107
-67
-52
-45
-22
-1
18
43
69
96
128
161
195
227
256
278
292
295
287
269
239
195
139
74
7
-58
-113
-157
-189
-210
-223
-228
-229
-226
-220
-213
-206
-200
-195
-188
-179
-171
-165
-160
-155
-152
-149
-146
-144
-143
-141
-140
-139
-136
-133
-136
-140
-139
-127
-106
-85
-71
-68
-80
-99
-110
-114
-115
-112
-110
-116
-113
-87
-74
-121
-196
-78
515
1426
1927
1469
420
-334
-393
-129
-25
-98
-132
-97
-78
-72
-50
-28
-9
15
41
67
97
130
163
196
223
244
257
263
259
245
217
175
121
59
-7
-70
-126
-171
-202
-221
-231
-234
-233
-229
-224
-218
-209
-199
-191
-184
-178
-171
-165
-159
-154
-149
-145
-143
-142
-139
-133
-130
-134
-138
-136
-128
-114
-97
-75
-60
-65
-86
-103
-105
-104
-102
-99
-104
-106
-85
-61
-84
-168
-159
255
1127
1877
1765
819
-135
-432
-216
-29
-63
-125
-103
-73
-70
-56
-32
-14
7
33
59
88
118
146
176
205
228
241
246
243
233
214
180
134
77
14
-48
-104
-149
-183
-205
-218
-224
-225
-221
-216
-208
-200
-192
-184
-176
-169
-164
-158
-153
-148
-144
-140
-137
-136
-135
-133
-132
-131
-128
-123
-122
-127
-130
-126
-117
-103
-82
-61
-54
-69
-88
-95
-92
-92
-91
-91
-97
-93
-68
-53
-98
-177
-72
499
1395
1896
1450
412
-335
-388
-118
-6
-77
-111
-75
-56
-52
-32
-9
8
30
55
79
107
136
164
191
215
233
243
245
238
226
206
173
128
73
15
-43
-95
-139
-170
-191
-203
-208
-207
-203
-198
-191
-183
-175
-168
-161
-154
-147
-141
-135
-130
-128
-128
-126
-123
-121
-121
-121
-120
-118
-115
-111
-110
-110
-109
-108
-103
-98
-96
-101
-105
-97
-76
-51
-32
-26
-32
-47
-66
-78
-81
-83
-83
-78
-81
-84
-68
-42
-57
-134
-160
153
924
1687
1703
864
-96
-455
-253
-20
-20
-90
-79
-44
-38
-26
-5
10
30
58
83
106
131
157
183
206
221
229
232
227
215
200
179
150
110
62
12
-38
-85
-126
-156
-176
-188
-194
-195
-191
-188
-184
-178
-171
-165
-160
-155
-149
-144
-140
-137
-136
-135
-135
-135
-135
-135
-135
-135
-137
-138
-135
-128
-123
-123
-127
-128
-122
-108
-88
-70
-58
-59
-73
-91
-100
-101
-103
-107
-104
-103
-105
-94
-69
-63
-116
-152
103
833
1630
1715
888
-132
-543
-329
-50
-24
-92
-79
-37
-29
-19
5
25
46
73
99
125
155
183
211
236
255
266
267
258
243
226
202
166
121
71
19
-35
-84
-125
-154
-175
-189
-196
-198
-197
-193
-187
-180
-171
-165
-162
-159
-153
-145
-141
-140
-140
-139
-138
-137
-136
-137
-139
-140
-139
-136
-134
-135
-139
-139
-132
-120
-104
-84
-66
-64
-79
-101
-112
-110
-108
-109
-108
-109
-110
-96
-72
-75
-137
-158
162
959
1731
1702
793
-195
-523
-280
-37
-41
-103
-84
-52
-48
-32
-4
15
36
62
88
118
150
180
209
236
258
271
272
264
249
227
195
152
100
41
-19
-74
-119
-154
-181
-199
-209
-212
-210
-205
-199
-193
-187
-179
-170
-162
-156
-151
-146
-140
-135
-133
-132
-131
-129
-128
-130
-132
-131
-127
-127
-133
-138
-135
-128
-119
-104
-84
-72
-79
-96
-107
-106
-106
-105
-103
-106
-108
-90
-65
-81
-157
-170
184
1010
1788
1760
866
-109
-448
-237
-24
-45
-114
-96
-65
-62
-47
-20
-2
19
45
70
98
130
161
191
220
242
256
261
256
244
223
191
145
89
27
-34
-89
-136
-172
-197
-211
-217
-218
-217
-213
-207
-199
-189
-180
-173
-166
-159
-153
-147
-142
-138
-136
-134
-133
-132
-130
-128
-126
-124
-122
-121
-121
-119
-113
-108
-111
-117
-120
-115
-102
-82
-59
-45
-49
-67
-81
-82
-82
-85
-82
-81
-89
-82
-52
-45
-106
-181
-30
599
1489
1901
1369
333
-346
-350
-87
-1
-76
-102
-67
-52
-47
-23
0
18
41
65
89
117
147
175
202
227
244
253
254
248
236
214
179
130
75
15
-43
-97
-141
-174
-195
-206
-211
-213
-212
-207
-199
-189
-181
-174
-168
-162
-156
-151
-147
-142
-139
-137
-134
-132
-130
-128
-127
-126
-125
-122
-120
-119
-118
-116
-114
-113
-107
-100
-100
-108
-115
-113
-102
-83
-59
-43
-44
-60
-76
-80
-78
-80
-78
-76
-83
-81
-55
-40
-86
-165
-73
460
1318
1831
1446
458
-294
-380
-121
2
-60
-99
-66
-44
-39
-20
1
17
39
64
88
113
141
168
196
220
237
244
245
239
226
206
176
137
89
35
-21
-74
-119
-152
-175
-191
-200
-203
-202
-198
-190
-182
-176
-171
-165
-158
-150
-145
-141
-137
-133
-131
-130
-129
-127
-124
-121
-120
-120
-119
-117
-114
-111
-109
-106
-102
-103
-109
-113
-110
-99
-82
-61
-45
-42
-55
-74
-83
-83
-81
-79
-78
-85
-83
-59
-41
-79
-157
-78
440
1289
1790
1383
380
-357
-409
-126
5
-56
-93
-61
-43
-41
-21
2
19
39
62
84
112
140
165
187
208
224
231
227
217
204
183
152
113
69
20
-32
-83
-127
-162
-187
-201
-208
-212
-213
-209
-202
-196
-191
-187
-180
-172
-166
-162
-157
-153
-150
-148
-147
-146
-145
-145
-143
-138
-136
-138
-142
-141
-135
-125
-112
-92
-75
-73
-89
-106
-108
-104
-102
-99
-99
-104
-94
-68
-61
-115
-164
58
763
1595
1780
1037
12
-474
-322
-53
-16
-88
-87
-51
-43
-34
-9
11
30
55
79
106
136
164
191
217
238
249
251
246
234
215
185
144
96
44
-10
-64
-112
-151
-179
-196
-206
-210
-211
-208
-201
-194
-186
-178
-170
-163
-156
-150
-145
-142
-138
-136
-135
-133
-132
-133
-131
-128
-127
-132
-135
-133
-127
-115
-96
-74
-63
-74
-96
-107
-106
-105
-103
-101
-107
-107
-85
-64
-91
-170
-129
338
1206
1830
1549
553
-290
-441
-175
-16
-69
-118
-89
-65
-62
-43
-20
-2
20
46
70
96
125
152
178
201
216
223
222
214
202
182
151
109
60
5
-49
-99
-140
-172
-194
-207
-212
-213
-210
-206
-199
-191
-181
-173
-167
-161
-153
-145
-138
-135
-133
-132
-130
-127
-125
-125
-126
-122
-116
-114
-119
-122
-118
-108
-94
-74
-53
-47
-62
-83
-91
-90
-88
-84
-83
-90
-84
-59
-50
-101
-166
-3
636
1503
1842
1235
197
-412
-349
-75
-6
-80
-96
-63
-52
-45
-22
-3
13
36
60
85
113
140
165
188
205
213
215
211
201
184
162
131
91
45
-6
-57
-104
-145
-175
-193
-202
-208
-211
-209
-201
-192
-184
-177
-172
-167
-161
-154
-148
-145
-143
-141
-140
-141
-141
-138
-139
-146
-150
-144
-134
-123
-110
-95
-86
-96
-116
-128
-127
-125
-123
-125
-132
-128
-104
-91
-132
-200
-79
501
1372
1804
1287
238
-455
-446
-151
-42
-108
-133
-96
-79
-73
-50
-28
-9
17
44
69
96
122
146
169
187
195
193
185
172
157
139
116
82
39
-8
-52
-93
-129
-160
-181
-192
-197
-198
-195
-189
-181
-174
-166
-159
-152
-146
-142
-138
-134
-130
-127
-124
-122
-125
-127
-124
-117
-111
-102
-86
-65
-58
-73
-93
-100
-99
-95
-89
-88
-90
-77
-52
-50
-108
-145
117
854
1655
1748
940
-61
-473
-279
-18
2
-65
-52
-13
-6
3
28
48
69
96
122
149
178
204
228
251
266
271
267
257
239
213
181
142
96
46
-6
-54
-94
-126
-148
-163
-172
-175
-176
-175
-172
-167
-161
-155
-151
-146
-141
-137
-135
-134
-136
-138
-138
-138
-145
-154
-158
-155
-151
-144
-130
-115
-116
-136
-156
-164
-167
-169
-166
-171
-179
-167
-142
-152
-230
-272
19
806
1644
1749
934
-87
-532
-374
-143
-140
-216
-209
-175
-170
-160
-136
-117
-97
-72
-46
-19
9
35
60
84
101
111
113
109
98
81
56
22
-22
-71
-121
-167
-204
-231
-249
-257
-258
-253
-244
-233
-220
-205
-189
-174
-162
-149
-134
-118
-104
-93
-82
-70
-59
-49
-37
-21
-8
-1
5
19
40
64
92
125
152
158
152
153
166
181
197
212
222
235
272
310
292
220
285
779
1676
2349
2104
1099
274
88
