# session 12
-1
1
0
-5
-14
-17
-7
13
35
46
43
25
2
-12
-18
-21
-21
-23
-31
-33
-15
3
-27
-105
-37
474
1317
1786
1332
321
-371
-368
-72
39
-33
-62
-25
-9
-8
10
28
43
66
92
116
143
175
207
241
271
293
306
310
305
291
265
222
162
92
19
-50
-110
-157
-191
-215
-230
-239
-241
-240
-237
-233
-227
-222
-216
-209
-201
-193
-186
-181
-176
-172
-169
-167
-165
-163
-161
-160
-159
-159
-158
-156
-154
-153
-151
-149
-146
-144
-142
-144
-150
-149
-134
-109
-84
-69
-67
-79
-98
-109
-111
-110
-105
-103
-108
-106
-85
-65
-94
-171
-97
424
1276
1753
1310
310
-377
-381
-94
12
-59
-87
-49
-32
-27
-4
19
35
59
87
115
147
179
212
248
281
307
325
333
332
322
298
254
191
116
41
-29
-91
-141
-177
-199
-211
-218
-219
-217
-214
-210
-202
-194
-187
-180
-173
-166
-159
-154
-150
-146
-143
-141
-138
-136
-135
-134
-133
-132
-132
-131
-130
-128
-124
-122
-124
-130
-130
-116
-91
-67
-53
-52
-66
-85
-95
-99
-99
-95
-94
-101
-97
-73
-57
-97
-173
-56
537
1407
1803
1254
230
-395
-343
-63
12
-67
-86
-48
-34
-29
-7
13
31
57
84
111
143
175
209
244
276
301
317
324
323
311
283
236
171
95
17
-55
-115
-161
-193
-214
-226
-231
-231
-229
-226
-222
-216
-208
-201
-194
-188
-181
-175
-169
-165
-160
-157
-154
-152
-150
-148
-148
-148
-148
-146
-142
-141
-145
-148
-143
-128
-106
-84
-69
-68
-85
-105
-116
-117
-115
-112
-114
-118
-105
-79
-77
-140
-186
83
844
1654
1730
910
-72
-453
-254
-19
-25
-100
-90
-56
-49
-36
-11
8
28
55
80
108
142
175
208
241
271
292
303
305
298
281
248
196
128
52
-21
-85
-138
-177
-203
-219
-228
-232
-231
-228
-223
-216
-209
-201
-193
-186
-178
-171
-166
-162
-158
-154
-152
-149
-146
-143
-143
-142
-139
-139
-141
-142
-134
-117
-96
-75
-63
-67
-86
-104
-112
-115
-113
-109
-110
-111
-95
-70
-80
-156
-167
205
1037
1757
1629
696
-205
-436
-185
1
-39
-98
-73
-47
-45
-28
-3
14
36
63
88
115
146
177
208
238
260
274
278
275
264
243
209
160
101
34
-33
-92
-138
-173
-197
-210
-215
-215
-215
-214
-209
-202
-196
-191
-186
-179
-171
-163
-158
-155
-153
-153
-152
-149
-145
-143
-147
-151
-150
-143
-136
-124
-105
-88
-89
-108
-126
-132
-131
-127
-126
-130
-126
-104
-88
-126
-202
-94
479
1337
1738
1199
178
-451
-396
-103
-16
-89
-108
-69
-54
-48
-25
-4
13
39
65
90
120
152
184
215
241
258
266
266
257
239
209
166
111
47
-16
-72
-120
-159
-187
-203
-211
-214
-214
-211
-205
-198
-191
-184
-178
-169
-161
-154
-150
-145
-142
-139
-136
-132
-132
-135
-136
-133
-127
-116
-98
-78
-72
-87
-108
-119
-121
-118
-114
-118
-120
-102
-76
-93
-184
-217
133
962
1716
1646
755
-149
-412
-186
-5
-45
-108
-86
-58
-56
-40
-15
4
25
52
77
105
137
168
200
230
252
265
270
268
257
233
192
134
67
-3
-67
-122
-165
-196
-215
-224
-229
-230
-226
-221
-215
-208
-200
-192
-185
-178
-171
-165
-160
-155
-150
-146
-150
-155
-156
-152
-146
-136
-117
-96
-91
-106
-125
-135
-137
-133
-130
-136
-137
-115
-90
-121
-223
-224
194
1034
1675
1459
542
-253
-401
-153
-7
-63
-114
-86
-61
-55
-35
-12
5
27
57
87
117
147
177
209
239
259
268
271
266
252
224
179
121
56
-11
-72
-122
-161
-189
-206
-213
-216
-216
-213
-206
-198
-192
-186
-179
-174
-168
-163
-156
-148
-138
-131
-126
-127
-137
-148
-149
-140
-134
-135
-129
-106
-84
-84
-101
-112
-115
-119
-123
-127
-128
-115
-93
-96
-163
-220
11
724
1534
1678
941
-11
-421
-257
-22
-11
-89
-98
-68
-47
-23
-5
4
28
62
81
97
130
175
217
250
277
291
289
279
271
255
217
163
102
36
-35
-99
-144
-173
-199
-217
-221
-216
-212
-205
-193
-185
-181
-171
-158
-153
-151
-143
-133
-126
-121
-119
-121
-129
-144
-155
-145
-108
-68
-65
-105
-147
-153
-147
-157
-164
-152
-133
-117
-108
-126
-202
-262
-32
654
1390
1456
716
-150
-460
-252
-24
-25
-94
-83
-44
-34
-27
-7
19
48
64
73
97
130
149
149
151
175
206
209
180
147
127
114
101
78
31
-33
-85
-112
-128
-150
-168
-172
-172
-181
-183
-165
-141
-132
-136
-141
-142
-138
-129
-115
-99
-95
-111
-135
-136
-117
-105
-103
-92
-71
-64
-79
-98
-103
-104
-117
-125
-119
-114
-109
-86
-70
-119
-211
-128
380
1145
1518
1075
199
-362
-341
-97
-15
-77
-99
-56
-28
-28
-26
-16
11
50
75
88
112
150
188
217
235
244
249
250
239
217
198
178
137
70
-7
-67
-99
-118
-142
-168
-185
-190
-184
-174
-169
-172
-176
-174
-169
-168
-171
-169
-160
-149
-143
-141
-136
-127
-117
-111
-114
-121
-120
-108
-89
-74
-72
-89
-114
-127
-127
-124
-124
-128
-128
-110
-83
-86
-156
-202
67
825
1639
1733
927
-63
-469
-287
-50
-46
-117
-107
-73
-68
-57
-34
-16
3
27
50
78
114
149
178
203
221
230
231
225
215
198
168
122
68
9
-50
-103
-146
-176
-196
-210
-218
-218
-215
-210
-204
-195
-186
-181
-175
-169
-164
-158
-153
-149
-147
-145
-142
-141
-140
-138
-138
-141
-141
-135
-127
-120
-110
-92
-78
-85
-106
-119
-119
-117
-117
-117
-120
-115
-97
-80
-102
-170
-103
404
1268
1780
1345
300
-444
-465
-154
-19
-77
-102
-61
-41
-36
-14
9
29
57
89
120
153
185
217
251
280
300
309
308
299
280
245
194
129
59
-11
-74
-126
-163
-187
-203
-213
-218
-218
-214
-208
-202
-195
-186
-177
-170
-164
-157
-150
-144
-140
-136
-134
-133
-130
-128
-128
-126
-122
-122
-127
-132
-131
-125
-117
-103
-84
-71
-76
-94
-106
-106
-104
-104
-101
-103
-108
-96
-67
-66
-134
-189
52
785
1631
1821
1094
93
-389
-264
-30
-15
-95
-96
-59
-47
-35
-10
10
31
58
85
113
147
181
216
251
282
305
318
321
316
298
261
203
128
49
-25
-90
-142
-179
-203
-217
-223
-223
-221
-216
-209
-200
-192
-186
-182
-177
-172
-167
-162
-158
-154
-150
-148
-146
-144
-142
-140
-139
-138
-136
-135
-133
-130
-127
-125
-124
-121
-118
-116
-113
-110
-108
-106
-102
-97
-96
-102
-107
-99
-74
-48
-33
-31
-39
-52
-66
-74
-75
-77
-76
-74
-80
-80
-56
-37
-71
-146
-96
343
1148
1747
1529
629
-181
-369
-142
13
-31
-84
-59
-32
-27
-9
16
34
56
82
106
134
166
198
230
261
289
310
323
328
324
309
276
224
156
81
8
-57
-112
-153
-181
-198
-207
-210
-208
-203
-197
-191
-184
-178
-174
-169
-166
-163
-160
-156
-152
-150
-149
-147
-145
-144
-142
-141
-141
-142
-141
-138
-133
-129
-127
-127
-127
-124
-122
-119
-115
-111
-113
-119
-116
-97
-69
-49
-43
-49
-61
-76
-87
-89
-90
-88
-84
-88
-93
-74
-51
-75
-154
-135
265
1071
1729
1579
688
-168
-402
-178
0
-35
-93
-69
-39
-33
-15
9
23
44
71
98
125
156
187
220
251
276
291
295
293
287
273
244
198
139
72
3
-61
-115
-157
-188
-206
-214
-218
-219
-215
-209
-204
-201
-198
-192
-185
-179
-175
-172
-168
-162
-157
-154
-154
-152
-148
-146
-145
-144
-139
-134
-133
-133
-130
-124
-119
-118
-119
-115
-105
-86
-65
-50
-50
-65
-83
-90
-90
-92
-95
-97
-99
-94
-74
-56
-77
-139
-58
459
1300
1752
1268
227
-472
-450
-125
5
-57
-80
-40
-23
-20
2
26
45
69
94
121
156
194
233
269
299
320
334
339
333
314
282
234
169
93
17
-52
-111
-158
-192
-214
-228
-236
-239
-237
-234
-229
-222
-216
-211
-204
-195
-188
-182
-177
-172
-168
-163
-158
-154
-153
-153
-150
-147
-146
-147
-144
-138
-137
-140
-141
-134
-119
-99
-78
-64
-66
-83
-101
-108
-108
-104
-100
-103
-108
-93
-65
-68
-138
-172
128
900
1670
1687
853
-89
-426
-220
-4
-19
-88
-72
-39
-33
-19
5
24
45
72
100
131
166
202
239
276
309
333
347
351
343
319
274
207
125
40
-39
-106
-158
-196
-222
-237
-243
-245
-244
-241
-236
-229
-222
-215
-208
-202
-196
-190
-185
-181
-177
-172
-169
-166
-161
-158
-159
-164
-166
-161
-153
-139
-119
-100
-98
-114
-131
-137
-139
-137
-132
-133
-137
-121
-92
-102
-180
-203
137
956
1749
1763
914
-46
-408
-230
-33
-54
-122
-108
-76
-70
-55
-30
-9
14
43
70
99
132
166
200
234
263
284
296
299
291
269
228
166
91
12
-61
-124
-171
-204
-226
-238
-243
-242
-240
-237
-231
-224
-215
-206
-199
-193
-186
-181
-176
-172
-168
-164
-159
-155
-152
-148
-143
-143
-148
-151
-146
-135
-121
-102
-81
-72
-84
-104
-114
-115
-110
-105
-108
-112
-97
-69
-77
-154
-181
153
968
1756
1755
891
-67
-407
-209
-8
-31
-100
-85
-54
-49
-35
-11
8
30
57
86
114
142
171
202
234
261
277
284
283
277
259
223
169
100
27
-41
-100
-149
-188
-214
-226
-230
-230
-229
-227
-222
-215
-206
-199
-193
-187
-180
-174
-171
-168
-164
-160
-158
-157
-158
-161
-161
-157
-149
-137
-117
-95
-86
-99
-120
-130
-130
-127
-124
-127
-131
-115
-86
-94
-170
-195
134
928
1676
1635
763
-162
-456
-229
-17
-38
-103
-84
-53
-50
-35
-8
12
32
58
85
115
147
175
203
229
248
256
257
253
243
223
191
145
88
25
-38
-92
-135
-168
-191
-205
-212
-215
-216
-213
-207
-199
-191
-186
-183
-177
-172
-168
-165
-161
-155
-152
-153
-155
-153
-149
-145
-139
-125
-106
-95
-105
-124
-137
-143
-141
-135
-137
-139
-123
-99
-112
-187
-185
191
984
1619
1419
485
-353
-512
-223
-24
-56
-105
-74
-45
-41
-24
0
19
43
71
97
128
162
195
225
250
269
278
277
267
248
218
174
118
54
-11
-72
-122
-159
-184
-201
-211
-215
-214
-211
-206
-201
-193
-185
-177
-170
-163
-157
-149
-142
-137
-139
-143
-143
-137
-128
-115
-96
-78
-78
-96
-115
-126
-128
-124
-121
-128
-126
-95
-76
-137
-254
-181
394
1319
1851
1435
433
-287
-343
-100
-11
-87
-121
-88
-70
-66
-45
-22
-3
23
50
76
106
138
170
200
226
242
249
248
240
221
187
136
71
1
-66
-124
-170
-202
-225
-239
-244
-244
-242
-237
-229
-221
-214
-206
-199
-192
-186
-182
-176
-167
-162
-164
-168
-168
-164
-157
-144
-123
-101
-99
-117
-135
-144
-144
-138
-136
-144
-138
-107
-94
-161
-269
-150
481
1397
1832
1317
312
-327
-318
-76
-16
-97
-119
-83
-68
-61
-38
-16
4
31
59
87
118
150
180
209
233
248
256
256
247
227
193
144
82
15
-50
-106
-150
-182
-204
-216
-221
-222
-220
-214
-206
-198
-189
-182
-175
-169
-163
-157
-152
-150
-147
-141
-135
-136
-141
-144
-140
-131
-117
-96
-78
-78
-94
-111
-119
-119
-113
-112
-119
-111
-80
-73
-148
-242
-63
639
1543
1853
1207
186
-370
-288
-43
-8
-91
-102
-64
-52
-42
-19
-2
16
42
70
98
128
157
183
208
229
239
239
235
227
210
179
134
78
17
-43
-96
-139
-173
-198
-212
-216
-216
-214
-209
-203
-197
-193
-188
-179
-171
-167
-164
-159
-154
-151
-151
-151
-150
-146
-143
-146
-149
-146
-138
-129
-119
-102
-84
-85
-106
-124
-130
-126
-119
-119
-126
-120
-94
-80
-127
-195
-35
614
1475
1765
1101
60
-490
-368
-78
-19
-93
-99
-60
-51
-44
-21
-1
18
45
74
102
133
164
194
223
244
255
258
254
242
223
190
142
84
22
-38
-92
-137
-172
-195
-208
-213
-215
-213
-209
-201
-193
-185
-178
-170
-161
-153
-146
-140
-136
-134
-132
-129
-126
-124
-123
-122
-121
-119
-118
-117
-112
-107
-108
-112
-113
-106
-89
-65
-42
-32
-43
-65
-77
-78
-78
-77
-74
-78
-78
-57
-34
-63
-154
-113
381
1274
1872
1541
537
-254
-354
-89
35
-37
-82
-49
-27
-22
-3
20
38
63
90
118
149
182
213
245
275
298
310
313
309
295
268
222
157
84
11
-55
-111
-155
-185
-205
-216
-222
-222
-220
-215
-209
-202
-195
-188
-183
-177
-171
-165
-160
-156
-154
-154
-152
-150
-148
-147
-146
-146
-144
-142
-140
-140
-139
-136
-134
-132
-130
-128
-126
-125
-123
-120
-117
-113
-109
-111
-119
-121
-105
-78
-53
-43
-43
-51
-66
-81
-87
-87
-86
-84
-86
-93
-83
-55
-51
-116
-185
13
702
1557
1810
1140
138
-379
-272
-26
3
-76
-82
-46
-37
-27
-2
19
39
65
91
120
152
183
214
245
271
290
301
306
302
289
261
218
159
90
20
-45
-101
-144
-175
-194
-206
-211
-212
-209
-204
-197
-190
-183
-177
-171
-164
-158
-153
-147
-142
-138
-135
-133
-131
-129
-126
-123
-122
-121
-118
-113
-109
-108
-108
-107
-105
-102
-98
-94
-89
-87
-86
-85
-82
-77
-70
-67
-71
-78
-78
-61
-35
-11
0
-1
-12
-30
-44
-48
-49
-46
-43
-49
-54
-38
-13
-29
-110
-117
257
1077
1777
1645
729
-157
-392
-152
32
-8
-70
-48
-21
-19
-5
18
32
51
75
100
128
157
185
213
240
262
276
281
275
263
242
207
157
97
33
-32
-96
-152
-194
-222
-240
-251
-256
-257
-256
-255
-252
-245
-238
-231
-224
-216
-209
-202
-196
-190
-183
-176
-170
-164
-157
-151
-145
