# session 29
-30
-35
-36
-36
-33
-30
-25
-22
-20
-18
-15
-14
-17
-20
-23
-25
-27
-30
-33
-37
-42
-47
-50
-50
-51
-55
-60
-59
-48
-30
-12
-1
-2
-18
-42
-61
-68
-68
-66
-66
-73
-72
-53
-37
-67
-130
-27
519
1376
1828
1330
263
-469
-472
-151
-11
-70
-99
-61
-42
-38
-16
7
22
43
67
91
116
142
168
191
205
211
209
199
183
162
138
108
73
35
-7
-54
-101
-140
-168
-187
-201
-210
-214
-214
-211
-204
-197
-192
-188
-182
-174
-166
-162
-161
-160
-158
-156
-155
-156
-158
-159
-159
-155
-151
-151
-149
-141
-126
-109
-94
-85
-87
-104
-123
-132
-132
-130
-125
-125
-127
-114
-88
-82
-128
-147
141
901
1685
1709
822
-208
-591
-353
-68
-42
-104
-87
-49
-41
-27
1
21
41
69
97
127
158
185
210
232
247
251
245
231
212
188
157
119
75
27
-24
-72
-113
-143
-162
-176
-185
-190
-189
-187
-184
-178
-170
-162
-155
-151
-146
-139
-132
-129
-129
-129
-129
-129
-130
-130
-130
-130
-131
-132
-133
-131
-126
-117
-101
-83
-72
-80
-100
-112
-112
-111
-108
-106
-110
-108
-87
-68
-91
-153
-81
416
1288
1859
1494
447
-381
-481
-180
-18
-73
-113
-73
-47
-46
-28
-4
14
39
68
98
128
156
183
211
235
247
249
243
230
211
183
145
98
46
-7
-58
-103
-142
-169
-187
-198
-205
-208
-206
-200
-192
-184
-176
-170
-164
-158
-152
-147
-142
-140
-139
-138
-136
-134
-134
-136
-137
-136
-132
-131
-137
-141
-138
-130
-120
-104
-84
-72
-79
-98
-108
-106
-104
-105
-102
-103
-107
-91
-63
-68
-134
-168
111
880
1729
1874
1079
34
-446
-294
-42
-25
-102
-97
-58
-50
-41
-16
5
28
56
83
110
141
172
201
229
249
260
262
255
241
220
188
145
94
38
-18
-71
-116
-150
-173
-187
-194
-195
-192
-187
-179
-171
-164
-157
-151
-145
-140
-135
-132
-129
-126
-124
-123
-123
-122
-120
-119
-119
-118
-118
-118
-117
-115
-114
-114
-113
-110
-107
-106
-105
-103
-101
-97
-95
-94
-93
-90
-86
-82
-82
-90
-96
-88
-64
-37
-21
-19
-24
-35
-50
-61
-62
-63
-66
-63
-62
-69
-62
-33
-28
-85
-145
7
603
1462
1897
1423
408
-309
-357
-95
12
-56
-89
-54
-36
-31
-9
14
33
56
81
105
133
162
189
216
239
256
265
267
261
248
228
198
160
111
57
0
-52
-96
-132
-157
-174
-181
-183
-182
-179
-172
-164
-158
-154
-150
-145
-140
-136
-133
-131
-131
-130
-129
-129
-129
-129
-129
-129
-128
-127
-126
-125
-123
-121
-120
-119
-117
-115
-114
-112
-109
-107
-105
-103
-101
-100
-98
-97
-94
-92
-91
-89
-85
-81
-85
-93
-93
-75
-48
-26
-14
-15
-26
-43
-58
-65
-63
-63
-67
-65
-64
-71
-62
-35
-34
-94
-147
40
682
1536
1888
1322
299
-348
-333
-71
8
-65
-86
-49
-35
-29
-5
17
35
58
81
105
132
160
187
212
234
248
254
253
246
232
211
180
140
93
42
-11
-60
-103
-136
-160
-175
-182
-185
-183
-179
-173
-168
-161
-156
-151
-147
-141
-137
-134
-131
-129
-127
-127
-126
-125
-126
-126
-126
-126
-124
-122
-121
-119
-118
-116
-114
-113
-111
-108
-107
-106
-106
-103
-101
-99
-97
-95
-93
-90
-88
-88
-94
-99
-93
-73
-46
-26
-18
-22
-37
-55
-67
-67
-66
-68
-66
-68
-74
-62
-35
-40
-102
-138
99
781
1576
1767
1079
91
-414
-300
-40
6
-66
-71
-32
-22
-15
9
28
45
69
94
120
147
174
199
223
244
257
261
259
248
229
202
167
128
84
34
-18
-67
-108
-140
-161
-173
-179
-182
-181
-178
-174
-169
-165
-159
-154
-149
-145
-142
-138
-133
-129
-129
-130
-130
-130
-130
-129
-129
-129
-129
-130
-130
-127
-124
-123
-124
-122
-119
-117
-118
-118
-115
-108
-104
-105
-111
-113
-105
-86
-64
-44
-33
-35
-52
-72
-82
-80
-78
-75
-75
-82
-79
-54
-37
-74
-137
-25
519
1349
1780
1299
276
-424
-428
-122
9
-50
-79
-38
-17
-12
7
27
44
68
94
118
145
173
197
220
241
255
259
255
245
228
203
169
131
91
45
-4
-50
-92
-128
-154
-169
-179
-186
-190
-189
-185
-179
-174
-170
-167
-162
-154
-148
-144
-142
-140
-138
-138
-137
-134
-132
-133
-134
-133
-133
-133
-133
-131
-132
-132
-126
-121
-122
-127
-126
-112
-92
-71
-56
-50
-58
-77
-94
-100
-99
-95
-92
-96
-96
-79
-55
-62
-119
-120
211
978
1685
1599
680
-278
-567
-295
-32
-23
-78
-56
-21
-15
-1
22
38
59
88
115
144
176
208
236
261
279
288
289
280
260
232
195
153
105
52
-4
-57
-104
-141
-169
-186
-194
-198
-199
-201
-199
-194
-185
-180
-176
-169
-162
-156
-153
-149
-143
-139
-141
-142
-139
-135
-136
-140
-141
-140
-140
-139
-136
-132
-131
-133
-133
-127
-113
-94
-74
-61
-63
-79
-97
-105
-106
-103
-97
-98
-107
-99
-72
-63
-109
-148
78
769
1583
1757
1001
-42
-538
-372
-74
-18
-87
-85
-44
-33
-23
4
24
42
66
94
124
157
188
216
245
268
279
279
273
260
236
202
161
113
60
3
-53
-102
-140
-167
-185
-197
-201
-200
-197
-196
-195
-189
-180
-173
-169
-165
-159
-151
-145
-141
-140
-140
-141
-142
-142
-141
-141
-142
-141
-137
-134
-137
-141
-137
-124
-107
-92
-80
-72
-77
-94
-109
-114
-114
-110
-107
-112
-109
-85
-66
-93
-158
-99
372
1234
1852
1562
543
-330
-491
-208
-27
-69
-113
-79
-54
-52
-30
-3
15
37
63
91
121
152
182
212
241
260
267
266
257
240
214
176
127
72
14
-42
-94
-137
-170
-191
-202
-207
-210
-212
-208
-201
-195
-190
-185
-179
-172
-166
-161
-157
-153
-151
-148
-146
-145
-145
-147
-148
-144
-140
-141
-146
-148
-139
-123
-106
-91
-81
-82
-96
-112
-119
-120
-119
-114
-116
-122
-108
-78
-82
-147
-184
80
833
1703
1906
1154
89
-450
-333
-72
-38
-116
-117
-77
-67
-57
-33
-12
9
36
62
90
123
156
187
216
241
256
263
260
249
227
193
147
92
31
-29
-86
-133
-169
-194
-209
-216
-217
-214
-210
-205
-198
-189
-181
-174
-168
-162
-157
-153
-150
-146
-143
-142
-142
-142
-141
-137
-133
-133
-138
-142
-139
-132
-123
-106
-86
-74
-83
-104
-115
-113
-112
-111
-109
-115
-116
-92
-69
-101
-180
-133
334
1218
1914
1731
765
-158
-423
-205
-33
-74
-134
-109
-79
-74
-57
-31
-11
12
37
62
90
121
152
182
209
228
240
243
239
227
205
170
123
69
10
-49
-101
-143
-174
-194
-205
-208
-206
-201
-195
-187
-179
-172
-165
-158
-153
-147
-141
-137
-133
-130
-128
-126
-125
-126
-126
-126
-125
-123
-121
-121
-121
-118
-113
-113
-118
-123
-120
-111
-95
-74
-57
-55
-71
-89
-95
-94
-96
-94
-92
-99
-97
-69
-55
-102
-179
-76
479
1368
1907
1521
501
-292
-401
-142
-11
-73
-114
-81
-58
-53
-33
-11
5
28
53
76
103
132
159
184
206
221
228
230
224
213
193
162
121
73
20
-34
-86
-128
-158
-178
-190
-196
-196
-192
-185
-177
-169
-161
-154
-149
-144
-138
-133
-129
-127
-126
-125
-125
-124
-123
-123
-124
-125
-124
-123
-123
-123
-120
-114
-112
-117
-123
-122
-114
-99
-79
-61
-55
-67
-87
-96
-95
-94
-93
-92
-98
-99
-76
-54
-83
-160
-122
311
1144
1787
1580
633
-235
-441
-189
-7
-46
-101
-75
-48
-47
-31
-6
12
33
59
81
104
130
155
177
197
211
219
217
206
192
174
148
113
70
23
-26
-74
-115
-147
-170
-184
-189
-188
-185
-181
-177
-170
-162
-154
-148
-146
-143
-136
-128
-124
-125
-125
-125
-125
-127
-128
-127
-126
-127
-125
-123
-126
-132
-132
-124
-113
-102
-88
-72
-69
-86
-105
-111
-110
-108
-104
-106
-107
-92
-69
-77
-134
-130
217
1003
1720
1635
717
-238
-530
-273
-30
-39
-104
-84
-49
-43
-28
-1
17
35
59
83
108
135
160
182
203
216
216
208
197
185
167
139
105
68
30
-13
-59
-103
-138
-162
-175
-183
-188
-190
-188
-181
-173
-166
-160
-154
-147
-142
-139
-137
-135
-134
-134
-134
-133
-132
-132
-132
-132
-134
-134
-130
-124
-117
-107
-89
-74
-76
-95
-111
-115
-114
-111
-104
-105
-110
-95
-70
-77
-133
-100
315
1142
1785
1550
548
-356
-545
-245
-27
-54
-105
-72
-38
-34
-19
6
25
46
69
92
121
153
177
196
212
223
224
216
199
178
153
124
89
49
7
-38
-82
-120
-149
-168
-180
-187
-190
-190
-187
-182
-175
-168
-161
-156
-150
-143
-137
-135
-136
-137
-136
-134
-135
-137
-136
-133
-136
-140
-141
-136
-131
-123
-107
-88
-84
-101
-118
-121
-120
-120
-116
-116
-117
-106
-83
-84
-136
-154
135
895
1694
1756
905
-121
-530
-322
-57
-43
-114
-101
-62
-56
-44
-19
0
19
46
72
100
131
159
184
207
222
226
223
214
200
178
147
107
60
10
-40
-87
-127
-158
-178
-191
-198
-200
-197
-189
-182
-175
-169
-162
-154
-146
-140
-135
-131
-128
-126
-125
-126
-127
-124
-123
-129
-134
-132
-127
-121
-112
-95
-79
-80
-99
-116
-119
-118
-116
-112
-115
-120
-105
-79
-90
-158
-172
162
975
1791
1836
973
-51
-468
-288
-55
-57
-132
-122
-87
-79
-66
-41
-22
-2
25
51
77
106
135
163
187
203
210
209
203
189
168
137
96
47
-7
-60
-107
-147
-178
-197
-207
-211
-209
-204
-197
-188
-179
-169
-162
-155
-148
-142
-136
-133
-130
-128
-125
-123
-122
-122
-122
-121
-117
-114
-117
-123
-123
-117
-107
-91
-70
-57
-65
-86
-100
-102
-102
-103
-101
-104
-109
-92
-66
-78
-150
-166
165
972
1774
1808
951
-52
-450
-267
-42
-48
-121
-110
-75
-69
-55
-30
-11
9
35
61
87
114
141
167
190
206
213
213
207
195
176
150
113
68
16
-35
-83
-124
-156
-177
-189
-195
-195
-191
-185
-176
-167
-159
-152
-144
-138
-133
-128
-124
-120
-116
-114
-115
-115
-115
-115
-114
-113
-112
-112
-111
-107
-103
-107
-114
-116
-111
-98
-80
-61
-52
-60
-79
-93
-95
-95
-96
-92
-96
-102
-88
-62
-73
-146
-168
148
930
1715
1748
906
-77
-460
-269
-37
-39
-111
-99
-66
-60
-48
-24
-6
14
38
61
85
111
136
160
180
193
198
197
191
180
163
139
106
66
20
-28
-76
-118
-150
-173
-185
-191
-192
-190
-184
-176
-167
-159
-152
-145
-138
-132
-127
-122
-119
-118
-117
-116
-115
-114
-113
-112
-112
-111
-111
-110
-106
-102
-105
-112
-115
-111
-100
-81
-60
-46
-51
-72
-88
-90
-89
-90
-88
-90
-95
-84
-57
-57
-117
-160
82
797
1612
1767
1014
5
-462
-305
-44
-15
-92
-91
-53
-44
-35
-12
6
23
48
75
102
128
149
167
186
200
204
200
190
177
161
138
109
75
35
-8
-54
-96
-132
-157
-171
-179
-183
-184
-180
-172
-164
-160
-156
-149
-141
-135
-131
-128
-127
-125
-124
-126
-128
-127
-126
-127
-129
-129
-127
-123
-126
-133
-135
-128
-118
-107
-91
-73
-70
-86
-104
-111
-111
-109
-105
-107
-110
-99
-76
-76
-127
-130
191
953
1675
1621
721
-247
-559
-302
-43
-37
-99
-79
-44
-40
-27
-1
18
36
60
86
115
143
164
182
197
205
205
196
183
166
145
120
95
67
31
-12
-55
-91
-120
-144
-163
-174
-177
-176
-176
-174
-169
-160
-152
-146
-143
-139
-135
-130
-129
-131
-132
-131
-130
-130
-132
-135
-137
-133
-125
-119
-110
-96
-81
-84
-104
-122
-124
-121
-117
-115
-118
-115
-94
-74
-92
-148
-74
419
1269
1806
1407
348
-462
-530
-203
-25
-69
-102
-63
-40
-38
-16
12
31
54
81
108
135
162
187
212
229
235
229
215
198
179
153
118
75
31
-13
-55
-96
-131
-160
-180
-191
-196
-198
-198
-194
-187
-180
-173
-167
-163
-158
-150
-144
-145
-148
-146
-140
-136
-138
-143
-147
-144
-139
-134
-130
-122
-108
-95
-98
-114
-128
-134
-135
-128
-123
-125
-119
-96
-83
-117
-161
4
622
1473
1812
1196
122
-519
-448
-133
-30
-96
-109
-68
-54
-47
-21
4
24
51
78
103
133
163
191
213
227
232
228
216
198
176
148
113
68
19
-31
-76
-115
-148
-176
-193
-196
-195
-196
-197
-194
-187
-179
-171
-164
-157
-151
-148
-144
-140
-139
-140
-138
-134
-133
-138
-141
-137
-131
-126
-117
-102
-92
-99
-116
-127
-130
-130
-124
-119
-124
-119
-95
-83
-123
-175
-23
592
1478
1897
1350
270
-443
-436
-136
-26
-97
-122
-79
-58
-52
-30
-8
11
39
69
98
127
155
182
207
226
236
236
227
210
188
160
124
78
24
-31
-81
-122
-154
-177
-192
-199
-203
-201
-195
-189
-184
-178
-169
-160
-154
-151
-148
-144
-139
-137
-137
-138
-136
-130
-128
-134
-142
-141
-134
-125
-117
-105
-90
-83
-93
-112
-120
-121
-119
-114
-113
-121
-116
-86
-73
-125
-191
-37
600
1515
1962
1437
363
-368
-398
-131
-36
-110
-140
-104
-87
-80
-57
-33
-13
13
38
65
95
126
156
183
204
215
218
216
206
187
157
117
68
13
-43
-94
-138
-172
-195
-207
-212
-213
-209
-202
-194
-185
-176
-168
-161
-154
-146
-139
-134
-129
-124
-120
-118
-114
-110
-107
-104
-100
-96
-92
-89
-84
-80
-75
-72
-68
-64
-60
-54
-48
-43
-40
-36
-29
-21
-19
-24
-24
-9
18
43
58
64
62
50
36
31
34
36
41
45
40
48
79
86
28
-25
141
738
1591
2024
1549
553
-135
-210
56
