# session 16
0
271
306
223
213
246
251
253
270
283
295
315
335
356
381
407
437
468
495
516
528
532
525
507
474
424
357
279
197
121
54
0
-41
-69
-88
-100
-107
-110
-112
-112
-111
-110
-107
-104
-101
-99
-96
-94
-94
-94
-93
-92
-93
-94
-95
-96
-97
-100
-103
-105
-107
-109
-110
-112
-113
-113
-111
-112
-120
-128
-126
-108
-83
-63
-55
-61
-79
-100
-112
-115
-116
-114
-114
-122
-119
-95
-81
-126
-207
-113
439
1308
1789
1348
342
-368
-403
-133
-27
-98
-131
-95
-76
-72
-50
-29
-13
9
34
60
89
120
151
185
218
247
267
277
279
272
250
212
161
97
26
-43
-106
-158
-198
-222
-235
-239
-241
-241
-240
-236
-228
-219
-210
-201
-193
-188
-183
-177
-170
-164
-160
-156
-151
-147
-145
-143
-140
-137
-136
-134
-131
-129
-127
-124
-120
-117
-119
-121
-116
-99
-74
-52
-43
-49
-65
-82
-90
-95
-97
-92
-90
-96
-88
-62
-51
-98
-149
48
713
1534
1749
1044
29
-468
-320
-39
7
-68
-70
-29
-18
-10
13
32
49
74
98
124
154
186
218
249
277
298
311
316
311
298
275
238
184
120
51
-15
-73
-119
-154
-181
-199
-208
-210
-210
-209
-206
-199
-193
-186
-181
-176
-172
-167
-162
-158
-156
-154
-152
-150
-149
-148
-147
-148
-148
-146
-142
-141
-142
-141
-130
-111
-91
-77
-73
-86
-108
-123
-126
-124
-121
-120
-122
-117
-98
-81
-109
-166
-39
543
1390
1760
1184
138
-493
-423
-111
-10
-78
-95
-55
-40
-35
-13
8
28
54
79
105
137
172
206
241
274
299
314
319
314
301
274
228
166
94
22
-45
-103
-148
-182
-204
-216
-222
-224
-224
-221
-216
-209
-202
-194
-186
-179
-173
-167
-161
-156
-151
-149
-147
-145
-142
-142
-142
-139
-134
-136
-141
-143
-136
-120
-99
-78
-67
-74
-96
-115
-120
-120
-119
-116
-119
-122
-107
-81
-90
-160
-176
160
969
1752
1747
876
-93
-439
-237
-29
-50
-120
-105
-73
-69
-56
-32
-14
7
34
58
85
117
149
180
212
240
260
272
277
273
258
227
177
114
46
-23
-87
-140
-178
-204
-220
-228
-231
-228
-224
-218
-211
-202
-193
-185
-178
-173
-167
-161
-155
-150
-147
-144
-142
-139
-137
-133
-129
-129
-135
-138
-133
-122
-108
-89
-69
-63
-78
-97
-103
-103
-102
-98
-99
-104
-92
-63
-63
-131
-184
73
832
1693
1862
1096
70
-408
-268
-31
-21
-101
-99
-63
-56
-47
-23
-5
13
38
63
88
116
144
173
204
232
251
261
263
257
244
216
171
113
47
-20
-83
-136
-178
-206
-224
-233
-235
-233
-231
-229
-224
-215
-207
-201
-193
-188
-185
-178
-174
-175
-160
-131
-117
-120
-119
-113
-112
-112
-110
-108
-106
-104
-103
-101
-98
-96
-94
-92
-91
-89
-85
-83
-88
-96
-94
-74
-46
-25
-16
-18
-29
-46
-59
-62
-61
-61
-59
-59
-66
-58
-30
-29
-92
-151
47
712
1543
1806
1168
181
-356
-270
-20
23
-56
-66
-28
-17
-12
8
26
45
70
95
118
145
175
206
238
267
290
305
313
312
301
279
244
193
129
61
-4
-62
-112
-152
-180
-196
-203
-204
-202
-200
-196
-192
-186
-180
-176
-173
-166
-156
-148
-145
-144
-139
-133
-130
-127
-126
-124
-121
-117
-115
-116
-115
-112
-110
-109
-106
-103
-101
-101
-101
-97
-92
-89
-87
-86
-96
-112
-117
-112
-110
-110
-105
-104
-107
-108
-101
-92
-80
-66
-50
-45
-58
-77
-85
-85
-83
-79
-80
-85
-73
-46
-45
-107
-153
95
826
1652
1794
1018
1
-453
-285
-22
2
-76
-75
-38
-28
-18
3
17
35
63
88
113
142
172
202
230
255
270
274
271
264
252
225
184
133
74
9
-52
-103
-143
-174
-194
-206
-211
-213
-211
-206
-200
-196
-190
-181
-173
-170
-169
-168
-163
-158
-153
-151
-151
-151
-151
-147
-143
-144
-151
-151
-141
-132
-127
-119
-103
-90
-94
-110
-122
-125
-127
-123
-117
-120
-122
-103
-78
-93
-152
-81
416
1262
1775
1359
318
-446
-482
-162
-9
-68
-102
-62
-39
-38
-19
7
28
52
76
101
132
165
197
231
260
280
290
293
290
278
253
214
162
101
37
-25
-85
-134
-168
-189
-205
-215
-222
-222
-216
-207
-203
-203
-198
-185
-173
-169
-167
-162
-154
-151
-152
-152
-147
-143
-142
-144
-142
-137
-135
-138
-138
-132
-127
-125
-118
-100
-81
-81
-100
-115
-116
-114
-113
-110
-112
-114
-98
-74
-78
-131
-99
313
1129
1753
1503
516
-343
-495
-199
-9
-51
-98
-63
-35
-35
-20
6
25
48
74
101
133
167
200
233
263
286
299
303
301
290
267
228
174
109
38
-29
-89
-138
-176
-202
-217
-224
-228
-229
-223
-217
-213
-209
-201
-191
-184
-177
-172
-167
-162
-157
-154
-152
-150
-148
-145
-142
-142
-141
-138
-137
-140
-138
-130
-123
-119
-108
-90
-76
-82
-98
-107
-106
-106
-104
-99
-101
-102
-81
-55
-68
-135
-105
323
1162
1801
1562
584
-275
-441
-166
10
-36
-87
-56
-30
-27
-9
15
34
59
87
112
141
175
208
241
273
299
317
324
321
310
288
251
196
128
56
-12
-71
-119
-155
-178
-191
-198
-201
-199
-194
-189
-184
-178
-171
-164
-158
-152
-146
-141
-138
-133
-129
-128
-128
-128
-125
-122
-121
-119
-118
-116
-116
-117
-116
-113
-110
-108
-107
-106
-104
-99
-96
-94
-93
-91
-89
-88
-86
-82
-79
-77
-75
-73
-72
-71
-70
-69
-65
-62
-66
-73
-75
-66
-47
-25
-7
-1
-9
-27
-41
-45
-48
-50
-47
-49
-57
-46
-19
-25
-92
-128
118
818
1644
1880
1226
235
-315
-256
-29
6
-73
-84
-49
-39
-32
-9
11
27
50
73
97
126
156
186
218
250
277
297
309
313
309
294
261
209
145
74
3
-63
-118
-159
-187
-206
-216
-220
-218
-214
-208
-201
-193
-185
-181
-178
-174
-170
-165
-160
-156
-153
-151
-150
-148
-146
-143
-142
-141
-141
-140
-137
-134
-132
-130
-128
-126
-124
-122
-119
-117
-113
-110
-108
-106
-103
-102
-100
-97
-95
-93
-92
-89
-86
-87
-94
-100
-92
-69
-43
-26
-21
-26
-39
-55
-64
-64
-65
-66
-63
-67
-72
-53
-27
-46
-119
-118
213
968
1708
1748
973
49
-340
-194
6
-1
-74
-67
-34
-28
-17
6
24
42
67
91
116
144
174
206
238
269
295
313
321
322
314
291
251
193
124
51
-20
-81
-131
-167
-190
-204
-211
-213
-211
-206
-201
-195
-188
-180
-174
-169
-165
-160
-155
-151
-148
-143
-138
-135
-132
-129
-127
-126
-123
-121
-121
-119
-116
-112
-111
-112
-112
-110
-107
-102
-98
-97
-97
-97
-93
-89
-87
-87
-87
-85
-81
-79
-79
-79
-76
-73
-76
-84
-84
-67
-42
-20
-10
-12
-23
-40
-53
-55
-55
-57
-53
-54
-60
-51
-25
-28
-87
-126
98
764
1564
1789
1144
178
-338
-254
-17
20
-55
-64
-31
-23
-16
6
24
41
65
89
111
137
163
190
220
249
273
289
296
294
284
264
231
185
127
62
-5
-67
-117
-154
-181
-201
-214
-219
-217
-212
-206
-202
-198
-193
-187
-182
-178
-172
-164
-157
-154
-153
-151
-147
-144
-141
-139
-138
-138
-138
-137
-135
-134
-133
-131
-127
-123
-122
-123
-122
-119
-116
-114
-111
-107
-105
-108
-113
-110
-94
-70
-49
-38
-39
-53
-71
-82
-86
-86
-83
-80
-86
-86
-68
-52
-80
-138
-34
498
1312
1715
1215
210
-442
-407
-99
18
-44
-66
-27
-10
-5
16
36
52
75
100
126
157
190
220
251
283
309
326
334
332
321
298
260
208
145
77
10
-51
-102
-143
-173
-193
-202
-204
-203
-202
-201
-197
-191
-183
-176
-169
-163
-157
-152
-147
-142
-137
-134
-132
-130
-126
-124
-124
-123
-121
-120
-121
-122
-121
-120
-119
-118
-117
-115
-113
-108
-103
-104
-112
-116
-107
-84
-59
-43
-39
-47
-63
-78
-85
-87
-85
-82
-85
-90
-76
-51
-58
-126
-154
141
892
1642
1658
833
-102
-439
-229
-2
-11
-83
-71
-38
-34
-23
0
17
35
59
84
111
141
172
204
237
267
290
306
312
308
295
267
222
162
92
20
-47
-105
-151
-183
-205
-217
-223
-223
-220
-217
-212
-205
-196
-188
-180
-173
-168
-162
-156
-150
-146
-142
-138
-137
-135
-133
-132
-130
-128
-127
-126
-124
-123
-123
-123
-120
-115
-114
-119
-125
-123
-109
-84
-59
-45
-46
-62
-82
-93
-96
-96
-92
-91
-98
-94
-69
-56
-102
-175
-48
544
1402
1793
1256
243
-388
-349
-71
9
-67
-89
-52
-39
-34
-13
8
24
47
72
98
127
158
188
221
252
277
295
303
303
294
273
235
182
117
45
-26
-88
-138
-175
-201
-216
-224
-226
-225
-221
-216
-208
-199
-190
-182
-176
-169
-163
-157
-152
-147
-143
-139
-137
-136
-135
-133
-133
-132
-130
-129
-128
-127
-124
-120
-121
-127
-129
-120
-99
-73
-53
-47
-56
-76
-93
-99
-100
-98
-94
-98
-101
-86
-61
-69
-141
-162
170
965
1710
1659
774
-159
-448
-213
-2
-28
-96
-75
-43
-40
-28
-5
11
31
56
81
108
139
169
199
229
256
277
289
292
287
275
249
206
146
76
7
-56
-110
-153
-184
-204
-215
-218
-217
-215
-211
-204
-195
-187
-180
-174
-169
-164
-157
-149
-143
-139
-138
-138
-137
-134
-132
-131
-131
-130
-129
-127
-123
-120
-122
-128
-128
-115
-93
-70
-55
-53
-66
-86
-100
-105
-105
-101
-100
-108
-107
-84
-63
-92
-162
-68
476
1336
1796
1318
283
-420
-420
-119
-3
-72
-103
-66
-48
-43
-22
-2
14
38
64
88
115
145
174
202
228
249
260
263
259
250
234
205
162
107
47
-13
-67
-114
-153
-183
-202
-213
-217
-215
-210
-207
-205
-197
-184
-175
-171
-170
-167
-162
-155
-149
-148
-149
-149
-147
-145
-144
-144
-143
-144
-144
-137
-123
-107
-91
-76
-71
-84
-106
-118
-118
-116
-116
-119
-122
-114
-91
-75
-105
-160
-9
618
1472
1774
1112
46
-530
-405
-90
-12
-85
-91
-47
-33
-27
-5
13
32
61
89
113
142
176
208
236
260
277
288
289
281
265
239
199
145
84
20
-39
-92
-137
-170
-191
-204
-211
-215
-215
-212
-208
-203
-198
-191
-182
-173
-165
-160
-159
-158
-154
-149
-147
-147
-147
-144
-143
-143
-142
-135
-125
-114
-100
-87
-88
-104
-121
-129
-132
-132
-129
-129
-130
-116
-93
-96
-151
-139
236
1039
1705
1521
561
-330
-524
-235
-25
-56
-109
-79
-49
-46
-30
-5
14
39
67
92
120
152
184
215
245
269
283
286
281
269
246
207
156
99
34
-34
-94
-141
-173
-195
-211
-222
-226
-224
-220
-218
-214
-205
-196
-189
-183
-175
-165
-162
-162
-158
-150
-147
-151
-151
-145
-140
-136
-126
-107
-93
-99
-121
-137
-143
-143
-138
-137
-142
-133
-106
-98
-154
-224
-63
583
1462
1808
1202
166
-435
-367
-94
-32
-109
-120
-79
-68
-63
-39
-17
3
29
58
87
120
152
183
216
245
266
276
276
269
253
223
175
113
44
-23
-84
-133
-172
-198
-216
-225
-226
-222
-218
-213
-207
-200
-191
-183
-178
-172
-165
-157
-152
-148
-142
-138
-139
-143
-144
-141
-136
-127
-111
-91
-83
-95
-115
-125
-128
-127
-122
-123
-129
-117
-86
-84
-158
-226
-4
734
1645
1935
1261
214
-365
-300
-64
-31
-112
-122
-86
-76
-68
-43
-23
-6
18
45
72
102
135
169
203
231
251
263
267
263
246
213
162
97
24
-46
-108
-157
-194
-219
-234
-240
-241
-238
-234
-227
-218
-209
-201
-194
-187
-181
-175
-170
-165
-161
-158
-155
-153
-151
-149
-148
-145
-143
-140
-138
-135
-132
-130
-127
-123
-117
-112
-113
-118
-117
-102
-77
-53
-39
-39
-49
-66
-79
-81
-80
-80
-77
-77
-84
-72
-40
-40
-115
-180
54
794
1676
1914
1212
188
-343
-248
-13
11
-70
-75
-37
-26
-17
7
27
46
71
97
124
153
184
216
250
280
303
319
328
331
323
301
263
208
142
72
4
-55
-102
-136
-158
-172
-177
-176
-174
-167
-159
-151
-145
-139
-133
-127
-123
-118
-114
-110
-107
-104
-102
-101
-100
-97
-94
-92
-92
-93
-91
-88
-86
-85
-84
-83
-82
-80
-77
-74
-73
-72
-70
-68
-66
-65
-64
-62
-60
-59
-58
-57
-56
-54
-53
-52
-52
-53
-53
-52
-52
-52
-51
-50
-50
-50
-51
-50
-48
-47
-48
-48
-48
-47
-47
-47
-47
-47
-48
-48
-48
-48
-46
-46
-47
-48
-48
-47
-47
-48
-48
-46
-44
-40
-31
-16
-2
4
-1
-14
-30
-43
-51
-56
-54
-52
-61
-62
-38
-24
-66
-143
-67
437
1294
1862
1554
594
-199
-346
-118
5
-58
-105
-76
-54
-51
-33
-12
5
27
51
74
99
127
154
182
210
235
256
272
278
277
272
260
235
193
140
82
22
-34
-84
-125
-156
-177
-189
-195
-196
-193
-187
-180
-175
-170
-164
-157
-152
-147
-141
-136
-132
-128
-125
-123
-122
-119
-115
-112
-111
-111
-109
-106
-104
-103
-101
-97
-94
-93
-92
-89
-86
-83
-79
-76
-73
-71
-70
-69
-67
-65
-63
-60
-58
-57
-57
-56
-54
-52
-50
-49
-49
-49
-47
-47
-46
-45
-44
-44
-44
-44
-44
-42
-37
-32
-24
-10
3
9
5
-7
-22
-34
-44
-52
-52
-53
-62
-60
-39
-29
-76
-145
-17
571
1422
1814
1281
268
-375
-354
-87
-8
-82
-106
-73
-62
-57
-36
-19
-7
12
35
59
86
114
140
169
199
223
239
244
242
235
218
190
148
96
35
-29
-90
-144
-189
-223
-246
-259
-265
-265
-261
-256
-250
-242
-232
-221
-209
-198
-187
-177
-167
-157
-145
-134
-124
-112
