# session 7
-21
-24
-38
-66
-111
-169
-236
-299
-353
-395
-427
-451
-464
-466
-462
-453
-442
-430
-418
-404
-388
-372
-359
-347
-335
-321
-307
-296
-287
-280
-273
-264
-253
-244
-239
-233
-223
-213
-206
-202
-198
-190
-180
-173
-168
-159
-145
-127
-104
-80
-66
-69
-85
-97
-97
-91
-86
-82
-81
-74
-54
-28
-31
-93
-90
301
1149
1846
1643
641
-265
-443
-145
53
12
-37
-2
27
30
48
73
92
115
143
171
205
242
278
315
353
385
407
419
422
415
393
351
289
214
134
57
-13
-70
-113
-141
-159
-169
-177
-181
-182
-180
-174
-168
-163
-158
-151
-145
-141
-137
-133
-130
-129
-128
-126
-125
-128
-131
-132
-131
-130
-131
-133
-133
-131
-129
-132
-134
-130
-117
-101
-86
-74
-71
-82
-101
-114
-118
-120
-116
-113
-117
-115
-97
-79
-109
-185
-90
494
1418
1902
1385
299
-416
-404
-114
-27
-109
-132
-92
-78
-73
-48
-26
-8
16
43
72
106
143
180
218
257
289
311
322
325
318
291
242
173
95
15
-62
-130
-181
-214
-234
-247
-254
-255
-253
-249
-243
-237
-229
-222
-214
-207
-201
-195
-189
-183
-178
-175
-172
-171
-168
-166
-163
-162
-162
-163
-159
-153
-150
-152
-154
-148
-131
-107
-87
-77
-80
-94
-110
-116
-116
-116
-112
-111
-116
-110
-82
-64
-106
-190
-88
507
1442
1957
1490
432
-310
-352
-92
-6
-85
-113
-75
-58
-54
-31
-8
11
37
64
93
127
164
201
240
278
311
336
349
353
346
321
272
202
119
35
-42
-105
-153
-186
-207
-218
-223
-223
-219
-214
-209
-204
-198
-190
-183
-178
-174
-169
-163
-159
-156
-154
-151
-149
-147
-146
-145
-144
-143
-143
-143
-140
-133
-130
-134
-139
-135
-120
-98
-76
-64
-66
-83
-102
-108
-106
-108
-108
-105
-110
-110
-88
-65
-93
-182
-152
327
1241
1921
1673
671
-200
-382
-142
-6
-71
-122
-91
-67
-65
-46
-22
-3
21
48
75
107
142
177
214
251
285
311
328
334
330
312
272
210
133
51
-27
-95
-148
-185
-210
-224
-231
-232
-230
-225
-220
-214
-207
-200
-193
-187
-182
-177
-172
-168
-164
-161
-158
-156
-154
-153
-151
-150
-149
-148
-145
-143
-142
-138
-132
-129
-133
-139
-138
-130
-114
-94
-75
-69
-80
-96
-102
-99
-100
-98
-95
-98
-99
-78
-53
-74
-160
-151
279
1165
1881
1702
732
-167
-387
-150
8
-50
-108
-81
-55
-52
-34
-11
6
28
55
81
111
144
177
212
249
281
304
318
323
320
305
271
216
145
66
-10
-76
-130
-169
-196
-213
-220
-222
-221
-217
-212
-206
-200
-192
-184
-177
-172
-168
-163
-159
-156
-153
-151
-149
-148
-147
-145
-143
-142
-141
-140
-139
-136
-133
-132
-129
-124
-120
-123
-129
-130
-123
-109
-88
-68
-62
-72
-88
-94
-91
-91
-92
-88
-90
-93
-76
-49
-60
-140
-164
188
1022
1791
1732
825
-116
-406
-181
9
-30
-98
-77
-47
-44
-30
-7
11
32
59
85
113
145
178
212
247
277
299
311
316
313
299
269
220
154
81
8
-59
-113
-153
-183
-203
-214
-216
-214
-211
-208
-203
-198
-193
-186
-178
-170
-167
-164
-160
-156
-154
-153
-150
-147
-146
-148
-149
-147
-144
-144
-146
-144
-139
-134
-136
-141
-141
-135
-125
-109
-89
-77
-81
-96
-106
-106
-107
-107
-105
-105
-105
-90
-68
-74
-140
-152
196
1013
1760
1674
745
-197
-464
-209
-2
-39
-107
-83
-51
-46
-31
-8
7
28
53
79
109
142
174
204
236
262
280
289
289
280
264
237
195
136
67
-1
-62
-115
-158
-188
-206
-215
-219
-221
-219
-215
-209
-205
-198
-190
-184
-180
-175
-168
-164
-163
-162
-158
-154
-153
-153
-151
-151
-151
-149
-145
-140
-135
-123
-103
-91
-98
-116
-125
-124
-123
-122
-121
-123
-118
-97
-75
-96
-171
-105
433
1342
1867
1397
310
-444
-450
-134
-14
-86
-112
-70
-51
-47
-25
-4
14
39
66
94
127
164
199
231
262
288
303
307
300
285
258
213
152
84
14
-52
-109
-153
-185
-205
-217
-223
-226
-226
-224
-220
-214
-207
-197
-187
-179
-175
-170
-165
-160
-155
-152
-151
-149
-148
-146
-144
-141
-137
-136
-133
-118
-99
-93
-106
-121
-126
-128
-130
-127
-126
-126
-114
-91
-89
-147
-177
140
958
1758
1734
809
-187
-504
-257
-31
-54
-119
-96
-64
-60
-44
-19
-2
21
52
81
113
148
181
215
249
278
297
305
303
293
270
230
173
103
30
-39
-100
-151
-186
-206
-218
-228
-233
-231
-227
-224
-218
-209
-200
-194
-188
-180
-174
-170
-168
-165
-161
-160
-158
-155
-156
-159
-159
-155
-148
-138
-123
-108
-108
-123
-136
-140
-142
-140
-136
-138
-140
-123
-97
-106
-178
-190
186
1059
1849
1764
799
-184
-476
-235
-38
-78
-143
-116
-86
-84
-67
-41
-20
5
35
63
94
130
167
206
242
271
292
304
305
295
270
226
162
86
8
-64
-125
-172
-204
-222
-233
-239
-241
-238
-232
-226
-220
-214
-206
-198
-190
-184
-178
-172
-168
-164
-162
-158
-154
-151
-154
-157
-156
-151
-144
-131
-113
-98
-98
-112
-124
-125
-123
-121
-117
-117
-120
-105
-73
-73
-150
-204
84
907
1815
1975
1166
110
-373
-240
-24
-31
-111
-104
-68
-60
-47
-21
-1
22
51
80
112
147
184
223
262
294
320
337
344
338
317
274
211
134
54
-22
-86
-134
-167
-188
-200
-206
-207
-204
-198
-192
-185
-177
-169
-161
-156
-152
-148
-143
-139
-136
-134
-132
-130
-128
-127
-127
-127
-124
-121
-118
-116
-115
-113
-111
-108
-106
-105
-103
-100
-98
-96
-94
-92
-90
-88
-85
-82
-80
-79
-78
-76
-73
-72
-70
-68
-65
-64
-64
-63
-59
-55
-57
-64
-68
-57
-33
-10
0
0
-6
-18
-34
-44
-46
-48
-50
-48
-52
-59
-44
-17
-29
-110
-150
149
949
1811
1953
1172
157
-316
-202
-4
-16
-97
-93
-61
-56
-45
-21
-2
17
42
66
92
123
155
187
223
257
286
307
319
323
321
306
273
219
150
75
2
-64
-118
-160
-189
-206
-217
-222
-221
-217
-211
-206
-201
-196
-192
-187
-183
-179
-176
-172
-169
-166
-164
-164
-163
-162
-162
-161
-159
-157
-155
-154
-153
-152
-149
-147
-144
-141
-138
-135
-131
-128
-126
-123
-120
-117
-115
-113
-110
-107
-103
-99
-96
-99
-105
-100
-78
-50
-31
-24
-27
-37
-52
-64
-66
-64
-65
-67
-63
-65
-69
-54
-27
-34
-110
-153
137
921
1757
1862
1063
71
-353
-198
15
4
-73
-64
-29
-23
-11
14
32
52
78
104
133
165
198
234
271
305
334
353
360
359
349
322
273
207
132
57
-13
-74
-123
-159
-182
-196
-203
-204
-203
-202
-199
-193
-186
-181
-177
-173
-170
-165
-158
-150
-144
-141
-141
-139
-134
-129
-129
-130
-128
-126
-126
-124
-121
-119
-118
-116
-114
-113
-114
-113
-110
-107
-105
-102
-101
-99
-96
-91
-89
-91
-92
-89
-84
-81
-81
-80
-80
-78
-74
-71
-72
-78
-82
-74
-56
-35
-18
-9
-11
-26
-45
-56
-56
-56
-56
-53
-54
-59
-51
-30
-27
-85
-133
113
862
1713
1859
1065
35
-416
-246
-2
2
-76
-67
-31
-26
-17
5
21
40
67
93
119
149
182
220
258
288
310
327
340
341
330
306
267
213
145
70
-3
-69
-121
-161
-187
-205
-217
-223
-225
-224
-221
-215
-209
-203
-198
-191
-183
-177
-173
-169
-165
-161
-159
-157
-154
-151
-148
-147
-147
-147
-144
-141
-140
-142
-142
-139
-135
-132
-128
-125
-124
-125
-122
-118
-113
-109
-106
-101
-97
-98
-102
-102
-93
-75
-53
-36
-33
-42
-57
-68
-73
-75
-75
-71
-72
-78
-69
-47
-41
-95
-141
106
849
1675
1779
951
-74
-484
-272
-10
-2
-74
-59
-19
-13
-2
21
38
56
83
113
144
181
217
254
293
330
361
381
389
386
371
338
284
213
134
52
-24
-90
-142
-178
-200
-213
-220
-223
-225
-225
-223
-218
-212
-205
-199
-194
-187
-179
-172
-167
-165
-161
-155
-150
-148
-147
-145
-142
-138
-138
-140
-141
-139
-137
-135
-136
-135
-133
-129
-126
-122
-120
-118
-116
-112
-108
-107
-113
-119
-113
-93
-70
-52
-43
-44
-55
-70
-79
-82
-82
-78
-76
-80
-74
-53
-43
-91
-167
-22
625
1538
1922
1317
244
-393
-334
-57
6
-77
-91
-51
-37
-30
-7
12
31
57
86
115
149
186
226
268
309
345
374
393
399
391
365
315
241
153
62
-21
-91
-145
-185
-210
-225
-232
-234
-232
-229
-225
-220
-215
-209
-203
-196
-190
-183
-178
-172
-167
-162
-158
-154
-150
-145
-143
-142
-141
-140
-139
-137
-135
-135
-134
-132
-129
-127
-126
-124
-122
-120
-117
-112
-108
-112
-120
-123
-111
-88
-64
-49
-46
-54
-69
-81
-86
-88
-86
-82
-85
-89
-70
-44
-63
-147
-149
246
1101
1848
1750
830
-102
-388
-175
4
-38
-102
-80
-51
-48
-32
-9
9
31
57
84
114
148
185
224
264
303
335
359
372
374
361
326
268
189
102
15
-61
-124
-172
-204
-223
-234
-237
-236
-232
-228
-222
-217
-211
-204
-196
-190
-184
-178
-172
-167
-163
-158
-155
-153
-150
-147
-145
-142
-140
-139
-138
-136
-135
-134
-131
-129
-128
-126
-123
-118
-117
-123
-130
-125
-106
-79
-57
-49
-54
-70
-86
-93
-94
-94
-90
-90
-97
-90
-61
-48
-104
-187
-46
596
1507
1908
1340
295
-351
-320
-61
-1
-83
-101
-63
-52
-46
-23
-2
16
41
68
95
127
161
195
232
270
304
331
347
353
348
326
282
216
135
50
-30
-98
-151
-188
-212
-225
-231
-231
-229
-225
-219
-212
-204
-197
-190
-182
-176
-169
-164
-159
-155
-152
-150
-147
-143
-140
-138
-137
-136
-136
-135
-133
-130
-128
-128
-127
-123
-117
-116
-122
-128
-124
-104
-77
-55
-46
-51
-69
-86
-92
-92
-92
-91
-92
-97
-88
-64
-56
-103
-171
-15
629
1516
1870
1261
216
-391
-322
-54
-2
-85
-96
-56
-47
-43
-20
1
18
40
65
92
125
159
191
223
257
286
307
315
314
307
290
254
195
121
45
-25
-87
-137
-176
-201
-216
-224
-226
-223
-220
-216
-212
-204
-195
-189
-185
-181
-176
-170
-164
-158
-154
-152
-153
-154
-153
-150
-149
-148
-149
-148
-146
-142
-140
-139
-140
-140
-137
-129
-113
-93
-72
-61
-67
-85
-101
-107
-107
-104
-100
-103
-104
-89
-64
-69
-131
-111
309
1167
1827
1572
549
-337
-491
-191
-7
-56
-105
-71
-45
-40
-18
6
21
42
68
92
123
160
198
235
270
302
326
338
339
330
311
278
227
157
81
7
-57
-112
-156
-188
-206
-214
-220
-225
-224
-217
-208
-203
-198
-191
-182
-176
-172
-167
-162
-159
-157
-154
-151
-150
-150
-150
-149
-147
-146
-146
-144
-142
-142
-142
-137
-123
-106
-89
-78
-76
-88
-107
-118
-120
-118
-114
-112
-115
-111
-91
-74
-107
-162
20
699
1571
1823
1093
12
-527
-376
-79
-27
-99
-97
-58
-47
-36
-12
5
25
54
83
110
142
179
219
258
292
318
335
341
336
322
293
246
179
101
23
-48
-108
-154
-187
-210
-224
-230
-230
-228
-226
-221
-214
-207
-199
-193
-186
-178
-172
-167
-164
-162
-160
-158
-157
-156
-155
-155
-154
-152
-149
-150
-152
-151
-144
-129
-111
-95
-88
-95
-112
-125
-129
-131
-128
-126
-130
-128
-109
-86
-100
-169
-129
351
1252
1883
1557
505
-343
-456
-167
-21
-85
-125
-88
-66
-63
-41
-16
2
26
56
86
118
153
189
229
267
299
322
335
340
333
309
263
199
121
38
-41
-106
-155
-190
-213
-227
-234
-235
-231
-226
-219
-212
-205
-197
-190
-184
-179
-172
-164
-159
-155
-151
-149
-150
-150
-147
-142
-140
-143
-147
-146
-140
-131
-118
-99
-87
-94
-112
-123
-124
-123
-120
-117
-122
-120
-98
-75
-104
-186
-127
392
1315
1936
1606
575
-255
-385
-133
-13
-85
-129
-96
-75
-70
-49
-25
-7
19
46
73
105
142
180
220
259
292
315
328
332
324
300
251
181
98
13
-63
-126
-175
-209
-230
-240
-244
-244
-242
-237
-230
-222
-214
-206
-198
-191
-186
-182
-178
-173
-169
-167
-165
-164
-163
-163
-160
-157
-156
-160
-163
-160
-153
-142
-126
-108
-100
-110
-128
-135
-133
-133
-131
-127
-131
-130
-107
-83
-111
-198
-156
341
1257
1911
1635
633
-217
-385
-151
-25
-91
-140
-109
-86
-82
-63
-38
-19
5
33
61
92
127
164
203
241
273
297
313
320
315
294
251
186
107
24
-53
-117
-167
-201
-223
-234
-239
-238
-233
-226
-218
-210
-202
-193
-184
-177
-170
-164
-159
-154
-150
-146
-143
-140
-137
-134
-132
-129
-127
-125
-123
-118
-114
-110
-107
-104
-102
-99
-93
-85
-81
-82
-87
-88
-80
-63
-40
-20
-14
-22
-37
-44
-43
-42
-39
-32
-34
-40
-23
7
-1
-80
-118
189
985
1799
1861
1038
65
-319
-148
54
34
-39
-23
9
10
20
44
63
83
107
131
159
191
220
248
277
308
333
348
352
347
335
312
271
209
134
57
-14
-72
-118
-151
-175
-193
-202
-204
-202
-200
-197
-193
-188
-184
-182
-180
-179
-176
-174
-174
-175
-177
-177
-178
-180
-183
-187
-190
-190
-189
-190
-193
-197
-200
-199
-196
-195
-195
-196
-195
-191
-189
-193
-199
-197
-183
-162
-144
-136
-140
-153
-171
-182
-184
-186
-190
-188
-187
-192
-187
-164
-152
-199
-274
-112
561
1449
1736
1042
-21
-563
-423
-135
-91
-170
-168
-120
-106
-98
-75
-54
-29
4
38
70
106
144
183
224
261
291
312
324
328
325
311
279
228
164
98
36
-16
-55
-81
-98
-108
-106
-96
-85
-78
-65
-46
-25
-9
4
21
39
