# session 3
38
-811
-1720
-2145
-1911
-1619
-1609
-1643
-1577
-1508
-1464
-1405
-1341
-1284
-1224
-1161
-1096
-1026
-955
-883
-805
-725
-653
-589
-535
-491
-459
-439
-436
-452
-486
-529
-572
-609
-640
-660
-665
-657
-642
-621
-597
-571
-544
-514
-484
-453
-421
-391
-362
-334
-306
-280
-256
-233
-209
-187
-168
-149
-128
-107
-90
-76
-59
-42
-27
-16
-4
11
29
45
56
64
75
89
100
106
115
130
142
144
145
157
181
209
230
237
233
222
211
207
204
200
201
203
198
196
212
229
205
131
188
687
1558
2097
1688
636
-147
-204
95
231
169
135
171
185
182
198
217
229
246
269
297
331
366
398
431
465
495
515
522
514
492
455
400
324
237
147
64
-8
-69
-119
-157
-182
-194
-200
-205
-210
-212
-212
-213
-212
-210
-209
-208
-205
-202
-201
-204
-207
-207
-206
-206
-208
-210
-213
-216
-217
-218
-220
-222
-224
-224
-225
-227
-229
-226
-223
-224
-227
-225
-215
-198
-181
-168
-161
-166
-181
-194
-200
-201
-199
-192
-193
-199
-189
-163
-162
-226
-255
64
873
1661
1640
732
-255
-582
-344
-110
-120
-180
-157
-121
-115
-99
-72
-50
-25
6
36
73
117
162
209
256
296
325
344
354
352
331
287
222
144
61
-18
-88
-143
-185
-214
-231
-238
-238
-237
-235
-229
-220
-210
-204
-198
-189
-179
-171
-164
-157
-150
-144
-141
-138
-134
-131
-130
-126
-122
-119
-118
-116
-113
-111
-110
-108
-104
-99
-97
-99
-97
-87
-68
-47
-32
-27
-34
-49
-60
-65
-68
-65
-61
-65
-64
-43
-21
-48
-136
-100
391
1312
1968
1665
618
-256
-408
-140
10
-48
-91
-56
-32
-28
-8
14
31
56
84
113
148
189
232
276
319
357
387
405
408
396
365
313
238
148
56
-25
-91
-142
-180
-204
-217
-225
-227
-225
-221
-216
-213
-209
-202
-193
-186
-182
-180
-176
-170
-164
-161
-160
-158
-156
-154
-152
-151
-150
-150
-149
-148
-148
-148
-148
-146
-141
-138
-142
-148
-144
-127
-103
-83
-74
-77
-90
-106
-115
-118
-119
-115
-113
-120
-119
-92
-73
-119
-210
-126
432
1352
1924
1551
527
-271
-387
-144
-32
-102
-140
-104
-82
-78
-58
-34
-14
11
40
69
103
142
182
226
272
313
343
360
366
358
331
280
206
119
34
-43
-108
-158
-193
-216
-228
-231
-230
-227
-223
-217
-209
-201
-194
-187
-180
-173
-167
-162
-158
-154
-150
-146
-144
-144
-143
-142
-140
-138
-138
-137
-135
-132
-130
-130
-128
-123
-118
-120
-127
-127
-112
-88
-65
-53
-51
-61
-78
-91
-94
-95
-94
-90
-94
-100
-82
-52
-67
-154
-181
162
990
1797
1820
966
-13
-393
-224
-25
-43
-113
-99
-66
-60
-47
-22
-3
18
45
74
105
141
178
218
259
297
328
348
357
354
337
300
239
162
79
-2
-73
-131
-174
-203
-221
-229
-230
-227
-223
-216
-209
-202
-195
-188
-181
-175
-170
-166
-162
-157
-153
-151
-149
-148
-147
-146
-146
-145
-144
-142
-141
-139
-137
-135
-133
-129
-125
-123
-127
-133
-130
-113
-86
-62
-51
-54
-68
-86
-94
-95
-96
-94
-91
-97
-97
-75
-52
-84
-171
-131
346
1224
1844
1556
569
-254
-398
-144
-4
-64
-109
-76
-52
-49
-31
-7
12
35
63
91
124
161
198
238
277
310
333
344
349
345
326
283
219
144
65
-9
-75
-130
-169
-192
-203
-209
-214
-216
-212
-203
-194
-187
-183
-179
-172
-165
-158
-153
-149
-146
-142
-139
-138
-139
-142
-143
-143
-143
-142
-140
-137
-133
-130
-131
-133
-133
-131
-130
-134
-134
-123
-102
-80
-63
-57
-65
-85
-100
-105
-107
-106
-102
-102
-104
-93
-72
-71
-125
-162
105
860
1670
1741
899
-111
-502
-290
-41
-41
-113
-96
-58
-52
-40
-14
8
29
53
76
107
144
180
215
252
285
310
324
328
322
305
275
227
163
89
19
-42
-94
-138
-173
-197
-210
-213
-213
-214
-214
-209
-199
-192
-188
-184
-177
-171
-167
-161
-153
-150
-154
-157
-154
-151
-150
-152
-152
-151
-150
-149
-147
-146
-142
-132
-114
-93
-78
-78
-90
-104
-112
-117
-118
-114
-113
-116
-110
-91
-75
-102
-152
14
663
1526
1801
1094
9
-550
-405
-96
-33
-102
-97
-52
-41
-33
-7
16
36
64
92
126
167
210
255
298
335
361
375
377
369
347
308
249
173
89
10
-59
-119
-167
-200
-220
-232
-236
-235
-233
-233
-230
-224
-217
-212
-206
-196
-185
-177
-172
-169
-166
-164
-163
-162
-161
-160
-156
-152
-150
-151
-150
-144
-133
-120
-107
-98
-101
-115
-129
-137
-141
-140
-137
-137
-134
-117
-97
-106
-157
-101
353
1179
1738
1399
389
-415
-508
-208
-44
-91
-124
-83
-58
-54
-33
-8
12
39
72
105
141
181
225
271
313
342
359
367
365
348
310
249
172
90
12
-61
-124
-172
-205
-223
-232
-236
-238
-237
-234
-229
-223
-216
-207
-200
-192
-183
-173
-166
-161
-158
-153
-146
-143
-146
-151
-151
-145
-140
-136
-126
-107
-93
-100
-118
-130
-134
-133
-128
-128
-133
-123
-95
-85
-135
-200
-27
645
1555
1916
1297
226
-412
-366
-102
-43
-122
-134
-93
-78
-71
-48
-27
-5
25
54
85
123
165
210
255
294
323
341
348
343
321
276
207
121
33
-46
-114
-169
-210
-238
-254
-259
-259
-255
-251
-245
-238
-231
-226
-220
-213
-205
-199
-194
-190
-185
-182
-177
-168
-162
-164
-167
-164
-156
-148
-137
-120
-102
-98
-110
-125
-128
-127
-127
-122
-121
-126
-112
-79
-80
-156
-213
44
811
1706
1943
1234
198
-352
-283
-66
-44
-118
-119
-81
-71
-60
-35
-14
6
35
64
96
133
171
211
254
292
321
338
344
336
312
263
193
109
24
-53
-117
-165
-199
-222
-235
-242
-245
-244
-240
-237
-232
-225
-218
-213
-209
-207
-206
-199
-185
-168
-154
-146
-142
-138
-134
-131
-128
-125
-123
-120
-118
-115
-112
-108
-104
-101
-98
-95
-93
-89
-83
-80
-86
-90
-79
-53
-29
-20
-20
-25
-36
-52
-62
-63
-63
-65
-62
-64
-71
-56
-27
-37
-118
-162
124
900
1748
1901
1142
134
-349
-237
-22
-14
-90
-88
-55
-47
-36
-11
8
27
53
81
112
147
182
220
260
295
322
343
354
355
344
314
263
193
113
34
-37
-97
-143
-174
-194
-206
-212
-211
-208
-202
-194
-187
-181
-175
-171
-168
-165
-162
-159
-157
-155
-153
-152
-152
-151
-150
-149
-149
-148
-147
-147
-145
-142
-139
-137
-136
-134
-132
-129
-126
-123
-121
-118
-115
-112
-109
-106
-103
-100
-98
-96
-95
-93
-89
-86
-89
-96
-93
-73
-46
-26
-18
-21
-31
-46
-60
-63
-58
-59
-62
-59
-61
-66
-53
-26
-32
-101
-141
122
864
1693
1849
1104
107
-364
-238
-15
-7
-81
-76
-41
-34
-23
1
22
43
70
96
125
159
193
228
265
300
328
346
354
355
346
321
276
214
141
65
-5
-65
-114
-151
-175
-189
-199
-204
-202
-196
-191
-186
-182
-178
-173
-165
-159
-156
-155
-155
-154
-151
-149
-149
-148
-147
-145
-144
-146
-148
-148
-145
-142
-141
-141
-140
-137
-135
-132
-127
-123
-123
-124
-121
-116
-112
-110
-109
-108
-104
-99
-95
-97
-101
-98
-84
-65
-46
-33
-30
-39
-57
-70
-71
-69
-70
-69
-71
-77
-69
-43
-31
-76
-148
-14
607
1498
1884
1294
225
-421
-363
-71
8
-69
-85
-45
-30
-23
1
20
38
64
92
121
157
194
231
269
304
331
349
361
364
352
324
278
217
145
70
-1
-62
-113
-151
-180
-199
-210
-214
-214
-213
-210
-206
-200
-192
-185
-180
-177
-171
-166
-162
-159
-155
-151
-150
-151
-151
-149
-147
-147
-148
-151
-149
-144
-140
-141
-141
-139
-134
-129
-128
-130
-128
-122
-116
-116
-119
-115
-102
-84
-66
-53
-49
-58
-74
-85
-88
-88
-87
-84
-87
-91
-76
-50
-52
-118
-147
171
969
1728
1673
753
-214
-504
-244
-11
-28
-87
-60
-26
-25
-11
15
36
60
88
114
147
187
230
274
316
350
377
394
399
391
366
321
255
176
94
16
-54
-112
-157
-186
-203
-214
-221
-222
-221
-218
-213
-208
-203
-198
-190
-181
-175
-170
-166
-161
-158
-155
-152
-149
-148
-150
-151
-150
-148
-147
-148
-148
-147
-144
-141
-140
-140
-140
-137
-135
-137
-137
-130
-115
-97
-81
-70
-69
-82
-98
-105
-108
-106
-100
-100
-106
-97
-72
-65
-123
-186
31
765
1652
1865
1100
32
-474
-321
-55
-30
-107
-102
-63
-54
-43
-17
2
24
54
84
115
155
197
241
287
330
363
385
395
393
376
336
272
189
100
16
-58
-119
-165
-196
-214
-222
-226
-227
-225
-221
-217
-211
-204
-197
-190
-184
-179
-174
-167
-161
-156
-154
-152
-148
-147
-147
-148
-146
-145
-144
-143
-143
-142
-141
-137
-134
-136
-142
-143
-130
-107
-84
-69
-66
-74
-90
-103
-107
-108
-105
-102
-107
-107
-84
-60
-92
-183
-151
323
1223
1892
1649
661
-206
-396
-159
-16
-74
-124
-94
-69
-65
-45
-21
-3
21
50
78
111
150
191
235
279
317
346
364
370
362
337
288
216
132
44
-35
-103
-156
-194
-218
-231
-236
-236
-235
-231
-227
-221
-214
-206
-199
-192
-187
-182
-178
-173
-168
-164
-162
-160
-158
-155
-152
-151
-150
-149
-148
-146
-141
-135
-134
-138
-143
-139
-120
-95
-75
-65
-67
-82
-99
-106
-109
-107
-103
-105
-110
-94
-66
-71
-144
-185
108
899
1736
1831
1015
14
-408
-248
-34
-44
-118
-107
-72
-66
-53
-28
-9
11
38
67
100
137
175
215
258
295
324
343
352
350
332
294
233
155
70
-10
-81
-138
-179
-206
-221
-229
-232
-232
-230
-225
-219
-211
-204
-198
-192
-185
-179
-175
-171
-167
-163
-161
-160
-158
-156
-156
-157
-157
-156
-152
-151
-153
-153
-145
-125
-103
-86
-77
-81
-97
-114
-121
-122
-118
-114
-116
-121
-107
-80
-82
-149
-181
130
938
1756
1791
923
-76
-451
-255
-39
-59
-130
-114
-80
-73
-59
-34
-16
6
35
65
98
135
173
211
250
284
310
325
329
323
303
264
205
133
55
-20
-86
-139
-177
-202
-215
-220
-221
-220
-219
-214
-207
-199
-192
-185
-178
-174
-171
-165
-159
-156
-155
-154
-152
-152
-154
-155
-152
-150
-154
-158
-155
-141
-121
-102
-88
-86
-101
-122
-133
-135
-133
-127
-125
-130
-123
-97
-82
-129
-204
-47
621
1531
1879
1240
173
-429
-345
-72
-23
-106
-115
-74
-62
-53
-27
-5
17
45
73
102
137
173
211
251
285
308
323
329
325
309
278
228
163
91
22
-40
-93
-136
-164
-180
-189
-194
-195
-191
-184
-184
-199
-220
-228
-218
-204
-197
-199
-202
-201
-197
-193
-189
-190
-197
-203
-198
-186
-175
-164
-147
-129
-126
-143
-159
-163
-161
-157
-154
-159
-159
-134
-104
-124
-212
-190
276
1172
1816
1525
516
-313
-438
-172
-39
-107
-147
-104
-74
-65
-41
-15
5
32
61
91
128
164
194
222
250
273
285
286
278
265
241
201
146
80
13
-48
-100
-140
-168
-185
-194
-197
-197
-193
-187
-182
-178
-172
-164
-157
-150
-146
-143
-140
-137
-133
-131
-135
-144
-149
-145
-139
-133
-120
-101
-90
-100
-120
-133
-135
-132
-126
-129
-134
-120
-90
-92
-172
-249
-17
738
1607
1777
1008
-5
-450
-286
-48
-47
-126
-118
-81
-74
-62
-37
-19
0
28
57
87
121
155
188
219
244
259
265
264
255
234
197
145
83
17
-48
-105
-149
-181
-202
-214
-220
-221
-218
-213
-209
-203
-196
-189
-182
-175
-166
-161
-157
-153
-151
-154
-156
-154
-149
-145
-137
-120
-101
-96
-113
-133
-141
-142
-137
-134
-140
-141
-116
-89
-121
-232
-254
158
1043
1768
1606
659
-217
-423
-183
-27
-83
-139
-110
-84
-79
-60
-36
-19
5
34
64
96
131
166
201
232
254
266
270
264
248
219
175
118
53
-11
-72
-123
-161
-186
-202
-210
-212
-212
-209
-203
-195
-188
-182
-176
-169
-163
-158
-153
-147
-145
-149
-152
-151
-147
-142
-131
-112
-97
-101
-121
-137
-143
-143
-139
-139
-146
-136
-105
-95
-164
-274
-161
458
1349
1744
1201
209
-386
-337
-86
-33
-112
-125
-86
-73
-65
-40
-17
4
31
59
90
127
164
198
233
262
281
290
289
280
258
219
162
94
26
-38
-93
-138
-169
-190
-202
-208
-209
-206
-201
-195
-189
-183
-176
-170
-164
-157
-149
-143
-143
-147
-149
-146
-140
-132
-117
-98
-90
-101
-120
-132
-137
-137
-132
-134
-141
-128
-94
-100
-201
-295
-59
709
1585
1764
1025
48
-392
-257
-48
-55
-132
-126
-93
-89
-77
-50
-30
-9
19
47
77
111
145
178
209
232
244
247
243
230
204
164
109
45
-19
-78
-128
-167
-195
-213
-222
-224
-223
-220
-216
-210
-202
-196
-191
-186
-180
-173
-165
-161
-162
-167
-168
-165
-160
-151
-135
-115
-108
-123
-144
-154
-156
-152
-149
-154
-158
-137
-107
-131
-246
-301
55
916
1696
1635
745
-156
-420
-204
-36
-82
-144
-121
-93
-89
-71
-44
-24
0
29
58
90
125
159
192
221
241
249
250
244
231
205
164
111
52
-9
-65
-112
-147
-171
-186
-192
-193
-191
-187
-181
-172
-164
-157
-151
-145
-137
-130
-125
-122
-119
-114
-112
-117
-122
-122
-116
-110
-99
-81
-63
-63
-82
-99
-103
-103
-101
-96
-98
-103
-87
-57
-68
-167
-232
83
928
1772
1803
930
-48
-398
-204
-10
-42
-114
-98
-68
-64
-50
-26
-8
14
43
70
98
130
162
193
220
238
247
249
243
229
204
166
115
54
-8
-68
-119
-159
-188
-206
-216
-221
-222
-220
-214
-206
-199
-193
-185
-175
-166
-160
-157
-154
-150
-146
-143
-141
-139
-134
-128
-122
