# session 6
-4
43
-8
-44
-7
18
19
41
68
85
109
138
165
198
234
269
307
346
379
404
418
421
415
392
346
280
201
119
41
-26
-80
-119
-143
-158
-165
-167
-166
-164
-159
-152
-145
-139
-136
-134
-129
-123
-119
-116
-115
-114
-114
-112
-112
-113
-115
-118
-118
-116
-114
-114
-112
-111
-113
-119
-123
-120
-108
-90
-70
-57
-62
-79
-90
-90
-90
-94
-93
-95
-98
-82
-55
-60
-129
-164
132
920
1736
1794
946
-52
-438
-246
-25
-42
-115
-99
-66
-64
-53
-28
-11
9
36
62
90
120
150
183
218
248
272
288
297
296
284
259
218
161
94
25
-44
-107
-156
-190
-212
-226
-234
-236
-233
-230
-226
-220
-214
-208
-201
-194
-189
-186
-183
-179
-175
-171
-170
-171
-173
-173
-171
-167
-163
-162
-165
-165
-158
-150
-144
-135
-117
-102
-105
-120
-129
-126
-123
-119
-118
-121
-117
-99
-80
-99
-158
-73
468
1365
1879
1408
320
-442
-456
-142
-18
-87
-113
-71
-52
-48
-26
-4
14
41
72
101
133
168
205
243
276
302
320
330
329
320
301
263
204
132
59
-10
-71
-123
-164
-193
-209
-216
-218
-217
-216
-212
-207
-202
-195
-188
-180
-175
-171
-168
-164
-159
-157
-158
-160
-159
-155
-151
-151
-157
-161
-157
-148
-140
-133
-120
-107
-106
-117
-130
-133
-131
-126
-123
-128
-130
-114
-87
-81
-133
-148
179
984
1747
1682
742
-237
-529
-269
-40
-58
-116
-88
-58
-55
-36
-9
9
31
59
89
121
158
195
233
270
300
319
329
331
324
306
272
220
152
75
-1
-68
-123
-164
-194
-216
-227
-227
-225
-223
-223
-219
-211
-202
-196
-192
-184
-175
-170
-169
-165
-161
-160
-164
-164
-158
-154
-157
-161
-157
-149
-142
-135
-122
-109
-109
-123
-132
-135
-136
-134
-130
-131
-128
-112
-92
-104
-164
-119
346
1225
1854
1548
512
-347
-481
-194
-34
-88
-128
-91
-67
-62
-38
-13
4
27
57
89
124
160
197
236
272
300
321
332
332
320
296
254
192
118
41
-32
-97
-149
-185
-208
-222
-230
-233
-231
-227
-220
-214
-209
-202
-193
-185
-178
-174
-170
-165
-160
-159
-159
-158
-154
-150
-153
-159
-159
-152
-147
-142
-130
-113
-103
-111
-127
-135
-135
-134
-131
-131
-136
-129
-102
-85
-122
-193
-77
525
1452
1940
1436
355
-380
-399
-126
-38
-117
-142
-101
-84
-77
-53
-32
-13
15
44
74
109
148
186
225
261
291
312
323
325
315
286
237
167
86
4
-69
-128
-173
-205
-225
-235
-238
-235
-231
-227
-221
-213
-204
-195
-189
-184
-179
-174
-169
-165
-162
-161
-159
-157
-156
-156
-156
-156
-155
-150
-145
-146
-150
-150
-145
-135
-121
-103
-87
-84
-96
-109
-111
-106
-104
-101
-97
-102
-100
-73
-50
-86
-178
-133
370
1291
1954
1687
686
-175
-358
-128
3
-60
-107
-75
-52
-47
-26
-1
18
44
73
101
133
168
205
244
282
315
341
356
362
358
341
304
245
171
91
16
-50
-102
-140
-164
-179
-185
-186
-185
-180
-173
-165
-157
-151
-146
-141
-136
-132
-128
-125
-123
-121
-120
-119
-118
-119
-118
-117
-117
-116
-114
-112
-110
-108
-107
-105
-103
-101
-98
-94
-91
-89
-86
-84
-83
-80
-78
-75
-73
-72
-70
-68
-65
-63
-62
-61
-60
-58
-57
-56
-56
-55
-54
-53
-52
-52
-51
-50
-49
-48
-48
-47
-46
-46
-46
-44
-44
-50
-55
-47
-23
-1
5
0
-4
-9
-21
-34
-44
-48
-46
-47
-56
-52
-26
-21
-77
-148
-7
601
1493
1959
1497
484
-237
-306
-81
-5
-82
-114
-80
-64
-58
-37
-16
1
24
48
71
99
129
160
193
227
258
282
300
310
312
306
290
259
208
144
73
4
-59
-112
-154
-183
-202
-213
-218
-218
-215
-210
-205
-201
-198
-193
-187
-183
-179
-175
-172
-170
-169
-168
-168
-168
-167
-167
-166
-165
-163
-161
-160
-158
-156
-154
-153
-150
-147
-143
-140
-136
-133
-130
-127
-125
-121
-117
-112
-110
-107
-103
-103
-107
-105
-85
-54
-34
-29
-32
-39
-51
-63
-70
-74
-74
-69
-72
-76
-62
-37
-45
-112
-139
160
924
1702
1751
940
-14
-387
-207
5
-8
-80
-66
-32
-27
-14
11
29
50
77
104
132
164
196
231
267
302
331
350
358
357
347
323
281
221
149
72
0
-64
-116
-154
-180
-196
-204
-208
-207
-204
-201
-194
-187
-182
-180
-176
-170
-163
-157
-154
-153
-153
-153
-151
-149
-148
-148
-149
-148
-148
-147
-143
-139
-138
-138
-137
-135
-132
-129
-126
-124
-122
-120
-115
-107
-105
-111
-118
-111
-87
-61
-46
-41
-45
-57
-72
-81
-83
-80
-77
-81
-88
-78
-53
-50
-108
-155
86
816
1644
1787
1009
-3
-443
-269
-18
-10
-88
-80
-43
-38
-28
-2
18
36
60
85
114
146
177
209
243
274
300
317
323
319
307
284
247
195
132
61
-7
-66
-116
-158
-187
-202
-208
-211
-213
-212
-208
-202
-197
-193
-187
-180
-173
-168
-166
-165
-162
-158
-154
-154
-155
-154
-151
-149
-149
-149
-149
-147
-147
-145
-143
-141
-137
-133
-133
-136
-134
-124
-107
-85
-64
-56
-66
-86
-99
-104
-104
-100
-98
-99
-96
-79
-59
-75
-142
-90
404
1286
1844
1439
375
-413
-457
-141
1
-62
-93
-55
-36
-32
-9
15
32
55
82
109
142
178
215
252
289
320
340
349
350
341
319
281
225
156
81
6
-63
-117
-157
-186
-206
-217
-223
-223
-220
-217
-214
-209
-200
-191
-184
-180
-176
-172
-168
-163
-159
-155
-155
-157
-156
-153
-151
-152
-152
-153
-152
-150
-146
-143
-143
-146
-144
-131
-113
-95
-80
-74
-82
-98
-111
-117
-117
-113
-112
-116
-110
-86
-66
-99
-162
-4
653
1542
1852
1168
81
-501
-379
-82
-23
-96
-97
-57
-50
-41
-13
9
26
50
78
112
149
185
221
260
298
325
342
350
350
338
309
261
197
122
44
-28
-90
-140
-176
-201
-218
-226
-226
-222
-218
-215
-213
-210
-201
-189
-180
-176
-174
-168
-162
-158
-158
-158
-156
-153
-150
-149
-148
-150
-153
-151
-145
-143
-147
-149
-142
-126
-108
-92
-80
-82
-96
-112
-121
-124
-122
-116
-117
-116
-99
-76
-87
-154
-146
261
1136
1865
1690
688
-253
-477
-206
-20
-70
-126
-94
-65
-63
-45
-21
-2
22
52
81
113
150
191
232
267
299
326
344
348
340
321
285
226
149
67
-8
-75
-133
-175
-201
-215
-225
-232
-233
-228
-221
-218
-213
-205
-196
-189
-184
-178
-172
-168
-166
-164
-160
-158
-157
-158
-158
-158
-157
-154
-152
-153
-157
-155
-145
-129
-113
-98
-92
-100
-117
-128
-129
-129
-128
-128
-132
-126
-101
-81
-113
-194
-117
443
1382
1952
1531
458
-336
-405
-132
-24
-100
-133
-94
-76
-72
-49
-25
-6
20
48
77
112
149
187
228
270
306
331
343
346
338
314
267
197
114
30
-47
-111
-162
-198
-220
-231
-236
-236
-233
-230
-224
-217
-208
-199
-191
-185
-180
-175
-170
-165
-162
-161
-160
-158
-155
-153
-153
-152
-148
-147
-150
-153
-152
-146
-136
-120
-100
-88
-95
-113
-121
-119
-118
-115
-112
-117
-115
-91
-65
-93
-184
-147
351
1282
1959
1695
683
-190
-374
-140
-9
-75
-125
-94
-70
-66
-46
-21
-2
23
51
79
112
148
185
224
264
300
327
343
348
343
322
279
213
133
49
-29
-94
-145
-181
-203
-215
-220
-222
-220
-216
-209
-201
-193
-185
-178
-172
-168
-165
-161
-158
-155
-153
-152
-151
-150
-148
-147
-146
-145
-142
-139
-137
-136
-135
-134
-132
-129
-126
-123
-121
-118
-115
-110
-106
-109
-116
-112
-91
-65
-47
-41
-43
-52
-66
-76
-79
-81
-81
-77
-79
-85
-70
-41
-50
-131
-171
140
954
1792
1866
1032
31
-379
-215
-8
-25
-101
-90
-56
-50
-37
-12
5
26
53
80
108
140
174
209
246
280
310
331
341
342
333
309
265
203
128
51
-22
-85
-133
-167
-191
-205
-212
-213
-210
-207
-201
-195
-189
-183
-178
-172
-167
-163
-160
-158
-156
-154
-153
-152
-151
-150
-151
-151
-151
-150
-148
-146
-144
-143
-141
-138
-135
-132
-130
-129
-127
-121
-115
-113
-120
-127
-120
-98
-71
-53
-48
-53
-67
-82
-89
-88
-89
-87
-85
-92
-91
-68
-46
-77
-167
-126
370
1277
1899
1583
568
-252
-377
-117
11
-58
-102
-68
-46
-43
-23
0
18
42
69
95
126
159
193
229
265
297
319
332
337
333
317
284
232
162
86
11
-56
-110
-151
-179
-196
-205
-209
-209
-205
-199
-194
-189
-183
-176
-171
-166
-161
-156
-152
-149
-146
-144
-143
-142
-142
-142
-141
-140
-140
-140
-138
-135
-133
-130
-129
-128
-126
-123
-121
-119
-116
-114
-109
-104
-103
-109
-116
-111
-91
-66
-46
-37
-41
-54
-71
-78
-79
-79
-76
-76
-82
-79
-55
-36
-74
-160
-80
473
1375
1889
1445
407
-324
-354
-79
19
-61
-93
-56
-38
-34
-13
8
26
50
76
102
132
162
193
227
260
287
308
320
321
314
295
260
210
146
76
5
-58
-110
-149
-176
-193
-203
-207
-207
-206
-202
-196
-189
-182
-176
-169
-164
-159
-156
-152
-149
-148
-147
-145
-143
-143
-145
-145
-142
-141
-141
-141
-140
-139
-139
-138
-136
-133
-128
-124
-120
-118
-118
-122
-124
-114
-92
-67
-50
-45
-53
-69
-83
-90
-92
-92
-89
-91
-90
-75
-52
-59
-129
-145
212
1045
1776
1640
670
-263
-488
-206
3
-33
-92
-64
-35
-31
-12
12
25
43
71
101
131
160
192
229
266
294
314
325
327
322
308
280
233
170
98
26
-41
-97
-140
-171
-192
-205
-213
-216
-218
-216
-211
-205
-196
-187
-180
-178
-177
-173
-166
-161
-160
-160
-157
-154
-153
-154
-151
-148
-147
-147
-148
-147
-144
-141
-137
-137
-139
-136
-125
-108
-90
-75
-69
-75
-89
-101
-106
-106
-104
-102
-107
-106
-90
-67
-75
-139
-106
357
1235
1837
1482
423
-405
-486
-170
-8
-62
-99
-61
-40
-36
-14
9
27
51
78
107
142
178
213
251
292
326
345
352
351
342
320
276
213
140
64
-8
-76
-132
-173
-197
-212
-224
-232
-232
-226
-220
-218
-215
-208
-198
-189
-182
-177
-172
-167
-163
-161
-158
-155
-154
-155
-155
-152
-150
-150
-152
-150
-144
-142
-144
-143
-134
-116
-96
-82
-78
-89
-105
-115
-118
-118
-115
-115
-117
-109
-86
-70
-109
-168
22
725
1615
1863
1118
36
-496
-348
-65
-27
-103
-102
-65
-56
-45
-18
2
20
45
73
107
146
183
220
259
295
323
341
350
349
332
298
243
173
95
16
-59
-121
-166
-195
-215
-229
-235
-234
-230
-226
-222
-216
-209
-200
-192
-186
-181
-177
-172
-166
-161
-158
-158
-160
-160
-157
-155
-153
-151
-150
-152
-155
-153
-145
-130
-112
-96
-88
-94
-110
-124
-130
-130
-125
-120
-125
-124
-104
-84
-110
-186
-131
383
1309
1939
1603
551
-295
-419
-150
-22
-94
-136
-101
-80
-76
-53
-28
-9
15
44
72
107
145
183
222
261
297
324
338
341
333
310
264
196
114
29
-49
-113
-161
-195
-217
-229
-234
-233
-230
-226
-221
-213
-205
-196
-187
-179
-174
-169
-166
-163
-159
-156
-154
-153
-153
-153
-153
-150
-145
-144
-149
-153
-149
-141
-128
-111
-94
-87
-96
-113
-120
-119
-118
-114
-113
-120
-115
-87
-69
-116
-202
-92
515
1462
1992
1541
486
-273
-343
-102
-20
-100
-132
-97
-80
-75
-51
-28
-11
14
43
72
105
141
178
217
256
290
314
329
333
325
299
250
180
98
15
-60
-121
-168
-201
-220
-228
-231
-229
-225
-220
-214
-206
-198
-190
-184
-179
-174
-169
-163
-159
-157
-154
-152
-150
-147
-145
-143
-140
-138
-137
-135
-133
-132
-130
-127
-124
-122
-118
-113
-114
-119
-117
-99
-72
-50
-42
-47
-60
-76
-85
-85
-85
-86
-84
-86
-92
-79
-48
-51
-129
-194
56
828
1726
1940
1195
155
-357
-247
-22
-15
-96
-96
-61
-54
-44
-18
1
21
47
72
99
131
164
199
236
271
299
319
329
332
323
299
253
189
114
38
-34
-96
-143
-176
-197
-208
-213
-212
-209
-205
-200
-193
-186
-180
-175
-169
-163
-159
-155
-153
-151
-149
-148
-147
-147
-146
-145
-145
-145
-144
-142
-140
-138
-137
-137
-135
-132
-129
-127
-125
-122
-118
-114
-114
-122
-124
-108
-80
-55
-45
-47
-55
-71
-85
-90
-89
-91
-89
-88
-94
-91
-65
-47
-87
-176
-106
432
1339
1899
1514
494
-276
-358
-100
9
-65
-102
-68
-49
-44
-22
0
16
39
65
92
123
155
186
219
253
282
304
317
321
314
297
265
214
147
72
0
-65
-117
-156
-182
-198
-208
-212
-211
-206
-200
-194
-188
-182
-176
-168
-161
-157
-153
-150
-148
-146
-145
-143
-141
-141
-142
-143
-141
-138
-137
-137
-135
-133
-130
-128
-126
-124
-122
-120
-118
-115
-110
-103
-99
-105
-114
-109
-87
-60
-40
-34
-37
-49
-64
-72
-72
-73
-72
-68
-71
-75
-59
-34
-51
-131
-129
271
1115
1809
1638
692
-187
-394
-143
30
-16
-72
-45
-22
-20
-2
22
38
59
85
111
140
172
204
237
265
286
304
320
327
321
304
278
238
181
114
47
-15
-71
-117
-148
-166
-176
-182
-187
-189
-186
-180
-171
-163
-160
-157
-153
-147
-143
-140
-139
-138
-136
-134
-134
-136
-138
-139
-140
-140
-138
-137
-138
-139
-140
-140
-140
-139
-134
-127
-126
-132
-140
-138
-123
-104
-87
-77
-76
-88
-106
-118
-122
-127
-131
-134
-140
-140
-126
-108
-125
-198
-164
306
1176
1745
1358
297
-501
-555
-239
-95
-163
-202
-169
-156
-160
-146
-129
-117
-100
-82
-64
-39
-11
17
45
71
91
102
105
