# session 11
-14
25
62
97
131
165
193
207
210
207
198
177
136
78
11
-54
-111
-159
-201
-233
-253
-263
-266
-267
-265
-259
-250
-241
-233
-223
-212
-202
-192
-185
-178
-172
-167
-162
-156
-150
-146
-144
-143
-139
-134
-130
-128
-128
-124
-117
-112
-114
-117
-111
-93
-72
-53
-39
-37
-50
-65
-73
-74
-72
-68
-68
-69
-60
-38
-29
-73
-107
158
917
1731
1789
915
-115
-494
-257
9
14
-54
-37
-2
2
16
40
55
74
103
132
163
198
233
267
302
334
357
367
366
356
337
302
247
174
91
13
-54
-107
-150
-180
-199
-210
-217
-218
-217
-217
-217
-214
-206
-198
-192
-187
-182
-177
-173
-169
-164
-159
-158
-159
-160
-157
-153
-152
-153
-153
-150
-149
-151
-150
-143
-131
-116
-101
-89
-92
-108
-122
-128
-129
-125
-124
-128
-124
-104
-84
-106
-178
-105
436
1359
1917
1484
400
-388
-432
-134
-17
-93
-126
-87
-70
-66
-43
-20
-1
24
52
79
111
148
188
227
261
288
307
317
318
306
278
228
160
81
2
-71
-130
-174
-204
-224
-237
-244
-244
-242
-238
-234
-227
-220
-212
-205
-197
-190
-184
-180
-176
-172
-169
-166
-163
-161
-160
-158
-155
-153
-156
-157
-153
-140
-122
-104
-90
-88
-101
-117
-126
-129
-126
-120
-121
-124
-110
-84
-87
-155
-184
143
983
1830
1868
975
-49
-432
-236
-23
-49
-125
-109
-74
-70
-56
-31
-12
10
39
66
97
133
169
208
247
282
308
323
327
321
300
258
193
114
33
-43
-109
-160
-196
-219
-232
-236
-236
-233
-230
-226
-220
-213
-204
-197
-190
-184
-178
-173
-169
-166
-163
-161
-158
-153
-151
-154
-160
-161
-157
-147
-132
-112
-96
-98
-117
-131
-134
-132
-128
-125
-130
-129
-105
-82
-115
-209
-168
340
1277
1954
1687
676
-190
-371
-143
-18
-86
-136
-106
-84
-80
-60
-34
-15
10
38
66
97
131
167
204
240
269
289
300
301
291
264
215
146
66
-14
-85
-143
-186
-214
-231
-241
-246
-245
-240
-234
-227
-220
-213
-207
-201
-194
-187
-182
-177
-172
-168
-165
-161
-159
-157
-154
-149
-149
-153
-154
-150
-141
-128
-109
-89
-85
-100
-116
-119
-117
-115
-111
-113
-116
-100
-71
-78
-161
-196
142
990
1829
1859
986
-7
-382
-204
-10
-39
-113
-99
-68
-63
-48
-23
-4
18
46
72
102
136
171
205
239
269
291
303
306
300
280
240
181
107
30
-43
-105
-154
-188
-212
-225
-231
-231
-229
-224
-219
-212
-204
-197
-191
-184
-179
-174
-169
-165
-162
-158
-156
-154
-152
-150
-148
-146
-145
-144
-141
-136
-134
-137
-140
-137
-128
-112
-91
-74
-73
-89
-104
-107
-105
-104
-101
-102
-105
-94
-65
-59
-123
-187
43
793
1678
1885
1132
93
-400
-262
-21
-12
-95
-94
-58
-52
-43
-19
0
20
47
75
103
135
167
201
235
265
287
300
305
302
288
256
204
138
64
-8
-73
-127
-166
-193
-208
-215
-218
-218
-216
-210
-202
-195
-188
-182
-175
-169
-164
-161
-156
-151
-148
-146
-145
-142
-140
-140
-140
-140
-139
-138
-135
-134
-131
-129
-127
-124
-118
-112
-111
-115
-119
-116
-104
-85
-64
-51
-54
-71
-84
-85
-84
-83
-80
-81
-85
-73
-46
-45
-115
-167
105
877
1697
1773
951
-31
-410
-213
13
0
-76
-64
-30
-26
-15
8
26
47
74
100
127
157
188
221
254
282
302
313
315
310
295
265
216
151
80
9
-55
-108
-148
-176
-194
-204
-208
-207
-204
-200
-194
-188
-181
-174
-168
-162
-157
-151
-147
-144
-142
-140
-138
-137
-138
-139
-140
-139
-138
-137
-137
-135
-133
-132
-130
-128
-126
-123
-119
-117
-116
-115
-110
-106
-108
-115
-116
-101
-76
-53
-39
-35
-44
-63
-78
-81
-80
-77
-73
-78
-82
-66
-42
-58
-136
-132
264
1097
1773
1592
651
-211
-404
-148
23
-24
-79
-53
-31
-30
-12
13
30
51
76
99
126
156
186
214
241
264
280
287
287
279
263
235
190
131
67
5
-52
-103
-144
-175
-193
-203
-208
-210
-209
-206
-200
-194
-188
-184
-178
-173
-167
-162
-158
-156
-154
-151
-148
-149
-151
-150
-148
-146
-146
-147
-148
-144
-140
-138
-141
-141
-133
-116
-97
-79
-69
-71
-87
-105
-113
-112
-108
-105
-111
-115
-102
-75
-63
-111
-164
67
805
1645
1762
925
-121
-541
-318
-38
-21
-95
-83
-43
-35
-23
0
18
41
70
95
121
153
188
227
264
291
308
318
321
311
291
256
206
139
63
-11
-71
-118
-157
-188
-208
-217
-218
-221
-224
-223
-216
-208
-202
-197
-191
-184
-178
-173
-169
-166
-162
-157
-154
-151
-151
-152
-149
-145
-147
-152
-151
-144
-137
-130
-118
-101
-94
-104
-118
-124
-125
-125
-121
-119
-117
-106
-85
-78
-123
-156
115
873
1672
1710
837
-170
-528
-288
-32
-34
-102
-81
-42
-37
-25
1
21
44
72
101
133
168
202
238
276
309
330
338
337
328
304
260
196
120
40
-33
-95
-145
-183
-209
-225
-233
-236
-236
-233
-227
-222
-220
-214
-203
-192
-185
-182
-178
-172
-167
-162
-158
-156
-152
-148
-147
-150
-150
-146
-141
-137
-127
-110
-97
-103
-119
-131
-135
-136
-132
-131
-135
-127
-101
-86
-124
-182
-10
651
1517
1800
1122
69
-485
-363
-79
-26
-100
-101
-61
-52
-44
-17
7
27
53
82
115
152
189
225
261
292
317
332
335
326
304
265
206
130
48
-29
-95
-146
-182
-207
-223
-231
-232
-231
-227
-223
-218
-212
-204
-196
-190
-186
-182
-175
-168
-162
-158
-155
-155
-155
-151
-146
-148
-155
-156
-150
-143
-137
-124
-106
-97
-109
-126
-132
-131
-128
-125
-127
-130
-117
-90
-86
-142
-192
42
786
1677
1901
1150
84
-440
-309
-57
-39
-121
-118
-79
-71
-61
-36
-15
6
34
61
91
127
164
202
240
273
299
315
323
318
296
254
190
113
32
-45
-110
-158
-192
-216
-230
-236
-237
-234
-230
-225
-217
-210
-204
-196
-188
-182
-180
-178
-174
-169
-165
-163
-161
-159
-155
-152
-152
-156
-158
-156
-150
-143
-129
-109
-96
-101
-116
-125
-124
-123
-122
-118
-120
-120
-99
-71
-88
-167
-161
242
1106
1864
1778
858
-84
-386
-184
-8
-48
-111
-90
-60
-55
-37
-11
8
31
60
88
120
156
194
233
271
303
327
343
348
340
316
267
197
115
33
-43
-107
-154
-185
-203
-213
-216
-217
-214
-208
-200
-191
-182
-175
-169
-165
-161
-157
-153
-149
-147
-145
-144
-142
-140
-139
-138
-137
-136
-133
-131
-130
-129
-127
-125
-122
-119
-116
-115
-113
-111
-108
-105
-103
-101
-97
-91
-87
-90
-99
-102
-90
-66
-44
-32
-29
-37
-53
-66
-69
-69
-69
-67
-69
-75
-64
-37
-39
-104
-150
79
771
1600
1837
1184
205
-321
-245
-19
8
-71
-80
-45
-35
-26
-2
18
37
63
88
114
143
176
210
245
278
305
325
336
339
333
311
268
206
131
52
-22
-86
-136
-172
-194
-208
-215
-216
-213
-208
-203
-196
-189
-183
-179
-175
-173
-169
-165
-161
-159
-157
-155
-155
-154
-153
-153
-152
-152
-151
-149
-147
-145
-144
-142
-140
-138
-136
-133
-131
-128
-125
-122
-116
-113
-119
-126
-122
-101
-73
-53
-47
-53
-65
-80
-89
-89
-90
-90
-87
-89
-91
-72
-46
-64
-141
-141
229
1036
1747
1661
787
-103
-375
-164
16
-21
-84
-63
-33
-28
-13
11
30
53
79
105
133
164
197
230
265
296
320
335
340
337
321
286
231
160
82
5
-63
-119
-161
-190
-207
-216
-220
-220
-216
-211
-205
-198
-192
-186
-181
-176
-172
-168
-163
-159
-156
-154
-152
-150
-147
-145
-144
-144
-144
-143
-141
-138
-136
-135
-133
-132
-129
-124
-120
-124
-131
-128
-110
-83
-61
-52
-56
-70
-87
-96
-97
-97
-95
-93
-97
-97
-76
-54
-82
-164
-119
356
1210
1784
1463
489
-280
-375
-108
23
-43
-86
-51
-30
-28
-8
15
32
56
83
109
139
172
205
239
272
301
321
332
333
325
303
261
200
125
47
-26
-88
-139
-176
-200
-214
-220
-221
-220
-216
-211
-205
-199
-191
-183
-177
-171
-166
-160
-155
-151
-148
-146
-144
-143
-142
-141
-140
-138
-137
-137
-136
-134
-132
-131
-129
-124
-122
-126
-131
-128
-110
-82
-60
-51
-57
-75
-92
-98
-98
-98
-95
-95
-99
-92
-67
-57
-104
-169
-4
636
1479
1761
1117
110
-421
-306
-35
10
-71
-80
-42
-32
-24
-1
18
37
63
89
116
148
180
213
248
279
303
318
322
319
307
280
233
168
93
18
-50
-108
-153
-184
-203
-214
-219
-219
-218
-214
-208
-201
-193
-185
-178
-171
-165
-159
-153
-149
-148
-146
-145
-142
-141
-141
-141
-141
-140
-138
-136
-135
-133
-130
-128
-131
-136
-132
-116
-92
-70
-58
-61
-79
-98
-107
-109
-109
-105
-104
-108
-102
-80
-67
-109
-173
-8
638
1482
1753
1088
72
-448
-317
-41
2
-78
-83
-44
-35
-27
-3
17
35
61
87
114
145
178
211
243
272
294
307
310
306
291
261
214
151
79
5
-63
-119
-162
-192
-211
-221
-225
-225
-223
-218
-211
-203
-195
-188
-181
-174
-167
-161
-156
-151
-148
-145
-144
-143
-142
-141
-140
-140
-139
-135
-131
-133
-137
-136
-123
-102
-81
-67
-63
-75
-95
-109
-113
-111
-106
-106
-113
-111
-89
-69
-99
-170
-71
494
1370
1816
1307
269
-403
-379
-91
-1
-76
-98
-59
-45
-41
-16
6
22
44
70
98
130
161
188
215
241
263
274
275
268
253
228
191
140
78
10
-54
-106
-145
-177
-201
-214
-216
-217
-217
-213
-207
-202
-195
-187
-178
-172
-168
-162
-158
-155
-151
-147
-146
-148
-148
-144
-141
-143
-146
-144
-135
-120
-104
-89
-77
-78
-95
-115
-125
-123
-118
-117
-120
-118
-101
-80
-89
-154
-147
246
1074
1728
1498
508
-356
-502
-199
-8
-51
-98
-63
-37
-34
-16
7
24
48
76
103
132
164
194
224
253
276
289
290
281
266
242
203
148
86
22
-39
-95
-141
-174
-196
-210
-219
-222
-221
-217
-213
-209
-203
-196
-187
-178
-172
-168
-165
-162
-159
-156
-152
-148
-148
-150
-150
-145
-139
-134
-120
-100
-91
-103
-124
-135
-136
-131
-128
-133
-133
-113
-89
-105
-181
-173
233
1064
1709
1481
520
-315
-459
-175
-4
-56
-105
-71
-46
-46
-28
-3
15
37
64
92
123
157
189
221
253
276
287
289
283
266
235
189
130
62
-7
-69
-121
-162
-191
-208
-217
-221
-221
-217
-210
-205
-199
-193
-186
-177
-169
-163
-158
-154
-151
-147
-142
-138
-139
-143
-145
-142
-136
-128
-115
-97
-88
-100
-120
-131
-133
-131
-127
-128
-132
-119
-92
-93
-167
-231
15
774
1637
1800
1030
21
-424
-265
-33
-34
-113
-106
-69
-63
-54
-29
-8
14
42
69
98
131
164
197
231
258
277
286
286
276
252
210
150
81
8
-61
-119
-164
-195
-216
-229
-234
-233
-229
-224
-220
-214
-205
-195
-186
-181
-177
-173
-166
-160
-155
-153
-152
-148
-143
-144
-151
-155
-151
-144
-137
-125
-106
-94
-100
-118
-128
-129
-126
-120
-122
-128
-118
-88
-81
-145
-220
-27
684
1591
1892
1226
186
-375
-289
-48
-21
-105
-113
-76
-65
-55
-31
-11
8
36
63
92
126
162
196
229
259
283
296
297
289
270
234
177
107
31
-42
-105
-154
-189
-211
-224
-230
-230
-227
-223
-217
-209
-200
-192
-185
-178
-172
-166
-162
-159
-154
-150
-148
-147
-146
-145
-144
-143
-142
-141
-138
-133
-133
-137
-137
-133
-124
-109
-88
-71
-73
-90
-102
-100
-98
-97
-94
-95
-100
-86
-57
-58
-130
-178
108
902
1741
1828
1004
9
-390
-213
3
-12
-88
-77
-43
-37
-25
0
20
42
69
96
126
160
194
227
261
290
310
322
326
321
302
264
207
136
60
-13
-77
-130
-168
-193
-206
-213
-215
-215
-210
-203
-195
-188
-182
-177
-170
-163
-157
-153
-150
-148
-146
-143
-140
-140
-141
-140
-139
-138
-137
-136
-135
-133
-131
-129
-127
-126
-124
-121
-118
-115
-112
-111
-108
-102
-100
-107
-113
-105
-83
-57
-40
-36
-43
-59
-75
-80
-78
-79
-78
-76
-81
-81
-60
-37
-66
-154
-118
349
1211
1816
1529
563
-234
-364
-111
24
-38
-86
-56
-33
-29
-11
12
29
53
80
105
135
166
197
230
260
286
304
313
314
306
287
252
197
129
55
-14
-75
-126
-164
-189
-204
-213
-216
-214
-209
-203
-196
-188
-181
-174
-169
-164
-159
-154
-149
-145
-142
-139
-137
-135
-133
-131
-129
-129
-128
-127
-126
-125
-124
-123
-121
-119
-116
-112
-109
-108
-105
-99
-98
-105
-111
-102
-78
-53
-36
-32
-40
-56
-71
-77
-75
-76
-75
-72
-75
-78
-59
-34
-54
-139
-138
258
1088
1762
1591
669
-181
-379
-133
34
-14
-70
-44
-17
-14
3
26
42
63
89
115
144
177
208
242
275
303
322
332
333
324
304
266
208
138
61
-12
-77
-129
-168
-195
-212
-220
-224
-225
-223
-220
-215
-209
-202
-197
-191
-185
-180
-175
-170
-165
-161
-159
-157
-155
-154
-152
-151
-150
-149
-147
-146
-145
-144
-143
-143
-141
-139
-138
-137
-134
-129
-127
-133
-140
-138
-119
-92
-69
-60
-63
-78
-95
-105
-106
-105
-104
-101
-105
-105
-84
-61
-88
-171
-137
316
1157
1744
1449
488
-289
-393
-125
15
-45
-88
-55
-32
-29
-10
14
33
56
82
109
141
174
206
239
273
301
319
328
328
320
299
262
208
142
70
1
-58
-105
-141
-166
-182
-189
-189
-186
-181
-174
-166
-158
-150
-143
-132
-122
-114
-109
-104
-97
-89
-83
-78
-74
-70
-66
-64
-62
-58
-54
-50
-46
-43
-41
-39
