# session 24
-31
-27
-33
-50
-81
-123
-176
-233
-289
-338
-376
-402
-417
-421
-419
-413
-403
-391
-378
-363
-350
-337
-324
-310
-298
-286
-274
-263
-255
-246
-237
-229
-223
-213
-204
-201
-201
-195
-184
-170
-150
-125
-104
-101
-115
-126
-125
-120
-115
-107
-107
-109
-89
-57
-67
-141
-159
170
973
1791
1872
1064
69
-364
-220
-5
-4
-76
-69
-34
-24
-11
15
36
59
86
111
138
168
200
230
258
280
293
298
295
283
262
228
183
127
64
3
-53
-99
-133
-154
-167
-173
-174
-171
-165
-158
-150
-143
-137
-131
-126
-123
-119
-116
-112
-108
-105
-104
-103
-102
-101
-101
-100
-99
-98
-96
-94
-93
-91
-87
-85
-88
-95
-95
-84
-63
-38
-21
-22
-40
-63
-76
-76
-76
-79
-77
-81
-89
-77
-48
-56
-135
-181
88
834
1656
1799
1046
50
-417
-283
-45
-27
-102
-102
-66
-58
-49
-26
-6
13
38
62
86
113
140
167
192
213
224
228
224
216
200
175
139
92
37
-22
-78
-126
-165
-193
-211
-221
-224
-222
-217
-210
-202
-194
-187
-180
-175
-170
-164
-157
-153
-150
-148
-145
-144
-141
-139
-137
-136
-135
-133
-130
-128
-125
-123
-121
-117
-115
-113
-109
-105
-108
-115
-113
-93
-65
-42
-33
-37
-49
-67
-80
-82
-82
-81
-76
-78
-85
-71
-43
-50
-124
-167
95
817
1606
1728
982
14
-421
-268
-24
-2
-75
-72
-37
-29
-19
5
24
42
66
90
115
141
167
193
217
234
243
244
239
228
212
189
155
113
63
10
-43
-90
-128
-156
-175
-186
-190
-190
-186
-180
-172
-166
-161
-154
-148
-142
-136
-131
-128
-126
-123
-119
-118
-119
-119
-119
-118
-116
-114
-112
-112
-112
-109
-106
-103
-101
-99
-94
-90
-92
-101
-105
-93
-67
-41
-26
-25
-35
-53
-68
-73
-75
-78
-77
-75
-79
-72
-46
-39
-96
-165
-7
610
1438
1751
1156
156
-422
-347
-68
7
-64
-79
-42
-30
-26
-4
18
37
60
82
104
132
160
183
202
220
230
229
221
208
191
169
140
104
61
15
-33
-80
-124
-156
-174
-183
-191
-198
-199
-193
-184
-178
-173
-167
-160
-155
-150
-145
-141
-140
-139
-138
-137
-137
-138
-138
-137
-135
-135
-135
-135
-134
-132
-129
-126
-127
-129
-125
-110
-88
-67
-54
-54
-68
-87
-98
-101
-102
-99
-93
-97
-101
-86
-61
-71
-133
-86
370
1203
1757
1396
364
-439
-511
-184
-3
-47
-86
-49
-24
-19
5
29
44
64
92
122
152
181
207
230
250
262
266
262
251
233
205
171
131
87
38
-14
-62
-101
-132
-158
-174
-183
-185
-185
-183
-181
-177
-170
-162
-154
-151
-149
-143
-134
-130
-132
-133
-130
-129
-132
-135
-135
-132
-131
-134
-133
-129
-128
-130
-129
-120
-106
-90
-74
-64
-66
-82
-99
-105
-106
-106
-104
-102
-106
-103
-84
-71
-99
-147
-13
566
1401
1755
1161
97
-540
-457
-126
-15
-80
-92
-46
-29
-25
-2
20
40
66
93
121
153
185
212
237
259
274
277
269
250
225
196
158
109
53
-2
-53
-96
-135
-167
-187
-197
-201
-203
-203
-200
-194
-187
-182
-176
-169
-162
-154
-147
-142
-140
-139
-140
-141
-142
-139
-137
-135
-134
-136
-139
-141
-138
-129
-115
-101
-86
-78
-83
-102
-117
-122
-122
-116
-112
-120
-123
-102
-77
-95
-166
-129
326
1200
1848
1575
550
-333
-494
-205
-23
-71
-121
-87
-58
-52
-34
-9
11
37
65
90
118
151
183
215
241
259
267
265
254
235
208
168
117
59
-2
-61
-112
-152
-182
-203
-214
-219
-218
-215
-210
-205
-197
-189
-181
-175
-169
-161
-154
-148
-145
-142
-139
-137
-136
-136
-132
-131
-135
-139
-137
-131
-123
-110
-92
-80
-85
-103
-115
-117
-118
-116
-111
-116
-118
-96
-72
-98
-177
-149
286
1162
1886
1740
780
-161
-439
-217
-33
-70
-132
-109
-80
-76
-59
-33
-13
9
34
59
89
123
156
188
215
234
245
249
243
227
201
163
110
49
-15
-75
-129
-172
-200
-218
-227
-231
-230
-227
-221
-213
-205
-198
-191
-183
-176
-170
-164
-160
-156
-152
-149
-145
-143
-141
-136
-130
-129
-134
-137
-132
-123
-110
-92
-73
-66
-78
-98
-107
-105
-103
-101
-98
-104
-104
-79
-57
-94
-181
-124
377
1282
1941
1693
702
-179
-391
-163
-14
-67
-120
-94
-69
-64
-45
-21
-3
21
48
73
101
133
163
193
219
236
245
247
242
229
205
168
119
62
1
-58
-110
-150
-179
-198
-208
-211
-209
-205
-198
-190
-182
-175
-168
-161
-155
-151
-146
-141
-137
-134
-132
-130
-128
-126
-123
-121
-120
-118
-115
-113
-112
-111
-109
-106
-104
-101
-97
-93
-96
-103
-103
-88
-63
-40
-30
-33
-45
-64
-78
-81
-81
-83
-80
-79
-87
-80
-51
-43
-103
-177
-27
593
1467
1869
1342
321
-347
-349
-87
-1
-74
-99
-62
-46
-40
-18
2
19
42
66
89
117
144
169
194
216
230
236
235
229
217
198
167
125
74
18
-37
-87
-128
-161
-184
-197
-202
-201
-199
-194
-185
-177
-170
-164
-158
-152
-146
-141
-138
-135
-132
-130
-129
-129
-129
-126
-125
-124
-122
-121
-119
-117
-114
-113
-113
-111
-106
-104
-109
-116
-114
-94
-67
-45
-36
-42
-57
-76
-87
-88
-88
-90
-86
-85
-92
-87
-60
-50
-108
-184
-35
590
1456
1822
1255
235
-391
-351
-78
1
-72
-91
-53
-38
-33
-11
10
27
51
76
100
126
152
178
202
220
231
235
232
221
205
181
149
109
62
10
-42
-89
-129
-158
-176
-186
-193
-194
-189
-181
-173
-167
-161
-154
-147
-140
-134
-129
-124
-120
-118
-118
-117
-114
-112
-112
-113
-112
-109
-107
-107
-107
-106
-104
-102
-101
-100
-97
-95
-98
-105
-103
-87
-62
-42
-32
-34
-45
-65
-80
-83
-82
-83
-83
-84
-88
-78
-53
-52
-114
-167
55
748
1559
1731
999
-2
-471
-317
-49
-10
-82
-81
-44
-36
-29
-6
14
34
58
80
103
130
156
181
202
216
221
219
211
197
179
157
131
100
60
13
-37
-82
-117
-144
-166
-182
-190
-190
-187
-183
-177
-170
-163
-157
-154
-150
-146
-141
-138
-136
-134
-132
-132
-132
-134
-137
-138
-136
-133
-133
-135
-132
-128
-127
-130
-128
-117
-98
-77
-61
-56
-65
-85
-101
-105
-103
-101
-98
-100
-100
-86
-62
-64
-119
-122
218
1005
1713
1598
653
-295
-552
-269
-22
-29
-86
-60
-26
-22
-6
19
36
57
84
110
137
169
197
220
240
255
263
260
246
226
202
171
133
88
39
-11
-58
-99
-133
-159
-176
-186
-192
-193
-190
-186
-181
-173
-164
-158
-154
-149
-143
-139
-136
-134
-132
-132
-134
-135
-135
-134
-134
-136
-138
-137
-134
-135
-137
-135
-126
-110
-90
-72
-62
-68
-87
-103
-108
-109
-110
-107
-107
-112
-103
-77
-64
-107
-162
23
692
1547
1803
1093
24
-528
-391
-88
-23
-94
-96
-55
-44
-34
-8
11
29
56
86
112
141
169
197
222
241
249
250
243
227
205
175
137
91
38
-16
-67
-110
-145
-173
-193
-203
-206
-206
-203
-197
-190
-184
-179
-172
-162
-153
-148
-144
-139
-136
-133
-131
-130
-131
-133
-135
-135
-131
-129
-133
-137
-134
-122
-105
-87
-73
-67
-76
-97
-111
-115
-115
-111
-108
-112
-112
-91
-70
-97
-173
-126
351
1242
1892
1620
602
-278
-450
-182
-17
-72
-123
-92
-67
-63
-44
-20
-1
23
49
74
103
135
168
199
224
240
247
248
240
222
193
152
102
44
-16
-75
-126
-166
-194
-211
-221
-224
-221
-217
-211
-204
-195
-186
-178
-170
-163
-155
-150
-146
-142
-139
-136
-135
-135
-132
-128
-130
-136
-139
-132
-119
-103
-85
-70
-69
-86
-108
-118
-118
-118
-114
-113
-121
-115
-86
-77
-134
-207
-48
605
1528
1959
1414
347
-356
-371
-115
-36
-114
-138
-100
-85
-79
-56
-32
-13
12
37
62
91
121
150
177
200
213
219
217
207
189
161
122
72
15
-44
-99
-145
-179
-203
-217
-224
-225
-221
-215
-207
-199
-190
-180
-171
-163
-157
-151
-146
-141
-137
-135
-134
-131
-128
-130
-136
-136
-129
-120
-107
-88
-69
-65
-81
-101
-109
-109
-108
-104
-106
-113
-100
-71
-76
-153
-205
64
846
1725
1903
1128
79
-424
-298
-60
-45
-124
-123
-87
-79
-69
-45
-27
-7
19
43
68
96
124
149
172
189
197
198
191
178
160
134
96
47
-7
-60
-109
-149
-179
-198
-209
-213
-212
-209
-203
-195
-185
-176
-168
-161
-154
-148
-142
-137
-132
-129
-129
-128
-124
-121
-125
-131
-129
-121
-110
-95
-76
-61
-65
-85
-102
-105
-104
-102
-100
-106
-108
-86
-61
-92
-185
-162
297
1192
1882
1664
673
-223
-432
-186
-21
-73
-129
-102
-76
-73
-56
-34
-16
6
31
54
81
109
134
157
175
185
188
185
176
162
142
113
74
28
-23
-72
-116
-152
-178
-193
-201
-204
-204
-198
-190
-181
-174
-166
-158
-150
-144
-137
-131
-127
-125
-124
-122
-121
-121
-121
-120
-115
-112
-115
-121
-123
-116
-104
-87
-66
-51
-55
-76
-94
-98
-96
-94
-93
-97
-102
-89
-61
-67
-140
-178
117
901
1718
1786
949
-57
-461
-272
-34
-34
-111
-103
-67
-60
-49
-27
-11
10
38
62
85
111
136
158
178
190
195
193
186
173
156
133
102
62
14
-37
-84
-124
-154
-176
-189
-194
-194
-191
-186
-180
-172
-163
-154
-148
-145
-140
-133
-126
-121
-120
-121
-121
-119
-118
-118
-117
-113
-113
-121
-127
-124
-114
-101
-84
-66
-58
-71
-93
-103
-101
-102
-103
-104
-107
-102
-81
-65
-97
-166
-67
490
1365
1830
1340
284
-435
-436
-132
-12
-80
-109
-70
-52
-49
-27
-3
17
40
63
82
107
136
165
187
197
198
196
191
179
160
139
116
86
47
3
-40
-81
-118
-149
-171
-183
-187
-186
-183
-180
-174
-166
-157
-151
-146
-144
-141
-135
-130
-129
-131
-132
-132
-132
-130
-128
-127
-126
-126
-127
-128
-126
-122
-114
-98
-77
-64
-71
-91
-104
-105
-103
-101
-99
-102
-102
-85
-62
-73
-137
-102
337
1181
1787
1476
443
-408
-525
-209
-17
-57
-98
-59
-33
-32
-14
12
32
55
81
106
133
162
188
212
231
238
236
226
211
191
165
131
90
46
-1
-48
-92
-128
-154
-170
-182
-192
-196
-192
-187
-184
-179
-171
-161
-154
-147
-140
-135
-132
-130
-128
-125
-125
-127
-127
-128
-128
-126
-126
-131
-135
-134
-128
-121
-111
-94
-77
-76
-94
-112
-116
-112
-109
-106
-107
-113
-103
-76
-70
-124
-183
15
709
1588
1862
1169
106
-460
-350
-71
-21
-100
-107
-68
-57
-48
-23
-4
14
40
67
96
127
158
186
211
229
238
240
233
219
198
167
126
75
17
-40
-91
-133
-166
-189
-203
-211
-213
-211
-206
-200
-193
-184
-175
-167
-162
-156
-149
-143
-138
-135
-133
-131
-130
-130
-129
-127
-126
-127
-126
-120
-116
-119
-125
-126
-121
-108
-88
-67
-57
-65
-84
-96
-95
-94
-95
-91
-92
-99
-88
-58
-56
-125
-191
23
737
1629
1916
1248
199
-384
-310
-55
-10
-90
-101
-61
-49
-41
-16
5
23
46
73
101
131
161
189
216
236
249
254
252
242
224
195
153
101
43
-16
-71
-117
-152
-177
-192
-198
-200
-199
-195
-189
-182
-174
-168
-161
-154
-148
-142
-136
-130
-125
-121
-118
-117
-114
-113
-112
-110
-109
-108
-107
-104
-102
-101
-99
-98
-96
-94
-92
-90
-89
-87
-86
-84
-83
-83
-81
-77
-74
-80
-90
-90
-71
-44
-23
-15
-16
-26
-42
-57
-62
-63
-67
-67
-65
-71
-69
-42
-30
-77
-145
-40
489
1326
1829
1458
489
-265
-367
-118
8
-52
-92
-60
-38
-35
-16
7
24
46
71
94
121
148
174
199
221
237
245
246
241
230
211
183
144
98
44
-12
-64
-109
-145
-170
-186
-194
-196
-194
-190
-183
-176
-169
-162
-156
-151
-147
-143
-138
-135
-133
-131
-130
-130
-130
-129
-129
-128
-127
-125
-123
-122
-121
-119
-117
-115
-114
-112
-109
-107
-106
-105
-104
-99
-96
-100
-110
-112
-95
-67
-43
-32
-32
-42
-58
-74
-80
-79
-79
-77
-78
-86
-84
-57
-43
-89
-155
-37
508
1334
1782
1349
370
-333
-378
-110
8
-53
-86
-52
-33
-29
-7
16
32
54
79
104
132
159
182
204
223
234
239
238
230
212
189
161
128
84
32
-22
-71
-110
-141
-164
-180
-190
-193
-190
-186
-183
-179
-171
-163
-158
-155
-149
-143
-139
-138
-136
-133
-129
-128
-128
-129
-129
-127
-125
-123
-123
-124
-123
-118
-114
-114
-113
-110
-109
-110
-108
-96
-74
-50
-35
-35
-49
-68
-80
-80
-77
-75
-76
-80
-81
-64
-40
-48
-114
-126
206
987
1704
1618
700
-244
-517
-248
-4
-12
-73
-47
-9
-6
4
28
50
71
92
115
144
176
204
230
254
270
277
274
262
244
219
188
149
104
54
0
-54
-102
-140
-167
-184
-195
-200
-204
-205
-201
-196
-191
-187
-182
-174
-167
-163
-161
-160
-158
-157
-155
-154
-153
-154
-154
-155
-155
-155
-157
-156
-155
-157
-158
-155
-145
-127
-106
-87
-82
-94
-116
-131
-133
-133
-132
-131
-134
-134
-115
-91
-105
-172
-156
241
1063
1724
1523
552
-337
-531
-247
-40
-69
-121
-93
-63
-58
-39
-13
4
27
55
84
115
149
181
210
237
257
268
267
257
241
216
180
134
82
27
-27
-77
-118
-147
-165
-174
-180
-182
-178
-169
-159
-149
-138
-128
-117
-107
-98
-88
-78
-69
-64
-59
-54
-49
-44
-39
-35
-33
-31
-26
-18
-11
-9
-9
-2
17
44
69
86
88
78
63
58
60
62
70
76
70
78
112
125
85
20
