# session 18
-43
-45
-43
-39
-39
-45
-50
-50
-49
-50
-54
-56
-56
-54
-55
-59
-62
-61
-59
-56
-55
-60
-69
-71
-60
-42
-24
-10
-6
-14
-33
-50
-57
-60
-61
-59
-65
-74
-66
-41
-40
-100
-132
153
898
1644
1637
772
-192
-520
-276
-20
-14
-79
-62
-29
-25
-14
9
25
43
68
92
117
148
180
209
237
263
284
298
301
294
278
252
213
161
98
32
-33
-92
-140
-176
-202
-221
-231
-234
-235
-237
-236
-232
-223
-214
-208
-202
-195
-187
-184
-183
-180
-174
-168
-164
-162
-160
-159
-159
-158
-156
-155
-154
-151
-147
-144
-143
-142
-142
-139
-128
-107
-85
-69
-65
-78
-99
-112
-114
-112
-109
-108
-110
-102
-79
-63
-91
-148
-29
537
1374
1754
1193
146
-498
-433
-113
-1
-61
-75
-34
-20
-15
8
30
47
70
96
125
158
190
221
254
288
317
335
339
331
317
294
258
206
141
71
3
-57
-108
-148
-178
-198
-209
-212
-214
-211
-206
-199
-195
-189
-183
-178
-172
-166
-158
-152
-149
-147
-144
-141
-140
-138
-137
-138
-139
-138
-137
-135
-134
-133
-135
-138
-137
-127
-108
-86
-70
-64
-74
-93
-108
-112
-112
-108
-106
-111
-110
-90
-69
-89
-159
-119
333
1184
1795
1507
509
-326
-457
-171
-5
-59
-105
-72
-47
-44
-26
-4
12
35
62
89
120
153
186
220
254
283
305
318
322
316
297
262
208
141
66
-7
-74
-130
-173
-202
-220
-230
-233
-232
-230
-226
-220
-212
-205
-197
-190
-183
-176
-171
-165
-160
-156
-153
-151
-149
-146
-144
-143
-141
-138
-138
-142
-143
-134
-116
-95
-77
-70
-78
-98
-113
-117
-120
-122
-120
-122
-123
-105
-79
-91
-163
-180
157
969
1763
1781
925
-54
-429
-245
-35
-52
-123
-109
-77
-73
-60
-35
-15
6
32
57
85
117
149
183
217
249
275
292
300
298
285
255
206
141
67
-8
-77
-136
-180
-210
-228
-237
-241
-241
-237
-230
-224
-217
-209
-201
-195
-189
-181
-174
-169
-164
-159
-155
-152
-149
-146
-144
-139
-134
-133
-136
-137
-129
-112
-90
-70
-58
-60
-78
-100
-110
-110
-111
-108
-107
-113
-111
-84
-65
-108
-190
-87
492
1407
1926
1488
448
-308
-375
-118
-15
-88
-122
-88
-71
-66
-45
-24
-7
16
43
69
98
128
158
192
225
251
270
280
283
276
258
222
169
102
30
-40
-103
-154
-191
-216
-229
-235
-236
-233
-228
-221
-213
-205
-198
-191
-184
-178
-172
-167
-162
-158
-155
-153
-150
-147
-145
-144
-140
-134
-134
-138
-140
-134
-123
-106
-85
-66
-64
-81
-101
-107
-106
-106
-102
-101
-107
-100
-73
-64
-120
-188
-7
674
1569
1893
1251
200
-397
-326
-64
-14
-96
-110
-74
-64
-58
-35
-15
3
28
54
80
108
137
167
198
226
247
261
269
268
259
238
202
150
86
17
-50
-109
-154
-185
-206
-220
-226
-227
-223
-216
-209
-201
-193
-185
-179
-173
-167
-161
-156
-152
-147
-143
-140
-139
-138
-135
-133
-132
-129
-124
-121
-123
-125
-122
-116
-105
-87
-66
-59
-71
-91
-100
-100
-98
-95
-95
-101
-96
-70
-56
-101
-170
-26
595
1470
1843
1261
211
-426
-373
-85
-3
-77
-96
-60
-49
-43
-20
0
18
42
66
89
116
145
175
205
230
246
256
259
256
248
229
197
152
98
40
-18
-74
-122
-159
-184
-199
-207
-210
-210
-207
-201
-193
-186
-179
-174
-170
-167
-164
-158
-154
-152
-151
-150
-148
-147
-145
-145
-146
-145
-142
-141
-143
-144
-140
-134
-124
-107
-88
-79
-91
-111
-121
-120
-117
-115
-116
-120
-112
-87
-75
-116
-173
-7
627
1467
1751
1092
51
-507
-385
-84
-13
-86
-93
-51
-39
-33
-11
9
27
53
78
105
137
168
198
228
254
274
286
288
282
268
244
206
156
95
31
-32
-87
-130
-162
-183
-197
-205
-207
-205
-200
-194
-188
-181
-173
-164
-157
-151
-145
-140
-137
-134
-131
-129
-129
-129
-129
-129
-126
-123
-124
-130
-134
-131
-122
-110
-92
-74
-68
-81
-101
-109
-108
-107
-105
-102
-108
-107
-83
-64
-99
-179
-106
426
1322
1877
1487
457
-322
-400
-126
-4
-75
-115
-81
-61
-59
-40
-18
0
23
49
73
102
133
165
196
224
247
263
271
271
262
242
208
157
95
28
-38
-98
-146
-182
-207
-220
-226
-228
-227
-223
-216
-208
-200
-192
-184
-176
-170
-163
-158
-153
-149
-146
-143
-141
-139
-138
-136
-135
-134
-134
-131
-125
-121
-123
-129
-130
-125
-113
-94
-71
-59
-65
-85
-99
-100
-99
-99
-97
-101
-106
-90
-63
-74
-151
-175
153
957
1743
1748
883
-83
-431
-229
-17
-35
-107
-92
-59
-55
-44
-22
-4
16
41
65
92
122
152
183
213
237
254
265
270
266
254
229
188
133
70
4
-60
-115
-157
-187
-206
-217
-221
-221
-218
-212
-205
-196
-188
-181
-175
-168
-161
-154
-148
-145
-142
-139
-137
-135
-132
-130
-131
-130
-126
-123
-127
-133
-132
-123
-110
-92
-71
-60
-69
-90
-103
-104
-103
-101
-96
-102
-106
-87
-59
-79
-158
-138
294
1155
1833
1630
660
-226
-433
-180
-5
-51
-108
-82
-56
-53
-37
-15
2
22
46
71
99
129
157
183
210
232
246
251
247
237
221
195
156
105
46
-15
-73
-123
-161
-188
-206
-215
-218
-214
-208
-203
-201
-196
-186
-176
-168
-164
-161
-157
-152
-147
-144
-144
-143
-142
-141
-140
-135
-131
-133
-140
-141
-134
-124
-113
-98
-80
-74
-88
-106
-112
-111
-112
-112
-112
-114
-104
-80
-73
-123
-164
74
786
1594
1727
945
-70
-512
-327
-54
-25
-98
-93
-55
-48
-40
-19
-1
18
45
71
96
123
152
181
209
231
246
252
249
239
223
197
160
114
59
0
-56
-107
-149
-179
-199
-210
-216
-216
-213
-209
-203
-194
-184
-178
-173
-168
-160
-152
-146
-144
-141
-137
-136
-136
-134
-130
-129
-134
-136
-133
-125
-114
-97
-76
-69
-83
-104
-112
-111
-111
-108
-107
-112
-102
-76
-68
-124
-183
22
724
1596
1847
1143
97
-438
-317
-53
-17
-98
-103
-65
-56
-49
-26
-6
12
37
62
88
118
149
178
207
231
248
258
259
253
239
211
169
114
50
-14
-74
-125
-165
-194
-213
-223
-227
-226
-223
-217
-210
-201
-193
-185
-178
-171
-164
-158
-153
-150
-148
-146
-145
-145
-144
-140
-137
-139
-144
-144
-137
-126
-110
-90
-76
-80
-100
-115
-117
-116
-114
-110
-113
-116
-98
-73
-89
-168
-172
218
1073
1821
1717
782
-157
-436
-208
-20
-57
-122
-101
-73
-70
-54
-29
-12
8
34
59
86
115
144
173
201
222
237
243
243
236
220
191
149
95
33
-31
-89
-137
-174
-200
-215
-222
-224
-223
-218
-211
-202
-194
-185
-176
-169
-163
-158
-153
-148
-144
-141
-138
-137
-137
-135
-131
-128
-130
-136
-137
-130
-120
-105
-84
-67
-67
-85
-103
-107
-105
-105
-103
-104
-108
-95
-69
-69
-137
-187
73
835
1688
1836
1050
26
-431
-274
-34
-27
-105
-101
-66
-60
-50
-27
-9
10
35
60
86
115
143
171
198
220
234
240
240
234
219
194
157
108
50
-11
-68
-119
-159
-187
-205
-215
-219
-219
-214
-206
-198
-192
-185
-176
-169
-162
-155
-150
-147
-143
-139
-137
-137
-136
-134
-129
-125
-125
-131
-134
-132
-125
-115
-98
-76
-63
-73
-93
-104
-105
-108
-109
-107
-110
-107
-86
-68
-102
-176
-82
471
1349
1829
1361
320
-399
-414
-122
-9
-80
-110
-70
-52
-50
-32
-10
8
31
54
78
108
139
166
192
213
225
231
230
224
212
192
163
125
77
24
-30
-82
-127
-161
-183
-197
-206
-209
-207
-202
-196
-189
-181
-173
-167
-165
-162
-158
-152
-147
-145
-144
-144
-143
-141
-140
-142
-144
-140
-133
-124
-111
-93
-82
-90
-112
-127
-129
-127
-122
-119
-122
-119
-99
-80
-106
-167
-62
485
1330
1759
1254
214
-473
-450
-135
-13
-78
-102
-60
-40
-35
-15
6
26
54
82
104
129
158
190
220
244
257
262
260
250
234
208
173
129
78
22
-35
-85
-125
-157
-181
-199
-208
-210
-207
-202
-196
-190
-185
-179
-172
-165
-159
-153
-149
-148
-147
-144
-140
-138
-140
-144
-141
-134
-127
-119
-105
-90
-88
-105
-124
-131
-132
-129
-125
-128
-130
-115
-90
-94
-150
-146
195
967
1664
1565
655
-271
-535
-271
-38
-49
-106
-80
-45
-41
-26
0
18
38
64
92
122
152
179
208
236
258
267
266
258
243
219
184
137
82
23
-34
-87
-134
-169
-194
-209
-216
-217
-217
-214
-209
-201
-194
-187
-180
-172
-164
-157
-154
-152
-150
-146
-144
-144
-142
-138
-137
-143
-147
-145
-139
-130
-116
-97
-88
-98
-117
-125
-124
-124
-121
-118
-121
-117
-92
-74
-110
-183
-94
451
1348
1893
1496
467
-310
-392
-126
-8
-79
-119
-85
-64
-59
-37
-14
3
26
53
79
109
141
172
202
231
252
264
268
264
253
229
189
134
69
1
-64
-119
-163
-194
-214
-225
-229
-229
-225
-219
-210
-200
-192
-185
-178
-172
-165
-160
-155
-151
-147
-144
-141
-139
-137
-134
-132
-133
-132
-126
-122
-125
-129
-129
-123
-110
-91
-70
-60
-69
-88
-98
-98
-97
-96
-93
-97
-100
-80
-53
-76
-164
-167
225
1079
1837
1763
860
-76
-383
-182
-1
-38
-104
-86
-56
-52
-36
-11
8
29
53
76
103
133
162
192
221
246
263
272
274
268
254
226
181
122
56
-10
-71
-121
-160
-187
-202
-208
-208
-205
-201
-194
-186
-177
-169
-163
-157
-151
-145
-139
-133
-129
-126
-123
-121
-119
-116
-114
-113
-113
-111
-109
-109
-108
-107
-105
-103
-102
-101
-99
-97
-94
-92
-90
-89
-89
-88
-86
-83
-80
-84
-92
-92
-75
-48
-26
-18
-21
-31
-48
-63
-69
-70
-72
-70
-71
-78
-72
-46
-41
-96
-155
10
621
1444
1780
1230
257
-339
-305
-56
7
-70
-89
-52
-39
-34
-13
6
23
46
70
92
117
143
169
196
221
239
250
254
252
246
232
208
170
120
62
2
-56
-105
-143
-171
-191
-203
-206
-204
-200
-193
-185
-179
-175
-170
-163
-157
-152
-149
-145
-141
-137
-136
-135
-133
-130
-128
-130
-132
-130
-126
-123
-123
-122
-119
-115
-112
-111
-114
-119
-117
-100
-72
-48
-38
-43
-58
-77
-88
-88
-88
-91
-89
-87
-91
-81
-55
-52
-116
-176
39
735
1562
1755
1039
42
-434
-290
-30
3
-72
-74
-40
-34
-26
-3
17
36
62
85
109
137
164
190
217
240
254
259
256
248
233
209
174
130
78
20
-38
-89
-131
-165
-189
-203
-209
-211
-212
-209
-204
-198
-191
-184
-179
-173
-167
-162
-157
-152
-148
-144
-142
-142
-142
-140
-138
-139
-139
-138
-137
-134
-130
-130
-134
-136
-129
-111
-88
-69
-63
-70
-87
-104
-111
-112
-114
-113
-112
-116
-112
-91
-77
-110
-167
-28
563
1391
1719
1117
83
-514
-420
-107
-13
-79
-92
-51
-38
-31
-6
15
33
58
86
113
145
177
208
240
267
285
293
293
286
272
246
206
154
96
34
-26
-80
-124
-155
-176
-190
-198
-200
-198
-194
-189
-181
-172
-163
-155
-148
-141
-134
-128
-123
-119
-116
-112
-109
-107
-107
-107
-107
-107
-106
-104
-103
-108
-114
-109
-89
-63
-44
-37
-43
-61
-80
-89
-91
-91
-89
-91
-98
-88
-61
-56
-113
-175
23
708
1566
1823
1144
120
-415
-306
-46
-8
-89
-97
-61
-52
-46
-23
-4
14
39
64
89
118
147
177
207
233
251
261
263
257
240
211
167
110
45
-23
-87
-142
-186
-217
-238
-250
-254
-254
-252
-248
-243
-236
-228
-220
-212
-205
-199
-192
-186
-181
-177
-174
-171
-168
-166
-165
-163
-161
-158
-158
-161
-162
-153
-134
-111
-93
-84
-90
-108
-125
-133
-135
-134
-129
-130
-134
-122
-95
-95
-159
-207
49
799
1643
1797
1025
9
-452
-299
-57
-46
-123
-119
-83
-76
-66
-41
-21
-1
23
47
74
104
134
164
194
218
235
244
246
241
228
203
163
109
48
-13
-71
-122
-162
-189
-205
-213
-215
-213
-208
-202
-193
-183
-172
-163
-154
-146
-139
-131
-123
-117
-112
-107
-103
-98
-93
-89
-86
-81
-75
-75
-77
-73
-58
-34
-9
9
17
8
-12
-28
-32
-31
-27
-22
-24
-27
-11
16
6
-68
-87
254
1067
1840
1814
931
-28
-353
-138
70
44
-28
-11
22
26
36
57
72
92
117
139
162
188
212
236
259
277
286
288
283
273
255
225
182
128
68
7
-51
-102
-144
-175
-197
-209
-214
-217
-222
-223
-218
-211
-208
-208
-206
-203
-200
-198
-197
-196
-199
-205
-209
-210
-211
-212
-215
-220
-224
-223
-218
-210
-198
-184
-176
-187
-212
-233
-242
-243
-242
-245
-255
-255
-235
-215
-241
-310
-234
282
1140
1631
1178
130
-611
-627
-310
-172
-237
-272
-236
-217
-212
-189
-165
-147
-123
-97
-71
-42
-11
20
50
75
92
101
103
98
85
64
34
-8
-57
-110
-162
-211
-251
-279
-297
-307
-309
-306
-299
-290
-278
-265
-251
-237
-222
-207
-191
-177
-164
-152
-140
-128
-115
-102
-89
-80
-71
-59
-45
-30
-11
14
43
62
61
51
52
63
75
88
97
103
121
157
181
148
99
281
938
1794
2080
1422
389
-159
-32
268
339
271
269
314
330
341
369
393
414
439
465
494
526
556
584
613
635
648
650
642
623
594
554
499
430
351
272
200
136
83
40
6
-22
-46
-67
-87
-105
-122
-139
-157
-177
-196
-216
-240
-267
-295
-325
-356
-389
-423
-457
-496
-542
-587
-626
-661
-695
-725
-754
-796
-857
-925
-983
-1032
-1083
-1134
-1184
-1240
-1295
-1324
-1354
-1456
-1604
-1560
-1071
-191
