# session 1
-39
-44
-46
-44
-39
-35
-33
-32
-31
-31
-30
-28
-26
-26
-28
-33
-39
-43
-43
-41
-40
-38
-29
-16
-15
-30
-47
-58
-61
-60
-63
-71
-69
-50
-37
-74
-134
17
630
1441
1696
1028
9
-515
-376
-82
-20
-89
-89
-46
-33
-24
3
26
43
62
84
118
158
191
209
220
228
227
213
191
165
133
91
39
-16
-67
-111
-149
-181
-204
-217
-222
-226
-226
-223
-215
-207
-202
-198
-190
-181
-175
-172
-167
-160
-156
-159
-161
-152
-140
-136
-137
-129
-117
-116
-127
-142
-150
-147
-142
-147
-148
-130
-107
-116
-178
-162
228
1022
1638
1411
468
-359
-511
-235
-55
-86
-120
-82
-56
-52
-31
-4
16
41
75
111
149
185
217
247
265
266
256
241
218
185
141
87
28
-32
-86
-128
-159
-180
-195
-203
-204
-202
-199
-195
-190
-183
-175
-168
-161
-154
-148
-143
-140
-138
-135
-129
-121
-116
-115
-108
-96
-91
-100
-113
-123
-127
-126
-129
-134
-126
-102
-92
-134
-189
-21
599
1394
1641
1005
30
-482
-371
-106
-52
-113
-109
-66
-52
-39
-12
10
32
63
99
136
176
214
248
275
290
290
279
259
229
187
136
78
15
-51
-107
-148
-174
-190
-198
-202
-202
-201
-199
-196
-191
-185
-179
-171
-164
-158
-151
-145
-142
-141
-136
-128
-122
-123
-123
-113
-99
-99
-114
-132
-144
-146
-143
-147
-149
-131
-105
-118
-191
-187
185
972
1632
1491
604
-255
-489
-260
-73
-92
-135
-106
-76
-71
-54
-30
-9
18
52
87
124
165
204
238
261
270
268
260
242
207
155
92
25
-42
-105
-155
-186
-205
-219
-226
-227
-224
-221
-219
-215
-210
-203
-196
-187
-176
-168
-164
-161
-154
-148
-147
-147
-145
-144
-145
-143
-132
-120
-115
-112
-103
-94
-97
-110
-118
-117
-112
-105
-104
-107
-96
-70
-67
-124
-170
61
768
1588
1764
1040
49
-423
-289
-45
-15
-80
-74
-35
-22
-8
17
38
61
91
123
159
201
244
282
313
335
345
342
327
299
257
199
130
58
-6
-57
-96
-124
-142
-153
-156
-155
-149
-145
-141
-135
-127
-119
-113
-109
-105
-97
-90
-85
-83
-81
-80
-80
-80
-79
-78
-76
-74
-73
-72
-71
-72
-70
-67
-65
-63
-60
-55
-52
-50
-49
-47
-45
-44
-43
-42
-40
-40
-40
-38
-37
-37
-39
-38
-36
-35
-35
-33
-31
-32
-33
-32
-31
-31
-32
-33
-31
-29
-28
-29
-30
-30
-30
-30
-31
-32
-33
-32
-32
-31
-30
-30
-32
-33
-33
-33
-33
-35
-36
-37
-36
-35
-36
-37
-37
-37
-38
-39
-39
-40
-40
-40
-41
-40
-41
-47
-56
-56
-42
-24
-12
-11
-14
-19
-28
-39
-48
-55
-59
-58
-63
-71
-56
-29
-47
-130
-155
143
889
1695
1862
1172
206
-306
-252
-59
-40
-111
-115
-81
-71
-61
-39
-20
-1
25
52
80
113
148
184
220
253
278
294
302
303
295
274
236
182
121
60
1
-52
-95
-127
-149
-162
-169
-172
-170
-164
-159
-155
-153
-151
-149
-148
-146
-144
-142
-141
-139
-137
-136
-134
-133
-132
-131
-129
-127
-127
-126
-125
-123
-123
-121
-118
-115
-111
-108
-105
-103
-100
-97
-94
-92
-92
-91
-91
-89
-87
-85
-83
-80
-78
-75
-73
-70
-67
-63
-60
-59
-58
-55
-52
-50
-49
-48
-46
-44
-42
-40
-37
-35
-34
-33
-32
-31
-29
-28
-28
-26
-25
-24
-24
-24
-22
-22
-23
-23
-21
-19
-19
-18
-9
8
22
25
21
15
6
-5
-12
-17
-19
-15
-17
-27
-18
8
0
-73
-123
104
801
1666
1970
1364
356
-257
-249
-34
11
-63
-77
-44
-32
-24
-2
18
34
57
81
107
139
174
210
247
279
305
321
328
324
307
275
222
153
74
-3
-74
-136
-184
-218
-241
-257
-265
-266
-262
-257
-251
-241
-227
-213
-203
-194
-186
-178
-172
-167
-159
-152
-146
-141
-137
-133
-130
-125
-122
-119
-117
-115
-113
-111
-108
-106
-105
-104
-101
-98
-96
-94
-92
-90
-88
-86
-84
-82
-81
-80
-80
-79
-78
-78
-78
-76
-73
-70
-66
-61
-58
-57
-56
-55
-54
-53
-50
-47
-45
-43
-41
-39
-37
-35
-34
-34
-32
-28
-27
-26
-23
-11
6
19
23
18
9
-2
-13
-26
-31
-27
-31
-39
-26
-1
-13
-85
-120
155
905
1737
1901
1165
159
-342
-247
-34
-21
-92
-87
-50
-41
-30
-5
14
34
61
89
120
156
193
232
271
307
335
353
359
352
332
292
233
162
85
11
-54
-108
-149
-177
-195
-206
-211
-211
-209
-206
-203
-200
-198
-196
-191
-185
-179
-174
-170
-165
-160
-156
-154
-152
-149
-147
-146
-146
-145
-143
-141
-139
-136
-132
-130
-128
-126
-124
-123
-123
-123
-123
-122
-120
-117
-115
-114
-112
-110
-108
-106
-104
-101
-98
-95
-90
-87
-86
-85
-83
-80
-80
-83
-85
-77
-54
-26
-6
1
-3
-15
-29
-37
-40
-40
-36
-38
-45
-36
-11
-9
-64
-127
34
666
1539
1914
1354
330
-311
-296
-49
14
-60
-74
-38
-28
-23
3
27
48
72
96
125
162
200
234
270
307
335
351
354
346
326
288
232
162
84
6
-63
-119
-161
-193
-215
-226
-231
-230
-228
-224
-220
-216
-211
-205
-197
-192
-187
-180
-173
-169
-166
-163
-160
-155
-151
-149
-148
-146
-145
-145
-145
-144
-142
-140
-139
-136
-131
-127
-125
-125
-124
-120
-115
-112
-114
-117
-116
-107
-89
-69
-52
-45
-52
-68
-82
-90
-91
-85
-84
-89
-82
-57
-44
-86
-158
-18
612
1498
1857
1243
179
-443
-371
-82
-6
-73
-82
-43
-30
-19
7
27
44
69
98
131
170
209
251
297
337
363
374
374
362
334
288
226
152
71
-7
-73
-127
-167
-194
-210
-220
-227
-230
-228
-223
-219
-216
-212
-206
-198
-191
-185
-180
-175
-169
-164
-158
-155
-154
-152
-150
-148
-147
-148
-150
-155
-161
-163
-156
-145
-140
-143
-144
-135
-118
-98
-78
-63
-64
-79
-94
-103
-105
-103
-100
-104
-103
-84
-59
-69
-138
-129
281
1145
1845
1643
642
-273
-477
-203
-15
-56
-105
-72
-44
-41
-22
2
21
48
79
109
144
186
230
273
313
345
366
373
366
342
301
239
163
81
4
-65
-122
-164
-192
-210
-222
-227
-227
-225
-222
-217
-212
-208
-201
-192
-185
-181
-176
-171
-165
-160
-156
-154
-154
-153
-151
-149
-149
-149
-148
-147
-145
-143
-144
-145
-144
-137
-122
-103
-85
-74
-78
-94
-109
-116
-120
-119
-115
-116
-112
-92
-71
-90
-166
-143
314
1218
1902
1643
609
-290
-467
-200
-40
-94
-138
-104
-80
-74
-50
-23
-4
22
56
90
128
168
209
254
297
329
348
353
345
323
284
226
153
73
-4
-71
-123
-160
-186
-204
-213
-216
-216
-213
-209
-205
-200
-194
-188
-182
-176
-168
-160
-156
-154
-150
-145
-141
-140
-141
-140
-138
-136
-136
-136
-135
-137
-138
-134
-123
-107
-91
-78
-74
-84
-101
-112
-117
-118
-114
-113
-117
-110
-86
-75
-122
-195
-44
622
1567
1977
1371
267
-412
-379
-108
-41
-120
-132
-93
-81
-73
-45
-22
-3
23
53
87
125
165
205
246
284
311
326
328
316
288
241
178
104
27
-45
-105
-151
-185
-207
-220
-224
-223
-223
-222
-217
-209
-202
-196
-191
-185
-180
-174
-168
-164
-163
-161
-156
-152
-149
-148
-147
-146
-144
-142
-140
-136
-133
-134
-136
-133
-121
-103
-85
-71
-64
-70
-88
-102
-106
-107
-107
-104
-106
-108
-92
-65
-70
-146
-203
75
887
1781
1922
1093
34
-431
-275
-46
-47
-121
-109
-72
-64
-50
-23
-3
17
46
77
111
149
187
228
270
305
329
342
343
329
298
246
178
102
24
-47
-106
-150
-180
-199
-210
-214
-213
-211
-207
-201
-194
-187
-182
-177
-172
-166
-160
-156
-154
-151
-148
-145
-143
-144
-144
-143
-142
-142
-142
-141
-140
-140
-139
-135
-131
-131
-137
-136
-122
-99
-78
-66
-65
-73
-89
-103
-106
-104
-104
-101
-101
-108
-99
-69
-61
-128
-214
-40
661
1605
1986
1372
297
-354
-329
-84
-31
-108
-121
-84
-71
-63
-38
-15
6
33
61
92
129
167
207
247
284
310
325
330
324
303
263
204
131
55
-16
-79
-129
-164
-187
-201
-208
-209
-208
-204
-199
-193
-187
-181
-175
-170
-165
-160
-155
-151
-149
-146
-144
-143
-144
-142
-140
-139
-139
-138
-135
-133
-132
-131
-128
-126
-123
-122
-119
-115
-112
-115
-123
-122
-105
-79
-57
-47
-48
-57
-72
-84
-87
-86
-85
-82
-83
-90
-79
-50
-50
-122
-188
40
781
1670
1913
1201
160
-379
-283
-46
-21
-97
-99
-63
-53
-42
-17
4
25
52
79
109
145
182
220
259
291
314
325
328
320
300
263
207
138
62
-11
-74
-123
-159
-184
-199
-207
-210
-209
-206
-200
-194
-187
-180
-173
-167
-161
-156
-151
-147
-146
-145
-143
-142
-141
-140
-138
-137
-136
-135
-135
-135
-136
-136
-134
-130
-127
-125
-123
-121
-118
-115
-110
-108
-113
-119
-116
-98
-71
-48
-38
-40
-51
-68
-78
-77
-76
-75
-73
-77
-81
-64
-39
-54
-136
-166
166
980
1762
1751
876
-84
-420
-217
-13
-34
-99
-80
-49
-43
-28
-3
16
37
64
92
123
158
195
232
268
297
315
324
322
311
287
247
190
124
54
-12
-71
-118
-153
-176
-190
-197
-200
-199
-195
-190
-185
-179
-172
-166
-160
-155
-151
-147
-143
-140
-139
-138
-137
-136
-136
-136
-137
-138
-138
-136
-134
-133
-132
-130
-128
-125
-122
-120
-119
-117
-114
-110
-109
-115
-123
-121
-102
-75
-53
-42
-44
-57
-74
-84
-84
-84
-82
-80
-85
-87
-66
-43
-71
-162
-140
312
1182
1822
1561
578
-261
-414
-154
-2
-56
-101
-68
-44
-40
-22
2
21
46
74
103
137
175
210
245
279
306
321
326
321
307
278
232
174
111
45
-20
-77
-122
-153
-172
-182
-188
-192
-191
-188
-183
-178
-173
-167
-160
-153
-148
-145
-141
-138
-137
-138
-137
-136
-135
-135
-136
-136
-134
-132
-131
-130
-129
-128
-126
-125
-124
-123
-121
-116
-113
-115
-120
-122
-114
-93
-69
-49
-42
-50
-69
-84
-87
-86
-86
-86
-89
-91
-77
-53
-53
-113
-166
73
808
1643
1779
985
-39
-481
-302
-45
-28
-98
-89
-53
-44
-31
-7
10
29
57
84
112
146
182
219
254
280
294
300
298
285
259
222
175
117
54
-9
-63
-110
-149
-177
-195
-205
-211
-213
-210
-205
-200
-195
-187
-181
-177
-174
-168
-160
-155
-152
-150
-148
-149
-151
-148
-143
-143
-146
-146
-142
-140
-139
-135
-132
-134
-138
-132
-113
-91
-75
-63
-63
-77
-93
-101
-104
-104
-100
-100
-102
-92
-71
-65
-112
-148
115
871
1682
1740
870
-161
-546
-315
-49
-39
-100
-76
-38
-34
-21
6
25
46
75
108
144
184
225
267
304
330
346
351
346
329
296
245
182
111
37
-34
-94
-140
-174
-201
-218
-223
-222
-220
-218
-217
-213
-207
-200
-192
-183
-174
-167
-162
-159
-156
-152
-149
-148
-150
-151
-148
-144
-143
-144
-142
-137
-137
-140
-139
-130
-113
-95
-81
-75
-80
-93
-104
-110
-114
-114
-109
-110
-112
-99
-75
-75
-133
-140
211
1018
1730
1601
650
-282
-526
-257
-41
-61
-108
-78
-48
-43
-24
1
20
47
82
115
150
191
235
279
317
344
358
362
355
333
293
236
164
84
5
-67
-124
-165
-194
-216
-232
-238
-238
-234
-229
-224
-219
-213
-207
-201
-193
-186
-179
-172
-167
-164
-163
-160
-157
-154
-153
-155
-155
-151
-147
-147
-148
-144
-133
-119
-108
-98
-92
-97
-112
-125
-131
-131
-125
-122
-127
-123
-99
-81
-110
-170
-40
560
1440
1845
1286
225
-443
-412
-126
-36
-100
-111
-70
-57
-51
-25
1
22
51
84
120
160
203
247
291
327
350
362
364
354
323
273
207
132
51
-26
-89
-137
-172
-195
-209
-216
-218
-216
-213
-209
-202
-195
-189
-183
-176
-170
-163
-158
-154
-148
-143
-141
-141
-140
-138
-137
-137
-136
-132
-127
-126
-130
-131
-125
-118
-108
-94
-77
-67
-76
-95
-104
-102
-100
-98
-97
-102
-100
-75
-53
-86
-176
-126
394
1334
1985
1663
604
-274
-433
-177
-38
-99
-143
-108
-84
-77
-57
-35
-18
7
38
72
112
155
196
237
277
309
330
337
331
311
271
211
137
59
-16
-82
-135
-173
-197
-210
-219
-223
-223
-218
-211
-206
-201
-195
-188
-181
-176
-172
-169
-165
-161
-158
-155
-151
-148
-147
-148
-149
-148
-146
-144
-142
-141
-138
-136
-134
-133
-130
-127
-125
-124
-121
-118
-115
-111
-109
-109
-110
-105
-97
-95
-103
-110
-104
-81
-55
-38
-32
-35
-44
-56
-65
-67
-65
-67
-67
-61
-62
-71
-60
-28
-26
-92
-147
65
762
1658
2004
1404
358
-291
-288
-53
7
-66
-83
-47
-33
-24
2
26
46
73
102
134
170
209
249
292
331
363
386
398
399
386
354
301
230
151
74
6
-50
-93
-122
-142
-154
-158
-158
-155
-150
-144
-137
-130
-123
-119
-116
-113
-110
-107
-105
-103
-102
-101
-100
-98
-98
-97
-96
-95
-93
-92
-90
-87
-86
-85
-84
-82
-80
-78
-76
-75
-73
-71
-69
-68
-67
-65
-63
-62
-61
-60
-59
-58
-57
-56
-54
-53
-52
-52
-52
-52
-50
-49
-48
-47
-46
-46
-45
-45
-45
-44
-44
-46
-47
-46
-45
-46
-46
-46
-47
-48
-49
-50
-50
-51
-52
-52
-50
-50
-51
-51
-51
-51
-51
-51
-51
-50
-49
-49
-50
-50
-49
-46
-46
-52
-60
-57
-38
-13
4
8
6
1
-8
-21
-27
-27
-28
-27
-24
-29
-30
-6
15
-20
-100
-58
381
1234
1949
1852
967
46
-280
-116
48
16
-43
-24
6
16
34
58
