# session 21
-35
-70
-111
-159
-208
-253
-292
-320
-338
-347
-350
-348
-343
-335
-324
-310
-297
-285
-275
-263
-250
-240
-232
-222
-214
-210
-206
-199
-191
-191
-193
-191
-181
-169
-152
-130
-109
-106
-121
-136
-139
-135
-130
-122
-122
-125
-108
-77
-83
-159
-197
110
917
1759
1847
1020
9
-412
-244
-19
-21
-94
-84
-49
-43
-31
-6
14
35
60
85
110
139
168
195
218
233
241
240
234
223
204
174
132
80
23
-33
-82
-122
-154
-176
-187
-192
-191
-189
-184
-178
-171
-163
-155
-149
-144
-137
-131
-127
-125
-122
-120
-119
-119
-117
-114
-113
-118
-123
-120
-111
-100
-84
-63
-48
-55
-77
-93
-95
-94
-91
-88
-95
-96
-73
-52
-84
-170
-120
377
1280
1910
1611
600
-245
-399
-148
-9
-70
-118
-88
-67
-66
-47
-24
-7
14
38
61
86
114
139
162
182
193
196
194
187
174
153
121
79
30
-24
-78
-127
-165
-193
-210
-219
-223
-222
-219
-213
-206
-198
-191
-184
-178
-172
-165
-159
-154
-152
-149
-147
-146
-145
-141
-139
-143
-147
-144
-132
-118
-102
-82
-71
-81
-102
-112
-111
-110
-107
-106
-111
-106
-80
-61
-103
-186
-95
466
1371
1898
1472
434
-326
-389
-120
-7
-77
-112
-78
-60
-57
-38
-17
-1
21
47
72
98
123
144
164
180
186
185
180
171
155
132
102
65
22
-27
-76
-120
-153
-176
-193
-203
-207
-207
-204
-197
-190
-181
-173
-166
-160
-154
-147
-143
-141
-140
-137
-133
-131
-131
-127
-124
-128
-132
-129
-120
-113
-104
-85
-66
-64
-82
-99
-105
-103
-99
-97
-102
-104
-84
-59
-77
-148
-119
316
1163
1796
1534
534
-327
-481
-190
-5
-47
-95
-62
-37
-35
-16
8
24
46
74
98
122
148
174
197
212
218
217
212
200
182
159
131
98
58
10
-40
-86
-124
-153
-173
-186
-192
-192
-189
-185
-181
-176
-170
-164
-157
-148
-143
-143
-142
-139
-137
-138
-140
-141
-138
-135
-134
-136
-139
-137
-131
-127
-120
-103
-84
-81
-100
-120
-126
-121
-116
-113
-117
-118
-102
-78
-84
-135
-115
258
1047
1709
1540
590
-315
-533
-248
-24
-45
-97
-65
-32
-33
-21
4
27
54
81
105
132
163
192
215
232
243
247
242
229
210
184
150
109
63
11
-42
-91
-130
-159
-178
-190
-198
-200
-200
-197
-192
-185
-177
-169
-162
-155
-147
-142
-140
-139
-137
-135
-133
-133
-135
-135
-132
-130
-134
-137
-134
-125
-116
-107
-94
-85
-90
-106
-115
-116
-116
-115
-115
-118
-111
-88
-72
-102
-157
-29
557
1421
1820
1261
198
-472
-427
-119
-15
-83
-102
-61
-45
-39
-15
8
26
52
78
105
136
168
196
221
240
249
250
243
229
205
174
135
86
29
-29
-82
-125
-159
-184
-200
-208
-210
-210
-207
-202
-196
-189
-183
-176
-170
-164
-157
-151
-145
-142
-139
-137
-137
-137
-137
-136
-134
-130
-128
-131
-137
-136
-128
-119
-108
-91
-76
-75
-90
-106
-108
-104
-101
-99
-103
-108
-93
-64
-65
-129
-174
77
819
1672
1849
1090
55
-435
-292
-38
-15
-92
-89
-52
-44
-33
-8
13
33
61
88
116
148
180
210
239
262
276
280
276
263
239
204
155
96
32
-31
-85
-128
-161
-183
-196
-202
-204
-202
-196
-190
-183
-177
-171
-163
-156
-150
-144
-138
-134
-130
-125
-123
-122
-121
-119
-116
-115
-114
-113
-111
-110
-109
-108
-105
-102
-101
-100
-97
-95
-93
-91
-89
-88
-85
-80
-78
-85
-94
-91
-71
-44
-25
-19
-23
-35
-52
-63
-66
-68
-70
-67
-71
-77
-60
-34
-54
-128
-135
187
945
1716
1800
1039
80
-358
-233
-21
-17
-91
-88
-54
-47
-37
-14
4
23
47
70
95
123
151
177
203
226
242
250
252
246
233
208
170
119
59
-5
-65
-115
-154
-182
-201
-211
-214
-212
-207
-200
-193
-186
-180
-173
-168
-163
-157
-152
-147
-143
-140
-138
-135
-132
-130
-129
-126
-124
-123
-121
-118
-116
-114
-112
-110
-108
-105
-103
-102
-100
-98
-95
-90
-87
-92
-102
-104
-88
-61
-37
-26
-28
-39
-57
-71
-75
-75
-77
-74
-73
-81
-76
-48
-42
-99
-164
-8
597
1443
1833
1327
340
-314
-326
-77
7
-64
-88
-53
-38
-34
-13
9
27
50
74
96
123
152
178
203
224
240
250
251
245
232
209
173
125
71
13
-45
-96
-137
-167
-188
-201
-205
-203
-198
-195
-189
-182
-176
-170
-164
-157
-149
-143
-139
-133
-128
-124
-120
-116
-113
-110
-109
-107
-104
-102
-102
-102
-100
-96
-93
-92
-92
-90
-88
-85
-83
-83
-82
-79
-81
-88
-89
-75
-51
-30
-21
-22
-32
-48
-62
-68
-71
-71
-69
-74
-79
-64
-38
-48
-119
-140
168
923
1658
1653
820
-113
-445
-235
-9
-15
-81
-66
-33
-29
-19
3
20
40
67
91
115
143
171
197
219
232
238
238
232
220
203
177
142
97
46
-7
-58
-103
-140
-168
-187
-198
-204
-205
-203
-198
-192
-189
-184
-178
-172
-168
-163
-158
-152
-148
-145
-144
-144
-142
-141
-141
-140
-140
-140
-139
-137
-136
-134
-132
-131
-133
-137
-133
-116
-89
-67
-56
-59
-76
-95
-104
-106
-107
-104
-103
-106
-99
-75
-61
-100
-164
-19
593
1435
1754
1139
110
-470
-373
-74
6
-66
-78
-38
-23
-15
8
27
45
70
97
124
154
184
214
243
266
279
283
278
266
245
215
172
119
60
1
-54
-102
-140
-169
-187
-197
-201
-201
-198
-194
-188
-180
-173
-166
-159
-151
-143
-136
-131
-127
-124
-121
-119
-117
-117
-117
-117
-116
-116
-115
-114
-112
-113
-117
-121
-115
-97
-72
-52
-43
-49
-67
-85
-94
-97
-98
-96
-98
-105
-95
-71
-70
-130
-182
44
751
1586
1778
1052
43
-441
-301
-48
-24
-101
-100
-64
-57
-49
-25
-6
12
36
60
87
116
142
169
196
218
230
233
230
219
201
172
130
77
19
-39
-93
-140
-176
-201
-216
-224
-226
-224
-221
-215
-207
-198
-188
-179
-171
-164
-157
-149
-143
-140
-136
-132
-129
-127
-126
-124
-122
-121
-120
-116
-112
-114
-119
-118
-103
-78
-55
-41
-40
-53
-74
-89
-94
-95
-91
-89
-95
-93
-70
-54
-93
-173
-79
480
1366
1856
1399
367
-354
-380
-103
0
-73
-104
-68
-52
-48
-26
-4
12
34
58
83
111
139
166
189
209
222
227
224
214
199
176
142
96
42
-14
-67
-115
-154
-183
-201
-210
-212
-212
-210
-205
-197
-188
-181
-174
-168
-161
-154
-146
-139
-135
-134
-132
-130
-129
-129
-127
-124
-123
-126
-126
-116
-98
-81
-66
-54
-53
-70
-93
-105
-107
-105
-103
-107
-113
-103
-76
-72
-130
-175
67
794
1626
1781
1005
-27
-496
-329
-61
-33
-107
-101
-61
-54
-47
-22
-1
19
44
69
94
121
145
170
195
212
218
213
204
193
177
153
116
71
23
-26
-74
-117
-151
-174
-190
-199
-203
-201
-195
-190
-185
-180
-173
-167
-160
-154
-148
-144
-141
-137
-135
-135
-135
-133
-135
-138
-136
-128
-117
-105
-91
-79
-82
-101
-118
-125
-125
-123
-121
-124
-122
-103
-83
-106
-173
-112
366
1201
1737
1367
352
-430
-502
-194
-28
-71
-103
-66
-46
-46
-26
3
24
45
69
94
125
153
177
200
221
233
234
225
209
186
158
123
80
32
-19
-68
-111
-147
-175
-191
-197
-201
-202
-201
-198
-192
-184
-175
-168
-161
-155
-149
-142
-137
-133
-128
-125
-127
-130
-131
-126
-120
-112
-99
-81
-73
-85
-106
-118
-122
-122
-118
-118
-124
-113
-83
-80
-147
-207
15
731
1593
1824
1116
83
-445
-330
-69
-31
-108
-113
-75
-65
-57
-33
-14
6
33
59
84
115
147
174
196
213
223
223
214
199
176
142
96
42
-15
-70
-119
-159
-189
-208
-220
-224
-222
-219
-214
-207
-198
-189
-182
-174
-167
-161
-154
-147
-142
-139
-136
-131
-130
-135
-139
-136
-129
-121
-107
-86
-73
-82
-103
-115
-117
-118
-114
-111
-117
-111
-82
-68
-125
-214
-88
538
1479
1973
1485
422
-321
-369
-112
-21
-98
-130
-95
-78
-73
-52
-31
-13
12
38
63
93
123
151
178
199
211
216
213
203
185
156
114
63
6
-53
-108
-153
-185
-207
-219
-224
-224
-221
-215
-207
-197
-187
-178
-170
-163
-157
-150
-144
-139
-135
-133
-130
-127
-124
-123
-123
-122
-120
-117
-112
-108
-111
-117
-117
-110
-96
-75
-54
-44
-53
-71
-81
-80
-79
-79
-75
-78
-84
-69
-42
-54
-137
-173
144
956
1781
1840
996
-6
-407
-230
-10
-20
-96
-86
-53
-46
-34
-11
7
28
53
77
103
132
160
186
209
226
236
241
238
229
213
184
142
89
31
-28
-82
-127
-161
-184
-197
-202
-202
-199
-192
-184
-177
-170
-161
-153
-147
-142
-138
-132
-128
-125
-121
-117
-115
-115
-114
-109
-107
-108
-110
-110
-107
-104
-102
-99
-96
-95
-95
-92
-90
-87
-85
-82
-81
-79
-78
-75
-73
-74
-80
-85
-78
-56
-31
-14
-11
-17
-29
-45
-58
-60
-58
-60
-60
-59
-66
-63
-36
-21
-68
-145
-42
503
1349
1820
1396
408
-306
-360
-98
16
-49
-82
-47
-28
-26
-8
13
31
53
77
99
123
149
175
198
214
222
225
224
219
208
189
161
126
86
40
-11
-61
-105
-140
-167
-184
-192
-193
-192
-190
-185
-178
-172
-168
-163
-158
-154
-149
-143
-139
-137
-137
-136
-134
-133
-134
-136
-135
-131
-126
-123
-125
-128
-127
-122
-117
-114
-114
-114
-111
-108
-105
-100
-96
-99
-105
-104
-88
-65
-43
-29
-27
-37
-56
-73
-78
-76
-75
-72
-70
-75
-75
-57
-39
-65
-134
-67
423
1261
1774
1375
359
-394
-440
-133
18
-34
-66
-30
-10
-5
19
43
59
79
103
129
161
195
221
242
263
282
292
288
273
253
229
198
157
107
51
-2
-51
-97
-137
-164
-178
-186
-190
-191
-190
-189
-186
-181
-176
-170
-165
-157
-149
-143
-140
-138
-136
-135
-132
-129
-130
-131
-131
-130
-130
-132
-133
-134
-131
-127
-126
-127
-127
-126
-123
-120
-116
-112
-111
-114
-116
-108
-88
-65
-47
-41
-48
-64
-80
-84
-80
-80
-81
-83
-88
-87
-66
-45
-67
-138
-91
368
1208
1782
1453
444
-367
-470
-169
6
-35
-74
-40
-16
-14
6
32
50
73
101
130
161
194
225
256
286
308
318
317
308
291
262
220
167
106
42
-21
-76
-122
-157
-180
-194
-202
-205
-205
-203
-200
-194
-188
-182
-175
-166
-157
-150
-143
-138
-132
-126
-123
-120
-117
-114
-112
-113
-114
-114
-114
-113
-113
-112
-110
-110
-110
-108
-105
-103
-101
-100
-98
-96
-93
-90
-90
-99
-106
-99
-75
-49
-34
-31
-36
-47
-63
-72
-75
-78
-76
-75
-81
-78
-52
-40
-88
-160
-49
500
1362
1869
1479
484
-280
-379
-125
1
-60
-99
-67
-46
-42
-22
1
18
41
66
91
119
151
183
214
242
265
280
288
286
274
248
209
156
93
25
-40
-99
-147
-182
-206
-220
-227
-230
-229
-225
-218
-211
-204
-197
-191
-185
-179
-173
-168
-162
-156
-150
-145
-141
-137
-133
-130
-128
-126
-124
-122
-121
-118
-116
-113
-111
-108
-106
-104
-98
-94
-98
-107
-109
-94
-67
-41
-28
-28
-38
-56
-70
-74
-75
-76
-72
-74
-82
-71
-42
-46
-117
-163
79
785
1605
1807
1113
117
-397
-294
-44
-2
-75
-81
-44
-34
-26
-3
16
34
58
83
108
138
169
201
231
257
276
288
292
287
271
241
196
139
73
5
-59
-113
-156
-187
-206
-218
-223
-223
-220
-216
-210
-204
-198
-192
-185
-178
-172
-167
-161
-155
-149
-143
-139
-136
-133
-130
-128
-126
-124
-121
-119
-117
-115
-114
-112
-109
-106
-104
-102
-99
-94
-91
-94
-102
-107
-97
-73
-45
-27
-24
-31
-46
-62
-72
-73
-74
-72
-69
-75
-75
-53
-34
-71
-149
-89
379
1206
1778
1494
544
-256
-403
-149
9
-37
-83
-53
-28
-26
-9
14
30
52
79
104
131
159
188
218
245
267
281
287
284
273
253
222
177
121
58
-6
-64
-113
-151
-177
-194
-203
-206
-208
-207
-201
-191
-183
-178
-173
-167
-161
-155
-148
-142
-138
-135
-133
-132
-130
-127
-125
-123
-122
-120
-117
-115
-113
-111
-111
-111
-109
-106
-103
-101
-99
-100
-103
-105
-101
-82
-54
-34
-30
-39
-55
-70
-77
-81
-84
-81
-78
-84
-81
-59
-49
-98
-162
-10
600
1424
1733
1128
118
-460
-375
-84
-2
-71
-84
-44
-30
-25
-5
13
28
53
80
106
135
164
192
218
242
258
265
264
256
241
216
179
133
82
28
-29
-84
-131
-165
-188
-203
-214
-218
-218
-214
-209
-203
-198
-193
-187
-180
-175
-169
-163
-158
-155
-153
-150
-147
-146
-145
-143
-142
-141
-141
-139
-136
-133
-130
-131
-133
-130
-116
-93
-70
-54
-51
-64
-83
-95
-98
-99
-95
-91
-93
-92
-71
-51
-78
-148
-79
417
1258
1772
1378
372
-376
-427
-130
15
-40
-74
-38
-16
-11
8
30
49
73
100
126
154
185
216
247
275
294
307
310
301
284
259
221
171
111
47
-15
-71
-117
-151
-174
-189
-197
-201
-200
-197
-192
-186
-180
-173
-167
-160
-153
-147
-141
-137
-134
-133
-134
-135
-135
-133
-132
-133
-134
-136
-136
-133
-128
-129
-134
-139
-134
-116
-91
-71
-61
-66
-84
-103
-113
-117
-119
-116
-118
-124
-117
-91
-86
-143
-205
-22
635
1474
1743
1089
72
-475
-374
-103
-49
-123
-132
-95
-84
-77
-53
-33
-16
9
34
60
90
120
150
179
205
222
231
232
225
211
188
150
101
44
-14
-71
-123
-164
-192
-209
-217
-219
-217
-210
-199
-189
-178
-166
-154
-143
-131
-119
-107
-95
-83
-73
-64
