# session 8
-46
-44
-44
-44
-43
-44
-48
-51
-52
-51
-52
-55
-57
-57
-60
-64
-65
-61
-57
-60
-68
-68
-57
-41
-29
-19
-9
-9
-24
-47
-61
-61
-60
-60
-60
-63
-64
-52
-33
-37
-99
-117
226
1043
1772
1646
683
-258
-494
-215
-4
-39
-94
-63
-34
-36
-24
-4
11
33
62
92
125
164
202
238
271
302
326
339
339
331
312
274
213
137
57
-19
-88
-145
-187
-215
-232
-244
-250
-250
-246
-242
-239
-234
-227
-219
-210
-202
-195
-189
-184
-181
-179
-177
-174
-171
-168
-166
-165
-164
-163
-161
-159
-157
-157
-154
-151
-148
-145
-140
-137
-135
-131
-119
-99
-78
-66
-64
-73
-87
-98
-102
-101
-99
-95
-98
-101
-87
-61
-60
-129
-183
95
896
1748
1820
949
-80
-465
-248
-8
-21
-93
-74
-38
-34
-22
4
24
47
73
98
127
163
200
237
273
307
337
358
366
362
345
308
247
168
84
1
-75
-136
-179
-206
-225
-237
-242
-241
-236
-231
-228
-223
-217
-208
-199
-191
-184
-177
-171
-166
-160
-154
-149
-145
-143
-141
-139
-137
-136
-135
-134
-132
-129
-128
-126
-122
-117
-120
-124
-118
-96
-68
-50
-48
-54
-66
-81
-90
-93
-94
-92
-88
-92
-95
-77
-50
-68
-157
-172
212
1076
1849
1777
861
-83
-384
-178
0
-41
-107
-86
-57
-54
-37
-12
7
28
57
86
118
153
188
226
267
304
334
353
363
361
345
306
243
162
73
-11
-82
-140
-182
-210
-225
-231
-234
-234
-230
-223
-216
-209
-203
-198
-192
-186
-182
-178
-173
-169
-165
-162
-160
-157
-155
-153
-152
-149
-147
-145
-143
-142
-141
-140
-137
-135
-133
-130
-124
-120
-124
-130
-122
-98
-72
-56
-54
-63
-77
-92
-99
-98
-99
-100
-97
-99
-103
-85
-56
-68
-150
-180
151
966
1772
1805
962
-8
-383
-209
-9
-28
-100
-87
-54
-48
-33
-8
10
31
57
83
112
145
179
216
254
290
320
342
353
353
342
312
260
187
105
23
-51
-113
-158
-188
-207
-217
-221
-221
-219
-214
-208
-200
-194
-188
-182
-177
-171
-165
-162
-159
-156
-154
-152
-149
-147
-145
-143
-142
-141
-139
-136
-134
-133
-133
-131
-127
-124
-122
-121
-119
-116
-110
-104
-101
-106
-112
-103
-78
-50
-35
-35
-42
-53
-66
-73
-74
-76
-77
-71
-73
-78
-64
-37
-45
-120
-147
177
980
1766
1772
912
-48
-392
-193
12
-12
-84
-70
-38
-32
-16
10
25
42
68
95
124
156
188
220
253
283
306
321
328
328
318
294
251
190
119
47
-22
-82
-128
-162
-185
-199
-206
-208
-206
-202
-197
-193
-187
-181
-175
-171
-165
-160
-159
-161
-164
-168
-174
-180
-184
-184
-183
-181
-178
-174
-172
-170
-168
-167
-165
-160
-155
-152
-147
-140
-136
-137
-135
-119
-97
-80
-71
-73
-81
-93
-100
-102
-103
-101
-98
-101
-105
-91
-67
-67
-131
-159
168
985
1748
1666
718
-241
-502
-228
-8
-39
-98
-68
-35
-33
-17
9
25
46
75
107
143
180
214
247
285
320
344
357
360
358
344
310
255
186
110
34
-38
-98
-141
-172
-195
-212
-221
-222
-219
-214
-209
-204
-198
-194
-188
-181
-174
-168
-164
-162
-159
-157
-155
-154
-151
-151
-152
-151
-147
-144
-148
-152
-147
-140
-136
-131
-115
-96
-90
-105
-120
-122
-118
-119
-119
-119
-118
-107
-86
-76
-117
-160
70
801
1651
1798
986
-66
-514
-317
-48
-33
-109
-98
-59
-52
-40
-15
5
25
52
78
106
142
180
220
260
293
317
332
339
336
319
283
226
152
70
-10
-81
-138
-180
-210
-229
-240
-244
-244
-242
-239
-234
-226
-219
-212
-206
-198
-190
-183
-180
-179
-176
-170
-166
-166
-164
-160
-159
-162
-161
-157
-152
-146
-131
-111
-101
-112
-130
-138
-137
-135
-130
-128
-129
-118
-95
-88
-139
-192
29
758
1639
1859
1108
50
-459
-313
-54
-34
-115
-112
-74
-66
-54
-28
-8
13
42
70
100
136
175
214
253
286
312
328
336
334
317
279
219
143
61
-17
-86
-141
-184
-213
-228
-234
-236
-237
-235
-230
-223
-215
-208
-200
-193
-188
-182
-177
-172
-168
-164
-161
-159
-156
-152
-153
-158
-160
-157
-150
-139
-122
-104
-96
-107
-125
-131
-130
-129
-125
-122
-127
-123
-96
-78
-119
-199
-92
500
1426
1941
1487
442
-299
-351
-101
-15
-95
-126
-90
-73
-68
-46
-23
-3
23
50
78
111
147
183
222
259
288
307
318
321
312
285
235
164
82
1
-72
-131
-177
-208
-227
-236
-239
-239
-236
-231
-224
-216
-208
-201
-194
-188
-183
-178
-175
-171
-168
-166
-164
-163
-164
-163
-158
-154
-157
-161
-159
-153
-144
-132
-112
-95
-96
-112
-125
-126
-124
-123
-119
-120
-123
-109
-80
-80
-150
-192
100
897
1746
1853
1042
37
-389
-234
-25
-38
-114
-105
-72
-66
-53
-28
-8
14
42
69
97
129
163
199
235
267
292
307
314
313
299
266
212
141
61
-16
-84
-138
-178
-205
-221
-229
-231
-230
-226
-220
-213
-205
-198
-192
-187
-181
-175
-170
-167
-165
-163
-161
-159
-158
-157
-157
-155
-151
-146
-146
-152
-153
-148
-138
-125
-105
-88
-86
-101
-117
-119
-116
-114
-110
-110
-115
-106
-78
-66
-122
-191
7
718
1614
1890
1201
160
-383
-281
-35
-12
-95
-100
-64
-55
-46
-22
-2
18
46
74
101
131
165
200
232
259
280
296
306
305
291
262
215
151
78
6
-60
-117
-161
-191
-208
-219
-224
-224
-220
-213
-206
-199
-193
-187
-181
-174
-168
-165
-163
-161
-158
-154
-150
-150
-151
-151
-149
-148
-147
-145
-141
-137
-139
-143
-143
-137
-126
-109
-89
-76
-81
-98
-108
-108
-108
-108
-104
-103
-103
-89
-66
-70
-136
-149
214
1057
1806
1690
731
-210
-456
-194
2
-42
-103
-74
-45
-44
-30
-5
14
34
59
83
114
148
180
210
237
259
275
284
283
277
263
235
188
127
60
-6
-65
-116
-156
-184
-200
-207
-211
-215
-215
-208
-199
-194
-190
-184
-176
-171
-168
-164
-158
-155
-154
-154
-155
-154
-153
-154
-154
-151
-145
-142
-145
-150
-147
-138
-129
-120
-104
-89
-90
-103
-115
-118
-117
-113
-108
-110
-110
-94
-71
-80
-147
-105
378
1268
1851
1466
397
-410
-467
-151
-6
-69
-101
-60
-42
-41
-19
6
24
47
75
105
137
172
209
245
275
299
315
319
309
292
269
234
177
104
29
-37
-96
-146
-183
-206
-220
-226
-228
-226
-223
-221
-216
-210
-203
-196
-188
-178
-170
-165
-163
-163
-164
-161
-158
-156
-154
-152
-152
-151
-150
-145
-139
-128
-111
-98
-102
-119
-131
-132
-131
-129
-126
-126
-122
-104
-84
-98
-161
-119
344
1209
1808
1475
443
-380
-474
-171
-14
-73
-111
-70
-47
-44
-22
3
21
44
73
103
139
177
211
246
280
306
321
326
322
307
277
229
163
87
9
-60
-118
-161
-192
-213
-227
-234
-235
-233
-230
-225
-219
-212
-203
-194
-186
-179
-174
-170
-168
-166
-163
-159
-156
-154
-151
-152
-154
-154
-149
-143
-136
-124
-108
-100
-110
-127
-134
-134
-131
-125
-125
-128
-120
-97
-88
-135
-185
35
766
1657
1887
1133
60
-463
-322
-61
-39
-121
-117
-76
-68
-59
-33
-10
11
38
67
99
137
173
208
243
276
302
318
323
316
296
255
194
117
36
-40
-105
-157
-193
-216
-229
-236
-239
-239
-236
-230
-222
-214
-206
-201
-197
-191
-183
-175
-171
-168
-166
-162
-160
-159
-159
-155
-149
-148
-151
-152
-148
-142
-135
-121
-101
-88
-94
-111
-120
-117
-115
-111
-107
-110
-110
-88
-63
-85
-168
-144
311
1215
1930
1739
761
-140
-369
-145
3
-55
-111
-83
-57
-53
-33
-8
11
35
63
92
124
160
196
235
274
306
329
344
348
340
315
268
199
118
35
-40
-102
-148
-180
-200
-211
-217
-217
-213
-208
-202
-196
-188
-181
-175
-170
-166
-162
-158
-155
-152
-149
-147
-144
-142
-139
-137
-136
-135
-134
-132
-129
-126
-125
-124
-123
-120
-117
-115
-113
-110
-107
-105
-103
-101
-98
-95
-92
-90
-86
-81
-80
-87
-93
-85
-64
-40
-23
-18
-23
-36
-51
-58
-59
-60
-58
-59
-68
-64
-36
-25
-76
-154
-41
534
1426
1935
1525
529
-208
-293
-66
19
-58
-94
-62
-46
-42
-21
2
19
43
69
94
123
155
187
222
257
287
309
322
329
329
316
284
231
163
86
11
-57
-112
-154
-183
-201
-212
-216
-215
-210
-204
-199
-193
-188
-183
-179
-175
-171
-167
-164
-162
-161
-160
-159
-158
-156
-155
-153
-152
-151
-150
-148
-146
-145
-143
-141
-139
-136
-132
-130
-128
-125
-122
-120
-117
-115
-113
-108
-104
-107
-116
-114
-93
-63
-42
-36
-39
-47
-62
-74
-76
-76
-77
-74
-74
-78
-66
-39
-41
-109
-166
63
787
1646
1867
1163
155
-350
-240
-9
5
-76
-77
-42
-35
-26
0
20
38
64
90
116
146
179
213
248
279
303
320
329
330
321
299
256
194
121
47
-22
-83
-132
-166
-187
-200
-208
-212
-212
-208
-202
-197
-193
-187
-179
-172
-169
-168
-165
-160
-155
-152
-152
-151
-149
-145
-142
-143
-145
-145
-142
-140
-139
-138
-136
-133
-130
-126
-124
-123
-124
-122
-116
-114
-119
-123
-112
-88
-63
-50
-48
-55
-68
-82
-89
-90
-87
-83
-85
-90
-79
-52
-45
-105
-170
42
762
1627
1828
1080
50
-425
-267
-14
-1
-81
-78
-41
-35
-25
1
19
35
60
88
117
149
180
212
245
272
293
307
312
308
297
274
235
177
107
37
-28
-86
-135
-168
-190
-205
-214
-217
-216
-214
-210
-203
-198
-194
-188
-181
-175
-172
-167
-161
-157
-158
-157
-152
-149
-151
-153
-150
-146
-145
-145
-144
-141
-138
-138
-136
-135
-135
-135
-129
-114
-94
-73
-59
-62
-80
-96
-103
-104
-103
-98
-97
-100
-94
-74
-60
-100
-156
60
791
1654
1810
994
-66
-512
-306
-29
-13
-89
-77
-39
-33
-22
4
23
43
69
96
128
163
197
231
267
300
326
342
346
340
322
289
235
168
94
18
-53
-112
-156
-186
-208
-221
-226
-228
-230
-229
-225
-217
-211
-204
-196
-189
-184
-179
-174
-170
-167
-165
-164
-161
-158
-156
-155
-154
-153
-153
-151
-145
-142
-144
-147
-142
-125
-105
-90
-82
-80
-90
-107
-118
-119
-117
-113
-114
-116
-107
-84
-70
-107
-164
23
717
1603
1853
1111
28
-501
-345
-58
-22
-98
-91
-50
-45
-36
-8
13
31
57
87
119
154
189
227
266
300
323
337
342
338
323
289
234
161
82
3
-67
-124
-167
-197
-217
-227
-232
-235
-234
-229
-222
-217
-211
-204
-196
-188
-182
-176
-172
-169
-167
-164
-159
-157
-157
-157
-155
-153
-150
-150
-152
-152
-147
-134
-116
-99
-89
-90
-103
-117
-125
-129
-129
-124
-123
-126
-114
-88
-84
-142
-188
82
876
1762
1900
1067
7
-446
-272
-36
-45
-125
-113
-76
-71
-58
-32
-13
8
36
63
93
129
165
202
240
275
301
318
324
320
303
266
206
129
46
-34
-102
-156
-194
-218
-233
-240
-242
-239
-235
-230
-225
-217
-209
-201
-194
-189
-183
-178
-174
-171
-168
-164
-163
-160
-155
-154
-159
-164
-163
-156
-146
-131
-112
-100
-105
-122
-134
-137
-137
-132
-130
-136
-133
-106
-86
-128
-216
-117
488
1454
2015
1579
511
-272
-354
-112
-26
-107
-141
-106
-88
-83
-60
-37
-17
8
36
65
98
134
170
207
242
271
290
301
304
294
266
215
144
63
-17
-87
-144
-186
-214
-231
-238
-239
-238
-234
-228
-221
-213
-206
-199
-191
-185
-179
-174
-170
-167
-164
-161
-160
-157
-150
-148
-152
-158
-156
-149
-139
-124
-103
-88
-91
-109
-121
-124
-123
-119
-116
-122
-119
-94
-73
-115
-212
-140
433
1403
2017
1639
583
-233
-348
-111
-14
-93
-132
-99
-81
-77
-56
-32
-14
11
37
64
97
131
166
200
233
259
277
286
288
279
254
207
142
67
-10
-79
-135
-177
-205
-223
-232
-234
-233
-229
-225
-219
-211
-203
-196
-189
-183
-179
-174
-171
-167
-164
-162
-160
-160
-159
-156
-152
-155
-160
-161
-155
-144
-129
-110
-94
-96
-113
-127
-130
-128
-125
-123
-127
-128
-108
-80
-100
-194
-192
257
1189
1941
1760
759
-166
-395
-162
-14
-77
-135
-107
-82
-79
-61
-38
-20
3
30
57
89
123
155
187
219
245
262
272
274
267
248
210
153
83
11
-57
-113
-156
-187
-207
-218
-223
-222
-218
-212
-205
-198
-190
-182
-175
-168
-163
-159
-155
-150
-147
-146
-145
-144
-143
-141
-140
-139
-135
-129
-127
-130
-134
-133
-126
-114
-95
-74
-64
-73
-92
-101
-100
-98
-95
-92
-96
-93
-71
-50
-84
-170
-84
502
1453
1992
1526
446
-310
-344
-73
14
-71
-102
-63
-47
-43
-22
-2
15
39
66
93
124
155
184
213
239
259
271
274
269
259
241
205
153
92
28
-35
-92
-139
-172
-190
-199
-205
-209
-209
-204
-197
-191
-187
-182
-176
-169
-164
-160
-159
-159
-159
-158
-157
-155
-155
-156
-157
-154
-150
-151
-158
-162
-158
-149
-141
-128
-112
-102
-106
-119
-128
-132
-134
-131
-126
-126
-123
-107
-86
-105
-185
-153
333
1251
1881
1529
455
-388
-477
-172
-27
-96
-138
-101
-79
-76
-56
-35
-18
6
34
60
91
124
157
189
217
235
246
251
248
236
213
178
130
70
2
-63
-116
-155
-183
-203
-217
-225
-226
-222
-216
-209
-201
-192
-182
-173
-165
-157
-151
-145
-137
-130
-126
-123
-119
-117
-115
-108
-99
-96
-98
-95
-85
-74
-63
-45
-23
-14
-26
-41
-41
-32
-24
-18
-17
-16
-2
25
40
-7
-51
222
1020
1870
1925
1024
-14
-380
-136
122
111
32
69
