# session 19
26
-370
-1285
-2082
-2128
-1807
-1673
-1702
-1687
-1619
-1561
-1509
-1450
-1387
-1326
-1261
-1196
-1129
-1059
-988
-918
-848
-781
-722
-672
-630
-597
-573
-563
-569
-592
-624
-659
-690
-712
-721
-720
-707
-686
-660
-630
-599
-565
-530
-494
-461
-428
-395
-363
-333
-306
-279
-252
-226
-201
-177
-154
-133
-113
-93
-75
-57
-39
-22
-5
12
28
42
56
71
88
100
106
110
127
160
194
217
225
223
214
202
197
201
203
206
212
211
208
227
255
236
150
135
489
1303
2059
2027
1162
219
-116
75
274
250
179
190
218
217
225
243
255
269
289
308
328
350
372
395
418
434
444
447
443
433
415
383
337
277
209
138
68
6
-44
-81
-108
-126
-139
-145
-148
-148
-147
-147
-147
-148
-148
-148
-148
-149
-151
-152
-154
-158
-162
-165
-168
-171
-174
-178
-181
-182
-185
-186
-187
-188
-189
-190
-190
-190
-190
-188
-186
-189
-198
-205
-196
-171
-145
-131
-132
-142
-158
-174
-182
-181
-181
-182
-180
-183
-189
-172
-144
-159
-240
-259
76
865
1613
1598
755
-172
-500
-299
-87
-102
-169
-154
-120
-113
-99
-75
-56
-34
-6
20
46
75
105
134
161
182
196
205
206
200
188
170
140
97
44
-13
-67
-115
-155
-186
-207
-218
-222
-222
-216
-208
-200
-193
-186
-179
-171
-163
-155
-149
-143
-138
-133
-129
-125
-120
-116
-115
-114
-111
-106
-102
-101
-99
-96
-91
-88
-86
-85
-82
-76
-70
-69
-72
-72
-62
-39
-14
3
6
-3
-19
-34
-39
-39
-39
-37
-36
-43
-40
-18
-2
-38
-105
16
594
1430
1788
1212
180
-434
-358
-49
48
-21
-38
1
18
24
46
64
78
100
123
148
179
210
236
261
283
300
307
306
297
283
259
223
175
120
61
0
-57
-106
-144
-172
-190
-201
-209
-212
-212
-207
-202
-198
-194
-187
-180
-174
-169
-165
-163
-161
-160
-159
-156
-152
-150
-149
-150
-150
-149
-146
-145
-147
-148
-144
-139
-140
-143
-141
-129
-107
-85
-70
-67
-79
-99
-113
-116
-115
-113
-110
-114
-114
-96
-74
-91
-165
-147
271
1101
1729
1481
507
-332
-476
-187
-5
-48
-96
-65
-39
-35
-17
6
23
46
74
101
131
163
195
227
260
286
303
309
308
298
276
238
183
118
51
-16
-78
-129
-166
-191
-208
-218
-222
-221
-218
-214
-209
-200
-191
-184
-177
-169
-162
-156
-151
-146
-142
-138
-135
-133
-131
-129
-128
-128
-126
-125
-124
-124
-123
-118
-116
-120
-125
-120
-101
-74
-52
-42
-48
-66
-87
-98
-102
-104
-100
-98
-104
-99
-72
-57
-102
-181
-72
501
1382
1856
1398
383
-324
-356
-90
8
-65
-96
-60
-43
-40
-19
3
21
43
67
91
120
151
180
211
240
263
278
284
282
271
250
213
160
95
27
-39
-97
-146
-181
-204
-218
-225
-227
-225
-221
-215
-208
-201
-194
-187
-181
-174
-168
-163
-159
-154
-149
-144
-140
-138
-136
-134
-132
-131
-130
-130
-127
-122
-120
-123
-128
-125
-106
-80
-58
-50
-53
-67
-86
-97
-99
-99
-99
-96
-101
-102
-82
-59
-85
-168
-142
300
1163
1821
1598
632
-230
-416
-165
-3
-55
-108
-80
-55
-51
-34
-11
5
27
52
76
104
135
163
191
220
245
261
268
267
259
242
211
166
110
45
-20
-80
-130
-166
-190
-207
-217
-221
-218
-213
-208
-202
-195
-187
-180
-174
-169
-162
-155
-150
-147
-143
-139
-136
-135
-133
-130
-128
-126
-125
-122
-120
-121
-124
-122
-109
-86
-63
-50
-47
-55
-70
-87
-98
-103
-105
-100
-97
-101
-94
-70
-65
-117
-172
23
700
1552
1808
1122
87
-453
-337
-64
-19
-97
-102
-62
-51
-45
-24
-4
16
41
63
85
116
148
175
200
222
239
247
246
239
226
205
173
131
77
17
-40
-91
-134
-166
-186
-197
-204
-209
-208
-202
-196
-191
-185
-177
-169
-164
-162
-159
-154
-149
-145
-143
-142
-140
-139
-138
-137
-135
-131
-131
-134
-130
-115
-93
-73
-64
-67
-82
-101
-112
-115
-116
-115
-114
-116
-113
-93
-74
-95
-153
-62
469
1324
1790
1307
245
-485
-484
-160
-19
-77
-106
-68
-48
-39
-15
6
21
45
73
101
130
160
190
220
245
261
269
268
258
240
213
176
130
77
20
-39
-94
-139
-170
-191
-205
-214
-216
-213
-209
-204
-199
-192
-185
-179
-172
-165
-159
-153
-148
-146
-144
-140
-138
-139
-138
-135
-133
-136
-138
-135
-127
-118
-104
-85
-76
-88
-108
-118
-119
-117
-113
-113
-117
-108
-82
-73
-122
-179
13
692
1562
1846
1172
120
-448
-346
-71
-19
-97
-105
-67
-57
-50
-26
-6
13
39
64
90
120
153
184
215
241
259
268
269
261
244
214
169
111
45
-22
-83
-135
-173
-200
-217
-227
-231
-229
-225
-219
-213
-204
-195
-187
-180
-172
-165
-159
-154
-150
-149
-148
-144
-139
-140
-146
-149
-146
-138
-127
-110
-92
-83
-94
-113
-122
-122
-122
-119
-117
-123
-118
-91
-76
-126
-210
-95
510
1443
1951
1483
427
-322
-375
-116
-21
-97
-130
-95
-77
-74
-53
-32
-13
12
37
61
90
121
152
181
207
226
237
241
237
225
200
162
110
47
-18
-79
-130
-170
-199
-217
-225
-228
-227
-223
-216
-208
-198
-190
-182
-174
-167
-161
-156
-152
-147
-142
-139
-137
-135
-133
-132
-129
-125
-124
-129
-132
-128
-118
-104
-84
-65
-58
-70
-90
-99
-98
-98
-97
-95
-100
-99
-75
-54
-91
-176
-106
427
1337
1918
1550
519
-283
-385
-124
-3
-73
-114
-81
-62
-60
-41
-18
-1
21
45
69
97
125
153
181
206
225
236
240
236
227
210
180
134
77
15
-46
-100
-144
-178
-200
-213
-218
-218
-215
-208
-200
-192
-185
-178
-171
-164
-158
-153
-148
-144
-140
-139
-137
-136
-134
-132
-130
-129
-129
-126
-120
-120
-125
-129
-125
-115
-99
-78
-60
-57
-72
-90
-96
-93
-94
-93
-92
-97
-95
-70
-51
-88
-171
-92
448
1339
1868
1457
433
-322
-382
-110
5
-66
-103
-68
-49
-46
-28
-8
9
34
60
83
110
138
164
188
210
226
235
236
228
216
199
173
134
83
25
-32
-83
-124
-158
-182
-196
-201
-201
-201
-196
-189
-182
-176
-170
-163
-156
-151
-147
-144
-141
-138
-136
-133
-131
-131
-131
-129
-126
-125
-127
-128
-125
-121
-123
-127
-125
-118
-108
-95
-77
-61
-62
-80
-96
-99
-98
-98
-97
-97
-97
-83
-60
-64
-123
-133
200
983
1700
1612
698
-235
-499
-236
-9
-29
-90
-65
-32
-28
-14
10
24
44
73
99
122
146
172
200
224
240
247
249
242
229
211
187
153
109
56
-1
-54
-99
-137
-168
-190
-202
-206
-207
-208
-205
-199
-192
-185
-179
-173
-168
-165
-162
-158
-155
-154
-154
-153
-152
-152
-150
-146
-145
-149
-151
-147
-140
-131
-118
-100
-88
-94
-112
-123
-124
-123
-120
-118
-121
-118
-96
-75
-97
-163
-91
418
1283
1808
1394
353
-410
-452
-146
-6
-67
-101
-63
-42
-39
-19
4
22
46
74
102
132
162
191
220
245
262
270
268
258
240
214
175
125
68
8
-51
-103
-145
-174
-193
-206
-212
-213
-209
-204
-198
-191
-183
-174
-166
-160
-155
-150
-143
-138
-135
-135
-136
-135
-132
-129
-131
-138
-141
-136
-128
-118
-101
-82
-76
-91
-112
-120
-117
-115
-112
-112
-119
-113
-87
-73
-120
-198
-74
541
1462
1928
1418
358
-355
-371
-105
-18
-95
-122
-87
-72
-67
-45
-22
-5
19
44
70
99
128
156
186
210
226
234
235
229
216
191
152
100
41
-21
-80
-130
-170
-197
-214
-223
-226
-225
-220
-213
-205
-196
-187
-178
-170
-163
-156
-151
-147
-142
-139
-136
-134
-133
-132
-131
-130
-128
-122
-118
-122
-128
-128
-121
-109
-90
-68
-55
-63
-84
-96
-95
-95
-96
-93
-96
-99
-81
-56
-72
-152
-164
203
1042
1806
1743
833
-117
-421
-203
-7
-40
-108
-88
-58
-55
-41
-18
-1
19
45
69
95
124
151
179
205
225
238
241
237
228
212
184
142
89
30
-30
-86
-134
-170
-193
-207
-214
-217
-215
-209
-201
-193
-185
-177
-169
-163
-158
-152
-146
-141
-139
-137
-135
-132
-131
-131
-130
-129
-128
-125
-121
-122
-128
-131
-127
-117
-100
-80
-63
-62
-78
-96
-101
-100
-101
-99
-100
-105
-98
-72
-60
-111
-189
-48
586
1483
1875
1303
257
-384
-344
-73
-4
-86
-106
-68
-54
-47
-26
-7
10
33
58
82
109
138
166
192
213
228
236
236
228
215
193
159
114
59
0
-57
-108
-149
-179
-198
-206
-207
-206
-203
-199
-192
-182
-173
-165
-159
-153
-147
-141
-134
-129
-125
-123
-123
-123
-122
-120
-121
-120
-120
-119
-115
-110
-110
-117
-121
-115
-103
-90
-73
-56
-53
-68
-87
-95
-95
-95
-91
-88
-94
-92
-72
-60
-103
-166
-12
614
1467
1791
1175
142
-446
-359
-71
-2
-80
-96
-56
-42
-36
-13
8
27
52
76
99
125
151
177
202
220
229
231
229
222
210
190
162
123
76
25
-26
-75
-119
-153
-177
-190
-196
-198
-197
-193
-187
-179
-173
-169
-165
-159
-153
-152
-151
-147
-142
-140
-140
-140
-140
-140
-137
-133
-136
-142
-142
-135
-126
-118
-105
-88
-82
-93
-109
-116
-118
-119
-116
-115
-119
-112
-90
-79
-118
-153
77
774
1569
1687
890
-135
-569
-362
-68
-28
-95
-87
-48
-40
-28
-1
19
38
63
87
114
146
176
204
231
251
259
256
246
230
208
178
136
86
31
-23
-74
-118
-155
-183
-201
-209
-211
-211
-210
-207
-201
-193
-183
-174
-166
-160
-154
-146
-141
-138
-136
-135
-134
-131
-128
-127
-130
-134
-134
-129
-121
-109
-91
-76
-79
-98
-114
-117
-116
-111
-108
-113
-113
-92
-69
-91
-164
-120
344
1213
1850
1583
588
-267
-429
-164
-5
-60
-112
-83
-58
-56
-38
-13
5
28
54
79
106
136
167
197
224
241
249
250
244
230
204
164
114
54
-9
-69
-121
-164
-195
-215
-225
-228
-227
-224
-219
-212
-203
-193
-185
-178
-171
-165
-159
-153
-148
-145
-142
-140
-139
-137
-133
-132
-136
-141
-139
-131
-121
-106
-85
-70
-76
-97
-110
-111
-110
-107
-104
-110
-113
-93
-67
-89
-174
-168
249
1122
1856
1722
775
-153
-419
-195
-18
-61
-123
-101
-72
-68
-52
-30
-12
10
36
61
87
117
146
174
200
220
232
236
232
220
201
168
122
64
1
-59
-113
-157
-188
-208
-221
-226
-226
-223
-217
-207
-198
-190
-183
-175
-168
-162
-156
-150
-146
-142
-140
-137
-136
-133
-130
-128
-126
-122
-120
-123
-129
-128
-120
-106
-87
-66
-55
-63
-82
-95
-96
-95
-93
-92
-97
-98
-77
-54
-81
-166
-139
312
1191
1858
1627
648
-218
-400
-150
3
-55
-109
-82
-58
-55
-37
-14
3
24
51
77
102
129
155
182
206
223
232
234
229
218
199
168
125
73
15
-43
-96
-140
-173
-195
-208
-213
-213
-211
-207
-201
-192
-182
-174
-169
-165
-159
-152
-147
-142
-137
-134
-132
-132
-131
-128
-127
-125
-121
-116
-116
-122
-124
-120
-111
-96
-75
-58
-58
-75
-93
-97
-95
-93
-90
-92
-95
-83
-62
-70
-137
-151
190
994
1741
1681
779
-166
-462
-228
-14
-37
-103
-83
-52
-49
-36
-12
6
26
50
73
100
130
155
177
196
212
222
222
214
201
184
160
126
85
36
-18
-72
-118
-152
-176
-192
-203
-208
-208
-203
-194
-187
-181
-176
-169
-162
-158
-155
-152
-148
-145
-142
-142
-142
-142
-142
-142
-139
-136
-136
-140
-142
-136
-127
-116
-101
-83
-79
-93
-111
-117
-117
-115
-113
-115
-116
-104
-81
-81
-136
-158
131
875
1626
1635
784
-180
-519
-286
-35
-30
-93
-75
-42
-38
-26
1
21
41
66
91
118
149
179
207
230
246
254
255
248
235
214
185
145
96
43
-11
-62
-106
-140
-163
-178
-186
-189
-188
-184
-178
-170
-161
-154
-147
-141
-134
-127
-122
-119
-117
-115
-114
-111
-110
-111
-109
-107
-111
-118
-121
-116
-107
-93
-75
-60
-61
-79
-97
-101
-101
-101
-98
-102
-108
-95
-70
-77
-148
-183
114
896
1707
1772
942
-49
-444
-260
-34
-43
-119
-110
-77
-72
-61
-39
-21
-2
23
48
72
99
126
154
179
198
207
208
204
193
175
145
102
48
-11
-71
-126
-172
-207
-231
-245
-251
-252
-251
-247
-240
-231
-224
-216
-207
-200
-195
-189
-183
-177
-173
-169
-167
-165
-162
-161
-159
-153
-149
-151
-155
-153
-144
-130
-111
-90
-78
-86
-106
-117
-116
-114
-111
-108
-113
-110
-86
-66
-100
-179
-107
417
1312
1884
1522
503
-290
-388
-122
5
-62
-103
-68
-47
-43
-23
0
19
43
70
95
123
152
181
208
232
248
257
258
252
241
221
189
145
91
33
-22
-72
-112
-141
-159
-169
-172
-171
-168
-163
-155
-144
-134
-126
-119
-112
-105
-100
-95
-89
-85
-83
-81
-80
-79
-77
-73
-69
-72
-78
-79
-71
-58
-42
-23
-8
-11
-30
-46
-51
-52
-53
-52
-56
-60
-44
-19
-31
-108
-135
194
1004
1792
1792
918
-57
-408
-208
3
-17
-90
-79
-52
-52
-41
-20
-6
9
29
49
73
100
122
142
159
171
175
171
162
148
128
97
56
8
-46
-103
-157
-203
-239
-265
-283
-294
-298
-296
-291
-288
-285
-282
-276
-268
-260
-255
-254
-253
-251
-248
-247
-248
-248
-247
-243
-239
-236
-238
-240
-238
-231
-221
-209
-190
-172
-169
-184
-197
-201
-200
-194
-187
-188
-186
-166
-140
-153
-217
-179
264
1112
1731
1453
458
-379
-507
-211
-32
-76
-117
-78
-46
-37
-14
13
34
60
89
115
144
175
205
234
256
269
274
272
262
246
226
199
