# session 28
-8
-88
-104
-77
-57
-44
-23
0
21
45
72
100
129
159
189
217
239
254
260
261
256
242
218
182
135
80
22
-34
-83
-120
-146
-162
-170
-172
-169
-163
-156
-148
-139
-131
-124
-119
-113
-108
-104
-100
-98
-95
-93
-91
-91
-91
-91
-90
-89
-88
-86
-84
-83
-82
-81
-80
-78
-77
-75
-71
-69
-75
-83
-79
-57
-29
-10
-7
-14
-27
-44
-58
-61
-61
-63
-62
-63
-71
-65
-37
-32
-94
-160
8
634
1472
1806
1234
231
-379
-338
-69
10
-61
-79
-42
-27
-21
2
23
40
64
88
112
139
166
191
214
233
243
248
246
236
221
199
168
125
75
22
-30
-77
-116
-145
-165
-175
-179
-179
-176
-170
-163
-156
-151
-146
-139
-133
-128
-123
-119
-118
-117
-117
-115
-113
-111
-111
-111
-111
-112
-113
-113
-109
-105
-103
-104
-104
-103
-101
-99
-98
-97
-96
-95
-93
-93
-92
-89
-87
-89
-90
-86
-79
-77
-83
-91
-88
-70
-47
-28
-20
-23
-38
-58
-70
-71
-74
-80
-79
-76
-77
-66
-43
-48
-107
-137
115
816
1594
1714
952
-41
-485
-315
-46
-12
-81
-77
-38
-28
-17
8
26
43
68
94
120
146
171
195
217
232
237
236
228
216
200
179
153
118
77
34
-10
-55
-99
-133
-155
-168
-175
-177
-179
-181
-179
-172
-164
-161
-158
-150
-140
-134
-135
-137
-135
-131
-131
-134
-136
-134
-132
-133
-136
-136
-133
-130
-129
-130
-130
-127
-119
-113
-112
-115
-115
-108
-95
-77
-58
-45
-43
-54
-71
-81
-82
-84
-86
-83
-84
-86
-72
-49
-57
-122
-126
223
1014
1711
1582
635
-301
-547
-260
-14
-21
-74
-44
-9
-6
8
32
51
74
102
130
160
192
223
254
280
295
300
295
281
260
232
194
147
93
34
-24
-75
-118
-151
-174
-187
-196
-201
-203
-202
-199
-195
-189
-182
-175
-168
-161
-154
-147
-145
-143
-139
-135
-134
-134
-134
-132
-132
-134
-136
-136
-134
-134
-134
-132
-131
-130
-127
-120
-118
-124
-125
-112
-90
-70
-57
-53
-58
-72
-87
-93
-93
-88
-86
-94
-96
-74
-47
-67
-149
-144
252
1088
1792
1641
684
-247
-496
-233
-14
-35
-92
-67
-34
-29
-12
12
30
53
81
107
136
170
204
236
266
288
299
299
291
272
243
202
152
94
33
-30
-86
-132
-164
-185
-200
-209
-212
-210
-206
-201
-195
-187
-181
-176
-172
-166
-158
-150
-146
-144
-141
-136
-132
-130
-130
-130
-131
-131
-130
-129
-128
-129
-130
-128
-122
-120
-124
-129
-123
-104
-80
-60
-52
-56
-72
-90
-99
-100
-101
-97
-96
-104
-96
-67
-62
-124
-189
-10
645
1524
1886
1305
261
-392
-367
-95
-11
-84
-104
-64
-48
-41
-18
4
24
50
78
105
136
168
200
231
256
273
281
282
273
253
220
175
120
58
-7
-67
-119
-158
-185
-203
-212
-215
-214
-211
-205
-199
-194
-189
-182
-175
-169
-164
-159
-154
-148
-142
-138
-136
-135
-134
-132
-129
-128
-127
-126
-124
-123
-122
-120
-116
-114
-116
-121
-120
-108
-85
-62
-48
-45
-56
-75
-89
-94
-95
-94
-90
-94
-100
-82
-55
-74
-156
-168
171
964
1733
1749
909
-61
-443
-260
-32
-31
-101
-89
-54
-48
-36
-10
10
31
58
84
111
142
174
203
231
253
267
273
271
260
239
205
159
104
44
-18
-76
-124
-159
-184
-198
-206
-208
-206
-202
-195
-187
-179
-173
-167
-161
-155
-150
-145
-141
-137
-134
-133
-131
-128
-127
-127
-126
-125
-123
-122
-120
-120
-119
-116
-111
-111
-117
-122
-115
-94
-67
-48
-42
-49
-67
-85
-94
-95
-96
-93
-92
-100
-94
-67
-58
-113
-183
-38
568
1425
1814
1280
260
-395
-380
-103
-11
-81
-104
-65
-47
-41
-19
3
21
46
72
98
127
156
183
210
233
249
255
255
248
231
204
166
118
63
4
-53
-104
-144
-172
-191
-201
-204
-204
-200
-194
-186
-179
-171
-165
-160
-155
-148
-141
-137
-134
-132
-130
-129
-127
-127
-128
-127
-126
-125
-124
-122
-119
-119
-124
-125
-115
-94
-71
-54
-49
-57
-76
-94
-103
-105
-104
-101
-104
-111
-99
-73
-72
-129
-165
72
766
1571
1743
1017
11
-473
-331
-65
-27
-100
-100
-62
-52
-42
-18
1
20
46
71
97
127
156
183
208
226
237
240
236
226
208
180
141
94
41
-14
-68
-114
-149
-174
-190
-198
-200
-198
-193
-187
-179
-171
-164
-158
-151
-145
-138
-132
-128
-126
-125
-125
-124
-124
-124
-123
-122
-121
-122
-120
-115
-113
-117
-121
-115
-97
-74
-54
-43
-46
-65
-86
-97
-100
-101
-98
-98
-103
-98
-75
-66
-109
-161
1
614
1443
1761
1161
140
-457
-384
-95
-14
-84
-98
-59
-46
-41
-18
3
22
47
72
96
123
149
174
197
215
224
226
220
208
191
166
133
93
46
-4
-55
-102
-137
-162
-179
-190
-195
-195
-191
-184
-177
-171
-164
-157
-150
-144
-139
-134
-131
-130
-129
-129
-128
-128
-128
-126
-125
-128
-131
-126
-112
-95
-76
-61
-59
-78
-102
-114
-116
-115
-114
-117
-123
-113
-87
-80
-129
-175
35
710
1534
1756
1055
27
-500
-372
-89
-34
-106
-111
-72
-61
-53
-29
-10
8
32
56
80
105
129
151
171
184
187
183
173
159
140
116
85
49
8
-34
-77
-117
-150
-173
-187
-195
-196
-194
-191
-184
-177
-170
-163
-155
-147
-140
-134
-131
-128
-126
-123
-119
-121
-126
-128
-124
-118
-110
-96
-75
-66
-80
-103
-115
-116
-113
-109
-112
-118
-104
-77
-82
-154
-196
74
821
1627
1726
929
-68
-489
-309
-57
-41
-113
-107
-70
-62
-50
-26
-7
12
39
64
89
117
144
167
187
198
201
196
186
172
152
123
86
43
-2
-50
-95
-133
-161
-180
-191
-196
-197
-194
-188
-181
-174
-165
-156
-149
-142
-137
-131
-125
-121
-123
-129
-130
-126
-120
-112
-97
-77
-70
-85
-107
-120
-123
-122
-118
-122
-128
-113
-84
-98
-187
-236
53
823
1610
1661
849
-104
-471
-279
-50
-52
-122
-110
-77
-72
-59
-34
-15
5
31
55
79
105
128
148
163
171
171
164
153
138
118
91
59
22
-19
-62
-103
-136
-162
-178
-186
-188
-187
-183
-175
-168
-161
-153
-144
-136
-130
-125
-120
-114
-113
-118
-121
-118
-112
-105
-92
-72
-58
-67
-91
-109
-114
-115
-112
-112
-121
-116
-87
-78
-145
-244
-121
493
1370
1757
1207
195
-421
-374
-101
-25
-99
-118
-82
-68
-62
-40
-20
-2
23
47
69
94
117
137
152
160
161
156
145
131
114
93
65
32
-7
-47
-86
-122
-151
-169
-179
-183
-184
-180
-173
-166
-159
-151
-143
-136
-129
-124
-121
-118
-114
-112
-116
-123
-123
-118
-112
-103
-87
-68
-65
-84
-105
-113
-115
-114
-111
-116
-120
-102
-76
-97
-190
-216
137
960
1709
1642
745
-182
-468
-238
-33
-58
-119
-98
-67
-65
-51
-24
-4
17
41
65
90
114
135
152
163
165
162
156
146
130
110
86
58
25
-13
-55
-94
-124
-147
-162
-170
-171
-167
-163
-158
-153
-146
-139
-131
-124
-118
-115
-114
-113
-110
-109
-112
-120
-124
-121
-114
-111
-106
-91
-73
-71
-91
-113
-123
-124
-121
-118
-125
-127
-106
-82
-106
-186
-166
247
1070
1712
1499
544
-318
-500
-223
-30
-68
-122
-90
-58
-56
-41
-16
4
26
50
71
94
117
138
154
164
162
154
143
130
115
99
79
53
22
-10
-45
-82
-118
-145
-162
-171
-175
-175
-174
-171
-166
-160
-152
-146
-142
-139
-135
-131
-130
-131
-129
-126
-128
-133
-134
-128
-120
-114
-104
-91
-81
-89
-107
-119
-121
-117
-114
-116
-119
-106
-79
-76
-132
-171
83
816
1628
1732
908
-131
-564
-357
-72
-38
-101
-86
-45
-39
-31
-6
16
39
66
91
113
138
164
186
199
201
195
183
165
146
127
102
72
40
5
-35
-76
-113
-142
-161
-171
-176
-178
-178
-175
-167
-159
-154
-152
-147
-138
-129
-126
-127
-128
-127
-126
-126
-127
-132
-134
-130
-122
-117
-113
-103
-89
-88
-103
-119
-126
-126
-121
-117
-120
-120
-102
-83
-101
-156
-77
425
1280
1812
1409
358
-438
-504
-190
-29
-82
-117
-77
-52
-47
-25
0
21
46
72
97
125
154
177
196
209
213
206
192
173
153
128
96
60
19
-27
-74
-113
-144
-167
-182
-190
-193
-193
-191
-185
-177
-169
-162
-157
-152
-146
-140
-136
-134
-135
-136
-136
-134
-135
-141
-147
-144
-136
-132
-129
-117
-100
-93
-107
-125
-132
-131
-129
-126
-129
-128
-110
-86
-94
-153
-160
171
971
1760
1767
878
-136
-514
-299
-54
-55
-124
-108
-72
-66
-52
-26
-5
18
47
74
102
133
162
188
207
216
217
213
203
185
159
126
84
36
-16
-66
-111
-147
-172
-190
-201
-206
-206
-201
-193
-184
-177
-169
-162
-154
-149
-145
-142
-138
-133
-131
-132
-133
-134
-134
-130
-127
-129
-135
-137
-133
-124
-111
-94
-76
-70
-81
-99
-105
-105
-105
-101
-99
-106
-102
-72
-56
-104
-180
-63
524
1434
1950
1516
476
-296
-376
-116
-2
-71
-108
-73
-51
-44
-23
0
20
47
74
98
127
159
188
212
231
242
246
242
231
213
187
148
100
46
-10
-63
-108
-141
-163
-176
-182
-182
-179
-172
-164
-156
-150
-143
-137
-131
-126
-122
-119
-117
-114
-111
-110
-108
-108
-109
-108
-106
-104
-103
-103
-103
-102
-101
-101
-100
-99
-97
-95
-93
-92
-91
-90
-89
-88
-86
-85
-84
-83
-82
-80
-79
-78
-76
-74
-72
-69
-67
-69
-76
-79
-68
-45
-20
-6
-7
-16
-30
-44
-50
-52
-54
-53
-52
-60
-56
-30
-23
-76
-139
-8
549
1396
1889
1504
529
-230
-345
-111
6
-56
-97
-67
-46
-42
-23
0
17
38
61
82
107
134
159
182
202
216
223
224
220
210
196
174
144
106
60
10
-40
-84
-119
-145
-161
-170
-172
-170
-165
-161
-155
-150
-145
-140
-134
-129
-124
-122
-121
-121
-120
-119
-120
-119
-118
-119
-120
-120
-118
-118
-118
-118
-116
-114
-112
-111
-111
-111
-109
-107
-106
-104
-102
-101
-100
-100
-99
-97
-96
-94
-91
-87
-86
-92
-98
-94
-73
-46
-26
-20
-25
-37
-52
-65
-67
-66
-69
-68
-68
-74
-67
-40
-33
-84
-143
3
581
1405
1803
1318
334
-333
-350
-87
13
-53
-80
-44
-27
-22
0
22
39
61
86
109
135
160
183
207
226
236
239
235
225
209
188
161
126
84
37
-11
-56
-95
-127
-149
-163
-169
-170
-168
-163
-156
-149
-143
-136
-131
-126
-121
-115
-111
-109
-107
-107
-106
-105
-105
-105
-104
-104
-104
-104
-102
-102
-102
-102
-100
-99
-97
-97
-95
-94
-92
-92
-91
-90
-90
-89
-88
-86
-84
-83
-83
-82
-80
-76
-75
-80
-86
-81
-61
-34
-15
-10
-16
-31
-49
-60
-62
-63
-63
-62
-67
-70
-51
-30
-52
-119
-98
273
1043
1700
1582
707
-172
-432
-203
2
-17
-76
-58
-30
-26
-9
18
34
52
76
100
124
150
175
199
219
230
233
232
224
210
190
164
134
96
53
7
-38
-78
-114
-142
-161
-173
-180
-181
-177
-171
-165
-161
-157
-149
-141
-137
-134
-130
-126
-123
-123
-123
-123
-122
-122
-123
-124
-124
-124
-124
-124
-124
-123
-123
-122
-120
-119
-119
-118
-116
-112
-108
-105
-107
-114
-116
-108
-88
-65
-47
-39
-43
-60
-78
-86
-86
-84
-81
-84
-91
-79
-51
-51
-112
-148
100
800
1568
1669
895
-90
-513
-324
-45
-6
-73
-67
-29
-20
-10
17
36
52
75
100
127
156
183
208
230
246
252
249
240
224
202
174
140
100
55
8
-37
-79
-115
-142
-160
-170
-174
-175
-173
-170
-165
-159
-151
-144
-138
-131
-125
-121
-118
-114
-111
-109
-107
-107
-109
-109
-107
-106
-107
-109
-111
-111
-109
-108
-106
-103
-100
-101
-107
-110
-101
-79
-54
-37
-32
-41
-60
-77
-83
-85
-85
-82
-86
-91
-77
-52
-61
-127
-148
154
901
1637
1632
788
-160
-495
-269
-23
-21
-90
-76
-40
-35
-24
0
18
37
62
87
113
142
169
193
215
232
240
239
231
215
191
159
119
73
21
-32
-81
-124
-159
-184
-199
-207
-210
-211
-208
-202
-193
-185
-179
-172
-165
-159
-152
-147
-144
-140
-137
-135
-134
-134
-136
-136
-136
-136
-135
-134
-134
-134
-131
-130
-132
-137
-139
-130
-108
-83
-65
-59
-68
-89
-107
-113
-114
-112
-110
-114
-118
-100
-75
-87
-155
-158
189
976
1689
1608
711
-217
-500
-256
-31
-45
-107
-85
-51
-46
-32
-6
13
35
63
90
117
146
173
200
224
240
248
248
241
227
206
177
140
95
46
-4
-52
-94
-126
-147
-160
-167
-169
-167
-162
-154
-146
-135
-125
-118
-111
-104
-97
-91
-86
-83
-82
-81
-79
-77
-77
-77
-77
-77
-76
-75
-72
-69
-71
-76
-78
-69
-48
-24
-5
0
-10
-32
-51
-58
-61
-60
-58
-63
-66
-49
-28
-45
-114
-93
308
1126
1779
1582
626
-255
-458
-190
4
-33
-89
-64
-38
-37
-22
1
17
37
61
84
108
134
158
182
201
212
215
210
198
181
158
125
83
36
-15
-68
-119
-162
-196
-220
-235
-243
-246
-247
-244
-239
-233
-227
-221
-216
-211
-207
-204
-201
-199
-199
-200
-202
-202
-203
-204
-204
-205
-206
-207
-206
-203
-204
-209
-213
-207
-187
-162
-140
-130
-136
-155
-174
-181
-181
-181
-177
-177
-180
-168
-140
-133
-181
-219
6
698
1519
1715
995
-24
-518
-368
-86
-37
-104
-98
-54
-41
-27
6
34
60
92
122
153
188
224
256
284
306
322
330
331
326
317
303
281
252
215
177
140
106
80
64
58
59
