# session 4
-41
-44
-41
-39
-42
-47
-47
-41
-31
-15
3
12
4
-17
-29
-27
-24
-25
-26
-31
-35
-23
4
5
-63
-126
118
889
1773
1939
1138
86
-380
-219
18
14
-69
-62
-27
-23
-14
10
30
51
74
95
122
156
190
217
239
255
266
270
266
257
242
217
180
132
75
12
-50
-99
-135
-160
-180
-193
-199
-200
-199
-197
-192
-187
-180
-172
-163
-159
-159
-157
-156
-161
-173
-184
-183
-175
-169
-167
-166
-163
-159
-156
-154
-156
-157
-154
-147
-143
-142
-140
-136
-131
-129
-130
-130
-122
-103
-80
-61
-55
-65
-83
-97
-100
-100
-99
-96
-96
-97
-87
-68
-60
-106
-168
18
713
1585
1810
1053
-15
-514
-339
-50
-14
-87
-77
-35
-28
-18
10
30
49
78
109
140
174
208
241
274
298
312
315
312
303
284
252
208
154
92
29
-29
-78
-118
-147
-168
-181
-188
-189
-189
-185
-179
-173
-167
-162
-160
-162
-167
-168
-167
-173
-186
-194
-191
-185
-186
-190
-188
-182
-178
-175
-170
-165
-164
-165
-164
-165
-163
-149
-123
-96
-81
-81
-89
-100
-107
-107
-104
-102
-98
-99
-101
-89
-62
-55
-119
-186
55
830
1714
1861
1034
-19
-461
-270
-20
-21
-97
-85
-49
-44
-30
-3
17
39
67
95
127
164
202
240
278
309
330
342
343
331
306
263
203
131
55
-17
-79
-129
-165
-189
-204
-212
-216
-214
-210
-204
-199
-194
-187
-179
-172
-165
-158
-153
-150
-149
-148
-145
-143
-142
-142
-142
-141
-141
-140
-140
-139
-138
-136
-134
-130
-127
-130
-137
-137
-121
-95
-72
-61
-63
-77
-94
-103
-105
-105
-103
-100
-105
-106
-84
-59
-87
-183
-177
264
1166
1888
1704
727
-174
-395
-160
-5
-61
-117
-89
-64
-60
-41
-15
4
28
56
85
117
153
190
229
267
297
317
328
330
320
295
248
182
107
31
-41
-102
-149
-181
-201
-213
-220
-221
-218
-213
-207
-203
-198
-193
-186
-179
-174
-169
-164
-159
-156
-155
-153
-152
-150
-148
-146
-144
-142
-141
-140
-138
-135
-133
-131
-128
-125
-127
-133
-135
-123
-98
-71
-56
-55
-65
-81
-93
-97
-99
-99
-94
-95
-102
-92
-62
-59
-130
-201
16
745
1628
1868
1159
130
-389
-277
-37
-17
-97
-99
-61
-52
-41
-15
5
26
53
80
109
144
180
216
254
287
312
326
331
325
309
275
219
148
70
-5
-70
-125
-165
-191
-207
-214
-217
-216
-214
-210
-205
-197
-190
-183
-177
-171
-165
-161
-158
-155
-152
-150
-149
-149
-147
-146
-145
-145
-144
-142
-142
-141
-138
-132
-129
-133
-138
-138
-123
-98
-74
-61
-63
-78
-97
-106
-105
-105
-104
-102
-106
-110
-93
-65
-74
-155
-190
141
963
1749
1726
840
-113
-427
-211
-12
-43
-112
-91
-59
-54
-38
-13
6
29
57
85
117
152
188
225
261
292
313
323
324
316
296
256
196
123
48
-23
-86
-136
-172
-195
-209
-216
-218
-216
-212
-206
-199
-192
-184
-178
-172
-166
-160
-155
-151
-148
-147
-145
-145
-145
-144
-142
-141
-141
-141
-137
-132
-133
-139
-143
-139
-128
-111
-91
-76
-76
-93
-109
-111
-109
-108
-105
-107
-111
-100
-73
-71
-139
-192
80
862
1703
1796
966
-44
-448
-258
-29
-38
-113
-100
-66
-61
-49
-23
-3
18
47
75
106
140
175
211
247
277
297
307
308
300
279
241
183
112
36
-35
-96
-146
-183
-206
-219
-226
-228
-227
-223
-219
-213
-205
-198
-190
-183
-178
-173
-168
-164
-162
-161
-160
-159
-158
-158
-159
-157
-153
-152
-156
-159
-156
-147
-134
-115
-96
-88
-100
-118
-126
-124
-122
-117
-117
-122
-115
-89
-76
-128
-208
-44
640
1554
1879
1215
151
-428
-330
-64
-24
-107
-113
-75
-66
-57
-31
-8
12
39
66
95
131
167
202
236
265
286
297
298
289
268
235
185
122
53
-15
-76
-125
-160
-184
-199
-206
-207
-205
-201
-197
-190
-181
-172
-166
-162
-154
-146
-139
-135
-134
-134
-133
-129
-126
-124
-127
-132
-131
-124
-115
-106
-90
-70
-62
-76
-96
-103
-102
-98
-94
-95
-96
-81
-56
-66
-144
-171
178
1016
1784
1706
771
-178
-449
-203
-5
-44
-107
-82
-50
-47
-31
-6
13
35
61
86
115
148
181
211
238
254
258
251
239
221
193
148
86
10
-72
-153
-225
-285
-330
-359
-377
-392
-401
-396
-374
-341
-308
-280
-258
-237
-218
-200
-183
-171
-163
-157
-149
-138
-132
-132
-132
-126
-117
-109
-97
-77
-55
-50
-66
-85
-92
-91
-84
-79
-84
-84
-62
-39
-70
-162
-120
384
1280
1848
1464
434
-333
-389
-103
18
-52
-86
-48
-29
-26
-5
16
33
58
85
113
147
182
215
246
273
291
297
295
285
266
232
181
120
54
-11
-69
-116
-152
-178
-194
-202
-204
-203
-201
-197
-192
-186
-180
-174
-168
-161
-155
-152
-150
-147
-144
-142
-145
-152
-154
-151
-147
-140
-127
-107
-94
-102
-124
-138
-141
-141
-138
-136
-142
-136
-109
-92
-145
-252
-169
430
1381
1898
1420
365
-353
-373
-114
-37
-118
-142
-104
-90
-85
-61
-38
-18
10
40
70
104
139
174
208
238
257
266
268
260
240
204
152
88
19
-47
-105
-152
-186
-207
-219
-224
-224
-221
-216
-210
-203
-196
-188
-182
-175
-169
-163
-158
-154
-152
-151
-151
-149
-147
-150
-157
-163
-163
-157
-148
-131
-112
-107
-124
-148
-157
-154
-146
-137
-135
-137
-123
-91
-86
-161
-242
-15
759
1689
1928
1178
117
-401
-280
-47
-39
-120
-118
-83
-75
-62
-35
-14
8
36
65
96
131
166
201
234
262
280
288
288
278
257
218
160
91
20
-45
-102
-147
-179
-199
-209
-214
-214
-211
-205
-199
-193
-186
-177
-170
-164
-159
-153
-148
-144
-142
-142
-141
-140
-140
-139
-140
-140
-135
-132
-135
-139
-139
-132
-121
-103
-82
-70
-76
-93
-103
-103
-102
-98
-95
-100
-101
-79
-52
-75
-164
-141
334
1260
1954
1700
676
-212
-390
-138
3
-63
-114
-83
-59
-55
-35
-11
5
29
60
88
118
149
183
217
245
262
273
279
278
267
242
202
149
88
20
-45
-98
-138
-167
-187
-198
-202
-204
-203
-199
-193
-186
-179
-173
-168
-164
-159
-152
-148
-147
-147
-147
-146
-144
-142
-143
-144
-142
-139
-136
-137
-138
-136
-131
-126
-122
-119
-116
-114
-114
-112
-109
-104
-100
-101
-103
-97
-81
-62
-45
-35
-34
-41
-57
-72
-76
-76
-77
-75
-76
-81
-76
-52
-35
-78
-160
-14
655
1568
1889
1201
109
-470
-348
-59
-8
-82
-81
-42
-35
-24
3
22
41
69
98
127
161
197
231
264
292
311
321
321
313
297
270
227
167
98
29
-33
-87
-132
-166
-189
-204
-211
-211
-210
-210
-208
-201
-194
-187
-183
-175
-163
-154
-150
-148
-146
-143
-140
-137
-135
-136
-136
-132
-128
-125
-128
-131
-130
-126
-122
-118
-115
-113
-110
-105
-105
-109
-110
-101
-83
-62
-46
-37
-36
-45
-61
-75
-80
-80
-80
-79
-81
-89
-88
-68
-49
-82
-162
-68
508
1398
1827
1277
207
-462
-413
-105
-5
-73
-87
-46
-32
-26
-1
22
42
72
104
136
172
210
251
292
326
347
359
363
359
341
303
244
171
93
15
-57
-117
-159
-187
-207
-223
-231
-232
-229
-226
-222
-216
-209
-203
-199
-193
-184
-174
-169
-167
-165
-160
-154
-149
-145
-144
-144
-144
-143
-141
-139
-137
-137
-137
-136
-134
-133
-131
-129
-125
-119
-114
-113
-117
-119
-111
-95
-74
-56
-47
-48
-62
-79
-86
-84
-80
-77
-78
-86
-82
-58
-39
-75
-162
-83
482
1411
1945
1488
409
-359
-401
-114
1
-66
-92
-53
-36
-32
-9
16
38
65
95
127
166
206
246
288
329
363
386
397
395
379
341
279
198
110
28
-44
-104
-152
-186
-206
-215
-218
-220
-221
-220
-214
-206
-200
-196
-192
-187
-181
-175
-169
-162
-156
-152
-149
-147
-145
-142
-141
-141
-139
-138
-137
-134
-132
-131
-133
-133
-129
-125
-122
-120
-118
-114
-111
-109
-108
-107
-103
-97
-94
-100
-109
-111
-97
-74
-52
-39
-36
-42
-55
-66
-71
-72
-74
-71
-69
-76
-74
-48
-31
-76
-158
-65
493
1407
1983
1629
615
-198
-341
-112
3
-62
-104
-72
-52
-48
-26
-2
16
40
69
99
133
171
211
254
297
334
363
382
391
385
358
306
231
145
57
-24
-92
-144
-179
-202
-216
-222
-222
-220
-216
-211
-204
-197
-190
-185
-180
-176
-172
-168
-165
-161
-158
-155
-152
-150
-148
-146
-143
-140
-139
-138
-136
-133
-130
-128
-126
-124
-123
-121
-118
-115
-113
-110
-108
-105
-102
-99
-97
-95
-94
-92
-88
-85
-83
-83
-81
-76
-74
-79
-86
-84
-66
-41
-22
-14
-15
-24
-39
-52
-55
-54
-57
-58
-54
-58
-63
-43
-18
-42
-128
-129
257
1105
1883
1856
980
18
-345
-181
-2
-31
-99
-83
-53
-48
-33
-8
10
31
59
86
116
151
189
230
272
311
344
369
381
382
369
333
274
197
111
26
-48
-110
-158
-190
-208
-217
-220
-220
-218
-214
-208
-202
-195
-188
-183
-179
-175
-170
-166
-163
-160
-158
-155
-152
-149
-146
-143
-141
-139
-138
-137
-135
-132
-131
-129
-127
-125
-123
-121
-118
-114
-112
-109
-107
-105
-102
-99
-97
-95
-93
-91
-88
-86
-85
-83
-80
-78
-82
-90
-87
-67
-39
-19
-13
-16
-26
-41
-54
-58
-59
-60
-58
-59
-65
-58
-33
-27
-82
-151
9
650
1535
1916
1357
332
-311
-298
-53
7
-71
-89
-52
-40
-34
-11
10
28
53
81
109
143
179
216
256
296
330
357
375
380
372
346
299
230
148
63
-17
-86
-140
-179
-204
-218
-225
-229
-228
-224
-219
-214
-208
-203
-197
-191
-185
-181
-176
-172
-168
-164
-162
-160
-159
-157
-156
-154
-152
-151
-150
-148
-146
-144
-143
-141
-139
-138
-136
-134
-132
-129
-126
-124
-122
-120
-117
-115
-112
-108
-108
-112
-110
-93
-64
-36
-21
-17
-21
-32
-44
-50
-51
-51
-47
-47
-54
-48
-24
-17
-69
-141
-3
608
1482
1880
1339
315
-333
-313
-53
18
-60
-79
-42
-28
-24
-4
17
35
60
85
112
146
183
221
259
295
329
353
365
365
356
330
283
213
130
45
-31
-96
-148
-184
-207
-220
-227
-230
-231
-227
-220
-212
-206
-202
-196
-189
-182
-176
-170
-165
-159
-154
-152
-152
-151
-148
-146
-146
-145
-142
-139
-136
-137
-140
-140
-135
-130
-128
-128
-125
-120
-118
-123
-126
-116
-95
-71
-56
-52
-62
-81
-96
-102
-102
-98
-96
-102
-100
-79
-55
-72
-143
-110
342
1204
1816
1510
497
-332
-450
-163
-7
-65
-107
-72
-49
-48
-29
-4
14
37
66
95
127
163
201
242
282
315
338
352
356
348
323
277
212
135
57
-16
-81
-136
-176
-202
-215
-223
-227
-228
-226
-223
-218
-212
-206
-198
-192
-186
-179
-171
-163
-159
-157
-154
-152
-149
-146
-144
-142
-139
-139
-139
-139
-138
-136
-132
-129
-131
-134
-132
-117
-93
-70
-57
-57
-70
-88
-97
-98
-94
-89
-93
-97
-82
-53
-50
-111
-145
149
936
1738
1762
888
-103
-456
-235
-7
-24
-96
-81
-51
-50
-36
-11
6
24
49
77
108
144
179
216
255
290
318
336
346
342
322
283
222
145
65
-11
-78
-137
-184
-214
-229
-234
-237
-238
-234
-228
-223
-217
-210
-201
-192
-186
-183
-178
-173
-168
-165
-163
-161
-158
-156
-155
-155
-153
-151
-149
-145
-143
-144
-147
-145
-134
-113
-91
-75
-71
-82
-101
-114
-119
-119
-113
-111
-117
-110
-84
-71
-118
-184
-4
687
1585
1879
1191
122
-444
-333
-63
-24
-107
-112
-73
-64
-56
-31
-10
11
38
66
96
131
169
208
248
285
313
332
341
338
322
288
234
162
82
3
-67
-125
-167
-196
-212
-220
-223
-222
-218
-213
-207
-200
-192
-186
-180
-174
-168
-162
-157
-153
-149
-145
-143
-143
-142
-141
-141
-140
-137
-136
-141
-142
-134
-118
-98
-80
-68
-70
-87
-106
-116
-119
-117
-114
-117
-121
-108
-81
-81
-150
-193
111
928
1766
1810
931
-81
-457
-254
-36
-57
-131
-114
-81
-76
-62
-37
-17
6
33
61
91
127
164
203
241
274
298
311
315
308
285
243
182
109
31
-44
-111
-165
-202
-224
-236
-243
-245
-243
-239
-233
-226
-218
-211
-205
-199
-194
-189
-183
-178
-175
-173
-171
-169
-168
-169
-168
-164
-162
-168
-171
-161
-142
-120
-102
-91
-97
-117
-136
-143
-143
-140
-135
-138
-141
-125
-98
-107
-190
-225
124
984
1804
1780
857
-135
-464
-245
-43
-76
-143
-121
-87
-80
-65
-42
-23
2
34
62
93
128
166
206
243
272
295
309
311
302
280
241
184
114
40
-29
-87
-132
-164
-185
-196
-199
-197
-194
-190
-184
-176
-168
-160
-153
-145
-138
-132
-125
-118
-114
-113
-112
-110
-111
-115
-117
-112
-105
-96
-78
-53
-38
-44
-64
-74
-76
-75
-73
-73
-78
-69
-41
-30
-86
-179
-54
587
1518
1939
1366
300
-354
-314
-45
17
-66
-84
-45
-31
-24
-2
16
34
62
89
113
141
173
207
239
265
281
290
291
281
259
223
171
105
34
-35
-98
-152
-194
-222
-239
-251
-259
-262
-260
-255
-251
-249
-247
-243
-239
-236
-233
-230
-225
-223
-226
-230
-231
-230
-231
-233
-237
-242
-244
-241
-236
-229
-220
-205
-195
-200
-215
-226
-229
-229
-225
-223
-227
-218
-192
-177
-221
-289
-121
557
1467
1793
1119
27
-573
-469
-179
-120
-193
-191
-143
-126
-113
-86
-62
-36
-1
32
66
107
153
199
243
284
316
334
340
340
332
307
261
201
136
73
20
-20
-47
-67
-78
-81
-74
-62
-50
-36
-19
-3
11
25
41
57
