# session 14
70
67
17
-33
183
880
1694
1846
1086
77
-372
-198
64
83
2
2
35
38
45
66
80
95
119
142
166
195
224
253
282
307
326
335
333
323
303
268
214
148
75
2
-64
-120
-162
-191
-210
-221
-226
-228
-228
-227
-223
-216
-209
-204
-198
-193
-188
-185
-182
-178
-175
-174
-173
-172
-171
-171
-171
-171
-170
-167
-163
-165
-170
-170
-158
-138
-115
-97
-91
-101
-119
-133
-140
-140
-135
-133
-139
-133
-109
-94
-133
-198
-49
583
1457
1802
1189
146
-447
-363
-81
-20
-100
-114
-74
-62
-56
-32
-11
9
35
63
90
120
152
184
217
245
267
279
281
275
261
234
190
130
62
-8
-71
-125
-167
-196
-214
-223
-226
-226
-223
-218
-210
-202
-194
-186
-179
-172
-165
-159
-154
-149
-146
-145
-142
-139
-138
-138
-135
-131
-130
-134
-136
-130
-113
-90
-70
-57
-60
-78
-96
-105
-108
-105
-101
-106
-106
-87
-62
-80
-161
-143
298
1173
1834
1585
591
-264
-418
-147
10
-48
-99
-68
-44
-42
-23
1
19
40
65
91
120
151
180
209
235
256
268
271
266
254
232
194
141
78
12
-51
-107
-151
-182
-204
-218
-223
-224
-223
-220
-214
-207
-200
-194
-188
-180
-172
-166
-162
-158
-155
-153
-152
-151
-149
-146
-144
-147
-149
-143
-128
-109
-89
-72
-71
-90
-112
-124
-126
-123
-120
-124
-128
-112
-84
-91
-173
-214
115
944
1735
1703
802
-153
-453
-220
-13
-44
-111
-90
-60
-57
-41
-15
2
23
49
74
102
132
161
189
216
236
248
252
247
235
214
181
133
73
9
-52
-105
-148
-180
-201
-214
-219
-220
-217
-215
-210
-203
-194
-186
-179
-172
-165
-158
-153
-149
-147
-145
-141
-137
-138
-143
-143
-137
-128
-119
-102
-80
-69
-82
-105
-118
-120
-117
-112
-113
-117
-103
-76
-83
-165
-217
74
858
1650
1674
830
-118
-446
-226
-4
-22
-94
-79
-47
-43
-31
-7
12
32
56
80
107
137
164
190
213
228
234
232
224
210
191
160
115
62
8
-46
-96
-139
-168
-188
-202
-210
-209
-204
-201
-198
-193
-185
-177
-170
-164
-159
-154
-149
-147
-145
-142
-139
-139
-143
-145
-140
-134
-128
-114
-93
-81
-92
-114
-129
-132
-129
-123
-127
-132
-117
-89
-95
-175
-224
67
838
1597
1587
735
-189
-482
-241
-14
-30
-99
-81
-49
-45
-32
-7
12
32
57
82
110
140
170
197
221
237
244
243
233
218
194
160
114
60
2
-54
-102
-140
-167
-186
-197
-203
-204
-202
-198
-190
-182
-174
-168
-161
-153
-146
-140
-135
-133
-131
-126
-123
-126
-132
-134
-129
-121
-110
-94
-75
-72
-89
-109
-117
-119
-117
-114
-120
-122
-101
-74
-105
-214
-217
228
1124
1809
1583
608
-239
-404
-151
-3
-66
-119
-90
-66
-63
-45
-22
-5
19
46
71
99
128
157
184
208
224
232
230
221
205
180
139
87
28
-32
-88
-135
-172
-198
-213
-221
-223
-222
-217
-210
-203
-196
-189
-181
-173
-166
-160
-156
-152
-146
-143
-142
-141
-137
-136
-140
-145
-143
-136
-125
-109
-88
-73
-79
-100
-113
-116
-114
-109
-109
-115
-108
-80
-68
-132
-226
-67
622
1553
1905
1266
206
-389
-311
-51
-9
-94
-106
-69
-58
-50
-28
-8
11
37
63
89
119
150
179
206
227
239
243
241
232
215
184
141
86
25
-36
-91
-135
-169
-191
-205
-211
-212
-210
-205
-199
-191
-184
-176
-170
-163
-157
-150
-144
-141
-138
-135
-134
-133
-131
-129
-126
-125
-124
-122
-120
-119
-117
-112
-110
-114
-119
-118
-108
-89
-66
-48
-46
-63
-82
-88
-85
-85
-84
-83
-88
-85
-62
-42
-79
-167
-84
484
1391
1884
1408
362
-347
-352
-71
22
-58
-87
-51
-35
-31
-10
11
30
54
79
104
133
162
191
218
241
258
267
267
261
248
226
190
141
81
18
-43
-95
-137
-168
-188
-199
-204
-204
-202
-196
-188
-181
-174
-167
-160
-153
-147
-142
-138
-135
-133
-131
-129
-127
-126
-126
-126
-124
-123
-122
-121
-119
-117
-115
-115
-113
-110
-108
-106
-103
-100
-99
-96
-93
-95
-103
-105
-91
-63
-38
-24
-24
-35
-51
-67
-74
-73
-72
-71
-70
-76
-75
-53
-33
-65
-153
-103
393
1260
1809
1439
442
-308
-370
-93
31
-37
-75
-40
-20
-19
1
23
40
63
87
109
135
165
194
219
239
252
259
259
253
240
221
191
148
96
40
-17
-69
-113
-147
-172
-189
-198
-200
-199
-197
-194
-190
-184
-179
-172
-164
-156
-153
-151
-147
-141
-140
-142
-142
-139
-138
-138
-137
-135
-135
-136
-136
-133
-130
-129
-127
-125
-121
-117
-112
-112
-116
-118
-109
-90
-65
-44
-37
-47
-67
-85
-88
-83
-81
-81
-82
-87
-85
-64
-44
-71
-145
-68
460
1317
1778
1293
250
-443
-417
-98
24
-42
-67
-25
-7
-4
15
35
52
80
111
136
162
192
225
255
277
291
303
306
297
279
254
217
165
104
42
-17
-71
-117
-153
-178
-192
-201
-206
-209
-209
-206
-201
-194
-187
-181
-176
-170
-161
-156
-156
-153
-146
-140
-139
-141
-141
-138
-138
-138
-137
-135
-134
-134
-133
-131
-129
-126
-120
-114
-113
-116
-115
-104
-86
-67
-51
-44
-51
-69
-84
-90
-91
-92
-88
-87
-92
-88
-67
-52
-92
-145
46
715
1529
1707
956
-65
-520
-325
-28
13
-61
-56
-15
-6
5
29
47
65
92
121
151
185
219
252
283
307
324
332
329
314
290
255
206
143
72
3
-57
-108
-150
-178
-193
-202
-209
-212
-211
-207
-202
-197
-192
-186
-179
-170
-162
-156
-151
-147
-143
-139
-137
-135
-134
-134
-132
-130
-130
-132
-134
-133
-130
-127
-126
-125
-125
-125
-122
-115
-110
-111
-118
-119
-108
-89
-67
-51
-43
-49
-66
-82
-88
-87
-85
-83
-86
-91
-79
-52
-49
-113
-176
46
769
1627
1822
1072
40
-444
-291
-29
-3
-78
-75
-37
-30
-22
2
22
43
70
96
123
157
192
228
262
294
317
331
334
328
309
273
219
149
74
0
-65
-120
-161
-188
-206
-216
-220
-219
-216
-212
-208
-203
-197
-190
-184
-178
-172
-166
-160
-153
-148
-145
-142
-139
-137
-135
-134
-134
-133
-132
-131
-130
-128
-127
-126
-124
-121
-121
-120
-117
-112
-110
-116
-124
-118
-97
-69
-50
-45
-49
-62
-77
-86
-87
-87
-86
-84
-90
-89
-62
-41
-82
-168
-103
404
1289
1895
1602
622
-201
-360
-123
12
-48
-97
-67
-44
-41
-22
2
20
42
68
93
123
156
189
223
257
287
309
321
324
316
294
253
192
117
38
-36
-99
-149
-185
-209
-221
-226
-226
-224
-220
-213
-206
-200
-194
-188
-182
-176
-171
-165
-159
-154
-149
-145
-141
-138
-136
-134
-132
-130
-128
-126
-124
-122
-122
-120
-117
-115
-113
-111
-110
-108
-104
-99
-97
-102
-111
-110
-93
-66
-43
-33
-35
-47
-65
-76
-79
-80
-80
-77
-78
-84
-69
-41
-51
-127
-160
134
900
1700
1787
1000
30
-381
-222
-4
-7
-82
-74
-39
-33
-24
0
18
38
63
88
115
145
176
209
241
270
293
308
313
310
294
264
215
149
75
1
-66
-122
-164
-193
-211
-219
-222
-221
-217
-212
-206
-199
-191
-184
-177
-172
-166
-161
-156
-152
-147
-143
-139
-137
-135
-135
-133
-132
-130
-129
-127
-127
-125
-122
-119
-117
-116
-115
-114
-111
-106
-105
-111
-118
-115
-97
-71
-48
-38
-43
-57
-74
-84
-86
-88
-87
-83
-88
-89
-68
-44
-69
-154
-131
304
1152
1794
1565
614
-221
-390
-136
22
-32
-85
-58
-33
-30
-12
11
26
46
71
96
124
154
184
215
245
268
283
293
295
286
264
228
179
118
48
-22
-84
-134
-171
-196
-211
-218
-219
-219
-217
-210
-200
-193
-188
-182
-175
-169
-164
-158
-152
-148
-145
-139
-135
-135
-136
-136
-136
-135
-133
-131
-128
-127
-126
-123
-122
-123
-126
-126
-118
-103
-82
-60
-47
-51
-71
-90
-99
-99
-97
-93
-95
-99
-88
-63
-57
-112
-153
103
836
1627
1702
881
-110
-494
-278
-19
-10
-82
-69
-32
-25
-14
11
28
45
71
98
126
156
187
220
251
275
291
298
296
285
270
243
199
142
77
10
-54
-109
-150
-179
-198
-210
-216
-218
-219
-219
-212
-203
-196
-191
-186
-179
-172
-168
-165
-161
-157
-155
-154
-152
-150
-150
-150
-147
-144
-143
-144
-145
-145
-143
-135
-121
-101
-81
-69
-72
-89
-108
-117
-117
-115
-112
-112
-114
-103
-78
-69
-114
-145
115
842
1616
1661
813
-183
-549
-311
-37
-20
-85
-69
-32
-25
-12
12
30
49
74
101
131
164
196
229
261
287
302
309
307
296
273
236
184
121
54
-12
-73
-123
-159
-184
-200
-209
-214
-215
-211
-205
-201
-198
-193
-183
-174
-166
-161
-156
-152
-148
-145
-143
-141
-139
-139
-138
-137
-136
-134
-132
-134
-138
-137
-127
-110
-90
-72
-66
-78
-100
-116
-120
-117
-110
-110
-116
-108
-83
-73
-119
-171
26
707
1563
1817
1126
89
-444
-323
-55
-17
-97
-100
-62
-55
-49
-25
-5
14
40
65
93
125
159
191
224
253
274
285
286
278
262
230
181
118
48
-24
-88
-140
-178
-203
-218
-227
-230
-229
-225
-219
-212
-204
-197
-188
-180
-173
-168
-164
-158
-153
-149
-146
-146
-145
-143
-141
-139
-136
-136
-140
-142
-134
-118
-98
-79
-68
-73
-92
-110
-118
-120
-117
-113
-118
-118
-96
-74
-103
-183
-126
382
1282
1887
1556
536
-283
-403
-141
-10
-78
-123
-90
-68
-64
-44
-20
-2
21
49
76
105
137
170
203
234
257
273
280
278
266
241
198
139
69
-3
-69
-125
-168
-198
-217
-227
-232
-232
-229
-225
-217
-208
-199
-191
-184
-178
-171
-165
-160
-157
-152
-148
-145
-143
-143
-143
-139
-135
-137
-142
-142
-133
-115
-95
-76
-66
-75
-98
-114
-117
-116
-113
-111
-117
-116
-93
-72
-104
-190
-132
388
1301
1903
1554
526
-286
-396
-132
-6
-75
-118
-86
-65
-61
-40
-17
1
24
52
79
108
140
171
204
235
257
270
275
272
262
238
196
136
66
-3
-66
-120
-162
-191
-210
-221
-224
-223
-221
-216
-209
-200
-191
-183
-176
-170
-165
-160
-156
-151
-147
-143
-140
-139
-139
-139
-138
-136
-133
-131
-133
-136
-133
-124
-113
-98
-78
-67
-75
-94
-107
-108
-107
-103
-101
-106
-104
-81
-59
-90
-171
-100
430
1324
1869
1470
444
-318
-383
-111
5
-63
-98
-62
-45
-42
-20
1
16
39
67
94
123
153
183
212
237
257
270
274
269
255
230
192
140
79
16
-46
-101
-145
-174
-194
-206
-211
-212
-208
-201
-195
-189
-183
-176
-169
-162
-157
-152
-146
-141
-137
-136
-134
-133
-132
-130
-129
-129
-128
-126
-123
-123
-123
-123
-119
-115
-112
-109
-108
-111
-112
-103
-86
-64
-45
-35
-39
-57
-77
-84
-83
-83
-80
-78
-83
-83
-62
-41
-72
-153
-81
440
1300
1792
1353
330
-388
-402
-101
23
-46
-78
-39
-18
-15
4
25
42
65
89
116
149
180
206
231
255
274
286
289
285
274
253
219
170
112
50
-10
-66
-117
-155
-179
-192
-201
-208
-210
-206
-199
-193
-190
-186
-180
-172
-163
-154
-150
-150
-149
-147
-143
-141
-138
-137
-135
-136
-138
-139
-137
-135
-134
-132
-129
-124
-122
-119
-116
-116
-121
-122
-111
-92
-71
-52
-42
-46
-63
-82
-90
-88
-87
-85
-80
-82
-85
-72
-48
-54
-119
-109
278
1087
1722
1492
518
-336
-486
-184
17
-18
-66
-33
-5
-3
11
33
49
70
97
123
153
185
220
256
287
309
324
331
329
315
288
250
198
134
65
-2
-63
-115
-154
-181
-197
-205
-209
-211
-211
-207
-202
-196
-190
-185
-180
-173
-164
-157
-152
-152
-152
-151
-147
-144
-142
-141
-141
-141
-139
-138
-136
-133
-132
-133
-135
-134
-128
-120
-117
-117
-115
-110
-109
-113
-111
-96
-73
-53
-42
-43
-54
-69
-78
-81
-83
-84
-79
-80
-82
-67
-42
-49
-119
-138
198
990
1712
1623
711
-213
-475
-215
8
-9
-69
-46
-16
-14
2
29
48
70
95
120
150
186
221
253
284
311
330
340
339
330
309
270
216
150
78
6
-58
-111
-150
-178
-197
-209
-216
-217
-214
-209
-206
-203
-197
-188
-182
-178
-174
-168
-161
-156
-153
-150
-146
-143
-140
-137
-135
-135
-134
-133
-130
-128
-126
-125
-124
-122
-121
-119
-116
-113
-109
-107
-105
-99
-92
-90
-97
-104
-98
-79
-56
-39
-28
-25
-35
-54
-67
-67
-64
-64
-63
-65
-71
-59
-31
-29
-93
-142
101
826
1654
1814
1061
52
-415
-264
-11
13
-61
-57
-21
-14
-6
18
38
59
85
111
138
170
204
238
273
305
332
351
359
357
341
307
253
184
108
30
-42
-103
-149
-180
-200
-214
-221
-224
-223
-220
-215
-209
-202
-197
-193
-188
-184
-179
-174
-169
-164
-162
-160
-156
-153
-151
-151
-149
-147
-145
-145
-143
-141
-140
-139
-138
-136
-135
-134
-131
-129
-127
-125
-124
-122
-119
-118
-118
-115
-111
-108
-112
-120
-122
-108
-83
-60
-48
-46
-54
-69
-84
-89
-89
-90
-89
-84
-90
-90
-65
-46
-84
-158
-90
385
1222
1826
1588
663
-160
-356
-137
9
-41
-94
-67
-41
-37
-19
6
25
48
73
98
128
161
195
231
269
303
329
348
356
355
339
306
252
181
103
26
-42
-96
-137
-166
-183
-191
-193
-191
-185
-178
-171
-163
-154
-146
-138
-132
-127
-121
-115
-110
-104
-99
-94
-89
-84
-79
-75
-73
-71
-68
-66
-63
-60
-56
-53
-51
-50
-48
-46
-43
-40
-38
-36
-34
-32
-31
-30
-27
-26
-25
-25
-24
-20
-19
-26
-36
-33
-16
10
