# session 13
-55
-57
-59
-60
-61
-62
-63
-64
-64
-65
-65
-66
-65
-64
-69
-78
-78
-62
-38
-16
-6
-9
-24
-43
-54
-59
-62
-62
-61
-66
-63
-42
-26
-66
-151
-52
526
1390
1783
1225
192
-431
-360
-58
30
-44
-62
-24
-11
-6
16
36
53
78
106
135
166
200
235
271
303
328
343
347
342
324
290
235
165
87
10
-60
-120
-166
-197
-218
-230
-237
-238
-236
-235
-233
-229
-224
-217
-211
-204
-196
-187
-181
-177
-173
-169
-164
-160
-158
-156
-154
-153
-152
-151
-150
-148
-146
-145
-144
-142
-139
-136
-134
-131
-126
-123
-127
-134
-129
-107
-79
-57
-48
-54
-70
-86
-94
-96
-94
-89
-92
-96
-79
-52
-61
-139
-173
138
928
1708
1722
877
-71
-411
-208
4
-15
-86
-70
-37
-33
-19
6
25
45
72
98
128
161
195
230
265
296
319
332
336
330
312
276
218
144
65
-10
-76
-131
-172
-200
-218
-227
-230
-231
-228
-224
-219
-214
-209
-202
-196
-189
-182
-175
-168
-163
-158
-154
-150
-146
-144
-142
-140
-138
-135
-133
-131
-128
-127
-126
-123
-117
-116
-122
-127
-120
-98
-70
-49
-42
-52
-70
-84
-89
-92
-89
-86
-91
-91
-70
-46
-72
-156
-127
331
1201
1826
1545
558
-262
-394
-124
23
-38
-86
-53
-30
-27
-9
14
31
55
82
109
140
173
206
242
276
303
322
331
332
321
296
251
187
111
32
-42
-105
-153
-187
-209
-221
-228
-233
-235
-233
-228
-221
-215
-208
-201
-193
-186
-178
-171
-166
-164
-162
-158
-151
-147
-146
-145
-144
-142
-141
-138
-136
-135
-135
-132
-131
-132
-135
-133
-121
-100
-76
-57
-54
-71
-93
-106
-110
-108
-103
-104
-109
-100
-76
-69
-120
-165
70
787
1609
1750
968
-47
-485
-299
-31
-10
-86
-81
-43
-35
-23
2
21
40
68
96
125
156
189
222
253
280
302
314
314
305
288
259
212
151
82
12
-54
-109
-150
-177
-196
-210
-218
-221
-220
-215
-210
-203
-196
-188
-183
-178
-173
-168
-163
-159
-154
-152
-151
-150
-148
-146
-144
-144
-145
-144
-139
-134
-135
-135
-127
-108
-86
-70
-68
-80
-98
-110
-116
-116
-112
-112
-115
-107
-84
-73
-115
-155
82
803
1614
1721
900
-127
-546
-334
-56
-30
-95
-80
-41
-34
-22
5
24
42
68
96
127
161
196
231
265
295
314
324
323
312
288
248
191
123
48
-23
-86
-137
-175
-201
-218
-227
-229
-227
-224
-223
-220
-214
-204
-197
-190
-184
-176
-171
-165
-160
-155
-153
-152
-150
-147
-145
-143
-143
-141
-140
-141
-142
-140
-130
-114
-96
-79
-72
-81
-100
-114
-119
-117
-112
-113
-118
-108
-81
-76
-136
-185
67
825
1683
1834
1040
6
-449
-280
-33
-27
-107
-100
-63
-56
-45
-20
0
20
47
75
105
140
175
212
250
282
304
317
323
318
298
257
194
118
37
-39
-105
-156
-194
-220
-234
-240
-241
-238
-234
-228
-221
-214
-207
-201
-193
-186
-179
-174
-170
-165
-160
-157
-155
-154
-153
-151
-147
-146
-151
-155
-152
-143
-130
-113
-94
-83
-92
-110
-120
-121
-118
-114
-116
-121
-108
-79
-78
-149
-203
63
849
1733
1901
1117
78
-400
-261
-34
-33
-113
-109
-72
-65
-53
-29
-9
12
39
67
97
131
165
200
235
267
290
303
305
299
280
242
184
110
31
-45
-110
-161
-197
-220
-233
-239
-240
-237
-232
-225
-217
-209
-201
-193
-185
-179
-174
-168
-163
-159
-155
-153
-150
-147
-145
-143
-143
-141
-138
-137
-134
-127
-123
-125
-131
-132
-125
-112
-95
-73
-60
-66
-84
-94
-95
-95
-91
-90
-95
-90
-64
-47
-91
-178
-77
518
1442
1932
1446
395
-319
-336
-68
16
-65
-94
-58
-43
-38
-15
8
25
49
76
103
133
165
199
233
263
286
302
308
307
297
272
229
167
94
20
-49
-107
-153
-186
-206
-216
-220
-220
-217
-212
-205
-198
-191
-184
-177
-171
-165
-160
-155
-150
-147
-144
-141
-141
-140
-140
-140
-139
-137
-134
-132
-130
-128
-126
-124
-121
-118
-116
-114
-111
-106
-105
-110
-114
-106
-84
-58
-39
-33
-40
-59
-75
-80
-81
-81
-79
-80
-84
-71
-44
-48
-121
-173
94
855
1677
1780
984
0
-407
-232
-4
-7
-83
-74
-40
-34
-24
-2
15
36
64
89
114
145
176
207
236
259
275
283
283
274
260
236
197
144
80
13
-51
-105
-146
-176
-198
-210
-215
-215
-212
-208
-202
-194
-187
-182
-179
-174
-168
-162
-158
-156
-153
-151
-150
-149
-148
-146
-145
-144
-143
-143
-142
-140
-138
-134
-131
-132
-134
-128
-112
-90
-70
-58
-58
-72
-90
-101
-104
-104
-100
-99
-105
-102
-81
-63
-93
-161
-52
527
1406
1825
1273
209
-453
-399
-90
6
-70
-89
-49
-35
-30
-5
17
34
59
86
113
143
175
207
238
263
280
291
293
284
266
237
196
144
83
17
-47
-102
-145
-177
-198
-211
-217
-217
-216
-214
-209
-201
-193
-187
-181
-175
-168
-163
-159
-156
-153
-149
-146
-145
-145
-144
-142
-140
-140
-140
-135
-130
-132
-137
-137
-130
-119
-104
-84
-67
-69
-87
-102
-106
-104
-101
-100
-104
-100
-78
-58
-88
-165
-89
453
1352
1871
1423
371
-370
-393
-101
10
-66
-99
-62
-45
-42
-20
2
19
43
70
96
126
159
193
226
255
278
292
296
290
275
247
203
143
73
1
-64
-120
-164
-195
-215
-225
-229
-230
-227
-222
-215
-208
-201
-192
-184
-176
-170
-165
-160
-155
-152
-149
-147
-147
-146
-145
-143
-142
-138
-137
-140
-145
-144
-138
-127
-110
-89
-75
-80
-98
-111
-113
-111
-107
-105
-111
-108
-85
-65
-102
-186
-93
491
1416
1915
1426
362
-359
-369
-90
1
-79
-107
-69
-54
-50
-28
-6
12
37
65
92
123
156
187
219
247
268
280
282
277
263
236
192
131
61
-10
-74
-128
-170
-199
-217
-226
-230
-230
-226
-220
-214
-207
-199
-190
-182
-176
-169
-164
-159
-154
-150
-149
-147
-146
-145
-143
-142
-143
-140
-134
-132
-137
-140
-138
-129
-115
-95
-75
-68
-81
-100
-107
-107
-105
-101
-101
-105
-95
-69
-61
-120
-184
36
775
1661
1873
1117
68
-427
-279
-26
-12
-94
-92
-55
-48
-38
-13
6
26
53
78
105
137
168
198
229
256
273
280
279
272
255
224
177
116
47
-22
-83
-132
-170
-196
-212
-220
-224
-223
-219
-213
-206
-198
-190
-183
-177
-171
-166
-161
-156
-152
-148
-146
-145
-145
-144
-143
-142
-142
-141
-139
-135
-132
-134
-139
-140
-135
-122
-103
-80
-65
-71
-90
-103
-104
-103
-101
-99
-103
-101
-79
-55
-82
-166
-108
414
1318
1883
1489
449
-325
-385
-103
15
-58
-96
-62
-43
-38
-18
4
21
46
72
96
124
154
184
214
240
258
266
268
263
249
226
190
141
81
16
-47
-101
-145
-180
-202
-213
-216
-217
-216
-213
-206
-198
-189
-182
-176
-172
-167
-161
-155
-152
-150
-147
-145
-146
-146
-142
-140
-140
-139
-137
-139
-143
-140
-131
-120
-106
-88
-74
-80
-99
-111
-113
-110
-107
-108
-113
-104
-78
-66
-117
-171
52
775
1622
1789
1007
-33
-494
-310
-36
-14
-93
-88
-48
-39
-30
-7
10
29
57
84
110
139
167
195
223
244
257
259
254
242
223
193
151
98
37
-25
-82
-130
-167
-193
-210
-220
-224
-223
-221
-217
-211
-203
-194
-188
-182
-176
-170
-164
-160
-156
-152
-150
-150
-150
-150
-148
-143
-142
-144
-145
-142
-134
-123
-104
-83
-76
-89
-108
-116
-116
-113
-109
-111
-113
-98
-72
-73
-142
-179
133
948
1758
1762
866
-123
-459
-230
-7
-30
-102
-83
-50
-46
-32
-7
11
32
59
86
115
147
178
208
237
260
274
278
274
262
240
202
149
85
18
-47
-104
-148
-180
-200
-214
-221
-222
-220
-216
-210
-203
-197
-189
-181
-174
-168
-163
-158
-154
-152
-149
-147
-146
-146
-145
-141
-140
-144
-150
-149
-141
-130
-115
-94
-79
-86
-106
-120
-122
-120
-117
-115
-120
-116
-91
-70
-110
-202
-113
480
1425
1943
1461
389
-345
-365
-91
-3
-85
-115
-78
-62
-57
-34
-12
7
32
59
85
115
146
177
208
234
252
261
262
255
240
213
171
114
48
-19
-80
-130
-168
-194
-212
-221
-224
-224
-221
-216
-209
-201
-192
-185
-178
-170
-164
-160
-156
-152
-148
-145
-144
-144
-142
-140
-140
-139
-135
-133
-135
-139
-136
-129
-117
-100
-79
-65
-72
-92
-106
-108
-106
-102
-103
-107
-101
-77
-59
-101
-182
-59
563
1463
1854
1265
205
-421
-353
-67
3
-76
-93
-56
-44
-37
-14
6
22
47
76
103
133
163
193
221
244
260
268
269
263
248
221
180
127
64
1
-57
-108
-149
-178
-196
-207
-212
-212
-207
-202
-196
-190
-182
-174
-167
-161
-156
-152
-147
-143
-141
-139
-137
-135
-133
-135
-137
-135
-130
-129
-135
-140
-137
-126
-112
-93
-73
-68
-84
-105
-113
-112
-108
-104
-108
-112
-99
-74
-78
-145
-163
178
987
1731
1654
737
-202
-476
-226
-12
-37
-99
-77
-48
-44
-27
-2
15
36
63
88
115
145
174
203
230
251
259
256
247
236
218
186
141
88
31
-26
-80
-126
-162
-185
-199
-208
-213
-212
-207
-201
-196
-191
-185
-180
-173
-165
-159
-158
-157
-154
-148
-146
-149
-151
-147
-141
-139
-139
-138
-139
-140
-137
-129
-122
-115
-100
-80
-70
-81
-99
-108
-107
-103
-99
-100
-105
-97
-73
-64
-112
-146
119
861
1645
1688
831
-172
-537
-296
-25
-16
-85
-67
-26
-20
-11
12
32
54
81
109
140
171
200
230
260
284
295
296
291
280
259
223
173
113
48
-15
-73
-123
-161
-187
-204
-216
-223
-224
-221
-215
-209
-203
-197
-190
-182
-174
-168
-166
-164
-159
-153
-151
-151
-151
-147
-144
-145
-146
-144
-143
-144
-140
-132
-124
-116
-102
-89
-87
-100
-113
-115
-115
-114
-110
-112
-115
-103
-78
-75
-127
-125
231
1027
1709
1549
594
-310
-521
-235
-16
-37
-87
-58
-27
-22
-6
18
36
62
94
122
152
188
226
261
289
307
319
326
322
305
274
230
172
102
27
-42
-99
-145
-180
-203
-218
-226
-227
-223
-220
-218
-213
-204
-194
-188
-184
-177
-169
-163
-161
-158
-153
-150
-148
-148
-150
-149
-145
-142
-143
-144
-139
-132
-127
-120
-107
-94
-97
-112
-122
-124
-123
-120
-115
-120
-123
-107
-82
-90
-144
-96
333
1124
1675
1374
415
-369
-473
-180
-7
-51
-92
-55
-27
-23
-8
15
37
65
95
124
157
193
231
268
299
320
332
336
331
314
279
226
158
82
6
-65
-124
-168
-197
-214
-224
-231
-232
-231
-227
-220
-212
-204
-199
-195
-188
-180
-172
-168
-166
-162
-159
-155
-152
-150
-149
-150
-150
-146
-140
-138
-140
-138
-132
-126
-121
-110
-93
-80
-84
-101
-111
-110
-106
-100
-97
-104
-104
-80
-55
-76
-149
-109
349
1211
1833
1554
562
-274
-418
-147
12
-41
-86
-54
-29
-25
-5
20
39
66
96
124
155
190
226
263
296
321
337
344
340
323
289
238
172
97
21
-49
-107
-150
-181
-200
-210
-212
-212
-210
-207
-201
-193
-185
-180
-176
-173
-168
-161
-155
-150
-147
-144
-142
-140
-139
-138
-135
-133
-134
-134
-131
-128
-127
-126
-125
-123
-120
-117
-115
-111
-106
-104
-102
-100
-99
-97
-95
-92
-86
-81
-82
-89
-95
-90
-71
-46
-29
-22
-25
-38
-53
-61
-63
-66
-64
-61
-68
-66
-40
-25
-69
-136
-35
483
1324
1864
1546
599
-181
-329
-105
21
-39
-85
-56
-32
-28
-9
15
33
55
79
104
134
167
200
233
267
296
318
332
336
332
314
279
223
152
75
1
-64
-118
-159
-188
-204
-212
-215
-214
-210
-205
-197
-190
-183
-179
-175
-171
-167
-163
-161
-158
-155
-153
-151
-149
-146
-145
-144
-142
-139
-137
-135
-133
-132
-130
-128
-126
-123
-120
-117
-114
-113
-110
-107
-104
-101
-99
-97
-95
-95
-93
-90
-85
-83
-87
-95
-97
-84
-60
-35
-22
-20
-28
-43
-58
-63
-64
-65
-63
-65
-72
-60
-32
-37
-99
-133
93
753
1552
1805
1199
242
-303
-253
-29
11
-66
-79
-45
-33
-25
-2
17
35
59
84
109
138
169
202
235
266
291
308
317
318
309
287
246
187
116
41
-30
-92
-141
-176
-199
-214
-221
-223
-221
-217
-211
-205
-198
-192
-187
-183
-179
-174
-169
-165
-161
-158
-154
-151
-149
-146
-144
-141
-139
-137
-134
-132
-130
-126
-123
-121
-120
-117
-113
-110
-107
-103
-99
-97
-94
-90
-90
-97
-103
-92
-66
-39
-22
-18
-23
-38
-54
-61
-64
-65
-62
-63
-68
-60
-33
-28
-83
-140
31
650
1471
1792
1230
259
-323
-280
-31
30
-47
-64
-27
-14
-9
13
34
50
71
96
122
152
182
212
243
271
292
307
314
312
300
274
231
173
106
35
-36
-97
-144
-176
-198
-214
-224
-228
-227
-224
-220
-215
-210
-204
-199
-195
-191
-186
-180
-175
-172
-172
-171
-169
-166
-163
-161
-160
-158
-157
-156
-154
-152
-149
-147
-145
-144
-142
-138
-134
-135
-140
-142
-132
-110
-85
-66
-61
-71
-89
-105
-111
-111
-108
-103
-105
-108
-93
-68
-76
-142
-151
188
968
1668
1568
669
-230
-472
-212
1
-24
-84
-58
-28
-27
-12
16
35
56
83
109
139
171
202
234
266
292
311
321
321
310
290
258
212
154
89
23
-37
-87
-126
-152
-168
-177
-180
-180
-177
-173
-167
-159
-150
-141
-132
-124
-117
-110
-102
-96
-91
-87
-82
-78
-74
-70
-67
-63
-59
-56
-53
-48
-41
-37
-38
-41
-37
-21
4
28
44
46
32
13
3
2
5
7
7
6
10
