# session 38
-25
-84
65
114
-309
-828
-882
-683
-617
-580
-473
-400
-343
-260
-189
-125
-60
-16
27
92
144
145
87
-4
-82
-155
-265
-367
-375
-308
-240
-198
-177
-160
-142
-166
-226
-251
-234
-211
-165
-120
-119
-119
-84
-63
-70
-67
-43
-9
29
55
48
25
61
160
198
143
102
113
117
107
98
73
80
164
238
241
247
263
222
163
110
-12
-209
-399
-518
-553
-579
-664
-744
-770
-785
-744
-553
-257
-4
51
-87
-202
-265
-193
626
1954
2082
607
-601
-552
-161
-20
94
208
248
287
333
343
302
226
154
89
28
6
13
1
1
75
209
337
391
329
231
260
443
654
816
928
1006
1090
1131
1040
896
809
741
674
628
540
434
417
420
330
223
125
-78
-306
-355
-328
-452
-661
-786
-842
-909
-989
-1042
-1020
-958
-967
-1048
-1081
-1029
-936
-796
-620
-477
-338
-135
37
72
70
131
210
286
375
405
347
312
335
317
253
229
246
242
211
193
192
187
194
177
99
78
139
75
-105
-242
-278
295
1708
2412
1140
-556
-953
-731
-778
-800
-730
-791
-818
-797
-924
-1043
-971
-850
-738
-530
-405
-611
-938
-1046
-1010
-999
-903
-686
-531
-456
-315
-139
-22
89
223
308
336
341
307
226
135
80
76
97
113
122
140
162
178
199
240
263
234
230
294
322
281
290
352
354
326
342
340
288
268
306
337
333
310
292
306
333
337
315
286
263
244
219
208
230
248
240
243
265
271
258
235
222
248
288
282
241
210
155
75
52
76
75
96
121
41
-85
-178
-16
986
2411
2471
917
-236
-141
110
31
15
68
49
48
77
93
122
148
151
162
198
242
294
338
332
294
281
246
114
-17
-38
-32
-90
-125
-19
182
267
122
-131
-355
-541
-660
-716
-808
-907
-895
-846
-872
-911
-914
-911
-876
-794
-731
-705
-680
-658
-638
-614
-602
-578
-499
-428
-454
-537
-584
-587
-583
-587
-594
-604
-605
-583
-545
-510
-485
-464
-424
-350
-279
-251
-228
-154
-55
-1
2
15
64
125
176
212
241
254
243
261
318
300
197
82
37
550
1856
2659
1763
335
-32
242
251
138
147
152
139
150
142
132
153
179
197
207
198
175
161
174
198
225
262
286
293
341
416
438
429
452
471
455
443
423
349
238
134
45
-26
-65
-82
-92
-100
-109
-117
-116
-99
-78
-76
-94
-116
-122
-119
-113
-99
-88
-99
-119
-123
-116
-114
-110
-97
-89
-92
-94
-92
-93
-99
-98
-84
-68
-64
-60
-38
-9
0
-19
-47
-81
-120
-129
-118
-147
-163
-127
-167
-302
-437
-449
224
1701
2406
1209
-328
-586
-253
-239
-290
-233
-234
-235
-194
-187
-177
-144
-134
-134
-125
-140
-153
-116
-72
-73
-82
-57
-29
-7
49
136
197
210
210
241
303
341
303
210
102
-20
-134
-197
-226
-260
-278
-270
-269
-275
-271
-270
-273
-267
-259
-262
-265
-267
-270
-261
-249
-257
-260
-241
-230
-238
-233
-214
-206
-209
-208
-196
-179
-166
-157
-141
-118
-105
-107
-103
-82
-58
-47
-35
-17
-22
-57
-60
-14
-14
-61
-42
-25
-123
-242
-341
-163
940
2395
2300
634
-438
-256
-23
-118
-110
-35
-28
-11
-1
-18
-3
21
22
26
36
43
61
82
96
123
166
194
210
237
271
297
325
359
389
415
439
437
382
289
187
90
20
-18
-41
-53
-47
-39
-40
-35
-19
-5
-2
0
7
12
12
17
27
36
41
40
33
30
28
17
12
19
18
6
3
7
6
-2
-8
-4
3
-1
-5
3
18
33
43
34
13
-14
-44
-41
-18
-31
-33
-18
-94
-223
-328
-271
509
1885
2222
887
-369
-435
-218
-283
-274
-208
-275
-330
-328
-358
-378
-362
-348
-332
-307
-289
-280
-277
-274
-269
-276
-289
-282
-262
-251
-245
-236
-218
-178
-139
-142
-175
-195
-217
-280
-378
-485
-579
-603
-506
-359
-295
-362
-511
-643
-633
-456
-249
-108
10
142
238
258
225
195
213
248
237
204
203
164
1
-218
-368
-451
-532
-616
-686
-762
-820
-827
-854
-924
-859
-576
-282
-118
-9
77
122
167
211
252
348
408
333
227
149
380
1474
2749
2497
920
-11
135
289
180
132
90
-6
-67
-103
-84
32
163
243
303
349
371
387
411
444
481
510
534
564
599
635
672
708
742
777
807
824
812
746
631
509
418
351
290
231
184
158
144
117
80
67
75
69
46
26
5
-17
-36
-56
-71
-76
-86
-102
-116
-137
-171
-190
-183
-177
-191
-208
-214
-219
-227
-224
-211
-198
-185
-167
-143
-127
-127
-153
-201
-222
-218
-250
-282
-288
-374
-523
-657
-669
25
1520
2150
838
-706
-891
-555
-599
-664
-582
-586
-607
-559
-528
-515
-478
-436
-410
-399
-394
-387
-376
-357
-337
-325
-302
-266
-260
-287
-293
-273
-255
-238
-209
-167
-123
-119
-184
-297
-424
-533
-602
-633
-639
-624
-616
-641
-674
-683
-670
-638
-580
-508
-426
-336
-256
-190
-137
-118
-132
-133
-111
-85
-62
-44
-32
-27
-39
-73
-106
-132
-160
-180
-198
-227
-228
-161
-43
71
129
141
172
255
376
482
495
481
563
620
539
445
372
655
1916
3251
2775
1014
187
453
565
448
490
526
496
517
520
491
497
497
473
478
501
502
504
527
544
537
534
550
557
544
547
603
708
805
840
838
846
834
764
660
535
395
279
203
148
134
169
198
188
180
176
105
-34
-143
-191
-247
-348
-464
-554
-603
-626
-643
-659
-682
-717
-748
-768
-785
-792
-781
-763
-750
-754
-760
-747
-728
-723
-719
-703
-678
-650
-628
-619
-610
-606
-605
-575
-540
-544
-513
-453
-498
-606
-702
-663
112
1566
2017
714
-579
-627
-336
-370
-381
-310
-322
-318
-274
-271
-265
-229
-199
-175
-147
-123
-99
-74
-52
-30
-11
9
34
62
87
115
149
180
200
211
216
206
161
88
9
-63
-128
-175
-201
-217
-234
-252
-270
-272
-251
-242
-264
-273
-254
-249
-261
-256
-244
-245
-233
-207
-205
-225
-233
-232
-224
-187
-122
-54
20
116
202
232
202
187
237
276
229
160
147
168
225
361
545
693
779
804
780
769
801
831
867
927
930
856
698
495
876
2194
3009
1985
409
-48
114
3
-161
-166
-179
-182
-126
-95
-109
-121
-99
-57
-47
-68
-67
-39
-8
24
51
65
85
121
152
173
201
237
256
251
233
209
160
60
-78
-204
-290
-346
-387
-414
-430
-444
-463
-477
-471
-461
-475
-500
-508
-504
-503
-504
-500
-495
-490
-482
-477
-472
-459
-439
-423
-413
-400
-379
-352
-325
-306
-292
-276
-260
-250
-239
-222
-208
-186
-144
-107
-103
-113
-121
-121
-104
-105
-124
-96
-87
-180
-315
-449
-204
1025
2386
2035
354
-514
-259
-74
-157
-135
-104
-123
-97
-77
-84
-63
-36
-23
-1
23
39
59
81
94
103
117
138
166
194
205
208
227
256
265
273
293
275
188
84
10
-46
-89
-109
-112
-114
-122
-135
-152
-166
-165
-149
-144
-178
-229
-261
-279
-301
-321
-330
-341
-354
-358
-359
-365
-372
-378
-378
-373
-372
-358
-297
-192
-65
93
286
485
644
722
716
658
570
466
372
286
205
179
220
248
249
249
221
212
269
261
163
71
-16
393
1775
2795
1836
95
-385
-11
62
12
119
146
116
157
177
153
144
139
135
148
174
201
207
194
208
279
380
477
560
636
663
553
301
33
-147
-260
-378
-524
-688
-862
-1006
-1064
-1066
-1080
-1108
-1145
-1205
-1256
-1278
-1307
-1349
-1373
-1382
-1381
-1379
-1384
-1318
-1102
-820
-601
-427
-238
-71
45
135
207
258
310
365
402
421
445
471
465
413
362
323
209
35
-49
-28
-42
-122
-174
-133
-10
121
199
252
313
345
345
364
381
378
428
482
416
285
133
166
1018
2356
2445
996
-70
48
282
197
200
264
242
250
280
272
287
311
284
244
245
277
311
319
303
304
329
336
316
301
315
357
402
435
460
484
492
465
405
318
210
99
3
-78
-153
-218
-267
-307
-357
-434
-534
-621
-668
-697
-725
-701
-593
-485
-447
-414
-351
-321
-318
-283
-266
-302
-289
-198
-148
-176
-218
-260
-290
-279
-275
-329
-375
-348
-272
-195
-157
-154
-128
-78
-71
-90
-84
-94
-151
-204
-232
-259
-284
-308
-319
-284
-245
-263
-293
-350
-500
-638
-746
-695
140
1510
1691
307
-746
-586
-238
-215
-179
-113
-87
-25
-6
-60
-43
48
102
103
86
83
99
98
81
87
96
71
43
48
68
79
102
139
149
126
104
66
-28
-150
-261
-372
-470
-510
-480
-409
-329
-268
-216
-156
-112
-109
-107
-50
51
132
166
194
243
273
254
234
247
259
269
296
312
316
357
416
446
485
558
612
631
646
658
659
664
672
672
662
643
620
607
595
560
504
446
380
318
281
248
224
197
82
-95
-275
-388
167
1614
2387
1241
-314
-596
-273
-282
-355
-306
-322
-341
-291
-254
-222
-171
-145
-137
-112
-83
-68
-54
-36
-23
-6
20
47
73
104
131
145
146
140
138
134
96
3
-118
-230
-314
-373
-414
-450
-495
-546
-574
-568
-557
-553
-533
-501
-481
-467
-449
-443
-459
-479
-491
-497
-503
-511
-535
-574
-615
-655
-695
-726
-748
-768
-796
-812
-799
-778
-782
-796
-793
-783
-780
-775
-768
-766
-750
-716
-702
-695
-620
-478
-361
-287
-201
-119
-87
-52
13
18
-22
-11
-26
-111
-188
-183
418
1969
3073
2215
644
296
708
777
709
789
813
806
858
881
882
915
941
945
947
951
956
969
983
996
1014
1022
989
927
889
860
792
741
788
895
957
909
759
574
414
254
78
-52
-132
-242
-384
-500
-588
-656
-691
-710
-735
-762
-806
-845
-819
-738
-678
-674
-684
-653
-582
-528
-518
-490
-380
-235
-139
-95
-79
-103
-150
-170
-163
-173
-216
-259
-227
-103
18
55
54
101
198
275
300
323
369
366
295
254
281
304
291
268
229
158
71
-14
-75
-77
-93
-245
-478
-717
-788
-57
1376
1811
514
-747
-765
-478
-559
-616
-569
-597
-586
-520
-525
-546
-518
-505
-523
-506
-441
-356
-272
-215
-199
-191
-158
-98
-25
39
72
71
46
31
78
190
288
301
253
197
156
157
200
182
58
-51
-73
-99
-157
-157
-87
-30
-29
-76
-136
-166
-159
-142
-109
-69
-106
-257
-407
-455
-451
-469
-496
-482
-406
-283
-150
-30
67
127
142
134
132
131
133
161
220
280
325
360
390
417
443
463
477
485
476
436
372
302
245
226
235
249
262
244
191
169
142
22
-115
-218
-39
1020
2414
2328
722
-371
-347
-295
-427
-358
-345
-540
-642
-596
-523
-406
-280
-221
-178
-103
-38
-7
16
46
78
97
115
165
236
286
315
335
349
369
400
414
392
336
239
102
-31
-110
-134
-144
-164
-181
-182
-169
-134
-81
-49
-43
-23
13
26
34
78
123
127
134
168
169
129
110
116
101
76
64
49
29
18
12
15
27
23
-5
-29
-37
-42
-60
-89
-115
-140
-163
-168
-166
-192
-227
-235
-231
-239
-253
-278
-319
-352
-343
-316
-343
-383
-341
-324
-431
-578
-725
-470
797
2110
1634
-52
-814
-547
-443
-571
-562
-559
-614
-614
-599
-599
-581
-550
-504
-449
-428
-441
-446
-435
-421
-403
-388
-391
-373
-276
-109
65
232
385
469
470
430
348
214
85
17
-2
-4
-13
-26
-19
-3
-15
-43
-60
-79
-111
-139
-164
-178
-164
-126
-66
3
31
15
11
2
-45
-68
-32
-16
-55
-94
-104
-91
-57
-13
45
140
267
400
526
643
754
857
936
990
1030
1057
1064
1037
984
929
881
835
788
727
660
624
628
650
645
582
480
372
270
170
78
46
73
-2
-200
-361
-428
-38
1248
2381
1782
218
-406
-171
-127
-238
-218
-228
-276
-260
-252
-272
-274
-272
-277
-278
-289
-293
-268
-250
-259
-271
-295
-337
-364
-357
-316
-238
-168
-127
-58
32
53
2
-65
-162
-309
-458
-564
-631
-670
-688
-689
-669
-646
-645
-665
-681
-676
-669
-688
-715
-716
-700
-693
-695
-691
-677
-668
-674
-668
-627
-584
-564
-539
-497
-483
-523
-572
-575
-555
-564
-603
-640
-656
-647
-634
-633
-613
-560
-477
-342
-170
-29
81
209
344
456
546
615
664
719
778
803
792
774
763
766
734
607
462
362
249
142
59
131
949
2384
2746
1371
83
90
440
406
326
328
302
326
381
378
367
373
347
324
362
424
465
503
537
527
476
442
457
507
574
636
662
650
639
655
683
684
614
465
280
86
-97
-200
-193
-160
-153
-134
-107
-117
-150
-200
-302
-430
-505
-520
-528
-537
-520
-485
-471
-483
-503
-522
-539
-543
-540
-534
-521
-520
-531
-507
-444
-388
-352
-329
-337
-370
-389
-386
-384
-388
-388
-384
-373
-352
-338
-343
-334
-284
-208
-133
-77
-49
-56
-81
-72
-46
-59
-53
-18
-72
-182
-300
-316
432
1928
2376
955
-405
-384
-27
-88
-147
-107
-149
-150
-75
-44
-33
-5
-10
-44
-67
-102
-162
-203
-217
-239
-242
-186
-111
-81
-89
-73
6
96
131
163
269
401
458
412
297
179
108
67
24
-14
-26
-19
-7
-6
-18
-23
-9
13
37
73
110
128
138
156
173
179
182
196
222
244
250
251
264
282
279
259
243
237
234
239
252
261
261
257
222
115
-43
-164
-213
-271
-401
-517
-554
-582
-632
-637
-609
-606
-622
-647
-685
-710
-720
-717
-683
-658
-648
-565
-484
-533
-659
-768
-424
934
2341
2003
455
-229
89
251
181
239
285
269
307
338
324
320
318
304
300
304
304
302
296
287
283
287
