# session 29
-18
75
-295
252
2019
3161
3000
2672
2637
2532
2364
2278
2224
2140
2000
1866
1807
1759
1676
1596
1513
1425
1363
1290
1181
1090
1020
956
951
955
864
749
688
641
628
623
493
351
399
520
561
560
474
290
153
47
42
624
1645
1799
614
-528
-643
-371
-298
-275
-289
-347
-254
-150
-233
-303
-282
-311
-306
-237
-276
-344
-288
-223
-224
-211
-195
-197
-147
-46
6
7
63
172
210
201
257
257
61
-165
-278
-393
-552
-674
-762
-791
-735
-684
-678
-688
-715
-697
-614
-588
-616
-589
-576
-630
-612
-521
-502
-508
-467
-472
-501
-432
-354
-359
-348
-310
-313
-314
-303
-305
-284
-266
-287
-273
-222
-223
-224
-155
-116
-169
-199
-140
-98
-152
-198
-155
-125
-148
-148
-207
-199
478
1610
1781
656
-348
-465
-262
-114
-3
11
-20
-8
6
51
107
72
57
151
184
133
165
220
200
234
345
383
362
400
480
539
597
691
773
794
798
799
744
626
448
239
105
43
-72
-203
-226
-180
-159
-158
-142
-137
-174
-191
-134
-86
-107
-127
-102
-91
-124
-144
-124
-115
-146
-159
-125
-107
-151
-189
-159
-131
-144
-136
-125
-142
-131
-132
-171
-139
-81
-114
-125
-75
-93
-119
-55
-8
-32
-41
-19
-36
-119
-159
-94
-72
-137
-124
-106
-258
-490
-559
61
1620
2684
1697
-107
-622
-222
-161
-284
-216
-188
-205
-134
-154
-246
-131
100
151
84
83
90
65
68
30
-96
-136
9
160
198
288
531
719
686
587
585
608
573
502
391
231
50
-122
-220
-236
-277
-344
-340
-293
-272
-269
-277
-282
-254
-235
-263
-271
-228
-213
-240
-251
-251
-236
-170
-133
-179
-184
-119
-120
-175
-182
-169
-164
-144
-139
-150
-132
-135
-185
-188
-131
-96
-88
-80
-77
-85
-118
-167
-190
-197
-160
-31
15
-155
-350
-474
-260
928
2378
2079
248
-683
-251
-6
-231
-223
-92
-145
-177
-102
-88
-131
-116
-48
-38
-118
-128
5
74
3
-8
59
55
38
92
118
136
257
384
408
418
472
511
490
385
215
48
-67
-100
-89
-137
-214
-199
-143
-154
-171
-149
-185
-232
-136
-38
-145
-265
-186
-96
-164
-225
-145
-59
-98
-163
-162
-181
-216
-148
-54
-74
-115
-92
-99
-135
-104
-93
-139
-97
-27
-96
-152
-61
8
-6
-9
-22
-63
-83
-67
-17
26
4
-45
-68
-144
-364
-329
731
2258
2231
488
-625
-291
29
-139
-168
-119
-145
-39
45
-54
-84
17
45
15
26
45
51
39
3
34
169
255
195
124
159
238
280
314
367
423
492
517
402
263
242
180
-13
-122
-103
-141
-220
-216
-178
-187
-212
-200
-168
-164
-168
-145
-141
-186
-201
-138
-107
-188
-251
-208
-165
-167
-137
-86
-76
-105
-153
-211
-248
-216
-137
-122
-167
-144
-75
-89
-152
-164
-145
-140
-130
-106
-100
-115
-106
-75
-70
-72
-57
-86
-147
-135
-94
-126
-147
-118
-133
-204
-369
-341
680
2229
2225
477
-658
-382
-95
-225
-199
-99
-144
-153
-98
-92
-92
-49
-29
-93
-147
-58
78
86
35
52
74
70
105
141
133
135
166
209
279
346
360
354
358
310
191
60
-38
-92
-111
-135
-164
-170
-175
-193
-182
-161
-188
-209
-152
-103
-143
-181
-161
-150
-151
-118
-89
-108
-134
-125
-104
-94
-73
-56
-98
-155
-115
-27
-31
-77
-40
8
-37
-87
-79
-82
-91
-52
-10
-9
-18
-22
-10
39
74
45
9
6
-9
-19
6
30
30
1
-58
-159
-252
199
1565
2492
1491
-173
-516
-43
49
-33
23
4
-47
-25
-7
30
91
99
103
138
137
124
143
158
179
221
213
189
254
339
332
307
360
419
408
409
495
550
466
334
251
158
10
-148
-281
-364
-376
-382
-480
-669
-856
-942
-904
-847
-885
-963
-983
-992
-1030
-990
-835
-680
-564
-432
-310
-259
-252
-206
-107
-46
-41
-15
4
-41
-40
41
68
33
42
73
82
85
95
119
142
121
100
140
187
184
151
95
57
89
129
136
144
106
-30
-213
-77
960
2320
2229
624
-443
-257
42
8
8
25
-14
1
33
36
60
76
35
-30
-86
-138
-171
-145
-74
-31
-7
66
147
152
133
176
246
274
282
324
380
379
322
267
199
86
-14
-55
-80
-116
-117
-64
-55
-148
-200
-124
-85
-148
-158
-96
-74
-85
-82
-77
-71
-69
-84
-89
-73
-69
-71
-67
-80
-99
-93
-77
-73
-79
-88
-84
-76
-94
-127
-127
-105
-100
-112
-130
-148
-151
-141
-160
-225
-271
-272
-292
-313
-265
-238
-293
-375
-440
-36
1231
2198
1420
-119
-586
-228
-102
-151
-94
-85
-129
-108
-93
-116
-78
7
12
-47
-51
1
34
44
54
59
70
100
128
142
160
193
220
230
252
290
313
318
301
222
92
-9
-58
-93
-122
-135
-141
-145
-141
-135
-135
-135
-129
-123
-123
-118
-105
-101
-100
-90
-102
-139
-144
-119
-122
-149
-158
-153
-156
-158
-155
-153
-152
-149
-139
-129
-119
-98
-68
-40
-23
-28
-68
-102
-82
-62
-85
-64
-14
-73
-194
-295
-243
514
1840
2110
733
-492
-464
-137
-125
-96
-44
-96
-112
-96
-122
-111
-50
-22
-26
-9
30
44
32
59
123
144
111
100
135
177
198
213
254
307
329
319
310
289
236
169
84
-35
-125
-117
-75
-103
-171
-182
-153
-144
-140
-130
-142
-155
-140
-119
-127
-153
-146
-99
-89
-136
-150
-118
-108
-114
-108
-114
-114
-82
-76
-106
-109
-94
-99
-89
-59
-64
-82
-56
-22
-24
-41
-68
-95
-94
-95
-104
-72
-68
-149
-261
-371
-35
1265
2407
1679
-30
-602
-210
-101
-203
-144
-133
-186
-146
-107
-134
-139
-106
-91
-97
-87
-52
-21
-8
-3
2
17
42
69
93
119
140
160
192
226
237
233
224
193
136
60
-21
-83
-112
-122
-131
-151
-175
-171
-142
-128
-142
-147
-129
-120
-136
-145
-145
-177
-199
-139
-66
-68
-98
-101
-105
-119
-116
-111
-138
-155
-95
-23
-34
-80
-81
-64
-65
-61
-39
-12
9
-7
-70
-133
-153
-154
-176
-176
-145
-180
-279
-386
-360
391
1846
2340
1006
-371
-408
-47
-94
-166
-112
-117
-123
-92
-84
-76
-54
-34
-15
-9
-11
11
37
45
60
81
90
115
165
179
154
177
252
280
266
288
300
248
194
144
47
-36
-56
-69
-95
-101
-97
-97
-95
-106
-120
-104
-73
-62
-66
-67
-61
-56
-62
-67
-48
-14
-12
-46
-67
-54
-37
-25
-24
-41
-47
-36
-37
-33
-11
-18
-54
-50
-2
33
32
5
-41
-70
-47
-41
-105
-127
-89
-136
-218
-263
-201
563
1973
2278
804
-455
-345
-47
-186
-215
-127
-183
-192
-99
-99
-150
-135
-118
-136
-112
-47
-37
-71
-49
-2
-16
-33
5
-19
-138
-195
-158
-139
-117
-16
72
67
42
19
-61
-157
-194
-199
-213
-225
-228
-239
-261
-264
-242
-238
-245
-214
-193
-211
-192
-172
-257
-331
-264
-188
-209
-223
-185
-169
-181
-175
-155
-154
-160
-148
-153
-179
-127
-36
-93
-212
-142
19
32
-21
7
28
-28
-77
-61
-38
-51
-46
-1
7
-61
-144
23
826
1848
1782
482
-499
-397
-50
6
28
87
76
70
98
112
127
156
178
202
225
229
252
323
384
380
370
429
499
498
498
564
616
626
671
721
715
709
661
421
100
-12
31
-95
-378
-549
-635
-801
-892
-733
-467
-259
-98
20
78
121
188
254
291
310
325
348
388
430
439
437
470
507
475
380
281
167
-37
-309
-486
-505
-530
-647
-696
-608
-539
-559
-590
-592
-554
-509
-541
-583
-521
-482
-604
-831
-881
-116
1341
1745
317
-1053
-1020
-633
-687
-736
-648
-657
-682
-661
-662
-646
-603
-591
-561
-463
-381
-347
-255
-94
24
105
252
444
587
682
766
833
886
925
940
955
972
915
773
648
561
446
344
327
338
305
260
245
241
228
215
198
162
115
81
83
106
97
33
-22
-24
-21
-55
-92
-104
-99
-100
-111
-117
-114
-128
-137
-110
-107
-148
-162
-195
-315
-386
-370
-412
-482
-485
-494
-528
-542
-550
-548
-601
-766
-934
-994
-520
869
1908
981
-772
-1278
-948
-968
-1103
-1046
-1069
-1135
-1093
-1057
-1056
-963
-724
-407
-120
101
265
351
396
493
605
647
678
768
848
876
919
994
1054
1096
1123
1071
932
810
751
687
595
534
524
532
546
570
591
595
595
590
576
567
555
508
452
419
389
386
453
519
508
460
433
431
399
264
97
31
-6
-145
-324
-453
-544
-585
-574
-581
-601
-575
-537
-526
-512
-512
-558
-567
-505
-458
-368
-122
127
224
231
290
854
2069
2564
1218
-486
-823
-461
-449
-539
-495
-513
-553
-545
-557
-550
-505
-522
-569
-523
-429
-390
-380
-352
-338
-341
-320
-259
-184
-130
-106
-104
-93
-30
61
87
52
25
-33
-164
-285
-335
-366
-429
-507
-542
-491
-412
-385
-391
-383
-364
-346
-325
-306
-285
-271
-284
-286
-243
-211
-220
-215
-186
-167
-160
-159
-156
-131
-107
-110
-111
-92
-79
-80
-81
-83
-77
-64
-63
-64
-40
-14
-17
-36
-67
-99
-95
-87
-123
-117
-72
-144
-275
-388
-401
390
2003
2486
965
-409
-286
89
3
9
146
213
374
580
667
719
784
801
792
785
774
775
785
792
803
797
777
785
808
812
823
846
838
804
775
750
716
639
493
342
243
149
44
-27
-78
-142
-174
-151
-164
-257
-316
-283
-274
-343
-380
-338
-303
-325
-360
-357
-331
-321
-321
-301
-287
-315
-334
-312
-317
-350
-329
-294
-323
-347
-331
-350
-375
-333
-288
-300
-323
-324
-297
-263
-254
-239
-211
-265
-362
-359
-328
-377
-376
-308
-340
-466
-628
-531
502
1923
1794
95
-923
-630
-362
-489
-494
-436
-475
-477
-437
-423
-412
-405
-407
-386
-357
-346
-336
-317
-302
-288
-256
-196
-100
13
89
117
164
238
264
251
284
329
301
231
166
76
-31
-94
-110
-102
-84
-80
-75
-42
-10
-6
10
48
70
63
33
-5
-25
-17
-14
-25
-27
-4
35
78
109
123
132
151
174
177
152
125
118
123
127
132
138
148
159
153
132
125
143
159
149
132
143
187
228
227
182
141
146
149
116
116
133
94
27
-76
63
1058
2322
2136
635
-216
2
180
97
124
153
108
124
159
160
175
187
179
185
198
209
223
205
181
214
265
272
268
276
281
296
316
319
318
317
295
265
240
172
40
-101
-232
-399
-582
-689
-730
-800
-923
-1056
-1161
-1191
-1123
-997
-858
-744
-688
-665
-629
-571
-511
-471
-448
-420
-387
-357
-315
-254
-193
-145
-111
-83
-59
-44
-22
25
58
55
61
83
79
63
77
102
107
113
131
158
193
225
231
219
200
183
179
160
132
166
199
111
-21
-115
-5
787
1823
1461
-328
-1383
-965
-471
-463
-387
-230
-220
-198
-101
-58
-93
-154
-192
-168
-105
-43
16
64
94
127
168
196
200
206
237
278
296
295
311
340
356
348
318
265
209
160
109
65
38
25
22
24
10
-13
-14
-5
-15
-12
18
30
16
10
11
0
-15
-20
-10
2
-8
-30
-22
5
10
-1
-6
-11
-24
-34
-33
-28
-39
-57
-50
-21
-9
-22
-42
-54
-54
-52
-48
-38
-41
-46
-17
24
28
-8
-48
-60
-55
-72
-76
-46
-78
-173
-264
-259
329
1583
2113
1024
-240
-377
-119
-176
-222
-158
-182
-220
-208
-200
-172
-139
-150
-155
-120
-85
-74
-77
-75
-48
-17
-22
-22
28
84
101
111
141
167
178
188
196
191
150
64
-27
-71
-77
-92
-112
-118
-117
-119
-118
-115
-112
-110
-112
-116
-113
-111
-119
-127
-127
-126
-129
-129
-125
-122
-129
-140
-140
-132
-130
-129
-130
-135
-132
-116
-109
-113
-107
-99
-99
-99
-98
-105
-106
-82
-56
-43
-33
-22
-10
7
7
-29
-67
-66
-61
-66
-46
-36
-83
-136
-198
-99
685
1819
1832
512
-485
-409
-138
-137
-120
-56
-70
-93
-69
-36
-14
-4
-1
0
8
31
59
80
94
98
112
152
182
175
186
250
310
320
317
332
346
335
290
215
109
-19
-114
-129
-119
-153
-192
-191
-181
-182
-178
-170
-168
-164
-155
-144
-140
-137
-121
-103
-111
-130
-128
-123
-135
-136
-119
-122
-143
-132
-107
-116
-138
-128
-105
-99
-103
-109
-110
-105
-108
-115
-95
-54
-29
-25
-25
-50
-89
-87
-75
-112
-113
-53
-87
-226
-370
-319
508
1955
2293
847
-488
-471
-126
-171
-186
-93
-114
-154
-130
-101
-82
-83
-97
-73
-22
-5
-10
5
39
55
51
75
135
174
178
196
246
289
307
325
350
348
295
199
78
-34
-96
-124
-154
-180
-187
-193
-199
-188
-174
-171
-166
-163
-171
-168
-142
-120
-117
-122
-126
-127
-115
-100
-102
-111
-106
-101
-104
-97
-86
-91
-97
-89
-75
-68
-72
-83
-77
-60
-70
-91
-75
-43
-39
-46
-42
-40
-34
-14
12
26
10
-29
-42
-20
-30
-60
-21
-3
-107
-230
-328
-105
1062
2459
2205
512
-439
-211
-37
-151
-136
-98
-133
-115
-83
-88
-83
-77
-70
-40
-25
-28
0
37
48
59
82
97
114
143
166
186
223
263
290
307
318
311
273
191
81
-16
-81
-133
-170
-179
-172
-171
-172
-172
-171
-165
-160
-164
-167
-160
-162
-173
-161
-133
-127
-141
-143
-128
-123
-131
-133
-123
-119
-127
-125
-109
-104
-116
-122
-123
-126
-124
-119
-122
-130
-137
-136
-132
-138
-141
-123
-106
-114
-122
-113
-108
-110
-106
-89
-66
-54
-74
-112
-121
-94
-100
-127
-104
-113
-216
-332
-422
-69
1245
2446
1804
91
-579
-243
-118
-225
-189
-167
-199
-171
-147
-158
-136
-103
-98
-95
-81
-66
-46
-18
1
8
35
76
98
109
136
