# session 18
91
-93
417
165
-1789
-3565
-3609
-3073
-3023
-2920
-2514
-2167
-1873
-1555
-1326
-1158
-985
-853
-756
-651
-563
-498
-414
-316
-229
-134
-23
67
120
144
129
77
15
-38
-78
-114
-147
-157
-152
-159
-167
-159
-165
-194
-211
-204
-201
-209
-220
-225
-210
-184
-174
-180
-189
-200
-200
-181
-170
-173
-169
-160
-163
-171
-170
-165
-164
-164
-154
-134
-122
-130
-132
-107
-77
-70
-71
-53
-17
0
-10
-11
1
-11
-21
-2
-3
-5
41
27
-92
-230
-295
273
1844
2916
1842
-41
-564
-142
-22
-83
-11
13
12
75
101
95
132
177
204
237
271
296
323
364
415
472
535
600
652
679
688
669
590
455
304
161
43
-27
-62
-92
-113
-113
-114
-129
-138
-136
-138
-146
-147
-141
-135
-134
-141
-149
-151
-153
-157
-153
-149
-155
-158
-153
-150
-156
-159
-154
-151
-152
-154
-154
-155
-155
-152
-146
-141
-145
-155
-160
-157
-151
-147
-143
-136
-124
-116
-112
-100
-77
-60
-63
-66
-60
-76
-111
-114
-107
-132
-117
-88
-179
-336
-488
-357
824
2576
2662
738
-673
-509
-174
-264
-256
-174
-203
-189
-133
-127
-110
-69
-48
-26
8
33
62
105
151
198
258
326
388
435
464
464
416
314
182
54
-48
-119
-166
-191
-199
-194
-187
-182
-176
-173
-174
-176
-175
-174
-175
-169
-157
-149
-143
-135
-124
-117
-115
-115
-113
-109
-108
-109
-109
-108
-105
-100
-96
-98
-102
-106
-108
-107
-107
-110
-112
-111
-110
-111
-110
-108
-108
-112
-114
-114
-114
-114
-114
-111
-111
-113
-110
-103
-98
-95
-84
-65
-54
-60
-63
-63
-87
-111
-106
-122
-135
-94
-120
-256
-395
-472
42
1599
2768
1809
-66
-659
-303
-231
-319
-253
-239
-269
-232
-210
-214
-189
-160
-142
-118
-96
-68
-30
6
48
109
174
231
283
322
349
373
377
338
284
265
278
294
308
334
386
465
513
489
443
422
391
337
298
272
234
198
173
142
101
60
20
-20
-51
-70
-82
-95
-115
-137
-150
-149
-154
-177
-201
-209
-211
-221
-230
-229
-229
-235
-242
-250
-259
-258
-252
-252
-251
-250
-253
-251
-245
-246
-243
-234
-226
-220
-214
-213
-207
-190
-187
-201
-194
-161
-140
-145
-144
-132
-145
-175
-172
-167
-188
-164
-135
-213
-344
-466
-272
910
2458
2332
475
-749
-538
-206
-243
-213
-151
-176
-148
-90
-76
-41
10
37
67
105
129
158
205
255
307
373
447
515
570
609
623
584
475
317
156
23
-78
-148
-187
-197
-201
-212
-221
-221
-225
-232
-231
-223
-216
-209
-202
-198
-195
-185
-171
-162
-161
-155
-143
-140
-143
-138
-130
-129
-127
-118
-105
-96
-91
-94
-96
-92
-88
-85
-83
-79
-76
-73
-72
-71
-66
-64
-65
-62
-57
-55
-53
-41
-21
-6
-6
-8
1
-8
-45
-51
-41
-66
-52
-15
-107
-270
-418
-323
796
2621
2883
978
-571
-469
-110
-210
-226
-140
-169
-165
-108
-99
-87
-49
-26
-5
27
56
84
119
159
208
269
335
400
457
499
514
483
390
254
113
-3
-88
-146
-183
-202
-207
-205
-202
-196
-192
-192
-194
-195
-194
-192
-188
-184
-179
-174
-169
-163
-155
-147
-144
-141
-135
-130
-131
-132
-131
-129
-123
-116
-112
-109
-106
-105
-104
-100
-94
-89
-87
-88
-86
-82
-78
-76
-74
-72
-73
-72
-69
-67
-66
-66
-67
-66
-65
-65
-64
-64
-63
-59
-53
-50
-45
-27
-7
-2
-7
-6
-15
-45
-52
-39
-58
-46
-2
-77
-240
-380
-349
534
2260
2865
1303
-366
-499
-135
-186
-233
-148
-163
-177
-131
-123
-118
-83
-60
-46
-18
10
38
73
109
152
205
261
317
375
421
445
443
400
304
180
65
-24
-88
-129
-154
-169
-175
-171
-166
-162
-157
-152
-149
-150
-149
-145
-144
-143
-142
-140
-137
-133
-130
-127
-131
-139
-140
-130
-121
-116
-102
-86
-82
-83
-79
-79
-89
-97
-97
-93
-92
-105
-111
-86
-54
-59
-76
-72
-63
-70
-78
-74
-69
-68
-69
-63
-52
-47
-42
-30
-21
-18
-17
-18
-44
-78
-71
-64
-103
-94
-60
-153
-312
-450
-325
790
2481
2616
798
-593
-486
-178
-265
-271
-198
-218
-209
-171
-162
-135
-101
-89
-65
-29
-2
35
88
134
174
226
300
383
451
503
541
535
463
333
175
35
-51
-101
-152
-190
-190
-178
-185
-201
-207
-202
-193
-184
-186
-192
-186
-171
-166
-169
-165
-151
-137
-128
-123
-118
-110
-106
-105
-104
-105
-103
-94
-91
-94
-92
-87
-91
-94
-82
-79
-98
-105
-89
-84
-94
-91
-80
-79
-66
-32
-35
-88
-114
-108
-135
-133
-74
-125
-290
-455
-491
310
2108
2906
1340
-525
-699
-201
-186
-240
-142
-141
-147
-90
-82
-75
-12
30
42
70
102
130
168
212
261
322
391
458
524
581
602
563
465
324
151
-14
-119
-171
-219
-270
-295
-301
-299
-284
-274
-289
-301
-288
-272
-266
-246
-214
-205
-212
-194
-159
-145
-149
-147
-139
-129
-122
-124
-124
-114
-104
-101
-100
-91
-82
-84
-85
-68
-54
-61
-68
-60
-56
-62
-68
-76
-87
-87
-84
-94
-107
-106
-95
-76
-47
-28
-37
-48
-44
-65
-97
-88
-87
-110
-74
-71
-205
-363
-497
-173
1373
3055
2529
364
-667
-298
-114
-252
-194
-141
-180
-140
-98
-105
-78
-39
-24
-1
37
72
94
112
154
217
279
354
445
508
531
546
537
453
309
159
26
-69
-112
-127
-143
-163
-179
-187
-187
-186
-191
-194
-192
-193
-191
-182
-177
-180
-179
-170
-166
-168
-165
-158
-152
-157
-171
-168
-144
-137
-149
-138
-109
-107
-128
-134
-125
-119
-118
-112
-103
-108
-114
-104
-90
-92
-95
-84
-76
-97
-122
-102
-56
-44
-68
-80
-65
-48
-51
-70
-65
-25
-5
-15
-6
18
-1
-51
-57
-45
-77
-72
-19
-86
-252
-392
-350
530
2227
2818
1282
-363
-505
-149
-189
-229
-157
-188
-198
-130
-108
-118
-101
-73
-44
-18
6
48
97
122
145
196
257
315
381
446
483
483
442
353
227
98
-2
-74
-139
-187
-186
-163
-174
-202
-199
-176
-163
-163
-167
-164
-150
-147
-163
-170
-158
-143
-135
-131
-131
-137
-144
-143
-125
-107
-110
-124
-125
-113
-102
-99
-96
-89
-90
-90
-85
-91
-102
-95
-85
-86
-80
-72
-77
-80
-74
-68
-61
-58
-60
-55
-44
-33
-13
11
14
3
0
-8
-45
-68
-54
-64
-84
-42
-41
-163
-316
-427
-25
1433
2738
1997
67
-718
-362
-181
-240
-178
-153
-182
-143
-107
-98
-62
-19
12
44
76
113
153
178
209
268
333
392
464
538
581
585
555
469
318
147
7
-93
-168
-220
-249
-263
-268
-267
-269
-270
-268
-265
-263
-257
-252
-249
-244
-235
-225
-215
-209
-206
-197
-188
-188
-190
-185
-181
-182
-179
-168
-157
-149
-144
-141
-138
-131
-127
-127
-125
-119
-113
-110
-105
-100
-97
-96
-91
-83
-79
-77
-73
-63
-46
-27
-14
-16
-20
-21
-45
-74
-59
-51
-80
-52
-27
-145
-316
-471
-271
1095
2901
2751
650
-659
-400
-121
-241
-208
-127
-156
-127
-69
-59
-32
13
38
67
102
128
158
193
229
276
333
392
457
525
574
594
583
519
390
225
74
-38
-116
-170
-205
-224
-233
-238
-244
-250
-251
-245
-241
-252
-262
-253
-243
-244
-242
-234
-231
-222
-212
-214
-209
-185
-171
-172
-169
-165
-165
-153
-131
-116
-111
-109
-103
-93
-89
-92
-86
-77
-74
-71
-64
-62
-59
-54
-51
-51
-50
-48
-43
-40
-44
-48
-44
-41
-43
-39
-32
-29
-23
-4
14
16
10
10
-3
-36
-44
-38
-61
-52
-13
-92
-250
-386
-348
558
2298
2873
1278
-384
-502
-142
-198
-243
-160
-177
-188
-142
-133
-125
-88
-65
-46
-18
4
28
63
102
142
186
235
289
343
390
424
435
412
347
244
126
22
-54
-103
-131
-152
-168
-176
-181
-184
-182
-182
-183
-180
-177
-177
-173
-169
-168
-164
-166
-171
-164
-148
-141
-137
-132
-136
-141
-137
-131
-131
-129
-126
-122
-114
-105
-99
-98
-97
-92
-87
-84
-80
-76
-76
-75
-74
-74
-69
-62
-63
-60
-43
-34
-46
-54
-51
-48
-42
-30
-24
-17
7
31
30
16
3
-21
-43
-44
-54
-63
-27
-34
-144
-269
-380
-103
1169
2532
2099
296
-647
-388
-157
-204
-170
-130
-140
-108
-82
-75
-35
2
18
43
68
81
106
145
182
221
269
324
386
444
488
514
514
467
361
218
79
-36
-122
-178
-205
-219
-236
-252
-253
-242
-239
-245
-243
-235
-234
-235
-225
-210
-202
-201
-205
-208
-204
-193
-183
-179
-177
-177
-176
-173
-167
-157
-143
-134
-132
-127
-118
-110
-108
-106
-103
-98
-94
-92
-89
-88
-87
-77
-65
-62
-63
-48
-21
-9
-16
-18
-14
-37
-65
-55
-58
-80
-44
-47
-183
-342
-465
-92
1445
2968
2315
242
-657
-289
-127
-243
-183
-141
-176
-138
-99
-101
-76
-43
-24
7
42
64
89
125
165
210
265
328
392
451
493
509
497
436
317
166
32
-69
-139
-182
-205
-218
-225
-228
-232
-234
-232
-225
-220
-219
-215
-205
-197
-191
-185
-177
-171
-164
-155
-147
-141
-134
-128
-125
-124
-122
-119
-114
-107
-102
-99
-93
-87
-84
-81
-78
-76
-73
-68
-65
-64
-64
-66
-67
-67
-63
-58
-56
-55
-48
-40
-37
-33
-17
3
9
3
6
-1
-33
-45
-37
-58
-52
-12
-82
-233
-363
-316
565
2224
2758
1225
-365
-482
-144
-200
-245
-170
-190
-199
-151
-142
-137
-102
-78
-61
-36
-14
10
44
77
111
154
204
259
316
362
395
415
402
337
230
112
8
-76
-139
-177
-191
-195
-194
-188
-182
-172
-157
-148
-151
-152
-147
-146
-149
-147
-142
-140
-136
-131
-132
-135
-130
-118
-110
-108
-107
-105
-108
-110
-99
-87
-89
-94
-92
-90
-91
-92
-88
-86
-89
-91
-87
-77
-72
-78
-83
-75
-68
-74
-80
-73
-62
-59
-63
-54
-20
9
2
-11
-11
-29
-60
-58
-57
-70
-38
-25
-122
-260
-384
-135
1096
2497
2168
390
-620
-401
-165
-208
-168
-128
-158
-134
-83
-56
-36
-21
1
41
72
96
134
167
187
225
292
362
419
477
535
569
572
537
435
281
129
7
-86
-147
-177
-199
-217
-226
-234
-240
-230
-216
-224
-235
-222
-206
-212
-216
-202
-192
-196
-200
-198
-193
-187
-185
-187
-184
-180
-179
-176
-171
-165
-158
-156
-158
-155
-143
-131
-130
-138
-138
-127
-119
-120
-120
-121
-118
-104
-93
-95
-84
-56
-43
-47
-43
-38
-63
-96
-86
-80
-109
-88
-63
-167
-326
-471
-299
934
2625
2575
649
-651
-458
-160
-248
-233
-164
-192
-174
-127
-121
-99
-62
-48
-30
3
29
53
83
114
152
204
265
328
390
445
483
497
471
391
267
130
5
-91
-152
-189
-207
-197
-167
-143
-108
-47
-4
-7
-25
-35
-45
-51
-54
-60
-58
-45
-42
-53
-62
-64
-64
-63
-65
-67
-61
-56
-65
-73
-68
-61
-61
-64
-63
-58
-55
-53
-42
-30
-32
-48
-58
-62
-73
-83
-83
-83
-90
-98
-102
-108
-114
-117
-121
-126
-125
-116
-98
-75
-61
-63
-69
-63
-58
-84
-115
-104
-104
-129
-100
-98
-227
-381
-500
-216
1152
2713
2357
422
-640
-404
-226
-340
-307
-262
-295
-265
-226
-231
-217
-194
-182
-153
-120
-95
-60
-18
15
54
109
162
215
285
358
414
447
436
369
274
180
94
28
-5
-11
-7
-6
-12
-13
5
33
47
40
27
18
11
-4
-26
-45
-57
-63
-63
-60
-58
-52
-52
-73
-98
-106
-109
-123
-127
-123
-129
-142
-149
-154
-158
-159
-160
-156
-145
-141
-146
-142
-124
-114
-119
-124
-116
-103
-102
-106
-104
-101
-97
-83
-75
-88
-96
-80
-63
-58
-47
-28
-17
-11
-1
2
-25
-59
-57
-54
-78
-58
-25
-103
-253
-395
-217
955
2548
2520
702
-583
-435
-123
-183
-181
-124
-143
-126
-94
-96
-65
-18
-2
15
46
71
103
148
190
233
286
346
413
487
550
589
613
602
517
369
206
56
-63
-137
-183
-216
-235
-241
-245
-251
-258
-261
-259
-254
-249
-243
-239
-236
-231
-225
-220
-210
-204
-208
-211
-204
-197
-196
-195
-193
-193
-192
-184
-178
-182
-187
-183
-173
-164
-165
-167
-160
-146
-138
-137
-137
-137
-133
-127
-120
-116
-112
-115
-121
-115
-102
-98
-96
-80
-59
-51
-55
-51
-53
-84
-103
-84
-98
-117
-68
-88
-246
-410
-509
13
1707
3061
2067
-14
-679
-258
-171
-280
-199
-176
-208
-160
-131
-136
-105
-72
-55
-26
8
36
67
102
140
188
245
308
375
447
511
549
557
524
428
288
152
40
-50
-107
-133
-148
-159
-166
-169
-170
-165
-160
-158
-156
-148
-136
-126
-120
-113
-104
-94
-87
-80
-70
-58
-50
-46
-41
-34
-28
-24
-17
-9
-3
4
10
9
4
6
10
12
13
14
16
19
24
24
20
19
21
22
20
18
19
23
24
17
15
21
23
20
24
28
30
36
50
59
56
50
45
20
-15
-15
-15
-45
-26
-4
-119
-293
-440
-289
888
2583
2640
789
-561
-449
-193
-309
-318
-261
-303
-303
-267
-276
-276
-254
-249
-246
-228
-211
-195
-176
-153
-121
-81
-39
12
72
124
158
178
175
139
74
3
-57
-105
-146
-162
-144
-119
-108
-93
-70
-61
-44
1
34
20
-5
0
11
-6
-23
-13
4
7
5
-3
-19
-36
-53
-80
-120
-152
-166
-179
-206
-225
-219
-205
-200
-206
-218
-229
-227
-214
-195
-168
-150
-167
-192
-190
-185
-204
-223
-244
-275
-275
-256
-310
-429
-482
-432
-355
-274
-170
-68
11
77
120
134
153
191
221
240
260
263
246
250
267
241
223
280
281
154
20
-63
328
1731
3018
2348
511
-251
40
92
-82
-41
22
11
47
74
69
120
