# session 4
-29
-42
-16
11
-51
-171
-213
-159
-111
-101
-85
-55
-48
-67
-47
19
22
-25
11
27
-97
-217
-370
-314
922
2791
2770
685
-655
-380
-60
-135
-81
-40
-119
-99
-45
-48
-34
-16
-8
26
40
35
80
133
143
164
209
238
273
320
330
316
325
321
250
140
47
-16
-53
-71
-82
-93
-108
-119
-103
-71
-64
-83
-93
-90
-97
-107
-105
-116
-155
-174
-149
-131
-140
-148
-159
-175
-177
-201
-252
-240
-211
-258
-272
-232
-294
-416
-548
-459
664
2386
2398
393
-963
-669
-282
-373
-357
-275
-311
-301
-252
-243
-218
-170
-124
-72
-38
-17
35
104
144
166
200
232
236
236
252
251
223
194
150
72
-4
-62
-119
-146
-110
-44
19
93
181
246
272
308
363
342
214
81
3
-59
-124
-172
-205
-228
-226
-205
-208
-243
-260
-260
-287
-318
-335
-375
-377
-331
-376
-494
-620
-644
120
1705
2193
613
-935
-916
-499
-561
-587
-463
-451
-426
-321
-243
-167
-80
-31
15
67
92
123
166
167
158
200
263
292
298
311
337
354
340
302
249
170
58
-55
-115
-110
-83
-62
-48
-48
-67
-84
-91
-91
-85
-60
-29
-30
-62
-72
-42
-15
-4
11
34
65
118
161
149
124
130
100
46
79
117
9
-226
-428
44
1626
2852
1949
77
-540
-176
-92
-194
-132
-115
-176
-172
-141
-135
-140
-149
-156
-154
-143
-123
-95
-47
23
85
120
146
184
224
239
220
187
131
29
-76
-138
-191
-242
-238
-193
-180
-206
-222
-200
-153
-117
-103
-86
-62
-59
-68
-58
-44
-55
-78
-89
-84
-66
-50
-94
-215
-316
-322
-318
-363
-388
-375
-343
-287
-291
-380
-493
-597
-157
1318
2474
1641
-16
-486
-192
-214
-294
-199
-194
-204
-120
-96
-130
-117
-88
-65
-35
-30
-43
-27
6
29
69
138
188
196
189
179
168
152
99
15
-55
-104
-160
-207
-204
-171
-159
-158
-133
-125
-158
-148
-92
-94
-117
-78
-51
-87
-101
-76
-69
-69
-51
-38
-40
-42
-55
-82
-78
-36
-27
-36
4
-17
-167
-306
-434
-226
1064
2589
2205
274
-688
-312
-60
-150
-98
-41
-65
-19
21
6
23
41
19
27
75
117
146
157
154
179
230
272
312
340
336
330
323
257
142
46
-26
-102
-154
-169
-190
-235
-267
-263
-243
-249
-278
-290
-287
-298
-308
-304
-306
-312
-304
-289
-260
-217
-194
-196
-190
-175
-183
-197
-191
-195
-191
-149
-171
-281
-431
-627
-224
1432
2801
1854
-133
-728
-316
-240
-306
-190
-162
-195
-149
-121
-122
-96
-83
-83
-51
-9
21
50
71
88
145
236
286
291
309
335
335
316
273
186
96
42
-7
-64
-87
-73
-64
-51
-18
4
5
18
40
46
46
57
64
55
45
38
18
-13
-37
-43
-44
-63
-92
-105
-115
-135
-132
-131
-177
-182
-159
-258
-422
-566
-496
516
2177
2359
539
-867
-671
-266
-351
-369
-260
-256
-257
-218
-201
-187
-172
-153
-109
-67
-40
-12
9
32
78
111
115
117
127
148
177
178
145
95
13
-80
-141
-180
-207
-198
-178
-177
-171
-154
-143
-124
-102
-99
-89
-57
-37
-35
-48
-62
-49
-37
-59
-63
-22
4
-3
-3
-9
-26
-24
-31
-56
-27
-9
-95
-204
-348
-256
854
2383
2204
337
-770
-470
-183
-280
-258
-202
-237
-209
-157
-158
-141
-97
-61
-28
-11
-11
13
61
96
123
160
194
210
215
212
207
205
188
127
31
-58
-122
-178
-227
-246
-228
-206
-207
-210
-192
-175
-173
-169
-159
-155
-146
-122
-106
-116
-125
-118
-112
-101
-74
-50
-53
-75
-83
-58
-43
-69
-60
-34
-104
-263
-454
-259
1047
2648
2376
428
-676
-373
-94
-170
-131
-83
-116
-89
-58
-73
-52
-21
-20
-4
27
46
69
99
116
144
193
227
234
247
272
287
265
194
91
-7
-87
-154
-201
-223
-233
-243
-253
-253
-245
-238
-230
-227
-246
-262
-237
-201
-194
-207
-219
-232
-235
-214
-196
-197
-200
-207
-234
-238
-205
-216
-248
-215
-233
-356
-505
-645
-145
1551
2814
1735
-213
-667
-204
-151
-229
-122
-106
-134
-82
-61
-65
-31
-2
8
31
62
94
125
151
178
212
243
265
277
276
267
262
248
196
116
37
-24
-60
-73
-74
-68
-58
-49
-38
-18
4
17
22
26
30
23
2
-24
-40
-54
-77
-98
-101
-92
-89
-84
-73
-82
-101
-88
-88
-123
-103
-67
-146
-282
-443
-375
669
2258
2350
680
-511
-380
-155
-251
-223
-164
-215
-215
-176
-185
-185
-162
-152
-147
-142
-136
-124
-106
-83
-52
-19
8
26
26
15
17
26
10
-41
-113
-185
-233
-248
-246
-244
-241
-234
-226
-217
-212
-212
-215
-215
-209
-204
-209
-216
-218
-225
-235
-229
-207
-190
-187
-180
-167
-172
-180
-169
-188
-212
-155
-135
-245
-391
-588
-374
1063
2635
2111
167
-648
-287
-175
-292
-205
-152
-160
-74
8
50
122
204
266
324
387
453
503
534
576
627
655
662
664
659
639
589
511
412
301
192
99
21
-38
-73
-88
-94
-106
-123
-127
-124
-131
-140
-147
-169
-189
-182
-175
-190
-206
-215
-224
-219
-201
-201
-215
-230
-255
-264
-253
-252
-239
-246
-333
-470
-620
-339
1006
2390
1811
-114
-950
-538
-306
-384
-314
-251
-285
-273
-241
-230
-209
-183
-155
-127
-107
-75
-29
16
63
120
179
228
254
266
269
246
200
134
26
-103
-197
-246
-273
-286
-293
-292
-283
-278
-271
-252
-239
-229
-215
-224
-245
-225
-187
-191
-218
-208
-162
-141
-164
-166
-122
-109
-138
-139
-130
-121
-69
-64
-199
-413
-530
45
1618
2697
1718
-40
-519
-115
-1
-47
32
45
13
43
70
73
81
97
132
155
147
163
222
268
275
287
331
367
365
358
366
343
261
155
59
-28
-96
-143
-181
-207
-205
-193
-192
-193
-181
-168
-163
-156
-149
-153
-157
-150
-145
-146
-149
-151
-148
-142
-138
-122
-104
-121
-146
-137
-136
-138
-101
-123
-254
-463
-612
48
1830
2873
1564
-347
-699
-235
-183
-250
-166
-160
-184
-153
-148
-144
-112
-101
-95
-73
-52
-28
9
47
78
102
124
150
161
148
138
138
120
73
5
-80
-152
-185
-194
-205
-211
-202
-190
-187
-189
-185
-172
-164
-170
-179
-182
-182
-179
-170
-169
-177
-171
-151
-145
-142
-120
-123
-156
-147
-131
-153
-124
-97
-209
-395
-646
-570
822
2785
2703
590
-647
-317
-86
-261
-221
-140
-182
-157
-115
-123
-101
-74
-78
-56
-18
-5
11
46
74
96
129
155
169
186
204
214
220
204
143
61
3
-32
-59
-71
-61
-50
-53
-65
-69
-62
-62
-73
-80
-76
-74
-78
-83
-86
-95
-107
-102
-83
-78
-74
-62
-76
-93
-82
-98
-116
-68
-76
-201
-376
-547
-84
1484
2556
1452
-306
-598
-128
-115
-210
-117
-113
-147
-104
-94
-105
-81
-66
-62
-39
-17
0
31
67
95
119
141
157
169
172
160
139
112
66
-2
-63
-99
-118
-131
-136
-137
-137
-137
-130
-125
-131
-134
-126
-125
-131
-130
-124
-124
-127
-139
-150
-138
-117
-104
-83
-80
-115
-125
-112
-142
-136
-81
-134
-273
-455
-573
159
1800
2368
930
-434
-389
-99
-217
-223
-123
-156
-166
-122
-118
-107
-86
-86
-68
-28
-6
13
37
54
70
87
95
99
104
104
103
102
93
71
32
-16
-47
-58
-71
-89
-94
-88
-83
-85
-92
-101
-108
-109
-109
-120
-135
-132
-114
-110
-130
-147
-132
-98
-72
-50
-44
-62
-60
-47
-64
-52
-15
-75
-224
-462
-522
442
2112
2358
741
-445
-263
-16
-153
-145
-71
-124
-133
-87
-83
-79
-58
-45
-22
5
24
50
85
95
93
116
152
162
154
157
171
174
147
91
27
-26
-68
-96
-106
-110
-119
-130
-139
-146
-146
-149
-156
-157
-155
-162
-166
-157
-152
-147
-146
-155
-152
-132
-121
-113
-109
-134
-151
-141
-149
-141
-111
-153
-259
-412
-423
390
1812
2013
514
-645
-461
-116
-178
-178
-99
-116
-118
-91
-95
-84
-59
-52
-35
-2
25
51
82
108
131
152
160
159
156
156
160
164
155
122
64
4
-32
-48
-66
-84
-91
-86
-80
-80
-79
-73
-68
-68
-66
-62
-60
-64
-70
-75
-82
-84
-70
-50
-41
-34
-35
-61
-78
-75
-91
-93
-65
-106
-217
-365
-439
183
1547
2028
775
-483
-466
-130
-188
-224
-153
-172
-175
-128
-122
-118
-91
-78
-60
-24
0
19
46
74
98
119
131
140
148
147
147
161
171
148
93
35
3
-7
-14
-25
-36
-46
-55
-65
-75
-77
-73
-80
-92
-90
-75
-65
-71
-89
-115
-138
-132
-106
-96
-90
-80
-94
-116
-117
-132
-144
-109
-123
-221
-348
-502
-224
958
1928
1254
-99
-442
-149
-150
-231
-164
-159
-180
-140
-125
-124
-94
-71
-57
-30
-5
16
44
67
81
98
115
123
123
119
117
124
133
124
86
28
-27
-56
-65
-72
-78
-78
-79
-83
-85
-85
-86
-85
-89
-96
-95
-90
-90
-87
-87
-100
-102
-82
-64
-50
-35
-49
-72
-67
-75
-81
-42
-56
-160
-319
-519
-194
1143
2163
1353
-91
-388
-71
-104
-186
-109
-118
-149
-107
-94
-99
-72
-53
-42
-19
2
20
44
64
81
99
111
117
123
122
114
115
120
101
49
-11
-53
-77
-93
-102
-107
-112
-116
-117
-120
-125
-125
-123
-124
-124
-125
-129
-129
-127
-142
-153
-118
-63
-34
-21
-23
-48
-55
-51
-78
-75
-45
-97
-221
-434
-551
239
1793
2140
673
-507
-349
-54
-159
-167
-102
-142
-135
-84
-94
-96
-55
-23
-10
5
29
59
89
116
133
145
163
178
175
166
168
167
143
94
26
-48
-98
-115
-124
-137
-143
-144
-152
-163
-173
-174
-163
-156
-161
-163
-157
-157
-159
-160
-158
-139
-118
-113
-105
-94
-103
-106
-104
-121
-105
-68
-120
-252
-483
-580
306
1931
2199
597
-597
-362
-27
-133
-134
-57
-98
-96
-50
-56
-50
-17
-4
13
44
65
81
105
129
152
176
193
202
203
196
187
181
154
91
12
-53
-103
-140
-150
-143
-140
-144
-143
-137
-134
-132
-130
-130
-133
-133
-130
-128
-131
-147
-159
-144
-118
-105
-88
-78
-102
-110
-96
-115
-109
-59
-106
-251
-468
-610
171
1937
2568
1016
-484
-415
-39
-163
-210
-117
-149
-158
-107
-111
-112
-77
-62
-44
-9
13
29
59
86
105
123
136
143
147
143
128
115
100
61
0
-55
-89
-107
-118
-120
-122
-128
-130
-130
-134
-137
-134
-136
-138
-130
-127
-134
-136
-135
-143
-140
-117
-94
-78
-75
-97
-105
-99
-123
-118
-73
-119
-255
-461
-644
4
1706
2498
1143
-375
-413
-52
-152
-202
-103
-127
-147
-100
-92
-89
-62
-50
-33
-1
18
34
63
89
104
118
128
128
123
122
123
119
110
87
38
-19
-55
-76
-94
-103
-103
-106
-114
-115
-110
-110
-114
-112
-107
-104
-101
-98
-98
-99
-107
-113
-97
-73
-57
-43
-46
-75
-84
-81
-101
-85
-54
-117
-251
-481
-562
332
1871
2041
533
-489
-265
-40
-166
-148
-83
-123
-113
-76
-85
-74
-42
-30
-10
22
41
58
89
118
134
140
144
152
160
160
154
150
139
101
39
-20
-56
-73
-88
-101
-109
-119
-128
-130
-129
-132
-138
-136
-125
-119
-125
-130
-120
-108
-112
-119
-110
-90
-77
-70
-72
-87
-92
-92
-111
-96
-52
-88
-204
-411
-569
94
1606
2086
673
-621
-471
-43
-98
-130
-41
-59
-76
-42
-37
-28
2
21
41
69
87
105
140
173
184
187
199
206
198
192
197
192
165
115
35
-63
-126
-144
-159
-179
-175
-168
-185
-201
-192
-177
-170
-175
-184
-183
-174
-168
-156
-150
-167
-177
-159
-143
-129
-109
-127
-168
-150
-116
-145
-150
-102
-134
-257
-449
-551
157
1645
2098
709
-588
-489
-71
-101
-132
-51
-61
-71
-39
-36
-36
-18
-1
21
40
54
83
120
144
162
186
201
202
197
192
185
174
135
55
-38
-108
-155
-184
-197
-197
-193
-192
-190
-181
-174
-173
-162
-128
-91
-63
-33
-6
-4
-29
-62
-87
-91
-87
-89
-84
-78
-100
-115
-99
-108
-112
-71
-98
-216
-399
-604
-105
1511
2479
1252
-419
-556
-69
-88
-167
-67
-77
-108
-57
-46
-53
-20
3
12
38
67
94
127
157
183
211
229
231
229
230
227
215
189
139
70
2
-46
-69
-76
-80
-83
-81
-78
-80
-81
-77
-74
-76
-75
-71
-72
-74
-70
-66
-73
-85
-83
-63
-44
-28
-15
-31
-59
-49
-44
-66
-34
-21
-117
-273
-530
-432
933
2609
2239
296
-566
-156
-19
-189
-130
-82
-139
-114
-83
-105
-93
-65
-58
-42
-16
5
26
50
72
86
94
99
100
89
70
51
29
-7
-61
-123
-173
-198
-207
-212
-219
-225
-233
-243
-248
-248
-254
-263
-261
-256
-256
-253
-252
-260
-262
-252
-260
-277
-269
-250
-238
-220
-217
-248
-256
-244
-265
-258
-222
-276
-409
-634
-770
58
1763
2227
683
-635
-501
-184
-304
-320
-238
-269
-263
-211
-213
-205
-173
-156
-131
-94
-71
-47
-13
17
39
58
71
76
75
74
79
87
83
53
3
-42
-65
-73
-77
-77
-74
-70
-66
-57
-48
-42
-32
-21
-12
-2
9
21
35
48
59
71
75
74
93
132
163
185
191
169
164
187
185
192
232
206
107
-73
-238
356
1843
2465
1249
-7
17
317
215
187
275
243
226
276
285
283
305
319
332
357
375
386
403
422
434
437
434
425
410
397
392
386
365
311
228
144
81
34
-8
-44
-72
-98
-127
-156
-184
-214
-247
-279
-306
-338
-377
-413
-446
-481
-518
-553
-586
-633
-687
-721
-736
-758
-786
-824
-898
-975
-1022
-1082
-1130
-1141
-1216
-1347
-1517
-1794
-1587
-366
520
-190
