# session 31
-30
-138
158
159
-816
-1927
-2141
-1900
-1872
-1851
-1722
-1691
-1693
-1611
-1529
-1492
-1451
-1382
-1310
-1263
-1224
-1180
-1138
-1038
-896
-838
-839
-787
-755
-789
-750
-619
-558
-584
-578
-522
-491
-472
-416
-383
-390
-296
-113
-49
-116
-151
-150
-156
-118
-59
-59
-79
-72
-70
-63
-28
-16
-25
-28
-49
-92
-189
-83
871
2215
2163
594
-453
-251
73
83
110
111
49
72
105
77
86
136
147
141
165
175
151
160
203
208
200
227
261
334
450
468
373
334
367
379
391
428
485
602
750
870
1012
1158
1123
946
861
815
617
389
289
220
102
9
-20
-38
-66
-37
55
102
76
51
11
-60
-84
-32
20
-7
-99
-166
-192
-229
-242
-212
-245
-316
-304
-289
-328
-296
-253
-343
-416
-369
-382
-477
-479
-409
-384
-378
-362
-362
-362
-351
-351
-354
-359
-375
-360
-292
-221
-180
-165
-200
-261
-236
-99
41
68
-49
-201
-321
-329
386
2017
2851
1532
-247
-545
-119
-105
-190
-120
-142
-197
-170
-150
-144
-138
-163
-161
-112
-97
-109
-78
-32
-14
6
43
83
131
192
260
318
349
372
416
447
434
398
338
234
106
-9
-90
-128
-153
-194
-214
-196
-192
-209
-183
-164
-212
-222
-147
-118
-160
-178
-163
-122
-50
-3
-3
-16
-51
-100
-118
-133
-157
-146
-150
-218
-245
-215
-239
-276
-239
-212
-247
-252
-224
-234
-251
-215
-152
-90
-25
28
41
26
28
43
32
17
25
33
29
32
35
2
-59
-49
9
-53
-138
-34
44
-103
-261
-262
250
1606
2567
1588
-189
-696
-283
-157
-184
-75
-92
-186
-145
-64
-28
-13
-36
-57
-42
-48
-48
39
127
137
144
172
195
264
348
366
401
493
536
555
628
654
571
446
274
69
-77
-167
-232
-254
-282
-350
-371
-312
-248
-234
-275
-304
-259
-233
-287
-292
-225
-223
-258
-217
-151
-137
-143
-135
-126
-136
-140
-125
-139
-170
-130
-59
-64
-98
-84
-79
-105
-113
-118
-141
-149
-149
-160
-145
-115
-109
-91
-47
-28
-43
-74
-120
-131
-103
-97
-93
-88
-157
-283
-453
-347
851
2609
2606
563
-826
-506
-66
-162
-190
-149
-201
-159
-100
-154
-129
13
54
-4
-1
45
70
110
139
123
150
236
267
268
344
438
485
559
658
683
672
679
554
248
9
-43
-100
-231
-294
-285
-300
-309
-282
-285
-314
-318
-297
-260
-235
-257
-263
-208
-169
-167
-143
-130
-156
-157
-144
-179
-221
-222
-215
-232
-248
-218
-163
-156
-194
-212
-184
-141
-147
-213
-218
-133
-102
-142
-140
-134
-179
-173
-98
-90
-131
-98
-49
-71
-73
-46
-111
-182
-109
-35
-70
-83
-95
-186
-305
-454
-41
1722
3334
2369
50
-643
-57
3
-199
-70
-25
-111
-75
-80
-138
-46
59
-9
-90
-46
23
18
-32
-27
66
144
145
153
199
249
315
393
446
497
567
606
557
402
206
59
-44
-148
-239
-295
-292
-230
-210
-279
-310
-254
-231
-281
-304
-256
-201
-188
-195
-192
-191
-198
-195
-196
-205
-178
-133
-154
-206
-197
-161
-146
-137
-163
-213
-203
-161
-156
-134
-31
79
83
-1
-43
-20
-22
-55
-44
16
42
-19
-72
-6
96
93
24
3
12
-12
-24
19
14
-73
-92
-46
-105
-156
-38
0
-181
-401
-526
113
1995
3231
1849
-302
-683
-181
-225
-313
-146
-149
-232
-221
-219
-206
-168
-152
-143
-181
-217
-102
25
-27
-90
-18
61
111
146
116
147
330
451
465
557
624
532
474
483
344
94
-64
-127
-173
-198
-198
-202
-217
-226
-212
-166
-115
-81
-51
-39
-86
-120
-73
-54
-122
-148
-95
-77
-131
-178
-132
-46
-77
-170
-107
13
-80
-237
-172
-34
-41
-83
-99
-149
-129
-24
-4
-31
-36
-132
-216
-109
-3
-63
-139
-143
-128
-122
-149
-162
-103
-46
-90
-164
-114
-25
-136
-282
-160
-61
-247
-295
-135
-286
-607
-639
-394
561
2218
2577
747
-832
-627
-100
-138
-122
-23
-133
-221
-149
-21
76
18
-135
-123
9
-9
-123
-92
29
49
35
119
218
285
402
510
523
558
660
700
686
697
679
567
364
110
-93
-169
-153
-130
-157
-233
-311
-357
-321
-172
-21
-29
-173
-275
-251
-179
-164
-195
-168
-91
-84
-137
-155
-161
-181
-171
-164
-178
-115
-33
-84
-159
-113
-56
-58
-65
-90
-129
-148
-151
-100
-44
-107
-141
-4
51
-86
-145
-51
1
-37
-40
37
52
-65
-120
-33
-8
-86
-103
-56
-67
-184
-282
72
1126
1969
1375
-106
-808
-501
-164
-118
-108
-100
-111
-86
-79
-98
-67
-33
-55
-38
28
33
29
81
86
61
127
214
238
270
349
458
597
687
660
614
638
632
494
262
31
-142
-260
-347
-367
-321
-319
-395
-431
-363
-276
-257
-283
-274
-222
-212
-240
-230
-206
-215
-205
-158
-124
-116
-122
-161
-233
-248
-186
-198
-285
-248
-138
-156
-212
-183
-166
-191
-176
-148
-155
-156
-132
-131
-156
-161
-161
-193
-186
-91
-27
-52
-39
35
29
-67
-99
-45
-49
-78
35
160
81
-104
-249
-19
1156
2519
2186
399
-573
-232
51
-114
-180
-94
-69
-72
-27
26
23
-15
-32
-28
-6
32
53
73
138
215
241
235
246
302
368
383
406
505
595
644
700
659
492
368
256
29
-160
-198
-232
-293
-276
-208
-174
-203
-276
-299
-240
-204
-230
-247
-244
-252
-270
-275
-256
-228
-226
-247
-251
-224
-187
-154
-122
-100
-117
-175
-207
-172
-129
-138
-167
-159
-144
-171
-183
-161
-192
-243
-184
-85
-91
-163
-201
-156
-53
-21
-89
-138
-144
-146
-146
-179
-200
-122
-92
-225
-374
-417
50
1417
2442
1494
-284
-695
-142
-64
-280
-196
-50
-97
-176
-134
-37
-13
-43
-59
-63
-35
18
43
61
115
155
164
220
315
319
255
341
543
572
476
513
597
567
463
254
-6
-82
-47
-154
-275
-244
-219
-246
-190
-143
-225
-282
-224
-193
-214
-181
-136
-175
-234
-196
-110
-109
-143
-101
-63
-97
-98
-64
-66
-36
20
-18
-68
-13
31
3
-14
-45
-96
-84
-67
-94
-77
-24
-18
-27
-52
-127
-161
-90
-24
-32
-49
-47
-75
-114
-86
-38
-65
-110
-121
-164
-263
-291
272
1634
2393
1242
-375
-581
-97
-92
-201
-125
-129
-120
-36
-61
-92
-35
-60
-105
-13
42
-33
-29
66
83
65
100
130
172
266
323
336
411
510
553
573
548
461
369
184
-93
-176
-79
-124
-258
-295
-304
-293
-287
-369
-322
-141
-208
-352
-204
-80
-209
-281
-234
-240
-240
-215
-255
-289
-226
-153
-176
-232
-224
-202
-215
-205
-186
-198
-167
-105
-127
-181
-169
-147
-149
-127
-117
-140
-123
-73
-66
-84
-90
-109
-118
-76
-37
-54
-66
-24
18
26
8
-20
-6
35
-24
-147
-251
-286
303
1697
2329
1118
-261
-286
112
55
-19
45
12
-14
26
18
11
44
37
14
39
62
53
76
133
146
123
143
200
238
262
299
339
371
405
434
447
441
398
298
163
44
-42
-118
-178
-204
-207
-206
-203
-200
-198
-194
-192
-193
-188
-178
-179
-185
-183
-177
-175
-181
-190
-190
-179
-168
-164
-161
-159
-158
-152
-147
-142
-132
-123
-126
-132
-130
-124
-121
-120
-115
-111
-106
-87
-57
-57
-91
-106
-93
-86
-85
-74
-62
-56
-43
-21
-5
-15
-44
-64
-64
-61
-77
-96
-73
-51
-96
-168
-245
-115
701
1727
1493
84
-675
-334
-37
-95
-67
-2
-29
-26
5
2
11
35
40
43
61
79
91
99
105
114
132
154
176
203
233
262
298
338
363
376
393
393
345
250
138
32
-55
-115
-151
-170
-177
-178
-174
-171
-167
-159
-160
-175
-185
-182
-175
-167
-162
-161
-152
-137
-134
-140
-135
-125
-122
-112
-92
-87
-99
-100
-90
-81
-75
-69
-70
-66
-57
-56
-62
-59
-45
-30
-24
-37
-60
-64
-49
-45
-61
-70
-64
-61
-56
-30
-10
-25
-47
-44
-43
-71
-94
-86
-84
-103
-87
-62
-102
-173
-244
-113
664
1605
1335
-2
-683
-342
-54
-99
-91
-54
-71
-50
-21
-26
-21
-5
10
29
40
47
73
104
111
107
124
161
188
207
259
336
389
420
454
474
470
472
453
340
162
32
-16
-49
-108
-157
-168
-164
-173
-178
-160
-140
-151
-176
-175
-160
-162
-169
-161
-154
-161
-166
-156
-146
-150
-153
-134
-115
-126
-149
-156
-144
-118
-107
-122
-126
-110
-116
-129
-111
-89
-95
-96
-85
-84
-79
-55
-53
-79
-78
-38
-22
-47
-41
21
49
-12
-74
-74
-59
-58
-72
-86
-74
-92
-156
-195
-224
5
874
1628
1040
-245
-650
-280
-76
-75
-50
-73
-85
-32
-24
-23
45
82
53
46
70
83
93
90
74
102
168
186
174
198
221
212
243
323
350
322
339
365
282
154
95
35
-84
-157
-155
-166
-198
-211
-207
-186
-162
-170
-180
-162
-156
-173
-175
-164
-163
-164
-169
-157
-99
-43
-46
-63
-53
-45
-57
-74
-85
-85
-88
-100
-87
-45
-30
-58
-86
-88
-80
-75
-80
-85
-72
-47
-37
-35
-21
-9
-30
-75
-99
-84
-79
-98
-92
-85
-123
-181
-273
-135
750
1777
1446
20
-662
-304
-32
-89
-86
-62
-83
-50
-17
-37
-36
-13
0
23
53
56
56
84
130
169
185
191
218
258
284
308
340
366
387
407
402
366
316
225
73
-71
-140
-163
-186
-211
-221
-214
-190
-164
-169
-199
-209
-189
-174
-180
-174
-155
-165
-190
-169
-128
-127
-141
-133
-133
-149
-155
-149
-129
-105
-111
-130
-113
-94
-107
-111
-90
-86
-97
-95
-91
-83
-70
-78
-77
-27
3
-36
-80
-88
-77
-61
-59
-63
-68
-110
-171
-263
-248
443
1645
1801
449
-627
-448
-56
-78
-115
-69
-82
-73
-38
-45
-43
-14
-12
-20
6
49
78
84
86
105
135
159
172
193
234
260
258
285
342
356
338
345
316
195
60
-26
-88
-147
-181
-178
-168
-191
-226
-219
-186
-167
-159
-158
-171
-174
-158
-157
-169
-165
-157
-164
-168
-151
-129
-119
-122
-125
-111
-106
-131
-154
-141
-114
-107
-115
-110
-87
-63
-42
-40
-63
-78
-56
-18
8
13
14
16
-2
-23
-10
-15
-36
1
4
-94
-204
-302
33
1297
2311
1450
-182
-526
-43
-5
-152
-75
-50
-110
-98
-82
-83
-44
-6
-6
-9
-4
5
36
73
75
73
120
164
148
136
188
261
296
295
295
315
320
290
229
126
-1
-82
-107
-122
-129
-133
-166
-203
-195
-171
-170
-170
-156
-159
-176
-164
-136
-143
-166
-156
-143
-169
-191
-170
-146
-147
-149
-148
-153
-153
-158
-172
-170
-152
-138
-126
-118
-128
-139
-133
-123
-118
-114
-115
-111
-83
-52
-39
-47
-85
-132
-131
-104
-112
-108
-68
-101
-218
-343
-272
518
1819
2055
698
-505
-474
-131
-124
-146
-113
-127
-126
-124
-138
-90
-23
-34
-64
-32
9
3
6
54
98
136
188
195
158
173
247
322
388
431
434
433
433
377
241
83
-28
-83
-116
-141
-160
-193
-230
-210
-140
-111
-138
-146
-111
-87
-112
-147
-134
-82
-52
-45
-30
-32
-63
-75
-44
-8
-15
-59
-65
-3
52
42
11
11
28
24
14
30
50
55
55
29
-1
22
11
-49
-7
47
-52
-181
-296
-94
1077
2338
1779
-7
-724
-258
25
-169
-520
-810
-778
-534
-399
-325
-197
-99
-63
-54
-81
-154
-222
-176
-39
45
121
210
111
-89
-64
115
224
280
239
51
-81
-67
-57
-81
-90
-125
-197
-236
-225
-211
-191
-127
-74
-96
-114
-66
-30
-33
-18
-3
-21
-42
-33
-2
16
-10
-48
-43
-17
-19
-29
-12
3
-15
-30
-16
-17
-37
-31
-4
-8
-29
-17
10
1
-28
-26
-11
4
42
50
-17
-51
-9
-24
-73
-43
-63
-188
-306
-387
109
1625
2591
1378
-401
-606
-70
-84
-212
-117
-124
-172
-118
-100
-117
-86
-57
-43
-6
21
26
46
77
84
92
138
209
267
311
329
303
282
311
340
313
265
238
206
126
12
-99
-182
-210
-193
-187
-202
-201
-190
-197
-221
-239
-233
-208
-194
-190
-184
-167
-142
-134
-151
-144
-105
-89
-96
-75
-56
-85
-124
-144
-161
-158
-137
-141
-155
-144
-136
-140
-127
-115
-112
-87
-64
-80
-108
-123
-131
-112
-90
-97
-70
-58
-166
-280
-381
-317
690
2293
2336
531
-624
-287
1
-187
-167
-30
-58
-93
-96
-126
-102
-34
-32
-68
-68
-68
-73
-42
-28
-47
4
86
67
15
57
142
192
228
264
265
225
180
131
42
-76
-163
-183
-156
-134
-141
-153
-164
-186
-203
-209
-211
-204
-195
-197
-197
-185
-160
-111
-51
-21
-20
-7
21
28
16
26
53
62
49
29
25
50
66
38
1
-12
-13
-5
7
5
0
17
47
59
45
33
39
52
67
38
-24
-24
-36
-158
-266
-348
-137
1052
2445
2041
251
-551
-128
77
-103
-139
-96
-85
-58
-56
-62
-53
-80
-93
-44
-20
-44
-41
-18
-19
-16
2
17
46
78
87
105
156
198
206
211
224
211
161
86
-21
-131
-172
-163
-197
-268
-291
-252
-201
-170
-171
-191
-209
-218
-222
-219
-191
-149
-144
-175
-196
-198
-198
-189
-173
-175
-196
-212
-206
-197
-213
-237
-232
-211
-191
-174
-176
-190
-180
-158
-149
-141
-124
-94
-55
-39
-54
-72
-80
-74
-65
-77
-65
-38
-94
-189
-274
-263
425
1795
2202
848
-451
-410
-50
-111
-152
-76
-94
-94
-34
-22
-22
7
29
52
88
104
107
123
142
162
192
214
230
278
342
368
371
393
426
444
449
446
420
350
256
186
139
84
38
35
42
20
-24
-68
-111
-145
-156
-147
-152
-184
-205
-185
-153
-153
-175
-184
-189
-232
-306
-342
-315
-280
-272
-260
-224
-205
-212
-184
-120
-102
-137
-157
-153
-138
-102
