# session 20
-64
-129
45
116
-382
-1055
-1210
-1038
-1016
-1035
-939
-860
-820
-762
-712
-676
-632
-593
-579
-569
-535
-516
-524
-474
-421
-501
-633
-725
-513
657
2258
2293
574
-656
-547
-311
-403
-392
-326
-349
-332
-283
-274
-257
-228
-217
-198
-158
-119
-83
-41
6
49
95
148
212
292
389
477
537
583
621
627
587
504
393
271
166
97
62
43
34
40
50
53
63
73
56
32
35
39
20
10
23
32
28
21
13
15
27
29
16
13
21
21
14
13
8
-10
-25
-26
-22
-21
-23
-29
-39
-47
-48
-44
-44
-53
-68
-71
-57
-43
-43
-47
-43
-41
-43
-43
-39
-42
-49
-51
-53
-65
-84
-98
-98
-94
-95
-102
-109
-106
-91
-65
-34
-16
-22
-44
-68
-76
-74
-88
-81
-53
-115
-256
-392
-362
447
2052
2682
1269
-370
-567
-177
-167
-221
-165
-176
-168
-100
-84
-88
-60
-43
-37
-13
11
29
45
59
79
109
140
180
238
297
359
432
503
551
568
536
437
288
124
-24
-142
-223
-266
-280
-285
-289
-286
-274
-263
-259
-255
-248
-244
-240
-234
-226
-220
-214
-206
-191
-181
-186
-189
-177
-166
-164
-161
-159
-164
-167
-161
-155
-158
-161
-159
-157
-157
-154
-148
-140
-136
-138
-134
-115
-96
-90
-85
-74
-68
-71
-71
-66
-62
-63
-63
-58
-57
-61
-59
-49
-46
-48
-37
-15
-6
-8
-8
-27
-55
-49
-53
-79
-41
-28
-163
-331
-448
-119
1346
2954
2491
425
-626
-321
-146
-280
-229
-174
-222
-203
-168
-170
-135
-82
-64
-61
-49
-30
-2
31
57
78
113
158
198
245
311
384
454
515
554
565
530
421
270
149
72
11
-33
-53
-67
-69
-44
-31
-56
-66
-31
-11
-27
-31
-24
-34
-35
-13
-5
-14
-19
-27
-38
-42
-51
-66
-85
-113
-127
-104
-88
-108
-113
-94
-102
-128
-126
-113
-122
-137
-141
-145
-141
-127
-125
-140
-150
-145
-139
-140
-139
-132
-129
-143
-162
-155
-131
-132
-147
-141
-132
-132
-130
-136
-151
-136
-96
-86
-101
-88
-65
-88
-135
-147
-149
-162
-136
-143
-264
-410
-523
-216
1157
2670
2265
344
-679
-436
-275
-395
-353
-292
-308
-270
-243
-275
-275
-237
-220
-216
-185
-138
-118
-120
-91
-12
67
104
142
230
318
376
457
555
594
593
618
609
479
316
241
189
69
-11
22
37
-25
-54
-22
19
49
53
16
-27
-37
-32
-56
-76
-38
5
-13
-58
-101
-115
-56
2
-44
-110
-102
-79
-86
-102
-121
-123
-89
-76
-135
-188
-146
-91
-127
-173
-135
-92
-118
-132
-86
-72
-122
-150
-124
-86
-78
-108
-122
-74
-25
-20
-29
-60
-114
-117
-83
-115
-139
-64
-59
-187
-328
-448
-20
1510
2770
1885
-90
-820
-400
-169
-250
-225
-153
-168
-192
-147
-101
-113
-112
-82
-83
-81
-38
17
58
65
75
128
139
101
206
453
605
608
595
616
621
528
318
123
6
-146
-314
-358
-325
-313
-289
-285
-345
-332
-232
-231
-310
-293
-226
-231
-237
-181
-149
-165
-139
-98
-141
-188
-136
-87
-125
-162
-122
-66
-97
-170
-142
-65
-89
-142
-128
-140
-180
-141
-94
-127
-130
-62
-39
-89
-131
-123
-84
-75
-92
-52
22
27
-20
-59
-81
-89
-119
-126
-23
3
-185
-338
-378
-51
1365
2954
2405
233
-749
-294
-82
-222
-138
-74
-125
-89
-70
-108
-55
28
39
38
54
68
100
137
135
152
251
349
355
365
470
544
533
602
744
721
553
427
282
55
-107
-179
-256
-287
-252
-256
-296
-306
-288
-268
-282
-327
-320
-251
-214
-235
-261
-265
-253
-245
-239
-216
-222
-262
-245
-189
-202
-239
-229
-229
-240
-198
-160
-185
-204
-183
-187
-214
-197
-148
-154
-201
-175
-101
-103
-146
-141
-136
-164
-162
-124
-88
-53
-41
-69
-80
-54
-52
-78
-107
-133
-100
-48
-127
-298
-462
-332
846
2663
2861
927
-599
-461
-72
-177
-251
-200
-172
-112
-85
-99
-51
-12
-35
-38
-10
12
51
86
90
116
167
191
231
321
392
444
520
564
566
597
603
492
323
170
31
-65
-100
-126
-156
-149
-130
-145
-156
-127
-123
-172
-180
-122
-104
-137
-124
-85
-92
-110
-92
-81
-107
-126
-120
-120
-130
-130
-128
-138
-133
-100
-84
-107
-117
-91
-76
-86
-84
-85
-116
-114
-48
-26
-85
-108
-72
-72
-89
-72
-74
-92
-54
-12
-31
-65
-101
-136
-118
-97
-119
-114
-148
-300
-483
-574
15
1745
3021
1899
-219
-819
-357
-287
-386
-286
-283
-310
-220
-197
-229
-176
-120
-120
-108
-78
-53
-24
-2
20
67
117
151
199
271
350
441
532
592
604
554
421
222
7
-187
-315
-357
-379
-423
-437
-420
-436
-456
-435
-419
-433
-426
-396
-374
-334
-286
-290
-308
-255
-185
-177
-189
-168
-139
-122
-113
-125
-140
-124
-93
-67
-48
-54
-64
-45
-23
18
135
234
227
231
309
344
308
290
287
244
202
210
235
235
218
171
119
142
183
139
107
111
5
-197
-311
150
1595
2811
1988
22
-717
-279
-91
-213
-185
-140
-152
-129
-123
-151
-164
-156
-137
-130
-126
-78
3
73
134
190
228
251
297
394
511
584
627
694
728
650
474
248
4
-197
-319
-390
-439
-463
-474
-478
-473
-480
-507
-503
-446
-407
-416
-411
-372
-344
-339
-336
-318
-282
-263
-279
-285
-268
-261
-257
-243
-246
-263
-258
-244
-253
-256
-222
-198
-208
-205
-188
-184
-166
-144
-158
-159
-110
-85
-100
-76
-31
-60
-112
-100
-100
-117
-42
-2
-137
-311
-373
190
1839
3118
2092
21
-573
-74
-6
-171
-89
-58
-114
-78
-44
-51
-24
0
5
30
60
84
116
151
190
236
281
336
418
509
579
635
704
775
792
715
553
341
127
-44
-154
-220
-272
-306
-301
-283
-297
-317
-298
-282
-295
-302
-301
-310
-298
-261
-249
-262
-262
-261
-267
-259
-246
-246
-239
-230
-243
-247
-214
-187
-190
-188
-179
-185
-189
-179
-170
-166
-159
-147
-136
-122
-116
-128
-128
-85
-29
-5
-7
-27
-64
-69
-52
-72
-64
-18
-99
-284
-449
-393
622
2478
2991
1191
-543
-550
-123
-216
-281
-186
-206
-223
-162
-131
-111
-69
-35
-1
40
66
85
116
145
161
184
225
277
340
407
466
524
587
625
615
555
437
267
101
-15
-97
-166
-213
-226
-226
-231
-233
-219
-203
-198
-198
-194
-190
-187
-179
-173
-183
-195
-188
-174
-177
-184
-180
-179
-185
-190
-185
-178
-172
-170
-171
-169
-159
-151
-155
-158
-152
-146
-146
-146
-146
-145
-138
-118
-91
-76
-73
-81
-115
-136
-112
-119
-148
-101
-89
-219
-381
-480
-12
1535
2818
1948
-1
-677
-290
-180
-277
-210
-184
-206
-155
-116
-101
-57
-24
-14
8
33
52
77
102
124
155
195
236
279
328
380
425
457
486
506
487
404
277
140
15
-86
-148
-182
-206
-222
-225
-226
-219
-198
-178
-167
-155
-150
-155
-155
-144
-134
-135
-144
-153
-157
-161
-161
-154
-155
-165
-162
-152
-155
-153
-138
-136
-149
-149
-135
-128
-130
-126
-118
-114
-119
-125
-113
-84
-57
-54
-88
-122
-119
-124
-139
-101
-109
-234
-372
-480
-133
1282
2663
2043
143
-670
-326
-168
-267
-214
-175
-195
-150
-112
-106
-72
-38
-24
4
34
47
58
78
107
142
175
205
248
309
368
415
458
489
494
465
391
268
123
1
-84
-144
-180
-193
-198
-203
-202
-195
-189
-189
-189
-186
-182
-179
-173
-161
-155
-155
-153
-149
-144
-141
-143
-144
-137
-133
-138
-140
-135
-133
-135
-128
-119
-118
-121
-117
-108
-101
-96
-97
-106
-107
-89
-62
-39
-40
-79
-103
-83
-88
-105
-69
-90
-220
-354
-435
29
1519
2706
1833
-2
-602
-235
-154
-256
-192
-170
-204
-170
-142
-138
-108
-80
-65
-38
-14
0
21
51
77
102
129
161
200
244
291
343
387
417
434
426
371
269
153
55
-14
-64
-99
-113
-108
-96
-88
-81
-70
-59
-52
-48
-42
-36
-40
-53
-64
-69
-75
-86
-94
-95
-93
-93
-94
-95
-97
-106
-111
-110
-110
-113
-114
-112
-111
-107
-103
-102
-103
-105
-107
-104
-101
-102
-104
-103
-102
-104
-105
-104
-101
-95
-90
-91
-95
-83
-57
-38
-38
-65
-106
-112
-102
-131
-135
-105
-175
-320
-454
-406
458
2027
2470
993
-456
-523
-213
-280
-320
-248
-269
-292
-264
-259
-254
-233
-228
-226
-209
-194
-181
-160
-136
-112
-79
-29
30
82
127
177
227
267
302
336
360
348
284
198
119
46
-5
-12
-8
-19
-3
51
78
57
46
54
39
14
14
30
34
27
27
29
24
19
21
25
24
19
16
17
12
-4
-22
-29
-29
-26
-20
-24
-39
-46
-45
-44
-42
-34
-21
-5
14
29
38
38
37
39
40
38
43
52
48
30
26
34
19
-17
-44
-63
-85
-95
-91
-86
-89
-105
-113
-83
-65
-91
-87
-83
-170
-294
-414
-228
877
2267
2119
504
-514
-372
-186
-259
-230
-186
-217
-199
-177
-197
-184
-164
-180
-179
-129
-65
-19
-4
-3
20
70
119
155
197
253
307
348
373
372
349
316
268
193
104
25
-32
-69
-99
-130
-147
-132
-123
-161
-200
-177
-134
-139
-165
-170
-167
-176
-186
-186
-184
-193
-210
-214
-210
-212
-185
-111
-61
-100
-178
-223
-229
-223
-221
-226
-237
-254
-266
-253
-228
-225
-228
-210
-203
-225
-227
-206
-214
-245
-260
-275
-299
-305
-287
-257
-220
-187
-158
-94
18
130
207
264
298
287
258
261
288
281
229
151
25
-106
-185
-264
22
1212
2363
1823
186
-551
-270
-109
-202
-191
-150
-144
-105
-73
-63
-31
0
3
1
2
6
27
67
97
110
134
189
249
296
343
394
438
469
490
501
494
449
360
261
190
141
94
61
60
70
69
67
78
90
85
67
68
87
90
63
32
15
-2
-27
-44
-47
-64
-99
-122
-121
-112
-111
-127
-149
-168
-183
-195
-201
-209
-217
-209
-192
-187
-187
-181
-181
-194
-205
-209
-211
-215
-224
-238
-252
-257
-255
-250
-238
-217
-196
-188
-194
-223
-260
-262
-248
-270
-264
-220
-270
-403
-544
-501
375
1955
2407
933
-528
-598
-263
-310
-357
-291
-306
-320
-284
-267
-249
-218
-206
-197
-179
-164
-146
-117
-89
-60
-24
12
51
113
192
270
340
389
419
466
513
479
363
249
175
133
114
90
46
11
-2
-15
-37
-47
-22
25
51
41
25
20
-1
-39
-49
-23
-11
-36
-65
-71
-70
-84
-102
-89
-57
-53
-71
-70
-49
-25
-1
17
24
28
30
31
32
27
15
7
2
-2
-3
8
22
26
29
38
39
30
24
23
17
6
0
3
7
7
-4
-35
-60
-52
-62
-92
-76
-86
-186
-304
-390
-5
1361
2594
1939
177
-555
-275
-180
-281
-216
-169
-200
-172
-134
-141
-150
-154
-158
-139
-101
-65
-45
-41
-36
-12
33
90
144
190
233
275
312
351
378
347
267
204
154
40
-126
-239
-266
-269
-282
-292
-311
-341
-362
-376
-391
-367
-295
-230
-201
-182
-152
-123
-107
-88
-51
-13
8
15
10
-13
-49
-91
-133
-170
-198
-213
-220
-220
-213
-202
-188
-172
-157
-147
-139
-138
-146
-149
-133
-109
-89
-65
-41
-36
-45
-40
-19
-1
5
9
19
32
45
62
85
107
122
129
126
103
77
83
87
69
95
117
31
-97
-209
-43
1008
2415
2374
800
-290
-195
9
-64
-67
-48
-95
-102
-96
-108
-78
-36
-34
-35
-11
21
53
76
76
75
99
137
180
220
241
258
293
320
319
313
311
275
184
68
-43
-134
-184
-188
-187
-210
-240
-247
-234
-224
-228
-234
-231
-231
-243
-258
-266
-272
-285
-291
-264
-208
-153
-110
-82
-73
-69
-65
-84
-120
-136
-126
-122
-138
-154
-158
-162
-177
-196
-211
-222
-209
-173
-152
-155
-157
-156
-147
-116
-82
-86
-108
-94
-58
-54
-80
-92
-81
-62
-42
-26
-14
5
32
41
18
-24
-57
-61
-55
-54
-21
-6
-95
-233
-366
-219
809
2211
2205
654
-456
-364
-127
-181
-182
-145
-161
-133
-90
-85
-65
-27
-5
12
24
31
56
97
132
164
204
244
275
307
341
373
410
452
478
483
466
411
322
224
125
35
-20
-35
-43
-66
-86
-86
-87
-101
-104
-95
-103
-120
-122
-123
-129
-115
-98
-101
-105
-95
-93
-101
-108
-117
-129
-134
-135
-135
-133
-131
-134
-141
-148
-150
-149
-149
-148
-144
-147
-160
-173
-178
-175
-170
-162
-153
-151
-150
-149
-151
-155
-147
-134
-130
-127
-110
-89
-80
-85
-110
-130
-113
-104
-117
-83
-71
-173
-313
-436
-194
1038
2477
2192
426
-586
-375
-179
-273
-250
-201
-220
-190
-149
-146
-132
-111
-105
-89
-62
-41
-14
30
76
108
130
154
186
228
279
328
372
418
456
472
474
433
310
160
73
24
-36
-65
-45
-37
-63
-88
-100
-119
-144
-151
-124
-76
-32
-17
-44
-84
-93
-90
-98
-97
-90
-102
-126
-150
-171
-161
-109
-59
-40
-30
-11
12
27
22
1
-12
-17
-29
-37
-37
-46
-73
-99
-115
-124
-133
-143
-148
-144
-143
-148
-156
-159
-156
-140
-126
-127
-127
-107
-90
-91
-111
-145
-159
-141
-151
-165
-128
-148
-270
-400
-462
38
1480
2530
1638
-58
-584
-264
-200
-266
-188
-172
-208
-181
-163
-180
-187
-190
-186
-173
-159
-132
-86
-39
4
49
93
145
209
266
313
366
419
461
494
523
532
496
406
296
202
123
45
-17
-53
-66
-55
-37
-39
-53
-49
-33
-30
-32
-37
-67
-108
-122
-125
-154
-188
-185
-160
-146
-147
-154
-159
-154
-146
-138
-123
-110
-115
-122
-117
-123
-141
-139
-111
-81
-55
-32
-7
33
66
57
43
67
86
69
76
119
109
40
8
28
35
20
18
