# session 26
-56
-222
261
119
-1607
-3312
-3460
-2984
-2921
-2886
-2697
-2626
-2557
-2401
-2303
-2234
-2118
-2009
-1932
-1850
-1758
-1668
-1595
-1539
-1474
-1397
-1323
-1255
-1187
-1121
-1054
-985
-922
-857
-774
-693
-637
-607
-585
-542
-477
-438
-404
-327
-292
-333
-401
-434
65
1432
2368
1494
-28
-418
-90
-51
-138
-95
-86
-88
-30
19
66
136
177
199
250
311
345
361
393
435
449
441
458
493
496
494
563
678
739
741
742
738
706
667
630
573
501
446
418
400
386
380
379
381
385
385
366
336
315
300
277
255
241
234
227
212
190
173
161
149
141
137
123
98
82
71
53
36
29
24
13
8
9
8
10
21
31
31
27
24
21
15
-1
-20
-27
-24
-28
-37
-39
-37
-39
-44
-47
-51
-50
-44
-44
-54
-77
-107
-113
-109
-147
-174
-150
-195
-321
-450
-489
95
1468
2166
1079
-351
-592
-307
-349
-432
-377
-374
-381
-345
-344
-360
-351
-335
-306
-273
-269
-266
-231
-198
-199
-188
-129
-54
-13
2
26
64
104
148
187
213
239
266
251
175
71
-18
-80
-118
-142
-158
-161
-147
-129
-112
-84
-51
-29
-25
-34
-53
-80
-109
-132
-143
-152
-165
-176
-178
-178
-178
-178
-178
-173
-149
-111
-85
-81
-84
-79
-65
-48
-40
-47
-57
-61
-65
-75
-88
-100
-118
-137
-141
-134
-145
-175
-188
-167
-132
-98
-65
-32
4
35
59
87
116
133
139
141
130
87
37
26
39
19
16
60
35
-66
-163
-187
376
1754
2539
1532
86
-197
89
54
-37
3
-30
-65
5
46
-13
-81
-75
-26
-16
-51
-68
-60
-65
-63
-8
63
102
128
139
101
49
36
37
24
17
15
-6
-28
-34
-49
-81
-104
-114
-117
-93
-59
-64
-89
-70
-29
-26
-45
-61
-79
-86
-70
-68
-100
-138
-166
-199
-235
-254
-238
-194
-152
-136
-141
-143
-127
-100
-76
-53
-27
-1
27
48
58
65
74
77
72
64
57
52
54
64
82
98
105
114
124
113
76
36
10
-15
-50
-97
-149
-173
-156
-158
-179
-157
-158
-239
-334
-423
-122
1091
2257
1725
131
-560
-307
-204
-290
-247
-225
-262
-250
-239
-251
-242
-231
-230
-221
-205
-188
-171
-147
-92
-21
26
68
116
124
108
143
223
294
347
387
400
392
367
312
233
165
115
62
5
-30
-37
-40
-55
-71
-73
-68
-68
-73
-72
-66
-70
-84
-92
-94
-92
-89
-94
-96
-70
-32
-12
-2
13
26
30
29
23
19
13
-12
-56
-97
-130
-151
-164
-173
-174
-169
-169
-170
-159
-139
-121
-101
-76
-57
-53
-52
-46
-43
-49
-58
-60
-55
-36
-1
28
32
12
-21
-50
-59
-79
-105
-72
-52
-141
-262
-367
-163
928
2225
1982
403
-506
-344
-213
-314
-286
-255
-311
-328
-327
-346
-332
-292
-268
-251
-231
-227
-242
-229
-172
-119
-72
7
81
111
157
249
338
398
450
490
500
486
453
395
315
233
167
122
99
90
89
95
104
108
105
96
80
55
28
11
4
-11
-37
-61
-78
-96
-110
-120
-129
-138
-151
-161
-164
-165
-173
-178
-168
-157
-164
-174
-159
-138
-142
-160
-162
-154
-153
-148
-139
-138
-141
-137
-126
-110
-92
-82
-71
-46
-19
-4
5
15
24
29
44
70
88
90
75
42
33
62
69
73
116
91
-25
-132
-201
208
1501
2480
1677
116
-384
-122
-88
-160
-116
-132
-177
-175
-201
-221
-208
-228
-261
-258
-245
-236
-225
-224
-211
-171
-136
-106
-57
-14
5
27
60
88
111
128
130
128
109
53
-23
-86
-131
-157
-168
-176
-174
-157
-138
-114
-91
-85
-86
-81
-78
-71
-52
-27
6
37
27
-20
-62
-92
-115
-101
-41
18
30
3
-30
-44
-49
-68
-81
-63
-57
-104
-148
-124
-72
-60
-84
-102
-111
-114
-82
-14
35
47
57
61
35
8
3
3
1
4
4
-9
-33
-40
-32
-46
-49
-4
-14
-112
-218
-278
162
1434
2301
1409
-135
-580
-288
-245
-313
-260
-259
-272
-184
-85
-32
9
46
75
103
129
147
162
190
214
189
140
134
153
163
214
310
359
338
318
320
335
354
313
180
44
-24
-59
-90
-101
-99
-99
-94
-81
-71
-69
-72
-82
-104
-125
-136
-145
-157
-162
-159
-159
-166
-175
-179
-173
-162
-155
-150
-143
-141
-151
-163
-166
-153
-126
-98
-89
-99
-115
-130
-136
-120
-78
-29
-10
-32
-61
-71
-83
-104
-116
-125
-139
-142
-126
-110
-109
-107
-94
-78
-61
-41
-24
-5
13
15
12
-1
-58
-96
-74
-122
-267
-412
-474
74
1518
2423
1442
-102
-454
-150
-152
-214
-127
-126
-185
-207
-245
-281
-275
-261
-240
-212
-219
-262
-274
-227
-160
-110
-85
-67
-12
92
172
190
212
282
350
382
397
395
358
289
211
135
66
18
-3
-10
-17
-25
-23
-11
-3
-11
-21
-22
-24
-35
-37
-21
1
20
32
36
31
18
4
8
25
24
5
-2
11
21
24
35
52
64
66
58
42
30
23
12
-3
-10
-9
-11
-19
-30
-44
-51
-40
-25
-28
-43
-49
-36
-14
3
15
34
53
59
66
89
106
100
78
40
8
-13
-59
-90
-69
-121
-266
-397
-454
24
1350
2220
1289
-247
-660
-385
-351
-380
-301
-291
-272
-195
-187
-226
-241
-252
-255
-232
-205
-185
-182
-205
-222
-206
-167
-110
-44
10
50
92
138
180
209
223
232
234
208
143
63
-4
-47
-69
-73
-69
-63
-55
-41
-18
4
7
2
1
-22
-59
-65
-52
-63
-70
-41
-7
16
40
48
22
-14
-33
-34
-39
-65
-91
-79
-43
-29
-52
-86
-121
-164
-198
-202
-186
-170
-154
-140
-139
-138
-118
-93
-81
-72
-50
-24
3
33
57
69
82
99
102
81
47
37
54
43
21
45
41
-47
-165
-276
80
1376
2478
1783
155
-445
-154
-72
-156
-110
-104
-144
-127
-123
-149
-144
-124
-105
-80
-66
-66
-60
-50
-42
-13
46
101
111
85
61
72
124
199
261
298
329
347
306
212
138
107
79
36
-16
-65
-92
-101
-117
-135
-139
-134
-137
-146
-150
-152
-161
-170
-166
-157
-158
-164
-165
-167
-176
-181
-182
-186
-186
-179
-172
-168
-158
-150
-146
-131
-111
-112
-133
-149
-156
-165
-172
-166
-154
-144
-129
-104
-82
-68
-42
-6
10
-2
-16
-15
-10
-11
-9
0
7
5
0
-1
0
4
11
21
31
25
-10
-35
-19
-23
-49
-7
21
-77
-216
-330
-69
1138
2455
2091
440
-419
-223
-107
-213
-188
-164
-207
-213
-232
-280
-281
-244
-216
-197
-194
-213
-229
-215
-179
-152
-134
-96
-20
66
121
149
205
305
402
453
469
470
450
396
307
198
96
22
-33
-82
-119
-133
-133
-121
-91
-54
-24
-3
15
19
9
14
55
111
148
143
101
51
18
-1
-16
-28
-38
-43
-38
-23
-6
2
-2
-10
-9
-6
-17
-38
-53
-59
-60
-58
-62
-70
-67
-62
-70
-82
-89
-100
-110
-105
-94
-87
-66
-21
27
52
53
42
28
11
-7
-29
-48
-45
-34
-53
-98
-129
-127
-114
-135
-174
-165
-168
-256
-366
-470
-273
807
2125
1956
436
-493
-375
-255
-356
-335
-311
-381
-405
-386
-371
-344
-320
-292
-216
-130
-88
-60
-24
-18
-41
-33
26
99
158
190
194
192
198
205
216
232
247
255
238
175
83
4
-50
-86
-113
-139
-157
-154
-140
-144
-173
-204
-196
-155
-129
-134
-146
-150
-146
-133
-121
-113
-107
-104
-108
-110
-114
-116
-104
-85
-73
-61
-37
-6
21
42
61
81
90
85
86
92
83
65
62
65
53
35
30
38
48
54
57
59
66
75
77
80
95
116
128
131
120
79
37
34
31
3
11
12
-72
-189
-316
-131
990
2349
2119
484
-456
-241
-44
-133
-116
-75
-109
-100
-63
-39
4
48
74
104
131
148
160
160
160
184
200
178
167
201
233
242
272
328
343
302
266
259
233
151
35
-80
-181
-260
-309
-343
-373
-389
-388
-390
-399
-405
-405
-402
-395
-383
-369
-355
-346
-346
-356
-365
-362
-351
-343
-339
-328
-306
-283
-265
-252
-248
-246
-241
-238
-232
-204
-174
-181
-212
-228
-240
-271
-316
-356
-359
-312
-257
-231
-212
-177
-150
-140
-132
-119
-100
-69
-28
3
19
28
40
54
68
83
98
116
143
180
209
222
222
200
181
201
208
179
197
211
119
-5
-108
110
1258
2649
2435
783
-188
-19
117
-11
12
81
72
96
135
136
120
89
59
61
74
71
65
77
106
133
155
181
210
241
288
335
352
357
388
435
467
479
465
414
335
251
177
118
80
56
33
22
34
37
-1
-44
-65
-102
-158
-179
-171
-195
-260
-320
-340
-315
-267
-239
-240
-242
-240
-253
-267
-270
-284
-315
-328
-313
-304
-328
-390
-470
-541
-591
-610
-595
-574
-567
-554
-531
-511
-490
-473
-483
-504
-502
-481
-462
-450
-445
-459
-507
-586
-657
-672
-633
-592
-548
-456
-338
-236
-127
-15
39
48
72
131
204
253
281
336
367
299
188
84
309
1423
2728
2493
909
-19
167
359
281
287
311
277
286
298
280
284
291
282
288
300
294
287
284
278
276
283
296
313
323
326
339
364
380
389
404
414
400
344
249
137
29
-80
-184
-252
-270
-271
-276
-274
-259
-248
-249
-253
-253
-247
-238
-231
-228
-227
-221
-207
-188
-174
-172
-178
-177
-165
-156
-157
-160
-158
-155
-156
-154
-151
-149
-148
-144
-141
-143
-144
-141
-135
-128
-124
-124
-124
-125
-125
-119
-109
-101
-99
-102
-104
-101
-92
-92
-98
-94
-84
-79
-79
-73
-52
-25
-16
-31
-51
-78
-98
-99
-115
-124
-74
-83
-212
-354
-444
-12
1456
2714
1952
139
-499
-148
-80
-204
-146
-123
-164
-136
-117
-127
-104
-73
-62
-50
-34
-15
-4
-12
-6
7
-36
-91
-54
52
135
196
265
327
374
415
443
446
419
349
234
113
26
-38
-108
-172
-204
-214
-220
-235
-260
-268
-243
-213
-200
-190
-181
-178
-161
-130
-120
-126
-125
-120
-119
-118
-120
-118
-102
-85
-81
-81
-77
-79
-89
-95
-93
-89
-83
-71
-60
-53
-39
-23
-16
-4
22
41
43
45
53
57
61
70
72
57
25
-7
-15
-4
7
13
16
16
14
12
8
11
25
38
42
50
74
105
117
104
71
31
12
7
-42
-89
-75
-123
-270
-405
-455
63
1503
2506
1576
-80
-544
-228
-209
-312
-265
-265
-295
-264
-255
-280
-295
-317
-340
-357
-392
-423
-413
-371
-327
-282
-221
-139
-43
49
129
200
268
335
402
459
493
501
478
422
340
250
175
127
95
73
69
74
68
64
75
83
80
79
87
94
95
93
96
99
99
100
104
100
97
105
111
109
108
104
84
67
64
59
47
37
19
-8
-26
-32
-38
-42
-45
-55
-63
-56
-50
-63
-85
-109
-148
-178
-185
-205
-259
-309
-329
-338
-346
-335
-315
-310
-317
-331
-367
-415
-442
-447
-448
-446
-435
-410
-358
-292
-263
-274
-290
-306
-277
-196
-194
-287
-378
-394
160
1545
2390
1410
-97
-415
-62
-19
-78
-6
11
-9
20
42
51
61
63
77
100
108
112
125
136
149
167
180
194
217
248
281
309
335
374
417
440
447
450
418
325
207
101
9
-65
-106
-125
-139
-145
-145
-147
-152
-153
-147
-141
-144
-153
-147
-135
-136
-141
-136
-129
-132
-137
-131
-125
-128
-131
-125
-123
-124
-115
-106
-113
-119
-113
-108
-103
-94
-94
-101
-98
-87
-79
-76
-75
-79
-79
-72
-66
-62
-54
-43
-40
-45
-42
-33
-29
-28
-25
-20
-17
-13
-4
7
16
23
42
68
74
58
39
18
16
30
18
18
58
19
-111
-243
-274
374
1900
2704
1521
-75
-337
12
-18
-102
-30
-35
-62
-21
-4
-10
8
25
32
45
60
75
92
111
135
160
182
203
228
258
287
308
315
297
263
251
260
227
127
11
-76
-145
-213
-271
-308
-333
-363
-391
-403
-406
-414
-414
-404
-393
-379
-350
-315
-286
-265
-256
-258
-256
-246
-238
-234
-235
-240
-242
-231
-211
-199
-198
-199
-192
-184
-193
-219
-225
-201
-189
-202
-191
-148
-119
-111
-104
-101
-103
-99
-89
-92
-105
-105
-89
-88
-107
-112
-95
-90
-100
-103
-98
-99
-97
-77
-60
-61
-55
-25
-2
-12
-36
-58
-64
-35
-14
-23
10
44
-28
-143
-248
-69
1020
2448
2358
746
-287
-134
38
-85
-88
-53
-97
-89
-58
-73
-75
-51
-39
-29
-14
-5
1
11
22
32
45
73
128
206
278
329
383
446
498
543
590
616
606
567
501
410
325
269
235
214
206
204
203
205
215
226
229
224
219
228
243
238
219
209
192
150
109
90
73
57
64
77
73
53
31
24
29
-1
-84
-162
-209
-260
-315
-352
-378
-399
-413
-431
-463
-503
-541
-559
-546
-518
-510
-535
-565
-569
-555
-539
-526
-535
-567
-570
-511
-446
-416
-379
-316
-280
-304
-337
-317
-248
-179
-137
-114
-104
-106
-99
-107
-198
-287
-267
-267
-371
-476
-515
-73
1212
2166
1355
-203
-688
-396
-350
-429
-391
-416
-432
-298
-150
-55
45
128
166
203
251
285
309
338
366
385
405
430
452
467
492
531
570
599
625
652
665
654
620
559
455
321
205
139
103
66
34
18
10
2
-3
-7
-10
-12
-16
-29
-42
-44
-40
-43
-54
-64
-70
-71
-72
-79
-85
-89
-96
-105
-105
-99
-99
-109
-114
-113
-111
-109
-105
-105
-110
-111
-108
-110
-113
-112
-105
-97
-87
-84
-87
-93
-93
-83
-72
-72
-79
-75
-60
-48
-45
-36
-13
12
22
14
-4
-22
-26
-16
-9
-11
-12
