# session 28
46
80
17
241
721
895
727
630
637
569
471
429
423
426
416
372
318
291
292
287
262
234
201
144
62
-31
-116
-172
-199
-233
-284
-331
-364
-381
-388
-406
-438
-442
-399
-355
-353
-376
-380
-353
-318
-304
-302
-289
-289
-336
-375
-356
-362
-412
-384
-332
-393
-511
-637
-436
760
2215
1970
236
-730
-493
-335
-469
-435
-369
-398
-396
-394
-425
-411
-376
-375
-383
-378
-374
-360
-325
-307
-329
-316
-175
45
217
309
366
415
473
543
594
617
656
705
701
628
542
477
428
392
368
358
362
365
357
349
339
320
305
300
291
283
282
276
260
249
241
232
226
216
191
157
125
89
45
6
-22
-44
-65
-86
-110
-143
-185
-232
-273
-310
-356
-392
-389
-379
-419
-480
-484
-432
-378
-329
-282
-274
-306
-318
-284
-238
-208
-197
-203
-213
-203
-178
-155
-138
-121
-109
-100
-85
-70
-53
-29
-21
-41
-61
-63
-49
-43
-66
-57
-13
-63
-193
-307
-295
401
1882
2547
1332
-145
-352
-58
-103
-165
-107
-127
-145
-99
-86
-102
-110
-128
-136
-113
-93
-90
-73
-32
14
50
81
111
140
166
195
233
273
309
338
359
371
369
347
296
211
107
17
-44
-76
-84
-85
-98
-106
-95
-84
-87
-82
-59
-33
-17
-7
0
12
32
48
50
52
62
67
66
73
89
98
99
101
111
123
127
122
116
118
127
127
110
76
30
-12
-39
-86
-180
-262
-278
-268
-265
-244
-198
-167
-180
-218
-237
-221
-209
-215
-236
-303
-407
-472
-477
-492
-554
-619
-655
-667
-670
-676
-679
-663
-644
-633
-578
-484
-412
-340
-287
-344
-424
-467
-361
508
2020
2474
1240
122
212
554
538
541
634
652
655
683
668
569
381
198
123
125
126
119
117
123
129
110
66
40
46
48
45
67
100
115
125
137
144
146
124
46
-75
-194
-282
-338
-384
-429
-456
-471
-498
-501
-436
-356
-307
-253
-167
-82
-34
-20
-4
21
14
-28
-55
-51
-39
-12
38
85
106
122
154
187
192
172
162
174
190
205
217
216
204
199
203
195
178
168
165
151
126
106
98
94
89
81
68
53
42
44
53
50
41
44
55
57
48
35
19
6
4
1
-11
-17
-13
-11
-19
-35
-47
-50
-81
-124
-110
-119
-239
-390
-513
-241
966
2218
1777
128
-666
-419
-297
-412
-387
-362
-415
-412
-389
-399
-400
-395
-400
-394
-378
-376
-379
-372
-376
-384
-344
-254
-187
-163
-143
-104
-45
35
126
209
269
298
306
297
252
164
70
4
-37
-70
-93
-96
-88
-85
-88
-88
-81
-73
-75
-82
-85
-92
-111
-119
-102
-80
-65
-52
-41
-32
-22
-13
-9
-5
3
13
18
17
22
31
31
30
36
42
41
45
58
76
89
93
98
111
123
131
137
147
159
168
173
181
189
195
204
214
220
227
234
225
203
185
158
108
46
-23
-90
-116
-109
-126
-171
-209
-202
-140
-85
-67
-19
0
-102
-223
-283
2
1167
2499
2241
608
-358
-236
-139
-283
-295
-279
-323
-329
-347
-410
-435
-404
-345
-276
-222
-187
-176
-215
-268
-256
-178
-70
77
247
375
450
523
584
573
502
461
497
533
465
322
184
54
-68
-121
-102
-73
-51
-31
-22
-16
-9
-10
-13
-3
0
-30
-80
-115
-116
-107
-120
-155
-200
-251
-303
-342
-366
-383
-395
-400
-392
-361
-308
-268
-266
-292
-326
-341
-298
-201
-116
-70
-35
4
31
39
37
28
-4
-77
-160
-189
-157
-132
-161
-224
-288
-352
-421
-486
-504
-473
-450
-454
-420
-337
-278
-275
-309
-366
-422
-443
-422
-355
-316
-427
-588
-663
-633
-65
1237
1918
869
-547
-766
-400
-350
-353
-184
-45
77
236
339
391
454
511
549
579
597
608
622
635
646
661
674
680
692
720
750
768
784
809
830
841
846
835
793
717
605
481
377
289
217
188
173
123
71
51
32
8
3
5
1
-12
-54
-99
-81
-30
-18
-37
-55
-87
-125
-142
-163
-206
-237
-252
-276
-294
-306
-343
-373
-359
-343
-348
-332
-307
-317
-338
-348
-358
-348
-313
-291
-291
-270
-227
-209
-217
-217
-207
-205
-205
-197
-193
-196
-185
-160
-146
-154
-178
-203
-199
-184
-209
-221
-182
-215
-337
-465
-505
102
1550
2311
1175
-362
-616
-255
-244
-312
-246
-241
-258
-225
-218
-230
-222
-212
-196
-171
-163
-162
-155
-142
-119
-102
-134
-199
-208
-123
-17
55
125
200
244
263
281
289
283
259
190
97
45
32
20
9
11
17
27
35
30
17
15
18
19
23
34
45
56
72
85
89
87
82
79
77
75
75
80
89
92
72
25
-32
-76
-90
-67
-31
-14
-5
16
35
36
39
53
61
63
73
82
82
87
95
98
101
101
94
90
92
83
66
58
49
28
11
-12
-65
-117
-128
-123
-157
-240
-329
-384
-420
-418
-324
-245
-307
-414
-494
-280
838
2253
2125
520
-458
-269
-85
-179
-148
-94
-119
-94
-72
-115
-140
-131
-132
-136
-126
-111
-104
-97
-63
-25
-4
41
116
174
230
315
381
380
339
324
371
457
511
493
420
326
235
162
112
73
31
-10
-37
-48
-46
-51
-78
-93
-60
-7
19
8
-3
15
54
75
55
5
-53
-107
-154
-195
-226
-241
-237
-221
-204
-185
-157
-116
-74
-50
-36
-2
32
29
15
29
24
-41
-113
-138
-116
-72
-37
-17
10
24
-10
-68
-128
-210
-312
-411
-496
-553
-586
-618
-645
-649
-646
-643
-616
-587
-602
-648
-683
-691
-676
-680
-690
-646
-620
-681
-745
-767
-413
820
2072
1713
254
-367
-27
181
158
214
241
226
270
298
296
337
387
405
413
426
440
445
441
453
489
522
540
555
564
572
597
631
662
693
708
706
716
717
649
525
409
321
243
179
135
104
84
72
64
60
53
41
25
-10
-66
-120
-151
-165
-182
-214
-249
-279
-309
-344
-394
-480
-585
-664
-681
-638
-614
-652
-654
-561
-477
-459
-449
-421
-387
-341
-295
-262
-217
-148
-88
-54
-27
-2
22
54
76
77
79
95
102
101
114
131
135
141
165
188
192
179
155
135
141
143
119
135
172
106
-27
-155
-50
924
2450
2652
1059
-250
-190
102
8
-38
6
-49
-116
-175
-269
-337
-369
-409
-447
-478
-507
-520
-519
-516
-500
-471
-442
-388
-324
-334
-402
-391
-275
-162
-83
7
98
158
176
152
99
41
-8
-34
-38
-36
-33
-23
-10
-1
8
24
40
49
54
55
54
60
78
98
111
122
132
128
121
124
121
108
108
114
101
83
77
73
69
73
78
75
64
46
25
3
-19
-32
-25
-8
-5
-20
-40
-56
-64
-67
-74
-80
-75
-59
-43
-36
-37
-40
-41
-36
-31
-35
-37
-19
14
45
55
40
12
-21
-39
-29
-38
-66
-46
-52
-168
-303
-398
-71
1255
2611
2110
325
-496
-220
-129
-273
-230
-192
-238
-205
-157
-180
-182
-134
-139
-200
-195
-158
-185
-185
-113
-105
-118
-17
-13
-368
-843
-968
-680
-328
-147
-67
12
82
130
142
71
-58
-143
-155
-169
-223
-258
-239
-213
-200
-160
-108
-86
-70
-37
-6
40
110
145
143
170
219
247
271
302
315
322
334
327
311
317
312
288
317
383
375
305
280
304
305
265
214
191
211
219
178
152
171
166
117
108
156
169
123
96
102
85
54
49
61
63
39
-5
-34
-19
22
51
60
62
50
17
-26
-55
-49
-39
-70
-68
-17
-159
-574
-1002
-1185
-718
506
1222
323
-980
-1132
-641
-464
-451
-360
-312
-282
-208
-168
-165
-128
-67
-47
-71
-55
20
73
82
104
140
150
167
220
262
267
300
396
491
540
577
604
582
529
460
324
142
11
-70
-148
-194
-212
-239
-245
-231
-292
-464
-700
-945
-1163
-1383
-1573
-1539
-1300
-1136
-1084
-994
-889
-770
-572
-390
-294
-209
-126
-69
-5
48
49
58
113
156
170
194
223
237
262
300
306
288
290
314
348
390
410
412
432
447
435
457
523
568
576
581
587
579
568
589
604
558
558
657
658
509
346
287
850
2193
2792
1530
19
-105
351
397
369
507
580
584
602
610
628
651
610
479
294
110
-29
-127
-209
-279
-325
-347
-370
-407
-427
-397
-312
-170
22
205
291
237
109
-9
-133
-303
-469
-574
-648
-703
-684
-613
-593
-644
-696
-702
-660
-618
-624
-641
-604
-529
-467
-431
-421
-423
-416
-406
-410
-426
-441
-438
-410
-376
-341
-303
-264
-220
-189
-196
-206
-179
-161
-195
-255
-289
-271
-227
-201
-169
-139
-187
-276
-290
-263
-293
-351
-375
-378
-378
-389
-407
-418
-447
-500
-531
-533
-541
-536
-500
-483
-509
-511
-477
-486
-550
-616
-457
455
1895
2323
1153
-29
-132
103
109
153
242
224
218
238
188
133
131
114
71
34
0
-4
30
56
108
256
417
502
561
634
688
726
785
848
890
918
940
945
918
845
728
603
512
464
432
396
366
358
360
352
331
319
330
340
322
305
314
319
303
290
288
293
300
288
266
272
286
272
254
254
253
248
253
256
251
250
248
244
251
256
247
240
253
269
271
266
260
241
186
27
-251
-495
-582
-612
-690
-739
-713
-674
-635
-586
-543
-463
-316
-188
-125
-37
51
30
-39
-88
67
897
1964
1720
78
-1129
-1180
-1046
-1164
-1218
-1203
-1232
-1263
-1303
-1337
-1293
-1204
-1157
-1160
-1168
-1156
-1139
-1136
-1121
-1085
-1063
-1062
-1053
-1035
-1008
-961
-907
-866
-785
-600
-323
-38
174
281
314
310
279
244
235
243
252
278
314
325
323
352
402
424
415
414
429
444
453
451
442
445
459
461
452
446
444
443
434
416
410
420
418
398
383
382
385
381
362
345
346
348
331
315
321
327
316
307
325
350
350
327
294
258
247
252
227
218
246
201
87
-30
-34
642
2070
2665
1419
-52
-235
108
104
45
98
90
84
125
129
122
140
144
139
143
141
144
169
198
216
236
262
295
330
361
396
439
481
518
546
538
485
404
290
111
-112
-321
-490
-612
-657
-641
-633
-651
-671
-700
-745
-764
-735
-705
-710
-730
-725
-694
-669
-664
-655
-633
-624
-633
-638
-633
-627
-613
-586
-556
-529
-509
-509
-521
-518
-495
-479
-477
-469
-446
-415
-375
-322
-272
-244
-228
-198
-158
-128
-105
-76
-49
-23
14
40
35
10
-18
-27
-18
-32
-33
26
22
-99
-218
-241
286
1730
2832
2043
388
-201
33
48
-49
0
-4
-64
-66
-47
-7
69
126
142
152
162
146
106
75
63
74
124
176
176
160
184
225
256
301
365
425
473
503
505
469
391
289
193
130
110
108
93
71
56
36
37
77
91
30
-52
-101
-135
-168
-190
-200
-209
-226
-221
-157
-72
-27
-17
-9
-1
-14
-48
-89
-122
-122
-70
2
38
44
32
-3
-28
-18
-7
-11
-9
2
5
-24
-86
-125
-113
-106
-134
-148
-117
-70
-40
-33
-44
-52
-35
-24
-25
23
56
-21
-124
-196
45
1166
2514
2318
705
-303
-221
-135
-269
-254
-205
-205
-145
-120
-167
-166
-147
-185
-217
-219
-236
-241
-211
-189
-165
-107
-52
-12
49
108
140
181
227
241
240
247
248
250
253
206
107
15
-39
-69
-106
-169
-221
-235
-263
-323
-366
-389
-427
-465
-488
-511
-541
-574
-598
-583
-537
-499
-475
-450
-430
-418
-417
-452
-517
-563
-577
-595
-634
-675
-697
-705
-719
-752
-798
-833
-796
-641
-394
-125
86
201
297
397
356
149
-15
-1
89
66
-70
-84
109
294
400
530
589
513
403
381
977
2428
3274
2212
615
253
616
695
635
684
710
696
687
686
711
732
724
726
736
736
744
735
704
732
803
768
606
453
360
297
290
345
392
394
376
342
272
148
-33
-236
-400
-516
-618
-707
-759
-776
-785
-800
-817
-822
-818
-828
-844
-844
-828
-811
-816
-845
-862
-846
-838
-854
-850
-814
-783
-753
-683
-586
-512
-465
-440
-434
-397
-329
-313
-357
-381
-363
-329
-296
-271
-243
-209
-193
-183
-154
-129
-131
-140
-140
-131
-115
-111
-117
-101
-59
7
59
2
-132
-269
-298
390
1952
2768
1637
133
-84
260
242
183
265
257
234
299
358
389
404
355
263
203
178
165
166
176
191
222
254
254
236
224
228
252
286
323
372
418
414
381
368
340
243
129
63
21
-13
-10
20
35
37
36
23
17
30
37
36
51
75
86
91
95
93
91
96
99
100
119
153
157
117
69
40
18
-4
-20
-39
-70
-90
-78
-75
-117
-156
-133
-76
-69
-153
-260
-291
-265
-273
-318
-360
-404
-444
-441
-424
-445
-496
-528
-541
-590
-617
-535
-512
-689
-889
-1002
-769
377
1703
1343
-444
-1437
-1193
-994
-1101
-980
-656
-362
-111
42
-15
-245
-459
-532
-510
-439
-290
-92
84
235
361
442
508
589
655
695
742
805
856
889
914
942
958
931
853
742
612
494
411
350
296
261
246
229
203
183
180
176
159
139
125
115
107
90
65
53
55
45
28
20
14
-5
-30
-50
-67
-72
-76
-100
-124
-126
-133
-154
-164
-160
-168
-183
-188
-192
-205
-214
-207
-197
-196
-183
-155
-150
-182
-227
-250
-235
-224
-247
-241
-223
-293
-411
-509
-322
703
2011
1837
186
-833
-588
-313
-369
-293
-195
-248
-264
-226
-225
-204
-157
-148
-153
-135
-119
-113
-92
-49
-13
-1
10
43
90
135
177
225
277
334
391
432
431
368
259
139
8
-135
-234
-262
-269
-280
-275
-271
-272
-252
-229
-218
-186
-144
-135
-129
-78
-24
-21
-23
20
