# session 25
19
95
-151
215
1430
2238
2155
1983
2005
1914
1810
1834
1792
1665
1576
1426
1179
949
774
1107
2389
3398
2544
837
250
532
567
443
451
415
348
343
322
283
280
271
244
227
211
190
183
190
184
157
131
119
110
104
112
129
138
144
155
157
143
115
65
-14
-113
-203
-262
-297
-331
-359
-373
-385
-397
-397
-390
-389
-391
-390
-390
-391
-385
-382
-388
-391
-381
-373
-374
-376
-370
-365
-366
-366
-359
-352
-353
-357
-354
-342
-334
-330
-324
-314
-306
-296
-284
-279
-276
-265
-254
-249
-243
-237
-232
-222
-207
-197
-184
-168
-162
-165
-152
-115
-76
-57
-58
-77
-101
-92
-75
-93
-85
-44
-93
-216
-340
-297
541
2072
2516
1103
-271
-317
-30
-113
-152
-83
-109
-121
-79
-72
-65
-39
-30
-22
-3
11
32
59
66
70
95
119
131
152
182
209
231
251
271
294
309
311
299
260
189
110
43
-10
-43
-54
-65
-77
-77
-69
-67
-69
-70
-69
-67
-69
-70
-66
-60
-60
-63
-61
-57
-54
-50
-47
-47
-50
-53
-50
-47
-52
-56
-52
-45
-44
-46
-51
-53
-48
-41
-41
-44
-43
-44
-45
-44
-43
-45
-47
-43
-36
-28
-30
-42
-45
-31
-15
-12
-15
-4
22
43
42
15
-22
-30
-7
-16
-40
0
4
-110
-239
-330
-13
1232
2443
1914
276
-429
-148
-36
-139
-106
-87
-127
-118
-120
-149
-146
-134
-131
-116
-97
-88
-80
-78
-85
-85
-63
-35
-23
-11
16
43
68
104
135
148
169
189
168
105
35
-30
-88
-125
-141
-141
-131
-123
-125
-126
-112
-100
-96
-86
-79
-87
-90
-75
-63
-59
-49
-41
-40
-39
-42
-55
-57
-45
-46
-55
-41
-22
-45
-84
-80
-45
-20
-3
15
27
34
43
50
54
59
70
79
71
57
59
67
56
28
4
-7
-9
-9
-17
-40
-72
-120
-183
-212
-201
-227
-267
-249
-280
-411
-550
-626
-150
1263
2294
1406
-264
-772
-490
-500
-611
-536
-508
-514
-428
-330
-249
-157
-97
-71
-40
-9
16
43
56
50
54
71
90
116
152
194
238
277
302
326
359
389
394
368
310
224
141
89
58
33
14
6
8
11
9
3
3
10
14
9
6
13
25
28
23
24
33
35
26
19
19
23
25
23
13
7
8
8
0
-1
6
4
-10
-18
-16
-16
-17
-17
-22
-29
-28
-26
-30
-31
-26
-33
-49
-52
-40
-39
-51
-58
-57
-57
-53
-47
-47
-54
-51
-28
-5
-5
-25
-58
-82
-71
-67
-96
-82
-59
-146
-285
-413
-275
785
2291
2334
715
-441
-338
-135
-245
-248
-199
-236
-232
-195
-197
-192
-174
-163
-147
-129
-124
-117
-102
-86
-69
-55
-45
-21
21
58
80
102
130
152
166
169
154
135
118
73
-20
-110
-152
-165
-176
-185
-187
-186
-184
-184
-191
-197
-188
-170
-155
-148
-151
-156
-155
-153
-151
-138
-132
-148
-153
-122
-92
-94
-108
-111
-112
-110
-101
-103
-114
-101
-75
-76
-79
-58
-56
-74
-61
-26
-19
-31
-33
-28
-20
-3
9
3
-3
10
26
17
2
13
39
48
51
64
76
90
118
135
124
104
88
83
96
96
80
107
115
27
-99
-192
133
1348
2518
2024
447
-263
-9
107
13
53
87
48
55
76
64
72
98
99
91
96
81
49
79
166
205
183
172
185
184
151
87
25
-11
-38
-73
-121
-182
-238
-305
-430
-561
-602
-589
-596
-580
-518
-473
-448
-397
-337
-278
-210
-163
-150
-127
-105
-120
-122
-65
-16
-30
-53
-41
-34
-45
-25
4
-10
-8
50
78
49
55
101
101
60
38
42
38
7
-25
-1
60
80
57
47
48
44
48
54
46
47
57
49
42
56
51
17
14
46
33
-20
-48
-71
-95
-83
-126
-268
-418
-506
-46
1400
2529
1675
-81
-652
-327
-287
-407
-359
-356
-415
-418
-435
-461
-401
-311
-276
-242
-183
-177
-222
-249
-284
-344
-337
-235
-108
22
152
234
279
350
436
460
453
534
599
386
-11
-245
-313
-371
-333
-178
-81
-59
-21
16
46
86
99
84
93
119
125
125
128
117
104
120
148
146
121
98
87
90
106
117
106
89
85
87
81
65
37
12
23
60
71
28
-16
-7
27
23
-19
-39
-25
-22
-41
-40
-29
-57
-95
-93
-98
-120
-97
-65
-84
-90
-62
-72
-108
-122
-119
-107
-119
-144
-116
-112
-206
-339
-422
52
1464
2502
1638
2
-472
-143
-92
-172
-125
-124
-132
-97
-114
-139
-119
-110
-93
-59
-75
-105
-76
-40
-26
20
71
73
72
112
165
215
258
287
326
383
410
370
295
235
197
139
40
-52
-82
-64
-56
-81
-100
-81
-59
-81
-123
-118
-70
-77
-162
-239
-351
-591
-838
-981
-1133
-1303
-1321
-1135
-854
-609
-473
-392
-294
-216
-181
-131
-52
-5
-12
-27
-18
2
20
46
60
47
40
71
100
94
97
126
120
81
86
126
149
174
187
165
167
184
123
63
106
121
76
137
184
31
-168
-307
-26
1348
2862
2398
490
-371
-31
71
-81
2
67
26
45
30
-27
0
46
43
45
59
72
94
92
69
74
101
124
147
131
40
-52
-42
33
70
95
170
214
161
77
-18
-152
-241
-217
-167
-170
-167
-121
-119
-211
-323
-383
-375
-300
-214
-166
-111
-38
-24
-74
-116
-128
-130
-130
-156
-209
-240
-256
-298
-340
-326
-263
-206
-175
-132
-53
30
88
144
216
285
326
336
346
378
412
412
368
317
317
366
415
461
534
607
615
581
590
627
580
424
229
43
-124
-279
-416
-514
-571
-610
-679
-778
-828
-881
-1043
-1186
-1199
-803
669
2509
2472
546
-667
-410
-168
-336
-332
-245
-287
-320
-315
-317
-297
-265
-243
-242
-274
-305
-283
-229
-209
-227
-225
-167
-75
-18
-35
-48
38
160
225
272
337
379
383
342
246
127
16
-75
-117
-121
-134
-138
-101
-68
-59
-22
21
-5
-53
-42
-16
-20
-17
-4
-19
-32
-21
-24
-42
-37
-36
-71
-100
-89
-74
-74
-67
-65
-89
-97
-71
-83
-159
-212
-209
-201
-197
-175
-160
-173
-187
-179
-159
-147
-141
-127
-108
-108
-117
-113
-97
-69
-27
-2
-9
-9
-19
-60
-61
-15
-10
21
80
-60
-313
-431
-362
485
2307
3140
1617
-185
-337
105
70
7
110
130
128
156
158
159
151
129
140
152
128
120
134
122
95
102
157
210
213
211
260
304
302
315
358
393
450
531
534
411
262
176
100
-16
-68
-10
26
4
35
101
103
74
85
112
110
72
9
-25
-2
9
-25
-42
-26
-26
-50
-91
-156
-235
-289
-288
-254
-248
-281
-310
-314
-303
-303
-337
-376
-376
-355
-346
-341
-323
-308
-304
-299
-296
-311
-331
-348
-363
-337
-271
-254
-288
-280
-250
-257
-262
-247
-238
-216
-193
-235
-302
-297
-273
-297
-258
-171
-250
-429
-558
-605
72
1743
2579
1216
-487
-679
-284
-351
-479
-448
-479
-497
-453
-453
-443
-377
-362
-414
-394
-265
-142
-75
-17
35
65
98
124
117
117
158
212
262
303
306
286
297
318
264
141
36
-41
-125
-168
-145
-168
-269
-308
-247
-228
-254
-170
33
215
272
169
-10
-93
-59
-58
-126
-136
-32
136
299
414
477
520
552
566
584
622
630
568
516
553
589
525
445
423
384
307
271
278
281
291
314
329
346
364
367
370
386
397
406
420
433
444
447
443
455
454
407
377
394
384
381
401
312
134
-16
-17
666
2032
2459
1043
-509
-753
-513
-613
-737
-744
-806
-825
-749
-718
-742
-730
-706
-727
-755
-734
-706
-714
-723
-714
-714
-710
-664
-575
-476
-395
-336
-261
-145
-34
3
2
44
80
12
-124
-227
-263
-262
-260
-281
-305
-312
-307
-298
-277
-252
-245
-264
-296
-316
-301
-271
-253
-240
-225
-211
-220
-271
-330
-346
-333
-308
-285
-336
-459
-552
-606
-668
-680
-627
-619
-695
-750
-725
-697
-734
-731
-516
-154
60
37
38
222
424
472
424
421
501
595
641
681
757
792
764
802
862
768
585
432
601
1739
3277
3223
1479
317
489
723
601
564
562
481
475
515
504
534
608
538
314
203
316
464
507
490
484
499
463
315
137
34
-48
-169
-257
-249
-206
-194
-222
-301
-437
-573
-653
-736
-884
-999
-980
-909
-901
-916
-902
-892
-896
-872
-815
-747
-650
-518
-422
-380
-320
-225
-154
-98
-35
-7
-32
-66
-84
-76
-28
32
47
35
56
87
66
35
60
93
88
87
104
98
66
43
40
34
8
15
93
166
167
129
87
40
-6
-53
-90
-99
-126
-145
-68
-48
-199
-327
-399
-132
1229
2822
2412
426
-531
-220
-151
-364
-319
-271
-320
-268
-209
-235
-250
-239
-232
-205
-171
-162
-162
-157
-148
-137
-131
-138
-141
-116
-83
-68
-54
-15
32
48
41
38
20
-45
-114
-138
-150
-156
-123
-81
-67
-41
11
41
51
67
80
85
84
68
51
58
74
84
103
113
92
87
135
171
154
137
145
153
163
171
154
130
137
153
144
125
128
145
150
142
145
159
147
106
96
126
129
105
108
105
67
81
159
157
26
-121
-205
-227
-234
-271
-282
-232
-257
-357
-437
-456
74
1398
2105
1008
-474
-750
-465
-491
-554
-507
-538
-545
-460
-396
-340
-248
-171
-124
-75
-30
8
45
73
94
122
150
156
157
184
220
235
249
281
309
322
335
345
317
242
167
133
123
107
97
99
97
90
82
59
18
-22
-51
-87
-136
-171
-195
-226
-251
-257
-273
-308
-338
-352
-367
-386
-396
-391
-372
-347
-327
-318
-302
-276
-264
-263
-245
-230
-248
-270
-260
-229
-199
-166
-127
-83
-29
26
54
66
104
159
192
210
237
263
271
273
291
304
310
358
397
345
256
171
343
1318
2558
2431
959
19
174
388
329
348
397
370
374
391
333
199
24
-136
-233
-297
-364
-421
-460
-490
-509
-525
-542
-549
-539
-517
-497
-487
-468
-431
-405
-413
-419
-382
-299
-214
-190
-255
-362
-439
-468
-461
-423
-371
-334
-316
-318
-345
-369
-352
-306
-262
-223
-169
-100
-48
-39
-58
-88
-128
-154
-140
-100
-57
-21
2
24
54
91
123
137
123
87
40
-2
-28
-39
-39
-24
7
40
57
53
34
25
52
87
96
108
125
123
153
205
171
62
-80
-20
877
2294
2459
958
-244
-140
202
178
182
275
290
294
309
299
314
357
379
382
392
415
437
435
430
450
477
490
502
500
459
407
380
365
324
253
197
202
200
85
-111
-281
-388
-457
-501
-528
-538
-540
-554
-550
-499
-449
-435
-406
-335
-267
-217
-182
-194
-252
-303
-330
-348
-355
-358
-367
-370
-362
-361
-372
-372
-362
-362
-371
-358
-329
-294
-239
-194
-211
-260
-278
-272
-276
-283
-273
-247
-222
-203
-179
-151
-123
-72
-9
16
-27
-96
-122
-120
-153
-163
-122
-160
-279
-370
-352
296
1764
2523
1350
-233
-525
-214
-255
-349
-298
-314
-344
-308
-277
-254
-240
-259
-282
-277
-247
-196
-147
-106
-40
50
132
180
195
213
246
271
311
388
433
416
419
444
389
271
194
172
157
141
127
109
94
90
94
93
77
59
65
89
97
93
102
120
125
124
126
127
129
130
127
125
123
115
111
115
108
93
89
92
87
81
80
76
67
48
17
-18
-42
-50
-47
-49
-63
-78
-77
-70
-73
-80
-74
-55
-41
-42
-53
-77
-108
-113
-109
-133
-125
-87
-143
-261
-362
-312
465
1908
2361
1048
-284
-370
-104
-179
-231
-180
-204
-211
-173
-163
-146
-113
-111
-122
-125
-118
-83
-43
-34
-13
47
95
116
156
211
238
246
263
288
309
327
341
331
275
188
108
45
-5
-29
-29
-19
-4
6
-2
-16
-35
-71
-109
-121
-119
-124
-144
-187
-240
-271
-288
-314
-334
-336
-340
-359
-381
-401
-422
-433
-435
-456
-481
-453
-387
-352
-358
-363
-357
-357
-362
-355
-336
-342
-384
-434
-470
-488
-474
-426
-393
-415
-455
-479
-514
-535
-485
-427
-455
-513
-500
-460
-460
-428
-331
-295
-350
-443
-411
322
1775
2391
1249
-71
-146
269
340
329
399
407
420
474
481
462
472
489
499
502
497
495
505
516
524
528
537
557
575
581
590
611
638
662
672
662
638
604
544
443
329
239
173
120
85
68
55
40
28
22
13
0
-13
-23
-33
-43
-48
-54
-65
-77
-87
-101
-114
-120
-123
-131
-142
-151
-162
-172
-179
-187
-196
-201
-204
-210
-216
-219
-224
-229
-232
-232
-233
-234
-235
-234
-233
-230
-227
-223
-212
-193
-182
-182
-194
-224
-243
-226
-232
-257
-223
-211
-313
-447
-559
-255
1037
2333
1794
35
-724
-388
-236
-341
-293
-254
-292
-272
-240
-242
-231
-214
-205
-189
-173
-160
-139
-112
-90
-75
-59
-31
3
34
68
109
150
185
219
250
269
268
229
144
38
-52
-113
-153
-176
-186
-187
-184
-181
-179
-172
-161
-151
-143
-130
-113
-94
-87
-100
-113
-111
-120
-154
-190
-197
-176
-144
-119
-105
-99
-93
-81
-57
-34
-31
-34
-24
-11
-9
-12
-11
-6
4
9
9
16
34
44
47
57
66
61
44
19
6
33
75
85
75
67
64
87
121
112
123
167
105
-49
-199
-194
612
2204
2751
1303
-222
-344
-54
-155
-210
-110
-94
-77
-3
32
57
108
141
148
162
196
245
298
331
318
272
240
228
234
283
346
347
302
274
234
157
103
79
5
-122
-228
-288
-316
-322
-329
-346
-361
-372
-389
-406
-414
-414
-408
-401
-396
-391
-382
-371
-361
-351
-340
-323
-295
-261
-232
-215
-204
-190
-176
-166
-160
-146
-119
-85
