# session 35
-53
-19
-109
67
538
738
570
446
397
263
186
229
240
218
228
224
216
228
210
180
193
203
184
170
153
131
125
93
8
-68
-117
-194
-287
-320
-288
-240
-183
-134
-129
-131
-118
-131
-140
-118
-139
-170
-96
6
20
7
11
4
17
47
48
56
75
30
-29
-25
-34
-65
-22
5
-84
-182
-303
-251
704
2162
2208
633
-491
-505
-587
-922
-893
-652
-508
-372
-256
-243
-232
-156
-115
-162
-186
-122
-66
-52
7
98
150
203
289
335
354
415
470
486
557
654
633
528
451
354
204
92
71
97
88
1
-71
-23
61
63
44
64
68
62
58
6
-18
31
-72
-352
-438
-249
-93
-41
22
50
51
92
75
18
79
134
69
54
55
-103
-259
-326
-489
-611
-440
-226
-223
-214
-73
6
-2
57
114
42
-43
-7
53
19
-8
47
35
-89
-243
-370
66
1404
2269
1332
-142
-523
-342
-377
-330
-165
-152
-140
-48
-84
-288
-539
-759
-908
-1016
-1155
-1257
-1163
-871
-558
-339
-180
-36
82
179
282
377
442
500
563
603
589
511
394
277
171
80
29
24
33
26
7
2
12
11
-2
1
13
11
23
57
58
18
2
15
11
1
8
11
-2
-13
-16
-15
-3
12
19
17
2
-9
9
24
1
-10
28
62
53
27
17
33
62
64
47
33
7
-9
4
-26
-76
-52
-68
-207
-375
-457
125
1716
2729
1600
-163
-524
-144
-168
-265
-175
-183
-232
-193
-172
-169
-134
-118
-123
-113
-104
-98
-77
-52
-25
9
36
58
94
146
200
239
270
322
376
384
349
279
144
-11
-105
-156
-211
-243
-251
-254
-248
-249
-263
-254
-233
-236
-229
-198
-193
-195
-174
-172
-193
-184
-156
-151
-146
-119
-101
-107
-112
-110
-111
-105
-84
-69
-70
-75
-78
-78
-69
-63
-61
-49
-38
-48
-47
-17
-3
-22
-34
-18
4
20
31
43
41
5
-21
0
-10
-46
4
27
-110
-278
-402
-119
1226
2700
2262
399
-491
-173
-16
-149
-115
-65
-97
-81
-39
-17
-6
-15
-17
6
22
27
45
64
74
90
114
141
169
206
254
302
338
361
383
410
408
339
224
110
9
-72
-119
-144
-173
-208
-229
-226
-210
-197
-194
-203
-216
-218
-211
-190
-157
-154
-191
-212
-206
-246
-345
-434
-475
-473
-435
-384
-331
-273
-238
-232
-238
-326
-539
-742
-822
-854
-934
-1028
-1010
-823
-582
-433
-350
-261
-203
-195
-177
-131
-88
-44
2
22
11
0
15
43
39
37
96
119
32
-81
-210
19
1284
2710
2313
490
-429
-92
170
113
159
209
182
202
232
243
291
330
307
293
339
387
394
400
439
484
502
495
493
538
641
771
888
954
974
988
1006
970
836
664
551
490
375
201
100
118
189
269
277
139
-17
-45
-41
-130
-273
-414
-562
-703
-798
-843
-869
-891
-892
-872
-860
-851
-811
-729
-643
-609
-627
-609
-477
-287
-152
-89
-50
-32
-41
-49
-52
-71
-87
-52
50
170
216
160
67
-25
-117
-169
-168
-169
-143
-89
-164
-334
-455
-522
71
1814
2990
1757
-254
-671
-184
-166
-287
-175
-122
-123
-29
59
50
-34
-137
-214
-267
-302
-307
-310
-319
-304
-283
-285
-279
-243
-191
-125
-51
-7
11
39
53
16
-61
-160
-275
-374
-431
-448
-435
-398
-356
-323
-298
-263
-206
-143
-123
-178
-256
-278
-267
-286
-318
-322
-290
-211
-111
-44
1
30
-14
-109
-171
-215
-286
-338
-310
-195
-40
76
131
169
205
236
285
331
338
341
374
399
403
411
417
406
390
384
401
421
409
380
374
356
311
308
314
250
227
278
196
2
-165
-201
605
2391
3134
1575
-181
-322
61
-25
-107
-39
-70
-91
-66
-87
-80
-44
-62
-81
-55
-44
-48
-26
-7
-10
1
36
64
84
116
161
210
253
284
319
355
337
241
116
0
-98
-174
-228
-254
-252
-257
-278
-274
-240
-223
-230
-237
-229
-205
-192
-207
-206
-166
-147
-159
-146
-123
-128
-126
-107
-107
-110
-85
-67
-84
-97
-79
-61
-71
-83
-73
-54
-44
-47
-51
-47
-36
-27
-21
-21
-22
-14
-7
-13
-15
-6
-1
5
23
37
36
47
70
59
-6
-58
-51
-52
-73
-74
-209
-567
-954
-1249
-1034
318
1735
1149
-788
-1583
-1084
-742
-721
-635
-699
-964
-1157
-1170
-1006
-749
-573
-486
-381
-282
-252
-241
-197
-151
-113
-45
51
135
199
267
354
456
540
584
602
609
580
493
373
257
166
101
62
47
50
63
80
82
66
63
90
113
102
88
110
142
148
149
160
169
178
197
209
205
195
193
215
253
261
240
244
274
282
273
279
287
297
319
324
303
308
331
301
264
305
368
380
375
383
393
415
439
425
389
385
407
377
320
374
456
373
208
63
189
1268
2807
2780
1018
-165
46
347
276
309
394
361
362
398
342
223
131
59
-35
-128
-182
-214
-261
-323
-379
-406
-409
-401
-374
-333
-311
-315
-335
-369
-401
-437
-536
-695
-847
-979
-1095
-1155
-1183
-1246
-1321
-1338
-1300
-1237
-1171
-1124
-1058
-922
-775
-691
-616
-501
-436
-442
-401
-288
-228
-266
-328
-348
-327
-312
-337
-362
-368
-408
-489
-553
-589
-623
-656
-678
-665
-606
-526
-452
-406
-394
-368
-300
-249
-249
-245
-215
-196
-186
-137
-61
9
85
137
125
151
210
159
58
-26
111
1228
2983
3177
1341
-31
188
566
481
477
521
441
430
457
394
350
378
412
466
557
630
667
697
736
779
818
844
858
881
921
972
1022
1066
1088
1091
1076
1022
902
736
582
474
400
349
334
340
324
286
276
292
287
269
281
304
306
312
333
329
302
286
270
243
208
150
89
71
68
38
16
30
41
30
26
49
103
153
109
-91
-375
-611
-788
-965
-1115
-1189
-1230
-1281
-1341
-1413
-1460
-1430
-1375
-1371
-1393
-1374
-1316
-1274
-1291
-1333
-1357
-1382
-1408
-1395
-1382
-1362
-1235
-1106
-1155
-1310
-1452
-1112
447
2232
1909
-143
-1191
-784
-471
-481
-317
-177
-150
-42
52
62
106
173
206
244
288
305
307
300
283
270
210
67
-23
65
233
361
466
571
655
721
767
755
664
537
437
368
313
288
293
296
299
307
308
315
337
354
365
377
381
385
399
409
413
426
448
466
466
446
440
451
439
415
419
432
431
432
431
428
441
450
437
446
478
484
463
448
443
446
463
472
450
413
413
442
417
341
299
274
199
115
97
124
114
64
68
114
76
-2
14
51
44
63
10
-169
-325
-424
5
1568
2919
2033
0
-704
-325
-277
-461
-503
-641
-834
-904
-952
-1008
-1010
-1018
-1045
-995
-894
-841
-843
-857
-877
-894
-874
-839
-836
-835
-795
-729
-667
-625
-611
-611
-619
-666
-762
-880
-1012
-1138
-1195
-1128
-947
-720
-505
-313
-158
-37
75
173
227
253
286
318
341
353
356
365
386
401
409
425
437
426
407
407
417
388
302
195
92
4
-44
-48
-64
-126
-182
-171
-98
-9
62
121
178
225
253
269
280
287
298
320
334
318
289
262
228
214
226
193
158
185
135
-16
-145
-220
291
1807
2815
1706
-98
-522
-119
-69
-146
-65
-51
-88
-77
-86
-97
-66
-56
-84
-87
-51
-25
-21
-10
17
43
61
72
91
141
209
270
326
372
405
437
429
332
171
14
-107
-184
-224
-253
-283
-295
-282
-270
-268
-255
-232
-219
-210
-197
-186
-167
-129
-101
-100
-103
-85
-60
-41
-26
-9
2
4
13
38
52
43
48
80
102
108
131
158
163
160
149
109
76
108
174
218
247
265
262
281
340
347
281
258
294
275
197
164
181
181
171
172
117
28
18
-8
-166
-333
-499
-343
967
2655
2363
273
-905
-627
-469
-700
-730
-700
-766
-757
-708
-708
-696
-662
-644
-629
-599
-568
-556
-546
-517
-478
-439
-400
-358
-297
-220
-161
-119
-65
-9
37
71
50
-37
-150
-264
-338
-345
-354
-417
-459
-441
-411
-384
-363
-366
-358
-306
-259
-258
-257
-221
-201
-214
-185
-110
-85
-111
-118
-98
-44
74
201
254
249
238
225
202
184
182
181
193
237
287
306
306
292
239
173
139
110
73
100
202
267
241
207
215
221
220
275
383
450
445
451
506
541
515
495
493
432
330
294
282
225
209
190
39
-147
-303
-141
1087
2728
2588
691
-448
-185
36
-103
-79
-31
-92
-73
-33
-64
-63
-29
-44
-68
-66
-83
-112
-103
-73
-59
-54
-47
-38
-21
6
47
100
134
154
194
225
204
134
5
-159
-268
-316
-368
-419
-457
-497
-503
-477
-478
-493
-479
-460
-458
-456
-437
-403
-381
-389
-395
-368
-332
-317
-307
-285
-270
-274
-273
-250
-217
-191
-189
-198
-181
-156
-158
-161
-130
-97
-96
-96
-64
-35
-38
-45
-30
-7
14
27
30
26
19
25
48
64
64
76
105
124
127
124
101
75
90
101
78
106
132
25
-125
-274
-178
958
2674
2751
907
-373
-159
125
-15
-23
45
-8
-15
28
27
25
41
56
74
77
72
84
92
92
116
138
132
136
160
181
223
289
333
337
328
323
307
232
87
-65
-181
-261
-304
-331
-353
-347
-332
-332
-319
-311
-352
-383
-359
-352
-388
-410
-413
-426
-441
-449
-454
-438
-400
-371
-350
-321
-303
-311
-318
-318
-320
-310
-297
-308
-319
-313
-318
-327
-321
-329
-350
-345
-326
-321
-309
-284
-270
-268
-260
-239
-213
-180
-151
-151
-140
-83
-54
-50
24
61
-29
-160
-297
73
1544
2818
2001
125
-514
-116
23
-53
8
34
16
60
95
113
173
249
302
350
423
510
566
597
643
697
750
825
899
940
980
1045
1117
1181
1234
1268
1258
1174
1030
866
706
581
507
452
401
380
389
390
367
349
333
234
7
-222
-321
-381
-517
-621
-595
-570
-643
-743
-858
-1020
-1151
-1183
-1178
-1156
-1050
-879
-745
-671
-604
-538
-505
-476
-428
-429
-509
-581
-616
-663
-679
-626
-597
-622
-620
-600
-615
-636
-676
-744
-708
-551
-449
-375
-269
-288
-430
-570
-490
555
2389
2856
1135
-453
-449
-72
-143
-194
-116
-104
-78
-18
7
27
64
102
133
134
126
151
190
199
197
218
256
293
333
372
404
438
476
498
513
520
458
312
166
53
-63
-169
-232
-281
-326
-331
-312
-317
-336
-331
-307
-282
-250
-215
-190
-161
-127
-107
-98
-86
-67
-44
-28
-27
-17
11
31
43
59
62
52
65
88
80
55
54
64
70
94
124
125
116
116
114
121
138
131
119
136
147
142
158
186
203
207
189
165
158
146
142
160
148
147
191
133
-26
-170
-246
401
2136
3157
1883
66
-240
150
114
30
123
135
127
168
168
154
142
65
-61
-142
-131
-131
-271
-452
-507
-488
-502
-540
-564
-521
-377
-216
-98
52
248
382
412
386
326
239
156
92
16
-68
-97
-72
-49
-30
-21
-50
-74
-64
-53
-10
62
42
-45
-42
25
49
78
120
90
32
22
17
-9
-30
-78
-149
-183
-210
-286
-361
-389
-410
-444
-460
-455
-442
-410
-364
-333
-335
-374
-423
-421
-391
-449
-591
-674
-660
-651
-679
-683
-666
-695
-770
-847
-925
-998
-1002
-970
-998
-1016
-980
-1029
-1160
-1276
-1143
-64
1684
2062
503
-721
-446
13
-29
-23
136
231
304
354
349
378
446
476
487
525
544
522
544
621
652
634
659
705
713
737
804
842
852
919
1012
1020
961
899
791
630
498
407
335
298
270
235
246
286
289
276
278
263
236
234
250
260
263
268
282
288
280
304
363
383
355
343
354
361
366
374
384
395
404
413
419
406
386
371
328
238
129
38
-3
-17
-97
-250
-370
-415
-448
-497
-549
-604
-664
-734
-802
-833
-859
-909
-923
-936
-1038
-1191
-1364
-1222
-75
1409
1263
-435
-1452
-1198
-901
-885
-770
-691
-728
-667
-546
-497
-469
-411
-333
-247
-194
-167
-93
7
51
67
110
176
253
324
373
437
538
618
632
617
609
568
456
301
152
40
-36
-86
-90
-53
-39
-77
-105
-87
-67
-54
-6
53
48
3
-9
16
39
38
19
16
23
-8
-52
-36
10
11
-9
-5
14
36
55
48
26
24
27
7
-4
28
58
36
-4
-25
-33
-38
-48
-64
-68
-52
-28
-19
-30
-36
-58
-118
-137
-89
-66
-32
22
-85
-295
-460
-496
334
2195
2968
1347
-424
-480
-50
-165
-247
-140
-177
-225
-188
-211
-249
-209
-160
-167
-195
-206
-199
-191
-184
-154
-95
-38
15
98
198
287
406
552
640
664
672
628
526
440
344
179
16
-72
-115
-131
-129
-162
-246
-323
-333
-281
-217
-181
-169
-151
-102
-6
116
179
152
147
224
254
167
43
-105
-288
-390
-347
-270
-258
-286
-309
-316
-299
-259
-246
-298
-361
-405
-486
-580
-586
-561
-593
-583
-479
-384
-294
-151
-27
39
105
173
205
209
209
200
155
75
13
30
78
16
-118
-211
-298
127
1680
3025
2212
260
-491
-179
-65
-148
-120
-126
-164
-169
-178
-133
-30
36
95
194
261
259
250
278
330
373
385
394
432
477
501
535
616
706
762
788
785
722
605
477
361
265
181
79
-29
-97
-155
-260
-382
-466
-514
-540
-544
-528
-504
-487
-484
-508
-556
-575
-529
-486
-514
-564
-576
-575
-588
-598
-605
-639
-704
-783
-843
-846
-797
-755
-751
-743
-680
-596
-565
-557
-484
-344
-211
-121
-47
45
142
204
232
263
313
360
381
387
397
395
361
336
336
319
320
363
319
172
9
-99
450
2001
2975
1856
104
-308
51
63
-45
0
-9
-38
14
55
57
69
84
95
110
113
93
