# session 27
-37
-42
-70
-78
-75
-114
-122
-91
-173
-208
164
687
834
718
689
698
646
608
592
565
542
515
479
454
439
416
393
376
355
328
303
288
277
257
230
210
199
187
175
161
141
124
117
106
87
75
80
92
94
78
45
-1
-21
-5
-23
-61
-35
-40
-160
-302
-413
-68
1313
2638
2025
212
-540
-223
-121
-243
-194
-169
-209
-180
-157
-167
-141
-106
-100
-96
-86
-72
-52
-37
-23
2
25
39
64
98
125
157
204
246
269
286
300
293
254
177
65
-54
-154
-228
-279
-308
-319
-326
-338
-347
-347
-341
-334
-325
-317
-314
-310
-297
-283
-287
-300
-300
-293
-291
-284
-266
-262
-284
-308
-317
-325
-342
-356
-357
-349
-341
-341
-352
-382
-429
-462
-453
-416
-382
-363
-344
-311
-274
-250
-233
-204
-162
-125
-95
-74
-67
-64
-46
-22
-11
-9
0
9
6
7
18
22
20
37
74
105
114
115
113
96
89
108
98
78
120
122
8
-121
-210
151
1502
2783
2200
465
-274
0
83
-34
16
48
16
44
67
56
69
88
92
103
115
122
136
154
171
200
235
273
325
386
439
489
539
582
615
643
672
695
693
642
540
414
296
202
133
86
53
27
8
-12
-34
-46
-47
-47
-47
-50
-61
-67
-59
-58
-78
-98
-116
-144
-177
-203
-231
-263
-286
-290
-278
-263
-264
-286
-306
-315
-324
-330
-319
-301
-297
-293
-276
-269
-294
-341
-392
-423
-426
-431
-453
-470
-478
-485
-461
-416
-399
-403
-396
-391
-383
-343
-306
-314
-343
-375
-417
-450
-459
-464
-465
-433
-381
-362
-367
-368
-390
-389
-298
-240
-283
-328
-342
58
1359
2521
1918
319
-290
36
168
83
119
148
128
142
155
158
186
219
242
256
263
282
308
314
313
326
343
352
362
385
413
437
462
494
527
549
558
556
533
470
358
228
130
65
6
-46
-74
-85
-93
-96
-97
-101
-107
-110
-104
-97
-106
-117
-112
-108
-117
-122
-117
-118
-126
-126
-124
-129
-136
-138
-138
-139
-140
-141
-140
-138
-138
-140
-140
-141
-146
-145
-136
-134
-140
-139
-128
-125
-133
-136
-127
-117
-116
-121
-124
-119
-106
-96
-100
-100
-82
-60
-48
-47
-57
-85
-101
-82
-86
-107
-66
-49
-159
-298
-407
-134
1134
2542
2167
392
-518
-240
-64
-178
-152
-109
-141
-125
-97
-94
-71
-45
-38
-19
11
38
60
78
98
123
145
163
188
221
250
275
312
356
393
421
447
457
423
341
228
103
-15
-107
-173
-231
-275
-292
-294
-302
-308
-309
-314
-322
-328
-339
-352
-350
-338
-327
-315
-298
-279
-265
-257
-252
-247
-238
-221
-203
-196
-193
-179
-152
-132
-128
-123
-111
-101
-101
-102
-93
-82
-78
-73
-59
-58
-75
-73
-47
-35
-43
-33
-10
-8
-21
-23
-19
-21
-27
-30
-31
-30
-28
-20
-3
18
42
71
90
94
93
76
41
37
49
22
25
65
-7
-164
-300
-269
531
2055
2554
1163
-273
-378
-98
-184
-243
-189
-221
-245
-227
-247
-263
-253
-256
-250
-234
-239
-248
-238
-222
-196
-136
-48
44
125
192
261
331
386
424
461
495
522
536
516
447
354
268
193
128
87
72
70
75
81
84
85
87
94
103
100
91
94
107
108
102
105
111
105
93
90
97
104
103
99
96
93
92
99
106
93
62
44
46
52
54
44
12
-19
-24
-26
-57
-101
-127
-144
-176
-217
-253
-294
-334
-340
-330
-366
-434
-477
-516
-574
-600
-590
-601
-621
-594
-536
-517
-539
-528
-486
-500
-569
-619
-641
-611
-520
-469
-495
-548
-430
415
1821
2173
835
-440
-475
-190
-247
-275
-196
-188
-149
-51
7
46
98
131
156
188
209
224
246
272
295
310
318
332
352
376
416
463
493
514
541
560
569
575
547
457
330
217
137
82
39
2
-18
-19
-19
-29
-32
-25
-26
-31
-31
-30
-27
-22
-27
-42
-51
-55
-61
-63
-63
-63
-63
-70
-80
-77
-73
-80
-87
-83
-80
-83
-89
-95
-98
-99
-100
-102
-103
-97
-87
-86
-96
-102
-97
-97
-104
-104
-97
-99
-105
-98
-80
-69
-61
-51
-49
-68
-106
-128
-110
-110
-144
-128
-108
-199
-336
-448
-217
967
2398
2174
451
-549
-317
-113
-226
-214
-174
-222
-216
-185
-191
-174
-136
-120
-110
-92
-78
-66
-58
-54
-50
-65
-101
-106
-52
28
105
177
243
306
366
402
415
412
366
269
153
46
-37
-84
-109
-127
-131
-122
-119
-125
-121
-108
-103
-107
-101
-84
-72
-66
-62
-64
-67
-59
-51
-56
-65
-60
-43
-29
-27
-27
-24
-26
-25
-21
-25
-30
-25
-25
-37
-43
-42
-55
-75
-77
-69
-67
-68
-69
-74
-74
-62
-56
-60
-63
-59
-54
-49
-43
-37
-30
-32
-39
-31
-8
9
10
-3
-36
-63
-53
-53
-85
-65
-43
-148
-295
-405
-287
705
2229
2372
753
-496
-416
-191
-323
-349
-295
-340
-351
-321
-327
-326
-311
-309
-298
-281
-281
-270
-240
-220
-207
-173
-128
-81
-19
48
101
160
231
285
323
363
392
394
367
298
192
94
32
-9
-39
-54
-61
-67
-63
-51
-52
-68
-73
-69
-75
-81
-72
-64
-64
-58
-46
-38
-32
-20
-4
5
6
11
20
21
24
37
50
49
43
38
40
50
60
64
64
63
62
62
61
63
67
67
64
61
64
68
67
65
70
78
70
55
53
65
76
76
72
86
125
151
135
106
82
62
64
62
34
44
62
-22
-152
-262
-121
869
2267
2294
762
-337
-248
-62
-176
-183
-145
-217
-279
-312
-359
-388
-419
-467
-472
-430
-393
-366
-338
-310
-276
-243
-233
-226
-184
-111
-39
22
81
139
180
204
216
202
146
46
-79
-186
-238
-247
-259
-283
-284
-252
-224
-226
-248
-255
-223
-178
-159
-154
-139
-119
-99
-92
-108
-119
-105
-90
-92
-109
-141
-187
-232
-246
-212
-164
-141
-130
-125
-137
-163
-193
-222
-236
-233
-227
-220
-210
-202
-185
-146
-100
-65
-25
24
65
95
124
148
170
193
212
229
253
272
272
245
203
188
212
212
186
212
227
145
27
-94
118
1268
2608
2324
662
-272
-56
127
25
39
87
62
71
98
107
129
148
155
175
198
208
220
236
249
262
282
302
314
328
355
365
329
281
257
233
195
171
157
95
-34
-169
-262
-323
-370
-403
-432
-453
-439
-406
-402
-429
-449
-451
-451
-468
-500
-513
-484
-448
-421
-380
-344
-339
-338
-306
-263
-241
-234
-219
-204
-202
-202
-193
-193
-216
-237
-234
-221
-223
-234
-232
-216
-206
-211
-223
-229
-230
-230
-225
-207
-185
-167
-152
-132
-110
-95
-91
-85
-68
-48
-36
-27
-9
15
33
53
82
104
105
89
66
69
94
82
73
121
103
-18
-143
-188
362
1831
2801
1816
167
-254
64
62
-35
29
34
7
49
68
52
64
82
78
68
66
73
84
96
117
152
185
203
223
262
308
350
394
439
464
471
482
489
468
405
307
196
94
9
-65
-123
-166
-196
-214
-221
-230
-247
-258
-249
-233
-226
-229
-230
-224
-208
-181
-149
-121
-101
-84
-67
-42
-20
-13
-10
-4
-26
-88
-144
-167
-182
-200
-206
-207
-211
-217
-224
-217
-194
-189
-216
-230
-217
-211
-221
-226
-221
-215
-207
-199
-196
-188
-180
-184
-192
-192
-193
-193
-187
-184
-201
-232
-250
-240
-225
-222
-218
-213
-222
-234
-216
-172
-165
-195
-192
-227
-372
-507
-588
-368
766
2219
2145
586
-378
-202
-19
-94
-73
-78
-172
-188
-155
-121
-41
40
78
109
153
192
219
237
260
284
305
329
349
351
347
352
368
395
427
447
444
427
405
371
306
208
117
65
39
24
29
50
64
76
104
128
128
128
147
162
153
126
115
130
138
124
121
137
138
124
121
130
130
80
-24
-99
-95
-74
-104
-158
-189
-187
-170
-170
-205
-243
-251
-266
-339
-422
-422
-368
-357
-373
-350
-330
-370
-416
-407
-372
-341
-289
-218
-170
-160
-152
-119
-84
-68
-61
-51
-36
-21
-24
-41
-44
-48
-80
-124
-143
-135
-142
-169
-156
-136
-205
-314
-427
-360
509
1947
2214
785
-465
-467
-208
-279
-303
-253
-297
-315
-271
-256
-245
-194
-122
-45
25
77
122
165
189
199
221
223
156
62
23
35
68
139
237
320
393
468
503
474
405
312
204
120
71
30
-5
-16
-17
-22
-25
-26
-28
-30
-30
-31
-32
-36
-49
-59
-52
-41
-42
-43
-34
-30
-35
-44
-55
-62
-64
-66
-57
-40
-50
-87
-115
-135
-159
-164
-140
-118
-108
-91
-72
-66
-62
-49
-34
-23
-17
-13
-9
-4
-2
-4
-6
-3
5
7
2
-2
-1
-5
-11
-8
-5
-6
-2
6
5
5
15
23
24
27
26
16
-4
-14
0
-6
-28
-6
-21
-141
-270
-357
-50
1193
2471
2031
384
-402
-169
-66
-182
-167
-158
-199
-186
-188
-210
-193
-181
-199
-202
-199
-210
-224
-241
-257
-239
-168
-76
8
71
110
140
172
195
217
253
296
319
310
278
223
138
43
-31
-83
-124
-139
-132
-134
-152
-161
-157
-151
-146
-147
-154
-162
-165
-162
-161
-168
-183
-197
-217
-244
-266
-279
-293
-310
-331
-348
-337
-308
-301
-315
-318
-315
-330
-338
-321
-314
-340
-360
-345
-312
-283
-267
-259
-253
-245
-232
-205
-175
-159
-148
-127
-101
-71
-26
30
72
85
82
78
79
85
105
139
172
211
271
339
389
425
456
470
469
470
478
494
507
495
507
545
493
380
289
242
741
2074
2881
1924
492
195
484
468
392
448
447
430
469
502
529
517
390
219
119
70
27
11
44
144
290
357
243
35
-98
-97
-50
-79
-182
-268
-311
-350
-382
-408
-466
-570
-671
-720
-725
-725
-750
-795
-801
-747
-702
-702
-679
-614
-586
-611
-600
-523
-475
-504
-519
-465
-415
-409
-404
-374
-353
-346
-316
-266
-261
-305
-338
-337
-299
-223
-173
-200
-258
-288
-275
-204
-90
4
37
3
-73
-133
-158
-155
-108
-47
-43
-101
-164
-208
-224
-208
-187
-192
-219
-233
-234
-255
-298
-327
-338
-324
-256
-159
-100
-81
-25
127
263
250
180
136
261
1100
2420
2611
1229
54
61
326
306
307
338
295
308
369
382
385
405
414
417
421
416
409
411
416
419
417
409
409
426
446
452
458
478
497
507
513
508
489
450
366
233
104
18
-46
-105
-146
-164
-171
-176
-184
-193
-196
-198
-209
-219
-220
-221
-230
-241
-248
-249
-251
-255
-264
-275
-276
-268
-264
-268
-275
-284
-285
-283
-288
-286
-280
-289
-299
-284
-267
-274
-282
-277
-272
-269
-262
-257
-258
-257
-253
-255
-256
-244
-224
-215
-215
-208
-185
-159
-150
-153
-162
-181
-184
-174
-188
-182
-135
-169
-291
-411
-424
232
1715
2454
1274
-265
-503
-158
-175
-251
-181
-172
-184
-146
-133
-127
-92
-63
-45
-27
-13
13
49
71
102
133
82
-24
-38
47
116
153
209
275
338
403
455
476
464
410
321
220
130
65
29
11
1
1
11
25
29
13
-10
-18
-11
0
9
8
-3
-3
2
-9
-26
-42
-85
-138
-152
-137
-131
-128
-120
-129
-153
-159
-139
-120
-120
-131
-128
-93
-35
7
6
-15
-13
14
42
86
148
159
94
28
8
-3
-26
-34
-29
-34
-47
-58
-71
-93
-103
-84
-52
-34
-44
-76
-100
-121
-152
-129
-79
-144
-274
-375
-365
346
1854
2481
1179
-326
-507
-217
-297
-396
-370
-397
-410
-403
-431
-422
-385
-399
-411
-388
-404
-459
-459
-384
-322
-317
-296
-177
17
195
324
435
530
577
585
593
603
586
541
476
386
286
203
120
37
9
39
71
89
110
135
159
174
168
155
157
169
176
185
209
238
248
247
269
291
267
239
272
309
256
131
10
-85
-162
-221
-264
-309
-353
-373
-377
-384
-399
-418
-430
-423
-410
-410
-418
-418
-407
-386
-368
-361
-350
-329
-319
-319
-300
-261
-228
-206
-177
-142
-125
-131
-147
-163
-169
-165
-185
-202
-173
-193
-306
-402
-448
-97
1136
2306
1793
235
-429
-181
-104
-213
-175
-137
-143
-92
-43
-37
-25
8
37
42
35
45
75
105
133
165
196
208
197
203
246
290
312
328
331
317
309
306
277
214
128
30
-61
-123
-151
-161
-172
-175
-142
-83
-52
-59
-72
-70
-55
-22
21
46
49
65
115
161
163
138
108
72
46
56
88
106
113
120
120
111
112
123
129
124
106
81
64
59
51
35
25
27
38
45
41
45
67
83
72
48
26
6
-1
13
32
31
13
23
52
43
47
103
79
-52
-200
-271
258
1603
2340
1273
-240
-594
-356
-401
-483
-417
-391
-393
-385
-404
-391
-350
-382
-460
-494
-485
-442
-351
-265
-239
-234
-213
-207
-220
-214
-188
-167
-146
-118
-109
-122
-135
-153
-209
-293
-385
-485
-582
-652
-699
-721
-713
-722
-755
-717
-570
-396
-248
-115
-6
73
139
184
205
221
220
183
156
183
224
242
250
253
240
219
205
201
208
220
228
220
201
203
210
172
107
79
81
70
53
43
29
13
15
25
18
-6
-30
-45
-38
-24
-30
-18
15
-23
-120
-231
-194
601
2066
2512
1177
-165
-234
76
41
0
54
49
58
88
81
101
162
202
222
253
296
335
363
397
444
484
519
560
601
620
598
521
415
361
393
440
437
412
397
336
177
-31
-192
-286
-365
-451
-524
-583
-645
-696
-699
-656
-610
-584
-553
-497
-432
-374
-337
-325
-321
-301
-264
-249
-277
-315
-335
-345
-356
-362
-361
-357
-348
-339
-332
-322
-307
-293
-278
-251
-210
-170
-148
-145
-146
-136
-110
-65
-17
17
