# session 15
-174
-188
-157
-70
-111
-510
-1120
-1478
-1415
-1204
-968
-570
-226
-336
-691
-826
-828
-886
-804
-608
-675
-956
-1079
-1109
-1251
-1188
-709
-394
-628
-884
-824
-763
-758
-600
-372
-204
-58
58
134
221
311
360
393
433
455
464
492
514
469
333
120
-85
-152
-114
-144
-257
-325
-270
-106
53
128
203
271
230
92
-153
-63
1230
2868
2564
637
-323
54
262
123
173
245
187
189
257
206
-3
-128
2
178
225
255
328
378
411
449
468
467
451
416
379
340
272
186
129
110
95
64
51
68
77
68
71
88
85
56
40
58
67
38
23
50
75
78
74
75
91
96
70
72
100
79
77
120
79
-52
-262
-306
694
2459
2708
877
-517
-298
97
-2
-32
76
80
-91
-391
-573
-504
-338
-202
-187
-294
-283
-97
29
101
242
226
-166
-714
-1118
-1350
-1528
-1730
-1825
-1566
-1045
-628
-422
-280
-150
-76
-73
-96
-60
13
-50
-339
-714
-988
-1122
-1183
-1259
-1383
-1485
-1525
-1567
-1576
-1500
-1490
-1554
-1428
-1125
-849
-559
-308
-250
-293
-408
-165
1319
3047
2655
724
-73
362
523
426
496
465
376
452
545
575
624
674
715
780
846
903
954
990
1025
1065
1075
1065
1067
1052
1006
971
948
907
875
867
844
813
801
759
677
625
563
428
326
324
272
105
-2
66
213
337
442
532
578
587
590
585
581
590
584
576
635
681
603
473
278
228
1132
2670
2817
1229
67
48
-108
-624
-830
-837
-922
-992
-1049
-1102
-1073
-1064
-1173
-1260
-1242
-1259
-1355
-1396
-1360
-1348
-1358
-1343
-1324
-1300
-1272
-1293
-1364
-1434
-1490
-1539
-1565
-1566
-1521
-1337
-1004
-739
-693
-751
-803
-865
-880
-878
-996
-1040
-721
-313
-248
-402
-458
-359
-166
22
119
200
303
362
416
477
440
336
178
185
1146
2754
2915
1185
-100
103
479
446
472
532
430
170
-247
-544
-483
-387
-469
-418
-114
184
354
454
514
548
555
540
544
536
454
366
332
298
283
313
240
24
-91
16
166
232
266
309
348
372
371
351
352
407
454
431
400
426
458
475
513
522
463
443
505
528
511
543
536
465
355
120
420
2043
3448
2497
485
-82
373
463
394
489
478
430
511
587
601
606
576
442
138
-293
-650
-782
-731
-624
-544
-504
-514
-598
-714
-792
-857
-974
-1080
-1038
-895
-870
-935
-776
-363
-1
204
345
426
485
616
707
610
460
393
248
-60
-265
-243
-287
-546
-811
-1006
-1160
-1148
-998
-854
-656
-540
-766
-1159
-1470
-1351
-215
1083
622
-1057
-1636
-1057
-748
-789
-751
-787
-887
-910
-985
-1074
-921
-600
-484
-625
-682
-558
-473
-364
-35
279
297
206
222
249
201
136
72
-8
-90
-192
-341
-528
-708
-787
-766
-793
-824
-591
-147
166
278
351
415
409
294
115
25
75
186
328
452
471
484
579
634
628
642
617
552
410
245
924
2683
3384
1727
8
58
544
440
407
569
524
437
473
501
502
509
498
491
504
525
564
596
614
653
664
617
655
695
288
-540
-1032
-838
-446
-237
-124
-34
3
46
109
127
130
179
226
225
214
224
253
269
177
6
-41
74
182
247
309
325
334
392
408
410
485
498
416
286
119
713
2546
3533
1903
-185
-458
-112
-273
-163
176
-103
-811
-1289
-1269
-869
-672
-947
-1129
-967
-934
-1135
-1204
-1062
-860
-676
-545
-461
-403
-415
-511
-609
-651
-672
-716
-759
-765
-743
-689
-617
-577
-548
-478
-416
-393
-379
-424
-583
-755
-831
-850
-886
-940
-978
-971
-939
-931
-886
-726
-591
-609
-641
-663
-754
-718
-569
-359
714
2626
3188
1592
184
303
692
631
534
408
182
72
36
-59
-126
-103
-46
6
41
83
177
324
454
492
476
523
605
606
535
408
179
-36
-50
96
227
283
337
460
603
675
706
775
843
835
773
700
615
533
494
517
581
615
577
518
471
420
371
281
153
168
278
141
-158
-334
-470
-34
1553
2618
1380
-477
-746
-301
-473
-836
-977
-1115
-1228
-1244
-1272
-1325
-1353
-1346
-1338
-1387
-1374
-1108
-719
-490
-390
-221
22
224
331
348
319
301
292
272
260
259
253
261
302
314
266
245
279
264
170
71
-22
-109
-119
-49
-19
-73
-130
-149
-187
-246
-249
-243
-332
-387
-268
-159
-171
-268
-535
-287
1452
3157
2287
13
-709
-134
41
-69
23
50
-56
-228
-498
-644
-512
-369
-424
-501
-421
-256
-84
105
243
276
289
350
381
323
238
169
92
32
39
58
18
-47
-77
-67
-43
-32
-30
-18
-19
-51
-68
-50
-45
-59
-50
-21
2
40
106
129
85
69
108
98
68
121
131
0
-193
-370
65
1651
2894
1907
-26
-562
-134
-91
-205
-78
18
35
84
108
77
-20
-172
-279
-342
-374
-245
12
161
173
192
226
232
249
283
283
246
208
203
216
165
29
-63
-26
75
167
216
217
210
169
22
-159
-280
-423
-593
-633
-573
-582
-630
-617
-583
-567
-564
-623
-688
-672
-696
-800
-890
-1071
-882
539
2044
1402
-568
-1328
-970
-885
-979
-936
-1059
-1195
-1034
-871
-1035
-1331
-1354
-1025
-605
-316
-177
-86
84
280
350
317
242
114
64
177
274
270
285
319
306
290
302
339
407
441
407
396
443
458
411
379
397
413
389
372
391
397
393
410
392
357
382
404
386
394
365
274
110
-133
387
2308
3600
2181
-10
-352
255
295
183
283
275
220
238
211
172
200
250
293
336
386
452
517
566
606
638
635
575
507
501
490
374
235
200
209
180
165
149
27
-149
-275
-400
-523
-546
-560
-720
-866
-748
-496
-464
-740
-1137
-1471
-1563
-1331
-978
-690
-410
-172
-64
25
124
135
34
-213
-108
1142
2510
1936
76
-700
-365
-274
-387
-251
-173
-319
-420
-362
-231
-108
-137
-414
-669
-551
-219
-141
-441
-859
-1153
-1305
-1402
-1496
-1626
-1740
-1718
-1665
-1694
-1480
-914
-589
-732
-764
-446
-160
-1
207
362
356
340
383
398
400
437
483
534
567
534
509
560
572
501
494
531
450
358
459
511
152
-37
1116
2953
3041
1161
-138
65
352
220
207
268
230
241
285
251
205
235
309
332
306
324
382
411
447
521
567
557
538
493
365
198
82
23
-20
-68
-104
-90
-64
-103
-160
-138
-85
-89
-132
-161
-162
-153
-175
-215
-204
-158
-161
-205
-227
-227
-215
-212
-253
-275
-252
-299
-386
-538
-774
-170
1736
2731
1117
-841
-920
-327
-338
-415
-305
-313
-358
-350
-348
-299
-262
-320
-331
-229
-154
-104
10
74
17
10
98
99
-14
-76
-80
-146
-269
-357
-383
-365
-333
-338
-384
-411
-394
-369
-388
-431
-419
-339
-291
-334
-360
-295
-295
-490
-660
-532
-291
-341
-598
-634
-458
-344
-277
-232
-285
-381
-553
-394
971
2632
2297
405
-489
-173
-50
-138
-25
55
73
123
127
185
259
159
87
243
359
307
341
522
608
535
480
489
472
437
414
361
304
298
304
284
267
287
343
396
422
451
495
513
509
521
525
488
447
451
484
469
379
298
274
237
181
169
171
183
242
258
198
92
-51
384
1902
2999
1972
189
-238
141
152
93
258
323
252
227
267
305
280
128
-166
-417
-475
-608
-1006
-1372
-1534
-1620
-1630
-1596
-1610
-1563
-1473
-1542
-1703
-1808
-1872
-1816
-1580
-1368
-1333
-1408
-1519
-1601
-1591
-1565
-1629
-1682
-1487
-1041
-610
-362
-214
-67
80
185
207
198
254
342
399
452
455
369
202
-93
154
1826
3485
2721
580
-153
293
328
156
273
314
231
253
290
279
300
359
445
527
565
624
729
773
759
796
841
800
715
620
506
423
355
224
111
128
163
116
82
113
112
52
18
36
55
41
24
31
41
18
-6
20
64
47
-3
-18
-25
-44
-28
-33
-124
-301
-606
-438
1083
2760
2231
180
-704
-293
-110
-211
-119
-66
-124
-92
-33
-32
-5
70
111
99
107
172
248
303
340
354
354
344
302
243
204
171
118
54
-2
-37
-45
-31
-2
18
13
1
-13
-25
-6
-3
-77
-148
-146
-146
-162
-135
-98
-37
68
2
-430
-1127
-1759
-1833
-1335
-1026
-1242
-1434
-1081
143
1793
2145
744
-408
-262
51
-21
-10
58
-3
-50
-184
-583
-982
-1101
-1024
-855
-563
-226
-20
40
113
257
313
287
370
338
-187
-886
-1232
-1338
-1475
-1546
-1453
-1266
-1059
-885
-725
-547
-437
-401
-302
-137
-42
-46
-72
-57
4
62
123
220
295
322
356
367
357
440
510
399
241
81
158
1292
2945
2888
1046
-80
181
390
246
292
360
279
260
300
289
276
298
335
380
434
498
578
662
716
728
730
735
722
689
636
544
448
378
294
197
161
193
210
184
172
192
182
132
117
142
125
68
57
113
147
109
73
83
90
108
133
82
46
112
97
-43
-272
-503
219
2233
3142
1312
-769
-896
-490
-848
-1251
-1371
-1599
-1833
-1904
-1946
-1958
-1901
-1882
-1801
-1432
-931
-616
-433
-214
-59
-50
-69
-79
-146
-235
-292
-322
-289
-181
-108
-98
-45
28
25
15
71
111
119
157
189
179
172
173
173
200
231
236
252
268
232
188
177
188
265
326
194
-52
-334
-417
647
2681
3210
1350
-275
-168
206
71
73
211
173
148
213
233
234
259
278
306
342
355
376
446
496
424
260
129
66
-6
-127
-261
-377
-476
-519
-450
-315
-203
-108
-1
75
84
64
70
80
65
128
239
29
-600
-1173
-1409
-1549
-1757
-1922
-1976
-1969
-1983
-2007
-1960
-1893
-1819
-1590
-1355
-1008
344
2258
2411
613
-532
-195
151
98
191
307
297
369
467
464
472
539
585
624
678
705
731
808
870
860
847
865
855
799
731
648
548
474
435
383
316
294
336
386
382
329
322
401
473
475
463
464
471
506
533
510
502
528
500
455
461
439
406
435
398
284
175
22
477
2115
3190
1878
-67
-327
237
264
169
277
267
199
196
107
-60
-180
-266
-382
-563
-808
-1018
-1096
-1097
-1081
-1030
-1026
-1169
-1373
-1550
-1733
-1860
-1828
-1688
-1531
-1369
-1188
-992
-823
-718
-648
-588
-561
-535
-489
-473
-491
-490
-470
-442
-384
-296
-198
-124
-70
11
76
53
46
110
90
-53
-286
-370
592
2492
3001
1188
-401
-233
172
-37
-117
13
1
1
54
32
44
111
104
71
105
150
172
198
214
226
263
285
255
221
192
127
45
-16
-66
-113
-136
-136
-135
-147
-160
-170
-184
-194
-180
-158
-173
-224
-242
-186
-128
-141
-161
-108
-88
-188
-257
-202
-148
-124
-121
-223
-386
-631
-686
517
2637
2932
778
-803
-497
-72
-222
-216
-105
-162
-169
-98
-83
-68
-14
37
98
182
252
281
309
375
433
456
492
535
523
473
429
373
316
297
306
317
348
400
432
449
497
560
573
565
623
707
707
634
594
632
696
733
779
859
908
923
931
894
898
998
982
837
668
330
440
1781
2732
1333
-763
-1171
-716
-781
-952
-893
-911
-942
-880
-884
-938
-938
-910
-852
-759
-725
-758
-743
-686
-680
-703
-696
-684
-690
-703
-732
-765
-783
-813
-854
-852
-829
-848
-859
-800
-738
-728
-719
-694
-678
-653
-625
-661
-740
-749
-658
-583
-601
-627
-603
-594
-597
-574
-588
-606
-551
-547
-641
-764
-886
-419
1045
1974
902
-672
-898
-494
-488
-546
-464
-466
-472
-417
-381
-343
-320
-344
-324
-231
-141
-59
14
22
-1
91
343
622
807
910
975
1006
1016
1020
1006
985
988
992
984
1008
1050
1026
948
893
876
866
842
789
722
682
682
679
652
634
615
565
535
537
495
458
477
405
222
-18
-203
468
2214
2963
1359
-439
-512
-2
-16
-73
25
2
-42
-6
-4
-42
-58
-52
-34
-1
47
88
113
145
185
199
183
143
71
-15
-84
-164
-291
-420
-494
-531
-560
-562
-554
-590
-661
-694
-668
-610
-531
-450
-426
-468
-490
-440
-386
-397
-430
-438
-449
-455
-450
-476
-468
-407
-439
-560
-746
-873
-30
1914
2606
772
-1068
-1025
-497
-535
-540
-409
-416
-391
-325
-345
-314
-217
-194
-194
-139
-93
-82
-49
16
82
117
117
103
83
39
-27
-92
-150
-206
-229
-193
-150
-178
-246
-257
-195
-132
-109
-98
-72
-52
-73
-105
-77
-5
23
11
31
68
82
74
59
70
87
62
62
83
-8
-162
-332
-332
682
2512
2845
955
-587
-409
13
-90
-106
3
-20
-36
4
26
68
117
125
135
175
218
265
336
398
408
399
408
395
337
272
213
162
142
108
40
39
118
140
100
105
124
110
119
137
119
116
121
90
106
135
-39
-330
-422
-383
-505
-712
-724
-584
-552
-584
-463
-332
-387
-510
-678
-565
614
2033
1567
-313
-1091
-583
-297
-337
-218
-142
-174
-134
-86
-96
-112
-128
-131
-134
-188
-231
-164
-32
67
116
151
199
226
200
152
108
49
-13
-34
-16
1
-10
-37
-43
-24
-19
-34
-38
-19
3
14
21
27
3
-33
-24
-1
-25
-39
-15
-39
-95
-103
-115
-127
-72
-70
-199
-391
-476
262
1954
2640
1034
-759
-797
-206
-182
-240
-102
-88
-145
-106
-67
-84
-78
-17
52
98
134
175
213
255
316
376
403
383
321
247
158
23
-128
-225
-273
-294
-270
-233
-233
-234
-207
-188
-186
-161
-123
-122
-141
-141
-137
-142
-126
-106
-120
-127
-105
-113
-133
-119
-123
-128
-84
-108
-244
-433
-511
273
2056
2801
1173
-673
-750
-201
-215
-273
-125
-111
-163
-133
-100
-76
-45
-21
26
79
90
118
201
261
271
289
307
281
225
158
73
-5
-54
-101
-157
-195
-204
-201
-189
-169
-154
-155
-156
-142
-120
-103
-105
-121
-132
-137
-145
-149
-147
-149
-138
-105
-87
-104
