# session 0
-27
34
81
129
185
236
258
247
219
189
160
115
41
-30
-64
-103
-182
-228
-197
-160
-150
-130
-113
-131
-130
-79
-70
-131
-149
-82
-45
-85
-101
-50
-4
-4
-17
-20
-20
-8
14
31
38
43
42
32
20
10
1
-6
-11
-10
-6
-8
-15
-14
-12
-15
-1
26
36
21
-8
-52
-72
-60
-77
-79
-16
-43
-197
-374
-510
63
1777
2854
1592
-264
-531
-60
-90
-197
-104
-112
-142
-83
-66
-81
-62
-49
-36
-6
11
20
45
71
88
111
140
173
198
201
196
208
215
196
169
132
52
-47
-102
-113
-134
-169
-176
-161
-163
-184
-195
-186
-170
-168
-183
-189
-169
-141
-129
-131
-139
-152
-159
-150
-147
-157
-149
-129
-128
-137
-131
-121
-126
-132
-127
-120
-118
-111
-105
-109
-114
-112
-105
-95
-89
-91
-90
-75
-45
-12
-2
-7
-3
-12
-37
-39
-49
-83
-59
-32
-120
-279
-509
-439
743
2313
2124
357
-578
-252
-57
-181
-133
-76
-119
-97
-62
-67
-48
-18
-8
12
41
63
88
120
145
163
184
209
230
247
258
258
256
253
240
209
159
87
11
-40
-71
-97
-111
-111
-111
-111
-107
-107
-109
-102
-89
-74
-63
-62
-62
-54
-47
-49
-50
-48
-46
-47
-56
-68
-74
-70
-61
-47
-39
-43
-50
-48
-45
-47
-52
-61
-75
-88
-101
-110
-108
-106
-107
-91
-65
-56
-68
-81
-106
-148
-165
-152
-170
-189
-156
-156
-228
-355
-471
14
1356
2031
815
-690
-749
-198
-128
-188
-102
-97
-127
-98
-94
-97
-63
-39
-29
3
44
76
111
153
186
208
230
259
292
325
348
356
353
356
353
307
220
122
31
-36
-71
-95
-117
-122
-119
-126
-129
-116
-106
-109
-116
-116
-108
-96
-91
-101
-110
-102
-85
-78
-84
-95
-99
-92
-78
-69
-70
-75
-74
-70
-70
-72
-78
-84
-83
-71
-60
-51
-32
-13
-10
-13
-28
-74
-102
-94
-111
-133
-115
-148
-245
-369
-469
50
1445
2139
893
-659
-773
-256
-154
-166
-75
-77
-105
-72
-53
-37
-3
19
38
71
103
136
172
198
221
253
288
317
342
365
379
376
361
339
295
208
85
-41
-137
-199
-243
-275
-292
-290
-279
-276
-278
-268
-247
-230
-218
-211
-203
-189
-174
-175
-185
-188
-190
-199
-211
-219
-222
-221
-218
-212
-200
-178
-156
-141
-126
-110
-95
-73
-47
-36
-29
-3
32
51
61
74
61
26
31
48
14
10
43
-24
-159
-354
-440
481
2317
2800
1090
-413
-348
-36
-158
-160
-57
-81
-71
-16
-18
-14
18
28
39
63
78
96
128
159
189
226
270
313
353
392
422
431
421
391
325
208
70
-49
-138
-207
-255
-278
-280
-270
-253
-236
-226
-218
-206
-196
-194
-195
-196
-199
-203
-207
-210
-214
-217
-220
-221
-221
-222
-224
-223
-221
-224
-229
-229
-222
-220
-226
-225
-214
-211
-215
-203
-178
-161
-153
-147
-161
-185
-179
-173
-194
-169
-137
-207
-304
-433
-406
594
2232
2337
537
-716
-449
-97
-194
-181
-105
-147
-138
-89
-97
-80
-24
3
10
35
72
111
150
190
231
269
300
331
371
408
436
458
462
435
375
286
174
69
-9
-63
-95
-107
-115
-132
-141
-132
-123
-125
-118
-102
-109
-135
-128
-86
-54
-49
-45
-38
-40
-49
-48
-34
-21
-12
0
11
22
36
36
11
-5
4
2
-27
-44
-17
18
19
2
-26
-72
-91
-86
-123
-135
-89
-141
-293
-463
-521
288
2051
2705
1094
-597
-647
-215
-254
-284
-191
-217
-230
-161
-123
-118
-114
-113
-107
-99
-83
-59
-49
-29
31
90
127
166
210
245
275
299
301
278
221
118
-14
-134
-220
-274
-303
-320
-325
-317
-302
-293
-297
-304
-284
-239
-213
-219
-227
-233
-245
-246
-245
-261
-277
-273
-262
-260
-261
-259
-250
-233
-212
-189
-172
-163
-154
-138
-127
-114
-78
-28
1
8
12
-7
-34
-20
-8
-27
9
51
-41
-203
-403
-326
909
2759
2856
967
-327
-145
87
-43
-9
65
18
27
68
63
69
82
82
99
120
130
157
190
208
235
284
331
368
412
465
506
524
527
530
507
421
306
238
192
121
77
92
100
77
63
48
18
-6
-30
-73
-115
-132
-143
-176
-239
-313
-374
-420
-478
-560
-633
-673
-700
-715
-696
-668
-644
-592
-524
-492
-483
-459
-423
-404
-407
-395
-355
-340
-356
-352
-342
-357
-351
-290
-225
-237
-285
-209
-63
-30
-31
-21
-164
-383
-541
-412
695
2319
2308
414
-857
-553
-80
-16
72
148
122
153
183
148
147
167
157
171
215
240
258
293
331
372
426
482
531
579
630
678
712
723
703
624
468
282
139
46
-42
-126
-166
-154
-142
-163
-184
-167
-136
-140
-173
-185
-160
-132
-135
-153
-152
-133
-121
-126
-133
-123
-98
-72
-53
-32
-11
-9
-26
-53
-102
-170
-212
-215
-226
-262
-284
-275
-252
-225
-200
-189
-206
-231
-219
-199
-231
-231
-166
-216
-384
-563
-644
163
2123
3100
1538
-408
-615
-160
-220
-308
-200
-180
-172
-115
-110
-110
-77
-59
-48
-40
-44
-38
-23
-14
16
69
107
128
162
203
226
246
274
275
218
122
12
-96
-175
-213
-234
-255
-255
-229
-205
-198
-193
-178
-165
-161
-156
-151
-148
-141
-131
-121
-107
-104
-112
-102
-86
-82
-50
-3
-22
-69
-46
11
15
-10
-8
13
23
25
35
58
75
63
40
32
23
16
45
88
111
129
145
143
118
71
40
37
-2
-40
-14
-65
-225
-370
-517
-93
1574
2941
1914
-157
-714
-224
-155
-269
-164
-136
-170
-92
-46
-108
-134
-28
106
114
69
129
207
148
48
44
89
134
202
259
291
357
392
305
203
163
76
-70
-170
-241
-326
-364
-352
-368
-401
-394
-369
-363
-364
-359
-354
-340
-307
-271
-253
-243
-235
-234
-219
-182
-165
-174
-149
-108
-128
-179
-178
-154
-159
-154
-126
-139
-185
-176
-138
-155
-169
-120
-77
-68
-55
-61
-92
-105
-107
-109
-120
-147
-124
-76
-141
-268
-387
-286
726
2270
2280
413
-913
-660
-214
-201
-136
-42
-64
-31
34
25
39
145
263
280
255
470
924
1139
921
665
604
596
587
616
636
631
621
593
537
443
300
134
-24
-153
-238
-291
-328
-333
-298
-258
-246
-255
-252
-239
-236
-228
-206
-195
-205
-208
-207
-211
-205
-185
-183
-205
-228
-241
-241
-232
-236
-247
-235
-217
-236
-281
-300
-279
-261
-286
-331
-352
-339
-297
-251
-244
-259
-256
-250
-264
-279
-275
-259
-239
-208
-191
-226
-210
-107
-139
-331
-472
-449
285
1979
2830
1348
-536
-700
-139
-129
-213
-94
-78
-82
12
57
50
84
115
111
134
183
208
222
257
297
325
347
377
427
474
484
483
487
458
393
298
157
-1
-102
-115
-93
-123
-199
-225
-195
-178
-180
-171
-162
-168
-175
-167
-149
-145
-151
-133
-100
-90
-95
-103
-119
-117
-98
-126
-164
-109
-62
-152
-233
-168
-115
-189
-233
-175
-148
-195
-216
-196
-193
-204
-207
-197
-174
-148
-136
-144
-156
-109
-43
-67
-73
-1
-71
-264
-472
-576
498
2925
3778
1491
-745
-662
-86
-237
-300
-144
-92
-12
-17
-178
-180
-64
-93
-166
-152
-96
-14
5
-60
26
256
312
233
321
505
515
410
432
543
496
281
89
-23
-112
-201
-278
-295
-236
-199
-229
-236
-186
-184
-261
-284
-190
-126
-180
-217
-202
-258
-330
-303
-267
-275
-252
-235
-274
-289
-258
-226
-183
-143
-149
-164
-138
-88
-62
-71
-77
-52
-22
-4
21
45
17
-47
-50
-15
-56
-73
24
-2
-222
-452
-556
192
2183
3339
1736
-565
-925
-243
-117
-225
-154
-154
-218
-231
-206
-110
-4
27
61
120
127
118
157
193
198
212
246
311
421
504
501
497
544
554
482
379
256
93
-51
-125
-168
-207
-217
-221
-252
-276
-277
-270
-256
-253
-275
-269
-211
-170
-189
-248
-306
-304
-241
-220
-276
-330
-347
-365
-373
-348
-327
-340
-353
-333
-297
-281
-276
-259
-248
-253
-230
-173
-147
-163
-165
-153
-168
-199
-197
-183
-201
-184
-111
-114
-184
-283
-319
491
2309
3051
1433
-342
-422
2
-86
-118
22
-9
-30
60
63
10
34
92
130
174
215
223
223
252
279
276
295
354
392
395
411
442
463
464
423
327
199
60
-68
-157
-202
-212
-200
-189
-197
-212
-214
-201
-198
-201
-180
-145
-129
-122
-122
-135
-124
-85
-99
-161
-177
-165
-203
-250
-245
-218
-213
-226
-241
-230
-186
-158
-171
-181
-167
-145
-119
-100
-99
-111
-133
-142
-131
-137
-123
-81
-136
-257
-374
-383
465
2253
2868
1123
-697
-750
-232
-212
-237
-160
-193
-198
-139
-123
-107
-76
-75
-59
-16
15
45
86
120
157
207
266
327
359
359
375
443
508
465
309
158
65
-24
-110
-170
-230
-257
-218
-209
-269
-283
-226
-190
-187
-180
-175
-163
-138
-132
-151
-157
-139
-129
-136
-120
-77
-74
-114
-123
-113
-138
-157
-147
-183
-254
-250
-181
-166
-208
-232
-231
-232
-229
-228
-254
-302
-306
-269
-272
-237
-108
-105
-284
-485
-604
93
2040
3258
1922
-118
-568
-142
-30
-54
-58
-98
-41
9
-87
-184
-173
-92
-7
12
-9
17
76
107
120
153
202
246
280
324
383
435
470
489
478
411
277
124
33
16
4
-49
-111
-117
-79
-79
-135
-174
-154
-129
-140
-142
-126
-145
-169
-155
-150
-136
-74
-62
-117
-107
-60
-88
-112
-66
-39
-46
-30
-25
-52
-56
-31
-7
20
38
8
-33
-28
-23
-29
-8
-70
-279
-509
-645
-179
1407
2729
1794
-310
-1041
-566
-380
-451
-345
-287
-321
-288
-251
-242
-195
-142
-123
-113
-83
-36
-2
15
63
143
199
230
273
314
326
322
306
278
250
194
71
-74
-172
-230
-278
-313
-331
-319
-289
-308
-383
-414
-386
-359
-282
-163
-138
-160
-103
-82
-137
-100
-42
-132
-250
-283
-288
-281
-277
-304
-288
-210
-112
-22
-33
-90
19
178
139
36
-3
-103
-253
-277
-90
166
201
36
-14
-41
-338
-730
-576
810
2851
3312
1519
-150
-221
94
-21
-74
55
132
186
227
235
244
206
169
234
290
260
250
234
164
167
249
300
344
385
359
344
387
384
334
315
266
129
-15
-128
-242
-327
-361
-354
-284
-229
-300
-388
-359
-324
-360
-368
-341
-351
-375
-383
-402
-422
-403
-371
-372
-390
-372
-330
-337
-391
-394
-342
-341
-354
-283
-218
-256
-290
-238
-174
-155
-151
-144
-138
-121
-136
-215
-278
-342
-199
868
2425
2374
443
-875
-582
-169
-239
-182
-29
-67
-133
-100
-57
-55
-67
-48
-6
19
41
80
112
139
186
243
292
346
410
462
497
507
488
453
374
226
90
38
5
-58
-104
-126
-151
-169
-170
-163
-153
-152
-161
-163
-157
-160
-158
-129
-107
-134
-170
-170
-161
-167
-161
-142
-138
-147
-139
-116
-113
-138
-145
-115
-80
-55
-25
-11
-42
-67
-62
-85
-87
-29
-74
-225
-369
-508
55
1921
3271
2080
-15
-549
-168
-190
-284
-178
-193
-251
-208
-193
-209
-184
-161
-148
-115
-90
-88
-76
-38
8
53
102
169
241
276
274
285
300
288
270
223
86
-62
-95
-84
-145
-223
-240
-222
-195
-166
-166
-176
-147
-123
-148
-147
-103
-109
-158
-168
-142
-122
-116
-119
-93
-16
44
27
-53
-159
-216
-166
-77
-59
-99
-112
-85
-88
-149
-220
-269
-243
-118
-78
-228
-423
-580
-184
1444
2959
2108
-84
-812
-247
-106
-282
-165
-79
-172
-205
-189
-199
-195
-169
-172
-226
-197
-17
25
-178
-182
140
327
249
205
241
285
417
575
639
666
604
300
-74
-276
-405
-485
-329
-8
205
207
87
47
97
54
65
235
79
-394
-389
-10
-144
-629
-647
-240
29
-19
-239
-437
-512
-490
-414
-338
-326
-319
-268
-239
-210
-116
-38
15
72
-23
-216
-149
87
195
659
1765
2253
1124
-369
-693
-245
-34
-92
-85
-18
6
-5
8
48
56
27
26
67
83
23
-39
-5
50
42
47
112
184
245
265
238
256
302
238
96
4
-66
-163
-268
-374
-446
-423
-357
-332
-323
-309
-339
-372
-314
-227
-211
-194
-111
-58
-64
-35
-8
-50
-65
-7
8
-36
-38
-14
-29
-46
-20
13
3
-46
-66
-62
-109
-132
-83
-144
-311
-472
-599
50
1914
2991
1546
-427
-697
-217
-205
-232
-103
-109
-122
-52
-43
-59
-17
37
79
123
163
200
215
206
226
276
303
325
379
423
440
459
472
466
437
330
153
1
-115
-237
-320
-324
-315
-340
-371
-374
-357
-345
-348
-350
-342
-339
-343
-338
-323
-314
-306
-282
-253
-248
-254
-233
-189
-171
-175
-166
-159
-168
-148
-95
-87
-130
-132
-101
-132
-155
-93
-124
-284
-433
-525
67
1863
3113
1858
-271
-758
-234
-142
-219
-97
-2
86
176
110
3
-3
14
6
15
30
32
39
66
108
140
161
198
236
246
259
304
337
313
243
155
60
-42
-126
-162
-176
-211
-245
-249
-243
-240
-222
-207
-209
-197
-170
-166
-175
-161
-144
-163
-193
-187
-160
-156
-165
-150
-129
-126
-124
-121
-133
-135
-114
-102
-104
-123
-153
-149
-142
-173
-153
-125
-229
-388
-537
-373
882
2612
2604
796
-344
-140
26
-133
-98
-45
-122
-116
-74
-105
-108
-72
-75
-78
-33
30
64
51
26
45
89
99
91
115
154
170
167
171
176
152
86
8
-56
-110
-154
-176
-167
-137
-115
-123
-138
-125
-93
-71
-54
-25
12
45
73
88
86
79
71
60
65
65
25
-35
-73
-89
-97
-104
-129
-189
-252
-257
-250
-297
-296
-244
-330
-523
-710
-651
468
2367
2651
621
-1002
-790
-315
-408
-419
-298
-336
-369
-325
-316
-307
-269
-256
-255
-227
-194
-172
-143
-97
-52
-16
21
63
101
127
