# session 7
-55
-62
-41
13
1
-108
-179
-169
-160
-159
-142
-136
-143
-134
-118
-110
-108
-107
-105
-106
-98
-66
-39
-29
-7
6
-19
-29
-24
-47
-39
-19
-97
-223
-402
-450
462
2076
2287
630
-592
-404
-129
-255
-248
-161
-185
-181
-144
-138
-113
-84
-77
-59
-28
-7
17
48
76
101
116
125
142
150
133
114
105
76
20
-31
-70
-107
-123
-114
-102
-97
-95
-99
-105
-106
-105
-108
-116
-123
-116
-105
-108
-113
-92
-60
-44
-33
-22
-23
-12
-4
-30
-22
12
-60
-221
-445
-482
519
2260
2496
694
-663
-450
-103
-218
-209
-116
-153
-150
-104
-111
-104
-76
-68
-53
-28
-12
10
46
87
124
146
162
179
180
165
155
132
63
-29
-90
-107
-122
-154
-168
-157
-156
-169
-168
-151
-141
-154
-168
-154
-141
-147
-151
-149
-142
-123
-108
-102
-97
-119
-141
-125
-130
-139
-86
-88
-200
-343
-502
-120
1355
2466
1421
-418
-782
-228
-113
-189
-99
-95
-138
-91
-67
-81
-65
-43
-26
-5
9
36
81
114
132
159
181
180
165
143
120
102
80
44
-8
-59
-90
-96
-95
-97
-102
-103
-93
-78
-76
-88
-90
-84
-82
-87
-94
-103
-110
-110
-100
-91
-87
-82
-87
-110
-112
-100
-121
-108
-57
-114
-263
-476
-617
183
2015
2689
1076
-518
-463
-67
-195
-238
-125
-157
-175
-118
-114
-117
-86
-78
-73
-43
-19
-2
21
45
66
83
90
83
69
55
44
27
-5
-48
-86
-113
-136
-149
-150
-148
-147
-140
-132
-125
-115
-105
-98
-88
-77
-69
-64
-68
-74
-55
-26
-16
-7
-4
-30
-40
-28
-53
-53
-10
-66
-209
-399
-522
210
1873
2469
1002
-429
-402
-92
-217
-244
-149
-180
-182
-127
-133
-135
-101
-86
-77
-53
-37
-25
-3
19
38
51
52
43
32
25
25
27
19
0
-22
-46
-61
-59
-60
-73
-77
-71
-71
-68
-45
-19
-5
-7
-26
-45
-43
-34
-33
-28
-17
-5
5
-9
-32
-23
-27
-58
-44
-33
-117
-283
-529
-369
895
2214
1649
-85
-714
-285
-124
-210
-146
-117
-135
-81
-62
-82
-53
-26
-31
-13
26
51
63
82
106
119
119
122
123
99
72
69
59
9
-57
-104
-134
-147
-145
-146
-155
-158
-151
-146
-148
-150
-146
-140
-154
-180
-180
-166
-175
-178
-150
-134
-138
-145
-155
-148
-127
-149
-166
-119
-128
-242
-402
-498
40
1396
2045
857
-573
-627
-143
-102
-147
-66
-68
-82
-50
-54
-55
-28
-22
-14
23
71
156
270
340
355
369
376
339
277
234
209
184
147
97
43
1
-27
-46
-54
-54
-53
-42
-24
-17
-19
-14
-9
-21
-39
-43
-43
-53
-58
-47
-47
-63
-66
-70
-98
-121
-138
-155
-124
-92
-162
-328
-602
-599
504
2066
1988
318
-624
-325
-122
-251
-219
-160
-197
-183
-160
-175
-158
-131
-129
-111
-78
-60
-45
-13
19
31
31
35
32
22
16
7
-18
-50
-83
-116
-144
-161
-170
-165
-152
-148
-151
-149
-148
-154
-150
-138
-140
-148
-146
-149
-161
-154
-127
-107
-86
-67
-76
-85
-80
-91
-71
-10
-39
-188
-443
-631
95
1849
2605
1224
-267
-313
6
-105
-147
-59
-89
-102
-49
-38
-32
2
24
39
61
87
120
143
156
170
172
158
145
128
104
91
87
74
44
7
-21
-33
-40
-53
-61
-59
-62
-68
-67
-64
-67
-71
-73
-77
-79
-86
-105
-107
-82
-62
-56
-51
-65
-87
-82
-86
-96
-68
-89
-196
-366
-638
-423
1000
2334
1624
-98
-595
-193
-148
-263
-186
-163
-197
-164
-143
-140
-109
-89
-89
-73
-34
10
37
45
62
90
103
94
79
68
60
48
26
-8
-61
-123
-155
-145
-140
-160
-161
-142
-155
-182
-164
-131
-139
-162
-160
-143
-131
-126
-130
-129
-108
-85
-78
-81
-90
-84
-63
-76
-92
-61
-67
-168
-377
-581
-76
1399
2187
1020
-451
-526
-64
-63
-125
-31
-33
-65
-29
-18
-17
10
28
38
60
82
112
150
171
186
205
208
190
176
162
145
131
102
39
-29
-68
-84
-95
-103
-106
-107
-111
-113
-108
-104
-109
-107
-91
-80
-83
-92
-107
-121
-117
-103
-100
-99
-100
-116
-115
-91
-92
-78
-31
-58
-183
-398
-539
142
1671
2188
782
-564
-453
-17
-64
-99
-11
-38
-62
-31
-40
-41
-6
11
20
43
63
78
101
124
133
129
119
106
85
63
57
55
30
-22
-75
-102
-106
-115
-131
-138
-133
-132
-133
-131
-126
-126
-127
-131
-138
-142
-144
-157
-168
-157
-142
-138
-123
-117
-142
-150
-134
-146
-136
-99
-149
-295
-546
-670
176
1819
2217
735
-492
-375
-104
-210
-202
-123
-163
-165
-118
-115
-106
-77
-64
-48
-13
21
51
80
114
155
178
178
176
172
154
136
125
103
58
5
-36
-55
-59
-62
-68
-76
-81
-82
-81
-85
-91
-89
-84
-93
-104
-101
-96
-99
-96
-86
-77
-77
-98
-124
-115
-106
-122
-91
-62
-145
-288
-497
-479
605
2197
2095
263
-786
-402
-76
-159
-105
-33
-84
-75
-35
-48
-48
-20
4
26
46
75
113
135
146
165
181
184
180
161
129
111
98
46
-30
-84
-120
-150
-150
-133
-135
-142
-130
-122
-127
-121
-112
-116
-122
-121
-119
-122
-128
-127
-118
-112
-101
-82
-92
-114
-105
-109
-119
-78
-81
-188
-377
-651
-347
1216
2543
1640
-220
-662
-164
-95
-201
-102
-77
-121
-101
-102
-109
-75
-57
-48
-16
10
27
58
89
108
127
137
129
121
114
109
107
91
41
-22
-62
-80
-97
-111
-109
-100
-99
-103
-100
-93
-93
-99
-101
-95
-90
-97
-108
-115
-116
-109
-100
-85
-67
-78
-105
-98
-89
-104
-76
-50
-128
-277
-522
-509
639
2264
2101
230
-774
-361
-78
-208
-168
-101
-152
-131
-82
-94
-88
-57
-42
-20
12
33
53
81
99
105
112
112
99
84
73
60
46
19
-35
-86
-102
-107
-120
-116
-102
-105
-112
-103
-98
-105
-107
-97
-90
-91
-95
-98
-100
-99
-92
-83
-74
-56
-52
-82
-98
-83
-97
-99
-59
-95
-212
-414
-636
-64
1587
2395
1061
-465
-488
-74
-138
-185
-92
-112
-121
-72
-70
-58
-17
1
19
43
46
66
108
125
126
134
134
115
96
85
84
83
62
19
-28
-59
-68
-66
-67
-72
-71
-66
-66
-68
-65
-56
-50
-58
-74
-72
-54
-53
-68
-59
-33
-32
-41
-34
-45
-79
-75
-64
-89
-72
-38
-105
-261
-534
-612
380
1973
2036
402
-610
-313
-57
-180
-156
-84
-125
-122
-81
-80
-74
-55
-39
-9
21
34
47
71
89
96
100
98
87
76
76
78
61
20
-38
-85
-104
-115
-134
-149
-149
-148
-154
-161
-164
-162
-153
-149
-153
-152
-138
-125
-138
-157
-139
-99
-93
-98
-86
-98
-116
-107
-118
-125
-75
-81
-190
-387
-649
-277
1252
2327
1276
-390
-629
-150
-110
-168
-62
-59
-87
-39
-25
-32
1
30
40
62
94
128
155
167
180
209
220
199
183
188
185
156
109
45
-27
-82
-110
-123
-129
-128
-125
-121
-122
-120
-108
-99
-101
-99
-94
-100
-101
-95
-105
-110
-82
-60
-69
-69
-72
-103
-103
-79
-92
-90
-63
-108
-241
-507
-592
413
2097
2247
538
-629
-366
-52
-155
-150
-92
-129
-109
-72
-91
-77
-39
-31
-16
18
39
58
90
117
134
148
151
137
115
98
89
71
25
-35
-85
-119
-142
-149
-145
-141
-138
-133
-127
-125
-126
-124
-118
-111
-109
-110
-114
-124
-135
-129
-107
-95
-84
-69
-82
-103
-90
-95
-109
-62
-61
-175
-353
-625
-382
1190
2701
1933
-21
-602
-134
-77
-217
-133
-120
-169
-121
-96
-112
-84
-52
-42
-20
6
20
33
55
78
94
102
103
85
47
12
-2
-9
-36
-89
-132
-142
-144
-151
-149
-141
-144
-149
-147
-144
-140
-131
-127
-129
-128
-124
-119
-120
-129
-125
-101
-81
-66
-56
-73
-84
-69
-84
-94
-50
-72
-191
-381
-623
-178
1469
2573
1434
-288
-518
-76
-106
-191
-94
-104
-130
-73
-58
-62
-29
-7
2
26
54
80
111
141
152
142
129
126
116
99
91
91
75
36
-7
-39
-61
-74
-75
-71
-68
-71
-83
-92
-91
-87
-87
-81
-71
-69
-67
-58
-62
-75
-64
-38
-28
-14
-4
-37
-62
-46
-62
-80
-42
-61
-175
-374
-613
-176
1342
2280
1205
-281
-431
-73
-137
-198
-103
-123
-151
-104
-97
-101
-70
-55
-47
-20
0
14
40
60
67
71
69
55
42
38
45
50
27
-25
-79
-115
-136
-147
-152
-159
-164
-160
-156
-161
-162
-152
-144
-144
-141
-135
-133
-131
-130
-134
-129
-110
-86
-62
-54
-76
-89
-77
-87
-85
-44
-71
-185
-401
-660
-198
1333
2201
1075
-361
-442
-54
-98
-155
-71
-80
-91
-46
-40
-40
-6
14
26
55
87
111
133
150
163
172
168
156
148
146
149
143
100
32
-20
-45
-63
-77
-83
-85
-84
-82
-83
-81
-76
-75
-78
-77
-72
-71
-72
-71
-76
-86
-78
-60
-47
-32
-32
-70
-89
-72
-81
-85
-56
-95
-216
-440
-645
-28
1531
2153
846
-455
-383
-41
-143
-173
-82
-112
-123
-71
-61
-53
-26
-15
4
36
54
73
99
115
132
145
132
112
109
104
89
78
53
0
-55
-97
-125
-131
-123
-127
-141
-150
-148
-136
-133
-145
-151
-143
-140
-135
-120
-127
-142
-120
-92
-98
-96
-81
-100
-110
-88
-102
-112
-68
-93
-216
-427
-692
-259
1313
2292
1145
-450
-580
-106
-110
-171
-69
-82
-113
-52
-32
-44
-17
12
24
45
73
103
134
161
183
191
183
174
169
155
135
110
62
-9
-71
-110
-135
-148
-148
-146
-146
-145
-138
-130
-126
-120
-109
-106
-117
-120
-108
-104
-118
-117
-96
-84
-72
-58
-75
-98
-84
-88
-106
-69
-66
-164
-341
-633
-431
1042
2459
1730
-98
-614
-137
-58
-177
-90
-70
-115
-71
-46
-57
-28
2
11
38
70
90
114
142
159
168
170
158
135
110
95
81
46
-11
-62
-98
-127
-140
-131
-120
-121
-126
-126
-121
-112
-107
-105
-98
-95
-98
-92
-82
-93
-109
-96
-70
-55
-40
-36
-60
-71
-63
-78
-67
-32
-92
-240
-482
-619
243
2011
2500
903
-480
-355
-31
-156
-165
-74
-118
-121
-72
-80
-73
-33
-23
-12
24
48
62
86
99
91
84
80
54
17
6
8
-11
-45
-82
-130
-165
-169
-168
-173
-172
-171
-176
-173
-172
-182
-175
-151
-140
-149
-154
-149
-139
-142
-161
-167
-143
-112
-91
-91
-116
-128
-117
-135
-149
-116
-131
-226
-413
-654
-242
1237
2185
1162
-319
-499
-144
-204
-275
-181
-196
-231
-186
-173
-179
-162
-155
-146
-115
-91
-78
-54
-28
-12
3
26
64
125
212
293
315
274
211
150
104
89
111
153
191
195
170
143
121
110
130
162
156
126
114
112
103
109
130
125
110
135
187
222
231
211
175
160
138
90
86
92
17
-118
-376
-463
515
2071
2060
383
-608
-319
-118
-261
-232
-197
-276
-261
-213
-229
-225
-191
-173
-148
-110
-82
-52
-24
-10
-3
0
-9
-25
-43
-58
-73
-109
-172
-235
-284
-323
-343
-344
-347
-349
-345
-346
-346
-331
-321
-326
-317
-294
-285
-287
-273
-253
-246
-239
-222
-218
-224
-210
-183
-156
-125
-116
-127
-109
-87
-88
-55
-35
-110
-245
-485
-468
635
2121
1889
152
-697
-270
-1
-109
-74
-13
-40
-6
37
30
51
95
117
144
188
230
259
280
301
332
377
411
421
432
463
486
469
410
330
250
194
164
131
75
8
-39
-60
-74
-90
-101
-104
-110
-123
-131
-131
-132
-138
-145
-149
-151
-159
-163
-154
-140
-125
-116
-131
-146
-134
-137
-143
-108
-120
-208
-358
-638
-432
1037
2405
1617
-211
-689
-194
-113
-230
-144
-121
-160
-122
-106
-115
-83
-56
-45
-15
17
42
71
99
119
135
140
133
121
103
80
61
33
-22
-89
-133
-149
-155
-156
-154
-155
-154
-144
-134
-132
-132
-128
-123
-123
-128
-125
-110
-104
-116
-120
-113
-119
-127
-113
-92
-77
-62
-73
-103
-101
-98
-118
-94
-73
-146
-283
-532
-522
640
2249
2085
308
-620
-278
-93
-238
-192
-125
-163
-137
-95
-108
-114
-97
-75
-48
-30
-12
17
38
46
58
59
44
30
15
-15
-42
-56
-81
-135
-194
-222
-223
-227
-233
-226
-225
-238
-241
-229
-225
-223
-216
-205
-164
-69
38
114
166
199
216
234
233
189
156
184
236
278
300
287
270
258
201
157
172
129
15
-144
-330
105
1501
2267
1123
-315
-413
-34
-85
-152
-78
-109
-142
-102
-95
-102
-80
-64
-48
-17
7
19
33
53
73
83
83
79
57
26
15
12
-25
-88
-141
-175
-197
-210
-213
-206
-195
-197
-206
-200
-181
-174
-183
-187
-178
-166
-163
-163
-158
-147
-140
-140
-140
-138
-141
-139
-124
-112
-99
-78
-79
-101
-101
-102
-117
-90
-77
-141
-252
-480
-420
755
2197
1802
12
-741
-282
-65
-163
-78
-24
-81
-54
-7
-14
-3
25
47
82
108
117
142
188
222
234
242
245
230
213
203
176
119
47
-28
-94
-136
-159
-166
-155
-147
-153
-149
-133
-128
-130
-123
-120
-127
-122
-108
-107
-118
-120
-112
-110
-113
-118
-123
-113
-94
-82
-74
-74
-94
-98
-85
-103
-103
-62
-88
-191
-367
-519
94
1603
2169
768
-632
-535
-74
-114
-150
-55
-80
-99
-47
-37
-36
-7
10
27
61
91
112
139
170
197
209
205
196
182
158
125
81
19
-49
-105
-145
-164
-163
-155
-156
-155
-144
-137
-134
-121
-103
-99
-103
-99
-89
-86
-88
-83
-74
-75
-77
-74
-76
-76
-59
-36
-14
0
-18
-37
-21
-20
-29
12
13
-69
-193
-419
-218
1145
2475
1823
96
-461
-27
80
-73
33
