# session 34
-21
-23
-51
173
478
420
177
109
109
54
31
32
7
-3
6
-2
-9
5
18
17
16
25
31
29
27
23
14
12
12
-2
-12
-4
-3
-13
-9
0
-8
-19
-23
-25
-20
-17
-24
-25
-22
-29
-39
-40
-35
-37
-51
-56
-39
-20
-13
-6
2
-10
-47
-60
-40
-59
-81
-33
-54
-203
-348
-444
33
1639
2898
1874
-107
-606
-120
-95
-254
-161
-128
-181
-149
-120
-131
-122
-107
-97
-79
-64
-49
-22
-4
1
17
52
88
115
150
210
280
332
369
403
412
378
300
172
11
-122
-184
-210
-242
-268
-270
-263
-262
-267
-271
-264
-261
-266
-251
-218
-205
-206
-194
-183
-181
-176
-164
-151
-147
-157
-161
-146
-134
-132
-126
-119
-124
-131
-120
-103
-108
-121
-117
-105
-100
-96
-95
-96
-83
-71
-67
-53
-37
-35
-30
-11
3
14
22
5
-26
-32
-40
-67
-34
-3
-112
-265
-400
-308
774
2471
2587
731
-591
-345
-5
-146
-166
-84
-128
-133
-76
-77
-102
-91
-54
-28
-24
-18
1
14
32
62
85
111
165
220
255
307
387
454
488
514
526
473
343
189
49
-64
-135
-170
-195
-210
-206
-205
-214
-210
-199
-205
-217
-209
-187
-174
-172
-164
-157
-160
-160
-157
-155
-151
-147
-144
-140
-137
-139
-137
-134
-138
-138
-129
-127
-124
-106
-98
-115
-129
-121
-105
-95
-92
-90
-86
-78
-56
-30
-31
-54
-81
-106
-109
-102
-123
-109
-67
-136
-287
-436
-323
768
2438
2549
711
-615
-379
-37
-181
-209
-125
-159
-172
-134
-125
-109
-81
-74
-67
-51
-36
-24
-13
-1
20
49
73
98
136
178
216
267
324
360
377
383
346
248
117
-4
-88
-140
-180
-199
-190
-197
-238
-249
-200
-152
-145
-149
-136
-98
-59
-56
-65
-37
-4
-3
-6
6
14
24
39
35
12
4
7
-4
-21
-22
-28
-55
-78
-82
-88
-101
-102
-95
-101
-113
-118
-116
-106
-91
-77
-65
-57
-65
-100
-137
-133
-126
-147
-128
-110
-195
-329
-460
-287
819
2210
1989
270
-718
-421
-140
-214
-180
-117
-156
-150
-104
-96
-92
-71
-56
-52
-44
-9
33
43
46
80
121
147
183
239
291
329
378
441
482
489
477
417
281
118
-6
-89
-149
-184
-202
-212
-208
-200
-199
-198
-193
-193
-192
-183
-176
-175
-179
-181
-172
-153
-142
-147
-156
-150
-135
-137
-151
-148
-134
-132
-135
-126
-119
-122
-123
-118
-109
-103
-103
-102
-90
-79
-80
-85
-74
-52
-33
-22
-15
-17
-39
-59
-47
-47
-73
-39
-15
-139
-288
-392
-287
793
2509
2645
777
-559
-327
-22
-182
-190
-111
-159
-151
-101
-115
-111
-83
-83
-73
-44
-33
-28
-8
12
24
40
73
119
165
210
251
289
328
366
395
395
335
218
90
-15
-85
-116
-133
-158
-171
-163
-159
-158
-151
-155
-164
-154
-141
-143
-137
-123
-119
-117
-111
-114
-122
-121
-118
-120
-116
-114
-125
-123
-105
-113
-131
-117
-107
-135
-150
-135
-137
-148
-133
-112
-108
-95
-67
-57
-65
-64
-54
-78
-130
-139
-111
-117
-114
-75
-122
-250
-372
-372
325
1765
2289
929
-540
-609
-187
-159
-177
-95
-103
-122
-91
-72
-48
-22
-24
-16
21
55
80
106
131
163
195
215
247
304
360
409
461
511
546
562
544
466
324
153
5
-99
-171
-219
-248
-257
-247
-234
-235
-237
-229
-218
-209
-196
-187
-191
-192
-174
-153
-152
-165
-169
-157
-138
-134
-149
-161
-156
-146
-139
-131
-129
-129
-127
-130
-132
-125
-114
-104
-99
-102
-94
-80
-84
-94
-83
-60
-40
-30
-33
-44
-70
-86
-64
-67
-92
-50
-61
-212
-367
-493
-101
1523
3010
2123
-11
-667
-155
-90
-260
-165
-133
-192
-147
-116
-137
-111
-75
-70
-63
-53
-44
-17
10
18
39
92
139
161
191
246
308
367
421
457
465
437
345
193
43
-65
-150
-207
-216
-212
-237
-263
-253
-225
-210
-209
-211
-213
-213
-203
-187
-177
-171
-166
-163
-161
-161
-158
-146
-130
-117
-114
-113
-108
-102
-102
-98
-74
-50
-51
-55
-42
-24
-14
-21
-40
-41
-18
-2
0
2
3
9
27
33
25
23
9
-35
-51
-31
-53
-65
-19
-65
-230
-406
-471
265
2028
2889
1411
-418
-585
-107
-142
-232
-147
-168
-193
-142
-135
-141
-115
-107
-100
-74
-66
-63
-24
29
47
47
76
128
170
215
277
335
380
424
462
471
421
300
136
-11
-108
-171
-222
-249
-243
-238
-247
-253
-250
-240
-223
-214
-215
-208
-189
-179
-181
-179
-169
-161
-155
-147
-134
-128
-145
-157
-126
-92
-102
-120
-114
-110
-112
-102
-94
-101
-101
-90
-91
-100
-93
-80
-84
-82
-63
-63
-77
-56
-17
-13
-21
-14
-33
-73
-62
-41
-78
-68
-26
-124
-287
-418
-336
723
2487
2725
872
-545
-354
-28
-180
-195
-115
-164
-155
-90
-99
-114
-88
-68
-58
-45
-33
-19
-6
13
48
86
115
141
174
218
272
328
376
427
468
450
370
264
137
7
-79
-124
-165
-192
-194
-191
-186
-177
-177
-182
-179
-182
-182
-156
-132
-137
-145
-136
-124
-121
-135
-162
-183
-182
-159
-129
-122
-132
-120
-91
-89
-107
-104
-84
-72
-70
-69
-70
-70
-67
-65
-71
-72
-64
-64
-67
-40
-2
-6
-40
-52
-49
-61
-66
-66
-92
-87
-49
-100
-224
-376
-416
386
2037
2576
1025
-508
-479
-46
-105
-160
-81
-109
-122
-66
-61
-72
-49
-38
-35
-7
16
18
25
53
83
99
110
135
180
231
277
321
361
396
426
429
370
251
115
-2
-90
-156
-195
-203
-210
-221
-216
-206
-214
-221
-213
-208
-211
-214
-220
-222
-208
-196
-192
-190
-192
-195
-192
-195
-202
-201
-194
-185
-179
-182
-183
-173
-170
-181
-183
-172
-166
-170
-172
-157
-154
-176
-152
-99
-138
-214
-191
-153
-175
-146
-69
-76
-129
-108
-42
-23
-60
-93
-74
-50
-88
-184
-344
-313
626
2226
2625
1195
-100
-65
250
163
102
160
140
117
142
152
156
152
115
79
82
102
95
81
113
162
151
108
108
140
178
235
305
356
382
401
414
384
297
205
132
29
-73
-84
-60
-108
-162
-141
-113
-143
-191
-232
-271
-275
-234
-191
-163
-135
-111
-152
-303
-470
-559
-641
-752
-743
-564
-379
-298
-264
-213
-153
-97
-57
-74
-143
-180
-156
-105
-7
100
96
12
-9
34
62
64
52
51
55
18
-22
-13
-6
-4
37
45
-21
-144
-180
410
1600
1970
838
-312
-395
-146
-141
-122
-44
-29
-6
36
56
83
116
104
76
105
92
-126
-382
-400
-284
-227
-178
-101
-47
-4
51
132
157
-46
-367
-468
-378
-363
-392
-342
-296
-303
-304
-286
-223
-132
-188
-418
-536
-417
-254
-161
-107
-88
-68
-16
22
42
83
111
69
-17
-45
22
107
157
199
236
245
243
259
285
301
310
319
329
349
379
399
403
398
395
397
380
350
360
386
373
376
396
341
256
183
232
920
2090
2193
728
-507
-389
127
267
267
256
199
203
245
234
215
226
235
242
258
273
288
305
307
320
372
350
119
-180
-326
-399
-562
-723
-780
-823
-896
-946
-1012
-1142
-1258
-1313
-1370
-1442
-1473
-1468
-1472
-1482
-1475
-1449
-1446
-1473
-1393
-1089
-705
-451
-308
-170
-53
12
62
125
180
217
255
309
360
379
388
415
437
439
456
484
483
476
511
556
572
573
569
552
528
497
471
470
454
426
427
401
328
236
130
491
1689
2493
1618
231
-58
250
253
178
228
209
161
213
257
88
-333
-805
-1081
-1066
-821
-523
-316
-190
-93
-20
40
95
141
195
264
324
361
380
388
390
370
302
203
113
30
-53
-106
-117
-126
-155
-180
-181
-168
-171
-191
-204
-204
-209
-214
-198
-166
-161
-186
-191
-189
-200
-138
-11
6
-99
-152
-134
-141
-168
-175
-173
-163
-150
-153
-161
-148
-111
-79
-88
-125
-150
-169
-166
-129
-123
-150
-143
-174
-274
-378
-446
17
1355
2232
1261
-300
-637
-245
-183
-255
-191
-179
-196
-160
-144
-145
-125
-112
-98
-62
-37
-31
-14
21
55
75
84
100
132
181
243
300
337
361
377
372
328
243
137
39
-41
-106
-140
-141
-136
-136
-138
-144
-151
-143
-128
-125
-130
-127
-108
-94
-98
-96
-74
-59
-62
-56
-48
-50
-51
-50
-57
-51
-30
-25
-34
-36
-36
-35
-27
-22
-22
-14
-1
14
33
37
19
-10
-27
-18
-17
-55
-49
1
-56
-185
-298
-325
334
1808
2442
1186
-269
-422
-101
-125
-166
-107
-134
-148
-105
-103
-103
-62
-44
-57
-43
-9
-11
-19
22
69
65
53
77
113
143
167
194
251
326
330
251
197
180
81
-90
-204
-221
-201
-202
-257
-319
-308
-257
-246
-271
-288
-293
-287
-270
-277
-305
-298
-260
-239
-235
-226
-208
-189
-198
-209
-150
-82
-113
-167
-136
-71
-25
0
-30
-78
-88
-84
-69
-58
-88
-55
65
70
-30
-33
-6
-91
-185
-172
-131
-148
-177
-186
-231
-318
-461
-424
546
2146
2359
708
-578
-459
-188
-267
-205
-123
-171
-45
251
454
477
331
123
33
61
77
44
16
37
65
36
19
86
128
106
165
268
260
243
335
380
277
153
93
56
23
-10
-69
-116
-84
-38
-55
-59
-17
-32
-85
-57
-3
-24
-43
15
60
33
20
73
109
76
48
67
74
71
93
100
87
108
131
117
120
153
159
149
182
222
191
143
174
240
255
252
279
297
281
262
246
239
261
277
273
291
284
212
74
-101
248
1554
2440
1311
-618
-1274
-993
-952
-1072
-1070
-1108
-1178
-1187
-1193
-1203
-1200
-1217
-1235
-1199
-1138
-1126
-1129
-1038
-848
-668
-545
-444
-342
-251
-178
-124
-77
-38
-17
-27
-85
-204
-363
-519
-626
-662
-631
-525
-346
-144
23
150
251
326
384
435
481
528
580
620
635
648
681
710
715
726
762
782
769
764
771
772
767
738
667
572
482
415
372
334
297
263
216
187
218
263
259
226
218
234
238
222
223
260
285
276
287
320
318
304
301
230
144
173
186
71
-70
-222
140
1744
3264
2504
433
-376
-87
-138
-389
-413
-505
-671
-711
-748
-847
-920
-987
-1045
-988
-812
-646
-551
-460
-349
-309
-343
-324
-249
-236
-275
-302
-354
-403
-331
-180
-103
-112
-163
-278
-400
-434
-462
-594
-728
-772
-792
-805
-771
-738
-727
-653
-497
-331
-200
-86
6
45
47
52
73
107
113
72
81
187
266
271
273
280
273
276
296
310
290
232
178
147
141
170
191
173
160
170
180
186
163
106
97
164
210
201
199
203
171
129
117
115
74
24
47
67
-33
-163
-291
-202
828
2385
2468
815
-349
-188
43
-79
-90
-74
-143
-102
-27
-34
-4
46
-4
-99
-198
-371
-552
-570
-436
-299
-207
-120
-29
62
142
186
209
262
329
347
311
261
223
179
87
-22
-59
-55
-96
-140
-126
-107
-104
-83
-78
-107
-125
-118
-109
-89
-62
-59
-83
-96
-83
-71
-76
-89
-83
-48
-34
-69
-85
-72
-84
-96
-66
-39
-57
-90
-99
-88
-90
-89
-69
-73
-92
-76
-75
-120
-125
-83
-73
-74
-61
-67
-51
-7
-36
-125
-151
-114
-105
-120
-88
-62
-147
-287
-429
-358
590
2102
2285
688
-600
-509
-157
-180
-206
-172
-188
-181
-161
-148
-110
-96
-121
-118
-76
-44
-43
-53
-20
41
49
32
89
170
192
223
290
320
340
386
391
346
288
173
6
-125
-181
-194
-200
-221
-233
-220
-217
-238
-244
-218
-185
-170
-174
-183
-185
-179
-160
-128
-126
-156
-140
-92
-107
-145
-111
-60
-72
-98
-85
-71
-75
-58
-31
-36
-47
-41
-49
-52
-20
0
-15
-14
-3
-11
3
42
47
30
22
9
2
17
8
-31
-22
9
-54
-181
-334
-352
509
2227
2795
1196
-442
-495
-92
-155
-191
-74
-83
-118
-102
-114
-108
-71
-47
-19
-16
-45
-25
24
30
48
101
119
122
160
212
263
320
366
401
431
429
379
284
153
25
-55
-109
-174
-224
-221
-202
-215
-231
-208
-194
-226
-236
-199
-191
-220
-209
-160
-148
-182
-205
-177
-136
-138
-161
-159
-156
-161
-139
-111
-120
-141
-139
-132
-134
-130
-119
-118
-120
-107
-96
-107
-118
-98
-70
-74
-100
-110
-94
-79
-83
-80
-63
-54
-53
-39
-19
-3
-13
-58
-78
-53
-66
-92
-78
-132
-255
-382
-442
250
1962
2844
1471
-289
-497
-90
-151
-230
-131
-159
-210
-168
-157
-170
-146
-103
-67
-72
-96
-73
-31
-19
-5
23
48
76
109
144
190
250
309
349
357
358
359
319
210
63
-62
-127
-150
-166
-174
-172
-177
-180
-170
-171
-182
-177
-163
-155
-151
-151
-142
-117
-110
-120
-110
-102
-117
-107
-66
-65
-95
-85
-60
-55
-42
-30
-54
-71
-54
-40
-37
-30
-30
-36
-25
-5
0
-4
10
26
7
-24
-21
0
18
32
27
27
61
89
87
81
49
-9
-17
20
33
33
20
-39
-181
-373
-33
1399
2709
2071
290
-440
-136
-42
-150
-71
-41
-118
-106
-71
-84
-51
-3
-30
-64
-36
-2
6
27
56
63
71
88
102
137
205
259
285
315
343
352
358
330
213
57
-41
-92
-150
-198
-210
-211
-221
-222
-215
-226
-239
-229
-232
-255
-236
-192
-209
-249
-244
-213
-183
-182
-221
-229
-187
-174
-192
-188
-191
-213
-200
-177
-194
-203
-170
-161
-196
-213
-203
-201
-189
-166
-174
-201
-199
-174
-157
-148
-158
-190
-197
-166
-137
-126
-118
-103
-86
-89
-127
-170
-166
-126
-127
-143
-120
-138
-253
-452
-435
500
2021
2247
734
-480
-408
-161
-248
-225
-130
-150
-141
-99
-136
-159
-104
-65
-59
-38
-26
-21
24
53
26
34
94
125
144
203
255
274
292
