# session 40
-48
-46
-121
202
765
896
725
697
739
717
661
542
327
226
877
2299
2901
1710
303
124
421
381
304
341
323
302
312
287
269
287
293
293
302
305
302
302
300
303
319
330
335
356
391
419
442
473
502
521
538
541
497
401
277
149
43
-30
-85
-123
-131
-132
-146
-156
-151
-148
-144
-123
-98
-88
-91
-97
-95
-90
-89
-88
-78
-66
-63
-72
-82
-82
-70
-60
-63
-72
-72
-61
-39
-17
-7
-4
8
27
38
27
-5
-35
-59
-91
-109
-91
-60
-39
-26
-45
-90
-105
-85
-87
-126
-165
-183
-201
-243
-278
-290
-324
-360
-375
-481
-683
-904
-1093
-682
717
1646
617
-1012
-1342
-942
-907
-985
-908
-891
-895
-833
-802
-798
-767
-738
-720
-698
-678
-646
-601
-564
-527
-475
-448
-447
-368
-156
111
339
515
657
772
861
915
925
879
784
676
595
548
524
515
514
519
536
550
551
552
556
557
564
576
573
557
550
554
558
562
569
580
584
583
593
600
560
487
443
421
373
313
291
300
315
333
325
270
207
153
58
-82
-191
-274
-404
-539
-571
-541
-545
-532
-462
-445
-484
-449
-387
-430
-496
-469
-408
-390
-413
-473
-532
-530
-477
-398
-331
-336
-346
-284
-314
-508
-691
-651
88
1584
2331
1210
-261
-441
-51
-97
-264
-245
-234
-257
-235
-219
-227
-221
-188
-164
-210
-362
-558
-640
-516
-290
-104
34
158
256
331
415
502
571
622
668
715
743
723
638
503
356
240
158
61
-98
-272
-361
-362
-353
-366
-378
-382
-377
-364
-350
-328
-306
-311
-311
-265
-214
-184
-147
-124
-121
-87
-36
-10
11
37
60
92
131
150
155
160
173
208
242
220
164
141
135
97
69
91
111
94
71
44
-1
-27
3
65
114
134
135
134
145
168
188
196
207
223
216
174
127
108
122
103
17
-45
-68
-158
-277
-374
-311
502
1930
2296
974
-253
-277
-37
-126
-174
-127
-146
-151
-117
-91
-78
-90
-108
-106
-135
-215
-294
-344
-371
-383
-388
-384
-350
-288
-231
-196
-155
-93
-60
-77
-73
-33
-36
-93
-154
-241
-359
-429
-441
-463
-474
-410
-320
-279
-257
-215
-182
-176
-174
-167
-164
-160
-148
-139
-129
-101
-70
-62
-66
-62
-56
-59
-61
-40
-3
26
48
82
112
124
134
152
165
170
173
172
167
168
162
134
103
100
114
118
110
104
106
110
109
102
89
62
33
39
76
95
80
65
77
96
86
83
121
97
-18
-141
-225
200
1526
2518
1702
136
-322
10
79
0
40
39
22
60
57
27
17
-29
-95
-106
-84
-74
-69
-62
-59
-53
-33
2
41
75
119
172
213
257
313
348
347
323
251
126
-3
-92
-153
-205
-251
-276
-269
-239
-215
-208
-203
-190
-181
-182
-177
-164
-153
-136
-122
-125
-133
-138
-158
-189
-203
-190
-167
-144
-119
-102
-105
-116
-118
-109
-100
-95
-95
-121
-162
-157
-123
-205
-427
-604
-620
-551
-488
-439
-406
-407
-431
-442
-438
-432
-401
-352
-308
-243
-177
-209
-320
-363
-285
-209
-212
-182
-84
-78
-176
-281
-261
482
2017
2664
1378
-110
-251
94
49
-25
40
36
20
44
35
26
48
65
71
82
97
115
134
154
179
198
214
235
244
237
252
317
402
438
414
403
420
398
336
290
248
189
145
144
159
160
158
170
183
185
193
218
240
253
266
282
296
307
321
339
343
315
258
197
149
106
65
32
11
-7
-27
-45
-63
-82
-93
-92
-76
-38
26
79
60
-28
-105
-132
-142
-153
-150
-147
-157
-154
-134
-129
-161
-228
-309
-357
-357
-371
-450
-558
-645
-728
-801
-810
-788
-842
-972
-1053
-970
-763
-586
-482
-370
-319
-390
-492
-621
-408
785
2036
1533
-123
-798
-420
-215
-267
-198
-124
-139
-199
-285
-340
-364
-417
-476
-522
-577
-617
-620
-614
-606
-574
-490
-334
-152
-34
36
148
310
472
615
733
812
846
822
737
635
551
481
429
417
433
450
462
465
469
481
493
491
486
487
491
494
494
490
488
491
494
495
502
504
495
490
497
497
481
466
472
487
494
494
488
471
461
460
410
283
168
142
162
146
65
-26
-54
-17
36
83
132
175
207
233
259
287
294
269
227
121
-88
-273
-300
-280
-377
-557
-706
-788
-842
-914
-970
-982
-1039
-1154
-1288
-1384
-900
487
1389
428
-1134
-1493
-1126
-1060
-1088
-973
-954
-991
-929
-844
-779
-685
-593
-536
-472
-380
-308
-287
-271
-222
-162
-103
-34
38
107
182
255
321
374
400
417
446
445
382
299
235
171
103
71
94
142
185
217
239
240
213
187
194
220
238
246
238
207
186
185
172
153
162
179
168
148
135
121
105
85
47
2
-16
13
75
137
180
210
228
233
234
235
233
232
226
203
174
158
158
169
177
175
179
191
187
173
171
161
127
89
71
62
37
29
78
78
-35
-161
-274
-46
1127
2456
2103
362
-630
-457
-294
-404
-416
-407
-471
-472
-384
-286
-214
-168
-133
-97
-58
-20
16
56
99
134
164
187
204
250
333
397
403
372
362
409
465
463
403
247
-51
-332
-389
-307
-303
-394
-474
-508
-524
-536
-514
-457
-416
-383
-329
-316
-386
-430
-408
-449
-554
-537
-381
-273
-259
-242
-214
-245
-326
-387
-390
-356
-315
-286
-274
-268
-242
-176
-82
9
73
106
111
107
133
196
263
304
326
323
267
172
97
75
100
159
225
271
298
316
322
326
336
342
354
359
329
328
374
321
125
-140
-299
241
1520
1973
674
-754
-890
-559
-627
-745
-674
-590
-505
-410
-383
-393
-387
-392
-397
-364
-341
-380
-426
-416
-383
-365
-338
-300
-288
-282
-209
-70
60
164
279
402
492
520
477
383
281
195
125
77
67
96
138
172
191
200
202
207
218
223
219
216
213
205
202
203
195
192
209
218
209
201
197
189
181
176
174
171
159
139
124
117
112
109
107
95
74
59
54
49
37
16
-9
-29
-39
-37
-24
-9
1
9
8
-11
-37
-59
-101
-143
-139
-132
-157
-139
-127
-236
-383
-497
-350
622
1934
1885
419
-536
-373
-170
-260
-259
-207
-207
-181
-187
-245
-259
-280
-392
-525
-614
-678
-716
-718
-717
-732
-754
-783
-794
-744
-634
-502
-351
-173
-10
98
170
216
216
181
134
75
19
-6
-10
-21
-39
-41
-32
-24
-2
38
70
90
121
162
196
220
229
231
245
263
256
246
267
283
260
249
280
304
311
326
315
264
241
264
281
282
275
265
290
352
386
383
404
450
477
467
432
406
400
400
402
368
250
141
91
-30
-237
-422
-386
385
1669
1843
386
-874
-864
-603
-722
-789
-726
-759
-823
-796
-687
-567
-488
-390
-240
-107
-1
79
70
17
34
88
114
144
198
257
339
427
442
390
345
332
321
288
210
74
-87
-229
-336
-399
-426
-444
-466
-482
-494
-507
-516
-521
-531
-530
-494
-441
-405
-383
-360
-339
-310
-267
-213
-144
-81
-33
32
58
-62
-267
-410
-497
-583
-632
-647
-687
-691
-548
-316
-138
-36
40
102
156
226
294
316
342
402
384
270
131
56
570
1890
2609
1553
78
-224
60
34
-61
-37
-70
-94
-41
-12
-2
36
58
49
45
50
49
45
52
62
71
94
141
188
221
265
332
388
414
447
498
519
475
386
287
200
135
94
72
56
40
27
28
38
45
45
44
46
45
41
40
42
40
31
18
9
2
-4
-1
1
-12
-27
-31
-41
-68
-91
-103
-121
-151
-173
-174
-158
-139
-133
-150
-188
-219
-222
-224
-235
-212
-174
-207
-291
-339
-379
-472
-578
-645
-679
-672
-601
-501
-445
-402
-342
-352
-434
-528
-532
91
1471
2147
1070
-298
-472
-136
-132
-183
-131
-151
-177
-144
-132
-132
-114
-98
-82
-69
-76
-85
-77
-57
-25
16
59
108
165
232
319
404
451
467
491
525
534
497
419
320
203
82
-1
-27
-37
-52
-52
-39
-35
-41
-43
-42
-34
-14
14
27
22
16
19
38
88
137
139
125
144
166
165
169
169
146
126
103
49
-7
-47
-99
-145
-158
-162
-165
-149
-133
-120
-81
-22
21
36
37
43
61
80
90
78
47
14
-10
-11
21
35
20
2
-83
-230
-335
-373
22
1213
2115
1335
-193
-708
-479
-497
-621
-587
-591
-595
-481
-371
-317
-258
-220
-234
-249
-212
-141
-113
-134
-133
-122
-153
-162
-101
-36
12
58
44
-27
-37
40
87
27
-107
-243
-339
-378
-380
-376
-361
-306
-225
-159
-116
-78
-28
28
65
82
107
135
147
150
157
168
179
182
174
175
187
186
174
174
178
171
162
159
152
141
135
135
132
127
124
121
112
99
90
87
83
72
60
54
53
60
80
96
95
90
86
62
17
-11
0
4
-25
-15
12
-68
-209
-336
-293
495
1871
2185
843
-380
-379
-81
-117
-146
-96
-105
-96
-62
-67
-66
-50
-50
-51
-58
-92
-124
-137
-153
-158
-121
-63
-15
27
78
135
190
237
274
307
334
332
282
194
91
-4
-77
-126
-154
-167
-173
-174
-171
-166
-158
-150
-149
-149
-140
-126
-118
-112
-104
-102
-100
-91
-75
-66
-74
-93
-104
-102
-96
-91
-85
-80
-75
-67
-66
-73
-100
-162
-222
-228
-195
-173
-163
-150
-146
-164
-183
-185
-170
-152
-143
-129
-103
-80
-63
-47
-60
-110
-160
-178
-160
-145
-179
-189
-149
-213
-403
-613
-699
-84
1324
1943
738
-671
-793
-455
-530
-647
-575
-494
-399
-288
-240
-205
-146
-105
-78
-40
-3
27
62
92
111
137
170
201
238
288
335
375
423
478
524
556
570
549
477
374
281
217
169
131
112
114
124
127
126
131
139
144
153
164
168
170
175
179
186
195
191
178
174
177
175
175
178
178
180
185
183
178
180
183
180
172
162
151
150
158
154
147
159
172
175
179
156
82
5
-48
-113
-202
-258
-234
-165
-138
-177
-227
-253
-277
-330
-384
-383
-370
-426
-506
-591
-740
-904
-989
-722
387
1749
1713
306
-589
-427
-250
-348
-355
-334
-388
-404
-394
-401
-397
-388
-378
-352
-336
-347
-357
-361
-368
-364
-341
-288
-171
6
186
338
468
579
671
753
802
781
692
571
450
343
257
193
148
120
110
109
93
63
37
15
-9
-30
-47
-65
-78
-86
-86
-68
-40
-30
-35
-30
-11
9
19
10
-21
-61
-90
-118
-138
-121
-78
-63
-74
-79
-98
-144
-186
-235
-313
-351
-299
-228
-195
-151
-82
-43
-46
-45
-27
-30
-67
-112
-153
-197
-235
-265
-294
-309
-306
-319
-344
-323
-239
-178
-195
-193
-144
-169
-259
-350
-295
470
1859
2277
1034
-179
-190
119
88
59
99
46
15
50
56
56
79
91
103
120
116
108
122
142
157
179
201
212
224
242
264
294
326
347
362
370
351
305
242
154
42
-54
-114
-151
-174
-179
-172
-168
-170
-166
-152
-141
-144
-148
-140
-129
-127
-128
-123
-112
-107
-106
-101
-96
-94
-91
-86
-87
-89
-85
-77
-70
-71
-74
-66
-54
-53
-58
-54
-49
-51
-50
-43
-43
-44
-32
-21
-17
-6
12
28
41
42
24
-6
-25
-16
-16
-48
-52
-46
-123
-257
-425
-388
540
2013
2196
723
-419
-330
-87
-172
-178
-110
-132
-138
-125
-172
-236
-275
-307
-316
-295
-283
-289
-268
-216
-168
-114
-33
25
34
63
140
219
289
376
460
508
513
477
398
298
210
145
102
79
71
68
70
83
99
102
94
95
103
99
94
90
62
15
-26
-91
-187
-252
-291
-369
-487
-603
-671
-639
-538
-465
-437
-450
-523
-594
-578
-514
-457
-386
-290
-210
-192
-256
-361
-432
-428
-352
-247
-160
-100
-58
-32
-9
17
38
58
80
105
134
143
113
75
57
63
87
88
80
114
106
14
-96
-277
-161
944
2225
1893
366
-381
-177
-70
-129
-56
-13
-34
0
37
39
54
68
66
77
101
116
127
148
170
179
187
215
256
299
341
380
420
465
469
398
308
268
249
195
100
-4
-81
-116
-120
-106
-86
-73
-68
-65
-62
-57
-48
-40
-36
-34
-30
-22
-6
8
10
7
15
31
44
45
34
20
5
-4
1
18
31
35
41
48
46
38
41
51
56
59
66
67
55
17
-48
-97
-89
-54
-45
-69
-102
-113
-86
-51
-36
-19
12
47
75
92
86
59
45
47
14
-39
-35
-8
-26
-44
-57
-136
-304
-530
-356
787
1969
1435
-331
-1272
-1174
-1143
-1274
-1254
-1239
-1229
-1105
-994
-933
-822
-680
-534
-365
-223
-135
-51
41
110
158
206
250
291
340
387
407
402
395
405
438
470
462
410
335
240
150
98
72
46
29
29
39
59
74
75
74
79
81
81
83
81
76
70
73
85
87
75
69
74
74
66
57
56
59
56
43
38
42
37
27
26
25
19
14
9
4
9
13
4
-6
-8
-9
-7
-1
-3
-4
13
35
44
38
20
-11
-43
-44
-35
-60
-58
-11
-58
-193
-326
-377
221
1681
2458
1332
-189
-439
-100
-110
-185
-123
-131
-159
-128
-121
-132
-115
-94
-79
-59
-44
-31
-7
22
45
60
70
86
109
134
169
225
276
305
319
304
218
74
-59
-140
-198
-260
-290
-279
-278
-296
-296
-279
-273
-269
-252
-234
-228
-232
-225
-195
-178
-193
-195
-175
-183
-205
-186
-144
-132
-137
-115
-74
-44
-26
-10
9
26
34
33
28
20
17
26
36
38
41
52
56
52
54
60
61
62
71
83
85
76
70
71
73
73
