# session 16
-75
-85
67
99
-344
-962
-1179
-1027
-868
-761
-641
-526
-415
-333
-289
-193
-40
39
55
140
222
64
-362
-772
-965
-1071
-1204
-1354
-1595
-1441
-70
1445
901
-1072
-1786
-893
-75
-9
-285
-550
-665
-679
-696
-701
-680
-650
-607
-551
-477
-383
-301
-231
-153
-88
-49
-25
-20
-42
-77
-105
-125
-153
-188
-196
-158
-112
-82
-46
20
94
140
147
133
130
157
199
221
214
210
221
227
240
276
288
243
207
218
230
229
228
225
247
258
184
94
-55
-141
764
2601
3044
1201
-389
-228
230
153
146
259
229
212
258
272
293
327
340
366
405
434
472
518
550
568
584
590
560
471
353
264
194
101
26
0
-47
-114
-97
-46
-111
-203
-141
-9
11
-51
-96
-128
-173
-205
-202
-207
-272
-338
-335
-338
-398
-408
-344
-341
-420
-441
-377
-364
-399
-371
-379
-525
-687
-856
-705
559
2163
1889
-57
-1122
-776
-481
-582
-574
-491
-476
-469
-437
-353
-244
-196
-208
-244
-264
-182
-32
35
19
9
12
27
44
-12
-104
-137
-180
-274
-287
-232
-270
-359
-329
-192
-117
-180
-236
-168
-141
-249
-281
-168
-91
-62
18
26
-154
-280
-160
-28
2
206
518
533
336
265
238
150
164
218
36
-252
48
1363
2648
2272
631
-340
-215
-5
-16
19
65
55
3
-48
32
176
191
183
317
444
398
323
434
616
649
623
616
488
313
252
184
70
0
-111
-239
-219
-201
-315
-320
-178
-151
-210
-191
-188
-246
-256
-232
-223
-223
-246
-217
-93
-78
-182
-89
110
-8
-291
-291
-140
-186
-303
-266
-199
-215
-239
-335
-270
702
2092
1945
134
-1064
-818
-475
-591
-645
-604
-645
-607
-476
-421
-402
-313
-226
-187
-95
40
49
-19
74
283
349
268
231
249
178
24
-54
-32
-43
-134
-248
-318
-307
-264
-257
-258
-244
-258
-282
-242
-168
-166
-217
-216
-184
-211
-255
-255
-248
-225
-162
-138
-190
-227
-212
-227
-284
-254
-110
-103
-331
-548
-590
-106
1389
2905
2517
564
-697
-592
-186
-106
-224
-282
-133
78
159
158
187
322
566
737
712
633
617
621
652
690
595
409
335
356
278
64
-143
-236
-298
-427
-518
-478
-420
-435
-480
-483
-380
-240
-212
-151
154
449
396
161
2
-119
-232
-259
-199
-121
-48
80
322
551
577
476
426
457
596
809
935
938
826
810
1645
3109
3215
1342
-383
-615
-274
-116
15
99
-8
-185
-320
-456
-588
-648
-725
-929
-1083
-990
-877
-1004
-1143
-1047
-909
-919
-974
-1002
-1049
-1094
-1107
-1121
-1129
-1086
-1004
-923
-831
-728
-651
-595
-520
-424
-329
-241
-170
-95
7
81
77
81
154
195
152
118
134
149
152
165
178
182
191
229
264
234
214
262
239
116
-33
-143
444
2084
3033
1744
-70
-359
91
118
63
168
182
181
259
302
306
303
281
284
311
313
318
359
398
416
437
460
454
389
275
157
56
-49
-146
-195
-210
-231
-259
-277
-281
-278
-279
-273
-252
-241
-248
-240
-232
-255
-273
-258
-250
-263
-270
-268
-260
-233
-207
-196
-189
-191
-198
-195
-227
-267
-230
-220
-329
-499
-658
-158
1607
3018
1951
-211
-795
-226
-75
-162
-47
0
-28
24
59
61
89
117
147
196
236
273
327
384
427
458
462
431
374
290
174
44
-72
-153
-203
-234
-256
-271
-278
-283
-288
-284
-263
-238
-232
-240
-241
-236
-242
-260
-277
-283
-285
-286
-289
-300
-304
-287
-271
-267
-254
-251
-272
-268
-259
-279
-250
-208
-290
-441
-611
-489
747
2534
2561
623
-695
-499
-225
-332
-294
-203
-223
-194
-138
-132
-110
-69
-43
-8
37
74
114
163
209
244
260
258
242
206
150
86
22
-33
-70
-85
-92
-95
-92
-87
-80
-71
-61
-55
-54
-52
-50
-51
-52
-52
-56
-59
-58
-57
-60
-63
-72
-76
-58
-29
-14
-2
6
-11
-23
-13
-30
-33
17
-14
-151
-305
-377
261
1884
2796
1564
-172
-491
-127
-149
-226
-140
-134
-144
-87
-65
-54
-10
10
11
40
86
130
174
211
242
264
260
231
196
153
89
2
-84
-127
-138
-161
-193
-197
-184
-185
-195
-195
-181
-173
-197
-228
-224
-204
-209
-227
-227
-217
-221
-236
-236
-218
-202
-196
-185
-168
-176
-205
-204
-194
-217
-207
-164
-209
-350
-521
-433
554
2052
2196
578
-725
-619
-219
-203
-188
-116
-141
-140
-87
-80
-77
-34
15
58
102
139
184
247
311
364
404
421
399
335
232
104
-15
-94
-139
-176
-197
-180
-156
-162
-168
-137
-97
-94
-122
-130
-96
-69
-93
-131
-130
-111
-119
-146
-147
-112
-94
-113
-110
-70
-70
-114
-111
-82
-99
-101
-70
-130
-321
-466
-74
1160
2197
1579
-17
-683
-332
-105
-162
-127
-63
-68
-64
-36
-13
5
24
51
91
145
193
224
279
359
395
387
380
341
238
116
7
-97
-184
-228
-241
-249
-252
-248
-248
-252
-243
-225
-220
-216
-194
-172
-163
-157
-145
-125
-101
-83
-80
-79
-64
-40
-28
-19
-6
-14
-37
-42
-53
-78
-59
-58
-153
-315
-541
-341
1056
2611
2141
194
-689
-304
-123
-247
-188
-138
-180
-147
-108
-115
-87
-45
-23
18
74
117
158
212
265
300
312
306
277
218
132
34
-57
-124
-161
-189
-213
-219
-207
-202
-210
-220
-224
-223
-224
-226
-227
-230
-233
-230
-223
-221
-222
-221
-221
-212
-189
-175
-165
-145
-146
-172
-168
-156
-171
-146
-112
-184
-332
-528
-448
672
2256
2218
480
-617
-369
-111
-216
-193
-123
-149
-124
-74
-62
-30
15
35
62
105
144
187
237
279
300
301
286
254
201
129
47
-34
-96
-132
-151
-159
-155
-142
-134
-132
-128
-125
-128
-133
-132
-127
-125
-126
-128
-129
-123
-116
-113
-107
-108
-114
-101
-71
-54
-41
-31
-48
-62
-49
-56
-58
-18
-43
-157
-318
-456
80
1607
2495
1357
-226
-448
-63
-77
-143
-52
-45
-54
0
20
27
65
95
117
153
189
225
267
303
327
338
330
304
265
213
148
79
17
-26
-50
-63
-68
-65
-61
-64
-71
-75
-79
-85
-92
-99
-105
-108
-110
-115
-118
-118
-120
-123
-126
-136
-142
-130
-115
-105
-97
-107
-132
-131
-135
-159
-136
-115
-190
-308
-476
-419
571
1952
1862
321
-605
-400
-223
-324
-293
-239
-274
-263
-224
-220
-208
-185
-172
-150
-119
-86
-51
-20
-4
3
9
-5
-46
-94
-140
-198
-270
-332
-372
-394
-402
-405
-413
-421
-424
-430
-443
-453
-457
-460
-466
-481
-490
-478
-469
-484
-491
-474
-474
-498
-508
-487
-460
-455
-455
-422
-373
-318
-229
-132
-16
189
376
414
363
290
570
1748
3000
2708
1312
654
894
1050
1020
1084
1139
1107
1046
1004
987
878
663
523
524
566
610
661
700
699
631
492
337
216
109
-22
-144
-219
-288
-381
-442
-451
-463
-483
-485
-479
-474
-467
-467
-469
-465
-471
-484
-491
-499
-503
-485
-457
-441
-434
-425
-410
-388
-375
-375
-374
-375
-383
-370
-349
-353
-338
-305
-342
-456
-621
-586
291
1693
1872
428
-726
-621
-286
-297
-297
-239
-244
-223
-173
-151
-124
-90
-60
-10
47
92
143
203
245
272
295
302
274
218
137
39
-50
-111
-149
-173
-184
-185
-174
-158
-154
-157
-148
-128
-116
-116
-119
-115
-104
-96
-101
-113
-117
-113
-108
-108
-110
-98
-73
-55
-44
-27
-29
-48
-42
-33
-48
-25
3
-67
-201
-394
-354
692
2247
2265
586
-523
-311
-57
-157
-132
-52
-63
-27
29
34
56
100
126
153
196
242
293
345
387
418
427
404
359
293
197
90
0
-65
-110
-137
-149
-155
-158
-154
-149
-149
-151
-148
-147
-150
-147
-140
-138
-139
-136
-132
-130
-129
-129
-129
-127
-132
-137
-120
-92
-79
-65
-52
-71
-87
-69
-77
-91
-51
-69
-194
-367
-532
-63
1505
2619
1594
-172
-588
-214
-214
-307
-218
-208
-238
-188
-155
-144
-104
-71
-49
-13
23
56
98
148
196
230
244
240
220
179
113
34
-44
-106
-147
-168
-178
-178
-173
-164
-154
-142
-132
-126
-125
-124
-122
-120
-117
-113
-109
-108
-106
-102
-98
-96
-97
-96
-92
-100
-115
-107
-82
-70
-61
-53
-75
-97
-88
-99
-112
-74
-89
-202
-359
-524
-118
1344
2452
1567
-96
-539
-195
-171
-257
-183
-172
-200
-158
-130
-127
-99
-74
-53
-11
33
61
98
154
203
221
223
226
214
173
115
50
-21
-84
-116
-127
-140
-152
-146
-134
-133
-136
-133
-131
-139
-146
-136
-120
-120
-126
-124
-124
-130
-130
-119
-113
-121
-118
-100
-99
-117
-113
-89
-86
-101
-94
-72
-60
-33
10
3
-44
-51
-37
-51
-31
5
-51
-194
-395
-322
696
2128
2125
561
-515
-346
-49
-89
-91
-44
-55
-30
18
34
53
88
122
163
198
226
269
330
383
418
438
438
419
374
295
188
83
5
-55
-104
-132
-143
-155
-161
-150
-143
-149
-151
-147
-149
-155
-157
-154
-151
-157
-169
-168
-159
-167
-184
-184
-171
-163
-161
-161
-163
-159
-152
-149
-143
-131
-124
-120
-120
-149
-180
-182
-194
-207
-173
-183
-288
-445
-607
-167
1372
2542
1598
-201
-690
-290
-230
-320
-238
-213
-233
-180
-145
-141
-109
-72
-43
-3
40
77
117
164
208
245
265
261
229
166
73
-34
-124
-181
-220
-249
-263
-266
-263
-251
-244
-253
-261
-258
-254
-248
-226
-188
-153
-131
-119
-107
-94
-85
-80
-72
-58
-48
-42
-29
-9
3
11
30
50
68
98
129
143
150
147
118
102
106
87
96
147
96
-60
-253
-347
410
2163
2939
1473
-228
-370
30
-25
-92
-17
-59
-107
-82
-87
-92
-66
-56
-42
0
32
59
110
166
202
222
230
218
180
111
15
-92
-182
-242
-274
-290
-296
-294
-288
-279
-268
-260
-253
-242
-231
-220
-206
-190
-176
-163
-150
-141
-134
-126
-117
-111
-108
-102
-91
-81
-77
-73
-72
-77
-80
-69
-59
-67
-70
-51
-34
-25
-13
-24
-55
-60
-63
-76
-39
-23
-113
-244
-412
-242
981
2449
2170
452
-461
-222
-70
-171
-121
-70
-98
-70
-35
-39
-20
12
30
57
98
134
176
231
285
321
340
343
327
289
229
143
52
-20
-72
-111
-134
-143
-147
-152
-159
-164
-164
-167
-172
-172
-179
-197
-203
-190
-182
-183
-174
-160
-156
-157
-161
-169
-169
-161
-158
-164
-170
-166
-152
-145
-154
-154
-140
-137
-139
-128
-116
-113
-127
-174
-216
-222
-242
-271
-259
-280
-394
-581
-721
-210
1258
2233
1302
-265
-643
-281
-202
-238
-152
-128
-147
-130
-128
-129
-109
-100
-92
-61
-20
19
53
100
163
214
246
271
271
231
175
97
-17
-117
-164
-194
-215
-194
-146
-106
-73
-48
-27
13
66
101
123
150
172
195
237
257
226
205
230
249
239
225
210
195
200
214
214
206
195
181
178
190
192
180
180
173
116
64
62
53
45
79
61
-46
-210
-336
225
1766
2647
1450
-256
-554
-122
-68
-123
-40
-41
-90
-98
-151
-219
-232
-227
-226
-207
-180
-149
-102
-44
14
58
77
71
41
-19
-109
-212
-300
-362
-399
-423
-438
-440
-423
-400
-385
-376
-362
-345
-326
-299
-270
-250
-233
-216
-211
-212
-209
-205
-207
-207
-205
-206
-209
-210
-207
-204
-201
-194
-177
-160
-154
-143
-113
-86
-74
-62
-64
-93
-100
-92
-105
-77
-33
-101
-235
-398
-377
609
2289
2565
881
-483
-383
-76
-170
-173
-89
-109
-95
-42
-35
-24
3
19
44
78
103
135
182
234
289
332
354
360
351
319
262
185
108
55
29
15
5
1
0
-6
-13
-14
-13
-16
-23
-27
-25
-18
-13
-16
-23
-26
-25
-24
-25
-24
-24
-27
-33
-36
-36
-36
-35
-38
-42
-43
-42
-42
-32
-11
2
9
13
-8
-38
-47
-69
-95
-70
-78
-182
-317
-463
-170
1144
2403
1825
145
-547
-278
-196
-289
-235
-215
-251
-229
-212
-218
-200
-181
-166
-137
-106
-72
-22
30
74
115
147
174
201
204
168
110
35
-48
-103
-116
-123
-138
-145
-141
-144
-155
-167
-179
-190
-196
-197
-199
-213
-233
-241
-238
-244
-259
-265
-258
-251
-256
-263
-260
-251
-251
-261
-266
-261
-252
-239
-221
-210
-197
-160
-110
-77
-64
-60
-40
2
31
58
112
124
57
-69
-177
284
1654
2611
1710
78
-389
5
160
131
204
232
207
213
197
157
138
127
121
135
160
192
236
288
342
392
422
430
418
360
242
94
-38
-136
-199
-235
-256
-267
-270
-268
-265
-256
-244
-234
-224
-209
-189
-170
-160
-159
-158
-159
-170
-179
-173
-170
-183
-193
-191
-188
-189
-190
-193
-199
-194
-181
-175
-168
-142
-112
-97
-92
-101
-127
-132
-130
-159
-152
-119
-184
-324
-507
-489
539
2265
2503
725
-645
-462
-115
-227
-232
-141
-173
-172
-124
-128
-124
-91
-71
-44
0
41
87
149
217
280
333
363
367
342
279
174
50
-55
-125
-168
-192
-200
-199
-194
-186
-178
-168
-163
-160
-157
-150
-145
-144
-143
-138
-132
-129
-125
-119
-110
-103
-100
-100
-99
-96
-93
-88
-85
-83
-73
-59
-55
-49
-26
-7
1
14
10
-23
-32
-27
-48
-24
9
-79
-232
-411
-334
809
2531
2602
762
-498
-291
-30
-166
-155
-77
-112
-99
-53
-58
-54
-39
-49
-51
-28
4
51
110
169
225
272
302
310
293
241
159
66
-16
-73
-108
-126
-135
-136
-132
-124
-116
-112
-113
-114
-113
-110
-109
-106
-105
-105
-104
-104
-105
-104
-103
-101
-99
-100
-101
-99
-96
-97
-98
-97
-97
-94
-89
-87
-80
-61
-45
-39
-32
-42
-78
-92
-88
-107
-98
-74
-141
-277
-461
-470
416
1936
2195
696
-538
-481
-225
-312
-325
-266
-297
-298
-263
-266
-260
-234
-224
-208
-177
-149
-118
-77
-36
2
35
50
43
