# session 1
-9
63
-167
161
1257
1936
1737
1444
1382
1278
1163
1132
1073
984
937
900
847
799
749
689
631
582
543
508
478
455
431
402
378
363
344
319
294
269
247
230
219
223
228
192
127
107
102
54
45
73
-11
-165
-339
-381
478
2130
2530
924
-501
-467
-166
-256
-271
-213
-266
-278
-240
-247
-246
-224
-220
-209
-189
-178
-164
-146
-135
-115
-82
-55
-41
-27
-18
-19
-28
-38
-38
-46
-103
-197
-263
-280
-290
-322
-350
-345
-317
-304
-309
-307
-294
-286
-288
-295
-300
-297
-288
-274
-261
-252
-246
-236
-220
-206
-201
-193
-168
-146
-148
-154
-154
-186
-227
-213
-195
-217
-198
-174
-257
-367
-503
-495
451
2041
2178
441
-812
-582
-227
-297
-281
-212
-250
-239
-191
-189
-180
-154
-136
-113
-91
-62
-18
20
57
111
164
213
269
317
353
382
393
392
394
366
287
191
112
56
17
-13
-28
-23
-20
-30
-30
-19
-19
-30
-35
-39
-49
-57
-51
-46
-58
-75
-80
-66
-45
-41
-59
-68
-53
-43
-43
-29
-21
-46
-59
-43
-58
-66
-14
-28
-137
-263
-428
-43
1549
2832
1778
-255
-755
-204
-76
-161
-68
-61
-106
-55
-30
-48
-30
-11
-11
4
30
52
81
112
135
158
189
222
252
272
277
278
282
269
219
138
44
-50
-124
-173
-202
-215
-219
-223
-227
-225
-219
-213
-207
-197
-182
-176
-186
-184
-165
-161
-178
-186
-177
-163
-155
-158
-168
-169
-164
-161
-148
-128
-144
-195
-205
-178
-199
-199
-131
-161
-297
-455
-562
140
1957
2867
1359
-482
-612
-124
-166
-229
-119
-141
-170
-113
-106
-115
-88
-79
-78
-56
-30
-5
22
44
66
95
123
149
174
197
211
212
203
186
154
98
26
-44
-90
-112
-130
-148
-156
-154
-150
-148
-148
-139
-123
-123
-136
-135
-126
-130
-130
-121
-125
-133
-123
-108
-104
-108
-112
-111
-98
-88
-82
-63
-56
-95
-119
-88
-91
-122
-98
-111
-209
-328
-467
-105
1307
2446
1571
-168
-638
-230
-167
-265
-197
-183
-207
-157
-125
-125
-106
-89
-79
-60
-43
-26
3
35
57
76
104
135
161
186
208
218
229
254
265
235
180
123
65
17
-14
-36
-52
-54
-52
-61
-72
-76
-78
-80
-79
-76
-83
-94
-95
-88
-90
-100
-107
-102
-90
-87
-104
-120
-118
-111
-105
-75
-38
-52
-95
-102
-111
-130
-86
-67
-169
-319
-537
-418
909
2570
2249
278
-703
-320
-95
-210
-154
-104
-150
-122
-85
-91
-63
-29
-19
6
46
79
112
148
177
204
240
278
309
336
359
373
378
364
307
202
75
-48
-146
-213
-253
-272
-275
-281
-288
-276
-253
-238
-231
-220
-208
-205
-210
-210
-206
-206
-210
-210
-206
-200
-192
-185
-184
-186
-181
-171
-159
-135
-104
-108
-156
-178
-158
-168
-176
-131
-160
-283
-425
-552
-39
1564
2617
1459
-338
-654
-191
-153
-220
-126
-126
-153
-99
-81
-89
-62
-41
-32
-7
18
38
61
87
114
146
174
195
219
238
242
236
223
199
162
110
44
-19
-64
-96
-120
-130
-124
-112
-110
-111
-106
-102
-105
-103
-96
-98
-107
-111
-111
-116
-120
-120
-118
-115
-115
-113
-99
-70
-48
-44
-38
-13
17
47
74
68
28
22
33
-1
0
31
-53
-195
-365
-465
379
2209
2771
1050
-544
-479
-119
-258
-295
-207
-259
-270
-208
-204
-205
-181
-180
-163
-107
-69
-63
-47
-9
29
59
90
127
158
176
187
200
218
225
189
108
15
-57
-104
-128
-140
-152
-165
-171
-174
-175
-167
-151
-138
-136
-138
-135
-129
-128
-126
-113
-97
-97
-104
-101
-99
-106
-103
-89
-88
-98
-105
-112
-109
-85
-63
-50
-45
-65
-81
-63
-63
-70
-30
-46
-166
-332
-475
32
1613
2657
1527
-254
-569
-94
-58
-148
-55
-52
-101
-66
-49
-64
-45
-17
-5
10
32
55
80
103
122
149
185
215
240
275
308
322
324
323
295
212
94
-11
-86
-138
-173
-191
-198
-198
-197
-202
-205
-198
-189
-189
-187
-177
-171
-174
-177
-175
-175
-177
-175
-174
-181
-190
-197
-196
-179
-166
-177
-188
-179
-164
-149
-125
-118
-146
-156
-134
-141
-141
-92
-122
-246
-374
-498
-21
1571
2682
1537
-344
-699
-190
-141
-228
-119
-112
-165
-122
-94
-102
-75
-48
-43
-23
11
30
41
68
111
148
174
201
228
244
250
252
250
240
204
131
47
-21
-76
-118
-137
-143
-151
-155
-148
-141
-139
-143
-148
-140
-125
-123
-126
-115
-106
-110
-111
-98
-88
-84
-80
-78
-82
-81
-78
-76
-68
-57
-55
-59
-64
-63
-44
-20
-3
12
9
-8
6
15
-13
12
35
-74
-237
-430
-339
909
2673
2554
542
-631
-288
-32
-188
-161
-104
-165
-143
-93
-109
-107
-87
-85
-71
-50
-33
0
28
37
56
84
101
121
152
167
167
169
171
163
137
78
-2
-67
-111
-147
-169
-172
-165
-156
-153
-158
-157
-154
-159
-162
-157
-157
-155
-148
-149
-149
-141
-137
-141
-137
-130
-129
-130
-124
-116
-113
-113
-112
-114
-111
-95
-94
-113
-117
-97
-74
-39
-13
-40
-78
-62
-56
-75
-44
-52
-156
-292
-485
-243
1118
2428
1797
118
-451
-128
-98
-205
-127
-108
-149
-119
-99
-103
-78
-59
-57
-39
-7
21
41
60
83
115
144
160
176
197
208
201
191
185
175
143
79
8
-40
-76
-107
-118
-114
-120
-124
-114
-108
-111
-115
-119
-123
-121
-122
-124
-117
-113
-118
-116
-108
-100
-91
-94
-111
-116
-100
-83
-73
-67
-64
-61
-61
-58
-52
-52
-58
-55
-45
-37
-15
7
-10
-40
-38
-47
-67
-28
-21
-124
-279
-526
-417
919
2517
2106
177
-693
-296
-104
-208
-142
-107
-157
-124
-91
-100
-70
-31
-22
-9
15
43
83
126
154
177
203
234
273
312
333
332
313
281
244
198
125
27
-66
-131
-171
-190
-192
-190
-189
-177
-169
-182
-185
-167
-161
-169
-162
-153
-161
-167
-159
-152
-154
-160
-160
-159
-166
-174
-173
-169
-173
-179
-179
-177
-181
-189
-186
-168
-145
-118
-107
-133
-145
-117
-128
-146
-82
-71
-179
-322
-521
-184
1424
2836
1917
-93
-648
-163
-92
-200
-97
-86
-148
-115
-95
-105
-79
-56
-50
-36
-22
0
38
63
74
96
131
168
197
214
227
237
237
224
203
170
115
47
-13
-48
-63
-75
-84
-82
-81
-85
-83
-76
-73
-71
-76
-90
-97
-91
-83
-74
-67
-69
-74
-74
-72
-67
-59
-61
-78
-88
-75
-59
-53
-43
-32
-32
-28
-2
24
36
39
12
-28
-26
-19
-48
-40
-25
-104
-225
-378
-305
685
2088
2027
446
-551
-351
-142
-246
-233
-182
-219
-218
-190
-185
-170
-156
-148
-121
-93
-78
-47
-7
15
32
63
91
98
106
131
153
144
119
111
109
80
17
-49
-93
-113
-121
-128
-135
-135
-127
-126
-134
-132
-123
-122
-120
-112
-105
-104
-106
-106
-98
-97
-103
-101
-95
-100
-106
-102
-98
-97
-97
-99
-96
-86
-90
-99
-89
-68
-48
-33
-54
-99
-93
-62
-85
-90
-47
-89
-199
-342
-384
422
2020
2404
778
-634
-496
-81
-143
-149
-53
-87
-99
-45
-35
-38
-8
21
24
24
46
78
92
107
140
175
207
238
262
285
303
298
281
262
226
163
81
-2
-61
-99
-134
-160
-158
-149
-154
-157
-148
-144
-141
-128
-119
-125
-130
-124
-118
-117
-113
-106
-106
-113
-118
-114
-106
-103
-107
-109
-103
-91
-84
-91
-94
-76
-55
-50
-69
-106
-120
-109
-117
-114
-97
-154
-246
-358
-406
289
1775
2258
850
-530
-525
-176
-214
-215
-136
-164
-134
-34
-23
-53
-50
-46
-44
-30
-16
10
64
126
191
268
332
369
402
436
438
399
344
287
224
151
58
-42
-109
-138
-174
-211
-206
-190
-212
-228
-204
-205
-242
-236
-201
-205
-219
-213
-219
-229
-219
-206
-185
-159
-165
-189
-186
-169
-157
-150
-152
-151
-132
-117
-122
-119
-99
-79
-66
-52
-39
-54
-99
-114
-103
-129
-133
-92
-147
-268
-379
-447
208
1823
2518
1031
-609
-623
-127
-152
-207
-109
-122
-149
-115
-110
-98
-57
-41
-37
-16
2
12
33
68
107
135
162
200
224
224
235
254
252
238
218
175
120
65
14
-13
-13
-17
-32
-32
-18
-10
-7
3
12
9
7
22
38
35
25
26
31
27
20
19
19
15
11
6
-14
-42
-50
-39
-47
-71
-70
-58
-72
-89
-80
-58
-39
-48
-95
-117
-91
-105
-136
-93
-89
-186
-274
-354
-58
1146
2187
1420
-212
-660
-213
-98
-181
-114
-108
-154
-120
-99
-113
-97
-87
-96
-78
-55
-48
-32
-3
19
41
64
79
92
109
117
112
110
112
103
74
23
-40
-97
-137
-162
-173
-175
-175
-175
-168
-159
-159
-168
-173
-168
-162
-156
-149
-151
-165
-172
-163
-158
-164
-159
-140
-132
-138
-141
-137
-134
-134
-130
-116
-106
-116
-120
-96
-70
-59
-44
-39
-69
-88
-72
-85
-112
-80
-90
-175
-267
-443
-220
1160
2488
1720
-151
-687
-164
-33
-154
-70
-13
-34
-15
-11
-11
24
39
41
71
98
110
131
168
205
229
246
279
321
342
342
344
354
345
303
235
152
61
-16
-70
-104
-121
-130
-137
-136
-135
-138
-137
-133
-129
-121
-115
-117
-115
-105
-98
-101
-109
-114
-107
-102
-107
-109
-106
-104
-105
-106
-101
-88
-88
-104
-92
-49
-25
-28
-40
-72
-102
-92
-100
-129
-95
-83
-171
-299
-525
-374
1008
2535
1967
15
-734
-272
-105
-221
-151
-119
-167
-129
-97
-116
-105
-83
-74
-54
-32
-16
2
24
48
78
103
120
136
156
171
174
167
158
140
94
25
-50
-114
-156
-172
-178
-181
-180
-176
-173
-169
-166
-164
-161
-154
-150
-148
-144
-138
-134
-128
-120
-119
-118
-113
-110
-107
-96
-88
-84
-65
-42
-46
-60
-56
-47
-54
-59
-47
-27
-9
14
25
-11
-53
-41
-28
-49
-28
-9
-86
-205
-394
-343
759
2278
2106
349
-601
-256
-21
-142
-110
-56
-101
-87
-55
-67
-54
-24
-11
2
18
30
44
62
89
105
109
139
166
138
148
256
307
228
158
140
89
5
-66
-119
-144
-142
-145
-148
-136
-126
-131
-134
-128
-128
-134
-133
-125
-124
-123
-113
-104
-106
-103
-86
-75
-80
-77
-64
-64
-75
-76
-68
-56
-45
-44
-50
-44
-29
-27
-39
-38
-17
13
36
28
-14
-35
-23
-35
-51
-24
-41
-122
-230
-392
-101
1167
2187
1400
-114
-493
-146
-116
-187
-110
-111
-145
-103
-87
-97
-72
-52
-52
-39
-24
-15
4
32
52
72
94
110
123
134
136
132
121
99
78
62
18
-56
-116
-145
-161
-172
-174
-168
-164
-160
-150
-138
-139
-145
-144
-138
-132
-126
-125
-131
-135
-127
-115
-120
-135
-125
-99
-93
-99
-85
-66
-69
-85
-85
-60
-47
-65
-72
-50
-27
-10
-2
-29
-69
-66
-44
-65
-73
-13
-11
-107
-201
-347
-204
934
2206
1706
-34
-752
-307
-44
-94
-42
-14
-45
-9
16
2
19
42
41
53
90
130
162
178
192
223
263
294
317
342
360
364
359
346
317
265
182
71
-26
-81
-118
-148
-152
-144
-155
-176
-180
-171
-165
-159
-148
-144
-142
-132
-125
-133
-138
-129
-123
-117
-105
-97
-96
-95
-99
-105
-102
-101
-113
-127
-132
-132
-124
-103
-89
-96
-125
-153
-144
-129
-160
-161
-111
-144
-244
-373
-500
106
1730
2496
1085
-568
-674
-237
-245
-277
-199
-240
-260
-208
-207
-212
-184
-171
-157
-128
-109
-82
-30
19
49
67
86
121
156
164
164
178
174
129
65
-2
-71
-131
-185
-235
-263
-268
-260
-231
-201
-201
-213
-204
-183
-175
-178
-180
-173
-162
-161
-171
-172
-158
-147
-155
-167
-165
-149
-127
-113
-110
-86
-55
-64
-76
-56
-57
-30
149
384
499
532
564
590
602
551
424
342
317
277
263
144
-3
689
2167
2465
926
-375
-307
-14
-96
-108
-50
-89
-100
-85
-110
-108
-86
-83
-54
-10
-3
-8
8
27
51
83
105
123
153
176
174
167
165
147
107
45
-30
-91
-128
-168
-209
-229
-239
-242
-221
-208
-228
-233
-204
-185
-188
-196
-208
-217
-216
-217
-217
-209
-208
-214
-211
-205
-211
-212
-205
-216
-225
-201
-183
-201
-213
-191
-157
-131
-143
-191
-203
-166
-173
-198
-168
-178
-263
-351
-474
-193
1079
2220
1509
-153
-696
-318
-203
-286
-238
-228
-249
-202
-184
-203
-176
-149
-161
-157
-117
-91
-87
-67
-22
32
75
98
126
175
203
190
184
202
187
115
36
-26
-100
-166
-148
-88
-122
-233
-263
-199
-173
-205
-201
-145
-119
-148
-167
-133
-94
-97
-111
-70
4
11
-56
-92
-70
-47
-18
37
64
49
48
67
64
69
118
130
57
18
53
53
56
123
96
-34
-110
-179
105
1282
2332
1701
211
-310
-44
28
-20
33
20
-27
1
34
39
45
58
73
83
109
162
201
205
202
216
261
328
361
347
343
356
351
339
335
312
250
169
113
93
61
-5
-44
-27
-5
-11
-26
-28
-17
6
21
0
-37
-42
-14
-11
-42
-52
-28
-21
-36
-37
-38
-51
-47
-35
-50
-72
-62
-41
-37
-38
-34
-42
-68
-92
-107
-143
-168
-131
-137
-249
-373
-489
-259
838
1937
1439
-89
-747
-473
-328
-378
-342
-347
-393
-374
-357
-368
-361
-352
-351
-342
-332
-326
-314
-296
-273
-247
-222
-196
-174
-168
-172
-165
-148
-152
-194
-260
-331
-393
-448
-501
-533
-539
-538
-534
-528
-535
-549
-543
-521
-500
-491
-495
-494
-474
-457
-460
-464
-469
-467
-413
-381
-434
-396
-310
-411
-172
995
2163
2169
1472
982
709
451
288
233
189
125
92
81
24
-69
-222
-217
658
2083
2186
646
-436
-165
318
505
667
662
458
355
352
337
355
