# session 39
-127
-152
-109
36
33
-213
-365
-314
-273
-254
-211
-245
-336
-371
-370
-381
-391
-387
-382
-400
-463
-538
-591
-632
-658
-645
-610
-590
-585
-574
-566
-569
-566
-563
-581
-590
-556
-511
-485
-458
-409
-343
-268
-188
-105
-12
90
189
269
334
394
434
449
465
482
470
441
431
434
433
427
418
415
426
436
422
396
377
347
280
201
168
194
242
268
254
221
218
239
229
178
133
132
175
207
210
263
302
160
-69
-257
-249
555
2000
2336
944
-303
-303
-59
-157
-190
-108
-91
-77
-57
-76
-91
-102
-115
-98
-81
-101
-113
-91
-64
-40
-4
39
70
94
135
189
229
249
268
297
313
278
178
23
-173
-358
-445
-408
-322
-272
-268
-273
-269
-265
-264
-263
-259
-236
-197
-178
-175
-149
-103
-68
-48
-29
-11
2
12
9
0
-7
-9
-3
3
-10
-30
-34
-35
-39
-15
30
47
35
25
14
0
1
1
-34
-96
-139
-140
-148
-249
-422
-544
-573
-577
-590
-590
-565
-529
-490
-443
-402
-392
-402
-398
-372
-355
-354
-317
-269
-316
-419
-522
-491
268
1723
2251
1037
-249
-324
-15
-24
-37
20
-11
-28
-8
-32
-45
-17
6
38
88
117
132
163
196
214
233
268
307
334
357
386
419
457
495
517
529
532
497
405
286
174
87
26
-20
-58
-65
-45
-37
-46
-45
-34
-35
-45
-43
-30
-26
-29
-28
-20
-12
-7
-5
-7
-7
5
14
8
4
18
33
32
23
22
28
37
43
47
52
56
54
55
60
61
58
51
41
39
47
50
50
55
61
60
48
25
-10
-44
-47
-38
-65
-80
-61
-112
-253
-457
-503
345
1963
2453
1028
-341
-343
-18
-103
-197
-235
-376
-450
-412
-405
-425
-420
-402
-378
-354
-343
-337
-330
-330
-354
-411
-448
-446
-493
-616
-676
-585
-408
-218
-33
109
179
189
153
77
-1
-41
-55
-67
-57
-23
10
35
64
92
116
139
169
210
251
277
299
326
343
346
344
347
368
384
344
278
236
152
-46
-309
-542
-643
-534
-313
-163
-143
-219
-324
-347
-284
-239
-209
-134
-69
-56
-55
-47
-37
-11
13
10
4
9
9
14
54
103
108
87
74
46
15
24
31
30
67
48
-76
-208
-309
76
1451
2621
1896
228
-330
-6
35
-101
-78
-73
-96
-63
-61
-83
-66
-54
-68
-71
-59
-56
-66
-81
-87
-86
-83
-63
-14
34
66
114
181
224
235
245
257
241
182
84
-28
-123
-186
-234
-277
-307
-322
-331
-324
-303
-301
-323
-336
-328
-313
-286
-240
-190
-139
-67
15
78
127
175
202
205
216
237
259
269
240
187
155
117
43
-6
-11
-37
-93
-139
-178
-215
-235
-241
-245
-252
-257
-252
-241
-233
-217
-204
-227
-253
-210
-127
-84
-70
-46
-42
-45
-16
-4
-23
1
-7
-132
-278
-384
-112
1056
2257
1814
228
-525
-311
-235
-360
-332
-287
-284
-231
-191
-183
-149
-112
-101
-87
-64
-37
-4
29
55
76
92
98
99
112
154
210
253
280
289
271
260
297
335
299
209
142
116
94
65
76
149
224
243
233
230
235
239
241
237
243
256
246
224
239
268
240
181
149
115
55
24
32
37
43
68
97
112
84
-4
-112
-187
-222
-234
-241
-255
-263
-261
-263
-271
-267
-248
-232
-233
-248
-270
-284
-287
-310
-358
-396
-407
-377
-325
-312
-331
-368
-483
-629
-760
-777
-88
1324
1821
559
-742
-799
-534
-639
-661
-465
-302
-168
-51
-27
-55
-81
-97
-71
-23
-22
-61
-78
-58
-36
-9
50
113
127
124
173
263
339
378
379
340
261
140
6
-95
-168
-248
-317
-328
-290
-234
-152
-53
26
65
88
118
99
-17
-149
-199
-199
-219
-257
-272
-247
-203
-173
-155
-121
-71
-25
10
32
32
14
7
25
35
9
-1
51
123
177
226
261
260
252
256
275
300
303
316
359
327
210
91
5
416
1708
2661
1859
361
-53
276
340
272
334
347
311
322
324
303
294
285
280
288
293
292
296
293
292
320
357
390
444
495
489
472
516
596
671
737
766
721
599
418
229
93
-3
-95
-162
-183
-206
-259
-325
-388
-438
-468
-490
-529
-582
-620
-631
-643
-679
-735
-790
-827
-842
-846
-866
-925
-999
-1047
-1073
-1100
-1131
-1159
-1175
-1174
-1168
-1175
-1192
-1199
-1186
-1165
-1156
-1160
-1167
-1174
-1177
-1177
-1168
-1122
-1025
-912
-843
-835
-821
-753
-687
-656
-565
-354
-125
32
160
283
360
441
552
558
463
376
376
981
2391
3147
2092
662
432
744
718
647
712
708
683
707
709
701
714
714
705
707
712
717
726
730
735
749
761
771
787
806
823
842
861
867
866
865
843
779
680
566
454
359
294
251
209
168
136
112
103
111
113
102
92
84
71
59
45
26
19
22
19
8
2
-4
-6
5
21
32
40
42
46
44
24
0
-3
-2
-13
-19
-4
25
49
57
72
76
-34
-282
-544
-738
-894
-1026
-1131
-1219
-1261
-1252
-1260
-1314
-1348
-1332
-1304
-1285
-1245
-1183
-1139
-1081
-944
-854
-919
-1033
-1139
-894
306
1671
1429
-49
-722
-362
-137
-178
-107
-44
-36
26
73
77
115
166
188
202
218
233
251
264
275
300
333
354
371
395
419
440
474
514
544
563
576
561
501
402
287
187
121
82
54
28
8
0
4
6
-6
-21
-22
-18
-20
-29
-38
-46
-49
-45
-38
-36
-39
-46
-55
-61
-61
-65
-75
-78
-76
-79
-80
-76
-85
-99
-94
-81
-80
-84
-86
-87
-80
-74
-81
-88
-88
-82
-70
-56
-51
-47
-35
-21
-3
10
7
-13
-35
-38
-26
-35
-35
7
-11
-122
-252
-358
47
1404
2472
1691
82
-421
-93
-23
-107
-57
-54
-88
-52
-30
-43
-26
9
27
45
69
90
116
158
201
233
265
310
359
380
373
382
443
530
598
622
599
535
436
324
240
196
157
118
109
136
162
166
156
152
161
181
203
217
224
224
218
227
260
288
300
303
296
296
322
313
211
87
31
9
-50
-131
-189
-214
-226
-244
-277
-332
-414
-510
-593
-652
-703
-748
-770
-777
-791
-814
-836
-849
-845
-832
-824
-812
-789
-777
-781
-776
-763
-758
-765
-784
-797
-781
-781
-808
-793
-789
-881
-989
-1078
-867
222
1520
1287
-257
-1077
-790
-560
-590
-471
-333
-317
-296
-264
-248
-201
-145
-127
-112
-54
23
75
114
165
206
247
349
497
619
714
817
907
963
1002
1042
1070
1064
1012
931
832
737
668
622
584
554
536
521
508
495
475
457
449
436
412
397
391
377
357
345
334
317
302
287
268
250
235
218
200
183
165
146
128
112
97
83
68
50
32
20
9
-3
-13
-25
-44
-60
-67
-77
-90
-94
-95
-107
-127
-140
-144
-154
-169
-164
-138
-132
-154
-183
-211
-216
-201
-221
-237
-196
-216
-335
-448
-520
-123
1159
2149
1371
-165
-625
-318
-280
-374
-324
-313
-342
-308
-280
-280
-257
-223
-204
-195
-187
-170
-142
-115
-94
-78
-65
-45
-8
26
42
61
102
140
156
166
176
161
103
18
-72
-152
-213
-257
-292
-324
-349
-358
-348
-330
-317
-307
-304
-312
-315
-300
-283
-274
-260
-240
-228
-220
-200
-179
-173
-172
-163
-155
-158
-162
-156
-139
-129
-130
-132
-126
-117
-110
-106
-105
-104
-100
-99
-104
-100
-89
-87
-89
-83
-79
-77
-63
-47
-45
-48
-63
-87
-84
-76
-100
-86
-50
-113
-244
-385
-334
531
1935
2137
695
-479
-400
-101
-154
-177
-120
-124
-105
-59
-55
-51
-23
0
26
56
75
92
116
142
167
197
230
265
302
341
387
437
480
512
539
553
539
488
402
297
201
127
80
58
50
45
49
58
56
56
53
8
-45
-27
43
96
126
151
169
178
171
153
150
155
144
135
140
130
126
144
97
-32
-101
-57
-3
27
72
118
152
196
243
272
291
307
311
305
285
242
189
166
176
149
71
36
86
158
201
184
115
55
-13
-106
-119
-80
-137
-258
-404
-271
807
2184
1964
290
-673
-475
-326
-437
-391
-323
-336
-329
-370
-469
-517
-537
-579
-608
-622
-651
-686
-709
-725
-733
-738
-746
-739
-694
-632
-588
-555
-514
-475
-450
-429
-405
-394
-423
-489
-559
-631
-718
-787
-806
-792
-776
-760
-740
-720
-701
-681
-682
-712
-690
-532
-299
-115
0
99
189
254
300
343
385
416
433
445
464
482
494
502
504
501
506
520
523
519
525
533
528
518
514
507
497
491
477
450
430
426
414
389
371
362
353
349
352
350
338
318
279
233
218
211
173
164
183
105
-36
-155
-158
512
1902
2434
1211
-133
-249
34
-33
-99
-44
-64
-88
-63
-60
-70
-68
-70
-65
-56
-56
-52
-35
-18
-6
5
26
62
101
138
179
219
244
263
289
311
311
276
198
96
2
-68
-117
-150
-172
-186
-187
-173
-155
-148
-144
-135
-126
-118
-106
-93
-87
-78
-64
-54
-49
-39
-27
-19
-10
5
14
13
9
6
5
-1
-13
-23
-24
-22
-20
-25
-41
-62
-77
-77
-66
-55
-41
-23
-18
-25
-63
-198
-427
-650
-803
-891
-940
-997
-1050
-1022
-925
-822
-734
-685
-694
-732
-745
-683
-599
-644
-753
-754
-738
-812
-906
-839
-104
1261
1741
547
-664
-595
-128
-49
-21
92
126
160
236
273
290
317
328
339
367
390
405
422
433
440
457
485
509
523
546
583
612
638
676
701
692
672
635
541
409
291
200
124
69
33
12
0
-8
-13
-19
-28
-33
-32
-35
-44
-52
-66
-82
-88
-85
-87
-90
-91
-91
-94
-103
-109
-111
-109
-103
-100
-113
-120
-108
-106
-118
-119
-104
-96
-99
-101
-94
-86
-82
-85
-91
-95
-93
-84
-77
-78
-83
-78
-58
-37
-30
-44
-80
-130
-148
-127
-132
-138
-79
-70
-172
-297
-416
-67
1275
2434
1710
35
-523
-172
-93
-204
-156
-129
-145
-107
-86
-83
-42
-5
3
20
55
87
109
128
149
168
184
200
205
199
207
207
152
72
51
135
296
451
515
488
438
398
360
336
350
387
404
382
323
225
101
0
-37
-6
81
190
286
345
308
168
69
110
208
264
280
255
181
90
-1
-95
-183
-264
-343
-406
-438
-455
-479
-511
-538
-552
-549
-531
-520
-526
-537
-537
-523
-510
-520
-543
-550
-546
-523
-437
-314
-257
-301
-345
-302
-211
-165
-183
-234
-301
-354
-394
-464
-502
-437
-426
-573
-750
-871
-522
778
1937
1290
-341
-955
-683
-618
-671
-561
-508
-513
-464
-451
-478
-476
-469
-464
-434
-410
-416
-419
-385
-339
-331
-331
-285
-230
-215
-178
-56
126
328
521
678
785
815
759
674
615
564
501
448
417
392
367
343
326
329
346
358
362
363
358
364
404
461
498
511
520
536
552
554
547
547
548
549
555
558
547
537
534
525
516
515
505
484
472
466
455
447
442
432
422
411
398
391
387
378
373
376
367
350
350
366
370
363
368
394
410
399
376
336
278
249
226
158
120
116
-6
-207
-378
-415
255
1605
1965
551
-826
-910
-687
-844
-963
-992
-1129
-1234
-1262
-1312
-1344
-1313
-1234
-1108
-974
-879
-825
-810
-814
-808
-788
-751
-697
-651
-620
-590
-560
-529
-488
-440
-392
-358
-365
-422
-491
-517
-489
-470
-492
-490
-444
-423
-412
-339
-240
-191
-165
-116
-62
-18
22
53
57
31
10
30
78
117
144
166
180
192
199
180
138
116
136
170
193
208
217
223
235
250
253
254
262
266
265
279
303
302
278
267
270
259
242
236
235
235
243
241
211
162
112
93
106
91
74
112
100
-23
-177
-296
93
1429
2510
1756
131
-407
-74
22
-57
-16
-6
-24
4
-3
-26
-7
1
-23
-33
-26
-12
19
55
68
68
86
121
148
161
190
252
328
386
427
463
490
474
395
280
166
67
-5
-41
-60
-72
-65
-53
-47
-29
-5
-5
-19
-25
-43
-87
-124
-112
-55
-6
8
15
27
19
4
17
44
72
102
107
83
76
100
117
117
119
122
123
125
123
115
95
68
55
63
79
83
68
50
40
-1
-94
-171
-207
-276
-392
-461
-468
-498
-560
-589
-581
-596
-622
-591
-551
-576
-574
-511
-510
-576
-704
-680
225
1742
1954
407
-816
-739
-480
-518
-458
-384
-446
-498
-519
-538
-527
-532
-551
-533
-522
-546
-550
-520
-461
-368
-305
-324
-337
-245
-84
84
273
473
590
569
455
297
104
-97
-253
-326
-358
-412
-420
-302
-147
-49
26
105
165
211
250
273
293
323
352
381
410
376
256
150
126
129
143
205
290
355
410
455
480
506
529
492
411
384
434
491
518
537
553
561
566
570
568
567
571
570
559
551
547
544
535
521
507
498
483
463
432
368
283
202
108
-15
-136
-252
-411
-631
-823
-894
-932
-1024
-1041
-979
-1036
-1182
-1283
-1128
-122
1443
1805
528
-505
-389
-136
-207
-197
-122
-135
-124
-74
-46
-6
30
16
-6
-4
-1
3
27
52
44
3
-32
-18
47
124
182
232
291
334
337
330
330
304
235
136
26
-57
-91
-97
-94
-93
-125
-175
-198
-217
-277
-353
-413
-444
-423
-371
-342
-319
-262
-210
-200
-196
-169
-126
-85
-72
-67
-49
-112
-340
-624
-814
-859
-749
-549
-384
-284
-198
-118
-52
-6
0
-24
-28
5
36
37
30
42
66
80
82
77
63
58
77
102
112
123
147
174
197
206
201
196
192
175
172
191
177
160
192
174
59
-80
-174
257
1584
2575
1772
209
-273
50
131
50
89
103
75
84
95
91
