# session 2
-13
-5
-38
71
296
374
324
335
375
370
383
427
444
444
458
477
479
463
423
349
254
166
101
49
13
-1
-7
-18
-23
-20
-19
-22
-24
-25
-27
-34
-44
-39
-24
-20
-30
-40
-45
-48
-46
-43
-50
-69
-79
-65
-40
-27
-23
-30
-63
-79
-49
-53
-89
-60
-56
-165
-302
-494
-295
1122
2672
2076
30
-783
-302
-107
-229
-160
-119
-173
-151
-131
-155
-145
-127
-121
-92
-53
-32
-11
19
46
68
92
120
147
167
177
176
173
165
132
70
-1
-69
-128
-168
-190
-202
-198
-189
-194
-196
-179
-173
-184
-186
-180
-189
-199
-197
-194
-190
-187
-191
-193
-187
-181
-176
-171
-170
-167
-151
-129
-105
-84
-87
-113
-111
-88
-110
-121
-72
-102
-226
-374
-525
-49
1493
2493
1399
-244
-497
-100
-127
-204
-111
-121
-156
-106
-87
-92
-67
-52
-45
-19
3
11
33
69
97
116
134
152
171
183
185
187
185
172
145
93
25
-24
-50
-76
-97
-98
-87
-83
-72
-51
-58
-56
67
244
265
139
51
36
19
-10
-31
-47
-61
-71
-72
-62
-65
-93
-119
-121
-105
-91
-78
-68
-74
-106
-127
-123
-132
-134
-91
-110
-214
-332
-495
-248
1012
2162
1479
-127
-608
-219
-134
-221
-157
-150
-181
-126
-100
-119
-98
-66
-55
-47
-40
-18
26
57
81
110
113
178
434
679
622
402
305
292
225
127
40
-45
-120
-162
-178
-192
-207
-204
-195
-196
-195
-192
-199
-203
-194
-189
-199
-212
-215
-208
-194
-184
-186
-191
-181
-169
-168
-160
-149
-166
-190
-173
-135
-117
-101
-88
-112
-123
-92
-101
-118
-72
-90
-216
-400
-599
-100
1573
2650
1433
-357
-584
-84
-73
-152
-59
-67
-94
-43
-37
-42
-6
8
14
53
80
83
106
150
178
198
224
243
245
261
292
301
280
253
206
121
25
-51
-103
-132
-151
-170
-181
-175
-163
-156
-154
-153
-147
-138
-134
-129
-126
-130
-132
-126
-127
-131
-124
-120
-125
-126
-118
-117
-125
-132
-123
-95
-62
-36
-37
-70
-80
-63
-89
-98
-46
-77
-200
-363
-550
-34
1631
2652
1442
-257
-473
-72
-119
-201
-126
-156
-185
-137
-131
-146
-131
-118
-98
-75
-74
-74
-53
-23
14
48
57
67
108
130
98
84
114
115
72
33
-7
-56
-97
-160
-233
-234
-190
-191
-199
-168
-149
-161
-149
-74
21
27
-78
-137
-61
40
107
179
221
221
197
87
-23
55
167
76
-41
33
163
168
62
-43
-63
-57
-115
-102
55
96
-57
-196
-294
-21
1082
1980
1239
-189
-556
-211
-158
-214
-120
-113
-188
-203
-211
-220
-193
-166
-145
-112
-93
-88
-60
-25
-24
-29
-10
16
43
79
97
88
78
74
69
63
33
-34
-108
-158
-177
-167
-145
-136
-148
-170
-184
-181
-166
-162
-174
-178
-157
-136
-131
-132
-127
-121
-114
-98
-78
-74
-72
-54
-42
-34
-5
10
-27
-64
-48
-29
-50
-49
-17
-42
-94
-185
-299
204
1596
2278
1024
-533
-674
-185
-94
-116
-41
-51
-67
-24
-17
-29
-14
-3
6
26
39
55
96
137
157
188
249
288
281
272
275
264
244
213
148
63
-13
-88
-154
-174
-154
-141
-151
-159
-150
-129
-116
-109
-88
-65
-77
-104
-102
-94
-106
-105
-98
-110
-114
-106
-115
-121
-111
-115
-117
-88
-68
-71
-55
-38
-67
-101
-92
-91
-113
-76
-45
-121
-211
-318
-272
677
2181
2220
499
-693
-474
-164
-237
-199
-133
-208
-227
-172
-157
-155
-144
-138
-112
-74
-50
-28
3
36
72
110
137
160
196
226
229
218
203
175
121
39
-53
-116
-144
-163
-177
-178
-176
-173
-161
-153
-152
-138
-120
-117
-119
-111
-100
-91
-96
-115
-123
-113
-108
-107
-99
-98
-106
-105
-101
-92
-64
-41
-46
-66
-90
-102
-85
-84
-100
-63
-51
-141
-247
-367
-198
935
2305
2001
299
-593
-306
-92
-164
-128
-103
-144
-111
-75
-99
-106
-82
-62
-49
-36
-15
19
54
79
100
126
167
211
238
254
271
274
248
199
131
57
-2
-51
-102
-134
-138
-142
-153
-158
-156
-157
-158
-157
-161
-163
-151
-133
-130
-132
-122
-114
-113
-104
-94
-101
-102
-79
-69
-100
-126
-111
-85
-66
-43
-46
-83
-89
-74
-107
-106
-38
-90
-245
-371
-423
280
2017
2805
1203
-648
-714
-161
-182
-253
-146
-157
-173
-118
-120
-120
-62
-30
-18
24
60
81
117
156
189
229
274
315
356
387
394
394
387
342
238
99
-30
-126
-189
-225
-245
-258
-259
-252
-256
-263
-255
-233
-213
-203
-202
-194
-173
-164
-177
-187
-181
-173
-169
-174
-176
-167
-169
-184
-180
-163
-156
-144
-114
-109
-150
-172
-142
-141
-159
-120
-133
-262
-434
-596
-91
1655
2961
1814
-269
-764
-247
-170
-270
-184
-187
-223
-168
-144
-144
-107
-91
-91
-59
-24
-6
22
62
99
131
168
214
257
290
318
335
330
298
230
130
29
-49
-106
-149
-170
-164
-155
-159
-162
-154
-144
-133
-120
-120
-125
-113
-99
-100
-95
-83
-84
-86
-84
-85
-71
-43
-45
-66
-67
-70
-77
-45
-4
-4
-2
9
-25
-58
-35
-36
-47
-6
-35
-174
-331
-462
72
1747
2862
1649
-257
-602
-119
-96
-185
-92
-92
-119
-62
-44
-62
-51
-37
-27
-12
5
25
53
84
115
153
195
225
245
263
262
244
239
236
193
112
21
-58
-110
-141
-172
-195
-193
-186
-195
-203
-206
-210
-208
-205
-215
-224
-221
-219
-219
-208
-196
-198
-207
-208
-201
-195
-194
-199
-208
-208
-198
-197
-213
-217
-196
-172
-158
-159
-184
-196
-172
-183
-212
-162
-147
-258
-385
-538
-293
1110
2563
1900
-73
-768
-263
-101
-225
-146
-118
-175
-132
-87
-98
-81
-43
-11
36
79
105
128
153
181
215
246
269
296
327
346
351
350
338
300
227
130
42
-14
-43
-62
-76
-77
-71
-73
-78
-72
-68
-72
-76
-73
-72
-74
-76
-80
-92
-97
-94
-94
-96
-92
-94
-103
-108
-107
-108
-110
-114
-118
-119
-121
-122
-115
-99
-76
-73
-106
-121
-103
-110
-105
-67
-127
-278
-474
-633
67
1909
2812
1318
-459
-562
-97
-144
-203
-103
-121
-141
-86
-75
-75
-40
-13
3
22
46
86
127
156
185
213
238
282
338
359
357
370
384
360
287
182
73
-19
-86
-126
-147
-157
-161
-160
-160
-168
-178
-183
-187
-201
-220
-227
-222
-222
-227
-226
-220
-215
-209
-204
-201
-196
-192
-196
-195
-183
-178
-185
-192
-186
-169
-149
-128
-133
-177
-199
-184
-201
-210
-158
-184
-313
-481
-654
-113
1641
2786
1534
-365
-651
-146
-128
-204
-95
-95
-124
-68
-52
-56
-22
-5
-3
17
39
57
85
114
144
180
216
252
288
313
322
319
297
254
192
106
0
-94
-150
-172
-183
-197
-212
-219
-217
-215
-211
-200
-184
-169
-155
-139
-120
-102
-87
-74
-59
-39
-22
-18
-22
-25
-28
-33
-38
-45
-48
-47
-50
-64
-77
-77
-67
-48
-21
-23
-66
-81
-66
-85
-80
-34
-83
-227
-431
-543
232
1954
2621
1195
-287
-336
-29
-126
-161
-86
-121
-124
-71
-76
-79
-45
-30
-22
9
38
52
68
92
116
142
170
197
216
225
229
230
220
193
147
79
4
-54
-88
-103
-99
-88
-83
-83
-81
-79
-82
-90
-105
-117
-122
-133
-154
-171
-179
-183
-185
-179
-172
-174
-183
-178
-165
-168
-177
-168
-152
-145
-147
-152
-155
-144
-112
-76
-81
-127
-142
-116
-129
-149
-108
-127
-239
-352
-507
-202
1219
2427
1493
-404
-869
-308
-160
-240
-140
-123
-172
-126
-103
-120
-93
-70
-75
-50
-13
8
40
87
125
156
197
238
267
296
326
342
337
316
277
211
111
6
-69
-111
-136
-142
-135
-139
-155
-161
-147
-125
-114
-112
-106
-93
-82
-76
-73
-66
-57
-56
-62
-61
-43
-15
-6
-21
-26
-11
-1
-6
-12
-9
9
43
73
64
25
14
23
-7
-8
42
-9
-183
-429
-564
232
2025
2716
1139
-532
-579
-143
-180
-217
-126
-144
-157
-120
-127
-127
-101
-96
-91
-70
-53
-29
5
36
65
100
132
157
179
197
210
216
206
175
124
53
-34
-114
-167
-194
-210
-221
-220
-217
-219
-210
-195
-191
-189
-180
-178
-176
-168
-170
-176
-167
-162
-177
-188
-183
-185
-199
-201
-189
-182
-183
-188
-195
-198
-188
-171
-146
-110
-92
-111
-123
-100
-103
-117
-71
-69
-180
-345
-543
-222
1279
2680
2016
224
-424
-109
-69
-182
-116
-104
-142
-104
-81
-92
-67
-39
-29
-9
27
65
102
139
171
195
222
255
273
273
290
321
327
318
318
288
198
88
7
-37
-53
-69
-99
-123
-129
-132
-142
-151
-162
-175
-183
-182
-179
-179
-181
-179
-173
-171
-177
-179
-171
-161
-154
-149
-150
-159
-163
-163
-166
-160
-128
-83
-64
-95
-137
-125
-101
-123
-113
-78
-146
-285
-485
-509
518
2298
2549
731
-655
-461
-98
-188
-184
-106
-142
-135
-90
-95
-85
-50
-31
-13
12
41
77
107
130
170
212
240
275
326
361
373
374
366
332
249
127
10
-77
-136
-172
-197
-216
-216
-204
-199
-195
-186
-179
-166
-149
-140
-133
-123
-125
-132
-127
-119
-110
-97
-90
-94
-97
-90
-85
-89
-94
-92
-87
-81
-65
-41
-27
-51
-92
-97
-86
-91
-65
-45
-129
-280
-479
-359
873
2538
2440
564
-626
-403
-112
-165
-146
-140
-213
-190
-125
-119
-133
-152
-156
-124
-97
-68
-7
42
74
121
147
143
155
177
198
221
189
79
-16
-52
-106
-219
-317
-331
-303
-312
-333
-264
-140
-128
-245
-334
-359
-411
-452
-425
-413
-458
-481
-453
-400
-336
-292
-260
-195
-111
-22
91
124
20
14
182
214
60
41
146
117
38
86
136
111
150
224
191
131
87
127
788
1963
2149
852
-242
-144
215
211
162
178
156
138
104
34
14
58
69
20
-25
-48
-82
-75
17
92
98
123
170
154
92
60
64
92
122
97
23
-34
-99
-220
-300
-273
-240
-271
-304
-308
-330
-363
-331
-233
-165
-152
-116
-69
-85
-105
-38
35
5
-47
-9
31
-33
-92
-65
-111
-247
-262
-147
-102
-147
-146
-48
68
93
27
-25
-55
-89
-122
-223
-46
1024
2184
1711
38
-775
-478
-252
-299
-253
-193
-179
-125
-74
-57
-35
-17
-2
27
48
53
70
101
132
146
146
178
260
328
346
348
300
165
38
-10
-70
-210
-342
-397
-426
-472
-506
-498
-463
-441
-436
-424
-420
-427
-390
-326
-292
-257
-193
-157
-141
-82
-22
9
49
77
58
31
41
85
110
73
48
68
26
-46
-6
51
35
74
133
63
-76
-134
289
1502
2468
1829
370
-211
-6
79
37
70
58
3
-48
-140
-212
-223
-231
-231
-183
-119
-87
-94
-111
-70
24
77
66
73
112
121
89
70
59
1
-87
-147
-207
-286
-314
-295
-279
-215
-127
-135
-172
-112
-44
-61
-85
-71
-66
-77
-88
-101
-100
-87
-82
-63
-16
22
43
73
83
52
29
45
57
36
9
7
23
-5
-93
-138
-89
-63
-132
-220
-325
-456
-158
1084
2389
2080
458
-522
-397
-185
-196
-164
-152
-181
-145
-153
-269
-332
-307
-319
-348
-319
-266
-190
-92
-62
-37
91
199
206
240
294
268
242
258
198
71
11
-5
-72
-136
-123
-78
-52
-56
-96
-135
-131
-102
-74
-45
-31
-49
-75
-85
-110
-174
-239
-254
-225
-194
-180
-148
-81
-47
-60
-28
53
98
105
100
94
92
54
14
55
48
-151
-428
-482
279
1900
2737
1572
-35
-360
-55
-36
-21
120
133
75
65
86
120
132
138
173
166
117
105
78
13
33
108
93
46
79
134
135
117
88
0
-117
-193
-278
-398
-423
-318
-247
-249
-224
-199
-223
-238
-238
-254
-230
-157
-126
-127
-97
-77
-102
-109
-78
-72
-114
-169
-198
-198
-198
-213
-236
-269
-287
-258
-221
-223
-251
-290
-306
-291
-337
-415
-384
-361
-568
-904
-789
398
1984
2110
592
-580
-575
-413
-493
-433
-317
-339
-361
-302
-214
-152
-142
-152
-141
-115
-90
-87
-98
-89
-68
-55
-38
-22
-6
47
101
96
59
12
-108
-285
-379
-346
-312
-380
-476
-467
-362
-270
-211
-149
-123
-150
-141
-58
15
30
44
89
111
96
103
150
198
216
190
158
165
176
140
105
121
149
157
200
271
280
288
381
388
227
42
-10
659
2314
3306
2152
376
-74
269
409
483
594
594
570
590
634
715
811
862
815
713
699
758
765
771
859
939
948
953
974
944
857
777
711
604
478
389
315
242
221
223
186
137
96
51
38
45
29
53
143
196
178
163
152
85
26
40
38
33
95
10
-125
69
-174
-1656
-2891
-2378
-1315
-1022
-973
-769
-719
-718
-649
-653
-623
-549
-627
-776
-964
-892
382
2242
2199
149
-1177
-980
-771
-943
-958
-904
-922
-900
-917
-989
-995
-980
-1000
-1000
-982
-967
-947
-925
-879
-809
-793
-817
-795
-767
-788
-785
-756
-818
-960
-1079
-1202
-1361
-1463
-1501
-1565
-1615
-1575
-1494
-1411
-1334
-1325
-1357
-1308
-1222
-1231
-1278
-1254
-1199
-1172
-1140
-1077
-1004
-952
-918
-865
-785
-715
-656
-574
-481
-419
-382
-353
-334
-300
-253
-235
-187
-75
-57
-131
-172
-146
573
2432
3677
2509
588
249
806
944
1000
1250
1340
1360
1528
1699
1811
1942
2057
2162
2313
2436
2529
2723
2935
3007
3063
3229
3385
3479
3591
3709
3807
3922
4017
4018
3956
3881
3782
3701
3685
3697
3726
3802
3872
3908
3975
4062
4128
4211
4285
4323
4393
4360
3982
3316
2385
954
-818
-2362
-3487
-4384
-5117
-5660
-6088
-6490
-6879
-7216
-7551
-7927
-8228
-8519
-8963
-9251
-9368
-9905
-10025
-8077
-4901
-2156
549
2712
2371
658
409
1293
1685
1786
1995
1978
1800
1691
1590
1502
1427
1248
1030
887
703
367
