# session 22
-62
-54
-119
92
496
587
423
387
431
409
396
413
398
370
361
353
328
281
228
192
169
146
130
121
113
109
105
96
90
95
115
141
155
143
125
124
141
159
169
169
162
157
155
150
139
127
120
117
116
113
103
94
90
91
96
105
118
131
140
153
177
202
220
227
214
196
197
161
81
60
49
-78
-252
-408
-219
1006
2559
2353
469
-683
-466
-233
-340
-323
-276
-320
-299
-241
-217
-182
-141
-121
-88
-50
-47
-65
-67
-57
-74
-106
-105
-74
-54
-52
-47
-31
-9
13
24
17
-5
-38
-98
-208
-313
-352
-359
-381
-377
-321
-275
-275
-276
-257
-235
-183
-112
-122
-201
-217
-170
-145
-133
-122
-145
-165
-143
-137
-175
-212
-227
-231
-221
-200
-183
-166
-137
-115
-107
-78
-33
-53
-149
-228
-237
-212
-174
-118
-68
-48
-46
-55
-79
-103
-119
-130
-133
-129
-123
-109
-86
-70
-50
-17
-13
-55
-94
-101
-97
-91
-84
-73
-45
-4
30
54
65
60
42
-4
-31
25
42
-60
-169
-229
172
1613
3009
2423
544
-295
17
183
115
157
119
14
10
12
-18
-6
2
-25
-35
-5
64
137
147
117
124
150
167
198
222
244
329
445
503
537
603
651
656
635
575
483
392
304
211
127
64
15
-32
-70
-91
-115
-148
-167
-182
-216
-247
-262
-286
-322
-347
-356
-368
-386
-393
-401
-423
-385
-231
-88
-92
-174
-228
-247
-229
-184
-182
-232
-255
-241
-250
-287
-315
-327
-319
-281
-251
-254
-257
-249
-236
-201
-175
-195
-193
-146
-144
-186
-189
-183
-212
-220
-192
-183
-219
-267
-291
-302
-326
-347
-356
-378
-399
-396
-370
-357
-431
-566
-685
-662
34
1506
2233
1076
-444
-633
-181
-112
-150
-36
36
95
191
212
200
241
288
324
384
440
469
493
516
532
557
585
603
620
640
655
670
688
697
703
703
664
567
434
292
155
37
-48
-87
-89
-85
-87
-80
-70
-72
-73
-71
-76
-87
-93
-93
-83
-72
-91
-143
-191
-212
-220
-220
-217
-230
-258
-275
-279
-298
-340
-376
-389
-393
-395
-387
-379
-375
-364
-335
-303
-284
-274
-259
-245
-244
-249
-247
-239
-228
-217
-218
-234
-244
-237
-219
-198
-181
-172
-181
-205
-192
-131
-109
-113
-55
-45
-163
-292
-380
29
1518
2872
2126
175
-566
-167
-31
-154
-100
-62
-98
-74
-55
-78
-78
-68
-54
-10
45
86
129
177
220
259
307
365
420
469
522
581
637
684
726
766
788
768
697
593
487
395
312
240
196
179
173
181
189
146
57
-2
-14
-22
-38
-69
-113
-113
-96
-204
-423
-553
-538
-501
-480
-422
-347
-340
-428
-550
-632
-663
-678
-708
-748
-769
-760
-719
-649
-577
-516
-438
-363
-349
-382
-424
-476
-516
-490
-422
-380
-353
-295
-229
-216
-241
-229
-179
-154
-156
-138
-116
-91
-19
63
58
-7
-9
67
141
197
253
255
227
234
182
48
-61
-98
441
1977
3068
2045
197
-336
32
120
81
138
94
75
163
172
142
176
159
66
18
7
-9
35
135
200
240
310
374
382
361
351
351
365
407
431
397
363
374
343
199
26
-78
-130
-173
-197
-200
-198
-189
-176
-184
-193
-162
-131
-156
-193
-170
-118
-99
-105
-107
-118
-148
-173
-183
-190
-192
-192
-196
-180
-136
-116
-139
-144
-111
-99
-118
-132
-140
-155
-138
-55
25
24
-19
-46
-60
-50
-11
8
25
102
175
159
98
55
31
36
72
80
22
-55
-104
-118
-103
-100
-144
-195
-196
-186
-234
-331
-403
-406
-389
-402
-388
-348
-385
-494
-638
-580
346
1855
2095
524
-864
-901
-600
-646
-660
-527
-453
-435
-392
-292
-156
-85
-81
-24
97
199
274
347
400
421
445
495
549
573
580
607
646
668
679
692
690
650
574
465
334
196
71
-28
-88
-116
-139
-164
-175
-175
-181
-192
-195
-191
-193
-200
-198
-185
-180
-189
-198
-196
-192
-189
-179
-163
-156
-157
-157
-159
-176
-198
-210
-208
-200
-193
-186
-166
-141
-123
-108
-86
-64
-48
-40
-43
-61
-80
-85
-84
-89
-90
-82
-77
-69
-44
-9
15
22
33
61
84
88
83
66
57
74
65
43
84
88
-35
-179
-288
58
1490
2929
2335
370
-508
-158
11
-103
-61
-31
-75
-62
-77
-145
-170
-167
-175
-175
-167
-157
-126
-89
-63
-17
81
215
337
419
480
548
608
631
638
671
699
651
520
367
236
120
9
-83
-155
-221
-279
-321
-349
-365
-365
-356
-351
-351
-343
-319
-298
-306
-364
-449
-487
-449
-414
-431
-433
-378
-339
-375
-411
-373
-346
-387
-381
-301
-295
-384
-438
-420
-366
-288
-245
-288
-352
-362
-325
-283
-265
-274
-294
-318
-321
-272
-210
-185
-167
-126
-104
-120
-139
-148
-155
-158
-162
-178
-197
-194
-161
-111
-53
23
91
89
38
12
31
84
134
145
186
247
175
18
-84
37
1006
2710
3211
1651
134
118
461
346
292
397
362
289
274
212
126
89
78
59
38
43
84
110
91
86
140
223
315
407
442
402
376
395
399
392
398
381
338
294
217
85
-36
-113
-176
-229
-250
-262
-282
-269
-224
-216
-234
-211
-178
-181
-173
-128
-105
-133
-169
-181
-190
-199
-141
-16
42
-12
-77
-113
-154
-160
-105
-73
-105
-143
-159
-176
-190
-191
-192
-184
-169
-162
-157
-156
-171
-177
-157
-156
-198
-236
-237
-202
-149
-98
-61
-45
-61
-77
-58
-45
-85
-152
-204
-242
-255
-235
-220
-234
-245
-246
-268
-323
-376
-386
-374
-394
-398
-350
-380
-505
-631
-691
-142
1315
2192
1086
-586
-947
-566
-523
-596
-531
-496
-429
-277
-179
-117
-10
88
142
187
212
220
252
309
354
390
424
445
459
496
561
631
685
722
753
787
808
775
683
570
458
348
249
170
115
80
52
31
30
23
-10
-32
-17
-2
-13
-23
-31
-61
-90
-81
-62
-78
-117
-135
-120
-102
-105
-121
-127
-125
-128
-135
-136
-142
-160
-169
-167
-170
-174
-165
-161
-169
-171
-167
-173
-178
-170
-166
-176
-184
-181
-171
-154
-142
-149
-161
-146
-117
-116
-129
-132
-150
-169
-145
-138
-163
-128
-114
-230
-381
-481
-102
1345
2759
2145
207
-625
-261
-104
-224
-174
-137
-171
-129
-86
-84
-57
-23
-6
26
62
85
106
128
145
167
198
225
251
296
360
429
491
525
525
525
547
537
435
272
146
97
75
41
22
31
34
10
-30
-82
-146
-220
-282
-299
-277
-243
-207
-207
-279
-362
-370
-317
-265
-245
-252
-223
-152
-159
-282
-399
-449
-465
-453
-438
-453
-453
-415
-386
-360
-312
-273
-260
-254
-276
-330
-357
-328
-266
-200
-155
-115
-63
-47
-74
-48
26
51
61
120
143
56
-73
-168
-193
-130
-14
86
122
104
80
39
-1
58
120
0
-216
-386
-170
1066
2583
2353
527
-545
-326
-135
-260
-250
-186
-169
-119
-82
-35
60
112
122
170
219
233
234
210
174
171
174
157
183
259
293
278
293
347
391
407
399
367
332
288
189
50
-62
-116
-133
-129
-111
-85
-70
-81
-117
-159
-175
-146
-107
-110
-147
-176
-188
-200
-209
-211
-217
-224
-208
-171
-152
-158
-156
-139
-131
-121
-86
-60
-69
-91
-101
-107
-104
-93
-98
-107
-85
-57
-53
-36
14
31
-16
-69
-87
-98
-101
-67
-18
-13
-32
-20
-1
-9
-16
-4
1
9
48
86
77
51
56
71
73
64
16
-28
5
10
-91
-184
-187
301
1677
2747
1908
138
-506
-209
-134
-230
-176
-155
-182
-118
-44
-52
-87
-71
-9
47
77
96
105
105
102
96
80
61
49
45
44
51
66
72
70
78
87
72
19
-71
-187
-291
-368
-431
-481
-499
-501
-510
-513
-499
-487
-474
-447
-416
-401
-399
-401
-409
-423
-438
-452
-461
-463
-454
-433
-407
-371
-299
-208
-148
-113
-57
11
53
82
117
151
177
197
205
197
188
186
188
188
191
199
208
215
213
200
175
159
165
176
179
190
213
221
202
158
122
131
135
106
122
141
52
-94
-233
-8
1222
2701
2449
638
-432
-211
4
-114
-117
-69
-80
-35
28
65
121
165
170
180
201
212
224
236
234
227
234
253
277
302
314
306
284
235
168
136
124
78
26
-11
-119
-287
-399
-462
-541
-576
-524
-466
-450
-438
-418
-423
-452
-463
-437
-395
-356
-329
-319
-301
-250
-203
-211
-257
-285
-277
-260
-254
-247
-235
-223
-209
-188
-169
-150
-114
-62
-35
-60
-98
-94
-46
4
17
-19
-82
-122
-116
-104
-132
-171
-163
-129
-129
-148
-128
-89
-73
-69
-48
-22
-4
17
46
77
110
134
108
49
23
11
-13
17
41
-58
-205
-326
-92
1147
2685
2522
751
-346
-166
44
-48
-38
-24
-89
-100
-88
-65
27
104
97
74
74
108
180
217
167
118
134
154
149
170
213
227
220
231
271
313
319
307
319
299
173
40
7
-3
-67
-112
-87
-59
-79
-117
-123
-105
-123
-184
-225
-213
-192
-196
-205
-196
-171
-151
-145
-139
-120
-109
-135
-183
-218
-236
-241
-230
-218
-215
-209
-188
-171
-166
-156
-145
-152
-175
-190
-192
-186
-172
-151
-140
-148
-166
-168
-134
-104
-121
-147
-120
-68
-58
-88
-113
-110
-92
-80
-79
-76
-74
-100
-149
-168
-156
-171
-168
-101
-127
-286
-423
-456
59
1504
2562
1639
-113
-618
-223
-150
-268
-218
-188
-192
-124
-63
-31
27
85
121
154
192
224
240
248
269
295
308
318
330
348
385
418
420
421
443
460
459
448
397
287
165
71
-5
-69
-109
-120
-116
-117
-128
-139
-148
-161
-169
-168
-167
-171
-182
-199
-217
-226
-223
-220
-221
-221
-220
-223
-222
-221
-226
-223
-197
-171
-173
-194
-209
-211
-205
-198
-195
-194
-188
-175
-157
-141
-138
-139
-134
-127
-123
-114
-96
-76
-61
-49
-25
7
21
11
-8
-18
0
15
-1
19
48
-31
-164
-289
-160
909
2487
2551
791
-511
-381
-91
-192
-211
-153
-185
-180
-139
-139
-131
-97
-70
-43
-11
17
40
57
69
88
121
161
195
223
257
299
333
358
388
418
431
424
387
312
206
97
5
-61
-104
-141
-181
-213
-230
-237
-238
-240
-243
-242
-234
-229
-229
-224
-212
-204
-197
-188
-180
-178
-177
-176
-176
-173
-171
-174
-176
-172
-165
-161
-158
-152
-147
-142
-133
-122
-113
-104
-96
-89
-87
-93
-104
-108
-103
-95
-89
-89
-95
-103
-108
-108
-105
-94
-76
-58
-40
-22
-8
7
29
39
27
-2
-32
-34
-18
-38
-39
-1
-58
-209
-343
-332
436
2069
2802
1440
-222
-449
-98
-133
-191
-112
-137
-170
-123
-106
-112
-93
-77
-71
-57
-42
-28
-5
21
45
71
95
111
129
157
189
224
261
290
306
316
327
330
302
231
130
29
-40
-71
-81
-83
-82
-87
-98
-108
-118
-125
-119
-110
-108
-100
-85
-78
-81
-82
-82
-86
-89
-91
-89
-88
-93
-103
-107
-110
-110
-93
-68
-59
-59
-55
-57
-65
-66
-67
-76
-83
-84
-83
-76
-75
-85
-86
-72
-63
-55
-35
-18
-14
-13
-13
-25
-45
-63
-77
-82
-70
-43
-25
-31
-31
-2
16
-15
-70
-101
-93
-85
-98
-82
-63
-155
-313
-453
-395
487
2036
2442
955
-488
-551
-230
-292
-345
-276
-279
-283
-246
-231
-208
-168
-144
-122
-97
-85
-71
-51
-38
-24
4
28
40
58
94
140
187
234
292
359
420
454
445
387
292
190
100
23
-26
-46
-56
-61
-54
-46
-45
-52
-67
-77
-66
-59
-79
-99
-99
-97
-99
-97
-93
-95
-98
-99
-93
-81
-71
-70
-71
-74
-77
-76
-78
-82
-80
-80
-88
-91
-91
-96
-97
-95
-102
-109
-104
-108
-120
-118
-102
-88
-75
-65
-64
-65
-64
-68
-55
-10
30
29
0
-30
-35
-19
-33
-47
-8
-24
-144
-279
-384
41
1510
2724
1893
56
-567
-202
-112
-209
-138
-112
-147
-121
-106
-118
-95
-72
-69
-58
-42
-34
-18
7
30
60
113
163
171
161
184
234
280
322
347
347
338
308
234
136
36
-73
-174
-209
-176
-156
-194
-247
-261
-247
-237
-229
-211
-189
-183
-175
-137
-91
-75
-82
-94
-107
-117
-136
-174
-212
-235
-246
-237
-209
-196
-216
-242
-254
-259
-261
-250
-219
-192
-200
-221
-208
-179
-176
-181
-171
-159
-138
-87
-18
38
58
46
28
13
-4
-23
-38
-42
-19
29
79
122
164
191
181
149
131
132
119
75
10
-46
-56
-50
-74
-54
13
-22
-134
-227
-169
662
2251
2789
1338
-179
-271
53
-40
-96
3
-27
-91
-74
-67
-70
-28
25
57
79
100
123
150
147
103
81
117
157
173
195
215
237
300
351
308
251
263
256
157
58
15
-62
-188
-253
-245
-247
-260
-249
-255
-290
-309
-321
-339
-330
-300
-305
-346
-352
-274
-175
-150
-185
-203
-190
-179
-174
-150
-112
-105
-113
-86
-75
-104
-69
14
-2
-77
-59
28
69
53
14
-6
53
142
131
55
44
59
14
-22
-6
-20
-93
-160
-206
-260
-303
-300
-251
-197
-188
-212
-217
-215
-244
-258
-204
-131
-106
-129
-180
-220
-190
-92
-31
-48
-51
-48
-133
-242
-321
-158
882
2433
2627
1057
-231
-199
68
-53
-153
-115
-87
-49
-5
-1
0
28
57
58
43
40
39
22
7
17
40
57
63
80
117
143
147
163
181
187
219
274
288
248
176
74
-34
-104
-145
-177
-197
-206
-207
-200
-188
-176
-155
-135
-140
-153
-141
-121
-121
-130
-132
-137
-146
-152
-155
-150
-131
-111
-97
-82
-64
-51
-39
-22
-4
13
23
25
31
45
54
57
65
69
63
59
61
53
34
21
24
30
32
31
36
48
55
50
43
43
43
36
