# session 3
-14
-18
-11
79
103
-92
-297
-339
-352
-395
-386
-358
-352
-325
-293
-298
-308
-305
-319
-308
-232
-184
-210
-197
-128
-119
-156
-150
-109
-71
-61
-96
-119
-100
-99
-97
-55
-60
-87
-9
26
-139
-314
-405
-218
862
2257
2025
193
-930
-678
-365
-391
-314
-212
-229
-234
-221
-210
-157
-89
-52
-45
-35
29
126
178
195
245
329
395
415
408
413
431
430
409
369
259
79
-77
-159
-214
-268
-298
-303
-296
-257
-175
-117
-160
-212
-148
-59
-62
-93
-99
-106
-78
-24
-55
-147
-125
30
149
136
47
-4
55
112
7
-136
-98
-55
-221
-418
-559
-409
794
2443
2300
325
-910
-629
-272
-295
-232
-151
-160
-121
-83
-110
-129
-126
-125
-110
-79
-35
11
40
79
146
161
113
158
328
432
420
421
423
337
211
97
-26
-133
-188
-255
-357
-373
-267
-199
-241
-289
-305
-331
-345
-326
-295
-267
-242
-220
-185
-113
-12
57
43
-22
-54
-21
11
-21
-78
-111
-91
51
231
193
-33
-215
-207
497
2051
2858
1643
-30
-382
-84
-111
-192
-156
-205
-240
-182
-133
-93
-56
-70
-95
-94
-117
-164
-184
-170
-139
-103
-53
29
87
50
-22
-37
-50
-150
-272
-312
-315
-366
-398
-308
-180
-151
-186
-198
-186
-149
-92
-75
-102
-104
-77
-68
-84
-100
-102
-98
-116
-162
-209
-251
-282
-281
-282
-335
-367
-337
-346
-361
-285
-242
-307
-474
-619
113
2029
3082
1738
-80
-402
-46
0
-25
-50
-124
-26
164
242
284
332
316
303
350
364
328
332
339
296
291
356
396
407
430
437
432
420
333
152
-59
-242
-358
-401
-392
-326
-255
-287
-361
-341
-281
-279
-292
-306
-350
-371
-345
-330
-305
-247
-241
-291
-272
-193
-153
-105
-20
-20
-103
-142
-146
-140
-124
-209
-396
-578
-549
357
1995
2349
630
-872
-749
-332
-411
-397
-252
-252
-232
-132
-76
-40
2
44
113
176
190
202
246
271
280
341
435
460
437
476
548
543
477
420
337
189
45
-41
-103
-154
-167
-170
-202
-237
-242
-237
-261
-293
-285
-265
-301
-367
-381
-360
-358
-352
-311
-287
-314
-333
-277
-202
-206
-239
-205
-164
-157
-133
-163
-254
-371
-500
110
1959
3131
1786
-236
-621
-191
-177
-201
-69
-77
-113
-85
-113
-160
-190
-241
-268
-251
-239
-229
-191
-133
-70
-17
17
61
122
190
291
369
308
214
238
232
118
81
72
-92
-242
-239
-235
-217
-76
46
60
93
154
154
140
157
147
121
120
103
70
76
83
46
14
-1
-68
-171
-208
-198
-216
-185
-133
-237
-395
-485
-396
567
2250
2515
632
-919
-712
-198
-259
-297
-188
-203
-232
-202
-202
-182
-109
-60
-50
-30
12
42
46
62
111
151
169
194
232
266
289
295
282
236
145
23
-101
-191
-234
-257
-282
-289
-272
-236
-206
-209
-169
-16
79
-22
-148
-168
-166
-183
-200
-220
-205
-148
-139
-177
-168
-144
-178
-202
-182
-207
-230
-199
-264
-421
-565
-555
336
2106
2611
790
-969
-922
-396
-418
-444
-330
-331
-321
-250
-205
-140
-80
-63
-10
47
46
76
129
120
146
263
334
334
351
383
417
469
493
462
401
317
219
129
39
-33
-33
17
31
0
-33
-71
-133
-180
-175
-153
-162
-183
-187
-189
-204
-219
-219
-201
-169
-138
-111
-73
-52
-65
-66
-52
-36
47
102
-55
-286
-398
-225
773
2297
2538
1016
-280
-282
-5
-51
-84
-56
-77
-72
-42
-34
-27
-22
-33
-53
-88
-130
-140
-113
-80
-57
-33
-4
22
27
3
-18
-9
-16
-85
-169
-220
-274
-349
-389
-369
-346
-343
-325
-307
-321
-306
-220
-152
-154
-156
-126
-112
-129
-146
-155
-175
-195
-184
-149
-112
-71
-57
-97
-120
-92
-87
-64
16
-38
-255
-479
-589
103
1947
3055
1763
-123
-454
-57
-91
-175
-91
-109
-150
-121
-111
-108
-95
-88
-46
10
25
32
67
102
125
158
195
226
256
304
361
390
368
305
203
70
-66
-175
-238
-260
-266
-265
-248
-227
-218
-219
-220
-207
-175
-151
-140
-113
-88
-110
-141
-126
-103
-93
-42
31
44
-5
-55
-72
-105
-168
-172
-165
-291
-465
-611
-471
706
2386
2337
406
-820
-516
-207
-342
-322
-217
-213
-168
-122
-152
-151
-105
-75
-43
-1
28
64
111
137
145
174
216
233
222
225
252
265
251
231
188
103
14
-37
-63
-72
-73
-89
-102
-86
-73
-88
-101
-110
-123
-118
-95
-96
-110
-96
-61
-44
-46
-48
-53
-73
-90
-77
-77
-114
-128
-134
-179
-173
-139
-218
-338
-477
-436
661
2481
2669
738
-709
-553
-250
-362
-328
-224
-252
-234
-185
-213
-217
-153
-114
-127
-131
-127
-167
-181
-84
7
-11
-21
48
96
98
120
146
146
147
126
50
-31
-78
-113
-146
-160
-152
-129
-105
-97
-94
-82
-85
-98
-91
-78
-85
-93
-85
-75
-73
-69
-48
-27
-36
-49
-49
-71
-83
-62
-75
-83
-38
-95
-266
-446
-560
97
1865
2855
1505
-323
-590
-185
-194
-210
-94
-128
-154
-78
-57
-70
-40
-10
1
-9
-47
-50
21
79
86
109
169
239
313
362
366
355
334
285
202
85
-42
-145
-216
-265
-290
-299
-300
-301
-308
-309
-274
-219
-187
-181
-167
-137
-110
-100
-103
-103
-90
-74
-62
-59
-73
-82
-77
-94
-126
-141
-165
-165
-127
-176
-297
-423
-481
257
2021
2849
1362
-420
-583
-156
-206
-282
-198
-209
-214
-153
-140
-132
-88
-70
-64
-16
39
60
71
94
114
141
184
207
204
218
248
261
246
203
130
45
-49
-155
-226
-220
-194
-207
-231
-230
-218
-206
-192
-195
-212
-220
-215
-208
-196
-179
-169
-173
-192
-198
-172
-158
-177
-176
-171
-224
-251
-194
-169
-167
-108
-124
-259
-420
-525
106
1823
2793
1448
-401
-674
-224
-212
-261
-167
-201
-246
-198
-198
-198
-114
-59
-75
-61
1
54
107
173
205
204
196
194
235
279
229
179
246
309
277
238
207
138
76
51
30
6
3
22
48
65
73
89
105
85
35
0
-15
-31
-46
-60
-81
-98
-115
-140
-146
-150
-193
-216
-182
-194
-241
-210
-214
-346
-473
-565
-255
1061
2355
1755
-20
-733
-394
-280
-383
-296
-213
-223
-204
-170
-148
-121
-104
-83
-50
-31
-30
-28
-6
52
117
154
179
214
252
281
289
279
256
205
127
51
-15
-63
-57
-34
-77
-143
-147
-137
-168
-191
-182
-170
-149
-128
-139
-143
-119
-119
-137
-127
-107
-104
-98
-84
-84
-103
-119
-124
-146
-165
-152
-196
-313
-406
-450
-11
1365
2398
1371
-558
-1071
-486
-257
-318
-234
-218
-280
-230
-162
-165
-159
-118
-86
-90
-114
-105
-50
9
46
74
114
158
185
205
236
267
277
266
216
115
-6
-102
-155
-168
-168
-180
-196
-194
-177
-153
-122
-98
-89
-87
-81
-58
-36
-50
-67
-40
-8
-6
-15
-48
-90
-76
-44
-55
-10
55
-11
79
588
990
751
191
173
1318
2702
2349
476
-597
-353
-125
-213
-194
-184
-244
-214
-183
-216
-214
-191
-197
-192
-164
-135
-93
-54
-57
-68
-40
-5
-6
-24
-26
-19
-21
-25
-26
-48
-101
-149
-173
-200
-226
-228
-217
-212
-201
-190
-197
-213
-221
-219
-232
-266
-286
-278
-284
-310
-311
-282
-235
-179
-155
-169
-169
-136
-86
-47
-76
-108
-60
-74
-201
-323
-442
-54
1465
2791
1997
119
-537
-178
-82
-171
-103
-71
-74
-16
3
-1
44
73
61
74
104
98
78
90
115
121
131
164
185
174
153
119
64
5
-56
-129
-191
-229
-259
-275
-281
-299
-316
-300
-267
-257
-268
-270
-253
-240
-237
-226
-216
-219
-215
-191
-172
-174
-173
-140
-111
-132
-146
-108
-100
-96
1
35
-123
-340
-445
140
1810
2995
1908
-64
-603
-170
-79
-150
-90
-111
-123
-56
-46
-7
81
46
-26
54
168
174
156
183
219
258
300
323
342
374
395
410
450
480
428
301
155
25
-69
-122
-170
-228
-254
-242
-240
-250
-250
-235
-199
-178
-209
-236
-217
-215
-251
-282
-310
-341
-361
-377
-371
-320
-251
-196
-186
-216
-180
-124
-207
-371
-547
-425
764
2406
2301
419
-743
-494
-223
-280
-243
-233
-271
-209
-216
-340
-396
-379
-367
-340
-301
-269
-218
-151
-104
-59
16
93
137
167
207
229
221
213
199
154
107
92
67
11
-26
-23
-17
-23
-22
-17
-9
12
36
52
75
101
104
98
107
103
58
10
6
20
0
-39
-57
-79
-114
-119
-116
-107
-62
-101
-238
-345
-472
-140
1413
2871
2045
-20
-728
-293
-182
-289
-217
-206
-247
-208
-189
-179
-117
-72
-59
-33
-6
14
41
67
95
146
203
216
200
211
243
245
222
189
129
45
-40
-114
-154
-166
-191
-204
-170
-139
-146
-156
-147
-128
-110
-109
-110
-104
-126
-171
-186
-166
-145
-129
-119
-126
-156
-188
-168
-129
-168
-216
-189
-223
-366
-517
-528
219
1826
2463
931
-788
-856
-308
-249
-247
-106
-103
-141
-108
-96
-100
-87
-89
-90
-46
53
163
196
134
91
160
267
282
223
188
180
156
145
161
145
66
-29
-91
-118
-133
-155
-171
-159
-155
-196
-223
-190
-162
-173
-163
-122
-110
-127
-132
-130
-125
-102
-92
-94
-40
17
-43
-123
-81
-19
-58
-101
-47
-1
-84
-231
-383
-345
500
1961
2317
936
-354
-387
-103
-131
-97
14
-12
-60
-79
-134
-156
-120
-110
-137
-154
-144
-105
-64
-40
1
37
17
14
76
91
31
6
20
7
6
44
62
43
28
35
49
61
87
140
185
189
169
147
126
123
138
136
109
80
45
-5
-54
-106
-163
-198
-202
-210
-248
-282
-265
-227
-227
-216
-181
-238
-376
-544
-617
120
1796
2541
1159
-483
-681
-321
-331
-363
-285
-313
-346
-299
-268
-274
-276
-262
-237
-213
-181
-126
-64
-13
33
96
164
201
207
220
241
222
152
79
11
-79
-161
-187
-179
-184
-192
-171
-123
-99
-130
-150
-108
-77
-106
-124
-94
-66
-56
-47
-43
-45
-34
-13
7
11
-14
-35
-8
21
17
50
71
-39
-227
-416
-239
997
2552
2333
452
-655
-375
-92
-167
-134
-76
-96
-52
-1
-17
1
76
104
78
87
125
109
72
93
135
154
192
249
266
244
225
210
177
124
57
-6
-53
-97
-146
-176
-176
-174
-179
-179
-185
-205
-207
-198
-216
-253
-271
-264
-240
-211
-189
-178
-180
-188
-194
-192
-171
-156
-194
-245
-234
-217
-245
-227
-195
-278
-408
-555
-503
532
2238
2536
920
-419
-407
-177
-256
-222
-122
-154
-194
-188
-203
-225
-217
-188
-183
-206
-198
-140
-80
-39
-3
36
81
124
155
174
174
149
125
115
80
15
-25
-33
-49
-70
-57
-30
-36
-64
-83
-79
-46
-26
-66
-100
-59
-18
-43
-65
-41
-23
-42
-61
-56
-39
-36
-39
-31
-36
-60
-74
-99
-119
-65
-49
-164
-290
-433
-242
1093
2677
2228
174
-794
-347
-69
-179
-137
-70
-97
-89
-69
-61
-35
-33
-39
10
65
73
76
111
133
126
147
224
281
280
282
307
300
252
191
106
-3
-92
-147
-174
-175
-184
-218
-227
-185
-150
-150
-146
-132
-135
-145
-135
-113
-85
-66
-87
-131
-140
-124
-117
-105
-110
-168
-209
-193
-207
-237
-210
-251
-417
-578
-577
109
1639
2396
1073
-666
-892
-356
-250
-292
-168
-128
-195
-205
-154
-109
-87
-78
-70
-54
-28
2
38
84
115
136
180
216
202
185
208
219
198
183
162
115
69
15
-57
-106
-130
-157
-165
-165
-195
-215
-193
-172
-171
-157
-130
-110
-98
-86
-77
-79
-84
-76
-49
-16
-10
-32
-30
6
19
12
14
21
42
20
-82
-195
-323
-154
934
2223
1939
361
-495
-304
-147
-188
-133
-112
-147
-135
-143
-161
-128
-117
-137
-114
-85
-84
-53
-11
-12
10
92
142
126
108
106
91
76
93
104
37
-62
-95
-96
-143
-189
-184
-176
-174
-137
-94
-82
-70
-45
-35
-38
-55
-92
-99
-61
-47
-81
-97
-73
-75
-117
-126
-98
-99
-96
-50
-57
-87
-16
-5
-184
-397
-513
-19
1555
2774
1812
-104
-685
-287
-174
-214
-147
-185
-229
-169
-163
-201
-183
-154
-134
-89
-40
-15
15
63
96
99
111
143
143
117
129
158
135
75
13
-54
-116
-158
-184
-188
-182
-208
-236
-205
-163
-172
-166
-98
-56
-70
-52
-8
-28
-82
-96
-98
-119
-128
-125
-111
-52
9
-2
-31
-37
-66
-67
-36
-123
-322
-527
-424
681
2302
2367
624
-590
-411
-174
-285
-200
-72
-135
-144
-65
-80
-121
-69
-8
-4
9
58
100
128
158
189
221
240
235
231
240
225
187
171
166
123
54
-3
-45
-88
-124
-145
-165
-189
-189
-166
-166
-209
-254
-268
-263
-255
-234
-217
-250
-304
-299
-260
-252
-234
-180
-160
-178
-179
-176
-170
-152
-151
-129
-80
-124
-263
-433
-463
322
1875
2356
917
-478
-463
-113
-183
-191
-58
-69
-116
-78
-44
-55
-71
-57
-2
56
84
95
132
191
221
229
260
281
274
288
306
278
258
267
231
151
82
5
-90
-133
-124
-136
-172
-185
-171
-165
-162
-139
-122
-143
-176
-191
-209
-239
-258
-248
-210
-173
-175
-195
-187
-168
-172
-162
-118
-120
-148
-112
-110
-211
-323
-508
-361
1014
2679
2292
276
-733
-415
-214
-288
-204
-145
-186
-179
-154
-123
-64
-43
-48
-19
8
15
49
98
113
116
144
164
156
151
166
185
193
187
158
97
27
-25
-78
-130
-119
-70
-80
-137
-152
-121
-91
-59
-22
2
17
16
-19
-64
-74
-62
-55
-44
-37
-59
-89
-90
-90
-106
-104
-117
-196
-229
-158
-177
-318
-420
-501
-138
1266
2476
1617
-273
-866
-428
-335
-447
-344
-304
-359
-321
-280
-290
-261
-210
-188
-168
-136
-103
-65
-25
0
26
71
