# session 6
-46
-57
-37
-5
-50
-154
-189
-150
-135
-147
-144
-136
-145
-146
-107
-50
-21
-9
-10
-40
-47
-29
-53
-25
92
73
-86
-236
-264
521
2293
3115
1657
-141
-357
136
144
-79
-116
-54
-16
-13
-31
-46
-33
-9
-14
-12
53
133
169
193
222
236
260
286
263
205
148
76
-24
-127
-201
-222
-220
-234
-235
-205
-182
-179
-169
-159
-153
-136
-126
-143
-160
-141
-107
-100
-118
-128
-127
-117
-100
-96
-100
-91
-93
-106
-81
-70
-125
-130
-101
-203
-372
-534
-410
824
2621
2560
427
-963
-636
-236
-316
-280
-206
-255
-222
-150
-159
-152
-99
-74
-66
-39
-8
19
81
167
211
221
258
306
345
386
347
182
40
5
-60
-211
-298
-272
-245
-246
-234
-228
-224
-190
-175
-203
-201
-162
-154
-178
-182
-164
-160
-174
-173
-159
-171
-186
-168
-165
-189
-169
-125
-133
-155
-148
-148
-127
-103
-165
-252
-331
-163
943
2436
2253
366
-767
-428
-83
-176
-178
-116
-126
-104
-87
-110
-113
-99
-95
-85
-58
-10
26
33
69
158
227
245
262
292
300
285
252
178
70
-20
-75
-126
-175
-205
-205
-177
-156
-166
-155
-102
-83
-97
-63
-21
-60
-122
-131
-125
-114
-61
-19
-47
-84
-75
-66
-81
-82
-53
-19
-24
-48
-14
1
-84
-167
-242
-54
1027
2319
1976
267
-610
-291
-84
-206
-176
-108
-148
-155
-121
-116
-110
-88
-61
-11
51
96
127
148
155
167
196
221
225
217
203
179
131
48
-48
-124
-175
-213
-243
-266
-279
-273
-254
-243
-260
-279
-237
-136
-85
-133
-172
-166
-207
-288
-309
-272
-219
-171
-156
-164
-156
-144
-135
-110
-96
-74
-24
-61
-232
-434
-401
490
2087
2564
1089
-383
-435
-98
-149
-137
-13
-55
-90
-6
-14
-140
-161
-49
23
29
55
79
79
115
196
264
290
281
257
232
191
112
-13
-155
-238
-248
-259
-295
-296
-263
-245
-245
-254
-266
-261
-240
-219
-204
-213
-222
-164
-81
-81
-125
-120
-87
-79
-82
-102
-155
-193
-181
-186
-204
-145
-99
-205
-407
-589
-208
1336
2791
2104
116
-694
-328
-185
-264
-158
-108
-152
-109
-65
-80
-48
28
58
62
103
163
189
192
224
288
348
385
400
396
388
384
357
288
205
130
63
20
7
-17
-63
-93
-96
-88
-78
-98
-161
-222
-258
-288
-319
-325
-307
-306
-351
-389
-373
-360
-384
-360
-286
-287
-339
-317
-246
-158
-66
-103
-259
-419
-467
247
1896
2646
1236
-440
-611
-238
-290
-335
-235
-264
-315
-289
-276
-254
-214
-222
-236
-181
-83
19
115
189
242
301
359
396
432
446
391
326
314
267
122
3
-9
7
4
-2
-24
-37
9
52
31
4
4
-13
-35
-37
-55
-95
-110
-106
-122
-140
-144
-160
-183
-194
-214
-232
-233
-262
-252
-141
-119
-249
-369
-479
-103
1433
2769
1817
-274
-938
-447
-267
-325
-258
-245
-242
-179
-176
-189
-154
-132
-112
-73
-59
-48
4
72
122
162
208
254
284
288
263
204
106
-20
-137
-209
-242
-262
-266
-248
-229
-218
-218
-205
-142
-80
-84
-82
-24
-31
-101
-72
8
-28
-94
-54
10
17
12
10
-9
-3
21
-8
-17
61
54
-93
-236
-329
122
1575
2610
1539
-318
-774
-295
-165
-228
-173
-194
-226
-181
-185
-203
-143
-112
-165
-195
-145
-72
-34
-24
-2
43
78
107
178
265
291
274
275
262
185
88
27
-3
-21
-27
-43
-74
-92
-95
-112
-136
-150
-159
-154
-128
-117
-115
-85
-63
-89
-93
-55
-50
-63
-41
-72
-167
-170
-110
-151
-196
-161
-246
-480
-649
-418
716
2213
2233
579
-629
-535
-279
-308
-257
-219
-282
-246
-158
-135
-107
-74
-92
-103
-77
-63
-38
49
136
166
198
256
274
266
287
267
147
28
-15
-60
-162
-261
-288
-249
-204
-209
-254
-267
-207
-137
-117
-117
-111
-115
-120
-104
-91
-100
-101
-77
-61
-75
-75
-56
-90
-143
-140
-140
-144
-100
-121
-267
-457
-467
421
2209
2916
1404
-290
-434
-43
-67
-86
17
-18
-74
-65
-55
11
70
4
-43
44
100
64
72
127
145
154
188
223
255
281
268
221
161
75
-47
-166
-236
-254
-240
-217
-209
-237
-277
-262
-204
-178
-197
-222
-233
-220
-214
-253
-289
-278
-249
-211
-178
-174
-154
-101
-67
-28
19
-6
-64
-111
-195
-270
-318
-198
649
1922
1973
528
-547
-463
-261
-372
-392
-349
-393
-379
-309
-333
-393
-364
-277
-199
-120
-42
9
67
152
225
268
291
313
354
388
384
366
329
242
139
74
54
51
21
-26
-26
11
20
18
45
75
94
124
147
137
112
83
37
-1
-6
-16
-66
-117
-134
-149
-183
-188
-173
-176
-149
-141
-254
-383
-542
-611
349
2243
2681
795
-871
-829
-429
-463
-439
-331
-342
-346
-306
-275
-237
-223
-234
-212
-162
-117
-81
-52
-13
48
112
163
206
221
212
222
228
160
41
-47
-82
-87
-59
-14
2
-9
1
12
10
46
81
27
-15
52
97
43
8
16
0
-13
10
20
6
-9
-27
-38
-61
-110
-107
-71
-140
-297
-464
-339
743
2266
2194
334
-924
-668
-266
-273
-228
-179
-242
-239
-214
-269
-294
-231
-166
-151
-130
-75
-59
-76
-19
84
138
187
261
274
213
176
179
140
64
20
-8
-58
-91
-101
-134
-167
-168
-176
-200
-206
-206
-205
-169
-111
-94
-113
-117
-110
-108
-81
-32
-10
-25
-18
12
-5
-62
-105
-135
-102
-13
-53
-217
-358
-412
206
1797
2697
1470
-254
-574
-207
-173
-184
-97
-126
-136
-66
-60
-75
-37
-19
-23
25
92
114
124
172
215
218
235
281
278
226
180
117
32
-37
-158
-282
-172
55
9
-207
-241
-191
-248
-294
-262
-256
-269
-247
-236
-256
-270
-275
-269
-246
-234
-232
-231
-265
-315
-325
-324
-315
-263
-226
-219
-189
-203
-319
-493
-451
545
2318
2824
1199
-409
-514
-165
-123
-65
-59
-211
-206
-53
-14
-57
-61
-14
83
162
133
73
85
112
115
157
226
267
303
332
296
219
148
61
-38
-88
-92
-104
-134
-156
-145
-108
-84
-93
-117
-138
-143
-145
-167
-180
-161
-147
-154
-161
-157
-129
-85
-61
-58
-42
-29
-51
-61
-9
-2
-116
-250
-362
-163
932
2234
1946
266
-703
-505
-306
-352
-292
-255
-287
-238
-186
-196
-187
-154
-128
-93
-39
42
110
101
60
52
69
112
164
165
159
185
157
68
22
21
6
-33
-85
-122
-113
-95
-98
-82
-21
49
89
98
95
97
96
61
-3
-34
-31
-64
-124
-135
-94
-62
-81
-120
-119
-101
-101
-89
-134
-261
-357
-516
-448
830
2641
2477
361
-908
-624
-343
-418
-354
-290
-317
-282
-255
-268
-230
-171
-127
-107
-124
-125
-76
-42
-23
56
155
186
185
212
228
187
109
28
-33
-67
-99
-129
-134
-135
-124
-69
-46
-89
-60
28
-7
-112
-95
-9
0
-44
-74
-91
-96
-83
-76
-89
-105
-121
-138
-138
-143
-176
-180
-168
-232
-348
-465
-237
964
2378
2016
110
-896
-474
-110
-172
-128
-63
-119
-109
-51
-76
-121
-105
-75
-86
-98
-66
-4
64
132
197
252
280
279
279
288
276
241
212
187
141
85
42
17
20
23
-16
-36
-4
-16
-41
14
-38
-272
-370
-366
-667
-1051
-983
-621
-382
-255
-149
-113
-98
-53
-30
3
102
177
196
221
188
67
-81
-123
495
1868
2480
1330
-55
-254
25
49
74
130
77
79
146
144
131
164
186
182
167
165
198
240
262
285
318
358
401
396
347
322
271
184
162
83
-149
-266
-317
-721
-1352
-1881
-2296
-2298
-1686
-1061
-831
-676
-463
-345
-272
-183
-142
-130
-107
-70
2
59
22
-38
-36
-24
-16
25
45
58
110
88
-58
-257
-314
509
2287
3016
1456
-335
-517
-94
-91
-129
-55
-62
-63
-56
-92
-75
-15
1
-2
13
43
90
145
201
267
323
338
317
288
265
211
95
-24
-89
-116
-126
-119
-108
-97
-91
-91
-76
-64
-87
-95
-69
-79
-100
-68
-44
-57
-47
-43
-73
-71
-41
-50
-90
-110
-88
-59
-91
-120
-81
-86
-175
-314
-391
299
1919
2609
1156
-501
-617
-187
-192
-230
-152
-142
-97
-60
-136
-158
-77
-22
21
75
75
71
135
198
208
207
214
231
250
234
202
209
208
128
19
-40
-51
-41
-11
24
34
34
49
40
-26
-111
-191
-273
-352
-428
-500
-544
-555
-544
-490
-416
-390
-392
-346
-299
-323
-341
-299
-296
-336
-316
-302
-377
-520
-675
-228
1366
2678
1858
37
-545
-181
-109
-182
-87
-68
-109
-70
-33
-28
-17
-22
-26
11
62
96
114
124
139
169
227
303
346
339
330
313
247
166
112
48
-39
-98
-114
-128
-148
-156
-150
-133
-111
-105
-120
-122
-106
-114
-143
-134
-94
-99
-136
-129
-103
-103
-100
-103
-134
-118
-82
-115
-142
-154
-255
-388
-457
-83
1262
2538
1802
-210
-976
-431
-141
-202
-113
-79
-145
-102
-57
-81
-64
-38
-49
-35
-2
4
19
58
87
108
139
163
167
158
143
134
122
70
-7
-57
-87
-120
-134
-129
-147
-185
-195
-181
-172
-153
-127
-122
-107
-64
-60
-100
-93
-51
-47
-47
-25
-42
-79
-72
-68
-102
-122
-116
-86
-42
-69
-184
-342
-402
229
1696
2460
1337
-206
-492
-134
-96
-156
-80
-51
-83
-103
-119
-113
-95
-93
-74
-32
-20
-33
-17
32
75
105
130
136
123
107
88
33
-62
-142
-172
-188
-206
-195
-152
-121
-109
-88
-64
-53
-40
-7
17
11
-11
-42
-71
-63
-11
32
30
4
-10
-3
12
10
-24
-50
-33
-24
-40
-46
-110
-235
-394
-582
-95
1668
3016
1949
-96
-697
-322
-294
-405
-305
-222
-259
-380
-459
-352
-256
-358
-417
-297
-207
-191
-118
-25
35
113
194
241
278
304
287
244
172
31
-130
-221
-251
-273
-276
-258
-255
-250
-217
-198
-205
-185
-151
-152
-160
-152
-158
-166
-154
-154
-166
-144
-101
-88
-126
-170
-142
-75
-67
-66
-21
-77
-275
-522
-512
546
2417
2853
1008
-683
-644
-166
-171
-169
-45
-46
-80
-59
-48
-43
3
68
94
107
172
235
244
263
305
326
356
371
303
225
224
211
112
13
-30
-67
-121
-155
-155
-147
-151
-157
-143
-106
-78
-72
-66
-37
-15
-35
-75
-75
-43
-39
-66
-83
-88
-100
-103
-105
-137
-164
-154
-163
-197
-195
-223
-335
-504
-706
-362
1148
2509
1782
-60
-715
-358
-269
-347
-240
-193
-220
-171
-137
-145
-120
-82
-62
-33
2
20
24
35
79
154
197
177
143
155
196
197
128
39
-15
-45
-77
-100
-114
-137
-143
-128
-143
-160
-114
-66
-99
-145
-126
-86
-84
-96
-70
-32
-62
-123
-125
-104
-134
-188
-206
-169
-129
-125
-73
9
-47
-212
-387
-319
691
2255
2310
496
-806
-583
-224
-309
-295
-198
-218
-208
-159
-143
-109
-81
-88
-57
-8
-17
-18
51
105
104
119
155
168
178
196
184
134
65
-21
-102
-161
-215
-253
-239
-196
-183
-197
-199
-178
-143
-126
-124
-94
-65
-91
-115
-83
-57
-59
-41
1
37
68
105
120
89
50
30
9
18
36
-37
-177
-334
-180
1008
2639
2587
729
-525
-344
-78
-186
-174
-100
-139
-144
-101
-106
-121
-108
-95
-89
-73
-57
-53
-31
21
72
113
142
137
119
120
103
32
-69
-147
-164
-159
-192
-235
-250
-259
-259
-225
-179
-155
-146
-129
-102
-89
-93
-91
-89
-99
-103
-97
-102
-114
-118
-113
-120
-151
-172
-165
-185
-190
-129
-151
-293
-456
-585
-28
1681
2823
1653
-210
-575
-153
-174
-313
-257
-219
-189
-150
-177
-211
-233
-256
-207
-124
-109
-113
-66
4
81
155
167
130
120
139
145
150
142
77
-16
-58
-37
-12
-37
-103
-149
-141
-112
-102
-113
-130
-145
-156
-144
-118
-138
-210
-248
-214
-168
-130
-61
7
-17
-109
-154
-126
-124
-152
-83
-2
-84
-244
-435
-361
897
2788
2796
690
-698
-424
-102
-201
-134
-45
-111
-112
-71
-73
-37
3
-6
-6
12
21
56
129
201
257
304
334
348
369
380
318
214
163
118
7
-89
-121
-175
-236
-232
-218
-239
-237
-196
-160
-140
-138
-147
-145
-139
-142
-133
-128
-150
-156
-135
-147
-182
-191
-210
-241
-229
-227
-254
-214
-192
-299
-427
-546
-254
1182
2690
2041
-68
-936
-450
-208
-303
-224
-173
-225
-207
-172
-152
-95
-54
-53
-39
-22
-16
7
39
52
68
92
113
148
190
197
164
118
56
-26
-99
-148
-184
-206
-205
-197
-194
-176
-142
-129
-139
-124
-93
-96
-108
-91
-87
-103
-85
-54
-52
-42
-15
-7
-18
-28
-16
15
11
10
58
37
-81
-214
-284
270
1716
2550
1472
-81
-392
-80
-83
-143
-81
-101
-151
-143
-155
-176
-154
-121
-116
-120
-116
-106
-85
-40
7
41
76
109
120
115
96
68
42
8
-45
-83
-100
-125
-144
-138
-131
-137
-147
-171
-193
-179
-145
-132
-141
-156
-168
-165
-151
-127
-93
-73
-86
-106
-110
-116
-127
-119
-130
-161
-116
-69
-176
-355
-535
-416
825
2622
2611
594
-737
-467
-144
-259
-235
-155
-188
-167
-121
-135
-127
-91
-70
-48
-19
10
35
46
70
135
196
204
191
195
199
180
134
62
-22
-93
-136
-165
-184
-179
-152
-121
-107
-109
-102
-85
-85
-95
-89
-85
-111
-146
-162
-170
-182
-190
-191
-183
-170
-178
-189
-158
-142
-164
-122
-90
-193
-346
-532
-332
1150
2964
2578
345
-793
-378
-103
-192
-88
-16
-83
-62
-14
-20
3
28
14
21
59
88
111
142
179
219
252
270
276
269
248
219
177
104
8
-76
-126
-149
-160
-169
-179
-186
-189
-192
-200
-203
-194
-192
-206
-212
-207
-207
-205
-189
-171
-148
-110
-87
-98
-117
-123
-123
