# session 5
-27
-1
-81
26
404
651
593
484
439
367
289
258
235
206
190
178
160
146
134
117
105
103
99
86
78
74
67
55
42
32
27
25
22
7
-19
-32
-17
1
12
26
9
-41
-54
-49
-69
-52
-34
-111
-223
-379
-324
666
2069
1989
465
-394
-147
-5
-142
-111
-68
-123
-121
-93
-96
-81
-61
-52
-26
4
23
49
72
79
93
118
129
116
92
70
64
68
52
5
-49
-88
-114
-135
-146
-148
-147
-150
-153
-151
-150
-156
-163
-166
-167
-171
-175
-176
-178
-180
-179
-180
-181
-171
-149
-141
-156
-160
-136
-112
-94
-81
-102
-134
-122
-111
-129
-110
-99
-158
-249
-433
-344
766
2090
1695
27
-689
-300
-105
-187
-128
-92
-126
-90
-53
-58
-36
-3
9
25
52
83
113
142
178
220
249
260
256
248
244
238
213
169
105
20
-64
-119
-149
-164
-168
-163
-150
-136
-136
-145
-142
-129
-121
-119
-121
-124
-125
-130
-138
-136
-125
-121
-120
-111
-110
-117
-107
-86
-75
-61
-49
-79
-110
-90
-80
-92
-61
-60
-129
-245
-472
-255
1137
2440
1663
-179
-735
-256
-102
-171
-92
-76
-108
-59
-28
-35
-17
8
31
60
83
116
168
205
225
256
294
314
309
300
297
274
216
140
48
-50
-121
-168
-208
-226
-223
-226
-224
-206
-198
-199
-183
-162
-159
-167
-166
-156
-148
-154
-167
-172
-164
-157
-155
-156
-158
-145
-125
-123
-121
-104
-121
-154
-132
-112
-134
-115
-98
-164
-294
-488
-270
1027
2315
1677
-104
-732
-272
-82
-153
-74
-46
-95
-59
-22
-26
-1
32
47
74
111
141
170
200
235
278
310
321
322
324
312
271
207
127
38
-48
-116
-167
-198
-205
-199
-197
-192
-180
-176
-167
-149
-143
-146
-138
-133
-144
-147
-138
-136
-140
-141
-138
-134
-136
-139
-127
-104
-89
-75
-75
-105
-119
-99
-109
-118
-73
-93
-208
-385
-594
-106
1598
2746
1546
-317
-603
-111
-119
-219
-113
-118
-164
-118
-101
-109
-80
-58
-49
-23
4
28
62
100
136
174
208
229
234
232
226
203
148
67
-18
-89
-140
-170
-187
-192
-186
-179
-178
-177
-169
-158
-147
-139
-137
-135
-132
-128
-125
-122
-118
-114
-113
-114
-114
-120
-122
-105
-82
-68
-56
-62
-93
-96
-80
-100
-89
-42
-100
-251
-491
-618
311
2218
2749
997
-536
-396
-13
-151
-184
-91
-132
-134
-73
-79
-83
-49
-33
-22
7
34
58
88
122
156
188
210
223
227
218
201
173
116
36
-40
-101
-150
-172
-168
-165
-167
-160
-152
-155
-155
-150
-150
-148
-141
-138
-141
-143
-137
-129
-127
-127
-124
-119
-120
-127
-139
-140
-116
-90
-74
-56
-62
-94
-94
-90
-115
-92
-66
-151
-293
-529
-564
559
2344
2432
627
-522
-268
-62
-228
-204
-128
-166
-148
-109
-117
-106
-87
-80
-51
-12
9
34
73
108
134
151
163
181
189
170
143
127
103
58
10
-31
-61
-72
-73
-80
-84
-77
-76
-84
-84
-80
-84
-89
-93
-102
-106
-100
-94
-83
-70
-68
-73
-80
-99
-104
-85
-80
-97
-96
-71
-42
-29
-52
-83
-79
-81
-100
-69
-52
-129
-252
-475
-442
691
2199
1962
220
-646
-279
-70
-181
-127
-78
-127
-102
-58
-66
-53
-15
9
28
50
77
120
167
196
218
244
262
267
265
254
229
196
150
72
-24
-98
-145
-183
-198
-191
-192
-197
-187
-182
-185
-174
-164
-172
-173
-169
-178
-180
-170
-175
-185
-175
-162
-165
-166
-160
-161
-168
-167
-143
-100
-86
-126
-159
-150
-166
-185
-125
-90
-165
-273
-468
-369
838
2263
1782
-95
-875
-391
-126
-186
-92
-43
-96
-60
-13
-21
-7
19
37
79
121
137
173
232
279
318
363
394
401
400
387
349
289
208
111
19
-65
-145
-191
-186
-174
-186
-195
-178
-159
-155
-148
-125
-108
-114
-124
-126
-127
-127
-126
-134
-144
-145
-132
-112
-97
-101
-107
-92
-66
-77
-121
-130
-114
-141
-146
-100
-127
-217
-363
-545
8
1643
2477
1081
-622
-724
-218
-181
-187
-73
-109
-151
-92
-70
-72
-35
6
40
77
108
139
175
214
262
306
330
345
350
331
306
270
190
91
18
-48
-113
-142
-147
-156
-166
-173
-157
-129
-156
-217
-203
-154
-177
-221
-202
-154
-141
-195
-293
-315
-194
-54
-36
-118
-186
-194
-204
-256
-276
-231
-200
-221
-240
-235
-222
-166
-91
-127
-259
-409
-493
104
1624
2435
1258
-274
-445
-96
-159
-178
-4
7
-54
-13
34
59
90
104
118
148
173
211
268
305
325
377
430
419
403
418
330
146
93
148
72
-77
-126
-159
-230
-194
-71
-32
-56
-55
-94
-184
-207
-175
-169
-140
-81
-77
-104
-98
-90
-89
-90
-103
-86
-36
-41
-73
-51
-29
-60
-96
-124
-152
-199
-348
-531
-615
-752
-735
202
1473
1237
-289
-1031
-683
-441
-452
-353
-311
-329
-241
-177
-181
-122
-78
-126
-134
-61
-4
32
71
90
107
161
247
350
446
490
491
481
434
337
256
238
252
245
232
247
243
157
63
59
88
64
21
-27
-86
-81
-18
-30
-97
-86
-43
-85
-148
-132
-73
-62
-99
-105
-87
-134
-222
-249
-186
-79
-61
-189
-354
-526
-289
1085
2581
2009
-28
-897
-442
-236
-339
-212
-100
-100
-9
72
58
74
125
135
132
135
120
138
233
311
302
300
356
394
388
376
336
240
130
40
-42
-123
-193
-232
-241
-241
-231
-189
-123
-76
-88
-129
-128
-98
-114
-169
-207
-242
-305
-354
-358
-355
-358
-354
-364
-379
-348
-327
-387
-441
-426
-413
-397
-366
-422
-556
-738
-799
25
1764
2430
927
-694
-772
-349
-332
-297
-164
-187
-206
-137
-117
-115
-73
-52
-64
-54
-22
4
30
75
124
176
248
323
372
420
466
451
376
294
195
83
40
74
78
34
12
10
5
7
10
35
118
198
210
177
114
83
197
339
271
94
82
189
226
225
293
373
339
201
86
12
-99
-197
-240
-316
-418
-525
-393
676
2195
2050
68
-1175
-747
-239
-303
-336
-262
-234
-181
-201
-318
-338
-276
-272
-263
-177
-104
-81
-41
15
56
106
170
213
243
263
228
132
11
-124
-252
-336
-384
-412
-401
-366
-353
-346
-278
-168
-114
-101
-37
31
25
7
25
18
-12
17
40
-81
-198
-88
22
-141
-321
-263
-136
-72
-33
-6
14
-24
-129
-262
-404
35
1620
2859
1813
-244
-854
-357
-180
-236
-130
-61
-82
-100
-116
-103
-75
-61
-21
27
35
41
69
102
134
162
203
249
234
195
259
352
303
143
-3
-92
-102
-82
-123
-181
-164
-133
-155
-163
-134
-143
-182
-197
-245
-334
-344
-273
-252
-264
-225
-194
-230
-264
-236
-173
-140
-172
-210
-200
-198
-223
-222
-224
-242
-249
-283
-306
-359
-548
-164
1474
2795
1931
193
-295
-12
-26
-62
91
184
252
323
299
271
294
257
176
147
151
146
162
195
234
330
468
517
477
489
519
402
193
40
-99
-243
-295
-318
-433
-535
-524
-491
-479
-438
-393
-407
-450
-426
-331
-272
-284
-292
-280
-290
-320
-349
-358
-327
-289
-274
-255
-229
-227
-239
-224
-194
-191
-160
-65
-68
-230
-444
-659
-222
1587
3209
2361
188
-622
-237
-122
-225
-169
-154
-165
-93
-48
-26
77
209
213
52
-73
-5
72
22
51
232
358
382
422
471
457
382
265
120
-17
-110
-170
-242
-320
-349
-327
-288
-248
-210
-189
-194
-223
-272
-315
-299
-236
-205
-196
-153
-125
-135
-110
-57
-59
-93
-62
28
88
53
-40
-81
-47
-48
-79
-58
-88
-235
-404
-569
-247
1214
2639
2048
220
-576
-347
-257
-258
-110
-86
-116
5
97
41
11
90
149
114
38
-8
31
136
195
177
177
230
289
326
323
283
236
166
47
-60
-104
-141
-207
-252
-261
-274
-279
-254
-253
-296
-302
-250
-221
-234
-223
-163
-85
-32
-34
-53
-28
-8
-68
-128
-113
-98
-114
-112
-129
-185
-222
-252
-260
-212
-246
-417
-584
-619
12
1635
2685
1551
-305
-738
-312
-264
-343
-235
-204
-229
-176
-143
-155
-130
-79
-36
11
76
145
202
232
225
227
276
314
320
352
361
268
166
135
87
2
-36
-47
-52
-17
-26
-133
-181
-120
-101
-127
-85
-12
9
5
13
3
-45
-108
-147
-156
-167
-188
-182
-156
-163
-185
-179
-167
-158
-135
-164
-259
-277
-207
-204
-231
-207
-247
-367
-539
-579
343
2142
2647
955
-632
-623
-237
-286
-316
-262
-289
-260
-195
-209
-231
-195
-136
-75
-4
88
182
251
303
349
395
462
534
553
531
518
461
323
205
133
26
-62
-52
-63
-142
-146
-62
-28
-52
-68
-66
-50
-28
-22
-18
-12
-33
-74
-74
-35
-24
-40
-31
-30
-79
-142
-188
-219
-225
-227
-245
-253
-239
-213
-185
-170
-181
-225
-246
-279
-518
-405
1117
2932
2435
146
-995
-615
-359
-462
-400
-307
-292
-255
-241
-246
-228
-228
-225
-176
-135
-129
-115
-72
-1
93
181
238
270
290
311
307
211
47
-61
-103
-163
-209
-180
-145
-165
-198
-200
-164
-109
-65
-22
45
83
45
4
11
15
9
26
53
62
60
54
51
56
46
7
-41
-75
-87
-103
-153
-200
-213
-228
-217
-189
-258
-380
-485
-405
589
2308
2595
721
-845
-684
-212
-247
-213
-112
-203
-227
-127
-93
-41
62
59
-3
18
64
78
97
105
96
130
184
186
178
240
311
270
127
1
-60
-111
-164
-146
-86
-121
-222
-233
-177
-155
-127
-78
-84
-107
-71
-32
-43
-34
40
90
60
15
-21
-103
-165
-115
-46
-51
-60
-33
-29
-64
-78
-30
-1
-43
-57
-42
-125
-292
-466
-235
1056
2510
2021
-34
-1050
-557
-148
-206
-176
-112
-158
-159
-125
-139
-125
-65
-61
-107
-64
57
94
69
128
234
283
317
367
364
313
296
284
181
4
-159
-269
-320
-325
-335
-363
-367
-338
-305
-302
-332
-346
-294
-196
-132
-146
-187
-166
-97
-77
-110
-103
-64
-93
-179
-183
-71
21
0
-62
-71
-32
4
31
77
57
-76
-198
-343
-313
783
2577
2722
777
-659
-485
-159
-269
-272
-197
-191
-117
-71
-134
-157
-136
-150
-121
-32
-7
-42
-10
73
109
139
212
254
246
264
295
301
302
244
99
1
-13
-64
-138
-147
-150
-183
-180
-174
-209
-221
-205
-229
-261
-261
-267
-297
-316
-314
-304
-284
-245
-220
-234
-228
-171
-151
-189
-191
-168
-185
-174
-102
-44
12
45
-31
-157
-307
-257
771
2472
2720
970
-459
-382
-47
-103
-94
-18
-51
-61
-26
-18
-15
-16
-26
-17
5
42
109
160
165
173
220
272
305
313
275
200
131
80
-4
-140
-265
-310
-301
-316
-362
-361
-288
-229
-242
-259
-228
-204
-242
-301
-285
-198
-155
-184
-207
-211
-226
-233
-209
-165
-127
-111
-109
-112
-124
-121
-65
-3
7
16
15
-58
-178
-352
-225
1025
2776
2781
890
-434
-328
-63
-80
-18
12
-55
-48
-6
-4
-21
-29
8
56
49
35
37
18
30
103
150
143
131
134
151
140
56
-62
-162
-254
-319
-323
-306
-310
-308
-292
-278
-258
-228
-203
-171
-131
-122
-129
-109
-94
-101
-81
-73
-122
-130
-78
-87
-152
-178
-181
-192
-195
-196
-195
-214
-273
-269
-185
-208
-367
-591
-676
206
2107
2904
1380
-362
-560
-220
-260
-257
-119
-112
-102
-25
-35
-74
-17
51
46
38
91
153
157
134
159
220
238
223
247
304
340
334
271
132
-40
-170
-240
-276
-267
-228
-228
-272
-292
-273
-237
-189
-157
-171
-191
-173
-144
-141
-128
-82
-40
-32
-42
-38
2
44
46
50
72
39
-25
-35
-45
-73
-36
-7
-62
-182
-333
84
1580
2684
1675
-140
-623
-243
-184
-236
-131
-112
-160
-141
-96
-65
-65
-77
-61
-19
44
106
124
149
213
240
235
284
366
408
399
351
285
202
79
-46
-120
-151
-160
-162
-183
-226
-257
-265
-283
-321
-325
-286
-290
-342
-357
-350
-366
-366
-350
-353
-329
-271
-270
-317
-297
-228
-236
-291
-275
-252
-275
-229
-179
-281
-443
-598
-406
921
2615
2339
238
-958
-595
-251
-340
-329
-260
-237
-161
-100
-80
-17
51
75
108
170
230
278
314
345
412
501
526
505
531
567
511
381
257
166
76
-27
-109
-137
-135
-143
-149
-124
-79
-46
-31
-17
4
29
53
47
1
-59
-115
-173
-210
-205
-204
-239
-265
-258
-268
-291
-289
-289
-280
-217
-195
-258
-226
-146
-265
-447
-545
-527
336
2120
2740
1142
-476
-545
-199
-258
-293
-262
-315
-279
-203
-242
-274
-216
-177
-180
-160
-109
-57
-10
52
149
254
316
351
394
423
416
382
315
201
74
-8
-43
-76
-101
-92
-98
-149
-159
-94
-59
-98
-119
-87
-84
-133
-157
-139
-130
-141
-151
-146
-104
-43
-20
-24
-1
12
-32
-99
-142
-155
-160
-149
-109
-131
-239
-348
-484
-180
1332
2890
2202
10
-920
-439
-175
-274
-202
-112
-122
-100
-53
25
136
170
121
99
95
69
71
105
122
148
206
243
264
310
335
293
220
123
-11
-119
-160
-195
-238
-243
-209
-172
-164
-188
-190
-147
-110
-85
-60
-92
-178
-203
-154
-142
-198
-239
-228
-212
-207
-189
-156
-138
-159
-183
-172
-185
-218
-176
-148
-238
-363
-479
-129
1313
2666
1893
-160
-970
-514
-269
-329
-264
-226
-259
-237
-213
-201
-175
-167
-159
-140
-129
-78
33
118
139
143
175
238
311
351
337
308
298
249
128
25
-13
-67
-152
-190
-178
-181
-214
-226
-200
-194
-223
-234
-223
-221
-209
-184
-176
-169
-152
-141
-115
-87
-112
-128
-68
-27
-55
-69
-69
-87
-90
-90
-72
-24
-65
-219
-395
-373
545
2297
2896
1323
-339
-457
-71
-92
-107
16
43
45
71
59
68
116
128
88
