# session 21
-58
-88
-6
96
-61
-401
-530
-453
-435
-455
-423
-399
-389
-358
-330
-311
-289
-281
-296
-306
-285
-275
-295
-267
-227
-303
-432
-542
-403
625
2154
2288
678
-574
-505
-257
-356
-363
-283
-294
-277
-210
-182
-165
-132
-107
-81
-47
-24
-12
5
28
53
82
116
163
229
285
308
343
415
463
450
423
394
317
201
99
38
11
6
-3
-35
-67
-72
-53
-39
-44
-58
-71
-78
-74
-65
-68
-88
-106
-106
-99
-101
-108
-101
-82
-70
-69
-71
-76
-89
-97
-97
-96
-89
-75
-72
-81
-83
-70
-54
-43
-39
-27
-1
19
20
20
27
25
18
23
31
30
23
16
6
-4
-12
-23
-28
-23
-22
-26
-7
35
58
45
31
40
50
32
-23
-74
-82
-94
-121
-89
-63
-147
-254
-328
-114
984
2373
2230
587
-463
-311
-116
-214
-197
-145
-196
-200
-155
-162
-187
-170
-120
-65
-33
-14
13
30
17
16
45
65
94
161
220
242
266
303
329
346
353
328
273
201
116
33
-35
-80
-94
-91
-99
-120
-131
-120
-117
-141
-163
-155
-149
-166
-180
-187
-198
-194
-165
-151
-155
-145
-134
-158
-198
-210
-188
-164
-161
-168
-168
-159
-148
-140
-127
-112
-110
-125
-130
-113
-91
-78
-68
-64
-77
-108
-132
-130
-117
-118
-128
-127
-119
-120
-122
-123
-141
-169
-165
-137
-129
-140
-131
-99
-76
-75
-74
-56
-38
-36
-28
-10
-7
-33
-63
-53
-24
-39
-53
-17
-37
-137
-238
-254
327
1720
2505
1440
-132
-484
-121
-53
-120
-68
-40
-41
-13
1
16
48
60
61
82
110
125
133
142
161
191
220
241
272
317
358
391
433
476
498
498
478
414
301
173
62
-32
-105
-146
-167
-181
-189
-190
-190
-187
-181
-176
-168
-160
-160
-163
-159
-153
-149
-150
-161
-171
-168
-161
-162
-162
-156
-150
-149
-149
-147
-144
-144
-149
-152
-149
-146
-150
-156
-153
-146
-145
-149
-147
-136
-126
-122
-121
-121
-119
-113
-112
-113
-111
-109
-113
-115
-110
-104
-102
-101
-94
-84
-75
-70
-59
-35
-9
3
4
-8
-38
-47
-29
-45
-50
-8
-55
-196
-316
-306
404
2001
2818
1546
-159
-454
-85
-98
-182
-114
-120
-139
-96
-87
-89
-53
-29
-24
-13
-7
-3
12
26
35
50
71
93
116
149
202
266
325
372
407
426
418
366
266
138
25
-53
-98
-123
-142
-169
-198
-213
-215
-219
-224
-224
-221
-218
-214
-210
-200
-185
-174
-170
-164
-157
-157
-160
-154
-146
-151
-155
-149
-146
-155
-164
-170
-174
-173
-170
-170
-172
-171
-171
-166
-151
-144
-149
-146
-137
-135
-128
-94
-53
-33
-30
-29
-23
-12
-3
-5
-3
14
36
48
57
70
83
88
88
84
88
107
124
126
115
86
64
69
54
32
61
44
-79
-201
-266
131
1469
2663
2024
319
-392
-133
-51
-157
-118
-92
-121
-99
-78
-79
-60
-41
-35
-19
6
23
29
33
45
66
87
106
125
139
151
168
196
231
263
285
285
248
166
51
-65
-151
-199
-226
-244
-253
-256
-259
-261
-248
-221
-215
-235
-247
-237
-223
-213
-206
-205
-205
-200
-187
-175
-169
-165
-151
-139
-142
-146
-141
-134
-128
-118
-111
-113
-110
-99
-92
-92
-95
-96
-88
-75
-69
-64
-55
-53
-54
-49
-49
-63
-74
-67
-59
-67
-81
-80
-67
-52
-38
-23
-7
10
21
28
35
29
-6
-35
-27
-30
-53
-28
-13
-99
-214
-313
-97
999
2298
2055
434
-537
-351
-122
-176
-160
-119
-133
-109
-78
-77
-60
-35
-22
-1
30
54
69
82
99
124
149
175
210
253
296
338
384
429
462
482
481
440
343
208
75
-30
-107
-164
-204
-223
-223
-216
-211
-205
-192
-177
-167
-161
-156
-150
-145
-139
-133
-130
-125
-122
-127
-133
-135
-134
-130
-126
-130
-140
-149
-145
-130
-122
-127
-131
-127
-126
-128
-125
-117
-114
-115
-113
-111
-111
-106
-93
-85
-83
-74
-63
-61
-69
-71
-57
-39
-28
-23
-25
-24
-3
21
26
14
-16
-51
-55
-59
-88
-66
-43
-143
-292
-413
-183
1069
2637
2451
583
-565
-352
-128
-247
-225
-162
-200
-184
-135
-132
-112
-73
-57
-41
-14
-1
3
24
52
69
87
112
135
157
194
247
297
333
367
400
406
359
271
164
47
-57
-126
-166
-197
-215
-213
-206
-206
-210
-207
-196
-190
-196
-200
-190
-179
-176
-174
-170
-168
-167
-164
-158
-150
-143
-141
-142
-137
-132
-135
-142
-141
-138
-141
-139
-126
-117
-118
-113
-93
-74
-71
-87
-101
-91
-70
-62
-55
-35
-15
-5
4
15
29
40
39
36
40
46
49
53
60
67
74
76
73
65
50
24
-4
-7
2
-32
-55
-17
-45
-182
-310
-344
184
1609
2627
1763
124
-404
-129
-93
-177
-122
-116
-155
-137
-126
-134
-118
-96
-84
-72
-65
-54
-28
-3
18
52
93
126
161
208
255
296
333
363
380
383
362
309
220
105
-3
-74
-110
-131
-146
-155
-160
-166
-168
-155
-133
-130
-148
-158
-158
-163
-163
-154
-152
-163
-166
-156
-145
-147
-152
-145
-134
-137
-147
-151
-151
-155
-155
-148
-138
-127
-129
-144
-152
-149
-154
-161
-155
-147
-142
-135
-128
-129
-136
-139
-133
-124
-121
-118
-108
-98
-93
-90
-89
-89
-78
-59
-47
-40
-24
4
27
27
-1
-37
-43
-21
-29
-48
-12
-12
-114
-238
-340
-26
1239
2471
1935
237
-546
-287
-136
-202
-157
-128
-152
-118
-79
-80
-75
-51
-15
21
35
50
85
111
113
125
157
188
215
252
304
356
402
448
487
507
503
455
348
212
84
-20
-89
-128
-156
-174
-173
-163
-161
-165
-160
-142
-131
-135
-133
-122
-121
-128
-124
-117
-121
-121
-110
-105
-113
-119
-117
-110
-110
-117
-119
-115
-116
-120
-115
-109
-110
-112
-108
-101
-99
-104
-108
-103
-97
-93
-85
-79
-77
-79
-77
-73
-72
-78
-84
-82
-71
-63
-64
-60
-43
-31
-38
-55
-83
-108
-106
-115
-145
-123
-117
-233
-384
-513
-275
1033
2631
2385
471
-636
-379
-158
-279
-249
-188
-227
-206
-153
-143
-123
-96
-86
-68
-43
-27
-9
15
35
63
99
130
159
204
263
321
370
410
446
473
475
425
315
175
46
-55
-130
-184
-219
-237
-241
-241
-239
-234
-232
-231
-225
-214
-204
-200
-196
-188
-178
-170
-163
-154
-145
-136
-132
-132
-131
-125
-122
-123
-119
-116
-119
-120
-113
-106
-104
-101
-98
-93
-84
-76
-71
-63
-54
-53
-55
-50
-41
-35
-31
-25
-23
-23
-20
-12
-5
-1
2
3
8
15
20
19
21
27
34
40
50
71
97
113
113
105
80
58
76
85
57
82
113
11
-137
-240
-56
1069
2640
2661
927
-308
-196
20
-103
-107
-50
-88
-77
-37
-52
-60
-41
-31
-18
2
15
26
37
50
74
106
134
160
190
226
265
306
343
373
399
410
386
310
194
74
-23
-97
-155
-196
-219
-224
-225
-233
-243
-246
-243
-238
-238
-242
-247
-251
-247
-238
-240
-248
-248
-241
-240
-246
-253
-257
-254
-249
-256
-268
-271
-269
-274
-278
-280
-291
-308
-313
-313
-322
-334
-347
-362
-367
-368
-383
-400
-404
-407
-415
-420
-425
-430
-430
-431
-435
-440
-463
-498
-501
-482
-503
-539
-507
-418
-371
-380
-348
-224
-45
163
371
552
726
841
766
531
338
278
257
198
171
193
111
-59
-178
-264
186
1757
3080
2239
333
-294
146
345
360
510
562
510
503
492
474
503
532
521
505
515
534
522
491
499
522
487
419
413
457
453
396
377
427
484
500
485
440
333
147
-55
-192
-275
-365
-428
-412
-374
-372
-377
-374
-388
-410
-424
-425
-403
-374
-349
-319
-307
-329
-337
-329
-361
-410
-419
-430
-477
-498
-471
-440
-414
-384
-366
-361
-352
-334
-315
-314
-333
-341
-323
-313
-327
-326
-295
-266
-254
-240
-226
-218
-207
-196
-201
-210
-197
-173
-166
-177
-184
-181
-174
-175
-191
-205
-199
-165
-109
-58
-29
5
68
135
178
212
237
212
169
186
205
164
183
235
140
-17
-145
-52
1045
2835
3051
1137
-390
-310
-19
-160
-181
-104
-153
-172
-132
-119
-97
-68
-72
-82
-75
-64
-54
-48
-40
-22
10
57
109
146
185
246
309
357
405
450
462
429
355
244
107
-30
-133
-186
-200
-197
-182
-159
-144
-136
-127
-121
-118
-113
-112
-118
-124
-132
-145
-154
-146
-120
-84
-56
-53
-75
-105
-135
-147
-133
-119
-123
-128
-125
-122
-118
-118
-123
-116
-93
-72
-66
-72
-83
-77
-54
-40
-36
-23
-9
-6
-7
-19
-57
-95
-108
-107
-102
-92
-75
-47
-17
1
7
5
-10
-21
-7
7
6
12
12
-18
-34
-12
-3
-25
-60
-104
-118
-101
-116
-118
-78
-139
-298
-437
-435
351
2058
2843
1446
-266
-490
-133
-195
-268
-177
-186
-208
-163
-167
-205
-197
-166
-140
-119
-97
-64
-25
-1
-1
3
41
104
153
178
209
271
359
422
423
397
383
355
293
218
140
57
1
-4
25
56
75
80
74
59
30
-3
-16
-28
-68
-115
-146
-190
-237
-230
-190
-180
-190
-189
-190
-197
-194
-197
-218
-225
-207
-194
-192
-172
-125
-92
-100
-107
-78
-48
-51
-59
-41
-12
-1
-9
-11
-8
-13
-16
-7
-8
-19
-20
-23
-47
-68
-61
-37
-21
-30
-46
-48
-51
-75
-102
-124
-130
-107
-81
-90
-119
-161
-223
-257
-267
-313
-333
-284
-309
-440
-568
-540
201
1725
2407
1152
-389
-585
-206
-186
-222
-134
-121
-128
-86
-63
-37
11
34
25
19
41
80
106
111
121
147
175
202
245
306
366
412
468
540
595
615
616
590
500
354
206
82
-18
-83
-116
-136
-148
-145
-133
-121
-110
-106
-108
-104
-100
-114
-125
-118
-120
-147
-159
-147
-150
-166
-157
-134
-122
-123
-132
-140
-128
-109
-105
-107
-99
-93
-99
-107
-113
-116
-119
-126
-130
-125
-120
-130
-136
-119
-103
-105
-104
-96
-103
-123
-126
-109
-94
-92
-95
-117
-160
-166
-142
-168
-183
-131
-166
-314
-458
-481
234
1886
2711
1351
-423
-693
-277
-273
-350
-270
-248
-233
-164
-129
-102
-50
-17
-1
16
30
55
96
132
161
200
248
291
329
378
426
461
493
515
508
485
442
346
208
77
-38
-151
-231
-260
-275
-296
-294
-265
-241
-225
-201
-179
-159
-127
-99
-100
-117
-131
-147
-159
-144
-115
-104
-111
-132
-156
-163
-156
-153
-151
-142
-126
-108
-94
-88
-76
-49
-16
15
42
55
53
53
69
81
64
32
13
9
7
5
-2
-15
-29
-51
-85
-115
-136
-150
-138
-94
-39
6
24
9
-32
-85
-99
-80
-110
-164
-178
-226
-317
-410
-406
340
2003
2827
1526
-168
-437
-64
-67
-133
-67
-85
-133
-149
-183
-170
-93
-41
-23
-9
2
23
63
97
111
127
154
169
167
182
226
261
279
317
363
366
325
260
162
39
-66
-142
-200
-235
-244
-242
-232
-215
-218
-243
-246
-220
-209
-230
-240
-203
-155
-144
-173
-209
-231
-244
-261
-261
-212
-135
-93
-103
-110
-88
-88
-131
-164
-164
-168
-186
-185
-157
-128
-112
-101
-76
-48
-53
-90
-112
-102
-72
-28
1
-20
-51
-45
-36
-41
-14
36
42
29
60
117
145
140
123
91
62
59
38
9
60
101
3
-115
-187
-7
1060
2515
2459
773
-397
-310
-126
-239
-260
-235
-265
-252
-238
-258
-249
-204
-149
-104
-104
-112
-76
-37
-26
-4
43
82
109
140
178
226
286
350
395
413
417
402
334
210
72
-36
-102
-133
-155
-185
-215
-236
-248
-247
-240
-232
-215
-193
-187
-192
-185
-166
-162
-180
-200
-210
-210
-200
-186
-177
-165
-146
-131
-132
-132
-115
-91
-81
-85
-88
-88
-91
-101
-113
-117
-106
-93
-94
-102
-99
-85
-79
-83
-81
-68
-57
-51
-48
-38
-17
1
4
-4
-26
-41
-26
-26
-52
-26
-12
-111
-251
-389
-159
1137
2677
2365
452
-612
-328
-91
-201
-182
-124
-139
-106
-71
-79
-59
-18
4
32
67
81
87
116
162
198
224
250
276
310
363
423
475
518
557
590
610
591
507
382
262
157
65
2
-34
-76
-131
-162
-168
-180
-193
-182
-174
-205
-241
-253
-280
-334
-367
-375
-392
-398
-382
-379
-386
-379
-381
-407
-432
-441
-436
-423
-411
-397
-367
-335
-333
-357
-361
-323
-277
-263
-272
-269
-246
-212
-175
-145
-130
-107
-77
-72
-82
-58
-8
35
64
67
46
45
75
95
100
120
129
113
112
125
109
85
92
126
150
118
88
145
160
24
-145
-303
-39
1371
2914
2417
413
-566
-278
-144
-289
-258
-210
-202
-113
-64
-97
-85
-33
-10
4
33
52
45
42
92
166
202
203
209
216
214
222
250
283
314
328
312
272
210
125
63
47
-3
-107
-155
-110
-61
-44
-23
-11
-42
-96
-135
-143
-122
-90
-67
-52
-33
-14
-6
-1
15
50
74
54
5
-27
-40
-63
-96
-120
-110
-69
-45
-72
-112
-130
-140
-159
-172
-176
-187
-209
-220
-216
-229
-244
-216
-175
-184
-211
-197
-176
-191
-219
-246
-275
-285
-264
-251
-263
-265
-235
-206
-212
-237
-248
-227
-179
-136
-122
-119
-109
-110
-121
-143
-199
-221
-157
-138
-238
-393
-441
234
1817
2692
1535
-119
-440
-76
-61
-118
-24
-21
-72
-66
-71
-60
-2
8
-47
-62
-5
60
100
130
160
188
218
257
305
366
426
471
518
579
627
648
649
616
535
417
278
138
23
-62
-127
-172
-190
-196
-204
-220
-233
-233
-233
-240
-250
-256
-253
-229
-202
-189
-178
-159
-147
-146
-147
-156
-174
-189
-198
-212
-227
-228
-207
-170
-130
-88
-45
-13
-6
-7
7
31
48
54
57
60
57
54
58
61
50
31
26
33
34
23
6
