# session 24
-45
-163
155
26
-1158
-2261
-2280
-1887
-1784
-1712
-1543
-1464
-1414
-1300
-1201
-1139
-1036
-916
-894
-940
-989
-913
-90
1517
2177
875
-603
-711
-348
-400
-470
-376
-339
-300
-211
-205
-278
-322
-341
-391
-459
-485
-469
-465
-480
-474
-451
-454
-446
-321
-71
187
382
540
672
776
882
966
965
897
820
748
699
690
670
607
551
531
502
460
439
438
430
419
404
369
335
324
308
276
264
260
239
230
241
218
144
71
36
27
29
31
9
-33
-66
-111
-194
-253
-248
-237
-249
-259
-286
-321
-311
-280
-279
-276
-264
-300
-359
-375
-370
-395
-426
-412
-356
-323
-328
-313
-272
-255
-252
-255
-289
-316
-322
-363
-369
-280
-283
-427
-554
-572
47
1634
2646
1549
-206
-629
-301
-314
-400
-332
-342
-363
-304
-283
-287
-239
-190
-204
-236
-212
-164
-155
-138
-76
-37
-28
24
107
179
252
330
395
446
480
493
514
544
526
431
321
255
200
120
65
72
90
75
59
65
66
44
31
52
68
46
29
45
62
70
74
53
24
20
21
9
16
30
16
-7
-14
-17
-18
-7
-3
-9
-14
-22
-32
-27
-20
-30
-47
-49
-44
-38
-30
-31
-46
-52
-42
-45
-53
-44
-41
-53
-44
-12
13
23
18
9
18
42
53
49
30
9
16
30
33
64
66
-37
-160
-269
-96
1028
2540
2481
785
-327
-150
70
-43
-39
2
-40
-16
16
-34
-77
-89
-115
-134
-139
-153
-175
-199
-223
-228
-216
-207
-191
-155
-116
-91
-63
-31
-21
-38
-46
-47
-84
-169
-270
-366
-441
-482
-511
-547
-564
-556
-571
-606
-606
-566
-531
-517
-500
-475
-471
-493
-504
-498
-508
-512
-465
-409
-399
-401
-368
-320
-289
-260
-210
-157
-114
-77
-46
-21
4
22
28
44
70
93
113
134
146
156
173
190
215
255
291
302
301
323
368
396
401
419
465
504
519
531
531
499
480
496
494
486
508
471
354
220
157
725
2188
3051
1939
264
-115
246
282
207
265
254
193
174
152
118
78
58
98
124
60
-12
-35
-94
-240
-415
-559
-656
-715
-766
-819
-830
-763
-650
-540
-426
-285
-155
-91
-91
-115
-141
-169
-180
-170
-169
-182
-180
-172
-182
-190
-168
-141
-131
-123
-105
-86
-82
-89
-85
-62
-44
-41
-24
6
13
2
12
33
34
29
37
53
66
72
78
96
119
124
112
110
119
117
108
103
93
73
59
56
48
29
15
12
-9
-51
-85
-98
-104
-115
-135
-171
-204
-208
-195
-206
-265
-340
-369
-348
-355
-376
-318
-291
-410
-540
-619
-352
926
2450
2166
307
-731
-467
-271
-408
-385
-321
-361
-352
-304
-314
-335
-309
-261
-225
-194
-167
-152
-139
-144
-179
-158
-43
52
95
184
301
349
355
389
422
424
405
350
253
155
79
3
-64
-91
-79
-53
-28
-6
12
33
65
99
105
92
95
115
149
192
199
182
213
260
253
247
274
272
247
248
249
235
225
209
189
172
146
122
118
94
56
53
50
4
-25
-8
-3
-27
-58
-107
-156
-166
-168
-201
-226
-211
-195
-208
-218
-203
-192
-191
-177
-148
-118
-91
-77
-72
-69
-87
-101
-70
-62
-96
-79
-79
-192
-328
-418
-72
1261
2584
2062
290
-539
-290
-188
-311
-261
-203
-217
-179
-137
-137
-125
-103
-94
-64
-7
30
38
60
96
103
86
84
99
102
86
77
90
117
135
136
128
124
110
47
-61
-164
-239
-291
-325
-346
-358
-356
-335
-294
-250
-231
-227
-221
-217
-204
-178
-170
-189
-192
-169
-148
-146
-160
-182
-201
-223
-261
-303
-333
-348
-338
-304
-272
-249
-231
-224
-235
-257
-285
-309
-296
-229
-148
-105
-98
-85
-60
-44
-46
-58
-60
-46
-52
-96
-117
-71
-15
8
53
134
184
211
267
306
321
383
392
235
21
-102
284
1574
2655
1914
179
-485
-116
77
4
25
68
99
173
239
293
365
423
463
505
536
559
589
609
594
536
434
297
139
-27
-169
-242
-252
-241
-214
-137
-25
59
81
60
20
-23
-54
-85
-125
-145
-134
-133
-166
-197
-200
-202
-220
-224
-198
-181
-193
-209
-210
-206
-206
-201
-191
-183
-177
-171
-175
-182
-172
-159
-160
-170
-177
-175
-162
-138
-114
-107
-120
-128
-116
-97
-79
-59
-43
-37
-38
-43
-43
-35
-41
-64
-77
-77
-89
-103
-99
-81
-70
-71
-68
-43
-21
-34
-73
-126
-167
-166
-163
-167
-131
-140
-262
-402
-494
-95
1338
2645
1949
63
-718
-396
-278
-394
-343
-299
-323
-291
-262
-271
-262
-249
-253
-244
-221
-196
-161
-115
-82
-72
-55
-12
34
70
130
217
278
293
298
314
326
319
293
249
187
121
72
32
-12
-40
-50
-62
-66
-50
-37
-42
-51
-52
-46
-32
-22
-22
-20
-17
-18
-6
19
16
-15
-26
-9
-1
-8
-6
-2
-9
-18
-20
-18
-23
-38
-43
-29
-19
-27
-34
-28
-29
-43
-45
-27
-13
-8
6
21
17
12
23
26
10
1
13
25
22
13
19
37
56
75
93
99
80
47
49
73
47
24
75
59
-75
-193
-238
236
1654
2752
1909
189
-366
-45
-16
-153
-118
-105
-134
-102
-86
-103
-96
-78
-63
-45
-45
-49
-32
-20
-25
-19
2
15
30
49
66
96
129
133
127
137
136
115
79
-3
-116
-189
-229
-284
-324
-328
-331
-335
-325
-312
-299
-282
-275
-274
-266
-259
-250
-224
-197
-196
-212
-220
-215
-210
-220
-246
-269
-274
-282
-320
-376
-409
-419
-443
-483
-497
-488
-493
-485
-439
-400
-391
-370
-335
-327
-335
-323
-291
-258
-242
-241
-229
-189
-140
-100
-67
-28
27
97
157
190
214
234
229
239
310
367
357
380
427
382
295
227
431
1514
2974
2999
1471
402
465
558
359
283
232
68
-19
39
188
398
590
717
819
896
942
986
1026
1045
1049
1020
904
722
557
435
324
215
129
54
-36
-119
-170
-234
-354
-500
-632
-745
-827
-871
-895
-914
-934
-957
-966
-956
-955
-974
-989
-994
-999
-1000
-997
-989
-965
-923
-877
-837
-808
-788
-772
-755
-730
-695
-664
-649
-638
-607
-554
-509
-488
-450
-371
-315
-324
-340
-313
-274
-240
-181
-112
-75
-54
-5
57
115
196
291
372
449
526
575
599
632
677
710
722
717
691
663
664
655
614
626
649
548
397
266
369
1411
3038
3188
1415
16
88
362
234
193
249
216
215
245
233
240
258
235
229
270
295
292
310
341
310
211
126
92
60
7
-37
-56
-59
-62
-81
-103
-112
-136
-194
-262
-335
-409
-460
-494
-525
-535
-528
-529
-527
-514
-505
-499
-483
-460
-442
-432
-422
-403
-386
-387
-384
-363
-351
-350
-341
-319
-304
-301
-303
-298
-294
-295
-286
-264
-258
-268
-259
-228
-213
-219
-214
-194
-180
-175
-167
-152
-134
-126
-123
-119
-122
-129
-116
-88
-75
-75
-63
-42
-32
-25
1
24
25
27
50
66
49
7
-8
15
9
-5
45
44
-71
-172
-226
146
1491
2751
2133
372
-372
-97
-11
-129
-88
-60
-93
-67
-33
-16
30
73
94
120
146
162
179
182
158
146
187
258
320
367
400
411
404
397
409
447
468
425
343
272
204
130
68
19
-25
-57
-86
-113
-118
-106
-105
-116
-124
-127
-127
-128
-131
-140
-154
-157
-142
-131
-135
-124
-94
-82
-85
-81
-72
-66
-66
-84
-97
-77
-64
-87
-104
-95
-88
-89
-85
-74
-56
-38
-31
-22
-5
1
-1
12
27
25
16
-5
-38
-59
-72
-110
-150
-160
-179
-228
-254
-240
-224
-206
-197
-220
-241
-237
-257
-267
-228
-263
-405
-559
-624
-83
1332
2204
1188
-399
-751
-369
-291
-330
-225
-126
7
218
399
520
531
375
198
130
75
-38
-139
-195
-242
-279
-291
-302
-305
-251
-165
-123
-103
-44
22
57
97
150
167
117
11
-120
-213
-225
-201
-192
-185
-169
-159
-154
-152
-160
-167
-174
-192
-212
-224
-228
-197
-133
-104
-128
-129
-77
-43
-63
-92
-106
-106
-81
-46
-36
-40
-36
-13
43
112
157
185
213
235
259
286
287
273
278
286
279
280
294
295
282
277
283
285
286
292
294
290
293
301
303
297
289
281
248
191
173
183
147
123
130
35
-143
-312
-235
790
2486
2808
1129
-326
-312
-29
-150
-194
-134
-180
-204
-176
-178
-155
-106
-96
-99
-70
-33
-12
-3
-8
-50
-120
-170
-176
-161
-140
-118
-101
-87
-72
-60
-50
-49
-73
-131
-208
-279
-347
-433
-520
-565
-555
-521
-501
-500
-494
-476
-458
-441
-422
-408
-398
-387
-370
-353
-342
-340
-330
-310
-304
-300
-278
-260
-259
-253
-232
-216
-216
-218
-203
-171
-138
-113
-98
-102
-116
-103
-59
-30
-28
-19
0
14
36
67
74
65
71
86
92
95
101
109
117
121
118
115
119
131
153
177
186
184
172
138
109
103
88
92
128
84
-43
-170
-188
475
2003
2812
1651
51
-266
32
-5
-84
-8
-1
-15
39
74
82
96
98
97
108
108
106
129
165
190
208
223
236
266
309
330
320
317
348
392
417
411
383
327
241
149
68
4
-26
-31
-55
-90
-96
-86
-100
-131
-152
-160
-163
-166
-178
-205
-230
-228
-205
-189
-185
-179
-176
-185
-208
-231
-231
-219
-224
-230
-199
-149
-121
-119
-128
-133
-134
-136
-140
-154
-198
-239
-242
-253
-319
-384
-401
-410
-435
-448
-446
-446
-451
-460
-469
-475
-487
-501
-504
-517
-549
-556
-521
-502
-525
-536
-493
-443
-455
-478
-430
-400
-463
-546
-578
-130
1226
2373
1710
85
-477
-62
144
116
212
302
346
435
461
399
392
459
523
571
607
619
635
660
673
695
729
734
730
765
805
818
836
859
861
856
855
826
745
622
472
314
177
79
15
-29
-65
-101
-136
-162
-175
-177
-171
-165
-166
-171
-181
-206
-234
-258
-297
-351
-394
-446
-539
-632
-689
-741
-793
-801
-786
-797
-811
-789
-756
-747
-756
-761
-740
-718
-729
-747
-729
-666
-547
-383
-237
-139
-58
10
49
78
109
129
145
174
194
190
180
174
173
178
181
177
156
124
131
166
155
157
213
168
2
-180
-245
518
2323
3245
1843
14
-261
119
47
-71
3
0
-35
-13
-8
-14
-12
-17
-13
-8
-8
15
44
35
25
48
75
87
111
153
194
228
272
318
342
351
363
352
287
175
47
-66
-148
-206
-249
-272
-279
-280
-279
-277
-276
-277
-271
-248
-232
-241
-249
-232
-212
-205
-196
-189
-191
-187
-177
-178
-185
-178
-168
-167
-158
-146
-157
-171
-159
-144
-147
-152
-141
-130
-125
-117
-108
-110
-122
-123
-114
-107
-101
-94
-93
-90
-77
-67
-60
-38
-17
-17
-32
-58
-71
-55
-62
-77
-34
-44
-181
-340
-452
31
1671
3018
2081
58
-574
-138
-62
-184
-102
-82
-129
-85
-56
-70
-51
-24
-18
-9
3
14
33
58
80
98
119
144
169
202
246
288
327
377
426
457
475
474
418
300
158
38
-47
-104
-144
-173
-183
-176
-174
-181
-182
-179
-181
-184
-182
-177
-173
-165
-155
-150
-146
-140
-133
-127
-129
-144
-150
-127
-115
-148
-159
-113
-93
-128
-154
-170
-191
-176
-142
-139
-144
-132
-132
-142
-136
-128
-133
-137
-140
-141
-129
-119
-131
-140
-132
-123
-105
-77
-74
-83
-81
-101
-130
-115
-109
-122
-79
-80
-213
-388
-543
-125
1511
2933
2013
-55
-660
-175
-137
-301
-202
-177
-237
-191
-158
-175
-156
-129
-107
-80
-83
-100
-90
-69
-41
-9
-7
-14
12
55
92
124
162
225
288
305
307
337
331
241
132
55
0
-29
-33
-57
-94
-87
-32
11
24
33
51
64
80
105
115
114
130
145
133
132
160
179
182
189
187
169
159
166
162
136
110
102
117
139
134
103
85
71
46
39
55
59
48
34
19
1
-55
-151
-212
-200
-176
-179
-199
-221
-231
-233
-240
-249
-243
-244
-269
-287
-283
-288
-336
-398
-378
-311
-371
-505
-584
-561
131
1697
2453
1156
-453
-638
-274
-323
-382
-287
-302
-326
-264
-231
-223
-193
-174
-163
-141
-116
-81
-40
-18
-10
4
24
48
70
88
119
169
206
219
232
254
275
277
242
177
109
46
-16
-57
-65
-60
-64
-68
-57
-42
-42
-55
-54
-46
-45
-38
-27
-41
-61
-46
-16
-15
-32
-24
1
-1
-19
-6
10
-1
-6
11
10
-5
-2
9
6
3
8
8
3
10
25
23
8
11
18
4
-12
-8
2
5
4
2
-1
-4
-4
2
20
30
12
-1
20
46
38
-7
-45
-34
-22
-55
-55
-25
-94
-237
-382
-323
535
1924
2131
715
-454
-409
-161
-239
-253
-191
-208
-198
-155
-160
-164
-133
-112
-100
-65
-30
-32
-45
-26
7
27
40
61
84
105
134
170
201
229
261
284
284
266
225
155
74
5
-49
-81
-89
-95
-106
-107
-96
-89
-91
-90
-86
-94
-105
-102
-102
-113
-115
-111
-119
-123
-118
-113
-112
-116
-116
-102
-98
-121
-130
-114
-109
-118
-113
-104
-110
-112
-102
-98
-103
-101
-90
-89
-97
-102
-102
-99
-93
-84
-79
-76
-73
-60
-34
-23
-44
-76
-88
-74
-74
-98
-86
-57
-105
-212
-341
-255
631
1955
2040
598
-503
-409
-129
-161
-160
-114
-139
-134
-101
-99
-93
-70
-50
-30
-18
-16
-6
15
37
57
74
94
119
148
178
210
238
263
291
318
331
328
300
236
140
42
-34
-83
-114
-128
-130
-134
-139
-134
-125
-122
-119
-108
-98
-95
-88
-77
-71
-72
-69
-65
-64
-61
-58
-59
-54
-46
-47
-51
-47
-45
-42
-34
-33
-39
-37
-30
-28
-25
-20
-21
-16
-3
-4
-16
-9
12
12
-2
5
29
48
59
61
44
7
