# session 32
83
72
87
89
65
-54
27
991
2115
1451
-561
-1334
-564
-10
-4
91
182
142
162
200
184
194
221
225
242
268
277
288
316
345
379
426
479
536
607
674
725
762
770
712
577
388
186
9
-126
-218
-278
-316
-339
-346
-346
-350
-349
-333
-321
-325
-322
-304
-296
-301
-295
-285
-289
-296
-289
-278
-279
-287
-290
-285
-277
-265
-254
-254
-254
-238
-227
-233
-214
-176
-179
-211
-214
-208
-222
-216
-202
-217
-209
-186
-218
-238
-294
-319
399
1707
1643
-251
-1499
-952
-232
-158
-91
48
26
19
76
83
85
111
128
149
179
202
227
256
284
328
379
427
489
571
638
684
729
761
727
603
422
230
59
-81
-181
-239
-269
-286
-289
-281
-274
-267
-254
-240
-231
-224
-217
-213
-209
-203
-197
-194
-188
-185
-190
-190
-182
-178
-179
-176
-175
-180
-172
-148
-138
-147
-139
-112
-108
-114
-83
-52
-77
-114
-115
-114
-120
-104
-99
-113
-91
-86
-124
-147
-242
-114
956
2132
1394
-657
-1369
-585
-84
-96
5
84
35
60
103
91
104
137
149
161
177
189
215
250
281
315
361
414
475
541
607
660
698
709
666
546
370
189
29
-104
-198
-246
-268
-286
-302
-303
-289
-274
-266
-263
-256
-242
-235
-235
-228
-216
-212
-215
-214
-210
-204
-199
-202
-209
-205
-189
-182
-188
-191
-185
-171
-157
-160
-168
-151
-129
-133
-123
-86
-86
-124
-136
-131
-143
-138
-122
-140
-132
-95
-134
-175
-206
-297
225
1651
2102
370
-1306
-1058
-249
-106
-80
54
33
14
78
81
71
101
121
137
165
181
194
220
250
287
331
379
441
510
567
618
671
713
707
620
467
294
124
-39
-167
-236
-267
-290
-308
-311
-304
-297
-293
-280
-261
-256
-257
-247
-239
-238
-230
-222
-225
-223
-208
-201
-206
-207
-198
-191
-191
-186
-168
-160
-165
-154
-133
-137
-138
-106
-91
-123
-144
-138
-149
-155
-133
-133
-137
-116
-136
-165
-197
-276
192
1496
1950
327
-1352
-1176
-334
-127
-88
65
60
28
90
112
107
140
159
164
191
220
240
271
307
340
382
438
499
573
655
720
757
779
766
671
493
287
102
-53
-171
-244
-285
-311
-318
-314
-309
-304
-297
-288
-274
-257
-246
-240
-234
-225
-218
-215
-212
-210
-210
-209
-208
-205
-199
-195
-198
-200
-188
-170
-166
-171
-159
-142
-146
-141
-105
-97
-133
-149
-136
-145
-154
-141
-146
-144
-115
-139
-175
-201
-298
95
1399
2024
536
-1236
-1190
-343
-110
-97
50
64
31
87
108
98
121
141
150
172
193
208
234
270
308
344
389
453
523
585
641
693
724
712
632
484
298
114
-39
-147
-221
-271
-297
-301
-298
-295
-287
-278
-273
-263
-251
-244
-240
-230
-221
-215
-211
-211
-213
-208
-198
-194
-197
-195
-190
-187
-184
-184
-184
-166
-145
-144
-144
-119
-105
-110
-87
-53
-71
-112
-113
-110
-125
-118
-108
-123
-101
-81
-127
-153
-217
-188
694
2009
1662
-382
-1431
-743
-113
-108
-41
61
18
29
83
76
83
116
128
139
158
172
198
232
258
292
344
396
443
501
570
628
663
680
655
549
379
208
56
-77
-171
-221
-256
-282
-287
-279
-277
-277
-270
-261
-251
-241
-238
-236
-227
-214
-199
-187
-198
-223
-227
-210
-203
-202
-188
-173
-174
-181
-177
-167
-160
-149
-135
-141
-155
-140
-113
-112
-112
-82
-71
-104
-122
-111
-120
-130
-117
-125
-123
-88
-111
-152
-165
-244
138
1437
2099
614
-1219
-1212
-354
-108
-94
53
62
27
81
93
87
129
149
143
168
201
214
234
268
303
343
402
466
528
591
649
693
727
736
671
522
336
158
-1
-128
-212
-263
-294
-302
-297
-300
-301
-285
-267
-264
-262
-252
-240
-234
-234
-232
-220
-209
-213
-217
-211
-210
-217
-216
-205
-201
-199
-186
-173
-175
-173
-157
-150
-150
-126
-105
-125
-153
-152
-153
-163
-154
-149
-154
-133
-131
-168
-197
-285
-103
939
1895
992
-930
-1439
-623
-143
-117
5
79
43
77
119
115
141
175
177
183
214
252
274
281
306
356
411
469
542
609
664
718
763
764
695
551
360
166
-2
-131
-210
-253
-281
-296
-294
-294
-300
-297
-284
-272
-264
-260
-252
-241
-232
-232
-235
-234
-226
-219
-221
-225
-219
-207
-200
-195
-189
-182
-171
-157
-151
-153
-143
-122
-118
-120
-93
-67
-87
-116
-118
-120
-129
-118
-118
-135
-113
-107
-148
-162
-241
-125
912
2081
1355
-694
-1399
-597
-83
-92
6
82
39
66
101
88
108
139
146
161
181
196
221
250
279
320
364
408
467
537
597
647
687
694
642
520
351
173
14
-110
-200
-257
-289
-304
-304
-295
-289
-292
-292
-281
-262
-244
-235
-233
-226
-214
-206
-204
-203
-197
-190
-186
-187
-188
-186
-181
-174
-165
-165
-169
-157
-136
-135
-144
-128
-103
-101
-88
-56
-64
-107
-114
-101
-117
-119
-99
-117
-119
-87
-119
-152
-184
-244
366
1757
1960
81
-1431
-1000
-202
-110
-79
60
32
11
70
76
77
112
120
121
150
183
205
226
254
290
333
383
442
508
576
638
688
715
697
605
440
254
87
-60
-178
-246
-280
-307
-318
-308
-299
-302
-304
-293
-277
-265
-253
-238
-230
-232
-230
-227
-224
-214
-203
-202
-203
-200
-194
-189
-186
-177
-164
-166
-167
-146
-132
-139
-123
-89
-95
-129
-139
-142
-153
-141
-129
-140
-126
-111
-148
-175
-239
-162
720
1867
1347
-644
-1532
-781
-149
-115
-21
89
53
73
126
114
118
154
172
191
221
242
263
297
336
375
419
478
549
625
693
752
797
805
743
599
401
202
28
-112
-211
-267
-296
-311
-316
-312
-305
-298
-291
-280
-267
-259
-259
-256
-245
-234
-232
-234
-232
-226
-219
-212
-209
-211
-210
-203
-196
-192
-182
-176
-175
-161
-142
-146
-142
-108
-100
-140
-164
-153
-154
-156
-143
-151
-146
-114
-141
-176
-201
-299
115
1433
2003
450
-1296
-1186
-329
-110
-96
49
56
21
72
88
87
121
140
148
172
192
211
240
267
296
341
396
457
526
597
659
705
732
721
643
485
291
115
-33
-155
-233
-268
-287
-299
-298
-285
-275
-267
-259
-250
-240
-233
-231
-227
-217
-210
-209
-205
-199
-199
-204
-203
-196
-191
-189
-187
-188
-183
-166
-158
-161
-141
-113
-119
-124
-89
-74
-112
-134
-123
-130
-140
-127
-133
-131
-101
-129
-164
-183
-277
134
1468
2071
512
-1270
-1170
-303
-95
-94
54
60
19
76
95
81
111
141
149
165
184
201
224
256
298
342
384
435
499
565
623
672
704
693
608
456
277
105
-42
-150
-217
-257
-278
-288
-289
-279
-268
-266
-264
-255
-247
-238
-225
-221
-226
-224
-216
-210
-206
-202
-203
-205
-196
-182
-180
-194
-197
-184
-175
-169
-153
-147
-155
-139
-106
-98
-100
-76
-67
-96
-117
-115
-123
-122
-108
-124
-126
-91
-116
-156
-170
-258
110
1392
2041
562
-1257
-1237
-362
-106
-97
49
64
29
80
93
79
112
142
152
169
186
204
233
263
295
343
397
455
520
588
650
704
740
736
665
517
324
136
-14
-130
-219
-275
-296
-302
-307
-306
-296
-288
-280
-271
-264
-257
-243
-231
-228
-228
-225
-220
-216
-213
-216
-224
-223
-211
-206
-210
-200
-176
-169
-173
-156
-137
-145
-144
-111
-97
-124
-146
-144
-143
-135
-122
-140
-144
-114
-133
-164
-191
-255
193
1405
1777
188
-1399
-1171
-315
-107
-84
66
83
60
106
116
120
165
185
187
214
241
253
275
313
351
392
442
506
580
656
719
764
786
761
653
470
261
73
-79
-190
-260
-294
-306
-315
-318
-308
-292
-282
-274
-261
-244
-230
-225
-228
-228
-218
-206
-205
-209
-209
-207
-203
-198
-196
-196
-193
-189
-187
-182
-171
-164
-162
-146
-122
-120
-128
-110
-90
-111
-137
-131
-125
-131
-123
-118
-122
-106
-116
-147
-154
-232
-35
1027
1924
920
-987
-1390
-539
-95
-94
14
71
32
66
103
96
110
130
143
165
186
206
238
266
290
335
391
443
501
566
627
679
722
731
672
532
344
161
5
-120
-208
-253
-274
-284
-283
-275
-271
-265
-252
-241
-237
-234
-226
-214
-209
-211
-208
-196
-191
-195
-192
-188
-194
-193
-181
-176
-183
-183
-168
-157
-163
-166
-147
-124
-123
-126
-103
-82
-102
-131
-132
-132
-138
-127
-128
-138
-112
-112
-155
-165
-236
-68
988
1997
1085
-905
-1424
-566
-86
-99
6
79
35
60
103
99
118
148
151
159
181
203
226
257
295
339
388
434
480
534
592
641
679
691
638
506
336
166
12
-115
-199
-245
-271
-285
-290
-286
-275
-266
-265
-263
-253
-240
-232
-227
-219
-207
-197
-199
-204
-196
-186
-189
-194
-193
-188
-176
-167
-171
-165
-145
-136
-128
-116
-128
-143
-127
-114
-111
-80
-61
-95
-125
-124
-131
-126
-103
-114
-121
-96
-125
-157
-154
-230
126
1368
1987
516
-1283
-1256
-366
-95
-87
57
73
28
79
106
91
114
144
161
181
198
220
253
278
303
349
404
459
527
602
664
711
747
753
678
515
317
131
-33
-160
-234
-274
-302
-313
-308
-302
-301
-296
-286
-275
-265
-254
-249
-246
-235
-223
-220
-223
-221
-219
-219
-214
-206
-202
-203
-201
-193
-180
-171
-170
-169
-154
-142
-141
-123
-94
-106
-143
-148
-138
-147
-144
-131
-142
-134
-116
-146
-169
-221
-199
533
1678
1392
-497
-1556
-899
-179
-98
-24
98
75
83
138
134
137
167
181
198
227
245
265
301
340
378
424
483
553
624
688
746
793
806
754
619
426
221
42
-96
-195
-257
-287
-300
-309
-304
-290
-287
-293
-281
-263
-257
-252
-239
-232
-230
-221
-213
-215
-218
-213
-206
-204
-203
-196
-189
-188
-189
-185
-181
-181
-177
-158
-149
-160
-147
-114
-118
-132
-97
-69
-104
-133
-125
-133
-145
-129
-127
-126
-101
-119
-145
-145
-237
22
1176
1948
722
-1123
-1301
-426
-72
-77
45
90
49
75
108
121
140
149
167
195
206
225
259
278
304
350
394
444
517
590
646
698
733
726
665
537
353
161
5
-108
-192
-254
-285
-285
-279
-282
-277
-259
-244
-235
-229
-228
-228
-225
-227
-223
-206
-201
-213
-208
-199
-204
-200
-193
-207
-206
-179
-177
-190
-172
-159
-185
-185
-134
-111
-143
-148
-110
-99
-106
-80
-67
-100
-116
-104
-120
-131
-106
-114
-129
-90
-97
-147
-170
-213
197
1420
1966
474
-1287
-1243
-361
-81
-60
75
76
28
87
123
116
133
138
136
180
230
240
242
272
308
335
383
463
533
581
637
691
721
728
676
525
327
149
-15
-153
-221
-242
-273
-301
-302
-302
-301
-280
-267
-275
-266
-237
-227
-231
-222
-218
-227
-220
-206
-210
-216
-214
-213
-201
-187
-195
-201
-191
-189
-189
-177
-173
-173
-158
-144
-156
-160
-123
-93
-113
-117
-74
-71
-120
-144
-141
-134
-106
-107
-153
-134
-80
-112
-166
-213
-89
767
1850
1341
-624
-1557
-825
-138
-85
-16
103
78
75
128
136
135
166
197
218
237
255
279
314
350
387
440
494
544
624
712
762
800
836
799
663
476
275
91
-50
-157
-230
-259
-272
-289
-295
-284
-274
-266
-258
-254
-244
-227
-216
-216
-217
-212
-207
-204
-203
-208
-216
-225
-232
-238
-241
-238
-234
-241
-255
-249
-225
-218
-229
-215
-184
-183
-187
-152
-125
-150
-172
-163
-166
-175
-153
-145
-159
-132
-119
-157
-180
-262
-115
919
1967
1129
-869
-1457
-617
-109
-109
3
83
36
62
112
105
115
147
161
170
190
215
241
270
307
345
381
434
510
582
637
690
739
754
703
577
401
219
60
-72
-174
-236
-267
-284
-290
-281
-269
-261
-254
-244
-232
-221
-215
-212
-208
-203
-197
-191
-188
-188
-187
-185
-181
-176
-169
-169
-172
-168
-159
-151
-146
-142
-137
-127
-124
-131
-122
-102
-102
-95
-51
-32
-74
-103
-91
-95
-105
-88
-90
-103
-75
-79
-119
-135
-212
62
1252
2105
888
-1067
-1328
-445
-76
-81
51
98
47
71
93
89
116
142
155
174
192
209
234
261
294
339
385
433
494
567
637
693
732
742
690
556
368
180
13
-127
-222
-275
-305
-324
-333
-336
-332
-320
-309
-299
-289
-284
-280
-271
-263
-259
-248
-232
-233
-250
-258
-251
-244
-243
-242
-236
-229
-225
-221
-214
-207
-206
-194
-175
-173
-172
-146
-136
-169
-188
-177
-182
-189
-177
-182
-175
-144
-169
-203
-232
-289
218
1511
1872
191
-1432
-1192
-359
-170
-128
28
33
13
67
77
76
113
132
143
177
208
227
255
294
337
383
438
508
585
656
724
784
821
805
702
518
308
117
-41
-157
-230
-274
-294
-295
-296
-301
-293
-273
-260
-254
-240
-218
-207
-203
-191
-176
-167
-161
-156
-155
-156
-154
-149
-144
-140
-138
-134
-126
-114
-108
-109
-104
-87
-78
-80
-66
-48
-52
-38
-1
-3
-39
-46
-39
-52
-43
-25
-42
-33
-7
-44
-64
-99
-109
622
1940
1844
-104
-1355
-785
-77
-24
39
160
116
113
173
169
168
202
210
213
232
250
270
297
321
351
393
442
498
564
628
682
728
756
734
633
462
265
83
-68
-181
-255
-302
-329
-342
-345
-343
-337
-335
-333
-330
-328
-329
-325
-317
-315
-316
-319
-324
-326
-322
-320
-325
-330
-330
-331
-334
-336
-336
-338
-334
-320
-316
-327
-322
-299
-295
-297
-272
-255
-283
-313
-314
-317
-322
-302
-302
-321
-291
-279
-326
-341
-409
-266
802
1930
1103
-958
-1570
-720
-231
-246
-128
-48
-92
-49
7
-1
21
63
84
110
143
171
205
244
287
338
399
471
552
635
716
792
853
882
848
733
569
406
257
126
35
-7
-16
-14
-1
23
48
68
91
119
145
