# session 3
107
285
-83
-45
1229
1973
563
-1063
-960
-279
-132
-39
151
198
212
228
196
197
190
85
-32
-38
48
115
144
189
219
232
322
455
500
482
492
517
506
436
298
132
1
-105
-212
-275
-285
-306
-310
-267
-292
-378
-356
-284
-331
-410
-381
-291
-244
-277
-320
-305
-343
-476
-517
-430
-392
-404
-349
-317
-473
-473
384
1610
1424
-320
-1446
-1027
-408
-319
-268
-135
-82
-1
96
109
131
236
333
352
339
430
607
603
396
320
374
309
361
709
847
625
595
725
451
30
45
199
37
-212
-346
-471
-502
-386
-315
-326
-310
-272
-233
-169
-123
-132
-154
-125
-72
-89
-163
-189
-183
-227
-287
-316
-312
-275
-294
-379
-412
-508
-412
760
2244
1697
-506
-1446
-691
-121
-162
-179
-174
-205
-144
-90
-95
-82
-50
-24
-30
-59
-20
85
138
163
257
330
292
266
328
384
415
468
476
362
190
67
7
-46
-101
-95
-24
18
12
27
23
-42
-54
3
-35
-148
-170
-127
-97
-47
-14
-63
-146
-188
-159
-116
-162
-225
-215
-321
-353
481
1752
1534
-326
-1517
-1103
-444
-251
-112
29
49
60
60
28
49
90
95
93
74
55
112
186
201
259
389
446
448
521
583
549
546
584
468
198
-35
-206
-360
-400
-335
-363
-490
-537
-513
-511
-480
-407
-375
-364
-318
-279
-271
-269
-270
-270
-260
-248
-218
-178
-157
-113
-73
-108
-169
-275
-137
985
2388
1903
-219
-1253
-692
-261
-323
-243
-112
-101
-70
-20
25
93
132
142
160
155
140
176
221
201
170
211
298
370
434
513
584
597
520
385
261
165
60
-60
-145
-167
-162
-183
-217
-221
-219
-263
-316
-305
-274
-300
-334
-307
-281
-310
-340
-354
-352
-298
-264
-326
-382
-420
-359
369
1582
1591
-62
-1292
-952
-322
-227
-184
-56
-38
-16
48
46
33
73
113
133
177
244
301
345
385
425
477
544
616
686
747
806
868
869
744
546
360
183
18
-93
-157
-196
-221
-255
-284
-291
-331
-416
-490
-566
-661
-693
-627
-558
-530
-471
-382
-346
-332
-306
-348
-422
-507
-648
-214
1263
2146
843
-948
-1091
-453
-348
-379
-235
-211
-228
-160
-138
-126
-59
-27
-26
16
53
58
92
147
183
232
299
341
368
401
438
496
549
511
365
194
41
-99
-203
-254
-283
-292
-231
-109
-19
-1
-3
-23
-89
-127
-68
-4
-44
-144
-180
-122
-98
-187
-234
-174
-166
-239
-427
-629
53
1765
2378
761
-837
-754
-218
-159
-93
44
21
18
83
98
117
145
116
112
197
255
242
272
349
349
291
316
410
438
417
470
568
570
407
168
31
-73
-412
-788
-697
-290
-122
-212
-242
-191
-212
-296
-296
-208
-183
-238
-285
-322
-371
-402
-405
-402
-426
-488
-609
-593
136
1346
1389
-203
-1449
-1190
-572
-412
-353
-258
-229
-188
-153
-153
-117
-76
-74
-53
3
63
135
209
268
354
474
550
584
670
800
880
909
892
769
570
404
275
132
12
-61
-110
-127
-112
-114
-135
-141
-137
-132
-140
-194
-264
-301
-341
-394
-404
-376
-353
-363
-398
-382
-292
-5
808
1666
1161
-610
-1611
-1103
-383
-158
-58
25
14
18
48
56
75
103
119
150
184
184
183
212
236
249
306
400
464
510
578
622
605
580
525
322
9
-211
-296
-388
-501
-528
-479
-449
-467
-476
-417
-346
-368
-422
-377
-283
-236
-216
-210
-208
-168
-130
-121
-121
-157
-196
-296
-400
298
1871
2213
394
-1122
-794
-178
-223
-230
-75
-71
-68
15
53
61
71
55
35
50
54
-3
-40
39
149
198
232
273
303
365
450
484
471
439
358
243
141
56
-11
-42
-59
-85
-92
-74
-79
-117
-146
-157
-164
-180
-226
-278
-299
-302
-277
-234
-266
-351
-420
-489
-114
1034
1654
491
-1012
-1076
-477
-369
-386
-212
-135
-143
-119
-143
-181
-159
-129
-94
-19
30
33
61
95
103
157
257
320
363
430
489
535
577
545
431
321
221
98
15
6
-20
-88
-117
-98
-75
-61
-87
-156
-168
-104
-90
-159
-194
-165
-151
-186
-234
-284
-403
-381
346
1410
1238
-348
-1404
-1072
-499
-321
-188
-58
-57
-59
-14
28
62
71
68
88
98
81
112
188
226
242
300
368
428
532
629
625
593
628
641
527
328
121
-54
-179
-268
-326
-330
-311
-304
-283
-270
-314
-350
-321
-312
-355
-354
-306
-318
-353
-331
-328
-370
-450
-529
-68
1127
1608
348
-1040
-1008
-438
-283
-205
-82
-109
-103
-43
-70
-28
109
109
3
-16
50
127
174
163
161
234
324
390
445
466
474
523
557
508
392
230
58
-49
-102
-161
-202
-188
-161
-142
-99
-52
-52
-80
-87
-76
-96
-152
-158
-124
-186
-289
-279
-256
-294
-375
-528
-76
1455
2227
650
-1206
-1161
-390
-241
-236
-125
-171
-204
-140
-158
-205
-174
-137
-117
-90
-100
-108
-26
69
92
131
228
297
335
388
412
408
429
439
379
272
150
38
-45
-108
-146
-142
-124
-119
-108
-73
-36
-38
-97
-153
-164
-201
-276
-260
-177
-191
-264
-344
-320
427
1734
1800
138
-1113
-893
-475
-453
-339
-187
-191
-175
-127
-122
-84
-21
6
34
79
123
163
198
234
280
311
322
353
408
467
543
617
645
619
519
329
128
3
-96
-224
-284
-206
-141
-238
-375
-389
-370
-435
-504
-499
-474
-467
-437
-405
-428
-464
-551
-613
6
1301
1531
-85
-1501
-1253
-534
-347
-257
-102
-91
-69
25
36
21
88
167
206
218
225
276
348
354
325
349
391
424
488
522
477
483
594
642
551
402
256
159
75
-98
-247
-196
-107
-188
-320
-334
-270
-215
-190
-214
-265
-251
-180
-149
-145
-141
-152
-127
-105
117
1052
1949
1117
-839
-1561
-894
-386
-311
-205
-161
-223
-221
-186
-186
-177
-113
-11
36
4
3
49
44
10
27
65
97
152
208
239
279
338
352
263
110
4
-41
-113
-216
-288
-332
-351
-322
-288
-298
-301
-239
-167
-173
-207
-178
-131
-108
-49
3
-5
-52
-223
-89
1167
2522
1782
-329
-1079
-412
-55
-114
-25
23
-24
12
38
37
84
99
69
76
94
87
73
39
3
24
92
139
150
159
182
207
232
253
235
158
73
26
-16
-73
-98
-82
-85
-136
-182
-192
-206
-244
-242
-217
-243
-246
-172
-182
-294
-396
-543
-272
1050
2127
1052
-990
-1489
-770
-421
-413
-295
-235
-229
-198
-249
-301
-246
-195
-169
-96
-42
-28
18
51
34
88
228
318
357
434
526
597
657
669
583
435
311
238
161
65
22
28
-17
-94
-100
-70
-107
-180
-203
-186
-197
-236
-237
-227
-287
-345
-414
-500
42
1332
1639
75
-1351
-1170
-550
-430
-356
-183
-150
-137
-56
-23
-18
46
123
146
137
137
154
194
251
285
275
255
250
248
254
302
375
414
418
415
357
217
96
36
-51
-149
-173
-197
-290
-331
-288
-312
-418
-444
-374
-350
-375
-368
-391
-452
-473
-554
-409
616
1710
1076
-705
-1355
-768
-381
-337
-175
-62
-73
-25
47
98
161
191
201
263
323
338
380
443
428
370
394
490
524
497
559
671
645
557
551
482
284
155
95
-33
-147
-173
-228
-342
-405
-385
-348
-345
-349
-327
-332
-370
-341
-290
-321
-331
-314
-255
404
1520
1394
-367
-1575
-1167
-517
-371
-260
-136
-143
-132
-90
-41
16
-31
-71
78
174
71
64
200
220
155
163
207
240
280
323
370
409
408
347
223
74
-29
-84
-154
-236
-279
-298
-333
-354
-327
-280
-272
-320
-340
-287
-257
-269
-234
-215
-259
-334
-482
-163
1217
2238
1106
-752
-994
-299
-160
-242
-90
-28
-64
0
54
13
-18
31
106
131
111
80
40
16
41
93
157
230
268
245
225
251
288
293
260
224
202
156
86
54
45
-15
-81
-43
45
33
-76
-147
-152
-180
-225
-219
-216
-256
-290
-415
-360
658
1967
1477
-552
-1515
-933
-436
-403
-289
-182
-220
-249
-244
-244
-247
-230
-166
-108
-97
-56
17
47
64
128
201
232
245
295
372
440
516
576
522
370
258
209
157
95
38
0
-15
-72
-161
-157
-110
-161
-222
-217
-218
-189
-149
-204
-280
-387
-336
566
1761
1317
-533
-1367
-776
-303
-278
-192
-118
-123
-64
-6
13
41
23
-4
66
156
185
209
234
227
235
263
281
297
292
287
370
464
456
434
398
207
6
-16
-35
-165
-230
-225
-298
-381
-372
-373
-444
-472
-433
-428
-431
-397
-418
-486
-592
-670
-65
1300
1642
67
-1348
-1110
-468
-392
-364
-212
-175
-149
-97
-90
-42
30
40
75
156
173
169
247
329
318
279
292
341
391
422
415
423
474
467
375
298
233
129
45
-5
-94
-209
-273
-290
-295
-235
-105
-55
-128
-186
-184
-165
-150
-162
-167
-178
-127
549
1731
1703
-85
-1463
-1144
-448
-279
-171
-28
-57
-71
-7
-6
-11
30
38
51
120
160
154
178
196
185
221
275
257
223
258
309
321
312
265
152
22
-63
-102
-132
-175
-229
-270
-282
-278
-270
-253
-226
-201
-210
-267
-292
-240
-219
-231
-274
-468
-252
1016
1946
798
-1004
-1215
-478
-207
-170
-39
-48
-81
-9
9
-8
31
52
52
97
148
164
177
196
189
167
174
195
198
200
212
209
194
175
127
63
25
12
3
-18
-60
-94
-99
-98
-107
-137
-179
-175
-141
-159
-179
-169
-217
-281
-386
-475
221
1707
1920
41
-1476
-1115
-373
-261
-208
-74
-98
-119
-66
-49
-26
24
33
13
5
17
55
105
137
159
197
233
224
184
189
243
268
234
174
98
28
-2
-2
-11
-40
-86
-111
-83
-40
-42
-79
-99
-118
-158
-153
-129
-194
-265
-317
-430
-28
1230
1801
451
-1113
-1113
-446
-259
-255
-172
-159
-174
-182
-198
-142
-52
-20
-13
12
68
149
195
192
216
278
313
335
370
375
345
330
306
245
196
165
95
15
-11
-7
-31
-84
-129
-166
-196
-199
-188
-177
-177
-209
-235
-233
-264
-322
-427
-404
368
1530
1319
-379
-1367
-935
-452
-394
-277
-165
-193
-166
-95
-99
-109
-67
-16
7
6
7
25
76
160
225
248
297
383
438
488
573
635
653
637
506
279
136
121
83
-10
-52
-68
-134
-162
-102
-89
-154
-171
-153
-183
-230
-271
-307
-374
-498
-137
1106
1818
546
-1243
-1454
-697
-340
-267
-135
-93
-109
-89
-79
-68
-44
-40
-39
-20
16
54
65
61
79
112
157
202
219
247
328
401
398
321
226
178
157
59
-129
-289
-339
-317
-299
-299
-270
-225
-250
-325
-354
-348
-341
-312
-283
-270
-333
-464
-51
1196
1788
532
-990
-1057
-452
-266
-245
-132
-77
-32
45
68
71
132
213
208
157
208
301
288
260
292
278
254
321
384
388
415
439
405
358
289
156
14
-117
-246
-292
-251
-226
-214
-180
-179
-198
-177
-150
-139
-137
-156
-149
-118
-114
-92
-153
-173
641
1953
1723
-176
-1230
-726
-305
-335
-111
110
-7
-80
18
25
-71
-93
-37
-26
-55
-35
-25
-76
-61
32
58
32
41
46
29
31
36
32
18
-42
-125
-166
-196
-257
-300
-303
-306
-310
-284
-237
-213
-220
-204
-168
-160
-126
-54
-39
-84
-232
-298
515
1915
1832
-15
-1121
-583
-13
-14
39
138
103
120
182
172
136
111
96
91
86
93
112
106
86
96
126
144
138
118
109
124
151
157
130
99
92
75
41
42
62
0
-106
-122
-96
-149
-197
-173
-206
-285
-243
-161
-171
-210
-391
-514
363
1814
1557
-486
-1578
-978
-429
-425
-321
-203
-264
-284
-229
-183
-116
-56
-45
-29
27
66
68
93
149
165
140
152
197
232
294
383
403
335
251
163
83
51
20
-29
-19
16
-23
-76
-69
-67
-109
-145
-149
-132
-95
-85
-126
-142
-209
-330
112
1186
1373
8
-1143
-929
-394
-284
-209
-66
-48
-60
-24
9
51
94
106
112
135
162
195
233
263
295
325
313
286
321
400
433
435
433
349
227
203
167
-8
-146
-144
-166
-252
-292
-293
-319
-355
-357
-334
-343
-368
-362
-359
-347
-363
-482
-139
1084
1724
424
-1211
-1258
-552
-344
-332
-204
-171
-164
-89
-56
-60
-48
-21
47
120
120
90
112
194
279
288
253
279
313
289
318
400
381
298
255
197
95
22
-28
-90
-158
-225
-264
-239
-207
-231
-245
-192
-153
-185
-184
-143
-175
-189
-137
-158
219
1382
1893
458
-1254
-1310
-549
-246
-166
-44
-36
-25
57
84
86
109
116
132
167
185
196
212
224
241
242
221
235
275
275
271
293
250
113
1
-26
-33
-77
-142
-179
-179
-185
-213
-219
-189
-187
-231
-253
-243
-244
-225
-207
-242
-241
-294
-406
188
1505
1629
-83
-1347
-934
-267
-163
-100
0
-21
-1
43
13
29
99
113
107
137
149
121
87
71
89
124
130
126
162
194
164
108
61
7
-40
-50
-45
-52
-57
-71
-121
-160
-141
-105
-109
-132
-137
-158
-184
-142
-131
-236
-258
-294
-488
98
1742
2181
298
-1345
-1058
-362
-275
-213
-77
-112
-141
-117
-136
-137
-110
-104
-86
-44
-1
49
100
126
144
173
194
198
206
224
236
223
178
105
24
-26
-38
-64
-103
-97
-60
-51
-40
-12
-33
-77
-51
-23
-72
-89
-77
-145
-205
-299
-375
346
1685
1610
-215
-1337
-862
-333
-288
-173
-95
-168
-109
15
27
47
124
161
169
193
219
246
292
337
352
340
316
292
289
306
309
286
267
251
191
118
116
144
93
-14
-74
-76
-68
-79
-115
-140
-131
-150
-214
-203
-139
-202
-321
-387
-399
122
1219
1348
-161
-1372
-1075
-498
-428
-359
-213
-221
-228
-175
-187
-205
-163
-137
-147
-132
-91
-57
