# session 39
-33
-32
-24
-94
-191
-184
-130
-130
-137
-118
-113
-122
-116
-105
-107
-111
-105
-102
-104
-103
-96
-94
-95
-92
-88
-87
-85
-83
-80
-79
-79
-71
-62
-67
-68
-51
-40
-44
-29
-9
-31
-69
-75
-76
-95
-87
-69
-98
-96
-53
-86
-117
-119
-136
469
1790
1922
45
-1423
-987
-210
-107
-49
94
66
50
105
101
98
133
146
154
183
206
219
240
268
301
336
378
435
503
566
619
667
707
709
634
484
303
128
-23
-143
-223
-263
-280
-294
-306
-303
-288
-277
-272
-266
-258
-249
-241
-233
-227
-225
-225
-223
-217
-214
-214
-214
-214
-214
-209
-203
-200
-198
-190
-181
-178
-178
-174
-168
-167
-164
-160
-159
-149
-131
-132
-139
-116
-93
-99
-89
-56
-62
-105
-119
-112
-122
-116
-98
-121
-122
-79
-110
-149
-136
-157
339
1617
1956
246
-1357
-1079
-262
-104
-64
77
59
41
100
103
100
137
152
156
180
201
221
249
274
301
339
383
435
497
562
623
676
715
723
672
548
376
197
41
-84
-174
-229
-257
-266
-270
-272
-264
-251
-245
-242
-232
-222
-218
-215
-209
-203
-201
-202
-200
-195
-193
-195
-193
-188
-188
-190
-183
-174
-171
-167
-158
-158
-164
-161
-153
-153
-149
-135
-124
-122
-112
-97
-99
-103
-81
-63
-87
-114
-111
-116
-129
-110
-103
-129
-108
-89
-139
-154
-166
20
1008
2033
1222
-793
-1446
-647
-140
-120
5
83
39
75
118
101
118
157
168
182
208
230
259
292
319
350
399
458
522
589
657
720
771
798
764
644
457
252
69
-75
-182
-254
-292
-310
-319
-323
-323
-316
-306
-300
-290
-276
-266
-259
-254
-249
-241
-232
-230
-235
-235
-229
-224
-223
-220
-215
-208
-205
-204
-199
-193
-189
-178
-165
-161
-154
-139
-130
-118
-94
-95
-133
-153
-142
-147
-158
-137
-130
-150
-126
-115
-166
-174
-191
-22
971
2035
1242
-812
-1497
-675
-137
-117
0
77
30
63
111
101
118
149
158
178
205
221
242
275
308
346
394
449
513
587
657
715
763
785
741
611
425
233
62
-78
-180
-244
-279
-294
-297
-298
-294
-281
-271
-267
-260
-248
-233
-220
-217
-221
-216
-205
-198
-195
-190
-183
-180
-184
-187
-184
-178
-174
-168
-164
-164
-160
-153
-147
-136
-126
-125
-121
-104
-94
-89
-63
-46
-78
-117
-115
-110
-127
-121
-109
-127
-107
-84
-136
-154
-162
-88
741
1957
1567
-448
-1469
-781
-151
-124
-37
71
28
41
92
82
90
124
132
141
168
192
214
238
263
295
335
379
429
485
543
600
650
679
667
587
438
261
100
-34
-139
-208
-247
-269
-279
-277
-274
-269
-258
-250
-248
-242
-229
-218
-212
-206
-200
-198
-201
-203
-195
-185
-184
-192
-195
-187
-179
-180
-180
-172
-162
-156
-156
-151
-134
-127
-130
-115
-92
-92
-88
-59
-57
-98
-124
-119
-124
-134
-119
-119
-131
-98
-94
-143
-150
-174
78
1160
2040
970
-995
-1406
-570
-145
-116
22
69
22
66
99
80
103
140
153
168
193
221
248
266
289
335
388
434
484
544
611
672
720
740
703
586
414
231
63
-79
-182
-243
-276
-295
-302
-302
-303
-302
-294
-279
-265
-258
-254
-248
-241
-236
-230
-220
-217
-220
-219
-212
-213
-219
-213
-200
-197
-194
-180
-168
-172
-170
-149
-141
-146
-127
-101
-116
-150
-155
-150
-161
-151
-134
-155
-153
-116
-149
-188
-198
-171
483
1758
1812
-54
-1475
-1044
-281
-157
-81
63
41
36
95
93
92
132
154
166
192
214
236
269
305
341
382
435
503
578
646
708
766
804
782
671
491
289
98
-57
-164
-236
-288
-314
-311
-306
-315
-315
-296
-281
-274
-263
-260
-262
-243
-219
-229
-248
-229
-199
-199
-210
-208
-202
-200
-198
-197
-198
-195
-184
-169
-160
-150
-131
-126
-133
-115
-93
-124
-168
-154
-133
-155
-155
-137
-152
-139
-107
-155
-197
-230
-163
678
1978
1704
-348
-1524
-885
-198
-150
-57
73
22
21
94
94
83
120
152
159
169
200
233
256
288
331
368
414
485
565
651
734
792
818
790
672
478
266
70
-93
-205
-273
-295
-297
-321
-344
-329
-312
-311
-291
-272
-275
-267
-244
-244
-257
-250
-233
-236
-251
-244
-219
-208
-211
-215
-209
-204
-213
-208
-166
-133
-135
-136
-127
-121
-117
-127
-146
-144
-136
-150
-160
-144
-140
-152
-133
-134
-183
-187
-225
-154
767
2068
1657
-448
-1525
-822
-163
-141
-50
87
52
51
103
99
102
127
138
166
207
225
235
261
291
332
395
456
516
598
674
727
790
837
793
650
456
254
70
-85
-203
-279
-314
-322
-324
-320
-307
-301
-302
-292
-284
-285
-273
-259
-254
-242
-232
-237
-237
-229
-229
-230
-222
-218
-215
-208
-207
-209
-203
-194
-185
-175
-166
-153
-134
-129
-136
-121
-99
-116
-154
-158
-148
-167
-169
-141
-141
-138
-115
-151
-177
-196
-214
449
1829
1941
10
-1459
-995
-213
-110
-43
89
44
35
109
109
101
135
154
164
187
204
221
255
296
329
364
419
486
553
628
706
773
821
812
706
524
323
133
-30
-150
-224
-269
-300
-317
-316
-306
-299
-294
-284
-273
-268
-269
-265
-254
-250
-254
-250
-238
-231
-233
-237
-231
-221
-220
-221
-214
-203
-190
-176
-175
-182
-166
-142
-146
-153
-126
-110
-135
-157
-152
-157
-165
-150
-151
-163
-135
-130
-169
-192
-224
99
1217
1966
797
-1058
-1355
-560
-183
-133
17
61
29
78
107
100
130
155
164
193
221
237
263
300
336
381
439
503
573
649
724
790
843
849
762
586
377
176
3
-131
-226
-283
-311
-325
-332
-330
-324
-315
-305
-296
-285
-271
-265
-265
-258
-245
-238
-236
-230
-225
-227
-229
-224
-218
-214
-211
-202
-187
-179
-178
-172
-171
-176
-157
-129
-141
-172
-175
-170
-179
-166
-152
-170
-156
-123
-166
-205
-231
-179
593
1869
1721
-213
-1445
-909
-227
-153
-66
64
34
38
93
87
91
132
153
164
182
203
233
264
293
338
392
442
504
582
657
726
791
825
784
649
452
242
51
-98
-199
-264
-305
-324
-330
-331
-324
-313
-302
-293
-286
-281
-267
-251
-241
-236
-233
-229
-223
-218
-220
-218
-208
-203
-207
-208
-202
-189
-176
-173
-169
-148
-136
-143
-132
-107
-117
-153
-161
-151
-160
-158
-138
-148
-146
-111
-142
-180
-192
-248
271
1676
2150
422
-1325
-1127
-297
-134
-100
55
41
17
88
97
83
118
141
147
173
200
219
245
273
303
348
406
464
522
595
674
736
772
764
672
497
299
119
-39
-160
-230
-267
-294
-310
-310
-302
-297
-291
-278
-268
-267
-263
-251
-240
-237
-234
-228
-223
-225
-226
-224
-218
-213
-211
-212
-204
-193
-195
-196
-179
-167
-168
-154
-134
-136
-132
-103
-99
-139
-163
-153
-158
-165
-144
-143
-157
-124
-124
-175
-180
-231
-4
1159
2171
1119
-918
-1359
-528
-140
-136
9
61
12
57
92
80
107
133
139
167
199
217
237
266
301
347
397
451
521
598
665
731
796
822
761
602
391
190
23
-114
-217
-273
-299
-314
-318
-317
-320
-315
-296
-282
-281
-273
-262
-262
-259
-248
-241
-241
-241
-239
-230
-219
-221
-227
-219
-206
-200
-190
-182
-182
-172
-155
-152
-149
-124
-111
-140
-167
-159
-153
-165
-158
-146
-155
-139
-130
-171
-195
-228
-37
965
2031
1303
-700
-1448
-711
-184
-146
-19
71
32
64
109
102
121
150
156
179
217
236
256
289
328
371
420
478
550
630
706
779
841
860
791
628
412
197
10
-133
-227
-282
-311
-325
-331
-331
-326
-314
-303
-298
-294
-281
-267
-259
-256
-253
-246
-237
-233
-234
-232
-227
-225
-225
-222
-216
-211
-204
-200
-198
-189
-171
-166
-168
-151
-135
-140
-131
-100
-104
-142
-153
-142
-153
-158
-135
-137
-141
-109
-126
-168
-174
-223
151
1410
2118
728
-1130
-1229
-398
-122
-99
50
66
32
90
106
92
130
160
160
179
208
228
253
283
314
353
404
466
536
608
675
738
792
806
736
574
371
173
3
-128
-211
-260
-292
-308
-308
-301
-293
-285
-277
-267
-257
-251
-245
-238
-234
-231
-227
-224
-223
-220
-217
-215
-211
-207
-206
-200
-187
-180
-187
-190
-181
-176
-173
-161
-150
-148
-131
-107
-111
-114
-84
-70
-105
-133
-124
-126
-141
-125
-118
-139
-116
-101
-154
-168
-196
-72
897
2072
1427
-653
-1472
-687
-124
-116
-9
79
34
76
132
101
89
121
142
164
194
211
228
258
295
330
370
424
488
549
603
663
720
747
723
626
446
240
75
-53
-164
-234
-259
-278
-296
-300
-294
-281
-264
-262
-271
-263
-233
-220
-238
-244
-221
-206
-213
-211
-199
-198
-206
-204
-193
-189
-190
-186
-177
-175
-178
-169
-142
-134
-151
-145
-113
-110
-117
-86
-70
-106
-130
-121
-125
-136
-119
-114
-134
-132
-112
-96
-108
-132
220
1193
1656
419
-1261
-1427
-560
-100
-51
37
83
83
131
148
135
155
177
190
222
240
228
239
290
336
355
383
447
527
593
640
678
711
716
666
552
392
213
31
-121
-184
-179
-211
-293
-309
-247
-233
-279
-289
-260
-243
-225
-211
-212
-213
-233
-259
-224
-173
-189
-224
-219
-206
-196
-180
-189
-219
-214
-178
-166
-174
-162
-142
-148
-142
-106
-88
-106
-115
-93
-82
-121
-164
-152
-121
-124
-144
-139
-94
-77
-130
-166
-200
-83
735
1742
1211
-639
-1439
-711
-100
-66
13
112
68
66
116
117
113
138
161
165
176
220
260
268
275
289
322
404
475
488
528
616
663
652
618
545
422
262
85
-66
-143
-183
-241
-282
-261
-237
-259
-264
-219
-195
-232
-261
-222
-181
-199
-209
-179
-184
-220
-216
-184
-172
-168
-156
-163
-186
-177
-146
-165
-200
-155
-97
-113
-134
-122
-118
-102
-83
-104
-88
-21
-35
-106
-98
-89
-155
-147
-46
-53
-144
-127
-80
-126
-153
-86
290
1211
1696
513
-1166
-1311
-413
-30
-124
-61
133
233
127
-55
-30
105
109
75
96
152
292
395
288
172
251
366
417
512
610
573
502
563
666
634
485
332
199
41
-124
-210
-212
-244
-317
-307
-246
-261
-303
-285
-269
-272
-245
-224
-233
-223
-220
-255
-259
-211
-180
-182
-186
-184
-184
-207
-232
-200
-125
-100
-137
-131
-67
-70
-112
-66
-23
-104
-175
-148
-144
-159
-111
-80
-108
-93
-62
-92
-154
-196
126
1049
1519
423
-1085
-1266
-568
-166
-27
120
139
91
107
125
133
154
137
132
236
321
251
176
219
277
316
380
412
404
436
504
557
580
559
497
399
262
128
30
-64
-159
-205
-208
-215
-235
-237
-228
-227
-214
-178
-172
-198
-187
-148
-152
-180
-181
-173
-171
-163
-167
-181
-156
-125
-151
-180
-160
-141
-147
-141
-136
-146
-137
-105
-96
-98
-75
-56
-70
-92
-119
-160
-176
-148
-120
-126
-128
-96
-106
-153
-155
-136
180
1086
1564
461
-1034
-1152
-433
-110
-62
41
49
18
71
103
88
100
136
157
156
158
189
227
243
256
289
326
358
400
454
503
544
585
598
557
475
369
231
80
-33
-100
-148
-186
-202
-200
-196
-200
-209
-212
-200
-176
-163
-169
-173
-162
-156
-168
-179
-172
-164
-162
-156
-146
-148
-152
-126
-95
-116
-141
-103
-77
-125
-147
-103
-94
-121
-119
-135
-181
-164
-123
-159
-181
-128
-126
-188
-212
-60
606
1480
1183
-465
-1521
-1057
-354
-187
-92
42
-9
-97
-43
62
84
43
63
123
103
75
136
165
134
237
451
490
351
310
409
510
584
595
574
631
556
190
-96
-110
-147
-269
-280
-207
-207
-286
-280
-161
-173
-301
-270
-204
-282
-258
-104
-85
-128
-96
-116
-170
-110
-31
-71
-134
-101
-41
-41
-46
-18
-20
-57
-81
-109
-137
-110
-79
-93
-62
-10
-97
-219
-125
57
20
-117
-81
41
319
1040
1411
276
-1383
-1626
-736
-186
-86
42
102
59
92
155
169
186
220
233
220
199
193
218
260
289
307
334
368
412
457
470
479
525
556
533
474
348
152
-11
-85
-127
-183
-229
-230
-224
-247
-257
-237
-231
-224
-195
-184
-184
-161
-165
-201
-189
-146
-161
-195
-168
-130
-148
-167
-142
-131
-151
-137
-106
-120
-138
-106
-79
-103
-139
-138
-125
-143
-164
-150
-130
-119
-127
-158
-161
-183
-99
608
1516
1096
-499
-1231
-669
-172
-123
-45
30
1
21
67
58
56
82
101
110
134
171
190
185
201
251
289
313
359
411
449
492
547
583
570
496
375
228
76
-52
-135
-183
-222
-255
-262
-245
-234
-243
-245
-229
-207
-192
-189
-198
-205
-206
-203
-191
-177
-172
-172
-169
-161
-148
-139
-143
-148
-145
-140
-137
-134
-133
-137
-143
-146
-137
-114
-116
-140
-130
-121
-153
-185
-211
75
1012
1655
706
-872
-1171
-492
-143
-119
-5
69
52
53
63
85
120
127
133
162
180
191
218
244
264
301
349
385
423
491
569
619
644
653
604
481
323
144
-43
-174
-233
-284
-327
-317
-295
-305
-301
-266
-258
-270
-259
-249
-256
-238
-218
-238
-253
-230
-217
-226
-218
-204
-210
-211
-192
-171
-158
-149
-152
-163
-157
-139
-146
-172
-176
-156
-156
-188
-191
-138
-126
-177
-189
-204
-94
672
1636
1182
-565
-1421
-811
-192
-91
1
92
31
-16
18
76
135
161
164
196
241
253
242
253
293
339
392
451
498
537
593
670
730
733
698
635
494
270
58
-73
-149
-203
-222
-194
-187
-241
-262
-201
-150
-153
-168
-186
-197
-182
-155
-108
-68
-101
-154
-138
-107
-92
-45
-52
-167
-198
-55
17
-84
-102
-9
-69
-183
-96
-29
-163
-224
-141
-133
-150
-121
-165
-193
-134
-103
270
1153
1223
-327
-1696
-1330
-393
-151
-154
-18
-13
