# session 21
-8
-7
-6
2
20
45
70
92
111
129
151
178
205
232
267
313
371
441
525
615
696
753
778
767
706
590
440
290
152
31
-64
-125
-156
-175
-188
-196
-195
-186
-177
-169
-159
-148
-141
-133
-124
-118
-118
-119
-120
-119
-117
-119
-125
-129
-130
-130
-130
-130
-132
-134
-124
-118
-134
-142
-122
-109
-115
-109
-102
-105
-95
-92
-97
-73
-77
-122
-154
-272
-137
916
1925
1054
-836
-1320
-550
-145
-155
-45
17
-17
20
57
54
81
113
125
151
191
231
285
356
436
519
596
654
684
678
624
517
376
230
97
-20
-110
-169
-207
-231
-242
-245
-242
-233
-225
-218
-210
-199
-190
-185
-179
-171
-167
-163
-157
-155
-157
-156
-152
-150
-150
-148
-146
-144
-143
-142
-140
-137
-136
-134
-128
-123
-120
-115
-111
-109
-104
-101
-98
-96
-91
-85
-79
-76
-74
-68
-63
-64
-65
-66
-65
-55
-53
-70
-74
-51
-38
-42
-43
-46
-41
-34
-46
-30
-5
-56
-107
-170
-222
417
1695
1743
-7
-1241
-790
-151
-114
-75
41
16
22
84
82
80
118
142
158
185
216
261
319
380
452
536
609
655
680
682
640
547
423
289
156
40
-49
-117
-166
-197
-211
-215
-213
-212
-211
-200
-186
-176
-169
-164
-161
-160
-163
-165
-160
-152
-153
-156
-154
-156
-164
-170
-170
-169
-163
-155
-153
-153
-149
-144
-142
-141
-138
-133
-125
-117
-115
-118
-116
-110
-105
-100
-94
-88
-90
-94
-88
-83
-87
-83
-75
-85
-93
-74
-60
-67
-69
-65
-57
-47
-57
-56
-29
-55
-97
-129
-192
219
1347
1710
268
-1177
-993
-267
-112
-94
35
43
28
82
97
98
133
156
171
206
243
279
326
389
468
551
622
673
701
699
654
554
413
268
138
23
-73
-142
-183
-205
-219
-228
-226
-220
-217
-212
-203
-194
-186
-179
-174
-169
-163
-158
-155
-153
-154
-155
-154
-158
-164
-163
-160
-161
-164
-163
-159
-156
-152
-147
-142
-139
-136
-134
-132
-129
-122
-115
-114
-117
-112
-103
-105
-103
-84
-74
-80
-81
-81
-81
-71
-77
-80
-50
-64
-115
-151
-264
-18
1139
1962
821
-965
-1174
-399
-115
-130
-11
24
-9
38
68
65
96
126
138
165
200
236
286
351
425
510
594
659
699
707
669
572
436
292
156
33
-70
-144
-191
-214
-225
-232
-237
-236
-227
-220
-214
-205
-195
-187
-181
-174
-168
-163
-159
-157
-155
-154
-151
-150
-153
-154
-148
-144
-151
-155
-148
-142
-142
-136
-128
-127
-128
-124
-118
-112
-110
-111
-105
-97
-102
-103
-89
-82
-90
-90
-87
-85
-66
-65
-86
-62
-48
-94
-132
-223
-95
886
1882
1091
-774
-1318
-568
-135
-137
-29
43
8
40
81
75
96
129
147
176
214
252
300
365
446
542
637
712
761
777
748
658
514
348
190
52
-63
-145
-195
-225
-242
-252
-264
-270
-266
-257
-247
-235
-224
-214
-205
-197
-191
-184
-177
-173
-174
-177
-176
-173
-171
-171
-172
-172
-170
-170
-170
-163
-149
-141
-146
-149
-139
-131
-136
-124
-91
-83
-105
-119
-121
-115
-108
-117
-108
-83
-111
-144
-206
-312
186
1451
1751
138
-1319
-1047
-306
-167
-135
-1
-2
-12
47
63
66
103
129
144
176
217
263
324
396
481
573
659
723
755
747
680
554
394
235
89
-36
-127
-183
-215
-229
-235
-241
-246
-244
-237
-229
-219
-208
-195
-182
-174
-170
-164
-157
-156
-155
-150
-147
-148
-148
-147
-149
-150
-147
-146
-146
-143
-140
-134
-122
-117
-123
-113
-89
-87
-95
-72
-48
-62
-85
-91
-90
-80
-83
-92
-70
-71
-112
-143
-265
-176
841
1965
1261
-663
-1312
-586
-138
-153
-57
15
-23
6
49
44
64
100
115
141
180
213
255
316
391
478
566
639
688
709
686
606
478
331
189
62
-47
-127
-174
-200
-217
-227
-228
-226
-223
-218
-210
-200
-190
-180
-172
-166
-157
-148
-144
-142
-137
-128
-124
-128
-131
-130
-127
-125
-125
-127
-128
-125
-119
-115
-113
-113
-114
-109
-101
-100
-99
-89
-90
-106
-105
-86
-72
-63
-56
-60
-71
-72
-70
-75
-65
-26
1
-19
-54
-73
-73
-58
-62
-76
-45
-40
-92
-109
-189
-111
816
1873
1203
-639
-1260
-574
-156
-153
-42
13
-42
2
67
60
78
134
155
146
162
203
237
282
366
448
512
588
659
687
682
640
529
374
230
119
20
-84
-166
-199
-218
-250
-267
-260
-256
-259
-256
-252
-254
-249
-227
-214
-219
-209
-190
-203
-213
-185
-182
-224
-230
-187
-178
-201
-192
-174
-188
-186
-160
-181
-217
-177
-131
-143
-122
-68
-89
-125
-100
-100
-127
-109
-91
-83
-74
-102
-110
-197
-349
299
1807
2011
75
-1434
-1016
-280
-207
-149
16
13
10
76
83
78
115
145
165
203
253
312
392
489
583
674
774
867
927
933
857
689
472
272
108
-37
-163
-227
-240
-263
-292
-282
-274
-300
-310
-301
-304
-280
-231
-233
-264
-247
-210
-204
-200
-188
-194
-206
-203
-190
-186
-187
-181
-175
-186
-195
-182
-166
-170
-173
-150
-127
-130
-132
-110
-99
-118
-137
-142
-133
-131
-147
-142
-125
-146
-148
-221
-381
141
1569
2009
290
-1467
-1353
-519
-256
-186
-30
-13
-24
46
71
69
104
134
150
183
228
280
347
430
536
665
790
883
947
968
910
763
565
358
159
-10
-129
-205
-255
-282
-288
-292
-303
-311
-310
-304
-294
-282
-271
-259
-245
-231
-222
-217
-212
-206
-199
-196
-193
-183
-172
-170
-165
-144
-134
-152
-154
-127
-123
-144
-154
-162
-167
-165
-172
-156
-135
-172
-190
-259
-403
202
1752
2125
162
-1643
-1354
-446
-239
-183
-20
-21
-38
29
46
51
96
126
147
188
235
290
365
458
573
705
827
921
977
979
898
733
526
318
120
-51
-175
-248
-286
-305
-323
-340
-344
-338
-335
-331
-317
-302
-292
-280
-265
-253
-244
-237
-231
-225
-220
-216
-213
-208
-196
-182
-180
-181
-167
-155
-168
-168
-132
-118
-144
-161
-164
-163
-150
-153
-154
-123
-142
-183
-217
-388
-130
1297
2370
1002
-1247
-1581
-622
-219
-205
-42
11
-28
30
68
63
101
137
151
188
241
291
351
428
522
641
766
866
932
960
925
808
630
435
240
59
-85
-181
-238
-269
-284
-296
-305
-304
-296
-286
-275
-268
-267
-259
-243
-232
-232
-234
-233
-226
-215
-205
-199
-197
-197
-198
-201
-199
-184
-170
-171
-170
-151
-139
-148
-140
-111
-108
-128
-139
-148
-150
-137
-137
-127
-105
-128
-157
-228
-329
219
1546
1814
35
-1579
-1294
-438
-229
-172
-3
15
-1
61
83
87
129
162
180
215
260
308
369
450
549
661
763
842
889
897
844
716
530
334
164
25
-92
-184
-239
-260
-268
-275
-275
-271
-266
-257
-247
-239
-229
-216
-204
-197
-190
-183
-181
-184
-188
-190
-190
-189
-192
-197
-194
-179
-172
-179
-171
-141
-134
-150
-140
-112
-116
-140
-151
-148
-138
-139
-144
-123
-125
-154
-157
-283
-317
574
1883
1508
-540
-1638
-1000
-306
-203
-107
9
-8
8
59
63
85
127
143
164
205
243
289
359
445
545
656
759
834
879
881
809
657
470
286
115
-35
-146
-212
-250
-272
-286
-291
-289
-284
-280
-274
-259
-243
-234
-227
-215
-207
-205
-203
-197
-194
-190
-187
-189
-193
-192
-190
-191
-191
-179
-161
-159
-158
-132
-112
-122
-121
-94
-94
-119
-133
-136
-131
-129
-135
-118
-105
-136
-142
-228
-364
282
1763
2001
81
-1560
-1233
-387
-197
-140
4
2
-7
53
65
70
110
139
161
200
243
294
360
438
534
646
753
840
899
919
874
751
573
381
199
35
-97
-187
-243
-274
-287
-291
-291
-285
-276
-269
-262
-254
-246
-237
-228
-220
-214
-208
-206
-204
-198
-195
-197
-195
-191
-190
-190
-185
-181
-183
-182
-177
-173
-167
-157
-150
-146
-133
-127
-137
-133
-105
-98
-107
-82
-51
-66
-97
-108
-108
-100
-102
-111
-89
-83
-114
-142
-296
-275
775
2129
1550
-647
-1613
-836
-201
-177
-78
38
5
24
83
89
111
149
163
187
229
268
319
391
470
558
663
767
841
881
896
855
729
547
364
195
35
-100
-189
-234
-261
-280
-289
-288
-285
-278
-266
-256
-250
-246
-242
-237
-231
-224
-218
-215
-216
-216
-215
-214
-212
-207
-202
-200
-200
-200
-198
-195
-189
-184
-178
-164
-153
-156
-150
-122
-114
-122
-99
-69
-86
-119
-127
-120
-116
-121
-113
-86
-96
-116
-144
-314
-181
933
1906
887
-1098
-1548
-680
-194
-163
-28
56
25
63
107
103
130
170
188
216
259
301
351
420
505
602
706
800
870
907
897
819
669
480
290
120
-27
-139
-206
-241
-260
-271
-274
-273
-266
-258
-251
-244
-233
-226
-225
-221
-214
-210
-209
-205
-202
-202
-201
-201
-201
-202
-200
-197
-194
-191
-188
-181
-166
-159
-168
-159
-129
-123
-133
-109
-82
-102
-132
-137
-132
-127
-129
-124
-102
-114
-132
-153
-327
-217
932
2057
1144
-955
-1587
-741
-193
-159
-49
29
-3
34
83
83
107
144
162
192
234
272
323
391
471
570
678
774
844
884
883
816
674
490
306
136
-17
-135
-209
-251
-273
-286
-291
-287
-277
-270
-265
-254
-243
-236
-233
-227
-221
-217
-215
-214
-210
-205
-203
-203
-202
-199
-196
-195
-194
-193
-189
-183
-183
-179
-159
-148
-159
-148
-111
-108
-124
-97
-65
-86
-119
-125
-121
-113
-115
-119
-95
-96
-129
-159
-315
-252
841
2090
1339
-830
-1618
-778
-178
-153
-49
43
10
42
94
93
117
156
171
198
241
282
335
402
476
565
669
766
838
877
878
823
700
526
343
170
13
-115
-198
-244
-269
-281
-285
-281
-270
-259
-253
-246
-239
-236
-233
-227
-219
-211
-207
-208
-210
-208
-205
-208
-211
-208
-198
-191
-193
-199
-199
-192
-188
-190
-182
-163
-159
-165
-141
-109
-121
-132
-98
-80
-110
-132
-126
-116
-119
-133
-116
-90
-126
-152
-214
-364
136
1550
1958
173
-1533
-1254
-365
-179
-149
17
30
8
75
101
109
151
175
189
228
271
311
367
441
534
640
740
824
886
911
878
782
626
434
246
83
-54
-160
-224
-253
-270
-284
-288
-279
-267
-259
-254
-250
-241
-230
-226
-224
-218
-213
-214
-214
-209
-208
-213
-215
-213
-211
-211
-211
-208
-199
-189
-189
-188
-164
-146
-156
-147
-110
-104
-131
-145
-148
-145
-143
-154
-139
-118
-151
-166
-241
-384
170
1540
1777
-39
-1575
-1198
-350
-182
-138
13
15
6
73
93
98
137
164
185
225
265
308
370
449
542
647
752
838
894
913
877
766
587
386
202
39
-96
-188
-238
-264
-278
-283
-284
-277
-265
-257
-251
-243
-233
-225
-220
-215
-210
-205
-203
-202
-201
-197
-195
-198
-199
-196
-194
-195
-196
-187
-171
-163
-172
-163
-131
-125
-139
-117
-83
-97
-128
-135
-132
-128
-131
-133
-111
-112
-143
-167
-319
-286
751
2037
1420
-721
-1624
-841
-203
-166
-76
26
-3
18
72
76
97
135
154
181
221
260
312
379
455
548
655
754
831
881
891
839
711
531
340
164
6
-119
-202
-251
-278
-292
-298
-297
-289
-279
-272
-264
-255
-248
-241
-231
-222
-217
-212
-208
-208
-208
-202
-199
-204
-207
-204
-201
-201
-200
-198
-196
-183
-167
-169
-171
-140
-118
-134
-126
-82
-81
-121
-134
-128
-125
-127
-141
-129
-104
-136
-164
-246
-387
205
1700
2053
164
-1550
-1239
-357
-178
-142
13
11
-8
60
83
85
124
154
175
211
252
297
357
431
518
617
721
812
874
896
871
783
630
442
255
86
-56
-157
-219
-256
-279
-290
-292
-287
-278
-269
-260
-251
-242
-232
-224
-217
-210
-204
-199
-194
-191
-191
-192
-192
-194
-194
-194
-195
-194
-189
-190
-189
-171
-159
-168
-161
-135
-133
-137
-102
-79
-106
-131
-133
-132
-126
-130
-138
-116
-121
-154
-194
-366
-231
989
2180
1215
-975
-1586
-697
-191
-196
-68
26
-9
26
74
71
93
129
149
186
231
269
324
399
481
575
688
795
873
921
930
865
716
524
333
153
-7
-129
-209
-258
-288
-305
-314
-318
-317
-313
-304
-289
-273
-264
-257
-244
-233
-229
-227
-222
-216
-211
-208
-209
-212
-210
-203
-200
-204
-202
-185
-174
-180
-176
-149
-141
-152
-131
-101
-115
-144
-148
-143
-137
-134
-137
-125
-127
-150
-159
-279
-264
645
1829
1276
-762
-1663
-900
-239
-186
-86
40
19
36
91
94
112
155
179
203
241
282
332
399
482
581
693
801
889
943
950
888
748
557
356
167
4
-120
-201
-248
-271
-279
-284
-291
-294
-286
-272
-260
-247
-234
-224
-214
-204
-195
-191
-189
-187
-187
-187
-186
-185
-186
-187
-186
-187
-188
-183
-177
-176
-171
-154
-143
-153
-154
-124
-106
-117
-105
-67
-66
-98
-116
-117
-110
-110
-118
-97
-84
-120
-133
-235
-356
368
1853
1944
-44
-1538
-1089
-293
-167
-111
26
11
10
74
82
87
126
147
168
207
245
287
345
416
506
612
718
810
880
917
900
810
648
452
262
95
-47
-155
-223
-260
-281
-295
-304
-310
-306
-295
-286
-280
-268
-254
-243
-233
-224
-219
-214
-210
-207
-204
-200
-200
-201
-202
-203
-201
-198
-201
-203
-198
-190
-185
-183
-179
-176
-171
-158
-150
-159
-158
-131
-122
-132
-109
-77
-94
-125
-132
-135
-133
-132
-140
-122
-108
-138
-171
-307
-320
631
2049
1710
-444
-1621
-946
-241
-192
-120
5
-19
-8
49
53
70
109
127
155
200
234
273
334
409
498
606
714
805
871
905
883
787
628
443
263
97
-45
-147
-210
-248
-272
-282
-281
-279
-276
-266
-251
-237
-222
-207
-194
-183
-176
-170
-157
-147
-142
-137
-131
-132
-132
-127
-119
-112
-104
-100
-100
-98
-93
-85
-70
