# session 23
-97
-90
-91
-130
-151
-105
-63
-77
-88
-61
-48
-61
-52
-21
-22
-51
-62
-64
-63
-59
-71
-66
-39
-68
-104
-119
-143
301
1341
1508
-3
-1319
-1014
-274
-118
-86
43
47
31
80
96
100
128
143
154
179
201
224
261
298
334
384
449
512
563
602
628
628
587
501
384
256
134
27
-54
-108
-143
-164
-173
-173
-168
-162
-156
-149
-143
-140
-136
-132
-128
-124
-122
-123
-124
-125
-129
-135
-142
-144
-143
-146
-150
-148
-142
-143
-142
-139
-136
-129
-122
-126
-122
-99
-93
-106
-89
-60
-71
-101
-110
-111
-109
-112
-123
-103
-90
-130
-151
-197
-143
605
1617
1177
-591
-1405
-746
-174
-147
-84
-1
-34
-20
28
25
34
63
73
86
113
135
157
187
226
274
326
382
440
492
526
543
536
488
392
272
154
50
-43
-116
-163
-188
-199
-206
-210
-203
-192
-186
-181
-170
-163
-162
-162
-157
-152
-149
-147
-146
-146
-143
-137
-137
-142
-141
-138
-138
-137
-133
-128
-125
-123
-120
-111
-107
-110
-97
-73
-71
-73
-49
-35
-55
-71
-75
-80
-71
-69
-77
-54
-55
-100
-111
-155
5
893
1686
821
-887
-1269
-502
-90
-93
-2
53
20
51
84
76
91
117
132
152
170
186
215
250
283
326
381
438
493
536
562
572
559
504
408
292
178
74
-17
-87
-135
-164
-174
-171
-169
-167
-165
-165
-164
-156
-150
-153
-152
-147
-144
-144
-146
-153
-156
-152
-150
-155
-160
-160
-160
-157
-151
-153
-162
-165
-159
-148
-137
-134
-129
-113
-110
-117
-98
-73
-84
-106
-112
-114
-109
-107
-115
-96
-88
-123
-144
-185
-33
779
1539
756
-925
-1395
-653
-176
-143
-47
22
-6
17
55
57
76
98
107
132
160
178
202
239
281
328
383
445
504
551
585
602
582
514
410
289
168
58
-35
-105
-151
-178
-193
-200
-200
-192
-182
-174
-166
-159
-153
-145
-137
-132
-128
-124
-126
-128
-127
-128
-130
-131
-133
-137
-138
-136
-135
-137
-135
-134
-133
-125
-115
-119
-118
-94
-82
-87
-67
-41
-56
-78
-81
-87
-87
-87
-100
-81
-63
-105
-136
-181
-113
632
1611
1152
-584
-1357
-699
-142
-116
-54
31
-2
5
48
53
64
86
97
113
133
151
179
213
247
287
339
400
461
506
538
560
555
504
411
297
180
73
-18
-94
-152
-182
-189
-193
-200
-200
-188
-177
-171
-169
-167
-159
-147
-143
-152
-160
-153
-145
-147
-150
-149
-151
-153
-151
-148
-145
-140
-138
-139
-138
-131
-125
-125
-115
-94
-87
-90
-77
-61
-69
-85
-94
-97
-89
-88
-91
-68
-64
-100
-125
-171
7
834
1509
651
-958
-1328
-595
-150
-96
7
60
33
65
97
98
128
158
165
186
215
236
265
302
340
389
451
515
574
628
666
673
641
562
445
314
188
70
-28
-94
-135
-163
-182
-191
-189
-185
-184
-182
-174
-166
-163
-159
-154
-150
-149
-146
-143
-146
-152
-156
-161
-165
-164
-166
-174
-184
-201
-210
-190
-172
-192
-210
-176
-126
-137
-196
-202
-149
-151
-235
-310
-307
-252
-236
-271
-264
-289
-399
-408
-306
10
925
1620
642
-1060
-1350
-548
-145
-138
-74
-70
-74
42
94
17
-10
48
85
100
139
179
213
257
302
351
411
461
487
506
538
588
611
532
377
259
208
150
52
-39
-92
-113
-108
-99
-117
-135
-106
-77
-93
-99
-73
-61
-75
-99
-106
-77
-69
-99
-82
-34
-55
-107
-99
-77
-90
-91
-69
-69
-92
-79
-19
2
-53
-78
-11
51
22
-27
-3
44
43
44
46
-11
-45
-6
1
11
66
19
-99
-128
65
807
1653
1135
-625
-1501
-877
-181
-32
7
30
7
56
105
75
68
98
99
113
175
215
213
217
211
194
256
380
450
495
575
598
547
501
411
257
136
23
-124
-188
-181
-238
-310
-307
-291
-298
-293
-289
-298
-311
-323
-319
-299
-309
-340
-335
-305
-303
-313
-300
-286
-288
-287
-279
-276
-258
-228
-218
-226
-233
-227
-203
-183
-204
-240
-235
-188
-142
-129
-130
-100
-46
-29
-72
-117
-105
-76
-83
-78
-44
-61
-119
-173
-85
527
1349
1087
-326
-1144
-718
-197
-113
-37
81
94
116
166
161
145
168
201
233
265
287
306
329
358
401
456
507
553
606
651
665
651
605
525
427
314
199
111
42
-38
-96
-95
-89
-118
-138
-120
-101
-103
-111
-105
-94
-97
-106
-104
-96
-95
-100
-107
-114
-115
-113
-113
-127
-144
-145
-137
-131
-114
-108
-140
-161
-135
-120
-139
-137
-117
-125
-128
-94
-81
-113
-133
-132
-137
-132
-131
-145
-123
-110
-167
-212
-264
-184
564
1526
1144
-402
-1119
-634
-228
-208
-125
-32
-53
-66
-49
-24
9
22
29
57
82
99
127
156
185
214
244
296
372
434
470
491
478
421
352
281
190
87
-3
-75
-129
-158
-169
-182
-189
-178
-171
-180
-181
-173
-170
-147
-116
-126
-149
-125
-100
-117
-117
-85
-84
-115
-125
-110
-104
-113
-110
-91
-87
-105
-108
-89
-77
-77
-64
-33
-19
-44
-71
-80
-89
-85
-69
-76
-80
-72
-103
-135
-162
-122
408
1268
1158
-188
-1107
-802
-311
-213
-136
-26
-26
-27
5
8
25
60
57
48
73
106
121
136
160
190
228
275
323
360
388
409
418
404
362
298
224
152
86
25
-26
-59
-77
-88
-94
-96
-94
-90
-84
-78
-74
-71
-66
-62
-61
-63
-63
-63
-66
-68
-68
-72
-81
-86
-87
-90
-95
-99
-101
-104
-110
-111
-99
-91
-88
-63
-36
-52
-80
-82
-90
-98
-80
-88
-111
-92
-106
-151
-166
-181
187
1182
1555
297
-1090
-1044
-410
-231
-200
-85
-74
-84
-33
-15
-16
12
31
40
64
91
115
142
173
212
259
313
375
435
483
516
530
511
451
358
249
141
40
-48
-115
-160
-187
-202
-210
-213
-213
-208
-199
-193
-188
-178
-163
-153
-149
-145
-138
-133
-132
-133
-132
-133
-135
-128
-117
-123
-138
-127
-107
-111
-106
-75
-76
-107
-113
-106
-109
-99
-101
-119
-97
-92
-142
-172
-239
-76
905
1867
1108
-661
-1202
-564
-204
-202
-89
-24
-63
-37
2
1
16
41
55
73
95
118
148
179
215
262
316
377
441
497
535
554
545
490
392
275
162
57
-38
-110
-157
-183
-191
-191
-204
-218
-205
-184
-182
-185
-176
-165
-160
-155
-147
-141
-138
-139
-141
-140
-140
-143
-143
-133
-132
-146
-144
-120
-117
-126
-94
-58
-84
-121
-119
-118
-117
-100
-110
-117
-89
-115
-159
-183
-258
132
1337
1865
496
-1052
-1010
-350
-201
-180
-50
-46
-65
-10
8
1
25
43
53
74
92
113
148
185
219
263
319
382
447
499
525
532
515
450
347
245
147
45
-47
-117
-158
-174
-181
-190
-199
-203
-195
-184
-180
-166
-137
-126
-138
-139
-129
-125
-121
-119
-123
-121
-111
-107
-108
-108
-116
-122
-110
-103
-120
-128
-110
-98
-99
-74
-45
-61
-86
-89
-99
-104
-89
-100
-105
-71
-93
-148
-206
-322
83
1397
2056
710
-916
-952
-328
-200
-187
-62
-68
-91
-36
-27
-35
-2
16
19
44
67
82
110
148
190
244
305
366
429
492
533
547
534
481
383
267
151
40
-57
-123
-158
-177
-198
-216
-222
-216
-203
-191
-192
-194
-179
-164
-166
-171
-169
-168
-166
-159
-151
-149
-150
-148
-143
-139
-142
-148
-143
-123
-111
-124
-131
-117
-115
-120
-87
-53
-70
-94
-94
-100
-99
-91
-109
-103
-77
-116
-165
-242
-276
419
1735
1790
60
-1179
-810
-254
-213
-138
-23
-64
-64
0
13
29
60
59
64
90
106
127
166
204
243
301
378
452
515
563
589
595
568
487
363
231
105
-6
-87
-145
-193
-220
-223
-223
-223
-220
-214
-205
-198
-190
-174
-162
-162
-155
-135
-131
-146
-147
-132
-129
-134
-136
-144
-149
-142
-136
-138
-129
-120
-133
-144
-129
-118
-114
-83
-56
-72
-94
-94
-98
-92
-79
-93
-84
-57
-93
-139
-218
-279
388
1734
1874
180
-1105
-774
-213
-182
-135
-20
-45
-45
8
7
7
38
51
60
83
107
130
153
177
214
272
339
402
450
481
508
527
512
445
341
226
116
17
-64
-124
-168
-193
-199
-204
-212
-207
-190
-183
-184
-176
-164
-156
-151
-150
-153
-148
-137
-138
-147
-150
-146
-143
-141
-140
-143
-148
-149
-141
-130
-131
-146
-149
-128
-112
-110
-90
-60
-67
-94
-97
-96
-101
-90
-91
-95
-69
-92
-148
-163
-240
-22
1056
1904
925
-768
-1070
-420
-172
-181
-66
-36
-69
-24
6
-2
17
38
44
61
83
102
130
164
197
235
281
336
397
452
488
507
505
469
390
286
179
79
-9
-77
-124
-153
-169
-176
-175
-172
-166
-158
-148
-136
-130
-129
-124
-119
-117
-117
-110
-103
-103
-106
-103
-99
-103
-110
-110
-105
-102
-101
-101
-97
-90
-94
-106
-97
-81
-89
-88
-55
-43
-71
-87
-87
-95
-86
-81
-97
-80
-73
-127
-157
-218
-138
716
1758
1228
-522
-1225
-626
-202
-193
-96
-26
-58
-27
11
0
17
47
52
64
90
116
146
178
212
254
303
358
420
479
525
553
559
528
450
340
220
107
5
-82
-146
-183
-205
-221
-227
-221
-215
-214
-207
-195
-188
-185
-178
-170
-164
-159
-155
-153
-151
-148
-148
-150
-149
-148
-148
-143
-135
-140
-147
-130
-113
-125
-123
-83
-70
-97
-109
-110
-119
-108
-100
-111
-90
-78
-123
-159
-238
-116
805
1797
1141
-617
-1231
-606
-208
-191
-76
-5
-33
4
41
30
47
74
79
94
118
136
164
201
237
281
340
403
462
516
557
578
575
530
434
306
177
61
-36
-112
-163
-190
-198
-203
-210
-210
-203
-197
-191
-184
-177
-169
-162
-155
-147
-140
-139
-144
-144
-140
-139
-144
-144
-140
-143
-150
-142
-127
-136
-148
-131
-114
-123
-116
-83
-79
-104
-111
-112
-112
-101
-103
-107
-85
-95
-128
-166
-274
11
1153
1907
815
-837
-1057
-410
-175
-162
-40
-20
-51
-3
20
12
35
56
62
82
106
126
152
183
221
268
323
383
445
498
536
557
553
502
402
279
159
47
-52
-124
-167
-193
-209
-216
-218
-216
-212
-207
-200
-190
-183
-178
-170
-161
-156
-154
-152
-148
-145
-146
-149
-146
-135
-134
-147
-145
-126
-127
-138
-115
-88
-100
-120
-120
-125
-125
-115
-123
-111
-86
-124
-161
-217
-275
313
1578
1752
127
-1167
-847
-238
-177
-136
-22
-48
-54
2
5
5
33
42
49
76
97
116
148
185
223
267
321
382
438
481
508
517
491
422
320
206
93
-12
-91
-142
-177
-199
-208
-209
-207
-201
-195
-187
-175
-166
-164
-162
-155
-147
-142
-137
-134
-134
-132
-128
-124
-118
-115
-119
-118
-110
-114
-116
-89
-64
-79
-97
-96
-107
-108
-91
-100
-103
-77
-104
-144
-186
-270
175
1368
1722
265
-1114
-908
-265
-164
-140
-24
-39
-51
3
8
5
33
45
55
79
97
114
146
180
215
260
310
362
414
457
484
497
486
435
345
238
133
37
-42
-102
-141
-162
-170
-169
-163
-158
-153
-145
-139
-134
-127
-122
-122
-121
-114
-112
-119
-124
-122
-122
-125
-128
-130
-131
-131
-128
-123
-123
-130
-132
-125
-125
-117
-93
-83
-93
-99
-106
-110
-99
-106
-108
-76
-94
-146
-180
-250
72
1139
1661
429
-1057
-1044
-364
-176
-156
-31
-21
-45
0
16
14
38
55
68
98
122
140
164
190
226
274
325
379
439
485
511
529
527
479
391
283
169
58
-39
-114
-160
-185
-201
-208
-203
-195
-192
-189
-179
-167
-161
-161
-159
-154
-150
-147
-144
-145
-150
-148
-142
-141
-144
-143
-141
-141
-135
-126
-131
-129
-105
-90
-99
-109
-116
-118
-103
-103
-108
-82
-85
-124
-153
-235
-13
985
1704
709
-887
-1113
-441
-172
-157
-30
5
-25
17
40
34
62
83
86
108
137
159
187
218
252
297
351
407
464
512
542
556
545
488
388
268
149
40
-52
-119
-162
-186
-198
-202
-198
-191
-186
-180
-171
-162
-158
-156
-152
-150
-151
-151
-151
-151
-151
-152
-154
-154
-152
-152
-152
-147
-143
-151
-155
-145
-143
-142
-116
-94
-104
-117
-118
-118
-111
-113
-120
-98
-102
-141
-169
-276
-150
835
1816
1082
-645
-1151
-510
-164
-173
-73
-20
-54
-18
17
7
23
48
56
73
95
114
141
171
202
245
297
349
402
451
485
506
509
475
394
288
177
71
-22
-97
-147
-176
-190
-196
-195
-189
-183
-177
-169
-160
-153
-149
-143
-136
-131
-131
-129
-126
-128
-132
-129
-123
-121
-123
-121
-117
-118
-121
-114
-108
-117
-119
-103
-98
-96
-66
-44
-59
-74
-74
-74
-66
-69
-81
-56
-55
-100
-117
-197
-93
843
1851
1180
-565
-1123
-477
-111
-133
-44
14
-24
2
33
27
46
69
74
88
105
117
140
168
198
236
279
321
366
414
451
470
470
445
384
292
189
92
6
-66
-121
-156
-169
-172
-175
-171
-165
-159
-153
-147
-145
-141
-136
-135
-133
-128
-130
-136
-136
-132
-131
-133
-135
-136
-135
-133
-133
-133
-134
-135
-131
-119
-114
-127
-139
-121
-101
-103
-89
-56
-61
-95
-104
-104
-106
-95
-101
-105
-78
-97
-138
-149
-242
-20
1018
1703
624
-927
-1039
-364
-153
-159
-49
-35
-63
-19
-3
-11
15
35
39
57
77
93
118
146
172
209
254
298
344
388
419
432
432
411
353
265
172
82
-1
-67
-112
-138
-152
-158
-158
-149
-137
-127
-119
-113
-105
-97
-95
-100
-100
-93
-89
-89
-84
-79
-78
-76
-71
-70
-68
-61
-55
-53
-47
-40
-38
-36
-29
-19
-9
0
4
-1
0
15
25
28
56
95
92
63
60
68
62
70
85
81
93
107
49
-17
19
