# session 29
-20
-3
-34
7
190
367
425
452
507
525
470
368
234
88
-37
-128
-192
-230
-249
-261
-261
-251
-245
-237
-221
-207
-204
-202
-192
-181
-179
-179
-171
-170
-176
-171
-159
-153
-142
-131
-137
-141
-135
-138
-132
-98
-76
-92
-103
-102
-108
-97
-83
-103
-95
-62
-95
-140
-203
-204
529
1822
1788
10
-1173
-730
-161
-138
-70
48
17
22
75
76
87
115
118
128
152
169
184
198
226
274
307
336
399
466
508
553
601
614
588
516
379
215
78
-34
-123
-176
-203
-223
-237
-237
-230
-220
-213
-212
-211
-202
-193
-195
-198
-191
-185
-188
-186
-179
-182
-192
-186
-170
-167
-178
-179
-166
-163
-166
-149
-124
-121
-130
-136
-149
-153
-139
-147
-152
-116
-122
-170
-211
-328
-80
1142
2120
1085
-769
-1115
-409
-149
-174
-43
-5
-48
1
36
19
35
63
70
81
105
123
135
160
199
232
269
322
375
418
468
525
560
560
518
413
256
105
-14
-108
-180
-226
-249
-253
-248
-249
-250
-238
-227
-228
-220
-200
-193
-201
-197
-185
-179
-178
-180
-181
-179
-176
-174
-167
-160
-155
-148
-151
-158
-145
-128
-133
-124
-83
-70
-106
-120
-112
-130
-133
-107
-113
-118
-90
-108
-145
-219
-338
199
1635
2132
535
-1047
-879
-218
-144
-122
17
-4
-26
35
39
37
70
75
80
112
126
131
160
189
208
243
296
345
386
433
488
528
549
555
516
404
255
119
3
-99
-171
-206
-220
-229
-231
-227
-223
-221
-217
-205
-193
-191
-198
-193
-178
-174
-175
-169
-168
-181
-181
-164
-162
-171
-167
-156
-147
-140
-147
-155
-139
-124
-126
-103
-67
-80
-115
-115
-111
-126
-113
-101
-126
-110
-81
-130
-175
-261
-263
589
1957
1775
-120
-1182
-640
-139
-165
-83
15
-38
-12
54
36
32
65
76
82
98
117
144
166
183
213
251
287
333
391
446
487
522
547
533
456
334
202
70
-50
-135
-187
-222
-238
-236
-233
-234
-229
-220
-213
-206
-199
-197
-193
-187
-187
-186
-175
-166
-172
-178
-172
-165
-168
-167
-154
-145
-154
-160
-146
-132
-135
-123
-88
-76
-101
-115
-114
-128
-128
-109
-118
-115
-83
-117
-167
-205
-318
100
1459
2108
667
-990
-932
-237
-128
-134
0
-10
-38
23
40
34
59
65
67
96
118
126
145
176
204
230
271
324
367
412
467
503
518
526
490
378
232
105
-3
-106
-184
-214
-224
-242
-251
-236
-222
-223
-224
-213
-199
-197
-201
-193
-178
-176
-181
-180
-177
-176
-167
-155
-158
-167
-169
-163
-156
-151
-137
-114
-115
-131
-128
-124
-132
-125
-123
-129
-106
-118
-161
-195
-315
-72
1138
2070
1002
-800
-1069
-359
-132
-160
-23
9
-38
10
45
30
43
65
75
96
115
126
148
181
208
231
269
323
371
414
459
493
512
520
484
382
247
117
-6
-110
-168
-195
-223
-244
-239
-224
-218
-221
-219
-206
-192
-190
-193
-185
-179
-180
-175
-164
-164
-167
-152
-143
-162
-178
-166
-158
-156
-126
-102
-120
-137
-129
-132
-131
-120
-125
-110
-90
-134
-163
-231
-305
366
1710
1770
15
-1192
-750
-168
-143
-87
15
-23
-15
35
27
36
65
65
78
106
116
127
154
175
195
232
283
329
363
401
446
477
486
474
417
300
160
38
-67
-154
-208
-228
-236
-242
-241
-231
-224
-223
-220
-210
-197
-192
-197
-194
-182
-179
-185
-181
-168
-162
-166
-174
-180
-171
-157
-153
-144
-123
-111
-112
-115
-120
-114
-91
-95
-110
-80
-72
-111
-136
-244
-169
772
1839
1246
-461
-1028
-416
-90
-126
-28
28
-3
47
71
31
51
99
102
102
123
139
153
176
208
240
261
283
328
386
430
462
496
506
456
363
262
148
15
-97
-162
-195
-211
-220
-228
-229
-221
-212
-202
-198
-204
-203
-190
-185
-187
-182
-179
-184
-193
-197
-183
-159
-154
-172
-181
-175
-169
-154
-130
-124
-135
-142
-150
-149
-131
-136
-147
-119
-108
-137
-186
-290
-21
1060
1788
736
-872
-1061
-386
-149
-151
-25
13
-12
27
46
45
75
87
86
111
139
154
176
206
231
257
299
354
398
430
472
518
541
538
499
391
231
93
-7
-104
-179
-204
-216
-239
-242
-225
-217
-208
-197
-203
-204
-183
-172
-186
-189
-173
-169
-172
-162
-165
-183
-177
-158
-162
-160
-144
-147
-151
-130
-121
-128
-120
-122
-139
-128
-116
-130
-117
-107
-132
-173
-309
-178
865
1899
1159
-570
-1032
-382
-96
-144
-37
18
-25
10
47
32
34
56
77
100
113
126
144
159
186
223
256
295
350
401
434
460
486
489
450
370
254
112
-18
-106
-165
-202
-216
-225
-231
-219
-205
-209
-214
-200
-190
-189
-182
-172
-178
-185
-175
-167
-171
-174
-168
-162
-163
-168
-165
-156
-159
-152
-119
-106
-131
-144
-132
-123
-121
-127
-123
-93
-103
-152
-186
-306
-165
895
1950
1210
-552
-1055
-411
-99
-139
-43
14
-15
18
34
14
43
76
75
82
104
126
150
175
200
232
269
306
345
390
439
483
505
504
478
394
242
92
-7
-92
-167
-195
-207
-234
-243
-227
-225
-223
-199
-188
-205
-207
-184
-175
-184
-179
-165
-169
-180
-174
-163
-166
-168
-158
-158
-167
-160
-150
-159
-155
-123
-103
-113
-123
-124
-116
-114
-135
-129
-89
-108
-149
-193
-319
23
1281
2005
776
-841
-906
-252
-111
-133
-15
-6
-27
28
32
15
53
78
79
100
116
123
149
181
200
228
275
327
375
422
463
492
517
529
484
366
225
97
-24
-123
-182
-216
-235
-240
-241
-249
-252
-237
-213
-203
-208
-208
-194
-186
-190
-188
-179
-178
-182
-180
-173
-169
-164
-164
-172
-167
-145
-144
-155
-138
-114
-120
-136
-141
-128
-99
-102
-125
-117
-133
-176
-205
-314
-130
973
1989
1177
-568
-1002
-358
-86
-134
-31
21
-12
20
42
34
59
75
72
94
123
133
149
176
198
225
271
316
346
389
452
497
510
509
476
380
241
110
1
-95
-169
-207
-222
-229
-227
-220
-214
-210
-210
-208
-199
-186
-176
-173
-170
-163
-161
-169
-167
-152
-148
-153
-150
-149
-152
-151
-147
-138
-127
-134
-144
-128
-115
-122
-100
-59
-69
-102
-100
-101
-114
-108
-109
-111
-81
-93
-131
-158
-293
-111
1027
1999
1100
-602
-939
-319
-101
-125
-6
13
-36
7
43
41
54
58
63
91
108
115
136
162
185
216
247
280
318
357
394
434
468
475
440
367
268
155
39
-64
-133
-178
-212
-223
-208
-201
-210
-202
-183
-183
-188
-177
-168
-171
-168
-155
-153
-159
-153
-142
-151
-163
-153
-140
-145
-144
-130
-132
-145
-140
-126
-119
-98
-70
-67
-82
-94
-113
-129
-105
-89
-117
-103
-69
-112
-152
-219
-275
376
1633
1666
27
-1075
-659
-130
-121
-85
6
-19
-3
42
27
38
79
75
68
102
133
133
136
167
203
231
265
306
342
378
420
450
456
444
405
311
176
57
-32
-112
-173
-197
-207
-216
-209
-194
-200
-209
-195
-172
-165
-172
-174
-168
-165
-159
-149
-145
-146
-144
-148
-153
-148
-143
-146
-143
-133
-137
-147
-138
-114
-101
-90
-69
-68
-94
-113
-117
-113
-100
-109
-128
-104
-90
-123
-165
-272
-82
966
1884
1026
-690
-1080
-413
-121
-138
-15
24
-29
15
57
43
66
96
90
101
140
160
163
182
218
251
277
318
376
424
455
493
539
554
512
414
283
146
21
-84
-160
-205
-231
-244
-251
-257
-252
-237
-229
-220
-206
-204
-208
-194
-178
-182
-182
-171
-172
-184
-182
-171
-164
-161
-162
-160
-157
-156
-142
-117
-113
-125
-131
-145
-151
-130
-129
-142
-123
-124
-149
-188
-298
-20
1124
1898
816
-837
-1033
-358
-136
-145
-16
15
-18
25
40
30
66
91
92
119
148
147
157
199
233
248
285
352
406
441
478
521
551
549
489
368
225
86
-34
-121
-183
-228
-245
-248
-257
-255
-239
-234
-234
-223
-215
-213
-200
-184
-177
-174
-173
-172
-174
-181
-181
-167
-157
-159
-160
-161
-163
-155
-136
-115
-107
-112
-115
-113
-127
-139
-127
-127
-127
-95
-104
-152
-215
-346
-36
1214
2057
936
-761
-953
-296
-116
-140
-16
6
-22
25
31
11
41
66
72
99
123
128
143
171
198
226
268
319
370
419
458
485
511
525
482
372
236
103
-19
-112
-172
-213
-235
-234
-234
-237
-233
-228
-228
-219
-200
-187
-184
-179
-173
-171
-170
-168
-169
-160
-146
-149
-160
-154
-151
-166
-164
-142
-131
-117
-89
-90
-111
-113
-117
-126
-117
-121
-122
-86
-94
-144
-198
-324
-11
1237
2048
903
-759
-919
-284
-116
-126
-16
-18
-39
26
43
23
41
54
65
91
100
104
137
168
181
206
251
299
342
386
431
466
483
486
448
348
218
89
-29
-117
-175
-220
-241
-234
-235
-246
-236
-219
-223
-224
-207
-195
-188
-176
-175
-185
-178
-166
-171
-176
-162
-150
-153
-157
-149
-145
-157
-164
-143
-122
-120
-104
-71
-75
-113
-130
-121
-107
-97
-112
-123
-91
-85
-116
-173
-320
-77
1115
2041
1055
-665
-972
-336
-121
-147
-29
3
-22
31
52
33
49
62
70
107
131
128
153
192
205
221
274
334
383
439
494
530
563
580
535
422
278
131
-2
-99
-162
-209
-247
-267
-267
-265
-267
-254
-232
-225
-222
-207
-200
-205
-206
-196
-180
-174
-185
-188
-175
-170
-173
-170
-170
-164
-141
-130
-140
-130
-111
-124
-145
-145
-141
-139
-137
-140
-134
-139
-162
-188
-278
-148
785
1807
1227
-507
-1179
-580
-166
-162
-63
19
-10
14
49
39
57
88
96
112
137
149
168
199
229
266
304
334
386
459
507
537
583
603
543
428
294
146
4
-105
-179
-221
-231
-241
-262
-262
-242
-235
-235
-220
-207
-203
-196
-185
-176
-170
-169
-169
-163
-165
-177
-179
-167
-159
-155
-153
-158
-157
-145
-133
-117
-98
-107
-125
-117
-117
-137
-136
-128
-125
-106
-122
-158
-195
-334
-90
1145
2115
1099
-672
-969
-309
-109
-150
-23
3
-45
5
36
14
34
76
82
79
102
132
141
150
183
222
262
319
371
408
459
510
528
523
490
390
240
104
-4
-102
-177
-212
-223
-233
-240
-242
-238
-228
-216
-210
-207
-210
-207
-184
-169
-177
-176
-163
-166
-173
-166
-162
-157
-144
-153
-181
-173
-142
-152
-164
-115
-77
-110
-147
-150
-150
-136
-132
-172
-164
-101
-124
-181
-234
-349
90
1444
2060
648
-936
-873
-229
-140
-137
3
-10
-43
21
37
20
49
75
79
98
120
129
144
180
215
235
268
324
375
417
460
494
509
510
469
359
218
97
-8
-111
-178
-195
-204
-222
-230
-224
-209
-193
-197
-208
-192
-171
-173
-174
-162
-159
-163
-155
-151
-154
-150
-142
-144
-144
-137
-134
-138
-140
-136
-130
-119
-97
-72
-69
-88
-99
-103
-114
-111
-100
-120
-121
-71
-79
-127
-150
-255
-25
1098
1933
918
-727
-955
-311
-104
-123
-12
7
-29
15
43
42
64
77
76
91
110
124
144
169
197
222
244
275
328
387
427
447
475
500
470
369
241
119
8
-83
-150
-197
-225
-229
-221
-220
-221
-218
-210
-192
-173
-177
-195
-197
-186
-175
-168
-170
-176
-166
-154
-160
-167
-160
-151
-151
-158
-155
-135
-131
-152
-151
-123
-118
-119
-84
-64
-92
-108
-107
-127
-126
-98
-107
-112
-80
-97
-142
-230
-316
281
1623
1902
313
-1020
-742
-168
-139
-102
20
-8
-13
42
35
37
78
84
85
117
138
140
158
193
226
258
303
353
395
443
507
560
574
560
508
386
224
85
-30
-129
-188
-219
-245
-260
-259
-251
-245
-243
-242
-230
-215
-211
-206
-197
-198
-200
-185
-170
-174
-181
-176
-165
-166
-179
-176
-149
-142
-152
-136
-108
-114
-132
-134
-142
-149
-139
-137
-144
-126
-125
-148
-197
-328
-87
1050
1942
993
-716
-1055
-399
-129
-142
-31
-1
-42
7
53
50
63
78
82
98
121
142
169
201
229
258
298
349
402
452
505
559
596
590
525
400
243
94
-33
-132
-189
-213
-234
-258
-264
-253
-245
-243
-238
-230
-218
-193
-172
-178
-195
-193
-179
-176
-179
-175
-172
-173
-172
-166
-156
-146
-154
-173
-168
-142
-136
-139
-115
-92
-103
-118
-121
-131
-131
-117
-128
-130
-97
-113
-154
-229
-367
68
1422
2080
749
-816
-804
-194
-116
-139
-12
-2
-25
18
26
23
47
53
59
84
100
116
148
172
190
219
256
300
355
409
454
494
521
524
482
375
229
95
-13
-105
-167
-194
-213
-233
-233
-218
-215
-220
-209
-191
-185
-186
-180
-172
-164
-156
-156
-163
-165
-161
-159
-156
-148
-144
-142
-136
-142
-154
-144
-122
-120
-114
-82
-69
-94
-105
-92
-99
-107
-93
-98
-101
-79
-97
-125
-172
-305
70
1372
2062
763
-848
-871
-225
-105
-114
14
7
-30
26
49
39
60
76
82
99
111
119
143
175
202
224
247
283
337
388
424
455
478
473
431
350
229
94
-14
-93
-160
-205
-222
-231
-236
-231
-218
-208
-205
-199
-183
-174
-185
-193
-190
-186
-180
-171
-169
-171
-167
-167
-176
-171
-151
-149
-166
-166
-145
-143
-164
-160
-132
-127
-131
-100
-70
-94
-125
-122
-120
-125
-110
-116
-134
-105
-103
-146
-179
-280
-67
1031
1920
972
-720
-1018
-359
-122
-149
-34
-3
-40
0
24
23
58
75
64
74
96
112
139
165
183
214
264
305
332
372
427
475
507
520
494
423
316
188
66
-27
-98
-156
-185
-186
-188
-188
-169
-154
-164
-167
-146
-131
-134
-135
-129
-114
-102
-109
-118
-105
-95
-102
-97
-78
-75
-83
-74
-56
-57
-69
-57
-29
-30
-43
-9
34
17
-21
-18
-6
-22
-30
-17
-6
