# session 27
-13
1
-25
32
210
349
379
392
406
361
263
153
41
-69
-160
-219
-252
-272
-281
-279
-270
-258
-243
-232
-224
-214
-202
-195
-188
-179
-173
-169
-159
-150
-147
-147
-145
-143
-140
-136
-131
-122
-111
-112
-115
-97
-80
-89
-84
-46
-33
-62
-75
-70
-77
-69
-56
-68
-54
-32
-72
-103
-147
-125
540
1573
1327
-311
-1209
-679
-137
-96
-24
71
41
50
97
93
98
125
132
141
165
184
200
223
250
278
315
360
410
462
512
555
587
602
583
509
391
258
130
16
-74
-135
-168
-187
-200
-204
-199
-193
-189
-183
-177
-172
-164
-155
-150
-150
-148
-144
-143
-143
-141
-142
-145
-144
-145
-149
-150
-148
-146
-145
-141
-134
-129
-133
-136
-121
-109
-117
-108
-74
-69
-97
-107
-105
-114
-109
-104
-115
-97
-86
-128
-149
-209
-165
617
1687
1315
-362
-1140
-578
-130
-138
-70
3
-36
-20
20
13
24
48
53
63
84
99
115
136
158
186
221
260
306
357
406
447
479
497
488
435
338
220
103
-3
-88
-147
-184
-203
-210
-213
-212
-204
-192
-184
-180
-174
-166
-159
-156
-153
-150
-148
-146
-142
-141
-141
-140
-139
-139
-136
-133
-132
-131
-129
-129
-122
-114
-120
-123
-105
-89
-95
-84
-49
-45
-74
-83
-79
-89
-84
-77
-93
-81
-63
-103
-127
-171
-142
584
1688
1432
-262
-1167
-627
-117
-119
-67
20
-13
-2
41
34
41
67
73
82
101
113
128
152
173
198
232
271
313
361
411
453
479
495
492
444
350
235
122
17
-68
-128
-165
-185
-194
-198
-197
-190
-184
-178
-172
-165
-158
-152
-148
-144
-141
-137
-134
-133
-134
-134
-133
-132
-131
-129
-129
-128
-126
-124
-123
-121
-118
-112
-102
-104
-114
-103
-82
-81
-76
-43
-33
-65
-80
-73
-82
-85
-78
-90
-77
-52
-94
-123
-152
-185
379
1516
1551
-32
-1141
-723
-140
-103
-71
22
-11
-15
32
30
32
59
66
74
96
112
125
146
168
192
217
249
294
347
397
441
477
496
495
461
382
268
148
38
-55
-122
-165
-190
-202
-207
-209
-207
-197
-190
-186
-177
-166
-161
-159
-156
-155
-153
-146
-144
-150
-155
-148
-140
-141
-145
-143
-139
-137
-138
-136
-125
-116
-121
-123
-111
-105
-104
-79
-53
-69
-94
-92
-95
-104
-98
-102
-100
-67
-78
-123
-143
-191
105
1107
1638
459
-1062
-1098
-374
-140
-133
-4
29
-1
35
57
57
79
93
101
125
146
163
186
208
230
264
305
348
394
444
491
531
559
564
529
444
323
194
76
-28
-107
-158
-189
-205
-209
-210
-210
-205
-199
-195
-188
-177
-169
-166
-163
-157
-152
-148
-147
-148
-149
-151
-152
-151
-152
-152
-150
-149
-145
-136
-138
-144
-131
-119
-126
-112
-76
-77
-109
-115
-109
-116
-108
-102
-114
-93
-80
-122
-136
-184
-145
607
1636
1228
-459
-1210
-608
-131
-126
-52
25
-12
4
45
36
44
71
77
88
108
123
140
163
186
215
251
290
336
385
432
470
500
514
498
433
328
208
94
-9
-92
-149
-181
-197
-205
-208
-204
-198
-194
-186
-177
-170
-163
-155
-149
-148
-146
-144
-141
-138
-137
-136
-131
-129
-132
-131
-129
-131
-129
-116
-112
-119
-109
-88
-88
-89
-58
-39
-64
-87
-85
-91
-93
-81
-94
-96
-68
-95
-126
-134
-206
160
1297
1765
417
-1044
-932
-251
-115
-112
1
-7
-31
19
28
20
44
55
58
79
98
112
132
154
178
208
243
285
334
383
424
457
480
482
447
367
258
143
35
-56
-122
-165
-189
-200
-203
-203
-201
-197
-192
-185
-177
-170
-163
-154
-149
-148
-146
-143
-140
-137
-137
-140
-140
-138
-137
-137
-135
-135
-132
-123
-121
-129
-121
-103
-102
-98
-66
-50
-77
-94
-90
-98
-98
-82
-94
-91
-63
-95
-124
-138
-208
224
1392
1726
264
-1103
-869
-207
-110
-97
16
-2
-20
32
37
30
54
67
73
92
109
124
145
165
188
220
256
296
340
385
428
461
481
480
444
366
261
150
46
-43
-108
-146
-170
-183
-184
-178
-177
-175
-169
-161
-154
-146
-140
-137
-138
-137
-131
-127
-130
-134
-134
-132
-129
-127
-130
-134
-133
-132
-132
-129
-124
-121
-114
-108
-113
-113
-96
-92
-94
-70
-49
-70
-91
-89
-97
-99
-80
-86
-93
-66
-90
-128
-139
-209
112
1196
1707
437
-1047
-997
-305
-128
-113
9
12
-15
30
39
31
56
71
81
103
117
127
153
181
201
226
262
305
353
402
446
481
507
519
494
417
309
194
76
-30
-101
-142
-174
-204
-217
-211
-202
-196
-187
-176
-173
-173
-166
-156
-153
-153
-151
-149
-148
-146
-145
-144
-142
-143
-147
-151
-148
-134
-128
-138
-139
-122
-117
-120
-96
-74
-94
-114
-108
-113
-120
-107
-113
-120
-91
-99
-133
-146
-201
103
1120
1620
397
-1103
-1094
-369
-144
-128
-4
16
-6
39
54
49
77
95
99
119
140
157
177
202
233
267
302
346
398
449
493
530
553
552
511
421
298
170
52
-49
-122
-166
-191
-205
-212
-213
-210
-204
-197
-189
-182
-174
-165
-160
-157
-152
-148
-147
-144
-142
-143
-144
-145
-145
-146
-147
-147
-144
-141
-136
-127
-126
-134
-124
-105
-106
-101
-69
-59
-88
-102
-96
-103
-100
-88
-101
-91
-66
-103
-129
-154
-197
353
1526
1638
53
-1143
-768
-162
-115
-86
19
-7
-14
36
36
35
60
68
72
90
106
121
142
165
190
220
255
296
344
390
431
460
477
476
439
354
242
131
29
-60
-126
-165
-185
-196
-201
-199
-195
-187
-174
-163
-164
-162
-144
-130
-141
-154
-148
-143
-146
-144
-139
-139
-139
-138
-138
-136
-132
-132
-134
-131
-122
-117
-123
-124
-108
-99
-101
-76
-42
-54
-85
-84
-83
-95
-86
-83
-98
-77
-67
-108
-117
-162
-72
758
1722
1118
-618
-1231
-550
-105
-116
-35
36
-2
19
57
47
59
83
84
92
116
134
150
170
187
211
251
294
330
372
420
460
491
516
513
459
364
247
122
7
-80
-139
-178
-199
-207
-209
-208
-204
-199
-191
-181
-170
-162
-157
-153
-149
-146
-144
-140
-137
-134
-134
-133
-132
-132
-132
-128
-127
-128
-127
-125
-115
-102
-106
-119
-112
-97
-101
-93
-57
-49
-85
-100
-94
-104
-103
-90
-104
-95
-68
-104
-125
-136
-137
429
1489
1402
-259
-1359
-872
-205
-122
-78
29
11
1
41
40
46
82
97
97
110
127
146
173
203
230
255
285
333
391
439
473
503
530
533
489
395
276
156
46
-46
-114
-160
-190
-207
-213
-209
-203
-200
-199
-190
-175
-171
-175
-174
-168
-166
-169
-166
-160
-160
-162
-153
-147
-154
-156
-148
-147
-141
-126
-128
-130
-101
-82
-107
-128
-125
-131
-132
-118
-124
-124
-100
-117
-144
-153
-152
291
1297
1494
49
-1310
-1105
-371
-168
-121
7
18
5
53
67
67
95
112
122
145
163
180
206
235
262
296
340
391
445
500
549
586
606
596
535
421
281
143
21
-75
-142
-186
-213
-225
-227
-226
-222
-217
-212
-204
-193
-185
-182
-178
-173
-168
-164
-161
-159
-160
-163
-163
-162
-162
-164
-161
-150
-145
-153
-147
-127
-126
-131
-105
-81
-101
-124
-121
-126
-130
-113
-118
-126
-94
-103
-145
-163
-245
4
1100
1875
787
-920
-1137
-400
-116
-126
-18
11
-22
20
44
35
54
70
74
90
106
118
138
162
187
217
253
294
341
389
432
465
491
503
481
408
298
179
68
-28
-102
-151
-182
-197
-200
-199
-196
-191
-183
-177
-172
-166
-160
-156
-154
-153
-151
-149
-148
-149
-150
-148
-146
-147
-145
-136
-135
-140
-129
-115
-123
-121
-87
-73
-103
-119
-112
-122
-122
-105
-115
-112
-80
-111
-151
-178
-261
168
1413
1870
386
-1148
-989
-258
-116
-115
2
-3
-25
26
36
28
52
65
69
88
105
118
141
163
185
215
252
295
343
390
429
463
486
486
449
366
253
136
30
-60
-128
-169
-191
-202
-205
-203
-198
-193
-187
-182
-178
-172
-165
-161
-156
-150
-148
-148
-146
-144
-145
-146
-144
-141
-138
-132
-130
-134
-128
-111
-110
-117
-98
-67
-74
-100
-103
-105
-118
-109
-101
-109
-87
-83
-132
-145
-209
-144
738
1839
1293
-549
-1273
-590
-116
-132
-54
22
-20
1
44
32
41
65
67
74
97
112
127
154
184
210
239
279
329
381
426
466
501
519
502
439
331
203
88
-12
-98
-155
-185
-209
-221
-216
-210
-208
-201
-194
-193
-187
-177
-174
-175
-173
-167
-161
-156
-158
-158
-154
-154
-153
-143
-137
-141
-134
-120
-126
-133
-106
-80
-98
-122
-120
-121
-123
-111
-119
-125
-93
-104
-140
-144
-216
27
1075
1750
594
-1073
-1197
-420
-136
-132
-4
30
-5
38
63
55
76
94
100
119
139
155
178
200
219
251
294
339
388
441
489
522
544
548
507
410
283
156
38
-61
-130
-171
-197
-211
-215
-213
-209
-205
-200
-194
-185
-178
-174
-169
-164
-161
-160
-158
-156
-156
-157
-155
-155
-156
-149
-141
-144
-144
-127
-119
-129
-117
-86
-90
-119
-124
-120
-126
-117
-113
-126
-104
-92
-134
-147
-211
-185
627
1770
1367
-462
-1313
-662
-121
-122
-62
24
-12
1
45
37
45
70
75
84
104
116
132
156
179
206
241
279
323
371
415
450
476
490
474
411
305
186
74
-25
-102
-153
-182
-196
-202
-202
-198
-191
-184
-178
-173
-167
-164
-158
-153
-152
-152
-149
-147
-145
-143
-143
-143
-142
-139
-130
-123
-128
-125
-104
-96
-107
-92
-63
-74
-103
-104
-103
-111
-98
-95
-110
-87
-80
-124
-142
-219
-138
782
1858
1239
-603
-1259
-548
-92
-119
-43
27
-14
9
47
35
45
69
72
82
101
114
128
151
174
200
231
271
316
363
403
436
459
466
445
380
277
163
58
-35
-108
-155
-181
-197
-204
-202
-196
-191
-187
-182
-175
-170
-165
-159
-153
-151
-148
-143
-139
-137
-137
-137
-137
-135
-134
-135
-134
-131
-129
-122
-113
-119
-122
-101
-88
-94
-79
-49
-59
-90
-93
-92
-101
-90
-87
-98
-73
-66
-109
-122
-194
-113
781
1811
1185
-607
-1223
-519
-77
-102
-29
36
-5
15
52
43
56
78
79
90
111
125
139
159
180
205
236
273
316
360
396
425
445
455
444
392
300
194
93
0
-75
-125
-159
-181
-188
-187
-187
-183
-174
-166
-159
-153
-153
-155
-150
-142
-142
-146
-145
-138
-135
-136
-138
-136
-131
-131
-133
-133
-131
-131
-127
-118
-114
-112
-99
-89
-98
-93
-60
-52
-84
-99
-92
-99
-97
-92
-107
-91
-68
-109
-131
-169
-151
539
1611
1316
-437
-1358
-741
-143
-118
-63
40
14
18
60
54
60
88
97
108
133
150
165
185
207
231
264
306
352
396
435
474
507
527
516
454
345
223
107
-2
-90
-146
-180
-202
-211
-209
-207
-206
-201
-191
-185
-181
-173
-163
-157
-155
-152
-150
-149
-149
-149
-150
-150
-145
-146
-150
-143
-133
-136
-136
-123
-122
-127
-104
-80
-97
-118
-113
-118
-125
-111
-115
-119
-93
-106
-131
-136
-227
17
1070
1710
533
-1082
-1150
-370
-102
-107
8
33
1
43
64
53
71
90
92
102
124
153
177
193
215
248
284
326
377
426
466
497
518
516
469
371
248
126
15
-75
-139
-178
-201
-213
-214
-212
-208
-202
-194
-187
-180
-172
-165
-160
-156
-151
-147
-144
-143
-143
-144
-144
-144
-144
-146
-144
-134
-131
-137
-124
-102
-106
-113
-85
-67
-94
-113
-107
-113
-112
-97
-108
-106
-76
-104
-130
-149
-231
188
1373
1746
260
-1185
-952
-210
-79
-88
22
16
-4
46
54
47
72
85
89
106
121
135
156
177
200
230
265
305
349
392
428
456
472
467
426
340
229
118
18
-64
-122
-159
-181
-191
-191
-188
-183
-177
-172
-165
-157
-150
-145
-143
-140
-138
-136
-134
-132
-131
-132
-133
-133
-134
-134
-125
-118
-123
-124
-102
-90
-101
-91
-61
-67
-100
-105
-102
-111
-101
-96
-110
-90
-80
-125
-138
-196
-149
662
1713
1210
-569
-1280
-588
-89
-107
-48
26
-13
4
43
32
41
65
68
79
100
111
126
148
168
190
221
258
297
339
378
409
432
443
423
361
267
160
52
-44
-114
-158
-184
-199
-205
-204
-200
-195
-188
-180
-174
-168
-165
-164
-162
-160
-159
-159
-157
-151
-149
-152
-153
-149
-148
-153
-152
-140
-135
-140
-129
-109
-110
-110
-86
-83
-111
-120
-116
-126
-121
-114
-127
-104
-79
-120
-136
-171
-178
472
1549
1310
-414
-1358
-755
-145
-117
-63
43
12
11
59
59
63
89
94
100
128
153
169
185
209
241
275
310
352
402
449
482
511
534
524
456
348
233
123
20
-62
-119
-153
-166
-170
-174
-173
-163
-150
-143
-140
-135
-128
-119
-112
-110
-108
-105
-102
-102
-100
-97
-96
-88
-84
-92
-84
-60
-61
-78
-59
-34
-50
-68
-69
-83
-83
-64
-74
-78
-50
-73
-98
-98
-158
194
1237
1564
160
-1235
-1020
-263
-83
-68
51
54
32
78
87
78
100
114
117
135
153
165
181
203
228
256
290
330
374
415
449
471
482
470
413
307
180
55
-55
-141
-199
-236
-259
-269
-271
-270
-268
-264
-259
-254
-249
-248
-246
-243
-241
-241
-241
-241
-243
-246
-247
-250
-252
-247
-241
-247
-246
-225
-217
-228
-214
-185
-195
-223
-224
-224
-232
-220
-217
-224
-193
-191
-228
-225
-292
-183
728
1641
863
-869
-1297
-532
-126
-150
-65
-6
-37
-2
36
30
50
78
88
109
137
157
182
213
244
278
318
362
411
463
510
547
578
595
583
526
438
340
247
170
116
85
71
70
78
92
109
