# session 30
-77
-79
-51
-116
-266
-331
-289
-267
-287
-287
-262
-255
-255
-234
-223
-234
-224
-202
-200
-182
-145
-145
-170
-172
-173
-186
-176
-154
-167
-166
-130
-144
-189
-244
-258
333
1555
1743
132
-1224
-924
-251
-156
-118
18
17
14
62
57
62
110
126
124
147
171
184
206
238
271
307
353
408
461
504
545
590
618
606
540
416
252
94
-24
-112
-181
-217
-226
-235
-244
-237
-228
-232
-225
-199
-184
-185
-180
-171
-171
-176
-177
-171
-162
-162
-162
-151
-148
-159
-155
-130
-124
-137
-128
-98
-92
-113
-122
-126
-134
-120
-111
-137
-125
-90
-127
-166
-225
-309
270
1615
1907
287
-1100
-819
-196
-143
-109
16
-14
-27
36
38
28
61
81
92
116
129
132
156
195
220
243
294
353
400
450
501
531
545
539
474
346
195
52
-71
-159
-215
-247
-258
-261
-267
-262
-248
-244
-240
-226
-221
-220
-206
-197
-206
-202
-183
-182
-196
-194
-181
-173
-173
-178
-176
-163
-159
-163
-144
-111
-102
-119
-132
-135
-140
-134
-121
-134
-134
-96
-114
-160
-197
-321
-15
1267
2129
944
-828
-1016
-326
-133
-148
-16
2
-25
29
39
23
52
72
76
94
111
130
163
185
200
235
284
335
389
441
488
536
578
581
526
409
254
109
-10
-123
-211
-241
-248
-271
-284
-274
-269
-270
-263
-254
-238
-218
-222
-234
-224
-212
-218
-216
-201
-193
-189
-181
-176
-172
-163
-159
-156
-129
-93
-91
-119
-135
-139
-143
-133
-126
-132
-105
-84
-131
-174
-250
-242
540
1839
1756
-36
-1194
-748
-185
-158
-92
28
4
6
58
62
69
90
91
104
132
148
167
200
230
254
287
337
394
446
502
561
594
590
558
475
332
175
41
-83
-183
-228
-238
-257
-275
-268
-249
-240
-237
-233
-231
-221
-209
-211
-208
-184
-168
-179
-188
-186
-185
-181
-175
-176
-173
-162
-158
-158
-153
-150
-151
-133
-102
-95
-114
-124
-125
-134
-131
-123
-141
-133
-95
-122
-167
-233
-350
154
1569
2123
604
-983
-865
-215
-138
-128
8
-3
-22
40
50
45
74
78
74
96
117
139
173
191
200
237
290
326
366
427
472
492
522
537
481
362
227
91
-34
-125
-181
-219
-247
-258
-251
-242
-238
-232
-224
-221
-213
-196
-188
-191
-188
-177
-173
-173
-169
-164
-164
-171
-177
-169
-156
-156
-160
-150
-140
-139
-134
-125
-121
-98
-54
-50
-94
-114
-104
-109
-112
-102
-112
-100
-71
-114
-158
-208
-311
212
1601
2045
466
-1034
-821
-179
-131
-118
15
-7
-26
42
52
38
66
86
86
96
115
137
160
184
211
248
289
333
387
441
477
501
538
560
506
382
245
121
4
-94
-160
-201
-225
-233
-230
-223
-217
-217
-216
-205
-193
-193
-201
-201
-190
-175
-166
-166
-167
-164
-164
-170
-172
-168
-166
-166
-159
-154
-154
-150
-144
-144
-143
-136
-132
-118
-86
-66
-81
-104
-109
-114
-114
-93
-92
-116
-96
-83
-130
-161
-223
-88
868
1951
1339
-504
-1197
-550
-141
-167
-50
55
9
9
54
64
77
96
105
115
135
161
180
193
223
259
287
331
394
448
498
546
579
598
584
497
350
195
52
-75
-165
-218
-249
-263
-263
-262
-262
-259
-254
-245
-232
-220
-211
-199
-192
-195
-194
-180
-173
-181
-190
-193
-182
-167
-173
-185
-173
-154
-155
-160
-150
-145
-151
-136
-101
-92
-115
-121
-114
-133
-144
-118
-109
-112
-96
-116
-150
-205
-318
115
1450
2089
702
-937
-929
-262
-137
-123
23
10
-24
50
70
43
64
92
103
118
128
146
181
205
218
254
308
355
400
462
526
563
583
586
530
403
253
103
-37
-134
-181
-218
-247
-253
-256
-265
-258
-239
-232
-229
-219
-210
-202
-196
-198
-194
-173
-163
-176
-176
-160
-161
-171
-164
-156
-152
-143
-142
-147
-140
-137
-144
-132
-117
-133
-142
-117
-106
-110
-77
-41
-65
-96
-87
-90
-107
-93
-91
-108
-77
-61
-109
-158
-276
-112
1010
2123
1344
-500
-1010
-356
-80
-139
-21
38
-9
20
47
41
65
78
74
97
117
126
157
185
197
224
263
296
339
401
453
483
511
534
513
430
315
193
64
-52
-121
-161
-201
-227
-228
-225
-223
-215
-206
-196
-186
-185
-185
-173
-162
-171
-186
-177
-154
-146
-158
-170
-163
-146
-145
-157
-156
-137
-128
-141
-150
-134
-119
-124
-130
-124
-119
-118
-114
-119
-122
-107
-95
-96
-76
-43
-49
-86
-97
-87
-88
-84
-87
-100
-69
-48
-103
-142
-221
-200
651
1916
1647
-137
-1033
-488
-65
-118
-48
39
-8
7
53
38
43
76
84
94
116
120
123
155
194
221
255
295
327
370
440
505
539
558
561
509
392
248
115
1
-94
-159
-196
-222
-247
-261
-254
-235
-220
-219
-223
-212
-200
-207
-213
-205
-201
-194
-177
-174
-189
-190
-180
-176
-173
-169
-168
-164
-161
-161
-148
-128
-133
-160
-171
-150
-123
-117
-116
-92
-68
-78
-99
-108
-127
-133
-103
-102
-128
-98
-73
-116
-173
-239
36
1087
1869
901
-759
-1044
-360
-97
-128
-7
51
15
41
72
78
97
104
112
150
181
182
187
211
246
284
319
356
404
460
515
562
593
603
577
485
325
158
38
-53
-148
-219
-237
-238
-249
-247
-226
-218
-228
-224
-206
-200
-197
-184
-174
-174
-176
-178
-181
-182
-180
-175
-173
-167
-154
-151
-165
-169
-157
-150
-152
-153
-141
-120
-109
-119
-127
-118
-114
-118
-91
-46
-45
-82
-93
-85
-96
-100
-91
-102
-91
-63
-97
-132
-184
-264
293
1622
1933
334
-1057
-793
-183
-132
-91
39
7
-6
55
49
37
75
91
86
102
126
149
176
196
214
243
283
326
368
411
464
513
536
529
484
389
263
134
16
-86
-157
-197
-220
-237
-239
-227
-222
-226
-220
-208
-203
-195
-178
-167
-170
-182
-190
-180
-164
-156
-154
-156
-157
-154
-156
-160
-153
-150
-155
-147
-133
-133
-129
-120
-130
-145
-129
-108
-117
-114
-66
-42
-80
-105
-98
-107
-108
-95
-108
-97
-60
-98
-144
-194
-280
270
1633
1997
395
-1036
-776
-148
-112
-100
30
15
3
59
55
39
71
88
88
113
143
148
157
200
248
270
285
326
393
462
514
555
599
620
571
449
302
161
31
-81
-167
-225
-251
-260
-269
-274
-268
-256
-239
-227
-233
-238
-222
-209
-210
-209
-202
-201
-206
-207
-198
-191
-191
-184
-178
-182
-177
-162
-165
-174
-159
-143
-146
-133
-96
-93
-127
-137
-127
-141
-146
-127
-130
-125
-96
-126
-186
-236
-159
571
1686
1509
-206
-1261
-762
-177
-155
-97
37
20
18
70
78
90
124
130
130
151
175
198
222
244
277
320
366
423
488
541
583
622
649
643
569
419
246
98
-32
-143
-208
-236
-252
-260
-262
-268
-269
-253
-232
-225
-225
-215
-201
-197
-201
-198
-188
-187
-193
-192
-189
-190
-187
-181
-180
-178
-166
-161
-167
-160
-137
-129
-140
-133
-108
-111
-134
-134
-129
-138
-125
-117
-135
-121
-107
-144
-190
-304
-186
850
2019
1420
-420
-1098
-478
-110
-139
-38
30
-17
3
41
37
53
72
75
98
129
143
150
170
206
250
287
320
367
427
482
524
565
595
577
491
353
194
42
-80
-167
-218
-240
-251
-264
-271
-263
-251
-241
-236
-233
-218
-197
-197
-212
-209
-196
-194
-190
-184
-186
-183
-170
-168
-174
-168
-162
-166
-163
-144
-130
-133
-126
-100
-92
-113
-120
-113
-120
-117
-102
-118
-121
-92
-116
-154
-218
-326
196
1598
2094
553
-980
-817
-182
-124
-113
22
4
-14
47
50
38
65
77
84
110
127
138
166
199
225
250
286
332
383
435
482
521
549
560
522
417
268
115
-18
-119
-184
-215
-233
-248
-247
-235
-236
-238
-223
-212
-216
-207
-187
-191
-201
-195
-187
-184
-179
-177
-178
-179
-176
-164
-164
-174
-169
-159
-161
-154
-139
-135
-122
-100
-105
-113
-110
-131
-141
-113
-122
-138
-97
-99
-146
-206
-329
68
1397
2069
703
-917
-891
-233
-126
-119
14
-6
-42
15
27
25
63
77
73
85
94
110
146
170
181
211
259
311
375
446
480
478
503
550
513
366
203
83
-22
-130
-204
-222
-226
-255
-282
-276
-247
-224
-232
-262
-269
-235
-201
-193
-192
-190
-188
-187
-194
-201
-184
-165
-170
-174
-166
-170
-171
-141
-112
-114
-119
-106
-97
-100
-115
-141
-134
-87
-98
-134
-79
-68
-175
-181
-176
-155
640
1848
1486
-375
-1230
-594
-134
-144
-7
70
0
80
151
62
57
146
157
145
167
165
171
210
233
257
315
370
428
496
511
499
563
648
623
503
369
218
58
-68
-155
-196
-192
-201
-221
-197
-164
-170
-176
-177
-203
-218
-173
-118
-134
-189
-198
-181
-193
-206
-190
-178
-184
-175
-145
-140
-178
-205
-175
-138
-146
-153
-115
-91
-113
-118
-96
-101
-132
-150
-133
-105
-119
-148
-139
-150
-180
-169
-183
92
1051
1641
547
-1050
-1231
-495
-153
-107
13
50
11
30
70
92
102
98
107
136
145
129
149
211
228
214
275
359
360
364
440
510
555
577
505
368
261
148
-17
-151
-195
-205
-238
-285
-297
-277
-273
-266
-226
-218
-251
-236
-188
-196
-230
-212
-170
-167
-192
-186
-153
-151
-172
-176
-165
-139
-104
-112
-145
-128
-86
-88
-109
-107
-106
-119
-120
-114
-115
-98
-81
-104
-158
-249
-92
841
1837
1212
-619
-1367
-712
-188
-146
-49
59
65
101
132
112
118
154
184
204
202
211
261
303
318
357
421
475
535
615
680
723
763
768
691
547
367
177
8
-120
-211
-269
-300
-313
-306
-296
-308
-316
-295
-276
-270
-259
-257
-251
-219
-207
-241
-258
-227
-208
-223
-227
-208
-204
-226
-234
-211
-193
-200
-204
-186
-172
-190
-215
-205
-183
-190
-191
-168
-177
-186
-144
-155
-201
-211
-262
122
1387
2041
593
-1229
-1263
-444
-200
-165
-2
13
-20
43
67
60
95
122
130
150
171
192
222
251
279
317
362
418
489
560
629
688
717
707
645
513
334
158
7
-113
-192
-245
-283
-293
-286
-288
-291
-278
-263
-256
-245
-239
-243
-236
-220
-217
-220
-209
-204
-211
-203
-189
-193
-190
-172
-168
-168
-146
-133
-149
-159
-162
-174
-165
-141
-151
-159
-135
-153
-203
-268
-310
255
1603
2050
461
-1199
-1102
-367
-203
-163
4
21
-3
50
68
66
96
115
124
147
168
189
224
258
284
317
369
439
512
571
618
666
701
685
594
432
239
59
-84
-189
-258
-298
-313
-313
-311
-311
-307
-293
-276
-267
-265
-260
-248
-240
-238
-237
-234
-227
-218
-210
-212
-221
-219
-203
-190
-176
-162
-166
-178
-178
-181
-185
-171
-168
-177
-157
-152
-184
-232
-356
-161
971
2055
1277
-596
-1205
-568
-195
-182
-50
22
-13
22
58
53
78
104
107
125
152
167
181
205
244
292
339
394
465
533
588
637
680
694
641
501
309
126
-28
-149
-225
-264
-293
-308
-302
-289
-282
-274
-262
-253
-247
-240
-234
-232
-231
-227
-222
-214
-204
-202
-209
-208
-200
-202
-200
-180
-171
-180
-181
-179
-183
-176
-170
-173
-154
-149
-177
-204
-336
-319
636
1984
1690
-204
-1225
-714
-216
-192
-86
22
-16
-1
51
45
54
86
96
109
133
151
170
196
224
261
309
366
430
498
564
624
674
698
659
530
339
145
-16
-141
-226
-275
-297
-307
-308
-299
-286
-281
-278
-267
-258
-256
-251
-239
-231
-228
-220
-211
-212
-213
-206
-207
-220
-215
-189
-179
-181
-178
-185
-189
-172
-173
-185
-170
-178
-199
-233
-366
-72
1239
2232
1122
-825
-1214
-476
-160
-160
-16
41
-9
17
48
47
76
103
103
108
133
168
198
215
240
281
334
396
457
513
573
638
680
675
600
448
256
81
-58
-169
-248
-288
-301
-306
-306
-298
-287
-279
-273
-267
-266
-264
-260
-258
-255
-246
-241
-236
-222
-215
-219
-203
-175
-176
-188
-162
-134
-159
-187
-177
-177
-188
-166
-160
-178
-148
-140
-188
-212
-332
-230
944
2286
1545
-625
-1375
-596
-144
-171
-48
29
-25
9
54
42
57
82
90
115
142
155
177
210
244
284
331
381
436
495
555
614
656
666
618
494
317
139
-14
-132
-209
-256
-283
-290
-285
-281
-277
-269
-263
-256
-253
-255
-249
-238
-240
-245
-235
-218
-208
-203
-199
-199
-208
-210
-186
-155
-160
-184
-188
-183
-181
-167
-175
-192
-156
-142
-193
-215
-315
-228
862
2153
1464
-659
-1426
-648
-162
-178
-55
37
-6
25
71
62
80
111
121
141
168
187
208
237
271
313
363
424
493
556
612
669
710
701
624
479
294
114
-36
-150
-227
-272
-292
-295
-294
-289
-280
-272
-266
-257
-245
-236
-231
-229
-231
-230
-227
-218
-203
-196
-205
-206
-192
-192
-196
-167
-140
-159
-183
-181
-188
-190
-170
-177
-183
-147
-160
-195
-228
-368
-35
1325
2140
746
-1135
-1219
-400
-161
-151
6
30
-4
47
69
65
92
106
114
144
168
180
205
242
278
315
364
428
493
552
606
651
677
657
564
404
215
39
-97
-189
-248
-283
-301
-303
-299
-294
-287
-274
-264
-256
-248
-247
-250
-245
-238
-238
-235
-229
-228
-222
-206
-203
-216
-202
-174
-178
-187
-158
-140
-167
-184
-178
-185
-184
-166
-179
-180
-142
-164
-201
-224
-353
0
1393
2218
792
-1129
-1220
-386
-140
-135
12
26
-10
45
68
60
89
107
113
135
157
178
206
231
264
310
356
406
472
536
586
627
657
653
585
441
261
104
-17
-108
-165
-199
-231
-249
-243
-229
-221
-215
-208
-200
-190
-186
-183
-175
-166
-164
-159
-151
-147
-145
-142
-140
-140
-138
-133
-124
-112
-107
-105
-95
-79
-76
-73
-49
