# session 8
-51
-61
-7
-136
-451
-604
-538
-491
-506
-491
-455
-441
-439
-424
-397
-382
-382
-376
-358
-340
-322
-309
-306
-304
-294
-284
-279
-280
-281
-252
-212
-214
-210
-166
-177
-192
-200
-360
-140
1002
1644
365
-1201
-1120
-320
-87
-61
88
128
114
169
215
242
280
318
367
423
478
554
619
643
670
705
696
637
534
381
227
112
17
-55
-82
-93
-116
-132
-134
-134
-142
-157
-169
-170
-165
-162
-166
-171
-169
-168
-169
-164
-163
-177
-183
-180
-188
-201
-196
-175
-167
-170
-139
-118
-151
-150
-235
-368
243
1460
1343
-444
-1492
-869
-178
-120
-76
39
41
62
108
113
146
210
254
296
354
427
515
587
609
605
599
563
472
341
198
62
-47
-127
-187
-222
-231
-234
-234
-225
-224
-232
-229
-217
-220
-232
-228
-214
-207
-198
-180
-167
-176
-194
-192
-181
-181
-180
-160
-133
-125
-122
-93
-87
-107
-111
-253
-326
438
1509
1024
-750
-1444
-697
-124
-95
-14
80
56
77
125
128
152
207
260
325
395
450
510
574
602
594
571
518
414
287
160
31
-80
-154
-203
-222
-212
-212
-226
-217
-200
-210
-220
-211
-208
-214
-215
-212
-212
-209
-196
-191
-210
-225
-214
-204
-216
-232
-218
-182
-178
-191
-156
-139
-173
-187
-307
-303
555
1589
965
-793
-1323
-550
-72
-56
58
137
102
135
181
176
197
246
292
353
419
487
559
603
607
596
573
520
426
298
168
49
-61
-130
-147
-170
-203
-196
-174
-182
-191
-183
-180
-183
-178
-179
-192
-195
-186
-180
-176
-174
-185
-184
-161
-153
-174
-187
-183
-181
-174
-147
-137
-143
-113
-107
-159
-158
-233
-324
314
1366
1026
-654
-1391
-701
-134
-104
-36
54
38
66
118
122
138
186
236
284
325
378
455
517
533
526
511
480
424
331
202
71
-27
-88
-130
-164
-177
-166
-159
-167
-169
-159
-151
-146
-146
-147
-136
-120
-126
-138
-126
-119
-129
-126
-118
-130
-136
-121
-120
-140
-146
-126
-123
-139
-115
-88
-124
-131
-179
-285
171
1147
1060
-442
-1360
-834
-194
-90
-27
70
49
50
98
112
130
172
207
245
298
357
417
468
495
504
507
496
453
366
247
129
30
-44
-95
-122
-121
-110
-113
-117
-109
-98
-97
-106
-117
-117
-112
-123
-134
-125
-116
-125
-129
-125
-133
-143
-138
-140
-156
-154
-141
-152
-172
-164
-137
-138
-159
-137
-108
-144
-150
-202
-396
-33
1152
1452
-86
-1417
-1045
-275
-136
-104
30
33
27
84
101
117
171
213
250
307
371
443
521
580
600
588
566
520
416
265
115
-15
-116
-174
-210
-243
-252
-232
-222
-231
-239
-236
-222
-209
-207
-210
-208
-207
-201
-185
-166
-150
-149
-169
-181
-168
-161
-173
-175
-150
-136
-141
-116
-95
-132
-133
-180
-358
5
1104
1285
-258
-1475
-1000
-195
-46
-5
134
137
130
187
202
217
272
312
349
423
509
583
646
688
693
668
616
530
405
259
119
4
-84
-147
-178
-180
-179
-186
-187
-184
-185
-181
-175
-176
-175
-171
-175
-183
-178
-167
-171
-177
-172
-170
-175
-174
-174
-187
-197
-180
-144
-138
-156
-134
-118
-147
-161
-289
-353
401
1469
981
-795
-1455
-676
-123
-125
-45
55
27
43
93
106
136
184
229
297
369
421
483
557
592
583
557
515
436
315
169
33
-73
-151
-191
-197
-202
-214
-210
-198
-197
-199
-191
-184
-183
-180
-171
-170
-181
-191
-189
-183
-182
-183
-176
-160
-157
-160
-146
-135
-149
-156
-138
-127
-137
-147
-140
-125
-132
-132
-100
-115
-147
-158
-322
-264
700
1545
608
-1045
-1243
-436
-95
-100
19
74
50
91
125
137
190
244
280
347
441
516
579
653
709
708
670
633
575
460
318
191
83
-8
-71
-108
-128
-143
-153
-148
-134
-138
-161
-178
-182
-185
-193
-205
-214
-213
-207
-201
-195
-183
-167
-156
-156
-155
-148
-152
-163
-159
-143
-144
-159
-149
-114
-103
-111
-75
-56
-88
-75
-162
-325
228
1349
1170
-571
-1531
-862
-157
-91
-42
76
76
90
137
142
159
205
245
289
352
430
511
578
626
651
639
592
514
398
254
110
-13
-108
-176
-218
-238
-242
-239
-226
-217
-220
-224
-217
-201
-186
-180
-185
-191
-190
-191
-195
-193
-186
-178
-172
-165
-153
-149
-162
-158
-136
-138
-159
-160
-140
-131
-146
-139
-107
-124
-138
-153
-346
-259
754
1514
420
-1252
-1347
-468
-114
-117
-1
49
27
71
104
109
143
181
227
300
368
433
521
605
643
643
620
567
470
333
178
45
-56
-145
-215
-244
-243
-234
-220
-203
-190
-175
-152
-136
-136
-138
-133
-128
-121
-109
-104
-110
-115
-111
-109
-109
-98
-80
-83
-100
-89
-68
-79
-96
-92
-79
-73
-75
-51
-14
-41
-67
-89
-265
-72
1026
1654
386
-1196
-1123
-287
-39
-47
73
102
85
135
162
169
211
257
291
340
413
502
583
639
676
693
680
628
526
381
228
87
-35
-125
-186
-233
-261
-268
-273
-285
-293
-293
-291
-289
-291
-297
-300
-296
-289
-279
-262
-245
-232
-221
-207
-198
-197
-193
-179
-166
-157
-138
-115
-121
-144
-141
-121
-129
-152
-142
-114
-118
-125
-97
-99
-110
-115
-272
-218
676
1437
468
-1213
-1420
-524
-80
-61
61
139
118
150
191
204
237
270
297
353
424
488
562
645
699
707
687
643
555
418
264
121
1
-88
-147
-190
-210
-212
-212
-209
-194
-180
-172
-168
-166
-164
-158
-156
-159
-161
-158
-157
-154
-154
-154
-147
-139
-136
-128
-117
-121
-133
-127
-112
-113
-129
-124
-99
-104
-114
-83
-83
-112
-84
-190
-291
384
1353
792
-1004
-1633
-765
-104
-52
34
139
115
125
171
181
200
236
271
320
380
447
516
574
626
666
660
611
533
410
252
108
-5
-101
-172
-214
-234
-234
-220
-217
-223
-220
-211
-207
-204
-196
-191
-195
-195
-185
-185
-195
-193
-182
-183
-187
-176
-158
-147
-152
-158
-140
-121
-134
-152
-150
-141
-131
-135
-141
-113
-108
-133
-130
-249
-274
518
1476
817
-935
-1431
-591
-65
-66
14
101
80
98
132
141
181
229
267
326
394
453
522
597
650
673
666
634
572
461
313
176
68
-26
-98
-136
-149
-153
-155
-151
-140
-132
-134
-135
-125
-119
-125
-128
-131
-138
-140
-133
-133
-134
-131
-135
-142
-138
-132
-132
-125
-108
-111
-132
-127
-105
-112
-135
-133
-114
-109
-117
-100
-85
-118
-124
-169
-335
-3
1084
1349
-158
-1503
-1144
-316
-128
-96
39
45
23
76
104
120
160
192
234
296
359
436
531
605
640
646
629
582
488
354
209
74
-42
-129
-189
-225
-241
-247
-248
-238
-229
-232
-239
-235
-225
-221
-217
-211
-212
-217
-211
-199
-194
-194
-190
-183
-177
-167
-142
-129
-144
-143
-114
-110
-136
-144
-123
-103
-102
-86
-56
-80
-106
-107
-243
-178
680
1381
402
-1237
-1419
-520
-59
-26
85
142
124
176
217
217
249
284
302
354
434
507
572
636
683
698
682
638
553
422
277
141
27
-58
-122
-169
-185
-179
-175
-174
-170
-173
-179
-177
-169
-170
-172
-167
-167
-173
-167
-161
-165
-155
-132
-137
-156
-151
-146
-161
-176
-177
-160
-147
-155
-140
-120
-148
-142
-178
-308
117
1139
1072
-598
-1655
-997
-176
-60
-25
93
84
91
159
177
186
224
261
304
359
420
496
570
609
632
656
644
571
451
305
160
40
-62
-150
-197
-208
-214
-219
-215
-211
-207
-197
-188
-184
-183
-183
-183
-180
-181
-186
-185
-180
-179
-178
-173
-166
-163
-155
-146
-143
-134
-118
-120
-133
-125
-108
-113
-129
-127
-108
-106
-119
-93
-73
-111
-118
-169
-272
211
1211
1072
-557
-1517
-881
-141
-40
3
109
100
111
165
168
181
233
271
304
355
411
471
538
590
604
598
588
553
470
353
228
110
-1
-90
-135
-144
-154
-171
-170
-157
-158
-169
-171
-160
-154
-160
-161
-159
-166
-171
-166
-170
-178
-172
-159
-162
-164
-145
-129
-140
-150
-135
-129
-149
-165
-152
-123
-122
-143
-122
-103
-134
-145
-219
-228
422
1248
656
-989
-1500
-675
-94
-62
11
86
61
100
161
158
163
202
242
287
330
380
451
514
543
553
555
542
502
425
317
194
79
-11
-79
-125
-142
-145
-147
-145
-139
-138
-136
-129
-127
-128
-125
-124
-131
-135
-129
-125
-122
-116
-115
-119
-118
-116
-116
-108
-98
-102
-103
-89
-90
-114
-131
-125
-108
-110
-123
-101
-84
-121
-137
-195
-229
345
1247
884
-739
-1492
-805
-169
-93
-17
80
60
81
142
154
174
220
254
293
351
415
488
556
603
627
633
625
593
509
365
208
77
-36
-133
-194
-217
-230
-244
-246
-234
-230
-238
-235
-218
-219
-235
-238
-232
-229
-223
-217
-218
-218
-215
-210
-197
-179
-162
-154
-163
-169
-156
-150
-166
-170
-145
-124
-128
-123
-91
-93
-113
-126
-242
-163
647
1337
449
-1143
-1389
-545
-84
-56
44
111
100
149
193
195
223
267
301
348
411
477
550
619
664
676
666
639
572
446
293
157
45
-52
-125
-167
-186
-198
-206
-201
-194
-191
-185
-177
-174
-175
-172
-169
-169
-171
-168
-160
-152
-141
-130
-139
-161
-165
-155
-158
-169
-163
-147
-151
-158
-124
-113
-152
-156
-233
-255
427
1339
776
-952
-1545
-712
-100
-77
-19
68
55
79
120
125
154
198
222
254
315
395
475
542
597
624
611
575
514
401
252
117
15
-69
-134
-174
-196
-206
-203
-187
-168
-158
-165
-170
-162
-154
-158
-160
-156
-159
-164
-157
-150
-159
-167
-155
-142
-146
-145
-126
-123
-142
-136
-112
-116
-136
-136
-118
-100
-109
-114
-81
-83
-111
-120
-236
-130
772
1490
501
-1117
-1270
-427
-55
-57
39
80
60
108
141
149
189
219
240
298
368
425
491
569
627
649
645
625
569
454
305
164
39
-69
-142
-191
-229
-241
-228
-222
-225
-222
-216
-205
-191
-193
-206
-199
-180
-180
-185
-171
-160
-169
-176
-168
-159
-149
-128
-121
-142
-146
-125
-126
-156
-166
-140
-116
-127
-136
-116
-123
-126
-130
-268
-131
805
1421
277
-1356
-1402
-471
-82
-91
22
87
62
87
116
129
171
212
243
293
361
436
514
578
622
647
646
617
548
425
269
128
25
-61
-143
-196
-204
-200
-211
-217
-200
-179
-171
-172
-168
-153
-145
-157
-166
-146
-131
-150
-163
-150
-140
-143
-141
-135
-129
-118
-119
-136
-139
-124
-122
-140
-146
-125
-116
-131
-112
-90
-123
-136
-199
-298
227
1288
1155
-542
-1555
-907
-153
-76
-47
61
49
63
131
140
144
185
220
264
330
404
489
576
632
659
668
653
609
523
393
254
135
31
-59
-121
-159
-179
-183
-174
-160
-149
-145
-141
-127
-118
-125
-130
-122
-123
-135
-144
-147
-153
-156
-153
-151
-156
-162
-158
-149
-146
-144
-132
-127
-135
-137
-130
-132
-139
-139
-134
-120
-119
-122
-90
-83
-127
-141
-234
-256
466
1425
891
-808
-1405
-647
-115
-101
-19
63
28
54
114
122
142
184
216
262
327
393
464
531
582
623
649
643
595
494
354
218
99
-16
-112
-170
-200
-219
-225
-217
-210
-207
-199
-185
-178
-177
-168
-158
-161
-163
-153
-148
-158
-167
-159
-145
-139
-139
-139
-137
-135
-132
-129
-123
-118
-114
-110
-108
-110
-104
-91
-88
-93
-91
-87
-82
-72
-64
-62
-57
-54
-58
-56
-48
-49
-59
-65
-60
-60
-70
-50
-27
-58
-85
-162
-235
316
1362
1259
-328
-1308
-774
-133
-68
-18
100
89
88
135
141
144
174
204
242
292
343
401
462
516
552
562
549
525
482
400
290
177
75
-7
-68
-122
-166
-177
-161
-156
-162
-159
-152
-147
-136
-126
-131
-136
-136
-141
-145
-142
-141
-147
-152
-153
-153
-151
-149
-150
-151
-146
-137
-137
-141
-128
-107
-113
-131
-114
-90
-99
-114
-107
-94
-93
-104
-92
-65
-87
-108
-148
-281
28
1066
1403
42
-1279
-1016
-252
-69
-47
72
79
65
116
143
159
191
213
250
308
358
418
502
582
639
671
674
654
602
492
339
193
79
-15
-92
-152
-191
-196
-180
-176
-179
-169
-151
-144
-145
-142
-131
-123
-124
-128
-131
-131
-137
-146
-151
-149
-146
-141
-134
-135
-144
-150
-153
-152
-142
-130
-128
-129
-127
-125
-127
-129
-126
-118
-113
-109
-100
-93
-97
-107
-111
-105
-95
-97
-105
-96
-79
-81
-95
-98
-91
-86
-85
-85
-86
-86
-82
-80
-85
-88
-77
-64
-67
-71
-49
-28
-47
-78
-76
-67
-80
-66
-37
-58
-85
-171
-315
144
1319
1568
100
-1153
-849
-179
-75
-71
41
57
56
106
123
128
163
197
223
260
308
355
412
478
529
553
559
545
509
457
380
272
161
73
8
-48
-98
-134
-148
-145
-139
-139
-141
-131
-114
-104
-102
-99
-93
-81
-75
-89
-96
-75
-62
-77
-87
-81
-76
-70
-63
-61
-57
-49
-46
-39
-33
-40
-45
-34
-24
-24
-24
-18
-6
-1
3
19
38
37
17
-9
-18
-9
-15
-19
8
-6
-51
-87
-216
-70
872
1561
570
-961
-1095
-355
-64
-70
27
59
39
89
122
123
156
192
216
259
315
367
427
501
568
612
629
620
575
482
352
209
74
-40
-128
-195
-249
-286
-296
-294
-294
-291
-278
-274
-277
-268
-250
-247
-256
-265
-272
-280
-286
-292
-300
-304
-303
-306
-314
-321
-319
-312
-309
-309
-303
-294
-296
-300
-285
-268
-272
-276
-253
-236
-249
-247
-210
-190
-213
-231
-222
-219
-228
-206
-186
-214
-225
-294
-391
145
1271
1275
-368
-1513
-1010
-268
-147
-96
43
52
59
126
160
183
232
277
322
378
443
525
620
714
795
851
875
869
821
720
580
440
324
229
155
111
92
81
83
102
124
144
175
