# session 24
-19
-7
-26
-68
-43
52
94
68
60
67
55
44
41
37
34
29
20
15
12
6
1
-1
-3
-3
-9
-20
-26
-18
-9
-14
-27
-25
-15
-24
-29
2
22
-4
-29
-35
-44
-40
-40
-62
-45
-24
-71
-101
-153
-119
596
1592
1188
-487
-1242
-645
-166
-158
-89
-20
-57
-32
19
23
44
66
60
72
103
120
133
157
193
235
275
316
370
428
471
497
510
494
439
350
240
128
25
-63
-134
-179
-203
-215
-221
-222
-218
-212
-213
-210
-194
-179
-175
-174
-171
-171
-170
-164
-161
-162
-163
-166
-170
-173
-176
-177
-174
-168
-169
-174
-160
-131
-130
-146
-124
-83
-89
-114
-117
-123
-128
-112
-114
-115
-86
-104
-141
-162
-234
107
1198
1671
352
-1137
-1060
-349
-166
-142
-10
-3
-26
27
44
38
65
86
99
125
151
174
204
236
271
316
370
432
492
540
574
593
581
522
420
296
171
60
-36
-110
-154
-175
-189
-196
-198
-197
-193
-187
-182
-175
-166
-158
-152
-147
-139
-132
-129
-130
-130
-129
-128
-129
-129
-129
-128
-131
-133
-130
-129
-128
-120
-116
-127
-127
-106
-100
-102
-74
-47
-65
-86
-86
-93
-92
-82
-94
-81
-57
-98
-132
-180
-222
388
1592
1629
-6
-1147
-738
-171
-143
-102
-1
-33
-32
19
14
14
43
53
61
84
100
118
147
182
218
259
310
368
423
467
499
515
505
456
366
256
146
45
-42
-108
-152
-178
-190
-195
-198
-198
-192
-184
-176
-167
-160
-155
-147
-140
-137
-135
-131
-129
-130
-128
-125
-127
-132
-129
-125
-127
-131
-130
-127
-125
-123
-115
-107
-115
-127
-113
-92
-94
-82
-46
-44
-71
-79
-79
-86
-78
-82
-90
-62
-70
-117
-132
-217
-43
986
1864
951
-754
-1088
-407
-125
-145
-39
-4
-41
0
27
16
37
61
66
85
107
121
144
177
206
239
288
344
400
454
499
525
526
501
434
331
217
111
15
-65
-122
-159
-182
-195
-199
-201
-202
-197
-184
-170
-164
-159
-155
-152
-151
-146
-144
-144
-138
-132
-135
-137
-130
-129
-135
-138
-136
-135
-131
-127
-127
-125
-122
-116
-112
-119
-125
-103
-88
-106
-99
-52
-44
-79
-93
-92
-93
-81
-87
-97
-70
-74
-117
-141
-208
44
1068
1748
665
-953
-1125
-420
-163
-158
-28
8
-25
15
41
37
61
84
94
116
137
155
185
217
247
289
343
401
460
516
557
583
589
554
467
347
222
106
2
-85
-143
-175
-194
-208
-214
-215
-211
-204
-195
-185
-175
-168
-161
-151
-146
-145
-143
-139
-136
-136
-135
-135
-137
-141
-140
-139
-139
-139
-135
-132
-130
-126
-124
-120
-110
-110
-121
-112
-92
-94
-92
-58
-41
-65
-81
-81
-85
-81
-83
-92
-71
-70
-108
-136
-238
-128
825
1835
1177
-545
-1111
-488
-126
-142
-51
6
-33
-4
31
23
41
65
72
88
109
124
148
181
215
254
303
359
420
477
524
558
570
547
474
360
232
111
0
-88
-146
-180
-201
-212
-217
-220
-217
-209
-201
-194
-187
-180
-173
-165
-157
-150
-143
-137
-134
-132
-133
-132
-132
-131
-128
-127
-129
-130
-129
-127
-126
-126
-123
-117
-113
-111
-106
-102
-96
-86
-88
-100
-95
-74
-71
-76
-49
-24
-40
-63
-67
-70
-64
-61
-76
-62
-46
-88
-114
-167
-139
608
1728
1449
-269
-1167
-622
-127
-131
-67
20
-23
-17
31
29
34
56
64
77
98
112
131
160
188
219
260
309
360
413
462
497
513
507
468
387
280
169
64
-27
-94
-138
-164
-178
-185
-185
-180
-172
-166
-160
-153
-146
-139
-130
-124
-120
-117
-114
-110
-109
-109
-110
-109
-106
-107
-107
-103
-104
-109
-106
-95
-91
-95
-98
-96
-93
-89
-87
-88
-90
-92
-91
-86
-79
-74
-76
-85
-87
-74
-69
-76
-54
-14
-17
-46
-58
-65
-66
-54
-63
-66
-43
-74
-112
-132
-201
188
1292
1646
266
-1082
-895
-252
-141
-118
0
-13
-36
16
36
38
58
63
73
105
129
140
159
190
228
270
313
366
424
475
515
543
555
536
467
358
239
128
23
-66
-126
-163
-190
-209
-215
-210
-202
-198
-192
-182
-174
-170
-166
-161
-155
-150
-150
-152
-148
-146
-149
-151
-149
-151
-153
-150
-144
-145
-150
-151
-141
-130
-138
-149
-133
-113
-120
-113
-76
-69
-97
-109
-109
-110
-99
-99
-105
-83
-93
-135
-156
-224
-2
985
1699
684
-960
-1198
-476
-166
-152
-28
14
-17
25
51
41
65
91
97
114
140
162
187
218
254
297
345
398
461
520
559
582
588
550
464
350
229
108
0
-84
-139
-172
-189
-196
-198
-198
-195
-189
-181
-174
-165
-155
-148
-143
-139
-136
-134
-133
-132
-129
-127
-128
-129
-128
-127
-129
-129
-127
-124
-119
-113
-112
-112
-104
-95
-103
-111
-94
-78
-81
-66
-33
-39
-70
-74
-74
-82
-76
-83
-93
-66
-77
-120
-135
-214
23
1069
1787
732
-862
-1027
-355
-132
-142
-32
-13
-48
-7
12
4
28
48
54
72
91
109
134
158
187
230
278
328
385
438
477
505
518
497
434
341
238
131
25
-62
-117
-150
-174
-184
-187
-189
-189
-182
-176
-167
-154
-148
-150
-147
-140
-141
-146
-144
-141
-145
-146
-141
-137
-139
-142
-140
-138
-141
-141
-132
-134
-145
-133
-110
-111
-112
-83
-69
-92
-103
-100
-108
-103
-97
-110
-93
-78
-122
-147
-188
-115
668
1685
1220
-517
-1278
-668
-187
-172
-84
1
-30
-10
31
26
41
69
79
95
119
137
161
194
226
263
308
363
425
485
533
564
575
558
498
392
264
139
27
-67
-134
-174
-195
-207
-213
-214
-212
-206
-199
-189
-180
-172
-164
-157
-153
-148
-140
-136
-136
-137
-135
-135
-137
-140
-140
-138
-139
-140
-134
-129
-134
-133
-114
-109
-113
-87
-60
-77
-101
-102
-106
-103
-91
-105
-101
-71
-103
-137
-163
-239
215
1413
1746
266
-1103
-877
-237
-147
-127
-13
-28
-39
13
16
13
42
53
59
83
101
114
140
174
208
245
293
347
401
450
487
509
509
474
395
288
176
71
-22
-97
-147
-175
-189
-194
-193
-190
-186
-182
-177
-169
-159
-152
-148
-145
-141
-136
-134
-134
-134
-133
-132
-131
-131
-133
-132
-128
-127
-125
-118
-119
-126
-115
-100
-105
-94
-56
-50
-82
-92
-89
-95
-86
-82
-99
-79
-68
-114
-134
-196
-130
705
1743
1230
-497
-1174
-552
-129
-144
-64
3
-38
-16
22
13
24
48
54
67
87
105
128
156
183
217
263
314
368
419
464
494
505
490
438
349
244
138
35
-52
-111
-146
-168
-183
-189
-188
-183
-175
-166
-161
-158
-153
-149
-145
-140
-140
-143
-139
-132
-133
-136
-136
-139
-139
-136
-136
-138
-134
-128
-122
-123
-130
-123
-105
-107
-107
-79
-63
-83
-93
-92
-106
-103
-91
-106
-96
-72
-112
-145
-186
-176
483
1571
1377
-309
-1285
-762
-200
-169
-107
-7
-35
-22
31
26
32
64
75
88
116
136
154
181
210
242
287
341
400
455
500
532
551
545
493
400
288
174
62
-35
-105
-146
-173
-193
-202
-201
-197
-191
-184
-177
-170
-163
-156
-149
-141
-135
-135
-135
-132
-131
-135
-141
-144
-143
-142
-139
-132
-128
-138
-144
-128
-121
-126
-107
-77
-86
-109
-108
-113
-121
-108
-111
-112
-82
-98
-137
-161
-268
7
1140
1833
657
-954
-1044
-347
-141
-145
-27
-12
-44
1
22
17
40
54
57
76
97
117
143
169
201
245
293
344
401
454
492
516
521
489
411
303
187
77
-19
-92
-141
-170
-185
-193
-197
-196
-190
-183
-178
-170
-161
-155
-155
-150
-143
-139
-138
-139
-138
-136
-134
-137
-139
-138
-137
-137
-136
-134
-128
-119
-123
-130
-114
-99
-103
-89
-54
-54
-83
-90
-88
-94
-84
-83
-95
-72
-71
-119
-142
-226
-116
819
1810
1120
-621
-1158
-499
-131
-150
-56
2
-37
-9
23
13
31
58
65
79
100
115
135
163
193
230
276
326
380
435
479
507
521
511
457
363
251
141
43
-40
-102
-145
-169
-181
-187
-189
-184
-177
-173
-165
-154
-146
-146
-147
-141
-134
-132
-133
-132
-130
-132
-136
-138
-136
-134
-136
-141
-140
-131
-126
-126
-120
-118
-129
-127
-103
-97
-106
-80
-51
-67
-92
-96
-103
-103
-92
-105
-98
-66
-97
-132
-152
-198
263
1390
1621
112
-1208
-935
-275
-169
-128
-3
-16
-30
24
31
31
63
79
87
112
135
152
178
210
245
285
332
386
445
496
532
552
550
513
433
322
201
89
-9
-90
-147
-176
-190
-201
-206
-203
-199
-193
-183
-172
-164
-159
-153
-146
-142
-138
-134
-133
-133
-132
-131
-131
-135
-139
-138
-137
-138
-135
-131
-130
-125
-119
-123
-129
-114
-100
-104
-87
-52
-54
-80
-87
-92
-99
-87
-90
-100
-74
-85
-129
-148
-245
-64
985
1855
917
-780
-1091
-412
-138
-154
-45
-9
-41
0
25
14
32
50
53
70
93
112
136
163
192
228
273
326
381
432
475
505
517
499
437
340
229
120
18
-67
-125
-160
-180
-192
-197
-197
-191
-182
-176
-172
-164
-155
-149
-145
-139
-134
-133
-133
-128
-121
-122
-127
-129
-129
-130
-129
-124
-123
-125
-126
-121
-113
-105
-105
-114
-109
-88
-83
-81
-48
-26
-53
-78
-75
-80
-80
-68
-81
-77
-48
-83
-119
-147
-210
271
1459
1725
210
-1109
-835
-206
-134
-115
-5
-24
-36
14
16
15
44
54
61
84
102
118
144
171
203
242
285
333
386
435
470
491
495
467
399
302
195
89
-4
-77
-129
-161
-178
-186
-188
-186
-181
-174
-168
-164
-155
-144
-139
-141
-139
-133
-127
-128
-128
-127
-128
-130
-130
-128
-129
-130
-128
-125
-123
-125
-126
-122
-118
-112
-100
-98
-109
-107
-90
-90
-91
-59
-36
-56
-76
-80
-86
-79
-71
-90
-79
-51
-94
-129
-158
-167
437
1556
1485
-171
-1245
-777
-193
-154
-97
10
-23
-25
24
23
27
58
72
81
104
127
149
175
201
232
275
328
379
428
480
524
548
552
523
440
323
206
93
-12
-89
-140
-176
-198
-205
-209
-211
-204
-190
-182
-180
-176
-168
-159
-153
-151
-150
-148
-145
-143
-144
-149
-151
-149
-144
-142
-144
-142
-133
-131
-143
-144
-124
-117
-127
-106
-71
-79
-103
-105
-108
-111
-98
-105
-108
-77
-93
-133
-151
-233
68
1167
1752
508
-1053
-1066
-352
-152
-144
-17
-4
-31
19
36
29
59
81
86
105
127
144
170
201
233
273
322
376
433
485
526
552
556
522
444
334
211
93
-8
-86
-141
-174
-191
-200
-201
-198
-196
-193
-184
-175
-168
-163
-156
-152
-150
-148
-146
-143
-142
-142
-142
-142
-143
-143
-141
-139
-137
-137
-136
-129
-121
-128
-136
-121
-107
-111
-96
-62
-65
-95
-101
-99
-104
-94
-97
-103
-75
-84
-130
-149
-238
-56
969
1821
896
-781
-1088
-405
-126
-144
-39
-4
-36
4
28
19
40
57
61
81
101
112
134
163
190
223
268
318
369
417
455
483
498
487
435
345
239
132
31
-54
-113
-149
-171
-182
-185
-182
-175
-166
-158
-153
-150
-144
-137
-132
-132
-130
-127
-128
-128
-126
-125
-126
-126
-124
-123
-123
-121
-119
-117
-116
-117
-110
-101
-108
-115
-97
-82
-89
-73
-38
-42
-72
-80
-83
-87
-77
-82
-91
-62
-73
-120
-131
-202
9
1032
1798
792
-851
-1078
-380
-120
-136
-27
1
-37
0
23
16
38
56
58
75
97
114
136
162
185
217
259
305
356
407
447
470
481
474
425
336
236
135
36
-49
-109
-147
-168
-176
-179
-177
-172
-168
-166
-162
-154
-146
-143
-144
-140
-134
-129
-127
-132
-140
-142
-138
-135
-134
-134
-135
-132
-125
-124
-129
-130
-124
-117
-112
-117
-119
-99
-83
-92
-80
-42
-42
-77
-94
-96
-92
-83
-94
-97
-62
-75
-116
-135
-199
119
1172
1656
380
-1100
-1039
-330
-146
-131
-8
-2
-26
26
42
38
67
85
91
114
134
148
176
206
233
268
314
365
418
467
502
528
542
526
462
361
245
133
29
-60
-124
-163
-185
-197
-200
-194
-188
-184
-177
-168
-162
-160
-158
-155
-152
-149
-148
-147
-145
-147
-149
-151
-152
-153
-153
-151
-142
-139
-150
-149
-128
-126
-135
-111
-83
-99
-119
-117
-122
-122
-107
-116
-119
-90
-114
-149
-172
-251
115
1235
1675
329
-1108
-988
-307
-155
-136
-13
-13
-33
17
30
27
54
70
76
97
119
137
163
194
227
263
308
360
413
461
499
522
520
484
408
303
188
76
-21
-90
-136
-170
-189
-195
-197
-195
-190
-184
-175
-165
-157
-153
-148
-144
-137
-130
-129
-133
-131
-124
-122
-121
-117
-114
-114
-116
-114
-106
-103
-113
-112
-93
-87
-94
-70
-39
-48
-73
-78
-84
-84
-72
-86
-92
-61
-84
-129
-142
-221
61
1158
1798
617
-948
-1004
-315
-121
-130
-20
-10
-36
10
22
13
40
57
59
77
97
110
132
162
191
222
263
312
362
407
443
467
477
459
400
311
212
110
11
-67
-118
-153
-176
-187
-191
-188
-181
-175
-171
-164
-156
-152
-149
-145
-143
-144
-143
-144
-145
-142
-140
-142
-143
-144
-147
-147
-145
-146
-144
-134
-135
-146
-136
-118
-120
-110
-75
-67
-96
-107
-104
-112
-104
-97
-111
-93
-80
-125
-144
-195
-159
600
1659
1271
-434
-1216
-624
-149
-155
-90
-12
-45
-32
3
-3
12
41
46
56
76
94
116
142
167
201
242
286
332
382
430
465
481
477
443
372
273
169
70
-16
-83
-127
-152
-161
-164
-166
-162
-152
-143
-134
-123
-117
-115
-111
-105
-99
-95
-90
-85
-81
-77
-73
-70
-72
-74
-67
-58
-55
-55
-52
-46
-42
-39
-34
-27
