# session 6
176
196
107
148
441
731
805
631
251
-84
-160
-167
-294
-384
-327
-266
-275
-271
-236
-254
-318
-346
-333
-311
-321
-406
-443
-346
-306
-349
-317
-230
238
1307
1649
197
-1371
-1285
-465
-174
-135
1
58
52
56
49
72
94
34
-3
82
181
214
269
364
400
424
534
592
492
385
305
110
-127
-247
-304
-371
-403
-377
-321
-270
-270
-318
-369
-401
-408
-393
-394
-433
-455
-420
-422
-479
-495
-608
-644
247
1643
1462
-373
-1398
-890
-341
-231
-94
11
15
84
147
149
186
249
285
304
348
439
533
602
704
798
792
768
798
750
551
310
109
-44
-155
-241
-290
-295
-292
-278
-247
-235
-223
-186
-180
-205
-201
-204
-228
-203
-209
-291
-320
-378
-281
712
1907
1207
-978
-1868
-1056
-398
-327
-189
-45
-68
-80
-35
7
39
67
109
156
195
256
332
412
528
619
603
540
478
340
128
-39
-130
-222
-327
-381
-376
-363
-356
-345
-330
-313
-289
-271
-246
-187
-136
-141
-120
-64
-84
-135
-247
-496
-139
1292
2044
648
-1084
-1223
-649
-421
-250
-76
-58
11
96
45
18
81
105
101
130
152
159
199
278
380
471
493
466
446
386
251
137
101
69
9
-23
-12
8
9
-29
-84
-90
-87
-170
-231
-167
-169
-277
-238
-134
-203
-309
-406
-291
717
1884
1215
-765
-1496
-805
-361
-400
-329
-216
-196
-172
-123
-48
45
108
149
176
177
201
288
358
344
320
369
436
426
341
236
118
-16
-102
-115
-142
-177
-112
-36
-98
-181
-152
-118
-150
-162
-136
-149
-163
-81
-3
-50
-161
-377
-439
455
1769
1449
-438
-1421
-912
-437
-388
-231
-75
-75
-28
79
126
130
149
188
222
261
331
403
476
579
655
649
634
635
546
337
117
-34
-116
-147
-165
-204
-244
-242
-232
-269
-319
-340
-354
-356
-332
-343
-388
-376
-357
-398
-419
-509
-606
48
1344
1380
-367
-1618
-1213
-574
-480
-376
-211
-209
-184
-94
-74
-50
20
33
43
170
318
370
413
521
615
651
663
632
537
426
311
179
68
-11
-80
-99
-43
-17
-108
-244
-319
-316
-291
-295
-311
-297
-270
-240
-185
-155
-157
-126
-108
151
1148
2019
1126
-809
-1487
-819
-319
-254
-147
-59
-69
-72
-93
-100
19
175
211
180
207
277
332
378
398
368
339
340
335
284
179
58
-34
-103
-177
-237
-250
-208
-154
-157
-212
-242
-233
-255
-308
-316
-288
-294
-290
-222
-193
-214
-243
-458
-420
819
2245
1553
-531
-1223
-511
-141
-153
2
56
-15
52
143
166
199
221
231
291
355
394
443
487
496
479
451
438
418
304
114
-25
-86
-129
-144
-101
-49
-53
-96
-133
-164
-185
-194
-220
-236
-222
-270
-353
-329
-287
-336
-426
-543
-186
1128
1948
596
-1345
-1513
-673
-379
-345
-186
-200
-289
-224
-135
-87
-33
-12
-19
2
39
75
126
185
222
228
229
236
188
59
-77
-159
-210
-264
-292
-239
-144
-121
-161
-150
-77
-10
35
57
42
-1
-37
-15
-1
-91
-152
-198
-326
201
1587
1860
134
-1134
-596
-87
-411
-399
25
77
-99
-118
-72
-31
24
63
136
234
264
297
408
476
472
527
598
555
481
434
310
153
76
-5
-123
-148
-91
-82
-113
-106
-83
-105
-161
-200
-241
-281
-213
-92
-154
-318
-376
-484
-369
694
1779
994
-889
-1480
-834
-447
-367
-184
-147
-212
-123
-59
-119
-111
-42
-32
-18
46
116
218
347
422
466
548
621
630
586
468
295
170
117
56
-38
-89
-65
-53
-109
-135
-110
-168
-253
-185
-79
-93
-117
-118
-181
-236
-362
-476
220
1532
1449
-430
-1683
-1241
-591
-453
-307
-161
-181
-139
-52
-75
-90
-25
27
74
148
202
249
329
399
428
444
445
409
338
230
90
-47
-129
-143
-147
-195
-259
-291
-319
-363
-371
-357
-413
-495
-477
-434
-481
-521
-491
-478
-480
-546
-575
148
1505
1605
-129
-1439
-1089
-456
-342
-213
-11
37
100
214
263
317
411
475
541
636
707
754
778
739
721
779
777
714
720
670
470
337
288
125
-14
44
97
30
-11
-25
-102
-179
-219
-262
-258
-216
-236
-249
-212
-243
-285
-282
-243
399
1650
1683
-238
-1773
-1415
-616
-443
-340
-152
-174
-213
-112
-57
-63
-9
44
53
108
190
242
327
412
388
324
306
269
179
73
-33
-125
-204
-269
-264
-214
-234
-330
-401
-419
-411
-378
-343
-332
-325
-317
-332
-333
-326
-378
-401
-428
-615
-297
1106
1953
612
-1160
-1189
-409
-191
-152
-5
-40
-101
-26
25
27
57
93
81
-16
-56
171
525
691
669
627
589
523
444
343
199
43
-82
-169
-210
-186
-127
-95
-104
-108
-72
-27
-25
-38
-8
4
-46
-44
13
-7
-25
-65
-220
292
1765
2131
212
-1503
-1168
-320
-156
-70
93
58
44
126
136
97
59
39
78
138
196
292
354
325
288
283
271
243
175
45
-90
-189
-274
-334
-345
-348
-367
-376
-369
-353
-327
-294
-250
-199
-170
-152
-93
-44
-66
-74
-117
-317
-104
1006
1690
539
-1080
-1195
-442
-159
-142
8
46
-27
-11
27
26
46
56
25
11
39
98
160
171
146
150
167
162
160
156
119
62
4
-41
-53
-53
-59
-47
-35
-54
-55
-42
-92
-127
-76
-97
-201
-177
-90
-94
-183
-407
-240
1057
2175
1060
-1071
-1556
-758
-374
-341
-184
-127
-150
-98
-122
-203
-156
-49
-13
8
96
196
241
259
283
301
317
329
298
220
134
54
-15
-37
-5
18
8
35
102
115
84
99
101
7
-64
-50
-81
-126
-86
-109
-200
-227
-226
242
1425
1775
224
-1278
-1070
-381
-312
-314
-159
-138
-130
-30
32
71
131
164
205
303
399
442
456
459
460
476
488
460
390
278
138
21
-67
-143
-170
-163
-195
-243
-263
-290
-309
-290
-309
-356
-341
-316
-346
-385
-405
-387
-455
-637
-160
1239
1682
23
-1591
-1416
-700
-514
-371
-173
-195
-209
-103
-63
-78
-39
29
83
138
206
282
362
440
487
516
566
596
551
448
313
173
82
30
-33
-63
-18
2
-73
-122
-67
-45
-126
-151
-83
-96
-170
-152
-150
-273
-365
-460
-515
155
1364
1286
-459
-1636
-1172
-429
-208
-90
22
32
80
140
139
185
266
283
281
314
357
397
424
424
424
434
439
450
454
383
223
60
-34
-79
-123
-157
-162
-170
-207
-230
-216
-223
-274
-306
-301
-311
-337
-347
-359
-344
-328
-507
-474
600
1824
1189
-707
-1401
-770
-378
-391
-279
-184
-192
-133
-68
-45
24
99
125
168
251
322
373
427
489
544
568
559
544
510
392
212
92
59
-4
-118
-158
-127
-140
-192
-224
-244
-255
-260
-272
-270
-252
-229
-198
-204
-220
-196
-259
-83
968
1913
965
-974
-1503
-764
-324
-255
-106
-52
-79
-10
19
-47
-44
45
117
182
307
447
500
484
480
492
500
493
435
310
176
64
-37
-90
-96
-129
-174
-176
-197
-267
-286
-253
-255
-278
-259
-234
-252
-252
-211
-215
-227
-254
-443
-271
907
1810
751
-1016
-1317
-661
-405
-363
-186
-130
-145
-51
27
37
75
131
152
156
175
227
303
352
349
341
371
397
365
285
152
-29
-171
-216
-245
-289
-274
-222
-215
-232
-225
-210
-194
-174
-165
-156
-147
-137
-98
-88
-121
-112
-149
10
1002
1999
1157
-824
-1465
-686
-150
-149
-122
-52
-41
-27
9
73
133
134
111
130
171
183
181
195
193
166
166
193
185
128
56
-5
-40
-64
-95
-117
-107
-85
-87
-116
-126
-88
-59
-93
-138
-160
-209
-248
-226
-234
-267
-334
-586
-395
1047
2259
1173
-812
-1145
-432
-236
-254
-51
22
-25
30
98
124
165
215
265
305
313
326
367
386
368
351
344
323
267
171
62
-27
-88
-128
-157
-174
-168
-172
-214
-248
-238
-232
-251
-247
-231
-241
-223
-173
-190
-212
-215
-327
-23
1187
1849
456
-1363
-1448
-608
-295
-240
-66
-32
-77
-19
28
27
65
126
161
190
241
293
314
324
353
376
372
353
300
200
86
-6
-67
-98
-106
-95
-69
-49
-50
-53
-42
-34
-56
-77
-65
-65
-86
-66
-64
-105
-111
-255
-371
445
1769
1529
-257
-1170
-680
-282
-296
-203
-138
-201
-189
-146
-156
-139
-91
-60
-28
14
53
83
104
115
129
154
188
186
106
-31
-145
-194
-207
-228
-252
-256
-241
-244
-272
-267
-212
-179
-200
-207
-178
-169
-161
-125
-129
-152
-162
-306
-212
782
1707
919
-675
-1018
-425
-200
-225
-106
-60
-100
-66
-14
14
38
61
106
169
218
264
315
348
356
352
356
380
388
342
268
199
136
82
45
17
-6
-21
-39
-62
-76
-71
-64
-74
-85
-91
-116
-124
-97
-120
-148
-136
-203
78
1154
1719
427
-1197
-1232
-487
-235
-193
-58
-40
-58
4
42
52
84
118
157
210
255
299
342
364
367
374
395
413
381
281
159
65
-3
-63
-107
-121
-116
-120
-152
-184
-183
-172
-197
-221
-201
-199
-233
-221
-205
-234
-246
-378
-483
252
1456
1201
-513
-1356
-787
-324
-328
-221
-114
-167
-156
-88
-75
-51
4
30
45
87
141
182
205
217
227
241
252
237
178
89
4
-49
-80
-112
-132
-127
-114
-117
-142
-161
-142
-126
-152
-167
-149
-153
-156
-127
-132
-132
-168
-383
-179
999
1722
511
-1089
-1103
-356
-143
-134
14
51
16
48
75
83
107
133
153
169
213
289
320
312
344
387
378
345
303
221
112
19
-37
-64
-82
-107
-122
-121
-141
-192
-217
-196
-193
-228
-242
-226
-216
-201
-182
-184
-185
-251
-326
176
1272
1437
-46
-1359
-1138
-439
-230
-153
-13
2
-12
28
49
72
120
167
216
251
259
300
375
409
399
397
392
360
306
223
109
11
-33
-56
-89
-111
-107
-108
-131
-152
-161
-169
-178
-167
-147
-154
-144
-98
-119
-159
-143
-320
-381
595
1767
1057
-850
-1401
-623
-196
-208
-85
-13
-71
-49
4
17
56
107
132
162
210
260
304
324
321
316
321
325
298
220
109
20
-27
-58
-88
-114
-136
-141
-140
-170
-204
-192
-180
-205
-214
-209
-207
-175
-174
-218
-227
-411
-651
31
1454
1541
-108
-1192
-774
-239
-197
-147
-60
-77
-52
-4
-11
3
51
75
103
155
197
225
246
242
228
238
259
257
216
139
46
-21
-50
-75
-127
-184
-202
-185
-171
-168
-155
-131
-127
-137
-128
-129
-165
-155
-113
-141
-179
-290
-581
-318
937
1532
240
-1137
-957
-283
-151
-141
-38
-40
-42
13
28
40
89
127
159
204
240
262
286
313
335
363
414
471
479
421
339
260
182
113
64
36
17
-3
-29
-62
-83
-78
-75
-96
-103
-86
-101
-114
-88
-106
-148
-211
-452
-424
494
1232
343
-1032
-1070
-378
-157
-147
-11
23
-7
41
74
80
122
158
167
186
209
226
253
280
288
296
317
326
302
244
156
49
-43
-103
-140
-174
-205
-217
-218
-238
-256
-241
-235
-254
-244
-218
-228
-222
-191
-216
-227
-256
-474
-358
592
1126
27
-1283
-1156
-417
-188
-158
-27
8
-3
35
57
81
126
147
163
200
235
272
306
315
322
349
367
350
298
220
137
71
25
-6
-31
-61
-82
-75
-74
-113
-146
-143
-154
-181
-177
-173
-201
-177
-100
-113
-178
-212
-370
-351
479
1287
557
-931
-1226
-535
-157
-113
2
71
71
117
146
148
187
231
247
275
333
386
411
421
425
423
426
433
395
291
172
91
37
-17
-68
-95
-101
-98
-99
-115
-143
-152
-138
-142
-161
-162
-165
-157
-122
-137
-161
-145
-331
-463
327
1393
865
-794
-1320
-612
-165
-161
-84
-17
-29
10
43
47
88
135
157
184
228
279
315
326
323
323
326
325
283
180
67
1
-37
-79
-112
-128
-133
-123
-111
-128
-156
-154
-147
-169
-182
-174
-185
-184
-169
-204
-200
-193
-436
-419
570
1332
284
-1295
-1356
-520
-185
-166
-44
-5
-29
16
43
42
78
119
148
189
232
270
304
317
306
303
326
340
302
216
128
55
-13
-72
-107
-120
-133
-152
-151
-127
-125
-157
-173
-167
-185
-201
-177
-166
-180
-156
-145
-186
-204
-333
-469
133
1167
874
-750
-1501
-819
-189
-113
-57
26
26
57
108
132
164
199
240
301
344
360
388
425
439
432
430
436
420
357
275
214
155
76
19
5
-8
-36
-37
-23
-36
-58
-54
-51
-80
-99
-73
-54
-68
-55
-33
-61
-114
-261
-374
106
861
536
-747
-1250
-654
-153
-79
-6
69
56
67
107
123
145
181
210
233
256
284
313
331
341
361
388
398
374
314
227
138
67
13
-35
-75
-101
-116
-119
-121
-143
-173
-179
-175
-195
-213
-203
-209
-219
-180
-171
-217
-240
-404
-547
106
1087
662
-877
-1406
-728
-257
-217
-125
-54
-61
-24
2
-2
36
87
109
138
184
228
256
270
287
319
357
374
329
219
100
12
-60
-123
-165
-195
-221
-230
-220
-220
-249
-280
-273
-251
-260
-278
-263
-256
-264
-231
-213
-243
-247
-403
-576
106
1278
974
-738
-1466
-756
-210
-176
-63
32
-9
25
95
102
124
173
212
264
320
360
398
437
452
453
470
481
438
337
226
134
65
16
-20
-54
-78
-77
-59
-51
-65
-89
-102
-99
-99
-104
-91
-82
-92
-62
-27
-58
-59
-121
-297
150
1299
1349
-306
-1431
-885
-144
-21
50
168
147
147
202
221
251
298
325
363
417
459
488
508
515
513
512
514
480
374
244
152
85
20
-31
-64
-89
-103
-102
-92
-103
-144
-164
-146
-160
-210
-219
-207
-228
-231
-229
-264
-263
-377
-618
-156
1028
1032
-676
-1764
-1155
-426
-371
-347
-245
-282
-300
-260
-255
-244
-217
-195
-149
-113
-105
-78
