# session 40
-20
-21
-35
-36
-4
36
51
42
42
56
46
20
39
54
7
-20
-20
114
739
1418
964
-374
-975
-542
-121
-31
46
101
88
111
151
164
184
205
217
243
276
292
313
364
416
434
443
471
502
528
562
589
605
621
608
522
381
233
100
-13
-103
-164
-203
-230
-245
-246
-244
-248
-251
-247
-244
-245
-247
-247
-244
-244
-248
-251
-248
-244
-244
-242
-238
-234
-226
-216
-216
-214
-195
-183
-189
-177
-151
-159
-190
-198
-197
-209
-202
-189
-207
-202
-165
-189
-231
-240
-172
404
1381
1311
-236
-1347
-963
-313
-189
-136
-28
-35
-35
11
19
29
62
78
93
119
139
160
185
209
241
280
314
354
406
457
499
536
563
555
490
369
223
84
-32
-121
-181
-215
-232
-239
-239
-233
-225
-217
-209
-201
-195
-191
-186
-180
-175
-172
-169
-165
-164
-163
-153
-141
-138
-134
-125
-127
-133
-113
-88
-102
-126
-121
-119
-130
-119
-111
-123
-100
-89
-130
-148
-181
-28
831
1715
1046
-625
-1173
-521
-99
-83
6
67
34
56
89
83
97
120
125
143
182
207
205
202
226
264
300
343
392
437
479
516
545
560
529
424
275
128
3
-95
-164
-205
-223
-232
-238
-237
-232
-225
-215
-206
-201
-193
-186
-186
-184
-181
-183
-184
-179
-177
-175
-167
-156
-152
-149
-135
-127
-135
-128
-101
-97
-123
-139
-139
-149
-147
-130
-140
-145
-107
-119
-167
-176
-218
79
1146
1801
670
-921
-1043
-346
-111
-109
4
17
-18
25
49
45
68
82
83
108
140
149
150
169
203
233
264
309
357
401
451
495
515
512
476
375
224
82
-29
-119
-189
-228
-243
-246
-247
-248
-240
-225
-213
-212
-210
-201
-195
-196
-193
-185
-183
-183
-178
-176
-178
-167
-151
-151
-152
-133
-119
-128
-122
-92
-91
-127
-145
-138
-143
-144
-130
-138
-135
-102
-125
-160
-166
-216
171
1307
1764
412
-1052
-947
-261
-100
-80
31
24
8
59
66
63
95
110
111
127
144
158
182
212
241
271
306
351
402
451
498
537
566
569
512
386
235
95
-30
-131
-190
-218
-235
-242
-238
-233
-228
-220
-215
-214
-212
-209
-207
-203
-198
-196
-192
-188
-192
-195
-186
-175
-168
-164
-159
-149
-137
-136
-137
-117
-104
-126
-150
-148
-151
-155
-140
-140
-144
-122
-134
-168
-190
-257
67
1177
1807
619
-978
-1070
-361
-125
-111
13
31
-2
42
67
66
91
109
115
136
160
179
202
225
251
289
334
379
429
485
539
585
619
618
552
418
251
92
-39
-138
-202
-237
-254
-260
-260
-255
-248
-240
-233
-223
-215
-211
-207
-202
-197
-194
-189
-184
-184
-187
-185
-178
-167
-156
-155
-150
-134
-130
-138
-121
-96
-113
-142
-139
-139
-150
-138
-130
-145
-125
-108
-149
-175
-228
-123
743
1781
1240
-536
-1247
-593
-114
-108
-28
44
8
30
70
61
72
97
104
119
142
156
176
202
226
254
293
337
385
439
490
532
569
584
543
434
282
128
-2
-104
-175
-216
-237
-248
-251
-246
-238
-234
-228
-219
-210
-203
-201
-199
-196
-191
-188
-184
-181
-177
-174
-171
-170
-170
-167
-156
-143
-142
-140
-121
-106
-111
-107
-86
-90
-120
-128
-123
-133
-126
-110
-125
-117
-88
-126
-156
-175
-170
448
1618
1617
-57
-1222
-777
-144
-88
-49
53
23
22
75
71
71
100
110
116
138
155
170
193
215
241
278
320
363
409
458
503
542
566
549
468
336
191
57
-56
-136
-186
-215
-230
-233
-232
-228
-224
-218
-212
-204
-197
-191
-186
-183
-182
-178
-173
-171
-172
-173
-173
-169
-166
-164
-162
-160
-154
-148
-144
-136
-125
-127
-133
-117
-94
-95
-93
-67
-62
-93
-106
-101
-112
-115
-103
-118
-113
-76
-102
-136
-147
-192
258
1429
1773
298
-1119
-910
-213
-79
-61
50
38
23
71
78
80
110
120
127
152
170
185
210
231
249
285
338
386
433
488
539
580
614
616
547
408
247
104
-15
-114
-186
-226
-242
-246
-249
-251
-247
-236
-227
-226
-227
-220
-207
-200
-201
-202
-197
-191
-188
-186
-187
-189
-185
-175
-174
-178
-173
-163
-162
-158
-145
-141
-147
-138
-122
-123
-123
-99
-87
-110
-125
-121
-128
-129
-117
-124
-122
-97
-115
-147
-178
-193
301
1369
1535
57
-1228
-958
-262
-104
-62
54
49
38
88
102
103
131
149
162
184
203
220
245
272
301
339
383
433
490
548
600
644
671
656
568
412
231
70
-56
-149
-208
-237
-249
-259
-261
-241
-226
-249
-273
-256
-223
-204
-189
-181
-181
-174
-169
-185
-194
-179
-172
-177
-160
-135
-144
-169
-171
-170
-178
-159
-124
-112
-94
-44
-22
-61
-114
-133
-111
-95
-117
-101
-43
-79
-171
-166
-126
-136
-124
-99
-104
-171
-236
267
1433
1676
132
-1279
-1054
-334
-147
-83
36
12
-13
53
88
86
88
87
132
229
259
199
178
232
296
354
382
383
445
554
610
661
751
778
687
504
256
42
-67
-140
-207
-234
-243
-241
-208
-212
-268
-266
-210
-199
-201
-167
-147
-101
2
-4
-118
-72
59
-70
-320
-304
-167
-227
-318
-200
-26
29
1
-100
-244
-279
-186
-122
-139
-170
-198
-222
-212
-183
-178
-165
-102
-36
-31
-60
-73
-49
-6
-9
-72
-114
-107
-100
-93
-65
-57
-86
-95
-74
-69
-64
-7
260
915
1379
651
-795
-1351
-793
-206
-23
33
85
119
123
101
103
123
143
182
189
160
182
218
205
245
361
413
387
388
406
392
382
406
442
453
401
290
182
107
29
-65
-135
-163
-194
-237
-242
-211
-198
-200
-183
-157
-143
-138
-139
-134
-110
-89
-101
-128
-125
-101
-99
-117
-118
-101
-88
-89
-98
-97
-84
-72
-66
-65
-72
-78
-78
-85
-86
-71
-62
-70
-76
-76
-70
-56
-52
-75
-106
-119
-116
-110
-109
-123
-130
-105
-103
-146
-157
-106
202
1006
1542
651
-924
-1370
-724
-244
-141
-41
19
8
32
62
76
116
139
124
128
162
181
188
211
245
278
316
364
418
475
519
544
567
591
574
482
343
204
76
-36
-124
-185
-216
-227
-243
-257
-251
-233
-221
-214
-203
-187
-173
-160
-147
-147
-162
-161
-144
-141
-152
-158
-154
-138
-133
-154
-162
-135
-120
-130
-124
-101
-94
-103
-114
-128
-150
-164
-158
-152
-163
-169
-158
-156
-154
-132
-127
-139
-129
-132
-146
-145
-148
216
1237
1742
530
-1080
-1223
-479
-139
-88
31
71
53
83
94
98
140
161
151
161
189
212
238
258
271
296
336
380
424
468
511
554
586
593
558
455
303
157
36
-71
-154
-199
-219
-236
-250
-247
-232
-229
-230
-218
-200
-191
-191
-192
-190
-183
-176
-173
-171
-169
-165
-163
-165
-162
-159
-168
-169
-151
-142
-145
-136
-124
-126
-130
-124
-113
-108
-104
-79
-47
-63
-117
-130
-100
-99
-118
-117
-121
-120
-97
-119
-149
-134
-131
261
1306
1695
346
-1154
-1092
-355
-137
-121
11
40
0
37
93
110
101
95
117
156
186
194
187
200
246
290
318
363
435
495
531
577
637
652
599
501
354
169
17
-79
-159
-220
-237
-237
-250
-261
-247
-229
-229
-220
-199
-198
-204
-193
-181
-169
-165
-193
-203
-154
-120
-138
-147
-142
-149
-138
-113
-111
-105
-92
-98
-102
-96
-80
-29
-11
-64
-50
29
-3
-88
-83
-88
-144
-126
-78
-87
-85
-73
-102
-140
-134
272
1299
1800
602
-1020
-1221
-519
-161
-75
28
88
187
227
62
-5
135
147
42
9
-142
-354
-228
11
-66
-87
231
416
393
535
593
381
380
507
297
135
333
418
308
198
-133
-485
-359
-112
-221
-353
-279
-246
-234
-122
-93
-188
-217
-213
-283
-313
-244
-186
-176
-186
-223
-224
-158
-153
-223
-201
-122
-148
-189
-117
-54
-82
-93
-58
-57
-64
-22
-3
-50
-66
-30
-25
-42
-29
-8
9
14
-19
-21
18
103
635
1523
1412
-101
-1206
-851
-176
-11
9
69
77
115
154
118
110
170
186
148
158
220
240
214
208
226
252
293
324
349
406
447
428
427
455
417
315
217
128
38
-52
-136
-169
-165
-199
-226
-207
-226
-239
-163
-139
-220
-225
-159
-161
-180
-157
-150
-166
-183
-192
-165
-145
-190
-231
-210
-172
-143
-132
-154
-166
-141
-139
-164
-148
-115
-141
-184
-182
-182
-203
-193
-187
-214
-190
-159
-221
-248
-224
-153
521
1618
1440
-298
-1393
-915
-276
-166
-88
12
-6
12
62
54
50
82
119
152
168
183
208
221
234
282
341
384
423
472
530
591
637
653
623
546
439
305
143
-10
-110
-159
-186
-225
-258
-238
-207
-222
-231
-200
-197
-229
-225
-200
-202
-207
-195
-194
-203
-196
-188
-194
-190
-171
-166
-173
-168
-153
-140
-128
-125
-133
-124
-96
-98
-138
-155
-141
-139
-147
-154
-152
-124
-113
-146
-173
-211
4
947
1829
1064
-726
-1342
-673
-177
-108
-13
38
6
42
88
85
98
127
144
154
166
186
215
247
276
298
328
382
448
499
546
603
657
679
640
528
362
185
25
-101
-175
-215
-260
-292
-280
-262
-273
-275
-253
-241
-242
-236
-226
-218
-212
-215
-216
-210
-203
-204
-207
-208
-204
-196
-192
-183
-165
-150
-143
-140
-143
-134
-111
-119
-154
-164
-152
-156
-152
-137
-150
-146
-112
-136
-178
-197
-164
413
1533
1632
22
-1302
-979
-251
-101
-71
34
35
37
86
97
101
122
133
150
172
182
198
227
257
287
315
348
410
480
530
573
624
666
670
600
439
253
109
-17
-145
-217
-222
-234
-269
-277
-251
-224
-212
-209
-200
-204
-252
-272
-187
-113
-158
-210
-189
-193
-231
-214
-199
-270
-288
-131
20
-64
-255
-257
-122
-123
-223
-222
-177
-189
-182
-157
-173
-171
-146
-165
-184
-187
-232
-283
-343
-169
795
1883
1348
-436
-1163
-536
-75
-71
-3
55
33
57
58
49
124
177
138
111
154
189
153
120
180
246
243
279
387
446
442
465
511
527
518
478
369
192
18
-91
-144
-182
-217
-237
-234
-226
-231
-232
-221
-216
-210
-196
-186
-172
-153
-159
-169
-154
-145
-146
-133
-129
-135
-122
-106
-95
-78
-73
-63
-19
-10
-58
-59
-20
-60
-132
-132
-120
-133
-86
-27
-54
-86
-86
-117
-146
-168
16
828
1605
888
-795
-1367
-678
-158
-101
-29
34
7
13
34
34
64
101
97
89
112
140
165
184
179
186
257
346
382
384
409
466
523
546
518
440
317
166
32
-58
-131
-199
-231
-228
-232
-248
-243
-212
-202
-221
-220
-187
-173
-187
-199
-204
-195
-170
-169
-200
-206
-180
-159
-147
-144
-160
-163
-134
-104
-97
-106
-96
-33
17
-33
-127
-168
-176
-175
-149
-120
-114
-134
-150
-139
-158
57
923
1616
733
-932
-1338
-603
-146
-93
19
92
65
80
110
114
134
167
178
165
166
204
252
277
285
304
347
385
419
490
554
553
564
597
537
413
316
203
54
-61
-142
-196
-196
-187
-221
-241
-200
-174
-212
-231
-198
-184
-202
-208
-193
-178
-200
-223
-175
-154
-229
-243
-183
-182
-159
-92
-139
-215
-179
-146
-158
-149
-157
-148
-86
-119
-223
-192
-121
-194
-229
-114
-116
-229
-164
-152
-198
612
1888
1474
-565
-1559
-896
-286
-224
-150
-50
13
90
80
53
96
131
162
177
110
77
137
201
282
366
350
324
416
539
588
596
615
644
648
574
407
205
25
-110
-178
-211
-265
-287
-238
-232
-293
-290
-245
-255
-248
-202
-214
-231
-182
-173
-235
-251
-210
-185
-186
-200
-213
-184
-149
-167
-176
-126
-100
-127
-128
-90
-77
-94
-113
-119
-116
-118
-125
-113
-76
-58
-89
-94
-83
-138
204
1271
1768
488
-1088
-1117
-339
-45
-29
71
93
75
115
135
149
200
219
190
180
211
237
221
215
261
309
322
339
384
432
451
440
438
446
401
291
177
81
-16
-104
-170
-213
-234
-247
-252
-233
-212
-217
-233
-227
-208
-202
-199
-179
-167
-183
-194
-175
-155
-161
-181
-190
-176
-155
-149
-146
-120
-90
-94
-117
-112
-93
-107
-126
-112
-114
-151
-152
-123
-126
-122
-104
-139
-173
-192
-62
689
1594
1101
-588
-1342
-727
-179
-99
-8
42
-5
36
78
42
59
122
132
128
140
150
182
213
182
171
279
399
415
417
488
543
530
527
557
512
346
130
-62
-182
-203
-184
-218
-284
-300
-290
-322
-360
-334
-245
-164
-175
-252
-285
-288
-339
-348
-251
-192
-224
-234
-211
-212
-218
-209
-193
-193
-213
-204
-177
-204
-238
-220
-211
-202
-161
-213
-329
-280
-156
-200
-282
-316
-306
300
1475
1574
7
-1218
-902
-260
-116
-45
83
111
115
111
91
136
192
195
221
285
301
282
318
380
396
412
472
520
553
628
715
757
777
760
612
403
302
216
11
-124
-72
-57
-155
-188
-148
-138
-139
-122
-111
-94
-79
-97
-113
-98
-97
-110
-84
-53
-77
-99
-63
-44
-76
-80
-39
-23
-31
-15
0
-18
-27
-9
-7
-15
-10
-22
-49
-59
-43
-1
7
-42
-62
-106
-14
820
1842
1294
-508
-1207
-498
-8
-5
107
143
22
67
173
138
114
145
141
168
200
151
168
214
-56
-512
-632
-424
-242
-130
-10
69
113
161
171
113
12
-113
-232
-301
-336
-389
-444
-438
-390
-373
-390
-386
-352
-336
-340
-322
-287
-286
-310
-306
-278
-274
-283
-274
-272
-278
-255
-229
-235
-231
-211
-207
-191
-155
-149
-166
-166
-158
-143
-129
-161
-190
-145
-110
-136
-131
-105
-105
-115
-171
89
1104
1775
685
-942
-1084
-320
-19
0
93
78
90
235
287
243
242
255
275
318
322
306
348
403
425
452
481
518
597
677
723
762
774
753
722
630
470
321
