# session 9
-28
-40
-30
66
121
26
-55
-30
-13
-19
-1
2
-8
6
13
-3
-11
-15
-26
-31
-31
-41
-51
-48
-46
-55
-58
-50
-54
-59
-39
-23
-35
-34
-13
-19
-45
-61
-65
-63
-69
-62
-41
-66
-106
-164
-292
43
1177
1692
406
-1080
-1049
-366
-153
-110
17
39
33
84
104
108
140
168
196
242
297
361
439
523
592
637
662
663
624
531
399
254
112
-10
-99
-161
-209
-239
-251
-253
-247
-236
-228
-218
-203
-193
-187
-177
-168
-167
-168
-167
-171
-180
-187
-186
-184
-189
-196
-194
-186
-185
-182
-177
-183
-192
-182
-169
-168
-154
-126
-121
-148
-173
-166
-152
-159
-140
-107
-138
-169
-253
-426
47
1433
1908
331
-1229
-1053
-344
-203
-158
-12
-7
-16
49
78
98
144
174
203
254
312
385
486
593
688
761
801
805
759
640
465
289
134
-6
-113
-176
-218
-251
-271
-279
-278
-266
-250
-238
-227
-209
-189
-178
-174
-165
-155
-157
-167
-172
-173
-177
-177
-172
-169
-170
-173
-172
-170
-172
-172
-159
-146
-148
-141
-115
-102
-122
-140
-123
-112
-137
-127
-91
-124
-171
-285
-425
184
1574
1804
108
-1258
-934
-285
-195
-138
-2
-4
-3
54
70
84
122
155
196
245
293
359
448
542
629
693
720
715
668
558
402
240
91
-35
-123
-178
-219
-246
-261
-264
-256
-241
-225
-204
-180
-170
-169
-157
-141
-137
-137
-134
-135
-139
-139
-138
-139
-137
-135
-138
-140
-137
-133
-131
-129
-121
-110
-114
-129
-125
-109
-100
-82
-51
-38
-52
-81
-98
-86
-85
-93
-62
-63
-116
-155
-278
-146
917
1951
1133
-702
-1221
-557
-195
-174
-51
14
1
48
79
78
112
146
159
192
251
318
389
469
562
651
706
728
719
658
535
374
211
71
-39
-126
-191
-229
-249
-267
-286
-292
-276
-257
-249
-245
-230
-214
-206
-203
-200
-193
-190
-198
-203
-197
-196
-199
-190
-182
-183
-186
-187
-185
-176
-166
-157
-146
-137
-142
-160
-172
-159
-138
-133
-128
-95
-65
-83
-125
-124
-100
-115
-119
-80
-92
-126
-194
-385
-38
1361
2151
746
-1078
-1155
-400
-196
-183
-19
22
4
66
101
104
142
174
191
240
314
375
434
525
639
731
783
805
791
716
566
373
199
72
-34
-128
-188
-215
-234
-251
-258
-257
-249
-235
-225
-217
-205
-193
-186
-177
-174
-176
-166
-158
-170
-175
-159
-159
-169
-161
-149
-150
-152
-153
-152
-144
-145
-150
-140
-133
-132
-106
-70
-67
-87
-97
-100
-132
-169
-140
-95
-121
-170
-315
-457
242
1736
1981
238
-1174
-892
-289
-227
-179
-47
-50
-52
-7
4
21
56
70
93
147
205
268
350
446
540
621
680
705
677
584
438
276
129
1
-101
-166
-201
-217
-226
-242
-254
-253
-246
-231
-207
-194
-193
-179
-159
-159
-164
-158
-150
-155
-163
-161
-151
-142
-132
-120
-119
-131
-132
-119
-116
-116
-106
-99
-102
-100
-94
-101
-110
-98
-67
-47
-66
-98
-94
-78
-102
-104
-69
-99
-141
-206
-375
47
1482
2167
671
-1082
-1082
-363
-185
-157
-18
-7
-17
47
70
76
119
152
181
228
272
327
425
542
640
719
777
801
784
709
560
373
199
51
-74
-162
-205
-229
-263
-295
-298
-285
-282
-279
-273
-273
-271
-260
-255
-250
-237
-230
-231
-226
-214
-204
-201
-208
-211
-200
-191
-189
-180
-165
-159
-165
-162
-142
-134
-148
-142
-103
-80
-104
-132
-124
-115
-142
-140
-98
-110
-151
-243
-446
-95
1297
2110
785
-1006
-1136
-427
-221
-199
-41
-16
-45
22
59
54
89
134
166
214
269
323
403
507
608
699
771
800
776
697
553
366
191
49
-68
-152
-200
-228
-248
-264
-276
-273
-256
-240
-226
-205
-192
-190
-182
-172
-174
-169
-152
-154
-173
-172
-156
-162
-174
-162
-149
-157
-161
-151
-149
-148
-135
-130
-136
-131
-120
-107
-78
-56
-60
-86
-108
-97
-81
-89
-69
-59
-124
-174
-268
-281
545
1878
1708
-146
-1240
-752
-213
-184
-98
26
5
3
45
56
79
109
122
156
214
265
321
397
489
585
661
699
710
693
613
455
277
133
17
-90
-170
-209
-227
-248
-265
-259
-237
-222
-220
-217
-201
-185
-179
-174
-166
-158
-154
-155
-161
-167
-173
-172
-162
-158
-162
-160
-149
-149
-162
-166
-147
-124
-123
-137
-141
-135
-137
-143
-135
-125
-125
-114
-79
-56
-82
-123
-112
-82
-106
-116
-71
-91
-150
-234
-408
6
1468
2233
789
-993
-1052
-372
-211
-178
-32
-21
-29
32
46
52
94
119
145
196
240
294
387
486
572
665
754
800
786
719
595
416
226
67
-64
-165
-215
-238
-266
-293
-302
-298
-281
-263
-263
-270
-259
-237
-225
-218
-207
-205
-208
-198
-186
-187
-186
-184
-189
-178
-149
-152
-184
-178
-135
-120
-145
-164
-155
-135
-122
-111
-85
-56
-53
-82
-110
-101
-86
-110
-113
-85
-114
-166
-276
-446
80
1553
2092
517
-1091
-968
-296
-183
-156
-10
7
3
55
64
69
102
122
145
192
247
308
379
465
565
650
704
737
731
658
523
356
192
51
-68
-153
-191
-216
-247
-259
-252
-247
-241
-223
-202
-192
-187
-176
-165
-160
-150
-135
-133
-141
-147
-154
-158
-151
-147
-148
-141
-134
-135
-137
-143
-155
-153
-141
-131
-113
-86
-76
-95
-122
-131
-118
-125
-142
-114
-109
-170
-241
-405
-331
728
1958
1395
-447
-1161
-588
-222
-221
-99
-16
-45
-6
42
32
33
59
86
120
170
235
302
370
461
563
636
680
707
686
589
436
273
122
-14
-123
-195
-234
-249
-253
-258
-253
-236
-226
-222
-207
-192
-188
-188
-188
-193
-198
-195
-190
-190
-193
-193
-189
-181
-173
-170
-168
-156
-131
-118
-130
-132
-97
-68
-75
-76
-51
-37
-59
-92
-96
-79
-91
-99
-69
-87
-128
-169
-290
60
1342
2053
697
-1087
-1198
-455
-207
-167
-17
15
4
60
80
84
126
156
168
202
256
322
402
490
583
671
736
772
770
706
575
401
216
51
-78
-169
-231
-264
-282
-299
-310
-309
-299
-282
-262
-250
-243
-231
-216
-207
-202
-202
-202
-200
-201
-205
-203
-196
-188
-177
-175
-191
-191
-167
-161
-165
-136
-99
-104
-130
-136
-123
-128
-158
-141
-92
-121
-184
-291
-443
83
1537
2085
544
-1061
-977
-331
-216
-190
-54
-48
-58
2
22
21
52
85
117
155
198
264
349
428
515
617
690
701
676
629
515
330
159
42
-62
-156
-206
-229
-255
-271
-261
-235
-220
-230
-238
-215
-190
-192
-196
-182
-170
-170
-173
-174
-168
-161
-162
-163
-156
-151
-145
-140
-145
-145
-125
-116
-119
-88
-45
-45
-69
-84
-84
-73
-84
-98
-60
-51
-111
-176
-320
-186
909
2001
1237
-584
-1133
-522
-206
-206
-84
-20
-43
-4
28
25
56
98
126
165
215
271
344
434
528
613
682
731
750
717
622
479
307
135
1
-88
-157
-213
-242
-253
-266
-275
-263
-242
-236
-237
-228
-214
-209
-212
-217
-218
-213
-209
-209
-213
-219
-216
-208
-208
-209
-195
-176
-177
-184
-165
-147
-155
-149
-107
-80
-96
-131
-140
-121
-122
-129
-99
-105
-149
-199
-336
-61
1215
2141
953
-985
-1311
-568
-257
-217
-57
-6
-22
39
68
64
102
129
140
187
243
288
367
480
582
668
740
787
792
736
602
417
235
73
-66
-168
-229
-272
-311
-331
-330
-324
-319
-314
-308
-294
-280
-274
-262
-237
-218
-215
-214
-208
-199
-190
-188
-186
-172
-161
-155
-136
-116
-122
-123
-92
-67
-84
-123
-139
-120
-116
-136
-112
-89
-131
-164
-270
-278
631
2016
1735
-277
-1395
-839
-261
-210
-106
5
-23
0
57
55
67
102
124
163
217
274
343
421
504
600
683
729
748
731
642
487
306
133
-5
-110
-185
-222
-238
-250
-249
-247
-260
-259
-233
-223
-229
-206
-169
-166
-185
-184
-176
-184
-179
-155
-153
-172
-176
-172
-172
-169
-175
-189
-177
-156
-151
-133
-105
-109
-123
-131
-155
-159
-136
-133
-119
-106
-153
-207
-328
-332
532
1849
1636
-172
-1170
-679
-204
-196
-110
-13
-42
-21
37
43
49
71
98
148
201
233
284
379
479
551
619
686
719
705
640
509
348
206
83
-29
-108
-150
-175
-196
-210
-211
-199
-187
-187
-188
-177
-166
-168
-167
-160
-162
-173
-171
-154
-144
-149
-155
-154
-157
-159
-151
-152
-162
-153
-138
-141
-147
-144
-152
-159
-156
-156
-151
-136
-140
-150
-131
-116
-128
-112
-62
-50
-91
-116
-92
-79
-91
-69
-54
-99
-148
-299
-340
579
2013
1798
-170
-1297
-784
-242
-214
-119
-1
-29
-20
34
47
65
95
117
153
198
235
289
369
452
531
612
679
710
712
668
547
375
220
94
-21
-113
-172
-217
-256
-274
-272
-267
-259
-243
-233
-228
-221
-218
-215
-200
-183
-171
-160
-156
-156
-145
-142
-151
-143
-131
-144
-150
-130
-120
-122
-110
-105
-119
-117
-96
-92
-94
-68
-44
-59
-90
-102
-89
-88
-104
-77
-52
-114
-175
-256
-277
464
1774
1727
-75
-1286
-876
-292
-216
-122
7
-13
-17
28
44
68
99
113
148
203
245
286
354
442
528
596
647
683
685
624
499
334
174
43
-58
-127
-173
-221
-261
-267
-260
-257
-239
-220
-226
-231
-207
-176
-160
-160
-168
-165
-148
-147
-161
-159
-147
-154
-161
-142
-134
-156
-165
-145
-134
-133
-117
-104
-118
-127
-111
-98
-103
-104
-94
-92
-92
-89
-98
-103
-71
-28
-19
-42
-70
-73
-60
-85
-98
-55
-69
-138
-199
-341
-66
1221
2150
1006
-804
-1051
-377
-167
-162
-12
25
2
55
80
78
107
127
143
186
228
266
332
417
506
598
683
743
773
757
673
531
368
212
70
-50
-140
-198
-237
-263
-272
-274
-279
-275
-259
-248
-244
-231
-219
-216
-211
-202
-200
-202
-204
-204
-204
-205
-207
-201
-190
-189
-197
-204
-201
-189
-180
-187
-197
-192
-176
-167
-174
-177
-153
-135
-144
-136
-95
-71
-85
-109
-108
-88
-91
-103
-79
-80
-118
-174
-308
-46
1179
2111
1018
-892
-1284
-556
-212
-176
-27
30
4
51
84
79
109
145
167
201
245
290
354
444
538
621
696
760
788
760
671
525
346
176
39
-67
-150
-206
-233
-248
-264
-273
-269
-266
-270
-264
-242
-218
-197
-177
-168
-165
-159
-159
-165
-166
-165
-171
-177
-174
-170
-171
-169
-165
-165
-163
-147
-132
-137
-140
-122
-113
-126
-116
-76
-60
-84
-108
-108
-99
-111
-112
-78
-88
-132
-176
-329
-127
1117
2195
1189
-816
-1320
-585
-201
-168
-26
31
4
60
101
93
115
143
160
195
235
278
346
429
518
613
701
760
790
780
699
545
358
178
25
-95
-176
-224
-250
-266
-280
-285
-279
-270
-263
-254
-246
-243
-239
-230
-218
-210
-206
-200
-194
-193
-191
-189
-193
-200
-199
-190
-182
-182
-185
-177
-165
-170
-181
-170
-152
-148
-142
-133
-145
-153
-133
-119
-123
-103
-62
-47
-67
-101
-112
-93
-98
-109
-72
-69
-125
-186
-327
-126
1102
2232
1317
-678
-1247
-553
-186
-178
-52
7
-22
24
61
59
95
134
154
190
232
269
331
416
506
606
700
757
784
794
748
611
429
260
114
-13
-109
-171
-209
-233
-245
-247
-243
-233
-225
-226
-224
-209
-188
-175
-172
-169
-162
-152
-146
-145
-150
-157
-161
-159
-153
-152
-155
-154
-148
-146
-146
-143
-139
-139
-139
-134
-130
-128
-120
-115
-120
-119
-110
-106
-108
-113
-117
-115
-107
-105
-101
-78
-49
-46
-75
-105
-102
-92
-105
-89
-68
-117
-151
-226
-350
275
1768
2094
295
-1267
-1002
-317
-214
-147
6
-7
-18
47
67
71
100
124
153
185
216
271
349
426
510
613
701
752
780
775
697
544
361
190
51
-55
-140
-197
-225
-245
-263
-268
-263
-254
-241
-227
-212
-194
-173
-157
-149
-152
-159
-155
-143
-139
-141
-140
-134
-134
-142
-145
-131
-124
-131
-127
-114
-117
-128
-122
-112
-112
-113
-111
-112
-113
-110
-117
-125
-113
-100
-96
-74
-40
-37
-62
-84
-87
-80
-87
-89
-69
-81
-121
-201
-408
-199
1107
2266
1383
-505
-1029
-427
-157
-183
-83
-40
-60
-11
11
-6
25
59
66
112
184
211
225
300
398
470
542
614
650
658
634
531
365
204
70
-49
-147
-209
-232
-231
-240
-271
-287
-278
-269
-265
-253
-239
-225
-205
-192
-195
-196
-186
-176
-174
-171
-159
-152
-157
-159
-149
-144
-147
-145
-136
-129
-127
-129
-129
-126
-117
-106
-108
-121
-122
-109
-107
-116
-114
-101
-94
-95
-95
-92
-96
-97
-89
-83
-85
-82
-81
-92
-91
-75
-73
-73
-48
-14
-8
-27
-42
-36
-34
-53
-38
-9
-47
-91
-199
-292
426
1891
2066
273
-1112
-787
-182
-121
-58
64
40
47
115
121
119
154
181
197
226
275
337
388
442
542
661
740
789
830
836
776
657
501
334
173
37
-53
-111
-162
-198
-215
-229
-236
-224
-214
-212
-198
-182
-178
-166
-147
-146
-154
-149
-141
-136
-132
-135
-132
-113
-108
-128
-134
-116
-106
-110
-117
-117
-115
-116
-117
-108
-93
-89
-100
-118
-121
-108
-97
-89
-69
-48
-57
-88
-98
-85
-100
-132
-115
-108
-167
-223
-354
-382
485
1834
1602
-313
-1396
-861
-305
-281
-200
-84
-98
-74
-24
-35
-30
8
33
61
92
116
160
238
326
412
497
579
640
657
629
547
388
185
18
-102
-207
-286
-324
-351
-383
-394
-389
-395
-392
-356
-333
-347
-350
-316
-290
-286
-288
-290
-284
-268
-262
-271
-274
-259
-241
-239
-232
-203
-195
-197
-151
-137
-170
-122
-105
-169
-13
61
-537
-1042
-536
143
135
-8
99
145
110
144
184
207
226
207
189
222
243
215
221
271
252
211
194
88
385
1619
2429
1246
-512
-737
-30
234
199
358
