# session 38
-12
7
-15
-49
15
170
270
299
350
426
489
548
601
623
594
498
338
158
2
-117
-203
-259
-286
-293
-296
-293
-278
-261
-251
-243
-234
-223
-210
-196
-191
-190
-189
-184
-174
-165
-162
-163
-162
-162
-159
-151
-141
-136
-133
-124
-107
-96
-93
-80
-62
-61
-57
-33
-26
-58
-83
-79
-87
-96
-75
-74
-93
-62
-54
-107
-116
-150
56
1127
2102
1114
-906
-1398
-551
-99
-84
49
108
59
96
135
126
143
165
173
196
221
239
263
288
314
352
399
452
516
581
636
681
720
732
678
540
355
175
22
-105
-193
-244
-274
-293
-295
-287
-281
-278
-275
-265
-250
-238
-236
-235
-230
-224
-224
-224
-220
-217
-218
-219
-217
-215
-211
-204
-191
-177
-175
-175
-161
-148
-153
-142
-112
-119
-159
-172
-167
-181
-180
-157
-170
-176
-139
-157
-194
-194
-232
211
1475
1944
331
-1396
-1252
-397
-171
-120
42
42
10
70
86
81
117
139
146
171
197
217
245
278
315
360
414
478
550
618
675
721
747
723
621
447
247
64
-81
-187
-256
-295
-309
-310
-309
-306
-297
-286
-278
-269
-259
-254
-246
-234
-229
-230
-225
-218
-215
-213
-209
-205
-200
-195
-194
-192
-187
-180
-165
-150
-147
-138
-117
-111
-113
-89
-73
-99
-128
-125
-127
-142
-130
-121
-139
-115
-86
-138
-163
-181
-118
712
1958
1597
-450
-1519
-822
-153
-113
-22
94
50
61
118
110
112
147
164
178
198
212
232
263
296
331
374
424
482
549
612
663
704
724
678
550
373
192
32
-93
-178
-231
-260
-273
-280
-280
-275
-267
-258
-247
-239
-232
-223
-214
-210
-207
-204
-204
-203
-199
-195
-195
-192
-188
-189
-190
-189
-185
-176
-169
-160
-150
-145
-139
-122
-111
-111
-96
-75
-95
-135
-138
-128
-143
-142
-129
-149
-138
-98
-142
-178
-181
-197
427
1783
1914
-11
-1505
-1040
-232
-127
-75
65
36
24
86
86
84
117
128
139
166
188
209
238
263
295
344
399
455
514
576
635
685
711
686
581
412
231
69
-70
-174
-236
-269
-286
-288
-283
-281
-275
-263
-255
-253
-243
-223
-212
-215
-217
-212
-207
-201
-196
-193
-191
-188
-183
-177
-177
-177
-171
-167
-168
-164
-159
-156
-140
-126
-128
-119
-95
-97
-105
-80
-64
-95
-123
-122
-132
-140
-118
-122
-143
-105
-95
-146
-147
-172
59
1163
2114
1052
-981
-1419
-556
-131
-121
19
74
27
69
100
86
116
152
159
178
208
226
245
274
313
358
407
463
529
597
658
715
768
780
707
548
351
158
-8
-135
-221
-273
-303
-316
-315
-310
-308
-303
-291
-279
-272
-263
-251
-242
-238
-233
-228
-226
-225
-223
-221
-222
-221
-218
-217
-214
-213
-210
-195
-181
-181
-176
-158
-154
-153
-125
-107
-140
-172
-164
-160
-172
-162
-155
-160
-132
-125
-169
-182
-230
-32
1028
2045
1145
-880
-1468
-643
-142
-115
12
89
51
83
119
111
135
166
172
184
210
236
265
293
324
369
423
481
547
620
685
739
784
788
703
533
332
146
-10
-133
-220
-268
-284
-292
-300
-301
-295
-284
-269
-258
-254
-247
-234
-228
-226
-219
-210
-203
-198
-199
-201
-197
-190
-190
-192
-188
-181
-175
-175
-174
-168
-162
-162
-157
-141
-131
-134
-124
-101
-96
-96
-71
-56
-88
-120
-117
-117
-131
-118
-112
-132
-106
-87
-139
-153
-190
-80
890
2070
1414
-658
-1444
-656
-119
-116
-1
84
28
52
98
86
102
135
144
160
185
202
220
243
271
311
353
397
453
519
578
627
669
691
657
547
381
209
59
-69
-166
-221
-249
-267
-275
-270
-262
-256
-247
-237
-228
-223
-216
-204
-192
-187
-188
-190
-187
-183
-182
-183
-182
-179
-179
-180
-176
-171
-168
-165
-161
-159
-156
-151
-148
-142
-133
-133
-137
-121
-94
-88
-86
-67
-61
-90
-113
-112
-120
-127
-105
-107
-129
-98
-91
-148
-154
-187
0
1060
2079
1142
-885
-1406
-565
-121
-120
15
79
25
65
107
93
110
141
150
164
187
210
237
266
294
328
370
424
488
551
612
671
719
738
692
565
390
211
48
-89
-191
-251
-276
-287
-297
-301
-289
-277
-272
-266
-261
-259
-251
-242
-237
-231
-227
-225
-221
-216
-212
-211
-211
-210
-204
-199
-199
-196
-188
-181
-173
-161
-155
-151
-137
-127
-130
-117
-92
-101
-138
-149
-142
-148
-142
-129
-149
-146
-106
-135
-178
-185
-195
347
1625
1906
174
-1404
-1119
-315
-147
-87
65
53
36
96
104
106
143
158
169
203
227
243
272
307
339
384
443
505
570
638
702
756
789
767
661
484
283
94
-60
-167
-234
-279
-307
-313
-308
-304
-302
-295
-285
-273
-261
-254
-247
-236
-228
-229
-227
-219
-216
-216
-213
-210
-209
-206
-201
-198
-195
-190
-183
-172
-161
-157
-150
-129
-121
-126
-109
-84
-104
-141
-141
-135
-154
-149
-129
-149
-142
-103
-142
-178
-175
-168
448
1734
1842
-5
-1446
-1020
-248
-126
-62
72
44
38
99
99
101
138
153
164
191
207
224
257
290
322
368
426
484
545
608
666
719
754
731
621
445
255
83
-64
-173
-236
-267
-285
-296
-295
-286
-277
-271
-264
-254
-246
-239
-229
-221
-220
-221
-214
-208
-207
-206
-203
-200
-198
-196
-193
-190
-189
-185
-178
-171
-161
-151
-149
-141
-119
-112
-118
-97
-68
-89
-132
-136
-128
-143
-138
-120
-138
-134
-98
-137
-170
-169
-184
412
1748
1940
93
-1419
-1022
-236
-123
-71
70
44
33
94
90
86
121
134
144
172
192
211
240
266
294
335
382
432
494
562
615
654
687
686
603
446
268
103
-40
-148
-214
-253
-278
-287
-281
-275
-268
-256
-244
-239
-234
-227
-221
-218
-213
-207
-202
-201
-201
-201
-198
-194
-193
-193
-188
-183
-181
-177
-169
-165
-162
-148
-136
-139
-133
-110
-102
-103
-81
-62
-88
-120
-118
-119
-138
-127
-113
-134
-117
-83
-130
-161
-179
-144
624
1903
1695
-296
-1472
-850
-159
-107
-32
81
38
45
101
93
99
137
149
157
178
197
217
241
265
298
340
387
441
497
553
609
654
675
655
567
415
240
79
-51
-146
-212
-253
-268
-273
-276
-269
-256
-250
-245
-236
-226
-218
-213
-211
-206
-202
-203
-206
-202
-197
-195
-193
-191
-191
-188
-183
-181
-177
-168
-162
-161
-154
-136
-127
-134
-128
-105
-97
-96
-73
-60
-91
-121
-119
-123
-133
-117
-115
-128
-100
-97
-150
-159
-192
6
1062
2051
1105
-908
-1430
-590
-126
-114
10
70
24
62
102
93
112
137
147
168
192
206
229
263
296
328
367
420
481
541
596
650
699
723
680
549
368
189
30
-103
-199
-259
-291
-300
-297
-297
-296
-284
-269
-262
-257
-250
-243
-236
-230
-227
-226
-227
-225
-221
-218
-215
-212
-210
-204
-196
-192
-182
-169
-166
-165
-148
-134
-132
-116
-95
-111
-144
-147
-145
-163
-159
-138
-148
-140
-110
-147
-178
-188
-187
436
1701
1769
-79
-1485
-1037
-259
-135
-63
81
59
49
107
109
110
146
160
171
201
224
241
270
305
341
385
439
498
562
627
683
728
752
721
605
426
237
65
-80
-183
-241
-273
-291
-295
-291
-288
-285
-276
-265
-256
-246
-238
-233
-226
-219
-219
-218
-212
-207
-205
-201
-200
-200
-197
-190
-186
-184
-179
-172
-162
-148
-142
-141
-127
-110
-111
-104
-79
-83
-121
-138
-131
-143
-145
-124
-134
-141
-103
-120
-164
-165
-210
168
1423
2066
591
-1250
-1253
-377
-112
-96
53
65
26
84
104
87
115
143
149
165
188
208
230
258
290
325
366
417
476
534
587
635
673
677
614
479
305
136
-4
-114
-196
-243
-263
-274
-281
-278
-264
-251
-245
-238
-228
-223
-218
-212
-218
-229
-214
-191
-191
-199
-195
-190
-191
-188
-184
-182
-176
-169
-168
-162
-145
-137
-141
-128
-107
-106
-101
-70
-62
-102
-134
-128
-128
-138
-126
-125
-141
-112
-100
-153
-165
-206
-83
890
2008
1299
-735
-1461
-664
-124
-110
-1
79
29
51
93
86
102
128
140
165
191
203
223
251
277
312
356
399
450
514
577
628
666
682
646
535
372
200
48
-81
-179
-235
-260
-274
-280
-277
-270
-264
-257
-246
-235
-232
-229
-223
-219
-217
-211
-208
-208
-203
-195
-194
-196
-194
-193
-191
-189
-183
-178
-170
-155
-145
-148
-139
-116
-112
-114
-88
-76
-110
-136
-130
-138
-154
-138
-129
-144
-119
-108
-157
-172
-206
-47
952
2024
1237
-806
-1487
-680
-159
-137
-8
76
29
60
106
97
117
148
156
177
208
227
252
286
317
352
398
451
513
582
646
700
744
756
695
556
371
181
15
-113
-202
-258
-286
-301
-308
-304
-294
-289
-286
-275
-263
-251
-241
-236
-231
-224
-221
-220
-215
-213
-215
-212
-203
-196
-198
-201
-195
-187
-185
-182
-166
-155
-154
-138
-117
-120
-118
-87
-84
-126
-149
-140
-145
-150
-130
-134
-148
-112
-113
-164
-168
-215
22
1156
2084
982
-1010
-1382
-519
-121
-113
31
81
30
72
109
99
122
147
151
172
204
224
243
271
302
339
384
438
501
567
623
672
712
718
651
513
335
155
0
-119
-198
-244
-271
-288
-292
-284
-277
-271
-260
-251
-246
-240
-229
-220
-216
-212
-206
-200
-197
-196
-194
-192
-191
-187
-183
-182
-178
-174
-172
-169
-160
-157
-157
-145
-131
-133
-128
-105
-93
-93
-73
-56
-83
-119
-118
-113
-127
-123
-114
-129
-107
-86
-141
-159
-175
-120
705
1957
1603
-430
-1483
-789
-140
-114
-27
84
38
48
103
95
98
130
142
157
186
207
224
246
275
309
345
390
451
514
569
622
672
697
670
572
410
228
72
-50
-149
-219
-253
-267
-277
-280
-273
-259
-250
-247
-242
-229
-220
-217
-210
-200
-198
-200
-199
-197
-196
-195
-193
-191
-187
-184
-185
-182
-175
-168
-166
-165
-161
-157
-147
-131
-125
-131
-121
-98
-93
-91
-63
-54
-92
-121
-114
-116
-124
-108
-113
-131
-96
-89
-144
-149
-181
17
1083
2068
1095
-917
-1400
-546
-103
-104
22
77
29
73
111
95
116
143
146
168
197
209
228
263
290
318
363
420
477
536
600
654
693
708
667
550
380
199
35
-89
-173
-231
-265
-278
-286
-291
-285
-274
-265
-256
-247
-239
-233
-227
-223
-222
-220
-213
-205
-206
-213
-210
-203
-202
-200
-195
-191
-188
-183
-179
-174
-168
-162
-150
-141
-139
-128
-115
-118
-106
-72
-73
-116
-135
-128
-135
-139
-123
-129
-133
-97
-113
-160
-161
-199
156
1379
2081
692
-1194
-1303
-441
-137
-108
45
65
27
86
114
105
134
156
160
184
214
236
261
293
328
368
417
479
544
604
663
719
759
756
682
529
337
152
-8
-137
-223
-270
-293
-304
-307
-306
-303
-295
-284
-272
-261
-253
-249
-241
-230
-222
-221
-218
-213
-209
-209
-208
-206
-205
-206
-204
-197
-193
-190
-186
-183
-171
-153
-149
-156
-144
-122
-118
-112
-82
-72
-105
-131
-127
-133
-146
-129
-121
-139
-114
-98
-146
-159
-186
-54
900
2015
1330
-719
-1496
-707
-141
-114
0
89
44
70
117
107
122
155
165
180
205
226
251
282
310
342
385
441
506
571
631
682
730
757
716
584
403
218
49
-86
-179
-237
-271
-288
-291
-288
-283
-277
-268
-257
-250
-243
-234
-226
-219
-214
-209
-205
-202
-201
-200
-197
-193
-192
-195
-192
-182
-176
-177
-176
-171
-164
-158
-155
-152
-144
-132
-128
-128
-115
-97
-92
-81
-55
-53
-88
-112
-110
-121
-127
-105
-109
-122
-86
-91
-141
-132
-172
59
1185
2092
963
-1016
-1351
-482
-101
-99
40
85
37
80
108
94
121
151
156
175
197
212
238
268
292
324
369
418
475
538
597
648
691
707
665
544
368
188
33
-92
-181
-238
-274
-288
-288
-287
-284
-277
-266
-256
-248
-242
-236
-229
-222
-217
-212
-209
-206
-203
-203
-206
-206
-202
-197
-194
-192
-187
-180
-175
-176
-177
-169
-160
-158
-150
-134
-130
-133
-119
-101
-98
-85
-60
-68
-106
-120
-114
-123
-121
-104
-119
-119
-79
-109
-153
-140
-175
244
1509
2025
442
-1294
-1164
-313
-101
-75
69
64
37
98
108
99
132
151
157
183
208
224
247
276
307
344
385
436
497
562
624
678
714
717
659
528
352
173
18
-101
-180
-227
-255
-273
-280
-275
-266
-260
-250
-238
-230
-225
-220
-216
-210
-202
-200
-202
-198
-192
-192
-190
-182
-176
-178
-176
-169
-168
-167
-160
-152
-152
-153
-146
-132
-123
-125
-120
-102
-95
-97
-79
-59
-75
-109
-118
-113
-122
-120
-112
-125
-111
-76
-113
-159
-195
-160
580
1858
1738
-214
-1484
-930
-212
-137
-56
79
49
49
105
100
103
140
152
160
187
211
235
264
294
331
376
423
479
546
615
678
735
768
745
639
460
255
70
-82
-196
-268
-308
-334
-345
-345
-342
-339
-332
-321
-309
-299
-291
-280
-269
-265
-265
-260
-253
-251
-250
-248
-245
-242
-239
-235
-231
-228
-224
-218
-212
-198
-182
-181
-174
-155
-150
-152
-129
-112
-136
-164
-165
-171
-181
-162
-152
-169
-145
-122
-167
-181
-204
-104
801
1990
1454
-614
-1537
-780
-156
-122
-9
101
52
68
122
117
132
170
178
192
223
245
267
303
337
369
416
477
540
606
677
739
787
811
772
647
465
273
101
-36
-131
-187
-218
-235
-240
-236
-230
-224
-216
-206
-196
-185
-173
-163
-157
-153
-148
-140
-133
-131
-131
-132
-132
-128
-121
-118
-119
-117
-108
-102
-104
-105
-102
-95
-82
-75
-80
-75
-58
-54
-49
-23
-20
-64
-97
-90
-95
-112
-100
-97
-119
-96
-86
-145
-164
-198
-60
927
2047
1310
-760
-1493
-693
-171
-178
-78
-6
-61
-37
-1
-26
-16
18
9
