# session 20
-33
-40
-23
-20
-75
-134
-128
-105
-120
-130
-103
-84
-95
-110
-113
-104
-105
-116
-93
-80
-118
-113
-188
-345
259
1665
1795
-145
-1652
-1186
-314
-142
-85
56
46
42
116
134
134
174
212
248
305
378
471
583
700
808
883
909
882
792
628
421
225
61
-70
-161
-222
-268
-296
-303
-301
-301
-295
-279
-264
-260
-254
-243
-238
-233
-222
-216
-217
-213
-207
-211
-212
-208
-206
-202
-194
-190
-192
-195
-195
-190
-179
-171
-168
-156
-135
-136
-157
-154
-118
-104
-125
-139
-125
-109
-115
-112
-91
-106
-117
-97
-211
-171
666
1509
682
-1139
-1643
-773
-172
-115
-6
106
94
116
161
169
198
244
274
317
379
451
545
659
769
860
916
925
872
748
565
366
191
51
-61
-143
-188
-212
-234
-246
-242
-236
-232
-221
-206
-196
-190
-182
-175
-172
-171
-169
-169
-171
-171
-170
-173
-176
-172
-170
-171
-171
-169
-165
-160
-156
-154
-152
-147
-136
-137
-151
-146
-114
-96
-110
-125
-116
-99
-107
-111
-80
-88
-115
-96
-232
-306
545
1754
1251
-770
-1683
-915
-215
-133
-39
76
55
72
128
136
156
200
229
270
332
401
487
598
715
819
890
912
879
776
604
403
218
61
-70
-166
-223
-256
-280
-295
-299
-294
-285
-276
-265
-251
-237
-227
-221
-214
-208
-205
-202
-199
-200
-201
-200
-199
-195
-188
-186
-190
-189
-185
-182
-178
-174
-166
-146
-138
-157
-161
-131
-114
-121
-127
-126
-118
-110
-117
-106
-94
-117
-111
-195
-348
270
1680
1790
-180
-1678
-1168
-277
-120
-72
72
62
55
123
143
158
207
239
274
337
404
487
605
733
845
925
962
949
869
702
490
292
118
-35
-146
-208
-246
-274
-291
-296
-291
-280
-269
-260
-245
-228
-220
-218
-213
-208
-206
-203
-195
-189
-191
-194
-190
-187
-190
-192
-188
-187
-188
-182
-177
-177
-171
-164
-161
-156
-152
-157
-149
-127
-130
-146
-128
-96
-96
-114
-121
-111
-99
-106
-99
-71
-90
-108
-124
-267
-19
1145
1827
466
-1378
-1448
-505
-138
-125
23
83
56
106
150
161
194
228
258
310
369
442
542
653
763
863
925
936
886
762
579
384
206
63
-45
-137
-214
-258
-278
-289
-285
-274
-266
-256
-242
-232
-226
-220
-214
-210
-204
-196
-195
-206
-212
-204
-197
-200
-203
-200
-195
-193
-191
-187
-187
-188
-177
-166
-173
-169
-137
-124
-147
-157
-136
-117
-125
-133
-106
-102
-129
-117
-225
-337
380
1633
1390
-557
-1667
-1004
-246
-141
-62
70
57
65
127
139
154
201
239
278
332
397
486
599
718
827
904
935
909
811
643
438
239
67
-70
-170
-232
-263
-279
-290
-294
-287
-272
-263
-260
-253
-238
-228
-225
-221
-215
-211
-205
-202
-205
-208
-206
-201
-198
-197
-196
-195
-197
-190
-168
-160
-180
-179
-147
-138
-152
-151
-141
-136
-138
-140
-115
-104
-135
-126
-217
-365
312
1723
1710
-311
-1691
-1104
-259
-138
-81
60
45
42
106
120
134
179
212
252
313
379
462
577
703
820
906
945
930
851
696
493
289
109
-38
-144
-211
-250
-270
-281
-290
-289
-276
-260
-249
-243
-240
-232
-219
-207
-203
-202
-199
-197
-199
-202
-201
-200
-203
-200
-192
-188
-188
-186
-183
-178
-180
-186
-173
-148
-153
-171
-147
-113
-121
-146
-148
-130
-113
-118
-112
-88
-110
-126
-168
-346
-27
1293
1985
470
-1431
-1430
-481
-158
-138
19
59
34
98
131
128
169
211
241
296
360
431
529
646
763
863
925
938
891
768
583
384
201
40
-85
-170
-225
-262
-285
-299
-298
-284
-270
-264
-257
-245
-235
-230
-223
-217
-214
-214
-212
-208
-207
-207
-206
-205
-202
-198
-196
-191
-187
-193
-190
-166
-159
-176
-168
-136
-134
-155
-154
-132
-119
-132
-136
-103
-104
-130
-127
-265
-291
606
1755
1133
-872
-1645
-827
-193
-146
-44
68
52
81
128
129
162
214
240
278
340
409
497
611
728
832
907
935
907
810
642
438
239
66
-72
-162
-213
-246
-267
-276
-277
-272
-262
-255
-246
-231
-220
-218
-215
-208
-202
-198
-197
-199
-197
-193
-196
-199
-195
-195
-199
-199
-200
-190
-171
-173
-190
-170
-135
-141
-161
-160
-149
-135
-136
-143
-117
-112
-140
-143
-284
-334
585
1882
1374
-737
-1683
-892
-211
-158
-59
56
20
34
96
105
125
173
206
244
303
372
460
570
691
801
875
908
897
818
654
449
256
87
-59
-166
-227
-262
-285
-293
-293
-293
-288
-274
-261
-252
-242
-230
-222
-217
-209
-205
-206
-204
-196
-194
-199
-200
-196
-193
-191
-194
-194
-188
-185
-182
-161
-149
-167
-169
-137
-125
-141
-148
-140
-125
-119
-127
-106
-89
-129
-138
-210
-359
246
1697
1886
-81
-1647
-1178
-289
-134
-89
54
43
38
108
124
135
183
216
249
309
379
458
557
672
784
870
917
920
865
739
557
358
174
21
-97
-181
-233
-262
-281
-292
-292
-281
-264
-251
-240
-228
-215
-203
-198
-200
-197
-188
-187
-194
-194
-190
-190
-193
-196
-197
-195
-192
-189
-187
-191
-190
-168
-154
-173
-176
-141
-127
-152
-163
-147
-131
-127
-134
-119
-98
-123
-127
-159
-309
53
1252
1660
72
-1579
-1378
-444
-162
-131
32
72
49
105
136
137
177
219
245
293
357
426
518
636
753
850
910
924
883
767
578
370
195
49
-79
-167
-211
-240
-265
-275
-271
-266
-259
-249
-237
-228
-219
-209
-199
-194
-190
-185
-187
-191
-189
-188
-190
-190
-188
-188
-187
-183
-181
-182
-179
-165
-156
-166
-168
-144
-131
-142
-151
-144
-127
-123
-135
-113
-98
-132
-121
-185
-358
166
1499
1681
-150
-1644
-1225
-348
-150
-97
48
54
45
104
122
132
173
202
234
290
351
425
528
644
757
858
920
926
873
752
568
366
184
25
-101
-184
-234
-266
-285
-297
-300
-292
-280
-272
-263
-248
-238
-234
-225
-218
-217
-213
-206
-202
-202
-199
-198
-200
-204
-203
-197
-191
-192
-191
-174
-161
-176
-179
-150
-135
-151
-159
-148
-133
-131
-142
-122
-95
-130
-138
-185
-366
79
1488
1942
168
-1586
-1323
-377
-140
-111
40
52
35
101
125
131
181
220
247
298
361
435
537
657
774
874
940
961
916
792
611
410
219
55
-80
-178
-230
-250
-268
-286
-289
-278
-268
-260
-257
-253
-240
-222
-213
-211
-202
-193
-193
-199
-203
-200
-195
-191
-187
-185
-189
-193
-193
-193
-186
-174
-169
-169
-163
-159
-161
-151
-135
-144
-156
-133
-104
-108
-128
-130
-113
-108
-119
-99
-79
-112
-113
-161
-281
234
1484
1632
-159
-1633
-1229
-354
-158
-110
45
65
59
112
128
142
190
220
245
293
350
418
511
621
739
839
897
915
886
785
617
426
243
83
-46
-140
-199
-234
-256
-268
-266
-262
-257
-247
-236
-230
-223
-211
-199
-190
-186
-188
-191
-186
-182
-189
-193
-189
-187
-193
-194
-193
-194
-191
-184
-185
-182
-162
-155
-176
-175
-139
-122
-137
-149
-142
-126
-124
-130
-107
-103
-131
-119
-233
-351
403
1729
1506
-509
-1693
-1046
-269
-152
-71
56
41
55
117
124
142
185
206
242
304
360
429
537
660
774
871
933
945
895
769
580
375
192
33
-100
-192
-240
-265
-284
-295
-298
-297
-289
-276
-264
-253
-239
-221
-211
-211
-209
-199
-191
-192
-198
-201
-198
-191
-186
-184
-184
-185
-182
-173
-169
-173
-169
-150
-149
-167
-159
-129
-128
-149
-150
-133
-118
-124
-131
-100
-89
-118
-123
-246
-309
535
1835
1452
-635
-1713
-980
-237
-157
-67
66
43
48
104
115
136
179
205
243
304
365
435
527
640
760
856
906
915
871
748
564
369
191
36
-86
-169
-219
-247
-266
-279
-280
-273
-269
-262
-247
-231
-222
-215
-203
-191
-185
-186
-184
-179
-179
-184
-183
-178
-179
-180
-177
-176
-177
-174
-169
-167
-165
-155
-145
-141
-136
-123
-123
-138
-131
-101
-88
-102
-112
-102
-87
-91
-88
-65
-84
-102
-77
-211
-245
589
1625
1004
-882
-1629
-874
-221
-118
-14
89
70
85
132
139
157
193
217
246
292
345
414
502
602
705
792
843
857
826
722
548
355
182
35
-80
-155
-197
-223
-243
-254
-256
-254
-250
-239
-224
-213
-209
-202
-195
-187
-181
-177
-177
-178
-176
-173
-173
-174
-175
-170
-161
-159
-162
-165
-159
-139
-123
-137
-152
-133
-107
-112
-134
-140
-122
-113
-124
-102
-81
-120
-101
-108
-310
-40
1134
1606
90
-1589
-1468
-516
-140
-78
56
87
68
115
141
146
182
213
235
278
330
387
465
560
664
768
848
887
880
810
668
482
295
127
-15
-120
-185
-221
-239
-253
-265
-268
-261
-250
-239
-228
-218
-208
-199
-192
-188
-185
-182
-178
-174
-176
-178
-175
-172
-170
-165
-161
-162
-161
-157
-154
-149
-141
-137
-137
-135
-132
-128
-123
-119
-116
-113
-113
-116
-108
-93
-96
-112
-105
-74
-65
-86
-98
-80
-67
-82
-78
-56
-74
-77
-97
-268
-41
1103
1796
502
-1313
-1437
-517
-109
-83
40
87
58
105
144
143
170
210
238
272
312
363
435
523
623
728
813
861
871
835
739
587
409
237
87
-37
-125
-178
-214
-243
-252
-243
-235
-228
-217
-208
-204
-202
-203
-204
-196
-185
-182
-186
-191
-193
-195
-196
-194
-191
-192
-194
-190
-182
-183
-191
-192
-186
-177
-169
-168
-175
-165
-142
-148
-163
-139
-112
-126
-143
-137
-131
-124
-118
-106
-93
-112
-115
-124
-233
13
1014
1524
224
-1456
-1492
-560
-145
-104
34
98
79
123
156
157
193
235
259
295
348
406
480
573
680
779
854
901
911
856
723
539
348
179
35
-78
-153
-199
-230
-249
-258
-258
-252
-243
-240
-237
-224
-209
-206
-204
-195
-192
-197
-199
-194
-190
-191
-195
-195
-189
-184
-180
-177
-175
-172
-166
-159
-154
-151
-148
-139
-123
-122
-136
-129
-99
-97
-123
-131
-108
-87
-95
-98
-74
-81
-98
-92
-208
-190
587
1435
723
-1041
-1629
-822
-186
-102
-6
100
84
94
138
153
177
211
236
269
312
362
433
520
614
719
813
868
887
864
765
593
403
228
71
-57
-142
-190
-217
-235
-250
-250
-239
-232
-229
-223
-214
-209
-205
-202
-201
-200
-196
-190
-189
-194
-198
-198
-200
-200
-197
-195
-193
-193
-195
-182
-159
-163
-187
-176
-142
-141
-159
-161
-150
-135
-131
-136
-117
-115
-140
-129
-219
-257
495
1594
1132
-809
-1723
-951
-209
-118
-39
77
55
66
123
131
149
193
221
253
303
359
428
517
618
728
827
890
911
885
788
622
430
248
81
-53
-143
-202
-243
-264
-270
-272
-268
-256
-241
-231
-224
-218
-215
-211
-204
-196
-191
-193
-199
-197
-189
-190
-197
-195
-188
-192
-194
-189
-183
-179
-176
-178
-170
-155
-162
-175
-155
-128
-133
-146
-144
-134
-122
-122
-123
-107
-113
-121
-137
-268
-103
915
1691
594
-1269
-1575
-662
-181
-150
-14
75
57
101
144
143
171
207
227
267
318
370
444
538
633
733
826
883
896
857
745
574
388
209
53
-61
-141
-202
-236
-250
-262
-263
-249
-239
-237
-234
-225
-214
-204
-202
-203
-197
-191
-194
-196
-192
-189
-189
-190
-193
-193
-188
-189
-189
-171
-156
-173
-188
-164
-135
-141
-159
-161
-147
-130
-131
-125
-100
-114
-128
-131
-248
-95
855
1538
445
-1313
-1561
-663
-172
-117
10
79
56
100
140
132
158
205
238
277
325
374
446
547
657
757
838
895
910
853
719
538
351
178
25
-93
-169
-217
-249
-267
-273
-270
-258
-244
-243
-249
-250
-239
-224
-213
-209
-204
-191
-178
-178
-186
-192
-194
-193
-195
-195
-184
-163
-137
-127
-161
-198
-180
-151
-171
-192
-171
-139
-133
-138
-114
-87
-112
-124
-115
-215
-63
809
1418
396
-1283
-1606
-774
-213
-99
19
95
71
84
138
164
166
187
236
275
301
355
425
500
600
697
763
823
857
804
669
510
353
191
30
-95
-163
-195
-213
-234
-275
-301
-276
-236
-226
-234
-248
-255
-224
-168
-142
-164
-194
-195
-180
-174
-168
-152
-147
-159
-170
-170
-160
-139
-134
-171
-194
-153
-116
-140
-173
-166
-138
-117
-119
-126
-131
-131
-92
-125
-258
90
1110
1367
-96
-1574
-1389
-475
-113
-60
48
63
46
112
151
148
180
212
209
232
306
378
437
534
648
715
763
838
874
810
681
526
353
193
76
-22
-117
-177
-188
-177
-177
-195
-207
-197
-171
-144
-145
-167
-163
-142
-154
-177
-164
-146
-158
-165
-139
-131
-156
-168
-158
-152
-151
-149
-149
-158
-162
-132
-96
-108
-137
-135
-126
-116
-100
-116
-132
-99
-86
-109
-89
-79
-117
-151
-244
-79
838
1540
512
-1252
-1557
-663
-149
-114
-15
71
48
36
51
83
130
158
187
223
234
255
338
444
524
612
713
758
742
728
692
563
364
179
31
-87
-167
-220
-265
-288
-293
-300
-293
-271
-275
-282
-259
-246
-249
-228
-215
-249
-272
-247
-214
-208
-224
-245
-257
-252
-237
-229
-230
-214
-187
-196
-233
-239
-215
-179
-135
-134
-191
-201
-144
-126
-153
-142
-114
-111
-125
-141
-121
-88
-105
-131
-210
-241
456
1645
1422
-486
-1588
-914
-164
-94
-29
105
89
90
138
143
167
210
223
251
318
381
431
493
571
656
733
791
826
830
789
695
549
371
207
88
2
-67
-107
-132
-160
-157
-121
-112
-130
-129
-123
-129
-118
-89
-76
-76
-66
-58
-67
-73
-68
-68
-73
-69
-63
-65
-69
-68
-66
-63
-57
-51
-50
-50
-46
-43
-42
-37
-25
-19
-28
-36
-30
-32
-44
-41
-42
-71
-86
-61
-50
-67
-78
-75
-67
-68
-90
-91
-75
-109
-148
-190
-177
387
1307
1063
-571
-1542
-1010
-377
-297
-232
-123
-149
-153
-107
-114
-122
-95
-81
-75
-55
-31
-4
