# session 10
-21
-45
16
18
-167
-357
-365
-313
-322
-316
-281
-271
-265
-246
-240
-234
-213
-198
-196
-187
-171
-155
-142
-131
-128
-122
-110
-103
-100
-91
-83
-83
-72
-56
-63
-83
-75
-54
-59
-64
-39
-18
-29
-55
-76
-72
-68
-91
-74
-38
-93
-150
-209
-305
281
1719
2082
384
-1135
-910
-278
-206
-158
-23
-37
-36
25
31
37
77
97
113
147
183
233
302
370
442
534
634
714
759
773
742
634
461
295
163
36
-88
-167
-206
-241
-271
-279
-275
-272
-264
-249
-237
-229
-222
-212
-204
-198
-192
-188
-187
-183
-177
-173
-174
-178
-178
-173
-175
-175
-162
-151
-153
-145
-124
-116
-121
-117
-110
-111
-106
-94
-99
-113
-101
-85
-95
-95
-61
-40
-50
-72
-92
-87
-79
-101
-95
-74
-106
-148
-268
-312
532
1955
1855
-60
-1270
-822
-272
-235
-141
-24
-52
-35
13
-3
8
55
73
95
139
172
211
278
358
446
540
622
686
736
739
666
538
392
239
89
-39
-130
-183
-213
-233
-244
-242
-238
-233
-206
-171
-174
-193
-175
-149
-153
-151
-133
-142
-162
-153
-141
-140
-134
-136
-155
-151
-126
-133
-152
-122
-80
-99
-128
-102
-80
-95
-91
-75
-91
-102
-85
-82
-92
-98
-109
-110
-94
-87
-68
-18
-2
-45
-81
-71
-47
-59
-92
-66
-39
-94
-127
-169
-139
616
1766
1499
-254
-1228
-744
-226
-162
-74
12
-12
12
61
61
74
100
108
132
181
219
245
288
357
436
513
585
647
690
702
665
570
436
293
150
23
-72
-136
-179
-206
-214
-221
-238
-250
-245
-234
-227
-223
-211
-190
-172
-167
-163
-155
-160
-176
-181
-173
-175
-194
-208
-204
-202
-210
-207
-192
-182
-177
-176
-175
-172
-169
-170
-162
-142
-128
-131
-142
-155
-155
-143
-147
-158
-131
-77
-53
-67
-91
-101
-89
-91
-98
-60
-55
-118
-169
-279
-121
1006
2162
1372
-624
-1291
-623
-227
-205
-64
6
-35
8
51
42
78
131
138
146
190
238
288
361
437
499
585
695
767
786
792
756
625
440
278
145
24
-78
-151
-191
-211
-232
-255
-249
-217
-209
-228
-223
-193
-180
-180
-165
-152
-160
-162
-136
-123
-153
-179
-167
-155
-163
-165
-155
-151
-155
-154
-151
-158
-166
-163
-156
-155
-154
-149
-143
-131
-124
-137
-147
-123
-102
-106
-88
-46
-41
-71
-87
-77
-59
-71
-90
-53
-40
-97
-143
-260
-139
979
2214
1501
-519
-1245
-601
-231
-246
-117
-46
-90
-39
22
18
36
67
78
103
141
172
211
266
330
415
517
612
682
717
711
663
565
411
229
64
-68
-163
-217
-248
-270
-280
-292
-305
-302
-289
-273
-247
-228
-226
-224
-226
-219
-191
-180
-193
-185
-164
-166
-173
-159
-138
-134
-151
-162
-157
-153
-144
-131
-125
-119
-123
-142
-130
-95
-90
-82
-36
-9
-18
-31
-64
-92
-79
-71
-75
-64
-79
-122
-264
-384
318
1832
2161
434
-1103
-921
-293
-194
-154
-26
-24
-31
11
16
19
46
69
93
115
144
208
278
325
392
497
591
659
720
750
708
592
433
271
132
8
-105
-184
-218
-232
-251
-267
-264
-249
-241
-242
-239
-226
-203
-186
-192
-204
-191
-173
-177
-177
-158
-149
-161
-172
-168
-158
-162
-168
-154
-137
-137
-142
-144
-146
-143
-137
-137
-135
-139
-154
-148
-119
-101
-93
-79
-70
-61
-57
-74
-87
-93
-109
-86
-47
-87
-145
-245
-341
323
1788
2090
379
-1089
-857
-260
-210
-175
-45
-60
-71
-4
32
46
63
63
74
116
168
210
251
311
377
439
523
616
669
680
663
601
483
330
177
52
-48
-132
-180
-201
-231
-260
-252
-223
-203
-189
-176
-180
-191
-174
-139
-129
-134
-114
-99
-116
-127
-108
-94
-103
-118
-126
-123
-109
-97
-104
-119
-124
-120
-129
-138
-128
-129
-158
-166
-145
-145
-149
-115
-84
-96
-125
-146
-145
-130
-127
-106
-82
-136
-205
-255
-255
355
1576
1730
102
-1250
-980
-332
-214
-158
-31
-33
-31
23
34
49
87
98
107
145
186
230
289
347
413
516
628
688
706
726
719
627
475
319
167
26
-77
-151
-211
-245
-255
-263
-264
-252
-241
-241
-239
-227
-210
-198
-197
-193
-178
-172
-182
-188
-181
-178
-186
-194
-189
-174
-170
-181
-177
-156
-151
-155
-134
-108
-109
-122
-121
-104
-90
-96
-101
-69
-29
-31
-56
-71
-73
-67
-77
-87
-54
-41
-95
-193
-347
-77
1179
2209
1232
-667
-1145
-491
-193
-194
-57
-3
-48
-13
24
18
38
65
76
96
131
172
221
275
350
440
523
594
652
687
700
670
561
400
242
91
-46
-143
-197
-232
-257
-273
-280
-273
-257
-250
-250
-250
-248
-236
-203
-183
-201
-210
-186
-175
-178
-156
-134
-153
-189
-193
-166
-142
-144
-152
-145
-134
-134
-140
-143
-130
-107
-104
-109
-81
-42
-38
-58
-81
-93
-76
-69
-92
-72
-44
-96
-168
-292
-276
606
1907
1669
-146
-1161
-695
-220
-203
-125
-31
-53
-30
21
20
29
60
75
90
122
162
206
257
323
406
494
572
630
667
692
678
592
452
312
175
28
-98
-163
-192
-224
-250
-255
-254
-254
-237
-216
-218
-222
-204
-196
-217
-219
-188
-175
-194
-205
-193
-183
-185
-185
-180
-170
-156
-150
-161
-161
-146
-147
-152
-128
-112
-124
-97
-37
-39
-85
-105
-109
-104
-96
-108
-93
-61
-108
-168
-236
-229
480
1694
1627
-64
-1201
-838
-300
-218
-142
-38
-35
-16
15
18
42
73
84
103
132
160
199
242
284
346
425
484
516
541
552
530
477
388
262
140
55
-20
-100
-148
-158
-168
-187
-190
-180
-176
-176
-167
-148
-133
-135
-147
-145
-132
-130
-136
-140
-143
-150
-156
-159
-157
-150
-148
-154
-161
-162
-155
-148
-148
-138
-112
-100
-93
-59
-37
-60
-90
-106
-104
-83
-89
-106
-63
-56
-126
-184
-277
-26
1141
2082
1066
-786
-1194
-534
-241
-211
-64
-19
-48
-1
24
13
41
73
93
124
158
187
230
288
358
440
533
618
676
709
720
678
559
396
236
95
-25
-124
-203
-247
-258
-264
-278
-286
-278
-263
-247
-237
-233
-233
-229
-218
-200
-191
-196
-200
-195
-193
-196
-196
-194
-192
-188
-183
-177
-173
-178
-177
-158
-147
-150
-132
-101
-101
-123
-136
-131
-114
-118
-136
-108
-93
-147
-218
-339
-172
947
2114
1389
-570
-1284
-666
-269
-237
-98
-22
-52
-9
33
31
57
86
96
126
165
197
245
302
360
441
544
632
688
722
726
677
570
422
263
119
-3
-97
-155
-192
-225
-244
-239
-238
-247
-244
-226
-212
-201
-183
-169
-164
-157
-151
-157
-159
-151
-157
-170
-163
-154
-161
-162
-156
-161
-162
-143
-138
-156
-152
-131
-140
-133
-78
-63
-113
-146
-148
-140
-127
-138
-132
-88
-119
-195
-259
-332
179
1546
2062
525
-1099
-1028
-376
-244
-196
-60
-63
-63
-8
-8
4
51
59
64
106
146
178
229
287
344
414
493
560
603
627
622
570
476
355
220
86
-24
-100
-150
-182
-200
-206
-204
-202
-200
-191
-179
-171
-165
-161
-158
-146
-133
-132
-136
-127
-118
-123
-132
-131
-128
-129
-126
-119
-120
-119
-109
-111
-128
-131
-111
-102
-117
-116
-93
-91
-98
-65
-31
-55
-95
-109
-105
-96
-103
-108
-74
-84
-146
-193
-281
3
1180
2016
905
-873
-1161
-496
-235
-204
-68
-40
-61
-4
18
15
56
86
88
111
149
183
226
287
356
428
507
587
651
690
701
664
565
423
271
132
13
-88
-161
-202
-229
-248
-253
-252
-252
-248
-237
-224
-217
-219
-213
-199
-193
-194
-189
-186
-191
-190
-187
-190
-188
-179
-178
-180
-175
-168
-165
-164
-163
-162
-155
-144
-137
-132
-116
-102
-105
-103
-79
-61
-66
-82
-92
-83
-81
-106
-93
-57
-95
-148
-231
-300
384
1814
2008
205
-1247
-952
-318
-224
-139
-1
-23
-24
37
46
54
84
96
118
157
186
220
269
328
399
481
560
629
682
712
707
646
520
360
205
70
-45
-134
-193
-223
-239
-252
-259
-253
-242
-232
-220
-213
-208
-201
-190
-181
-174
-168
-165
-165
-165
-165
-168
-175
-179
-176
-170
-165
-162
-162
-162
-159
-156
-150
-132
-125
-132
-124
-107
-113
-110
-79
-70
-91
-104
-112
-115
-106
-115
-108
-84
-120
-167
-241
-299
359
1741
1938
198
-1210
-913
-287
-203
-137
-10
-32
-30
34
38
35
64
81
101
140
172
205
259
321
382
453
535
607
659
691
688
625
510
374
235
102
-12
-98
-155
-181
-192
-214
-228
-211
-185
-181
-186
-180
-170
-165
-162
-152
-140
-137
-137
-131
-126
-129
-132
-126
-117
-119
-129
-133
-130
-130
-131
-125
-119
-115
-111
-115
-120
-114
-107
-107
-107
-106
-107
-106
-102
-100
-104
-99
-88
-92
-106
-98
-84
-87
-80
-53
-46
-65
-85
-95
-88
-87
-91
-63
-66
-130
-174
-286
-200
839
2105
1553
-414
-1254
-662
-232
-221
-110
-30
-59
-25
12
2
25
65
83
99
123
157
205
251
301
374
462
544
610
658
683
679
630
522
378
236
102
-22
-114
-171
-211
-236
-244
-252
-253
-238
-227
-228
-219
-198
-184
-177
-167
-159
-155
-152
-149
-148
-153
-160
-163
-161
-163
-159
-144
-137
-141
-138
-128
-127
-131
-130
-124
-120
-119
-119
-117
-113
-105
-99
-97
-83
-65
-73
-83
-55
-28
-45
-72
-75
-63
-61
-83
-82
-48
-79
-134
-177
-270
127
1400
2028
662
-996
-1036
-359
-168
-127
4
4
-7
57
69
64
99
114
116
155
200
226
257
306
363
427
500
571
627
656
658
625
547
427
293
167
52
-43
-105
-143
-174
-196
-204
-206
-207
-201
-188
-175
-163
-157
-157
-158
-160
-166
-175
-175
-166
-162
-167
-177
-183
-185
-190
-188
-175
-181
-207
-202
-176
-174
-176
-161
-160
-166
-154
-147
-154
-159
-159
-151
-137
-123
-106
-106
-136
-148
-119
-104
-119
-109
-68
-44
-65
-118
-140
-105
-83
-91
-91
-130
-177
-199
-306
-75
1029
1830
813
-828
-1100
-459
-127
-52
-14
-49
37
161
45
-79
27
126
91
118
265
408
495
544
592
648
659
615
602
643
645
566
451
319
221
211
177
33
-133
-337
-569
-507
-104
169
89
-74
-124
-138
-221
-255
-76
108
55
-41
-11
-10
-75
-92
-82
-103
-157
-215
-218
-188
-223
-301
-304
-229
-182
-223
-296
-322
-359
-466
-487
-338
-251
-310
-291
-182
-177
-227
-183
-29
135
121
-33
54
560
1291
1735
1088
-555
-1616
-1196
-322
-16
-71
-57
54
154
174
167
231
327
348
295
223
157
82
43
143
268
225
208
397
499
409
445
583
537
362
234
135
27
-40
-53
-67
-68
15
56
-106
-257
-184
-111
-202
-282
-306
-383
-460
-453
-406
-369
-337
-300
-270
-295
-366
-376
-278
-186
-203
-295
-363
-328
-180
-31
6
3
65
116
101
130
240
351
381
220
115
666
1424
931
-621
-1318
-773
-268
-113
97
150
-32
-90
20
156
282
296
224
214
192
70
-3
41
97
154
252
326
371
441
422
266
256
474
545
317
36
-173
-310
-295
-216
-296
-467
-464
-309
-260
-372
-465
-409
-283
-281
-394
-411
-324
-311
-360
-355
-309
-275
-220
-108
-23
-81
-208
-223
-126
-22
42
19
15
242
502
435
225
142
-15
-222
131
1163
1663
594
-934
-1158
-393
35
44
105
163
138
139
182
238
301
372
393
290
191
259
370
396
426
472
497
585
690
671
621
649
626
485
291
53
-107
-83
-121
-348
-463
-396
-421
-506
-424
-249
-195
-265
-323
-317
-296
-312
-355
-370
-360
-395
-428
-357
-267
-277
-322
-328
-347
-410
-457
-411
-310
-295
-385
-433
-374
-263
-182
-151
167
1064
1605
583
-1024
-1305
-612
-347
-334
-36
134
9
-59
4
108
195
188
178
269
346
382
463
486
381
358
512
628
596
557
561
512
412
343
310
259
171
81
1
-74
-116
-141
-188
-205
-165
-129
-106
-122
-190
-152
-5
1
-82
-18
55
-58
-225
-294
-299
-321
-373
-356
-237
-174
-243
-345
-451
-563
-616
-555
-110
808
1166
55
-1317
-1350
-578
-206
-146
40
199
176
129
175
257
314
326
312
370
495
458
245
162
297
464
637
858
983
912
790
732
642
494
365
198
-36
-192
-227
-242
-250
-230
-215
-236
-267
-253
-205
-198
-224
-236
-265
-313
-306
-278
-308
-317
-264
-255
-284
-266
-267
-284
-208
-134
-191
-305
-390
-448
-399
68
997
1358
215
-1301
-1532
-880
-508
-394
-235
-183
-200
-142
-126
-199
-201
-106
-26
14
72
184
288
314
393
588
626
471
493
709
776
662
513
360
271
224
79
-82
-78
32
69
-16
-98
-91
-98
-137
-108
-130
-298
-368
-257
-229
-285
-216
-137
-226
-294
-173
-51
-72
-69
27
8
-118
-77
30
-74
-161
-68
-89
252
1592
2408
989
-982
-1136
-278
6
-50
-7
-46
-84
-8
29
30
83
120
101
66
57
93
146
180
225
285
292
252
273
377
454
435
402
436
407
188
-11
23
76
-46
-165
-134
-55
-61
-171
-228
-114
34
104
141
106
24
40
35
-127
-228
-180
-204
-303
-311
-251
-193
-172
-235
-278
-193
74
820
1733
1364
-515
-1817
-1432
-668
-469
-428
-312
-233
-145
-60
-40
-71
-85
9
154
215
207
164
140
223
203
-24
-10
375
603
490
344
234
47
-159
-279
-336
-424
-561
-647
-621
-574
-569
-526
-411
-293
-208
-202
-288
-321
-281
-318
-360
-288
-254
-260
-183
-230
-442
-371
-13
37
-280
-409
-294
-111
663
1850
1647
-280
-1571
-1167
-553
-446
-304
-163
-184
-102
39
85
155
194
160
254
317
115
70
389
530
434
615
972
1124
1178
1212
1126
1065
1071
952
757
596
378
175
125
112
105
222
