# session 42
-193
-179
-162
-267
-402
-378
-295
-289
-282
-233
-208
-207
-198
-183
-173
-178
-187
-176
-162
-162
-146
-130
-149
-147
-121
-131
-141
-193
-124
669
1733
1354
-338
-1134
-559
-67
-46
22
94
58
69
116
128
136
144
158
193
208
198
214
250
270
284
317
361
397
425
452
484
515
522
498
446
351
221
111
45
-14
-73
-105
-106
-101
-103
-103
-99
-98
-104
-105
-88
-71
-79
-101
-99
-77
-78
-95
-89
-80
-98
-113
-101
-88
-89
-88
-88
-95
-93
-70
-51
-54
-52
-42
-69
-118
-115
-73
-77
-116
-122
-121
-133
-109
-99
-147
-198
-243
30
1010
1712
718
-963
-1283
-565
-201
-155
-19
12
-52
-21
29
39
61
86
105
121
107
89
114
156
184
222
275
323
371
430
488
537
568
563
501
369
191
30
-82
-167
-216
-230
-270
-324
-312
-288
-336
-351
-260
-184
-195
-213
-190
-162
-162
-174
-171
-170
-169
-149
-143
-166
-164
-136
-134
-142
-134
-125
-110
-90
-96
-112
-96
-77
-112
-150
-128
-99
-118
-140
-136
-115
-97
-123
-136
-139
-209
135
1216
1668
350
-1131
-1050
-304
-63
-30
72
72
48
67
69
99
137
129
150
197
187
187
263
301
267
277
341
383
423
499
584
625
595
542
489
360
164
7
-94
-151
-151
-158
-213
-261
-277
-262
-200
-165
-209
-232
-185
-161
-193
-214
-206
-176
-130
-123
-171
-211
-218
-199
-158
-140
-147
-127
-109
-138
-179
-187
-153
-114
-122
-117
-59
-68
-144
-139
-116
-171
-175
-112
-119
-142
-128
-155
-163
-197
-272
303
1585
1735
18
-1311
-873
-111
-29
-74
2
29
65
94
67
75
121
141
138
139
178
225
223
219
258
286
319
391
436
449
503
570
577
535
456
320
164
33
-68
-135
-181
-223
-236
-217
-212
-213
-199
-211
-227
-193
-167
-189
-189
-157
-151
-165
-180
-191
-173
-155
-170
-166
-129
-123
-144
-142
-139
-157
-155
-128
-120
-129
-122
-105
-84
-72
-83
-75
-39
-54
-110
-112
-89
-101
-95
-71
-110
-136
-90
-98
-138
-139
-180
208
1334
1729
293
-1159
-950
-207
-72
-67
61
52
19
69
88
82
83
81
126
173
141
129
213
249
201
222
306
325
319
373
432
454
473
474
427
345
231
95
-14
-100
-178
-206
-178
-170
-191
-189
-170
-168
-174
-174
-167
-159
-152
-149
-153
-145
-130
-142
-159
-147
-139
-146
-126
-108
-125
-121
-88
-98
-135
-127
-108
-109
-100
-84
-77
-67
-73
-91
-80
-64
-65
-44
-14
-22
-48
-73
-98
-90
-63
-73
-88
-67
-71
-99
-108
-132
118
920
1394
504
-817
-1016
-423
-105
-59
31
62
16
23
61
81
100
113
115
124
144
159
167
171
185
227
270
278
287
344
405
417
415
431
425
359
257
148
40
-47
-91
-114
-154
-198
-206
-187
-176
-173
-168
-171
-171
-156
-149
-161
-162
-146
-140
-150
-156
-152
-150
-152
-145
-128
-123
-137
-146
-135
-121
-118
-118
-114
-103
-87
-84
-83
-61
-52
-88
-107
-83
-91
-132
-131
-104
-95
-80
-88
-129
-151
-149
159
1032
1499
453
-1014
-1179
-484
-141
-89
26
60
23
60
102
89
91
124
148
165
187
209
223
239
269
308
337
367
421
476
512
548
572
554
501
413
272
112
-5
-85
-154
-207
-235
-243
-239
-238
-243
-240
-228
-210
-195
-206
-220
-196
-171
-189
-208
-194
-186
-196
-191
-167
-164
-185
-167
-123
-139
-173
-129
-91
-130
-137
-100
-111
-131
-115
-125
-150
-148
-157
-160
-105
-84
-149
-202
-244
-52
819
1646
950
-700
-1254
-610
-148
-106
-25
40
21
47
81
78
92
117
128
144
166
191
221
243
254
270
304
364
433
486
531
578
612
622
567
418
244
104
-25
-133
-191
-223
-224
-199
-220
-259
-235
-220
-265
-270
-225
-203
-186
-169
-191
-208
-171
-137
-145
-155
-154
-161
-163
-151
-137
-119
-98
-85
-90
-110
-122
-92
-49
-63
-114
-137
-135
-123
-98
-109
-163
-155
-102
-132
-174
-169
-97
507
1535
1452
-172
-1304
-873
-211
-108
-43
59
7
39
153
104
39
113
146
121
186
236
158
118
211
303
322
344
394
421
421
449
498
519
511
461
323
147
31
-60
-177
-253
-251
-235
-244
-261
-262
-255
-272
-295
-287
-279
-269
-205
-151
-181
-202
-189
-237
-248
-110
-39
-158
-214
-105
-58
-135
-176
-143
-114
-112
-116
-100
-77
-114
-184
-176
-107
-98
-148
-152
-104
-98
-146
-242
-342
103
1319
1839
533
-940
-899
-286
-142
-65
58
-23
-39
98
103
28
69
144
151
138
151
170
183
225
288
332
347
363
434
529
523
469
537
609
496
328
229
87
-110
-199
-164
-162
-225
-255
-259
-283
-253
-184
-210
-263
-202
-144
-188
-211
-182
-186
-201
-196
-197
-187
-164
-171
-179
-154
-139
-160
-167
-123
-75
-85
-101
-67
-71
-143
-161
-122
-122
-140
-141
-148
-121
-93
-140
-182
-246
-294
342
1580
1632
-1
-1146
-733
-145
-83
-18
53
-29
-19
54
21
24
100
95
87
159
172
135
183
231
202
226
316
361
385
447
500
523
534
500
396
269
152
32
-81
-156
-195
-217
-224
-230
-235
-222
-213
-215
-183
-146
-179
-218
-181
-141
-163
-182
-179
-184
-172
-140
-134
-136
-128
-157
-184
-142
-91
-82
-86
-101
-99
-50
-40
-100
-109
-77
-111
-150
-122
-107
-110
-92
-113
-141
-173
-241
188
1279
1556
188
-1063
-841
-211
-80
-49
45
28
15
47
41
49
88
107
124
140
146
176
213
225
240
268
300
351
410
460
502
517
522
545
503
351
195
67
-68
-151
-167
-200
-243
-244
-229
-224
-219
-217
-222
-220
-196
-176
-194
-218
-204
-183
-185
-185
-175
-175
-188
-180
-137
-126
-163
-139
-91
-169
-237
-120
-4
-62
-141
-132
-133
-182
-210
-190
-162
-147
-148
-156
-189
-268
-49
844
1513
674
-834
-1184
-551
-155
-85
7
44
22
49
81
84
99
127
143
154
177
213
250
280
286
283
319
402
476
515
561
619
645
629
562
403
208
78
-35
-176
-224
-157
-145
-223
-254
-215
-204
-232
-245
-226
-190
-171
-184
-182
-167
-200
-220
-160
-120
-158
-168
-130
-133
-163
-168
-167
-160
-123
-104
-126
-120
-85
-89
-116
-121
-126
-133
-119
-132
-175
-150
-103
-147
-177
-193
-209
386
1551
1546
-107
-1205
-727
-135
-111
-55
63
42
43
73
64
78
101
116
141
127
133
212
218
159
248
420
440
347
289
293
375
497
517
415
324
284
197
28
-112
-191
-290
-323
-212
-168
-233
-183
-103
-190
-263
-185
-108
-113
-179
-269
-250
-108
-59
-185
-270
-182
-95
-128
-150
-104
-104
-154
-172
-158
-113
-45
-21
-40
-60
-103
-141
-127
-130
-148
-110
-94
-126
-124
-135
-165
-182
-151
430
1517
1501
-116
-1201
-716
-145
-167
-84
128
117
41
35
33
46
81
101
94
108
178
205
141
131
216
259
262
307
345
343
366
398
376
334
311
226
73
11
45
-13
-150
-191
-159
-159
-181
-208
-218
-174
-139
-163
-178
-153
-130
-124
-135
-152
-139
-106
-109
-147
-151
-109
-93
-113
-107
-94
-108
-101
-80
-107
-110
-44
-4
-13
-26
-64
-98
-88
-78
-68
-60
-105
-123
-46
-34
-125
-158
-130
94
786
1316
682
-538
-918
-480
-149
-82
-14
40
31
16
16
35
70
89
82
77
95
116
123
137
164
189
205
220
251
302
328
315
322
360
352
277
195
129
52
-36
-96
-116
-126
-145
-165
-167
-145
-124
-135
-156
-157
-139
-112
-97
-114
-123
-98
-92
-122
-131
-116
-118
-128
-115
-101
-96
-89
-88
-96
-91
-85
-89
-85
-69
-49
-32
-40
-65
-78
-90
-106
-98
-95
-117
-104
-84
-120
-131
-122
-59
517
1396
1169
-321
-1213
-782
-236
-131
-51
30
5
15
58
63
77
91
88
107
135
146
169
202
215
228
266
308
341
378
427
474
501
496
472
422
310
154
43
-15
-92
-179
-214
-212
-221
-233
-228
-215
-205
-203
-195
-170
-163
-187
-194
-173
-168
-182
-190
-201
-201
-160
-118
-123
-150
-162
-155
-144
-128
-107
-108
-119
-110
-133
-206
-201
-125
-129
-159
-129
-155
-220
-237
-164
423
1449
1451
-58
-1220
-938
-322
-164
-116
-23
7
23
54
73
80
85
77
52
83
195
254
236
277
344
348
376
448
481
516
592
621
595
556
454
284
118
-24
-146
-222
-240
-225
-222
-242
-253
-249
-258
-270
-242
-175
-130
-145
-178
-178
-157
-144
-147
-165
-186
-187
-162
-147
-163
-160
-116
-103
-123
-103
-74
-92
-106
-91
-101
-129
-136
-142
-145
-116
-103
-120
-117
-127
-149
-144
-172
122
1119
1712
633
-894
-1048
-380
-107
-92
12
54
21
20
48
77
77
77
124
152
127
131
180
222
250
274
299
349
396
420
465
534
557
514
438
335
196
56
-28
-70
-133
-195
-205
-199
-214
-230
-248
-252
-216
-195
-219
-216
-185
-185
-193
-190
-203
-201
-179
-196
-216
-171
-131
-160
-172
-135
-125
-125
-94
-114
-176
-157
-109
-141
-178
-143
-104
-101
-125
-158
-139
-164
-249
267
1491
1722
107
-1305
-1020
-318
-227
-171
62
85
-22
-23
31
77
115
112
91
125
183
181
157
203
299
353
355
383
479
566
574
578
644
643
483
295
172
29
-132
-199
-206
-256
-290
-250
-238
-281
-264
-216
-241
-258
-204
-181
-206
-206
-189
-184
-189
-203
-189
-155
-164
-178
-148
-137
-138
-99
-104
-157
-124
-71
-133
-171
-97
-85
-159
-163
-127
-147
-142
-84
-84
-142
-248
-352
139
1425
1921
477
-1109
-1034
-316
-156
-110
81
73
-15
31
74
60
90
135
133
126
147
170
195
238
274
292
316
354
429
528
571
552
562
585
512
335
154
20
-84
-152
-187
-236
-277
-258
-223
-229
-247
-241
-215
-203
-224
-226
-180
-158
-196
-218
-199
-181
-177
-179
-183
-181
-170
-154
-138
-136
-140
-140
-144
-135
-94
-65
-75
-98
-115
-134
-150
-141
-111
-116
-146
-119
-90
-130
-153
-207
-134
702
1783
1317
-476
-1265
-620
-96
-86
-23
53
22
51
99
79
78
110
123
140
160
164
181
209
223
258
303
325
374
453
482
484
521
534
474
385
279
139
-7
-117
-178
-206
-218
-220
-231
-244
-226
-193
-192
-206
-201
-187
-184
-177
-158
-163
-199
-197
-134
-108
-168
-212
-173
-125
-118
-129
-153
-162
-101
-50
-111
-177
-141
-87
-82
-75
-59
-71
-99
-109
-104
-107
-113
-122
-141
-130
-99
-123
-151
-182
-233
249
1389
1626
150
-1146
-890
-243
-124
-89
18
0
-18
35
57
53
65
94
134
152
123
103
152
236
271
251
265
354
425
421
421
459
477
461
431
346
206
92
21
-64
-142
-156
-141
-155
-166
-150
-142
-150
-149
-145
-142
-140
-155
-169
-151
-133
-121
-83
-62
-97
-138
-142
-134
-131
-131
-129
-122
-118
-121
-112
-92
-96
-122
-123
-92
-73
-100
-137
-135
-121
-128
-138
-140
-128
-107
-135
-167
-164
-186
133
1086
1522
359
-1058
-1083
-407
-154
-104
27
46
8
52
81
72
106
153
152
139
152
189
231
259
284
328
357
361
398
466
495
499
530
541
477
369
240
88
-50
-124
-146
-180
-235
-251
-226
-229
-242
-212
-183
-191
-199
-205
-219
-212
-187
-182
-188
-176
-165
-180
-204
-206
-171
-138
-163
-209
-183
-121
-122
-144
-109
-86
-136
-150
-81
-48
-89
-115
-137
-180
-148
-63
-81
-139
-121
-143
-195
-187
-172
285
1392
1674
188
-1210
-966
-222
-64
-66
27
20
-1
60
109
105
104
146
176
157
162
195
166
137
207
299
330
342
389
451
481
483
507
528
477
352
172
-7
-78
-73
-127
-195
-203
-210
-217
-186
-186
-217
-189
-132
-134
-172
-160
-108
-130
-209
-189
-101
-97
-137
-140
-143
-139
-117
-142
-159
-87
-39
-101
-149
-102
-61
-73
-50
2
-33
-122
-130
-95
-113
-132
-104
-82
-79
-81
-114
-136
-168
-159
403
1428
1397
-130
-1194
-782
-179
-91
-25
57
-7
-5
86
112
89
68
79
142
187
168
141
151
198
239
231
243
347
429
393
370
449
504
463
387
290
175
90
10
-107
-202
-230
-216
-184
-179
-217
-222
-194
-204
-215
-192
-179
-168
-170
-218
-231
-188
-193
-220
-188
-172
-193
-166
-142
-183
-205
-177
-156
-138
-110
-117
-144
-131
-93
-76
-83
-111
-148
-161
-144
-131
-141
-144
-120
-124
-159
-149
-180
-151
505
1478
1213
-352
-1227
-748
-195
-96
-38
-2
-22
71
144
63
15
97
165
134
89
136
219
226
198
218
261
307
360
379
372
398
443
464
446
365
248
164
101
7
-91
-134
-132
-139
-169
-161
-117
-115
-142
-122
-96
-117
-126
-101
-101
-125
-113
-74
-80
-118
-99
-55
-78
-112
-81
-54
-81
-88
-41
-15
-44
-67
-42
-1
27
28
-11
-49
-36
-15
-34
-48
-39
-41
-35
-24
-47
-64
-96
-27
588
1424
1141
-268
-1054
-640
-138
-34
36
111
86
61
81
94
100
116
137
139
131
153
181
167
159
196
227
235
262
308
331
332
347
373
357
283
206
137
28
-93
-150
-163
-195
-236
-244
-234
-234
-229
-212
-218
-241
-235
-212
-216
-234
-232
-230
-238
-240
-237
-232
-216
-217
-247
-252
-215
-199
-219
-227
-217
-199
-171
-156
-166
-170
-163
-180
-216
-228
-205
-189
-211
-216
-178
-178
-209
-216
-235
14
813
1266
364
-906
-1048
-476
-198
-123
-5
2
-33
27
69
54
73
108
108
106
130
166
195
208
231
281
319
335
380
443
469
476
504
531
515
451
356
261
187
132
86
50
37
58
84
73
61
97
