# session 13
54
70
26
-13
75
232
293
253
221
238
240
203
178
43
-111
480
1664
1590
-116
-1195
-675
-25
45
99
213
200
195
229
227
236
268
291
328
383
436
492
545
574
571
538
493
441
354
222
87
-21
-100
-155
-190
-208
-209
-208
-216
-219
-209
-205
-228
-263
-283
-278
-274
-293
-311
-301
-296
-298
-276
-280
-304
-319
-480
-468
463
1492
778
-1020
-1548
-793
-328
-308
-201
-115
-124
-93
-68
-65
-20
28
64
123
183
245
332
394
397
387
375
337
269
171
44
-72
-154
-220
-264
-266
-249
-239
-232
-224
-214
-192
-170
-177
-194
-188
-172
-177
-189
-176
-147
-148
-159
-124
-110
-148
-172
-301
-320
536
1696
1235
-585
-1345
-669
-146
-117
-22
56
19
47
95
87
107
160
204
262
332
388
441
493
519
510
483
456
411
323
214
114
30
-32
-67
-93
-110
-108
-106
-115
-117
-113
-111
-108
-114
-135
-143
-131
-128
-151
-161
-141
-141
-150
-122
-120
-162
-212
-375
-262
774
1691
771
-958
-1250
-482
-146
-145
-20
25
-12
28
57
53
89
132
165
224
290
344
406
463
484
474
455
431
383
293
171
47
-48
-105
-136
-163
-191
-206
-206
-207
-217
-215
-197
-184
-192
-212
-224
-219
-213
-227
-234
-213
-198
-196
-177
-178
-194
-204
-359
-356
534
1527
807
-985
-1478
-666
-172
-160
-51
41
17
33
64
73
110
148
172
225
297
357
412
465
499
503
489
468
421
323
193
71
-25
-90
-134
-166
-182
-180
-179
-189
-196
-190
-183
-183
-179
-183
-202
-211
-201
-209
-230
-213
-177
-178
-176
-146
-157
-167
-212
-398
-154
937
1426
76
-1412
-1223
-362
-114
-101
33
59
38
86
108
113
157
199
232
283
343
405
470
511
514
495
474
443
383
285
167
60
-23
-85
-124
-144
-149
-145
-146
-155
-159
-156
-156
-149
-138
-152
-178
-173
-158
-176
-202
-192
-169
-167
-151
-126
-151
-171
-219
-392
-136
954
1467
173
-1292
-1144
-337
-112
-102
21
33
8
62
89
95
139
180
209
257
314
373
435
474
474
453
430
401
356
278
166
54
-26
-73
-101
-121
-138
-143
-134
-131
-137
-133
-126
-124
-117
-112
-128
-146
-146
-145
-165
-183
-168
-148
-164
-160
-130
-158
-195
-266
-400
2
1085
1266
-210
-1378
-958
-238
-119
-88
20
5
1
54
60
68
118
164
208
261
305
352
406
436
431
414
405
398
355
255
140
47
-27
-85
-122
-148
-166
-174
-180
-185
-186
-191
-199
-192
-173
-172
-196
-211
-201
-195
-220
-234
-203
-178
-186
-161
-128
-158
-187
-276
-350
242
1278
1042
-621
-1494
-839
-176
-105
-35
83
70
68
107
114
135
180
215
257
314
369
422
469
500
512
513
513
491
414
285
151
50
-19
-77
-125
-151
-157
-156
-157
-169
-180
-173
-165
-167
-161
-155
-168
-179
-168
-168
-198
-214
-182
-157
-171
-159
-134
-160
-177
-249
-345
166
1170
1012
-611
-1547
-917
-203
-106
-48
68
60
66
108
115
135
166
183
234
312
369
420
479
515
515
495
472
441
378
270
140
28
-48
-97
-133
-158
-168
-172
-175
-180
-183
-177
-164
-157
-153
-154
-175
-199
-198
-192
-209
-224
-208
-189
-195
-177
-141
-165
-196
-256
-418
-102
1002
1399
34
-1306
-1044
-283
-111
-89
29
29
15
67
77
86
136
171
200
258
318
367
410
438
443
435
424
408
366
283
174
71
-10
-63
-95
-115
-127
-134
-139
-144
-147
-147
-148
-148
-145
-139
-143
-163
-172
-160
-158
-185
-195
-162
-148
-162
-139
-128
-166
-206
-349
-329
536
1516
857
-849
-1333
-577
-122
-117
-27
37
10
43
80
81
114
155
181
235
303
353
399
448
483
492
482
468
434
345
208
77
-14
-76
-126
-162
-179
-186
-191
-196
-201
-209
-210
-198
-186
-177
-167
-171
-188
-194
-189
-202
-218
-199
-175
-187
-178
-146
-161
-164
-197
-362
-90
957
1314
-96
-1492
-1203
-335
-104
-84
60
90
62
101
127
141
181
219
259
314
370
434
504
546
555
549
533
496
423
310
181
65
-25
-90
-131
-151
-159
-162
-157
-150
-153
-164
-165
-162
-162
-150
-134
-150
-178
-167
-147
-176
-216
-195
-156
-161
-152
-129
-152
-158
-225
-404
-16
1097
1245
-339
-1547
-1035
-215
-80
-49
80
70
59
117
122
123
174
206
227
300
388
440
485
535
536
497
476
448
365
247
128
29
-29
-65
-114
-161
-171
-163
-168
-181
-189
-196
-198
-190
-180
-169
-151
-151
-174
-185
-179
-189
-216
-217
-186
-172
-175
-167
-175
-191
-238
-418
-305
632
1338
369
-1187
-1342
-553
-198
-150
28
96
31
43
50
11
51
124
126
133
215
308
350
392
515
641
619
498
414
305
126
11
-35
-132
-181
-71
15
-49
-73
23
58
13
40
41
-162
-388
-435
-469
-507
-296
-11
-23
-159
-131
-50
-19
-24
-68
-71
-39
-70
-135
-114
410
1496
1669
-4
-1558
-1270
-420
-276
-218
95
197
100
89
139
168
176
164
198
281
297
269
319
404
422
402
384
342
225
48
-62
-82
-174
-314
-303
-200
-174
-183
-185
-209
-195
-119
-51
-24
-28
-43
-77
-151
-100
126
120
-190
-218
68
106
-5
81
33
-281
-309
106
576
963
990
100
-1194
-1581
-1002
-440
-209
-116
-136
-169
-100
13
155
300
352
334
297
257
290
408
527
623
663
635
643
670
582
446
358
210
-19
-183
-266
-317
-297
-261
-316
-382
-350
-319
-393
-474
-456
-424
-492
-571
-534
-469
-483
-491
-438
-390
-347
-274
-197
-114
-39
-13
235
1070
1780
981
-865
-1688
-1122
-538
-362
-202
-123
-129
40
316
491
577
602
523
402
388
480
528
467
406
449
512
460
391
469
556
449
204
7
-42
-14
-50
-98
-42
-8
-96
-147
-84
-69
-160
-170
-43
-11
-146
-233
-243
-317
-389
-384
-368
-354
-342
-362
-418
-522
-283
738
1435
285
-1544
-1802
-928
-552
-604
-478
-344
-301
-183
-42
61
186
260
221
248
457
661
720
755
830
878
924
932
762
517
388
265
60
-50
-29
-48
-112
-114
-71
-34
-41
-127
-213
-204
-181
-212
-263
-341
-380
-242
-47
-39
-139
-133
-99
-175
-233
-214
-242
-265
-320
-334
600
2282
2239
2
-1380
-777
-176
-180
10
147
-24
-55
25
-37
-82
-38
-6
48
119
155
212
308
354
304
234
284
379
240
-113
-353
-410
-457
-491
-417
-303
-253
-199
-112
-104
-80
79
136
-14
-125
-188
-277
-244
-179
-210
-130
17
-37
-131
-108
-133
-145
-115
-242
22
1172
1724
258
-1601
-1748
-852
-337
-183
-61
-47
-75
-52
-48
-61
-16
73
142
194
277
395
517
631
704
716
709
692
640
552
376
134
33
123
192
134
-45
-334
-581
-629
-532
-413
-335
-314
-324
-340
-359
-384
-397
-363
-309
-316
-365
-335
-193
-73
-67
-62
-50
28
765
1990
1878
-41
-1401
-947
-162
29
120
171
15
-23
175
375
510
579
527
477
521
500
401
421
539
615
646
631
549
429
254
73
-7
-49
-126
-163
-181
-218
-227
-315
-509
-548
-430
-422
-471
-399
-288
-274
-384
-474
-370
-283
-402
-410
-249
-288
-443
-536
-541
177
1469
1361
-551
-1778
-1254
-591
-583
-565
-331
-188
-209
-218
-94
3
-35
-5
122
185
265
435
603
789
948
956
866
715
505
368
256
57
-52
-59
-151
-243
-287
-402
-470
-400
-339
-301
-202
-88
-42
-100
-208
-266
-292
-313
-267
-192
-132
3
120
47
-23
87
335
980
1797
1414
-389
-1615
-1236
-493
-230
-104
-2
17
86
88
-10
98
346
432
474
563
495
373
474
658
692
638
592
521
390
188
-24
-130
-176
-268
-282
-163
-179
-393
-509
-453
-376
-296
-236
-226
-165
-58
6
59
74
-41
-202
-291
-269
-169
-118
-87
-61
-137
291
1620
2127
440
-1401
-1315
-453
-248
-267
-122
-113
-196
-166
-111
-99
-55
16
64
131
286
493
616
605
604
711
757
610
413
315
226
42
-138
-200
-235
-350
-425
-325
-204
-278
-441
-465
-396
-407
-467
-454
-400
-391
-377
-326
-346
-400
-326
-241
-308
-406
-486
-335
580
1564
919
-910
-1648
-1000
-431
-286
-116
30
92
183
234
212
227
281
304
336
423
461
415
447
552
579
611
701
638
379
142
56
70
30
-176
-409
-426
-266
-205
-292
-305
-220
-205
-206
-75
68
64
2
-33
-110
-180
-140
-101
-132
-100
-3
-1
-253
-523
174
1849
2236
327
-1367
-1153
-437
-254
-168
-107
-164
-110
-23
-42
-21
48
54
55
127
234
325
384
421
438
434
445
454
381
240
116
14
-79
-114
-71
25
123
112
-22
-115
-116
-93
-12
27
-244
-713
-930
-727
-317
16
139
132
83
-60
-266
-432
-507
-88
1065
1677
435
-1363
-1671
-875
-345
-157
31
122
124
156
170
122
86
122
213
295
342
397
480
554
597
641
694
694
561
305
83
-25
-157
-352
-438
-408
-399
-383
-340
-373
-451
-439
-358
-330
-374
-396
-366
-350
-390
-438
-414
-326
-256
-185
-91
-48
-23
-65
-151
501
1921
2041
100
-1367
-936
-184
-27
89
174
57
17
83
153
293
385
308
252
326
386
398
470
586
630
598
548
474
334
163
48
9
-18
-59
-104
-146
-153
-149
-223
-296
-237
-193
-303
-378
-334
-328
-339
-283
-290
-360
-341
-324
-374
-333
-307
-465
-241
889
1878
1130
-793
-1745
-1265
-666
-469
-285
-110
-99
-136
-149
-155
-132
-71
13
98
172
263
392
539
680
782
830
830
773
639
453
283
201
140
-29
-170
-127
-161
-405
-473
-255
-130
-166
-135
-71
-83
-122
-184
-265
-272
-256
-329
-368
-289
-242
-277
-347
-362
125
1122
1235
-314
-1799
-1635
-735
-297
-124
44
64
49
105
121
142
250
350
380
421
549
729
859
922
957
934
888
881
775
526
337
201
-17
-181
-199
-211
-227
-209
-242
-276
-237
-261
-345
-328
-276
-299
-338
-395
-485
-514
-478
-418
-344
-351
-397
-400
-508
-205
1229
2314
1043
-1057
-1384
-618
-324
-209
-52
-205
-315
-141
-75
-82
147
405
426
369
381
372
384
535
670
624
516
437
317
175
47
-107
-243
-273
-232
-204
-228
-264
-243
-201
-220
-259
-262
-252
-229
-220
-283
-319
-221
-158
-224
-178
-12
-49
-221
-287
-235
424
1759
1946
84
-1508
-1195
-418
-298
-272
-86
7
11
-34
-106
-123
-96
-49
12
40
49
93
162
226
293
403
539
588
518
431
352
239
151
116
16
-140
-141
-18
-26
-122
-106
-71
-107
-91
-45
-61
-40
30
-5
-120
-169
-168
-224
-318
-386
-423
-126
886
1690
766
-1135
-1796
-1103
-488
-259
-60
15
-34
-15
31
30
41
99
174
243
299
374
527
729
833
798
753
725
610
429
292
161
-62
-280
-345
-332
-374
-411
-367
-312
-302
-299
-288
-288
-315
-362
-407
-432
-413
-370
-374
-394
-386
-447
-545
-591
-658
-221
1222
2126
831
-1031
-1204
-455
-206
-172
-5
51
47
92
92
97
175
239
243
228
256
366
515
663
793
837
790
750
672
444
149
-82
-225
-268
-241
-240
-269
-241
-162
-107
-100
-133
-184
-217
-204
-172
-182
-210
-187
-201
-304
-328
-280
-320
-377
-496
-595
284
2001
2101
-74
-1628
-1148
-385
-253
-134
13
-34
-50
45
99
94
106
154
188
194
242
375
514
562
548
558
570
517
411
281
135
14
-46
-66
-75
-86
-98
-84
-61
-91
-142
-128
-77
-68
-75
-58
-48
-50
-53
-76
-89
-93
-149
-285
-504
-399
718
2017
1464
-541
-1381
-714
-379
-733
-922
-858
-781
-675
-585
-496
-363
-317
-304
-142
46
116
201
336
412
460
529
561
508
376
210
72
-38
-139
-209
-233
-228
-215
-206
-169
-99
-66
-87
-93
-79
-90
-123
-147
-140
-141
-185
-204
-195
-231
-278
-393
-399
494
1944
1819
-198
-1517
-1028
-261
13
241
393
331
287
281
222
219
281
290
286
370
462
471
465
513
574
613
617
545
399
241
96
-34
-139
-212
-247
-256
-272
-273
-221
-159
-149
-167
-167
-166
-190
-216
-213
-183
-173
-209
-211
-163
-183
-244
-295
-310
223
1359
1531
-22
-1364
-1118
-439
-252
-169
-78
-113
-102
-39
-41
-13
60
78
102
221
343
391
465
623
748
754
689
599
480
330
164
4
-143
-276
-364
-396
-423
-453
-438
-421
-443
-426
-378
-408
-449
-402
-372
-401
-384
-340
-357
-412
-432
-442
-566
-547
298
1478
1188
-586
-1579
-1044
-432
-335
-204
-20
-7
-15
33
70
111
161
196
247
334
432
526
623
724
779
767
758
740
587
341
167
68
-27
-109
-159
-192
-222
-240
-216
-186
-218
-253
-218
-180
-170
-136
-101
-99
-124
-188
-203
-138
-158
-190
-128
-194
153
1566
2329
686
-1352
-1399
-549
-278
-174
8
-22
-56
57
120
126
147
135
120
174
260
333
417
490
521
547
574
545
460
358
223
58
-71
-132
-160
-194
-230
-236
-220
-220
-222
-197
-171
-170
-163
-132
-98
-73
-59
-62
-60
-78
-140
-170
-251
-380
224
1716
2134
428
-1170
-997
-349
-238
-145
4
-50
-63
2
-66
-134
-71
-17
4
87
215
330
410
464
515
511
394
279
240
141
-19
-68
-80
-228
-394
-418
-392
-421
-432
-392
-393
-440
-439
-407
-424
-458
-450
-438
-466
-482
-449
-452
-519
-605
-693
-340
827
1544
380
-1332
-1549
-837
-534
-487
-352
-309
-303
-233
-200
-175
-104
-64
-37
49
139
211
327
468
586
682
719
692
660
562
366
207
119
29
36
180
273
267
288
311
249
189
216
277
324
359
382
409
452
478
462
462
531
490
270
535
1658
2318
1305
-250
-684
-44
