# session 17
-8
0
-14
-46
-77
-106
-131
-127
-125
-181
-246
-247
-254
-290
-276
-282
-113
766
1654
876
-1078
-1872
-1162
-477
-289
-162
-92
-126
-113
-71
-51
-11
26
46
98
186
266
330
375
382
370
370
346
266
164
60
-39
-92
-106
-126
-153
-160
-136
-114
-147
-190
-163
-147
-214
-223
-142
-132
-148
-90
-107
-192
-253
-412
-160
1122
2021
834
-984
-1211
-508
-254
-198
-21
9
-26
19
23
30
122
179
203
319
418
353
267
312
376
363
340
321
260
181
96
-9
-99
-159
-194
-183
-133
-109
-142
-189
-199
-173
-162
-189
-201
-185
-184
-175
-172
-233
-235
-208
-316
127
1512
1969
185
-1634
-1496
-650
-409
-355
-207
-147
-90
-15
-11
4
75
134
173
214
262
330
391
406
418
486
537
479
372
284
173
51
2
12
10
-17
-47
-74
-113
-157
-158
-128
-134
-163
-173
-158
-100
-69
-129
-175
-278
-409
262
1698
1791
-132
-1537
-1081
-370
-281
-164
-3
-83
-108
24
83
91
153
196
187
194
261
360
412
380
336
327
299
222
135
31
-85
-141
-142
-159
-167
-124
-107
-164
-213
-200
-191
-229
-258
-244
-258
-299
-286
-280
-311
-336
-504
-409
831
2129
1165
-1180
-1910
-1031
-493
-441
-259
-171
-237
-184
-103
-117
-97
6
99
150
184
222
270
317
333
324
314
280
194
84
5
-37
-77
-116
-114
-73
-56
-78
-84
-62
-50
-58
-49
-16
-11
-39
-19
9
-37
-43
-127
-414
44
1721
2478
817
-988
-919
-273
-223
-171
28
-12
-75
19
57
16
24
50
70
126
210
283
340
378
390
389
368
319
256
188
112
49
14
-5
-21
-40
-56
-68
-99
-145
-162
-185
-256
-301
-296
-305
-285
-248
-285
-298
-325
-406
186
1478
1539
-266
-1581
-1174
-519
-427
-342
-190
-180
-175
-121
-95
-67
-18
32
85
137
204
294
362
372
355
359
366
327
251
180
111
42
10
-1
-20
-19
-9
-49
-107
-104
-79
-114
-166
-159
-145
-169
-155
-122
-158
-246
-445
-453
566
1982
1565
-552
-1592
-914
-317
-291
-160
-22
-106
-163
-108
-53
-1
43
70
132
249
360
421
444
456
457
441
405
329
215
105
26
-26
-47
-44
-48
-58
-62
-86
-131
-140
-121
-146
-196
-197
-180
-185
-182
-185
-189
-198
-287
-65
947
1640
454
-1490
-1889
-1004
-431
-302
-148
-81
-114
-74
-19
-10
17
63
101
142
194
255
320
364
377
378
377
361
313
222
113
45
28
14
-5
-2
5
-5
-29
-58
-77
-82
-94
-107
-109
-126
-122
-80
-105
-161
-190
-372
-291
829
1910
1047
-788
-1234
-574
-296
-311
-175
-137
-202
-152
-82
-79
-70
-35
15
83
143
182
197
191
187
213
243
235
194
128
41
-21
-38
-64
-102
-75
-3
16
-22
-45
-37
-36
-53
-54
-42
-64
-88
-68
-76
-107
-141
-277
-72
966
1642
549
-1029
-1198
-550
-297
-262
-158
-152
-154
-74
-44
-49
1
62
100
146
201
256
309
351
385
412
429
417
358
263
172
104
52
14
-7
-20
-30
-44
-83
-139
-166
-162
-181
-217
-217
-206
-199
-176
-194
-212
-183
-293
-175
910
1897
905
-1014
-1421
-646
-278
-242
-82
-31
-71
-13
29
23
62
109
128
166
231
297
353
385
390
388
388
367
295
170
45
-32
-78
-126
-154
-151
-148
-165
-193
-214
-216
-215
-227
-245
-265
-270
-227
-209
-249
-261
-405
-621
-10
1364
1486
-190
-1359
-934
-350
-303
-230
-99
-123
-124
-54
-21
7
54
87
121
174
225
261
281
285
281
284
290
264
183
78
-1
-40
-66
-105
-130
-107
-74
-95
-145
-155
-140
-159
-193
-197
-186
-184
-159
-132
-150
-164
-212
-204
416
1415
1190
-504
-1564
-1053
-328
-160
-101
-18
-3
49
97
86
121
190
219
249
291
323
365
388
359
334
353
367
338
276
211
170
147
120
93
78
75
74
57
22
-4
-7
-20
-41
-32
-30
-65
-60
-39
-85
-111
-178
-266
325
1485
1430
-195
-1214
-769
-267
-255
-183
-75
-117
-125
-90
-108
-103
-51
-23
-8
39
99
145
166
167
176
214
252
225
124
20
-28
-59
-116
-163
-172
-171
-184
-213
-243
-241
-217
-225
-240
-216
-211
-227
-186
-153
-186
-221
-363
-382
447
1496
915
-902
-1575
-849
-318
-272
-150
-51
-84
-54
8
16
37
83
114
152
222
299
358
396
410
401
398
399
363
288
201
120
67
44
22
4
13
14
-27
-80
-103
-106
-118
-132
-140
-154
-150
-118
-116
-122
-151
-262
25
1016
1403
54
-1480
-1417
-565
-214
-156
-41
-10
-6
61
85
66
89
149
215
261
282
333
419
443
400
391
409
368
275
184
104
47
23
-3
-38
-36
-12
-40
-113
-137
-95
-84
-121
-137
-141
-159
-152
-146
-160
-156
-296
-466
83
1135
993
-570
-1510
-1006
-371
-254
-184
-59
-49
-55
-18
6
23
56
97
140
181
230
289
332
343
338
338
322
255
160
93
54
9
-34
-56
-64
-72
-75
-79
-105
-138
-145
-149
-168
-173
-177
-190
-162
-145
-184
-189
-291
-437
184
1421
1317
-486
-1602
-1047
-355
-246
-155
-33
-58
-45
30
48
68
124
161
198
263
323
365
403
415
402
401
405
363
277
194
118
52
12
-8
-14
-4
-4
-54
-130
-169
-162
-167
-205
-226
-224
-228
-213
-206
-242
-237
-284
-378
207
1421
1411
-321
-1488
-1000
-332
-241
-165
-47
-80
-78
-6
18
46
107
141
166
219
278
320
343
347
343
355
373
348
267
171
96
46
1
-40
-69
-89
-104
-115
-133
-156
-151
-132
-140
-152
-151
-155
-139
-123
-154
-167
-290
-541
-61
1355
1786
255
-1129
-906
-301
-214
-178
-71
-85
-87
-35
-20
7
59
87
119
177
228
269
308
320
316
332
345
304
216
126
50
-16
-60
-94
-136
-159
-143
-139
-183
-219
-206
-200
-236
-246
-223
-222
-216
-189
-204
-214
-244
-339
76
1200
1452
-118
-1583
-1336
-520
-272
-203
-68
-56
-59
2
27
47
98
122
138
202
278
319
339
353
356
354
352
322
241
142
65
15
-13
-24
-38
-52
-42
-32
-63
-100
-93
-79
-102
-126
-130
-140
-130
-107
-129
-136
-194
-432
-194
1010
1663
410
-1102
-1057
-377
-229
-234
-108
-86
-96
-43
-31
-35
16
70
100
140
187
222
247
265
271
276
288
274
202
113
52
4
-36
-54
-75
-101
-99
-79
-84
-114
-127
-106
-100
-121
-116
-101
-117
-98
-61
-96
-133
-214
-291
318
1464
1370
-276
-1295
-834
-290
-247
-180
-76
-97
-92
-41
-21
3
41
77
134
204
256
296
336
367
383
396
408
397
340
253
179
136
93
30
-19
-23
-12
-39
-92
-104
-76
-88
-152
-182
-172
-176
-163
-139
-168
-174
-210
-319
162
1310
1374
-324
-1595
-1148
-402
-269
-211
-80
-86
-90
-39
-28
-14
31
70
117
178
241
309
354
337
298
291
294
255
168
79
13
-49
-111
-141
-155
-171
-166
-150
-186
-244
-239
-188
-181
-222
-245
-220
-168
-158
-203
-186
-208
-393
-69
1087
1454
-10
-1387
-1107
-368
-228
-176
-15
-28
-64
15
53
44
81
143
183
215
262
320
352
337
321
338
350
317
251
162
63
-3
-18
-23
-45
-70
-76
-70
-85
-125
-145
-140
-145
-138
-103
-104
-143
-147
-150
-167
-210
-392
-267
778
1613
606
-1095
-1321
-539
-197
-174
-48
-8
-24
41
70
59
100
151
197
262
299
314
365
401
372
346
357
342
273
186
116
60
8
-33
-52
-73
-86
-58
-45
-100
-129
-91
-101
-158
-148
-110
-130
-134
-104
-132
-164
-196
-235
184
1088
1128
-274
-1433
-1175
-470
-192
-96
-17
-27
-18
40
64
76
111
149
189
243
301
348
374
373
360
359
373
360
281
174
103
61
18
-8
-20
-38
-45
-47
-84
-126
-122
-130
-182
-181
-145
-179
-178
-103
-136
-221
-284
-429
-101
1022
1353
-124
-1459
-1133
-407
-292
-243
-84
-89
-102
-35
-34
-33
49
101
97
141
237
295
297
286
285
298
306
262
165
84
27
-46
-104
-106
-111
-154
-176
-171
-203
-239
-214
-194
-233
-253
-228
-231
-237
-187
-165
-196
-188
-241
-219
475
1365
857
-801
-1499
-852
-270
-164
-73
14
24
51
56
42
93
160
191
228
283
350
414
423
380
367
381
366
324
255
152
81
71
46
-2
-9
20
22
-25
-90
-117
-105
-113
-131
-114
-105
-131
-112
-85
-125
-129
-139
-117
499
1388
922
-823
-1618
-918
-265
-170
-85
1
-26
-8
43
55
81
127
175
245
317
367
409
439
440
431
445
458
408
298
194
123
70
27
-7
-39
-56
-58
-81
-134
-172
-160
-145
-172
-194
-186
-190
-189
-183
-211
-214
-295
-524
-169
1042
1406
-36
-1326
-1033
-370
-281
-262
-132
-117
-112
-57
-40
-18
32
64
110
189
251
293
331
342
331
336
331
268
167
79
14
-43
-94
-125
-137
-149
-156
-153
-177
-220
-227
-216
-234
-240
-215
-212
-211
-186
-197
-199
-221
-423
-267
833
1548
355
-1309
-1380
-569
-248
-194
-46
-10
-30
29
67
78
124
181
240
309
363
407
448
453
424
404
399
362
274
168
80
14
-37
-71
-86
-90
-86
-79
-93
-134
-145
-111
-104
-139
-164
-178
-169
-124
-141
-187
-193
-383
-419
580
1722
1012
-776
-1237
-533
-197
-203
-80
-46
-90
-30
8
-10
40
112
140
171
226
282
318
313
293
305
334
332
276
180
92
43
2
-52
-88
-96
-107
-125
-132
-136
-138
-118
-102
-111
-103
-74
-79
-83
-69
-95
-109
-212
-491
-177
1061
1496
118
-1126
-839
-237
-175
-146
-41
-64
-62
-13
-17
3
64
96
133
203
273
335
373
371
378
422
440
382
270
148
40
-44
-105
-141
-160
-174
-182
-186
-206
-239
-251
-240
-241
-253
-251
-249
-241
-211
-211
-212
-191
-337
-375
410
1268
530
-1090
-1432
-650
-235
-215
-79
8
-19
12
60
85
132
178
221
292
367
440
512
539
529
536
534
466
349
227
125
48
-10
-53
-79
-88
-89
-90
-111
-155
-183
-167
-151
-170
-182
-173
-185
-188
-165
-177
-192
-272
-501
-236
942
1508
194
-1299
-1200
-475
-282
-239
-80
-45
-55
0
28
47
99
144
189
258
326
376
407
414
400
385
365
299
178
59
-24
-77
-97
-103
-131
-153
-127
-109
-145
-179
-172
-160
-176
-197
-184
-168
-179
-170
-151
-168
-186
-336
-520
97
1377
1408
-181
-1176
-739
-271
-268
-177
-55
-85
-80
-19
7
42
83
111
165
234
280
326
371
378
362
359
349
300
217
126
53
7
-19
-29
-40
-63
-73
-61
-65
-91
-91
-78
-88
-87
-68
-83
-102
-97
-124
-129
-161
-413
-316
839
1789
845
-787
-1039
-440
-255
-264
-126
-79
-112
-87
-41
10
46
43
80
174
246
293
343
370
368
369
358
295
188
87
15
-50
-121
-166
-171
-164
-172
-202
-237
-242
-207
-178
-192
-217
-218
-228
-246
-204
-151
-177
-195
-285
-508
-106
1162
1509
-15
-1332
-997
-345
-291
-225
-39
-45
-69
5
42
48
83
147
224
279
324
396
469
510
507
456
392
317
198
72
1
-44
-98
-133
-134
-119
-108
-118
-146
-161
-149
-151
-187
-200
-166
-173
-225
-204
-156
-177
-205
-340
-448
271
1505
1340
-341
-1268
-786
-320
-287
-184
-85
-111
-87
-39
-21
34
92
125
195
281
334
399
465
446
384
368
331
225
137
79
-15
-82
-65
-59
-98
-101
-66
-64
-95
-99
-74
-89
-127
-99
-73
-147
-170
-69
-64
-155
-209
-369
-231
893
1831
850
-851
-1091
-428
-228
-237
-86
-60
-113
-63
-18
-4
42
81
122
199
262
312
397
447
409
360
335
280
183
88
16
-41
-87
-122
-160
-203
-222
-204
-196
-215
-232
-233
-233
-234
-231
-239
-264
-259
-213
-230
-290
-306
-406
-242
826
1736
755
-1045
-1379
-629
-285
-253
-107
-56
-73
-5
45
68
120
145
182
303
423
485
541
572
539
503
470
377
242
131
54
-11
-76
-126
-131
-113
-107
-110
-134
-186
-209
-196
-214
-254
-245
-216
-234
-251
-216
-198
-200
-236
-418
-275
785
1597
561
-1122
-1340
-635
-362
-289
-76
-22
-68
-14
35
56
122
184
221
277
352
430
496
524
505
461
410
342
247
143
45
-41
-85
-82
-93
-138
-142
-87
-65
-119
-170
-165
-152
-164
-167
-158
-183
-205
-157
-125
-156
-181
-327
-362
503
1636
1101
-705
-1361
-667
-214
-208
-105
-34
-59
-12
24
2
34
106
162
222
282
334
380
400
389
373
362
338
264
149
67
35
-12
-70
-89
-93
-107
-107
-99
-110
-126
-125
-114
-119
-134
-124
-106
-131
-138
-100
-123
-159
-210
-429
-215
1025
1799
566
-1062
-1093
-403
-237
-230
-97
-83
-102
-45
-19
-8
37
85
141
214
280
344
397
417
419
419
400
337
225
92
-10
-59
-86
-141
-199
-207
-199
-224
-242
-242
-266
-276
-230
-219
-286
-318
-285
-272
-268
-240
-231
-236
-337
-481
47
1241
1311
-359
-1567
-1100
-379
-257
-179
-37
-39
-37
15
32
61
112
159
227
299
354
419
466
455
430
425
394
302
185
85
13
-35
-67
-89
-100
-98
-88
-80
-81
-88
-98
-102
-92
-90
-115
-128
-112
-104
-85
-55
-65
-83
-190
-367
122
1364
1572
3
-1222
-836
-199
-141
-93
40
25
33
109
120
129
184
219
254
326
395
440
464
451
411
380
357
302
198
80
-7
-44
-52
-67
-100
-120
-117
-114
-124
-142
-163
-174
-170
-177
-180
-164
-177
-215
-200
-184
-221
-246
-398
-514
269
1559
1330
-427
-1300
-732
-277
-311
-250
-169
-210
-205
-173
-152
-92
-63
-75
-28
