# session 0
36
25
36
22
17
43
18
-6
15
13
402
1352
1482
-47
-1397
-1044
-171
46
51
166
170
132
175
207
202
209
219
223
234
258
292
318
333
353
377
404
442
470
471
478
492
461
377
276
160
32
-67
-132
-182
-213
-221
-221
-215
-206
-207
-209
-193
-170
-163
-170
-166
-155
-152
-151
-143
-140
-145
-150
-151
-145
-139
-142
-142
-133
-128
-135
-140
-134
-128
-131
-128
-115
-105
-91
-71
-72
-81
-52
-29
-66
-105
-104
-108
-117
-111
-111
-102
-96
-116
-115
-128
-13
673
1404
758
-885
-1474
-731
-119
-49
-6
53
42
69
106
101
110
134
141
155
183
207
229
250
266
290
323
354
384
414
439
457
457
418
345
251
137
23
-64
-125
-175
-201
-202
-205
-210
-205
-197
-192
-179
-171
-171
-162
-151
-155
-157
-145
-140
-148
-155
-155
-152
-148
-153
-161
-161
-151
-141
-145
-157
-156
-149
-148
-144
-138
-138
-128
-115
-113
-104
-85
-86
-87
-53
-33
-63
-87
-80
-75
-78
-87
-88
-60
-56
-91
-96
-131
3
781
1505
728
-906
-1335
-559
-47
-11
53
100
80
122
153
128
142
177
184
202
239
255
263
293
330
362
397
440
479
495
502
528
542
488
388
286
174
52
-43
-105
-146
-157
-155
-168
-179
-165
-148
-143
-135
-129
-128
-124
-115
-106
-100
-94
-83
-80
-96
-106
-96
-88
-87
-89
-99
-104
-86
-66
-75
-89
-85
-76
-75
-75
-65
-58
-69
-73
-56
-55
-68
-46
-20
-49
-88
-97
-101
-101
-104
-120
-108
-95
-128
-150
-219
-163
611
1573
1071
-589
-1236
-581
-97
-92
-36
22
-20
-7
34
36
52
77
76
80
104
128
149
173
195
228
285
348
392
423
460
494
482
408
311
211
76
-69
-166
-233
-287
-298
-282
-286
-299
-294
-282
-277
-273
-258
-235
-222
-225
-223
-208
-201
-209
-201
-175
-178
-190
-155
-117
-127
-144
-135
-126
-125
-114
-90
-88
-113
-105
-56
-48
-78
-65
-38
-51
-73
-87
-102
-80
-41
-38
-56
-69
-73
-133
-243
113
1193
1667
429
-1026
-995
-283
-64
-54
66
92
66
102
116
112
146
178
185
199
236
279
312
334
371
433
500
558
610
659
703
721
679
569
411
232
59
-76
-161
-210
-244
-266
-277
-284
-277
-246
-225
-230
-220
-194
-185
-168
-103
-36
-27
-55
-71
-69
-72
-92
-127
-159
-171
-164
-152
-142
-135
-137
-136
-125
-120
-120
-108
-111
-143
-170
-187
-205
-201
-194
-214
-213
-194
-212
-231
-287
-273
389
1461
1313
-315
-1369
-944
-328
-199
-117
-9
-15
-6
42
52
61
88
108
136
170
187
199
227
262
298
335
378
422
460
488
503
497
453
361
235
108
1
-90
-166
-216
-245
-262
-258
-238
-220
-207
-188
-177
-191
-207
-191
-164
-157
-148
-130
-127
-131
-121
-107
-99
-93
-86
-79
-79
-84
-73
-56
-52
-40
-15
-20
-45
-56
-69
-83
-72
-71
-88
-72
-66
-102
-139
-199
1
859
1528
715
-758
-1078
-456
-115
-86
9
54
26
55
89
87
106
137
149
164
192
217
239
262
285
316
361
404
436
471
510
529
513
460
363
230
96
-15
-96
-145
-182
-219
-239
-233
-225
-228
-227
-218
-211
-205
-198
-195
-200
-206
-206
-201
-196
-195
-196
-190
-185
-194
-203
-199
-189
-178
-154
-123
-123
-154
-172
-165
-162
-170
-182
-185
-167
-176
-224
-275
-350
-102
929
1791
955
-741
-1206
-561
-185
-160
-62
-12
-38
-7
23
22
46
77
95
116
140
166
195
218
248
303
364
415
470
531
589
637
647
581
445
286
131
-8
-116
-187
-231
-251
-259
-264
-259
-249
-247
-242
-225
-215
-217
-209
-194
-182
-173
-168
-164
-151
-139
-141
-134
-113
-112
-116
-92
-73
-93
-113
-114
-122
-122
-114
-126
-124
-102
-123
-148
-168
-123
491
1567
1563
-36
-1275
-961
-286
-132
-87
23
39
46
88
100
110
136
151
169
203
233
254
284
326
369
409
457
512
563
609
648
658
612
496
335
169
22
-94
-170
-216
-252
-275
-281
-281
-283
-283
-280
-275
-270
-270
-271
-268
-263
-262
-266
-266
-261
-264
-273
-262
-242
-242
-237
-201
-182
-207
-229
-230
-230
-222
-219
-223
-199
-198
-235
-271
-438
-426
590
1894
1487
-261
-996
-483
-174
-226
-132
-47
-71
-45
-13
-19
3
41
75
117
135
131
151
190
230
283
332
356
390
442
470
472
476
447
346
197
51
-67
-153
-214
-249
-264
-267
-262
-247
-225
-203
-189
-179
-161
-141
-130
-123
-112
-96
-84
-83
-79
-63
-56
-62
-45
-24
-45
-76
-77
-82
-96
-92
-92
-95
-73
-84
-121
-125
-141
148
1109
1713
686
-872
-1119
-463
-133
-78
33
65
40
78
110
112
133
163
182
194
202
220
251
274
293
326
366
399
437
479
513
534
526
458
333
194
75
-22
-99
-151
-180
-194
-204
-212
-206
-196
-203
-212
-206
-205
-219
-227
-225
-225
-230
-244
-256
-255
-255
-252
-232
-223
-240
-258
-268
-278
-273
-273
-284
-262
-254
-296
-331
-461
-486
375
1675
1494
-160
-1037
-590
-214
-252
-195
-114
-136
-119
-78
-51
1
31
22
27
38
52
103
160
193
239
306
356
390
428
463
482
471
407
292
162
45
-51
-121
-167
-194
-202
-188
-172
-167
-161
-146
-133
-127
-122
-115
-108
-99
-84
-79
-100
-116
-112
-111
-111
-92
-83
-97
-115
-131
-130
-118
-129
-123
-89
-116
-147
-139
-153
295
1435
1781
321
-1144
-1006
-309
-133
-93
32
41
36
85
95
100
135
152
164
189
206
222
257
300
335
367
412
472
536
597
645
649
584
452
281
114
-24
-134
-211
-253
-278
-297
-301
-296
-290
-281
-271
-264
-253
-241
-234
-224
-212
-205
-204
-213
-221
-206
-182
-175
-178
-188
-208
-208
-192
-207
-216
-180
-188
-231
-265
-384
-166
949
1834
884
-806
-1118
-451
-180
-193
-83
-47
-75
-25
9
1
27
62
78
101
130
153
187
232
272
307
351
409
466
515
554
567
516
380
190
7
-127
-216
-275
-307
-314
-311
-306
-298
-285
-270
-259
-258
-257
-245
-226
-210
-207
-212
-204
-186
-184
-189
-182
-177
-178
-171
-169
-176
-173
-175
-177
-149
-150
-183
-235
-392
-200
976
2012
1134
-664
-1101
-431
-107
-103
10
55
34
85
113
101
132
166
168
181
212
239
266
297
332
378
436
492
536
579
622
638
592
472
304
133
-9
-115
-187
-230
-250
-256
-254
-246
-240
-237
-219
-193
-192
-212
-211
-184
-171
-176
-174
-174
-192
-192
-169
-165
-176
-181
-180
-171
-169
-182
-168
-163
-195
-215
-344
-375
523
1894
1695
-94
-1050
-551
-115
-140
-70
11
-32
-15
34
31
43
61
57
73
106
126
147
183
220
258
302
355
415
465
496
513
490
382
208
38
-100
-217
-294
-324
-338
-349
-350
-349
-340
-318
-306
-311
-299
-275
-271
-274
-264
-266
-269
-243
-226
-250
-253
-210
-186
-192
-192
-190
-186
-175
-165
-141
-137
-163
-163
-293
-465
209
1687
1964
362
-909
-637
-126
-115
-85
19
-11
-16
41
48
55
89
95
97
127
151
168
212
263
295
332
384
432
479
533
561
540
469
344
187
45
-60
-138
-197
-227
-225
-214
-213
-213
-201
-185
-172
-163
-159
-158
-153
-146
-146
-151
-151
-150
-150
-139
-127
-131
-137
-123
-115
-121
-123
-124
-126
-113
-116
-134
-108
-92
-127
-149
-242
-149
801
1875
1263
-505
-1126
-496
-113
-123
-18
50
0
27
82
71
63
82
96
110
134
160
186
210
236
272
319
376
436
485
526
563
559
473
314
137
-10
-119
-211
-266
-263
-253
-273
-280
-260
-247
-246
-245
-243
-243
-243
-245
-247
-251
-253
-245
-234
-231
-227
-219
-222
-229
-224
-216
-211
-196
-174
-160
-156
-159
-157
-154
-154
-135
-127
-156
-154
-245
-416
137
1510
1844
330
-939
-659
-104
-86
-71
47
45
50
102
106
109
135
142
148
175
199
217
240
271
310
351
394
447
499
541
577
592
536
397
225
64
-67
-156
-211
-247
-265
-266
-274
-280
-267
-252
-252
-244
-225
-223
-227
-222
-220
-222
-214
-205
-206
-206
-207
-213
-210
-200
-199
-202
-192
-178
-175
-166
-142
-141
-164
-157
-129
-141
-144
-100
-107
-144
-182
-289
66
1295
1947
658
-968
-1000
-285
-85
-76
56
76
49
98
123
115
128
136
148
177
199
216
248
283
311
349
401
446
482
521
557
570
539
454
316
161
30
-60
-117
-159
-191
-204
-199
-197
-197
-188
-183
-191
-194
-185
-186
-192
-182
-172
-178
-180
-167
-164
-173
-171
-159
-162
-184
-193
-180
-173
-176
-163
-147
-151
-167
-174
-165
-156
-161
-141
-112
-146
-169
-216
-350
99
1423
1921
467
-1012
-859
-202
-102
-104
5
-2
-13
40
43
32
66
93
93
99
121
146
170
200
233
262
303
356
394
421
457
481
452
367
247
115
-6
-103
-168
-197
-215
-236
-241
-223
-217
-225
-217
-203
-205
-207
-204
-208
-207
-197
-189
-179
-169
-178
-189
-173
-156
-158
-157
-159
-176
-172
-142
-128
-113
-80
-72
-85
-86
-93
-96
-88
-107
-108
-83
-110
-132
-186
-285
248
1487
1691
176
-1004
-694
-165
-126
-71
43
26
35
84
82
93
132
139
138
152
170
188
209
243
294
337
357
383
424
454
460
457
442
389
288
169
65
-24
-93
-137
-162
-177
-180
-169
-155
-158
-168
-160
-149
-155
-157
-151
-159
-163
-145
-140
-157
-162
-157
-156
-149
-154
-180
-175
-130
-107
-106
-99
-110
-138
-147
-152
-165
-172
-177
-169
-154
-181
-204
-226
-248
243
1365
1657
268
-1055
-889
-284
-196
-183
-40
-9
-14
34
45
47
91
124
121
119
145
177
187
198
240
283
313
358
402
416
424
429
401
336
247
140
37
-47
-106
-135
-153
-172
-173
-155
-149
-155
-148
-130
-128
-150
-160
-137
-128
-155
-170
-164
-172
-181
-173
-180
-197
-189
-174
-184
-192
-181
-175
-165
-138
-131
-152
-166
-173
-175
-159
-157
-168
-154
-157
-184
-238
-393
-173
978
1899
995
-635
-944
-345
-134
-157
-39
-6
-50
-5
44
41
54
84
110
144
176
185
186
214
276
339
375
412
473
529
567
599
596
524
398
246
102
5
-55
-113
-156
-167
-166
-159
-150
-150
-148
-137
-134
-144
-160
-177
-171
-139
-124
-139
-143
-132
-134
-139
-134
-137
-137
-115
-105
-116
-97
-65
-87
-129
-139
-138
-140
-137
-144
-133
-111
-147
-174
-182
-217
235
1352
1647
213
-1171
-1010
-331
-144
-90
24
20
8
54
61
59
82
92
100
122
134
145
171
200
231
269
310
348
386
419
440
451
434
358
226
84
-37
-132
-213
-279
-313
-315
-310
-310
-301
-283
-270
-254
-233
-224
-219
-200
-180
-175
-170
-163
-161
-162
-163
-162
-155
-153
-165
-175
-173
-168
-150
-130
-143
-174
-181
-176
-171
-165
-178
-173
-134
-149
-187
-230
-341
25
1249
1876
635
-868
-856
-206
-73
-125
-64
-62
-58
2
19
23
56
76
89
115
134
150
186
222
248
287
343
390
427
470
513
534
513
431
291
137
11
-84
-163
-218
-237
-233
-229
-220
-209
-202
-189
-171
-169
-166
-146
-135
-139
-130
-117
-109
-76
-43
-56
-75
-72
-81
-76
-41
-50
-89
-66
-20
-26
-37
-30
-43
-69
-76
-51
-10
-5
-23
-66
-115
343
1503
1919
540
-951
-893
-230
-68
-26
148
192
166
196
212
235
281
296
300
308
300
318
372
400
406
424
445
490
559
580
563
571
557
470
358
247
130
29
-41
-68
-67
-89
-108
-56
6
-17
-86
-113
-85
-46
-37
-39
-22
-16
-48
-65
-39
-11
0
13
28
31
26
16
-2
-15
-25
-73
-153
-203
-217
-240
-273
-307
-344
-354
-374
-441
-469
-495
-430
331
1437
1051
-942
-2117
-1571
-861
-720
-619
-492
-508
-520
-476
-484
-520
-490
-463
-551
-577
-387
-248
-317
-363
-328
-328
-298
-207
-146
-105
-84
-151
-265
-375
-524
-703
-842
-942
-1020
-1057
-1074
-1119
-1156
-1134
-1100
-1089
-1059
-1010
-974
-926
-862
-811
-772
-728
-683
-639
-584
-515
-448
-417
-416
-387
-306
-227
-189
-153
-83
-27
7
82
175
223
276
337
362
391
403
661
1721
2795
2083
121
-621
137
763
906
1105
1280
1324
1424
1549
1616
1704
1828
1927
2016
2125
2222
2289
2378
2516
2664
2805
2965
3127
3254
3354
3436
3459
3393
3269
3126
2976
2832
2706
2577
2400
2182
1990
1842
1730
1657
1514
1146
634
195
-127
-394
-604
-772
-929
-1042
-1113
-1220
-1385
-1553
-1675
-1737
-1771
-1813
-1840
-1855
-1881
-1886
-1852
-1834
-1801
-1704
-1628
-1599
-1576
-1619
-1699
-1766
-1871
-1472
-161
547
-767
-2467
-2606
-2029
-1946
-2001
-1919
-1936
-1924
-1756
-1649
-1666
-1651
-1594
-1607
-1672
-1699
-1702
-1733
-1781
-1834
-1900
-1955
-1976
-1980
-1987
-2000
-2036
-2113
-2246
-2446
-2674
-2869
-3019
-3133
-3199
-3235
-3281
-3374
-3490
-3519
-3522
-3674
-3634
-2844
-1582
-583
63
640
1145
1515
1825
2094
2307
2498
2669
2791
2880
2968
3050
3101
3134
3161
3164
3141
3106
3051
2992
2946
2892
2855
2844
2766
2655
2538
2339
2602
3791
4458
3117
1309
1078
1698
1864
1799
1826
1767
1680
1643
1563
1464
1406
1355
1286
1206
1135
1097
1059
990
941
927
895
852
832
816
790
755
662
492
294
87
-125
-308
-452
-575
-680
-759
-807
-832
-863
-909
-942
-954
-969
-995
-1020
-1042
-1063
-1081
-1101
-1122
-1124
-1106
-1090
-1083
-1089
-1113
-1126
-1115
-1111
-1112
-1130
-1207
-1242
-1124
-1020
-1066
-1085
-1022
-1029
-1035
-1027
-1022
-355
1018
1161
-782
-2406
-2041
-1130
-874
-779
-612
-592
-586
-510
-478
-458
-404
-365
-340
-304
-263
-223
-179
-130
-77
-23
34
99
162
208
240
268
