# session 14
66
142
47
-178
565
1895
1381
-688
-1477
-814
-433
-398
-182
-66
-107
-62
28
80
122
161
195
232
300
410
511
599
723
809
744
588
478
411
294
129
10
-48
-120
-212
-277
-310
-321
-315
-314
-333
-361
-372
-379
-412
-425
-397
-391
-375
-296
-272
-298
-307
-372
48
1424
2104
467
-1584
-1644
-684
-334
-283
-111
-75
-101
-14
54
35
27
85
169
224
247
269
315
394
477
530
544
501
392
237
63
-87
-187
-264
-321
-326
-291
-266
-263
-256
-243
-244
-240
-203
-170
-159
-149
-156
-147
-73
-47
-104
-168
-332
-122
1244
2472
1378
-845
-1357
-514
-197
-312
-205
-150
-206
-61
137
106
-14
-1
74
95
110
185
298
413
505
548
547
535
516
470
384
275
173
88
9
-61
-115
-142
-149
-166
-195
-211
-221
-239
-258
-268
-273
-262
-232
-232
-291
-317
-363
-528
-136
1286
2033
493
-1505
-1642
-788
-468
-432
-279
-208
-205
-194
-232
-260
-216
-142
-76
-9
96
225
305
343
407
493
544
530
450
323
202
129
87
46
40
62
20
-64
-58
14
31
3
-23
-70
-103
-67
-59
-139
-178
-144
-139
-161
-283
-326
496
1810
1529
-520
-1737
-1186
-502
-372
-239
-104
-125
-107
-52
-44
-4
64
111
199
328
401
435
525
629
657
642
639
606
507
354
176
34
-2
7
-51
-127
-121
-88
-119
-182
-209
-210
-242
-321
-370
-344
-332
-358
-330
-310
-373
-425
-542
-569
294
1639
1400
-511
-1582
-1050
-494
-445
-332
-211
-247
-229
-134
-86
-61
-14
47
134
254
346
373
442
587
621
512
486
551
510
352
180
58
34
24
-57
-84
-17
-15
-69
-96
-179
-293
-311
-313
-356
-326
-273
-295
-267
-176
-177
-202
-171
38
891
1905
1365
-627
-1689
-1081
-354
-195
-118
-49
-75
-33
43
27
2
41
98
149
206
276
350
428
509
544
497
437
420
363
216
65
-23
-69
-106
-158
-230
-286
-300
-282
-254
-234
-236
-244
-253
-291
-321
-297
-280
-278
-252
-265
-290
-325
-529
-313
1102
2292
1230
-788
-1231
-533
-264
-298
-148
-47
-83
-83
-26
27
45
64
155
268
331
405
528
610
612
591
569
517
402
240
109
29
-56
-137
-155
-144
-155
-140
-89
-83
-121
-130
-127
-151
-163
-151
-156
-158
-146
-192
-255
-295
-486
-430
750
2118
1398
-883
-1868
-1127
-446
-318
-213
-124
-131
-116
-90
-78
-57
-45
-8
86
158
174
208
289
341
344
357
369
321
222
116
10
-88
-161
-210
-227
-207
-169
-141
-138
-146
-126
-86
-96
-143
-133
-105
-159
-203
-171
-171
-213
-321
-398
275
1596
1650
-111
-1363
-949
-329
-263
-181
-28
-50
-114
-135
-148
-117
-66
-50
-9
119
255
324
382
470
531
544
542
500
408
322
246
141
63
57
42
18
83
131
24
-77
-36
-18
-113
-172
-136
-116
-154
-167
-147
-164
-211
-336
-359
438
1713
1495
-450
-1628
-1081
-428
-384
-321
-187
-196
-175
-97
-97
-125
-98
-40
19
82
161
255
345
415
469
515
537
492
375
258
184
119
43
-22
-55
-51
-41
-74
-129
-149
-135
-126
-140
-166
-169
-157
-147
-106
-85
-137
-206
-317
-206
692
1604
807
-1101
-1795
-1134
-617
-470
-273
-176
-198
-130
-44
-21
14
67
109
151
215
315
416
454
452
485
551
571
503
402
311
181
36
-33
-58
-84
-59
-28
-83
-150
-167
-181
-205
-241
-305
-342
-327
-316
-319
-340
-379
-417
-547
-510
419
1645
1225
-644
-1529
-938
-429
-383
-256
-139
-150
-96
-5
28
66
129
177
217
293
382
412
428
519
569
503
461
461
390
311
257
142
31
-5
-65
-145
-114
6
77
2
-187
-316
-298
-252
-239
-213
-200
-193
-146
-130
-142
-130
-116
323
1444
1871
396
-1384
-1510
-697
-274
-137
-5
15
8
4
-44
-13
78
88
107
218
293
306
386
527
607
612
606
577
472
325
206
102
-17
-112
-141
-136
-146
-171
-201
-249
-281
-242
-203
-247
-296
-288
-301
-335
-316
-303
-308
-323
-501
-454
608
1771
1065
-855
-1522
-842
-387
-322
-147
-64
-151
-125
-14
-3
-33
10
77
87
107
228
397
506
539
540
506
390
241
151
63
-91
-207
-231
-248
-268
-240
-192
-175
-185
-187
-157
-132
-161
-205
-190
-170
-192
-158
-114
-178
-234
-320
-313
646
2112
1724
-511
-1632
-971
-435
-410
-197
-20
-77
-74
-25
-43
-29
29
46
68
166
252
210
116
101
163
250
332
352
294
216
142
51
-25
-47
-51
-59
-47
-41
-71
-84
-45
-12
-10
-13
-37
-81
-65
-25
-81
-119
-138
-353
-88
1372
2354
1004
-925
-1065
-331
-225
-309
-109
45
59
50
29
31
27
-26
-27
59
127
171
259
354
390
387
382
361
308
234
156
79
17
-13
-22
-27
-36
-42
-54
-89
-119
-121
-155
-209
-183
-142
-200
-264
-264
-272
-332
-496
-406
679
1939
1250
-928
-1810
-1033
-449
-413
-271
-160
-223
-225
-191
-203
-165
-79
-28
-1
38
82
127
197
279
309
280
263
269
231
138
39
-35
-84
-109
-124
-132
-104
-71
-78
-77
-50
-73
-120
-100
-101
-183
-184
-116
-180
-285
-349
-416
126
1447
1773
145
-1349
-1174
-545
-408
-305
-133
-106
-84
-12
29
83
153
197
237
283
330
386
439
469
465
441
425
396
314
209
116
21
-39
-41
-64
-117
-112
-74
-81
-108
-141
-193
-201
-154
-137
-151
-135
-110
-147
-215
-233
-325
-396
271
1456
1374
-273
-1339
-943
-409
-336
-251
-140
-146
-119
-53
-39
-27
19
83
154
210
266
344
407
448
510
572
604
609
552
428
304
206
98
11
4
47
45
-17
-58
-45
-51
-115
-175
-192
-223
-293
-306
-244
-229
-248
-274
-344
93
1333
1788
210
-1536
-1487
-643
-339
-261
-97
-58
-76
-49
-41
-36
-11
9
41
79
118
187
264
307
330
348
348
323
274
195
81
-52
-140
-147
-142
-168
-164
-136
-173
-255
-285
-270
-272
-285
-269
-229
-193
-179
-209
-242
-234
-347
-403
367
1582
1396
-286
-1263
-834
-353
-298
-183
-42
-56
-93
-87
-47
20
56
69
112
157
186
226
266
289
297
287
310
379
381
279
183
108
-14
-120
-143
-131
-131
-131
-117
-87
-58
-50
-54
-59
-54
-45
-67
-90
-94
-119
-111
-100
-123
407
1580
1714
12
-1462
-1259
-572
-352
-215
-72
-87
-94
-52
-55
-36
24
62
80
114
195
303
328
246
212
287
318
242
173
133
66
21
27
19
-29
-89
-113
-86
-85
-133
-133
-93
-110
-139
-124
-144
-181
-144
-121
-160
-187
-377
-514
358
1776
1582
-231
-1211
-773
-366
-316
-176
-112
-174
-126
-61
-77
-51
25
48
13
1
53
110
118
151
246
315
320
321
328
305
250
201
172
154
167
206
191
120
91
86
9
-84
-88
-62
-100
-140
-125
-164
-254
-264
-362
-379
563
1898
1422
-659
-1603
-920
-387
-364
-214
-95
-167
-169
-97
-75
-71
-66
-55
-10
49
100
171
254
300
315
331
320
264
206
157
79
-1
-37
-59
-103
-127
-93
-57
-85
-132
-123
-105
-155
-210
-203
-192
-205
-205
-182
-185
-305
-274
521
1524
1030
-779
-1645
-1010
-380
-290
-212
-113
-131
-115
-46
-23
-21
6
54
102
145
201
263
312
347
364
355
337
316
270
193
112
53
18
-5
-18
-4
20
0
-67
-94
-52
-42
-118
-174
-155
-134
-125
-145
-205
-202
-278
-444
222
1721
1825
-145
-1546
-1091
-448
-434
-376
-223
-222
-196
-114
-95
-82
-25
48
125
199
269
332
377
415
445
447
450
458
411
302
203
135
76
36
31
27
-15
-47
-31
-46
-116
-143
-137
-206
-295
-288
-208
-171
-215
-247
-295
-366
98
1167
1347
-55
-1256
-1042
-476
-345
-256
-116
-92
-65
2
26
57
112
149
186
234
269
313
372
402
401
412
438
443
409
335
237
151
94
51
16
-1
-5
-28
-85
-141
-153
-152
-187
-219
-220
-231
-230
-202
-216
-224
-239
-328
96
1340
1766
171
-1523
-1424
-591
-310
-238
-96
-98
-131
-82
-61
-58
-17
23
59
111
165
227
295
338
346
342
341
340
308
221
117
49
10
-23
-45
-49
-44
-56
-98
-140
-147
-151
-180
-195
-196
-216
-212
-196
-232
-239
-303
-542
-197
1148
1734
270
-1318
-1228
-543
-400
-371
-229
-215
-225
-173
-160
-146
-93
-64
-45
17
82
109
159
254
283
226
221
288
292
212
145
101
29
-36
-36
-11
-11
-22
-36
-62
-72
-61
-73
-97
-110
-125
-115
-100
-155
-189
-215
-364
-27
1221
1790
401
-1154
-1092
-419
-254
-204
-69
-75
-87
-23
-9
6
73
110
128
192
259
283
303
334
345
344
361
381
371
323
255
198
166
137
99
80
87
88
65
31
7
-5
-24
-37
-33
-59
-99
-89
-102
-153
-169
-285
-208
784
1805
994
-857
-1367
-659
-274
-260
-146
-93
-119
-66
-20
-20
12
63
102
138
173
215
273
330
358
352
352
376
359
263
152
73
10
-44
-87
-126
-152
-164
-199
-254
-263
-234
-241
-273
-288
-302
-298
-280
-298
-298
-365
-582
-235
1012
1458
-12
-1442
-1190
-452
-318
-305
-187
-190
-187
-122
-114
-106
-52
-17
22
86
122
143
194
230
214
204
237
254
216
149
80
18
-27
-64
-91
-93
-90
-108
-132
-150
-159
-153
-151
-158
-160
-171
-173
-152
-167
-188
-209
-350
-145
937
1651
504
-1163
-1298
-519
-191
-143
-17
5
-14
49
82
87
131
176
210
258
298
328
362
386
391
392
406
422
410
354
281
227
189
157
133
123
119
105
69
33
25
19
-12
-34
-43
-86
-105
-70
-92
-135
-197
-379
-37
1270
1858
373
-1243
-1098
-351
-230
-228
-74
-74
-123
-68
-24
-14
17
53
82
125
183
233
260
270
279
286
303
321
286
188
95
31
-33
-97
-141
-166
-186
-218
-266
-293
-272
-257
-280
-283
-270
-287
-287
-274
-292
-292
-390
-548
-23
1103
1044
-594
-1608
-1040
-353
-266
-205
-79
-94
-97
-19
28
40
61
97
132
162
211
274
320
353
364
346
342
345
296
204
122
65
34
11
-27
-53
-44
-57
-109
-130
-117
-127
-138
-128
-148
-155
-102
-116
-174
-159
-317
-452
367
1531
1024
-755
-1373
-638
-157
-160
-72
23
10
27
61
80
118
150
175
222
277
315
334
348
363
364
358
374
377
308
201
134
108
76
24
-21
-38
-48
-82
-122
-119
-100
-120
-146
-141
-151
-158
-121
-120
-146
-165
-367
-413
490
1505
788
-948
-1385
-618
-195
-178
-47
14
-51
-29
25
26
39
72
93
115
139
162
186
207
219
222
230
241
218
151
87
54
21
-23
-52
-75
-101
-112
-124
-158
-171
-149
-141
-154
-177
-198
-162
-128
-174
-174
-240
-570
-370
895
1528
222
-1169
-945
-250
-173
-196
-68
-73
-101
-46
-35
-32
20
53
79
128
157
181
227
238
205
212
269
284
228
159
105
56
11
-26
-53
-70
-92
-118
-113
-86
-72
-77
-83
-79
-70
-72
-65
-48
-59
-86
-237
-581
-408
771
1516
516
-796
-794
-224
-64
-66
-31
-51
-24
34
21
20
73
118
147
174
198
233
273
295
303
315
346
375
351
275
200
133
51
-21
-55
-73
-98
-112
-112
-119
-119
-106
-107
-105
-93
-118
-136
-109
-114
-144
-251
-547
-408
660
1232
42
-1290
-1072
-309
-142
-145
-25
-13
-35
7
32
59
103
116
141
203
242
253
278
313
346
376
390
377
329
245
161
104
50
-9
-46
-67
-92
-110
-128
-150
-139
-120
-152
-185
-172
-169
-170
-143
-151
-168
-216
-433
-347
502
939
-194
-1470
-1234
-379
-131
-138
-13
28
8
55
81
75
100
130
152
188
229
264
295
314
314
320
331
312
248
167
103
54
2
-53
-87
-99
-105
-114
-136
-153
-134
-118
-143
-159
-150
-152
-147
-147
-169
-159
-306
-630
-267
903
1072
-377
-1330
-786
-175
-155
-113
4
-11
-6
23
9
57
143
170
197
254
290
306
319
314
310
331
335
292
237
186
122
68
30
-25
-78
-83
-63
-67
-94
-113
-103
-87
-90
-87
-73
-79
-75
-52
-66
-86
-216
-543
-347
820
1442
339
-883
-722
-144
-69
-66
40
34
21
67
76
83
128
157
178
219
262
297
331
357
375
409
444
425
344
257
190
125
59
5
-29
-47
-61
-94
-140
-160
-145
-140
-157
-163
-163
-169
-151
-149
-181
-214
-427
-657
-32
1139
935
-709
-1478
-797
-230
-224
-162
-52
-54
-25
20
19
47
100
129
162
221
285
326
330
323
337
356
349
304
228
149
80
13
-45
-77
-95
-112
-118
-127
-168
-208
-201
-195
-218
-217
-199
-210
-199
-178
-202
-207
-297
-478
-28
1028
939
-714
-1708
-1057
-295
-201
-154
-27
-36
-48
-5
11
35
78
105
155
228
270
295
332
349
333
328
332
288
188
86
13
-43
-92
-123
-129
-118
-117
-150
-191
-189
-163
-176
-201
-194
-180
-160
-128
-149
-181
-247
-523
-493
549
1427
512
-1000
-1086
-343
-108
-134
-10
42
11
28
46
61
97
130
172
231
274
296
313
314
304
314
339
327
266
200
147
101
64
35
8
-5
1
5
-4
-6
6
17
19
24
39
29
4
25
47
11
-32
-228
-474
113
1418
1486
-96
-1083
-602
-89
-89
-30
68
27
26
70
73
95
135
158
202
259
300
345
383
396
414
442
443
404
332
231
129
63
22
-30
-85
-110
-109
-125
-174
-204
-190
-195
-237
-253
-245
-241
-217
-221
-257
-290
-497
-628
109
1081
496
-1139
-1577
-813
-383
-377
-257
-199
-267
-249
-219
-246
-228
-179
-164
-143
-97
-60
