# session 5
13
190
-173
-110
1091
1655
257
-1071
-718
-44
-8
13
141
121
109
144
134
166
239
265
282
321
356
399
446
466
473
484
465
424
403
361
222
51
-20
-20
-73
-154
-153
-103
-109
-169
-202
-180
-150
-161
-188
-181
-155
-159
-179
-169
-140
-144
-157
-130
-121
-155
-208
-379
-391
404
1384
958
-495
-1031
-493
-122
-107
-25
45
25
46
87
87
102
145
174
196
241
292
327
353
372
381
388
389
368
323
248
135
11
-74
-122
-169
-208
-220
-229
-241
-240
-234
-237
-248
-259
-262
-249
-238
-249
-258
-232
-216
-236
-223
-200
-236
-281
-387
-430
239
1321
1112
-489
-1334
-767
-212
-167
-91
16
5
29
80
82
107
161
192
225
279
330
369
409
447
467
460
447
446
412
299
136
-5
-100
-161
-189
-194
-204
-213
-204
-197
-203
-200
-202
-224
-235
-215
-200
-212
-216
-193
-188
-202
-180
-162
-187
-208
-312
-328
388
1391
998
-663
-1414
-769
-195
-138
-60
42
36
56
100
110
138
182
211
247
296
343
392
431
462
484
480
463
453
399
271
124
5
-91
-155
-183
-200
-206
-194
-180
-176
-161
-140
-150
-184
-193
-172
-164
-183
-184
-152
-146
-164
-138
-121
-154
-171
-285
-324
454
1588
1222
-516
-1314
-692
-172
-141
-46
53
23
41
92
95
111
151
179
213
259
306
352
393
422
441
443
424
396
338
219
65
-60
-143
-205
-250
-266
-259
-248
-247
-247
-230
-212
-222
-247
-246
-225
-221
-230
-222
-212
-237
-244
-182
-163
-223
-254
-372
-380
495
1678
1229
-561
-1286
-630
-169
-176
-89
-11
-43
-5
52
45
66
123
157
187
229
276
336
398
426
432
436
422
384
331
240
109
-12
-91
-138
-166
-185
-197
-195
-186
-182
-173
-170
-186
-194
-174
-157
-158
-158
-147
-142
-165
-174
-135
-130
-168
-184
-328
-320
606
1684
1048
-685
-1188
-491
-124
-148
-37
31
-6
27
65
64
98
143
166
204
258
310
364
412
442
458
468
473
452
372
239
100
-20
-116
-175
-199
-213
-223
-221
-224
-230
-225
-219
-233
-243
-230
-218
-228
-239
-221
-202
-209
-189
-153
-183
-207
-266
-479
-183
1083
1699
327
-1213
-1065
-298
-133
-122
22
32
6
58
79
85
126
160
190
235
286
342
395
424
445
462
458
438
391
289
146
11
-92
-163
-206
-230
-242
-241
-234
-235
-234
-215
-203
-227
-248
-228
-205
-223
-242
-212
-186
-201
-185
-153
-182
-200
-290
-477
-2
1266
1489
-119
-1365
-924
-210
-131
-97
39
33
27
85
94
102
150
183
214
271
324
364
413
464
485
475
463
449
391
270
126
0
-98
-158
-184
-200
-214
-213
-203
-200
-201
-190
-182
-193
-204
-192
-179
-185
-190
-171
-157
-170
-154
-127
-165
-193
-251
-457
-141
1114
1683
315
-1152
-976
-251
-115
-115
6
9
-6
43
55
65
111
145
181
237
285
334
400
443
447
448
454
442
391
297
170
45
-45
-105
-147
-170
-176
-180
-186
-187
-193
-198
-189
-184
-200
-211
-195
-180
-186
-184
-166
-171
-190
-163
-148
-186
-218
-377
-473
294
1464
1141
-533
-1246
-600
-124
-140
-75
11
-13
6
48
53
80
128
164
202
248
296
347
390
422
442
448
448
439
388
280
152
45
-34
-91
-124
-142
-157
-172
-182
-185
-186
-182
-179
-193
-216
-213
-191
-191
-207
-201
-180
-194
-211
-174
-165
-199
-222
-400
-481
358
1494
1016
-688
-1274
-561
-114
-125
-21
67
29
52
104
109
131
175
209
247
293
341
387
427
463
480
467
454
449
389
250
103
-4
-86
-148
-182
-202
-220
-229
-229
-224
-220
-221
-215
-214
-231
-236
-212
-210
-237
-233
-195
-196
-212
-178
-162
-192
-202
-331
-400
325
1332
842
-844
-1440
-672
-128
-115
-31
63
40
60
103
103
130
179
209
239
284
332
376
414
445
461
456
445
425
359
234
83
-39
-115
-156
-182
-202
-214
-210
-196
-190
-187
-175
-157
-161
-183
-186
-165
-158
-171
-181
-167
-144
-152
-160
-122
-117
-153
-191
-383
-376
573
1563
826
-814
-1136
-386
-48
-75
31
88
55
93
131
133
165
202
225
258
297
341
396
439
458
463
458
441
402
326
208
72
-45
-120
-160
-187
-207
-209
-195
-184
-183
-179
-171
-164
-155
-153
-168
-174
-159
-148
-161
-176
-164
-150
-168
-164
-134
-159
-178
-233
-438
-161
1012
1538
217
-1177
-978
-266
-136
-130
3
9
-18
32
60
71
112
150
178
220
278
347
409
452
478
488
485
478
445
349
206
68
-33
-97
-144
-181
-193
-185
-185
-200
-204
-196
-193
-196
-195
-199
-221
-239
-228
-211
-214
-214
-192
-183
-187
-155
-132
-159
-180
-301
-379
314
1439
1183
-499
-1342
-718
-147
-127
-67
48
46
61
98
101
123
165
202
252
306
351
410
467
494
506
514
502
460
378
249
95
-42
-145
-231
-292
-293
-267
-279
-294
-268
-256
-259
-221
-189
-218
-252
-268
-286
-270
-232
-258
-298
-230
-138
-170
-270
-338
-352
-311
-414
-695
-328
925
1310
-86
-1272
-883
-218
-171
-155
-29
-40
22
211
255
160
136
217
271
257
320
505
617
601
640
751
735
619
584
482
121
-176
-86
112
126
67
-32
-202
-200
55
223
154
88
108
92
28
-48
-83
-6
24
-134
-221
-91
-10
-58
-56
-28
-68
-138
-258
-350
18
885
1160
90
-1156
-1227
-618
-280
-193
-242
-455
-522
-375
-300
-268
-139
-46
-48
0
179
372
373
276
398
632
647
539
489
398
267
216
187
85
-16
-32
-48
-119
-129
-60
-21
-7
0
-59
-131
-186
-292
-330
-190
-83
-146
-222
-192
-51
76
-30
-220
-160
22
37
-42
187
988
1487
429
-1303
-1649
-770
-229
-195
-80
50
62
120
214
237
197
100
2
38
145
173
207
336
445
471
449
371
247
76
-140
-299
-374
-483
-613
-642
-586
-519
-463
-402
-301
-139
4
12
-72
-76
-28
-90
-159
-78
-21
-94
-110
-75
-144
-182
-90
-70
-207
-284
147
1223
1770
565
-1197
-1539
-830
-401
-268
-81
17
15
67
187
320
386
378
416
567
757
863
861
877
979
1050
986
852
760
589
153
-233
-119
234
326
150
-141
-372
-326
-172
-198
-288
-289
-268
-241
-227
-305
-403
-422
-418
-441
-450
-441
-506
-671
-769
-697
-596
-627
-707
-395
600
1391
764
-667
-1255
-825
-302
-96
-96
-62
89
155
160
275
269
78
117
411
555
507
508
606
699
723
659
546
442
297
46
-180
-246
-246
-265
-236
-194
-224
-221
-121
-68
-109
-101
-15
18
-39
-90
-100
-131
-161
-132
-96
-114
-115
-59
-42
-137
-230
-259
-330
-110
891
1704
781
-1026
-1541
-808
-300
-226
-117
-71
-160
-153
-44
-17
-72
-100
-98
-102
-65
61
225
374
532
671
718
740
793
752
604
458
220
-67
-79
37
-172
-429
-260
-26
-117
-182
-20
2
-163
-164
-36
-41
-73
-27
-83
-205
-228
-285
-386
-290
-85
-14
-16
43
440
1367
1758
413
-1393
-1640
-859
-462
-314
-107
-130
-200
-70
13
26
120
150
102
164
240
212
220
276
266
263
298
237
117
82
47
-140
-342
-334
-273
-437
-641
-574
-408
-390
-407
-370
-347
-298
-215
-195
-181
-76
37
85
103
99
65
27
28
80
85
-2
-120
-217
204
1477
2122
705
-1077
-1047
-105
196
140
202
202
167
175
116
64
95
99
132
318
483
470
470
631
768
697
552
528
545
406
172
55
38
-41
-149
-169
-188
-286
-347
-305
-236
-182
-184
-252
-280
-271
-367
-510
-517
-422
-371
-357
-315
-306
-395
-454
-413
-469
-420
358
1286
756
-951
-1732
-1142
-540
-370
-181
-12
30
174
403
424
248
211
366
362
216
366
702
668
355
339
623
735
584
434
332
166
-17
-156
-278
-347
-351
-393
-456
-392
-232
-138
-138
-168
-175
-120
-64
-98
-154
-165
-196
-236
-225
-238
-269
-204
-118
-141
-291
-439
119
1625
2229
545
-1342
-1311
-530
-368
-296
-31
7
-94
-108
-126
-140
-92
-45
-13
38
119
238
330
313
270
283
298
321
377
369
302
310
322
209
82
49
64
106
111
11
-18
121
163
7
-112
-121
-118
-87
0
105
156
14
-249
-333
-239
-202
-229
-273
-107
705
1467
678
-1078
-1648
-883
-243
-50
102
147
90
115
147
118
107
148
283
429
370
286
532
796
644
473
699
902
699
336
36
-254
-485
-539
-488
-480
-526
-544
-528
-532
-558
-570
-575
-552
-466
-413
-459
-473
-423
-433
-452
-392
-320
-219
-97
-60
-44
-114
-272
373
1889
2068
150
-1193
-673
-110
-201
-74
40
-234
-216
204
361
281
342
380
249
197
321
450
472
426
439
469
362
273
380
415
200
-18
-123
-204
-249
-266
-282
-245
-196
-218
-233
-179
-134
-156
-186
-153
-139
-233
-250
-66
23
-124
-239
-257
-329
-467
-649
-398
887
1989
1002
-994
-1506
-814
-478
-433
-268
-235
-266
-188
-186
-225
-109
32
81
176
350
505
605
663
786
995
1032
842
720
661
473
296
188
-8
-181
-185
-126
-57
-41
-158
-172
27
102
-8
-17
8
-83
-139
-147
-244
-354
-351
-262
-211
-289
-342
-247
-105
384
1359
1522
-31
-1645
-1630
-827
-472
-363
-155
-83
-163
-117
9
-11
-6
219
383
324
315
440
520
495
421
390
454
504
447
322
150
-54
-226
-355
-473
-548
-550
-512
-477
-466
-473
-459
-410
-357
-293
-204
-144
-128
-73
60
141
55
-41
58
200
153
-76
-357
-54
1325
2210
847
-1095
-1203
-440
-432
-528
-55
370
410
329
266
229
235
250
207
133
167
291
314
291
415
554
511
397
324
220
65
-78
-180
-245
-296
-337
-341
-309
-254
-194
-174
-191
-206
-196
-163
-163
-235
-294
-266
-218
-237
-320
-375
-363
-356
-398
-521
-529
195
1383
1318
-403
-1699
-1376
-609
-364
-307
-131
-10
-34
-45
65
177
226
335
499
563
573
640
678
699
847
977
908
811
737
499
222
127
87
-17
-80
-87
-137
-223
-252
-188
-125
-213
-398
-445
-357
-342
-337
-230
-221
-329
-290
-158
-108
-87
-113
-156
-127
-210
70
1492
2497
973
-1267
-1348
-305
-100
-177
57
69
31
349
523
268
56
34
-30
-46
103
239
302
407
530
582
559
467
288
51
-176
-347
-449
-497
-541
-589
-587
-545
-521
-490
-417
-371
-378
-349
-290
-293
-311
-283
-273
-289
-301
-308
-233
-167
-298
-434
-504
-515
348
1895
1809
-226
-1363
-782
-336
-375
-148
31
-68
-80
-62
-125
-56
79
81
106
304
527
643
689
728
767
771
738
668
512
326
229
141
6
-26
21
-65
-217
-233
-147
-90
-62
-44
-85
-162
-143
-68
-157
-379
-474
-424
-374
-310
-262
-347
-463
-530
-466
273
1462
1364
-341
-1429
-954
-396
-423
-379
-169
-72
-4
120
236
306
348
402
443
479
580
708
809
904
916
863
908
909
658
418
363
214
-85
-247
-244
-256
-283
-267
-293
-403
-483
-483
-461
-390
-265
-207
-244
-264
-221
-179
-189
-197
-165
-177
-230
-312
-523
-279
1137
2260
1031
-1140
-1523
-631
-262
-281
-125
-48
-72
-4
50
84
163
145
27
23
147
258
353
471
558
594
616
567
373
141
-7
-137
-303
-404
-412
-455
-557
-612
-606
-599
-592
-575
-564
-522
-422
-327
-303
-310
-257
-179
-174
-181
-161
-209
-280
-392
-570
-36
1500
2081
457
-1197
-1055
-357
-216
-138
30
21
-3
42
19
-46
-70
-37
65
188
275
386
552
703
813
878
856
773
688
564
393
236
100
-5
-66
-130
-164
-101
-36
-38
-29
4
20
33
11
-64
-105
-98
-132
-202
-202
-167
-227
-279
-245
-375
-298
770
1750
785
-1050
-1406
-682
-384
-364
-177
-97
-117
-39
10
-19
15
117
205
278
370
492
624
733
811
874
942
991
955
803
590
382
198
44
-75
-143
-154
-167
-217
-214
-136
-126
-231
-286
-233
-238
-306
-363
-669
-1256
-1456
-1060
-785
-846
-792
-752
-804
-49
1343
1312
-478
-1616
-1136
-543
-506
-428
-269
-257
-218
-100
-40
-7
54
95
114
192
353
512
598
662
718
715
705
731
683
525
368
230
57
-103
-167
-130
-81
-85
-82
-47
-75
-154
-185
-186
-199
-208
-236
-272
-253
-229
-242
-204
-149
-179
-223
-287
-179
753
1978
1612
-205
-1114
-590
-117
-106
-81
-47
-41
10
-22
-96
-46
29
37
66
111
131
192
298
365
408
472
502
469
423
353
212
51
-42
-87
-121
-116
-103
-152
-212
-194
-141
-155
-209
-209
-174
-173
-174
-128
-109
-160
-174
-126
-99
-67
-83
-74
610
1799
1646
-296
-1638
-1166
-408
-273
-184
-20
-21
-42
4
37
79
153
219
242
229
255
356
446
493
532
536
515
521
469
296
97
-104
-330
-455
-430
-408
-454
-486
-465
-437
-459
-509
-491
-427
-413
-421
-403
-401
-397
-353
-310
-281
-243
-211
-250
-363
-102
932
1721
866
-746
-1160
-524
-122
-75
-12
30
56
125
150
124
77
42
141
325
408
433
503
540
538
605
692
660
542
453
365
211
55
-31
-91
-132
-101
-70
-110
-114
-61
-88
-168
-181
-187
-234
-239
-211
-235
-270
-237
-215
-274
-304
-386
-526
55
1448
1757
135
-1283
-1080
-473
-359
-292
-149
-181
-248
-166
-62
-58
-42
77
165
155
174
262
329
378
445
501
531
544
494
349
162
1
-95
-124
-150
-209
-224
-177
-151
-141
-99
-70
-102
-173
-235
-234
-183
-158
-179
-222
-290
-346
-283
-216
-343
-117
1022
1765
583
-1157
-1376
-682
-411
-352
-167
-98
-103
-31
23
50
108
155
177
219
293
376
439
485
549
621
661
683
660
510
279
78
