# session 7
-17
16
-45
-94
79
369
475
429
407
347
203
87
28
-24
-68
-97
-120
-131
-134
-135
-131
-130
-145
-154
-143
-142
-158
-148
-129
-135
-119
-89
-100
-98
-192
-469
-218
887
1265
-70
-1285
-941
-205
-65
-43
74
70
60
117
134
144
193
231
255
293
332
359
382
400
405
417
439
424
337
213
110
35
-30
-81
-115
-140
-166
-185
-183
-176
-194
-229
-241
-225
-229
-251
-240
-225
-254
-235
-167
-201
-268
-306
-416
-128
862
1207
-55
-1275
-1012
-296
-120
-83
39
54
54
113
139
156
207
253
296
345
382
409
431
435
434
443
448
409
309
178
66
-6
-57
-98
-125
-143
-159
-165
-158
-152
-165
-188
-195
-187
-197
-218
-212
-196
-204
-193
-162
-173
-190
-285
-491
-147
962
1262
-112
-1319
-1016
-342
-203
-175
-83
-81
-60
-3
2
25
93
135
172
241
290
295
303
326
333
337
360
360
297
201
118
53
3
-28
-43
-51
-57
-58
-50
-41
-49
-62
-58
-52
-75
-110
-101
-68
-80
-95
-70
-82
-106
-156
-372
-227
831
1532
510
-871
-882
-282
-145
-139
-13
4
-12
50
91
107
139
166
203
259
293
311
344
369
366
380
424
418
307
154
40
-35
-91
-122
-139
-166
-189
-185
-165
-159
-180
-214
-224
-207
-208
-233
-228
-204
-208
-204
-187
-207
-218
-310
-531
-186
970
1290
-179
-1495
-1158
-381
-207
-165
-60
-108
-127
-7
78
91
111
147
179
212
255
295
318
334
346
342
330
296
198
62
-37
-85
-126
-174
-209
-214
-199
-190
-194
-187
-176
-193
-222
-227
-215
-203
-183
-171
-183
-179
-145
-132
-136
-176
-311
-112
840
1463
451
-1070
-1239
-501
-134
-76
41
82
70
130
176
186
230
288
338
405
469
516
556
575
561
544
529
474
363
234
117
22
-44
-86
-113
-124
-126
-129
-124
-114
-127
-163
-184
-188
-200
-218
-218
-204
-206
-195
-162
-174
-194
-201
-273
18
987
1344
-46
-1577
-1414
-476
-138
-115
7
47
36
87
119
140
199
250
285
336
394
456
516
536
511
484
462
407
301
164
38
-45
-83
-115
-158
-199
-229
-237
-212
-188
-205
-234
-230
-206
-203
-218
-212
-199
-207
-191
-160
-184
-179
-207
-443
-236
974
1666
388
-1196
-1132
-346
-121
-91
49
49
24
102
131
120
169
225
259
320
392
426
440
462
460
432
417
361
209
53
-31
-97
-172
-214
-227
-241
-250
-245
-239
-240
-248
-268
-287
-268
-224
-228
-265
-251
-210
-201
-206
-218
-197
-199
-467
-534
499
1648
917
-880
-1327
-570
-177
-183
-72
-5
-38
-4
37
43
80
133
171
212
264
313
348
359
356
354
351
326
252
127
-3
-94
-151
-188
-214
-244
-261
-235
-215
-243
-245
-188
-164
-189
-184
-167
-201
-229
-205
-196
-203
-163
-152
-195
-220
-345
-359
375
1213
566
-1008
-1431
-685
-187
-136
-68
0
32
96
145
187
266
347
410
474
549
633
690
698
693
700
700
676
605
473
335
243
165
83
27
-3
-25
-40
-51
-52
-42
-57
-108
-144
-145
-154
-183
-198
-210
-239
-213
-136
-148
-207
-236
-361
-206
690
1225
173
-1181
-1115
-336
-70
-82
26
87
84
123
158
176
209
249
289
321
339
360
388
397
391
404
424
400
307
175
57
-21
-76
-123
-156
-181
-215
-247
-259
-247
-235
-254
-295
-309
-296
-304
-336
-335
-307
-307
-305
-270
-269
-291
-334
-485
-320
563
1043
-15
-1294
-1177
-442
-236
-226
-62
4
-20
25
74
89
122
169
212
262
314
358
396
420
427
430
431
388
282
159
66
-1
-60
-100
-113
-122
-141
-149
-139
-127
-123
-141
-178
-193
-165
-151
-180
-186
-157
-143
-128
-105
-117
-120
-176
-335
-64
858
1123
-96
-1245
-998
-303
-112
-64
68
88
77
130
157
167
212
256
288
332
379
423
459
469
453
434
414
369
275
143
23
-52
-90
-110
-120
-130
-136
-132
-125
-119
-113
-126
-162
-181
-168
-165
-185
-186
-167
-162
-147
-121
-146
-170
-200
-325
-95
860
1338
183
-1235
-1217
-478
-193
-138
-6
29
25
84
111
121
175
222
258
323
399
459
503
516
498
476
448
388
286
161
42
-44
-94
-124
-142
-145
-140
-139
-137
-123
-105
-113
-149
-172
-166
-179
-213
-209
-185
-194
-186
-160
-176
-177
-254
-426
64
1344
1569
-89
-1431
-1033
-272
-143
-116
-4
-11
-20
13
15
65
148
163
197
308
387
420
466
467
407
379
382
332
212
69
-40
-99
-145
-195
-225
-232
-228
-220
-225
-240
-228
-204
-220
-247
-225
-199
-219
-228
-199
-191
-193
-155
-141
-173
-214
-375
-355
495
1428
836
-665
-1078
-478
-155
-151
-59
-14
-38
4
40
51
103
156
187
247
316
348
373
413
429
420
428
431
360
225
96
11
-38
-71
-108
-146
-166
-174
-192
-208
-196
-183
-199
-223
-217
-198
-203
-216
-199
-178
-180
-160
-134
-151
-160
-244
-357
181
1291
1273
-302
-1338
-855
-230
-159
-92
43
35
33
96
122
140
192
235
262
309
377
434
457
454
447
437
406
334
218
86
-25
-94
-132
-159
-174
-176
-173
-170
-171
-171
-161
-163
-192
-208
-193
-196
-219
-208
-184
-190
-183
-155
-164
-171
-219
-341
1
994
1245
-106
-1375
-1137
-399
-179
-115
18
37
36
92
110
118
164
213
264
326
378
424
466
481
467
447
426
372
266
141
43
-13
-46
-69
-82
-83
-74
-59
-50
-49
-48
-57
-89
-120
-123
-129
-154
-160
-153
-169
-164
-127
-155
-194
-210
-410
-398
605
1626
868
-803
-1169
-470
-145
-160
-57
-12
-41
6
42
40
80
136
177
233
290
338
389
417
400
379
375
336
231
102
-5
-87
-147
-178
-193
-207
-214
-215
-221
-224
-215
-208
-227
-262
-275
-254
-242
-250
-239
-226
-245
-250
-240
-267
-276
-363
-576
-166
1141
1595
129
-1293
-1066
-348
-195
-155
-20
-19
-35
20
44
63
114
163
218
281
326
369
414
433
435
445
444
403
318
208
110
44
-4
-44
-63
-67
-74
-86
-93
-96
-90
-75
-77
-101
-118
-115
-111
-123
-126
-108
-103
-112
-85
-76
-120
-141
-224
-211
519
1451
947
-683
-1322
-689
-181
-110
-21
42
17
49
103
121
148
195
249
308
360
412
474
515
509
486
474
446
356
207
59
-43
-96
-130
-164
-187
-188
-187
-200
-208
-200
-195
-202
-214
-226
-230
-227
-234
-239
-219
-200
-187
-151
-144
-172
-180
-310
-411
237
1245
901
-700
-1394
-722
-174
-160
-86
38
31
29
65
81
110
151
188
242
295
327
370
417
419
395
388
360
256
114
-2
-88
-144
-159
-158
-171
-190
-202
-209
-209
-205
-192
-172
-172
-194
-192
-161
-152
-171
-165
-140
-136
-117
-83
-103
-118
-184
-408
-138
1037
1551
197
-1224
-1008
-261
-123
-116
26
34
1
45
70
82
126
167
216
292
361
408
446
477
483
464
433
372
253
114
4
-94
-180
-199
-165
-169
-204
-194
-165
-175
-184
-159
-144
-156
-167
-160
-139
-135
-150
-133
-105
-111
-101
-78
-98
-124
-283
-474
151
1439
1448
-170
-1150
-663
-162
-169
-106
5
-21
-18
26
33
61
113
149
191
247
300
358
408
427
428
432
423
367
261
133
22
-47
-80
-106
-130
-144
-155
-164
-165
-169
-175
-167
-154
-161
-175
-168
-159
-178
-197
-175
-155
-159
-140
-129
-149
-165
-336
-486
241
1487
1282
-431
-1291
-690
-178
-191
-122
-10
-28
-13
36
51
92
145
173
226
311
376
417
449
457
447
438
416
341
217
89
-8
-74
-114
-139
-159
-179
-189
-187
-189
-189
-169
-147
-157
-188
-206
-201
-191
-197
-197
-178
-168
-160
-134
-136
-147
-174
-332
-236
630
1283
322
-1209
-1351
-534
-156
-134
-3
62
36
88
140
137
159
209
264
332
386
427
478
509
498
480
443
351
245
152
38
-84
-158
-187
-203
-212
-205
-193
-196
-203
-187
-164
-165
-189
-207
-196
-176
-192
-220
-201
-166
-162
-146
-121
-131
-137
-224
-348
107
1100
1110
-314
-1308
-886
-242
-108
-38
83
94
108
163
183
210
259
295
340
403
466
525
569
580
560
522
457
352
222
111
23
-60
-126
-154
-158
-161
-162
-157
-151
-150
-148
-146
-154
-185
-211
-205
-193
-213
-235
-217
-200
-202
-182
-178
-203
-198
-322
-449
219
1378
1163
-522
-1403
-805
-222
-162
-71
29
-14
-4
60
68
82
137
186
239
317
391
439
476
500
487
450
406
315
170
36
-57
-132
-183
-205
-216
-218
-212
-214
-220
-206
-183
-180
-195
-212
-226
-232
-218
-197
-197
-206
-196
-190
-196
-156
-119
-158
-195
-270
-294
349
1367
1101
-506
-1340
-787
-228
-148
-62
28
14
34
78
93
130
178
216
277
354
415
460
492
513
521
503
455
382
276
150
36
-48
-96
-108
-113
-129
-133
-120
-121
-132
-126
-112
-104
-110
-131
-142
-136
-138
-156
-163
-140
-110
-117
-117
-76
-88
-126
-131
-201
30
960
1450
317
-1090
-1078
-372
-117
-75
37
54
45
103
130
138
186
232
268
331
407
467
512
540
542
531
506
437
311
158
9
-104
-168
-210
-249
-272
-283
-298
-313
-323
-333
-336
-332
-322
-309
-307
-315
-308
-293
-297
-299
-265
-233
-228
-209
-200
-217
-215
-309
-356
330
1351
973
-710
-1456
-765
-177
-147
-74
47
52
77
127
138
165
213
253
307
373
436
499
550
562
544
516
469
379
252
119
9
-73
-132
-164
-178
-185
-191
-194
-195
-195
-195
-200
-209
-209
-207
-221
-233
-221
-207
-222
-235
-210
-186
-189
-172
-158
-174
-175
-302
-440
213
1435
1338
-334
-1305
-758
-177
-151
-97
20
11
25
85
106
135
190
234
281
347
428
518
591
620
598
544
473
372
237
103
-2
-78
-127
-146
-148
-142
-134
-132
-134
-133
-130
-125
-115
-102
-92
-89
-94
-96
-82
-74
-98
-104
-65
-57
-79
-64
-74
-126
-186
-341
-161
901
1679
653
-957
-1135
-440
-179
-167
-51
-27
-53
-6
25
39
91
147
206
275
320
354
420
483
493
462
426
371
274
149
25
-79
-150
-192
-215
-220
-218
-222
-224
-217
-208
-209
-220
-222
-211
-212
-223
-225
-224
-219
-200
-200
-224
-212
-176
-169
-152
-136
-168
-177
-243
-319
288
1427
1326
-324
-1327
-817
-230
-185
-127
-15
-37
-44
1
24
59
110
151
207
279
347
420
482
496
482
476
464
408
302
168
43
-38
-76
-104
-133
-155
-174
-192
-197
-200
-211
-213
-217
-233
-232
-217
-229
-250
-250
-254
-272
-273
-244
-228
-243
-216
-162
-201
-249
-258
-353
-27
1090
1528
142
-1299
-1104
-336
-130
-84
53
74
75
135
172
214
264
287
330
415
491
549
594
610
597
576
550
498
398
264
140
38
-43
-91
-106
-113
-127
-138
-139
-136
-140
-150
-155
-155
-157
-154
-151
-163
-179
-180
-188
-215
-222
-191
-171
-181
-155
-123
-159
-178
-255
-412
125
1440
1597
-150
-1448
-963
-222
-141
-96
44
39
45
114
134
155
212
260
311
380
450
520
577
600
593
565
508
414
282
129
-7
-105
-171
-216
-243
-255
-256
-251
-257
-272
-275
-266
-264
-268
-262
-258
-269
-279
-268
-262
-290
-304
-260
-228
-239
-215
-195
-223
-234
-364
-475
220
1333
958
-832
-1630
-891
-251
-192
-100
13
-1
28
89
101
136
200
248
304
380
451
519
578
596
581
557
509
412
292
176
59
-49
-115
-133
-135
-151
-164
-149
-128
-130
-137
-132
-123
-113
-104
-113
-131
-134
-132
-148
-162
-148
-120
-116
-120
-88
-83
-125
-130
-247
-353
377
1581
1260
-606
-1516
-814
-181
-134
-34
89
52
59
124
134
147
201
256
312
377
445
513
571
595
573
537
500
405
229
67
-35
-132
-206
-199
-182
-220
-252
-249
-251
-245
-222
-228
-242
-212
-186
-213
-240
-235
-229
-228
-234
-242
-220
-192
-177
-158
-183
-211
-200
-330
-222
848
1762
670
-1243
-1494
-554
-130
-131
-12
41
24
72
97
127
211
243
257
352
446
500
585
641
612
613
653
586
420
267
123
-21
-107
-142
-174
-194
-195
-202
-214
-216
-225
-245
-258
-252
-224
-202
-218
-245
-234
-214
-235
-275
-271
-238
-238
-233
-186
-200
-245
-244
-346
-165
924
1710
466
-1452
-1616
-630
-202
-188
-44
25
-1
52
116
150
208
282
346
395
450
544
642
698
707
672
615
554
435
248
82
-22
-104
-167
-192
-197
-201
-214
-226
-212
-191
-202
-222
-202
-158
-146
-171
-185
-163
-152
-181
-196
-166
-146
-157
-142
-125
-140
-146
-237
-239
489
1453
943
-808
-1524
-795
-189
-126
-39
56
40
67
108
101
133
204
257
315
388
452
520
581
605
608
592
520
402
274
126
-22
-114
-161
-204
-224
-213
-204
-214
-222
-210
-187
-178
-187
-176
-145
-146
-179
-188
-174
-180
-201
-201
-177
-169
-172
-152
-160
-207
-266
-440
-393
530
1490
806
-828
-1267
-595
-229
-235
-132
-59
-87
-62
-12
3
21
66
126
177
223
297
390
444
430
389
382
355
217
52
-39
-119
-222
-278
-284
-289
-284
-260
-242
-231
-216
-194
-174
-174
-177
-150
-122
-137
-150
-130
-112
-110
-101
-73
-48
-55
-51
-1
8
-30
-49
-115
82
957
1525
546
-876
-1002
-339
-46
8
131
166
150
194
229
252
308
364
410
475
556
631
687
723
736
725
692
627
509
352
204
79
-30
-99
-122
-146
-173
-174
-186
-233
-231
-158
-127
-165
-184
-176
-198
-229
-233
-237
-258
-274
-269
-248
-248
-266
-245
-238
-285
-305
-383
-338
493
1494
856
-986
-1650
-923
-407
-363
-245
-167
-214
-192
-142
-145
-123
-69
-38
