# session 22
142
137
145
63
-59
-201
-104
938
2207
1571
-618
-1551
-765
-141
-119
-22
81
40
61
116
109
118
153
169
190
224
257
299
353
421
510
616
724
826
905
941
923
829
661
462
266
74
-94
-212
-286
-336
-363
-368
-371
-379
-380
-373
-365
-361
-355
-343
-329
-317
-311
-309
-304
-297
-296
-295
-290
-286
-284
-277
-272
-274
-274
-267
-264
-264
-256
-248
-250
-242
-221
-212
-216
-202
-174
-172
-182
-158
-123
-128
-154
-165
-167
-161
-159
-164
-141
-127
-161
-185
-285
-305
509
1787
1497
-516
-1662
-1016
-286
-199
-113
24
5
15
78
85
98
142
166
185
223
264
310
371
446
535
641
758
867
945
985
976
892
728
526
323
132
-27
-138
-208
-251
-270
-279
-284
-281
-272
-270
-266
-251
-236
-229
-219
-207
-200
-193
-187
-185
-183
-176
-170
-169
-169
-167
-166
-169
-170
-168
-166
-162
-158
-156
-154
-149
-138
-123
-119
-125
-114
-86
-82
-89
-62
-36
-59
-87
-94
-98
-95
-93
-99
-81
-75
-108
-141
-270
-225
780
2092
1573
-571
-1589
-858
-196
-154
-72
39
12
31
83
79
94
137
155
174
213
250
287
342
414
502
603
712
815
891
932
927
851
695
498
304
126
-31
-153
-231
-272
-291
-306
-319
-322
-316
-307
-295
-287
-281
-270
-255
-248
-248
-244
-234
-229
-228
-223
-218
-219
-217
-211
-210
-211
-208
-201
-196
-196
-199
-200
-196
-188
-177
-161
-153
-157
-146
-119
-118
-132
-109
-75
-85
-112
-120
-121
-116
-113
-120
-102
-92
-130
-149
-229
-217
617
1850
1474
-555
-1634
-953
-251
-184
-92
44
21
30
92
99
114
157
175
191
230
269
307
357
424
508
610
719
819
895
940
942
876
730
533
331
145
-14
-131
-202
-243
-269
-286
-295
-296
-296
-294
-281
-265
-260
-254
-239
-226
-222
-217
-207
-198
-197
-202
-202
-197
-199
-205
-204
-199
-199
-201
-200
-196
-193
-193
-184
-165
-161
-169
-152
-126
-133
-132
-93
-78
-110
-132
-128
-121
-122
-129
-117
-100
-121
-130
-189
-314
154
1439
1865
290
-1379
-1286
-455
-181
-134
12
41
20
67
91
95
129
157
172
202
236
269
313
374
449
534
632
736
823
878
899
863
743
562
370
189
25
-104
-184
-229
-258
-275
-282
-285
-285
-279
-272
-266
-256
-246
-236
-228
-220
-212
-206
-203
-201
-196
-194
-194
-191
-189
-190
-189
-183
-183
-186
-175
-156
-154
-158
-132
-103
-109
-116
-93
-86
-112
-134
-136
-128
-125
-134
-124
-106
-131
-134
-166
-319
19
1273
1912
494
-1337
-1430
-543
-172
-136
-8
28
3
52
84
82
111
140
154
185
219
250
297
356
420
502
603
707
791
850
883
864
765
595
402
217
50
-89
-181
-235
-267
-281
-282
-283
-289
-286
-275
-266
-262
-256
-246
-234
-223
-216
-212
-208
-206
-199
-190
-190
-195
-193
-187
-185
-184
-184
-184
-178
-172
-173
-164
-148
-150
-154
-126
-102
-112
-110
-81
-80
-108
-122
-124
-125
-125
-130
-116
-101
-128
-137
-192
-318
174
1493
1861
172
-1488
-1278
-395
-150
-126
4
20
3
52
69
72
106
123
134
181
242
281
313
363
432
511
607
723
825
874
881
859
771
596
389
209
50
-85
-167
-217
-260
-279
-274
-278
-276
-252
-240
-247
-234
-214
-214
-213
-197
-194
-198
-186
-172
-178
-186
-178
-167
-170
-179
-171
-155
-160
-177
-173
-156
-154
-159
-143
-117
-121
-146
-139
-100
-93
-108
-78
-37
-54
-88
-99
-111
-118
-108
-97
-76
-75
-100
-106
-203
-174
716
1885
1339
-694
-1602
-853
-210
-170
-76
46
21
24
63
72
97
121
129
158
190
216
268
316
349
427
537
611
660
722
777
783
714
587
437
271
102
-34
-135
-211
-247
-269
-309
-321
-275
-250
-277
-287
-254
-228
-228
-228
-212
-189
-182
-194
-200
-186
-169
-166
-183
-196
-182
-169
-185
-187
-156
-154
-191
-193
-151
-138
-164
-157
-110
-82
-86
-86
-70
-61
-73
-87
-95
-100
-92
-82
-83
-60
-56
-109
-155
-259
-177
803
1973
1301
-780
-1577
-762
-167
-160
-72
41
23
20
36
56
106
125
123
164
208
225
261
319
380
453
545
636
717
790
846
849
770
632
472
294
113
-22
-118
-215
-278
-279
-287
-317
-312
-293
-305
-306
-278
-260
-262
-264
-258
-239
-224
-233
-239
-219
-217
-241
-232
-199
-218
-253
-206
-141
-171
-220
-181
-136
-161
-164
-116
-107
-139
-150
-154
-152
-128
-123
-132
-129
-148
-145
-158
-261
152
1392
1797
163
-1512
-1322
-439
-181
-132
8
12
5
77
97
88
115
143
168
209
251
292
338
399
478
558
643
740
822
858
851
809
716
551
347
178
60
-56
-164
-216
-232
-249
-251
-239
-245
-249
-224
-218
-242
-229
-189
-196
-216
-186
-168
-199
-211
-183
-167
-179
-202
-206
-181
-174
-195
-190
-161
-171
-204
-189
-148
-148
-156
-115
-88
-119
-142
-135
-138
-143
-150
-159
-126
-111
-166
-206
-299
-216
747
1881
1229
-727
-1445
-716
-216
-190
-77
-5
-47
-14
31
27
55
92
101
126
167
194
224
269
321
390
474
552
617
675
715
719
672
569
428
277
130
2
-95
-162
-207
-232
-249
-263
-261
-246
-239
-236
-229
-225
-224
-218
-213
-208
-198
-193
-194
-190
-186
-187
-183
-169
-162
-166
-155
-133
-146
-176
-153
-105
-110
-138
-141
-142
-138
-120
-129
-126
-90
-115
-166
-207
-221
353
1563
1688
-51
-1469
-1098
-327
-199
-159
-8
0
-15
38
56
62
95
115
131
167
208
242
282
341
417
498
583
670
745
788
784
722
606
455
288
125
-14
-119
-187
-229
-254
-267
-272
-276
-275
-263
-252
-248
-241
-226
-210
-204
-202
-195
-184
-176
-175
-178
-180
-180
-183
-192
-188
-166
-157
-174
-176
-147
-138
-156
-164
-170
-179
-161
-155
-176
-152
-136
-185
-223
-313
-209
774
1891
1204
-767
-1487
-759
-262
-241
-121
-28
-58
-26
23
25
50
85
98
124
166
202
240
293
358
435
522
609
688
754
792
777
694
556
393
233
88
-30
-123
-191
-224
-229
-238
-254
-257
-252
-249
-242
-229
-218
-209
-195
-181
-172
-174
-177
-168
-156
-156
-161
-158
-158
-159
-147
-135
-150
-160
-134
-117
-135
-147
-151
-159
-153
-152
-163
-140
-136
-179
-221
-353
-237
872
2090
1362
-704
-1455
-711
-214
-210
-103
-20
-67
-47
2
9
36
67
75
91
125
165
207
249
302
376
459
545
629
689
715
709
646
518
361
205
61
-58
-144
-203
-236
-250
-265
-280
-275
-260
-260
-261
-244
-225
-222
-220
-205
-193
-196
-193
-181
-175
-175
-169
-165
-167
-162
-150
-148
-151
-139
-120
-123
-129
-105
-80
-93
-115
-122
-122
-109
-105
-125
-109
-82
-129
-172
-246
-293
461
1894
1906
-55
-1409
-912
-217
-171
-127
-3
-30
-32
24
29
39
73
85
103
140
169
200
244
295
356
433
517
597
664
707
718
678
581
446
297
150
21
-80
-152
-197
-222
-239
-248
-250
-248
-246
-236
-224
-221
-219
-209
-201
-197
-187
-177
-178
-185
-185
-177
-173
-176
-177
-173
-171
-177
-176
-164
-160
-165
-159
-144
-142
-139
-117
-109
-120
-103
-75
-88
-108
-102
-104
-107
-108
-122
-104
-78
-121
-168
-247
-221
603
1844
1531
-417
-1469
-848
-229
-195
-111
11
-16
-5
54
59
67
96
114
142
175
197
227
274
327
391
473
558
635
698
738
746
707
612
467
305
158
31
-75
-152
-196
-220
-241
-256
-257
-252
-249
-241
-229
-217
-206
-192
-180
-171
-164
-160
-160
-159
-158
-161
-160
-157
-162
-171
-170
-164
-165
-167
-161
-158
-158
-147
-136
-148
-152
-122
-106
-121
-106
-69
-78
-111
-117
-115
-109
-100
-112
-107
-81
-111
-152
-235
-333
297
1743
2028
230
-1312
-1004
-274
-172
-139
-8
-26
-35
28
35
33
70
91
101
127
157
188
231
280
335
406
488
569
642
692
709
688
613
481
330
192
61
-58
-140
-186
-213
-229
-240
-250
-252
-244
-233
-225
-218
-205
-192
-184
-178
-167
-158
-158
-161
-157
-151
-149
-148
-146
-146
-145
-144
-144
-147
-146
-141
-140
-136
-129
-125
-123
-120
-116
-109
-103
-110
-111
-91
-78
-89
-79
-44
-37
-61
-78
-85
-80
-73
-91
-85
-54
-92
-142
-201
-286
290
1699
2037
280
-1305
-1028
-280
-172
-147
-11
-19
-26
31
34
35
75
92
99
128
158
189
233
285
340
408
493
582
657
710
741
732
656
524
374
224
80
-42
-129
-193
-236
-257
-268
-281
-290
-288
-283
-275
-260
-244
-234
-228
-220
-209
-199
-193
-190
-184
-178
-174
-175
-178
-178
-171
-168
-169
-166
-161
-160
-160
-155
-146
-137
-128
-123
-125
-125
-109
-91
-95
-99
-66
-39
-56
-77
-81
-82
-78
-80
-89
-66
-62
-104
-145
-255
-111
945
2029
1251
-704
-1351
-628
-169
-153
-39
31
-9
26
71
66
88
121
128
147
182
210
240
285
338
403
484
570
651
718
756
755
714
613
454
290
152
25
-76
-136
-188
-236
-243
-228
-239
-262
-265
-250
-221
-204
-216
-215
-172
-149
-182
-216
-205
-169
-148
-162
-185
-173
-152
-168
-192
-186
-180
-193
-191
-168
-155
-158
-159
-151
-151
-158
-150
-130
-131
-144
-133
-113
-117
-122
-94
-72
-84
-102
-111
-102
-71
-86
-144
-121
-75
-130
-184
-248
-141
812
1971
1370
-601
-1383
-693
-215
-200
-61
32
-44
-45
27
68
89
91
92
121
148
179
236
278
315
395
478
544
645
736
763
786
800
698
509
346
200
49
-66
-131
-170
-199
-226
-244
-250
-257
-248
-223
-216
-220
-198
-184
-204
-198
-144
-125
-161
-165
-129
-130
-166
-169
-151
-162
-175
-163
-154
-155
-146
-141
-141
-141
-157
-160
-131
-127
-150
-126
-95
-118
-121
-67
-54
-97
-114
-106
-107
-111
-124
-118
-82
-111
-176
-224
-337
-3
1320
2194
916
-1002
-1216
-417
-145
-157
-36
-45
-99
-13
34
3
36
91
84
63
85
135
179
210
243
291
355
435
515
572
606
617
584
503
384
239
109
11
-92
-186
-210
-193
-204
-221
-209
-196
-198
-198
-197
-191
-168
-157
-165
-147
-118
-130
-142
-104
-80
-113
-129
-102
-94
-113
-116
-109
-111
-112
-104
-93
-80
-65
-60
-73
-78
-73
-91
-106
-83
-63
-65
-50
-39
-56
-63
-67
-93
-111
-104
-89
-55
-35
-54
-55
-55
-94
-99
-91
44
744
1523
972
-607
-1279
-743
-272
-180
-64
19
6
40
84
81
90
104
108
148
207
227
229
254
287
325
379
436
492
553
595
607
592
537
443
337
227
110
2
-75
-120
-150
-179
-204
-211
-207
-203
-203
-200
-191
-181
-170
-162
-163
-171
-176
-176
-178
-188
-200
-205
-206
-213
-218
-220
-223
-220
-215
-215
-208
-186
-177
-173
-149
-131
-147
-160
-160
-168
-164
-151
-163
-146
-113
-153
-202
-241
-155
603
1670
1340
-428
-1391
-862
-300
-225
-121
-14
-39
-28
10
10
35
76
88
108
145
178
209
239
276
339
423
510
595
657
683
683
657
580
461
342
229
106
-6
-86
-136
-166
-193
-217
-206
-169
-173
-204
-197
-159
-141
-146
-164
-176
-162
-143
-148
-148
-130
-122
-128
-126
-124
-135
-137
-119
-120
-143
-136
-109
-124
-142
-101
-68
-96
-123
-119
-116
-113
-114
-125
-98
-79
-132
-162
-183
-105
641
1702
1355
-430
-1390
-844
-276
-213
-123
-22
-48
-30
22
18
19
45
61
84
114
133
157
195
236
293
369
442
506
570
617
629
606
543
436
309
184
62
-44
-117
-165
-198
-214
-222
-229
-224
-209
-205
-209
-203
-191
-183
-182
-179
-176
-172
-164
-160
-164
-168
-165
-166
-167
-159
-153
-162
-164
-137
-121
-139
-139
-100
-90
-120
-134
-134
-134
-121
-127
-142
-112
-116
-174
-192
-242
-16
1053
1943
961
-884
-1305
-588
-232
-209
-74
-20
-53
-13
19
14
39
65
73
95
127
155
187
228
277
341
415
487
551
608
649
668
648
568
432
280
145
31
-68
-143
-193
-219
-229
-239
-247
-239
-224
-219
-217
-207
-200
-197
-195
-193
-192
-188
-184
-177
-173
-179
-183
-169
-158
-164
-161
-146
-152
-159
-128
-104
-124
-142
-138
-143
-140
-130
-143
-130
-101
-141
-184
-216
-168
537
1679
1490
-323
-1464
-962
-313
-226
-138
-5
-18
-12
39
42
53
87
101
116
144
168
198
238
283
344
417
490
565
631
675
696
683
613
488
339
201
82
-33
-123
-165
-187
-218
-236
-228
-218
-216
-207
-196
-190
-182
-171
-165
-167
-166
-162
-161
-163
-164
-162
-160
-160
-159
-155
-154
-150
-136
-134
-145
-132
-106
-106
-119
-128
-144
-147
-139
-148
-134
-109
-149
-188
-234
-248
418
1689
1727
-53
-1381
-1002
-332
-225
-158
-34
-51
-51
2
6
11
42
57
67
88
113
146
184
226
281
347
416
488
551
600
632
631
571
457
315
174
47
-60
-142
-196
-224
-239
-246
-247
-245
-240
-231
-221
-212
-205
-200
-197
-193
-187
-185
-186
-184
-180
-180
-183
-178
-168
-168
-169
-151
-136
-148
-155
-127
-109
-130
-146
-145
-147
-141
-140
-145
-122
-119
-165
-199
-279
-121
902
1968
1231
-702
-1384
-677
-200
-182
-80
-5
-38
-4
40
31
45
74
86
106
132
154
188
230
272
325
393
463
526
580
620
639
621
547
430
300
175
60
-35
-102
-141
-162
-172
-175
-172
-165
-156
-148
-141
-134
-127
-125
-122
-117
-115
-113
-109
-109
-112
-111
-110
-115
-113
-103
-102
-110
-99
-77
-82
-93
-73
-55
-73
-89
-92
-100
-95
-91
-108
-93
-75
-122
-162
-230
-180
650
1826
1460
-426
-1399
-800
-229
-200
-129
-38
-77
-66
-20
-30
-28
-4
2
14
