# session 35
-41
-20
-60
-131
-71
107
176
122
108
123
104
91
97
89
80
88
91
84
90
103
95
85
97
91
48
22
22
3
-7
6
-15
-29
0
-27
-68
-73
-156
209
1453
1996
431
-1329
-1211
-331
-95
-69
77
77
43
98
106
96
130
144
138
158
177
182
204
235
252
274
311
349
385
430
472
500
522
525
476
366
223
77
-54
-156
-227
-272
-297
-301
-295
-290
-283
-273
-267
-262
-257
-256
-255
-247
-240
-241
-248
-247
-242
-238
-236
-230
-226
-223
-208
-193
-192
-180
-155
-154
-158
-132
-117
-149
-176
-174
-172
-151
-113
-120
-122
-63
-87
-201
-244
-300
-68
1034
1878
736
-1147
-1377
-491
-122
-110
30
64
19
72
102
84
108
137
145
164
186
199
222
250
270
292
328
369
412
458
503
537
562
570
528
425
286
139
7
-94
-163
-211
-234
-234
-230
-228
-220
-207
-198
-192
-186
-185
-184
-181
-179
-178
-175
-175
-176
-175
-173
-166
-152
-145
-142
-121
-103
-112
-111
-87
-97
-135
-144
-140
-151
-139
-125
-151
-142
-105
-143
-172
-200
-232
413
1666
1589
-311
-1530
-926
-179
-104
-42
78
44
50
112
103
95
121
130
142
173
195
208
231
256
281
319
370
412
442
482
528
554
556
531
454
322
173
44
-64
-154
-215
-240
-246
-249
-244
-231
-222
-221
-214
-204
-204
-208
-206
-201
-200
-199
-200
-200
-192
-174
-164
-163
-147
-133
-145
-141
-102
-92
-133
-155
-149
-161
-166
-145
-156
-162
-125
-154
-197
-183
-243
92
1289
1855
367
-1362
-1258
-375
-126
-103
39
42
10
73
91
73
97
126
138
154
172
191
212
231
261
300
335
372
418
462
498
528
543
525
456
339
197
57
-62
-147
-199
-234
-253
-254
-245
-239
-233
-223
-216
-209
-200
-196
-199
-203
-199
-191
-191
-188
-174
-162
-160
-154
-147
-150
-141
-114
-118
-152
-161
-152
-164
-162
-143
-155
-146
-123
-169
-183
-172
-180
422
1622
1562
-311
-1567
-996
-222
-118
-54
65
34
36
94
91
93
126
137
148
175
193
210
233
256
284
321
360
399
445
491
522
537
542
514
421
283
145
18
-87
-159
-206
-237
-246
-242
-239
-231
-219
-209
-202
-194
-191
-189
-187
-190
-192
-188
-187
-193
-186
-165
-158
-161
-144
-125
-127
-123
-107
-121
-151
-154
-150
-159
-149
-143
-154
-124
-108
-164
-168
-184
-149
632
1768
1310
-665
-1566
-807
-158
-119
-33
61
21
44
95
81
90
128
137
145
167
186
205
229
259
294
325
353
391
439
482
512
529
531
494
400
263
118
-5
-99
-166
-211
-238
-250
-251
-246
-235
-221
-208
-202
-201
-196
-190
-191
-196
-194
-189
-191
-194
-191
-183
-175
-163
-155
-149
-132
-114
-112
-108
-91
-97
-128
-137
-135
-149
-144
-127
-146
-137
-104
-146
-170
-186
-253
311
1617
1738
-108
-1492
-992
-208
-113
-60
73
41
31
90
91
87
118
135
149
172
186
201
223
246
274
309
347
391
437
477
514
547
556
526
445
314
169
42
-66
-152
-203
-227
-240
-240
-226
-213
-208
-204
-195
-186
-182
-179
-174
-172
-173
-174
-173
-175
-177
-176
-173
-170
-167
-167
-164
-148
-135
-138
-129
-104
-96
-96
-79
-78
-113
-130
-125
-137
-138
-112
-124
-140
-101
-111
-159
-169
-270
-22
1190
2021
749
-1133
-1266
-397
-100
-101
42
67
28
84
108
91
114
134
137
157
181
193
211
239
267
294
324
364
409
447
482
521
548
537
472
361
232
102
-21
-121
-188
-231
-254
-260
-257
-247
-236
-232
-231
-220
-204
-201
-213
-212
-194
-189
-198
-196
-193
-206
-208
-188
-176
-184
-195
-195
-184
-178
-180
-165
-138
-153
-184
-144
-82
-97
-116
-60
-47
-136
-177
-122
-95
-110
-106
-108
-97
-66
-102
-123
-133
-240
230
1581
1949
205
-1371
-1025
-199
-61
-24
124
114
88
125
121
131
176
185
189
209
216
234
270
282
289
338
393
424
462
511
548
581
609
588
511
402
260
97
-34
-115
-176
-220
-232
-234
-237
-230
-220
-224
-221
-208
-208
-213
-203
-201
-208
-199
-184
-188
-194
-186
-188
-202
-205
-191
-178
-181
-191
-179
-157
-152
-157
-150
-137
-119
-98
-101
-130
-146
-146
-156
-163
-152
-151
-144
-124
-158
-188
-176
-221
115
1231
1777
435
-1205
-1196
-408
-157
-119
27
37
8
68
88
75
108
132
132
149
172
193
224
253
268
292
334
379
420
459
496
524
540
536
488
376
221
75
-38
-123
-186
-221
-228
-227
-230
-230
-229
-221
-203
-192
-190
-181
-169
-169
-170
-158
-148
-155
-160
-151
-153
-159
-142
-125
-137
-154
-157
-146
-124
-117
-125
-113
-103
-108
-73
-29
-54
-101
-96
-90
-110
-110
-96
-93
-90
-101
-114
-121
-194
-15
886
1631
813
-711
-1016
-370
-82
-100
6
59
29
58
85
79
96
119
133
154
172
192
216
228
242
276
306
329
371
425
460
484
508
512
473
388
272
136
7
-79
-132
-174
-201
-220
-239
-230
-207
-217
-228
-198
-182
-198
-189
-167
-174
-177
-164
-173
-184
-169
-164
-171
-158
-147
-152
-155
-155
-150
-133
-133
-139
-109
-94
-119
-89
-28
-73
-146
-102
-69
-148
-172
-101
-93
-121
-102
-102
-141
-216
-145
540
1421
1078
-390
-1125
-640
-160
-111
-47
36
3
-1
62
89
87
101
109
112
147
178
170
180
236
278
297
330
362
386
423
463
489
499
473
405
315
192
41
-55
-85
-135
-198
-203
-188
-207
-215
-194
-189
-198
-191
-174
-167
-170
-163
-150
-151
-157
-154
-152
-158
-156
-142
-134
-136
-131
-117
-123
-145
-139
-106
-105
-135
-133
-100
-86
-82
-52
-26
-39
-76
-107
-109
-91
-109
-144
-115
-65
-82
-94
-92
-205
-88
758
1529
887
-506
-908
-399
-105
-93
-16
27
29
73
67
39
91
136
109
100
137
168
179
187
203
240
281
312
342
375
408
448
485
494
464
394
290
176
65
-36
-108
-149
-182
-210
-218
-207
-192
-190
-198
-197
-189
-183
-177
-174
-176
-174
-166
-163
-171
-176
-164
-147
-148
-158
-153
-140
-144
-154
-144
-130
-133
-135
-113
-82
-56
-50
-81
-118
-117
-107
-123
-132
-121
-105
-87
-95
-121
-181
-286
7
1002
1582
631
-681
-796
-267
-108
-124
-37
-9
-22
16
36
32
54
77
73
77
107
134
146
165
193
228
275
314
336
372
430
483
516
521
470
362
236
121
19
-74
-157
-213
-226
-219
-211
-208
-212
-212
-190
-167
-170
-187
-190
-178
-166
-164
-163
-156
-150
-156
-174
-180
-158
-135
-134
-137
-136
-140
-134
-124
-132
-140
-126
-110
-94
-62
-46
-84
-129
-120
-92
-90
-90
-98
-117
-110
-108
-116
-134
-229
61
1249
2073
912
-931
-1209
-452
-146
-139
8
72
32
53
92
106
116
121
133
157
186
208
206
210
260
322
360
404
468
525
574
633
683
688
620
462
261
90
-45
-174
-271
-304
-308
-317
-330
-335
-335
-325
-309
-302
-304
-294
-276
-276
-283
-276
-258
-243
-237
-240
-238
-220
-208
-209
-201
-188
-188
-184
-169
-162
-149
-118
-113
-151
-171
-156
-154
-166
-163
-156
-138
-120
-158
-199
-245
-237
470
1844
2012
215
-1262
-956
-271
-168
-97
50
28
21
88
93
87
126
153
156
162
185
224
262
291
330
383
434
492
575
665
734
788
819
781
644
436
216
29
-117
-228
-298
-325
-323
-311
-314
-333
-338
-317
-299
-298
-293
-278
-269
-265
-259
-259
-266
-258
-237
-231
-233
-226
-231
-239
-223
-209
-212
-201
-178
-178
-170
-135
-136
-174
-177
-158
-176
-188
-174
-186
-177
-137
-157
-201
-285
-312
471
1969
2104
189
-1274
-903
-249
-189
-106
41
-1
-10
61
74
82
114
121
130
153
174
209
246
264
295
351
415
483
557
626
686
749
798
771
626
412
203
19
-129
-227
-277
-298
-311
-319
-319
-321
-324
-307
-288
-285
-267
-241
-253
-270
-249
-229
-235
-234
-236
-248
-225
-197
-214
-214
-170
-167
-193
-179
-168
-177
-133
-84
-123
-175
-156
-142
-155
-124
-102
-134
-109
-68
-123
-168
-252
-276
616
2147
2060
14
-1275
-775
-181
-160
-86
25
-1
24
68
39
45
97
119
129
152
166
177
212
259
285
303
347
410
468
528
579
604
613
591
494
337
163
-1
-124
-205
-275
-309
-295
-293
-308
-295
-280
-287
-279
-253
-241
-234
-226
-229
-234
-231
-224
-222
-226
-228
-215
-198
-194
-194
-186
-174
-168
-162
-142
-121
-128
-157
-176
-179
-177
-162
-151
-169
-158
-120
-153
-198
-216
-237
305
1614
2000
365
-1259
-1098
-346
-179
-129
28
21
-9
60
82
85
162
244
273
261
226
212
244
270
288
340
388
408
477
597
660
650
643
630
545
396
224
51
-93
-189
-240
-259
-272
-294
-303
-287
-272
-261
-252
-251
-249
-227
-213
-224
-237
-236
-228
-220
-225
-240
-233
-205
-189
-191
-193
-180
-167
-168
-160
-126
-109
-132
-157
-155
-156
-158
-135
-137
-174
-152
-117
-157
-188
-244
-153
789
2037
1579
-426
-1382
-746
-204
-169
-52
34
-14
29
90
64
70
108
114
127
156
172
191
224
266
321
370
396
445
529
588
607
639
665
622
518
381
199
2
-157
-259
-284
-236
-201
-221
-255
-287
-309
-298
-279
-288
-289
-259
-239
-246
-249
-242
-239
-237
-213
-173
-159
-190
-216
-186
-135
-120
-129
-127
-114
-120
-134
-126
-119
-142
-155
-142
-152
-157
-113
-117
-173
-197
-252
21
1120
1926
862
-915
-1202
-433
-105
-119
-3
29
-31
21
80
54
54
94
112
156
246
280
221
165
174
213
261
315
345
350
382
437
460
445
426
382
270
120
-1
-80
-148
-205
-226
-200
-166
-175
-208
-208
-178
-161
-160
-161
-166
-172
-169
-159
-153
-156
-155
-138
-123
-131
-146
-134
-106
-99
-104
-85
-67
-87
-118
-124
-129
-143
-133
-122
-144
-131
-102
-144
-171
-193
-184
488
1703
1639
-153
-1378
-934
-270
-163
-85
38
22
17
57
63
74
102
114
127
144
156
176
200
215
237
273
305
332
368
410
439
454
458
436
366
261
146
31
-77
-156
-196
-215
-234
-242
-230
-217
-215
-206
-197
-203
-197
-173
-167
-178
-176
-173
-188
-196
-179
-164
-165
-152
-128
-134
-150
-123
-91
-113
-145
-141
-145
-162
-141
-130
-167
-151
-111
-167
-211
-237
-189
630
1918
1647
-340
-1436
-818
-186
-136
-73
-8
-51
-28
15
14
37
57
55
82
116
133
153
180
207
234
255
282
324
361
390
421
442
438
403
329
219
99
-11
-91
-139
-182
-222
-225
-204
-200
-197
-172
-155
-161
-161
-149
-139
-137
-142
-145
-136
-124
-120
-117
-113
-115
-109
-99
-107
-113
-89
-66
-82
-110
-119
-122
-122
-106
-113
-132
-97
-87
-145
-160
-196
-31
949
1930
1130
-727
-1273
-563
-163
-148
-17
48
1
30
64
52
74
105
106
112
137
162
178
183
193
225
265
295
331
377
411
428
445
449
410
322
219
138
56
-75
-198
-225
-203
-219
-242
-231
-218
-218
-210
-199
-196
-191
-186
-182
-183
-194
-187
-157
-157
-187
-173
-127
-134
-184
-204
-173
-140
-142
-162
-166
-167
-166
-144
-141
-163
-137
-114
-147
-132
-142
-90
663
1717
1317
-447
-1312
-749
-232
-179
-86
-11
-44
3
70
53
40
46
38
59
99
105
104
130
161
186
211
228
256
300
333
358
391
404
378
323
240
134
35
-39
-95
-132
-152
-167
-176
-172
-160
-156
-151
-131
-117
-126
-134
-132
-135
-130
-103
-90
-101
-102
-88
-85
-90
-75
-41
-30
-55
-77
-81
-93
-101
-86
-90
-104
-84
-86
-112
-84
-44
204
986
1519
636
-854
-1220
-618
-207
-102
-4
11
-21
21
63
58
66
86
97
106
117
135
159
176
188
208
228
253
291
321
328
334
349
346
310
244
151
63
7
-39
-98
-142
-156
-159
-162
-166
-161
-136
-120
-136
-145
-130
-130
-139
-134
-132
-127
-109
-100
-103
-100
-109
-113
-83
-63
-86
-105
-115
-140
-149
-128
-132
-153
-133
-121
-152
-144
-85
164
903
1535
834
-741
-1362
-794
-276
-172
-86
-9
-14
5
33
37
65
93
77
73
109
138
145
159
182
200
225
263
292
316
345
362
358
339
289
208
120
37
-44
-115
-171
-209
-232
-251
-263
-256
-240
-231
-221
-207
-206
-207
-195
-187
-195
-197
-184
-172
-166
-170
-182
-186
-177
-161
-155
-170
-184
-178
-181
-191
-174
-168
-180
-151
-155
-207
-201
-208
80
1216
2073
918
-1026
-1350
-534
-182
-158
-2
44
8
67
99
78
104
143
154
167
191
214
243
274
304
343
395
452
509
566
616
658
682
637
503
335
179
28
-103
-181
-212
-229
-242
-242
-233
-225
-222
-214
-198
-180
-166
-156
-151
-150
-147
-141
-132
-115
-102
-100
-95
-89
-97
-95
-73
-75
-108
-121
-112
-120
-123
-104
-118
-137
-98
-94
-142
-158
-233
43
1310
2301
1111
-951
-1300
-445
-98
-103
40
73
20
65
93
83
112
128
120
140
166
177
200
232
263
304
357
415
470
523
579
633
654
609
494
320
117
-59
-179
-261
-319
-348
-357
-368
-377
-372
-359
-352
-353
-354
-352
-344
-336
-332
-331
-332
-335
-337
-336
-329
-319
-315
-309
-290
-285
-305
-307
-283
-287
-318
-323
-315
-329
-323
-305
-318
-303
-270
-311
-339
-371
-354
467
1901
1783
-311
-1618
-1000
-287
-255
-178
-43
-84
-76
-6
-6
5
47
62
81
118
140
161
201
246
292
348
413
479
552
625
679
716
732
686
556
385
230
110
21
-38
-66
-67
-59
-48
-30
-4
23
49
69
88
115
