# session 4
-5
-14
-5
100
182
119
65
120
164
168
195
225
239
265
297
325
351
374
401
440
479
501
476
396
307
253
213
170
143
137
116
63
9
-1
15
2
-50
-87
-93
-117
-147
-148
-171
-197
-224
-364
-94
1177
2040
765
-1156
-1351
-509
-201
-195
-49
-17
-67
-30
-7
-14
11
35
57
106
152
188
237
278
295
321
352
361
365
386
381
329
256
169
70
-12
-76
-137
-188
-224
-249
-274
-299
-315
-331
-356
-364
-367
-398
-401
-379
-415
-441
-528
-824
-559
903
1897
747
-950
-1126
-542
-413
-412
-261
-240
-290
-244
-184
-160
-138
-108
-64
-13
41
105
158
185
219
266
293
301
324
368
407
400
334
247
175
109
39
-17
-48
-61
-81
-116
-143
-143
-136
-148
-159
-151
-160
-172
-138
-127
-166
-186
-275
-170
798
1842
1109
-792
-1422
-676
-190
-179
-74
21
-1
16
43
36
65
110
119
130
169
210
242
273
294
300
311
325
326
331
336
303
236
153
49
-35
-62
-83
-102
-85
-109
-186
-200
-177
-208
-247
-254
-261
-265
-256
-240
-228
-231
-231
-350
-455
255
1601
1608
-130
-1239
-756
-218
-214
-110
18
-46
-36
58
63
54
82
87
92
124
152
169
190
202
202
209
218
220
231
262
277
245
183
117
54
-3
-54
-95
-114
-119
-140
-173
-173
-145
-147
-169
-168
-180
-208
-180
-155
-201
-253
-437
-582
203
1584
1493
-246
-1238
-750
-275
-274
-186
-82
-121
-105
-40
-28
-7
34
46
61
100
131
152
184
219
238
242
259
293
329
355
342
269
171
94
16
-70
-128
-158
-190
-217
-240
-268
-270
-240
-245
-294
-296
-253
-255
-266
-232
-234
-250
-278
-413
-138
1018
1689
495
-1072
-1119
-418
-199
-175
-39
-2
-14
28
41
48
90
119
143
181
211
239
267
274
273
283
291
284
275
270
273
264
210
123
50
-5
-59
-101
-115
-111
-112
-132
-150
-145
-140
-157
-167
-161
-168
-160
-128
-144
-165
-181
-267
73
1159
1592
231
-1264
-1164
-397
-145
-97
14
11
-3
54
70
60
90
125
146
165
190
221
242
251
267
288
292
289
307
341
340
276
174
72
-13
-83
-151
-210
-231
-223
-233
-266
-283
-272
-268
-286
-293
-277
-268
-252
-219
-221
-223
-242
-388
-206
796
1436
326
-1239
-1294
-466
-136
-125
-16
14
-9
47
79
68
91
120
129
149
181
210
241
269
287
299
308
308
313
338
346
288
194
118
61
-3
-60
-96
-116
-127
-142
-171
-190
-180
-174
-189
-185
-168
-176
-169
-141
-161
-170
-198
-427
-323
752
1556
548
-993
-1075
-333
-92
-111
15
66
45
84
106
103
135
168
187
212
240
270
296
302
309
331
339
330
344
373
368
312
231
148
68
1
-58
-117
-154
-157
-176
-238
-282
-274
-266
-286
-291
-269
-268
-275
-248
-245
-270
-304
-482
-482
404
1435
897
-679
-1194
-608
-260
-242
-126
-71
-110
-70
-26
-32
-1
47
63
84
121
149
171
200
219
228
250
267
257
262
290
255
139
28
-41
-83
-110
-154
-203
-199
-182
-231
-285
-265
-231
-254
-285
-263
-233
-240
-237
-220
-234
-258
-349
-370
288
1343
1156
-429
-1332
-819
-256
-178
-64
59
28
46
125
128
126
175
218
245
277
297
315
345
366
360
341
332
340
340
316
301
312
289
216
168
173
156
106
96
117
101
61
46
42
27
11
2
-7
-32
-51
-42
-60
-102
-123
-217
-117
646
1283
531
-798
-1037
-482
-227
-210
-124
-105
-135
-111
-89
-75
-39
-21
-16
10
44
73
101
121
138
165
188
196
221
273
284
210
100
3
-80
-154
-208
-248
-278
-285
-289
-318
-347
-335
-309
-318
-338
-330
-320
-315
-285
-277
-299
-310
-433
-407
477
1551
1006
-725
-1365
-716
-269
-236
-109
-11
-32
3
55
59
78
115
150
194
228
251
294
343
371
384
396
402
412
428
408
319
204
120
57
-8
-60
-93
-110
-105
-103
-140
-183
-183
-167
-183
-202
-192
-192
-214
-194
-159
-195
-226
-274
-380
52
1205
1509
61
-1286
-1075
-399
-221
-154
-39
-41
-27
38
50
62
108
144
178
211
219
243
310
366
379
371
367
371
379
366
304
208
119
41
-32
-81
-98
-105
-108
-106
-119
-150
-162
-151
-159
-183
-179
-165
-186
-189
-150
-161
-194
-212
-325
-119
887
1560
536
-972
-1117
-447
-179
-160
-57
-27
-51
-19
12
23
51
79
99
122
155
198
231
236
243
270
282
270
272
280
232
132
43
-18
-66
-108
-142
-165
-158
-134
-144
-179
-180
-151
-146
-168
-185
-188
-205
-216
-179
-170
-220
-231
-270
-194
540
1370
783
-782
-1325
-715
-275
-208
-98
-42
-78
-49
-9
-11
15
71
110
131
157
200
243
271
304
338
351
365
388
392
378
335
239
142
88
21
-66
-94
-77
-94
-126
-134
-140
-149
-149
-150
-146
-131
-139
-169
-158
-143
-188
-206
-243
-314
230
1417
1513
-140
-1405
-1008
-301
-183
-139
-17
-25
-34
7
5
7
45
71
93
124
149
183
231
263
275
286
293
301
325
326
252
134
36
-36
-92
-131
-164
-195
-204
-197
-209
-240
-249
-231
-229
-243
-236
-226
-233
-204
-171
-203
-207
-259
-489
-190
1040
1561
199
-1198
-984
-271
-118
-89
5
-21
-11
57
51
52
89
87
103
171
211
215
240
291
335
350
338
331
355
374
331
231
125
43
-25
-84
-123
-149
-171
-170
-153
-167
-211
-224
-192
-177
-188
-183
-174
-171
-141
-138
-178
-208
-389
-505
301
1540
1244
-443
-1182
-580
-150
-164
-64
18
-41
-24
37
29
29
60
72
89
145
202
221
224
248
277
289
294
308
324
317
262
163
64
3
-36
-76
-109
-122
-127
-138
-151
-166
-176
-164
-146
-149
-153
-142
-152
-167
-152
-152
-163
-211
-409
-313
646
1442
625
-821
-1047
-430
-160
-138
-23
22
-3
24
51
62
90
110
126
158
192
230
277
312
331
344
347
352
387
418
380
288
194
105
14
-58
-107
-149
-176
-177
-172
-188
-218
-226
-212
-219
-249
-250
-231
-234
-220
-192
-230
-272
-309
-466
-239
860
1534
416
-1093
-1146
-455
-220
-192
-62
-24
-36
5
33
53
79
85
106
153
182
203
236
265
295
323
323
321
349
351
272
152
40
-50
-104
-125
-147
-170
-182
-193
-206
-222
-238
-223
-194
-215
-257
-248
-223
-235
-234
-203
-222
-250
-265
-402
-272
702
1506
631
-934
-1211
-533
-192
-155
-55
-10
-16
24
46
53
100
160
197
217
249
308
353
363
381
410
407
384
386
401
362
254
149
84
30
-11
-35
-65
-83
-58
-46
-78
-99
-93
-87
-96
-121
-142
-134
-130
-129
-102
-114
-157
-167
-263
-218
550
1373
773
-690
-1130
-563
-210
-167
-63
-10
-37
-11
19
16
40
81
101
125
159
184
210
252
287
293
285
284
304
330
310
220
105
14
-45
-92
-136
-171
-189
-189
-185
-195
-224
-246
-242
-230
-235
-242
-231
-230
-246
-229
-215
-254
-286
-403
-507
151
1386
1370
-215
-1195
-743
-244
-220
-124
-3
-58
-85
-24
19
53
91
115
142
182
225
260
292
333
366
369
374
403
417
382
302
183
57
-30
-82
-122
-152
-178
-200
-188
-162
-195
-251
-241
-201
-199
-214
-214
-219
-217
-178
-149
-176
-184
-223
-347
8
1082
1446
120
-1237
-1088
-377
-153
-95
25
35
21
58
76
103
154
173
180
214
260
300
332
356
377
392
395
398
409
399
329
209
82
-13
-67
-98
-123
-144
-155
-147
-133
-146
-178
-189
-181
-190
-210
-205
-179
-179
-200
-183
-171
-213
-238
-326
-381
278
1386
1206
-397
-1277
-765
-251
-207
-123
-34
-73
-68
-29
-19
21
64
66
82
122
161
212
263
283
293
302
294
292
302
280
196
85
-2
-65
-124
-154
-144
-150
-183
-191
-175
-186
-206
-196
-176
-175
-178
-159
-149
-172
-161
-115
-153
-222
-307
-500
-202
1024
1672
454
-972
-895
-270
-158
-143
-21
-39
-66
-5
16
30
90
117
117
165
228
261
289
319
333
343
353
352
353
364
344
265
166
93
40
-13
-53
-68
-79
-92
-91
-96
-134
-167
-156
-143
-159
-164
-135
-132
-178
-187
-151
-168
-195
-229
-340
-14
1030
1413
153
-1130
-973
-334
-179
-146
-39
-42
-52
-2
3
9
78
126
121
136
194
243
258
275
319
357
366
372
396
386
295
161
41
-48
-103
-142
-192
-236
-239
-221
-221
-234
-249
-264
-273
-278
-286
-276
-238
-224
-244
-234
-215
-237
-261
-370
-422
266
1380
1161
-495
-1383
-816
-244
-177
-82
13
-18
25
103
92
88
137
174
196
227
266
308
344
373
386
382
392
421
408
330
217
96
3
-45
-80
-122
-154
-164
-158
-142
-120
-103
-116
-150
-143
-121
-161
-186
-116
-78
-116
-125
-118
-112
-134
-294
-127
822
1353
229
-1170
-1107
-340
-82
-70
45
64
22
58
87
80
99
128
146
170
207
251
293
312
315
332
357
363
345
297
216
119
18
-60
-93
-118
-164
-190
-180
-166
-152
-152
-187
-214
-195
-171
-188
-221
-219
-190
-182
-201
-214
-191
-164
-279
-365
155
928
566
-822
-1402
-738
-133
-53
-7
68
62
94
149
149
165
208
219
229
277
324
351
380
410
429
436
427
412
394
322
186
67
7
-27
-49
-65
-98
-134
-145
-150
-154
-148
-163
-196
-193
-175
-198
-207
-166
-151
-169
-153
-138
-147
-179
-361
-416
273
1055
459
-956
-1263
-516
-81
-69
19
83
51
79
124
129
155
194
210
237
282
313
323
339
369
387
383
389
415
404
317
199
98
13
-60
-104
-125
-154
-186
-187
-163
-155
-164
-177
-193
-201
-194
-198
-208
-196
-190
-199
-177
-164
-189
-231
-402
-406
434
1411
839
-751
-1240
-579
-171
-150
-45
28
-5
9
41
52
84
113
133
177
221
248
293
335
332
313
321
338
347
340
283
170
57
-18
-72
-122
-157
-182
-195
-177
-147
-166
-225
-245
-216
-197
-206
-223
-222
-200
-193
-218
-205
-166
-185
-220
-307
-441
-16
1056
1264
-56
-1135
-850
-272
-145
-90
1
5
23
65
76
94
120
145
195
246
268
290
328
354
354
348
352
357
352
323
251
146
58
-1
-52
-87
-96
-102
-119
-125
-114
-107
-124
-155
-162
-138
-117
-122
-123
-103
-107
-123
-99
-95
-130
-155
-279
-239
580
1450
817
-690
-1102
-495
-137
-100
-8
22
-8
32
69
73
100
136
165
198
230
262
299
327
341
346
344
348
365
359
279
143
16
-69
-125
-170
-208
-229
-233
-235
-237
-229
-234
-254
-260
-251
-246
-250
-256
-245
-226
-222
-209
-198
-225
-243
-343
-477
81
1291
1390
-166
-1274
-857
-242
-165
-111
4
-9
-17
28
51
68
86
104
154
210
238
269
318
352
358
355
355
360
348
285
167
33
-69
-129
-160
-182
-203
-211
-201
-186
-176
-179
-192
-204
-201
-189
-180
-180
-180
-170
-169
-162
-129
-134
-167
-196
-347
-265
705
1644
878
-763
-1136
-448
-106
-99
15
65
31
69
106
113
148
177
191
230
278
309
341
379
400
400
397
398
398
368
283
158
40
-45
-100
-131
-150
-163
-171
-176
-176
-169
-172
-190
-202
-195
-185
-183
-185
-171
-152
-163
-163
-136
-154
-188
-264
-438
-103
1076
1582
303
-1043
-887
-252
-135
-115
-3
-19
-36
23
40
37
68
101
131
171
204
237
273
293
296
295
295
299
301
267
177
62
-32
-95
-141
-176
-195
-202
-208
-218
-219
-208
-208
-224
-228
-211
-195
-198
-199
-180
-179
-197
-172
-149
-179
-200
-349
-502
189
1483
1423
-219
-1149
-625
-118
-119
-65
27
-5
2
48
48
62
102
132
170
214
243
276
322
352
360
373
395
413
405
331
202
77
-15
-87
-136
-165
-195
-221
-225
-223
-224
-220
-216
-226
-232
-211
-190
-205
-216
-186
-171
-186
-162
-136
-158
-203
-340
-308
492
1394
805
-773
-1263
-585
-144
-116
-17
53
25
54
99
110
139
173
195
236
280
311
354
398
418
427
439
443
439
406
307
168
52
-31
-94
-135
-156
-165
-167
-167
-171
-168
-162
-173
-193
-194
-178
-175
-190
-186
-164
-163
-160
-139
-154
-166
-211
-424
-271
797
1512
445
-1050
-1081
-350
-118
-123
-5
31
18
65
88
95
132
159
182
230
277
314
356
391
407
414
415
418
415
364
248
110
-2
-81
-134
-162
-176
-187
-189
-183
-183
-185
-184
-193
-211
-212
-198
-205
-220
-206
-192
-210
-194
-154
-181
-216
-300
-497
-144
1060
1525
197
-1133
-943
-294
-169
-138
-16
-20
-26
39
57
58
97
131
162
208
256
302
343
366
377
376
361
345
324
263
149
21
-85
-152
-188
-210
-224
-231
-233
-226
-209
-198
-206
-224
-233
-234
-229
-223
-221
-215
-207
-221
-217
-180
-194
-235
-300
-454
-167
962
1554
354
-1098
-1058
-388
-222
-214
-88
-68
-83
-25
10
23
65
111
156
208
252
294
341
373
383
382
374
370
365
325
229
107
4
-66
-104
-117
-128
-141
-142
-133
-126
-120
-118
-124
-124
-114
-111
-117
-117
-98
-78
-84
-77
-44
-63
-102
-165
-323
-22
1127
1716
526
-888
-848
-205
-36
-24
80
97
97
147
168
187
222
236
257
302
340
377
427
466
478
476
477
484
472
395
255
111
8
-64
-124
-168
-194
-208
-217
-226
-230
-216
-202
-212
-231
-223
-207
-217
-238
-234
-225
-233
-221
-209
-235
-244
-372
-603
-118
1171
1386
-223
-1463
-1036
-340
-260
-240
-136
-153
-157
-124
-148
-148
-105
-102
-107
-76
-39
-13
