# session 41
81
52
120
-77
-450
-401
34
300
312
316
338
335
332
329
324
333
342
340
340
350
358
352
344
352
375
403
426
439
454
478
493
500
496
453
374
276
152
28
-48
-92
-142
-177
-176
-172
-185
-189
-177
-170
-173
-171
-169
-179
-181
-169
-178
-203
-200
-178
-171
-175
-183
-201
-201
-180
-187
-209
-186
-148
-161
-183
-159
-135
-144
-139
-122
-148
-182
-169
-149
-156
-157
-168
-194
-156
-118
-180
-222
-220
-93
665
1655
1255
-453
-1318
-778
-236
-163
-68
48
44
29
35
48
91
116
100
100
125
135
128
154
243
326
313
283
354
433
440
509
641
642
536
484
403
198
48
2
-131
-257
-203
-210
-337
-279
-200
-330
-338
-209
-269
-306
-172
-202
-337
-277
-195
-261
-307
-271
-256
-251
-186
-109
-114
-178
-219
-226
-219
-191
-159
-159
-175
-181
-186
-162
-147
-218
-212
-51
-97
-355
-305
103
692
1406
1318
-259
-1759
-1617
-752
-327
-70
193
215
158
158
110
118
259
334
276
241
281
341
393
407
392
409
467
551
655
699
651
650
737
758
661
501
269
46
-39
-80
-197
-272
-237
-220
-237
-218
-211
-223
-190
-182
-222
-199
-144
-162
-184
-136
-110
-162
-219
-210
-151
-122
-164
-178
-92
-40
-108
-153
-98
-74
-126
-136
-79
-71
-134
-179
-185
-180
-170
-167
-160
-149
-175
-189
-182
-136
374
1320
1335
-161
-1375
-1034
-245
-39
-58
18
51
47
75
97
94
101
128
153
164
170
182
216
256
257
262
335
420
466
508
544
566
618
641
530
349
202
59
-89
-179
-216
-247
-261
-254
-257
-277
-286
-264
-236
-232
-244
-254
-249
-220
-195
-204
-224
-225
-221
-230
-229
-197
-165
-174
-195
-174
-134
-134
-155
-148
-138
-166
-179
-151
-145
-173
-186
-178
-144
-112
-144
-180
-217
-268
176
1267
1556
130
-1269
-1080
-302
-70
-56
42
62
48
80
92
99
120
138
170
198
188
178
212
278
338
365
384
435
496
537
574
605
622
630
569
404
226
90
-39
-143
-189
-226
-273
-283
-261
-249
-242
-223
-207
-207
-206
-192
-186
-189
-181
-171
-170
-168
-173
-190
-183
-144
-123
-125
-111
-83
-69
-69
-76
-81
-86
-94
-96
-89
-95
-110
-112
-106
-83
-61
-89
-113
-139
-169
279
1274
1409
-46
-1322
-1022
-226
-12
-16
84
143
158
167
152
153
177
189
197
218
242
261
277
289
314
367
416
433
456
517
590
644
651
609
528
343
63
-108
-161
-282
-340
-215
-239
-447
-431
-285
-355
-407
-243
-171
-295
-370
-345
-353
-384
-327
-298
-474
-572
-422
-538
-850
-531
79
39
-186
-47
-131
-384
-188
0
-193
-193
-9
-74
-131
-46
-112
-191
-118
-124
-201
-297
-542
-357
808
1698
872
-666
-1093
-535
-173
-230
-208
12
161
161
157
194
237
314
418
463
413
352
376
464
514
505
497
524
577
636
673
679
697
722
665
513
350
210
84
-2
-67
-142
-180
-167
-183
-215
-187
-158
-179
-174
-156
-197
-219
-179
-181
-221
-201
-169
-200
-217
-190
-193
-218
-206
-179
-172
-167
-163
-163
-151
-136
-139
-160
-187
-208
-203
-181
-168
-156
-143
-158
-164
-213
-305
121
1188
1437
84
-1129
-876
-222
-106
-120
-27
-1
0
21
15
26
59
67
68
95
124
123
124
172
227
243
270
325
358
382
435
478
482
464
416
318
182
37
-87
-165
-204
-236
-274
-287
-245
-198
-203
-230
-226
-202
-195
-206
-212
-196
-185
-198
-210
-196
-179
-178
-185
-182
-167
-148
-132
-121
-124
-131
-103
-70
-96
-145
-141
-117
-124
-130
-123
-128
-122
-106
-110
-134
-234
-178
611
1586
1141
-463
-1127
-509
-44
-70
-23
77
67
76
107
97
93
119
143
153
162
189
214
208
216
272
323
340
368
420
469
510
546
557
529
455
330
177
46
-44
-104
-152
-182
-182
-177
-187
-181
-155
-155
-170
-157
-135
-142
-156
-151
-147
-155
-154
-151
-161
-164
-152
-152
-157
-142
-116
-102
-107
-115
-105
-94
-111
-138
-156
-175
-183
-175
-180
-179
-155
-168
-189
-210
-297
-10
1012
1569
463
-961
-985
-300
-75
-74
36
67
39
68
93
99
110
103
91
100
106
113
147
183
198
217
254
291
323
360
394
416
435
447
415
313
178
58
-45
-127
-178
-211
-233
-228
-214
-211
-205
-194
-193
-191
-180
-177
-180
-175
-169
-174
-176
-164
-149
-143
-141
-141
-148
-144
-123
-112
-114
-93
-65
-84
-128
-142
-143
-158
-161
-156
-161
-143
-129
-156
-157
-171
-113
507
1372
1062
-398
-1137
-623
-100
-32
13
73
49
53
84
90
103
120
127
138
151
166
184
195
204
228
259
286
315
346
378
407
427
436
426
375
278
167
64
-30
-111
-166
-190
-189
-184
-186
-176
-157
-160
-175
-173
-169
-177
-174
-166
-173
-178
-167
-161
-158
-144
-137
-143
-135
-118
-116
-108
-83
-85
-120
-132
-122
-131
-137
-126
-135
-137
-115
-135
-157
-160
-171
255
1241
1427
49
-1191
-948
-262
-96
-72
34
44
34
75
89
90
112
124
131
157
188
200
210
242
279
299
321
362
401
432
474
520
543
526
457
341
203
71
-37
-111
-158
-191
-211
-208
-191
-183
-188
-182
-165
-167
-177
-164
-153
-173
-187
-168
-150
-151
-149
-139
-134
-130
-124
-124
-124
-114
-109
-119
-136
-148
-143
-131
-139
-146
-117
-125
-166
-154
-192
-94
693
1504
824
-769
-1238
-569
-151
-126
-27
27
-23
1
46
25
19
65
97
78
51
60
67
54
52
39
42
117
144
113
240
411
343
238
298
266
73
-11
0
-97
-220
-249
-290
-346
-310
-275
-313
-297
-283
-356
-307
-160
-274
-467
-300
-38
-48
-124
-68
67
137
-20
-178
-52
57
-59
-123
-79
15
207
205
-87
-119
167
162
-90
-90
42
40
-24
-63
332
1384
1797
526
-903
-857
-141
95
49
61
74
107
185
227
212
199
234
291
317
319
347
397
405
378
379
374
319
311
394
436
400
396
404
313
167
71
-2
-91
-150
-186
-257
-332
-335
-297
-308
-354
-338
-277
-286
-324
-285
-256
-285
-219
-75
-66
-186
-241
-205
-173
-175
-186
-187
-178
-187
-212
-232
-251
-272
-273
-268
-284
-290
-264
-281
-341
-334
-355
-374
232
1315
1268
-249
-1286
-916
-308
-165
-128
-50
-8
14
8
0
39
85
107
116
118
147
216
266
270
284
330
375
411
455
498
533
574
598
550
443
318
180
55
-22
-79
-143
-176
-171
-168
-176
-174
-159
-141
-137
-154
-163
-147
-138
-150
-156
-145
-139
-146
-147
-137
-137
-148
-140
-120
-122
-130
-105
-77
-94
-130
-139
-139
-140
-129
-138
-158
-134
-126
-160
-194
-279
-43
1008
1812
858
-786
-1072
-397
-112
-121
-18
21
-12
21
58
63
73
86
107
142
168
183
200
223
260
305
340
370
408
466
537
586
594
565
478
323
175
80
-19
-134
-195
-205
-219
-228
-219
-233
-259
-242
-207
-203
-202
-171
-150
-172
-208
-222
-204
-179
-181
-177
-129
-112
-180
-226
-195
-185
-203
-166
-116
-131
-169
-177
-171
-164
-162
-176
-178
-159
-176
-206
-232
-344
-127
989
1922
999
-782
-1190
-495
-143
-110
4
-3
-49
61
103
22
59
175
163
105
162
249
253
226
234
273
327
388
453
518
574
609
593
525
458
362
183
-2
-109
-189
-258
-271
-267
-281
-279
-262
-250
-232
-235
-258
-238
-190
-184
-197
-176
-141
-123
-137
-184
-210
-176
-168
-227
-210
-91
-62
-147
-172
-125
-116
-123
-109
-106
-93
-56
-78
-150
-165
-148
-158
-147
-134
-161
-160
-140
-156
-189
-252
2
1039
1859
917
-819
-1198
-485
-111
-71
50
79
36
84
121
110
138
176
174
173
202
247
276
273
271
299
343
379
395
418
507
642
706
654
557
451
307
134
-7
-92
-150
-200
-226
-224
-225
-237
-239
-230
-221
-209
-199
-187
-171
-176
-196
-189
-164
-161
-172
-164
-148
-158
-187
-191
-160
-138
-147
-154
-148
-152
-161
-159
-148
-137
-136
-142
-129
-103
-108
-129
-115
-89
-108
-128
-88
-38
-43
-69
-77
-97
-129
-110
-78
-104
-111
-69
-95
-142
-158
-136
423
1513
1573
20
-1160
-795
-160
-71
-34
71
54
43
79
84
103
125
108
113
153
174
183
199
206
224
276
329
355
379
432
486
504
508
518
475
343
199
96
-4
-109
-170
-188
-212
-226
-198
-179
-205
-223
-207
-186
-172
-162
-169
-174
-150
-132
-153
-172
-161
-148
-142
-137
-145
-149
-129
-117
-129
-129
-111
-106
-115
-123
-127
-118
-101
-90
-92
-100
-102
-85
-68
-76
-88
-87
-75
-35
12
9
-32
-58
-63
-65
-62
-62
-75
-68
-31
-39
-80
-89
-136
40
878
1575
808
-657
-1012
-424
-78
-39
32
51
25
60
108
154
205
187
120
122
168
141
104
164
251
294
317
318
318
375
453
485
481
478
467
406
282
143
26
-63
-135
-209
-258
-244
-224
-244
-239
-224
-264
-279
-214
-176
-202
-212
-201
-197
-177
-152
-177
-223
-204
-154
-170
-218
-218
-196
-164
-113
-136
-221
-197
-111
-140
-179
-121
-115
-147
-77
-51
-151
-156
-53
-46
-98
-78
-44
-55
-47
6
19
-56
-130
-109
-43
-27
-31
-50
-41
447
1430
1546
70
-1322
-1195
-445
-120
-26
68
85
91
123
136
141
149
160
181
194
211
238
245
257
310
358
363
378
450
528
547
541
558
561
514
404
236
95
23
-65
-156
-174
-166
-172
-177
-213
-239
-193
-170
-220
-216
-150
-162
-210
-170
-107
-130
-166
-152
-172
-228
-203
-132
-144
-185
-167
-166
-190
-134
-77
-124
-168
-146
-125
-108
-109
-149
-151
-110
-106
-109
-87
-85
-89
-87
-110
-122
-114
-138
-146
-102
-82
-94
-103
-104
-128
-153
283
1347
1681
305
-1151
-1059
-319
-74
-40
57
43
2
63
117
92
62
95
150
158
150
173
189
183
205
244
273
333
400
402
396
462
521
485
406
334
235
107
7
-60
-137
-210
-229
-210
-209
-229
-225
-196
-192
-192
-154
-132
-171
-198
-171
-147
-147
-144
-139
-133
-110
-102
-139
-169
-149
-128
-137
-126
-87
-95
-137
-121
-68
-66
-103
-116
-88
-52
-58
-78
-53
-25
-47
-75
-102
-131
-95
-41
-78
-113
-76
-76
-96
-106
-52
550
1514
1316
-279
-1258
-788
-185
-92
-40
40
16
14
53
76
97
97
81
108
151
166
179
207
228
249
282
320
360
409
464
514
555
589
585
502
354
200
62
-56
-138
-186
-223
-239
-236
-243
-254
-240
-225
-232
-233
-214
-200
-196
-195
-190
-176
-165
-169
-165
-151
-160
-180
-173
-155
-153
-149
-138
-136
-135
-129
-130
-136
-134
-114
-90
-84
-85
-74
-74
-97
-108
-99
-94
-101
-122
-128
-91
-80
-110
-89
-107
-17
768
1707
1160
-557
-1276
-656
-128
-63
15
74
35
72
147
119
56
73
144
201
197
140
136
239
314
282
255
294
340
399
479
518
526
545
515
423
332
191
-21
-137
-134
-181
-251
-246
-250
-284
-252
-216
-252
-275
-246
-206
-174
-197
-250
-229
-167
-159
-162
-142
-159
-194
-188
-179
-184
-150
-101
-128
-184
-153
-88
-106
-141
-90
-52
-112
-128
-48
-50
-138
-136
-78
-102
-161
-166
-131
-95
-101
-133
-125
-118
135
1069
1862
1008
-792
-1412
-770
-220
-55
22
17
34
109
97
69
129
174
164
167
196
233
271
282
267
267
312
384
430
452
512
587
593
549
508
415
255
123
41
-61
-163
-204
-223
-262
-288
-283
-273
-262
-246
-232
-215
-195
-196
-218
-215
-185
-173
-183
-179
-167
-165
-167
-172
-185
-192
-178
-159
-153
-153
-137
-115
-116
-124
-97
-69
-92
-123
-114
-117
-154
-146
-103
-120
-155
-120
-102
-136
-150
-132
249
1225
1648
398
-1173
-1247
-459
-109
-61
49
68
39
92
127
112
132
169
174
174
194
210
229
270
306
318
345
399
458
518
579
644
703
671
514
353
254
123
-29
-103
-143
-214
-262
-280
-302
-292
-254
-244
-230
-200
-222
-270
-242
-158
-132
-178
-207
-192
-201
-232
-217
-174
-169
-171
-150
-142
-152
-150
-146
-157
-152
-109
-76
-99
-116
-84
-89
-151
-152
-105
-120
-149
-134
-146
-155
-115
-136
-195
-195
-107
465
1473
1453
-130
-1313
-923
-243
-115
-43
67
9
-8
79
84
52
93
131
107
101
176
233
187
159
246
339
355
364
410
466
514
551
575
567
505
393
241
84
-25
-96
-167
-217
-230
-234
-219
-196
-206
-216
-193
-180
-183
-173
-166
-167
-161
-163
-172
-168
-168
-173
-152
-126
-133
-142
-123
-114
-135
-144
-123
-96
-75
-61
-61
-69
-65
-62
-79
-101
-107
-99
-82
-81
-107
-87
-41
-91
-166
-173
-105
449
1462
1508
49
-1077
-775
-209
-114
-35
86
41
7
61
70
55
88
115
92
87
143
187
174
166
191
227
268
302
322
358
396
410
435
465
417
294
176
75
-24
-107
-167
-213
-224
-201
-198
-226
-224
-193
-196
-214
-191
-167
-174
-185
-187
-180
-167
-168
-178
-177
-173
-172
-170
-167
-154
-133
-132
-146
-138
-114
-106
-109
-102
-83
-81
-111
-133
-118
-116
-137
-131
-118
-117
-107
-125
-161
-198
-207
237
1237
1503
218
-1070
-971
-346
-141
-88
4
4
5
52
53
42
63
86
107
126
134
157
200
214
200
224
289
336
370
420
458
482
525
546
483
377
277
155
7
-100
-144
-166
-188
-202
-202
-189
-176
-175
-169
-148
-135
-134
-128
-124
-141
-151
-118
-90
-117
-140
-101
-71
-86
-77
-41
-42
-56
-37
-16
-11
-1
5
-7
-23
-31
-31
-28
-25
-19
-14
-15
-15
-5
