# session 1
-14
29
-112
3
584
1047
1032
921
937
900
827
831
812
730
674
640
607
616
656
673
642
575
516
494
477
436
387
367
381
381
335
284
253
226
209
182
134
117
100
41
-6
-144
-232
456
1575
1392
-117
-914
-497
-122
-110
-43
-4
-53
-28
14
9
26
51
54
72
92
91
104
137
156
174
211
247
272
296
316
319
310
289
223
94
-58
-189
-291
-379
-448
-470
-474
-507
-497
-395
-330
-367
-402
-396
-399
-397
-374
-371
-375
-355
-335
-320
-287
-259
-271
-283
-264
-257
-281
-279
-241
-230
-240
-237
-246
-244
-207
-208
-238
-334
-428
164
1458
1689
164
-1054
-754
-211
-173
-126
-10
-39
-55
3
44
75
87
85
125
171
174
185
218
253
306
359
365
360
403
488
538
497
417
370
309
174
21
-80
-129
-156
-177
-196
-213
-224
-218
-201
-188
-182
-175
-179
-192
-186
-163
-163
-180
-176
-168
-166
-145
-131
-150
-145
-105
-99
-118
-114
-106
-110
-113
-109
-79
-58
-95
-122
-199
-252
410
1636
1649
72
-977
-610
-130
-88
-4
86
39
47
102
91
87
124
143
149
170
203
224
219
229
285
332
343
369
413
422
412
425
419
335
196
70
-17
-89
-153
-192
-208
-226
-234
-212
-180
-168
-175
-186
-184
-164
-151
-161
-169
-150
-130
-144
-169
-158
-128
-126
-139
-140
-138
-137
-132
-129
-124
-123
-139
-137
-119
-151
-176
-188
-277
6
1028
1589
554
-779
-854
-329
-171
-136
-27
-25
-44
3
16
-3
15
58
88
96
95
112
140
165
196
237
265
285
314
345
366
385
384
332
244
145
38
-63
-130
-163
-188
-206
-211
-206
-190
-173
-173
-177
-169
-166
-171
-172
-164
-155
-150
-156
-160
-150
-141
-144
-139
-125
-123
-128
-136
-154
-152
-136
-138
-123
-110
-159
-180
-225
-292
312
1550
1635
52
-1070
-713
-199
-163
-106
-13
-39
-20
29
9
15
70
86
85
120
151
157
178
218
252
287
337
373
385
407
446
455
403
306
185
46
-82
-165
-209
-242
-259
-251
-240
-245
-247
-232
-211
-201
-203
-200
-182
-167
-165
-162
-154
-147
-142
-140
-145
-136
-117
-113
-117
-125
-134
-123
-114
-124
-104
-95
-138
-163
-253
-234
611
1795
1461
-248
-1066
-553
-134
-122
-34
33
-4
26
64
42
61
122
138
127
143
170
185
206
245
279
310
356
399
424
448
473
461
401
298
156
10
-92
-157
-212
-247
-249
-239
-240
-244
-228
-202
-206
-222
-205
-177
-186
-202
-183
-160
-160
-159
-155
-163
-159
-129
-120
-141
-155
-154
-147
-136
-150
-160
-122
-121
-170
-179
-257
-180
691
1664
1096
-490
-1037
-487
-138
-131
-65
-21
-27
7
23
15
38
64
79
98
108
112
139
180
215
243
259
275
322
380
394
384
392
369
270
141
26
-82
-165
-200
-209
-221
-225
-216
-204
-195
-186
-183
-186
-183
-167
-151
-151
-154
-148
-144
-141
-128
-122
-129
-131
-128
-124
-112
-113
-124
-107
-99
-130
-117
-81
-128
-158
-180
-227
324
1509
1647
132
-1014
-691
-156
-110
-64
35
9
5
51
54
58
85
104
127
152
160
180
221
251
277
326
377
409
450
500
521
509
466
359
200
49
-72
-167
-222
-236
-241
-257
-269
-262
-251
-248
-242
-235
-229
-223
-218
-219
-218
-207
-195
-194
-203
-205
-192
-175
-168
-175
-181
-175
-179
-192
-181
-177
-192
-168
-148
-182
-211
-313
-256
652
1783
1291
-473
-1185
-576
-153
-154
-62
7
-25
13
58
53
72
100
108
134
164
185
215
243
271
328
383
408
450
517
549
543
522
442
292
134
3
-107
-183
-223
-252
-268
-262
-251
-246
-239
-228
-217
-210
-201
-185
-170
-171
-180
-178
-161
-152
-157
-154
-137
-132
-136
-132
-128
-128
-125
-134
-149
-144
-142
-145
-125
-133
-161
-176
-310
-186
885
1909
1095
-664
-1093
-414
-96
-116
-16
33
2
37
68
68
92
113
119
142
173
198
222
245
271
319
378
421
450
489
531
541
500
405
266
114
-16
-120
-203
-248
-252
-250
-255
-249
-232
-223
-224
-218
-204
-191
-181
-177
-177
-173
-166
-167
-167
-156
-149
-157
-156
-141
-138
-142
-128
-118
-129
-138
-138
-137
-129
-140
-151
-115
-108
-150
-163
-298
-313
614
1836
1383
-372
-1064
-479
-107
-124
-32
21
-27
7
48
31
46
83
94
113
140
151
170
207
239
269
311
351
387
425
455
468
463
403
274
133
23
-73
-154
-201
-226
-242
-244
-241
-236
-221
-205
-203
-198
-177
-167
-174
-175
-158
-146
-156
-171
-168
-154
-148
-150
-145
-141
-138
-122
-109
-117
-120
-105
-99
-106
-108
-113
-114
-115
-128
-103
-59
-99
-147
-186
-335
-35
1166
1830
646
-847
-895
-296
-126
-107
-20
-28
-35
11
17
25
62
67
70
114
149
154
167
207
260
305
335
367
407
442
473
491
462
387
291
175
56
-36
-95
-138
-166
-177
-176
-172
-166
-155
-146
-139
-127
-115
-117
-129
-131
-122
-123
-138
-138
-122
-121
-134
-138
-132
-126
-129
-140
-139
-120
-109
-112
-106
-100
-99
-83
-70
-85
-94
-91
-103
-110
-104
-110
-94
-84
-121
-150
-256
-274
556
1831
1577
-259
-1251
-697
-148
-113
-41
44
13
36
82
75
91
126
127
135
166
191
218
258
294
322
363
418
470
521
574
606
586
505
371
202
43
-80
-173
-240
-280
-304
-320
-319
-302
-283
-273
-269
-262
-249
-241
-245
-245
-236
-228
-228
-228
-219
-211
-211
-210
-202
-195
-193
-190
-181
-172
-171
-173
-162
-135
-119
-126
-124
-96
-84
-103
-116
-116
-117
-110
-110
-111
-75
-64
-100
-126
-229
-129
813
1818
1144
-605
-1167
-481
-47
-42
35
90
58
83
119
121
138
161
176
200
221
229
243
271
311
356
392
426
474
527
566
589
574
492
360
221
91
-26
-114
-171
-206
-226
-236
-236
-228
-218
-210
-205
-200
-188
-171
-161
-155
-145
-140
-148
-157
-151
-139
-132
-133
-133
-129
-125
-123
-120
-113
-102
-93
-96
-106
-99
-80
-68
-50
-36
-61
-98
-109
-111
-109
-107
-129
-131
-108
-139
-172
-191
-228
205
1249
1470
66
-1198
-947
-259
-106
-89
11
13
5
51
66
72
101
121
136
156
178
205
233
258
296
346
393
437
489
539
576
593
565
468
325
180
53
-59
-146
-199
-231
-256
-268
-264
-262
-264
-257
-245
-237
-234
-232
-230
-218
-206
-205
-203
-194
-189
-187
-180
-173
-164
-151
-148
-153
-139
-116
-113
-101
-66
-63
-98
-114
-112
-116
-111
-111
-116
-90
-84
-122
-145
-198
-34
825
1585
782
-851
-1276
-572
-134
-88
13
71
43
74
118
125
139
154
164
191
218
230
254
292
327
362
407
460
513
560
595
609
579
494
364
210
60
-55
-131
-189
-234
-252
-254
-259
-259
-247
-236
-232
-225
-211
-203
-202
-197
-191
-186
-179
-174
-175
-172
-166
-161
-161
-157
-144
-136
-144
-142
-117
-109
-115
-89
-65
-94
-127
-127
-127
-128
-124
-132
-118
-100
-130
-151
-205
-193
491
1562
1336
-333
-1289
-764
-166
-95
-37
55
35
47
94
95
103
133
145
158
182
202
226
257
285
319
364
413
461
507
548
579
585
531
409
258
112
-14
-113
-180
-218
-238
-249
-256
-253
-242
-234
-227
-215
-203
-196
-191
-186
-183
-180
-175
-171
-173
-176
-173
-168
-166
-161
-148
-144
-147
-131
-112
-114
-105
-79
-88
-121
-128
-127
-136
-127
-123
-130
-108
-108
-146
-158
-215
-41
890
1705
857
-819
-1213
-506
-119
-100
-2
38
0
42
89
88
102
125
133
150
176
195
214
241
276
316
357
401
450
493
525
545
533
467
348
207
74
-36
-120
-176
-211
-229
-236
-234
-230
-227
-221
-210
-201
-194
-185
-177
-174
-170
-165
-165
-166
-164
-164
-162
-160
-159
-151
-140
-143
-145
-127
-112
-111
-91
-71
-93
-125
-128
-131
-130
-118
-129
-131
-102
-121
-154
-165
-223
124
1196
1658
372
-1093
-1030
-312
-101
-88
21
35
21
69
83
81
111
131
141
165
189
209
237
268
300
341
387
436
485
530
565
583
562
477
340
191
56
-51
-127
-177
-210
-225
-225
-224
-221
-215
-211
-208
-196
-182
-180
-182
-177
-174
-178
-181
-178
-175
-176
-174
-169
-169
-168
-154
-145
-153
-153
-135
-126
-124
-99
-81
-100
-127
-139
-145
-137
-131
-145
-127
-107
-144
-162
-213
-234
437
1609
1491
-214
-1273
-783
-185
-126
-62
42
14
17
65
67
76
108
118
130
156
174
194
230
264
299
350
409
463
516
567
605
609
551
424
259
100
-32
-131
-201
-244
-266
-274
-275
-271
-261
-251
-246
-241
-226
-206
-198
-203
-204
-195
-179
-167
-165
-165
-163
-163
-158
-144
-144
-156
-145
-124
-122
-111
-78
-74
-101
-113
-118
-122
-113
-115
-119
-93
-99
-126
-138
-243
-65
977
1828
871
-836
-1132
-395
-68
-79
27
69
33
69
102
95
111
135
146
160
178
199
228
259
292
332
371
417
480
539
576
591
571
485
342
184
40
-78
-162
-211
-236
-253
-261
-257
-247
-239
-234
-229
-219
-210
-206
-202
-198
-199
-198
-186
-180
-185
-185
-181
-182
-184
-177
-165
-161
-162
-152
-135
-133
-123
-90
-81
-111
-124
-124
-138
-133
-121
-136
-123
-98
-135
-153
-196
-219
422
1562
1448
-219
-1232
-714
-122
-91
-47
54
29
33
82
77
83
118
125
130
157
179
198
229
261
288
330
388
440
479
517
553
566
524
418
271
123
1
-94
-171
-221
-233
-228
-229
-233
-229
-222
-211
-205
-206
-201
-187
-182
-183
-179
-176
-175
-171
-168
-170
-168
-160
-155
-150
-137
-133
-141
-140
-129
-123
-104
-68
-62
-91
-107
-110
-120
-114
-103
-111
-98
-89
-121
-132
-195
-165
602
1661
1270
-431
-1202
-584
-77
-73
-13
65
34
50
91
87
101
129
136
154
181
194
212
249
286
319
362
415
468
514
553
585
588
531
414
265
110
-25
-120
-178
-214
-242
-264
-269
-252
-233
-225
-225
-223
-215
-207
-203
-198
-193
-191
-183
-179
-188
-193
-182
-175
-174
-174
-178
-173
-156
-153
-164
-152
-128
-132
-135
-102
-83
-109
-131
-132
-134
-130
-130
-136
-117
-113
-145
-150
-227
-182
640
1650
1097
-646
-1297
-602
-104
-93
-13
69
40
60
101
98
108
136
152
169
191
211
237
271
305
342
393
452
509
558
602
635
628
554
419
254
95
-35
-130
-194
-232
-250
-257
-258
-255
-249
-242
-233
-225
-215
-206
-198
-192
-186
-181
-180
-176
-172
-170
-167
-163
-160
-153
-143
-147
-154
-141
-127
-134
-125
-91
-87
-115
-129
-132
-133
-127
-134
-134
-108
-121
-142
-150
-276
-113
921
1740
775
-879
-1122
-373
-55
-72
27
70
39
73
98
90
113
142
152
168
192
214
238
269
306
350
401
458
511
559
604
629
597
494
338
169
18
-97
-174
-219
-249
-268
-269
-260
-256
-252
-244
-235
-224
-214
-209
-205
-198
-194
-191
-184
-180
-178
-174
-169
-165
-163
-161
-158
-148
-133
-132
-141
-130
-110
-112
-106
-72
-68
-102
-117
-118
-126
-118
-116
-125
-101
-96
-129
-132
-202
-113
758
1695
1010
-697
-1197
-467
-41
-66
8
73
36
56
92
90
108
133
140
155
179
198
223
252
282
321
368
415
466
517
556
580
575
512
386
235
92
-29
-122
-183
-218
-236
-245
-248
-243
-233
-225
-220
-212
-202
-196
-195
-190
-184
-180
-177
-171
-166
-165
-164
-161
-158
-157
-155
-149
-144
-145
-138
-131
-140
-142
-124
-113
-106
-77
-65
-95
-117
-113
-115
-113
-106
-116
-103
-82
-114
-128
-167
-210
351
1433
1384
-204
-1236
-735
-97
-45
-22
77
59
53
96
98
104
133
145
155
179
201
226
256
279
302
341
392
445
490
524
553
564
524
423
286
140
10
-89
-156
-200
-225
-236
-238
-231
-222
-214
-204
-193
-189
-188
-182
-173
-168
-164
-159
-156
-154
-154
-155
-153
-150
-150
-150
-148
-144
-141
-142
-139
-129
-121
-130
-141
-127
-108
-106
-90
-60
-64
-92
-100
-106
-114
-100
-101
-113
-84
-82
-118
-129
-203
-33
913
1676
752
-858
-1098
-350
-29
-53
42
87
54
87
117
111
128
152
161
180
205
227
251
279
309
346
395
449
496
538
583
611
596
524
396
235
83
-37
-130
-199
-239
-257
-262
-256
-247
-249
-249
-231
-214
-216
-217
-205
-199
-200
-193
-185
-187
-189
-180
-171
-169
-170
-170
-168
-166
-163
-154
-141
-141
-141
-123
-115
-126
-111
-80
-89
-114
-120
-129
-131
-114
-120
-121
-92
-109
-137
-153
-218
132
1155
1494
149
-1218
-1027
-267
-62
-49
63
78
64
111
127
123
150
169
180
203
223
240
266
296
327
371
421
467
511
554
585
596
566
469
317
157
17
-97
-174
-219
-246
-261
-263
-260
-255
-248
-241
-235
-227
-216
-204
-197
-196
-192
-184
-180
-178
-174
-171
-171
-169
-167
-168
-169
-167
-160
-149
-146
-157
-152
-131
-126
-120
-86
-71
-102
-123
-118
-124
-122
-112
-122
-110
-87
-121
-142
-180
-228
309
1385
1388
-135
-1158
-694
-88
-46
-27
68
49
44
88
93
100
128
140
154
178
198
218
247
276
310
351
397
444
487
524
554
565
532
442
310
167
45
-46
-112
-156
-178
-187
-188
-184
-177
-168
-157
-146
-140
-136
-130
-124
-117
-112
-108
-104
-100
-95
-92
-92
-90
-86
-86
-85
-80
-79
-81
-74
-76
-91
-86
-70
-70
-58
-24
-26
-62
-73
-75
-91
-90
-90
-100
-83
-86
-124
-147
-245
-145
754
1668
972
-661
-1113
-459
-117
-148
-70
-24
-65
-40
-13
-34
-29
-7
-3
1
14
