# session 28
-14
10
-29
-48
92
307
397
392
416
438
404
334
238
123
18
-68
-135
-175
-193
-204
-207
-202
-193
-186
-176
-166
-158
-152
-145
-138
-134
-130
-125
-121
-118
-115
-114
-114
-108
-98
-97
-100
-84
-64
-72
-77
-50
-40
-68
-82
-76
-86
-83
-71
-83
-71
-47
-85
-102
-123
-172
374
1525
1550
-116
-1281
-791
-107
-55
-40
66
42
32
79
76
73
98
106
112
130
143
156
177
197
219
250
284
320
360
399
430
448
454
436
377
283
176
72
-21
-93
-140
-168
-184
-192
-194
-189
-183
-177
-171
-165
-159
-154
-147
-143
-141
-140
-140
-140
-140
-138
-139
-140
-140
-140
-138
-128
-124
-130
-120
-98
-100
-104
-78
-63
-92
-111
-105
-111
-110
-99
-112
-106
-77
-111
-134
-145
-218
215
1361
1612
76
-1258
-920
-186
-79
-80
29
18
1
47
50
46
74
83
85
103
119
133
153
174
196
225
258
292
332
375
407
423
432
428
387
306
206
104
6
-73
-123
-155
-178
-188
-185
-178
-171
-163
-157
-156
-156
-152
-145
-140
-140
-140
-137
-132
-130
-132
-134
-137
-138
-136
-136
-139
-132
-118
-120
-126
-109
-95
-103
-92
-62
-69
-98
-103
-108
-119
-108
-107
-116
-89
-91
-126
-121
-188
-65
827
1628
739
-963
-1294
-504
-109
-114
-9
49
15
47
75
61
78
102
106
122
146
161
180
202
222
250
285
319
359
407
450
483
504
503
466
388
278
158
47
-43
-112
-159
-187
-200
-205
-204
-200
-196
-186
-174
-167
-164
-158
-151
-146
-141
-138
-139
-139
-136
-136
-138
-137
-136
-132
-125
-125
-130
-118
-105
-112
-108
-76
-71
-100
-110
-106
-113
-106
-101
-114
-98
-87
-122
-123
-169
-141
588
1566
1088
-641
-1362
-675
-127
-102
-30
55
22
33
72
66
74
98
102
113
134
148
164
186
207
233
268
306
346
389
430
461
479
480
448
369
257
140
33
-59
-125
-165
-188
-200
-203
-202
-198
-193
-186
-179
-171
-163
-158
-153
-149
-145
-143
-141
-139
-136
-134
-134
-135
-134
-133
-129
-119
-110
-115
-111
-89
-82
-93
-79
-53
-68
-99
-100
-103
-110
-98
-103
-112
-82
-91
-133
-135
-207
-18
996
1781
753
-957
-1179
-386
-68
-99
-3
32
-4
31
52
39
58
77
78
91
109
122
139
159
180
206
237
275
317
357
393
421
437
436
403
328
226
120
22
-61
-122
-161
-184
-196
-199
-196
-193
-188
-181
-173
-165
-158
-153
-147
-142
-138
-135
-132
-131
-130
-129
-127
-126
-126
-124
-123
-119
-110
-107
-113
-102
-80
-79
-84
-60
-43
-66
-86
-85
-95
-97
-84
-93
-85
-57
-92
-119
-125
-199
213
1373
1703
197
-1216
-948
-206
-77
-72
44
35
15
61
62
51
79
94
94
106
125
145
166
184
205
238
274
308
346
389
426
455
476
470
417
325
216
105
-3
-94
-153
-184
-201
-214
-221
-216
-206
-205
-208
-201
-184
-173
-170
-167
-162
-160
-159
-158
-155
-153
-153
-158
-157
-150
-147
-145
-142
-144
-139
-117
-115
-127
-108
-80
-96
-118
-115
-122
-125
-113
-121
-118
-88
-111
-135
-137
-204
156
1232
1578
135
-1307
-1087
-298
-109
-90
44
54
23
64
80
77
103
121
125
139
161
185
206
224
250
286
324
364
410
457
499
525
535
521
468
370
243
113
1
-77
-128
-163
-187
-199
-202
-201
-196
-190
-183
-174
-166
-159
-154
-151
-149
-143
-139
-137
-135
-133
-136
-140
-141
-139
-139
-139
-136
-132
-134
-128
-111
-110
-115
-94
-74
-93
-113
-112
-123
-124
-107
-114
-111
-81
-110
-138
-135
-216
110
1213
1663
277
-1220
-1065
-284
-91
-91
26
32
7
51
62
55
82
95
94
113
133
145
163
186
211
242
277
316
360
403
435
456
471
465
417
326
215
106
7
-76
-133
-167
-186
-196
-197
-195
-193
-187
-177
-168
-164
-160
-154
-150
-148
-145
-144
-142
-139
-141
-144
-141
-138
-140
-142
-140
-132
-123
-124
-123
-103
-90
-100
-90
-59
-68
-101
-105
-103
-112
-101
-98
-109
-82
-78
-124
-132
-192
-87
813
1768
1036
-746
-1257
-502
-69
-96
-19
40
2
30
64
49
61
86
89
98
117
130
148
170
191
215
247
284
325
366
403
430
449
454
426
356
256
149
48
-37
-102
-146
-172
-185
-190
-192
-189
-182
-175
-169
-160
-153
-149
-144
-138
-134
-133
-130
-128
-127
-127
-128
-129
-129
-130
-134
-134
-130
-126
-119
-113
-118
-118
-100
-92
-96
-75
-49
-68
-95
-92
-96
-107
-96
-105
-113
-77
-85
-122
-121
-195
31
1076
1768
626
-1030
-1142
-362
-87
-101
7
32
-3
36
58
52
73
90
95
116
133
141
159
183
207
239
278
314
354
404
448
475
493
493
454
375
273
156
43
-47
-113
-162
-193
-204
-208
-210
-206
-197
-189
-187
-184
-177
-173
-170
-161
-152
-152
-155
-153
-151
-152
-154
-155
-152
-148
-142
-132
-125
-130
-131
-116
-110
-118
-102
-78
-88
-111
-117
-123
-121
-110
-120
-114
-86
-115
-138
-139
-202
181
1260
1551
72
-1323
-1055
-283
-114
-89
43
48
25
69
77
74
101
113
118
143
165
181
202
226
252
286
325
368
419
467
503
530
546
530
461
350
222
100
-7
-93
-149
-182
-200
-211
-214
-212
-207
-201
-194
-187
-180
-172
-165
-157
-152
-146
-143
-142
-142
-142
-143
-146
-148
-147
-147
-149
-145
-134
-130
-136
-126
-102
-103
-107
-81
-65
-93
-112
-107
-115
-114
-101
-112
-102
-75
-112
-132
-145
-203
300
1481
1645
19
-1280
-886
-167
-80
-72
35
18
5
54
55
52
78
86
89
109
129
143
160
177
201
235
270
307
353
398
430
453
467
454
399
306
198
89
-11
-86
-134
-167
-187
-195
-199
-199
-191
-180
-175
-172
-165
-156
-152
-149
-145
-144
-145
-142
-134
-135
-140
-140
-139
-143
-145
-137
-131
-127
-119
-121
-128
-111
-87
-94
-98
-67
-58
-90
-100
-94
-107
-105
-91
-107
-94
-66
-107
-129
-148
-169
428
1574
1513
-198
-1307
-778
-121
-83
-57
45
15
13
64
59
56
82
90
97
119
135
144
161
183
209
239
274
315
357
392
422
452
469
452
395
309
207
97
-2
-77
-126
-155
-172
-184
-188
-184
-178
-174
-169
-163
-160
-154
-144
-137
-134
-131
-131
-135
-134
-128
-127
-132
-137
-136
-131
-130
-134
-132
-124
-113
-103
-110
-121
-108
-88
-92
-83
-50
-51
-87
-96
-90
-100
-99
-101
-111
-81
-73
-123
-130
-163
-68
750
1675
1012
-757
-1343
-604
-116
-110
-28
36
0
25
61
51
64
91
100
110
120
135
162
185
205
235
269
309
356
401
441
479
511
526
498
415
302
185
67
-41
-115
-159
-193
-217
-224
-220
-211
-203
-200
-200
-192
-179
-168
-160
-158
-156
-146
-139
-143
-142
-141
-148
-150
-141
-140
-139
-129
-127
-130
-119
-111
-122
-110
-73
-75
-108
-115
-111
-119
-114
-111
-120
-96
-91
-129
-128
-183
-122
694
1650
1012
-755
-1351
-613
-122
-114
-28
52
22
38
71
71
83
97
103
129
151
158
176
200
219
251
298
337
377
429
471
500
525
529
487
400
280
151
39
-53
-125
-169
-188
-198
-207
-212
-210
-203
-195
-187
-178
-171
-167
-162
-152
-145
-145
-147
-145
-143
-141
-141
-142
-144
-147
-146
-137
-129
-131
-130
-111
-101
-113
-103
-69
-75
-110
-116
-112
-119
-110
-108
-117
-91
-89
-133
-140
-204
-116
772
1767
1101
-681
-1249
-520
-80
-107
-32
32
-6
15
48
37
50
72
73
85
104
114
130
154
176
198
228
266
310
355
394
425
446
452
429
364
264
152
46
-41
-106
-149
-173
-184
-189
-191
-187
-179
-173
-168
-162
-155
-149
-145
-143
-140
-134
-130
-131
-131
-129
-128
-128
-127
-126
-127
-125
-115
-113
-120
-109
-86
-88
-92
-63
-49
-79
-97
-89
-95
-94
-79
-91
-83
-59
-100
-126
-141
-200
304
1497
1675
61
-1231
-854
-167
-92
-77
29
4
-5
52
52
42
66
74
78
97
110
121
143
172
201
232
267
308
352
393
429
460
479
470
414
315
200
88
-11
-92
-151
-188
-209
-219
-220
-215
-211
-206
-197
-189
-184
-179
-174
-171
-165
-160
-159
-160
-154
-149
-151
-153
-149
-144
-138
-133
-136
-137
-119
-106
-112
-101
-69
-74
-110
-121
-118
-122
-113
-112
-118
-93
-99
-136
-134
-192
-45
878
1685
764
-976
-1313
-512
-114
-115
-5
53
15
45
77
72
91
110
111
124
147
166
189
214
239
270
305
344
395
449
491
521
545
550
504
401
270
144
30
-69
-136
-172
-194
-210
-217
-215
-210
-206
-200
-191
-182
-176
-170
-166
-160
-152
-146
-144
-146
-148
-147
-146
-148
-149
-143
-132
-135
-142
-128
-112
-121
-118
-85
-79
-109
-122
-122
-129
-120
-116
-129
-106
-92
-132
-138
-192
-179
580
1658
1240
-545
-1343
-666
-110
-100
-37
50
15
25
66
60
66
89
95
106
125
137
152
176
199
223
258
301
344
386
428
465
487
493
468
392
277
155
46
-46
-115
-159
-185
-198
-203
-204
-200
-194
-187
-182
-176
-169
-163
-160
-157
-152
-147
-146
-147
-146
-145
-145
-145
-146
-145
-136
-130
-136
-131
-106
-100
-114
-97
-70
-87
-113
-113
-118
-122
-105
-111
-116
-83
-100
-139
-137
-220
15
1103
1824
661
-1020
-1125
-336
-74
-101
4
27
-7
36
55
41
59
77
82
100
115
125
146
170
191
217
253
294
337
380
418
447
464
461
419
333
224
114
13
-72
-131
-164
-184
-194
-198
-198
-197
-191
-183
-174
-169
-161
-153
-147
-145
-142
-138
-136
-135
-133
-131
-132
-135
-137
-135
-133
-130
-120
-116
-123
-116
-92
-87
-95
-73
-49
-70
-97
-94
-95
-101
-91
-98
-102
-72
-90
-121
-116
-201
29
1108
1822
668
-998
-1103
-324
-64
-86
21
38
-2
39
60
46
62
77
82
102
122
134
154
177
197
222
257
304
355
397
430
461
487
486
445
364
253
132
19
-74
-139
-177
-197
-213
-224
-222
-210
-202
-203
-197
-185
-178
-175
-168
-163
-161
-156
-152
-149
-146
-145
-148
-146
-139
-141
-147
-140
-126
-128
-138
-128
-105
-99
-100
-81
-74
-98
-113
-108
-115
-113
-101
-113
-106
-82
-112
-127
-149
-191
340
1438
1422
-249
-1409
-906
-192
-110
-73
53
39
30
81
85
81
105
116
124
147
163
177
200
227
258
294
332
378
429
473
507
534
547
527
456
341
210
90
-11
-92
-149
-180
-196
-208
-213
-210
-203
-195
-188
-179
-173
-167
-158
-149
-144
-145
-145
-143
-140
-139
-139
-140
-142
-143
-142
-142
-137
-128
-130
-136
-120
-100
-111
-111
-75
-64
-96
-109
-104
-111
-106
-100
-112
-94
-81
-120
-127
-179
-178
542
1630
1294
-465
-1331
-692
-110
-88
-36
50
17
27
70
62
65
92
100
107
124
138
153
173
197
224
256
294
338
383
423
456
480
487
462
389
277
155
46
-46
-118
-163
-186
-203
-218
-223
-214
-207
-210
-211
-198
-181
-164
-148
-148
-169
-178
-164
-168
-186
-173
-152
-156
-153
-145
-169
-178
-141
-110
-100
-109
-149
-157
-111
-97
-108
-65
-20
-42
-82
-97
-95
-71
-50
-78
-91
-54
-77
-123
-133
-191
139
1229
1750
478
-1028
-982
-256
-54
-64
29
43
30
65
74
82
101
94
101
130
136
142
165
169
177
218
252
269
308
343
348
362
394
405
384
323
222
140
98
42
-40
-95
-110
-120
-137
-151
-144
-122
-126
-152
-151
-130
-123
-120
-123
-142
-145
-123
-118
-141
-160
-152
-132
-124
-132
-134
-140
-161
-158
-118
-96
-129
-148
-95
-57
-107
-153
-130
-121
-143
-120
-99
-128
-129
-122
-143
-136
-183
-40
866
1698
806
-981
-1387
-597
-178
-170
-53
9
-26
9
44
32
47
70
78
98
123
138
159
188
215
243
278
322
371
418
459
492
514
514
478
400
288
164
43
-50
-105
-145
-186
-212
-226
-237
-231
-212
-205
-202
-183
-162
-151
-144
-140
-143
-147
-145
-140
-132
-125
-130
-142
-143
-123
-104
-108
-116
-102
-91
-112
-139
-149
-145
-137
-136
-148
-141
-123
-147
-176
-160
-65
457
1438
1626
171
-1384
-1390
-608
-256
-172
-35
11
7
53
74
71
93
112
123
146
172
197
227
257
290
333
379
426
480
533
574
604
623
609
535
406
257
121
4
-91
-158
-196
-222
-239
-244
-246
-245
-234
-219
-207
-194
-177
-165
-163
-165
-161
-155
-158
-165
-163
-155
-152
-148
-150
-159
-155
-138
-135
-134
-106
-84
-104
-134
-141
-142
-142
-135
-142
-146
-114
-119
-172
-209
-267
5
1061
1811
756
-958
-1220
-492
-193
-192
-60
-10
-42
4
40
25
37
67
85
101
119
138
160
183
209
241
277
317
368
425
472
503
528
536
488
380
248
119
2
-90
-155
-202
-228
-233
-238
-247
-243
-234
-230
-221
-209
-203
-199
-190
-187
-190
-190
-186
-179
-164
-156
-163
-158
-141
-143
-152
-130
-105
-124
-152
-153
-151
-153
-141
-140
-153
-130
-124
-169
-209
-297
-118
931
1955
1178
-654
-1206
-537
-176
-183
-59
8
-32
8
47
27
41
79
95
108
127
146
173
198
213
241
294
347
394
446
499
542
574
582
539
432
294
163
46
-54
-124
-166
-189
-199
-205
-212
-209
-195
-184
-181
-174
-164
-155
-153
-153
-147
-142
-139
-129
-118
-122
-124
-106
-101
-116
-108
-74
-74
-110
-125
-120
-125
-122
-115
-132
-124
-101
-143
-190
-264
-299
418
1762
1797
18
-1219
-803
-228
-212
-158
-41
-74
-76
-25
-32
-37
-13
-9
-1
23
32
