# session 19
139
125
151
53
-108
-119
-90
-108
-102
-249
-303
536
1533
786
-1115
-1691
-816
-198
-131
-11
95
72
98
152
161
186
235
277
339
429
531
637
726
766
752
689
573
403
214
51
-75
-170
-235
-281
-315
-328
-321
-310
-297
-281
-272
-272
-270
-266
-266
-269
-269
-270
-272
-269
-261
-257
-255
-252
-251
-247
-227
-209
-216
-222
-202
-186
-199
-219
-209
-185
-189
-191
-156
-164
-189
-162
-315
-373
591
1821
1108
-1048
-1808
-879
-192
-138
-29
76
49
83
142
147
179
242
294
363
460
567
682
784
838
838
793
697
544
358
185
47
-62
-147
-204
-238
-253
-256
-248
-233
-219
-209
-197
-186
-181
-182
-180
-171
-164
-168
-173
-173
-173
-177
-174
-165
-158
-155
-149
-146
-155
-158
-138
-122
-130
-131
-104
-89
-109
-125
-105
-91
-110
-99
-67
-86
-80
-126
-344
-14
1284
1790
165
-1555
-1349
-390
-104
-76
76
112
101
162
191
199
243
288
336
417
513
617
726
810
844
830
764
643
483
310
151
28
-62
-139
-201
-227
-224
-224
-230
-227
-213
-198
-194
-201
-203
-197
-197
-204
-206
-204
-201
-196
-190
-192
-197
-188
-174
-172
-165
-144
-143
-161
-152
-127
-136
-160
-151
-128
-129
-125
-97
-104
-116
-92
-193
-211
477
1265
577
-1122
-1665
-839
-192
-100
1
118
117
138
187
201
229
278
322
381
466
562
669
770
831
837
792
688
521
327
158
30
-70
-142
-188
-220
-235
-235
-232
-227
-213
-198
-191
-187
-180
-176
-179
-182
-183
-189
-196
-198
-196
-194
-188
-186
-185
-169
-153
-163
-175
-154
-131
-141
-162
-152
-130
-140
-135
-98
-120
-133
-94
-271
-316
651
1716
870
-1120
-1678
-787
-188
-116
9
103
84
116
161
166
198
249
292
356
445
543
651
751
813
824
782
683
527
336
157
16
-90
-169
-222
-254
-273
-280
-274
-259
-242
-228
-218
-209
-201
-194
-190
-191
-193
-189
-179
-177
-181
-181
-177
-177
-170
-152
-153
-169
-159
-135
-137
-163
-171
-147
-137
-157
-137
-109
-143
-135
-194
-416
59
1513
1864
-28
-1698
-1291
-326
-112
-74
75
79
71
143
163
172
230
284
338
426
532
649
771
861
892
868
797
664
472
269
103
-26
-134
-216
-262
-285
-295
-292
-284
-281
-276
-262
-249
-244
-237
-226
-220
-222
-222
-217
-212
-210
-207
-201
-195
-195
-198
-190
-174
-173
-180
-159
-124
-126
-158
-163
-132
-118
-127
-101
-84
-116
-93
-140
-330
102
1305
1440
-319
-1720
-1250
-342
-128
-62
106
123
112
177
203
210
259
310
356
426
521
639
758
840
869
853
786
656
475
291
137
9
-93
-160
-203
-233
-246
-242
-235
-227
-216
-209
-206
-199
-194
-198
-203
-201
-205
-212
-211
-208
-209
-205
-199
-195
-180
-166
-179
-186
-160
-143
-164
-181
-161
-140
-149
-144
-113
-128
-137
-113
-266
-269
604
1495
642
-1201
-1675
-793
-196
-116
4
97
77
110
162
173
206
258
303
367
457
561
677
782
842
850
806
700
531
333
154
13
-96
-175
-225
-255
-271
-273
-263
-247
-232
-221
-213
-204
-194
-178
-159
-152
-159
-169
-173
-174
-173
-164
-149
-151
-173
-175
-155
-154
-176
-184
-164
-151
-164
-146
-119
-154
-144
-158
-380
-92
1237
1843
219
-1607
-1437
-426
-114
-92
54
78
60
129
162
167
218
269
321
409
514
625
747
848
895
887
821
684
495
297
125
-14
-121
-196
-246
-279
-291
-282
-268
-262
-255
-237
-217
-207
-209
-213
-209
-201
-197
-198
-199
-202
-204
-204
-204
-203
-195
-186
-181
-176
-176
-179
-166
-142
-142
-163
-156
-126
-121
-140
-140
-114
-108
-122
-104
-94
-120
-93
-169
-348
211
1511
1549
-335
-1696
-1156
-287
-124
-64
94
110
115
177
184
191
249
294
327
396
496
611
724
810
850
846
792
669
490
305
150
27
-71
-147
-202
-235
-252
-255
-248
-238
-225
-212
-204
-202
-200
-202
-203
-199
-199
-203
-199
-193
-198
-203
-196
-188
-188
-174
-148
-147
-163
-152
-126
-136
-167
-166
-136
-130
-143
-116
-99
-131
-105
-150
-342
62
1227
1385
-293
-1664
-1239
-353
-122
-62
86
107
105
167
192
205
253
297
343
422
516
616
727
822
868
856
785
650
460
261
95
-30
-124
-189
-232
-258
-272
-272
-262
-250
-238
-222
-207
-200
-198
-197
-196
-195
-194
-196
-199
-200
-201
-201
-197
-193
-189
-175
-159
-165
-176
-161
-137
-138
-160
-165
-140
-132
-146
-117
-100
-142
-117
-172
-393
109
1505
1711
-195
-1736
-1278
-351
-131
-68
76
75
69
136
158
170
220
267
319
396
488
596
718
821
880
880
824
711
531
323
168
61
-68
-194
-246
-260
-292
-308
-287
-268
-259
-243
-227
-221
-215
-205
-195
-189
-189
-194
-196
-189
-185
-189
-192
-186
-181
-180
-178
-175
-174
-163
-137
-131
-157
-166
-136
-116
-124
-137
-139
-122
-114
-128
-104
-80
-119
-129
-228
-387
307
1800
1813
-294
-1717
-1077
-212
-115
-68
69
52
65
141
150
165
221
261
316
410
508
612
735
836
876
865
815
706
533
337
167
28
-86
-172
-230
-261
-268
-269
-273
-268
-254
-245
-238
-229
-227
-229
-220
-209
-210
-217
-217
-213
-217
-219
-202
-187
-196
-204
-190
-187
-190
-167
-142
-148
-148
-125
-125
-152
-162
-145
-124
-125
-122
-88
-83
-98
-108
-257
-203
713
1566
618
-1246
-1636
-715
-175
-127
13
106
76
118
179
189
219
269
309
371
453
543
652
767
849
877
847
765
630
445
252
99
-12
-91
-145
-191
-229
-239
-228
-224
-225
-217
-207
-201
-196
-191
-190
-190
-189
-193
-198
-199
-196
-192
-193
-196
-193
-190
-184
-164
-151
-162
-165
-144
-131
-146
-165
-155
-126
-124
-126
-100
-102
-104
-93
-260
-246
695
1652
777
-1126
-1607
-726
-170
-118
2
90
70
111
161
166
203
257
296
353
438
533
647
764
843
870
846
763
607
406
214
58
-63
-152
-209
-246
-267
-273
-273
-270
-256
-237
-226
-220
-215
-211
-208
-204
-204
-204
-203
-205
-203
-200
-203
-201
-178
-168
-190
-199
-177
-165
-182
-195
-176
-149
-153
-152
-122
-138
-153
-147
-338
-282
861
1937
874
-1244
-1677
-684
-147
-130
-6
66
29
77
128
133
174
232
273
340
438
545
664
780
862
892
866
777
621
423
230
71
-59
-161
-228
-264
-283
-288
-284
-276
-265
-251
-238
-230
-223
-212
-202
-199
-201
-197
-190
-188
-190
-190
-189
-188
-187
-186
-179
-170
-174
-175
-161
-154
-163
-156
-132
-128
-141
-140
-119
-110
-129
-121
-81
-105
-125
-138
-358
-205
1119
2133
802
-1330
-1548
-528
-116
-121
27
82
45
103
152
157
198
247
292
365
454
556
682
804
882
915
904
829
683
485
284
116
-17
-123
-198
-243
-275
-290
-280
-268
-272
-271
-252
-237
-233
-230
-227
-232
-236
-227
-215
-215
-222
-225
-227
-224
-209
-198
-205
-199
-169
-164
-194
-191
-148
-138
-169
-183
-164
-145
-150
-143
-109
-115
-132
-130
-267
-218
686
1539
599
-1270
-1664
-726
-176
-142
-8
101
77
110
175
198
228
271
312
376
462
559
671
785
871
911
896
816
672
484
291
131
10
-84
-154
-197
-221
-230
-230
-224
-218
-211
-204
-197
-192
-188
-182
-182
-188
-194
-196
-197
-195
-192
-196
-197
-191
-188
-185
-171
-166
-178
-169
-141
-140
-162
-166
-142
-127
-140
-131
-102
-126
-126
-132
-343
-209
936
1747
521
-1340
-1507
-576
-153
-118
21
82
60
108
145
149
189
236
274
338
423
518
633
752
830
856
836
758
608
412
222
66
-57
-149
-206
-239
-263
-279
-280
-271
-260
-246
-234
-226
-217
-208
-207
-211
-211
-209
-209
-209
-212
-215
-211
-206
-205
-190
-168
-172
-185
-169
-147
-155
-172
-173
-155
-147
-159
-135
-108
-147
-141
-177
-402
-11
1428
1950
173
-1619
-1347
-371
-128
-103
49
61
44
111
135
143
197
242
285
361
452
556
681
793
860
882
855
763
604
410
223
65
-61
-151
-210
-249
-276
-290
-286
-272
-259
-251
-241
-228
-218
-210
-205
-202
-197
-191
-187
-188
-193
-194
-190
-186
-186
-183
-181
-184
-174
-161
-173
-181
-156
-139
-153
-165
-154
-129
-125
-146
-125
-101
-140
-143
-232
-434
164
1649
1799
-224
-1728
-1162
-268
-141
-88
70
65
73
151
160
165
221
267
313
391
486
601
729
833
889
905
877
786
621
422
236
78
-50
-135
-192
-243
-275
-277
-265
-255
-245
-236
-227
-221
-219
-217
-212
-212
-220
-225
-219
-215
-218
-217
-209
-208
-212
-209
-205
-197
-179
-175
-192
-187
-157
-154
-181
-188
-162
-147
-158
-145
-114
-130
-132
-148
-302
-75
961
1450
90
-1541
-1465
-522
-151
-107
45
102
89
148
191
199
238
283
326
394
478
573
689
805
885
913
889
809
663
463
263
102
-22
-117
-177
-211
-233
-244
-242
-234
-226
-217
-205
-198
-197
-194
-188
-184
-184
-186
-189
-190
-192
-197
-198
-193
-195
-196
-179
-165
-180
-190
-164
-143
-157
-176
-168
-144
-146
-163
-134
-117
-156
-134
-207
-407
165
1556
1639
-322
-1756
-1210
-322
-148
-80
65
59
60
125
137
149
201
241
286
360
447
550
672
785
859
887
862
774
616
416
223
65
-62
-157
-218
-253
-274
-284
-285
-277
-264
-248
-232
-220
-210
-197
-190
-193
-196
-192
-189
-191
-191
-187
-184
-186
-187
-187
-190
-183
-162
-157
-175
-173
-143
-135
-155
-164
-148
-130
-140
-146
-113
-114
-145
-144
-301
-347
630
1917
1267
-923
-1766
-863
-172
-127
-19
90
55
83
148
156
181
230
269
325
406
498
613
739
843
904
914
867
760
591
384
193
42
-78
-169
-225
-258
-282
-290
-280
-268
-262
-254
-243
-232
-223
-220
-217
-211
-207
-206
-204
-197
-197
-203
-205
-200
-198
-198
-190
-183
-176
-159
-153
-172
-168
-130
-123
-154
-166
-147
-126
-129
-135
-110
-106
-126
-115
-227
-278
510
1616
1070
-918
-1759
-926
-213
-146
-48
91
84
105
165
177
202
255
295
340
408
494
604
727
831
896
915
878
771
599
397
211
61
-54
-135
-185
-220
-247
-255
-247
-241
-239
-230
-215
-207
-203
-197
-192
-192
-192
-191
-195
-198
-197
-197
-198
-195
-192
-189
-180
-177
-179
-164
-145
-155
-168
-144
-121
-135
-156
-147
-121
-119
-130
-106
-98
-132
-113
-189
-369
168
1431
1466
-371
-1698
-1175
-322
-143
-72
74
72
67
130
151
163
210
250
292
360
444
542
657
768
848
881
860
776
622
427
239
81
-50
-146
-203
-235
-258
-273
-276
-268
-256
-243
-230
-220
-214
-208
-203
-198
-197
-197
-195
-194
-195
-194
-190
-190
-190
-185
-182
-174
-154
-149
-166
-162
-136
-131
-149
-157
-145
-129
-136
-138
-104
-110
-135
-121
-278
-299
706
1914
1146
-1012
-1739
-811
-156
-119
-14
88
57
87
143
150
178
230
270
326
402
488
599
722
827
894
918
885
782
613
413
227
68
-65
-158
-208
-235
-257
-271
-270
-262
-256
-252
-242
-226
-214
-208
-205
-201
-194
-193
-199
-200
-194
-191
-192
-191
-193
-196
-193
-187
-180
-175
-173
-169
-161
-160
-167
-155
-131
-136
-149
-125
-98
-112
-135
-127
-100
-97
-110
-92
-83
-117
-105
-167
-295
287
1539
1514
-372
-1690
-1140
-298
-146
-81
69
68
68
142
171
183
223
260
302
365
441
537
655
770
860
908
901
833
699
514
321
156
24
-81
-152
-198
-233
-255
-256
-247
-241
-238
-234
-224
-211
-205
-206
-207
-205
-204
-203
-200
-198
-198
-201
-201
-199
-197
-195
-188
-181
-178
-166
-152
-163
-177
-153
-124
-134
-155
-151
-132
-130
-135
-108
-99
-128
-109
-184
-342
202
1393
1339
-477
-1701
-1127
-294
-135
-67
79
84
84
144
165
180
225
260
303
371
449
544
660
772
854
894
881
806
658
456
255
91
-40
-138
-198
-231
-256
-272
-276
-272
-261
-248
-237
-230
-224
-218
-212
-205
-200
-199
-200
-202
-204
-203
-200
-200
-202
-197
-190
-185
-168
-152
-162
-172
-154
-135
-143
-159
-159
-138
-131
-143
-120
-101
-135
-118
-170
-377
98
1486
1784
-59
-1668
-1278
-343
-125
-81
71
78
62
127
153
161
206
246
285
351
433
528
643
761
858
913
914
859
738
554
352
174
24
-96
-175
-219
-245
-263
-273
-271
-260
-247
-236
-225
-211
-199
-192
-188
-183
-177
-176
-175
-174
-174
-176
-174
-172
-171
-169
-166
-161
-161
-164
-154
-132
-131
-152
-144
-114
-112
-132
-137
-121
-109
-120
-118
-92
-110
-124
-132
-321
-202
971
1961
818
-1248
-1611
-649
-165
-145
-4
69
32
75
120
125
161
200
226
289
377
462
564
684
791
862
889
866
778
617
420
228
56
-89
-193
-257
-295
-320
-335
-334
-322
-316
-314
-304
-293
-289
-284
-279
-278
-275
-268
-267
-271
-267
-259
-254
-250
-249
-248
-238
-229
-222
-202
-191
-209
-212
-181
-172
-195
-204
-185
-163
-157
-155
-138
-141
-145
-130
-228
-205
539
1339
595
-1160
-1689
-826
-187
-110
-2
113
104
133
190
203
235
286
321
373
451
536
638
759
869
945
977
957
870
713
513
319
159
35
-57
-115
-147
-166
-177
-177
-169
-159
-149
-140
-132
-124
-113
-107
-107
-105
-104
-108
-110
-108
-107
-108
-109
-107
-106
-111
-107
-90
-89
-104
-95
-66
-63
-87
-98
-85
-72
-84
-82
-57
-76
-92
-86
-256
-217
786
1764
815
-1180
-1678
-758
-180
-130
-12
70
38
72
119
113
134
175
204
248
314
391
491
607
712
785
816
795
709
552
349
148
-25
-163
-265
-331
-370
-393
-408
-414
-410
-399
-388
-378
-367
-356
-344
-334
-331
-326
-316
-308
-302
-293
-282
-273
-261
-245
