# session 12
6
-13
50
-83
-365
-385
-182
-90
-91
-52
-25
-27
-9
12
29
63
99
126
154
179
201
232
254
250
247
267
287
270
209
132
69
17
-32
-69
-94
-116
-125
-119
-134
-180
-203
-187
-188
-220
-229
-204
-200
-194
-141
-120
-163
-206
-326
-260
622
1586
904
-886
-1506
-807
-308
-250
-126
-39
-78
-67
-29
-27
-4
38
65
91
128
166
202
238
268
287
295
307
326
342
335
291
223
162
116
76
34
-9
-43
-54
-54
-76
-126
-152
-129
-113
-126
-109
-85
-102
-88
-44
-65
-84
-141
-254
258
1464
1623
51
-1166
-818
-206
-124
-75
25
-7
-18
18
11
20
58
71
84
118
145
173
213
246
268
288
300
310
329
327
273
193
115
36
-41
-96
-140
-184
-209
-216
-239
-274
-282
-263
-260
-276
-271
-254
-263
-262
-233
-239
-242
-283
-472
-268
781
1354
158
-1341
-1316
-540
-265
-233
-99
-64
-81
-30
-6
-10
28
67
84
116
157
186
214
247
277
298
309
319
345
363
330
251
181
139
103
65
27
-7
-29
-33
-37
-70
-119
-135
-123
-134
-159
-154
-143
-139
-110
-107
-144
-159
-282
-306
509
1603
1126
-646
-1375
-704
-179
-146
-64
12
-26
-22
3
-6
12
44
55
75
113
141
167
211
254
266
257
265
288
293
260
200
136
75
17
-30
-63
-86
-95
-96
-101
-121
-162
-189
-176
-173
-210
-219
-186
-176
-169
-149
-165
-161
-183
-270
171
1259
1400
-154
-1424
-1066
-318
-152
-118
-16
-33
-61
-24
-15
-16
17
50
71
90
103
124
166
206
224
231
234
244
269
285
260
214
187
169
138
97
62
41
33
23
0
-31
-49
-41
-43
-68
-70
-57
-87
-105
-88
-120
-147
-205
-440
-197
1053
1740
440
-1131
-1077
-374
-236
-255
-136
-123
-137
-87
-85
-94
-51
-17
-6
25
68
101
136
184
223
242
262
296
322
314
272
205
126
56
-6
-64
-114
-143
-152
-154
-170
-205
-227
-210
-192
-204
-208
-195
-198
-187
-152
-165
-186
-224
-415
-277
751
1462
376
-1211
-1290
-490
-191
-186
-50
6
-21
14
38
32
56
91
121
161
195
226
272
318
347
369
381
390
407
397
327
240
174
119
70
34
4
-18
-31
-48
-73
-100
-124
-127
-124
-143
-154
-147
-154
-144
-122
-142
-150
-198
-369
-128
815
1130
-143
-1433
-1223
-420
-155
-144
-39
5
-5
26
54
59
73
101
130
151
183
237
285
317
348
360
349
339
318
274
228
163
84
40
10
-42
-66
-55
-67
-93
-108
-143
-181
-171
-154
-172
-190
-187
-194
-193
-174
-168
-160
-213
-348
-56
873
1166
-65
-1323
-1149
-400
-138
-80
45
67
54
105
129
126
139
147
160
191
214
236
280
324
347
347
331
316
302
252
156
54
-20
-62
-93
-118
-120
-105
-98
-99
-108
-132
-142
-120
-116
-149
-157
-142
-148
-144
-136
-157
-135
-193
-416
-97
1020
1309
-147
-1419
-1064
-309
-171
-151
-28
-32
-47
8
25
28
65
94
119
168
228
271
289
307
337
353
354
356
348
301
227
156
97
41
-9
-41
-65
-89
-105
-103
-103
-135
-170
-153
-122
-144
-174
-157
-154
-175
-164
-155
-146
-166
-348
-270
656
1372
359
-1265
-1405
-533
-142
-136
-20
27
-15
28
71
66
99
142
148
166
218
277
333
378
397
400
402
402
406
398
320
178
76
45
19
-26
-63
-86
-99
-115
-139
-161
-182
-191
-171
-165
-187
-175
-152
-173
-169
-141
-159
-162
-274
-516
-67
1181
1333
-355
-1624
-1140
-350
-209
-159
-33
-46
-48
17
27
34
81
107
125
169
197
200
215
245
264
260
250
254
259
239
202
151
82
19
-22
-51
-69
-80
-94
-98
-79
-75
-106
-122
-102
-94
-114
-120
-113
-123
-118
-100
-142
-183
-231
-490
-439
707
1745
823
-929
-1212
-462
-163
-185
-74
-29
-50
-4
20
16
66
121
136
162
217
261
276
291
327
363
384
405
428
424
373
298
224
153
81
17
-29
-62
-88
-107
-117
-124
-142
-160
-162
-165
-186
-196
-185
-192
-197
-173
-179
-195
-246
-452
-324
683
1360
274
-1258
-1289
-498
-219
-222
-104
-70
-103
-62
-35
-45
-16
32
57
79
121
173
215
249
283
311
331
359
373
328
237
152
87
24
-38
-84
-112
-132
-150
-162
-159
-156
-175
-191
-170
-152
-173
-176
-141
-139
-143
-109
-112
-127
-161
-401
-387
575
1395
476
-1046
-1143
-367
-97
-121
1
51
21
62
90
88
123
167
191
221
260
305
353
389
411
428
449
471
478
442
354
251
171
107
49
5
-23
-49
-72
-84
-81
-80
-102
-129
-121
-110
-146
-177
-161
-155
-157
-133
-149
-162
-163
-387
-454
452
1396
566
-1141
-1411
-532
-110
-125
-20
29
-20
17
55
37
57
92
101
134
190
210
203
215
240
255
265
283
299
283
223
138
49
-30
-91
-134
-169
-205
-241
-262
-258
-241
-238
-253
-263
-246
-225
-239
-260
-234
-204
-201
-180
-167
-184
-241
-426
-356
547
1330
454
-1122
-1321
-487
-75
-52
61
104
46
57
84
76
94
135
167
191
212
244
282
303
316
337
355
370
390
391
359
309
252
184
118
66
23
-14
-34
-38
-42
-45
-56
-83
-103
-95
-94
-124
-136
-116
-111
-116
-100
-106
-133
-197
-318
-106
666
978
-11
-1122
-1052
-421
-153
-94
-7
8
-4
31
51
56
87
127
157
188
220
247
282
324
347
355
385
418
415
390
348
262
154
71
7
-47
-82
-105
-134
-147
-133
-127
-152
-177
-169
-156
-175
-199
-184
-171
-190
-179
-158
-185
-202
-296
-414
114
1145
1012
-540
-1430
-880
-277
-202
-131
-31
-58
-51
5
16
29
68
98
123
155
196
250
299
332
367
407
436
446
416
333
221
121
40
-33
-94
-132
-157
-179
-196
-200
-195
-203
-235
-259
-245
-235
-260
-269
-244
-237
-235
-209
-210
-222
-274
-450
-230
802
1357
200
-1216
-1159
-426
-186
-150
-20
3
-15
36
63
69
111
151
175
208
253
308
358
388
402
413
420
428
425
375
274
175
105
47
-9
-52
-80
-95
-100
-102
-96
-91
-108
-132
-125
-106
-119
-136
-120
-112
-125
-103
-86
-121
-146
-260
-338
354
1498
1270
-423
-1326
-767
-218
-181
-109
-9
-37
-34
8
18
36
67
101
152
197
230
271
316
357
398
414
414
422
399
306
180
76
4
-45
-91
-140
-168
-173
-180
-189
-189
-202
-231
-235
-217
-227
-247
-232
-220
-226
-192
-167
-198
-204
-309
-470
76
1225
1165
-487
-1514
-958
-276
-181
-118
-3
-16
-11
39
48
66
112
139
163
205
257
312
360
393
409
408
398
395
374
294
171
64
-8
-61
-99
-126
-146
-154
-149
-144
-144
-152
-173
-183
-170
-172
-195
-185
-161
-166
-152
-128
-153
-152
-220
-430
-67
1090
1351
-157
-1429
-1042
-268
-115
-82
42
41
26
73
87
95
134
163
190
233
275
314
357
388
397
395
396
395
376
314
215
118
49
-2
-41
-72
-100
-118
-125
-127
-120
-120
-143
-158
-142
-145
-176
-174
-153
-159
-146
-123
-150
-147
-204
-447
-208
891
1292
-107
-1473
-1157
-302
-97
-91
34
44
18
65
83
81
115
147
169
208
253
291
322
341
345
336
329
337
336
284
187
96
33
-25
-83
-124
-151
-172
-183
-180
-171
-172
-191
-207
-200
-186
-191
-201
-192
-186
-191
-166
-150
-186
-217
-346
-528
-44
1032
989
-541
-1428
-804
-147
-109
-71
43
20
11
63
77
87
120
147
176
214
248
281
311
334
358
381
396
409
408
362
280
206
142
72
12
-24
-47
-65
-73
-74
-75
-81
-96
-108
-100
-89
-105
-125
-114
-106
-111
-92
-89
-126
-188
-380
-435
255
1037
443
-939
-1201
-463
-73
-76
11
67
31
52
81
76
100
139
165
197
226
246
277
317
350
378
411
441
441
394
303
195
98
16
-60
-118
-152
-172
-185
-190
-185
-178
-190
-211
-208
-187
-201
-232
-221
-195
-199
-181
-145
-165
-185
-252
-416
-114
808
917
-469
-1524
-1040
-252
-87
-53
66
72
61
102
117
129
159
174
196
241
278
308
354
404
443
474
498
499
454
359
244
143
60
-8
-59
-100
-131
-148
-155
-157
-148
-137
-152
-181
-184
-172
-183
-196
-178
-166
-168
-141
-131
-163
-178
-310
-450
90
1006
663
-879
-1491
-717
-100
-76
-19
83
59
65
105
93
95
134
173
213
244
259
287
327
347
349
360
376
370
322
240
148
68
7
-46
-89
-111
-126
-143
-151
-142
-126
-123
-138
-155
-155
-149
-155
-161
-152
-149
-152
-127
-106
-138
-188
-341
-497
21
1044
936
-526
-1307
-703
-116
-85
-44
47
20
21
64
66
75
107
128
160
206
235
257
289
309
314
329
356
364
335
272
196
127
65
9
-33
-61
-84
-98
-99
-95
-89
-83
-88
-96
-90
-83
-100
-119
-100
-83
-105
-100
-68
-95
-148
-261
-439
-82
928
1091
-274
-1319
-880
-184
-72
-47
56
46
38
79
84
91
127
151
179
216
236
258
303
353
390
416
436
448
416
313
188
99
27
-49
-107
-141
-165
-181
-184
-180
-168
-157
-170
-187
-178
-167
-190
-210
-187
-168
-180
-157
-124
-148
-171
-254
-395
2
918
817
-686
-1581
-948
-203
-88
-32
82
65
62
112
113
119
164
190
206
246
293
331
371
410
438
466
500
500
435
325
209
106
27
-33
-83
-119
-137
-149
-160
-160
-152
-149
-163
-187
-194
-187
-198
-218
-206
-188
-193
-176
-156
-183
-198
-297
-486
-93
904
880
-646
-1604
-980
-216
-109
-73
42
31
27
72
73
77
119
152
184
227
263
298
332
352
359
370
383
379
335
242
129
37
-33
-98
-146
-170
-190
-207
-200
-180
-165
-156
-161
-175
-166
-136
-129
-140
-128
-100
-97
-89
-52
-53
-83
-134
-294
-155
694
1157
78
-1228
-1079
-246
43
55
162
184
158
200
228
234
271
305
324
350
373
387
404
418
420
421
430
442
428
359
261
177
115
53
-7
-48
-69
-83
-92
-95
-96
-93
-99
-121
-141
-152
-172
-208
-220
-200
-197
-216
-209
-206
-230
-281
-460
-442
373
1166
370
-1224
-1496
-651
-196
-175
-74
-19
-51
-6
42
45
81
126
141
166
220
270
310
355
395
418
448
483
465
366
236
119
27
-42
-98
-142
-165
-177
-196
-212
-208
-189
-175
-191
-227
-233
-216
-230
-257
-247
-231
-234
-211
-189
-200
-205
-310
-400
145
1020
661
-905
-1608
-886
-189
-71
-1
90
76
95
151
160
165
198
230
263
310
360
395
428
478
522
539
552
550
480
343
207
112
44
-12
-54
-74
-84
-95
-101
-99
-99
-97
-102
-123
-134
-130
-151
-183
-175
-152
-160
-158
-141
-158
-161
-220
-413
-196
680
876
-448
-1594
-1164
-279
-41
-27
87
113
104
143
154
155
185
217
248
288
328
372
414
437
435
426
436
442
395
297
185
83
6
-44
-89
-128
-148
-155
-165
-173
-167
-140
-128
-152
-164
-137
-126
-154
-160
-139
-153
-175
-147
-137
-177
-218
-377
-446
226
1092
566
-945
-1371
-590
-71
-55
0
63
41
57
87
96
131
170
188
214
250
286
319
344
361
365
350
340
334
286
192
104
40
-18
-68
-102
-121
-128
-128
-128
-128
-119
-107
-121
-151
-153
-135
-147
-172
-161
-143
-158
-149
-118
-143
-191
-313
-527
-219
815
1095
-192
-1284
-903
-196
-74
-68
34
39
37
81
86
100
157
195
214
254
304
342
370
395
412
427
448
458
405
292
177
90
14
-55
-100
-125
-144
-157
-163
-167
-163
-150
-154
-176
-178
-156
-159
-187
-194
-182
-175
-146
-111
-134
-157
-206
-418
-292
663
1203
31
-1394
-1232
-348
-78
-76
78
127
89
124
144
131
162
214
254
292
331
373
419
462
487
494
502
510
465
347
211
108
31
-33
-80
-107
-126
-148
-157
-151
-144
-139
-139
-157
-172
-161
-164
-194
-200
-175
-172
-172
-142
-145
-165
-177
-358
-435
301
1146
449
-1150
-1467
-588
-95
-102
-7
80
50
68
104
103
124
162
191
227
269
308
352
385
390
380
373
366
330
241
117
-3
-95
-145
-168
-196
-222
-225
-226
-242
-243
-222
-218
-239
-247
-226
-204
-211
-237
-239
-219
-212
-199
-179
-197
-212
-301
-551
-325
758
1215
-59
-1326
-1014
-247
-115
-121
12
22
0
52
63
55
105
157
178
215
275
315
332
354
370
368
374
382
343
252
159
92
47
4
-36
-59
-73
-88
-92
-86
-84
-80
-77
-87
-89
-66
-52
-75
-93
-70
-50
-57
-34
-3
-31
-65
-178
-414
-119
917
1172
-129
-1167
-732
-38
59
71
181
179
172
222
232
238
287
333
364
403
448
487
514
533
547
558
576
582
535
430
312
215
134
63
14
-15
-37
-57
-70
-76
-74
-64
-62
-85
-110
-111
-109
-131
-144
-128
-126
-138
-122
-115
-138
-171
-345
-457
185
1106
644
-925
-1449
-676
-142
-146
-90
-5
-20
6
39
23
37
75
89
107
146
187
227
266
285
281
285
298
264
160
31
-86
-185
-266
-324
-363
-376
-373
-373
-372
-356
-339
-342
-369
-410
-433
-428
-439
-475
-477
-450
-453
-449
-418
-432
-452
-482
-643
-514
338
788
-339
-1687
-1517
-628
-316
-303
-169
-116
-133
-78
-31
-17
26
84
133
189
253
315
370
418
454
476
496
515
486
392
289
224
176
132
116
131
149
164
195
237
274
317
368
396
403
439
503
541
564
623
685
720
778
845
886
945
903
759
1115
2113
2606
1753
44
