# session 36
-17
1
-41
-87
-1
158
211
196
217
204
143
124
125
102
100
101
77
88
94
38
5
-57
87
1120
2269
1527
-561
-1325
-560
-47
-35
81
156
104
129
165
147
159
182
182
197
221
231
244
273
302
330
369
424
484
544
599
651
694
696
618
465
279
97
-65
-187
-263
-306
-334
-351
-356
-355
-354
-347
-335
-327
-322
-311
-297
-290
-288
-283
-279
-277
-276
-275
-270
-265
-264
-259
-250
-248
-250
-247
-242
-238
-231
-224
-216
-198
-186
-188
-175
-151
-149
-147
-115
-103
-139
-163
-156
-163
-163
-141
-149
-152
-107
-127
-176
-162
-214
119
1394
2158
740
-1185
-1272
-401
-128
-114
40
54
18
81
101
88
121
143
144
167
191
206
230
259
289
328
376
430
493
555
604
645
679
679
606
465
293
128
-9
-109
-176
-218
-242
-253
-253
-245
-238
-238
-228
-205
-196
-199
-188
-172
-175
-178
-167
-163
-168
-166
-160
-157
-153
-152
-154
-150
-145
-149
-153
-149
-141
-132
-115
-99
-98
-112
-110
-90
-84
-84
-61
-51
-89
-125
-121
-116
-123
-112
-118
-143
-109
-84
-139
-156
-177
-62
869
2013
1384
-656
-1458
-683
-128
-116
-4
85
36
60
106
93
108
140
146
159
183
196
211
239
273
308
344
391
450
504
550
595
630
640
605
502
342
173
31
-81
-166
-216
-235
-249
-265
-269
-260
-250
-243
-233
-224
-218
-213
-205
-198
-197
-198
-196
-194
-196
-200
-200
-195
-189
-191
-195
-190
-179
-175
-177
-176
-167
-151
-141
-146
-141
-121
-116
-113
-83
-64
-96
-130
-126
-126
-134
-117
-115
-131
-105
-105
-156
-150
-157
84
1149
2055
1012
-990
-1455
-620
-173
-136
9
60
11
61
107
94
110
135
145
170
198
213
234
266
297
333
379
431
489
555
615
662
701
712
648
504
321
142
-13
-130
-210
-260
-285
-295
-301
-302
-292
-279
-270
-263
-255
-245
-236
-230
-224
-220
-217
-216
-213
-212
-211
-207
-205
-210
-211
-202
-190
-177
-162
-153
-153
-153
-148
-132
-96
-67
-87
-132
-143
-138
-150
-143
-119
-134
-135
-96
-125
-164
-160
-183
328
1645
2029
308
-1370
-1145
-321
-144
-93
65
57
35
97
105
95
131
155
155
169
195
218
232
251
291
339
381
431
493
555
604
643
669
650
556
403
234
75
-63
-160
-212
-242
-269
-285
-282
-269
-261
-258
-250
-239
-232
-227
-221
-215
-205
-196
-195
-196
-189
-184
-190
-195
-188
-182
-182
-176
-163
-158
-156
-143
-130
-135
-135
-110
-94
-95
-81
-65
-87
-116
-116
-121
-138
-126
-117
-138
-111
-80
-135
-159
-173
-92
764
1955
1480
-548
-1479
-750
-150
-126
-24
73
28
52
100
85
96
125
131
148
174
182
193
220
250
284
320
360
414
471
510
543
582
604
572
472
324
169
32
-80
-166
-212
-229
-243
-256
-250
-236
-231
-228
-215
-200
-191
-188
-186
-181
-176
-177
-178
-178
-183
-186
-179
-179
-186
-182
-175
-178
-180
-170
-159
-152
-152
-147
-127
-108
-99
-80
-66
-87
-118
-121
-121
-133
-121
-108
-127
-110
-84
-137
-153
-144
-83
687
1895
1572
-431
-1512
-844
-185
-147
-56
64
23
33
88
83
95
126
127
140
173
188
199
229
262
289
325
375
428
477
524
574
619
639
604
505
360
199
50
-70
-159
-220
-254
-270
-279
-278
-268
-261
-258
-245
-229
-224
-222
-217
-217
-218
-211
-204
-205
-208
-201
-191
-188
-192
-194
-184
-167
-160
-160
-143
-124
-126
-118
-85
-88
-136
-157
-148
-161
-163
-145
-156
-153
-115
-142
-174
-172
-199
328
1643
1972
222
-1416
-1158
-344
-168
-106
49
41
29
89
91
86
122
140
153
183
205
221
248
277
312
360
411
467
530
586
633
681
710
672
557
395
217
50
-85
-182
-248
-283
-292
-298
-306
-299
-277
-265
-264
-260
-250
-237
-227
-222
-222
-221
-217
-213
-212
-213
-210
-203
-200
-200
-191
-174
-169
-169
-150
-131
-131
-115
-89
-107
-152
-160
-151
-164
-162
-141
-155
-155
-119
-149
-183
-179
-199
329
1642
1980
234
-1415
-1161
-334
-149
-89
63
48
30
93
98
88
120
139
150
178
200
214
238
268
302
340
386
439
497
555
613
657
673
644
551
395
216
56
-73
-170
-231
-264
-282
-283
-274
-270
-268
-258
-245
-238
-231
-219
-213
-213
-210
-207
-206
-200
-195
-196
-196
-190
-188
-188
-181
-169
-155
-148
-144
-128
-110
-110
-106
-78
-77
-125
-154
-140
-138
-145
-136
-143
-137
-91
-117
-186
-189
-236
100
1362
2145
771
-1162
-1293
-427
-134
-118
37
58
18
73
96
84
111
127
131
157
177
185
208
235
255
289
337
385
432
486
540
582
605
591
518
392
241
88
-47
-145
-208
-245
-259
-259
-259
-257
-248
-236
-229
-222
-211
-200
-196
-194
-188
-182
-182
-183
-180
-182
-188
-183
-171
-173
-183
-183
-176
-163
-146
-140
-137
-121
-104
-99
-86
-68
-84
-123
-130
-119
-129
-131
-116
-133
-128
-89
-123
-155
-153
-192
351
1692
1972
162
-1410
-1057
-258
-138
-89
63
42
20
76
80
82
118
129
133
154
175
196
220
243
274
314
360
416
475
525
570
610
635
624
545
393
218
67
-53
-151
-219
-252
-263
-273
-277
-267
-257
-252
-245
-238
-235
-228
-219
-214
-214
-214
-210
-204
-203
-202
-198
-194
-195
-195
-191
-181
-167
-156
-154
-145
-129
-127
-126
-99
-85
-124
-157
-143
-139
-159
-148
-137
-155
-133
-115
-168
-187
-214
-84
882
2053
1419
-655
-1495
-740
-179
-146
-25
63
17
50
97
85
106
137
139
160
193
204
222
261
295
328
378
434
487
542
598
650
692
702
644
503
314
137
-5
-120
-207
-256
-276
-286
-287
-285
-283
-277
-263
-252
-245
-232
-218
-217
-217
-212
-210
-209
-207
-207
-210
-208
-201
-200
-202
-197
-175
-156
-158
-156
-135
-128
-135
-114
-90
-115
-150
-147
-144
-158
-146
-131
-153
-140
-115
-159
-178
-192
-129
688
1945
1633
-411
-1551
-903
-219
-150
-45
76
33
44
100
94
107
142
147
157
186
207
231
262
288
321
367
419
478
543
602
653
696
707
649
512
335
164
12
-116
-201
-246
-273
-293
-300
-293
-284
-279
-271
-254
-241
-237
-230
-216
-208
-210
-210
-202
-196
-196
-194
-189
-191
-195
-189
-180
-178
-176
-165
-146
-135
-135
-124
-105
-104
-108
-84
-69
-104
-139
-131
-130
-146
-135
-128
-141
-112
-105
-161
-167
-203
-70
944
2095
1350
-730
-1448
-642
-131
-131
-7
78
25
52
100
91
107
135
140
159
187
201
219
246
269
297
338
382
432
488
536
575
611
618
561
450
314
164
15
-104
-178
-219
-242
-251
-253
-256
-258
-251
-236
-223
-219
-214
-200
-191
-194
-195
-190
-187
-183
-178
-180
-183
-176
-172
-174
-168
-156
-149
-151
-151
-146
-140
-131
-120
-121
-126
-110
-90
-89
-78
-51
-62
-103
-114
-109
-125
-120
-99
-121
-118
-76
-115
-143
-131
-177
341
1662
1944
167
-1374
-1025
-247
-128
-73
75
50
35
96
92
86
124
137
138
160
182
201
228
251
276
313
354
396
453
515
557
585
610
611
546
414
252
97
-32
-130
-195
-231
-250
-255
-251
-249
-249
-245
-237
-232
-229
-222
-213
-208
-209
-207
-199
-199
-205
-201
-194
-196
-196
-190
-187
-185
-180
-176
-169
-158
-149
-151
-152
-140
-122
-116
-111
-90
-82
-107
-131
-132
-140
-147
-131
-131
-138
-104
-109
-160
-169
-210
79
1255
2112
907
-1061
-1362
-519
-155
-124
28
61
14
67
100
87
112
139
149
176
200
215
243
274
300
341
396
446
501
568
629
677
717
720
639
482
301
124
-35
-154
-225
-267
-291
-302
-307
-301
-286
-279
-280
-272
-257
-245
-237
-227
-218
-219
-224
-222
-215
-214
-216
-213
-208
-204
-202
-193
-176
-167
-165
-148
-131
-136
-135
-114
-115
-148
-161
-149
-154
-159
-144
-148
-154
-128
-148
-182
-178
-215
180
1420
2027
558
-1250
-1264
-415
-144
-109
46
61
28
87
108
93
120
147
158
181
207
230
253
281
317
358
406
467
536
600
658
707
733
709
605
430
234
61
-76
-176
-244
-280
-295
-304
-309
-303
-288
-273
-261
-256
-252
-243
-236
-234
-228
-221
-219
-217
-213
-210
-209
-206
-203
-200
-196
-186
-170
-162
-156
-134
-121
-135
-128
-90
-94
-145
-163
-147
-153
-158
-137
-141
-142
-109
-139
-182
-180
-226
217
1548
2110
489
-1323
-1220
-356
-136
-102
55
55
25
83
91
80
114
135
145
168
184
199
231
260
285
323
374
424
478
546
605
640
659
647
559
404
234
72
-67
-166
-228
-266
-279
-279
-284
-286
-278
-268
-257
-242
-228
-220
-218
-219
-220
-215
-207
-202
-204
-204
-195
-185
-185
-193
-193
-178
-158
-152
-153
-136
-110
-110
-116
-93
-76
-106
-141
-138
-140
-152
-135
-127
-148
-125
-110
-160
-165
-193
-67
922
2075
1353
-744
-1490
-673
-138
-132
-10
74
28
65
103
78
100
140
140
150
179
196
216
247
275
308
354
406
463
523
574
617
653
666
618
495
327
157
9
-109
-191
-241
-270
-283
-281
-271
-267
-271
-265
-247
-237
-237
-236
-229
-224
-222
-225
-224
-214
-210
-213
-208
-199
-199
-195
-180
-173
-166
-143
-134
-148
-137
-106
-117
-155
-163
-160
-175
-166
-140
-154
-155
-124
-155
-187
-198
-201
413
1708
1840
2
-1469
-1074
-299
-165
-85
66
39
25
93
99
93
128
149
157
181
205
228
258
290
324
369
424
481
543
608
664
704
719
681
561
378
187
21
-111
-203
-255
-282
-302
-310
-303
-288
-280
-277
-269
-255
-243
-239
-234
-224
-220
-225
-225
-218
-212
-209
-207
-206
-195
-180
-180
-190
-180
-154
-146
-158
-152
-120
-112
-144
-165
-158
-160
-165
-150
-153
-154
-118
-133
-179
-186
-233
115
1338
2065
730
-1121
-1257
-441
-154
-124
32
56
14
66
98
91
114
139
155
176
193
214
247
275
305
349
400
456
521
583
637
684
717
701
604
438
249
75
-69
-176
-244
-281
-297
-300
-299
-295
-287
-276
-264
-254
-249
-246
-241
-235
-230
-228
-226
-222
-220
-222
-219
-208
-205
-201
-186
-174
-168
-157
-149
-154
-142
-116
-118
-151
-166
-161
-169
-171
-153
-155
-154
-119
-137
-185
-198
-264
75
1338
2120
777
-1131
-1283
-436
-137
-119
32
60
24
76
95
86
122
146
147
166
189
210
238
268
297
338
387
442
503
560
610
658
693
678
586
427
241
70
-67
-167
-233
-268
-285
-289
-283
-279
-278
-271
-261
-254
-249
-239
-232
-227
-221
-219
-220
-217
-211
-208
-207
-206
-204
-200
-193
-181
-164
-154
-147
-127
-115
-126
-116
-84
-94
-140
-153
-139
-148
-151
-132
-144
-144
-102
-126
-170
-168
-229
187
1525
2139
549
-1287
-1203
-329
-112
-96
56
57
22
81
97
86
117
137
144
166
186
201
226
255
282
317
366
417
466
518
568
611
638
627
546
399
229
73
-57
-154
-216
-254
-275
-278
-271
-266
-259
-251
-247
-242
-231
-223
-222
-220
-214
-210
-209
-207
-203
-201
-199
-191
-184
-184
-185
-177
-171
-167
-156
-143
-143
-137
-112
-98
-102
-88
-72
-97
-132
-130
-127
-143
-134
-122
-140
-119
-93
-150
-179
-199
-150
672
1964
1671
-380
-1513
-852
-183
-143
-49
76
36
41
93
89
102
137
143
156
186
203
224
260
291
321
366
419
476
538
595
643
690
716
674
549
374
192
29
-102
-194
-249
-273
-287
-299
-296
-282
-275
-272
-261
-251
-247
-241
-233
-227
-225
-225
-222
-216
-214
-213
-212
-213
-209
-201
-193
-181
-170
-171
-165
-142
-137
-144
-121
-95
-120
-157
-156
-153
-163
-151
-145
-160
-134
-114
-161
-189
-234
-126
804
1985
1435
-614
-1532
-803
-185
-131
-22
78
41
66
114
101
112
148
161
179
208
228
248
277
309
348
397
454
518
587
648
697
736
740
667
512
318
130
-31
-150
-228
-274
-296
-307
-313
-308
-297
-289
-282
-270
-256
-246
-243
-238
-232
-228
-225
-221
-218
-217
-213
-207
-203
-201
-196
-191
-192
-193
-179
-161
-156
-149
-126
-116
-121
-102
-78
-103
-145
-145
-137
-154
-147
-125
-144
-139
-102
-142
-174
-172
-184
432
1783
1939
34
-1484
-1046
-233
-120
-68
77
52
37
97
100
100
132
144
155
179
196
218
251
277
307
349
398
452
512
570
617
659
686
658
552
392
218
56
-76
-168
-228
-264
-281
-284
-280
-271
-261
-252
-245
-237
-228
-220
-215
-212
-209
-205
-199
-194
-191
-190
-187
-182
-179
-178
-175
-170
-165
-162
-160
-151
-134
-124
-118
-102
-90
-89
-72
-52
-75
-117
-122
-117
-129
-118
-104
-125
-110
-81
-129
-149
-159
-115
676
1947
1657
-398
-1537
-850
-147
-104
-22
96
51
58
116
110
116
151
156
163
188
208
225
252
283
315
352
397
451
510
565
609
642
660
627
517
352
181
29
-92
-176
-231
-263
-275
-277
-276
-271
-262
-256
-253
-245
-232
-225
-224
-220
-217
-217
-218
-219
-221
-219
-213
-212
-214
-209
-203
-201
-196
-191
-190
-190
-181
-169
-165
-166
-153
-132
-130
-129
-100
-86
-124
-156
-149
-151
-164
-150
-147
-160
-130
-127
-176
-177
-210
-12
1046
2028
1062
-965
-1483
-632
-159
-139
-4
66
24
62
101
91
115
146
152
170
198
219
247
282
314
350
396
449
508
570
629
681
725
736
675
533
351
173
16
-106
-186
-233
-259
-269
-271
-265
-252
-239
-231
-222
-210
-199
-190
-181
-173
-169
-165
-162
-163
-161
-158
-156
-156
-154
-149
-141
-132
-128
-124
-111
-98
-93
-83
-68
-64
-63
-47
-23
