# session 15
-7
-8
23
-100
-317
-353
-277
-300
-337
-289
-265
-297
-292
-266
-277
-266
-239
-263
-287
-412
-650
-231
1014
1334
-110
-1319
-981
-338
-249
-209
-77
-73
-77
-23
-2
15
62
112
166
224
272
321
362
370
362
367
367
326
238
125
30
-25
-61
-92
-103
-98
-100
-106
-118
-148
-174
-163
-146
-156
-162
-153
-149
-129
-111
-131
-127
-199
-420
-138
892
1160
-185
-1341
-970
-240
-108
-90
37
52
42
89
104
117
163
192
218
274
330
371
402
398
354
322
326
308
226
117
35
-16
-58
-95
-120
-127
-125
-121
-122
-145
-175
-171
-151
-168
-192
-179
-170
-160
-133
-146
-164
-244
-516
-336
873
1661
538
-978
-993
-326
-171
-187
-83
-84
-108
-53
-37
-42
-4
31
65
127
185
223
256
266
249
251
282
279
211
123
67
36
7
-31
-72
-94
-86
-65
-53
-61
-79
-74
-64
-79
-74
-37
-39
-63
-39
-34
-67
-123
-353
-385
545
1590
974
-626
-1051
-405
-82
-111
-24
30
-2
28
60
59
89
134
171
222
275
313
345
364
364
369
387
373
300
188
81
3
-44
-76
-113
-153
-176
-183
-194
-217
-238
-235
-221
-230
-249
-238
-221
-226
-213
-200
-214
-225
-377
-539
70
1187
992
-634
-1452
-803
-206
-175
-110
4
-12
-8
40
53
76
124
171
218
260
306
364
396
389
387
402
382
299
196
112
42
-19
-55
-74
-93
-116
-129
-121
-115
-146
-180
-170
-158
-178
-180
-171
-180
-156
-128
-149
-143
-241
-492
-137
954
1073
-412
-1439
-897
-187
-110
-77
52
42
29
82
100
112
155
196
241
296
343
379
406
410
396
386
371
316
214
106
29
-21
-62
-98
-120
-132
-142
-143
-138
-155
-185
-183
-166
-181
-199
-186
-180
-173
-146
-157
-165
-196
-444
-440
543
1428
535
-1069
-1245
-443
-115
-131
-22
24
-11
21
50
60
101
134
172
250
309
327
351
366
351
341
336
303
241
162
77
19
-8
-42
-84
-100
-93
-89
-93
-109
-131
-126
-99
-99
-117
-109
-102
-113
-79
-49
-95
-147
-318
-544
4
1256
1328
-227
-1195
-665
-96
-96
-62
38
7
5
49
51
73
129
168
210
267
309
335
347
342
343
362
366
315
216
119
50
-11
-71
-108
-128
-151
-166
-161
-157
-175
-199
-190
-157
-157
-183
-184
-174
-163
-141
-154
-175
-203
-432
-513
325
1259
548
-1050
-1333
-507
-102
-123
-23
46
19
53
91
94
130
179
214
257
307
353
387
403
413
434
441
397
312
216
116
28
-28
-70
-112
-136
-140
-144
-149
-156
-186
-210
-192
-172
-193
-207
-189
-175
-158
-144
-164
-149
-201
-459
-306
635
953
-328
-1486
-1075
-250
-75
-62
68
79
59
107
124
133
178
208
230
279
335
375
397
394
365
336
320
284
194
89
24
-14
-61
-108
-133
-142
-142
-133
-123
-133
-163
-175
-156
-160
-190
-181
-153
-168
-170
-149
-174
-192
-286
-532
-233
894
1234
-118
-1254
-848
-172
-116
-105
26
9
-19
37
55
62
118
163
180
217
272
312
326
317
309
327
349
324
254
190
144
96
47
14
-2
-10
-17
-26
-34
-36
-44
-51
-39
-32
-55
-66
-50
-60
-68
-41
-52
-92
-191
-449
-336
645
1265
259
-1031
-940
-248
-65
-73
33
49
24
64
83
85
123
161
195
246
296
329
347
357
371
397
408
365
272
168
77
3
-48
-88
-129
-155
-158
-160
-162
-162
-183
-204
-190
-176
-198
-211
-199
-198
-189
-159
-173
-189
-224
-429
-380
468
1063
58
-1356
-1326
-473
-136
-130
-19
26
6
48
76
81
125
167
189
234
293
333
364
396
414
419
412
366
265
149
62
0
-55
-102
-135
-154
-157
-150
-147
-151
-168
-193
-195
-183
-197
-204
-171
-159
-175
-156
-146
-161
-169
-323
-385
299
1073
384
-1131
-1401
-547
-75
-69
26
95
56
78
124
141
186
235
255
289
350
401
422
425
426
428
421
387
313
206
104
37
-4
-34
-64
-93
-104
-98
-96
-100
-113
-136
-139
-126
-138
-159
-144
-131
-147
-131
-101
-127
-161
-281
-514
-190
889
1179
-134
-1240
-866
-181
-76
-70
31
25
13
56
61
72
129
169
191
237
281
306
327
330
309
312
336
312
231
149
95
50
-1
-48
-73
-73
-70
-77
-79
-66
-69
-101
-117
-100
-104
-127
-113
-88
-106
-109
-81
-94
-145
-276
-416
-8
892
896
-370
-1191
-735
-146
-60
-30
60
55
46
78
92
115
161
192
214
252
308
359
377
376
389
416
413
344
230
122
41
-28
-92
-148
-182
-188
-187
-192
-192
-194
-223
-253
-245
-230
-250
-265
-247
-241
-240
-202
-189
-215
-268
-465
-475
364
1256
548
-1070
-1430
-629
-167
-135
-27
33
8
51
85
77
106
149
187
254
319
362
406
433
435
450
466
423
315
191
90
27
-15
-54
-87
-102
-105
-106
-108
-106
-108
-126
-135
-123
-132
-163
-154
-129
-148
-140
-94
-109
-126
-175
-408
-233
844
1388
104
-1336
-1119
-260
-41
-52
76
100
73
119
144
144
173
208
247
298
345
389
422
428
424
440
445
384
265
148
59
-16
-73
-104
-124
-144
-154
-155
-159
-159
-160
-180
-194
-179
-187
-231
-235
-195
-195
-208
-180
-178
-203
-283
-542
-447
591
1314
216
-1327
-1300
-447
-163
-168
-44
-13
-49
-23
-7
20
99
161
199
255
302
322
340
355
358
371
391
371
296
200
120
69
36
2
-27
-36
-36
-45
-52
-36
-18
-32
-53
-47
-43
-64
-77
-61
-49
-56
-45
-24
-40
-102
-273
-376
154
963
616
-777
-1311
-603
-36
-19
-4
54
48
99
162
165
187
228
240
267
326
364
362
341
329
340
349
321
247
150
65
1
-55
-98
-122
-150
-169
-152
-138
-161
-171
-163
-174
-179
-160
-167
-196
-198
-200
-224
-212
-177
-196
-236
-330
-560
-439
399
782
-291
-1408
-1110
-303
-66
-54
48
65
56
107
134
142
173
216
272
322
345
374
410
418
422
445
449
402
318
220
132
70
27
-12
-44
-61
-67
-73
-80
-73
-59
-67
-90
-93
-91
-113
-139
-139
-139
-143
-116
-96
-125
-149
-272
-468
-76
858
740
-769
-1588
-873
-136
-61
-5
127
117
121
181
190
205
254
289
328
383
427
461
486
495
508
520
480
371
245
131
33
-40
-90
-126
-146
-149
-154
-169
-185
-186
-180
-206
-240
-228
-199
-213
-232
-218
-207
-195
-160
-155
-170
-181
-325
-373
227
838
128
-1230
-1382
-529
-77
-72
27
117
110
148
189
189
220
282
331
368
404
445
486
506
507
505
489
429
323
204
106
35
-21
-69
-102
-118
-122
-129
-146
-157
-150
-152
-186
-214
-204
-201
-232
-247
-225
-210
-202
-176
-174
-189
-211
-373
-388
357
1147
449
-1099
-1441
-644
-169
-143
-32
61
44
72
121
136
167
216
263
327
396
438
468
496
498
474
449
403
295
151
37
-36
-91
-127
-142
-154
-158
-143
-132
-140
-145
-147
-169
-191
-176
-160
-188
-205
-177
-161
-149
-118
-131
-156
-232
-496
-321
889
1653
405
-1241
-1198
-364
-140
-154
-5
41
12
42
55
67
119
160
209
298
378
427
472
498
477
440
413
355
241
127
40
-41
-102
-126
-140
-152
-153
-158
-163
-143
-128
-153
-181
-175
-166
-189
-201
-175
-173
-186
-142
-128
-174
-174
-330
-513
257
1604
1309
-633
-1540
-798
-172
-118
-7
76
25
60
95
50
67
142
188
236
306
366
408
427
424
419
411
365
263
131
18
-50
-99
-153
-188
-196
-209
-224
-220
-208
-191
-172
-182
-209
-203
-187
-212
-233
-206
-173
-154
-136
-146
-140
-141
-365
-436
382
1229
462
-1083
-1292
-449
-51
-61
57
136
107
139
180
184
219
274
321
378
444
501
541
545
523
501
470
400
291
171
52
-45
-95
-112
-132
-152
-156
-154
-158
-154
-135
-127
-152
-178
-165
-154
-181
-193
-170
-166
-154
-120
-146
-160
-173
-413
-385
614
1364
242
-1411
-1418
-455
-71
-72
45
88
54
99
137
141
181
234
278
336
400
449
469
447
404
371
339
277
182
75
-18
-78
-117
-152
-175
-178
-179
-189
-194
-187
-175
-165
-174
-193
-190
-176
-185
-205
-193
-180
-198
-182
-131
-143
-179
-271
-462
-133
926
1161
-260
-1426
-985
-204
-61
-28
115
105
41
54
55
45
103
210
308
374
400
397
398
414
424
418
408
368
270
158
83
31
-12
-37
-53
-69
-73
-66
-64
-69
-66
-56
-65
-96
-112
-105
-114
-136
-127
-108
-123
-122
-93
-112
-157
-270
-446
-99
858
950
-422
-1406
-905
-185
-81
-71
46
63
54
88
102
116
164
223
278
325
372
419
448
453
455
464
462
406
284
147
43
-39
-105
-144
-162
-175
-180
-177
-178
-174
-158
-154
-176
-191
-179
-179
-210
-229
-209
-194
-194
-164
-144
-164
-181
-325
-479
82
1062
729
-919
-1614
-781
-78
-69
-49
72
71
75
134
164
191
238
283
334
394
454
507
518
486
469
461
406
309
210
117
24
-54
-102
-124
-138
-144
-150
-175
-194
-175
-144
-127
-125
-157
-194
-185
-173
-189
-184
-171
-183
-162
-127
-151
-175
-257
-346
143
998
676
-883
-1594
-848
-159
-84
-8
120
110
125
192
201
206
254
302
346
404
468
521
539
522
508
496
450
357
227
92
-3
-59
-110
-153
-171
-177
-180
-174
-170
-169
-159
-145
-158
-187
-193
-182
-192
-210
-197
-176
-175
-155
-129
-150
-165
-257
-453
-97
977
1174
-300
-1495
-1063
-270
-103
-64
65
71
66
121
137
149
200
246
296
361
422
469
490
464
418
391
365
302
203
96
7
-52
-87
-110
-128
-136
-138
-142
-138
-124
-118
-124
-137
-153
-160
-150
-149
-169
-167
-134
-127
-128
-97
-109
-163
-257
-475
-327
700
1386
342
-1115
-1125
-376
-118
-115
-11
15
-4
40
66
75
121
175
223
284
347
397
431
436
416
399
390
348
252
137
46
-20
-67
-94
-107
-121
-131
-127
-122
-124
-123
-111
-112
-136
-157
-157
-165
-199
-216
-184
-160
-179
-171
-144
-174
-219
-329
-441
105
1191
1123
-453
-1423
-883
-240
-165
-105
21
29
49
106
115
127
185
247
301
365
441
503
520
503
485
462
416
337
226
100
-7
-74
-108
-136
-161
-164
-151
-151
-158
-150
-140
-151
-179
-199
-194
-183
-195
-212
-200
-183
-188
-174
-154
-167
-167
-253
-423
-22
1020
1133
-329
-1440
-1000
-264
-121
-83
47
62
57
104
123
145
198
240
285
356
426
482
520
518
481
441
386
286
163
59
-26
-99
-149
-166
-167
-166
-161
-143
-124
-121
-125
-125
-132
-153
-168
-166
-163
-176
-184
-171
-166
-159
-129
-133
-160
-184
-340
-293
618
1520
723
-982
-1376
-598
-159
-136
-22
53
26
55
103
123
159
200
244
311
387
457
509
522
494
453
409
337
229
121
36
-45
-122
-165
-173
-174
-169
-157
-148
-146
-144
-134
-132
-160
-187
-177
-168
-193
-207
-179
-164
-167
-143
-139
-165
-169
-314
-422
330
1506
1157
-649
-1475
-756
-144
-130
-60
70
56
45
76
84
112
168
220
278
353
432
484
494
476
447
396
312
202
92
8
-59
-129
-177
-179
-174
-196
-207
-187
-178
-185
-167
-144
-164
-200
-194
-164
-168
-196
-192
-167
-168
-160
-130
-150
-185
-277
-472
-134
1044
1478
68
-1326
-1057
-277
-117
-106
22
20
-2
63
99
107
143
187
238
308
378
423
439
436
405
348
300
267
203
105
23
-23
-63
-99
-105
-94
-98
-105
-93
-81
-80
-80
-89
-114
-123
-108
-101
-123
-134
-115
-110
-119
-94
-91
-139
-209
-387
-376
404
1198
530
-897
-1168
-460
-90
-85
3
58
31
60
108
122
141
178
230
292
351
401
438
447
433
413
395
358
277
164
58
-20
-74
-109
-126
-134
-150
-170
-173
-166
-162
-154
-148
-166
-190
-195
-199
-215
-217
-199
-197
-199
-168
-160
-192
-231
-401
-467
255
1177
618
-996
-1475
-669
-122
-99
-21
75
69
93
137
151
175
215
271
348
413
457
498
520
508
483
455
404
310
184
71
-4
-60
-105
-124
-124
-128
-130
-127
-135
-143
-128
-118
-140
-161
-152
-147
-169
-184
-163
-149
-155
-126
-99
-122
-142
-276
-459
54
1108
936
-691
-1519
-784
-83
-43
1
123
105
107
164
175
188
238
286
337
399
456
500
517
493
456
427
378
286
180
81
-12
-82
-116
-137
-149
-147
-143
-149
-156
-152
-137
-128
-143
-167
-163
-147
-163
-192
-182
-151
-153
-164
-133
-119
-151
-217
-439
-498
328
1296
669
-929
-1276
-465
-59
-112
-28
51
17
37
77
89
122
160
199
264
318
343
372
391
370
332
306
270
194
90
3
-52
-92
-124
-139
-142
-151
-164
-160
-152
-155
-150
-126
-121
-151
-174
-165
-156
-170
-184
-170
-150
-156
-149
-122
-145
-181
-261
-477
-283
698
1144
-5
-1205
-965
-249
-88
-87
21
35
24
69
88
95
136
182
227
283
345
398
422
420
420
419
395
341
249
134
36
-29
-79
-118
-135
-141
-146
-145
-138
-137
-138
-135
-127
-114
-114
-137
-143
-119
-115
-143
-144
-113
-106
-101
-69
-73
-88
-133
-356
-268
731
1447
375
-1174
-1169
-301
6
-1
127
170
147
205
236
220
253
322
380
426
474
538
591
597
578
568
547
480
370
243
128
43
-16
-55
-79
-96
-108
-107
-102
-112
-125
-121
-116
-127
-131
-126
-145
-172
-168
-164
-198
-217
-196
-192
-196
-171
-188
-222
-233
-405
-429
385
1173
290
-1363
-1578
-673
-238
-253
-154
-100
-145
-121
-91
-95
-76
-53
