# session 37
-16
22
-54
-58
226
589
714
700
752
816
826
804
716
552
376
217
77
-30
-97
-138
-160
-169
-174
-173
-166
-161
-156
-150
-144
-138
-134
-133
-134
-131
-130
-135
-138
-134
-132
-134
-133
-126
-115
-104
-104
-104
-86
-74
-84
-75
-44
-54
-99
-112
-104
-120
-123
-108
-123
-121
-87
-117
-153
-150
-159
370
1604
1830
82
-1465
-1143
-314
-133
-70
82
67
45
106
115
108
142
160
167
196
224
237
258
294
333
373
422
479
538
593
641
682
699
656
534
358
175
16
-108
-200
-258
-284
-293
-300
-302
-297
-286
-276
-269
-260
-251
-246
-241
-237
-234
-230
-224
-219
-217
-214
-211
-211
-208
-201
-198
-194
-182
-172
-164
-143
-128
-132
-119
-88
-99
-143
-155
-148
-162
-161
-141
-153
-152
-114
-144
-184
-187
-235
229
1515
1925
265
-1374
-1137
-304
-129
-93
58
47
16
74
87
81
112
130
139
163
181
197
226
256
284
320
363
412
470
527
570
606
631
612
521
376
220
72
-59
-154
-206
-236
-257
-264
-258
-254
-252
-241
-231
-224
-215
-205
-201
-199
-196
-195
-195
-193
-192
-189
-185
-183
-180
-178
-175
-165
-152
-147
-136
-114
-107
-106
-83
-67
-97
-137
-139
-137
-146
-135
-131
-152
-127
-102
-157
-177
-202
-137
732
1964
1509
-549
-1516
-779
-159
-137
-33
74
23
41
102
95
100
132
143
157
182
203
229
261
288
316
360
418
478
534
586
637
679
689
635
504
328
155
4
-120
-207
-256
-280
-293
-298
-295
-283
-272
-267
-263
-256
-248
-242
-235
-226
-219
-218
-221
-218
-215
-213
-209
-205
-196
-183
-176
-172
-155
-141
-150
-150
-121
-106
-130
-158
-165
-176
-183
-164
-156
-163
-131
-124
-175
-190
-231
-33
1018
2007
1069
-950
-1494
-656
-168
-134
3
70
26
64
105
98
119
146
156
178
203
223
253
285
316
356
407
463
527
592
647
694
726
710
617
453
263
85
-63
-172
-241
-281
-303
-307
-303
-298
-295
-288
-275
-261
-252
-246
-236
-227
-223
-215
-205
-200
-200
-199
-198
-196
-193
-192
-188
-170
-156
-152
-139
-121
-121
-119
-97
-98
-133
-151
-146
-155
-159
-140
-147
-155
-115
-125
-177
-175
-230
23
1212
2116
903
-1114
-1401
-499
-123
-120
25
69
24
71
101
86
109
137
146
166
186
202
230
260
287
323
372
427
482
538
589
633
661
649
566
418
249
93
-41
-143
-210
-250
-273
-279
-277
-273
-265
-254
-245
-238
-230
-223
-215
-204
-196
-196
-200
-198
-190
-188
-193
-192
-185
-181
-184
-185
-171
-152
-146
-145
-129
-116
-117
-104
-83
-103
-142
-145
-136
-154
-152
-132
-149
-145
-105
-142
-182
-187
-233
310
1687
2013
184
-1453
-1111
-274
-134
-84
66
36
16
86
90
84
122
138
142
168
195
219
243
266
298
343
395
453
513
570
622
667
688
662
563
400
221
62
-69
-167
-226
-257
-275
-284
-286
-277
-263
-252
-246
-241
-236
-228
-223
-223
-220
-212
-205
-199
-196
-201
-209
-208
-198
-192
-190
-188
-186
-179
-161
-148
-151
-148
-131
-125
-124
-104
-92
-121
-146
-140
-145
-160
-145
-140
-156
-130
-120
-169
-181
-219
-38
1012
2074
1202
-870
-1499
-669
-162
-136
4
85
39
75
119
108
127
156
165
190
221
238
261
295
326
363
415
474
536
600
661
712
750
748
665
503
313
133
-24
-142
-216
-263
-292
-302
-305
-303
-294
-284
-276
-269
-259
-248
-239
-234
-230
-224
-217
-212
-210
-211
-211
-209
-207
-203
-197
-192
-191
-191
-187
-174
-158
-157
-154
-130
-114
-120
-109
-81
-91
-132
-142
-133
-149
-152
-133
-145
-143
-105
-137
-170
-170
-213
317
1677
2029
237
-1413
-1104
-270
-122
-76
77
54
29
94
100
95
133
148
153
179
200
217
247
280
313
353
398
449
513
576
629
674
699
673
569
404
225
66
-62
-157
-221
-258
-271
-276
-279
-274
-261
-249
-246
-243
-234
-222
-213
-208
-204
-198
-193
-193
-193
-191
-189
-187
-185
-185
-184
-178
-174
-174
-169
-161
-159
-156
-141
-132
-135
-124
-102
-98
-96
-70
-56
-88
-120
-118
-120
-134
-122
-116
-131
-105
-89
-146
-164
-196
-83
871
2050
1419
-672
-1506
-712
-133
-120
-9
88
38
57
105
98
114
141
145
163
192
207
225
255
284
314
360
421
481
535
591
646
687
697
651
530
362
192
38
-89
-177
-229
-260
-277
-284
-283
-273
-260
-254
-248
-237
-226
-224
-226
-222
-213
-209
-211
-209
-201
-199
-198
-195
-196
-197
-191
-184
-182
-182
-177
-170
-163
-154
-145
-144
-139
-119
-112
-118
-97
-70
-92
-133
-134
-128
-139
-130
-119
-138
-121
-93
-138
-163
-179
-118
672
1894
1594
-403
-1525
-886
-200
-131
-35
85
45
52
114
116
122
151
164
179
209
234
256
285
320
356
397
451
515
579
638
692
737
753
703
573
388
197
31
-101
-194
-250
-278
-291
-298
-299
-294
-286
-276
-266
-258
-251
-241
-232
-225
-219
-215
-212
-211
-210
-208
-205
-203
-203
-202
-198
-196
-194
-187
-180
-175
-165
-153
-150
-141
-126
-123
-117
-89
-82
-116
-139
-133
-139
-154
-137
-129
-146
-121
-104
-154
-172
-209
-83
883
2036
1380
-680
-1476
-694
-138
-123
-8
83
34
62
111
97
110
142
149
168
198
215
235
264
293
328
374
425
483
551
613
659
693
701
646
514
338
164
12
-112
-196
-241
-264
-278
-283
-278
-269
-260
-252
-245
-238
-228
-217
-210
-210
-209
-200
-193
-195
-195
-191
-189
-190
-189
-185
-179
-176
-171
-163
-160
-160
-157
-152
-142
-129
-128
-126
-105
-90
-97
-85
-49
-54
-99
-115
-106
-120
-121
-98
-112
-122
-78
-94
-141
-136
-179
184
1431
2087
624
-1215
-1225
-363
-105
-87
61
70
32
88
106
96
124
144
150
171
192
207
233
262
288
320
362
412
470
529
578
618
649
649
585
455
289
125
-14
-119
-192
-237
-258
-268
-272
-268
-262
-254
-245
-239
-235
-224
-211
-207
-207
-205
-203
-200
-196
-195
-195
-192
-190
-187
-183
-180
-178
-171
-162
-158
-158
-154
-150
-149
-143
-128
-122
-130
-121
-94
-86
-88
-67
-54
-84
-110
-103
-107
-128
-117
-110
-129
-102
-79
-133
-148
-151
-27
862
1972
1370
-654
-1490
-728
-147
-123
-11
88
40
56
106
102
115
145
154
171
200
220
240
269
300
336
382
436
486
538
602
662
698
711
684
576
396
207
45
-87
-180
-236
-272
-292
-299
-300
-293
-281
-271
-264
-255
-242
-237
-238
-233
-223
-219
-222
-220
-214
-212
-210
-207
-206
-207
-201
-190
-186
-185
-173
-159
-158
-155
-138
-130
-126
-102
-90
-121
-151
-145
-143
-156
-145
-138
-152
-129
-110
-155
-177
-202
-43
903
1949
1229
-776
-1512
-733
-173
-129
-1
90
46
70
112
102
122
157
167
186
215
235
256
287
320
354
396
452
516
582
642
692
729
732
669
527
341
155
-4
-124
-202
-250
-278
-291
-292
-287
-280
-270
-261
-255
-250
-243
-236
-227
-216
-209
-209
-208
-204
-202
-202
-201
-201
-198
-193
-189
-185
-180
-179
-178
-164
-147
-148
-148
-127
-108
-111
-102
-73
-78
-119
-133
-126
-140
-143
-122
-133
-138
-99
-120
-164
-154
-187
211
1463
2045
529
-1261
-1213
-361
-120
-93
57
60
26
84
103
92
122
143
148
169
192
212
236
261
289
328
375
425
476
530
585
631
660
656
589
450
278
117
-20
-129
-201
-239
-258
-268
-269
-265
-260
-249
-236
-228
-224
-215
-208
-206
-204
-201
-200
-199
-198
-199
-199
-192
-186
-188
-190
-185
-178
-177
-174
-157
-139
-141
-137
-115
-104
-108
-90
-70
-97
-136
-137
-132
-148
-140
-124
-143
-128
-95
-144
-173
-172
-151
545
1829
1736
-224
-1500
-924
-193
-128
-56
74
34
31
90
85
87
123
136
149
172
189
213
245
270
300
343
388
441
501
556
604
651
681
656
553
389
215
62
-67
-168
-231
-262
-277
-282
-278
-272
-264
-255
-248
-242
-230
-224
-229
-230
-219
-212
-211
-207
-204
-206
-206
-203
-201
-200
-194
-182
-166
-158
-156
-142
-125
-129
-131
-106
-98
-131
-153
-145
-150
-156
-138
-142
-158
-129
-127
-167
-170
-215
47
1177
2027
866
-1079
-1390
-538
-154
-128
20
67
27
73
103
94
123
150
157
181
210
230
256
291
327
366
408
460
526
594
655
706
738
723
635
478
289
107
-46
-159
-230
-269
-290
-301
-304
-301
-290
-273
-262
-261
-257
-245
-236
-233
-228
-224
-222
-216
-209
-208
-210
-208
-204
-200
-197
-195
-189
-172
-158
-154
-145
-130
-129
-127
-105
-101
-132
-152
-145
-152
-160
-141
-142
-155
-125
-124
-169
-174
-222
16
1134
2036
933
-1044
-1412
-549
-137
-116
28
78
31
75
108
94
118
148
153
172
197
215
243
274
302
340
390
445
506
571
627
672
707
704
623
468
287
114
-34
-145
-216
-255
-275
-284
-288
-284
-272
-261
-257
-249
-236
-230
-226
-216
-206
-209
-212
-204
-197
-199
-202
-198
-194
-193
-189
-185
-178
-163
-151
-149
-135
-114
-114
-113
-88
-84
-121
-146
-141
-146
-151
-134
-139
-153
-117
-116
-169
-170
-218
-29
1072
2098
1108
-951
-1448
-578
-125
-121
11
72
21
58
97
87
107
132
135
155
186
205
224
250
279
314
359
414
473
532
584
629
664
665
597
457
284
117
-23
-128
-197
-240
-264
-274
-276
-274
-269
-259
-245
-235
-232
-224
-211
-206
-204
-199
-198
-200
-195
-189
-189
-187
-185
-188
-186
-178
-173
-173
-169
-161
-151
-142
-141
-135
-113
-98
-100
-86
-64
-80
-118
-128
-126
-139
-130
-112
-133
-126
-88
-127
-157
-163
-183
442
1781
1896
2
-1446
-987
-215
-120
-62
77
42
29
91
93
95
130
143
154
180
197
215
247
276
305
346
398
457
521
584
636
678
703
680
576
410
232
70
-69
-169
-226
-261
-286
-290
-280
-277
-277
-267
-256
-249
-241
-234
-233
-227
-215
-211
-216
-216
-207
-199
-197
-198
-200
-198
-192
-186
-183
-180
-174
-168
-159
-150
-149
-143
-128
-122
-120
-97
-78
-105
-139
-137
-131
-141
-134
-127
-144
-124
-103
-148
-172
-197
-77
817
1947
1394
-623
-1526
-800
-184
-131
-20
80
40
65
117
107
118
152
163
183
213
231
253
288
321
356
403
460
523
589
652
706
748
758
697
554
364
176
12
-114
-197
-248
-278
-291
-293
-291
-286
-278
-268
-260
-253
-242
-233
-228
-223
-216
-210
-205
-203
-205
-204
-200
-200
-198
-192
-189
-190
-186
-181
-179
-171
-156
-148
-150
-138
-115
-109
-110
-89
-73
-101
-135
-133
-132
-146
-134
-121
-139
-123
-102
-151
-168
-181
-98
742
1937
1516
-510
-1522
-821
-171
-123
-25
83
41
57
109
98
107
141
150
167
196
212
230
259
287
321
369
423
479
541
605
659
696
707
660
534
359
179
23
-100
-187
-243
-274
-284
-285
-282
-277
-269
-260
-251
-246
-241
-226
-212
-208
-208
-204
-198
-195
-192
-190
-191
-193
-189
-181
-181
-184
-182
-175
-169
-167
-160
-144
-136
-137
-126
-109
-110
-101
-71
-72
-113
-132
-124
-136
-144
-123
-129
-138
-98
-108
-160
-155
-206
71
1271
2128
873
-1096
-1330
-453
-112
-105
38
66
19
75
109
94
114
136
142
165
190
206
233
264
289
325
375
423
474
536
598
645
679
678
609
475
307
138
-3
-107
-180
-228
-249
-256
-260
-256
-246
-242
-239
-229
-217
-208
-200
-192
-189
-186
-178
-173
-175
-173
-170
-174
-173
-163
-157
-159
-157
-152
-149
-144
-139
-138
-136
-132
-125
-113
-110
-120
-126
-119
-117
-111
-92
-96
-134
-152
-143
-150
-154
-133
-137
-139
-104
-131
-174
-162
-203
196
1459
2021
472
-1302
-1213
-355
-129
-104
42
44
18
78
87
79
117
138
145
175
196
206
230
265
299
336
381
439
506
566
616
667
713
711
629
482
309
134
-22
-137
-212
-255
-272
-279
-287
-284
-271
-265
-263
-253
-241
-235
-231
-222
-212
-209
-211
-207
-199
-197
-198
-196
-192
-186
-181
-178
-175
-173
-169
-165
-161
-152
-139
-135
-135
-118
-99
-105
-100
-70
-69
-106
-122
-116
-127
-131
-111
-119
-128
-95
-109
-150
-156
-192
207
1431
2003
517
-1274
-1263
-405
-130
-90
65
84
56
115
132
119
149
171
179
206
231
251
280
314
347
388
437
491
555
623
680
727
762
751
659
491
297
116
-36
-150
-222
-262
-282
-292
-295
-292
-288
-283
-274
-264
-254
-241
-229
-223
-222
-219
-213
-210
-209
-206
-201
-198
-197
-197
-196
-193
-190
-188
-187
-183
-178
-174
-170
-165
-161
-150
-139
-141
-134
-111
-102
-106
-82
-61
-91
-127
-124
-124
-138
-123
-114
-139
-121
-98
-149
-160
-162
-95
719
1908
1492
-526
-1519
-798
-149
-117
-30
78
37
50
101
90
96
128
140
154
177
194
216
244
268
298
338
385
442
503
559
610
653
676
647
545
385
212
58
-69
-163
-226
-264
-282
-286
-281
-272
-264
-258
-247
-233
-226
-225
-220
-211
-204
-199
-195
-192
-190
-187
-183
-179
-177
-175
-170
-164
-161
-157
-152
-148
-143
-137
-135
-124
-107
-104
-106
-87
-68
-70
-59
-32
-41
-80
-89
-81
-95
-99
-82
-97
-98
-57
-86
-127
-110
-140
287
1543
2012
394
-1321
-1151
-290
-79
-48
94
83
57
123
132
116
149
169
168
188
214
232
252
276
305
340
384
433
484
537
590
635
664
660
595
458
287
122
-21
-132
-205
-249
-275
-285
-286
-284
-278
-268
-263
-259
-255
-248
-238
-229
-228
-228
-222
-216
-214
-210
-207
-207
-204
-199
-196
-193
-188
-180
-174
-168
