# session 38
-35
-31
-17
-131
-288
-279
-196
-195
-210
-189
-182
-187
-182
-179
-178
-174
-170
-165
-162
-162
-157
-147
-141
-137
-136
-144
-146
-138
-138
-140
-127
-114
-110
-105
-107
-112
-102
-102
-112
-93
-88
-117
-147
-248
-124
780
1661
979
-568
-975
-361
-49
-65
30
82
51
81
111
106
124
146
152
167
185
199
218
242
264
290
320
353
391
430
464
491
509
503
449
338
196
63
-43
-118
-163
-191
-207
-208
-204
-206
-202
-187
-176
-178
-182
-178
-174
-175
-172
-166
-164
-163
-159
-157
-159
-160
-158
-154
-151
-148
-146
-143
-144
-151
-149
-135
-129
-125
-105
-91
-102
-113
-112
-115
-112
-106
-111
-96
-85
-119
-143
-228
-293
331
1488
1496
29
-908
-514
-71
-84
-42
40
6
13
57
51
58
82
87
98
118
130
146
168
186
210
243
274
308
347
383
416
444
455
429
353
238
114
6
-79
-144
-185
-207
-215
-212
-206
-199
-192
-185
-181
-177
-173
-166
-160
-155
-151
-147
-148
-150
-149
-146
-145
-143
-140
-137
-135
-134
-129
-124
-117
-108
-115
-129
-125
-113
-114
-105
-84
-82
-93
-94
-98
-99
-88
-98
-100
-71
-87
-124
-164
-278
8
1090
1703
636
-720
-730
-163
-49
-60
41
38
17
64
72
62
87
105
111
129
146
159
178
197
215
238
265
299
336
367
396
426
446
441
392
295
174
59
-39
-114
-161
-187
-203
-208
-203
-195
-192
-185
-172
-166
-167
-162
-156
-151
-148
-148
-150
-148
-142
-139
-139
-139
-139
-138
-136
-132
-130
-128
-125
-120
-113
-111
-119
-128
-123
-110
-102
-83
-63
-69
-84
-89
-97
-99
-86
-94
-95
-70
-90
-125
-163
-277
4
1056
1628
562
-751
-735
-170
-57
-64
37
36
14
59
71
65
88
101
103
120
137
151
170
190
211
236
264
297
336
373
405
432
453
451
403
306
187
73
-26
-105
-159
-189
-204
-207
-204
-198
-195
-190
-179
-169
-169
-171
-167
-162
-159
-155
-152
-150
-149
-150
-151
-151
-147
-140
-134
-133
-132
-127
-126
-129
-123
-111
-116
-125
-112
-97
-102
-90
-61
-63
-89
-96
-99
-103
-90
-90
-97
-78
-87
-123
-157
-244
-16
954
1625
683
-777
-943
-306
-75
-85
18
50
26
64
85
80
102
124
131
148
167
183
202
225
253
280
306
343
394
442
473
498
525
527
466
347
207
74
-38
-122
-176
-210
-228
-235
-234
-228
-216
-206
-199
-193
-189
-186
-179
-170
-164
-161
-158
-156
-156
-155
-157
-160
-155
-146
-145
-148
-142
-130
-128
-134
-125
-104
-98
-108
-114
-118
-122
-120
-123
-127
-119
-119
-126
-147
-201
55
913
1429
497
-886
-1072
-441
-140
-113
-6
36
-4
21
53
27
23
74
108
120
169
220
235
255
299
342
380
417
446
476
516
571
615
603
511
349
176
56
-31
-128
-205
-233
-244
-253
-252
-247
-240
-233
-245
-258
-235
-193
-174
-176
-180
-181
-182
-193
-205
-194
-173
-172
-172
-156
-152
-162
-158
-154
-156
-131
-100
-110
-118
-90
-84
-106
-110
-118
-136
-113
-86
-99
-96
-90
-112
-125
-209
-171
594
1562
1136
-405
-1026
-461
-59
-79
-44
17
29
70
87
91
129
140
118
132
178
210
204
193
226
283
319
344
383
440
496
525
534
546
521
418
266
104
-37
-127
-165
-183
-218
-261
-263
-234
-219
-216
-214
-213
-191
-186
-222
-216
-162
-162
-200
-191
-158
-155
-167
-163
-147
-152
-160
-135
-128
-159
-142
-84
-83
-108
-95
-94
-118
-117
-107
-125
-132
-120
-126
-125
-107
-127
-155
-201
-279
126
1225
1640
398
-921
-832
-240
-114
-81
41
30
8
72
85
59
80
121
140
143
147
170
207
230
235
266
327
366
389
448
515
536
530
512
435
291
144
15
-116
-201
-222
-242
-266
-260
-260
-270
-255
-244
-245
-217
-191
-205
-213
-189
-167
-171
-186
-175
-150
-160
-180
-166
-155
-153
-134
-135
-154
-135
-103
-103
-107
-105
-106
-107
-113
-119
-111
-110
-122
-128
-121
-99
-101
-129
-154
-253
-145
754
1701
1096
-469
-960
-393
-76
-87
-13
26
7
42
71
69
75
81
102
138
139
140
183
216
217
241
289
329
379
433
454
486
546
542
447
332
203
47
-71
-129
-179
-222
-233
-234
-235
-218
-204
-201
-186
-170
-173
-166
-144
-146
-159
-152
-138
-137
-135
-133
-132
-130
-135
-141
-133
-125
-129
-130
-131
-135
-120
-99
-100
-97
-74
-77
-115
-129
-119
-115
-107
-107
-128
-103
-67
-111
-159
-224
-242
389
1483
1388
-145
-1061
-602
-106
-86
-25
57
14
27
86
79
69
90
100
119
153
174
183
198
219
246
275
307
346
393
438
474
500
507
475
391
274
151
35
-70
-148
-191
-212
-222
-225
-223
-217
-209
-198
-184
-177
-180
-184
-176
-162
-158
-163
-163
-156
-152
-153
-154
-155
-158
-156
-147
-142
-142
-141
-137
-132
-129
-134
-142
-135
-121
-116
-104
-81
-83
-101
-105
-104
-106
-95
-98
-110
-87
-81
-121
-161
-276
-169
747
1682
1059
-465
-892
-327
-59
-88
0
38
-2
31
63
54
71
92
96
113
138
156
175
198
223
254
289
322
361
406
447
475
491
493
457
368
244
119
8
-84
-146
-184
-207
-215
-212
-206
-201
-197
-190
-181
-171
-166
-163
-163
-164
-162
-155
-147
-147
-151
-150
-145
-141
-139
-137
-134
-130
-126
-124
-121
-116
-117
-118
-110
-108
-121
-120
-104
-99
-90
-53
-33
-57
-79
-84
-91
-87
-80
-95
-84
-61
-94
-124
-186
-238
338
1460
1503
43
-952
-573
-81
-69
-32
54
22
22
69
69
70
93
100
106
125
141
158
180
202
227
260
297
336
377
419
455
483
498
480
408
291
161
39
-65
-141
-185
-210
-223
-221
-208
-197
-193
-192
-189
-185
-178
-171
-167
-166
-164
-160
-159
-159
-158
-156
-155
-155
-156
-155
-152
-148
-146
-142
-138
-135
-134
-133
-128
-117
-114
-126
-129
-114
-108
-106
-78
-55
-72
-92
-92
-99
-99
-85
-96
-98
-71
-90
-119
-164
-274
99
1237
1705
471
-823
-698
-133
-62
-63
44
33
11
55
64
62
89
101
107
129
149
162
179
202
229
262
296
335
382
429
466
495
516
512
455
343
209
82
-26
-107
-158
-189
-202
-205
-206
-205
-199
-192
-188
-185
-181
-173
-164
-160
-160
-157
-156
-156
-154
-153
-150
-144
-144
-149
-148
-145
-151
-154
-148
-145
-146
-144
-136
-125
-120
-130
-138
-125
-107
-100
-83
-54
-55
-79
-84
-84
-90
-79
-76
-94
-79
-67
-102
-131
-230
-216
562
1632
1326
-191
-877
-390
-40
-73
-16
40
3
28
65
50
57
85
94
107
129
143
160
179
196
221
255
292
334
379
420
457
491
503
468
384
267
141
25
-72
-143
-186
-210
-222
-223
-219
-215
-210
-203
-194
-185
-177
-173
-170
-163
-153
-149
-151
-150
-145
-144
-148
-150
-147
-139
-133
-130
-128
-123
-121
-123
-123
-117
-114
-110
-103
-105
-115
-105
-83
-82
-81
-51
-32
-53
-72
-74
-84
-84
-76
-91
-87
-62
-90
-124
-177
-271
167
1298
1632
353
-815
-617
-104
-63
-54
40
19
4
46
50
53
80
89
93
115
134
149
171
194
214
241
278
319
364
410
448
477
501
497
436
326
198
72
-36
-116
-170
-203
-218
-221
-219
-214
-207
-198
-189
-179
-172
-163
-153
-149
-153
-154
-149
-146
-146
-146
-144
-145
-145
-140
-133
-133
-136
-132
-127
-130
-131
-121
-116
-122
-120
-104
-101
-119
-125
-111
-103
-97
-67
-41
-59
-82
-80
-85
-92
-77
-77
-84
-65
-77
-113
-149
-262
-42
976
1700
800
-602
-756
-197
-40
-70
23
37
8
48
67
56
73
95
106
122
138
152
171
193
214
240
272
313
358
400
442
482
505
506
471
378
244
115
4
-86
-148
-183
-205
-217
-217
-213
-210
-208
-203
-193
-184
-179
-176
-170
-166
-168
-168
-163
-160
-161
-158
-154
-152
-148
-147
-149
-148
-142
-136
-131
-123
-117
-120
-125
-122
-116
-110
-107
-113
-121
-112
-98
-94
-74
-43
-48
-74
-78
-82
-92
-78
-70
-82
-67
-61
-95
-128
-233
-143
722
1656
1108
-369
-829
-296
-28
-66
7
46
14
48
77
64
79
103
113
127
141
151
170
192
209
233
267
303
341
382
424
462
490
501
477
401
285
156
33
-73
-147
-188
-210
-219
-220
-218
-215
-212
-208
-198
-184
-178
-182
-180
-167
-158
-163
-168
-162
-155
-156
-156
-153
-152
-151
-142
-137
-140
-141
-135
-128
-125
-123
-119
-112
-112
-126
-129
-114
-104
-95
-67
-50
-69
-91
-97
-103
-98
-86
-96
-91
-62
-86
-121
-166
-270
91
1193
1662
491
-765
-672
-140
-68
-69
28
20
4
46
53
53
80
94
101
120
137
155
177
196
218
249
284
323
369
414
451
484
511
510
460
362
236
106
-10
-98
-157
-190
-206
-214
-216
-213
-207
-205
-199
-190
-185
-180
-172
-170
-172
-166
-159
-161
-163
-157
-150
-148
-149
-152
-153
-149
-144
-134
-129
-134
-135
-127
-128
-132
-122
-115
-112
-89
-70
-86
-107
-108
-114
-115
-101
-109
-114
-92
-105
-134
-168
-256
69
1123
1628
486
-847
-804
-211
-84
-80
29
32
12
58
67
61
90
107
114
141
164
176
195
220
247
284
325
362
405
454
497
535
567
561
494
373
229
86
-39
-131
-189
-222
-243
-252
-254
-252
-245
-235
-229
-222
-211
-200
-195
-191
-188
-184
-178
-170
-166
-165
-166
-165
-164
-164
-161
-156
-159
-159
-145
-140
-151
-145
-126
-128
-126
-92
-79
-103
-113
-110
-117
-108
-94
-106
-97
-80
-110
-146
-253
-301
392
1580
1532
23
-887
-479
-55
-76
-35
42
10
23
62
52
58
86
93
103
124
141
160
183
206
234
270
308
350
398
444
485
524
542
513
425
295
151
16
-92
-162
-204
-229
-242
-244
-242
-238
-229
-219
-214
-210
-204
-198
-194
-186
-179
-180
-180
-173
-164
-158
-157
-158
-159
-153
-141
-141
-153
-147
-130
-133
-129
-94
-77
-103
-123
-124
-130
-122
-108
-124
-120
-90
-114
-150
-212
-329
105
1310
1735
431
-837
-672
-133
-83
-74
28
8
-8
38
39
36
64
76
83
107
129
149
173
195
216
246
284
330
380
426
468
507
530
509
431
303
158
23
-87
-161
-204
-231
-245
-246
-243
-242
-232
-220
-214
-209
-201
-197
-192
-181
-175
-177
-178
-177
-172
-163
-159
-164
-158
-145
-148
-156
-144
-130
-130
-115
-84
-84
-110
-117
-117
-127
-118
-109
-126
-111
-93
-129
-158
-241
-235
510
1611
1360
-201
-965
-464
-67
-97
-39
31
-4
14
52
41
55
85
88
97
123
140
155
183
212
236
268
314
365
416
466
509
537
537
492
391
251
108
-13
-104
-165
-203
-223
-232
-234
-235
-233
-226
-218
-209
-200
-193
-189
-186
-182
-178
-177
-173
-169
-167
-168
-164
-161
-162
-155
-146
-153
-159
-142
-127
-127
-112
-87
-97
-122
-121
-119
-126
-115
-109
-121
-103
-94
-128
-158
-273
-236
627
1713
1280
-327
-957
-405
-59
-96
-22
37
-2
23
63
59
72
92
95
113
139
152
170
199
225
255
297
341
385
440
498
541
565
566
512
393
242
99
-23
-121
-188
-229
-249
-258
-258
-256
-253
-245
-232
-221
-218
-213
-202
-194
-193
-189
-181
-178
-180
-179
-173
-166
-160
-156
-157
-157
-153
-146
-146
-149
-140
-129
-129
-122
-103
-102
-116
-123
-133
-135
-119
-119
-126
-103
-104
-138
-166
-263
-80
900
1726
913
-622
-927
-321
-72
-90
12
46
12
49
77
70
91
115
121
133
155
180
206
231
256
291
336
386
440
496
549
594
619
602
521
380
214
60
-63
-151
-208
-240
-253
-258
-260
-259
-255
-246
-235
-229
-226
-217
-203
-191
-183
-177
-175
-176
-175
-171
-169
-173
-171
-164
-161
-161
-156
-150
-146
-145
-145
-141
-132
-127
-134
-138
-126
-116
-114
-100
-80
-84
-99
-101
-105
-108
-96
-100
-105
-79
-78
-108
-144
-277
-142
867
1847
1177
-395
-835
-287
-42
-81
11
55
19
50
77
68
88
110
109
121
147
164
180
202
229
260
297
340
389
443
496
542
579
587
534
415
264
115
-14
-113
-181
-220
-234
-239
-243
-242
-236
-234
-227
-210
-203
-208
-203
-185
-170
-168
-172
-153
-126
-147
-168
-118
-95
-163
-168
-92
-111
-184
-157
-109
-124
-125
-103
-101
-92
-101
-142
-129
-73
-75
-112
-111
-96
-91
-83
-69
-49
-28
-37
-61
-66
-67
-66
-51
-49
-54
-41
-55
-77
-89
-160
77
995
1605
763
-522
-716
-244
-63
-52
24
33
21
51
56
79
110
87
109
194
190
136
161
178
136
156
241
285
297
322
348
369
385
384
367
327
246
138
37
-49
-131
-197
-215
-194
-192
-224
-242
-226
-210
-208
-197
-183
-188
-193
-180
-172
-172
-165
-158
-163
-168
-166
-160
-154
-152
-150
-143
-138
-138
-138
-135
-129
-124
-119
-109
-100
-104
-105
-93
-79
-62
-42
-48
-76
-82
-79
-94
-97
-84
-87
-77
-65
-95
-113
-137
-89
472
1282
1052
-259
-983
-581
-133
-67
-7
62
43
51
88
92
101
126
142
156
171
183
201
218
225
239
274
310
339
373
408
437
467
493
487
436
347
233
122
34
-37
-98
-136
-153
-162
-161
-161
-167
-170
-164
-159
-155
-152
-151
-147
-141
-141
-142
-136
-131
-130
-127
-122
-124
-132
-131
-122
-123
-131
-125
-121
-127
-120
-104
-106
-100
-64
-45
-71
-89
-82
-84
-83
-73
-83
-74
-46
-81
-129
-176
-267
148
1305
1718
418
-867
-703
-140
-88
-89
20
9
-11
26
34
37
