# session 4
256
243
256
183
52
19
42
-8
-87
-128
-163
-210
-245
-258
-258
-260
-272
-287
-289
-278
-271
-289
-312
-300
-291
-313
-299
-273
-304
-333
-422
-463
284
1581
1472
-380
-1553
-1036
-384
-322
-247
-102
-116
-128
-83
-71
-59
-28
-14
4
40
71
99
143
183
199
202
202
194
200
225
227
180
111
41
-16
-50
-77
-110
-128
-122
-122
-153
-190
-197
-182
-192
-238
-267
-262
-269
-276
-251
-271
-313
-346
-548
-528
539
1738
1126
-611
-1168
-602
-335
-373
-259
-193
-220
-186
-157
-149
-98
-64
-62
-31
10
40
92
148
177
197
218
229
240
269
303
302
244
155
67
-11
-64
-81
-93
-113
-116
-109
-126
-155
-162
-145
-132
-150
-172
-169
-177
-186
-163
-183
-228
-243
-367
-191
953
1942
1010
-765
-1140
-466
-148
-119
-8
22
12
80
118
116
142
175
197
225
258
290
317
342
364
360
335
327
329
321
314
313
288
232
169
129
102
53
-7
-30
-25
-40
-73
-95
-105
-111
-114
-126
-125
-108
-123
-137
-93
-89
-138
-175
-281
-78
966
1760
812
-761
-1010
-411
-192
-183
-61
-39
-83
-53
-26
-24
0
28
51
76
92
109
144
178
197
203
201
208
240
283
309
298
225
108
18
-37
-114
-206
-269
-298
-309
-316
-330
-335
-316
-304
-329
-347
-328
-339
-370
-329
-287
-322
-384
-559
-539
465
1699
1160
-666
-1322
-678
-310
-326
-189
-105
-155
-127
-87
-96
-68
-24
2
38
75
95
126
166
190
212
241
255
253
266
288
270
197
110
55
26
-11
-49
-66
-73
-84
-101
-124
-141
-132
-112
-122
-153
-149
-132
-148
-142
-111
-142
-182
-241
-308
256
1521
1733
83
-1318
-1035
-346
-201
-115
32
5
-27
36
78
103
148
190
223
241
257
291
313
319
350
380
365
345
353
361
353
324
250
157
102
73
31
-19
-41
-37
-40
-67
-95
-98
-89
-106
-141
-143
-123
-142
-156
-123
-143
-202
-255
-448
-338
793
1847
1050
-611
-988
-425
-231
-263
-149
-122
-177
-149
-111
-100
-72
-43
-19
10
23
33
71
117
144
156
153
150
177
217
235
214
154
78
14
-40
-95
-136
-165
-196
-214
-219
-230
-243
-234
-213
-212
-230
-232
-229
-252
-252
-227
-255
-271
-309
-505
-228
1020
1723
528
-943
-940
-364
-262
-245
-123
-136
-154
-84
-58
-62
-24
21
50
86
132
177
216
251
288
324
356
377
396
427
443
405
321
235
164
101
45
-7
-50
-76
-94
-123
-161
-180
-174
-172
-186
-190
-192
-220
-218
-180
-202
-238
-298
-435
-12
1296
1796
265
-1336
-1185
-428
-265
-232
-79
-76
-105
-46
-20
-15
15
37
63
111
152
186
222
251
277
295
293
283
293
309
278
194
110
52
5
-37
-70
-95
-105
-99
-100
-119
-131
-129
-128
-136
-144
-150
-163
-170
-140
-129
-185
-205
-268
-442
-18
1255
1679
259
-1089
-878
-256
-171
-143
-1
12
-6
30
51
78
110
113
129
179
220
245
273
307
332
339
345
371
402
404
370
306
215
116
40
-4
-36
-62
-80
-103
-130
-150
-178
-202
-183
-169
-216
-246
-223
-229
-247
-235
-250
-268
-398
-710
-383
1038
1758
409
-1120
-1035
-421
-370
-384
-238
-234
-277
-231
-194
-184
-161
-138
-110
-72
-53
-39
23
112
158
163
171
182
213
271
287
221
136
73
15
-26
-45
-81
-118
-106
-82
-100
-116
-92
-77
-89
-94
-86
-79
-82
-76
-52
-73
-116
-128
-249
-210
634
1572
1042
-390
-844
-365
-103
-98
-17
9
-19
10
32
36
72
105
117
138
171
204
238
268
290
304
319
339
371
417
456
442
372
302
242
162
82
32
-2
-26
-41
-80
-141
-172
-166
-163
-193
-240
-262
-265
-266
-228
-199
-231
-273
-429
-506
311
1600
1372
-364
-1229
-680
-236
-254
-172
-82
-109
-88
-61
-73
-63
-87
-141
-107
-19
30
70
121
152
175
186
168
166
209
232
176
77
0
-51
-106
-156
-189
-221
-241
-224
-210
-241
-264
-230
-193
-210
-232
-211
-195
-210
-188
-156
-185
-208
-286
-389
161
1331
1376
-239
-1370
-907
-246
-168
-110
26
22
21
78
96
106
138
166
196
232
269
310
343
363
382
390
379
381
403
403
355
281
209
142
81
37
-1
-43
-71
-70
-74
-107
-138
-139
-129
-137
-153
-149
-138
-153
-160
-140
-152
-170
-248
-477
-242
953
1690
563
-947
-982
-326
-172
-193
-76
-59
-81
-21
3
-17
8
46
65
100
148
173
187
223
265
270
254
264
308
332
292
195
90
24
-8
-47
-101
-130
-122
-110
-122
-156
-200
-232
-225
-206
-225
-251
-239
-245
-273
-242
-215
-254
-306
-484
-549
314
1588
1349
-291
-1098
-611
-204
-205
-145
-78
-97
-69
-29
-26
2
41
59
88
136
171
188
209
237
252
247
238
235
242
255
245
188
111
56
15
-32
-71
-98
-125
-143
-141
-147
-171
-180
-164
-149
-153
-160
-147
-141
-165
-153
-115
-150
-188
-241
-337
154
1345
1565
85
-1103
-793
-236
-185
-136
-19
-36
-42
-1
0
16
59
83
108
145
178
221
264
287
307
323
316
319
354
364
302
209
137
77
14
-36
-63
-88
-120
-138
-139
-148
-172
-188
-191
-192
-202
-218
-220
-216
-230
-229
-210
-226
-244
-326
-486
-61
1157
1535
109
-1238
-1014
-350
-230
-189
-45
-37
-49
4
18
22
62
95
119
153
186
219
254
282
299
308
313
321
338
347
310
218
119
57
19
-20
-58
-86
-110
-125
-123
-128
-157
-187
-193
-185
-189
-212
-218
-200
-201
-204
-174
-170
-189
-254
-457
-240
957
1799
716
-934
-1094
-408
-186
-178
-38
-5
-54
-40
-23
-11
17
42
91
156
194
227
280
316
324
331
340
339
338
339
305
221
120
36
-24
-73
-117
-153
-175
-193
-208
-213
-212
-219
-231
-227
-211
-211
-221
-201
-179
-187
-178
-162
-186
-206
-310
-401
266
1522
1507
-167
-1266
-821
-243
-183
-109
4
-11
6
61
61
71
106
123
153
200
234
263
299
329
342
338
332
341
353
337
269
164
63
-15
-73
-115
-146
-183
-217
-225
-218
-231
-266
-285
-267
-237
-234
-252
-244
-213
-216
-224
-179
-156
-177
-221
-369
-173
928
1759
720
-973
-1173
-426
-160
-167
-16
30
-29
7
59
68
84
93
104
155
216
254
287
328
362
380
379
362
339
315
271
197
114
42
-19
-65
-91
-114
-142
-154
-144
-133
-143
-171
-188
-171
-144
-149
-166
-152
-135
-141
-119
-101
-141
-171
-265
-373
189
1350
1401
-138
-1218
-836
-287
-235
-166
-42
-54
-46
5
6
18
60
82
102
139
171
197
227
252
263
264
268
279
282
258
194
93
-14
-88
-122
-141
-157
-167
-165
-152
-144
-152
-166
-177
-182
-178
-174
-192
-208
-198
-195
-191
-154
-149
-181
-226
-394
-308
691
1668
921
-753
-1197
-553
-206
-180
-55
-3
-40
3
45
39
62
109
144
176
202
233
279
323
359
383
379
368
383
382
310
203
116
45
-11
-41
-63
-97
-134
-150
-142
-131
-143
-170
-186
-190
-193
-198
-215
-227
-212
-206
-216
-197
-194
-230
-274
-412
-315
675
1723
1080
-614
-1153
-546
-195
-174
-37
43
17
45
76
91
141
172
170
202
264
304
324
350
384
397
368
332
326
332
311
254
171
78
-3
-62
-109
-150
-187
-225
-247
-238
-231
-261
-294
-287
-265
-270
-288
-286
-263
-254
-263
-239
-209
-248
-276
-302
-327
185
1220
1285
-116
-1170
-875
-326
-196
-117
-24
-33
-15
42
59
82
124
146
169
220
275
321
358
374
379
387
392
396
408
400
337
233
127
37
-32
-85
-136
-178
-200
-214
-221
-212
-209
-233
-253
-245
-240
-263
-290
-291
-282
-284
-264
-245
-269
-275
-380
-592
-98
1309
1771
263
-1157
-933
-266
-145
-104
16
6
4
59
64
82
141
166
173
202
232
262
301
326
326
317
320
344
365
347
278
177
81
19
-27
-79
-120
-145
-167
-170
-133
-105
-137
-189
-203
-183
-168
-182
-214
-221
-199
-193
-197
-171
-173
-209
-259
-426
-344
634
1617
893
-804
-1277
-596
-200
-173
-53
18
-2
38
78
84
124
168
193
228
265
287
312
343
368
377
372
372
397
423
396
303
194
113
51
-8
-56
-79
-91
-112
-133
-136
-138
-169
-195
-182
-169
-179
-188
-197
-209
-210
-207
-198
-191
-224
-251
-335
-603
-410
879
1868
889
-763
-1031
-455
-264
-260
-145
-119
-124
-66
-48
-44
10
56
81
112
137
165
198
205
206
228
249
265
302
342
338
276
190
119
61
1
-52
-92
-121
-133
-139
-159
-170
-159
-167
-200
-208
-183
-170
-186
-200
-185
-171
-182
-177
-169
-195
-226
-311
-287
336
1155
846
-439
-1047
-647
-262
-176
-91
-39
-49
-19
14
21
51
89
113
147
186
212
240
272
296
313
334
360
391
416
404
345
263
184
102
21
-42
-85
-118
-138
-155
-182
-195
-179
-177
-204
-215
-197
-187
-199
-206
-190
-174
-185
-172
-138
-166
-199
-248
-386
-4
1200
1641
249
-1130
-933
-287
-186
-151
-10
-17
-38
26
58
68
98
125
158
198
222
248
289
324
346
357
364
385
406
385
309
213
121
38
-26
-71
-113
-152
-170
-179
-192
-190
-182
-201
-231
-234
-219
-210
-212
-223
-221
-202
-195
-186
-177
-200
-214
-285
-365
184
1319
1365
-237
-1416
-1010
-339
-228
-159
-13
-6
-6
49
66
80
119
146
175
218
258
298
336
357
366
374
389
407
401
347
255
152
68
18
-22
-71
-107
-122
-142
-165
-170
-159
-148
-153
-178
-198
-188
-168
-170
-191
-190
-168
-163
-155
-130
-148
-177
-254
-437
-100
1136
1741
460
-1028
-978
-331
-193
-170
-32
-27
-50
10
37
49
98
131
150
189
230
263
300
329
343
353
359
359
364
347
255
105
-16
-68
-92
-125
-153
-163
-168
-181
-194
-201
-212
-237
-262
-266
-259
-260
-268
-273
-260
-241
-238
-233
-228
-247
-244
-344
-570
-114
1305
1868
449
-993
-853
-256
-169
-135
-14
-32
-41
15
23
39
93
119
141
186
221
248
280
293
286
294
317
330
330
319
265
153
37
-40
-99
-150
-177
-191
-212
-220
-214
-212
-212
-210
-219
-222
-200
-178
-182
-197
-185
-156
-158
-159
-126
-132
-170
-243
-451
-240
1002
1961
966
-718
-972
-329
-101
-99
12
23
-6
49
77
78
119
154
173
214
261
291
317
344
361
365
362
361
372
371
315
208
99
17
-47
-100
-138
-164
-183
-200
-217
-225
-210
-192
-203
-228
-235
-225
-223
-232
-234
-222
-221
-227
-201
-193
-236
-274
-414
-483
288
1523
1337
-328
-1217
-706
-215
-179
-98
-17
-41
-9
39
38
74
131
151
176
222
262
300
335
346
346
354
362
366
365
325
231
126
48
-12
-72
-123
-156
-177
-193
-206
-216
-215
-198
-195
-210
-208
-190
-186
-193
-200
-196
-185
-183
-165
-133
-162
-209
-270
-452
-217
953
1721
644
-880
-972
-335
-141
-114
8
5
-29
33
66
61
98
150
185
208
223
249
288
306
284
247
248
281
268
215
189
156
79
12
-31
-87
-142
-176
-201
-213
-214
-213
-210
-204
-211
-227
-230
-215
-197
-196
-208
-199
-179
-180
-171
-149
-173
-199
-268
-403
4
1130
1467
178
-1014
-819
-246
-118
-71
25
20
19
57
66
92
145
176
201
236
269
299
325
342
362
393
422
445
454
416
319
200
102
26
-40
-96
-138
-170
-196
-207
-206
-205
-201
-184
-181
-203
-213
-195
-185
-194
-189
-159
-146
-162
-155
-135
-146
-163
-248
-309
228
1174
1004
-508
-1377
-810
-175
-102
-35
86
65
74
135
133
140
196
219
226
265
301
314
337
367
378
378
383
381
353
284
185
93
23
-39
-92
-126
-144
-156
-168
-176
-177
-174
-170
-174
-189
-200
-190
-181
-197
-217
-209
-192
-196
-199
-190
-206
-220
-283
-450
-236
712
1240
214
-1124
-1135
-433
-164
-139
-18
25
8
57
87
70
85
139
195
242
278
299
319
340
349
346
343
346
341
301
210
97
11
-41
-85
-132
-161
-166
-163
-163
-167
-163
-142
-124
-143
-181
-184
-152
-140
-159
-167
-147
-144
-162
-148
-128
-136
-158
-330
-440
334
1603
1425
-254
-1124
-580
-112
-116
-12
95
28
24
96
95
101
198
283
286
275
290
306
334
374
371
332
320
326
322
316
261
121
-6
-47
-85
-157
-179
-149
-155
-198
-219
-221
-221
-203
-193
-235
-265
-204
-163
-230
-243
-123
-73
-150
-163
-121
-155
-197
-280
-404
8
1002
1185
46
-816
-571
-231
-220
-49
175
144
22
-67
-135
-88
33
92
117
161
181
185
206
222
236
256
257
264
298
292
208
110
36
-27
-83
-125
-147
-153
-161
-177
-178
-169
-169
-169
-167
-174
-176
-167
-166
-175
-180
-181
-183
-186
-177
-157
-154
-162
-189
-258
-67
623
1028
304
-726
-837
-363
-121
-59
40
78
55
58
77
95
114
133
158
182
195
217
259
297
319
331
346
371
394
394
347
244
123
33
-32
-91
-128
-144
-169
-196
-208
-211
-204
-200
-221
-246
-240
-219
-219
-236
-234
-205
-195
-216
-211
-194
-208
-238
-367
-399
336
1416
1117
-510
-1301
-713
-155
-65
43
139
116
125
145
138
180
242
264
288
338
390
442
494
524
530
530
529
510
462
379
260
126
13
-62
-100
-127
-158
-177
-171
-171
-180
-160
-129
-151
-200
-199
-162
-148
-157
-170
-172
-156
-157
-172
-170
-196
-237
-309
-513
-312
867
1734
738
-835
-1039
-476
-323
-327
-210
-197
-224
-180
-168
-178
-146
-111
-82
-43
-6
