# session 9
75
39
116
-12
-122
718
1951
1493
-549
-1644
-1098
-437
-269
-188
-177
-244
-228
-217
-261
-229
-143
-89
-25
63
151
285
424
468
477
521
507
414
321
205
50
-52
-64
-47
-48
-79
-114
-117
-100
-86
-59
-13
5
-46
-123
-175
-236
-296
-307
-331
-379
-409
-588
-585
473
1783
1233
-689
-1426
-780
-340
-292
-155
-122
-219
-191
-109
-85
-46
2
-1
-1
79
216
310
315
294
319
382
408
337
187
22
-118
-199
-186
-134
-140
-187
-202
-183
-169
-171
-170
-117
-13
41
37
57
59
0
-22
-37
-119
-196
-364
-374
642
1972
1362
-784
-1658
-972
-519
-505
-325
-200
-219
-137
-68
-114
-134
-109
-95
-52
15
53
95
169
224
247
294
360
372
305
199
111
66
19
-59
-115
-138
-188
-268
-322
-329
-287
-223
-190
-174
-140
-115
-80
1
23
-3
-10
-195
-192
966
2383
1730
-424
-1245
-547
-143
-211
-99
28
41
108
170
191
237
257
250
310
417
490
521
553
604
648
633
549
441
356
304
278
273
272
268
285
314
289
199
128
137
169
127
20
-47
-63
-94
-119
-121
-147
-170
-266
-461
-23
1405
2054
513
-1320
-1353
-533
-236
-169
-14
-7
-80
-63
27
171
297
343
399
472
385
165
54
-16
-352
-947
-1691
-2591
-3188
-2882
-2052
-1507
-1277
-1039
-815
-653
-485
-345
-275
-214
-124
-24
53
69
54
67
104
148
168
140
82
-115
-297
398
1862
2043
312
-983
-625
-53
-12
85
253
234
218
278
325
391
461
479
504
574
637
680
727
755
756
771
783
733
640
566
493
383
273
204
148
93
72
60
3
-70
-146
-257
-350
-356
-343
-384
-401
-324
-282
-320
-302
-373
-439
447
1954
1692
-582
-1910
-1262
-542
-494
-400
-229
-200
-129
-17
13
25
66
106
149
188
207
213
218
218
215
235
267
251
184
119
58
10
25
55
32
28
81
110
107
119
129
117
89
47
13
-28
-83
-83
-76
-138
-181
-312
-406
424
1834
1598
-466
-1675
-1165
-594
-520
-381
-268
-310
-264
-180
-181
-152
-75
-29
27
114
175
226
311
335
252
241
369
393
231
134
153
93
-16
-39
-58
-101
-63
-11
-52
-87
-59
-44
-62
-78
-89
-107
-132
-139
-118
-87
-87
-229
-281
469
1641
1443
-270
-1318
-882
-305
-198
-106
7
-1
2
31
0
-53
-75
-64
-32
9
76
176
273
352
419
443
415
387
373
334
287
281
290
271
232
82
-284
-645
-686
-520
-426
-375
-290
-259
-283
-320
-407
-494
-559
-686
-788
-839
-865
-247
1137
1507
-51
-1452
-1190
-497
-332
-218
-59
-90
-122
-139
-312
-419
-247
-5
130
238
367
481
565
612
629
652
662
615
522
412
291
187
121
68
22
3
-8
-33
-48
-65
-117
-133
-88
-131
-272
-289
-139
8
91
105
77
69
-20
81
1049
2096
1379
-526
-1244
-639
-222
-180
-42
48
27
62
109
127
170
212
238
288
346
373
386
408
412
396
410
439
390
255
127
47
-22
-95
-148
-172
-201
-246
-270
-278
-307
-308
-251
-267
-396
-456
-428
-457
-462
-389
-385
-433
-529
-645
-75
1266
1588
108
-1180
-1026
-552
-458
-346
-228
-264
-255
-168
-127
-104
-71
-44
-5
49
101
155
202
234
265
307
361
394
361
279
211
161
110
82
76
56
33
35
32
-7
-48
-54
-52
-80
-103
-97
-114
-136
-106
-112
-155
-145
-239
-167
850
1961
1183
-799
-1460
-770
-342
-309
-169
-91
-112
-55
-5
-6
32
83
109
157
231
297
353
397
411
413
430
435
385
293
193
115
67
24
-20
-43
-59
-79
-90
-118
-174
-190
-158
-164
-209
-220
-210
-202
-186
-196
-212
-272
-487
-330
778
1601
564
-1099
-1311
-602
-337
-348
-219
-155
-165
-120
-94
-84
-32
20
61
115
171
242
314
329
313
330
364
361
304
209
129
89
50
1
-25
-39
-59
-56
-38
-43
-72
-85
-66
-53
-78
-106
-108
-87
-46
-29
-38
-69
-235
-229
615
1541
794
-1095
-1852
-1287
-812
-637
-368
-186
-144
-44
57
90
131
186
235
300
371
422
464
498
508
499
495
484
429
334
238
161
100
55
14
-29
-36
7
39
11
-35
-48
-41
-53
-71
-73
-80
-85
-50
-38
-69
-91
-249
-288
639
1922
1496
-403
-1271
-689
-237
-229
-122
-45
-113
-135
-127
-125
-67
-14
-9
20
82
127
146
151
141
137
158
175
145
68
-13
-83
-173
-280
-349
-370
-382
-394
-384
-357
-336
-317
-281
-270
-346
-436
-428
-363
-306
-260
-258
-287
-407
-604
-158
1211
1815
476
-1014
-987
-390
-243
-208
-95
-67
-32
30
29
35
84
116
146
192
222
250
296
336
361
403
456
475
440
369
296
244
201
145
97
87
104
111
84
30
2
23
38
5
-18
0
-4
-30
-12
-14
-57
-55
-131
-57
854
1846
1095
-780
-1410
-733
-289
-244
-114
-40
-75
-38
13
12
24
58
100
150
189
233
302
358
375
384
387
362
300
208
106
18
-47
-86
-105
-120
-131
-127
-122
-144
-174
-167
-131
-122
-137
-134
-131
-138
-123
-121
-142
-166
-338
-375
512
1672
1159
-703
-1495
-864
-373
-353
-267
-189
-218
-201
-173
-171
-129
-87
-79
-46
13
59
92
109
109
122
154
165
130
66
-12
-87
-133
-151
-171
-199
-216
-218
-222
-241
-266
-263
-228
-213
-240
-240
-201
-187
-176
-146
-149
-162
-266
-493
-95
1254
1846
491
-974
-886
-277
-173
-148
-9
-6
-36
12
40
47
74
106
130
150
187
248
280
272
311
402
447
424
384
333
272
220
179
150
136
119
97
93
99
86
52
21
9
-10
-37
-28
-7
-26
-35
-31
-66
-93
-173
-212
465
1591
1368
-377
-1390
-895
-334
-260
-172
-75
-94
-74
-33
-22
32
98
117
137
190
246
288
313
327
347
373
369
313
223
138
72
15
-27
-52
-77
-110
-136
-160
-197
-235
-243
-225
-217
-232
-246
-247
-232
-203
-207
-228
-232
-397
-519
224
1389
1052
-725
-1573
-912
-314
-276
-210
-104
-119
-104
-40
-18
0
41
85
137
204
263
298
313
318
320
336
341
287
197
134
84
10
-50
-70
-85
-103
-104
-103
-120
-146
-157
-147
-146
-162
-156
-144
-152
-135
-115
-140
-153
-281
-515
-60
1176
1406
-101
-1296
-946
-316
-217
-157
-37
-58
-66
-12
-3
10
55
85
130
206
265
304
347
364
352
361
385
351
245
143
71
0
-48
-61
-90
-139
-148
-128
-138
-173
-189
-178
-165
-173
-183
-166
-161
-167
-131
-111
-133
-159
-292
-202
777
1764
998
-768
-1266
-583
-194
-169
-40
21
-26
11
74
95
134
184
213
253
314
372
417
441
437
429
431
404
327
229
130
48
2
-33
-75
-97
-97
-110
-128
-135
-153
-175
-171
-169
-193
-198
-181
-180
-165
-146
-174
-183
-239
-345
172
1366
1543
18
-1222
-965
-400
-319
-290
-210
-235
-229
-162
-135
-118
-75
-34
11
71
133
187
230
255
270
296
324
311
244
165
101
42
-9
-35
-51
-71
-79
-73
-85
-116
-129
-110
-107
-137
-146
-123
-129
-134
-103
-115
-138
-196
-410
-167
1084
1856
634
-1008
-1091
-436
-271
-258
-112
-87
-107
-52
-25
-13
39
89
128
170
216
273
323
333
328
343
353
316
230
132
53
-9
-58
-82
-97
-122
-139
-135
-134
-155
-179
-170
-134
-116
-112
-115
-158
-205
-180
-155
-169
-182
-345
-415
394
1508
1058
-677
-1386
-743
-268
-261
-158
-46
-67
-49
4
23
58
108
150
211
276
317
382
445
413
348
368
382
277
157
122
89
4
-58
-63
-64
-72
-66
-63
-87
-121
-136
-119
-101
-128
-160
-148
-135
-133
-129
-150
-152
-227
-467
-179
1054
1629
270
-1263
-1184
-472
-283
-247
-112
-94
-96
-43
-41
-33
41
94
115
178
267
325
360
387
386
378
393
376
281
166
86
29
-5
-19
-45
-78
-86
-73
-67
-76
-104
-130
-117
-102
-132
-153
-138
-134
-116
-93
-133
-169
-262
-432
65
1399
1741
156
-1269
-1046
-405
-298
-257
-127
-119
-122
-88
-90
-66
13
75
113
170
249
318
338
312
293
313
328
286
205
127
54
-21
-85
-127
-144
-144
-147
-152
-149
-164
-200
-209
-185
-190
-218
-215
-202
-206
-179
-154
-201
-230
-281
-368
127
1247
1385
-91
-1268
-978
-377
-253
-190
-77
-75
-64
-7
13
41
107
158
203
271
342
396
433
453
464
481
486
439
346
245
161
99
50
2
-37
-56
-63
-65
-67
-88
-120
-127
-105
-102
-123
-118
-97
-108
-113
-102
-123
-131
-210
-398
32
1315
1694
160
-1269
-1038
-364
-255
-217
-80
-93
-115
-53
-24
-9
38
81
125
197
270
321
348
354
351
357
353
297
199
104
27
-37
-77
-91
-103
-123
-141
-149
-152
-170
-206
-218
-196
-197
-222
-214
-193
-210
-208
-183
-201
-219
-303
-488
-83
1142
1501
8
-1387
-1137
-425
-283
-234
-76
-60
-77
-28
-4
14
59
96
144
218
287
342
377
384
382
376
348
294
219
129
45
-21
-74
-112
-135
-149
-156
-162
-173
-186
-197
-211
-216
-207
-207
-214
-202
-194
-195
-162
-142
-159
-185
-323
-236
763
1809
1095
-699
-1279
-640
-240
-203
-88
-28
-64
-49
-18
8
67
122
160
211
271
323
366
383
368
353
361
355
294
199
122
68
14
-30
-48
-61
-83
-89
-73
-70
-86
-103
-104
-85
-69
-86
-104
-105
-121
-118
-93
-120
-141
-181
-286
143
1263
1503
84
-1127
-871
-288
-185
-133
-31
-49
-49
5
24
55
110
142
193
273
328
368
405
408
400
431
459
411
301
194
108
26
-52
-115
-158
-183
-207
-235
-241
-227
-234
-260
-261
-239
-246
-270
-255
-232
-247
-232
-196
-218
-251
-360
-502
44
1247
1315
-286
-1392
-925
-290
-233
-188
-59
-51
-41
5
15
44
108
153
189
247
314
363
387
398
409
426
421
360
259
166
94
36
-10
-48
-78
-102
-121
-135
-136
-143
-177
-205
-188
-167
-188
-214
-203
-194
-193
-164
-155
-175
-193
-357
-392
455
1523
976
-765
-1397
-717
-249
-225
-113
-21
-41
-1
54
65
109
170
201
242
302
351
384
394
380
374
376
342
257
153
53
-26
-80
-121
-150
-166
-180
-193
-194
-187
-193
-221
-246
-237
-213
-220
-231
-203
-176
-172
-141
-123
-149
-182
-312
-251
662
1689
1091
-600
-1196
-608
-226
-201
-93
-32
-61
-28
12
13
41
89
137
200
258
299
330
337
320
308
317
315
263
172
84
19
-29
-59
-77
-92
-102
-112
-122
-114
-98
-106
-128
-129
-121
-136
-153
-136
-120
-141
-131
-93
-120
-138
-159
-240
198
1312
1550
128
-1099
-847
-245
-132
-84
29
28
32
81
94
112
163
204
249
317
383
433
470
482
475
480
487
440
327
210
126
51
-26
-79
-104
-126
-155
-169
-161
-162
-189
-213
-207
-195
-208
-224
-215
-201
-200
-186
-188
-225
-236
-341
-468
131
1317
1252
-465
-1581
-1086
-438
-355
-274
-137
-153
-151
-86
-64
-50
-7
38
95
162
217
262
299
309
296
282
265
210
109
2
-65
-104
-146
-179
-182
-175
-185
-195
-175
-148
-158
-200
-218
-193
-171
-175
-171
-156
-142
-104
-84
-98
-94
-232
-360
373
1644
1472
-293
-1283
-751
-194
-135
-43
51
20
43
94
99
144
206
230
270
337
388
424
434
396
362
355
320
224
105
4
-68
-123
-167
-189
-191
-194
-195
-191
-194
-199
-205
-215
-196
-141
-141
-218
-242
-180
-149
-139
-97
-104
-143
-216
-353
27
1175
1574
243
-1068
-913
-311
-175
-119
-11
-32
-37
31
56
86
161
190
185
237
317
360
383
404
409
417
435
415
338
246
177
120
56
4
-1
3
-38
-80
-69
-63
-94
-98
-74
-83
-114
-133
-139
-124
-111
-124
-106
-89
-146
-182
-243
-314
268
1388
1321
-265
-1261
-845
-361
-335
-256
-149
-167
-150
-87
-60
-22
37
97
177
259
315
353
379
389
400
418
406
331
206
83
2
-44
-89
-134
-155
-162
-181
-206
-201
-186
-207
-230
-212
-198
-226
-252
-243
-239
-240
-205
-182
-210
-244
-374
-430
284
1383
1098
-583
-1436
-856
-317
-288
-203
-84
-94
-75
-23
-9
28
87
132
198
285
347
378
399
411
409
400
373
294
175
71
0
-58
-95
-110
-131
-159
-172
-177
-175
-156
-155
-194
-215
-195
-190
-212
-200
-161
-150
-143
-134
-150
-163
-286
-440
157
1436
1522
-129
-1302
-881
-261
-188
-124
-7
-35
-42
16
41
82
155
200
241
315
385
423
439
444
440
440
432
366
241
124
53
6
-32
-61
-87
-109
-128
-142
-130
-100
-104
-134
-136
-123
-140
-164
-144
-112
-119
-116
-93
-129
-166
-211
-362
-47
1140
1723
449
-1038
-1002
-351
-189
-169
-59
-62
-78
-24
5
36
100
141
171
230
299
350
374
370
360
374
396
376
302
209
132
79
35
-10
-52
-81
-95
-100
-105
-102
-100
-115
-130
-118
-103
-121
-147
-136
-118
-130
-121
-101
-142
-174
-224
-296
168
1175
1231
-167
-1198
-869
-311
-208
-175
-113
-118
-94
-57
-63
-35
38
87
116
170
245
297
317
336
368
396
386
314
199
87
-3
-82
-154
-208
-240
-260
-279
-287
-280
-282
-302
-320
-311
-292
-296
-315
-303
-280
-293
-285
-237
-249
-282
-314
-452
-226
826
1439
260
-1304
-1343
-562
-263
-234
-111
-69
-71
-18
7
23
83
134
171
239
326
392
423
428
425
426
418
371
280
187
126
84
39
3
-5
5
7
1
15
48
64
50
44
67
93
102
117
155
188
212
252
284
307
310
156
116
877
1946
1661
13
-873
-27
