# session 22
-23
-29
1
0
-106
-253
-339
-379
-420
-450
-453
-446
-430
-411
-399
-385
-366
-351
-338
-320
-301
-288
-278
-270
-263
-256
-248
-243
-239
-231
-222
-218
-215
-207
-196
-187
-179
-171
-164
-158
-146
-125
-113
-111
-93
-66
-64
-63
-32
-16
-48
-72
-65
-70
-70
-51
-60
-61
-21
-45
-104
-115
-97
427
1648
1962
266
-1440
-1284
-415
-139
-71
75
84
69
127
145
142
170
187
196
218
239
257
284
313
343
380
423
471
523
570
603
622
624
603
546
455
348
240
133
36
-40
-93
-128
-148
-156
-154
-150
-146
-142
-139
-136
-132
-130
-129
-127
-126
-128
-132
-133
-134
-137
-141
-146
-150
-154
-155
-155
-154
-154
-151
-150
-150
-148
-146
-143
-141
-136
-124
-113
-113
-109
-85
-67
-75
-69
-42
-54
-100
-114
-110
-124
-118
-107
-125
-109
-85
-143
-187
-204
-77
789
1916
1413
-608
-1609
-940
-281
-194
-100
-6
-37
-17
31
27
39
68
76
87
110
127
146
172
196
225
263
307
354
400
439
466
477
472
446
394
318
229
140
54
-27
-91
-134
-161
-177
-182
-178
-171
-164
-156
-151
-151
-151
-148
-147
-145
-144
-145
-146
-146
-149
-152
-152
-152
-154
-156
-155
-153
-149
-143
-139
-139
-139
-135
-129
-124
-115
-101
-97
-96
-75
-52
-54
-51
-27
-31
-68
-83
-81
-94
-93
-84
-100
-85
-57
-107
-147
-155
-65
706
1877
1581
-414
-1624
-1046
-307
-186
-100
25
11
23
75
69
70
104
121
133
154
173
197
224
246
274
317
364
412
466
516
550
570
574
548
479
380
272
163
55
-41
-111
-157
-186
-201
-203
-200
-201
-201
-195
-186
-183
-180
-176
-174
-173
-169
-165
-166
-165
-163
-163
-163
-162
-163
-166
-166
-165
-165
-161
-158
-156
-153
-143
-126
-116
-115
-99
-70
-67
-80
-61
-43
-70
-98
-93
-99
-109
-97
-103
-108
-76
-90
-140
-152
-134
336
1491
1877
305
-1451
-1424
-554
-223
-153
-4
22
2
53
75
74
106
129
136
154
175
192
217
248
280
315
357
408
463
513
550
571
573
552
499
411
305
197
92
-8
-91
-147
-180
-200
-209
-208
-203
-196
-190
-184
-178
-172
-167
-162
-159
-159
-162
-165
-166
-165
-167
-171
-175
-177
-178
-180
-183
-184
-182
-176
-170
-166
-163
-160
-155
-145
-131
-122
-121
-108
-82
-74
-80
-62
-37
-56
-90
-92
-95
-106
-92
-93
-106
-70
-67
-134
-158
-186
93
1232
2131
1000
-1051
-1508
-665
-209
-163
-28
23
-14
34
75
69
87
108
115
138
163
175
195
225
253
284
330
388
441
486
529
563
576
568
536
465
363
253
140
35
-51
-117
-165
-188
-196
-201
-200
-192
-186
-183
-175
-170
-171
-173
-170
-166
-165
-166
-168
-170
-171
-172
-172
-173
-175
-180
-178
-172
-170
-171
-170
-165
-155
-142
-137
-131
-110
-95
-101
-94
-70
-77
-110
-117
-113
-123
-118
-113
-128
-110
-95
-145
-183
-204
4
966
1951
1167
-883
-1686
-924
-293
-198
-81
13
-13
14
65
68
85
113
124
141
165
184
209
239
268
303
347
396
453
512
561
595
612
604
560
476
363
243
129
24
-67
-134
-175
-198
-210
-212
-207
-202
-195
-188
-183
-176
-166
-159
-152
-145
-141
-142
-143
-142
-143
-145
-146
-146
-146
-146
-146
-146
-143
-139
-138
-137
-135
-133
-132
-125
-110
-101
-100
-79
-52
-57
-69
-50
-44
-79
-100
-94
-100
-100
-87
-102
-99
-69
-103
-146
-168
-146
497
1731
1739
-174
-1656
-1224
-368
-178
-112
19
2
-6
53
60
57
87
98
103
124
143
162
189
217
248
287
334
384
434
482
520
539
540
519
467
382
282
183
85
-6
-77
-126
-160
-180
-188
-189
-187
-182
-175
-167
-159
-152
-147
-143
-139
-133
-129
-129
-132
-132
-131
-131
-132
-133
-134
-136
-134
-132
-134
-134
-132
-130
-127
-124
-122
-119
-115
-110
-99
-85
-81
-80
-57
-34
-41
-44
-21
-28
-71
-87
-81
-93
-89
-74
-92
-82
-54
-106
-154
-172
-100
665
1870
1615
-379
-1601
-1020
-284
-172
-93
22
-7
-4
51
54
59
89
100
110
132
148
162
187
216
244
279
320
367
416
460
493
512
516
500
453
374
277
177
77
-18
-95
-147
-179
-196
-198
-196
-196
-191
-182
-174
-168
-164
-164
-161
-154
-153
-159
-162
-160
-156
-155
-160
-162
-157
-153
-157
-159
-156
-152
-147
-140
-140
-144
-141
-125
-114
-116
-107
-75
-62
-78
-69
-36
-46
-89
-97
-87
-97
-96
-91
-102
-83
-71
-116
-145
-149
106
1069
1904
968
-1006
-1631
-836
-263
-178
-54
30
9
40
78
79
101
124
127
146
177
199
221
241
264
302
351
398
448
503
546
572
584
578
533
449
343
232
122
22
-62
-129
-173
-197
-212
-218
-219
-218
-215
-205
-195
-191
-188
-181
-173
-169
-170
-169
-167
-169
-172
-169
-161
-159
-166
-173
-173
-170
-168
-167
-163
-152
-134
-123
-122
-109
-84
-82
-93
-77
-62
-88
-118
-117
-117
-119
-107
-115
-119
-89
-104
-150
-166
-177
254
1428
1925
427
-1399
-1465
-587
-218
-146
-1
26
2
56
82
76
102
123
131
149
171
191
218
247
278
317
364
419
478
530
570
599
614
601
543
442
323
205
89
-18
-101
-156
-191
-211
-224
-232
-233
-224
-211
-202
-199
-193
-182
-175
-174
-172
-167
-165
-167
-168
-166
-166
-170
-174
-176
-172
-168
-166
-158
-145
-143
-140
-112
-92
-106
-106
-80
-87
-126
-135
-129
-136
-127
-118
-133
-121
-108
-148
-180
-220
-50
895
1923
1194
-879
-1739
-963
-283
-183
-75
23
-3
20
69
67
82
113
122
137
163
183
204
231
260
297
344
397
453
509
557
590
606
599
557
472
360
242
126
16
-75
-140
-183
-209
-223
-226
-222
-217
-211
-204
-196
-189
-182
-175
-169
-165
-164
-164
-162
-161
-161
-161
-160
-159
-160
-157
-145
-135
-135
-124
-99
-98
-110
-92
-74
-105
-136
-132
-134
-142
-126
-128
-140
-104
-108
-167
-183
-215
92
1241
2015
742
-1250
-1550
-660
-223
-173
-38
5
-27
20
50
45
74
96
99
119
143
158
180
209
238
274
316
359
408
458
493
509
512
496
448
370
276
178
82
-10
-86
-135
-165
-184
-195
-195
-187
-177
-166
-159
-155
-151
-150
-151
-151
-148
-148
-148
-149
-149
-151
-153
-156
-157
-152
-143
-135
-132
-123
-102
-94
-103
-90
-64
-83
-125
-130
-124
-137
-131
-121
-139
-123
-98
-147
-186
-219
-84
824
1939
1343
-739
-1702
-976
-298
-201
-91
10
-20
2
51
50
69
101
103
113
140
160
184
215
243
275
318
366
414
465
511
538
548
545
515
438
334
233
128
21
-65
-127
-178
-206
-210
-210
-208
-201
-198
-192
-181
-179
-182
-174
-168
-171
-170
-163
-161
-164
-164
-165
-167
-170
-173
-169
-151
-137
-140
-135
-119
-122
-132
-112
-90
-104
-114
-105
-113
-122
-107
-115
-126
-95
-100
-150
-170
-169
240
1351
1849
426
-1378
-1494
-639
-252
-171
-16
29
10
55
78
77
106
125
129
150
174
191
213
240
270
308
353
403
453
500
539
566
573
551
492
400
290
179
71
-28
-107
-158
-189
-207
-215
-215
-210
-204
-199
-194
-189
-184
-179
-176
-173
-170
-169
-170
-170
-169
-170
-171
-172
-174
-176
-175
-169
-156
-140
-131
-125
-114
-111
-127
-123
-93
-91
-120
-126
-120
-127
-119
-113
-124
-102
-88
-133
-163
-208
-32
964
2005
1208
-876
-1652
-855
-234
-159
-47
37
4
33
78
74
90
115
117
129
154
172
192
219
245
276
318
364
413
463
504
530
544
541
507
432
328
219
111
8
-77
-137
-176
-199
-208
-210
-208
-201
-192
-185
-182
-179
-176
-176
-176
-174
-171
-164
-151
-145
-150
-160
-178
-198
-200
-186
-178
-177
-172
-163
-151
-138
-125
-113
-106
-105
-106
-103
-107
-119
-118
-116
-126
-114
-99
-118
-103
-69
-113
-141
-151
-104
657
1920
1692
-369
-1648
-1038
-262
-154
-77
50
23
21
75
80
93
129
134
134
158
185
204
224
249
280
317
361
408
455
497
524
535
535
514
456
369
272
166
67
7
-38
-114
-196
-234
-236
-228
-211
-192
-187
-184
-178
-182
-177
-156
-156
-179
-186
-187
-205
-206
-181
-176
-192
-191
-175
-177
-189
-186
-178
-186
-187
-164
-144
-146
-142
-128
-126
-125
-96
-77
-103
-124
-112
-117
-127
-109
-110
-117
-81
-82
-133
-161
-167
255
1363
1789
315
-1408
-1406
-539
-197
-128
26
56
23
67
94
93
119
141
154
178
192
200
226
256
279
312
358
399
433
468
501
523
529
514
472
400
309
214
119
26
-51
-100
-133
-153
-162
-166
-158
-141
-138
-149
-146
-129
-130
-138
-131
-127
-141
-150
-149
-154
-160
-160
-159
-158
-154
-153
-155
-155
-153
-153
-154
-149
-131
-113
-108
-108
-101
-100
-119
-125
-93
-73
-95
-109
-107
-123
-128
-114
-125
-117
-87
-125
-168
-166
-52
658
1719
1438
-461
-1664
-1125
-357
-198
-110
13
2
10
66
75
86
117
130
149
179
195
213
244
270
295
332
378
426
475
517
551
572
568
534
467
370
261
153
49
-45
-116
-160
-180
-185
-186
-189
-186
-179
-174
-171
-167
-164
-165
-163
-157
-157
-165
-170
-170
-171
-177
-180
-179
-178
-179
-179
-179
-177
-171
-160
-147
-137
-131
-120
-105
-109
-125
-109
-80
-94
-128
-131
-129
-132
-117
-115
-124
-98
-99
-139
-151
-181
111
1185
1913
694
-1280
-1631
-718
-208
-144
-14
44
13
51
87
80
99
123
131
149
172
190
214
243
272
307
349
395
447
496
533
555
563
550
508
431
327
216
111
14
-70
-129
-165
-186
-196
-197
-190
-181
-174
-168
-162
-157
-154
-152
-147
-143
-146
-149
-146
-143
-149
-156
-157
-156
-157
-156
-154
-154
-154
-150
-143
-131
-117
-109
-100
-84
-85
-105
-96
-63
-70
-106
-111
-108
-116
-103
-99
-114
-89
-80
-133
-158
-199
-1
1024
1991
1052
-1016
-1624
-753
-182
-134
-22
49
11
42
85
79
95
118
122
136
157
170
188
213
238
267
301
337
378
418
449
466
468
458
428
371
288
196
106
22
-53
-111
-151
-172
-179
-179
-178
-176
-170
-164
-159
-155
-153
-152
-151
-151
-152
-152
-153
-154
-154
-155
-158
-160
-155
-152
-157
-163
-159
-148
-133
-124
-124
-119
-103
-100
-110
-92
-59
-72
-112
-117
-110
-118
-107
-103
-125
-108
-87
-136
-171
-200
-32
892
1899
1170
-855
-1660
-897
-265
-176
-66
22
-7
22
71
69
82
112
128
149
174
191
211
233
249
271
310
360
413
461
498
526
538
531
497
428
328
219
114
16
-65
-123
-163
-189
-200
-200
-197
-195
-189
-179
-172
-172
-171
-166
-161
-158
-156
-155
-154
-151
-153
-158
-159
-156
-158
-154
-137
-127
-129
-113
-89
-93
-101
-75
-62
-96
-122
-116
-119
-125
-109
-111
-120
-95
-101
-145
-159
-153
224
1269
1755
392
-1390
-1533
-666
-245
-161
-18
24
4
51
79
79
106
125
131
156
180
197
224
253
278
312
358
405
453
501
537
556
557
532
472
381
274
165
57
-40
-115
-167
-200
-216
-218
-216
-214
-208
-200
-193
-186
-179
-173
-169
-167
-165
-165
-164
-166
-170
-172
-173
-176
-178
-177
-175
-169
-157
-144
-135
-126
-111
-105
-115
-107
-73
-70
-110
-128
-119
-128
-130
-115
-132
-132
-91
-123
-174
-186
-191
355
1617
1859
75
-1552
-1271
-405
-181
-125
11
7
-4
57
69
63
90
105
114
138
160
180
206
234
263
295
331
370
415
455
484
500
501
482
433
354
262
168
74
-14
-81
-127
-158
-176
-179
-178
-174
-166
-154
-149
-147
-144
-142
-141
-140
-137
-136
-136
-136
-136
-140
-142
-140
-138
-138
-140
-140
-136
-124
-111
-106
-100
-86
-80
-88
-76
-47
-55
-93
-104
-102
-119
-114
-99
-118
-106
-73
-121
-171
-207
-167
594
1862
1670
-352
-1643
-1067
-295
-176
-102
18
-4
0
52
53
64
99
108
118
142
158
176
205
235
265
301
343
392
445
490
518
527
525
504
444
347
236
129
27
-63
-131
-174
-203
-224
-231
-224
-215
-209
-202
-194
-191
-191
-188
-184
-182
-182
-184
-189
-190
-187
-187
-191
-193
-195
-198
-199
-197
-192
-176
-157
-150
-142
-124
-122
-134
-120
-97
-118
-150
-144
-139
-155
-149
-137
-141
-121
-116
-162
-191
-204
62
1034
1803
790
-1152
-1683
-848
-274
-184
-61
16
-4
32
71
69
92
122
135
153
177
195
218
247
277
312
353
399
452
502
543
571
583
571
527
449
344
233
127
30
-53
-111
-146
-168
-179
-180
-175
-166
-155
-146
-139
-128
-119
-115
-111
-105
-101
-102
-104
-107
-106
-104
-103
-106
-108
-108
-106
-106
-105
-98
-82
-70
-61
-44
-27
-34
-39
-13
3
-31
-61
-58
-63
-71
-52
-53
-65
-33
-37
-95
-110
-134
174
1308
2084
840
-1143
-1462
-583
-148
-106
25
68
33
77
106
96
115
136
142
157
175
189
213
240
263
289
321
359
401
443
477
496
498
486
448
372
270
164
64
-30
-109
-171
-214
-236
-245
-251
-251
-245
-244
-246
-243
-237
-238
-240
-239
-238
-237
-235
-241
-251
-255
-254
-255
-259
-262
-264
-266
-267
-265
-260
-259
-270
-276
-262
-240
-233
-227
-207
-199
-211
-202
-179
-193
-223
-220
-216
-231
-222
-206
-216
-197
-171
-208
-240
-252
-65
836
1843
1189
-821
-1714
-988
-315
-211
-100
11
-4
24
81
87
105
142
163
188
224
248
271
302
337
377
425
482
541
597
651
695
718
723
710
661
579
489
402
315
242
194
163
145
141
