# session 23
2
-15
34
-42
-278
-403
-357
-340
-344
-306
-326
-367
-379
-322
338
1502
1410
-472
-1818
-1325
-490
-306
-235
-106
-112
-110
-52
-40
-31
4
22
35
60
82
106
136
167
201
245
291
337
384
428
459
475
477
453
393
305
206
104
5
-77
-135
-177
-205
-216
-212
-201
-193
-186
-179
-173
-171
-168
-163
-160
-161
-162
-162
-163
-162
-161
-160
-161
-164
-164
-161
-160
-163
-164
-161
-154
-143
-131
-126
-116
-89
-65
-67
-58
-34
-52
-104
-118
-99
-96
-94
-87
-104
-100
-81
-109
-133
-165
-55
788
1900
1420
-587
-1599
-899
-189
-105
-28
81
48
48
114
145
158
170
176
194
220
235
255
290
320
342
382
436
485
527
560
578
598
615
601
547
434
294
230
188
32
-131
-173
-189
-229
-216
-181
-189
-198
-183
-182
-189
-173
-147
-140
-144
-147
-167
-196
-191
-165
-174
-189
-170
-169
-206
-218
-191
-161
-151
-168
-185
-170
-152
-151
-138
-137
-174
-199
-192
-203
-219
-203
-204
-235
-219
-197
-237
-249
-203
70
949
1703
806
-1126
-1790
-996
-346
-213
-86
2
-13
25
76
74
86
118
140
166
191
207
221
240
266
297
330
376
430
475
513
552
572
557
506
422
315
206
103
2
-88
-152
-188
-213
-233
-238
-229
-218
-208
-191
-176
-165
-148
-132
-130
-127
-109
-97
-105
-112
-108
-108
-110
-108
-108
-102
-83
-76
-76
-50
-22
-31
-46
-37
-49
-86
-98
-94
-102
-90
-73
-97
-107
-75
-92
-121
-95
15
619
1637
1544
-239
-1654
-1322
-494
-215
-95
47
44
34
85
94
87
107
117
116
133
164
187
202
226
268
310
347
391
444
492
519
522
506
459
378
284
186
82
-10
-83
-147
-191
-213
-233
-245
-238
-230
-233
-227
-210
-195
-184
-178
-176
-171
-160
-157
-162
-165
-167
-173
-172
-161
-150
-143
-133
-115
-108
-117
-115
-101
-118
-163
-179
-169
-176
-178
-159
-157
-157
-148
-172
-180
-159
13
793
1728
1147
-861
-1881
-1166
-371
-199
-81
41
22
38
93
93
104
143
164
182
210
232
255
289
324
362
411
466
526
590
645
678
692
686
638
533
393
254
117
-9
-101
-161
-208
-242
-257
-258
-253
-245
-238
-231
-218
-207
-208
-208
-196
-187
-188
-191
-193
-197
-194
-191
-196
-191
-170
-158
-147
-120
-107
-130
-141
-127
-141
-172
-168
-160
-173
-163
-150
-167
-156
-140
-170
-169
-140
91
951
1669
641
-1396
-1971
-1000
-283
-160
-27
64
34
63
109
107
129
163
175
194
224
245
264
285
321
374
418
442
477
543
609
647
658
643
582
479
365
249
123
3
-86
-142
-177
-205
-227
-231
-217
-208
-206
-201
-191
-185
-179
-168
-161
-162
-161
-159
-161
-159
-155
-158
-155
-138
-116
-105
-101
-89
-78
-91
-104
-85
-84
-123
-142
-130
-143
-153
-136
-142
-136
-98
-135
-177
-149
-139
355
1569
1778
-115
-1845
-1505
-496
-199
-121
28
23
14
81
89
83
113
123
134
172
188
183
205
241
267
300
348
396
441
487
524
548
546
508
434
337
229
115
-6
-111
-167
-197
-235
-259
-251
-238
-232
-220
-206
-198
-196
-192
-181
-176
-189
-204
-198
-190
-193
-197
-193
-182
-167
-165
-161
-135
-137
-176
-144
-43
-35
-134
-198
-205
-214
-195
-162
-172
-165
-123
-155
-197
-135
82
788
1673
1199
-756
-1908
-1299
-462
-237
-119
12
19
47
101
100
114
160
187
206
237
267
297
326
353
388
440
501
556
603
645
674
684
675
621
509
380
266
146
23
-78
-156
-205
-212
-206
-209
-203
-196
-202
-187
-164
-176
-190
-154
-121
-134
-140
-121
-128
-150
-142
-131
-137
-118
-95
-108
-95
-39
-47
-104
-99
-77
-131
-192
-168
-121
-152
-215
-193
-117
-126
-233
-268
-229
-331
-132
1077
2074
880
-1313
-1772
-816
-296
-243
-96
-44
-80
-14
31
11
31
60
67
90
121
145
167
188
212
247
291
344
391
421
452
474
490
530
532
423
278
176
78
-31
-104
-143
-177
-196
-197
-203
-208
-186
-156
-160
-181
-179
-162
-158
-153
-140
-132
-131
-134
-146
-157
-153
-153
-149
-114
-81
-89
-82
-38
-41
-87
-83
-62
-92
-122
-123
-138
-146
-138
-159
-164
-110
-116
-185
-187
-182
105
1142
1837
558
-1481
-1807
-789
-209
-137
-9
49
20
76
121
99
111
149
164
184
216
236
257
289
313
336
380
435
477
505
531
557
571
561
516
426
297
170
74
-13
-105
-168
-186
-195
-210
-206
-186
-172
-162
-154
-153
-151
-147
-148
-149
-156
-170
-174
-168
-174
-182
-173
-168
-175
-165
-142
-134
-126
-107
-104
-108
-83
-63
-81
-91
-82
-104
-121
-97
-103
-128
-97
-100
-148
-126
-105
214
1249
1777
311
-1640
-1748
-712
-219
-147
2
56
27
61
89
98
129
150
159
180
204
233
251
257
291
348
378
397
446
493
509
519
533
515
452
368
262
132
14
-73
-146
-208
-251
-280
-284
-258
-230
-219
-213
-202
-188
-176
-172
-172
-168
-162
-160
-163
-173
-182
-185
-181
-172
-166
-161
-149
-127
-97
-69
-68
-92
-94
-69
-74
-116
-131
-127
-148
-158
-142
-152
-151
-119
-150
-170
-104
-19
496
1536
1520
-368
-1935
-1514
-501
-184
-98
49
50
36
98
117
113
139
155
168
199
218
225
251
291
315
328
351
386
416
436
445
441
431
415
378
309
226
150
79
15
-36
-74
-99
-106
-102
-95
-82
-68
-64
-73
-84
-85
-80
-80
-90
-102
-110
-114
-116
-122
-133
-139
-135
-126
-120
-114
-104
-89
-82
-96
-99
-72
-71
-118
-149
-147
-154
-152
-136
-155
-162
-125
-154
-200
-149
-80
368
1469
1776
70
-1759
-1640
-632
-250
-174
-14
1
-36
26
63
62
97
124
122
125
141
170
208
231
244
269
307
345
379
408
431
448
448
416
357
288
202
100
15
-46
-104
-162
-205
-231
-240
-229
-208
-191
-179
-166
-157
-152
-151
-152
-149
-143
-143
-149
-150
-146
-138
-128
-117
-103
-86
-81
-96
-111
-100
-84
-102
-131
-133
-133
-150
-143
-122
-140
-136
-101
-138
-170
-123
6
634
1611
1322
-606
-1870
-1287
-403
-180
-77
58
40
39
104
116
120
153
170
183
212
235
259
294
321
340
373
419
468
514
542
551
555
549
513
443
343
227
115
18
-66
-130
-173
-199
-209
-206
-203
-199
-191
-180
-173
-172
-177
-177
-170
-167
-171
-173
-174
-179
-180
-166
-150
-142
-131
-111
-110
-137
-148
-121
-115
-155
-175
-161
-169
-178
-163
-175
-179
-139
-162
-205
-180
-151
323
1471
1694
-124
-1869
-1578
-540
-200
-125
25
23
3
76
98
94
131
150
148
169
196
214
242
277
304
333
375
419
455
490
517
521
511
486
427
334
234
138
38
-50
-111
-156
-188
-196
-191
-195
-200
-191
-178
-168
-160
-157
-161
-159
-157
-162
-165
-160
-165
-174
-166
-146
-130
-117
-101
-99
-127
-143
-114
-91
-123
-153
-152
-162
-166
-149
-161
-159
-114
-143
-177
-132
-95
431
1639
1764
-210
-1909
-1487
-462
-193
-126
25
16
3
73
83
76
113
134
141
166
194
214
235
255
283
325
368
405
443
479
499
502
497
475
419
329
225
124
23
-70
-136
-173
-200
-215
-208
-191
-184
-182
-177
-173
-175
-178
-176
-170
-170
-172
-168
-178
-210
-219
-177
-130
-121
-117
-88
-77
-111
-129
-98
-84
-112
-126
-124
-125
-94
-73
-114
-120
-82
-112
-124
-60
126
881
1829
1255
-821
-1884
-1121
-310
-215
-157
-18
-7
9
59
58
61
94
121
137
127
95
85
108
152
226
309
369
418
481
533
547
548
549
516
424
299
179
68
-34
-119
-175
-203
-213
-219
-224
-219
-211
-207
-193
-170
-157
-155
-145
-130
-126
-132
-130
-124
-130
-141
-136
-119
-111
-106
-88
-73
-89
-114
-109
-97
-119
-143
-142
-139
-136
-129
-135
-130
-104
-117
-127
-105
-103
285
1300
1577
-30
-1804
-1723
-671
-185
-89
54
87
67
129
161
144
163
193
195
202
233
268
292
315
348
388
431
482
536
585
617
626
620
597
530
411
273
140
17
-87
-162
-216
-249
-258
-258
-263
-268
-264
-256
-246
-242
-245
-242
-234
-240
-252
-249
-242
-251
-261
-251
-232
-221
-204
-178
-182
-223
-243
-226
-228
-262
-285
-306
-336
-331
-283
-221
-147
-105
-112
-85
-55
131
906
1572
574
-1438
-2019
-998
-211
-91
32
162
161
204
272
291
322
327
261
231
276
315
335
378
434
484
539
599
651
683
702
734
768
735
602
424
267
151
65
-8
-66
-105
-132
-145
-133
-129
-203
-346
-443
-416
-323
-250
-212
-192
-173
-151
-138
-133
-128
-121
-117
-140
-201
-242
-214
-155
-112
-89
-62
-21
-1
-15
-25
-25
-46
-65
-72
-107
-149
-184
-244
-272
-225
-200
-186
-141
-74
391
1223
967
-930
-2270
-1575
-427
-157
-96
134
120
-3
92
217
187
137
163
214
247
256
262
286
306
311
328
355
368
371
373
379
391
395
368
326
298
255
156
38
-34
-64
-87
-104
-107
-99
-84
-74
-69
-54
-38
-39
-46
-49
-52
-53
-58
-89
-139
-181
-205
-204
-181
-163
-160
-155
-138
-117
-99
-82
-52
-26
-38
-51
-27
-25
-82
-119
-107
-111
-124
-110
-103
-102
-74
-82
-114
-69
59
484
1302
1413
-120
-1811
-1802
-791
-241
-107
29
72
53
97
134
136
160
203
244
278
301
316
333
361
395
415
412
406
408
414
421
425
424
416
392
342
273
193
101
9
-56
-103
-158
-219
-263
-279
-269
-263
-299
-342
-326
-273
-248
-250
-250
-253
-251
-230
-207
-197
-186
-166
-144
-128
-120
-112
-98
-96
-111
-117
-113
-125
-146
-157
-162
-173
-195
-203
-159
-135
-181
-175
-133
14
782
1712
1043
-1049
-2009
-1168
-317
-140
-18
94
63
92
162
155
161
200
207
216
252
274
285
313
345
371
413
473
524
548
564
590
603
578
516
423
304
180
63
-51
-142
-187
-210
-236
-253
-248
-239
-234
-220
-205
-209
-218
-215
-209
-209
-213
-215
-211
-208
-213
-212
-195
-178
-172
-166
-138
-94
-85
-114
-113
-90
-113
-147
-145
-147
-150
-134
-136
-123
-97
-142
-156
-127
-143
414
1663
1671
-401
-1963
-1348
-292
-71
-30
110
100
94
167
182
175
204
224
230
245
266
289
321
363
388
392
414
466
514
551
589
609
585
531
474
399
292
178
80
-27
-143
-231
-274
-287
-288
-283
-275
-269
-268
-266
-264
-269
-272
-267
-254
-226
-182
-148
-137
-142
-161
-191
-214
-228
-234
-223
-204
-198
-189
-159
-142
-155
-152
-138
-168
-212
-204
-169
-144
-133
-152
-162
-135
-159
-207
-178
-101
355
1384
1634
7
-1720
-1602
-627
-239
-153
7
30
-2
56
95
101
139
174
190
215
243
265
292
326
358
384
411
453
504
539
550
557
559
534
468
373
271
170
73
-13
-81
-134
-172
-189
-186
-180
-172
-159
-152
-149
-135
-119
-116
-121
-123
-126
-131
-134
-135
-142
-149
-148
-143
-144
-145
-132
-114
-104
-91
-67
-61
-75
-81
-89
-116
-133
-140
-156
-149
-134
-149
-136
-104
-140
-150
-122
-60
572
1576
1174
-884
-2061
-1283
-324
-126
-45
81
61
67
126
127
133
171
187
197
219
235
258
295
326
349
378
416
461
510
548
563
561
557
530
446
324
206
96
-11
-102
-165
-204
-223
-227
-223
-220
-222
-216
-204
-199
-198
-192
-188
-191
-192
-191
-193
-199
-202
-198
-194
-197
-200
-188
-166
-149
-135
-105
-78
-88
-107
-101
-111
-147
-155
-150
-159
-154
-150
-157
-135
-139
-171
-138
-124
116
1064
1653
285
-1732
-1891
-725
-130
-94
19
68
30
83
137
142
165
189
202
232
257
264
282
315
347
377
412
453
496
525
537
545
550
532
478
393
291
185
83
-7
-75
-123
-150
-152
-147
-154
-154
-135
-128
-136
-132
-125
-131
-131
-118
-116
-125
-126
-128
-142
-149
-146
-145
-149
-146
-130
-109
-99
-88
-51
-21
-35
-53
-45
-51
-81
-102
-118
-119
-94
-104
-134
-100
-83
-115
-81
-83
84
1004
1750
552
-1543
-1907
-796
-144
-95
8
66
19
52
103
106
109
102
92
121
153
144
135
160
188
198
216
240
253
269
304
337
354
372
382
349
272
179
83
-18
-115
-186
-214
-212
-214
-227
-228
-222
-221
-215
-203
-207
-218
-215
-210
-214
-215
-213
-218
-226
-225
-222
-218
-208
-191
-177
-167
-141
-110
-109
-124
-125
-138
-169
-176
-165
-167
-172
-171
-168
-156
-145
-123
-52
83
418
975
982
-292
-1810
-1931
-959
-265
-61
110
245
273
315
369
371
365
390
407
398
417
484
530
520
512
542
593
658
725
775
812
836
826
783
704
579
440
329
227
126
69
55
25
-26
-56
-56
-59
-78
-101
-111
-112
-119
-134
-143
-138
-132
-144
-167
-182
-194
-201
-195
-184
-169
-132
-107
-130
-157
-162
-190
-233
-242
-247
-270
-272
-260
-255
-242
-253
-270
-229
-160
129
816
962
-426
-2075
-2071
-957
-313
-202
-89
-28
-49
-10
32
27
40
60
61
77
110
136
165
188
202
247
339
431
496
537
543
511
474
455
416
339
258
180
81
-7
-53
-90
-130
-137
-120
-119
-121
-98
-72
-70
-79
-74
-64
-74
-88
-86
-92
-116
-117
-96
-101
-121
-120
-120
-135
-139
-151
-197
-229
-212
-205
-239
-264
-259
-241
-215
-213
-235
-244
-278
-300
-238
-154
242
1086
1061
-694
-2240
-1811
-651
-228
-175
-54
-22
-22
41
78
94
125
160
231
329
403
465
526
547
531
530
560
594
620
637
646
656
664
652
618
565
485
392
315
260
218
188
