# session 20
-6
-7
3
41
72
77
98
142
184
227
248
234
233
238
182
108
62
-20
-106
-110
-114
-190
-229
-196
-180
-198
-222
-243
-236
-210
-194
-168
-137
-142
-176
-203
-202
-171
-143
-143
-149
-136
-112
-102
-105
-119
-169
-188
-85
12
-34
-68
-14
-29
-87
-75
-60
-62
-33
-27
-38
-26
-31
-44
-55
66
661
1359
1004
-322
-1096
-795
-283
-59
17
22
-15
-17
30
89
96
64
91
155
156
126
138
175
200
197
183
206
264
319
335
302
263
257
238
183
160
176
142
47
2
22
-12
-100
-115
-65
-48
-58
-50
-37
-36
-48
-60
-48
-33
-42
-46
-28
-20
-20
-17
-29
-37
-23
-23
-42
-45
-38
-35
-37
-58
-80
-76
-81
-110
-101
-66
-87
-135
-160
-153
168
926
1224
303
-863
-1037
-574
-285
-182
-108
-87
-68
-30
-23
-15
17
28
26
42
64
78
87
96
117
155
187
204
230
260
253
227
229
220
157
95
78
58
6
-44
-65
-71
-87
-104
-92
-78
-97
-107
-82
-72
-87
-82
-76
-107
-141
-132
-112
-124
-144
-133
-114
-121
-127
-110
-102
-108
-90
-68
-81
-93
-69
-60
-88
-95
-84
-96
-83
-61
-108
-145
-160
-105
508
1460
1263
-259
-1205
-838
-330
-210
-108
-27
-53
-28
29
24
18
43
54
58
75
92
108
132
160
184
209
243
277
300
318
330
325
301
269
219
144
76
34
-1
-38
-62
-76
-98
-110
-98
-97
-110
-102
-84
-81
-68
-53
-74
-91
-73
-75
-104
-105
-88
-97
-118
-109
-81
-92
-129
-104
-40
-43
-88
-96
-96
-108
-95
-94
-114
-88
-88
-159
-189
-217
-45
832
1675
958
-680
-1206
-623
-232
-174
-80
-38
-51
-13
9
-4
0
19
42
64
86
118
131
123
158
223
247
240
263
326
371
350
313
300
258
186
145
97
15
-25
-35
-88
-124
-88
-66
-101
-117
-95
-79
-81
-88
-80
-53
-48
-81
-98
-80
-81
-104
-111
-110
-111
-95
-69
-81
-118
-107
-60
-54
-80
-72
-53
-62
-69
-76
-97
-85
-67
-110
-122
-70
-94
-164
-201
-142
463
1447
1338
-167
-1186
-857
-337
-230
-150
-61
-76
-59
2
26
21
-3
-19
14
55
66
88
130
158
177
221
284
337
374
396
405
417
416
349
242
182
150
52
-68
-105
-106
-144
-165
-141
-144
-178
-180
-163
-159
-154
-148
-151
-146
-137
-143
-152
-155
-160
-151
-123
-126
-165
-167
-128
-119
-142
-135
-98
-85
-109
-132
-136
-124
-113
-129
-135
-98
-105
-165
-222
-322
0
1269
2164
946
-1072
-1471
-689
-300
-241
-86
-36
-58
3
26
7
48
74
35
25
74
134
202
261
290
335
418
487
537
593
614
594
564
494
356
205
85
-22
-110
-169
-223
-267
-271
-256
-257
-260
-244
-234
-244
-234
-197
-189
-209
-201
-176
-176
-190
-182
-123
-32
5
-36
-70
-65
-86
-133
-145
-135
-141
-128
-101
-127
-135
-58
-48
-148
-261
-407
-92
1289
2399
1303
-806
-1354
-616
-239
-246
-129
-42
-37
-8
-7
-5
47
63
39
63
122
157
175
208
258
310
370
447
514
549
587
616
567
445
325
224
112
3
-63
-89
-130
-198
-226
-201
-190
-205
-205
-189
-175
-167
-165
-157
-142
-141
-157
-164
-155
-149
-154
-159
-153
-153
-169
-174
-149
-138
-161
-176
-163
-148
-143
-145
-150
-139
-111
-97
-90
-77
-93
-134
-133
-100
-97
-95
-86
-106
-101
-79
-143
-234
-347
-354
517
2057
2100
87
-1374
-960
-250
-163
-150
-87
-121
-100
-40
-35
-6
31
6
-11
23
45
46
67
102
141
194
243
259
260
291
341
357
332
301
261
200
130
52
-23
-69
-104
-155
-182
-155
-126
-130
-131
-116
-120
-137
-137
-132
-140
-149
-139
-113
-99
-118
-137
-126
-102
-86
-70
-49
-31
-28
-41
-48
-35
-23
-37
-53
-41
-43
-65
-40
-27
-91
-143
-167
100
1181
2163
1210
-921
-1637
-850
-288
-202
-50
46
19
53
100
101
116
136
152
182
208
225
259
304
339
386
458
527
570
598
617
608
557
468
353
222
87
-31
-122
-192
-247
-278
-288
-288
-282
-278
-276
-265
-248
-242
-244
-238
-229
-229
-231
-232
-234
-234
-232
-231
-230
-227
-221
-208
-194
-186
-179
-176
-179
-176
-173
-184
-190
-172
-174
-193
-170
-157
-226
-316
-358
-33
1037
1884
929
-987
-1575
-854
-352
-257
-109
-24
-39
5
47
46
73
106
116
132
158
185
225
269
307
359
434
510
575
626
651
651
625
552
430
295
174
62
-34
-102
-152
-193
-212
-212
-216
-223
-217
-202
-192
-180
-166
-160
-160
-161
-164
-170
-177
-179
-180
-181
-173
-153
-146
-154
-147
-137
-147
-151
-142
-151
-159
-138
-133
-140
-112
-115
-166
-218
-295
69
1351
2213
948
-1096
-1493
-688
-272
-198
-38
16
-7
50
84
71
88
108
114
134
156
175
210
253
301
366
440
510
578
631
653
648
612
527
398
259
125
-2
-106
-171
-211
-240
-248
-233
-220
-223
-228
-227
-227
-229
-229
-228
-228
-232
-237
-241
-247
-254
-254
-247
-241
-231
-205
-174
-160
-159
-148
-137
-144
-155
-161
-179
-187
-168
-178
-199
-165
-173
-252
-304
-383
-62
1297
2396
1228
-970
-1494
-683
-263
-207
-48
-2
-34
27
64
58
78
84
88
133
168
185
223
267
303
351
408
455
495
532
552
547
520
462
366
249
137
32
-69
-151
-200
-221
-224
-217
-207
-194
-184
-180
-176
-172
-171
-166
-157
-164
-182
-185
-176
-169
-164
-161
-165
-167
-152
-127
-114
-119
-120
-113
-124
-145
-144
-147
-161
-142
-124
-150
-137
-105
-157
-229
-320
-209
829
2163
1614
-613
-1669
-936
-275
-210
-98
7
-27
1
54
49
68
101
102
111
140
168
202
237
273
321
372
419
470
506
508
501
493
449
367
276
183
86
-2
-74
-128
-154
-155
-155
-156
-147
-137
-140
-143
-138
-138
-143
-142
-143
-152
-161
-162
-163
-171
-175
-169
-160
-163
-168
-166
-164
-165
-157
-143
-140
-141
-130
-121
-136
-147
-128
-109
-116
-118
-116
-125
-116
-104
-125
-107
-80
-143
-187
-228
-210
604
1944
1702
-364
-1567
-957
-276
-203
-109
4
-30
-12
42
35
44
75
82
96
123
138
160
193
223
259
312
362
399
434
465
478
480
468
420
338
254
172
78
-11
-69
-100
-124
-139
-137
-124
-121
-126
-120
-113
-122
-133
-129
-126
-136
-145
-150
-153
-152
-150
-157
-167
-166
-158
-153
-147
-138
-133
-122
-107
-108
-110
-97
-94
-104
-104
-109
-125
-113
-98
-116
-102
-72
-121
-185
-234
-98
783
1872
1326
-682
-1648
-972
-316
-211
-84
35
11
32
90
91
101
133
144
157
186
206
224
271
317
307
276
315
402
457
480
494
481
430
349
249
147
57
-28
-106
-160
-188
-201
-207
-205
-198
-191
-183
-174
-167
-165
-165
-167
-168
-169
-168
-170
-177
-182
-180
-176
-174
-168
-164
-161
-148
-132
-129
-129
-121
-126
-139
-136
-137
-149
-141
-132
-144
-126
-109
-157
-209
-273
-132
789
1854
1232
-756
-1636
-938
-303
-201
-84
19
2
30
77
75
92
123
133
153
184
208
237
278
321
370
432
493
544
580
600
599
575
519
423
304
190
86
-12
-94
-147
-178
-194
-198
-194
-187
-182
-174
-164
-159
-160
-162
-160
-162
-171
-178
-178
-178
-181
-183
-180
-173
-168
-164
-147
-127
-120
-120
-119
-133
-152
-148
-149
-161
-147
-138
-160
-133
-110
-173
-227
-310
-204
836
2117
1470
-741
-1674
-887
-255
-200
-86
6
-37
-10
41
34
49
82
92
113
145
170
201
241
281
327
379
430
478
515
529
523
504
457
371
269
173
78
-16
-92
-140
-167
-176
-176
-175
-172
-165
-159
-158
-153
-146
-147
-153
-156
-156
-163
-172
-178
-184
-192
-193
-182
-175
-179
-183
-174
-163
-156
-149
-140
-132
-127
-125
-115
-95
-89
-102
-88
-56
-67
-98
-100
-96
-96
-89
-104
-99
-51
-77
-143
-180
-185
399
1720
1998
183
-1520
-1293
-440
-211
-141
14
25
21
77
81
79
111
124
130
157
178
196
230
270
312
363
422
476
522
553
567
562
532
467
369
258
152
53
-41
-117
-165
-196
-217
-224
-220
-215
-209
-200
-188
-179
-175
-173
-168
-163
-166
-175
-179
-183
-187
-186
-186
-191
-188
-177
-170
-162
-143
-133
-135
-131
-135
-151
-156
-153
-160
-155
-146
-159
-145
-119
-159
-206
-265
-228
560
1819
1591
-426
-1697
-1129
-356
-212
-116
15
-1
8
68
76
86
119
133
149
180
208
238
272
311
365
430
492
551
600
622
621
603
546
448
338
224
101
-10
-93
-156
-195
-214
-225
-232
-226
-210
-193
-180
-169
-160
-155
-156
-158
-156
-155
-158
-161
-163
-168
-169
-165
-163
-170
-171
-162
-156
-160
-164
-164
-159
-147
-129
-120
-119
-103
-82
-89
-93
-61
-47
-79
-97
-97
-111
-105
-92
-114
-102
-68
-124
-183
-261
-283
558
2059
1978
-146
-1540
-994
-266
-190
-124
-14
-47
-29
39
37
42
75
85
99
132
155
177
209
243
283
333
381
424
465
496
509
505
481
432
359
275
187
98
16
-50
-97
-124
-136
-143
-145
-138
-133
-136
-137
-133
-134
-141
-147
-150
-152
-154
-156
-160
-166
-169
-162
-157
-164
-172
-168
-161
-166
-173
-171
-163
-158
-159
-159
-146
-128
-124
-130
-117
-88
-82
-86
-59
-37
-66
-90
-83
-95
-109
-97
-106
-99
-59
-99
-168
-205
-205
423
1762
1968
121
-1486
-1197
-398
-217
-142
14
10
-6
50
64
72
107
121
131
162
188
208
239
273
310
364
428
485
525
548
562
560
527
454
356
249
139
35
-54
-124
-175
-206
-223
-235
-235
-223
-213
-208
-193
-178
-178
-177
-163
-151
-156
-165
-163
-157
-157
-160
-161
-161
-161
-164
-165
-163
-163
-161
-156
-151
-148
-137
-121
-117
-124
-115
-88
-77
-83
-65
-42
-63
-95
-96
-96
-102
-97
-103
-97
-73
-98
-140
-204
-271
283
1602
1919
185
-1491
-1299
-438
-173
-105
32
35
27
88
100
96
127
144
152
177
198
217
252
293
333
384
446
504
553
591
613
615
586
512
405
291
177
63
-35
-106
-152
-187
-207
-211
-209
-205
-199
-191
-184
-178
-173
-172
-172
-169
-164
-162
-163
-163
-164
-165
-163
-166
-172
-169
-162
-159
-158
-157
-156
-148
-141
-140
-138
-133
-129
-120
-105
-100
-96
-73
-54
-66
-70
-47
-50
-80
-94
-101
-111
-103
-105
-117
-96
-95
-131
-158
-241
-9
1093
1966
860
-1156
-1599
-711
-197
-149
-32
29
0
39
78
82
111
136
141
160
182
198
231
274
309
346
401
464
517
554
577
585
573
532
457
351
237
131
32
-55
-118
-157
-182
-193
-190
-183
-180
-180
-175
-163
-152
-150
-150
-148
-150
-151
-145
-142
-147
-153
-152
-149
-147
-149
-150
-145
-140
-140
-140
-136
-131
-130
-126
-120
-120
-122
-119
-109
-101
-100
-97
-84
-76
-74
-51
-29
-35
-31
-10
-24
-57
-66
-77
-87
-71
-78
-85
-50
-78
-144
-160
-209
170
1390
1944
409
-1398
-1345
-442
-154
-125
17
34
8
68
94
88
113
130
138
161
184
202
226
256
291
330
369
417
465
496
509
512
499
462
402
319
221
124
35
-43
-103
-143
-162
-165
-160
-158
-154
-149
-148
-151
-152
-151
-150
-151
-154
-155
-159
-164
-167
-167
-169
-171
-169
-168
-169
-172
-174
-173
-170
-164
-159
-154
-146
-138
-135
-134
-133
-129
-119
-111
-108
-89
-63
-66
-79
-57
-42
-73
-95
-84
-87
-96
-89
-96
-89
-65
-99
-140
-131
6
682
1614
1248
-580
-1673
-1105
-350
-182
-76
60
49
52
112
127
137
169
181
194
225
247
261
289
321
350
388
438
492
540
570
582
577
549
484
391
288
184
85
-1
-73
-126
-155
-164
-169
-175
-172
-161
-154
-155
-155
-150
-150
-157
-161
-162
-166
-171
-175
-181
-189
-194
-196
-198
-199
-197
-194
-194
-190
-176
-162
-161
-152
-128
-122
-131
-115
-98
-119
-143
-142
-145
-142
-128
-138
-135
-108
-134
-181
-222
-207
408
1570
1588
-193
-1605
-1237
-429
-213
-126
17
21
19
78
90
93
128
149
162
190
218
243
277
318
360
410
472
534
583
614
628
623
588
517
411
291
175
66
-31
-105
-152
-181
-197
-204
-202
-194
-191
-190
-185
-178
-174
-168
-161
-160
-165
-168
-166
-164
-164
-163
-160
-162
-166
-163
-157
-158
-157
-147
-140
-133
-120
-113
-114
-95
-70
-73
-74
-43
-40
-82
-102
-98
-109
-107
-99
-113
-90
-63
-123
-176
-233
-173
706
2005
1652
-452
-1626
-990
-286
-194
-98
16
-12
5
58
54
65
99
109
120
145
167
192
223
255
294
340
391
447
494
516
519
515
491
429
336
233
128
27
-61
-128
-178
-212
-223
-219
-217
-218
-217
-214
-209
-201
-197
-200
-201
-195
-193
-198
-202
-204
-205
-203
-199
-198
-201
-201
-196
-194
-193
-190
-184
-175
-163
-156
-154
-135
-106
-100
-102
-84
-79
-109
-130
-129
-135
-125
-106
-121
-118
-86
-127
-174
-194
-186
465
1793
1895
-46
-1616
-1227
-386
-208
-128
30
23
20
91
103
105
142
158
166
194
216
238
274
313
352
403
465
529
586
627
647
646
621
558
458
341
225
114
13
-63
-115
-152
-171
-176
-176
-173
-162
-151
-146
-140
-132
-125
-121
-120
-119
-113
-108
-110
-111
-115
-125
-129
-119
-113
-118
-119
-112
-107
-98
-75
-60
-66
-66
-47
-42
-52
-34
-14
-41
-78
-82
-88
-101
-93
-103
-110
-80
-103
-166
-208
-287
101
1406
2109
614
-1376
-1525
-642
-292
-246
-102
-81
-115
-62
-42
-58
-38
-24
-26
-1
