# session 6
-37
115
-318
-218
1370
3105
3489
3175
3122
3095
2865
2591
2317
2060
1816
1619
1617
1645
1457
1342
1506
1565
1324
1037
867
848
975
1117
1207
1219
1047
759
542
375
224
155
92
-32
-207
-369
33
1181
1522
-45
-1727
-1693
-842
-440
-282
-107
-93
-163
-186
-210
-193
-75
27
26
13
47
45
-46
-118
-65
18
8
-11
12
-61
-229
-349
-452
-594
-671
-655
-636
-603
-522
-469
-497
-527
-438
-279
-241
-322
-337
-276
-233
-148
2
127
155
62
238
1226
2195
1551
-109
-685
-66
383
432
494
506
427
361
285
261
349
397
334
268
227
183
184
221
191
182
384
662
687
454
172
-90
-337
-521
-604
-621
-661
-733
-746
-692
-681
-734
-766
-740
-722
-780
-873
-886
-818
-798
-825
-733
-438
-75
115
369
1410
2740
2495
665
-438
-61
365
265
144
58
-105
-210
-279
-379
-431
-422
-393
-354
-336
-325
-245
-133
-111
-168
-169
-88
-45
-110
-233
-376
-515
-579
-598
-705
-836
-775
-551
-394
-373
-414
-488
-583
-672
-753
-804
-851
-988
-1101
-914
-531
-317
-217
-52
-89
-24
1192
2811
2472
418
-685
-326
-30
-80
69
263
237
73
-126
-240
-193
-104
-76
-50
39
168
273
296
248
204
196
207
176
26
-127
-71
98
153
173
281
373
402
450
524
577
610
670
775
779
574
346
226
109
26
74
147
101
-113
-29
1147
2547
1960
-222
-1182
-412
261
318
413
576
619
566
388
212
246
395
495
577
690
821
958
1051
1047
1006
1016
1052
1049
1004
914
757
587
455
287
27
-233
-409
-536
-645
-713
-753
-807
-881
-972
-1055
-1099
-1134
-1154
-1128
-1110
-1109
-1178
-1425
-1204
181
1319
353
-1475
-1862
-1183
-834
-781
-636
-541
-557
-570
-551
-519
-486
-425
-328
-244
-193
-133
-49
15
31
45
97
145
167
181
141
89
173
288
196
-1
-72
-77
-140
-220
-276
-329
-377
-434
-501
-502
-432
-386
-345
-288
-304
-333
-382
-491
60
1483
1880
253
-1194
-946
-320
-203
-84
65
11
-32
54
221
444
560
484
353
251
177
177
240
303
374
459
531
602
663
654
587
520
458
401
357
319
300
300
288
265
244
211
197
201
158
129
180
208
231
331
315
163
89
46
379
1539
2172
804
-981
-1102
-373
-130
-74
115
214
275
338
277
175
107
-3
-128
-202
-242
-209
-83
12
7
-21
-28
-57
-153
-319
-482
-567
-608
-637
-596
-524
-533
-535
-419
-328
-364
-421
-486
-602
-657
-603
-551
-507
-412
-345
-337
-324
-398
-445
196
1370
1442
-101
-1370
-1175
-523
-269
-185
-92
-17
70
116
140
224
287
280
311
381
429
498
542
485
480
612
669
568
497
495
404
221
113
124
128
83
75
89
24
-88
-156
-186
-175
-92
-12
-31
-131
-210
-188
-125
-143
-214
-267
-136
619
1680
1503
-202
-1417
-1066
-333
-7
201
271
107
-32
-108
-203
-216
-150
-102
-58
-19
14
100
171
147
151
261
342
327
284
216
85
-61
-150
-217
-309
-353
-296
-223
-209
-223
-235
-247
-240
-203
-185
-214
-240
-259
-298
-312
-336
-419
-491
-673
-773
225
2001
2122
179
-1105
-700
-223
-238
-126
43
58
88
114
67
30
12
4
37
84
154
282
398
431
422
461
594
718
690
557
442
324
163
47
31
37
9
-16
-35
-70
-70
-17
9
-24
-55
-47
-42
-82
-125
-144
-227
-357
-509
-786
-607
770
1925
772
-1396
-1889
-1079
-646
-558
-382
-295
-247
-123
-77
-111
-106
-63
-16
11
43
123
198
259
364
429
407
447
504
430
375
339
56
-282
-352
-347
-386
-313
-253
-311
-289
-199
-211
-224
-138
-94
-132
-113
-59
-114
-164
-116
-235
-242
705
1826
1183
-683
-1380
-735
-255
-181
-15
141
160
177
181
138
180
289
246
92
119
328
467
476
438
379
320
322
367
336
243
255
331
299
227
230
220
147
64
-36
-147
-199
-220
-295
-388
-426
-440
-452
-414
-372
-377
-392
-483
-370
620
1762
1180
-705
-1465
-799
-302
-297
-217
-103
-67
-1
56
77
111
139
191
308
411
461
501
519
482
428
411
404
326
172
8
-136
-238
-256
-222
-204
-173
-123
-117
-152
-184
-224
-240
-225
-272
-355
-355
-324
-334
-364
-412
-433
-512
-655
-73
1440
1936
339
-1135
-866
-233
-257
-287
-132
-114
-80
49
58
-31
-61
-48
-45
-10
89
207
279
319
382
465
520
535
518
462
374
278
191
116
51
-19
-89
-134
-165
-201
-219
-231
-261
-269
-249
-258
-297
-286
-224
-230
-299
-312
-327
-91
859
1582
613
-1041
-1333
-651
-362
-339
-165
-73
-73
-9
4
-57
-77
-102
-173
-208
-206
-237
-261
-192
-58
52
138
249
335
327
288
300
324
310
279
243
170
114
232
486
566
366
141
58
61
64
16
-51
-37
14
-4
-108
-307
-196
802
1775
1028
-732
-1279
-608
-182
-170
-104
-64
-78
-7
55
40
57
129
185
224
281
343
394
438
457
431
388
366
333
216
48
-72
-140
-201
-235
-250
-287
-320
-316
-297
-280
-261
-251
-265
-295
-301
-280
-267
-250
-227
-227
-214
-286
-374
273
1595
1704
-36
-1377
-1037
-408
-372
-381
-299
-333
-330
-255
-223
-176
-87
-21
48
143
204
237
282
295
304
461
717
827
738
588
448
318
194
55
-79
-145
-123
-79
-84
-116
-113
-90
-120
-216
-286
-279
-290
-376
-440
-442
-427
-405
-487
-533
206
1530
1554
-200
-1501
-1144
-407
-151
-27
58
18
30
109
117
63
33
54
86
78
56
60
90
126
139
146
219
327
343
267
203
143
39
-57
-111
-158
-185
-162
-151
-207
-272
-277
-254
-284
-354
-345
-261
-246
-303
-331
-373
-461
-605
-834
-566
703
1531
315
-1488
-1694
-882
-398
-119
179
282
354
587
817
872
708
478
474
727
1004
1174
1180
974
679
491
419
373
326
257
138
14
-59
-86
-86
-100
-179
-291
-365
-412
-462
-487
-451
-341
-191
-45
80
179
274
372
411
414
401
392
886
2011
2277
722
-897
-955
-389
-289
-342
-276
-214
-103
17
-20
-148
-225
-252
-278
-313
-332
-310
-258
-216
-212
-225
-201
-141
-130
-221
-352
-459
-551
-631
-673
-694
-727
-746
-690
-529
-255
66
279
332
353
399
395
375
410
331
28
-238
-449
-793
-500
1012
1941
652
-1062
-1157
-545
-392
-337
-197
-172
-65
141
197
148
119
80
52
87
151
192
195
197
248
300
314
378
472
423
236
72
-37
-131
-207
-267
-305
-293
-255
-227
-209
-189
-152
-96
-56
-44
-32
-29
-20
28
38
11
27
-45
124
1223
2203
1174
-854
-1375
-648
-302
-292
-134
-99
-173
-86
5
-26
3
106
128
105
154
238
284
304
322
329
336
370
403
348
190
42
-7
8
14
-7
-39
-68
-82
-95
-131
-159
-155
-163
-203
-225
-247
-295
-301
-295
-350
-362
-434
-612
-21
1490
1832
126
-1182
-706
-70
-131
-138
-22
-99
-154
-105
-108
-115
-67
-11
30
50
80
163
249
281
282
275
257
229
173
75
-28
-93
-125
-152
-182
-200
-200
-204
-215
-201
-153
-114
-110
-123
-103
-53
-39
-41
2
13
-14
-38
-150
121
1357
2202
908
-1073
-1337
-525
-214
-198
-47
-16
-67
-20
8
-27
-31
2
36
74
137
234
367
515
610
604
565
555
519
417
308
223
140
57
-16
-76
-111
-133
-167
-211
-250
-277
-291
-309
-335
-340
-340
-351
-322
-298
-341
-366
-515
-728
4
1684
2023
245
-1149
-886
-456
-538
-511
-419
-489
-498
-453
-487
-479
-397
-370
-363
-266
-130
-62
-34
7
65
243
603
879
789
494
282
170
84
23
-27
-72
-89
-87
-85
-88
-95
-96
-92
-112
-131
-113
-108
-121
-95
-100
-145
-181
-367
-311
843
2096
1333
-647
-1257
-583
-226
-206
-53
3
-33
38
98
91
122
171
208
276
351
398
439
473
479
466
462
475
471
398
266
152
79
17
-27
-47
-73
-101
-106
-119
-156
-167
-142
-146
-181
-186
-169
-174
-165
-145
-166
-173
-262
-431
126
1567
1926
219
-1299
-1040
-339
-203
-128
9
-8
-12
43
48
58
98
118
142
177
199
227
259
271
268
259
247
234
194
108
12
-61
-116
-162
-197
-225
-238
-232
-234
-259
-270
-250
-236
-256
-271
-262
-259
-255
-238
-245
-246
-314
-561
-364
821
1597
480
-1100
-1208
-561
-380
-368
-212
-165
-179
-116
-68
-53
-18
19
57
110
161
192
205
205
208
215
226
239
226
160
67
-4
-47
-80
-108
-128
-137
-130
-121
-131
-156
-164
-145
-139
-160
-158
-133
-142
-142
-94
-93
-121
-158
-266
98
1326
1924
548
-1127
-1163
-430
-190
-137
7
19
-1
67
101
105
148
197
238
289
341
382
413
428
434
440
452
463
447
385
287
183
116
96
71
19
-3
11
-3
-46
-71
-83
-94
-104
-125
-137
-132
-134
-129
-130
-157
-158
-253
-349
301
1487
1406
-187
-1161
-762
-308
-268
-179
-96
-129
-104
-60
-70
-48
-2
10
31
79
115
139
168
189
190
192
216
245
236
182
109
39
-14
-49
-88
-133
-148
-134
-135
-165
-190
-187
-177
-194
-217
-213
-217
-244
-234
-232
-281
-310
-458
-597
121
1432
1377
-258
-1225
-812
-390
-375
-278
-186
-214
-178
-115
-105
-73
-18
13
48
91
123
153
182
208
227
234
260
307
289
184
91
44
-10
-53
-65
-87
-106
-79
-59
-87
-113
-106
-94
-99
-96
-81
-84
-77
-37
-47
-78
-85
-186
56
1167
1883
660
-1116
-1287
-481
-155
-137
-11
32
-3
26
60
88
134
160
169
208
260
293
312
330
342
344
345
339
312
253
170
94
39
-5
-38
-58
-73
-77
-75
-100
-151
-170
-152
-149
-160
-144
-138
-156
-129
-93
-129
-144
-205
-342
145
1343
1490
-128
-1404
-1059
-414
-316
-238
-82
-96
-127
-80
-66
-68
-11
77
126
148
213
292
307
294
307
319
321
317
272
184
96
26
-35
-84
-122
-150
-162
-159
-156
-176
-207
-203
-168
-167
-191
-178
-158
-167
-149
-122
-136
-150
-284
-411
276
1545
1468
-242
-1297
-830
-280
-227
-138
-25
-55
-45
11
22
47
99
128
148
183
229
272
286
265
253
267
280
265
210
120
28
-42
-96
-134
-149
-151
-152
-149
-143
-154
-178
-177
-155
-164
-191
-191
-196
-203
-170
-165
-182
-183
-341
-317
658
1677
838
-1056
-1532
-680
-183
-161
-47
24
-10
24
65
64
97
149
180
212
251
297
345
363
351
354
393
432
434
384
295
197
116
49
-9
-47
-71
-93
-107
-114
-134
-167
-188
-172
-139
-137
-142
-129
-134
-126
-105
-159
-191
-210
-424
-191
1118
1900
562
-1145
-1142
-385
-204
-226
-127
-125
-126
-44
-14
-10
38
80
120
181
213
206
206
220
235
269
315
333
310
257
183
103
27
-35
-72
-102
-149
-173
-143
-130
-169
-189
-153
-127
-146
-161
-146
-147
-156
-130
-131
-171
-207
-415
-555
245
1469
1189
-403
-1072
-510
-141
-180
-97
-15
-71
-99
-80
-54
-2
42
54
80
120
137
137
153
179
197
222
269
293
246
159
86
22
-56
-124
-157
-172
-190
-195
-177
-179
-209
-201
-143
-120
-162
-185
-153
-135
-121
-81
-92
-122
-146
-310
-200
714
1339
375
-961
-980
-324
-93
-62
41
37
1
53
93
91
117
168
193
201
223
249
259
283
318
327
330
358
371
326
253
190
141
89
31
-6
-17
-29
-48
-53
-50
-70
-94
-89
-81
-100
-108
-93
-100
-103
-80
-97
-120
-179
-379
-169
902
1497
371
-1006
-972
-357
-217
-203
-75
-67
-98
-49
-19
-9
26
51
61
88
128
171
205
219
230
252
269
259
211
135
71
37
-13
-98
-164
-194
-218
-231
-221
-214
-231
-256
-249
-201
-160
-149
-156
-191
-222
-206
-204
-210
-208
-374
-359
584
1588
846
-919
-1405
-666
-239
-226
-100
-9
-46
-33
14
40
82
126
149
182
234
281
312
326
340
360
376
373
334
258
168
85
18
-25
-49
-71
-98
-119
-119
-104
-98
-120
-160
-155
-95
-72
-105
-120
-124
-121
-90
-102
-145
-222
-426
-186
1043
1807
572
-1078
-1106
-373
-185
-176
-28
-9
-38
16
41
55
112
149
178
236
273
277
308
358
359
326
323
333
291
200
110
33
-41
-94
-120
-136
-139
-129
-136
-152
-160
-159
-132
-100
-125
-159
-128
-108
-135
-114
-97
-132
-148
-331
-520
225
1563
1498
-73
-958
-575
-211
-211
-161
-130
-184
-163
-94
-54
-12
30
58
95
143
179
204
225
234
242
276
306
277
206
127
41
-31
-72
-111
-159
-175
-165
-171
-188
-175
-134
-116
-129
-130
-130
-149
-141
-121
-143
-132
-79
-88
-99
-175
-412
-81
1134
1532
115
-1163
-892
-303
-266
-230
-82
-90
-102
-42
-31
-11
58
95
122
196
265
305
345
364
357
379
419
400
320
224
125
44
-5
-53
-110
-135
-135
-153
-174
-170
-171
-199
-209
-190
-195
-216
-214
-207
-196
-168
-179
-194
-219
-411
-328
670
1484
508
-1132
-1320
-532
-214
-223
-95
-31
-48
4
42
48
89
128
157
216
277
318
355
372
360
350
347
317
244
155
68
-8
-61
-86
-102
-120
-131
-135
-133
-131
-145
-168
-167
-140
-132
-142
-131
-118
-123
-97
-77
-103
-100
-220
-439
118
1459
1609
-46
-1228
-802
-208
-165
-91
48
21
15
83
110
140
204
254
299
362
429
488
526
528
504
482
466
419
325
212
110
24
-42
-84
-110
-130
-142
-141
-138
-148
-169
-186
-189
-191
-212
-231
-223
-217
-218
-200
-207
-228
-262
-492
-544
425
1608
1072
-633
-1219
-639
-328
-360
-259
-200
-250
-226
-178
-175
-155
-118
-91
-60
-24
