# session 32
397
383
336
324
402
484
477
428
410
400
366
336
332
327
299
284
288
252
182
147
129
92
75
67
25
21
31
-40
-86
-168
-252
567
2172
2151
-104
-1614
-1010
-225
-189
-144
-20
-70
-77
-20
-37
-44
-12
-4
2
24
35
46
70
99
133
176
228
289
355
419
478
527
548
510
386
197
-4
-180
-323
-428
-493
-530
-553
-565
-564
-556
-544
-531
-519
-507
-488
-469
-458
-447
-433
-420
-413
-409
-407
-401
-393
-385
-379
-372
-365
-358
-351
-343
-326
-306
-303
-296
-266
-246
-244
-220
-190
-206
-232
-225
-223
-226
-205
-201
-208
-167
-158
-194
-206
-326
-164
1101
2360
1390
-860
-1488
-591
-93
-96
32
105
61
106
155
149
175
209
218
241
272
293
320
355
390
429
480
543
614
685
753
813
854
855
785
635
439
245
80
-48
-133
-183
-212
-229
-236
-237
-234
-226
-217
-206
-194
-179
-165
-155
-147
-140
-137
-134
-131
-129
-129
-128
-127
-128
-131
-129
-125
-123
-122
-119
-116
-114
-113
-112
-111
-104
-94
-98
-100
-79
-64
-70
-56
-26
-41
-81
-88
-91
-107
-96
-94
-111
-84
-83
-136
-147
-269
-202
990
2415
1653
-671
-1491
-624
-92
-123
-13
68
15
50
96
80
98
129
133
148
174
190
209
237
264
298
343
395
454
519
582
639
686
703
659
540
369
185
15
-121
-217
-280
-317
-334
-343
-346
-342
-336
-330
-322
-310
-297
-284
-270
-260
-254
-248
-242
-238
-231
-224
-223
-222
-218
-216
-216
-214
-210
-207
-202
-196
-193
-190
-183
-178
-175
-172
-167
-159
-150
-148
-150
-137
-113
-106
-103
-70
-46
-75
-106
-103
-110
-118
-103
-115
-121
-80
-100
-144
-157
-284
79
1588
2526
973
-1178
-1296
-352
-80
-103
49
75
37
98
122
111
142
167
176
200
221
240
267
294
324
366
416
472
541
614
681
741
788
795
726
575
378
183
13
-123
-220
-277
-309
-327
-336
-339
-337
-331
-322
-311
-296
-279
-264
-252
-242
-235
-229
-224
-219
-218
-216
-213
-211
-211
-207
-202
-199
-195
-189
-184
-180
-177
-175
-171
-164
-156
-149
-147
-147
-135
-116
-112
-105
-74
-58
-89
-114
-110
-117
-118
-105
-119
-116
-82
-115
-145
-169
-293
188
1707
2341
588
-1328
-1193
-291
-86
-73
79
79
49
113
129
123
156
175
183
209
233
249
275
305
337
379
431
493
564
635
698
753
793
789
704
538
337
143
-25
-155
-240
-287
-315
-332
-337
-336
-333
-326
-314
-301
-290
-278
-266
-253
-242
-234
-229
-224
-217
-210
-209
-211
-208
-205
-207
-207
-202
-195
-191
-186
-181
-179
-178
-174
-166
-159
-154
-152
-151
-146
-137
-126
-127
-133
-120
-95
-87
-85
-53
-27
-55
-89
-90
-95
-101
-86
-95
-100
-66
-90
-128
-133
-246
112
1555
2404
849
-1221
-1283
-340
-68
-81
67
82
43
105
128
115
147
171
175
194
216
233
257
283
311
349
395
449
513
582
644
697
738
749
697
566
384
198
33
-101
-198
-259
-295
-313
-318
-317
-316
-312
-302
-292
-281
-265
-251
-244
-239
-232
-225
-219
-213
-210
-208
-206
-202
-199
-196
-195
-194
-191
-187
-182
-177
-172
-168
-163
-159
-154
-147
-143
-141
-134
-125
-124
-127
-114
-94
-93
-89
-55
-41
-79
-106
-101
-110
-113
-100
-119
-111
-74
-117
-148
-159
-255
308
1848
2289
356
-1439
-1112
-221
-88
-72
78
61
42
112
119
108
140
157
167
192
213
232
259
286
315
354
399
455
522
587
645
695
732
735
668
524
340
159
1
-126
-213
-265
-294
-308
-313
-313
-310
-303
-296
-286
-272
-259
-249
-239
-231
-223
-216
-211
-207
-204
-201
-198
-197
-196
-193
-192
-190
-185
-180
-176
-173
-169
-165
-162
-159
-155
-149
-139
-133
-136
-128
-105
-96
-96
-68
-45
-76
-110
-111
-118
-124
-109
-118
-126
-88
-107
-152
-163
-284
28
1433
2363
926
-1161
-1318
-394
-94
-106
39
64
24
80
100
89
125
151
156
178
202
219
246
276
302
336
386
444
507
574
636
689
730
740
689
565
390
204
35
-102
-202
-264
-297
-312
-319
-318
-309
-298
-291
-284
-270
-255
-251
-252
-249
-243
-239
-235
-229
-224
-221
-218
-218
-218
-214
-209
-206
-202
-194
-191
-192
-179
-164
-167
-166
-140
-124
-127
-108
-81
-100
-135
-136
-141
-153
-136
-133
-150
-119
-113
-163
-178
-282
-144
1071
2351
1440
-819
-1486
-593
-96
-117
4
77
24
58
104
98
123
157
166
184
209
225
247
278
312
350
396
455
527
601
668
728
775
792
743
608
416
217
40
-105
-209
-274
-316
-340
-348
-348
-346
-338
-326
-318
-311
-298
-285
-275
-265
-256
-252
-253
-252
-247
-242
-238
-234
-230
-229
-223
-206
-199
-199
-180
-156
-158
-155
-126
-126
-163
-178
-175
-186
-179
-165
-179
-164
-135
-174
-188
-213
-222
524
1898
1813
-241
-1607
-1025
-229
-134
-73
61
39
43
105
104
107
144
159
172
203
225
244
276
312
350
398
458
528
602
673
737
793
819
779
654
464
256
68
-81
-190
-262
-301
-317
-323
-326
-323
-313
-301
-289
-280
-270
-258
-245
-238
-235
-227
-218
-213
-212
-207
-201
-198
-199
-197
-193
-192
-185
-170
-162
-164
-148
-121
-122
-124
-96
-91
-130
-150
-147
-163
-163
-144
-160
-153
-114
-155
-188
-218
-340
225
1798
2266
338
-1461
-1139
-251
-114
-94
55
35
16
84
91
86
123
139
144
170
193
211
236
263
295
339
389
442
502
568
629
678
711
703
619
462
277
100
-54
-174
-252
-297
-321
-332
-333
-329
-323
-317
-305
-290
-278
-269
-259
-248
-239
-231
-223
-217
-213
-210
-205
-201
-198
-192
-187
-186
-181
-166
-159
-163
-147
-120
-118
-117
-90
-85
-123
-142
-136
-147
-144
-128
-147
-139
-103
-144
-174
-218
-332
315
1919
2249
206
-1511
-1083
-216
-118
-80
79
46
23
96
103
97
136
155
162
192
217
234
262
294
327
369
422
484
554
624
685
734
764
739
627
450
254
70
-87
-203
-277
-319
-340
-349
-350
-346
-335
-322
-313
-304
-291
-280
-272
-263
-252
-245
-242
-237
-230
-224
-218
-216
-216
-211
-205
-204
-196
-181
-178
-175
-151
-132
-136
-129
-109
-125
-161
-166
-164
-173
-165
-160
-172
-152
-147
-184
-191
-291
-248
780
2141
1600
-592
-1573
-788
-136
-110
-23
74
31
52
106
99
109
142
152
167
196
219
241
269
305
351
400
469
565
641
678
727
790
813
761
619
424
249
77
-114
-232
-262
-302
-346
-330
-299
-284
-268
-264
-255
-221
-220
-262
-259
-210
-192
-206
-209
-204
-205
-205
-203
-203
-203
-201
-197
-198
-201
-194
-179
-177
-180
-158
-128
-130
-137
-113
-109
-147
-164
-157
-170
-169
-152
-161
-144
-122
-165
-174
-229
-322
428
1972
2004
-139
-1598
-978
-155
-94
-44
91
51
48
116
115
115
152
166
172
190
201
218
247
272
300
340
390
446
511
577
632
676
705
687
594
434
250
78
-63
-172
-244
-280
-300
-316
-322
-317
-310
-302
-290
-277
-265
-253
-243
-235
-227
-219
-213
-209
-206
-201
-196
-194
-193
-193
-190
-187
-185
-182
-178
-171
-158
-146
-146
-135
-108
-96
-91
-65
-54
-88
-112
-112
-127
-130
-113
-128
-123
-83
-123
-151
-155
-307
87
1555
2203
478
-1392
-1198
-273
-76
-67
82
76
47
108
118
109
145
162
163
185
207
221
243
270
301
337
378
427
484
543
594
636
665
658
590
460
299
137
-5
-114
-193
-246
-274
-284
-283
-277
-271
-265
-258
-248
-240
-232
-224
-220
-217
-213
-209
-204
-199
-198
-198
-194
-190
-190
-189
-185
-183
-179
-171
-163
-159
-153
-140
-136
-143
-128
-104
-109
-106
-65
-61
-113
-136
-129
-142
-141
-128
-148
-135
-108
-160
-169
-216
-362
314
1911
2088
-12
-1554
-998
-175
-109
-63
78
45
38
102
98
98
138
153
164
197
222
238
262
290
325
369
418
475
539
605
664
713
743
728
636
471
283
107
-47
-166
-239
-282
-310
-323
-322
-314
-305
-297
-288
-280
-270
-255
-245
-243
-240
-231
-224
-222
-217
-214
-216
-216
-210
-202
-195
-189
-190
-194
-191
-173
-157
-161
-162
-135
-117
-123
-107
-76
-95
-137
-143
-143
-153
-141
-142
-153
-125
-132
-175
-174
-255
-66
1099
2131
1046
-1073
-1524
-592
-121
-121
13
82
40
84
126
115
137
170
182
207
237
255
279
312
348
391
443
502
574
650
717
774
820
826
752
592
383
174
-5
-143
-237
-297
-331
-348
-353
-349
-343
-333
-321
-310
-299
-285
-271
-260
-251
-243
-236
-229
-220
-214
-211
-209
-207
-206
-205
-204
-204
-200
-193
-189
-183
-168
-163
-170
-155
-129
-132
-132
-97
-91
-132
-151
-147
-160
-155
-143
-160
-143
-117
-161
-175
-240
-327
461
2039
2080
-55
-1523
-943
-149
-92
-46
85
51
50
112
110
113
149
160
173
202
220
236
265
296
332
377
427
488
560
632
695
747
778
756
651
476
278
94
-60
-172
-243
-286
-310
-319
-322
-320
-312
-301
-291
-282
-271
-261
-253
-247
-238
-229
-225
-223
-219
-214
-212
-212
-212
-209
-205
-201
-196
-193
-191
-186
-183
-176
-161
-155
-162
-148
-121
-120
-121
-87
-72
-110
-133
-125
-136
-138
-123
-140
-133
-94
-137
-168
-190
-334
178
1783
2389
515
-1386
-1138
-232
-88
-84
68
54
28
96
105
98
134
153
161
188
207
219
244
276
306
343
391
449
511
574
633
682
716
716
645
498
314
135
-20
-143
-228
-277
-303
-316
-321
-319
-312
-299
-287
-279
-270
-257
-244
-234
-226
-221
-219
-215
-206
-201
-201
-203
-199
-195
-192
-189
-186
-184
-181
-176
-171
-167
-165
-163
-152
-139
-139
-133
-110
-105
-112
-83
-54
-82
-118
-116
-122
-134
-116
-118
-128
-95
-110
-154
-162
-294
-59
1322
2429
1147
-1060
-1389
-443
-82
-114
28
72
26
79
111
94
125
162
170
186
206
224
249
278
307
345
393
451
518
590
657
711
756
774
725
584
386
188
19
-118
-221
-287
-320
-335
-343
-342
-334
-329
-323
-310
-295
-284
-275
-264
-255
-250
-245
-237
-232
-229
-226
-224
-223
-218
-210
-209
-208
-201
-196
-197
-187
-167
-162
-166
-149
-130
-135
-124
-91
-95
-134
-143
-139
-151
-145
-135
-149
-129
-107
-148
-166
-220
-198
662
2007
1704
-414
-1601
-914
-173
-111
-37
90
62
71
129
128
136
172
186
202
231
251
272
304
338
376
425
481
546
620
690
752
804
832
797
670
471
255
62
-94
-209
-281
-319
-336
-345
-347
-342
-335
-328
-318
-303
-290
-280
-270
-261
-253
-244
-236
-228
-223
-219
-217
-217
-215
-210
-207
-204
-201
-198
-196
-192
-189
-180
-164
-158
-160
-141
-117
-118
-111
-78
-77
-117
-133
-127
-139
-136
-122
-141
-128
-95
-139
-159
-200
-307
375
1975
2231
171
-1467
-995
-158
-81
-55
84
53
43
111
111
107
145
162
172
200
219
233
257
285
315
356
405
460
522
589
648
695
729
725
647
492
303
123
-31
-150
-231
-277
-301
-313
-316
-310
-302
-295
-287
-276
-263
-251
-243
-237
-230
-223
-220
-216
-212
-210
-209
-208
-207
-206
-204
-203
-202
-200
-196
-193
-190
-183
-167
-160
-166
-152
-123
-119
-119
-91
-84
-126
-149
-142
-156
-159
-140
-155
-152
-113
-153
-189
-208
-343
152
1733
2365
528
-1387
-1172
-264
-107
-105
46
33
7
75
86
80
118
136
143
171
191
205
232
263
292
329
375
429
492
555
613
665
706
710
644
506
327
145
-15
-142
-230
-280
-304
-315
-320
-318
-308
-296
-289
-281
-268
-255
-247
-242
-233
-222
-215
-213
-209
-202
-199
-200
-198
-193
-188
-185
-181
-175
-167
-161
-159
-158
-149
-133
-128
-130
-114
-90
-85
-75
-45
-44
-85
-106
-103
-112
-105
-90
-107
-96
-65
-108
-131
-163
-215
495
2003
2139
73
-1498
-1000
-164
-73
-30
116
93
87
151
151
154
196
214
226
256
275
290
318
352
388
428
476
537
610
680
742
797
832
819
723
549
344
148
-21
-150
-234
-284
-313
-329
-333
-330
-325
-319
-310
-298
-291
-284
-271
-259
-255
-253
-251
-248
-239
-236
-247
-254
-249
-248
-253
-251
-239
-230
-237
-238
-218
-215
-244
-253
-227
-215
-210
-182
-185
-234
-249
-236
-257
-273
-262
-274
-260
-235
-290
-316
-351
-430
285
1862
2035
-71
-1683
-1190
-361
-282
-245
-98
-118
-139
-106
-124
-112
-53
-46
-60
-28
-1
-5
18
60
75
106
173
229
346
589
790
807
761
756
712
607
527
460
308
91
-75
-164
-193
-145
-76
-74
-96
-84
-78
-97
-100
-90
-90
-84
-50
-15
-12
-14
10
24
11
18
58
93
98
89
91
106
120
138
158
143
104
105
144
166
174
204
223
180
89
-3
-81
-129
-145
-189
-243
-223
-232
-335
-351
-365
-315
600
1900
1358
-875
-1879
-1057
-383
-351
-234
-124
-198
-200
-132
-111
-71
-15
4
16
37
95
237
405
509
587
679
748
813
893
908
856
840
848
793
687
562
414
265
117
-48
-195
-285
-347
-395
-405
-379
-328
-265
-241
-286
-341
-368
-385
-396
-406
-424
-435
-435
-444
-450
-449
-462
-474
-466
-469
-487
-485
-469
-463
-446
-426
-430
-427
-383
-350
-331
-266
-202
-217
-249
-258
-299
-308
-232
-184
-172
-167
-139
468
1718
1906
161
-1370
-1072
-225
40
136
239
203
225
307
265
191
187
184
169
176
184
195
230
261
277
325
407
476
543
637
727
787
829
809
666
438
208
3
-175
-301
-364
-391
-408
-419
-413
-396
-380
-359
-332
-310
-283
-243
-215
-196
-159
-121
-102
-87
-60
