# session 25
-4
-22
41
-61
-367
-554
-536
-499
-496
-482
-458
-439
-425
-423
-437
-183
675
1279
267
-1517
-1916
-1014
-397
-293
-181
-111
-121
-63
-15
-26
-5
31
42
63
97
136
188
221
225
261
323
353
377
438
499
530
553
560
516
433
336
218
82
-36
-120
-174
-202
-214
-220
-220
-218
-222
-216
-186
-154
-141
-149
-156
-141
-128
-148
-152
-103
-78
-122
-150
-127
-130
-159
-137
-95
-105
-124
-115
-120
-135
-112
-84
-92
-91
-61
-54
-60
-36
-22
-35
-14
13
-27
-69
-52
-60
-102
-85
-54
-80
-75
-40
-79
-130
-154
55
970
1871
1063
-894
-1571
-767
-169
-111
-15
66
37
57
92
99
132
155
156
181
200
198
230
289
310
309
341
386
417
457
505
532
550
543
470
383
320
221
85
-7
-62
-137
-216
-246
-229
-216
-225
-221
-199
-195
-204
-194
-175
-174
-186
-189
-185
-190
-198
-195
-193
-203
-205
-191
-178
-170
-168
-178
-178
-156
-149
-155
-121
-76
-94
-116
-76
-71
-134
-149
-112
-120
-132
-96
-84
-103
-100
-113
-140
-121
-26
427
1311
1494
85
-1501
-1557
-718
-264
-140
-2
51
46
83
108
118
150
180
198
221
250
278
294
318
374
429
455
495
557
608
645
670
670
640
571
452
304
162
37
-64
-140
-196
-239
-266
-274
-267
-257
-248
-235
-223
-216
-210
-203
-195
-185
-180
-180
-180
-182
-185
-186
-186
-192
-196
-202
-208
-197
-177
-170
-164
-149
-133
-118
-107
-107
-98
-84
-105
-145
-151
-148
-167
-164
-142
-137
-120
-122
-173
-175
-153
88
1064
1959
986
-1133
-1794
-891
-238
-149
-28
49
16
50
92
89
119
149
145
162
197
213
231
261
288
316
354
399
443
487
522
536
534
524
481
388
279
175
69
-28
-98
-146
-181
-202
-213
-214
-207
-197
-179
-162
-163
-166
-153
-145
-153
-159
-156
-149
-144
-144
-147
-149
-153
-157
-153
-151
-155
-145
-126
-125
-117
-80
-63
-85
-82
-57
-75
-121
-130
-123
-140
-148
-148
-159
-139
-117
-152
-149
-129
40
957
2020
1255
-1002
-1950
-1065
-287
-173
-63
34
9
50
95
65
78
130
152
167
196
224
245
262
292
338
385
434
488
545
588
594
593
626
612
475
310
201
99
-16
-106
-161
-187
-198
-231
-276
-291
-264
-212
-198
-226
-205
-164
-202
-217
-135
-121
-215
-246
-198
-188
-207
-193
-166
-156
-143
-123
-101
-78
-83
-118
-125
-105
-117
-146
-157
-171
-177
-159
-155
-158
-127
-132
-178
-134
-6
353
1207
1663
415
-1504
-1893
-968
-340
-194
-42
37
21
69
118
113
116
137
172
213
227
228
252
302
373
422
428
460
538
590
618
660
683
650
570
443
286
139
14
-98
-181
-223
-243
-270
-289
-280
-262
-252
-243
-233
-222
-204
-190
-192
-191
-173
-162
-170
-182
-180
-169
-167
-181
-186
-160
-133
-129
-124
-117
-129
-133
-109
-104
-128
-143
-163
-199
-194
-163
-177
-177
-139
-180
-221
-167
-124
354
1532
1787
-24
-1778
-1520
-524
-201
-133
13
30
16
61
78
92
117
131
162
205
232
242
257
327
425
447
427
486
569
572
559
595
624
602
533
412
269
154
61
-38
-120
-159
-169
-181
-201
-208
-198
-192
-182
-159
-159
-187
-181
-142
-142
-180
-185
-167
-174
-186
-175
-152
-131
-132
-151
-139
-103
-118
-155
-130
-100
-143
-186
-174
-178
-194
-172
-173
-203
-169
-143
-198
-204
-179
60
1065
2015
1029
-1192
-1933
-1025
-344
-240
-95
10
-18
12
56
55
84
116
120
143
184
209
234
268
301
342
397
455
516
577
623
648
656
639
570
441
289
146
14
-95
-168
-218
-257
-280
-287
-290
-287
-274
-258
-247
-236
-221
-214
-214
-203
-182
-171
-173
-177
-175
-167
-154
-140
-128
-115
-99
-101
-130
-140
-113
-113
-155
-170
-163
-179
-173
-151
-170
-159
-124
-174
-200
-188
-154
595
1956
1795
-434
-1909
-1256
-337
-178
-94
41
13
19
80
76
87
130
137
145
176
200
221
253
283
311
350
405
462
506
543
576
591
575
526
437
311
173
52
-48
-130
-184
-213
-241
-259
-249
-237
-243
-243
-228
-214
-196
-186
-196
-187
-154
-160
-196
-202
-191
-201
-210
-194
-166
-144
-140
-141
-112
-74
-76
-93
-84
-95
-141
-151
-126
-134
-142
-125
-135
-127
-82
-131
-186
-162
-194
282
1646
2069
196
-1674
-1419
-422
-146
-95
47
47
41
106
108
101
139
154
161
195
218
228
257
296
327
364
420
475
515
564
619
637
624
601
531
393
237
96
-36
-148
-215
-245
-266
-285
-300
-303
-294
-278
-261
-251
-248
-245
-239
-235
-234
-234
-233
-229
-228
-232
-232
-231
-228
-216
-195
-183
-171
-144
-128
-138
-137
-122
-138
-166
-167
-166
-172
-156
-151
-166
-135
-125
-179
-183
-187
36
1100
2108
1096
-1138
-1811
-872
-240
-175
-40
51
14
48
95
92
116
148
156
176
205
224
250
287
324
362
406
460
516
561
592
615
622
602
540
431
296
161
39
-64
-139
-190
-223
-236
-237
-234
-225
-208
-197
-190
-181
-171
-166
-163
-159
-160
-163
-162
-159
-162
-169
-172
-173
-174
-174
-170
-155
-138
-134
-123
-88
-71
-89
-87
-68
-94
-139
-144
-142
-154
-142
-137
-156
-128
-113
-169
-179
-199
-33
1002
2111
1200
-1088
-1847
-879
-201
-150
-30
58
11
45
97
84
94
126
137
154
178
194
213
243
277
312
351
398
448
492
524
547
557
548
506
421
306
186
74
-27
-110
-168
-199
-211
-216
-219
-217
-214
-209
-200
-192
-187
-185
-186
-185
-178
-175
-177
-178
-177
-182
-187
-186
-181
-179
-180
-180
-173
-158
-145
-141
-126
-97
-89
-103
-94
-79
-109
-146
-144
-145
-156
-140
-136
-149
-123
-124
-173
-177
-175
159
1314
2110
817
-1299
-1679
-729
-221
-163
-18
37
2
54
99
94
118
148
157
177
207
232
256
286
320
358
400
453
511
560
600
630
641
623
561
447
302
158
29
-78
-155
-208
-245
-263
-267
-267
-265
-259
-248
-234
-222
-213
-206
-200
-193
-187
-186
-188
-188
-189
-191
-191
-192
-191
-188
-188
-186
-169
-151
-143
-122
-98
-104
-117
-106
-110
-144
-156
-149
-160
-160
-143
-155
-149
-118
-150
-180
-174
-142
491
1752
1799
-170
-1751
-1314
-386
-167
-102
44
37
28
90
102
107
143
159
170
199
221
241
272
306
340
383
438
497
553
602
643
671
673
630
533
398
253
116
-6
-109
-180
-219
-240
-253
-257
-252
-244
-233
-224
-216
-208
-198
-191
-188
-186
-184
-181
-180
-182
-184
-186
-187
-185
-184
-186
-185
-183
-181
-174
-156
-144
-135
-106
-81
-92
-101
-80
-86
-129
-143
-136
-152
-151
-134
-151
-142
-105
-152
-188
-183
-151
572
1934
1845
-343
-1859
-1229
-297
-158
-96
50
23
17
84
86
89
128
142
151
179
200
218
246
278
311
350
393
441
491
533
563
578
575
542
463
348
224
107
-4
-99
-162
-198
-218
-229
-229
-222
-214
-206
-196
-188
-180
-172
-167
-168
-168
-165
-164
-164
-163
-163
-164
-161
-158
-160
-162
-161
-158
-157
-156
-150
-144
-141
-131
-115
-107
-99
-70
-49
-59
-59
-38
-55
-101
-108
-98
-114
-111
-95
-110
-101
-84
-135
-154
-155
-43
853
2062
1489
-767
-1831
-982
-206
-140
-51
65
27
42
99
96
109
141
147
159
185
201
218
245
272
301
339
380
420
461
497
520
530
527
495
422
316
206
101
1
-84
-143
-177
-201
-214
-211
-204
-201
-192
-179
-173
-173
-171
-169
-165
-159
-157
-159
-157
-150
-152
-162
-167
-162
-157
-157
-162
-163
-157
-152
-152
-151
-150
-151
-140
-121
-120
-120
-91
-65
-74
-78
-59
-72
-113
-125
-121
-137
-138
-130
-144
-123
-92
-137
-163
-154
-31
816
1998
1528
-659
-1831
-1083
-269
-157
-71
52
24
34
92
94
106
146
162
177
204
226
249
280
308
338
376
419
466
514
559
594
613
611
577
497
372
232
102
-13
-110
-179
-222
-248
-258
-256
-251
-245
-234
-225
-219
-205
-191
-193
-197
-189
-178
-177
-178
-179
-180
-179
-179
-183
-183
-179
-178
-178
-175
-170
-160
-141
-127
-120
-101
-78
-82
-88
-68
-67
-110
-131
-124
-138
-144
-125
-138
-137
-97
-129
-172
-160
-137
447
1735
1876
-121
-1821
-1396
-398
-150
-82
63
41
24
92
103
104
140
155
167
196
217
236
262
287
319
358
398
446
498
544
589
623
626
599
537
421
277
140
11
-101
-166
-197
-222
-242
-249
-245
-232
-207
-185
-180
-176
-163
-162
-177
-174
-155
-156
-170
-171
-164
-165
-174
-177
-173
-172
-179
-180
-176
-178
-178
-158
-133
-122
-115
-89
-67
-75
-82
-68
-74
-109
-126
-134
-144
-127
-115
-146
-138
-103
-147
-180
-156
-13
777
1837
1313
-810
-1899
-1115
-279
-141
-46
74
53
68
120
118
130
162
173
188
208
221
246
282
310
340
377
414
453
500
538
558
567
560
521
439
324
200
84
-18
-102
-161
-199
-223
-234
-235
-228
-220
-213
-205
-194
-184
-175
-169
-165
-161
-157
-155
-155
-153
-153
-157
-158
-158
-160
-164
-163
-163
-160
-146
-129
-127
-120
-87
-64
-76
-76
-60
-83
-126
-130
-129
-144
-133
-123
-140
-112
-96
-158
-169
-166
5
983
2037
1155
-1083
-1838
-876
-193
-151
-42
54
15
45
94
86
105
144
159
178
204
219
240
272
305
339
378
424
480
535
573
598
614
611
565
465
332
196
65
-57
-152
-210
-239
-254
-263
-268
-264
-252
-242
-232
-221
-214
-212
-211
-206
-203
-201
-197
-197
-200
-201
-199
-200
-200
-199
-198
-197
-184
-163
-153
-143
-113
-93
-105
-106
-88
-102
-138
-143
-138
-150
-144
-135
-150
-133
-109
-149
-169
-167
12
913
1933
1211
-933
-1846
-1006
-254
-148
-37
75
44
63
119
121
136
171
183
202
232
253
276
309
343
379
425
475
527
577
619
646
657
643
585
479
341
196
63
-50
-136
-195
-230
-247
-254
-253
-245
-237
-230
-218
-205
-201
-200
-195
-189
-184
-179
-177
-178
-178
-177
-179
-181
-179
-179
-180
-177
-175
-175
-164
-144
-133
-125
-96
-71
-83
-91
-72
-80
-123
-138
-132
-145
-141
-126
-145
-135
-102
-146
-173
-163
-99
646
1893
1630
-538
-1880
-1176
-275
-138
-71
57
27
28
90
90
95
129
143
157
186
204
224
255
285
317
357
400
445
490
527
553
566
559
523
448
339
218
99
-11
-100
-159
-193
-216
-228
-228
-220
-213
-205
-196
-187
-180
-176
-174
-171
-169
-169
-170
-167
-164
-165
-168
-170
-168
-165
-162
-160
-159
-158
-154
-152
-150
-137
-118
-107
-92
-64
-56
-66
-56
-43
-75
-113
-114
-117
-130
-120
-123
-133
-98
-104
-159
-157
-171
150
1344
2128
723
-1418
-1666
-624
-144
-120
16
63
23
72
106
100
127
152
157
176
198
215
241
269
296
328
365
402
443
484
517
536
540
522
474
386
271
155
49
-44
-116
-166
-197
-214
-219
-214
-209
-205
-198
-187
-178
-171
-167
-163
-159
-155
-155
-155
-154
-153
-155
-156
-157
-158
-157
-155
-153
-152
-151
-150
-148
-144
-141
-136
-127
-117
-112
-95
-64
-50
-61
-56
-47
-80
-123
-121
-117
-132
-124
-123
-142
-118
-108
-157
-165
-184
50
1141
2109
1022
-1183
-1752
-780
-184
-142
-15
61
21
57
100
93
116
147
157
175
199
220
250
281
305
338
387
439
484
528
571
606
626
619
571
478
349
205
68
-46
-136
-201
-238
-257
-266
-264
-255
-248
-242
-234
-226
-218
-208
-198
-192
-190
-191
-190
-188
-191
-194
-191
-186
-186
-187
-182
-177
-179
-176
-169
-166
-166
-162
-150
-132
-120
-117
-102
-70
-61
-73
-60
-44
-74
-105
-99
-100
-111
-98
-101
-110
-79
-87
-134
-139
-150
225
1408
2036
545
-1467
-1595
-584
-142
-96
49
89
56
107
136
130
161
187
194
217
242
261
290
324
355
391
436
487
535
580
616
640
646
623
557
445
310
175
51
-57
-138
-192
-223
-239
-248
-251
-249
-245
-238
-228
-217
-209
-203
-196
-191
-188
-188
-185
-181
-179
-179
-180
-182
-183
-184
-186
-188
-189
-186
-182
-177
-173
-169
-164
-150
-132
-123
-111
-84
-73
-84
-76
-64
-95
-134
-135
-137
-149
-137
-138
-154
-125
-125
-176
-173
-180
106
1250
2100
808
-1368
-1735
-700
-167
-139
-9
45
2
47
85
76
100
127
133
152
177
197
222
248
274
310
352
396
445
491
523
545
556
543
492
400
283
163
48
-54
-131
-181
-213
-233
-241
-240
-233
-224
-215
-205
-197
-188
-178
-168
-162
-157
-154
-153
-152
-148
-146
-150
-150
-147
-146
-148
-147
-144
-142
-140
-136
-133
-130
-127
-123
-110
-92
-83
-73
-43
-21
-26
-21
-3
-25
-66
-70
-68
-82
-71
-64
-79
-49
-33
-89
-97
-97
102
1117
2134
1179
-1049
-1741
-768
-108
-67
47
136
94
123
166
153
172
209
218
231
254
272
295
323
349
380
422
469
515
555
590
618
633
625
583
497
376
249
127
15
-77
-141
-183
-208
-223
-231
-227
-218
-211
-206
-202
-197
-195
-195
-194
-189
-186
-189
-194
-197
-202
-207
-206
-203
-206
-212
-214
-214
-219
-225
-224
-221
-222
-215
-196
-187
-189
-174
-158
-165
-166
-149
-166
-209
-218
-214
-233
-234
-223
-234
-215
-191
-246
-289
-289
-124
741
1812
1221
-914
-1956
-1177
-387
-268
-171
-53
-77
-59
-1
-1
11
51
74
96
123
143
172
210
245
283
329
384
446
506
554
592
617
618
578
490
363
221
88
-29
-119
-175
-204
-220
-223
-213
-200
-188
-171
-147
-119
-94
-75
-56
-33
-10
7
21
