# session 16
-19
12
-67
28
433
799
885
859
845
789
691
580
441
307
208
119
35
-9
-15
-16
-23
-24
-26
-32
-36
-45
-61
-77
-85
-88
-90
-96
-96
-90
-91
-103
-109
-105
-110
-126
-127
-105
-98
-99
-76
-76
-100
-111
-264
-314
577
1877
1506
-508
-1604
-1004
-312
-187
-87
43
20
-12
41
117
156
155
186
296
425
521
603
670
678
628
554
448
293
131
13
-66
-135
-207
-254
-261
-264
-287
-292
-257
-226
-228
-238
-236
-237
-239
-234
-233
-236
-218
-195
-209
-223
-191
-173
-191
-185
-167
-181
-199
-200
-176
-144
-176
-227
-342
-587
-136
1543
2445
787
-1328
-1442
-577
-260
-165
9
0
-49
41
138
185
228
283
373
491
604
716
818
864
850
804
704
530
341
196
68
-68
-166
-206
-239
-273
-269
-257
-281
-296
-278
-276
-297
-312
-328
-320
-285
-270
-256
-222
-235
-275
-253
-218
-236
-258
-251
-214
-172
-192
-221
-187
-190
-225
-268
-354
139
1461
1807
46
-1616
-1359
-524
-319
-205
18
36
7
72
101
114
192
275
323
401
540
671
722
718
706
660
542
384
250
149
42
-71
-137
-154
-173
-200
-204
-185
-163
-156
-154
-144
-159
-219
-254
-231
-226
-228
-182
-190
-278
-288
-271
-323
-256
-61
-17
-123
-172
-124
-81
-122
-154
-204
-363
165
1777
2362
468
-1458
-1279
-423
-228
-138
51
39
16
89
111
128
199
265
337
449
572
684
760
788
780
727
606
451
308
169
25
-98
-182
-232
-258
-274
-291
-298
-288
-280
-282
-283
-279
-275
-271
-268
-266
-264
-264
-256
-238
-233
-243
-239
-226
-231
-238
-220
-195
-194
-195
-157
-135
-167
-180
-277
-354
404
1796
1717
-326
-1758
-1281
-474
-278
-157
-5
-10
4
79
102
124
183
242
316
425
544
653
734
765
744
675
553
398
247
117
5
-91
-169
-219
-241
-244
-242
-233
-214
-197
-194
-201
-208
-216
-224
-226
-227
-221
-200
-188
-205
-218
-207
-198
-202
-212
-210
-179
-155
-170
-154
-126
-167
-206
-318
-387
483
2045
1949
-269
-1725
-1163
-380
-248
-130
19
3
25
96
113
151
225
286
369
490
614
728
814
838
803
722
595
433
270
132
13
-94
-176
-217
-231
-237
-238
-229
-215
-205
-200
-200
-207
-213
-211
-207
-214
-225
-216
-192
-188
-208
-214
-197
-188
-203
-223
-202
-157
-158
-162
-125
-148
-198
-238
-427
-147
1376
2500
1078
-1234
-1598
-685
-298
-244
-61
-22
-50
34
78
77
136
212
286
392
503
609
723
796
798
752
652
488
304
149
31
-73
-175
-250
-284
-303
-315
-303
-290
-300
-308
-294
-281
-280
-275
-264
-265
-277
-278
-265
-250
-233
-216
-211
-215
-213
-203
-200
-210
-218
-196
-165
-164
-154
-123
-135
-147
-188
-337
15
1294
1937
484
-1368
-1471
-625
-266
-175
3
55
40
98
140
161
213
270
330
419
526
639
742
798
793
741
646
506
347
206
93
-4
-89
-151
-185
-196
-194
-190
-184
-173
-164
-165
-172
-176
-180
-188
-193
-190
-190
-192
-187
-182
-196
-209
-200
-188
-192
-201
-193
-164
-152
-164
-139
-120
-165
-209
-361
-412
593
2207
1984
-292
-1659
-1070
-357
-258
-135
0
-31
-13
57
71
101
167
230
317
434
559
682
772
798
769
696
573
410
244
101
-18
-117
-190
-230
-247
-257
-262
-255
-242
-230
-218
-211
-216
-220
-218
-218
-218
-219
-221
-219
-212
-210
-214
-212
-204
-193
-177
-160
-160
-171
-165
-149
-150
-154
-140
-121
-118
-131
-136
-112
-100
-123
-106
-67
-98
-136
-254
-357
455
2055
2126
1
-1558
-1120
-367
-242
-132
31
16
21
91
111
135
192
245
317
412
512
624
725
773
767
721
633
498
338
193
78
-18
-105
-180
-229
-246
-246
-241
-232
-224
-223
-225
-222
-219
-223
-227
-227
-229
-233
-230
-224
-225
-225
-210
-195
-194
-193
-184
-186
-196
-184
-161
-158
-168
-166
-141
-120
-126
-117
-90
-108
-135
-213
-357
135
1543
2084
470
-1329
-1334
-553
-272
-174
-2
30
27
92
118
129
184
242
302
390
496
611
720
781
781
733
640
496
330
180
54
-51
-134
-201
-251
-272
-267
-259
-250
-231
-212
-205
-204
-201
-202
-206
-207
-208
-212
-212
-210
-210
-205
-199
-195
-181
-163
-170
-182
-167
-149
-151
-155
-152
-140
-121
-131
-128
-88
-107
-152
-217
-412
-27
1595
2616
1047
-1202
-1449
-575
-262
-208
-26
0
-27
47
81
91
158
223
275
366
491
627
750
828
858
833
737
583
405
232
90
-23
-128
-212
-261
-294
-319
-317
-301
-297
-291
-273
-263
-268
-268
-259
-253
-253
-252
-247
-248
-255
-249
-228
-219
-219
-209
-194
-190
-182
-168
-162
-159
-156
-161
-157
-132
-116
-121
-126
-115
-95
-97
-103
-74
-65
-102
-135
-262
-199
825
2100
1535
-564
-1543
-892
-296
-205
-61
60
40
69
122
129
165
225
272
339
437
548
666
767
812
795
732
628
483
318
169
51
-49
-135
-201
-244
-263
-262
-253
-242
-227
-213
-203
-197
-194
-196
-201
-205
-210
-214
-215
-214
-211
-209
-206
-200
-197
-197
-185
-167
-169
-185
-175
-150
-143
-146
-145
-135
-111
-111
-125
-92
-88
-145
-209
-383
-222
1151
2577
1654
-738
-1551
-748
-250
-217
-61
22
-17
30
81
95
152
213
263
358
482
608
744
861
910
893
827
700
517
323
158
25
-89
-179
-240
-281
-313
-323
-314
-310
-309
-294
-278
-279
-278
-268
-264
-264
-259
-253
-250
-244
-237
-238
-236
-224
-214
-211
-202
-190
-184
-178
-169
-160
-151
-144
-140
-136
-128
-120
-113
-106
-101
-100
-96
-87
-86
-99
-100
-74
-49
-60
-77
-59
-42
-59
-47
-24
-51
-76
-182
-275
471
1943
2037
89
-1417
-1071
-350
-202
-99
57
50
53
118
135
150
197
238
290
370
464
573
682
753
770
745
683
574
424
271
144
44
-44
-121
-183
-221
-234
-234
-230
-222
-209
-199
-192
-186
-179
-180
-187
-194
-197
-201
-204
-204
-203
-199
-192
-188
-184
-170
-159
-173
-186
-170
-153
-157
-168
-166
-146
-135
-141
-123
-107
-130
-135
-240
-384
271
1705
1870
-29
-1608
-1300
-478
-233
-122
33
40
42
101
118
136
192
241
296
383
489
611
731
809
829
796
704
558
382
215
76
-38
-130
-197
-239
-264
-275
-277
-269
-253
-243
-237
-227
-218
-212
-205
-200
-202
-204
-201
-200
-200
-196
-189
-184
-181
-177
-175
-169
-160
-157
-158
-151
-138
-132
-124
-111
-115
-131
-123
-99
-93
-106
-110
-92
-80
-92
-84
-62
-81
-99
-186
-337
218
1690
2157
404
-1410
-1320
-477
-199
-118
39
52
35
95
120
132
187
238
286
367
470
586
708
802
839
824
764
653
495
323
174
51
-58
-147
-206
-240
-255
-258
-256
-251
-241
-227
-219
-215
-208
-203
-205
-209
-209
-209
-209
-209
-209
-210
-210
-206
-200
-197
-196
-193
-188
-185
-177
-164
-160
-160
-145
-135
-150
-154
-128
-114
-128
-140
-131
-110
-109
-119
-95
-82
-118
-162
-308
-262
795
2165
1645
-535
-1593
-917
-273
-180
-52
59
32
61
118
125
159
219
265
331
428
538
659
773
841
845
798
709
574
410
254
121
5
-91
-165
-216
-242
-245
-241
-235
-228
-223
-218
-210
-204
-202
-202
-201
-204
-208
-208
-209
-210
-204
-192
-185
-186
-188
-189
-186
-177
-167
-159
-154
-147
-138
-137
-143
-134
-125
-137
-140
-110
-87
-98
-115
-116
-93
-78
-95
-81
-40
-75
-137
-236
-313
401
1891
2051
67
-1521
-1154
-372
-222
-135
31
40
47
106
119
141
199
243
299
386
486
600
720
799
818
801
749
632
461
292
161
56
-42
-128
-195
-239
-257
-258
-254
-240
-226
-230
-236
-228
-226
-235
-241
-240
-235
-232
-241
-249
-244
-235
-230
-223
-215
-214
-209
-196
-188
-193
-191
-174
-166
-174
-162
-135
-133
-152
-158
-140
-119
-119
-118
-98
-107
-138
-185
-268
61
1140
1724
490
-1221
-1407
-620
-229
-136
22
77
66
127
166
170
215
271
311
374
470
580
693
788
837
831
769
655
503
338
192
75
-22
-106
-171
-204
-210
-212
-212
-202
-189
-184
-183
-180
-178
-179
-185
-194
-202
-203
-203
-208
-212
-210
-200
-190
-186
-184
-179
-184
-194
-187
-177
-182
-185
-181
-170
-153
-156
-157
-125
-132
-177
-245
-427
-151
1270
2394
1187
-1012
-1514
-709
-293
-229
-65
-11
-38
22
69
78
125
179
235
324
430
547
688
813
878
880
828
714
544
354
186
48
-73
-168
-230
-271
-292
-293
-285
-279
-270
-259
-251
-242
-232
-225
-222
-220
-219
-220
-219
-214
-208
-207
-207
-201
-194
-190
-186
-176
-163
-157
-155
-146
-142
-152
-147
-119
-106
-114
-118
-114
-98
-93
-113
-95
-70
-123
-178
-293
-347
556
2200
2190
-33
-1590
-1115
-367
-252
-143
9
-2
21
90
94
116
174
213
271
377
500
630
757
848
883
861
787
656
483
305
148
15
-93
-176
-238
-277
-295
-302
-303
-296
-282
-269
-261
-250
-239
-235
-235
-230
-232
-236
-230
-226
-232
-233
-229
-225
-220
-214
-207
-196
-184
-170
-162
-176
-187
-160
-131
-139
-151
-142
-123
-110
-119
-116
-82
-92
-138
-209
-316
108
1427
2085
628
-1247
-1388
-591
-266
-180
-3
43
31
91
121
131
179
223
268
344
441
555
687
798
855
855
799
682
516
337
181
53
-55
-143
-208
-252
-278
-288
-285
-275
-263
-250
-237
-226
-219
-213
-210
-212
-215
-218
-221
-225
-226
-226
-224
-219
-214
-210
-203
-199
-194
-177
-162
-172
-175
-149
-133
-139
-145
-143
-130
-116
-127
-116
-81
-113
-167
-269
-426
190
1893
2550
684
-1345
-1312
-481
-255
-183
-8
0
-12
61
85
98
159
211
263
353
465
595
742
868
938
944
892
777
606
411
238
96
-24
-121
-186
-224
-247
-260
-264
-260
-247
-229
-217
-210
-196
-178
-167
-164
-162
-161
-159
-152
-151
-156
-158
-150
-141
-139
-133
-119
-112
-121
-124
-114
-107
-107
-104
-99
-93
-85
-82
-81
-71
-67
-75
-78
-72
-64
-54
-47
-51
-55
-54
-56
-59
-56
-52
-50
-46
-42
-41
-45
-49
-42
-30
-29
-33
-30
-29
-35
-38
-36
-35
-31
-25
-24
-24
-22
-28
-38
-37
-30
-28
-28
-27
-32
-32
-25
-30
-42
-39
-27
-25
-32
-37
-30
-19
-24
-35
-12
23
12
-24
-23
-15
-33
-21
0
-36
-88
-188
-124
793
2084
1776
-191
-1340
-847
-265
-190
-81
40
10
20
78
85
104
147
174
213
278
348
428
525
613
667
680
658
606
527
421
308
208
121
34
-54
-126
-175
-202
-213
-217
-216
-209
-201
-196
-195
-198
-203
-204
-203
-208
-217
-221
-226
-230
-229
-227
-228
-228
-223
-217
-212
-208
-206
-201
-192
-186
-181
-178
-179
-178
-171
-164
-162
-160
-153
-145
-138
-140
-147
-133
-109
-104
-103
-78
-53
-61
-91
-105
-87
-87
-108
-81
-66
-124
-186
-337
-273
927
2527
2036
-345
-1551
-908
-312
-255
-107
16
-20
14
76
79
110
170
212
268
351
451
583
737
866
941
952
902
795
632
434
241
80
-53
-160
-227
-270
-309
-336
-338
-329
-323
-317
-310
-303
-289
-271
-258
-252
-248
-244
-244
-247
-240
-225
-215
-216
-220
-216
-202
-190
-187
-184
-173
-163
-157
-147
-141
-147
-146
-125
-107
-109
-103
-73
-56
-75
-105
-106
-88
-94
-96
-65
-72
-114
-177
-311
30
1397
2346
1064
-1039
-1457
-664
-270
-200
-24
42
21
80
123
129
170
215
252
318
405
510
643
781
885
935
925
852
714
526
334
172
38
-78
-165
-222
-262
-288
-299
-298
-288
-275
-263
-252
-239
-229
-224
-222
-220
-218
-217
-220
-223
-224
-221
-219
-216
-212
-208
-204
-198
-192
-187
-183
-177
-168
-158
-155
-161
-160
-142
-129
-131
-118
-84
-69
-87
-111
-112
-102
-117
-120
-86
-102
-162
-250
-417
-23
1557
2670
1285
-1010
-1479
-673
-306
-253
-77
-22
-51
6
44
49
95
146
189
259
350
458
596
746
866
931
934
871
739
556
364
194
49
-73
-167
-231
-270
-296
-308
-306
-299
-289
-273
-259
-255
-250
-237
-225
-220
-217
-212
-208
-210
-212
-210
-209
-211
-208
-198
-189
-185
-183
-178
-171
-164
-159
-156
-148
-135
-136
-143
-130
-111
-113
-112
-84
-63
-74
-101
-107
-91
-98
-109
-75
-75
-138
-196
-339
-167
1142
2524
1663
-700
-1601
-857
-331
-274
-109
-1
-22
25
72
70
105
157
197
261
343
441
583
742
861
930
951
906
781
599
410
235
79
-48
-139
-209
-263
-297
-316
-326
-321
-309
-301
-290
-270
-253
-246
-242
-236
-226
-214
-208
-212
-214
-204
-194
-193
-191
-185
-180
-179
-175
-164
-151
-145
-143
-134
-121
-123
-129
-114
-90
-85
-84
-64
-41
-42
-64
-79
-70
-68
-82
-67
-54
-81
-118
-271
-311
633
2153
2013
-100
-1515
-1084
-394
-247
-116
31
17
27
87
96
115
163
197
240
311
395
503
636
764
856
889
856
758
604
420
247
103
-19
-119
-188
-228
-253
-273
-288
-293
-286
-276
-263
-248
-232
-219
-210
-201
-195
-195
-195
-194
-193
-194
-194
-194
-193
-188
-185
-184
-179
-172
-168
-167
-162
-158
-161
-163
-153
-140
-136
-136
-125
-104
-98
-107
-107
-89
-79
-103
-125
-114
-111
-126
-106
-96
-125
-127
-244
-378
349
1824
1949
13
-1584
-1318
-520
-259
-140
4
9
11
70
86
97
137
172
214
276
348
443
570
699
800
861
870
818
704
544
371
216
83
-29
-119
-179
-211
-230
-243
-244
-237
-230
-222
-208
-194
-184
-174
-160
-148
-141
-135
-133
-133
-127
-121
-124
-122
-112
-109
-106
-97
-93
-80
-43
-34
-68
-69
-17
11
-5
-12
-10
-21
-32
-25
-13
-6
