# session 41
77
57
107
41
-160
-232
-144
-91
-89
-60
-37
-22
6
11
16
61
87
83
114
164
189
208
247
310
380
420
456
524
590
629
648
585
406
224
107
-7
-124
-190
-234
-281
-291
-283
-295
-287
-268
-273
-264
-227
-217
-231
-233
-229
-220
-210
-196
-172
-163
-177
-175
-164
-165
-148
-131
-155
-173
-151
-148
-162
-144
-120
-114
-113
-121
-127
-121
-132
-133
-105
-120
-152
-127
-112
-133
-209
-312
146
1331
1703
360
-916
-735
-178
-112
-77
47
29
11
61
69
70
94
101
116
146
159
172
204
225
247
295
341
376
435
506
554
593
630
612
510
350
171
18
-91
-173
-231
-256
-266
-271
-270
-273
-272
-256
-249
-256
-241
-209
-201
-209
-199
-185
-184
-186
-181
-173
-167
-167
-170
-169
-162
-159
-165
-157
-128
-132
-187
-197
-127
-81
-91
-84
-64
-83
-108
-102
-94
-98
-90
-85
-91
-72
-68
-103
-124
-199
-128
671
1641
1185
-381
-1010
-458
-70
-77
4
76
40
54
93
99
118
139
142
153
171
184
201
223
242
267
303
348
397
445
492
541
584
599
555
442
289
137
3
-104
-172
-211
-242
-250
-225
-209
-231
-256
-249
-229
-226
-229
-213
-188
-177
-175
-168
-163
-168
-172
-168
-164
-164
-164
-168
-170
-167
-162
-161
-160
-157
-152
-146
-149
-150
-136
-126
-133
-122
-89
-87
-119
-127
-117
-124
-123
-109
-118
-109
-88
-115
-138
-186
-230
330
1458
1543
67
-1004
-642
-98
-63
-33
64
40
28
75
100
118
134
144
163
174
184
220
248
248
255
285
326
372
418
457
493
528
555
545
477
362
225
84
-40
-132
-189
-217
-230
-241
-242
-229
-221
-219
-210
-200
-194
-185
-177
-176
-175
-169
-164
-161
-161
-164
-160
-149
-150
-155
-148
-144
-152
-150
-135
-133
-138
-127
-119
-132
-134
-117
-114
-113
-84
-63
-83
-107
-105
-107
-117
-105
-99
-111
-91
-77
-117
-144
-206
-145
612
1574
1160
-380
-1018
-468
-75
-90
-26
34
0
21
57
47
59
88
96
108
130
146
161
180
201
225
256
290
327
369
413
453
484
502
491
429
319
192
73
-29
-111
-164
-194
-212
-218
-213
-203
-194
-186
-177
-171
-168
-163
-155
-148
-145
-141
-134
-131
-133
-136
-138
-138
-137
-136
-137
-134
-125
-120
-130
-133
-115
-103
-115
-120
-101
-92
-95
-76
-52
-63
-88
-91
-90
-99
-92
-84
-95
-82
-68
-105
-134
-189
-147
561
1565
1264
-299
-1061
-531
-79
-80
-16
66
27
31
70
68
76
101
112
127
150
164
176
194
216
240
269
308
352
396
439
479
513
536
522
447
325
186
51
-64
-151
-209
-243
-262
-270
-269
-261
-252
-244
-235
-226
-218
-215
-216
-209
-203
-226
-249
-230
-205
-214
-198
-139
-122
-161
-165
-130
-137
-161
-141
-128
-154
-132
-62
-45
-85
-109
-104
-103
-117
-115
-101
-110
-126
-121
-127
-152
-249
-281
338
1416
1392
-51
-987
-574
-77
-75
-33
73
29
18
80
67
53
116
142
114
138
184
181
196
265
304
302
318
366
443
513
522
514
557
582
499
347
195
52
-71
-147
-200
-259
-278
-235
-216
-249
-249
-208
-191
-191
-179
-171
-171
-168
-175
-186
-172
-149
-143
-147
-158
-176
-178
-154
-137
-156
-173
-152
-126
-125
-129
-126
-118
-100
-82
-76
-84
-102
-118
-112
-97
-97
-108
-89
-64
-97
-132
-169
-263
86
1167
1646
496
-780
-715
-174
-87
-91
11
8
-21
18
41
45
57
67
81
101
116
132
156
176
186
200
242
295
329
352
388
426
441
440
410
319
193
94
4
-92
-150
-174
-204
-225
-223
-224
-227
-213
-196
-192
-189
-181
-175
-172
-166
-160
-158
-156
-151
-148
-145
-141
-135
-127
-122
-121
-111
-92
-86
-94
-90
-75
-76
-76
-55
-47
-71
-89
-87
-95
-103
-88
-92
-109
-85
-81
-124
-150
-235
-116
788
1703
1033
-553
-989
-374
-69
-98
-9
38
2
35
66
56
72
95
101
117
138
151
171
197
219
243
273
308
350
399
442
478
508
522
493
407
278
138
13
-84
-149
-193
-222
-237
-240
-238
-233
-226
-219
-209
-199
-191
-185
-180
-175
-175
-178
-178
-174
-171
-173
-175
-168
-156
-152
-151
-143
-140
-150
-148
-132
-128
-124
-97
-78
-97
-118
-117
-120
-127
-114
-108
-120
-99
-88
-126
-153
-228
-148
668
1619
1089
-505
-1068
-460
-80
-99
-21
38
0
26
65
58
72
97
103
118
141
158
177
201
225
253
287
323
364
410
457
499
533
545
513
423
291
149
19
-87
-164
-210
-233
-247
-251
-247
-239
-233
-225
-213
-203
-198
-194
-190
-184
-177
-174
-172
-168
-164
-162
-161
-158
-154
-148
-140
-139
-145
-138
-125
-127
-122
-91
-76
-100
-119
-111
-112
-120
-107
-107
-119
-94
-91
-128
-156
-270
-166
789
1771
1114
-487
-924
-320
-44
-88
2
47
7
38
65
51
70
97
99
108
127
142
161
186
211
240
274
312
356
406
452
490
519
526
485
386
249
107
-17
-112
-176
-215
-233
-238
-240
-240
-234
-223
-214
-208
-204
-200
-193
-185
-179
-175
-169
-166
-164
-162
-157
-155
-156
-155
-151
-146
-140
-138
-146
-146
-132
-125
-124
-106
-87
-99
-117
-114
-114
-123
-112
-104
-119
-101
-80
-119
-153
-231
-251
456
1621
1488
-109
-1010
-528
-68
-92
-44
41
3
10
54
49
55
81
87
97
119
135
153
179
200
221
255
296
339
384
430
470
503
521
502
425
301
160
29
-76
-149
-194
-223
-239
-241
-234
-226
-218
-209
-202
-197
-190
-182
-174
-168
-162
-158
-154
-149
-147
-150
-151
-147
-143
-141
-138
-139
-140
-132
-128
-135
-135
-123
-116
-106
-82
-72
-90
-102
-99
-105
-108
-90
-91
-104
-81
-81
-120
-143
-245
-112
852
1772
1037
-553
-926
-304
-41
-85
2
40
3
39
68
55
71
96
100
110
129
145
163
183
206
233
264
300
344
391
433
469
499
510
471
375
246
116
-2
-99
-167
-204
-226
-239
-242
-236
-229
-224
-218
-208
-197
-189
-185
-181
-174
-167
-164
-161
-155
-152
-154
-154
-150
-148
-147
-145
-145
-145
-142
-137
-127
-119
-124
-131
-119
-102
-96
-80
-57
-66
-91
-93
-89
-100
-94
-81
-94
-87
-63
-99
-123
-157
-243
230
1397
1641
203
-979
-668
-101
-70
-54
50
26
18
66
66
66
96
107
115
135
149
160
180
206
234
265
299
339
385
432
479
519
543
532
468
353
216
82
-38
-131
-185
-214
-234
-243
-242
-236
-229
-219
-210
-202
-196
-191
-188
-185
-180
-173
-169
-170
-170
-165
-161
-160
-161
-160
-158
-154
-148
-147
-143
-132
-132
-143
-135
-116
-115
-111
-79
-66
-94
-112
-107
-113
-115
-99
-105
-113
-86
-93
-131
-152
-244
-45
947
1685
733
-802
-983
-308
-62
-75
31
55
19
59
84
76
98
118
124
143
164
179
201
228
255
284
320
361
408
456
498
535
565
566
515
405
261
117
-3
-96
-162
-202
-221
-231
-238
-238
-232
-227
-224
-217
-209
-203
-197
-188
-180
-174
-169
-164
-159
-155
-152
-148
-143
-141
-143
-142
-138
-134
-133
-131
-127
-124
-124
-120
-111
-104
-114
-124
-114
-99
-95
-78
-51
-59
-86
-87
-83
-94
-85
-73
-92
-84
-60
-95
-118
-163
-226
327
1498
1616
128
-947
-579
-64
-65
-43
51
23
21
67
62
62
87
95
102
123
138
151
172
195
218
245
280
326
373
414
453
489
511
503
446
336
199
71
-31
-113
-171
-207
-225
-233
-231
-225
-221
-216
-207
-199
-191
-184
-176
-169
-165
-162
-156
-149
-147
-147
-146
-145
-142
-140
-139
-138
-137
-136
-136
-133
-130
-129
-125
-120
-115
-108
-105
-117
-121
-101
-87
-87
-66
-37
-50
-79
-77
-73
-85
-80
-74
-89
-72
-51
-91
-112
-168
-184
488
1605
1454
-118
-994
-508
-51
-72
-26
57
21
28
69
61
68
95
103
114
135
146
159
183
206
230
261
296
335
377
422
462
494
515
507
443
327
194
69
-38
-120
-172
-204
-222
-229
-230
-226
-219
-213
-206
-197
-187
-178
-172
-166
-157
-150
-146
-143
-144
-145
-144
-142
-139
-135
-136
-138
-132
-123
-122
-125
-121
-115
-115
-114
-108
-106
-106
-99
-97
-109
-109
-92
-88
-88
-60
-34
-54
-86
-86
-81
-89
-86
-87
-103
-83
-69
-105
-119
-181
-140
616
1611
1197
-387
-1036
-462
-68
-90
-11
63
24
39
77
73
86
110
112
125
150
166
179
198
223
251
280
316
359
404
448
487
522
549
542
470
345
207
79
-39
-129
-183
-213
-233
-245
-249
-245
-238
-232
-225
-214
-203
-198
-191
-180
-173
-171
-169
-164
-158
-156
-158
-157
-155
-156
-153
-148
-147
-143
-133
-128
-125
-123
-131
-135
-120
-108
-105
-81
-55
-69
-98
-98
-94
-106
-103
-94
-108
-96
-75
-113
-140
-193
-235
368
1515
1511
-35
-1043
-610
-91
-85
-42
54
20
21
69
64
68
101
111
116
137
155
170
191
215
242
274
311
355
405
451
490
525
546
530
454
329
189
60
-49
-130
-181
-211
-228
-233
-233
-235
-234
-223
-208
-198
-192
-182
-174
-171
-167
-157
-151
-149
-146
-145
-147
-143
-136
-134
-138
-138
-135
-132
-129
-125
-119
-115
-116
-113
-105
-105
-117
-119
-104
-92
-79
-53
-39
-58
-82
-85
-88
-95
-83
-80
-93
-71
-61
-107
-125
-182
-156
583
1630
1315
-253
-977
-454
-57
-87
-33
30
-6
15
56
47
52
75
84
98
119
129
140
164
193
216
240
273
315
359
401
435
465
492
487
422
315
195
68
-52
-139
-187
-210
-221
-230
-236
-233
-224
-215
-207
-200
-191
-180
-171
-165
-161
-157
-151
-144
-143
-144
-140
-136
-136
-130
-124
-130
-131
-116
-114
-122
-110
-98
-109
-106
-85
-89
-105
-93
-82
-79
-48
-18
-41
-75
-71
-64
-69
-54
-50
-81
-68
-32
-58
-86
-162
-232
372
1564
1651
186
-833
-489
-38
-56
-37
53
31
16
40
49
65
83
91
112
132
137
145
161
179
206
244
285
331
393
447
465
469
485
486
434
327
173
13
-104
-178
-237
-274
-280
-279
-284
-288
-282
-264
-248
-248
-254
-248
-231
-211
-205
-211
-202
-185
-189
-199
-187
-172
-173
-173
-163
-150
-146
-149
-149
-141
-132
-116
-107
-124
-141
-125
-101
-100
-87
-54
-51
-80
-85
-76
-89
-94
-80
-83
-76
-64
-92
-114
-176
-241
277
1351
1447
56
-949
-574
-50
-49
-38
70
60
55
97
100
105
131
142
154
179
200
217
236
258
288
318
350
398
448
488
534
588
617
599
524
393
239
95
-36
-144
-207
-236
-253
-262
-257
-247
-237
-233
-234
-235
-228
-215
-205
-198
-185
-176
-178
-179
-174
-174
-178
-175
-164
-154
-152
-150
-140
-136
-146
-153
-145
-135
-135
-135
-122
-115
-129
-143
-134
-120
-110
-77
-40
-51
-82
-80
-72
-85
-83
-76
-91
-74
-48
-88
-123
-203
-321
215
1482
1789
415
-720
-469
-18
-47
-46
41
5
-7
41
44
48
78
90
96
107
118
136
162
183
198
223
264
307
344
386
435
474
502
510
466
354
214
81
-35
-126
-185
-224
-244
-247
-251
-251
-232
-218
-226
-220
-194
-191
-208
-202
-182
-177
-174
-166
-168
-174
-171
-167
-164
-154
-152
-158
-155
-145
-141
-141
-139
-144
-145
-133
-128
-142
-147
-128
-111
-104
-85
-61
-67
-94
-104
-100
-97
-89
-96
-110
-90
-91
-131
-156
-257
-173
729
1738
1208
-329
-826
-282
-23
-89
-15
32
-9
20
60
56
70
90
95
109
129
144
164
192
222
250
277
311
355
399
438
479
526
554
536
460
340
202
73
-34
-114
-161
-178
-183
-190
-199
-202
-202
-197
-183
-168
-161
-154
-140
-131
-135
-138
-131
-125
-123
-120
-119
-126
-127
-115
-106
-112
-123
-125
-124
-128
-123
-109
-109
-122
-117
-100
-97
-90
-59
-44
-74
-100
-93
-92
-106
-100
-95
-99
-78
-82
-129
-159
-253
-142
759
1666
979
-615
-1039
-408
-102
-131
-35
14
-26
4
35
25
45
71
78
97
122
134
152
182
216
245
274
311
358
409
456
493
520
539
524
442
306
160
25
-96
-188
-237
-258
-270
-275
-272
-268
-263
-257
-250
-238
-228
-226
-226
-225
-224
-217
-210
-211
-211
-204
-199
-200
-200
-203
-203
-192
-180
-179
-175
-162
-157
-154
-128
-99
-106
-129
-134
-131
-133
-123
-117
-125
-105
-92
-135
-154
-197
-205
424
1499
1383
-169
-1095
-618
-101
-86
-29
76
52
55
100
101
113
141
148
162
191
207
219
245
273
298
331
374
420
467
515
559
598
623
608
522
383
229
83
-41
-126
-172
-200
-220
-225
-216
-207
-206
-203
-190
-179
-176
-172
-162
-155
-149
-141
-136
-135
-130
-121
-115
-117
-115
-108
-106
-109
-100
-86
-90
-102
-93
-82
-84
-68
-35
-34
-60
-66
-61
-73
-73
-59
-70
-65
-39
-65
-98
-157
-276
158
1366
1772
421
-871
-675
-99
-51
-50
58
39
20
67
70
66
91
101
108
131
142
148
168
190
209
237
273
310
353
401
441
473
501
501
437
314
163
13
-116
-209
-268
-302
-326
-341
-345
-340
-333
-328
-323
-317
-313
-313
-312
-307
-300
-297
-295
-290
-286
-287
-288
-287
-284
-282
-274
-266
-270
-273
-258
-249
-255
-239
-203
-203
-232
-238
-225
-227
-224
-213
-218
-203
-179
-206
-225
-291
-381
189
1443
1650
160
-988
-651
-115
-102
-73
36
15
17
75
85
98
137
155
173
206
226
247
288
327
360
401
455
512
570
626
679
730
771
780
728
617
479
356
262
192
147
124
