# session 1
-49
-73
25
-120
-585
-874
-819
-736
-739
-719
-688
-683
-660
-619
-595
-582
-563
-551
-543
-512
-471
-453
-428
-375
-345
-348
-340
-334
-332
-301
-281
-296
-273
-234
-250
-306
-496
-537
413
1866
1787
121
-836
-456
-106
-146
-84
-13
-49
-22
32
33
48
86
100
107
125
154
187
214
239
275
326
375
407
434
478
514
520
517
496
402
254
129
32
-61
-129
-161
-177
-179
-169
-172
-177
-163
-147
-151
-155
-141
-128
-133
-142
-138
-129
-120
-113
-109
-111
-113
-109
-100
-98
-104
-99
-82
-83
-86
-57
-33
-43
-49
-41
-50
-50
-38
-49
-49
-30
-54
-92
-218
-450
-34
1383
2128
930
-514
-534
-47
-26
-54
47
35
15
60
62
61
101
118
115
133
153
163
179
207
232
253
284
321
352
379
406
421
418
392
317
189
47
-68
-157
-228
-279
-306
-309
-301
-302
-302
-289
-282
-284
-272
-255
-257
-258
-241
-230
-237
-232
-208
-205
-221
-216
-194
-186
-183
-177
-185
-190
-174
-166
-164
-138
-112
-118
-135
-140
-140
-130
-123
-130
-109
-73
-92
-145
-313
-538
-20
1446
2106
883
-464
-466
-64
-91
-127
-32
-32
-48
-14
5
22
41
49
82
118
122
128
152
167
192
237
263
271
308
362
384
381
381
365
307
213
102
-11
-99
-153
-194
-230
-242
-227
-212
-213
-215
-207
-193
-184
-183
-181
-170
-156
-151
-152
-152
-153
-145
-130
-128
-136
-129
-116
-109
-95
-94
-119
-118
-83
-81
-100
-85
-64
-70
-70
-66
-77
-72
-62
-77
-68
-46
-81
-128
-276
-480
63
1502
2068
840
-389
-346
-12
-62
-71
11
-18
-33
9
16
19
39
41
49
71
79
87
116
141
148
167
212
246
256
263
279
291
297
293
257
178
78
-11
-84
-146
-183
-184
-177
-190
-205
-203
-201
-206
-200
-187
-182
-184
-181
-173
-164
-157
-157
-159
-155
-145
-141
-144
-141
-128
-123
-138
-149
-137
-127
-125
-103
-77
-82
-91
-86
-97
-100
-82
-86
-91
-72
-90
-127
-244
-494
-176
1184
2053
1030
-394
-494
-49
-38
-85
9
-1
-28
18
29
28
62
76
72
85
102
118
145
171
184
198
223
252
276
301
324
340
348
340
299
215
107
6
-80
-148
-191
-208
-214
-224
-228
-215
-202
-204
-212
-206
-197
-196
-197
-195
-194
-186
-171
-164
-166
-166
-163
-162
-155
-148
-155
-157
-139
-130
-136
-124
-105
-112
-117
-110
-115
-113
-99
-111
-115
-90
-98
-137
-270
-470
-35
1264
1796
532
-751
-583
-35
-25
-58
51
41
16
65
78
77
109
130
138
160
179
190
212
243
264
278
300
330
353
371
391
408
408
381
318
220
101
-10
-94
-152
-193
-214
-220
-220
-219
-217
-213
-205
-196
-189
-185
-180
-172
-168
-171
-175
-173
-166
-164
-168
-170
-161
-150
-155
-172
-173
-161
-157
-140
-110
-106
-119
-114
-109
-116
-106
-94
-86
-71
-79
-102
-198
-466
-333
869
1980
1299
-232
-603
-119
11
-69
6
28
-9
25
47
40
64
90
94
102
115
132
154
172
184
208
239
265
285
306
324
334
338
327
276
181
73
-26
-111
-177
-219
-239
-246
-245
-238
-229
-222
-220
-218
-212
-206
-203
-199
-191
-181
-178
-181
-180
-173
-168
-165
-160
-162
-174
-178
-171
-168
-156
-127
-113
-121
-121
-122
-129
-119
-111
-116
-102
-100
-125
-180
-408
-497
423
1851
1811
261
-628
-279
19
-62
-37
25
-4
12
49
52
75
102
104
121
147
160
174
195
213
236
266
288
309
335
355
364
370
367
329
244
134
31
-57
-136
-194
-221
-233
-240
-239
-235
-229
-220
-217
-217
-204
-189
-189
-188
-177
-177
-183
-176
-163
-159
-158
-151
-153
-165
-165
-151
-144
-141
-134
-128
-121
-112
-112
-112
-109
-113
-94
-71
-99
-123
-226
-498
-222
1115
1996
987
-455
-563
-75
-26
-68
28
18
-13
38
57
48
79
106
110
121
140
158
174
189
209
233
253
274
300
320
334
346
353
332
266
164
57
-40
-124
-184
-221
-240
-241
-232
-227
-222
-215
-211
-205
-195
-188
-184
-183
-178
-173
-173
-176
-168
-157
-157
-156
-148
-152
-168
-174
-168
-159
-141
-122
-118
-113
-105
-110
-111
-106
-115
-106
-87
-114
-129
-211
-496
-306
996
2035
1206
-278
-529
-77
-15
-85
1
11
-20
23
46
36
56
86
105
119
125
139
163
177
188
218
250
267
284
304
312
315
323
315
268
181
72
-26
-98
-156
-197
-206
-204
-218
-225
-208
-191
-184
-179
-177
-178
-177
-174
-169
-165
-165
-163
-158
-153
-147
-145
-151
-151
-139
-141
-159
-164
-154
-143
-128
-115
-117
-113
-103
-106
-101
-92
-99
-90
-82
-103
-129
-308
-520
107
1544
1914
562
-539
-329
38
-29
-38
43
16
9
51
56
65
92
100
109
136
157
166
180
203
224
245
268
291
308
326
348
364
365
343
280
175
63
-31
-113
-187
-230
-242
-244
-241
-230
-220
-214
-208
-203
-203
-206
-202
-194
-195
-201
-193
-180
-180
-186
-188
-184
-180
-176
-174
-176
-178
-177
-173
-162
-147
-142
-137
-119
-110
-113
-99
-86
-99
-82
-57
-85
-113
-243
-484
-55
1273
1783
522
-668
-455
33
-2
-32
65
42
23
74
84
87
113
117
123
154
171
179
205
230
243
255
274
300
328
342
348
362
375
352
274
165
55
-47
-137
-192
-210
-219
-227
-227
-224
-219
-206
-194
-190
-186
-177
-168
-169
-174
-168
-154
-150
-155
-153
-144
-144
-154
-158
-151
-150
-163
-169
-164
-155
-127
-99
-102
-114
-109
-114
-118
-102
-95
-93
-89
-109
-111
-208
-509
-288
1058
2104
1287
-163
-425
-23
6
-79
0
12
-25
5
30
31
51
69
74
90
115
134
147
160
180
201
223
246
264
275
295
314
314
303
266
175
61
-29
-102
-167
-200
-209
-220
-222
-209
-204
-205
-198
-190
-184
-172
-162
-160
-156
-150
-148
-146
-141
-134
-132
-137
-142
-136
-124
-128
-135
-128
-126
-145
-159
-149
-136
-128
-111
-93
-85
-86
-91
-94
-97
-100
-80
-64
-93
-110
-205
-485
-272
1002
1953
1081
-355
-546
-64
13
-56
16
26
7
52
66
59
84
104
113
132
142
152
180
204
215
237
275
304
318
335
356
368
367
348
297
205
88
-23
-114
-182
-222
-237
-241
-241
-240
-238
-234
-221
-200
-190
-192
-186
-170
-163
-165
-166
-166
-164
-159
-152
-147
-148
-154
-157
-148
-132
-129
-141
-144
-135
-125
-109
-91
-91
-92
-85
-92
-99
-89
-87
-81
-60
-71
-89
-172
-374
-122
948
1516
459
-786
-680
-65
25
-26
74
90
65
107
128
123
141
156
168
193
214
228
248
271
291
312
338
370
399
417
429
443
450
418
334
216
91
-30
-123
-180
-217
-241
-249
-247
-238
-223
-215
-213
-202
-192
-194
-193
-179
-170
-167
-164
-164
-163
-160
-163
-163
-156
-153
-160
-159
-147
-136
-138
-154
-163
-155
-150
-141
-109
-86
-94
-103
-105
-106
-96
-97
-103
-85
-90
-109
-144
-386
-499
391
1678
1470
-21
-679
-227
29
-67
-14
52
15
32
69
65
82
113
122
134
153
164
180
203
223
244
271
299
328
357
381
399
411
403
346
237
111
1
-88
-157
-204
-232
-245
-243
-235
-232
-232
-223
-208
-192
-182
-178
-178
-174
-166
-164
-165
-163
-157
-152
-154
-160
-153
-145
-153
-156
-137
-137
-166
-168
-141
-129
-117
-81
-65
-85
-101
-99
-90
-94
-118
-109
-68
-89
-104
-111
-390
-518
501
1913
1711
212
-479
-143
28
-69
-23
28
-3
14
44
42
56
77
87
108
132
147
162
175
187
212
244
269
289
314
341
358
360
347
301
204
86
-11
-89
-158
-204
-230
-243
-245
-245
-245
-234
-219
-214
-214
-206
-185
-171
-173
-172
-159
-154
-162
-158
-140
-134
-143
-147
-141
-135
-135
-138
-134
-114
-102
-120
-143
-140
-129
-124
-97
-58
-50
-67
-77
-83
-81
-71
-82
-89
-66
-73
-96
-185
-460
-323
905
2011
1322
-164
-514
-79
15
-65
6
22
-18
13
50
59
69
79
96
121
131
140
162
183
200
222
253
284
306
329
357
371
365
347
302
215
102
-5
-89
-152
-197
-222
-230
-233
-228
-222
-221
-216
-201
-189
-183
-179
-176
-169
-159
-154
-154
-147
-134
-129
-135
-133
-117
-110
-117
-115
-107
-108
-107
-103
-106
-105
-95
-90
-94
-102
-118
-128
-114
-98
-83
-48
-23
-40
-63
-67
-64
-58
-60
-70
-56
-53
-79
-134
-350
-416
475
1757
1564
38
-697
-259
42
-35
-3
53
25
46
72
60
81
113
120
136
159
168
181
203
219
241
270
294
317
347
368
375
383
386
352
270
159
46
-52
-131
-191
-231
-248
-252
-249
-243
-237
-230
-221
-213
-208
-200
-189
-182
-181
-181
-176
-169
-165
-163
-162
-159
-155
-155
-155
-149
-142
-139
-135
-128
-122
-118
-124
-139
-146
-135
-120
-111
-89
-55
-47
-68
-81
-80
-81
-79
-78
-70
-56
-71
-88
-153
-393
-313
733
1693
976
-482
-731
-134
48
-27
58
91
48
81
114
108
129
158
168
181
204
223
239
257
280
302
327
359
392
422
447
460
457
434
373
264
132
14
-78
-151
-206
-229
-229
-230
-235
-230
-219
-211
-206
-199
-192
-182
-170
-161
-162
-162
-155
-154
-159
-157
-150
-146
-147
-151
-150
-141
-139
-147
-142
-133
-137
-134
-121
-120
-138
-157
-157
-135
-120
-104
-65
-36
-53
-78
-83
-82
-81
-84
-78
-60
-73
-91
-137
-388
-461
495
1853
1754
313
-480
-210
-12
-92
-43
-1
-70
-51
40
55
17
5
24
51
95
143
151
140
141
136
167
246
266
227
249
316
330
300
284
239
101
-39
-57
-48
-127
-199
-200
-212
-226
-184
-181
-257
-256
-151
-106
-146
-159
-145
-147
-136
-115
-132
-161
-146
-112
-104
-112
-107
-94
-103
-133
-136
-100
-76
-79
-86
-87
-85
-83
-87
-95
-97
-85
-47
-5
-1
-29
-49
-59
-55
-40
-50
-57
-22
-17
-53
-138
-375
-283
821
1948
1431
-6
-472
-107
9
-51
12
14
-27
14
42
23
36
68
83
93
105
118
137
160
184
213
245
272
295
324
356
384
397
377
322
240
133
11
-91
-162
-219
-256
-264
-269
-272
-258
-246
-253
-251
-227
-210
-208
-208
-210
-208
-193
-175
-173
-180
-180
-176
-174
-176
-176
-166
-150
-142
-153
-168
-162
-145
-143
-140
-110
-84
-85
-91
-102
-123
-121
-104
-99
-91
-102
-127
-151
-308
-374
363
1419
1102
-407
-1018
-398
29
-26
16
99
70
81
129
135
148
176
191
208
229
245
266
295
321
348
380
418
461
500
527
543
545
514
432
303
153
16
-89
-164
-214
-240
-247
-246
-244
-242
-236
-229
-218
-200
-183
-174
-171
-168
-162
-155
-152
-149
-145
-144
-147
-148
-147
-147
-148
-142
-135
-151
-175
-166
-138
-133
-126
-99
-94
-115
-125
-126
-130
-133
-138
-123
-114
-139
-131
-237
-530
-208
1130
1841
718
-592
-534
-28
-14
-72
19
23
4
42
58
73
108
116
114
135
157
166
183
216
251
277
302
331
356
377
398
417
423
391
299
172
53
-50
-138
-197
-233
-258
-266
-258
-252
-250
-237
-224
-219
-211
-194
-180
-176
-178
-174
-162
-154
-156
-157
-141
-123
-122
-129
-129
-125
-118
-111
-126
-148
-137
-112
-115
-111
-73
-58
-80
-89
-86
-91
-90
-92
-88
-73
-90
-102
-159
-439
-421
693
1924
1468
-18
-526
-120
26
-58
2
30
-4
30
58
50
68
88
92
110
133
145
160
183
209
232
256
287
317
339
364
390
402
383
314
200
82
-14
-100
-179
-233
-258
-264
-261
-258
-250
-236
-227
-227
-223
-216
-213
-209
-199
-192
-188
-175
-162
-165
-168
-160
-154
-154
-146
-142
-144
-136
-122
-128
-152
-159
-144
-135
-123
-86
-59
-70
-87
-94
-94
-83
-85
-96
-69
-62
-92
-120
-326
-507
257
1697
1876
477
-479
-236
43
-39
-31
21
-20
-5
43
36
44
77
78
81
115
137
146
165
186
209
240
267
290
323
354
369
378
380
349
270
160
53
-42
-121
-172
-201
-223
-233
-228
-223
-219
-207
-193
-186
-180
-173
-165
-157
-151
-149
-148
-143
-137
-136
-140
-134
-115
-107
-116
-120
-112
-110
-115
-112
-107
-110
-118
-122
-123
-121
-112
-92
-70
-67
-75
-77
-87
-92
-77
-77
-87
-72
-73
-98
-174
-428
-420
587
1734
1282
-195
-686
-207
4
-71
-14
26
-4
28
58
53
75
103
111
122
139
162
192
207
213
251
303
323
337
383
425
430
433
428
358
236
119
16
-88
-171
-224
-256
-268
-267
-265
-253
-232
-222
-219
-202
-176
-165
-168
-166
-157
-151
-151
-152
-152
-146
-136
-132
-135
-137
-138
-133
-123
-127
-137
-120
-93
-99
-104
-76
-66
-91
-105
-110
-124
-119
-112
-121
-106
-93
-128
-183
-311
-294
494
1559
1219
-367
-1070
-489
-48
-69
2
95
62
71
116
114
121
148
163
182
212
235
256
280
307
339
374
408
449
498
535
552
555
528
442
304
170
74
-6
-95
-171
-220
-251
-264
-266
-276
-252
-168
-99
-92
-110
-133
-156
-156
-135
-123
-121
-120
-116
-115
-122
-130
-135
-140
-148
-161
-183
-196
-185
-180
-192
-180
-153
-163
-197
-211
-218
-220
-210
-217
-222
-194
-203
-249
-336
-506
-206
1004
1751
640
-884
-947
-299
-143
-159
-33
-9
-34
19
50
51
87
127
145
160
182
218
251
263
263
279
314
351
376
389
405
427
425
368
267
153
29
-89
-171
-221
-264
-294
-303
-300
-288
-272
-252
-220
-188
-175
-167
-160
-156
-131
-84
-56
-53
-48
