# session 27
210
227
120
193
584
891
869
765
741
709
665
654
631
595
583
564
518
488
464
398
324
286
248
206
190
160
117
112
76
3
-16
-53
209
1271
1964
617
-1459
-1763
-772
-266
-238
-128
-86
-124
-86
-56
-71
-64
-65
-84
-80
-70
-76
-77
-65
-51
-32
-2
34
78
127
171
205
221
208
166
94
-19
-160
-287
-373
-425
-457
-479
-493
-495
-485
-470
-449
-417
-385
-359
-335
-306
-271
-237
-215
-203
-194
-188
-178
-157
-132
-120
-120
-116
-102
-87
-74
-55
-40
-37
-26
5
23
18
28
41
14
-18
-15
-10
-17
-7
-5
-22
-13
-17
-47
-32
11
328
1282
1904
725
-1220
-1612
-667
-73
6
123
192
147
160
195
197
212
236
240
242
249
262
280
303
332
365
394
437
508
576
615
645
683
698
640
499
311
135
-6
-119
-205
-253
-272
-280
-284
-284
-281
-270
-247
-220
-201
-197
-210
-224
-226
-226
-237
-238
-213
-188
-188
-196
-194
-196
-211
-224
-232
-237
-230
-208
-194
-195
-182
-167
-188
-213
-202
-204
-240
-249
-235
-247
-247
-225
-223
-192
-140
-174
-196
-172
-148
478
1717
1649
-400
-1835
-1185
-211
-46
1
140
110
92
166
194
204
230
236
243
263
277
306
344
357
365
391
419
440
470
506
537
557
555
520
448
347
234
118
8
-81
-134
-157
-170
-182
-189
-183
-172
-166
-162
-154
-144
-138
-137
-134
-132
-136
-140
-137
-141
-150
-138
-117
-121
-133
-130
-129
-141
-141
-130
-128
-123
-104
-90
-88
-69
-42
-42
-47
-34
-47
-94
-114
-111
-125
-125
-114
-134
-127
-95
-145
-183
-175
-171
447
1732
1751
-277
-1801
-1248
-301
-131
-89
47
26
13
74
75
72
109
125
133
159
176
182
196
215
242
281
321
369
421
456
472
491
501
478
413
312
186
56
-62
-154
-215
-258
-288
-297
-293
-295
-298
-291
-280
-276
-275
-267
-250
-234
-228
-223
-203
-166
-131
-126
-149
-169
-177
-186
-191
-176
-148
-127
-115
-93
-61
-46
-42
-23
-6
-20
-36
-29
-24
-19
2
6
-18
-23
-12
-19
-16
-6
-27
-21
11
-38
-100
-126
-93
557
1741
1628
-367
-1786
-1223
-297
-95
-14
137
122
104
160
168
171
211
234
240
260
284
299
306
316
333
352
369
401
453
499
533
564
576
559
540
477
280
18
-150
-204
-223
-242
-254
-247
-238
-268
-310
-291
-238
-227
-247
-241
-207
-184
-179
-158
-127
-132
-152
-125
-79
-91
-129
-123
-101
-119
-158
-176
-166
-151
-142
-110
-72
-99
-146
-100
-19
-34
-98
-101
-82
-96
-95
-91
-141
-186
-182
-171
-145
-133
-188
-214
-242
-164
693
1901
1431
-709
-1787
-1012
-243
-165
-93
11
-28
-21
32
38
69
107
90
80
117
168
198
201
216
273
319
341
407
504
563
601
631
603
524
433
308
148
7
-98
-184
-240
-254
-263
-295
-314
-299
-286
-286
-277
-257
-245
-250
-250
-232
-220
-227
-221
-188
-159
-160
-167
-129
-70
-72
-125
-138
-108
-91
-76
-51
-58
-70
-21
43
44
22
32
46
47
83
129
97
26
44
98
58
-11
5
48
52
52
35
-9
7
38
-37
-97
-45
232
1092
1923
1146
-823
-1625
-871
-210
-117
-13
90
51
49
98
104
119
153
155
152
165
170
190
247
293
305
306
313
327
343
375
410
411
386
362
311
211
90
-20
-111
-189
-248
-264
-264
-294
-320
-312
-311
-331
-325
-293
-279
-270
-236
-194
-167
-150
-138
-128
-106
-81
-76
-80
-65
-55
-78
-95
-84
-81
-97
-103
-107
-131
-151
-141
-148
-214
-235
-121
16
39
-14
-55
-59
-35
-28
-59
-73
-52
-60
-102
-118
-120
-133
-121
-108
-140
-149
-145
-210
-263
-289
-140
778
1950
1456
-594
-1615
-933
-260
-173
-74
30
3
32
95
89
86
114
137
166
193
208
234
268
294
326
369
412
451
487
517
544
573
594
582
520
409
276
154
56
-22
-86
-130
-150
-158
-168
-171
-157
-144
-152
-163
-158
-157
-170
-177
-178
-190
-206
-219
-240
-253
-240
-214
-188
-158
-134
-125
-120
-124
-144
-168
-174
-166
-155
-144
-128
-103
-79
-72
-75
-73
-81
-95
-78
-57
-92
-139
-145
-147
-157
-143
-143
-160
-125
-110
-164
-193
-219
52
1169
2133
1132
-925
-1500
-671
-139
-68
72
152
128
169
214
215
236
268
287
314
344
360
366
386
426
458
477
507
548
582
606
615
609
595
548
454
340
217
77
-42
-118
-177
-227
-262
-289
-298
-287
-286
-297
-294
-287
-292
-297
-292
-290
-295
-297
-297
-302
-310
-328
-359
-364
-335
-325
-344
-337
-310
-308
-331
-354
-362
-355
-357
-368
-375
-371
-355
-344
-340
-313
-270
-240
-158
-23
2
-129
-247
-265
-204
-92
-42
-69
-66
-70
287
1568
2548
1303
-947
-1442
-514
-83
-172
-130
-120
-150
-10
119
101
91
161
228
258
288
332
363
364
362
379
416
477
557
632
678
711
759
784
706
532
353
208
72
-54
-133
-168
-197
-230
-248
-242
-233
-239
-241
-230
-225
-230
-227
-216
-207
-212
-237
-251
-229
-228
-265
-276
-267
-279
-274
-253
-270
-284
-254
-218
-179
-132
-124
-137
-125
-132
-171
-170
-144
-152
-144
-101
-114
-154
-133
-121
-150
-175
-195
252
1454
1962
455
-1382
-1431
-504
-92
-18
112
141
125
177
208
219
251
276
306
346
362
377
422
468
491
522
593
670
708
734
797
855
852
811
755
657
517
379
256
143
75
71
61
-17
-104
-140
-153
-159
-160
-202
-268
-286
-285
-330
-375
-375
-380
-409
-428
-435
-453
-467
-461
-462
-478
-485
-470
-453
-454
-458
-436
-409
-409
-406
-379
-381
-417
-422
-408
-416
-411
-393
-403
-387
-347
-379
-415
-429
-377
381
1748
1741
-288
-1804
-1352
-531
-380
-304
-154
-164
-162
-88
-68
-57
-20
0
28
88
158
257
376
441
434
441
512
620
730
807
835
849
876
868
793
694
597
484
372
297
263
250
242
235
237
246
249
240
230
222
214
196
148
64
-25
-89
-140
-199
-259
-303
-339
-376
-407
-425
-442
-468
-481
-481
-503
-538
-540
-531
-567
-613
-624
-639
-669
-644
-547
-421
-295
-234
-229
-218
-276
-34
1170
2296
1355
-776
-1413
-581
-62
-21
120
203
164
199
253
266
296
316
327
351
316
201
93
19
-3
73
192
257
317
439
565
644
697
715
663
550
404
248
102
-16
-100
-150
-178
-193
-194
-183
-177
-172
-159
-143
-136
-133
-131
-128
-122
-117
-117
-117
-116
-116
-117
-115
-108
-97
-94
-98
-87
-62
-57
-71
-58
-31
-45
-80
-86
-85
-93
-79
-72
-90
-63
-43
-96
-124
-214
-162
922
2422
1911
-457
-1618
-918
-348
-390
-316
-222
-274
-270
-259
-293
-260
-194
-152
-90
-19
30
81
140
193
254
327
397
469
542
605
662
722
754
713
598
448
297
156
38
-52
-106
-130
-169
-268
-398
-497
-563
-618
-664
-697
-724
-741
-755
-774
-791
-799
-804
-809
-812
-811
-796
-763
-720
-664
-580
-473
-348
-210
-99
-46
-10
41
79
108
154
186
212
265
277
264
259
170
510
1890
2883
1591
-549
-914
-16
409
448
602
660
631
684
719
719
737
686
559
458
386
321
322
383
404
373
366
396
429
460
494
521
529
502
412
254
69
-106
-257
-372
-447
-491
-515
-523
-522
-517
-511
-503
-491
-475
-460
-448
-435
-424
-415
-407
-402
-396
-386
-377
-374
-362
-337
-322
-324
-309
-275
-267
-276
-248
-217
-242
-274
-265
-261
-267
-241
-233
-247
-206
-191
-246
-271
-372
-224
1026
2393
1522
-837
-1629
-738
-184
-185
-59
29
-16
25
77
69
92
126
133
152
182
202
228
261
292
326
372
427
484
542
594
635
662
662
609
501
362
220
92
-15
-100
-155
-179
-188
-193
-192
-186
-182
-174
-162
-151
-146
-143
-136
-131
-131
-132
-131
-132
-132
-127
-126
-128
-118
-102
-101
-100
-78
-63
-69
-56
-38
-63
-100
-98
-99
-118
-106
-101
-124
-98
-81
-136
-157
-253
-197
938
2432
1800
-619
-1651
-800
-164
-166
-58
45
-7
19
73
58
68
99
106
119
145
164
183
211
245
278
310
356
421
490
548
590
612
606
551
426
257
88
-67
-202
-298
-352
-379
-397
-398
-367
-303
-224
-150
-103
-102
-128
-156
-187
-223
-245
-255
-268
-280
-286
-292
-299
-293
-283
-287
-295
-283
-273
-288
-292
-271
-278
-314
-330
-332
-338
-326
-316
-312
-260
-207
-211
-203
-257
-190
769
2139
1797
-296
-1447
-804
-111
-44
39
174
155
125
113
64
42
46
31
28
45
52
56
75
100
126
157
203
263
320
365
402
433
430
364
238
90
-38
-118
-146
-148
-151
-147
-111
-58
-22
7
52
100
127
142
162
189
223
257
270
261
249
239
232
238
251
252
237
199
121
34
-10
-32
-81
-127
-138
-163
-218
-250
-262
-288
-296
-288
-314
-317
-285
-318
-347
-384
-479
118
1636
2001
37
-1745
-1401
-472
-289
-252
-100
-108
-122
-56
-46
-40
5
21
31
67
96
117
152
189
226
276
334
399
469
528
569
606
630
607
519
384
228
76
-50
-139
-197
-232
-252
-259
-254
-239
-226
-218
-206
-189
-175
-166
-155
-141
-132
-128
-123
-117
-113
-109
-108
-108
-103
-94
-93
-97
-93
-87
-89
-83
-64
-55
-59
-42
-15
-16
-21
2
4
-35
-55
-55
-73
-75
-65
-90
-85
-50
-96
-133
-156
-228
403
1930
2214
154
-1604
-1201
-301
-137
-32
156
96
32
88
86
64
88
93
85
97
105
109
125
143
161
191
230
269
310
353
390
414
417
387
309
179
22
-129
-263
-375
-453
-497
-530
-554
-560
-559
-558
-553
-550
-551
-550
-544
-542
-542
-543
-543
-545
-550
-552
-545
-537
-539
-548
-558
-565
-565
-568
-562
-484
-330
-179
-69
28
120
181
222
278
348
390
404
437
477
470
444
449
458
464
486
480
475
522
512
454
446
360
629
1951
2948
1619
-571
-885
79
485
489
629
663
615
670
709
692
699
711
682
596
467
356
288
240
209
197
192
196
213
234
252
267
266
239
177
71
-68
-210
-337
-444
-525
-578
-609
-625
-629
-627
-620
-607
-592
-578
-564
-551
-538
-524
-511
-503
-494
-483
-474
-466
-459
-452
-442
-431
-423
-415
-408
-398
-385
-371
-361
-349
-336
-320
-296
-276
-271
-253
-213
-196
-197
-166
-135
-162
-191
-181
-181
-183
-155
-156
-160
-112
-120
-166
-165
-228
139
1505
2301
749
-1347
-1434
-432
-77
-58
95
117
81
149
181
170
201
230
239
265
293
313
334
361
393
429
466
508
557
606
650
681
691
673
619
517
384
251
130
25
-54
-106
-138
-157
-161
-156
-149
-144
-136
-125
-114
-110
-105
-99
-95
-96
-95
-94
-95
-99
-101
-101
-103
-111
-118
-115
-108
-108
-112
-115
-118
-115
-107
-107
-113
-107
-96
-95
-86
-60
-54
-63
-40
-16
-50
-96
-101
-105
-115
-104
-115
-125
-91
-105
-151
-157
-200
215
1541
2216
642
-1368
-1444
-515
-188
-154
4
29
-8
48
74
68
99
118
124
153
182
198
220
250
284
324
364
407
461
521
572
607
627
617
552
428
272
115
-31
-150
-232
-286
-319
-338
-351
-354
-342
-330
-324
-317
-303
-284
-270
-263
-256
-246
-239
-235
-231
-226
-223
-222
-221
-218
-212
-206
-204
-199
-180
-163
-167
-162
-133
-121
-133
-120
-98
-118
-151
-153
-151
-155
-145
-147
-150
-128
-132
-156
-180
-247
106
1302
2005
679
-1255
-1501
-611
-169
-107
27
71
46
94
125
118
143
168
177
201
231
252
280
315
349
390
446
513
581
641
697
747
772
748
661
516
336
156
2
-117
-201
-248
-269
-283
-295
-297
-284
-268
-264
-263
-250
-234
-228
-220
-206
-200
-200
-197
-191
-186
-185
-188
-188
-182
-177
-178
-181
-181
-167
-149
-150
-148
-117
-94
-110
-112
-87
-97
-136
-147
-147
-157
-147
-136
-147
-129
-116
-150
-166
-217
-86
878
1987
1280
-855
-1731
-899
-194
-116
-23
74
42
61
108
107
123
158
172
190
212
230
254
286
318
359
408
465
528
591
647
695
730
735
684
561
390
216
62
-70
-169
-228
-262
-287
-299
-298
-291
-283
-272
-262
-252
-238
-227
-223
-218
-210
-206
-202
-199
-200
-199
-192
-191
-193
-190
-184
-182
-180
-176
-168
-157
-148
-143
-127
-105
-102
-102
-88
-91
-120
-135
-134
-146
-145
-130
-138
-130
-103
-131
-153
-172
-158
510
1783
1786
-172
-1675
-1217
-329
-133
-72
66
60
51
104
113
122
158
173
187
216
234
255
290
323
354
396
452
510
566
621
673
710
721
692
597
439
261
98
-45
-158
-232
-275
-300
-315
-321
-316
-309
-304
-295
-279
-268
-260
-250
-245
-245
-235
-226
-228
-228
-223
-226
-228
-226
-228
-218
-195
-196
-217
-211
-187
-185
-184
-156
-136
-143
-133
-109
-127
-170
-178
-173
-184
-176
-166
-178
-159
-139
-180
-208
-262
-159
791
2025
1494
-641
-1666
-925
-228
-153
-58
49
17
37
95
98
111
144
161
180
206
227
256
290
321
357
403
457
518
580
630
666
691
691
643
539
395
239
95
-25
-117
-176
-205
-220
-228
-229
-224
-216
-207
-200
-190
-176
-162
-156
-152
-145
-140
-139
-137
-132
-129
-130
-130
-128
-129
-131
-128
-123
-117
-107
-102
-104
-89
-63
-60
-60
-40
-43
-82
-96
-85
-100
-109
-94
-107
-112
-82
-114
-151
-176
-253
276
1726
2203
383
-1466
-1279
-386
-183
-156
-3
-6
-38
15
26
17
43
55
62
84
98
106
128
155
185
219
258
309
370
421
456
484
498
466
360
192
-1
