# session 28
123
121
79
29
221
716
1123
1212
1197
1220
1202
1160
1165
1167
1129
1098
1091
1085
1082
1084
1069
1056
1073
1099
1112
1128
1151
1176
1206
1227
1206
1128
985
791
591
411
241
96
3
-63
-123
-157
-169
-190
-210
-201
-182
-184
-197
-202
-208
-224
-237
-234
-228
-236
-256
-280
-300
-319
-336
-339
-325
-316
-332
-348
-347
-363
-401
-415
-418
-455
-491
-500
-521
-533
-511
-505
-508
-497
-504
-486
-469
-487
-7
1118
1338
-321
-1951
-1776
-850
-482
-363
-173
-121
-135
-88
-64
-58
-23
3
23
60
88
104
138
192
256
330
412
493
563
623
687
754
793
765
650
470
284
133
18
-67
-122
-152
-164
-169
-175
-177
-171
-167
-162
-137
-111
-113
-129
-126
-109
-89
-68
-62
-86
-116
-122
-125
-139
-140
-114
-81
-60
-58
-48
-12
8
-1
18
56
47
21
29
50
59
51
61
126
175
183
232
192
147
766
1695
1138
-1006
-2376
-1917
-994
-535
-291
-149
-127
-79
-38
-74
-82
-34
-3
16
49
87
150
248
331
379
420
458
489
535
609
670
687
666
593
445
255
86
-58
-221
-414
-562
-579
-488
-387
-320
-260
-186
-125
-134
-187
-183
-112
-53
-23
2
5
-24
-63
-94
-103
-90
-98
-140
-153
-129
-127
-120
-56
-8
-30
-59
-53
-16
57
124
155
180
190
160
131
133
138
147
153
130
121
124
62
19
24
10
463
1524
1613
-188
-1779
-1400
-369
-71
-59
44
35
1
37
28
7
31
38
20
24
49
75
103
137
177
224
285
363
448
521
568
598
625
624
548
395
210
34
-117
-235
-312
-351
-363
-354
-332
-315
-307
-296
-293
-300
-295
-279
-273
-270
-256
-245
-251
-263
-266
-262
-255
-241
-225
-220
-212
-187
-164
-154
-146
-145
-144
-117
-84
-74
-54
-11
7
9
28
25
-14
-23
-10
-18
-14
-2
-31
-33
-4
-40
-62
-75
-74
601
1871
1753
-322
-1734
-1106
-191
-50
-5
128
109
102
156
145
136
167
179
189
216
235
247
266
289
326
376
422
468
526
586
628
650
658
634
544
388
214
58
-78
-192
-273
-317
-337
-347
-350
-343
-335
-324
-305
-285
-280
-283
-283
-277
-268
-258
-256
-257
-257
-256
-251
-248
-253
-258
-251
-247
-255
-261
-257
-245
-225
-204
-198
-190
-157
-126
-124
-107
-69
-76
-121
-132
-121
-125
-118
-114
-126
-96
-75
-116
-117
-156
-83
847
2037
1361
-864
-1749
-821
-111
-112
-48
57
29
57
108
104
137
189
202
222
254
272
298
336
363
391
439
494
551
620
692
747
780
787
744
636
478
307
152
24
-72
-135
-170
-184
-183
-178
-180
-185
-186
-183
-183
-185
-184
-184
-188
-191
-191
-191
-192
-198
-209
-216
-212
-206
-207
-208
-205
-200
-189
-183
-184
-174
-160
-165
-167
-143
-136
-166
-187
-195
-211
-210
-195
-198
-194
-186
-207
-206
-221
-159
506
1464
1082
-767
-1822
-1171
-350
-167
-69
68
61
63
114
119
131
166
176
192
236
262
279
325
373
398
434
496
560
620
680
730
761
765
716
598
428
242
72
-60
-154
-220
-258
-275
-283
-286
-280
-269
-261
-254
-242
-223
-209
-210
-218
-216
-207
-200
-193
-186
-187
-197
-201
-197
-196
-199
-193
-174
-164
-169
-146
-98
-88
-104
-88
-80
-125
-157
-154
-164
-165
-146
-162
-161
-120
-149
-179
-164
-236
142
1379
1820
116
-1664
-1409
-372
-77
-66
69
81
64
131
143
129
166
194
201
225
249
262
282
311
340
371
410
459
515
566
606
634
647
628
553
418
258
108
-26
-132
-198
-233
-259
-271
-263
-247
-236
-229
-220
-212
-205
-200
-196
-191
-188
-187
-183
-176
-172
-172
-173
-169
-161
-156
-152
-147
-145
-138
-120
-109
-108
-84
-43
-36
-49
-32
-23
-64
-98
-101
-111
-109
-90
-106
-110
-79
-109
-131
-117
-165
289
1501
1721
-145
-1818
-1417
-391
-133
-104
44
64
34
39
16
37
101
124
137
172
192
211
253
291
307
327
374
431
483
531
574
601
613
598
532
407
254
105
-19
-108
-171
-211
-227
-243
-266
-256
-236
-282
-355
-350
-287
-252
-243
-226
-211
-203
-189
-171
-171
-176
-173
-189
-219
-218
-190
-176
-162
-137
-127
-121
-87
-62
-73
-68
-44
-64
-107
-114
-112
-118
-102
-106
-122
-87
-83
-131
-110
-158
-41
981
1987
943
-1226
-1697
-633
-47
-57
48
120
74
112
157
142
157
190
200
216
239
255
274
300
325
349
379
417
463
505
535
550
559
552
502
404
282
152
23
-83
-155
-204
-237
-252
-253
-250
-245
-240
-237
-231
-221
-215
-212
-204
-201
-203
-206
-208
-210
-204
-196
-193
-190
-182
-178
-177
-167
-150
-147
-146
-117
-89
-95
-94
-68
-82
-130
-143
-143
-160
-154
-149
-160
-133
-127
-170
-160
-199
-89
872
1883
958
-1172
-1747
-743
-120
-103
5
86
39
69
116
108
129
166
174
188
212
229
252
286
317
345
378
418
463
513
559
588
606
608
564
458
319
181
53
-55
-133
-184
-220
-239
-240
-232
-223
-214
-209
-205
-199
-192
-188
-187
-186
-187
-188
-184
-182
-187
-196
-194
-187
-190
-189
-171
-161
-163
-146
-120
-120
-119
-95
-101
-139
-153
-153
-165
-158
-149
-160
-138
-122
-164
-162
-159
-64
718
1715
1092
-955
-1843
-994
-228
-131
-32
87
59
71
126
125
134
169
188
208
241
267
290
316
345
381
425
474
527
581
628
663
683
672
609
490
332
168
23
-93
-181
-239
-268
-278
-285
-286
-277
-267
-260
-253
-243
-233
-224
-215
-206
-200
-197
-196
-197
-198
-197
-197
-200
-198
-182
-166
-167
-163
-135
-120
-128
-114
-94
-122
-157
-158
-163
-170
-153
-158
-162
-127
-146
-180
-154
-212
63
1236
1945
518
-1443
-1515
-504
-117
-107
39
79
38
85
114
108
138
163
170
196
224
237
258
293
330
371
420
475
534
591
636
667
682
659
573
430
262
102
-33
-135
-205
-248
-268
-273
-273
-274
-276
-283
-291
-290
-280
-265
-244
-228
-221
-213
-201
-197
-201
-197
-189
-189
-191
-182
-166
-162
-161
-144
-131
-151
-161
-132
-121
-150
-162
-163
-180
-172
-154
-166
-146
-123
-169
-171
-204
-242
548
1952
1713
-502
-1774
-1002
-166
-109
-60
66
39
47
104
104
120
155
158
172
209
233
252
280
307
339
390
452
512
570
625
669
695
694
638
514
346
176
25
-95
-181
-239
-273
-288
-297
-302
-295
-281
-271
-264
-257
-249
-233
-219
-217
-218
-215
-210
-206
-204
-204
-204
-202
-199
-196
-187
-171
-160
-157
-143
-123
-125
-123
-98
-100
-136
-148
-148
-158
-149
-142
-157
-140
-134
-171
-169
-226
-122
873
2015
1241
-928
-1707
-815
-167
-132
-24
77
40
64
113
109
128
164
177
197
223
239
265
300
334
377
433
492
552
616
677
722
746
733
654
506
321
141
-10
-130
-216
-266
-290
-307
-316
-316
-310
-301
-287
-273
-262
-251
-241
-231
-217
-205
-198
-194
-188
-184
-186
-189
-191
-193
-196
-194
-190
-186
-184
-173
-160
-160
-160
-137
-114
-117
-107
-77
-85
-125
-138
-137
-147
-139
-139
-145
-114
-116
-164
-163
-266
-191
931
2245
1454
-835
-1630
-716
-111
-115
-11
80
37
69
119
107
122
156
166
184
211
229
252
281
312
352
402
454
514
578
635
678
706
702
635
499
329
158
9
-107
-191
-247
-279
-293
-299
-298
-294
-289
-279
-264
-251
-237
-224
-216
-211
-203
-196
-194
-195
-195
-192
-187
-186
-186
-185
-181
-178
-177
-174
-168
-162
-157
-155
-153
-149
-145
-140
-133
-125
-123
-116
-100
-94
-97
-73
-38
-51
-89
-99
-103
-106
-94
-107
-115
-81
-104
-145
-153
-279
46
1476
2382
863
-1269
-1389
-410
-91
-103
44
70
32
90
115
104
136
160
167
191
212
229
257
285
313
355
407
463
527
594
653
701
731
723
651
511
337
167
17
-106
-191
-244
-273
-288
-295
-299
-302
-299
-288
-274
-264
-253
-240
-228
-218
-207
-197
-195
-194
-189
-186
-186
-185
-183
-182
-182
-179
-180
-181
-177
-173
-177
-180
-175
-168
-164
-158
-150
-146
-143
-133
-121
-119
-120
-104
-87
-91
-81
-49
-49
-83
-97
-98
-105
-100
-100
-105
-82
-92
-128
-134
-200
64
1239
2118
905
-1148
-1489
-552
-105
-95
44
105
59
100
144
138
159
189
201
220
246
268
294
323
353
393
442
498
564
631
688
732
763
761
693
554
374
192
33
-96
-187
-242
-276
-298
-309
-310
-306
-302
-296
-284
-270
-256
-240
-221
-209
-203
-196
-190
-187
-187
-184
-183
-185
-185
-183
-185
-189
-189
-187
-186
-182
-179
-177
-174
-172
-170
-166
-162
-158
-154
-151
-145
-138
-132
-126
-122
-119
-106
-88
-87
-85
-54
-38
-70
-96
-99
-110
-106
-94
-111
-95
-68
-113
-128
-174
-230
561
2088
2040
-150
-1583
-940
-131
-86
-40
96
62
62
125
121
122
159
171
181
208
228
249
279
309
341
386
440
497
563
635
694
734
756
735
644
498
330
157
-6
-130
-205
-247
-273
-287
-290
-292
-294
-289
-278
-271
-267
-258
-241
-225
-216
-208
-197
-188
-187
-185
-178
-176
-180
-182
-176
-170
-173
-181
-182
-175
-169
-168
-167
-163
-157
-152
-149
-147
-141
-138
-140
-136
-129
-129
-128
-112
-102
-109
-102
-79
-83
-91
-63
-43
-71
-99
-105
-116
-111
-101
-116
-106
-85
-122
-137
-164
-113
704
1969
1647
-444
-1625
-941
-189
-118
-40
86
53
60
121
119
126
165
179
191
223
247
267
297
331
366
415
472
535
610
683
736
782
793
709
593
531
426
185
-47
-136
-177
-255
-308
-311
-321
-343
-335
-304
-281
-271
-257
-242
-234
-231
-225
-215
-210
-208
-192
-159
-146
-171
-195
-184
-168
-192
-218
-183
-134
-142
-175
-179
-172
-170
-174
-186
-175
-143
-144
-165
-150
-125
-133
-144
-120
-89
-94
-104
-70
-42
-74
-107
-104
-105
-103
-96
-121
-120
-85
-123
-144
-151
-244
318
1858
2309
371
-1461
-1157
-253
-104
-81
76
60
39
105
104
93
133
147
149
184
219
240
263
286
310
350
406
468
531
598
660
707
735
730
653
501
331
172
13
-128
-214
-255
-284
-307
-317
-318
-310
-301
-301
-297
-278
-266
-267
-257
-230
-209
-211
-216
-203
-190
-203
-217
-204
-186
-182
-184
-196
-198
-173
-156
-168
-173
-160
-159
-161
-155
-156
-155
-136
-127
-139
-131
-102
-96
-106
-85
-49
-53
-85
-103
-114
-112
-93
-105
-114
-74
-86
-130
-144
-251
72
1470
2410
974
-1184
-1418
-480
-121
-109
36
63
27
84
104
87
118
143
148
174
205
222
240
270
306
349
399
461
530
596
656
717
765
762
691
563
393
203
35
-98
-201
-265
-296
-322
-339
-332
-327
-334
-324
-304
-301
-294
-273
-267
-264
-245
-232
-233
-227
-222
-227
-217
-194
-184
-187
-192
-192
-186
-183
-179
-164
-157
-162
-142
-113
-115
-116
-95
-101
-131
-135
-132
-145
-143
-135
-135
-117
-118
-144
-153
-190
63
1108
1960
938
-1052
-1583
-736
-186
-119
7
83
49
80
119
113
135
166
172
186
213
240
269
298
327
374
436
500
569
649
727
790
831
828
748
589
390
192
14
-129
-227
-285
-318
-331
-330
-332
-334
-326
-314
-305
-294
-281
-268
-257
-249
-240
-224
-213
-213
-214
-207
-199
-195
-190
-186
-186
-184
-179
-178
-178
-172
-164
-161
-146
-119
-111
-123
-114
-97
-116
-143
-147
-152
-156
-148
-150
-145
-131
-157
-161
-166
-243
173
1401
1893
376
-1377
-1357
-472
-129
-77
51
70
42
89
113
116
147
168
180
209
232
246
275
302
326
374
438
499
565
636
699
757
803
805
729
573
379
193
29
-104
-196
-248
-274
-285
-290
-294
-290
-279
-273
-268
-256
-243
-233
-227
-223
-218
-211
-210
-208
-203
-202
-202
-194
-190
-198
-203
-196
-184
-172
-167
-159
-135
-113
-119
-125
-116
-125
-150
-156
-157
-159
-149
-150
-147
-119
-133
-157
-159
-242
55
1250
1994
645
-1324
-1521
-569
-131
-89
43
77
39
86
115
106
132
156
162
185
210
223
245
277
309
347
400
461
528
596
658
708
743
746
675
524
338
157
-11
-150
-241
-291
-322
-338
-339
-334
-330
-321
-307
-299
-294
-282
-267
-260
-259
-252
-237
-224
-223
-225
-218
-211
-212
-210
-198
-193
-193
-180
-159
-158
-151
-119
-109
-127
-112
-85
-111
-149
-151
-155
-164
-150
-154
-160
-128
-140
-173
-171
-248
45
1265
2040
656
-1356
-1527
-551
-137
-117
13
51
24
78
107
103
134
156
161
180
202
225
254
278
304
344
388
435
497
560
611
655
688
689
631
508
349
192
43
-84
-166
-213
-240
-250
-258
-280
-291
-270
-240
-219
-204
-191
-181
-177
-173
-162
-151
-151
-151
-147
-144
-141
-138
-133
-127
-124
-123
-110
-95
-92
-74
-42
-40
-51
-29
-18
-58
-85
-79
-87
-89
-75
-89
-79
-44
-88
-111
-113
-183
392
1798
1994
-11
-1626
-1119
-187
-52
-27
121
98
72
132
138
135
172
187
188
212
237
252
264
281
305
332
364
405
449
487
512
529
540
522
451
337
199
47
-92
-182
-234
-278
-307
-313
-311
-312
-308
-299
-291
-286
-279
-276
-276
-274
-274
-279
-280
-280
-277
-269
-271
-279
-275
-264
-264
-263
-252
-239
-231
-224
-210
-192
-189
-191
-167
-156
-194
-223
-222
-238
-249
-238
-254
-260
-242
-297
-338
-338
-422
41
1412
1840
42
-1693
-1371
-414
-193
-152
-1
-7
-21
51
70
78
127
152
164
194
223
255
294
323
351
393
443
493
547
601
649
688
714
716
679
599
496
393
297
211
153
129
122
126
144
