# session 40
49
38
86
-27
-284
-376
-296
-256
-256
-224
-198
-184
-154
-130
-113
-80
-43
-25
-15
11
55
97
130
172
232
288
333
383
430
446
414
330
204
66
-53
-143
-204
-237
-256
-273
-276
-261
-250
-244
-232
-218
-210
-201
-200
-195
-172
-155
-164
-167
-153
-148
-154
-151
-138
-127
-126
-125
-115
-111
-121
-116
-95
-79
-58
-26
-26
-60
-75
-66
-69
-72
-58
-64
-73
-40
-39
-85
-122
-237
-118
847
1828
1188
-378
-822
-271
-31
-77
13
54
14
44
74
67
84
103
104
119
140
155
172
191
210
237
270
307
352
404
452
485
509
524
500
415
289
151
18
-87
-153
-196
-231
-246
-243
-238
-233
-223
-215
-208
-200
-200
-203
-195
-183
-176
-169
-168
-172
-169
-163
-164
-163
-155
-149
-148
-150
-148
-137
-134
-148
-151
-135
-125
-106
-71
-70
-109
-125
-112
-118
-128
-109
-105
-125
-105
-93
-130
-162
-259
-163
734
1723
1169
-399
-919
-367
-73
-113
-30
24
-22
-7
30
31
45
66
74
87
108
127
145
166
188
212
240
279
323
366
407
445
476
493
475
402
285
157
38
-64
-139
-185
-211
-224
-231
-232
-225
-217
-209
-200
-192
-186
-180
-174
-170
-166
-162
-161
-158
-153
-148
-144
-141
-139
-135
-131
-129
-127
-122
-115
-108
-102
-106
-118
-118
-101
-90
-80
-54
-41
-65
-87
-82
-83
-94
-84
-80
-94
-77
-68
-111
-141
-222
-184
620
1712
1364
-255
-983
-446
-56
-91
-23
52
9
20
61
60
71
94
100
114
135
148
163
188
211
238
276
314
349
396
447
489
524
550
539
466
336
186
52
-58
-139
-188
-221
-243
-246
-248
-252
-239
-221
-219
-216
-208
-200
-181
-165
-175
-189
-183
-173
-165
-151
-149
-163
-165
-159
-164
-159
-137
-132
-151
-159
-144
-128
-128
-127
-102
-73
-81
-110
-119
-119
-127
-113
-101
-122
-111
-80
-117
-155
-195
-234
283
1362
1461
25
-1052
-704
-141
-86
-65
22
11
22
67
62
68
99
109
125
154
162
172
205
235
255
282
323
374
424
465
508
556
583
560
478
349
198
55
-63
-152
-208
-232
-240
-248
-253
-250
-245
-239
-230
-218
-204
-194
-195
-191
-174
-169
-178
-175
-158
-155
-160
-152
-140
-144
-152
-146
-135
-134
-131
-123
-122
-130
-134
-127
-114
-106
-105
-90
-65
-63
-82
-91
-95
-100
-88
-79
-89
-74
-62
-100
-115
-184
-269
311
1524
1681
236
-842
-523
-46
-56
-38
58
35
30
67
61
70
96
95
108
138
143
149
177
200
219
253
289
325
376
429
467
504
534
527
467
354
202
53
-62
-147
-207
-239
-252
-255
-257
-254
-245
-235
-232
-229
-219
-208
-199
-189
-182
-183
-186
-188
-186
-174
-164
-165
-167
-165
-168
-166
-155
-153
-156
-146
-140
-150
-147
-129
-129
-130
-101
-76
-89
-108
-107
-110
-116
-97
-86
-108
-103
-80
-107
-132
-207
-299
243
1449
1680
273
-872
-601
-86
-65
-54
46
27
12
53
63
68
87
98
117
139
143
153
182
208
227
258
305
352
394
435
482
526
551
545
487
365
209
70
-38
-132
-201
-226
-231
-241
-246
-237
-233
-238
-232
-212
-197
-193
-188
-178
-172
-177
-177
-169
-164
-165
-160
-149
-145
-149
-154
-154
-149
-141
-137
-135
-123
-107
-114
-135
-135
-117
-113
-108
-72
-42
-64
-96
-95
-89
-95
-90
-83
-85
-71
-73
-108
-121
-213
-276
378
1546
1537
59
-884
-497
-47
-60
-31
54
31
33
65
60
71
98
102
115
138
149
165
187
200
217
256
300
340
384
433
478
513
536
529
466
348
206
68
-52
-139
-194
-230
-248
-248
-242
-240
-231
-218
-214
-213
-202
-190
-189
-193
-190
-177
-166
-164
-168
-166
-161
-167
-173
-163
-152
-155
-156
-149
-146
-139
-126
-130
-138
-125
-117
-130
-126
-109
-112
-99
-57
-51
-84
-89
-76
-90
-103
-93
-94
-87
-60
-80
-113
-156
-267
31
1100
1696
642
-712
-736
-153
-24
-55
35
39
15
59
73
66
91
112
118
135
153
163
182
209
230
253
286
322
355
396
444
483
512
528
502
410
267
118
-2
-92
-161
-205
-225
-237
-236
-222
-219
-224
-212
-194
-186
-176
-168
-174
-173
-161
-163
-172
-166
-152
-146
-149
-152
-147
-136
-134
-141
-142
-130
-123
-129
-131
-121
-116
-111
-103
-110
-123
-116
-99
-94
-77
-48
-43
-67
-84
-90
-97
-92
-85
-102
-97
-61
-79
-113
-148
-252
52
1108
1636
519
-797
-740
-145
-35
-56
41
39
19
65
68
56
90
114
114
133
154
160
174
208
237
246
263
304
350
392
438
478
503
515
490
404
279
154
41
-59
-138
-191
-222
-231
-225
-220
-221
-215
-205
-200
-200
-196
-188
-181
-177
-180
-186
-181
-172
-175
-177
-165
-156
-159
-154
-145
-151
-155
-144
-140
-149
-140
-123
-121
-110
-83
-88
-119
-125
-115
-123
-123
-111
-117
-112
-96
-117
-146
-188
-117
522
1385
1061
-432
-1195
-662
-133
-91
-37
61
50
49
81
86
96
118
129
150
180
199
212
236
266
289
315
353
399
449
502
546
575
591
569
484
347
194
56
-50
-134
-194
-222
-234
-247
-248
-234
-223
-224
-222
-209
-197
-176
-128
-88
-115
-173
-185
-160
-156
-169
-168
-149
-127
-119
-140
-170
-176
-164
-151
-130
-108
-108
-122
-124
-117
-106
-98
-98
-78
-49
-66
-107
-104
-72
-61
-82
-117
-104
-61
-85
-115
-140
-238
92
1142
1582
431
-780
-655
-113
-48
-63
25
12
-1
51
58
47
72
89
96
114
124
127
145
171
187
200
223
259
298
330
355
389
427
432
395
331
243
132
19
-69
-127
-164
-188
-195
-191
-193
-198
-190
-176
-172
-175
-173
-163
-151
-149
-155
-153
-144
-145
-150
-145
-139
-139
-137
-131
-131
-134
-132
-123
-126
-138
-134
-118
-117
-107
-67
-46
-74
-102
-99
-98
-102
-82
-78
-105
-91
-66
-104
-139
-218
-247
407
1492
1360
-131
-955
-483
-46
-68
-27
49
14
26
69
60
66
97
102
102
119
138
157
183
201
213
240
281
318
356
404
448
472
482
475
420
311
179
54
-50
-130
-178
-197
-208
-226
-235
-222
-207
-205
-201
-190
-183
-175
-166
-165
-170
-168
-161
-155
-152
-155
-159
-151
-142
-145
-148
-142
-136
-132
-130
-138
-148
-138
-121
-111
-99
-77
-75
-98
-114
-114
-112
-99
-93
-111
-101
-81
-114
-138
-207
-292
264
1410
1495
58
-921
-530
-46
-56
-38
41
8
12
60
59
68
101
104
105
125
137
146
170
198
219
247
286
326
365
407
447
477
496
495
442
330
195
67
-41
-123
-175
-205
-221
-224
-222
-218
-210
-202
-198
-193
-184
-176
-172
-167
-161
-157
-154
-152
-153
-156
-157
-155
-153
-154
-156
-152
-148
-150
-142
-129
-132
-139
-132
-124
-120
-95
-71
-83
-102
-100
-104
-120
-110
-102
-118
-101
-78
-106
-139
-249
-271
476
1615
1401
-171
-966
-463
-51
-83
-23
56
14
22
68
64
70
94
103
116
136
152
174
201
225
247
276
314
356
399
446
493
533
553
532
453
333
194
56
-57
-136
-194
-234
-252
-253
-243
-232
-231
-233
-223
-210
-206
-201
-192
-188
-185
-176
-168
-170
-170
-170
-171
-169
-162
-160
-159
-155
-147
-137
-136
-143
-135
-121
-123
-120
-91
-77
-100
-118
-117
-124
-125
-111
-117
-124
-96
-99
-134
-166
-272
-91
895
1698
840
-700
-963
-322
-68
-87
13
44
11
52
78
63
81
107
118
138
160
174
190
213
239
271
307
348
396
445
491
530
561
571
527
414
265
123
2
-100
-174
-216
-237
-247
-248
-244
-239
-235
-229
-220
-211
-202
-193
-186
-185
-185
-179
-172
-168
-166
-163
-159
-154
-146
-144
-149
-150
-145
-143
-138
-131
-134
-142
-131
-117
-116
-103
-71
-67
-96
-105
-97
-104
-103
-87
-97
-99
-70
-89
-123
-165
-283
49
1213
1821
647
-774
-750
-150
-54
-79
29
32
9
55
64
57
85
103
110
129
148
166
185
202
225
258
295
334
378
426
472
510
536
538
490
383
243
104
-15
-109
-174
-212
-230
-242
-250
-250
-242
-234
-230
-225
-219
-214
-209
-202
-195
-193
-195
-195
-193
-194
-198
-200
-208
-220
-228
-240
-244
-221
-189
-174
-157
-133
-123
-112
-81
-68
-90
-102
-94
-97
-102
-90
-95
-97
-71
-83
-114
-160
-302
-44
1101
1866
835
-676
-799
-192
-42
-71
34
45
13
55
75
71
94
106
110
133
156
170
187
205
229
264
299
338
388
439
481
518
549
554
498
374
222
78
-61
-180
-245
-269
-283
-287
-278
-269
-264
-258
-252
-239
-222
-213
-206
-197
-194
-191
-179
-170
-169
-165
-162
-162
-163
-161
-155
-145
-145
-153
-146
-133
-132
-123
-92
-81
-105
-119
-112
-119
-124
-106
-104
-112
-90
-98
-139
-174
-296
-126
917
1818
993
-587
-886
-268
-49
-95
0
33
0
40
65
54
75
97
104
125
143
151
170
201
230
258
291
333
384
434
474
508
539
545
496
389
249
108
-12
-107
-175
-214
-233
-243
-248
-247
-241
-235
-229
-221
-211
-202
-196
-190
-181
-173
-173
-174
-170
-170
-170
-161
-155
-159
-154
-140
-141
-156
-149
-130
-128
-121
-85
-69
-98
-122
-115
-115
-124
-112
-112
-124
-97
-87
-128
-156
-265
-225
635
1687
1207
-390
-964
-385
-49
-91
-21
31
-6
23
60
48
57
83
99
115
128
137
156
180
203
234
271
309
349
395
441
482
513
522
489
398
268
135
16
-84
-154
-198
-225
-236
-236
-238
-236
-230
-223
-214
-204
-197
-192
-185
-180
-179
-172
-164
-163
-166
-164
-159
-157
-153
-147
-142
-140
-140
-135
-123
-111
-111
-122
-128
-127
-124
-114
-86
-67
-81
-96
-94
-97
-95
-78
-87
-94
-64
-76
-118
-152
-267
-26
1056
1782
765
-714
-819
-208
-53
-73
40
54
18
54
67
57
84
105
111
135
159
168
184
213
237
258
291
333
379
426
469
511
549
562
520
422
283
134
8
-89
-166
-214
-233
-242
-252
-254
-246
-236
-225
-211
-200
-194
-189
-183
-184
-185
-180
-173
-169
-169
-172
-173
-170
-165
-162
-158
-156
-157
-153
-144
-141
-141
-134
-128
-124
-104
-81
-91
-117
-120
-111
-116
-119
-118
-129
-117
-95
-123
-155
-212
-218
396
1460
1380
-152
-1121
-671
-127
-95
-51
48
25
25
71
74
83
113
120
126
151
177
198
219
243
269
300
340
388
436
481
526
565
587
569
488
350
196
60
-51
-136
-189
-220
-238
-245
-241
-237
-234
-228
-219
-206
-193
-191
-194
-191
-180
-173
-172
-169
-160
-152
-147
-147
-150
-153
-149
-141
-137
-138
-136
-131
-131
-129
-118
-115
-126
-124
-107
-102
-95
-63
-43
-67
-91
-86
-87
-98
-87
-85
-99
-80
-72
-110
-132
-227
-193
648
1749
1361
-246
-913
-377
-34
-82
-17
44
9
31
63
52
65
90
97
110
131
146
165
183
199
226
264
302
339
379
424
466
501
524
508
430
307
173
49
-56
-139
-197
-227
-236
-243
-246
-238
-232
-232
-220
-198
-189
-187
-182
-177
-172
-163
-158
-160
-158
-154
-153
-155
-152
-149
-148
-146
-141
-139
-140
-135
-128
-131
-131
-120
-119
-133
-129
-108
-100
-91
-63
-55
-83
-100
-93
-98
-103
-89
-93
-102
-78
-91
-131
-145
-248
-105
895
1817
1045
-539
-880
-275
-46
-90
2
34
2
39
55
45
75
98
98
116
138
150
170
193
212
237
269
303
339
386
438
480
504
514
494
417
296
165
40
-70
-148
-190
-216
-228
-225
-221
-226
-227
-218
-206
-197
-188
-181
-179
-176
-167
-159
-159
-159
-154
-151
-151
-152
-150
-146
-142
-137
-135
-134
-131
-126
-124
-120
-110
-109
-122
-124
-109
-102
-95
-62
-36
-53
-83
-84
-82
-94
-86
-74
-90
-81
-55
-88
-113
-160
-232
303
1478
1641
185
-910
-569
-60
-61
-40
56
26
20
70
75
80
102
106
115
137
152
164
185
209
235
265
300
339
388
436
470
500
531
533
476
377
252
109
-22
-114
-174
-217
-239
-241
-237
-239
-242
-232
-218
-213
-210
-201
-194
-198
-200
-191
-182
-183
-184
-174
-167
-174
-181
-177
-173
-173
-170
-162
-157
-161
-163
-153
-144
-151
-154
-145
-144
-141
-116
-97
-115
-136
-134
-135
-144
-134
-128
-142
-129
-115
-146
-169
-226
-145
621
1554
1083
-494
-1112
-512
-101
-123
-51
32
4
22
68
72
83
103
109
128
160
184
200
216
238
274
316
349
383
436
496
538
570
593
572
484
352
202
54
-66
-145
-196
-234
-254
-254
-251
-249
-237
-227
-225
-215
-198
-194
-193
-181
-167
-158
-147
-138
-139
-144
-141
-131
-127
-128
-124
-118
-112
-102
-96
-102
-102
-87
-78
-72
-53
-39
-47
-53
-52
-62
-59
-44
-56
-54
-25
-50
-83
-118
-194
236
1375
1714
356
-904
-679
-89
-27
-13
104
92
74
118
119
116
144
156
162
184
204
221
242
260
284
320
358
401
453
502
541
577
600
584
507
377
230
93
-32
-136
-201
-232
-250
-266
-274
-270
-263
-257
-253
-245
-236
-235
-235
-229
-224
-224
-225
-222
-222
-225
-227
-223
-220
-225
-229
-227
-229
-236
-235
-228
-226
-220
-218
-233
-243
-230
-218
-212
-191
-171
-186
-215
-222
-221
-226
-219
-216
-226
-204
-194
-243
-267
-339
-360
363
1557
1439
-154
-1060
-599
-163
-196
-151
-64
-92
-80
-34
-35
-26
3
18
36
60
79
101
131
162
194
230
273
324
382
442
498
542
570
568
517
409
269
135
35
-29
-69
-92
-98
-90
-78
-65
-47
-24
-5
12
35
61
81
