# session 31
21
32
-14
-23
117
290
323
274
260
255
235
234
232
207
202
220
210
188
201
201
150
110
98
70
56
65
40
28
46
-2
-41
-82
-204
358
1896
2333
405
-1400
-1100
-217
-77
-65
78
62
34
90
94
88
116
121
125
152
173
189
213
237
267
310
359
415
481
545
602
652
687
674
578
408
214
32
-130
-258
-342
-394
-424
-436
-442
-444
-439
-425
-412
-400
-392
-381
-361
-336
-318
-312
-316
-325
-326
-316
-305
-298
-294
-291
-289
-284
-279
-272
-266
-259
-246
-232
-229
-228
-205
-181
-183
-175
-143
-145
-180
-190
-184
-191
-179
-164
-176
-156
-136
-178
-186
-241
-281
526
1982
1862
-263
-1603
-969
-181
-103
-38
91
58
58
120
121
128
167
184
197
224
246
268
301
337
373
419
475
539
610
682
745
792
813
778
663
487
295
120
-24
-133
-206
-250
-271
-278
-281
-283
-278
-266
-256
-247
-235
-221
-208
-197
-187
-178
-170
-167
-165
-161
-157
-155
-153
-150
-150
-153
-156
-153
-147
-144
-141
-135
-132
-128
-112
-100
-110
-109
-80
-64
-72
-57
-36
-62
-97
-101
-110
-118
-102
-110
-118
-84
-103
-145
-150
-286
-38
1351
2409
1066
-1127
-1402
-440
-83
-112
26
64
17
68
98
82
108
134
141
161
184
200
226
254
281
316
364
422
485
547
607
660
698
708
662
538
362
183
23
-115
-217
-275
-303
-319
-329
-328
-318
-306
-296
-288
-279
-269
-258
-247
-237
-232
-226
-215
-207
-203
-199
-197
-202
-207
-203
-196
-194
-196
-195
-187
-180
-179
-182
-179
-170
-159
-150
-148
-143
-125
-116
-122
-108
-76
-84
-120
-129
-128
-140
-129
-117
-131
-112
-96
-140
-154
-211
-177
735
2078
1673
-495
-1604
-857
-146
-107
-29
88
52
64
122
120
132
168
181
196
225
245
264
291
325
368
414
465
530
603
667
723
774
800
766
652
475
278
95
-58
-175
-250
-291
-311
-324
-330
-331
-324
-312
-299
-288
-277
-263
-248
-235
-227
-220
-213
-209
-206
-201
-199
-201
-198
-192
-190
-190
-188
-186
-185
-183
-180
-176
-172
-160
-147
-148
-148
-125
-105
-112
-103
-72
-79
-118
-127
-123
-133
-126
-119
-134
-112
-96
-141
-154
-228
-220
712
2125
1758
-443
-1592
-853
-137
-100
-26
86
46
58
114
108
117
153
161
173
202
225
248
278
309
344
388
441
506
582
656
715
760
785
757
645
469
277
94
-64
-175
-243
-284
-306
-316
-322
-323
-315
-305
-293
-277
-266
-261
-254
-240
-229
-224
-223
-218
-212
-206
-203
-204
-203
-200
-198
-199
-197
-189
-182
-179
-181
-185
-183
-176
-171
-159
-144
-141
-139
-118
-104
-114
-105
-71
-78
-121
-132
-124
-134
-129
-124
-137
-113
-95
-137
-157
-216
-113
887
2150
1555
-618
-1567
-779
-139
-116
-15
93
49
68
120
110
126
168
179
193
223
242
264
298
329
363
411
470
535
611
690
754
797
817
782
658
464
254
66
-83
-191
-266
-312
-332
-340
-346
-343
-331
-322
-315
-301
-285
-273
-261
-245
-235
-231
-225
-220
-223
-227
-223
-218
-217
-215
-210
-208
-207
-206
-205
-193
-175
-173
-176
-157
-138
-143
-133
-103
-109
-141
-145
-140
-151
-145
-135
-144
-129
-119
-148
-150
-215
-193
644
1881
1543
-442
-1545
-920
-211
-107
-19
101
77
81
136
140
143
170
184
203
233
254
271
300
336
373
419
478
549
629
706
774
832
861
817
676
468
249
51
-108
-215
-279
-317
-337
-346
-350
-351
-347
-338
-327
-313
-298
-285
-274
-264
-254
-243
-236
-230
-223
-218
-215
-213
-211
-209
-207
-206
-203
-198
-193
-190
-182
-166
-159
-161
-140
-109
-109
-118
-101
-97
-127
-143
-141
-151
-145
-130
-140
-128
-108
-139
-134
-163
-254
320
1639
1796
-42
-1530
-1108
-240
-58
-23
99
88
77
136
147
145
174
191
202
226
245
265
292
318
353
399
451
512
584
656
720
777
818
810
719
548
344
151
-14
-141
-223
-272
-301
-312
-312
-310
-306
-298
-289
-280
-267
-254
-246
-239
-233
-228
-224
-220
-217
-212
-205
-201
-200
-198
-195
-193
-190
-187
-184
-181
-176
-172
-169
-166
-162
-154
-142
-139
-137
-112
-88
-96
-96
-68
-68
-104
-115
-113
-128
-123
-112
-127
-110
-89
-132
-140
-181
-186
636
2001
1740
-398
-1608
-884
-118
-78
-25
93
54
60
120
115
120
157
168
178
205
224
241
267
296
327
366
413
470
532
590
642
689
718
704
623
475
293
119
-28
-144
-224
-272
-296
-306
-309
-303
-293
-281
-270
-261
-251
-242
-236
-234
-229
-223
-220
-218
-213
-208
-206
-204
-202
-200
-197
-193
-192
-192
-188
-184
-182
-177
-169
-164
-159
-146
-136
-141
-130
-101
-93
-94
-66
-51
-89
-116
-107
-118
-126
-104
-110
-114
-81
-111
-146
-139
-251
91
1484
2249
648
-1363
-1331
-340
-55
-60
86
95
55
116
136
122
154
180
189
212
232
248
275
300
323
361
410
457
511
575
630
671
706
720
674
549
375
196
34
-101
-198
-253
-285
-308
-320
-313
-301
-297
-291
-275
-262
-257
-254
-249
-244
-236
-229
-228
-229
-227
-222
-220
-218
-212
-208
-209
-210
-203
-191
-189
-192
-186
-170
-163
-157
-135
-120
-125
-113
-86
-99
-139
-149
-147
-157
-150
-140
-151
-132
-116
-154
-167
-212
-110
807
1924
1267
-834
-1687
-842
-159
-108
-14
90
59
86
134
125
144
183
192
206
239
263
288
323
353
387
434
489
552
624
692
744
785
803
762
640
461
268
91
-56
-163
-232
-271
-291
-300
-301
-294
-284
-277
-269
-259
-250
-242
-233
-225
-218
-214
-210
-208
-207
-205
-200
-197
-198
-200
-198
-197
-197
-196
-193
-186
-171
-162
-160
-143
-117
-117
-122
-99
-95
-136
-160
-153
-159
-157
-146
-160
-147
-117
-161
-177
-179
-256
291
1660
1882
-40
-1622
-1143
-217
-75
-62
76
64
48
110
119
119
149
160
168
196
217
235
264
295
328
367
411
464
523
577
625
668
694
682
606
464
289
121
-25
-140
-219
-262
-286
-298
-296
-286
-279
-271
-256
-244
-240
-235
-225
-217
-215
-211
-207
-203
-198
-198
-200
-187
-163
-158
-172
-172
-161
-158
-164
-165
-154
-141
-136
-117
-83
-79
-92
-69
-53
-92
-122
-117
-131
-136
-105
-114
-130
-91
-110
-155
-145
-253
12
1316
2153
694
-1332
-1396
-405
-77
-80
71
93
35
77
104
101
133
155
159
184
212
227
246
267
289
322
365
415
468
516
556
592
621
626
575
456
300
147
9
-108
-194
-247
-275
-289
-294
-292
-286
-275
-259
-248
-242
-232
-220
-216
-217
-210
-204
-205
-205
-202
-202
-201
-192
-188
-192
-192
-183
-178
-170
-154
-147
-147
-126
-99
-97
-90
-61
-65
-110
-129
-125
-139
-137
-121
-135
-124
-95
-136
-148
-158
-209
435
1804
1821
-241
-1718
-1131
-239
-111
-60
82
59
49
107
109
116
156
170
183
216
240
260
290
319
350
396
445
498
562
626
676
718
741
713
608
447
265
90
-59
-167
-239
-285
-309
-317
-322
-323
-313
-298
-289
-282
-270
-260
-254
-245
-235
-229
-225
-220
-215
-211
-210
-210
-209
-210
-215
-211
-192
-178
-178
-166
-139
-135
-140
-120
-109
-142
-166
-162
-173
-178
-157
-162
-163
-132
-157
-185
-178
-240
169
1453
1988
363
-1472
-1365
-422
-135
-107
47
66
38
96
119
114
146
170
180
206
233
258
290
324
359
405
460
522
592
664
727
779
810
790
689
519
318
122
-43
-165
-246
-293
-316
-328
-333
-331
-323
-314
-306
-294
-279
-267
-258
-247
-235
-228
-223
-216
-209
-206
-210
-212
-210
-209
-207
-204
-201
-193
-178
-174
-175
-152
-123
-125
-125
-96
-99
-142
-154
-146
-158
-152
-139
-159
-144
-116
-166
-176
-217
-302
452
1993
1992
-184
-1626
-972
-145
-98
-57
80
45
41
103
103
108
141
154
170
199
213
231
261
285
318
368
425
486
556
624
680
729
756
730
621
446
259
91
-56
-169
-233
-266
-291
-305
-305
-300
-292
-283
-279
-278
-267
-250
-237
-227
-223
-226
-224
-212
-205
-209
-211
-208
-205
-200
-193
-191
-193
-192
-182
-170
-168
-165
-142
-126
-133
-123
-99
-117
-154
-157
-153
-166
-159
-154
-168
-150
-141
-174
-181
-244
-124
871
1996
1251
-861
-1635
-782
-154
-122
-19
78
38
58
104
99
118
155
167
188
218
236
263
302
337
375
429
492
560
635
705
763
810
825
764
611
407
207
32
-108
-197
-243
-274
-303
-319
-312
-291
-280
-283
-282
-270
-259
-249
-231
-219
-218
-213
-204
-201
-203
-199
-195
-195
-197
-194
-188
-180
-179
-185
-183
-166
-163
-174
-161
-133
-130
-125
-95
-94
-137
-156
-152
-169
-166
-141
-157
-153
-114
-155
-185
-208
-370
101
1670
2284
452
-1409
-1147
-241
-96
-93
52
31
7
77
82
76
122
142
143
171
197
210
232
259
290
332
383
439
505
575
638
686
716
699
607
454
284
116
-36
-148
-219
-263
-284
-291
-295
-291
-281
-276
-268
-257
-251
-242
-221
-210
-209
-197
-188
-194
-193
-181
-179
-180
-175
-177
-184
-179
-171
-173
-158
-123
-115
-150
-177
-155
-111
-101
-115
-99
-71
-85
-96
-83
-115
-165
-148
-125
-136
-114
-120
-163
-157
-289
-223
979
2318
1437
-828
-1483
-576
-82
-113
-5
55
1
39
83
71
94
126
129
139
167
193
216
239
265
302
344
385
436
499
550
583
610
615
559
444
303
155
11
-102
-179
-232
-254
-256
-270
-293
-295
-283
-273
-258
-239
-226
-214
-199
-185
-179
-175
-167
-162
-162
-158
-149
-147
-153
-159
-159
-154
-149
-147
-147
-144
-136
-127
-128
-132
-121
-111
-109
-74
-21
-31
-97
-143
-157
-144
-115
-120
-124
-83
-96
-130
-125
-283
-122
1177
2260
1058
-1037
-1345
-446
-90
-99
36
64
11
60
91
72
91
118
127
145
168
185
207
232
260
291
326
367
421
478
524
555
575
574
527
423
284
146
26
-75
-155
-206
-232
-247
-255
-255
-253
-250
-245
-234
-220
-208
-200
-194
-187
-178
-173
-174
-173
-167
-161
-164
-167
-165
-162
-158
-150
-145
-146
-142
-129
-126
-135
-125
-99
-90
-83
-54
-50
-93
-120
-120
-132
-132
-120
-135
-126
-96
-138
-155
-164
-284
196
1597
1986
177
-1492
-1165
-283
-106
-75
63
48
25
85
100
93
112
120
132
159
178
195
218
236
261
299
340
387
443
502
570
640
679
660
580
447
289
129
-15
-126
-196
-240
-270
-290
-296
-290
-284
-279
-272
-263
-257
-250
-235
-219
-215
-213
-207
-200
-193
-185
-181
-184
-184
-181
-180
-177
-166
-155
-153
-149
-132
-125
-126
-105
-83
-107
-141
-139
-143
-160
-150
-151
-160
-129
-135
-175
-181
-311
-175
1045
2234
1234
-957
-1525
-633
-141
-122
7
63
18
68
111
96
118
146
149
167
194
215
246
283
309
339
388
453
527
606
677
734
774
773
695
538
339
142
-30
-161
-246
-294
-321
-332
-334
-330
-323
-315
-309
-299
-285
-273
-263
-249
-238
-231
-224
-216
-209
-204
-201
-198
-192
-188
-186
-187
-186
-176
-162
-159
-155
-124
-97
-108
-113
-87
-90
-128
-139
-138
-153
-142
-129
-147
-124
-101
-149
-156
-243
-334
559
2169
2013
-246
-1551
-820
-71
-73
-28
90
47
52
110
104
105
132
138
153
188
219
242
259
277
308
349
393
442
498
556
603
633
650
629
531
367
193
41
-85
-184
-249
-287
-305
-310
-309
-307
-297
-284
-277
-269
-253
-235
-223
-215
-205
-197
-191
-187
-186
-185
-179
-173
-176
-180
-175
-169
-168
-166
-162
-155
-141
-134
-146
-141
-115
-111
-115
-90
-78
-115
-144
-145
-157
-158
-140
-156
-155
-115
-146
-185
-210
-323
150
1604
2165
428
-1399
-1220
-333
-136
-118
28
23
-4
58
72
69
105
122
128
156
178
193
217
243
268
302
347
396
449
503
554
595
620
612
547
420
259
99
-42
-152
-229
-279
-305
-314
-313
-307
-301
-298
-290
-271
-252
-247
-244
-233
-221
-210
-201
-193
-185
-181
-184
-185
-174
-159
-151
-152
-156
-150
-134
-124
-129
-123
-95
-82
-85
-58
-29
-59
-96
-86
-83
-99
-87
-80
-86
-53
-54
-97
-108
-199
1
1214
2308
1242
-917
-1424
-524
-58
-58
74
142
97
141
187
180
204
239
246
259
293
324
342
364
400
437
473
524
584
642
701
753
785
786
729
588
402
226
74
-57
-155
-213
-242
-258
-265
-265
-259
-250
-240
-232
-224
-218
-214
-208
-204
-205
-209
-210
-211
-212
-215
-219
-222
-226
-226
-228
-230
-221
-210
-211
-207
-184
-178
-186
-165
-148
-181
-218
-224
-236
-247
-232
-242
-264
-235
-239
-291
-305
-417
-259
957
2122
1105
-1069
-1604
-717
-267
-287
-171
-112
-155
-114
-80
-95
-72
-43
-39
-25
-5
9
28
53
81
114
154
199
251
309
364
405
434
446
403
283
127
-26
-167
-283
-361
-410
-440
-450
-448
-442
-434
-421
-409
-398
-384
-364
-345
-332
-322
-312
-294
-277
-269
-258
-239
-226
-221
-208
-190
-177
-157
-131
-117
-98
-62
-39
-31
1
34
16
-12
-1
7
4
31
46
34
72
97
57
50
-42
15
1110
2517
1909
-311
-1189
-367
211
215
331
431
394
430
483
479
504
541
552
571
599
620
648
680
706
737
781
835
889
936
979
1022
1056
1062
1018
910
749
574
412
276
174
102
50
16
-5
-25
-45
-59
-74
-96
-117
-133
-153
-181
-209
-236
-267
-301
-335
-368
-402
-440
-481
-520
-563
-603
-637
-681
-733
-764
-791
-844
-890
-914
-967
-1057
-1137
-1197
-1256
-1308
-1354
-1403
-1466
-1530
-1569
-1650
-1848
-1922
-1396
-225
