# session 7
163
514
-548
202
4437
7943
7922
7045
7194
7208
6829
6714
6592
6196
5785
5435
5072
4718
4410
4112
3745
3371
3143
2978
2681
2344
2193
2221
2252
2227
2196
2117
1920
1696
1586
1528
1347
1098
953
821
585
387
251
86
-74
-293
-266
589
1324
413
-1134
-1409
-928
-892
-1040
-1030
-1068
-1064
-894
-730
-673
-683
-739
-835
-918
-906
-835
-846
-935
-1029
-1149
-1224
-1159
-1089
-1148
-1260
-1352
-1397
-1356
-1284
-1248
-1220
-1185
-1164
-1128
-1099
-1118
-1106
-1042
-1066
-1181
-1266
-1351
-1440
-1399
-1291
-1298
-1384
-1427
-1468
-1639
-1659
-775
668
772
-895
-2170
-1869
-1151
-815
-569
-358
-267
-124
87
257
413
573
706
848
1006
1104
1153
1229
1274
1229
1213
1296
1369
1365
1331
1300
1267
1243
1248
1258
1224
1206
1284
1325
1198
1041
946
776
539
414
384
296
171
115
100
41
-5
7
-25
-99
-194
-432
-369
636
1545
775
-744
-1078
-522
-240
-177
-63
-46
-62
-12
18
42
90
120
162
157
-34
-261
-240
-45
63
84
138
183
114
-44
-195
-316
-463
-655
-825
-956
-1102
-1195
-1126
-1014
-996
-952
-807
-682
-618
-569
-540
-523
-490
-458
-459
-483
-467
-411
-423
-470
-531
-686
-416
693
1250
26
-1401
-1348
-719
-591
-598
-476
-372
-237
-133
-152
-121
-6
9
-44
-7
71
89
104
151
150
112
131
175
171
161
176
169
168
226
295
318
326
354
382
393
409
436
441
418
410
424
433
425
398
375
384
407
418
401
381
380
269
217
891
1896
1537
-146
-962
-339
242
289
362
466
444
461
523
532
541
579
620
665
715
760
798
817
805
779
757
729
663
553
435
345
285
244
210
185
181
182
154
115
104
120
143
148
99
31
5
-46
-188
-321
-389
-463
-518
-529
-579
-620
-649
-820
-616
506
1220
87
-1476
-1546
-843
-602
-547
-385
-376
-449
-445
-458
-476
-412
-322
-250
-166
-72
22
128
209
219
188
166
133
44
-83
-192
-283
-393
-498
-556
-577
-585
-585
-587
-595
-591
-574
-571
-590
-599
-575
-547
-541
-546
-545
-548
-545
-496
-455
-482
-497
-576
-690
-119
1145
1326
-225
-1437
-1123
-550
-486
-435
-306
-302
-300
-253
-230
-169
-57
13
39
85
146
174
180
188
177
148
125
83
-10
-129
-231
-308
-368
-410
-426
-435
-451
-430
-303
-74
169
351
462
549
637
692
708
725
745
771
834
923
1016
1089
1099
1094
1022
828
1121
2194
2554
1254
51
292
793
677
571
728
811
763
665
611
671
683
552
490
600
767
938
1090
1156
1160
1163
1158
1114
969
662
278
-30
-238
-406
-541
-601
-587
-594
-709
-817
-726
-543
-549
-728
-862
-903
-894
-856
-865
-933
-993
-1046
-1064
-975
-850
-847
-1069
-1225
-598
467
238
-1400
-2233
-1506
-736
-571
-445
-340
-470
-622
-694
-778
-781
-640
-480
-337
-167
-45
-23
-12
7
-35
-139
-257
-367
-478
-601
-657
-568
-422
-322
-265
-230
-184
-104
-67
-81
-48
18
21
-8
5
47
86
109
138
209
273
305
359
363
243
92
-82
34
1073
2218
1644
-66
-610
30
322
195
254
386
459
544
541
472
529
665
656
521
529
756
958
990
982
1022
1045
1026
1004
953
855
775
732
682
618
511
307
104
16
-61
-197
-251
-210
-250
-382
-454
-450
-468
-521
-546
-538
-554
-579
-546
-495
-438
-348
-401
-387
419
1433
954
-639
-1295
-841
-515
-471
-351
-282
-294
-271
-262
-266
-223
-170
-129
-74
-17
32
87
136
151
135
121
114
76
-16
-120
-195
-258
-315
-337
-338
-356
-373
-362
-347
-346
-340
-320
-306
-307
-312
-300
-275
-269
-278
-253
-211
-209
-197
-154
-162
-180
-238
-385
28
1263
1670
227
-1149
-920
-255
-139
-89
65
80
79
139
165
193
247
280
316
385
460
521
559
565
555
541
510
445
339
216
109
27
-35
-80
-116
-140
-147
-149
-160
-172
-172
-151
-127
-134
-154
-139
-113
-120
-131
-112
-100
-107
-82
-49
-63
-96
-216
-314
284
1410
1356
-244
-1291
-828
-216
-150
-84
65
77
76
121
132
150
202
243
285
349
417
480
521
522
502
483
438
355
252
139
26
-54
-100
-137
-161
-163
-163
-169
-174
-185
-191
-177
-179
-213
-221
-185
-180
-228
-243
-196
-166
-169
-158
-158
-171
-197
-349
-306
590
1585
968
-736
-1336
-701
-258
-207
-84
-7
-39
-9
46
70
116
165
198
251
321
390
451
481
460
408
352
287
198
93
-3
-87
-161
-215
-244
-248
-240
-236
-228
-206
-198
-211
-205
-186
-188
-200
-205
-215
-230
-222
-205
-210
-196
-151
-159
-203
-287
-473
-213
956
1673
508
-1115
-1224
-496
-228
-193
-57
-37
-70
-5
39
40
102
182
208
235
318
416
467
466
451
445
426
366
261
138
34
-40
-97
-136
-148
-156
-181
-195
-184
-174
-170
-153
-139
-149
-162
-151
-132
-144
-170
-162
-143
-159
-152
-108
-123
-154
-205
-406
-204
951
1690
507
-1144
-1216
-415
-116
-102
17
58
42
76
113
169
235
257
296
395
489
545
585
613
619
603
579
541
451
322
215
139
64
4
-42
-123
-224
-278
-283
-279
-274
-243
-189
-160
-187
-225
-222
-201
-204
-209
-172
-129
-125
-103
-58
-77
-116
-180
-242
287
1385
1424
-135
-1260
-845
-190
-85
-40
68
58
44
84
105
118
147
191
244
279
308
360
399
391
357
329
301
248
150
23
-80
-126
-155
-210
-256
-251
-231
-232
-238
-242
-247
-245
-246
-266
-276
-255
-243
-274
-293
-254
-242
-291
-287
-252
-308
-364
-418
-486
-25
940
944
-419
-1358
-1032
-569
-524
-470
-380
-408
-423
-385
-359
-327
-288
-262
-223
-165
-109
-64
-44
-32
48
199
321
349
313
259
213
188
159
112
88
106
133
152
175
200
228
260
271
253
244
254
259
257
255
255
258
260
277
298
267
223
163
19
275
1316
1858
655
-850
-847
-99
159
195
328
343
320
395
441
433
450
475
494
538
603
654
675
670
645
605
555
480
362
228
109
17
-42
-81
-122
-151
-153
-162
-201
-245
-279
-306
-335
-375
-416
-435
-451
-495
-545
-557
-547
-544
-530
-524
-562
-585
-643
-700
-163
923
934
-675
-1871
-1460
-730
-554
-461
-300
-260
-229
-159
-128
-86
-13
43
103
191
279
350
396
401
381
355
313
238
138
34
-58
-127
-173
-195
-197
-195
-194
-187
-180
-182
-180
-164
-163
-190
-206
-193
-181
-196
-217
-207
-181
-162
-138
-142
-174
-172
-271
-368
315
1527
1349
-463
-1536
-967
-292
-196
-109
20
3
6
68
98
134
191
238
299
382
457
518
559
564
540
507
453
364
251
136
35
-36
-74
-96
-109
-105
-94
-87
-79
-75
-73
-65
-60
-76
-96
-89
-72
-83
-103
-82
-57
-63
-39
-3
-29
-43
-120
-276
237
1527
1756
118
-1211
-825
-72
76
137
280
287
288
357
397
434
503
573
641
708
773
845
894
891
873
865
831
748
639
525
416
340
303
275
260
273
244
96
-109
-264
-360
-423
-468
-515
-572
-611
-624
-640
-671
-681
-667
-670
-672
-645
-659
-687
-702
-882
-835
225
1324
556
-1258
-1734
-1006
-615
-602
-481
-415
-434
-375
-315
-292
-236
-165
-107
-37
46
124
184
212
218
219
209
179
113
10
-93
-176
-239
-268
-271
-279
-289
-289
-283
-271
-258
-250
-235
-212
-206
-209
-189
-158
-148
-156
-141
-97
-83
-87
-42
-17
-53
-81
-186
-120
768
1739
1091
-571
-1061
-393
-3
8
113
183
171
223
280
306
358
411
454
523
607
677
732
760
756
748
742
708
628
511
383
281
217
169
129
110
107
97
83
77
76
78
97
120
124
109
106
130
146
118
100
149
169
119
80
-35
-282
-438
-462
-235
698
1576
747
-1113
-1701
-996
-540
-500
-412
-428
-547
-554
-563
-653
-712
-740
-733
-541
-185
117
277
367
431
470
478
413
243
20
-141
-181
-159
-154
-146
-93
-31
1
24
67
118
153
189
235
255
238
231
238
217
168
124
76
27
30
68
55
53
65
-87
45
1091
1882
778
-1000
-1207
-324
97
134
279
347
293
284
309
349
431
507
543
551
550
548
509
397
243
93
-59
-229
-420
-636
-851
-1020
-1119
-1149
-1125
-1082
-1065
-1085
-1118
-1156
-1206
-1216
-1108
-896
-684
-528
-410
-309
-242
-222
-198
-131
-83
-73
-23
14
-19
-22
-142
-319
362
1766
1792
27
-1065
-510
110
145
207
317
296
316
375
384
410
465
500
544
612
676
729
759
750
720
691
656
588
484
364
251
161
93
38
-9
-37
-42
-40
-46
-58
-64
-72
-93
-111
-116
-129
-146
-139
-127
-145
-173
-157
-119
-121
-120
-81
-99
-140
-185
-389
-222
955
1806
704
-949
-1066
-355
-142
-141
-15
-3
-32
31
67
78
133
185
223
288
358
412
456
474
460
446
441
406
311
178
49
-54
-130
-184
-222
-250
-274
-294
-302
-300
-301
-307
-306
-291
-275
-279
-301
-308
-288
-275
-292
-301
-273
-253
-258
-234
-220
-245
-247
-374
-507
173
1363
1126
-620
-1478
-805
-226
-221
-134
2
-11
9
74
89
119
178
221
274
351
424
486
524
524
508
490
445
354
238
126
28
-47
-99
-141
-173
-185
-187
-198
-214
-216
-208
-216
-224
-205
-188
-207
-222
-200
-184
-201
-214
-197
-174
-164
-141
-116
-133
-141
-194
-373
-106
957
1413
129
-1280
-1130
-359
-140
-121
8
40
37
97
114
116
174
240
292
359
442
515
557
561
548
531
494
416
304
184
84
6
-57
-99
-118
-129
-139
-145
-148
-145
-138
-144
-160
-153
-130
-136
-165
-172
-156
-148
-163
-174
-151
-130
-129
-110
-102
-124
-131
-284
-437
278
1571
1439
-309
-1287
-724
-163
-147
-79
35
14
27
82
93
126
192
236
278
349
428
501
551
558
527
490
446
360
237
114
6
-80
-135
-169
-190
-199
-207
-224
-240
-239
-229
-226
-229
-224
-210
-207
-220
-236
-241
-226
-215
-228
-230
-208
-209
-209
-176
-185
-207
-240
-448
-310
866
1795
734
-998
-1168
-409
-173
-193
-50
-18
-62
-6
40
49
98
152
193
259
335
399
457
490
480
451
427
384
300
195
94
3
-68
-116
-153
-176
-178
-179
-184
-178
-178
-191
-193
-180
-182
-191
-181
-171
-177
-180
-169
-162
-173
-178
-147
-124
-142
-126
-89
-121
-137
-201
-389
31
1278
1570
36
-1225
-857
-195
-123
-91
30
12
4
63
82
106
161
197
239
313
390
462
519
539
534
532
524
472
363
225
103
14
-55
-109
-147
-174
-201
-224
-234
-228
-222
-227
-232
-220
-206
-204
-200
-187
-191
-205
-194
-170
-176
-196
-185
-159
-155
-133
-104
-133
-146
-203
-409
-104
1087
1551
114
-1339
-1081
-277
-117
-115
36
67
46
97
138
166
201
225
269
341
411
482
550
578
561
520
468
404
299
155
29
-54
-120
-175
-200
-212
-228
-234
-224
-221
-235
-242
-227
-215
-222
-227
-210
-189
-196
-213
-207
-197
-212
-221
-195
-172
-175
-156
-125
-139
-145
-220
-408
-24
1160
1474
-37
-1389
-1055
-283
-135
-105
37
51
46
104
117
128
188
243
291
363
441
506
560
593
589
555
506
431
316
192
90
1
-67
-100
-122
-150
-166
-164
-160
-158
-156
-153
-151
-155
-160
-156
-148
-152
-165
-170
-162
-156
-165
-180
-170
-142
-142
-142
-110
-115
-136
-166
-378
-323
764
1806
947
-843
-1227
-485
-135
-138
-21
26
-6
45
86
84
122
176
219
285
364
435
504
553
556
527
495
447
352
222
92
-18
-102
-164
-203
-219
-226
-241
-246
-226
-216
-234
-241
-234
-236
-240
-233
-222
-211
-207
-223
-236
-222
-208
-224
-244
-220
-181
-190
-191
-150
-165
-200
-259
-475
-230
1044
1818
551
-1105
-1111
-361
-166
-172
-46
-32
-54
2
16
13
76
146
185
239
321
408
476
500
490
479
457
398
316
222
104
-9
-80
-123
-160
-182
-184
-180
-180
-188
-197
-190
-173
-171
-176
-166
-156
-163
-165
-155
-154
-165
-164
-150
-141
-147
-160
-159
-127
-110
-121
-91
-59
-98
-127
-248
-418
179
1473
1528
-132
-1216
-726
-132
-95
-36
80
64
80
150
167
184
232
278
338
418
495
564
616
634
631
622
601
543
439
308
181
76
-11
-71
-99
-116
-142
-159
-157
-155
-163
-163
-155
-156
-159
-149
-136
-132
-135
-137
-131
-127
-128
-124
-112
-117
-144
-150
-116
-94
-101
-78
-61
-98
-110
-192
-352
129
1294
1394
-185
-1330
-878
-203
-116
-65
65
58
59
117
129
143
189
225
274
347
410
468
529
554
538
512
483
424
315
174
47
-48
-126
-191
-232
-254
-270
-279
-278
-277
-287
-299
-299
-298
-309
-317
-318
-322
-318
-312
-326
-336
-315
-305
-326
-341
-329
-306
-299
-296
-270
-265
-288
-328
-491
-434
489
1446
753
-905
-1373
-711
-327
-301
-186
-122
-146
-105
-54
-33
11
58
100
168
246
315
375
416
426
414
383
334
259
152
29
-80
-157
-211
-256
-283
-282
-271
-270
-265
-246
-239
-245
-238
-225
-225
-232
-233
-215
-196
-204
-217
-199
-173
-163
-161
-154
-124
-90
-79
-43
-3
-34
-56
-110
-193
353
1511
1588
65
-1022
-641
-64
25
104
231
235
246
302
331
370
421
465
526
597
654
712
768
794
787
771
755
710
617
500
397
312
240
191
171
167
162
153
147
148
156
152
135
130
132
115
94
91
86
59
35
33
32
17
1
-12
-11
2
-14
-40
-32
-68
-125
-163
-359
-304
791
1858
990
-839
-1268
-599
-317
-340
-227
-191
-235
-200
-175
-183
-153
-119
-95
-39
38
109
174
220
227
204
163
90
-22
-152
-282
-404
-502
-566
-605
-629
