# session 24
5
52
-83
-33
469
972
1038
896
835
779
687
646
629
592
567
561
544
519
498
476
449
419
387
358
329
306
290
271
250
243
245
243
238
221
199
198
199
157
106
88
73
52
43
22
1
9
-9
-47
-35
37
429
1272
1537
267
-1346
-1590
-836
-313
-157
-61
-26
-30
-6
3
-1
21
46
53
64
80
89
94
101
106
107
111
109
93
78
68
50
23
-2
-19
-25
-25
-37
-69
-108
-142
-175
-213
-237
-238
-244
-254
-244
-232
-234
-228
-211
-213
-224
-215
-205
-216
-220
-201
-181
-174
-167
-148
-138
-141
-134
-120
-135
-167
-182
-190
-201
-187
-173
-186
-179
-164
-192
-177
-20
384
1140
1561
535
-1302
-1974
-1235
-488
-238
-89
18
27
48
86
106
132
154
166
198
237
264
293
324
352
386
427
465
496
520
531
530
522
494
433
345
249
156
68
-9
-69
-113
-145
-167
-177
-171
-155
-137
-119
-103
-92
-89
-85
-78
-73
-77
-82
-82
-80
-75
-66
-61
-54
-46
-64
-94
-85
-61
-84
-126
-137
-141
-143
-129
-135
-140
-109
-126
-159
-135
-155
193
1371
1980
476
-1497
-1614
-657
-226
-139
4
4
-33
36
60
34
55
81
79
92
122
135
138
171
228
262
283
326
367
380
382
383
363
319
265
200
119
45
0
-47
-106
-142
-155
-172
-183
-178
-173
-172
-163
-150
-140
-135
-132
-126
-117
-112
-112
-106
-92
-82
-80
-64
-40
-45
-65
-57
-51
-85
-112
-108
-109
-108
-101
-112
-103
-84
-120
-130
-110
-18
683
1770
1508
-432
-1744
-1281
-475
-236
-120
6
-4
-7
41
52
57
79
88
98
121
138
147
167
194
212
224
250
281
290
285
281
262
223
183
149
111
60
4
-46
-90
-127
-149
-161
-172
-180
-175
-165
-160
-156
-144
-133
-129
-126
-119
-119
-124
-117
-96
-84
-89
-88
-77
-77
-83
-62
-43
-69
-107
-115
-123
-129
-118
-123
-122
-78
-90
-140
-94
30
493
1509
1855
350
-1491
-1635
-739
-270
-165
-28
20
10
54
78
76
107
138
151
167
183
198
220
243
263
287
317
343
363
378
377
359
330
288
229
166
103
42
-5
-39
-75
-107
-126
-144
-161
-156
-138
-137
-142
-131
-116
-114
-112
-104
-105
-114
-119
-122
-126
-122
-111
-108
-108
-94
-80
-92
-101
-74
-57
-91
-123
-122
-132
-142
-121
-128
-147
-114
-117
-167
-163
-163
223
1444
2131
664
-1402
-1648
-733
-294
-208
-44
-5
-44
5
42
38
61
85
92
102
117
138
161
179
203
244
288
332
379
417
437
447
447
421
357
267
173
85
-1
-79
-139
-180
-212
-238
-251
-251
-250
-247
-235
-217
-200
-186
-177
-170
-164
-158
-158
-164
-167
-150
-128
-126
-128
-110
-105
-132
-136
-107
-113
-156
-172
-170
-180
-170
-158
-174
-150
-120
-173
-210
-230
-68
991
2341
1722
-714
-1932
-1155
-380
-261
-117
10
-25
13
78
57
62
110
126
138
172
202
229
264
306
358
427
503
573
631
683
725
740
707
613
468
300
144
12
-104
-194
-240
-255
-272
-297
-304
-280
-251
-258
-289
-288
-245
-221
-234
-236
-213
-198
-200
-199
-198
-196
-187
-178
-172
-164
-151
-125
-98
-104
-127
-120
-115
-153
-185
-182
-185
-180
-162
-180
-182
-137
-168
-222
-249
-303
320
1926
2404
316
-1771
-1543
-508
-238
-172
5
-3
-23
53
63
59
105
122
123
157
191
215
249
287
324
371
432
501
572
633
675
701
703
648
528
381
238
103
-22
-122
-186
-222
-245
-262
-266
-257
-248
-247
-241
-223
-212
-212
-204
-190
-182
-180
-175
-169
-169
-168
-162
-156
-159
-163
-165
-166
-166
-163
-159
-155
-151
-147
-142
-133
-127
-133
-138
-135
-132
-135
-129
-108
-85
-82
-81
-51
-34
-63
-68
-25
-26
-81
-102
-97
-109
-100
-94
-117
-95
-78
-143
-163
-186
-6
1138
2426
1550
-894
-1782
-841
-189
-162
-31
64
14
58
117
103
119
154
157
164
184
203
231
263
289
323
371
426
483
537
585
627
655
653
606
517
396
260
132
25
-67
-144
-191
-211
-219
-220
-217
-217
-218
-212
-202
-190
-181
-177
-175
-172
-171
-172
-174
-175
-177
-177
-175
-175
-176
-178
-177
-175
-178
-186
-185
-175
-169
-171
-169
-162
-158
-156
-152
-149
-146
-140
-134
-130
-128
-120
-103
-88
-84
-73
-49
-45
-62
-54
-32
-45
-78
-95
-108
-101
-83
-108
-111
-57
-92
-156
-141
-141
402
1830
2250
289
-1649
-1384
-396
-172
-119
57
43
17
101
114
95
125
143
149
177
203
218
238
264
300
348
392
434
485
536
579
611
619
593
530
433
309
176
55
-41
-118
-174
-206
-218
-221
-222
-220
-217
-214
-209
-199
-183
-172
-172
-172
-166
-163
-169
-173
-165
-155
-155
-161
-163
-160
-161
-164
-160
-154
-154
-153
-146
-146
-148
-140
-130
-131
-137
-131
-118
-113
-114
-112
-101
-87
-85
-81
-56
-28
-40
-64
-45
-19
-46
-83
-86
-91
-97
-84
-98
-99
-55
-90
-146
-121
-122
373
1735
2182
308
-1629
-1412
-407
-149
-117
43
44
19
84
98
95
129
137
138
165
184
198
227
258
286
318
356
405
460
502
530
554
559
533
481
402
296
183
72
-31
-109
-157
-190
-213
-222
-219
-215
-215
-219
-217
-204
-191
-183
-179
-172
-164
-160
-161
-164
-167
-164
-157
-157
-166
-174
-171
-167
-168
-169
-165
-157
-154
-158
-159
-151
-140
-136
-136
-132
-119
-107
-98
-83
-67
-72
-87
-68
-32
-41
-82
-100
-105
-108
-102
-111
-109
-75
-103
-153
-141
-107
406
1653
2015
245
-1619
-1485
-519
-200
-131
34
48
25
90
114
108
140
167
178
197
214
238
274
307
341
385
435
493
561
621
656
683
704
680
590
459
316
171
38
-74
-159
-212
-245
-266
-273
-270
-266
-260
-250
-241
-231
-217
-206
-200
-194
-187
-183
-181
-180
-177
-173
-175
-180
-179
-175
-177
-179
-174
-170
-171
-172
-171
-168
-162
-158
-154
-142
-128
-123
-110
-70
-48
-71
-87
-69
-74
-110
-121
-116
-122
-119
-122
-130
-99
-96
-146
-147
-157
85
1159
2060
898
-1314
-1825
-797
-179
-128
2
75
34
74
118
115
143
170
171
191
221
236
259
295
325
353
397
457
522
587
644
680
688
676
631
531
385
233
100
-19
-121
-185
-216
-239
-253
-250
-243
-239
-232
-221
-211
-204
-200
-197
-193
-189
-185
-182
-181
-180
-177
-175
-176
-173
-172
-176
-174
-166
-167
-175
-173
-164
-161
-162
-156
-137
-118
-111
-95
-60
-51
-72
-70
-56
-81
-115
-118
-125
-128
-112
-123
-131
-97
-116
-154
-130
-111
322
1465
1789
35
-1807
-1602
-518
-141
-95
53
74
49
108
132
129
163
184
191
219
245
256
278
310
341
381
435
487
532
582
627
650
659
648
578
455
321
193
64
-48
-127
-180
-210
-222
-228
-236
-231
-216
-207
-201
-191
-183
-179
-175
-171
-171
-175
-178
-179
-178
-180
-183
-183
-180
-179
-179
-178
-177
-170
-164
-170
-180
-167
-137
-121
-108
-71
-41
-55
-68
-50
-59
-107
-129
-129
-135
-125
-122
-138
-107
-97
-162
-157
-110
92
1006
1893
892
-1293
-1916
-883
-178
-120
-15
67
33
68
110
99
121
153
159
176
202
217
236
262
288
319
354
386
419
454
481
487
476
457
418
352
271
184
91
7
-56
-104
-139
-157
-163
-166
-163
-154
-147
-140
-130
-126
-129
-129
-125
-125
-128
-126
-126
-132
-135
-131
-132
-138
-141
-142
-141
-138
-139
-135
-115
-98
-97
-79
-46
-37
-43
-30
-36
-83
-109
-104
-118
-125
-111
-127
-132
-100
-129
-162
-121
-33
526
1593
1565
-321
-1874
-1471
-484
-174
-96
38
37
23
76
90
92
123
143
156
176
187
201
231
258
279
309
343
370
389
409
424
423
408
384
338
265
181
101
27
-39
-89
-126
-152
-160
-156
-151
-147
-140
-132
-125
-126
-134
-139
-134
-131
-135
-138
-137
-138
-140
-140
-140
-143
-143
-133
-130
-142
-139
-112
-97
-98
-72
-38
-43
-51
-31
-42
-97
-121
-114
-124
-125
-112
-124
-115
-88
-129
-147
-95
22
668
1667
1327
-680
-1949
-1312
-382
-146
-57
60
41
41
93
97
104
142
158
166
189
208
225
252
279
301
322
344
372
397
412
417
417
404
369
317
257
189
110
31
-34
-82
-117
-139
-147
-138
-126
-123
-126
-126
-123
-122
-125
-128
-129
-130
-132
-133
-130
-133
-142
-144
-140
-140
-144
-148
-151
-144
-120
-104
-100
-76
-43
-43
-47
-29
-40
-98
-129
-126
-132
-132
-124
-140
-127
-96
-143
-164
-104
31
708
1706
1297
-756
-1967
-1267
-355
-154
-69
50
31
36
90
92
102
137
144
149
179
204
216
235
260
286
314
341
362
383
405
415
407
392
368
319
248
173
97
28
-27
-81
-134
-159
-156
-152
-150
-139
-132
-135
-134
-125
-120
-127
-135
-134
-134
-143
-151
-147
-144
-147
-150
-150
-149
-152
-156
-142
-115
-106
-97
-65
-49
-62
-52
-39
-80
-123
-116
-118
-137
-122
-118
-138
-113
-111
-156
-137
-105
206
1233
1846
468
-1552
-1775
-734
-192
-121
13
57
24
76
109
99
127
158
159
168
186
205
228
252
276
302
328
363
405
436
457
474
472
444
404
347
260
162
72
-10
-83
-134
-165
-181
-180
-173
-176
-176
-162
-155
-159
-160
-158
-160
-157
-147
-140
-149
-169
-178
-169
-163
-166
-159
-140
-128
-129
-116
-88
-86
-104
-91
-73
-104
-145
-150
-154
-160
-143
-148
-168
-139
-134
-172
-147
-86
299
1337
1830
369
-1594
-1770
-773
-256
-162
-15
31
7
61
97
95
127
156
166
191
219
237
265
297
327
363
406
445
481
522
557
571
567
551
500
397
272
159
54
-48
-124
-167
-196
-218
-226
-219
-205
-193
-192
-195
-189
-179
-174
-174
-173
-171
-166
-165
-172
-177
-176
-178
-182
-171
-151
-137
-122
-97
-88
-109
-118
-100
-109
-152
-169
-167
-175
-166
-157
-178
-162
-130
-169
-177
-139
-13
727
1706
1103
-1040
-2076
-1211
-316
-152
-51
67
39
55
115
116
129
164
171
186
221
240
248
274
310
349
387
430
479
524
555
574
580
563
519
440
323
193
79
-19
-104
-161
-189
-203
-210
-209
-206
-199
-186
-177
-174
-168
-163
-165
-165
-163
-163
-163
-159
-160
-163
-160
-162
-169
-158
-130
-117
-105
-73
-62
-81
-81
-75
-112
-146
-144
-151
-157
-138
-152
-164
-117
-132
-180
-132
-102
257
1392
1891
235
-1758
-1701
-588
-152
-106
35
53
22
81
103
93
126
148
153
177
200
216
239
260
282
315
351
385
423
454
466
465
456
431
381
304
213
117
30
-42
-100
-148
-178
-186
-184
-180
-177
-171
-160
-150
-145
-145
-144
-141
-138
-137
-139
-139
-137
-140
-146
-144
-140
-142
-143
-132
-115
-107
-104
-80
-44
-43
-59
-53
-61
-107
-131
-126
-137
-137
-119
-137
-133
-91
-132
-168
-126
-88
463
1651
1683
-315
-1924
-1441
-426
-163
-95
41
25
16
80
87
84
122
142
143
159
182
206
229
249
278
313
344
377
411
432
444
450
441
409
353
277
190
102
18
-54
-110
-151
-176
-185
-187
-183
-173
-163
-159
-154
-147
-145
-148
-151
-149
-147
-150
-157
-157
-154
-157
-160
-162
-167
-171
-167
-158
-146
-134
-127
-111
-80
-67
-77
-72
-67
-103
-139
-136
-134
-140
-133
-146
-154
-112
-119
-166
-148
-143
212
1376
2005
497
-1556
-1708
-686
-211
-135
19
49
11
71
109
105
137
164
170
193
220
244
275
307
333
364
401
447
500
541
562
576
582
564
511
422
304
175
56
-42
-111
-160
-200
-224
-223
-214
-211
-204
-190
-185
-184
-174
-163
-159
-155
-153
-156
-156
-151
-150
-158
-164
-160
-155
-154
-151
-136
-120
-115
-104
-75
-63
-73
-70
-66
-101
-134
-129
-132
-143
-127
-129
-146
-117
-116
-163
-154
-132
214
1322
1978
565
-1514
-1773
-755
-230
-156
-7
45
15
65
95
85
115
146
154
178
206
223
249
281
310
345
389
431
471
509
537
550
544
509
439
341
224
98
-14
-103
-176
-229
-257
-269
-275
-280
-280
-274
-262
-249
-240
-233
-223
-212
-211
-217
-216
-212
-215
-221
-221
-221
-220
-218
-218
-220
-222
-221
-213
-196
-183
-179
-168
-133
-104
-111
-122
-108
-116
-159
-178
-173
-188
-185
-168
-186
-175
-135
-178
-208
-192
-129
609
1875
1633
-562
-1948
-1247
-322
-171
-95
39
8
10
79
87
91
124
140
157
191
213
229
255
285
319
357
396
435
476
510
528
534
531
502
436
346
255
167
81
8
-41
-73
-98
-110
-109
-101
-92
-82
-71
-55
-40
-33
-32
-25
-14
-9
-11
-9
-5
-6
-9
-4
-2
-3
-2
1
1
3
7
14
18
16
14
27
48
53
53
80
113
114
106
120
109
56
30
38
29
27
38
8
3
45
3
-48
-26
-31
496
1841
2145
184
-1665
-1354
-348
-92
-53
87
75
51
109
116
110
136
140
142
167
186
195
211
230
251
277
311
354
397
428
449
459
452
422
360
253
118
-12
-129
-237
-325
-383
-420
-442
-461
-480
-484
-472
-461
-458
-457
-460
-461
-450
-440
-439
-444
-456
-469
-472
-469
-465
-461
-460
-459
-456
-458
-459
-452
-451
-456
-454
-441
-423
-400
-384
-379
-354
-311
-299
-308
-291
-276
-303
-321
-307
-300
-287
-259
-253
-232
-191
-213
-234
-204
-62
679
1769
1464
-525
-1775
-1155
-274
-62
47
197
206
230
299
318
350
412
447
478
522
560
601
651
689
726
788
862
927
983
1041
1087
1115
1122
1087
991
854
710
568
