# session 33
-18
4
-23
-110
-90
86
201
201
229
286
319
371
444
502
558
622
666
671
623
510
345
164
5
-114
-196
-250
-275
-278
-280
-287
-283
-268
-257
-248
-232
-212
-203
-203
-197
-183
-178
-176
-167
-165
-167
-154
-145
-154
-152
-134
-133
-145
-137
-114
-101
-102
-103
-89
-72
-69
-63
-41
-38
-66
-83
-87
-97
-85
-70
-99
-93
-49
-97
-145
-162
-224
387
1920
2326
430
-1305
-1020
-219
-98
-63
74
47
39
111
112
107
149
166
167
194
221
235
255
284
314
345
386
437
491
549
602
638
665
668
594
449
290
132
-21
-131
-199
-254
-283
-283
-288
-299
-299
-293
-281
-267
-262
-259
-244
-239
-250
-247
-230
-227
-236
-234
-222
-215
-215
-212
-210
-209
-204
-208
-215
-203
-181
-175
-179
-168
-151
-147
-136
-107
-97
-124
-147
-151
-160
-155
-134
-156
-171
-124
-131
-180
-197
-311
-13
1394
2434
1124
-998
-1297
-434
-117
-129
10
48
2
29
55
80
124
127
119
148
169
174
206
247
264
277
315
369
419
459
498
535
563
576
546
444
291
145
26
-85
-180
-230
-248
-265
-275
-267
-259
-255
-240
-222
-223
-227
-211
-194
-192
-191
-180
-174
-174
-167
-157
-160
-165
-160
-154
-158
-160
-149
-139
-137
-128
-119
-124
-112
-82
-79
-91
-67
-46
-77
-108
-105
-115
-131
-112
-111
-136
-106
-89
-143
-163
-187
27
1090
2142
1281
-787
-1470
-690
-176
-136
-12
60
17
56
108
98
106
136
150
165
190
212
224
235
259
285
307
338
379
415
449
481
501
507
488
413
287
155
34
-75
-156
-206
-242
-269
-282
-282
-273
-263
-263
-263
-250
-233
-227
-227
-224
-218
-214
-216
-218
-211
-204
-209
-208
-193
-189
-199
-190
-160
-149
-158
-147
-119
-113
-110
-71
-50
-98
-148
-142
-130
-142
-134
-121
-133
-116
-94
-141
-169
-174
-56
815
2064
1707
-385
-1584
-961
-238
-143
-57
62
42
57
109
111
126
161
174
194
221
239
265
296
315
341
380
417
461
521
569
600
637
656
613
523
411
266
104
-25
-106
-171
-225
-250
-256
-259
-255
-242
-234
-231
-217
-201
-198
-199
-186
-171
-170
-172
-167
-167
-173
-170
-161
-154
-141
-134
-138
-124
-92
-89
-99
-76
-62
-99
-135
-137
-152
-173
-154
-148
-171
-151
-147
-205
-230
-264
6
1201
2277
1254
-918
-1531
-698
-219
-195
-67
-10
-50
-2
31
10
29
57
57
72
94
106
119
138
164
199
237
276
322
371
417
458
490
499
453
329
153
-19
-162
-280
-370
-422
-447
-460
-464
-462
-453
-439
-432
-432
-419
-399
-391
-388
-384
-388
-392
-379
-362
-358
-354
-333
-300
-273
-256
-249
-240
-203
-135
-72
-29
15
49
52
54
70
71
72
105
117
110
139
133
85
72
45
431
1738
2589
1234
-832
-1115
-256
83
100
260
300
250
294
321
306
321
332
328
340
351
353
364
383
401
416
442
483
519
536
544
554
559
542
481
363
203
42
-84
-178
-250
-289
-285
-254
-209
-153
-99
-72
-78
-103
-133
-171
-217
-258
-284
-301
-322
-347
-360
-358
-362
-375
-374
-361
-357
-354
-332
-317
-321
-312
-294
-308
-344
-358
-359
-364
-345
-326
-341
-319
-280
-328
-368
-370
-271
566
1884
1663
-412
-1689
-1089
-358
-270
-169
-40
-65
-24
34
-15
-11
50
52
88
172
149
94
165
255
266
293
368
413
432
477
536
562
548
518
471
393
293
185
82
5
-47
-107
-164
-180
-176
-170
-131
-99
-137
-173
-144
-121
-138
-139
-122
-122
-132
-136
-133
-135
-141
-121
-97
-114
-128
-86
-44
-45
-48
-53
-93
-135
-133
-121
-126
-121
-112
-106
-79
-73
-114
-146
-162
144
1171
1969
1043
-759
-1301
-631
-166
-109
-34
29
46
78
69
47
81
119
136
159
163
148
148
165
190
219
243
271
318
364
392
418
444
444
413
362
281
176
78
-10
-96
-168
-211
-231
-242
-245
-242
-241
-239
-224
-204
-204
-216
-218
-216
-221
-227
-224
-213
-197
-183
-176
-178
-179
-167
-150
-141
-148
-171
-190
-193
-200
-205
-190
-195
-210
-182
-181
-221
-235
-225
237
1497
2119
613
-1365
-1503
-583
-212
-177
-24
29
9
59
94
111
159
182
185
214
239
243
264
307
344
377
419
466
510
555
597
627
643
628
548
400
228
67
-84
-208
-279
-319
-355
-368
-358
-355
-355
-327
-290
-274
-269
-251
-230
-224
-223
-213
-203
-197
-187
-174
-162
-146
-131
-133
-146
-139
-114
-113
-142
-161
-167
-175
-171
-173
-191
-171
-148
-190
-243
-316
-143
940
2225
1648
-507
-1521
-843
-249
-209
-94
19
-22
-8
45
47
65
95
100
113
144
167
189
225
266
303
342
397
463
534
608
676
721
734
685
545
339
131
-39
-173
-275
-330
-345
-358
-371
-356
-330
-318
-311
-298
-287
-279
-272
-268
-259
-250
-244
-223
-192
-181
-184
-170
-155
-160
-155
-138
-154
-193
-204
-205
-218
-206
-195
-219
-192
-148
-202
-250
-286
-217
711
2165
1901
-337
-1654
-995
-246
-174
-81
48
13
23
80
86
111
146
144
154
191
221
243
265
294
339
387
439
506
579
645
711
773
802
749
591
372
153
-32
-166
-246
-297
-338
-359
-344
-323
-331
-344
-327
-309
-307
-298
-286
-284
-277
-273
-272
-245
-218
-229
-226
-186
-178
-197
-192
-196
-229
-237
-231
-248
-248
-229
-242
-231
-186
-222
-268
-289
-358
205
1769
2370
525
-1469
-1357
-443
-215
-174
-10
-7
-18
59
72
64
98
116
133
170
187
207
246
271
298
360
424
472
534
601
657
719
762
720
584
403
218
42
-112
-221
-282
-317
-335
-335
-328
-317
-303
-295
-287
-269
-245
-223
-214
-213
-208
-199
-199
-193
-173
-160
-156
-142
-124
-119
-121
-125
-144
-164
-164
-170
-177
-155
-147
-159
-130
-139
-204
-228
-317
-53
1328
2533
1359
-945
-1460
-570
-176
-179
-13
38
-24
31
76
61
87
118
124
148
181
198
215
243
274
310
352
393
440
491
533
567
592
580
500
361
204
53
-85
-190
-249
-286
-317
-329
-325
-322
-315
-301
-301
-308
-290
-261
-262
-281
-273
-251
-249
-257
-257
-256
-247
-230
-226
-225
-209
-198
-198
-178
-155
-175
-209
-222
-240
-244
-204
-199
-217
-160
-138
-209
-232
-292
-99
1139
2420
1490
-819
-1549
-696
-207
-214
-76
-6
-69
-26
26
3
13
49
68
91
118
153
204
244
272
321
387
443
494
552
619
687
740
750
683
540
364
192
47
-59
-126
-173
-209
-230
-228
-215
-211
-216
-206
-183
-171
-166
-147
-117
-100
-101
-113
-134
-152
-155
-155
-168
-185
-194
-182
-157
-162
-180
-158
-144
-193
-227
-207
-213
-236
-223
-219
-209
-156
-158
-199
-221
-217
379
1772
2169
366
-1446
-1270
-372
-130
-84
71
86
64
108
114
119
166
204
230
257
277
304
338
367
401
451
508
566
629
696
757
817
860
827
694
502
284
70
-96
-231
-350
-399
-381
-392
-438
-441
-410
-407
-427
-426
-403
-388
-391
-392
-389
-394
-398
-397
-411
-427
-416
-391
-382
-391
-395
-368
-337
-349
-356
-302
-251
-255
-268
-271
-283
-274
-248
-250
-244
-221
-248
-272
-328
-390
302
1864
2258
397
-1352
-1148
-363
-209
-159
8
5
-33
24
67
86
113
124
127
138
166
204
221
213
223
257
294
337
400
472
528
578
620
602
494
319
108
-74
-181
-260
-344
-375
-361
-361
-341
-251
-162
-111
-30
72
114
127
171
215
233
242
237
219
230
268
298
297
265
225
189
162
158
165
147
116
110
110
78
48
45
23
-15
-26
-24
-16
-25
-82
-113
-203
-303
434
2017
2261
274
-1385
-1076
-325
-216
-174
-36
-55
-80
-25
-8
-22
-22
-5
10
9
18
54
75
69
89
148
208
248
299
374
437
474
508
509
404
211
22
-149
-322
-430
-461
-513
-573
-551
-519
-550
-551
-504
-501
-509
-476
-467
-476
-452
-437
-451
-443
-428
-436
-438
-430
-432
-427
-411
-409
-405
-385
-381
-403
-406
-382
-358
-338
-330
-348
-358
-363
-399
-392
-271
-161
-138
-66
28
9
-29
-98
-1
1066
2514
2058
-144
-1185
-475
101
119
244
329
258
305
378
333
316
362
377
373
378
397
445
492
499
508
551
591
623
672
718
747
778
795
748
633
478
312
164
41
-60
-120
-142
-168
-194
-189
-175
-178
-169
-149
-152
-165
-157
-159
-181
-181
-169
-178
-186
-178
-174
-177
-186
-198
-197
-192
-203
-206
-186
-184
-196
-184
-167
-168
-154
-137
-168
-212
-221
-221
-214
-201
-230
-246
-197
-211
-273
-299
-375
44
1474
2266
734
-1259
-1334
-478
-241
-236
-74
-52
-91
-30
9
7
31
58
75
93
112
139
174
204
231
263
304
354
414
477
533
579
612
613
563
448
279
100
-52
-170
-263
-329
-354
-346
-345
-358
-345
-310
-293
-295
-286
-274
-274
-278
-281
-275
-257
-244
-244
-234
-217
-220
-224
-207
-200
-208
-189
-156
-162
-173
-135
-108
-138
-166
-169
-182
-179
-156
-164
-162
-117
-121
-161
-207
-243
293
1641
2169
602
-1194
-1198
-399
-164
-134
36
83
58
101
139
161
184
183
189
227
264
280
283
301
344
390
434
498
564
611
668
745
790
769
688
542
338
135
-19
-121
-194
-265
-327
-324
-264
-237
-255
-264
-281
-320
-311
-265
-273
-311
-303
-263
-217
-181
-205
-265
-289
-286
-272
-227
-197
-210
-208
-184
-180
-199
-216
-208
-167
-150
-184
-213
-210
-197
-177
-178
-195
-172
-159
-194
-237
-312
-7
1210
2159
1096
-867
-1318
-556
-183
-180
-39
47
24
61
100
96
106
135
167
191
200
213
233
257
300
350
384
430
505
583
644
695
747
778
729
574
376
195
29
-117
-214
-272
-312
-326
-319
-310
-304
-294
-282
-273
-263
-255
-249
-242
-234
-225
-211
-200
-204
-215
-220
-208
-184
-174
-181
-175
-160
-154
-141
-118
-119
-124
-101
-92
-118
-131
-129
-126
-116
-123
-117
-75
-100
-172
-215
-312
59
1506
2520
1198
-908
-1228
-428
-148
-145
13
41
-5
45
61
36
60
77
65
81
110
116
121
146
177
204
240
296
357
410
462
514
546
551
520
417
246
79
-40
-133
-212
-268
-303
-318
-315
-308
-301
-286
-270
-270
-275
-265
-246
-236
-242
-253
-243
-218
-215
-229
-230
-223
-225
-222
-205
-183
-173
-174
-171
-160
-145
-121
-107
-124
-143
-149
-162
-158
-142
-163
-161
-109
-143
-207
-232
-331
129
1661
2435
782
-1207
-1196
-349
-157
-139
25
33
12
75
81
76
114
120
116
149
175
182
207
241
256
264
293
349
414
471
521
568
608
625
582
454
272
95
-49
-161
-238
-286
-321
-334
-320
-306
-302
-292
-274
-264
-253
-241
-243
-248
-230
-206
-207
-216
-209
-198
-191
-170
-148
-150
-150
-135
-129
-119
-84
-67
-94
-118
-122
-129
-119
-103
-115
-100
-66
-109
-163
-186
-97
697
1971
1807
-192
-1506
-965
-210
-96
5
164
149
153
226
243
250
267
262
282
326
332
334
382
431
454
494
561
624
681
747
813
859
872
844
758
613
435
262
125
39
-12
-47
-55
-41
-44
-73
-119
-199
-306
-398
-467
-515
-544
-570
-602
-633
-670
-698
-699
-688
-695
-708
-696
-670
-660
-656
-642
-638
-642
-619
-582
-581
-604
-613
-633
-672
-656
-601
-587
-579
-569
-565
-493
-476
-298
892
2371
1812
-393
-1274
-464
73
35
129
170
30
16
107
149
189
250
303
353
394
439
500
546
570
615
682
730
776
845
897
903
920
970
975
868
670
437
212
18
-140
-259
-336
-382
-412
-420
-403
-375
-342
-288
-216
-158
-121
-91
-60
-24
3
-5
-45
-86
-130
-173
-183
-169
-183
-211
-207
-196
-193
-173
-170
-226
-275
-276
-283
-298
-286
-286
-251
-113
-43
-103
-138
-215
40
1374
2554
1428
-818
-1367
-568
-226
-265
-155
-130
-165
-88
-51
-64
10
126
215
274
310
365
460
547
613
686
749
799
868
927
917
868
833
790
683
506
301
102
-79
-226
-326
-394
-443
-460
-457
-467
-481
-468
-448
-447
-448
-438
-429
-429
-435
-438
-428
-420
-424
-420
-400
-388
-390
-382
-366
-367
-372
-352
-323
-316
-328
-352
-372
-348
-321
-347
-348
-321
-369
-413
-462
-482
306
1863
2009
-27
-1597
-1185
-449
-382
-317
-151
-171
-186
-120
-94
-70
-17
16
68
172
286
381
460
492
467
445
474
524
561
600
642
659
647
607
498
324
158
42
-34
-87
-134
-180
-201
-187
-160
-134
-105
-83
-70
-54
-35
-21
-12
-15
-32
-45
-46
-32
10
64
71
35
38
82
103
109
116
71
-14
-40
-14
-36
-99
-119
-116
-128
-122
-115
-126
-85
-53
-100
-126
-225
-180
917
2411
1889
-385
-1392
-643
-87
-73
76
176
104
134
200
151
64
-4
-59
-97
-103
-64
-16
20
89
174
219
278
387
470
497
525
570
589
554
448
259
37
-122
-189
-220
-246
-265
-282
-281
-258
-249
-252
-237
-218
-214
-207
-192
-179
-177
-192
-212
-212
-200
-205
-217
-207
-201
-226
-229
-190
-186
-221
-201
-159
-182
-203
-166
-164
-216
-239
-241
-245
-228
-233
-267
-234
-211
-284
-310
-396
-459
490
2142
2003
-236
-1571
-972
-330
-305
-208
-101
-170
-157
-71
-69
-82
-51
-15
4
13
34
68
87
101
140
199
269
337
387
435
497
554
590
572
476
335
166
-19
-150
-219
-285
-329
-333
-342
-332
-279
-245
-243
-227
-201
-169
-138
-131
-117
-66
-38
-47
-30
7
13
33
86
111
117
161
199
197
206
232
259
308
347
337
334
363
374
382
406
357
236
182
156
16
-75
81
