# session 10
47
-2
109
-26
-320
226
1365
1215
-318
-1123
-643
-187
-145
-72
-5
-29
1
51
59
93
162
219
263
319
385
421
418
428
469
490
460
383
270
156
74
19
-33
-88
-126
-141
-155
-178
-185
-167
-145
-151
-183
-189
-167
-175
-207
-206
-184
-183
-164
-135
-157
-167
-222
-454
-260
854
1487
293
-1191
-1125
-372
-172
-173
-37
-12
-40
14
47
62
123
174
205
268
338
376
397
412
416
417
403
343
240
131
34
-41
-91
-129
-161
-179
-187
-198
-207
-201
-183
-178
-199
-216
-204
-194
-210
-227
-215
-200
-191
-164
-160
-182
-166
-285
-481
46
1160
1048
-567
-1459
-828
-198
-169
-108
20
-1
-6
55
80
99
140
187
254
329
376
399
413
410
396
388
370
303
186
69
-11
-59
-93
-117
-139
-164
-174
-175
-187
-187
-152
-133
-165
-186
-161
-143
-163
-171
-150
-147
-156
-113
-84
-135
-164
-262
-453
20
1254
1467
-61
-1245
-855
-215
-139
-92
23
-9
-19
44
55
69
139
204
246
298
362
411
422
396
380
408
422
353
243
161
98
31
-21
-53
-81
-96
-101
-109
-109
-103
-103
-105
-106
-108
-105
-100
-106
-116
-119
-109
-105
-118
-108
-88
-113
-139
-239
-403
59
1224
1412
-60
-1197
-816
-185
-109
-84
12
-12
-10
58
75
81
130
181
230
301
366
395
407
430
463
480
456
381
271
150
35
-56
-116
-156
-182
-197
-219
-247
-259
-257
-249
-226
-210
-229
-253
-242
-219
-224
-245
-242
-224
-228
-216
-169
-170
-200
-231
-373
-243
651
1237
159
-1359
-1368
-484
-126
-124
-9
48
33
82
119
127
168
214
256
322
386
436
481
496
480
477
476
423
314
197
108
40
-28
-82
-108
-130
-152
-149
-142
-163
-178
-156
-132
-138
-155
-166
-167
-160
-168
-183
-165
-137
-147
-144
-122
-137
-146
-237
-403
32
1082
1084
-466
-1471
-904
-202
-129
-84
41
32
39
90
81
100
174
221
261
333
395
428
446
442
432
440
434
359
228
108
36
-13
-71
-124
-145
-141
-145
-170
-187
-181
-173
-167
-151
-147
-153
-138
-129
-163
-195
-182
-149
-138
-148
-132
-98
-118
-161
-253
-406
-31
1071
1383
17
-1212
-906
-221
-119
-109
18
18
-10
34
59
80
136
184
223
277
329
360
378
390
398
413
412
358
267
185
112
38
-30
-77
-93
-98
-117
-134
-130
-117
-114
-125
-126
-109
-102
-123
-133
-114
-105
-126
-141
-119
-101
-105
-84
-73
-115
-154
-275
-334
344
1376
1054
-537
-1247
-636
-142
-123
-52
21
-10
10
49
49
95
166
201
240
306
364
397
414
433
462
476
436
341
227
124
30
-58
-123
-158
-177
-188
-193
-203
-221
-230
-223
-209
-195
-173
-160
-178
-194
-180
-180
-215
-221
-180
-172
-205
-183
-140
-150
-185
-303
-351
254
1120
710
-842
-1493
-806
-210
-148
-76
28
24
41
88
109
141
182
219
277
346
398
439
466
473
480
481
436
333
212
110
32
-27
-73
-116
-141
-145
-153
-168
-172
-168
-165
-161
-157
-149
-143
-161
-176
-154
-141
-175
-190
-154
-131
-135
-114
-102
-129
-152
-304
-423
242
1329
1060
-547
-1301
-683
-160
-137
-49
48
9
34
108
114
128
187
239
294
360
413
448
473
478
467
455
427
345
220
109
35
-20
-66
-98
-115
-131
-151
-158
-155
-155
-148
-145
-151
-142
-129
-148
-167
-157
-149
-157
-156
-142
-136
-131
-99
-101
-165
-204
-305
-343
356
1411
1107
-483
-1219
-642
-163
-152
-88
4
-11
-18
-2
18
67
110
146
211
279
323
353
365
368
380
387
362
300
209
116
48
-8
-68
-109
-118
-118
-120
-121
-128
-135
-125
-110
-116
-128
-124
-124
-136
-133
-122
-128
-145
-143
-127
-126
-118
-92
-110
-144
-185
-353
-193
829
1540
509
-1000
-1091
-398
-169
-172
-56
-19
-36
6
36
56
104
149
196
267
339
392
428
450
470
488
481
426
324
195
76
-11
-80
-142
-181
-192
-200
-209
-210
-211
-217
-215
-210
-207
-197
-189
-197
-207
-206
-206
-222
-232
-212
-190
-179
-159
-160
-173
-210
-382
-305
607
1410
558
-1035
-1306
-543
-166
-155
-32
44
24
62
104
105
135
190
242
302
372
443
486
492
490
493
474
416
323
206
92
4
-60
-101
-126
-146
-160
-165
-162
-162
-169
-171
-159
-151
-149
-145
-155
-171
-158
-135
-150
-173
-154
-129
-131
-108
-77
-110
-139
-227
-417
-16
1187
1530
108
-1158
-877
-230
-122
-81
33
19
17
72
84
106
160
202
261
336
389
445
489
477
443
431
407
345
255
142
26
-53
-96
-138
-170
-174
-175
-185
-187
-183
-183
-176
-171
-179
-179
-173
-183
-185
-168
-165
-183
-187
-166
-160
-171
-141
-116
-161
-201
-313
-423
197
1382
1331
-258
-1225
-748
-208
-164
-108
-23
-45
-22
29
29
52
113
155
198
270
348
398
404
389
382
377
359
311
216
100
22
-24
-82
-128
-131
-132
-151
-155
-149
-153
-161
-164
-158
-143
-138
-143
-150
-159
-159
-144
-139
-152
-145
-123
-127
-124
-87
-94
-131
-163
-299
-188
674
1352
521
-854
-1031
-408
-133
-114
-19
17
3
42
72
91
140
190
229
288
358
414
453
476
486
497
502
472
392
281
171
75
-6
-69
-110
-135
-152
-165
-171
-178
-191
-201
-193
-184
-194
-210
-207
-197
-200
-202
-193
-193
-206
-209
-192
-183
-171
-126
-114
-155
-193
-325
-298
530
1470
845
-809
-1315
-615
-181
-171
-65
21
-7
16
61
72
110
168
217
281
360
423
469
502
513
501
483
449
369
243
114
17
-52
-109
-148
-168
-182
-188
-187
-191
-198
-200
-200
-198
-195
-187
-169
-165
-183
-186
-166
-163
-186
-196
-175
-159
-163
-136
-103
-125
-132
-194
-371
-16
1099
1385
-76
-1390
-1072
-296
-123
-102
31
60
52
104
137
154
190
232
287
366
451
521
555
550
533
510
466
386
274
156
55
-31
-96
-130
-147
-170
-186
-181
-174
-177
-177
-177
-179
-178
-171
-159
-152
-169
-185
-171
-152
-167
-188
-174
-146
-140
-126
-97
-109
-125
-182
-378
-164
918
1525
322
-1208
-1185
-395
-128
-110
14
42
19
70
105
116
160
211
260
327
401
467
511
520
502
473
435
369
268
162
70
-21
-102
-142
-155
-172
-188
-191
-189
-192
-194
-198
-200
-195
-188
-188
-184
-180
-191
-202
-185
-162
-170
-193
-182
-147
-138
-129
-107
-121
-130
-207
-440
-156
1082
1722
430
-1113
-1060
-329
-133
-125
0
24
8
56
81
100
158
210
255
325
403
463
501
505
479
447
412
348
256
157
60
-26
-88
-131
-166
-188
-188
-180
-180
-182
-180
-178
-180
-185
-187
-183
-175
-165
-156
-166
-182
-173
-146
-152
-187
-184
-140
-129
-136
-112
-118
-148
-203
-409
-279
821
1704
724
-937
-1151
-423
-148
-149
-15
21
-34
2
53
67
107
163
211
271
344
409
455
471
460
446
431
391
312
213
110
17
-51
-89
-113
-136
-148
-147
-145
-148
-150
-151
-153
-144
-136
-150
-169
-172
-160
-150
-158
-173
-159
-129
-135
-173
-187
-157
-131
-133
-113
-96
-131
-145
-219
-366
80
1163
1271
-160
-1203
-818
-225
-130
-76
21
1
4
60
77
94
142
189
242
315
384
436
472
490
490
489
483
440
354
245
133
41
-20
-64
-100
-128
-146
-150
-145
-147
-159
-167
-169
-169
-165
-173
-192
-195
-178
-167
-174
-179
-170
-162
-166
-176
-178
-164
-149
-150
-126
-96
-122
-147
-224
-349
132
1261
1368
-166
-1296
-866
-204
-120
-86
34
35
34
82
102
135
192
226
267
339
416
473
506
521
537
536
492
413
312
194
76
-17
-78
-119
-153
-176
-184
-190
-195
-192
-199
-215
-219
-215
-213
-205
-204
-213
-193
-161
-180
-214
-195
-168
-185
-203
-181
-159
-167
-157
-116
-123
-145
-188
-391
-271
780
1585
565
-1064
-1220
-447
-146
-139
-2
44
5
52
96
98
138
201
247
297
365
425
463
485
488
474
452
410
320
202
92
3
-67
-115
-142
-159
-169
-173
-174
-169
-159
-153
-158
-159
-148
-139
-142
-143
-129
-119
-132
-145
-136
-123
-133
-155
-151
-118
-107
-112
-91
-93
-128
-158
-319
-326
572
1667
1111
-624
-1242
-593
-173
-170
-77
-8
-42
-16
31
48
91
143
183
254
346
415
459
486
479
450
433
410
347
257
163
61
-19
-60
-92
-120
-128
-134
-143
-142
-140
-146
-148
-144
-141
-141
-146
-155
-159
-158
-159
-167
-167
-158
-163
-177
-184
-177
-155
-136
-121
-102
-124
-150
-155
-301
-281
569
1444
760
-765
-1142
-520
-180
-149
-37
15
-14
15
62
88
123
158
198
264
340
412
469
502
515
512
493
461
412
328
211
88
-8
-64
-89
-108
-134
-150
-147
-154
-178
-188
-179
-180
-190
-190
-192
-204
-204
-185
-177
-193
-214
-219
-205
-201
-223
-227
-195
-179
-160
-116
-131
-174
-214
-372
-177
895
1565
405
-1151
-1170
-431
-209
-184
-19
27
2
47
77
93
148
201
246
320
409
489
549
574
565
544
519
463
352
216
95
-16
-99
-123
-137
-187
-218
-202
-184
-182
-185
-189
-190
-196
-205
-193
-167
-161
-180
-191
-179
-167
-162
-159
-169
-178
-157
-131
-112
-90
-104
-131
-205
-385
-87
1100
1733
496
-1031
-1016
-327
-148
-124
32
64
46
101
130
141
190
235
275
349
427
482
531
556
517
451
407
348
244
134
39
-48
-117
-153
-169
-175
-169
-153
-144
-153
-170
-172
-164
-163
-173
-183
-193
-199
-200
-205
-202
-180
-170
-191
-203
-182
-166
-167
-131
-93
-125
-160
-279
-480
91
1619
2058
350
-1195
-945
-291
-244
-224
-100
-139
-157
-70
-31
-11
43
84
122
197
309
423
491
507
521
528
448
281
147
105
58
-66
-174
-189
-204
-311
-423
-406
-277
-225
-380
-528
-386
-185
-275
-409
-325
-312
-474
-492
-349
-275
-301
-348
-331
-255
-244
-204
-37
-15
-184
-255
-200
182
978
1020
-376
-1576
-1288
-561
-342
-175
120
127
-49
110
621
932
766
589
820
1146
1222
1296
1598
1874
1847
1589
1311
1073
830
620
471
295
134
130
150
46
-10
20
-110
-323
-470
-908
-1547
-1464
-723
-427
-512
-311
-235
-545
-749
-627
131
1217
812
-1223
-2222
-1347
-508
-363
-204
-122
-230
-113
59
-69
-153
74
276
271
286
372
331
202
255
472
475
187
45
213
298
141
7
-46
-130
-150
-71
-85
-236
-281
-119
-66
-291
-370
-52
161
-95
-393
-348
-173
-111
-110
-111
-150
-230
-319
-375
-331
-160
-17
-97
-256
-230
-166
-236
-217
-101
-223
-521
-491
173
931
655
-623
-1378
-1041
-548
-254
70
98
-162
-106
144
102
31
187
247
215
377
588
678
739
688
545
630
847
800
613
582
555
401
280
227
173
157
179
171
128
74
42
69
78
-16
-136
-211
-279
-296
-185
-21
68
44
-18
-26
12
58
90
46
-46
-169
-262
333
1721
2059
345
-1237
-1020
-297
-144
-85
9
-61
-110
-142
-280
-358
-306
-223
-76
119
241
333
466
528
501
531
549
370
139
67
-23
-255
-367
-336
-455
-652
-678
-599
-521
-447
-447
-479
-412
-338
-400
-489
-457
-368
-322
-300
-289
-295
-286
-288
-280
-151
-24
-97
-164
-95
68
834
1977
1630
-453
-1751
-1279
-652
-538
-347
-120
-89
-122
-108
157
715
1020
742
296
101
135
294
532
730
772
690
590
464
247
7
-152
-227
-264
-339
-497
-600
-515
-371
-298
-215
-96
-7
57
58
-39
-58
67
91
-33
-56
53
123
97
4
-107
-177
-201
-250
-335
85
1509
2576
1448
-684
-1326
-725
-390
-321
-137
-31
20
103
86
37
101
206
310
435
514
539
581
625
633
612
512
320
147
57
4
-63
-202
-367
-352
-193
-191
-307
-254
-132
-184
-294
-307
-310
-349
-363
-357
-347
-292
-225
-242
-314
-344
-354
-372
-370
-423
-624
-883
-737
378
1686
1308
-513
-1362
-766
-278
-202
-23
-2
-147
-10
211
142
11
67
179
257
390
562
654
694
770
804
719
588
465
327
172
14
-118
-174
-164
-147
-149
-143
-97
-14
42
12
-48
-48
-56
-161
-287
-378
-486
-544
-475
-405
-405
-394
-420
-525
-487
-308
-222
250
1479
1953
381
-1449
-1480
-607
-260
-194
-4
129
179
225
248
293
345
326
312
387
433
395
422
549
611
577
553
509
398
319
300
229
119
19
-155
-338
-321
-250
-390
-547
-472
-366
-373
-306
-165
-139
-171
-154
-191
-260
-215
-159
-190
-146
-63
-151
-284
-272
13
911
1902
1400
-502
-1589
-1081
-344
-131
-106
-92
-63
46
118
96
132
253
318
331
411
526
578
590
593
536
417
340
376
412
317
156
48
-20
-76
-114
-203
-387
-534
-553
-560
-633
-684
-671
-648
-623
-565
-484
-412
-335
-207
-71
-19
-3
50
19
-128
-268
-463
-450
580
2035
1769
-171
-1174
-566
-52
-105
-27
95
25
16
86
78
68
104
123
158
240
327
448
604
669
591
461
352
269
166
-3
-181
-306
-421
-488
-432
-357
-336
-296
-289
-367
-378
-311
-303
-282
-192
-208
-354
-435
-377
-266
-192
-168
-144
-144
-202
-277
-280
136
1140
1643
535
-1042
-1307
-669
-367
-344
-182
-50
-19
108
279
281
199
291
470
493
473
580
663
644
682
777
793
728
644
535
372
176
61
53
-19
-181
-211
-88
-15
-33
-54
-38
10
43
47
71
85
36
-29
-57
-71
-128
-218
-258
-305
-455
-546
-623
-778
-110
1643
2202
317
-1502
-1368
-651
-462
-357
-263
-350
-345
-212
-158
-122
-6
110
164
206
294
390
428
456
531
563
474
327
190
72
-7
-45
-66
-52
1
18
-38
