# session 35
57
31
113
-6
-360
-505
-363
-267
-275
-245
-205
-199
-177
-147
-132
-112
-85
-65
-44
-17
11
44
83
119
153
196
243
280
307
331
339
304
222
114
7
-88
-163
-212
-240
-252
-249
-238
-227
-220
-214
-205
-195
-188
-184
-181
-175
-168
-164
-160
-157
-153
-151
-149
-143
-136
-130
-122
-115
-122
-131
-120
-107
-108
-92
-58
-55
-79
-85
-84
-92
-81
-74
-85
-66
-57
-95
-121
-218
-160
730
1819
1333
-340
-978
-397
-44
-81
5
73
34
58
97
89
100
122
123
135
156
168
185
210
233
255
284
320
360
403
439
468
491
497
462
373
244
111
1
-84
-148
-191
-214
-220
-217
-211
-208
-205
-200
-194
-189
-188
-187
-185
-182
-184
-187
-184
-181
-179
-176
-173
-166
-157
-158
-164
-151
-132
-135
-133
-107
-99
-120
-127
-125
-135
-129
-124
-138
-123
-103
-136
-173
-255
-226
538
1628
1328
-315
-1129
-591
-126
-120
-42
46
9
21
66
62
73
104
111
118
140
158
177
201
224
249
282
320
359
400
435
462
486
496
458
359
224
88
-29
-114
-171
-210
-231
-233
-228
-227
-225
-220
-217
-210
-195
-181
-176
-175
-174
-171
-171
-171
-165
-161
-166
-171
-165
-151
-136
-137
-149
-142
-122
-122
-126
-111
-110
-132
-142
-135
-123
-107
-112
-127
-107
-106
-141
-166
-273
-174
764
1773
1155
-510
-1058
-454
-100
-106
-13
42
9
40
73
67
83
104
109
125
144
153
171
199
224
250
284
321
359
398
434
463
481
480
438
337
200
69
-37
-118
-169
-198
-219
-228
-225
-216
-205
-197
-195
-191
-181
-173
-167
-161
-159
-161
-161
-158
-158
-159
-156
-154
-153
-142
-130
-138
-150
-135
-121
-130
-122
-89
-86
-113
-122
-124
-132
-121
-113
-128
-112
-99
-133
-154
-246
-240
567
1730
1433
-242
-1057
-526
-91
-102
-31
47
10
32
82
75
74
91
103
130
153
156
173
205
221
234
268
306
339
378
414
435
455
465
428
333
212
91
-19
-106
-165
-200
-218
-222
-218
-216
-217
-214
-202
-190
-190
-194
-189
-179
-175
-175
-173
-171
-169
-165
-159
-156
-157
-158
-155
-147
-142
-148
-151
-138
-124
-113
-96
-89
-106
-118
-117
-121
-114
-105
-120
-109
-78
-111
-142
-195
-302
188
1438
1766
312
-957
-699
-134
-99
-76
40
21
12
60
57
54
85
94
91
110
133
150
167
190
218
248
278
312
352
391
422
441
450
434
369
259
136
20
-78
-145
-184
-204
-213
-211
-203
-200
-198
-192
-196
-214
-215
-181
-149
-146
-150
-144
-139
-142
-146
-144
-142
-142
-140
-136
-134
-132
-126
-117
-114
-123
-130
-122
-113
-103
-79
-62
-76
-90
-89
-97
-99
-85
-90
-87
-59
-86
-125
-162
-279
54
1231
1833
621
-822
-790
-178
-67
-74
37
31
4
52
65
57
78
93
101
120
132
143
165
187
205
231
266
301
338
379
412
435
448
440
388
287
164
47
-48
-119
-168
-199
-213
-214
-212
-208
-198
-191
-193
-192
-182
-174
-174
-173
-168
-166
-163
-160
-159
-160
-159
-157
-155
-150
-143
-141
-142
-136
-124
-118
-127
-135
-126
-114
-110
-94
-77
-87
-104
-104
-108
-109
-96
-103
-105
-77
-88
-119
-157
-262
36
1117
1711
590
-842
-866
-237
-73
-72
40
50
24
70
88
82
102
115
120
141
162
176
197
220
240
265
299
336
375
414
446
471
488
481
424
311
177
53
-47
-124
-176
-209
-225
-227
-223
-217
-210
-203
-197
-188
-182
-182
-180
-173
-167
-161
-158
-159
-159
-154
-148
-145
-144
-143
-142
-142
-139
-135
-132
-130
-125
-128
-138
-133
-114
-110
-104
-73
-60
-87
-99
-94
-100
-97
-88
-101
-88
-68
-99
-130
-217
-236
476
1627
1473
-120
-1010
-527
-63
-75
-26
56
18
24
69
69
78
106
114
121
138
148
159
184
214
236
256
290
334
373
405
433
452
460
438
365
253
132
22
-70
-133
-172
-197
-209
-209
-204
-199
-194
-188
-180
-175
-172
-169
-163
-158
-158
-158
-154
-149
-148
-146
-146
-146
-143
-141
-141
-139
-136
-136
-134
-131
-130
-124
-116
-120
-128
-118
-108
-108
-86
-56
-66
-91
-93
-95
-98
-87
-96
-101
-73
-86
-121
-150
-265
-4
1097
1792
726
-755
-840
-225
-66
-76
34
40
7
51
71
63
83
101
108
124
139
152
170
192
214
241
274
314
357
398
429
452
469
470
427
327
200
76
-32
-113
-164
-198
-223
-234
-231
-219
-207
-202
-198
-185
-172
-166
-164
-160
-158
-158
-160
-155
-146
-144
-149
-150
-146
-144
-145
-145
-140
-134
-132
-126
-114
-119
-128
-115
-101
-106
-94
-67
-71
-94
-102
-108
-108
-94
-100
-109
-83
-87
-121
-154
-251
-5
1018
1692
679
-809
-935
-284
-73
-81
31
56
25
63
82
78
103
118
120
144
166
174
192
219
241
269
307
345
382
424
462
488
505
497
438
329
197
70
-40
-122
-175
-207
-225
-234
-230
-219
-211
-206
-199
-191
-184
-178
-171
-165
-161
-156
-151
-151
-153
-152
-150
-149
-148
-146
-145
-143
-140
-134
-130
-132
-130
-114
-107
-121
-127
-111
-106
-109
-83
-57
-72
-93
-96
-102
-97
-86
-102
-97
-64
-91
-128
-170
-254
195
1362
1692
307
-953
-719
-129
-67
-59
47
33
20
64
67
66
93
105
111
128
145
162
181
197
221
254
285
320
361
401
430
453
471
459
393
285
161
44
-52
-121
-168
-198
-216
-223
-222
-216
-208
-201
-196
-191
-183
-175
-171
-169
-164
-160
-156
-152
-151
-152
-152
-150
-147
-145
-142
-139
-139
-134
-127
-127
-127
-117
-116
-127
-126
-120
-112
-84
-55
-66
-90
-98
-105
-105
-91
-98
-97
-70
-90
-125
-152
-259
31
1149
1794
664
-803
-833
-204
-58
-70
40
43
12
57
73
69
94
107
108
129
150
160
177
202
227
255
286
321
359
395
428
461
483
474
419
320
197
77
-25
-103
-156
-190
-208
-212
-209
-206
-201
-196
-193
-188
-180
-172
-170
-170
-164
-157
-155
-153
-148
-148
-152
-150
-145
-143
-140
-137
-134
-133
-135
-132
-128
-129
-126
-117
-121
-130
-119
-104
-101
-80
-46
-51
-79
-86
-91
-99
-84
-83
-90
-66
-73
-111
-134
-234
-59
942
1775
915
-651
-928
-293
-52
-80
17
47
11
44
69
64
83
99
106
124
141
152
169
189
214
245
270
300
347
395
431
464
490
487
441
353
232
102
-15
-107
-174
-214
-236
-243
-238
-233
-230
-219
-203
-193
-188
-185
-185
-184
-174
-166
-165
-166
-163
-157
-153
-154
-155
-147
-140
-140
-139
-135
-136
-129
-121
-130
-136
-121
-112
-110
-86
-67
-84
-102
-103
-110
-109
-96
-103
-101
-78
-97
-124
-161
-188
294
1325
1467
67
-1091
-805
-195
-89
-47
62
48
43
97
103
103
131
142
146
170
191
205
228
256
284
317
355
396
438
481
521
553
567
538
452
321
173
38
-70
-145
-193
-222
-240
-249
-248
-239
-230
-227
-221
-209
-198
-190
-181
-175
-174
-170
-163
-158
-158
-160
-161
-159
-156
-154
-150
-146
-144
-140
-135
-139
-141
-135
-139
-147
-132
-116
-123
-113
-79
-78
-106
-111
-109
-119
-112
-105
-113
-93
-85
-122
-148
-234
-171
658
1677
1221
-384
-1024
-457
-70
-82
-4
62
26
44
78
72
88
111
115
128
148
162
182
210
232
258
294
334
377
421
459
491
519
529
492
398
263
122
4
-87
-153
-193
-211
-222
-228
-224
-219
-215
-206
-196
-190
-186
-181
-173
-164
-158
-159
-159
-155
-154
-156
-155
-150
-148
-147
-144
-143
-144
-141
-138
-138
-131
-123
-130
-136
-119
-105
-108
-92
-65
-72
-97
-103
-107
-109
-96
-101
-107
-78
-85
-123
-147
-254
-47
1018
1851
921
-669
-920
-291
-69
-91
12
38
8
47
66
58
82
99
101
117
135
149
171
195
215
240
275
314
352
388
423
454
475
476
434
340
218
95
-16
-105
-166
-201
-219
-229
-233
-228
-219
-211
-204
-193
-185
-182
-179
-171
-162
-158
-157
-153
-148
-149
-149
-147
-145
-141
-136
-137
-138
-133
-122
-119
-119
-118
-115
-110
-99
-95
-107
-108
-88
-78
-73
-50
-40
-64
-77
-72
-83
-86
-72
-81
-73
-41
-73
-109
-136
-213
199
1345
1736
407
-891
-719
-134
-54
-42
61
43
27
74
82
83
108
116
121
141
154
164
183
204
226
251
278
311
349
387
425
456
472
465
419
326
202
80
-23
-106
-163
-194
-211
-223
-226
-218
-209
-204
-198
-192
-184
-174
-170
-168
-162
-156
-156
-155
-155
-155
-152
-149
-152
-156
-157
-153
-144
-141
-144
-144
-136
-132
-132
-129
-125
-119
-111
-116
-129
-120
-96
-95
-95
-64
-48
-76
-98
-97
-101
-95
-81
-90
-84
-69
-103
-127
-168
-183
414
1497
1451
-73
-1062
-645
-126
-93
-42
51
23
27
72
71
81
111
118
126
147
162
180
204
219
232
260
303
346
384
424
464
495
512
500
433
311
174
52
-53
-137
-193
-224
-238
-240
-237
-232
-220
-206
-200
-197
-187
-173
-164
-158
-154
-151
-146
-137
-130
-124
-115
-104
-98
-94
-91
-89
-80
-71
-74
-78
-72
-72
-85
-85
-72
-75
-75
-51
-43
-73
-94
-93
-103
-103
-92
-109
-107
-79
-112
-153
-196
-285
166
1376
1763
359
-980
-783
-178
-105
-93
17
0
-14
38
42
34
60
72
77
98
116
129
150
175
202
237
279
323
368
412
448
475
492
482
420
307
174
46
-61
-139
-190
-225
-247
-255
-250
-240
-232
-224
-214
-200
-186
-176
-172
-165
-157
-153
-152
-154
-156
-155
-151
-154
-157
-153
-148
-146
-143
-136
-129
-121
-115
-114
-108
-95
-98
-113
-106
-86
-84
-76
-40
-30
-67
-88
-83
-89
-85
-73
-87
-79
-49
-81
-110
-133
-187
287
1420
1659
235
-976
-707
-131
-70
-45
60
37
26
74
74
67
95
109
111
125
140
154
176
198
220
249
285
320
356
396
432
455
469
463
412
314
197
83
-18
-95
-145
-176
-197
-206
-203
-198
-194
-190
-185
-183
-182
-178
-169
-161
-159
-156
-150
-143
-140
-137
-136
-138
-138
-136
-136
-139
-139
-132
-125
-124
-126
-125
-122
-116
-112
-119
-127
-118
-102
-94
-77
-50
-54
-77
-80
-82
-98
-90
-81
-100
-87
-68
-107
-131
-180
-154
555
1604
1322
-277
-1074
-553
-105
-107
-41
38
5
20
65
65
79
107
114
123
142
156
175
198
217
242
275
313
352
394
436
479
516
529
502
430
318
187
59
-47
-126
-180
-211
-227
-234
-234
-232
-227
-221
-215
-210
-202
-191
-183
-176
-171
-170
-169
-165
-161
-165
-169
-167
-165
-164
-161
-154
-149
-148
-143
-131
-129
-140
-135
-114
-107
-99
-67
-49
-75
-99
-97
-101
-104
-94
-104
-103
-77
-100
-133
-161
-248
120
1270
1774
479
-963
-874
-213
-77
-66
58
57
36
86
86
65
87
104
107
126
147
160
177
200
229
261
296
338
388
435
477
511
529
515
453
340
199
64
-48
-131
-186
-218
-234
-240
-239
-233
-226
-220
-215
-207
-197
-185
-176
-171
-167
-161
-157
-154
-152
-153
-155
-152
-146
-146
-148
-145
-139
-136
-134
-131
-127
-126
-128
-121
-108
-113
-126
-118
-100
-96
-81
-50
-53
-88
-96
-90
-96
-89
-82
-98
-81
-57
-95
-119
-177
-205
466
1641
1557
-42
-1000
-546
-68
-75
-24
64
28
34
78
73
79
104
107
113
136
154
166
182
203
226
255
291
335
380
417
449
476
496
484
415
303
179
61
-38
-131
-229
-280
-243
-196
-200
-209
-195
-186
-186
-182
-177
-172
-168
-169
-163
-150
-144
-144
-142
-143
-147
-145
-144
-148
-148
-141
-136
-133
-130
-128
-122
-113
-111
-112
-105
-102
-118
-128
-109
-90
-89
-70
-39
-50
-85
-91
-88
-99
-92
-84
-95
-76
-63
-106
-123
-181
-170
579
1718
1482
-151
-993
-488
-58
-82
-18
64
25
38
82
76
81
102
106
117
139
153
168
190
212
236
264
296
338
390
438
474
503
522
505
434
320
189
64
-42
-123
-179
-213
-229
-237
-240
-239
-231
-225
-224
-220
-210
-204
-202
-197
-190
-184
-181
-184
-188
-183
-173
-173
-179
-179
-175
-174
-175
-173
-167
-163
-162
-161
-156
-156
-164
-163
-146
-137
-139
-116
-87
-97
-127
-130
-126
-131
-127
-129
-134
-109
-109
-153
-181
-241
-47
888
1681
850
-746
-1084
-421
-111
-117
-7
40
4
38
70
64
82
105
115
135
158
173
192
219
246
274
307
346
394
448
497
535
560
563
519
419
287
151
26
-70
-133
-174
-199
-208
-207
-204
-197
-188
-179
-169
-157
-146
-140
-134
-127
-120
-114
-110
-107
-103
-99
-97
-97
-95
-91
-85
-79
-74
-70
-67
-66
-65
-61
-58
-58
-56
-45
-35
-42
-55
-47
-29
-26
-15
21
28
-4
-18
-9
-18
-20
-10
-23
-13
14
-22
-54
-100
-188
322
1561
1847
371
-877
-602
-48
-24
-7
95
66
57
108
103
94
119
125
125
142
157
168
183
199
218
246
280
315
351
390
427
454
472
467
414
309
177
47
-63
-150
-211
-248
-270
-285
-290
-289
-289
-287
-281
-279
-283
-281
-276
-273
-271
-271
-274
-273
-269
-268
-274
-279
-279
-275
-275
-276
-273
-269
-269
-269
-266
-262
-261
-260
-256
-254
-256
-248
-230
-230
-245
-238
-215
-209
-198
-163
-149
-173
-184
-176
-184
-184
-164
-170
-165
-130
-153
-181
-190
-270
102
1271
1790
516
-875
-769
-153
-51
-43
76
73
57
110
128
138
172
186
200
232
255
273
306
337
362
397
438
482
531
581
625
663
695
706
674
588
468
348
243
