# session 29
-23
-5
-12
-121
-172
-20
143
188
245
333
383
420
447
403
287
138
-22
-171
-283
-358
-403
-422
-426
-425
-416
-394
-373
-358
-341
-319
-304
-292
-278
-265
-254
-242
-229
-221
-218
-211
-192
-174
-167
-151
-118
-111
-124
-108
-86
-106
-129
-127
-132
-131
-113
-119
-112
-77
-105
-126
-130
-249
144
1522
2137
477
-1412
-1288
-316
-38
-28
112
126
100
158
175
169
204
226
234
257
277
294
323
354
382
418
465
520
580
636
682
717
734
709
615
460
286
124
-16
-126
-194
-231
-256
-272
-273
-265
-255
-246
-238
-232
-225
-215
-206
-203
-203
-199
-194
-193
-195
-191
-176
-163
-166
-157
-132
-133
-146
-131
-128
-166
-185
-183
-198
-194
-177
-198
-187
-153
-202
-220
-230
-313
320
1802
1953
-134
-1723
-1166
-255
-144
-111
30
3
-8
59
62
61
98
110
122
154
172
185
215
246
277
321
374
427
485
543
586
613
621
579
472
320
158
11
-111
-205
-267
-296
-311
-320
-317
-303
-290
-284
-276
-263
-253
-245
-237
-228
-221
-219
-218
-216
-214
-210
-198
-186
-183
-172
-149
-141
-143
-128
-128
-155
-164
-162
-176
-168
-154
-172
-152
-122
-170
-180
-214
-262
517
1969
1807
-408
-1741
-1000
-163
-109
-53
79
41
43
106
101
107
148
162
169
193
215
240
271
300
332
372
423
483
542
593
636
668
671
622
507
347
180
32
-85
-170
-230
-267
-283
-289
-285
-272
-260
-253
-242
-229
-220
-217
-218
-218
-212
-205
-202
-201
-201
-200
-198
-200
-201
-199
-190
-177
-171
-171
-162
-140
-126
-125
-124
-131
-141
-137
-139
-150
-141
-135
-141
-118
-115
-152
-158
-226
-68
995
2045
1117
-998
-1612
-710
-142
-112
6
86
45
78
124
116
134
167
180
199
225
244
269
302
334
367
412
466
522
577
630
674
700
693
626
490
317
149
3
-117
-203
-254
-281
-297
-301
-297
-290
-280
-269
-256
-244
-232
-221
-212
-206
-203
-202
-203
-204
-204
-205
-204
-200
-196
-196
-197
-197
-193
-189
-187
-179
-165
-162
-160
-143
-129
-129
-118
-109
-125
-138
-139
-150
-145
-131
-142
-130
-107
-145
-161
-221
-288
455
1929
1946
-127
-1576
-1014
-195
-102
-54
80
56
53
113
115
119
154
165
176
205
224
238
265
296
331
375
423
475
534
591
638
672
686
656
557
403
236
83
-47
-148
-213
-253
-275
-285
-286
-285
-279
-269
-256
-244
-235
-226
-215
-209
-206
-199
-196
-199
-197
-194
-202
-215
-215
-205
-198
-195
-191
-186
-183
-180
-179
-173
-166
-163
-160
-145
-130
-131
-125
-99
-91
-97
-71
-48
-78
-110
-105
-109
-113
-102
-120
-118
-79
-114
-142
-153
-274
225
1773
2340
456
-1462
-1217
-267
-78
-68
80
68
41
106
115
110
149
167
174
203
226
241
268
294
321
363
416
478
546
605
646
679
706
699
623
482
311
143
-8
-128
-210
-260
-290
-307
-314
-313
-307
-299
-290
-281
-273
-260
-243
-233
-229
-223
-215
-211
-212
-212
-207
-205
-208
-209
-203
-201
-196
-176
-161
-166
-174
-174
-174
-170
-162
-161
-158
-145
-136
-141
-140
-120
-108
-115
-97
-59
-66
-105
-121
-125
-129
-120
-126
-122
-90
-110
-140
-162
-283
72
1440
2227
751
-1231
-1326
-409
-92
-82
63
90
57
115
145
135
156
176
189
215
237
255
281
310
342
384
437
499
564
625
684
737
767
760
691
547
360
178
22
-104
-193
-248
-283
-305
-312
-310
-305
-297
-285
-272
-260
-251
-242
-231
-219
-208
-202
-198
-197
-195
-193
-192
-193
-193
-190
-188
-186
-184
-183
-181
-175
-168
-165
-164
-161
-157
-152
-148
-145
-143
-139
-133
-124
-116
-116
-108
-83
-75
-90
-73
-37
-53
-92
-97
-101
-104
-91
-104
-103
-65
-101
-136
-139
-267
142
1626
2310
561
-1407
-1253
-285
-69
-74
79
80
49
115
129
119
153
171
171
192
214
228
247
269
298
337
378
422
476
537
589
629
653
647
593
479
327
172
36
-78
-163
-217
-249
-268
-277
-279
-275
-265
-254
-246
-237
-224
-214
-203
-193
-185
-179
-173
-170
-169
-166
-166
-169
-165
-158
-156
-153
-147
-146
-150
-153
-150
-144
-139
-137
-136
-136
-135
-130
-126
-127
-129
-124
-116
-112
-112
-111
-96
-75
-74
-67
-21
-3
-55
-95
-94
-100
-94
-77
-92
-84
-67
-119
-130
-162
-222
533
2028
1989
-169
-1589
-955
-153
-103
-47
93
54
48
115
116
117
153
168
178
205
224
241
271
303
333
372
425
485
542
597
653
699
724
710
632
488
311
136
-19
-142
-224
-271
-298
-316
-326
-325
-313
-301
-293
-283
-271
-262
-256
-250
-248
-246
-239
-231
-228
-228
-226
-222
-217
-215
-217
-216
-213
-215
-217
-210
-203
-203
-202
-198
-194
-182
-171
-172
-162
-137
-131
-129
-95
-73
-99
-120
-115
-118
-117
-107
-115
-107
-92
-121
-137
-171
-145
573
1778
1608
-320
-1579
-1020
-231
-94
-26
100
88
90
138
138
142
176
206
246
280
289
301
330
365
404
447
497
562
635
700
755
799
816
776
665
490
287
96
-55
-166
-245
-292
-313
-315
-308
-305
-310
-307
-290
-275
-263
-246
-235
-237
-230
-215
-210
-211
-203
-195
-195
-194
-193
-201
-204
-191
-183
-188
-191
-186
-185
-184
-171
-156
-156
-155
-130
-106
-112
-117
-94
-89
-118
-136
-142
-149
-132
-124
-144
-128
-116
-151
-151
-222
-206
704
2017
1576
-558
-1599
-837
-133
-86
-13
80
41
68
130
122
128
159
169
182
217
251
272
289
311
339
374
422
478
531
581
631
668
680
650
560
410
231
67
-64
-162
-230
-267
-286
-306
-322
-318
-297
-278
-271
-264
-249
-241
-239
-230
-220
-218
-208
-198
-199
-196
-187
-185
-184
-176
-169
-168
-168
-167
-162
-160
-160
-148
-132
-133
-140
-131
-105
-82
-79
-76
-48
-44
-90
-121
-115
-118
-116
-108
-124
-106
-72
-120
-156
-195
-236
470
1864
1831
-233
-1632
-1031
-204
-112
-62
62
27
29
86
63
54
113
147
155
184
218
241
265
295
325
354
385
433
492
539
567
595
621
616
552
429
284
151
34
-72
-149
-188
-211
-231
-239
-231
-220
-212
-204
-195
-191
-183
-171
-168
-173
-171
-163
-161
-162
-158
-158
-165
-168
-165
-166
-170
-168
-168
-174
-168
-145
-135
-139
-128
-108
-104
-94
-69
-75
-115
-132
-127
-141
-151
-140
-146
-141
-110
-133
-163
-179
-226
238
1438
1755
106
-1502
-1268
-388
-140
-99
30
31
12
66
85
88
114
131
154
174
172
192
233
258
295
358
388
393
447
540
606
638
659
656
589
449
280
128
-4
-116
-188
-219
-243
-270
-278
-265
-252
-246
-242
-234
-223
-216
-217
-216
-209
-206
-212
-212
-198
-188
-189
-186
-180
-182
-180
-177
-184
-180
-155
-147
-157
-137
-103
-101
-102
-80
-88
-122
-125
-124
-145
-138
-123
-141
-127
-108
-150
-151
-161
-94
701
1806
1323
-668
-1625
-893
-182
-69
22
91
45
75
124
108
130
174
178
194
232
243
247
277
314
351
392
435
490
547
589
624
666
692
666
563
395
216
67
-52
-139
-192
-228
-256
-264
-262
-259
-249
-234
-235
-238
-221
-204
-207
-214
-211
-207
-206
-202
-205
-215
-214
-201
-201
-205
-200
-197
-196
-184
-171
-154
-129
-125
-131
-111
-103
-135
-154
-149
-162
-165
-151
-160
-147
-118
-158
-176
-182
-245
315
1664
1864
-48
-1635
-1200
-292
-113
-72
61
40
25
96
111
103
130
156
179
201
206
223
266
291
295
324
379
429
483
552
601
615
620
601
520
386
234
81
-47
-134
-195
-244
-275
-289
-295
-291
-272
-253
-253
-257
-243
-220
-215
-227
-229
-214
-196
-192
-211
-217
-188
-189
-241
-256
-226
-224
-204
-134
-104
-114
-98
-106
-157
-141
-60
-47
-99
-128
-137
-142
-134
-135
-126
-116
-156
-160
-168
-224
372
1722
1870
-48
-1577
-1132
-272
-111
-55
91
79
62
122
141
127
130
153
195
216
210
222
258
297
354
426
471
485
524
604
672
686
671
665
614
455
240
68
-39
-117
-194
-255
-279
-280
-277
-259
-249
-262
-263
-247
-248
-252
-234
-214
-207
-200
-192
-203
-231
-236
-211
-201
-210
-206
-196
-186
-172
-175
-176
-136
-102
-120
-128
-105
-112
-142
-153
-160
-160
-145
-153
-163
-133
-134
-165
-170
-167
195
1180
1610
324
-1290
-1364
-555
-185
-110
21
44
17
68
95
81
103
137
153
170
194
221
246
273
319
369
408
459
532
598
650
697
717
684
601
470
295
113
-37
-141
-207
-251
-281
-296
-296
-293
-294
-287
-263
-242
-234
-218
-196
-189
-187
-173
-165
-168
-163
-158
-167
-171
-163
-163
-170
-160
-146
-148
-143
-121
-114
-119
-104
-97
-127
-152
-158
-169
-165
-154
-171
-169
-146
-176
-188
-206
-259
303
1591
1777
-24
-1550
-1195
-350
-153
-97
34
27
22
88
102
100
126
141
159
192
215
234
268
304
338
381
434
494
557
618
671
714
735
704
600
440
263
97
-43
-146
-212
-253
-277
-288
-291
-287
-280
-273
-266
-256
-244
-234
-226
-218
-211
-207
-203
-200
-198
-196
-197
-201
-200
-195
-190
-179
-168
-171
-169
-143
-126
-129
-112
-90
-116
-151
-151
-155
-163
-147
-153
-164
-126
-136
-181
-188
-328
-129
1217
2336
1090
-1107
-1450
-504
-118
-129
12
51
5
56
84
71
100
127
132
152
175
192
220
250
279
318
365
414
471
529
579
617
642
633
566
437
278
124
-9
-117
-192
-239
-268
-282
-284
-281
-278
-272
-262
-250
-239
-230
-224
-220
-215
-207
-200
-198
-198
-198
-197
-194
-189
-186
-186
-182
-178
-176
-167
-151
-147
-151
-132
-107
-108
-103
-75
-78
-117
-133
-132
-144
-135
-127
-143
-119
-103
-158
-179
-275
-297
699
2246
1883
-430
-1609
-835
-139
-132
-52
62
19
40
99
91
102
136
142
155
183
203
225
251
278
315
363
415
477
544
605
658
700
712
669
556
390
209
47
-82
-177
-238
-275
-295
-305
-309
-307
-299
-289
-278
-264
-252
-243
-235
-226
-219
-215
-211
-209
-208
-205
-202
-201
-200
-199
-198
-196
-193
-191
-181
-166
-165
-169
-150
-129
-132
-123
-92
-96
-130
-138
-137
-146
-135
-132
-145
-117
-111
-156
-174
-283
-180
966
2271
1484
-774
-1573
-709
-131
-120
-6
81
38
71
120
111
128
159
164
179
205
222
245
276
307
343
388
440
503
571
629
676
713
717
655
521
348
175
20
-106
-195
-248
-278
-295
-303
-306
-302
-293
-281
-268
-256
-245
-236
-225
-215
-208
-203
-200
-198
-198
-197
-194
-192
-194
-194
-192
-190
-188
-186
-183
-177
-172
-171
-164
-148
-142
-146
-131
-105
-103
-100
-69
-62
-100
-119
-116
-128
-122
-112
-131
-112
-84
-138
-159
-218
-265
597
2169
2056
-187
-1574
-906
-142
-117
-59
70
26
29
95
93
97
131
140
150
176
196
215
244
274
309
351
400
457
517
576
627
663
678
650
557
409
244
89
-45
-144
-207
-250
-276
-285
-288
-292
-290
-280
-271
-261
-249
-238
-228
-216
-207
-205
-203
-196
-192
-186
-171
-166
-184
-198
-189
-178
-177
-177
-171
-167
-164
-159
-154
-149
-143
-137
-134
-130
-121
-117
-116
-104
-81
-74
-76
-53
-35
-63
-95
-98
-106
-107
-93
-109
-106
-65
-101
-135
-138
-262
181
1709
2388
607
-1361
-1208
-277
-82
-76
78
70
38
105
120
112
148
167
171
196
218
234
258
285
313
350
393
443
501
560
612
658
693
692
627
498
335
171
24
-95
-181
-235
-269
-288
-295
-294
-292
-289
-283
-273
-261
-250
-241
-233
-226
-221
-219
-216
-208
-201
-202
-206
-206
-203
-201
-202
-203
-200
-193
-187
-186
-184
-180
-173
-170
-168
-165
-162
-163
-161
-150
-144
-149
-141
-117
-112
-114
-84
-58
-84
-114
-115
-121
-118
-104
-117
-110
-76
-111
-140
-160
-206
412
1834
2067
120
-1525
-1131
-261
-115
-74
75
62
47
110
117
118
155
172
183
212
234
253
280
307
338
379
429
487
551
614
670
718
746
734
657
509
326
151
3
-116
-199
-247
-275
-293
-301
-301
-298
-290
-278
-264
-250
-236
-223
-211
-200
-190
-182
-175
-171
-168
-167
-167
-167
-168
-168
-169
-167
-163
-159
-158
-156
-151
-145
-142
-142
-138
-132
-129
-123
-118
-118
-111
-89
-73
-74
-57
-21
-24
-64
-80
-82
-93
-85
-81
-96
-68
-55
-106
-121
-206
-150
917
2319
1708
-591
-1555
-712
-84
-93
1
96
45
68
120
108
123
158
162
174
198
214
233
261
288
319
361
409
464
527
591
644
682
698
666
560
397
220
58
-81
-188
-259
-303
-328
-340
-342
-341
-337
-328
-319
-311
-303
-290
-278
-272
-266
-259
-253
-250
-246
-242
-240
-239
-239
-240
-242
-242
-240
-238
-237
-236
-231
-227
-225
-221
-216
-212
-209
-203
-193
-187
-187
-175
-155
-153
-153
-117
-90
-118
-147
-145
-150
-146
-133
-149
-132
-95
-141
-168
-192
-271
399
1963
2198
115
-1547
-1062
-186
-88
-55
91
62
52
120
121
120
160
178
189
216
234
251
284
318
350
389
437
495
560
622
676
723
755
748
679
545
378
215
73
-41
-119
-165
-190
-203
-208
-206
-198
-186
-172
-161
-149
-137
-124
-113
-103
-94
-87
-81
-75
-72
-70
-67
-61
-59
-61
-62
-62
-64
-64
-58
-52
-51
-51
-48
-47
-47
-47
-47
-48
-45
-34
-29
-40
-48
-33
-26
-40
-30
0
-14
-58
-72
-78
-94
-95
-110
-132
-109
-121
-174
-191
-288
-80
1149
2206
1050
-1147
-1618
-702
-265
-285
-170
-129
-193
-165
-138
-155
-144
-140
-156
-149
-137
-136
-127
-113
-106
-89
-59
-25
16
