# session 39
-39
-39
-32
-32
-36
-25
-24
-37
-6
8
-127
-322
-380
-333
-317
-323
-309
-296
-290
-274
-254
-251
-258
-246
-221
-216
-212
-177
-154
-175
-186
-171
-167
-165
-153
-158
-149
-122
-143
-168
-205
-261
201
1284
1514
162
-990
-722
-154
-92
-68
44
33
24
74
81
84
116
130
137
164
190
211
238
261
284
320
369
419
465
509
558
604
626
603
521
389
232
85
-33
-120
-176
-207
-222
-230
-231
-224
-216
-210
-207
-199
-192
-195
-196
-188
-180
-179
-174
-166
-162
-163
-164
-161
-156
-157
-157
-152
-150
-148
-137
-135
-148
-144
-127
-124
-117
-88
-76
-96
-102
-96
-106
-103
-87
-104
-110
-80
-93
-121
-182
-303
107
1301
1778
526
-772
-656
-118
-61
-56
49
30
11
62
70
65
91
104
106
122
138
150
168
191
216
244
278
323
375
421
459
495
523
516
453
337
194
55
-58
-142
-199
-237
-262
-271
-265
-255
-246
-238
-231
-221
-208
-198
-195
-196
-193
-186
-178
-170
-168
-170
-169
-165
-165
-164
-161
-159
-154
-147
-153
-161
-151
-138
-138
-123
-94
-94
-118
-122
-117
-126
-116
-101
-117
-108
-83
-116
-150
-223
-291
308
1525
1654
169
-910
-569
-80
-80
-50
41
10
10
57
54
60
91
96
103
129
147
160
183
209
234
263
298
341
390
433
464
495
521
509
434
310
172
48
-59
-145
-199
-225
-240
-248
-246
-234
-223
-219
-214
-202
-193
-188
-181
-176
-174
-169
-164
-162
-161
-158
-156
-156
-152
-148
-147
-149
-140
-127
-134
-147
-135
-119
-119
-105
-77
-80
-106
-112
-109
-118
-109
-98
-116
-109
-82
-117
-154
-213
-280
267
1453
1636
193
-924
-616
-108
-92
-64
32
5
3
52
51
53
79
88
98
120
134
148
171
195
220
253
293
338
386
433
475
511
533
521
453
333
193
63
-46
-129
-184
-214
-225
-230
-233
-232
-222
-213
-207
-199
-188
-185
-190
-191
-184
-176
-169
-162
-158
-158
-155
-147
-141
-141
-143
-141
-130
-123
-133
-140
-126
-116
-116
-98
-78
-94
-119
-118
-119
-131
-123
-118
-128
-110
-101
-135
-165
-253
-151
710
1637
1058
-496
-997
-419
-91
-103
-11
44
8
36
71
66
83
107
116
131
151
168
192
218
242
272
310
351
398
451
497
532
565
587
556
447
293
141
8
-100
-176
-221
-247
-262
-265
-260
-252
-245
-238
-230
-220
-212
-206
-202
-198
-197
-196
-190
-181
-177
-174
-169
-165
-161
-158
-161
-159
-149
-147
-150
-132
-105
-111
-134
-139
-142
-150
-140
-134
-143
-122
-110
-141
-170
-254
-173
644
1591
1096
-451
-1026
-464
-95
-102
-20
46
14
35
69
65
80
106
117
132
151
168
191
213
234
265
305
350
403
457
504
547
580
583
528
411
260
106
-26
-124
-190
-234
-257
-258
-253
-252
-248
-240
-231
-223
-214
-207
-201
-195
-190
-187
-183
-177
-175
-174
-171
-167
-165
-163
-159
-150
-143
-148
-148
-132
-127
-133
-114
-88
-97
-116
-112
-111
-119
-109
-105
-116
-96
-86
-118
-148
-265
-231
629
1737
1354
-246
-926
-409
-63
-97
-17
52
11
28
68
61
72
97
102
112
135
151
167
193
222
250
281
321
368
419
468
510
543
555
516
412
267
120
-9
-111
-181
-222
-243
-253
-257
-254
-246
-240
-237
-229
-219
-214
-208
-200
-195
-190
-186
-184
-182
-176
-173
-174
-173
-167
-164
-164
-159
-149
-150
-157
-147
-134
-134
-123
-91
-87
-113
-121
-115
-123
-121
-109
-121
-115
-88
-112
-142
-209
-326
151
1420
1857
499
-824
-674
-132
-85
-79
27
11
-3
44
48
47
77
93
98
115
134
152
173
195
221
255
294
341
394
443
485
521
547
536
463
337
190
53
-59
-143
-199
-231
-245
-252
-255
-248
-238
-231
-226
-218
-210
-202
-191
-182
-179
-177
-172
-169
-167
-162
-157
-154
-152
-151
-151
-149
-143
-136
-132
-130
-126
-122
-122
-131
-142
-130
-105
-94
-91
-76
-66
-69
-71
-84
-101
-85
-70
-98
-91
-46
-75
-119
-171
-270
186
1425
1856
509
-794
-623
-82
-57
-67
46
45
27
63
69
71
91
100
109
126
140
156
174
194
225
260
287
323
376
427
466
511
559
556
471
341
207
74
-44
-118
-164
-209
-239
-245
-249
-247
-232
-224
-224
-215
-210
-205
-186
-179
-188
-177
-158
-167
-177
-165
-153
-145
-142
-156
-164
-146
-134
-143
-143
-132
-132
-134
-125
-120
-126
-126
-117
-113
-121
-122
-114
-110
-112
-113
-115
-119
-108
-74
-36
-29
-50
-65
-71
-81
-80
-72
-74
-62
-49
-65
-89
-214
-325
291
1547
1761
399
-665
-440
-44
-63
-46
32
6
17
67
52
33
52
72
93
123
144
145
148
180
219
238
264
313
353
386
435
477
503
519
481
364
225
101
-18
-105
-138
-175
-224
-219
-188
-203
-228
-206
-182
-187
-183
-166
-169
-174
-164
-160
-162
-157
-155
-156
-152
-151
-154
-149
-143
-146
-146
-141
-144
-151
-142
-130
-135
-133
-115
-114
-126
-114
-96
-104
-114
-111
-106
-100
-92
-85
-54
-16
-33
-86
-105
-90
-72
-66
-77
-66
-43
-79
-114
-144
-198
234
1292
1553
239
-935
-695
-112
-37
-32
61
53
54
101
95
96
135
136
125
150
172
182
214
250
267
293
334
372
419
483
536
565
587
587
528
414
267
105
-37
-124
-177
-229
-257
-250
-252
-272
-274
-255
-237
-225
-224
-224
-211
-199
-203
-204
-193
-186
-183
-176
-173
-180
-187
-186
-176
-168
-168
-168
-163
-154
-148
-147
-147
-149
-148
-138
-134
-141
-136
-120
-119
-121
-93
-60
-66
-93
-101
-99
-100
-94
-95
-106
-91
-86
-110
-133
-261
-272
542
1704
1461
-92
-857
-395
-33
-69
-10
61
26
39
72
63
76
109
121
130
148
167
186
203
218
245
286
331
375
421
474
526
565
586
571
492
348
177
32
-73
-154
-211
-236
-247
-257
-253
-245
-251
-249
-230
-218
-215
-201
-182
-182
-190
-184
-169
-164
-164
-165
-161
-150
-145
-151
-149
-136
-137
-151
-144
-119
-114
-129
-127
-111
-108
-111
-106
-110
-117
-111
-105
-91
-58
-42
-65
-79
-73
-79
-79
-68
-80
-75
-48
-76
-106
-120
-255
-56
1025
1858
985
-491
-718
-173
-16
-53
27
17
-19
39
53
33
79
123
110
98
111
137
162
171
187
231
274
302
341
383
416
450
474
481
467
393
252
110
-4
-112
-188
-222
-247
-264
-257
-246
-244
-242
-244
-239
-218
-210
-220
-205
-177
-170
-161
-137
-131
-146
-152
-147
-144
-137
-128
-127
-132
-126
-117
-117
-119
-112
-107
-113
-117
-107
-104
-115
-113
-97
-94
-88
-51
-22
-47
-80
-77
-72
-72
-55
-57
-77
-59
-52
-88
-133
-240
-84
827
1631
937
-451
-749
-230
-32
-62
19
38
3
41
75
79
100
105
94
109
132
146
165
181
195
228
266
284
311
365
409
433
463
485
466
397
281
143
24
-66
-142
-196
-216
-220
-225
-226
-221
-219
-218
-206
-191
-189
-189
-185
-184
-184
-172
-155
-157
-173
-168
-148
-149
-156
-145
-144
-152
-133
-118
-140
-145
-122
-116
-122
-111
-106
-122
-125
-108
-103
-105
-79
-44
-48
-74
-80
-80
-88
-83
-80
-90
-72
-60
-92
-108
-192
-218
466
1543
1372
-96
-868
-415
-27
-58
-11
58
20
31
73
69
80
111
120
127
145
156
169
191
211
232
267
309
348
387
430
470
504
531
528
468
355
217
85
-24
-108
-166
-201
-222
-229
-223
-217
-215
-212
-207
-200
-192
-188
-185
-181
-185
-193
-191
-181
-177
-173
-168
-169
-170
-167
-166
-166
-158
-149
-150
-153
-145
-141
-150
-149
-130
-124
-125
-100
-74
-90
-115
-111
-111
-124
-114
-103
-117
-110
-99
-124
-162
-246
-103
759
1599
947
-579
-1016
-408
-74
-92
-10
47
23
54
84
73
86
113
125
139
161
184
205
223
241
266
302
348
397
446
494
535
567
583
556
461
317
172
44
-73
-156
-199
-229
-251
-252
-250
-251
-237
-221
-222
-223
-207
-196
-201
-201
-185
-176
-179
-177
-172
-169
-167
-167
-167
-163
-152
-148
-155
-154
-143
-144
-155
-145
-129
-127
-107
-71
-77
-109
-113
-109
-122
-111
-88
-101
-99
-68
-96
-139
-197
-305
109
1291
1748
484
-801
-658
-105
-52
-57
46
29
8
57
66
63
88
100
107
127
140
150
172
198
224
251
280
318
369
416
453
494
532
524
457
356
233
96
-29
-120
-184
-227
-243
-241
-243
-245
-230
-210
-210
-215
-201
-188
-192
-190
-170
-164
-176
-179
-167
-157
-153
-150
-146
-149
-161
-163
-145
-134
-133
-124
-123
-142
-143
-120
-104
-90
-72
-76
-93
-93
-100
-115
-100
-88
-111
-97
-65
-101
-146
-226
-269
359
1512
1529
56
-912
-523
-58
-76
-58
33
14
7
39
42
60
90
90
95
125
141
143
163
198
227
247
275
320
370
407
440
479
506
498
444
334
194
65
-41
-130
-190
-220
-237
-240
-230
-225
-227
-221
-207
-201
-201
-195
-184
-177
-176
-174
-168
-164
-168
-168
-160
-154
-152
-151
-151
-148
-140
-140
-140
-126
-122
-136
-132
-115
-111
-98
-63
-62
-97
-103
-88
-100
-105
-89
-93
-90
-70
-92
-122
-189
-299
152
1322
1677
373
-829
-628
-97
-64
-70
30
24
10
46
53
59
83
91
99
122
140
154
175
205
233
253
279
324
374
417
458
499
531
534
486
381
244
108
-8
-103
-168
-202
-220
-235
-238
-230
-222
-211
-199
-196
-199
-193
-184
-180
-180
-180
-180
-179
-178
-174
-167
-163
-165
-165
-158
-151
-146
-133
-124
-137
-150
-137
-122
-122
-107
-82
-87
-112
-119
-118
-120
-104
-100
-129
-120
-83
-111
-150
-200
-228
319
1380
1405
-69
-1098
-692
-124
-84
-54
49
33
33
79
81
84
108
116
130
165
184
194
215
240
263
292
331
375
420
468
512
543
563
554
484
360
221
83
-46
-140
-190
-222
-246
-249
-239
-235
-238
-233
-217
-210
-209
-202
-196
-197
-193
-180
-176
-182
-183
-173
-166
-168
-167
-156
-147
-152
-160
-159
-144
-131
-138
-145
-131
-123
-128
-107
-67
-68
-102
-115
-105
-101
-97
-99
-118
-107
-75
-102
-137
-194
-312
92
1287
1779
532
-771
-648
-105
-63
-72
39
26
2
50
60
56
81
93
100
122
140
148
167
196
222
248
287
332
369
405
450
494
522
519
467
368
236
92
-34
-116
-168
-212
-240
-245
-237
-230
-224
-220
-215
-207
-197
-188
-186
-185
-179
-175
-176
-174
-170
-167
-162
-157
-161
-164
-156
-148
-148
-144
-135
-129
-126
-124
-127
-127
-125
-124
-108
-73
-56
-72
-91
-95
-101
-102
-90
-99
-112
-79
-68
-112
-151
-261
-196
692
1754
1294
-289
-886
-341
-25
-84
-22
38
3
30
67
53
62
91
96
103
130
149
160
175
197
231
272
307
339
382
430
471
504
521
502
423
290
144
19
-75
-142
-189
-221
-234
-235
-236
-235
-223
-211
-205
-200
-194
-189
-182
-171
-168
-169
-162
-150
-149
-152
-152
-150
-149
-150
-150
-144
-135
-129
-129
-132
-134
-129
-122
-118
-118
-121
-123
-116
-107
-101
-82
-59
-67
-88
-90
-89
-96
-85
-76
-94
-84
-65
-98
-131
-222
-261
416
1578
1523
20
-884
-466
-37
-65
-30
48
13
20
62
58
67
94
97
106
134
151
161
180
201
224
251
287
334
381
421
464
510
533
518
462
353
205
69
-32
-116
-178
-207
-224
-240
-234
-216
-215
-220
-208
-193
-193
-193
-185
-177
-173
-167
-167
-168
-159
-148
-153
-164
-162
-149
-140
-139
-139
-134
-132
-136
-134
-123
-120
-125
-118
-102
-107
-121
-114
-99
-93
-73
-40
-44
-80
-90
-82
-91
-93
-78
-86
-92
-68
-79
-105
-138
-219
114
1164
1649
474
-883
-818
-186
-59
-73
45
58
33
80
98
90
116
135
139
160
186
201
215
234
263
299
334
370
414
464
512
553
581
586
544
435
288
142
12
-94
-165
-212
-241
-251
-252
-257
-258
-252
-241
-229
-220
-214
-200
-188
-186
-187
-181
-171
-169
-178
-179
-165
-161
-171
-169
-159
-162
-164
-154
-145
-147
-148
-148
-147
-139
-129
-133
-146
-142
-123
-115
-111
-86
-67
-89
-111
-105
-106
-115
-103
-106
-123
-99
-91
-132
-162
-272
-226
642
1724
1304
-283
-917
-384
-48
-89
-21
35
-3
19
49
39
59
87
92
105
122
130
152
181
202
230
269
308
349
403
459
504
535
555
542
459
316
164
35
-75
-163
-216
-238
-246
-252
-256
-250
-235
-223
-219
-214
-205
-194
-182
-172
-164
-154
-148
-154
-156
-142
-133
-137
-143
-143
-138
-132
-122
-109
-110
-118
-113
-102
-103
-105
-96
-86
-81
-76
-70
-65
-70
-83
-84
-65
-56
-50
-15
24
8
-31
-32
-25
-34
-28
-22
-34
-16
1
-39
-67
-152
-200
480
1686
1673
147
-812
-407
28
-16
12
103
75
76
112
99
105
140
150
155
179
197
199
205
233
267
291
320
366
407
447
501
553
559
531
511
443
271
99
10
-87
-199
-223
-204
-228
-247
-245
-246
-216
-184
-213
-247
-236
-232
-242
-230
-211
-213
-231
-221
-172
-156
-200
-214
-197
-217
-236
-223
-227
-244
-225
-195
-199
-225
-227
-190
-159
-170
-211
-235
-219
-201
-210
-212
-193
-173
-144
-110
-124
-182
-183
-112
-100
-180
-220
-170
-134
-171
-197
-188
-262
-190
512
1272
833
-394
-814
-384
-158
-201
-101
11
3
5
26
21
26
47
65
83
100
118
151
197
207
162
169
290
389
387
396
455
486
497
514
491
430
365
270
173
135
91
28
57
120
82
42
75
94
