# session 21
-20
-29
0
-14
-115
-200
-201
-182
-185
-186
-181
-182
-182
-181
-180
-178
-175
-172
-168
-165
-160
-155
-152
-149
-139
-118
-107
-109
-97
-76
-81
-86
-57
-49
-86
-105
-96
-106
-107
-96
-109
-95
-66
-118
-172
-227
-200
609
1963
1782
-297
-1606
-1018
-269
-183
-113
12
-11
0
60
61
65
95
104
114
138
159
181
211
240
272
314
363
411
454
491
519
531
514
466
392
300
200
99
11
-58
-110
-149
-172
-178
-175
-171
-165
-159
-155
-152
-146
-142
-141
-139
-136
-135
-137
-138
-137
-137
-137
-138
-140
-140
-140
-143
-144
-139
-133
-131
-133
-133
-129
-126
-121
-112
-107
-109
-106
-92
-78
-80
-79
-50
-20
-22
-22
4
2
-38
-56
-56
-69
-62
-56
-77
-55
-33
-99
-138
-170
-85
791
1969
1443
-637
-1603
-867
-212
-153
-58
40
7
28
76
69
80
107
111
124
149
163
177
198
221
250
288
325
360
391
410
414
407
388
349
288
214
138
65
-4
-63
-110
-143
-156
-156
-155
-151
-139
-134
-135
-132
-125
-120
-115
-117
-129
-135
-125
-121
-129
-134
-134
-135
-136
-135
-134
-132
-131
-131
-129
-127
-127
-124
-117
-113
-112
-109
-106
-104
-100
-97
-99
-93
-79
-77
-87
-72
-40
-33
-35
-11
-3
-39
-65
-64
-73
-73
-63
-82
-70
-30
-73
-121
-111
-32
628
1764
1622
-288
-1620
-1131
-345
-188
-109
21
7
13
73
79
88
126
138
145
173
197
213
236
267
302
341
387
438
487
525
545
547
534
493
411
306
207
114
17
-67
-127
-167
-189
-198
-201
-203
-198
-189
-182
-177
-171
-166
-164
-164
-166
-167
-168
-171
-178
-181
-181
-182
-184
-187
-186
-185
-182
-180
-179
-171
-154
-143
-138
-121
-101
-103
-101
-78
-80
-117
-134
-133
-141
-131
-114
-127
-114
-88
-133
-178
-208
-110
697
1823
1409
-602
-1703
-1052
-311
-184
-87
29
10
23
76
80
90
118
127
143
172
194
215
246
281
320
368
420
471
518
549
563
559
531
468
377
273
171
73
-16
-86
-131
-152
-164
-172
-175
-174
-171
-163
-152
-144
-142
-141
-138
-136
-134
-134
-135
-137
-140
-146
-148
-146
-148
-150
-146
-143
-144
-146
-144
-140
-136
-135
-133
-121
-105
-102
-103
-81
-56
-60
-59
-29
-23
-64
-96
-104
-108
-98
-94
-112
-88
-66
-129
-175
-207
-90
801
1955
1432
-615
-1597
-905
-254
-178
-78
23
-5
15
63
58
68
99
110
121
139
155
181
216
245
274
315
360
405
446
481
501
503
488
450
381
290
194
99
4
-77
-133
-167
-186
-192
-187
-178
-171
-163
-157
-157
-158
-159
-158
-152
-146
-153
-167
-172
-165
-157
-155
-160
-162
-162
-165
-167
-164
-162
-164
-160
-153
-147
-133
-119
-121
-118
-90
-73
-78
-62
-43
-71
-107
-101
-94
-97
-85
-90
-105
-78
-80
-127
-147
-157
215
1328
1904
522
-1355
-1527
-642
-231
-161
-6
47
21
64
92
96
129
150
155
176
201
221
250
281
311
352
403
457
508
549
573
583
571
527
451
355
247
138
34
-56
-123
-168
-197
-208
-207
-207
-206
-197
-187
-183
-178
-170
-168
-169
-167
-167
-171
-172
-168
-168
-173
-175
-175
-177
-180
-181
-180
-175
-172
-169
-157
-140
-134
-125
-100
-88
-97
-86
-65
-82
-117
-122
-124
-132
-116
-113
-127
-101
-102
-159
-185
-222
65
1191
2029
861
-1163
-1573
-700
-224
-169
-33
21
-11
35
70
61
85
112
119
139
168
187
210
241
277
317
364
418
473
516
540
551
549
518
451
357
255
156
60
-29
-98
-142
-169
-186
-189
-185
-181
-175
-166
-159
-156
-152
-147
-145
-147
-148
-145
-143
-145
-145
-144
-146
-149
-151
-152
-152
-151
-150
-149
-145
-141
-139
-136
-128
-112
-104
-105
-90
-62
-55
-60
-40
-29
-65
-95
-92
-98
-104
-92
-105
-105
-68
-100
-160
-181
-206
302
1615
2028
314
-1450
-1300
-435
-193
-146
-7
-9
-27
37
52
46
78
98
106
127
148
170
198
223
250
292
343
393
437
475
505
516
508
482
423
330
229
138
49
-39
-108
-149
-175
-188
-188
-182
-177
-173
-170
-167
-162
-155
-151
-146
-143
-147
-151
-154
-159
-163
-160
-157
-159
-160
-154
-149
-149
-151
-151
-151
-148
-143
-139
-133
-122
-108
-99
-98
-92
-74
-67
-74
-61
-36
-50
-83
-88
-88
-98
-92
-98
-108
-70
-69
-129
-148
-168
127
1222
2001
807
-1191
-1576
-704
-224
-160
-16
47
17
55
90
90
114
140
154
174
187
197
229
267
297
332
381
439
499
549
581
595
591
558
486
382
269
162
59
-40
-120
-170
-200
-221
-230
-228
-223
-218
-210
-201
-195
-186
-179
-177
-176
-174
-171
-169
-168
-168
-172
-178
-183
-184
-185
-186
-184
-178
-172
-170
-167
-160
-154
-148
-137
-130
-124
-100
-78
-84
-83
-54
-54
-94
-108
-101
-113
-112
-99
-111
-98
-70
-114
-159
-202
-129
700
1932
1597
-466
-1662
-1038
-292
-176
-82
39
17
30
84
83
91
125
136
149
176
194
211
238
272
315
361
410
473
537
580
599
605
595
551
463
350
233
117
10
-70
-125
-166
-193
-207
-215
-213
-203
-202
-203
-191
-180
-184
-187
-179
-173
-176
-178
-174
-170
-169
-168
-165
-164
-163
-162
-163
-165
-161
-153
-149
-149
-145
-137
-131
-130
-131
-123
-104
-94
-97
-84
-60
-62
-65
-36
-25
-61
-85
-84
-93
-93
-83
-98
-90
-63
-105
-154
-198
-160
590
1870
1744
-268
-1657
-1142
-329
-176
-104
23
4
4
61
66
69
97
107
118
146
167
187
217
249
283
325
378
437
491
534
562
574
562
520
444
340
228
122
26
-58
-122
-162
-186
-199
-201
-198
-193
-185
-175
-167
-162
-158
-157
-156
-154
-151
-149
-147
-147
-149
-149
-149
-151
-151
-150
-151
-155
-151
-143
-140
-143
-143
-135
-124
-120
-119
-110
-101
-102
-101
-86
-78
-78
-56
-33
-42
-42
-9
-7
-53
-76
-71
-80
-79
-69
-87
-80
-56
-103
-147
-163
-72
720
1927
1642
-388
-1635
-1061
-311
-186
-100
17
-8
5
68
75
82
109
117
131
158
178
200
232
262
297
342
391
444
503
551
574
574
557
519
446
345
236
131
30
-58
-124
-169
-201
-218
-222
-221
-219
-217
-212
-202
-190
-179
-174
-170
-165
-163
-164
-169
-172
-171
-170
-172
-177
-179
-178
-177
-178
-179
-175
-169
-166
-164
-156
-150
-153
-147
-130
-122
-121
-100
-76
-79
-77
-46
-45
-85
-103
-95
-98
-94
-85
-97
-88
-73
-112
-148
-177
-42
801
1846
1309
-693
-1709
-1039
-313
-176
-72
38
23
43
96
100
113
145
158
171
194
213
237
265
295
333
382
438
499
558
601
625
630
609
551
454
340
221
105
0
-81
-136
-175
-202
-216
-218
-215
-207
-195
-187
-182
-176
-170
-165
-161
-157
-152
-148
-147
-147
-149
-153
-156
-157
-156
-155
-155
-154
-153
-151
-146
-143
-141
-138
-133
-130
-125
-119
-115
-107
-93
-85
-85
-67
-45
-48
-53
-27
-18
-53
-76
-74
-86
-87
-72
-90
-89
-53
-95
-155
-175
-164
452
1732
1855
-18
-1560
-1185
-348
-172
-118
14
1
-7
52
62
61
89
101
113
139
157
172
198
233
272
314
356
406
458
503
532
544
544
524
465
371
269
174
80
-9
-84
-134
-158
-171
-185
-192
-188
-179
-173
-169
-162
-157
-159
-160
-159
-159
-157
-151
-148
-151
-153
-152
-153
-157
-158
-156
-152
-151
-155
-159
-156
-150
-146
-141
-135
-132
-134
-133
-128
-120
-107
-100
-103
-90
-61
-60
-74
-52
-29
-55
-85
-86
-93
-97
-85
-93
-92
-64
-95
-142
-143
-61
554
1630
1576
-208
-1604
-1232
-419
-202
-120
21
25
21
77
94
99
130
147
160
186
208
225
250
280
315
357
404
456
510
560
595
607
594
555
480
373
261
155
55
-32
-100
-149
-180
-191
-192
-192
-188
-181
-175
-172
-168
-161
-155
-152
-150
-148
-149
-150
-150
-153
-158
-162
-164
-165
-166
-167
-167
-166
-163
-161
-158
-156
-155
-151
-146
-141
-132
-116
-108
-104
-82
-57
-64
-71
-45
-41
-82
-103
-99
-107
-101
-88
-109
-101
-73
-122
-169
-189
-110
667
1870
1591
-428
-1653
-1051
-288
-171
-95
20
-5
5
61
59
58
83
92
102
125
147
172
204
235
270
313
362
415
468
509
533
544
536
498
430
343
249
149
53
-28
-86
-128
-155
-166
-166
-162
-158
-154
-148
-142
-136
-132
-132
-132
-131
-132
-134
-138
-141
-140
-137
-138
-140
-143
-145
-145
-145
-147
-148
-147
-141
-133
-129
-127
-125
-121
-118
-111
-104
-100
-93
-81
-82
-87
-66
-40
-45
-42
-8
-10
-57
-79
-80
-98
-92
-77
-93
-80
-60
-119
-164
-179
-61
785
1927
1455
-600
-1658
-975
-274
-182
-94
10
-17
6
60
53
60
97
115
132
158
179
202
230
257
291
334
377
422
471
515
546
562
558
521
448
353
253
154
49
-50
-121
-163
-190
-204
-199
-191
-188
-184
-179
-181
-180
-172
-164
-158
-154
-158
-168
-172
-173
-168
-163
-168
-177
-173
-164
-164
-164
-162
-162
-159
-144
-126
-125
-126
-105
-85
-94
-89
-52
-48
-89
-113
-114
-112
-96
-112
-166
-156
-109
-136
-170
-173
-7
804
1741
1135
-802
-1712
-1024
-330
-196
-81
32
13
26
73
78
94
125
136
151
178
199
224
256
287
323
368
418
471
524
568
593
600
583
528
437
323
204
87
-15
-94
-152
-191
-212
-219
-218
-211
-200
-191
-187
-183
-175
-167
-163
-160
-158
-156
-153
-151
-153
-156
-157
-157
-155
-153
-153
-154
-153
-152
-152
-148
-139
-124
-111
-107
-94
-67
-57
-68
-56
-34
-54
-90
-94
-97
-105
-90
-90
-103
-72
-76
-133
-152
-185
116
1265
2078
841
-1191
-1551
-664
-211
-164
-28
20
-11
37
68
58
83
104
104
123
150
167
188
218
252
293
342
393
444
490
526
550
563
552
504
417
314
210
97
-14
-94
-146
-188
-213
-212
-207
-209
-210
-206
-200
-191
-186
-192
-193
-186
-183
-184
-185
-185
-186
-186
-186
-186
-187
-189
-186
-180
-177
-172
-159
-148
-143
-125
-101
-105
-115
-94
-79
-107
-130
-126
-131
-129
-109
-118
-122
-91
-112
-165
-191
-180
355
1553
1817
115
-1565
-1401
-521
-221
-139
9
21
7
66
84
81
111
129
138
163
187
208
235
266
301
344
394
451
514
564
592
605
602
565
485
377
262
146
34
-59
-126
-169
-194
-206
-210
-209
-202
-195
-189
-183
-177
-172
-167
-164
-162
-161
-159
-156
-155
-156
-159
-163
-166
-167
-167
-167
-166
-165
-163
-153
-136
-128
-124
-102
-76
-79
-85
-58
-46
-83
-110
-107
-115
-116
-100
-116
-119
-79
-107
-164
-185
-221
280
1601
2016
279
-1500
-1327
-429
-176
-133
3
0
-16
47
61
57
88
103
108
133
153
167
195
227
258
294
339
389
439
481
509
524
522
497
440
359
266
166
67
-18
-86
-136
-168
-180
-181
-174
-167
-162
-159
-158
-157
-154
-147
-143
-149
-153
-153
-154
-157
-158
-157
-156
-155
-157
-161
-163
-163
-160
-157
-159
-158
-149
-141
-141
-139
-132
-117
-104
-106
-99
-69
-57
-67
-54
-37
-62
-88
-83
-87
-94
-86
-99
-102
-65
-88
-146
-163
-153
343
1538
1886
247
-1481
-1384
-513
-214
-150
-2
19
1
53
75
74
103
125
135
155
175
194
222
251
283
323
366
411
465
519
555
570
568
544
486
396
289
181
76
-17
-88
-140
-177
-195
-198
-197
-196
-190
-179
-171
-165
-159
-151
-146
-144
-142
-141
-144
-145
-145
-147
-154
-159
-160
-162
-165
-166
-166
-165
-163
-158
-155
-152
-149
-143
-131
-116
-111
-108
-86
-68
-76
-75
-49
-55
-94
-107
-106
-115
-108
-102
-117
-98
-84
-130
-162
-203
-19
967
1970
1134
-955
-1703
-874
-240
-163
-53
29
-5
24
71
68
87
114
119
134
159
176
198
228
260
296
339
388
440
490
529
553
560
548
504
423
323
221
120
25
-55
-113
-150
-170
-180
-186
-183
-173
-168
-166
-161
-155
-150
-145
-141
-139
-137
-133
-133
-134
-131
-127
-126
-128
-129
-129
-129
-128
-129
-129
-125
-120
-115
-113
-111
-107
-103
-102
-97
-87
-81
-81
-78
-68
-60
-58
-54
-37
-22
-26
-24
7
16
-23
-49
-46
-54
-56
-48
-67
-58
-23
-71
-124
-137
-92
585
1806
1729
-190
-1553
-1073
-294
-154
-88
33
14
17
77
80
78
108
124
133
153
170
186
207
231
264
302
341
389
445
491
521
534
533
511
456
369
270
168
64
-31
-104
-154
-188
-209
-218
-223
-222
-214
-202
-194
-191
-189
-183
-179
-178
-179
-181
-184
-186
-188
-192
-194
-194
-194
-197
-201
-204
-202
-197
-193
-191
-191
-192
-188
-182
-181
-180
-175
-176
-175
-161
-151
-156
-148
-121
-114
-122
-102
-73
-94
-132
-134
-131
-140
-133
-133
-133
-100
-110
-165
-178
-168
209
1286
1840
497
-1337
-1525
-666
-251
-181
-38
13
-5
41
73
77
106
131
143
167
195
217
246
276
308
346
392
443
500
556
603
630
636
619
567
480
376
270
165
66
-11
-62
-94
-114
-122
-122
-120
-113
-103
-90
-75
-61
-54
-49
-42
-34
-27
-24
-22
-24
-26
-27
-28
-30
-34
-38
-40
-41
-40
-40
-38
-36
-33
-30
-27
-25
-21
-17
-15
-13
-14
-18
-16
-7
-5
-9
-3
13
14
5
20
42
16
-33
-48
-54
-71
-72
-83
-104
-82
-93
-168
-203
-240
22
1133
2024
909
-1147
-1635
-808
-356
-331
-218
-173
-215
-184
-165
-190
-181
-163
-169
-172
-170
-170
-161
-146
-131
-112
-85
-51
-11
