# session 37
-20
1
-13
-88
-80
75
162
73
-59
-178
-305
-407
-465
-503
-523
-522
-512
-496
-478
-464
-446
-419
-393
-376
-361
-345
-326
-306
-289
-276
-260
-245
-237
-230
-220
-214
-208
-197
-184
-173
-162
-151
-141
-136
-128
-116
-110
-109
-93
-75
-73
-61
-25
-15
-39
-48
-42
-45
-35
-23
-34
-23
1
-23
-43
-101
-155
413
1567
1682
214
-884
-552
-17
22
58
154
119
111
164
165
161
186
194
195
214
235
249
265
284
310
346
387
427
470
519
565
600
623
614
542
413
264
125
6
-84
-140
-173
-193
-199
-197
-195
-191
-186
-179
-171
-165
-162
-159
-157
-154
-150
-145
-146
-148
-147
-145
-145
-144
-144
-146
-148
-149
-152
-153
-150
-146
-143
-137
-129
-133
-143
-135
-121
-123
-116
-88
-82
-109
-120
-116
-125
-125
-115
-130
-124
-102
-137
-163
-198
-268
234
1412
1640
180
-1016
-714
-145
-103
-79
26
-3
-17
30
32
30
59
68
71
92
115
133
154
177
203
233
265
303
348
394
437
472
493
489
439
339
207
75
-40
-127
-185
-221
-239
-244
-240
-234
-227
-223
-218
-209
-201
-198
-193
-184
-178
-176
-172
-168
-166
-162
-156
-157
-158
-154
-150
-147
-142
-138
-135
-131
-127
-125
-123
-118
-109
-108
-120
-121
-102
-90
-82
-52
-32
-54
-76
-72
-77
-80
-65
-70
-72
-41
-54
-90
-107
-193
78
1141
1778
684
-781
-831
-194
-33
-49
56
62
35
81
94
79
99
116
122
142
160
170
187
207
226
254
291
330
369
408
448
485
516
526
492
405
281
153
39
-57
-131
-178
-200
-207
-211
-213
-209
-204
-200
-194
-188
-186
-182
-171
-163
-164
-163
-162
-165
-165
-158
-155
-158
-160
-159
-159
-156
-152
-149
-147
-145
-141
-133
-127
-136
-145
-133
-120
-122
-109
-75
-73
-103
-115
-112
-118
-113
-106
-118
-103
-77
-107
-134
-172
-157
460
1485
1336
-224
-1157
-672
-122
-86
-33
64
36
37
82
80
85
118
134
141
156
173
194
216
234
259
294
329
368
417
466
502
532
551
535
465
348
209
72
-43
-126
-180
-213
-234
-244
-245
-239
-231
-225
-219
-209
-198
-191
-184
-177
-177
-178
-172
-166
-172
-177
-172
-165
-163
-159
-153
-150
-147
-141
-143
-145
-133
-124
-133
-134
-116
-109
-109
-83
-59
-78
-105
-103
-104
-110
-96
-97
-110
-83
-76
-111
-136
-237
-110
838
1762
1042
-561
-964
-337
-46
-73
20
60
21
54
81
68
87
111
111
121
141
158
177
199
219
245
279
318
361
407
449
486
514
522
490
405
280
143
23
-71
-141
-188
-212
-226
-232
-227
-218
-211
-207
-203
-198
-191
-185
-180
-172
-165
-165
-165
-162
-160
-159
-156
-153
-151
-147
-143
-141
-140
-138
-134
-131
-131
-128
-120
-121
-131
-126
-111
-107
-96
-65
-56
-79
-89
-86
-98
-98
-84
-97
-95
-65
-96
-133
-156
-246
123
1278
1767
482
-898
-780
-161
-63
-67
40
32
15
65
70
62
89
105
111
129
143
152
171
195
219
248
281
319
362
407
447
481
504
506
465
370
243
118
7
-87
-156
-193
-210
-222
-231
-228
-218
-210
-204
-196
-187
-181
-176
-169
-166
-167
-165
-157
-154
-154
-153
-151
-152
-153
-151
-150
-149
-143
-138
-137
-136
-134
-131
-129
-126
-119
-110
-109
-115
-111
-100
-98
-84
-53
-49
-79
-90
-84
-93
-91
-76
-89
-85
-61
-93
-114
-142
-219
258
1430
1681
233
-970
-671
-104
-68
-48
53
27
20
68
68
73
104
113
118
137
147
161
188
214
237
263
295
339
389
436
478
515
544
549
504
399
263
132
11
-95
-165
-199
-219
-234
-237
-231
-223
-216
-214
-212
-201
-188
-185
-184
-178
-174
-174
-169
-158
-153
-156
-155
-152
-153
-150
-144
-141
-142
-139
-137
-134
-126
-124
-134
-129
-108
-103
-104
-84
-74
-97
-111
-108
-116
-117
-101
-106
-105
-80
-101
-134
-163
-236
139
1226
1638
342
-1020
-884
-227
-92
-80
40
39
16
62
75
72
99
116
127
149
163
177
201
223
246
278
312
353
407
461
504
541
567
562
502
385
235
87
-37
-129
-190
-227
-249
-258
-257
-250
-242
-236
-233
-227
-218
-210
-203
-196
-187
-180
-175
-172
-168
-163
-162
-167
-170
-166
-163
-163
-162
-158
-155
-150
-144
-144
-145
-136
-128
-133
-132
-117
-110
-106
-80
-61
-80
-98
-92
-98
-106
-92
-93
-98
-67
-73
-114
-130
-231
-72
938
1822
1000
-579
-881
-259
-29
-64
34
64
29
66
90
82
99
112
112
130
151
162
179
203
227
255
291
329
373
422
465
501
538
558
527
438
314
181
59
-38
-109
-154
-172
-181
-191
-192
-185
-180
-173
-163
-158
-152
-139
-130
-130
-124
-120
-125
-120
-107
-118
-127
-105
-105
-131
-121
-114
-150
-141
-80
-72
-94
-71
-57
-84
-82
-78
-142
-174
-91
-52
-126
-139
-103
-177
-230
-145
-131
-212
-179
-112
-142
-180
-245
-190
443
1204
895
-245
-777
-510
-267
-160
2
49
-9
1
34
32
38
51
54
55
86
139
129
107
170
177
93
163
335
340
273
302
343
343
325
266
221
204
114
6
-18
-58
-140
-147
-124
-152
-172
-156
-155
-160
-150
-135
-129
-135
-135
-111
-87
-90
-90
-65
-55
-73
-79
-68
-68
-60
-40
-42
-29
2
-28
-44
32
37
-43
-3
67
7
-35
-22
-85
-134
-93
-87
-137
-142
-103
-89
-110
-132
-157
-114
227
783
877
165
-648
-802
-461
-155
-41
-17
-9
5
13
14
22
33
40
47
57
75
103
125
130
142
178
214
234
262
303
343
384
431
457
447
418
363
270
176
112
59
2
-41
-57
-55
-60
-68
-65
-58
-67
-77
-70
-65
-77
-84
-85
-95
-111
-114
-106
-102
-105
-97
-85
-119
-169
-142
-86
-109
-136
-91
-100
-194
-205
-114
-75
-97
-82
-63
-103
-142
-127
-124
-163
-155
-103
-124
-175
-134
-98
-191
-268
4
724
1228
696
-380
-764
-426
-165
-104
-27
-13
-42
-8
-8
-44
22
117
96
27
24
58
69
74
91
94
97
148
195
198
243
310
274
241
336
374
237
113
73
3
-86
-131
-166
-187
-151
-105
-123
-165
-156
-121
-122
-145
-145
-123
-103
-89
-84
-91
-97
-91
-91
-98
-98
-95
-96
-89
-81
-84
-84
-77
-73
-54
-15
-1
-27
-51
-54
-48
-49
-70
-75
-25
2
-53
-67
-9
-72
-4
756
1526
866
-665
-1136
-515
-130
-147
-67
28
-10
-45
-20
14
29
40
66
88
100
116
120
118
170
231
227
253
331
311
277
393
452
330
293
347
241
90
76
13
-127
-94
-33
-195
-284
-145
-144
-248
-131
-2
-102
-194
-161
-130
-105
-81
-105
-137
-126
-108
-119
-120
-83
-94
-160
-117
-24
-72
-118
-49
-88
-203
-133
-6
-47
-123
-113
-99
-96
-68
-53
-91
-139
-104
-19
-58
-130
197
904
1166
487
-390
-588
-298
-93
-29
17
45
74
105
102
103
114
113
152
206
159
71
81
140
160
182
219
210
185
222
280
288
284
293
261
185
105
16
-70
-145
-251
-347
-344
-336
-417
-443
-331
-246
-253
-244
-199
-185
-193
-184
-164
-144
-122
-111
-123
-128
-95
-59
-66
-69
-43
-35
-19
44
58
3
-5
9
-45
-87
-71
-68
-84
-81
-71
-54
-36
-24
-16
-12
153
673
1102
682
-310
-800
-538
-150
22
77
92
102
123
122
103
84
53
39
67
75
33
11
49
103
150
196
230
254
292
350
402
431
422
364
272
163
34
-90
-170
-215
-260
-300
-305
-288
-277
-271
-249
-220
-206
-197
-171
-152
-171
-183
-154
-138
-145
-100
-55
-115
-167
-102
-85
-178
-175
-59
-29
-83
-80
-60
-100
-123
-85
-102
-148
-87
-35
-127
-187
-109
-42
-127
-316
-14
1182
1950
930
-562
-724
-163
-16
-110
-83
23
124
106
23
45
98
96
120
130
73
89
203
235
167
165
260
332
352
402
481
523
542
547
487
377
269
164
50
-51
-103
-104
-135
-208
-218
-187
-213
-215
-135
-100
-133
-128
-115
-150
-157
-129
-153
-187
-164
-149
-177
-172
-131
-127
-148
-139
-134
-164
-185
-167
-157
-193
-230
-207
-170
-181
-187
-181
-206
-238
-336
-275
598
1698
1272
-384
-1096
-600
-268
-307
-264
-235
-264
-244
-254
-276
-236
-215
-200
-106
-9
21
52
103
152
211
273
323
373
418
460
503
510
474
425
340
193
28
-96
-182
-269
-336
-335
-294
-251
-194
-149
-126
-90
-87
-148
-173
-116
-42
3
-17
-62
-6
76
27
-35
3
18
-2
18
16
-4
23
29
0
-5
-24
-52
-28
-30
-74
-47
-5
-38
-49
-46
-94
-130
-186
-12
896
1738
1051
-406
-751
-226
-35
-83
10
48
16
38
42
29
64
99
102
93
73
73
125
169
155
148
196
248
265
281
317
348
394
447
379
213
147
143
34
-88
-136
-201
-230
-176
-188
-262
-263
-268
-326
-287
-141
-92
-174
-215
-172
-167
-205
-197
-171
-176
-150
-88
-97
-173
-205
-175
-124
-64
-48
-86
-118
-137
-156
-145
-119
-104
-81
-77
-130
-194
-190
-141
-141
-10
570
1116
702
-341
-800
-523
-226
-128
-66
-42
-50
-26
6
13
11
8
13
33
53
67
89
112
127
142
163
192
237
280
306
333
365
377
367
335
269
191
112
27
-45
-85
-110
-126
-134
-132
-105
-67
-58
-66
-72
-100
-131
-113
-82
-82
-81
-64
-62
-65
-56
-45
-33
-20
-5
20
25
0
3
13
-51
-115
-89
-68
-85
-41
5
-64
-165
-178
-15
491
1101
1022
48
-882
-991
-579
-242
-104
-43
-9
-1
0
7
24
50
69
68
63
81
106
113
108
111
119
119
116
126
139
130
125
150
172
169
168
143
60
-23
-65
-109
-165
-186
-170
-146
-127
-114
-100
-81
-64
-48
-34
-30
-36
-46
-47
-35
-32
-48
-53
-48
-59
-64
-50
-49
-47
-4
23
-31
-85
-57
-32
-88
-137
-107
-72
-82
-100
-108
-111
-38
326
948
1111
271
-804
-1026
-558
-187
-84
-47
-31
-21
5
18
32
70
81
60
59
75
84
97
102
110
156
205
219
249
312
359
389
438
481
459
364
275
218
105
-50
-120
-120
-146
-176
-181
-189
-180
-143
-137
-174
-192
-156
-82
-30
-61
-143
-187
-176
-154
-153
-170
-177
-165
-161
-157
-131
-115
-129
-139
-141
-159
-169
-146
-141
-172
-162
-132
-173
-223
-344
-580
-157
1317
2117
914
-564
-612
-162
-164
-177
-63
-83
-101
-41
-35
-37
4
23
30
44
55
92
146
166
175
219
269
301
338
387
429
462
495
507
441
281
110
3
-83
-189
-252
-259
-280
-307
-287
-253
-244
-232
-215
-209
-200
-187
-183
-177
-166
-165
-158
-125
-91
-99
-144
-159
-123
-105
-124
-111
-75
-82
-112
-121
-124
-121
-108
-114
-116
-100
-122
-154
-239
-474
-245
1075
2150
1270
-398
-755
-237
-104
-150
-19
24
-25
1
24
14
32
50
52
74
104
113
122
146
175
206
244
283
320
368
423
470
507
524
478
357
205
61
-71
-177
-238
-267
-281
-283
-278
-273
-264
-249
-235
-232
-238
-240
-232
-226
-222
-209
-194
-195
-203
-193
-172
-163
-153
-129
-114
-121
-130
-135
-142
-132
-116
-137
-146
-104
-93
-125
-213
-386
-50
1204
1943
842
-619
-712
-209
-140
-156
-53
-67
-93
-38
-23
-25
14
35
32
48
80
105
123
142
168
197
234
296
367
403
409
422
444
440
382
263
120
11
-60
-138
-221
-257
-249
-245
-244
-231
-218
-215
-213
-206
-200
-194
-191
-187
-169
-148
-146
-157
-157
-147
-142
-134
-118
-113
-119
-119
-120
-123
-111
-106
-115
-94
-87
-126
-152
-242
-167
725
1803
1326
-316
-952
-412
-92
-129
-30
50
17
40
73
61
75
100
103
114
133
140
153
178
207
232
257
289
328
365
399
428
451
463
431
334
196
66
-39
-118
-177
-215
-234
-242
-248
-246
-239
-235
-231
-225
-220
-216
-211
-208
-203
-195
-189
-190
-192
-186
-179
-183
-184
-163
-138
-140
-155
-158
-165
-172
-159
-159
-169
-145
-139
-175
-222
-360
-249
771
1855
1251
-402
-936
-388
-120
-160
-64
-11
-44
-9
23
13
30
55
60
76
98
108
122
144
170
200
233
267
307
350
387
416
442
448
402
296
160
33
-69
-147
-200
-232
-248
-255
-252
-245
-236
-227
-222
-219
-213
-204
-202
-201
-195
-185
-177
-178
-186
-183
-173
-176
-177
-167
-156
-144
-129
-125
-133
-137
-142
-160
-154
-116
-130
-174
-216
-352
-137
1000
1903
1002
-578
-842
-261
-89
-139
-35
24
16
44
56
47
59
79
96
106
113
136
159
168
188
217
240
277
329
362
380
412
437
422
376
308
212
111
33
-31
-87
-120
-134
-138
-127
-106
-97
-101
-98
-80
-65
-69
-81
-79
-63
-49
-52
-67
-68
-44
-22
-31
-38
-10
16
-8
-46
-57
-56
-50
-44
-57
-57
-38
-58
-90
-114
-95
384
1313
1398
79
-1030
-816
-256
-130
-93
-2
7
21
57
43
25
25
13
19
48
65
80
108
132
148
171
203
241
283
327
363
384
389
363
279
148
17
-97
-199
-271
-301
-321
-341
-336
-311
-306
-322
-326
-314
-309
-311
-308
-304
-309
-314
-310
-302
-297
-302
-312
-307
-293
-294
-303
-293
-271
-262
-261
-263
-275
-271
-248
-255
-266
-227
-214
-252
-301
-443
-297
785
1854
1182
-465
-939
-381
-133
-165
-56
-6
-37
10
55
59
84
108
124
160
190
204
236
280
317
357
405
454
507
563
616
667
712
723
667
554
429
324
235
159
115
104
106
111
125
