# session 17
-30
-15
-51
-79
15
168
208
161
149
159
152
150
148
132
119
114
103
86
71
65
60
50
39
31
24
27
37
33
22
28
26
8
16
39
28
1
-24
-37
-23
-24
-44
-19
-24
-110
-206
-361
-109
1313
2637
1590
-774
-1518
-748
-300
-260
-98
-19
-52
-8
38
48
80
102
131
207
283
353
472
618
733
808
847
839
769
621
429
256
106
-40
-156
-232
-297
-343
-360
-367
-370
-365
-361
-353
-340
-332
-327
-316
-307
-305
-303
-302
-301
-293
-286
-290
-298
-290
-263
-246
-253
-243
-205
-199
-222
-202
-158
-157
-179
-185
-174
-164
-173
-167
-130
-148
-208
-298
-436
28
1514
2292
748
-1272
-1441
-628
-323
-244
-57
-15
-25
45
71
77
135
182
220
288
360
442
569
706
808
869
881
824
706
550
381
221
81
-35
-124
-188
-225
-233
-229
-240
-268
-299
-311
-297
-264
-234
-215
-207
-206
-206
-205
-206
-208
-207
-206
-207
-206
-195
-183
-173
-166
-166
-160
-132
-111
-116
-105
-77
-81
-111
-125
-119
-102
-101
-119
-92
-67
-122
-209
-376
-304
884
2479
2048
-295
-1555
-960
-350
-283
-141
-6
-34
-14
46
61
90
130
160
218
293
372
479
609
731
823
861
840
772
654
491
322
174
44
-72
-160
-217
-253
-273
-273
-263
-258
-256
-248
-235
-228
-226
-226
-229
-227
-223
-223
-228
-230
-231
-232
-231
-229
-228
-224
-210
-197
-195
-197
-177
-149
-150
-153
-119
-96
-115
-140
-151
-146
-132
-147
-150
-104
-128
-205
-283
-449
-31
1617
2672
1115
-1166
-1465
-636
-343
-282
-85
-45
-67
2
32
36
85
128
167
228
301
403
541
678
788
858
871
831
743
600
431
271
123
-17
-127
-202
-255
-287
-299
-300
-298
-297
-285
-265
-255
-257
-254
-243
-236
-229
-220
-221
-230
-232
-230
-231
-227
-213
-201
-194
-184
-177
-168
-142
-127
-135
-124
-94
-97
-122
-131
-126
-115
-115
-126
-103
-94
-152
-218
-323
-166
959
2237
1547
-666
-1633
-934
-342
-258
-108
8
-9
34
87
85
114
171
211
251
300
376
493
625
743
830
863
840
763
624
448
285
145
13
-100
-174
-214
-241
-267
-282
-277
-257
-241
-233
-225
-213
-202
-198
-199
-200
-197
-196
-200
-202
-201
-204
-204
-198
-198
-194
-171
-155
-156
-142
-126
-136
-139
-114
-102
-118
-135
-140
-132
-130
-138
-121
-114
-149
-191
-343
-344
672
2191
1934
-261
-1629
-1129
-427
-284
-152
-14
-31
-16
41
50
76
119
144
192
263
329
424
558
683
777
838
843
785
670
512
337
175
37
-75
-158
-216
-251
-272
-291
-301
-295
-280
-266
-252
-233
-213
-203
-204
-205
-198
-193
-200
-206
-199
-191
-194
-194
-186
-187
-194
-189
-172
-158
-159
-159
-138
-118
-123
-120
-94
-86
-106
-124
-130
-118
-113
-122
-98
-86
-149
-221
-366
-304
868
2499
2108
-265
-1566
-958
-329
-274
-147
-19
-48
-18
38
33
64
125
158
204
277
359
468
604
729
828
892
902
847
729
562
382
219
68
-72
-171
-222
-256
-289
-312
-320
-317
-308
-301
-293
-285
-282
-275
-261
-250
-246
-241
-238
-238
-237
-237
-235
-229
-229
-232
-230
-218
-193
-172
-180
-192
-168
-136
-134
-131
-105
-94
-110
-130
-138
-128
-118
-120
-98
-89
-141
-206
-301
-127
949
2128
1436
-681
-1601
-919
-326
-231
-85
33
19
52
102
110
146
190
208
246
318
402
502
619
732
821
871
865
792
655
482
319
182
56
-56
-137
-188
-223
-251
-267
-265
-257
-245
-227
-211
-200
-184
-168
-167
-177
-184
-187
-189
-187
-189
-195
-197
-192
-190
-196
-197
-183
-166
-161
-157
-153
-152
-139
-122
-125
-128
-106
-90
-109
-135
-131
-117
-128
-135
-105
-106
-142
-183
-349
-254
923
2290
1635
-603
-1635
-975
-360
-256
-111
5
-21
4
63
73
91
126
154
197
259
333
435
557
679
781
842
850
805
697
537
367
215
73
-50
-137
-197
-246
-280
-293
-291
-289
-293
-284
-259
-243
-237
-227
-216
-213
-210
-202
-195
-198
-205
-203
-195
-195
-198
-188
-177
-179
-182
-168
-149
-150
-163
-161
-141
-124
-123
-124
-107
-90
-99
-103
-77
-55
-68
-96
-108
-93
-89
-118
-103
-65
-115
-192
-312
-358
533
2227
2377
222
-1467
-1126
-392
-273
-174
-13
-26
-23
44
55
69
119
154
191
253
329
424
546
676
787
861
889
865
782
647
482
316
166
32
-78
-155
-207
-243
-260
-261
-263
-261
-246
-232
-229
-220
-206
-203
-207
-204
-199
-198
-198
-199
-204
-207
-201
-199
-209
-216
-208
-196
-190
-186
-177
-169
-161
-152
-149
-152
-154
-155
-150
-133
-118
-123
-128
-109
-92
-103
-104
-74
-54
-66
-87
-98
-99
-105
-102
-67
-78
-145
-197
-293
-24
1254
2358
1282
-916
-1539
-755
-302
-239
-64
15
-13
48
94
81
108
149
172
219
292
371
467
585
705
809
875
879
822
713
560
389
234
100
-22
-127
-203
-250
-284
-309
-312
-295
-282
-275
-262
-247
-240
-231
-221
-219
-216
-206
-205
-216
-219
-215
-211
-205
-200
-201
-198
-184
-178
-181
-178
-169
-165
-163
-151
-140
-142
-151
-147
-123
-104
-106
-97
-61
-41
-60
-90
-105
-95
-91
-100
-76
-64
-121
-189
-332
-260
886
2434
2009
-288
-1530
-947
-337
-261
-123
0
-25
12
70
64
93
152
177
209
273
351
452
576
704
822
912
945
907
805
650
469
300
157
27
-90
-178
-231
-263
-281
-286
-286
-285
-277
-259
-245
-242
-237
-226
-224
-227
-221
-217
-222
-226
-227
-235
-236
-227
-226
-231
-223
-212
-215
-211
-192
-187
-206
-210
-191
-182
-186
-184
-170
-156
-149
-150
-148
-131
-120
-126
-116
-77
-57
-77
-103
-110
-95
-93
-114
-93
-61
-106
-180
-315
-276
782
2376
2162
-68
-1464
-980
-345
-257
-125
10
-21
0
63
64
86
135
162
207
276
338
418
535
660
773
864
909
896
828
698
524
352
202
62
-61
-146
-196
-232
-258
-268
-269
-266
-257
-246
-236
-227
-215
-203
-195
-193
-199
-205
-201
-194
-202
-212
-206
-200
-208
-210
-197
-190
-191
-186
-179
-175
-168
-161
-159
-162
-161
-153
-146
-143
-138
-129
-128
-125
-115
-111
-118
-115
-97
-87
-91
-76
-38
-21
-42
-73
-85
-72
-70
-95
-71
-32
-93
-175
-291
-329
594
2329
2466
271
-1403
-1038
-341
-259
-155
11
-20
-26
43
54
62
108
146
184
235
298
389
505
634
766
865
912
919
874
750
573
396
242
92
-50
-157
-228
-284
-321
-324
-319
-324
-321
-307
-300
-291
-269
-255
-255
-250
-244
-245
-242
-233
-235
-243
-245
-245
-242
-228
-218
-221
-217
-202
-197
-202
-199
-188
-176
-171
-172
-169
-156
-144
-145
-155
-148
-125
-120
-124
-96
-61
-65
-90
-101
-86
-73
-88
-86
-53
-70
-116
-192
-274
299
1749
2276
613
-1218
-1228
-474
-240
-156
23
46
40
107
117
111
159
194
211
254
311
382
488
609
719
814
876
882
833
726
561
380
220
84
-36
-133
-200
-242
-268
-284
-291
-288
-278
-268
-259
-247
-233
-221
-210
-200
-201
-214
-218
-205
-199
-216
-228
-214
-203
-204
-200
-198
-201
-195
-184
-180
-171
-163
-173
-175
-152
-138
-147
-150
-131
-114
-120
-129
-106
-78
-82
-101
-113
-114
-110
-117
-107
-68
-91
-162
-252
-401
29
1603
2645
1231
-991
-1397
-625
-310
-258
-74
-28
-59
3
37
32
68
109
137
185
253
333
431
554
691
808
887
927
904
806
662
492
308
150
27
-85
-177
-230
-258
-278
-287
-283
-274
-262
-250
-240
-233
-230
-228
-219
-210
-212
-215
-208
-203
-210
-211
-199
-192
-192
-189
-188
-193
-196
-187
-172
-165
-166
-159
-145
-142
-148
-147
-145
-142
-131
-119
-124
-133
-126
-112
-108
-101
-72
-49
-56
-82
-100
-91
-83
-104
-86
-44
-93
-166
-239
-275
474
2053
2331
328
-1422
-1177
-421
-267
-166
5
1
9
78
75
80
137
172
202
257
310
377
488
625
755
853
916
946
914
795
625
459
311
163
13
-104
-161
-207
-266
-275
-260
-345
-471
-469
-373
-313
-277
-238
-230
-233
-214
-201
-206
-207
-193
-179
-184
-186
-161
-181
-304
-403
-363
-274
-236
-218
-194
-175
-159
-139
-130
-134
-115
-69
-91
-212
-294
-269
-232
-231
-208
-155
-132
-140
-109
-82
-123
-175
-291
-252
765
2295
2073
-109
-1487
-1018
-366
-249
-115
17
-5
20
79
78
104
156
175
208
272
332
413
532
658
782
897
960
959
901
773
592
407
238
85
-37
-130
-206
-254
-267
-274
-287
-287
-275
-271
-265
-246
-232
-228
-222
-214
-211
-207
-206
-216
-220
-214
-212
-214
-209
-202
-198
-198
-203
-201
-184
-170
-171
-168
-154
-149
-156
-157
-151
-144
-133
-130
-134
-122
-103
-106
-117
-95
-55
-43
-60
-86
-103
-91
-86
-113
-93
-51
-108
-189
-295
-336
550
2275
2484
341
-1392
-1091
-380
-276
-178
-21
-47
-40
39
39
39
91
126
151
207
278
357
460
581
712
834
912
932
904
826
685
501
324
173
32
-98
-190
-242
-275
-293
-291
-280
-276
-281
-276
-260
-248
-248
-248
-244
-234
-224
-227
-237
-235
-226
-225
-232
-233
-222
-213
-215
-216
-203
-192
-193
-190
-181
-179
-174
-162
-152
-153
-157
-151
-137
-136
-141
-121
-109
-130
-123
-78
-70
-101
-108
-96
-95
-103
-107
-85
-84
-128
-187
-309
-117
1084
2352
1588
-618
-1527
-849
-331
-273
-108
9
-24
18
79
69
88
143
169
195
251
317
391
492
619
746
839
882
876
819
700
535
364
207
59
-66
-150
-202
-242
-269
-278
-274
-267
-258
-251
-247
-235
-219
-212
-206
-193
-192
-201
-200
-195
-200
-204
-191
-177
-177
-181
-180
-178
-177
-169
-159
-154
-151
-145
-141
-137
-126
-116
-124
-127
-99
-78
-94
-92
-52
-41
-67
-82
-84
-79
-74
-93
-87
-49
-84
-169
-298
-368
447
2177
2553
496
-1367
-1162
-403
-277
-208
-43
-56
-59
20
28
15
54
100
142
189
236
309
423
554
688
819
907
916
871
799
667
473
286
122
-39
-166
-247
-317
-358
-356
-360
-376
-368
-352
-343
-321
-301
-296
-288
-275
-261
-248
-239
-226
-216
-231
-240
-210
-189
-208
-223
-212
-197
-189
-192
-203
-197
-165
-140
-141
-157
-168
-146
-107
-114
-135
-95
-53
-83
-120
-117
-109
-119
-135
-117
-81
-111
-178
-263
-246
488
1818
1923
135
-1346
-1104
-406
-209
-108
11
10
61
142
118
106
168
204
209
242
312
407
491
558
671
816
889
887
871
799
628
431
278
145
-1
-121
-167
-177
-210
-250
-262
-254
-247
-244
-230
-205
-194
-201
-189
-164
-173
-199
-188
-170
-191
-207
-197
-204
-215
-189
-177
-210
-215
-185
-174
-175
-168
-171
-168
-147
-139
-143
-127
-110
-118
-118
-90
-80
-101
-111
-112
-135
-146
-102
-71
-104
-121
-180
-355
-23
1262
2067
854
-1044
-1443
-710
-277
-201
-77
-2
-1
36
64
72
106
135
148
179
222
275
360
463
552
643
747
813
810
772
689
526
340
196
72
-40
-115
-175
-237
-260
-242
-232
-235
-229
-226
-228
-217
-200
-187
-185
-198
-198
-168
-150
-165
-192
-207
-193
-167
-168
-180
-178
-170
-154
-147
-161
-163
-148
-153
-150
-128
-126
-131
-108
-98
-116
-112
-80
-72
-86
-69
-34
-53
-104
-94
-50
-80
-127
-89
-66
-119
-148
-261
-293
569
1938
1752
-201
-1462
-1044
-389
-224
-118
-16
-9
29
71
67
88
121
133
168
221
258
301
382
497
619
717
778
811
805
737
617
472
321
170
33
-65
-124
-177
-221
-226
-221
-241
-245
-210
-194
-216
-221
-197
-184
-181
-172
-164
-163
-169
-175
-169
-164
-181
-183
-154
-147
-164
-157
-140
-143
-144
-134
-130
-133
-132
-126
-114
-106
-105
-96
-83
-89
-106
-103
-82
-65
-68
-80
-75
-56
-50
-50
-38
-42
-68
-79
-85
-89
-66
-54
-77
-142
-335
-289
747
2070
1688
-257
-1351
-889
-309
-197
-100
9
10
27
63
75
111
139
122
147
230
277
305
400
522
598
673
771
814
769
703
623
467
278
148
44
-75
-156
-197
-247
-269
-248
-250
-273
-266
-248
-239
-224
-215
-223
-227
-221
-222
-231
-235
-223
-199
-194
-216
-229
-217
-205
-211
-222
-218
-192
-175
-172
-144
-130
-180
-215
-177
-150
-158
-144
-117
-107
-112
-138
-148
-121
-111
-116
-89
-61
-55
-60
-93
-105
-56
-46
-107
-115
-81
-94
-96
-75
-108
-187
-314
-175
880
2123
1544
-597
-1675
-1041
-360
-231
-114
10
13
44
89
75
89
161
207
210
223
270
349
444
534
624
739
847
881
829
731
618
494
348
201
83
-22
-113
-156
-172
-212
-247
-236
-204
-185
-186
-190
-164
-134
-146
-165
-152
-151
-172
-169
-149
-146
-144
-138
-149
-165
-169
-163
-145
-119
-115
-125
-105
-77
-85
-105
-97
-85
-92
-83
-38
-9
-33
-57
-21
22
8
-17
7
27
3
-17
-22
-29
-21
-23
-37
2
13
-63
-94
-97
129
1108
1987
1036
-962
-1568
-775
-219
-123
12
88
52
72
134
168
168
161
202
262
281
321
412
477
539
662
774
800
799
794
714
561
423
299
147
2
-94
-157
-217
-283
-326
-306
-278
-306
-327
-293
-282
-306
-293
-278
-312
-321
-297
-327
-369
-340
-313
-340
-339
-312
-345
-394
-367
-317
-322
-342
-335
-328
-330
-320
-302
-300
-300
-279
-271
-295
-280
-226
-237
-281
-258
-235
-267
-268
-242
-238
-233
-249
-293
-349
-288
386
1486
1393
-352
-1632
-1241
-497
-286
-169
-37
-28
23
109
101
105
177
222
243
298
367
424
496
603
719
819
896
941
938
891
802
677
545
426
312
214
157
136
130
132
139
150
167
193
