# session 34
166
119
240
68
-525
-910
-840
-751
-802
-789
-719
-701
-691
-653
-615
-600
-595
-572
-541
-542
-560
-558
-549
-537
-512
-502
-493
-457
-448
-458
-474
-534
-171
1037
1796
577
-1297
-1595
-781
-358
-293
-166
-118
-126
-66
-29
-27
5
35
49
77
107
129
159
196
235
276
323
383
455
523
580
630
674
692
639
497
303
116
-38
-155
-235
-280
-303
-308
-301
-292
-286
-277
-263
-250
-241
-234
-226
-219
-213
-206
-201
-197
-193
-188
-184
-181
-169
-151
-141
-131
-102
-82
-97
-102
-79
-83
-117
-128
-128
-139
-129
-115
-124
-103
-84
-130
-152
-194
-96
855
2136
1652
-499
-1557
-824
-140
-86
10
121
82
101
158
151
160
194
205
218
244
264
284
309
334
366
406
451
500
551
600
641
676
700
679
580
416
234
68
-71
-174
-240
-276
-291
-293
-288
-281
-275
-269
-263
-257
-252
-250
-253
-252
-246
-241
-240
-240
-236
-233
-230
-221
-201
-190
-189
-172
-146
-149
-154
-133
-132
-173
-192
-185
-197
-197
-176
-191
-188
-148
-187
-226
-231
-275
308
1768
2116
184
-1561
-1211
-315
-161
-124
32
19
1
69
77
73
110
127
135
162
184
200
227
257
286
320
360
405
452
501
547
581
603
602
546
421
256
91
-51
-157
-228
-272
-292
-295
-290
-282
-272
-263
-257
-254
-252
-252
-251
-246
-241
-238
-237
-233
-228
-229
-227
-210
-188
-178
-175
-156
-131
-131
-131
-113
-120
-156
-166
-162
-175
-169
-152
-162
-150
-127
-169
-193
-220
-187
601
1930
1766
-279
-1580
-985
-218
-127
-54
77
48
49
114
120
126
160
171
186
219
237
250
275
303
333
370
414
462
515
572
617
643
658
642
549
385
208
50
-87
-192
-254
-288
-307
-310
-302
-294
-286
-276
-269
-265
-260
-257
-256
-251
-246
-248
-247
-240
-233
-222
-209
-203
-194
-167
-152
-164
-161
-140
-152
-183
-188
-189
-199
-187
-176
-184
-163
-150
-182
-203
-257
-94
880
1912
1176
-818
-1569
-798
-195
-128
-19
75
49
75
123
125
144
176
189
208
233
248
270
300
329
360
402
449
502
555
603
644
675
683
636
513
336
154
-2
-124
-210
-264
-293
-302
-297
-290
-284
-276
-267
-263
-261
-257
-251
-246
-243
-240
-236
-233
-232
-230
-228
-222
-204
-189
-185
-166
-140
-144
-155
-136
-132
-168
-185
-178
-188
-185
-167
-182
-173
-135
-175
-210
-221
-266
348
1804
2074
105
-1573
-1164
-273
-127
-85
66
44
28
96
104
101
136
151
157
182
202
220
249
278
303
336
378
425
475
517
553
584
603
593
523
391
229
74
-58
-160
-227
-263
-280
-284
-279
-271
-262
-253
-246
-240
-235
-233
-234
-233
-230
-228
-226
-225
-224
-222
-218
-212
-195
-179
-174
-161
-134
-129
-134
-116
-111
-148
-171
-165
-175
-177
-157
-168
-170
-131
-160
-199
-207
-288
186
1644
2235
460
-1466
-1301
-350
-124
-104
55
54
26
97
115
105
141
166
172
193
215
237
264
289
318
355
396
442
495
545
588
625
654
648
576
437
268
104
-42
-155
-226
-269
-294
-298
-292
-289
-286
-277
-265
-256
-249
-245
-244
-246
-245
-241
-240
-237
-231
-230
-233
-218
-194
-189
-189
-163
-141
-149
-146
-126
-141
-176
-181
-181
-190
-179
-174
-188
-162
-148
-188
-206
-261
-105
918
2021
1246
-846
-1599
-776
-182
-143
-29
68
33
63
117
113
128
164
180
198
221
239
263
292
319
352
394
443
494
549
599
636
662
669
619
486
306
131
-22
-148
-234
-283
-310
-319
-313
-309
-306
-295
-280
-268
-257
-248
-243
-238
-232
-231
-230
-226
-222
-224
-227
-223
-210
-193
-182
-173
-151
-125
-124
-130
-113
-107
-136
-153
-151
-164
-167
-150
-156
-153
-128
-153
-171
-193
-263
247
1571
1947
227
-1475
-1260
-358
-103
-60
81
87
69
130
150
147
178
197
204
228
252
271
298
326
356
395
443
493
545
601
650
685
707
693
604
444
257
86
-56
-162
-231
-275
-302
-312
-311
-306
-300
-290
-278
-268
-261
-254
-245
-236
-228
-223
-222
-222
-222
-224
-230
-231
-230
-229
-215
-193
-184
-177
-146
-121
-125
-112
-82
-96
-135
-143
-144
-159
-156
-161
-181
-162
-156
-194
-203
-262
-85
989
2039
1083
-1078
-1695
-745
-143
-117
-4
77
39
80
131
124
145
178
188
208
236
252
272
298
322
350
389
433
478
526
571
599
613
617
576
458
286
111
-42
-165
-253
-308
-348
-373
-374
-366
-364
-351
-331
-332
-330
-288
-241
-220
-200
-174
-160
-155
-150
-150
-151
-149
-150
-156
-159
-157
-149
-136
-120
-97
-81
-79
-69
-44
-38
-45
-35
-39
-78
-99
-95
-107
-107
-89
-105
-98
-53
-79
-96
-99
-150
470
1935
2160
122
-1554
-1080
-150
-9
20
162
131
107
170
172
163
188
192
192
212
225
231
249
271
298
334
371
411
462
516
560
593
619
607
514
343
153
-11
-144
-254
-334
-382
-407
-417
-414
-408
-405
-401
-393
-385
-374
-361
-347
-328
-304
-285
-271
-252
-229
-209
-192
-179
-169
-157
-142
-130
-112
-88
-78
-74
-48
-25
-41
-56
-36
-37
-85
-118
-124
-142
-152
-151
-172
-169
-139
-170
-198
-213
-199
448
1704
1724
-196
-1670
-1209
-340
-161
-101
42
36
32
93
104
116
162
180
189
220
248
269
295
325
360
404
452
509
576
639
690
734
763
730
600
410
226
68
-68
-172
-232
-264
-280
-285
-280
-269
-254
-242
-231
-211
-188
-171
-153
-130
-121
-131
-138
-134
-137
-149
-157
-159
-166
-175
-181
-186
-182
-174
-179
-177
-152
-141
-146
-129
-117
-150
-183
-180
-180
-181
-171
-180
-183
-153
-168
-201
-223
-301
106
1434
2130
633
-1313
-1403
-494
-162
-141
-1
31
5
62
90
85
115
141
156
182
201
212
232
261
301
355
404
454
530
600
633
682
758
740
574
371
211
66
-74
-183
-240
-261
-291
-321
-305
-279
-296
-309
-274
-233
-217
-210
-208
-216
-212
-183
-179
-216
-238
-219
-192
-192
-205
-191
-164
-175
-204
-184
-143
-145
-169
-165
-140
-128
-121
-100
-90
-113
-130
-134
-148
-149
-135
-146
-131
-90
-135
-189
-195
-292
58
1391
2151
707
-1199
-1263
-385
-100
-87
45
41
1
77
107
86
118
146
141
163
201
213
218
253
303
330
343
397
491
551
559
572
607
611
537
394
232
82
-57
-157
-196
-216
-258
-288
-279
-259
-253
-250
-228
-198
-186
-184
-171
-162
-163
-160
-152
-148
-145
-147
-147
-136
-134
-144
-139
-121
-111
-106
-107
-116
-111
-93
-89
-78
-44
-35
-73
-101
-102
-116
-129
-108
-108
-127
-93
-86
-143
-169
-257
-145
866
1951
1241
-589
-1155
-496
-167
-217
-103
3
4
33
41
30
66
85
76
102
130
127
141
177
197
215
251
285
311
340
373
398
407
406
391
339
241
128
29
-55
-123
-168
-195
-209
-216
-220
-218
-209
-201
-196
-190
-180
-175
-174
-173
-165
-159
-161
-165
-167
-161
-144
-138
-158
-162
-121
-100
-128
-139
-117
-79
-10
22
-35
-64
-33
-76
-166
-167
-132
-138
-128
-110
-121
-98
-66
-109
-184
-237
25
943
1633
778
-752
-1078
-451
-135
-113
-1
46
27
71
86
65
96
137
145
162
188
201
213
231
248
269
309
348
357
362
398
435
448
458
447
370
252
149
57
-42
-119
-155
-178
-199
-206
-205
-205
-190
-167
-168
-185
-188
-188
-210
-241
-242
-202
-156
-132
-137
-161
-180
-179
-170
-165
-154
-143
-147
-146
-123
-109
-108
-79
-42
-51
-79
-86
-97
-109
-89
-78
-102
-84
-53
-102
-155
-204
-162
536
1644
1514
-76
-1063
-656
-164
-131
-65
39
17
11
51
61
71
97
117
132
141
145
156
169
174
185
225
277
298
299
319
348
359
360
351
305
218
113
17
-63
-137
-201
-236
-246
-249
-251
-255
-259
-247
-219
-204
-205
-198
-177
-170
-182
-187
-171
-158
-167
-179
-183
-186
-180
-156
-149
-167
-158
-123
-122
-134
-100
-68
-92
-115
-107
-110
-107
-84
-92
-96
-53
-60
-110
-144
-196
189
1336
1893
661
-829
-850
-230
-79
-69
54
72
57
99
106
101
123
134
143
165
178
185
199
217
240
265
291
327
365
393
426
467
489
480
435
339
202
68
-40
-130
-202
-244
-257
-260
-265
-267
-263
-253
-244
-240
-238
-228
-213
-203
-199
-200
-200
-196
-192
-191
-181
-167
-166
-167
-155
-150
-156
-138
-109
-117
-145
-151
-154
-159
-142
-137
-152
-138
-126
-152
-190
-238
33
985
1665
761
-791
-1107
-477
-170
-155
-36
28
6
33
63
67
85
105
122
144
159
170
193
216
233
254
287
336
385
414
449
498
518
491
427
314
178
68
-28
-115
-169
-202
-220
-206
-200
-222
-216
-191
-192
-180
-153
-178
-199
-150
-122
-168
-186
-146
-124
-135
-140
-132
-125
-127
-126
-106
-95
-115
-132
-120
-110
-122
-140
-139
-112
-106
-124
-125
-138
-4
649
1375
930
-580
-1418
-961
-332
-155
-69
45
56
47
81
106
124
139
141
151
180
206
225
243
262
280
298
331
382
428
457
489
522
522
478
398
274
126
4
-77
-141
-194
-220
-227
-234
-234
-226
-217
-206
-190
-181
-180
-179
-178
-167
-157
-166
-180
-177
-162
-149
-148
-154
-148
-136
-142
-148
-126
-114
-132
-145
-149
-162
-159
-149
-158
-147
-133
-159
-181
-263
-283
404
1550
1466
-90
-1066
-656
-164
-137
-74
28
5
12
61
58
60
89
104
113
132
147
161
183
207
231
261
303
351
398
443
483
516
535
507
404
249
96
-31
-132
-200
-238
-255
-263
-263
-256
-246
-235
-225
-220
-216
-210
-207
-206
-200
-191
-188
-186
-177
-171
-173
-161
-143
-151
-161
-136
-112
-128
-145
-144
-149
-146
-136
-146
-140
-120
-149
-176
-264
-394
169
1559
1974
481
-910
-745
-192
-136
-105
10
-15
-26
34
46
44
68
80
89
111
128
145
169
191
220
257
298
344
395
442
483
521
543
519
424
274
120
-10
-115
-193
-237
-259
-269
-268
-262
-257
-251
-241
-232
-229
-227
-223
-220
-214
-204
-198
-193
-186
-188
-192
-177
-165
-176
-168
-134
-128
-152
-157
-155
-161
-151
-144
-150
-128
-122
-160
-196
-340
-313
675
1983
1615
-188
-1027
-500
-110
-137
-53
23
-19
2
43
34
46
75
85
97
115
130
151
176
199
231
271
314
360
409
454
491
520
527
478
362
212
69
-53
-150
-213
-247
-262
-264
-260
-255
-252
-246
-235
-226
-222
-220
-215
-208
-204
-202
-200
-197
-188
-182
-188
-191
-175
-164
-167
-150
-118
-121
-147
-153
-154
-161
-150
-145
-155
-131
-122
-162
-198
-337
-294
715
1987
1522
-304
-1050
-462
-91
-131
-42
26
-19
6
46
37
51
74
81
99
122
138
161
185
205
232
270
311
356
403
445
479
507
513
467
359
218
82
-35
-127
-187
-219
-234
-238
-233
-226
-221
-216
-208
-199
-192
-188
-183
-180
-178
-175
-170
-168
-167
-164
-161
-154
-145
-147
-152
-140
-125
-124
-111
-80
-79
-104
-111
-110
-118
-108
-105
-117
-93
-81
-125
-160
-281
-258
678
1940
1551
-242
-1029
-458
-67
-91
1
50
-12
23
66
54
86
108
89
106
110
77
119
215
243
229
247
279
311
352
380
388
405
419
376
278
162
37
-86
-178
-233
-255
-250
-247
-258
-254
-238
-243
-256
-242
-218
-210
-203
-184
-178
-192
-194
-179
-170
-159
-135
-125
-139
-147
-139
-134
-130
-122
-112
-98
-79
-61
-52
-63
-83
-86
-87
-101
-99
-87
-95
-93
-96
-123
-133
-236
-275
468
1616
1409
-149
-945
-475
-84
-105
-41
29
-22
-14
40
39
41
71
85
98
128
142
152
189
219
212
219
276
337
366
389
439
494
509
470
399
296
157
18
-81
-144
-190
-218
-225
-222
-221
-213
-194
-186
-204
-221
-206
-179
-176
-183
-167
-146
-157
-181
-178
-156
-146
-149
-150
-151
-145
-131
-128
-117
-78
-62
-99
-126
-122
-130
-134
-123
-130
-129
-101
-107
-144
-221
-239
317
1331
1355
-41
-1069
-743
-188
-108
-67
34
21
15
64
74
82
115
130
142
169
186
196
217
241
257
279
314
352
386
416
436
446
448
424
360
269
167
70
-13
-75
-118
-152
-175
-172
-152
-146
-154
-153
-145
-140
-134
-121
-110
-105
-110
-117
-112
-97
-92
-98
-101
-99
-96
-88
-76
-76
-82
-74
-60
-60
-72
-80
-80
-77
-75
-82
-83
-53
-11
-13
-42
-50
-58
-75
-63
-55
-80
-60
-24
-71
-108
-164
-270
221
1411
1651
233
-920
-652
-159
-148
-122
-15
-35
-41
6
12
16
37
42
54
79
80
73
93
124
134
140
162
194
224
245
260
280
302
305
270
194
92
-13
-101
-170
-219
-254
-279
-290
-285
-278
-281
-284
-277
-269
-267
-263
-262
-267
-265
-256
-256
-263
-260
-250
-247
-250
-245
-228
-213
-214
-217
-206
-195
-184
-157
-135
-149
-168
-169
-177
-182
-162
-148
-145
-129
-145
-178
-213
-350
-160
934
1852
992
-632
-964
-368
-148
-161
-8
80
67
90
104
107
138
155
161
187
209
220
245
283
320
353
378
409
458
505
534
565
596
594
544
460
361
255
155
79
32
1
-15
-9
1
1
4
13
17
22
35
45
48
52
59
64
61
57
57
55
47
46
54
56
46
40
45
39
18
14
30
34
38
57
52
15
-10
-20
-43
-51
-54
-86
-92
-77
-129
-178
-228
-274
285
1442
1530
-20
-1173
-844
-319
-304
-284
-201
-242
-255
-220
-241
-263
-253
-258
-271
-278
-279
-266
-256
-273
-283
-265
-249
-247
-236
-216
-194
-173
-171
-198
