# session 2
-6
35
-69
33
506
891
907
833
823
739
590
464
337
221
159
111
54
24
16
0
-15
-18
-15
-18
-30
-40
-23
15
24
-16
-61
-62
-39
-39
-63
-87
-102
-97
-78
-61
-59
-82
-118
-117
-76
-59
-79
-76
-50
-63
-99
-95
-81
-104
-109
-91
-112
-117
-92
-133
-187
-245
-250
407
1602
1614
20
-1094
-753
-235
-166
-93
-3
-34
-27
22
30
44
72
83
97
117
132
156
186
210
233
262
298
333
365
390
401
397
380
329
238
149
74
-11
-92
-148
-192
-217
-215
-210
-212
-213
-219
-221
-198
-176
-177
-172
-154
-154
-170
-165
-142
-136
-146
-147
-143
-146
-146
-137
-134
-135
-123
-108
-100
-94
-91
-89
-87
-90
-82
-51
-41
-69
-85
-86
-100
-97
-84
-107
-104
-65
-98
-148
-190
-220
347
1550
1725
194
-1037
-762
-206
-135
-85
17
-5
-6
38
35
41
72
82
93
120
138
159
193
217
239
278
327
369
404
436
464
479
469
420
328
213
95
-23
-110
-135
-147
-189
-217
-212
-213
-224
-219
-204
-201
-211
-208
-183
-164
-172
-180
-168
-157
-160
-159
-152
-155
-163
-162
-159
-159
-154
-147
-134
-121
-127
-138
-125
-111
-120
-110
-73
-74
-109
-126
-141
-158
-135
-117
-140
-131
-116
-171
-235
-337
-225
772
1969
1459
-374
-1122
-519
-112
-123
-15
71
52
108
143
67
16
39
74
106
134
158
193
232
257
299
376
445
487
526
559
583
603
581
482
341
203
76
-32
-113
-176
-219
-236
-239
-235
-230
-231
-226
-204
-183
-183
-194
-192
-174
-160
-167
-180
-179
-169
-170
-180
-185
-186
-184
-168
-152
-161
-175
-165
-148
-151
-157
-156
-149
-136
-128
-138
-133
-94
-74
-98
-115
-100
-82
-66
-65
-97
-95
-63
-106
-163
-210
-281
236
1551
1964
461
-978
-796
-172
-97
-90
25
18
6
54
60
59
89
103
110
138
164
179
206
244
270
290
331
388
434
461
474
483
488
462
380
263
143
36
-57
-128
-175
-203
-213
-213
-206
-192
-185
-193
-195
-179
-169
-170
-167
-156
-149
-152
-161
-166
-165
-161
-159
-155
-144
-138
-149
-158
-152
-142
-134
-124
-122
-129
-131
-123
-117
-122
-130
-122
-108
-113
-123
-96
-52
-55
-90
-103
-110
-126
-116
-104
-115
-90
-72
-130
-166
-198
-142
585
1658
1414
-183
-1041
-576
-130
-114
-46
26
-10
12
61
55
61
84
86
94
113
126
143
167
188
217
259
296
321
346
376
397
404
401
371
295
192
90
-5
-90
-155
-196
-212
-216
-217
-215
-210
-206
-199
-186
-180
-183
-179
-168
-178
-181
-126
-73
-78
-68
2
60
73
69
65
78
108
117
84
36
-1
-22
-37
-51
-65
-76
-81
-82
-86
-90
-84
-83
-93
-76
-39
-47
-95
-113
-110
-115
-111
-109
-115
-88
-92
-150
-186
-270
-134
844
1875
1236
-469
-1042
-457
-115
-125
-35
17
-16
15
48
39
54
81
88
99
123
143
164
192
207
219
272
355
407
429
455
480
495
486
419
300
174
51
-66
-154
-209
-248
-268
-269
-269
-275
-273
-261
-246
-232
-226
-228
-230
-228
-225
-218
-211
-211
-207
-197
-197
-203
-200
-193
-188
-188
-188
-188
-182
-170
-159
-161
-167
-156
-136
-134
-134
-109
-90
-105
-124
-125
-126
-118
-107
-118
-111
-74
-93
-135
-184
-278
116
1307
1836
538
-934
-878
-218
-58
-43
70
71
50
95
111
115
144
157
162
188
216
233
250
280
320
359
388
417
451
488
513
521
516
485
398
267
140
34
-53
-116
-156
-182
-194
-197
-199
-193
-185
-188
-184
-163
-153
-162
-162
-151
-147
-145
-141
-143
-151
-152
-145
-140
-139
-144
-154
-156
-149
-144
-141
-133
-126
-117
-108
-114
-119
-98
-82
-90
-78
-45
-49
-83
-93
-97
-109
-92
-78
-94
-78
-66
-116
-156
-227
-133
743
1822
1370
-315
-1038
-490
-79
-75
-5
49
11
39
84
79
86
110
123
138
157
171
187
206
233
270
308
347
391
430
461
489
501
477
415
314
184
57
-56
-168
-259
-294
-292
-288
-282
-267
-248
-239
-257
-276
-259
-231
-225
-229
-225
-221
-218
-217
-216
-207
-197
-201
-205
-190
-171
-170
-180
-180
-174
-172
-163
-144
-143
-155
-138
-112
-115
-116
-84
-70
-98
-120
-124
-133
-126
-110
-117
-103
-66
-97
-155
-223
-252
339
1553
1735
191
-1072
-772
-143
-53
-19
94
83
76
130
142
140
162
173
183
209
229
243
271
306
336
371
418
469
515
548
568
578
568
510
401
265
130
13
-81
-151
-193
-214
-223
-224
-221
-215
-208
-203
-197
-190
-187
-189
-189
-183
-178
-178
-180
-178
-177
-178
-179
-180
-181
-179
-179
-178
-164
-152
-154
-156
-148
-133
-111
-100
-106
-97
-82
-100
-126
-131
-134
-134
-124
-136
-141
-106
-114
-158
-195
-293
-18
1109
1876
789
-883
-1081
-362
-93
-102
8
34
-1
40
62
52
71
81
84
131
186
203
208
234
268
296
332
380
421
456
495
519
508
463
380
261
135
22
-71
-140
-181
-202
-210
-213
-213
-209
-201
-190
-183
-182
-178
-168
-160
-157
-157
-154
-149
-146
-144
-142
-141
-139
-133
-127
-125
-127
-129
-124
-113
-116
-126
-118
-100
-93
-92
-91
-89
-79
-72
-72
-53
-23
-29
-64
-82
-89
-99
-86
-72
-89
-84
-63
-103
-157
-224
-162
598
1679
1392
-274
-1142
-603
-99
-96
-45
44
19
30
69
59
68
106
120
128
153
176
194
219
244
268
303
341
374
408
439
450
452
445
398
303
193
85
-12
-96
-162
-199
-209
-216
-221
-206
-191
-198
-207
-193
-175
-171
-173
-164
-158
-159
-158
-154
-151
-148
-147
-151
-152
-148
-147
-143
-137
-139
-139
-133
-133
-133
-122
-115
-117
-119
-115
-97
-70
-67
-79
-57
-31
-53
-86
-91
-98
-96
-77
-86
-86
-57
-86
-134
-174
-228
237
1395
1724
311
-1026
-829
-186
-63
-44
51
39
38
91
97
95
118
129
139
157
168
191
226
253
281
313
339
370
416
446
447
451
460
426
341
241
143
42
-46
-107
-152
-183
-190
-191
-197
-190
-172
-164
-166
-167
-164
-156
-144
-143
-153
-159
-153
-145
-144
-146
-144
-142
-146
-151
-147
-142
-147
-153
-147
-139
-141
-140
-128
-125
-134
-133
-125
-127
-120
-99
-91
-95
-72
-40
-60
-102
-104
-88
-86
-84
-89
-87
-69
-102
-152
-171
-223
100
1150
1685
517
-927
-934
-270
-69
-57
40
37
10
51
69
71
99
117
127
143
151
167
206
229
227
244
296
342
353
350
362
373
362
340
307
241
156
75
-5
-75
-115
-132
-141
-155
-175
-176
-153
-141
-145
-138
-126
-129
-132
-126
-119
-120
-125
-125
-119
-112
-102
-101
-122
-132
-113
-100
-115
-122
-108
-101
-110
-111
-98
-93
-98
-94
-81
-80
-86
-77
-58
-51
-58
-58
-48
-48
-42
-11
10
-11
-44
-63
-64
-46
-48
-75
-57
-32
-75
-114
-154
-77
625
1545
1165
-376
-1090
-553
-78
-48
6
82
68
62
65
67
105
141
139
142
164
180
190
217
261
301
326
353
392
431
460
485
504
499
454
368
254
134
28
-58
-135
-204
-253
-271
-269
-267
-265
-253
-236
-223
-218
-220
-218
-206
-196
-195
-200
-207
-213
-209
-200
-203
-213
-217
-211
-203
-199
-200
-198
-191
-186
-186
-185
-175
-168
-173
-172
-152
-141
-143
-119
-78
-79
-105
-108
-106
-113
-102
-95
-104
-87
-75
-106
-149
-163
178
1100
1576
513
-948
-1090
-399
-78
-39
66
107
95
135
158
159
191
224
240
260
280
296
316
338
362
393
428
458
484
510
532
542
533
499
433
332
212
99
5
-69
-126
-167
-190
-187
-182
-197
-208
-198
-187
-182
-173
-169
-171
-171
-170
-175
-179
-180
-180
-177
-169
-166
-178
-198
-199
-176
-167
-177
-175
-164
-167
-169
-162
-156
-146
-140
-145
-123
-74
-68
-107
-128
-128
-128
-123
-129
-135
-110
-113
-161
-243
-395
-157
923
1704
819
-610
-808
-271
-98
-100
3
23
7
55
79
86
129
158
160
169
188
212
235
248
266
294
313
327
347
369
382
384
379
364
319
239
148
70
-2
-75
-134
-164
-179
-191
-192
-181
-169
-161
-157
-154
-149
-146
-149
-156
-157
-154
-150
-148
-152
-153
-149
-149
-153
-155
-156
-152
-142
-142
-161
-164
-147
-148
-157
-125
-89
-116
-159
-157
-150
-155
-139
-132
-141
-116
-111
-155
-218
-318
-17
1133
1928
891
-755
-1006
-375
-140
-126
2
37
11
54
77
72
98
124
137
160
185
208
234
261
296
342
383
417
458
498
521
535
539
501
404
274
137
7
-98
-173
-222
-252
-266
-271
-269
-263
-259
-252
-238
-226
-225
-225
-216
-206
-201
-196
-188
-177
-176
-184
-180
-171
-170
-169
-162
-161
-152
-131
-129
-139
-122
-100
-117
-136
-132
-138
-143
-122
-121
-127
-97
-107
-159
-217
-330
-7
1223
2037
938
-719
-927
-306
-107
-100
18
31
9
61
74
62
92
114
118
143
170
185
210
244
275
307
350
397
439
475
505
523
518
473
377
247
116
-2
-101
-166
-205
-236
-257
-258
-254
-248
-233
-223
-224
-217
-200
-196
-200
-194
-184
-181
-177
-174
-179
-182
-177
-173
-174
-175
-172
-159
-155
-166
-158
-134
-139
-151
-122
-96
-117
-136
-133
-141
-140
-118
-131
-140
-109
-132
-188
-245
-334
97
1347
1899
598
-861
-833
-258
-142
-116
-8
-23
-37
18
27
26
58
74
83
109
130
146
172
200
236
277
307
334
378
420
434
441
451
422
333
219
112
12
-76
-144
-186
-205
-216
-220
-212
-200
-197
-194
-184
-173
-165
-156
-147
-142
-139
-136
-132
-126
-121
-122
-133
-135
-120
-113
-119
-116
-104
-106
-111
-99
-94
-107
-101
-78
-76
-79
-75
-84
-83
-62
-72
-82
-71
-105
-147
-220
-288
327
1669
1940
366
-956
-699
-130
-79
-54
47
33
41
91
84
81
109
125
146
176
190
221
277
306
314
365
442
493
536
593
627
624
604
551
433
268
119
17
-63
-131
-166
-176
-147
-65
-14
-74
-194
-296
-363
-390
-373
-322
-249
-164
-81
-31
-52
-104
-117
-112
-137
-163
-159
-161
-199
-224
-183
-147
-165
-147
-119
-185
-216
-133
-139
-237
-257
-312
-464
-469
-346
-317
-72
744
1343
602
-895
-1521
-1117
-743
-673
-564
-461
-453
-404
-333
-316
-258
-138
-127
-248
-283
-176
-129
-230
-328
-278
-128
-75
-221
-362
-265
-117
-200
-367
-414
-439
-470
-446
-412
-321
-146
-43
-111
-317
-333
214
856
920
824
1104
1409
1489
1574
1717
1801
1791
1812
2008
2133
1858
1430
1182
987
717
467
280
160
133
121
6
-173
-247
-225
-328
-541
-634
-646
-727
-590
148
872
340
-1203
-1985
-1494
-908
-731
-570
-458
-471
-311
-7
127
100
84
86
60
10
-27
-19
40
141
178
46
-47
123
299
259
229
288
262
215
228
125
-104
-227
-240
-344
-525
-612
-583
-496
-380
-287
-261
-261
-183
21
169
26
-246
-315
-260
-308
-373
-363
-372
-392
-326
-235
-246
-342
-400
-327
-123
36
-35
-149
-67
-21
-80
107
227
-314
-956
-790
130
1106
1114
-256
-1634
-1656
-961
-608
-544
-480
-445
-434
-348
-132
110
258
398
600
732
731
740
927
1325
1671
1625
1342
1251
1284
1163
1043
1035
939
832
827
644
289
121
26
-256
-473
-462
-463
-528
-510
-459
-460
-459
-451
-467
-484
-486
-434
-304
-153
-48
-36
-116
-156
-76
-18
-87
-176
-199
-238
-344
-364
-196
-51
-111
-216
-184
-68
-2
-73
-263
-316
184
1164
1533
393
-1238
-1681
-1063
-558
-389
-266
-239
-273
-257
-293
-333
-226
-141
-229
-303
-246
-162
-74
61
194
319
532
777
895
956
1072
1112
1046
955
696
275
-45
-308
-595
-636
-435
-276
-87
165
208
74
-15
-138
-299
-274
-85
35
4
-93
-108
7
72
-34
-108
16
165
196
199
219
209
154
44
-69
-83
-52
-78
-99
-55
-66
-203
-8
1103
2214
1521
-428
-1189
-450
131
94
4
-50
-91
-44
-87
-252
-263
-91
8
-9
47
165
152
51
52
84
-13
-161
-255
-334
-357
-203
72
285
360
347
342
351
300
260
339
341
94
-102
-19
-15
-329
-611
-634
-544
-393
-231
-217
-261
-154
-12
-100
-359
-488
-407
-313
-288
-230
-162
-191
-265
-292
-301
-284
-160
-48
-115
-217
-180
-30
481
1345
1378
-72
-1456
-1389
-703
-427
-325
-141
-73
-95
-30
77
108
67
10
-42
-81
-113
-144
-116
-4
79
79
68
46
34
141
308
381
369
272
55
-144
-234
-312
-359
-302
-237
-192
-98
-14
27
126
245
279
321
407
323
45
-142
-109
-35
-77
-178
-237
-280
-281
-139
31
24
-78
-111
-102
-90
-43
22
61
20
-101
-178
-114
266
1162
1876
1196
-406
-1135
-672
-133
57
205
380
451
399
359
465
628
694
707
745
777
812
890
939
938
978
1016
975
983
1093
1103
970
907
938
899
814
807
803
722
654
580
454
474
580
500
562
740
-143
-2012
-2771
-1765
-781
-893
-1387
-1593
-1645
-1715
-1704
-1678
-1829
-1960
-1853
-1845
-2088
-2105
-1752
-1394
-1112
-846
-722
-664
-523
-229
624
1871
1964
311
-1316
-1557
-990
-334
193
409
502
711
831
829
887
827
515
284
300
349
439
693
885
802
615
504
459
455
460
450
487
528
422
270
258
217
-6
-158
-165
-321
-531
-465
-323
-387
-459
-409
-383
-362
-281
-223
-204
-203
-237
-254
-251
-306
-332
-237
-137
-86
6
116
172
220
295
388
485
480
318
116
-34
226
1305
2178
1249
-559
-1000
-298
8
-98
-128
-232
-295
-74
136
84
-66
-171
-194
-102
28
75
66
78
