# session 14
104
72
144
30
-225
-296
-359
-177
1086
2315
1288
-970
-1618
-821
-376
-342
-170
-65
-108
-68
47
92
53
48
144
222
191
190
348
529
584
572
551
459
316
196
79
-48
-125
-160
-216
-266
-279
-308
-352
-346
-304
-277
-248
-222
-205
-167
-139
-125
-46
26
10
-13
-187
-293
680
2170
1714
-556
-1631
-960
-489
-533
-370
-209
-160
-34
-82
-259
-145
49
-30
-108
26
154
211
277
282
239
253
248
127
-6
-46
-38
-49
-79
-83
-63
-80
-139
-176
-195
-225
-228
-198
-175
-147
-126
-170
-215
-203
-220
-258
-295
-350
154
1521
2072
422
-1513
-1588
-767
-477
-420
-261
-212
-193
-109
-67
-71
-73
-58
-10
38
91
203
322
384
414
408
377
362
328
249
176
101
22
6
35
39
48
84
101
100
101
98
82
46
29
39
-13
-92
-83
-62
-96
-169
-219
349
1695
2072
370
-1314
-1175
-477
-423
-435
-237
-179
-162
-78
-111
-184
-97
44
108
173
276
373
469
535
518
477
454
371
232
151
130
96
56
21
-29
-66
-68
-90
-155
-187
-142
-108
-141
-142
-97
-140
-240
-251
-263
-380
-456
-496
-446
314
1514
1336
-476
-1638
-1195
-570
-457
-356
-232
-240
-201
-110
-109
-131
-90
-14
73
169
286
447
593
644
660
727
776
745
676
566
402
250
136
61
24
-52
-152
-157
-125
-137
-114
-64
-86
-158
-236
-314
-333
-287
-291
-372
-409
-429
-310
531
1663
1229
-836
-2033
-1434
-645
-452
-318
-182
-207
-204
-139
-121
-102
-51
0
62
141
226
312
372
405
449
502
506
424
330
281
194
46
-35
-47
-103
-160
-148
-146
-196
-229
-222
-200
-200
-243
-275
-257
-254
-277
-268
-220
-244
-449
-334
797
1918
1139
-772
-1393
-741
-375
-372
-210
-102
-135
-91
-31
-7
105
228
219
208
292
349
388
481
476
391
451
513
376
285
348
300
150
72
-13
-131
-168
-166
-201
-226
-233
-242
-221
-189
-197
-205
-162
-133
-135
-75
-9
1
32
-18
127
1250
2480
1638
-644
-1556
-889
-392
-324
-202
-154
-144
-29
4
-36
52
201
260
270
302
358
424
491
530
536
543
543
487
381
252
94
-41
-83
-85
-117
-146
-148
-187
-271
-310
-290
-293
-332
-334
-302
-293
-274
-214
-208
-256
-289
-433
-382
659
1909
1302
-729
-1619
-1035
-591
-610
-526
-392
-385
-437
-487
-473
-385
-272
-142
-43
-45
-79
-24
106
218
271
290
297
274
196
102
49
26
-6
-52
-93
-80
-21
-24
-86
-69
-1
-35
-140
-163
-124
-135
-154
-140
-176
-196
-218
-456
-185
1453
2699
1309
-988
-1351
-526
-283
-332
-182
-131
-157
-102
-84
-84
-22
11
-10
7
82
180
283
366
414
439
439
407
344
248
136
57
27
19
24
57
97
108
107
120
127
104
73
81
128
131
90
96
89
22
-11
-125
-65
969
2177
1476
-521
-1218
-581
-267
-311
-170
-118
-222
-200
-110
-97
-127
-168
-187
-117
29
157
207
214
224
216
196
226
258
201
107
34
-42
-87
-82
-122
-211
-217
-156
-184
-259
-226
-166
-219
-277
-251
-221
-206
-199
-242
-317
-480
-484
426
1765
1476
-531
-1719
-1224
-617
-511
-350
-175
-183
-178
-111
-74
-56
-49
-26
45
122
194
300
426
533
586
602
666
704
480
33
-283
-311
-176
-30
-2
-112
-200
-173
-106
-48
-21
-55
-101
-103
-78
-49
-27
-36
-97
-184
-317
-506
-269
835
1669
694
-1115
-1641
-1014
-558
-396
-210
-123
-123
-66
-13
-14
-15
8
58
126
189
257
327
361
374
377
360
382
436
372
218
171
202
175
139
127
82
49
60
12
-99
-145
-127
-138
-148
-143
-225
-335
-324
-306
-382
-438
-486
-262
760
1713
987
-712
-1318
-842
-499
-383
-209
-131
-122
-32
67
129
184
240
338
474
569
628
685
730
791
871
860
705
544
489
433
286
187
194
151
58
52
46
-34
-67
-98
-257
-414
-443
-431
-444
-462
-466
-449
-456
-459
-429
-367
142
1216
1410
-224
-1857
-1768
-962
-638
-506
-326
-265
-234
-165
-113
-80
-65
5
158
260
320
426
487
496
548
558
473
370
265
234
333
342
152
0
-26
-56
-101
-131
-189
-258
-286
-261
-231
-277
-354
-356
-329
-316
-287
-283
-306
-381
-487
62
1467
1914
289
-1306
-1124
-393
-245
-209
-100
-135
-134
-56
-54
-36
49
72
58
126
233
297
360
434
430
384
417
451
338
155
53
15
-34
-87
-114
-121
-118
-108
-111
-137
-141
-105
-99
-129
-117
-106
-147
-122
-58
-86
-125
-277
-411
492
2117
1964
-274
-1637
-1091
-463
-413
-249
-51
-109
-153
-69
-38
-67
-54
-32
-41
-19
66
140
153
157
201
256
298
311
254
151
85
53
-7
-75
-107
-115
-112
-102
-96
-79
-44
-28
-30
-6
17
13
73
158
97
-12
-99
-226
304
1795
2298
570
-1139
-986
-297
-209
-192
-33
62
163
185
37
-60
-30
0
28
73
64
32
56
93
88
75
85
95
84
52
6
-26
-23
-10
-26
-44
-45
-75
-121
-122
-132
-210
-249
-206
-213
-277
-260
-195
-190
-262
-462
-409
692
2032
1417
-781
-1762
-1068
-510
-461
-300
-183
-216
-141
-71
-143
-185
-148
-135
-107
-2
96
137
179
232
254
267
274
226
148
94
41
-21
-46
-23
12
44
81
119
123
97
88
39
-77
-104
-57
-103
-112
-18
-70
-261
-410
-304
601
1821
1457
-494
-1566
-1035
-482
-447
-356
-225
-207
-165
-144
-185
-150
-64
-33
37
213
387
496
560
564
543
550
517
398
286
230
178
127
104
90
82
103
137
131
77
35
33
0
-61
-41
23
4
-42
-62
-94
-119
-229
-213
667
1822
1252
-788
-1728
-1075
-468
-363
-264
-203
-224
-204
-224
-288
-267
-203
-169
-122
-42
48
141
222
267
292
315
325
314
287
236
174
138
128
118
104
73
11
-51
-84
-87
-72
-73
-101
-101
-100
-155
-149
-84
-182
-306
-265
-352
-213
953
1877
631
-1432
-1786
-952
-543
-441
-235
-152
-143
-48
12
17
49
85
117
171
230
292
371
452
515
545
551
530
446
314
205
128
47
-4
-1
4
-28
-59
-53
-49
-89
-151
-200
-241
-269
-255
-222
-231
-264
-241
-286
-464
-142
1026
1580
266
-1379
-1488
-778
-477
-379
-211
-166
-155
-69
-24
-24
-14
-5
38
134
235
330
422
495
553
600
622
593
512
422
322
191
114
113
53
-60
-87
-55
-51
-57
-76
-120
-152
-197
-265
-285
-256
-226
-204
-211
-247
-338
-398
175
1399
1609
-52
-1608
-1449
-652
-355
-244
-96
-95
-116
-37
20
19
39
96
154
197
227
263
310
353
395
452
509
524
473
367
263
207
159
84
16
-23
-33
-37
-113
-270
-350
-308
-348
-544
-672
-606
-473
-362
-301
-339
-395
-493
-616
17
1610
2208
645
-984
-955
-393
-298
-237
-94
-104
-107
-25
20
58
124
159
175
230
313
378
433
505
562
586
615
619
522
391
311
215
98
84
126
78
-8
-43
-78
-135
-168
-186
-205
-212
-206
-201
-193
-177
-198
-228
-202
-276
-251
655
1863
1326
-761
-1791
-1184
-593
-500
-360
-233
-258
-264
-234
-217
-207
-239
-295
-308
-281
-218
-90
57
139
177
232
265
215
128
54
-12
-45
-24
1
-13
-44
-83
-140
-188
-185
-146
-128
-132
-122
-120
-134
-103
-76
-96
-93
-223
-319
557
2041
1935
60
-1048
-609
-156
-146
-40
59
22
58
126
131
150
185
206
239
279
319
366
389
392
419
466
487
440
326
205
135
95
43
-20
-101
-224
-348
-417
-449
-461
-427
-390
-392
-361
-287
-274
-281
-234
-232
-265
-302
-448
-150
1110
1874
644
-1036
-1189
-573
-387
-350
-211
-188
-198
-147
-126
-104
-45
-9
15
58
105
174
261
311
337
398
466
480
435
353
258
176
135
128
112
72
48
51
22
-41
-68
-75
-119
-146
-119
-116
-124
-97
-116
-139
-143
-270
34
1309
2013
568
-1295
-1376
-571
-312
-276
-110
-71
-98
-44
-2
11
45
74
101
157
226
280
321
363
392
385
364
341
277
172
82
22
-35
-79
-101
-117
-136
-168
-219
-242
-206
-179
-200
-225
-238
-248
-230
-219
-232
-227
-360
-540
59
1332
1388
-286
-1497
-1126
-505
-389
-292
-147
-144
-134
-76
-68
-62
-20
23
66
118
176
235
281
307
325
354
377
349
269
185
120
65
17
-20
-45
-50
-49
-75
-131
-171
-170
-163
-182
-200
-200
-209
-219
-218
-203
-154
-226
-384
173
1475
1625
-106
-1477
-1130
-433
-299
-222
-88
-98
-89
-16
7
31
84
117
159
230
294
355
415
444
460
498
521
482
398
302
207
133
90
70
63
54
28
-8
-41
-61
-66
-76
-104
-115
-116
-131
-125
-118
-154
-173
-269
-329
396
1654
1559
-161
-1265
-881
-373
-309
-212
-122
-177
-164
-91
-102
-113
-61
-18
8
45
74
102
152
200
229
268
310
300
236
175
137
96
32
-31
-49
-39
-60
-105
-126
-128
-121
-109
-119
-141
-148
-164
-169
-136
-152
-202
-268
-426
-144
1053
1777
597
-1012
-1143
-532
-351
-322
-196
-185
-200
-153
-143
-134
-85
-62
-41
21
82
124
178
230
265
309
360
363
304
223
142
61
2
-28
-58
-78
-61
-55
-115
-168
-143
-122
-164
-189
-166
-158
-148
-122
-131
-133
-173
-271
194
1380
1618
-38
-1581
-1362
-550
-310
-247
-102
-74
-82
-52
-55
-34
33
64
82
139
200
254
318
356
366
405
448
421
343
281
240
197
152
112
85
76
74
55
4
-46
-54
-50
-75
-99
-113
-121
-97
-88
-128
-125
-220
-422
94
1386
1562
-73
-1338
-993
-373
-302
-268
-159
-166
-149
-90
-92
-89
-47
-16
21
70
111
161
211
222
233
283
305
253
177
116
60
3
-51
-92
-97
-65
-25
-12
-43
-88
-103
-103
-124
-140
-126
-115
-108
-122
-177
-182
-211
-364
18
1252
1712
289
-1182
-1069
-424
-291
-263
-150
-163
-169
-107
-108
-102
-31
-2
-8
45
124
175
220
257
278
325
378
366
297
242
200
149
108
81
48
24
21
7
-39
-77
-72
-57
-82
-120
-124
-131
-152
-127
-109
-151
-171
-207
-108
605
1384
816
-707
-1308
-789
-363
-289
-199
-136
-141
-108
-72
-62
-18
41
71
103
164
235
297
339
362
398
458
481
424
322
219
136
91
66
15
-46
-69
-83
-130
-165
-148
-133
-169
-198
-196
-210
-210
-194
-231
-241
-282
-540
-335
911
1626
348
-1233
-1217
-534
-366
-331
-180
-170
-194
-126
-89
-101
-89
-56
-21
14
59
134
218
274
313
362
404
400
345
263
185
138
106
58
16
6
4
-9
-44
-85
-83
-44
-44
-86
-108
-105
-86
-66
-66
-58
-126
-280
79
1128
1393
-33
-1426
-1257
-503
-251
-181
-45
-23
-22
41
62
58
95
136
173
228
283
332
385
418
416
409
402
358
271
188
128
63
6
-19
-41
-67
-68
-71
-117
-159
-155
-150
-174
-192
-198
-203
-178
-157
-187
-179
-226
-395
35
1301
1629
-14
-1553
-1311
-514
-307
-243
-88
-72
-83
-29
-7
11
59
93
125
181
232
278
340
392
409
418
432
409
322
212
133
98
69
20
-21
-28
-34
-67
-104
-120
-123
-137
-156
-162
-181
-197
-160
-145
-180
-189
-365
-582
125
1527
1527
-189
-1256
-828
-350
-350
-283
-177
-203
-203
-164
-162
-140
-89
-50
-5
59
123
178
218
244
278
326
341
289
205
129
65
5
-41
-73
-102
-121
-129
-143
-169
-186
-184
-177
-173
-160
-153
-166
-155
-135
-170
-201
-273
-386
109
1314
1546
12
-1307
-1053
-408
-278
-232
-127
-143
-145
-83
-66
-60
-20
23
72
128
175
218
265
301
336
391
438
427
366
310
269
223
176
140
113
95
84
67
38
11
4
2
-22
-41
-43
-60
-58
-39
-76
-103
-156
-311
104
1366
1759
235
-1222
-1043
-401
-287
-240
-107
-109
-118
-74
-61
-27
39
69
84
124
181
241
288
310
331
374
401
353
251
162
97
28
-33
-68
-96
-119
-124
-139
-183
-209
-196
-194
-207
-196
-195
-210
-189
-184
-215
-204
-318
-459
183
1329
1112
-582
-1490
-928
-361
-308
-229
-119
-131
-119
-74
-63
-40
0
29
71
125
178
235
283
309
337
380
394
340
251
179
127
77
33
-7
-46
-62
-62
-91
-146
-173
-163
-168
-193
-200
-205
-215
-186
-165
-192
-194
-296
-394
310
1543
1357
-447
-1503
-980
-376
-288
-188
-77
-100
-87
-34
-19
12
57
81
125
199
266
309
329
339
369
407
407
359
274
169
100
83
49
-7
-6
25
2
-53
-72
-64
-71
-104
-120
-107
-130
-172
-152
-131
-141
-158
-333
-312
674
1741
1027
-734
-1247
-609
-274
-274
-168
-130
-171
-130
-88
-85
-48
-3
29
77
132
177
223
260
289
337
397
423
388
316
249
199
147
87
39
12
-3
-16
-36
-61
-71
-63
-76
-113
-119
-108
-125
-130
-123
-149
-180
-336
-500
131
1395
1396
-262
-1355
-926
-361
-301
-240
-153
-191
-172
-92
-77
-74
-30
16
52
100
158
206
228
245
288
342
367
328
221
111
55
13
-47
-84
-95
-113
-119
-122
-163
-196
-173
-161
-194
-196
-173
-182
-168
-130
-139
-136
-201
-386
11
1179
1416
-135
-1456
-1136
-414
-258
-196
-54
-39
-33
22
30
39
93
137
166
206
255
314
369
395
414
454
472
417
324
259
217
158
91
57
49
37
20
0
-38
-74
-82
-80
-93
-106
-124
-136
-99
-79
-117
-119
-235
-449
101
1387
1439
-268
-1413
-933
-316
-273
-225
-129
-172
-174
-115
-107
-96
-49
-16
16
64
104
126
138
158
180
189
174
114
3
