# session 18
17
-3
55
5
-168
-224
-139
-56
0
13
-11
35
124
132
104
132
186
227
274
344
443
551
640
703
742
745
692
590
466
335
200
80
-17
-95
-154
-191
-209
-219
-226
-223
-213
-209
-200
-185
-183
-186
-164
-135
-139
-157
-155
-145
-147
-151
-147
-142
-140
-140
-140
-143
-147
-142
-124
-111
-108
-104
-102
-109
-114
-102
-89
-89
-82
-66
-66
-80
-92
-98
-89
-86
-104
-88
-60
-114
-188
-259
-204
577
1813
1691
-115
-1337
-949
-339
-223
-130
-18
-32
-11
47
46
52
92
109
113
145
201
263
322
394
486
578
640
669
670
638
566
455
322
199
97
4
-78
-134
-168
-189
-199
-200
-199
-197
-181
-159
-158
-169
-166
-162
-168
-167
-156
-155
-160
-159
-159
-166
-175
-177
-169
-157
-158
-166
-160
-152
-157
-153
-135
-132
-141
-134
-118
-108
-101
-109
-114
-87
-65
-86
-95
-67
-54
-69
-88
-102
-90
-73
-95
-94
-59
-86
-137
-164
-52
665
1641
1289
-461
-1466
-961
-335
-207
-101
16
5
21
77
84
87
110
127
144
169
207
271
344
404
477
574
640
648
632
603
523
404
294
200
102
8
-69
-123
-163
-199
-220
-218
-214
-209
-190
-175
-174
-169
-158
-154
-155
-154
-155
-158
-164
-165
-165
-172
-175
-166
-162
-169
-162
-144
-143
-146
-125
-107
-116
-115
-84
-72
-90
-104
-114
-121
-108
-103
-102
-82
-100
-146
-197
-252
173
1353
1875
503
-1172
-1248
-518
-257
-204
-35
19
-4
33
61
68
98
132
159
178
194
240
319
393
457
547
658
724
720
685
608
451
275
156
66
-34
-121
-179
-203
-205
-225
-263
-273
-255
-249
-238
-197
-163
-169
-188
-188
-187
-191
-177
-159
-174
-195
-185
-173
-181
-190
-183
-172
-177
-193
-180
-133
-112
-141
-164
-154
-138
-118
-83
-70
-92
-100
-90
-104
-119
-108
-100
-90
-91
-121
-166
-281
-154
892
2110
1541
-455
-1365
-770
-269
-225
-93
18
-27
-10
63
67
51
75
118
151
174
215
272
335
424
523
601
668
708
701
673
615
491
350
234
116
-2
-80
-136
-192
-216
-210
-220
-238
-225
-203
-211
-233
-228
-199
-179
-181
-188
-187
-191
-200
-190
-166
-164
-180
-174
-152
-155
-182
-191
-167
-148
-155
-155
-126
-114
-140
-150
-115
-86
-83
-80
-75
-76
-91
-125
-137
-110
-104
-111
-85
-89
-131
-165
-162
281
1323
1650
263
-1268
-1255
-511
-224
-171
-27
45
36
45
75
114
133
126
148
192
219
247
310
393
477
565
638
662
654
644
598
480
339
226
127
19
-80
-145
-175
-195
-214
-213
-197
-199
-212
-199
-179
-185
-181
-147
-132
-152
-166
-163
-166
-172
-174
-174
-170
-175
-199
-204
-171
-166
-208
-201
-136
-132
-188
-184
-121
-87
-96
-101
-89
-80
-96
-110
-96
-86
-102
-110
-87
-80
-124
-137
-142
-275
-15
1223
2116
942
-994
-1356
-626
-292
-208
-17
5
-31
69
97
33
60
127
129
137
197
248
276
339
445
543
629
703
720
685
642
552
403
268
150
27
-50
-94
-169
-225
-208
-186
-197
-203
-194
-186
-180
-171
-167
-170
-156
-119
-100
-116
-132
-135
-134
-119
-112
-132
-142
-133
-149
-167
-148
-129
-133
-129
-119
-120
-125
-135
-140
-117
-97
-116
-122
-84
-64
-89
-116
-127
-114
-98
-126
-134
-88
-109
-178
-238
-308
189
1535
2033
439
-1276
-1209
-468
-284
-240
-94
-83
-75
10
25
17
57
86
97
123
158
202
254
328
433
543
636
694
702
674
623
521
374
241
144
45
-71
-163
-198
-211
-245
-276
-269
-256
-269
-264
-216
-183
-192
-196
-183
-173
-157
-150
-179
-197
-160
-131
-153
-169
-160
-156
-151
-140
-149
-157
-130
-109
-124
-134
-110
-88
-87
-86
-72
-62
-62
-75
-96
-90
-75
-99
-105
-67
-83
-137
-220
-293
289
1670
2072
426
-1244
-1172
-437
-208
-147
-22
-9
-8
45
51
44
78
111
129
155
194
238
292
368
461
551
628
672
682
680
640
522
372
255
156
43
-66
-140
-182
-212
-231
-228
-220
-227
-230
-215
-209
-215
-194
-161
-158
-168
-162
-157
-154
-154
-166
-168
-144
-136
-156
-164
-160
-179
-200
-181
-145
-142
-151
-137
-136
-129
-9
149
134
2
-53
-97
-193
-201
-160
-225
-275
-187
-100
-86
-83
-100
-109
-81
-115
-179
-231
-275
294
1650
2017
336
-1295
-1157
-447
-262
-175
-28
-33
-30
39
36
24
73
116
138
169
191
223
302
383
434
520
640
702
710
718
674
549
426
320
173
30
-34
-79
-154
-206
-225
-248
-245
-207
-197
-212
-206
-197
-191
-160
-134
-148
-167
-167
-165
-165
-171
-180
-167
-151
-168
-175
-139
-126
-151
-149
-129
-146
-159
-125
-99
-109
-110
-101
-100
-92
-88
-102
-102
-78
-66
-58
-39
-43
-63
-69
-78
-76
-59
-84
-93
-48
-77
-149
-182
-207
276
1491
1882
387
-1144
-1050
-385
-221
-166
-30
-30
-40
16
24
26
69
81
77
114
165
201
245
306
376
449
519
573
603
598
557
483
388
284
180
79
-3
-62
-118
-170
-194
-184
-170
-166
-166
-157
-144
-140
-146
-143
-133
-129
-134
-143
-153
-149
-137
-139
-153
-160
-158
-150
-143
-145
-145
-129
-120
-128
-132
-122
-116
-113
-105
-101
-101
-97
-89
-85
-87
-91
-75
-48
-50
-62
-37
-12
-32
-58
-63
-62
-49
-52
-78
-63
-53
-107
-141
-199
-85
806
1827
1242
-527
-1241
-676
-254
-210
-97
-26
-51
-12
30
21
34
65
85
106
137
175
216
258
321
413
504
572
616
632
618
578
503
387
267
170
72
-31
-108
-159
-199
-221
-219
-215
-214
-209
-204
-200
-187
-171
-170
-183
-188
-179
-168
-172
-183
-182
-175
-174
-179
-184
-179
-168
-165
-165
-158
-150
-153
-146
-117
-99
-107
-105
-89
-92
-99
-97
-111
-121
-106
-108
-107
-81
-99
-148
-185
-126
481
1484
1378
-244
-1408
-1041
-386
-228
-129
6
4
7
64
83
93
122
141
157
184
219
267
325
385
456
535
599
639
653
640
583
479
353
237
131
31
-51
-107
-150
-182
-193
-190
-185
-179
-171
-163
-157
-151
-146
-146
-147
-147
-149
-160
-166
-163
-164
-169
-167
-165
-169
-169
-158
-147
-143
-145
-145
-137
-130
-120
-102
-98
-110
-100
-71
-70
-86
-93
-103
-106
-103
-115
-99
-78
-126
-186
-266
-230
581
1858
1699
-152
-1336
-910
-332
-248
-147
-28
-48
-33
18
13
18
52
72
93
128
168
215
268
331
416
503
571
617
639
627
576
481
354
229
124
28
-63
-133
-180
-210
-226
-230
-227
-217
-206
-200
-194
-186
-180
-174
-168
-166
-163
-155
-154
-164
-172
-174
-173
-167
-159
-153
-154
-153
-139
-119
-120
-132
-121
-99
-99
-95
-65
-56
-82
-94
-93
-100
-94
-93
-108
-82
-67
-130
-191
-264
-116
858
1957
1374
-481
-1276
-716
-266
-212
-96
-22
-52
-21
23
21
34
61
79
103
133
168
215
271
334
410
490
555
590
597
584
536
446
334
220
112
18
-56
-115
-159
-190
-212
-217
-200
-184
-184
-184
-177
-178
-177
-163
-154
-162
-166
-158
-156
-162
-164
-165
-166
-165
-163
-165
-164
-156
-148
-141
-130
-126
-130
-120
-99
-101
-109
-82
-54
-72
-101
-109
-107
-92
-86
-104
-89
-69
-124
-180
-225
-110
721
1791
1361
-463
-1394
-854
-307
-223
-111
-12
-30
-1
49
46
56
88
106
129
160
192
234
287
353
434
523
596
635
642
627
577
482
364
250
141
39
-46
-113
-160
-189
-206
-216
-216
-206
-197
-192
-182
-167
-158
-157
-154
-147
-144
-148
-154
-154
-153
-160
-172
-173
-169
-168
-164
-154
-148
-142
-131
-129
-135
-125
-104
-106
-111
-87
-70
-86
-99
-99
-105
-101
-97
-105
-85
-74
-124
-186
-287
-152
861
2027
1442
-512
-1380
-790
-296
-236
-110
-19
-52
-23
28
28
46
79
90
106
143
183
223
269
333
417
506
579
625
641
624
564
461
338
221
112
13
-71
-134
-176
-201
-217
-226
-223
-215
-208
-203
-197
-186
-172
-162
-157
-152
-148
-151
-155
-152
-150
-158
-164
-158
-151
-152
-154
-152
-147
-142
-139
-137
-133
-123
-111
-109
-117
-109
-87
-83
-87
-62
-40
-58
-81
-86
-88
-79
-77
-95
-74
-53
-113
-174
-244
-164
703
1902
1574
-259
-1257
-772
-266
-213
-116
-20
-43
-19
27
21
30
59
73
94
128
159
199
254
314
383
465
538
583
602
599
562
483
380
274
170
73
-15
-86
-133
-157
-173
-187
-189
-184
-183
-179
-164
-151
-150
-153
-151
-147
-142
-136
-137
-143
-149
-152
-147
-141
-143
-148
-145
-141
-143
-141
-135
-131
-128
-125
-125
-125
-123
-119
-110
-101
-105
-102
-79
-72
-86
-76
-51
-58
-77
-82
-91
-93
-82
-94
-84
-55
-101
-157
-181
-151
484
1668
1696
-14
-1316
-988
-353
-232
-138
4
-6
-7
48
54
54
84
106
124
154
183
215
263
326
402
484
558
617
650
645
600
521
416
304
199
96
-2
-77
-129
-169
-201
-221
-227
-220
-210
-204
-198
-186
-174
-168
-165
-162
-157
-154
-156
-161
-166
-169
-169
-172
-174
-175
-174
-171
-168
-166
-162
-154
-144
-136
-140
-146
-128
-107
-113
-118
-86
-65
-84
-103
-110
-117
-107
-104
-113
-91
-91
-152
-216
-311
-77
1060
2085
1210
-709
-1308
-666
-277
-230
-91
-26
-55
-15
21
18
42
70
80
105
139
169
211
271
341
420
502
574
624
640
622
570
479
360
236
129
38
-40
-102
-144
-171
-190
-197
-195
-192
-188
-179
-171
-165
-158
-150
-142
-136
-131
-130
-133
-138
-141
-145
-149
-149
-146
-147
-148
-143
-137
-134
-127
-116
-108
-107
-106
-99
-91
-87
-83
-79
-73
-62
-50
-54
-55
-33
-15
-19
-5
26
19
-14
-35
-51
-48
-32
-53
-64
-33
-71
-141
-194
-249
270
1585
2009
448
-1134
-1039
-390
-258
-213
-78
-79
-80
-17
-7
-11
17
34
54
90
119
154
211
272
337
417
502
574
624
644
630
578
484
366
247
131
21
-66
-130
-181
-219
-242
-250
-246
-237
-233
-226
-212
-203
-198
-190
-181
-177
-178
-176
-171
-169
-169
-168
-168
-168
-165
-164
-166
-162
-156
-155
-150
-141
-138
-132
-121
-126
-136
-115
-91
-101
-102
-68
-54
-76
-88
-93
-101
-90
-90
-100
-72
-71
-134
-199
-283
12
1184
2091
1066
-807
-1262
-595
-250
-205
-62
-7
-32
11
42
39
66
89
92
116
154
186
227
283
352
434
518
588
633
652
637
579
481
358
234
122
22
-64
-127
-166
-195
-217
-226
-223
-217
-209
-199
-189
-181
-172
-162
-155
-150
-145
-141
-142
-143
-143
-142
-145
-148
-150
-151
-152
-149
-143
-138
-135
-130
-124
-119
-115
-113
-109
-103
-95
-87
-77
-77
-86
-83
-63
-59
-67
-46
-16
-24
-48
-54
-62
-63
-54
-67
-59
-30
-76
-139
-195
-217
407
1712
1934
289
-1124
-912
-310
-206
-142
-16
-29
-33
21
30
32
57
68
81
106
129
161
211
265
323
394
471
538
578
590
576
530
444
331
222
127
33
-53
-114
-154
-185
-201
-200
-197
-199
-196
-189
-182
-173
-162
-157
-153
-149
-150
-160
-168
-164
-155
-158
-172
-179
-170
-161
-164
-166
-155
-144
-144
-144
-137
-127
-121
-119
-117
-113
-106
-101
-99
-92
-81
-83
-80
-56
-51
-78
-91
-89
-97
-91
-84
-96
-74
-61
-120
-161
-193
-35
861
1857
1231
-621
-1394
-782
-286
-219
-98
-9
-30
-1
43
45
63
91
103
128
163
188
220
272
338
411
488
562
617
643
637
602
533
424
298
186
91
-3
-86
-141
-176
-200
-211
-210
-209
-206
-196
-182
-171
-166
-160
-155
-155
-157
-158
-159
-158
-159
-166
-171
-173
-171
-166
-160
-155
-151
-146
-140
-135
-131
-125
-114
-105
-111
-119
-103
-80
-83
-83
-49
-25
-47
-72
-83
-91
-81
-76
-93
-73
-60
-121
-181
-263
-138
851
2039
1516
-394
-1267
-714
-255
-212
-97
-15
-45
-14
31
27
44
71
82
104
135
163
205
259
317
388
473
549
602
631
634
602
528
423
308
197
91
-3
-79
-132
-168
-192
-206
-212
-209
-201
-195
-191
-184
-175
-169
-168
-169
-169
-167
-164
-165
-164
-161
-164
-172
-172
-164
-160
-163
-164
-159
-153
-149
-145
-140
-136
-136
-138
-131
-123
-126
-132
-132
-125
-108
-92
-93
-91
-70
-65
-87
-102
-109
-106
-93
-105
-108
-75
-103
-171
-211
-255
194
1451
2000
567
-1112
-1152
-469
-272
-226
-78
-52
-59
-9
-4
-7
29
48
53
80
115
159
218
268
320
398
491
565
611
632
629
595
516
393
264
156
55
-46
-122
-168
-204
-231
-238
-233
-225
-217
-209
-199
-189
-179
-168
-158
-154
-151
-142
-137
-141
-141
-135
-133
-136
-135
-130
-124
-120
-115
-105
-95
-83
-75
-78
-73
-52
-42
-44
-22
6
-3
-26
-30
-36
-34
-21
-31
-24
5
-36
-104
-170
-186
455
1770
1987
311
-1149
-946
-309
-176
-103
30
25
24
76
80
82
114
131
142
169
197
228
273
326
385
459
538
601
637
647
626
563
460
341
222
111
12
-70
-132
-175
-205
-220
-225
-226
-225
-222
-215
-210
-209
-210
-212
-214
-214
-215
-218
-225
-230
-231
-235
-244
-249
-249
-251
-251
-242
-235
-233
-229
-225
-227
-226
-216
-206
-215
-225
-206
-183
-191
-194
-161
-147
-174
-191
-191
-200
-197
-197
-214
-192
-181
-246
-310
-383
-217
781
1881
1286
-550
-1314
-760
-341
-303
-191
-117
-141
-106
-67
-70
-48
-14
4
31
65
95
136
188
243
306
381
457
517
557
579
576
537
465
379
291
208
134
73
26
3
-1
0
4
20
48
75
90
96
104
117
