# session 11
-42
-37
-20
-91
-168
-40
223
400
469
511
529
455
217
-94
-275
-335
-430
-539
-584
-568
-495
-434
-447
-450
-409
-414
-453
-447
-421
-410
-410
-400
-342
-261
-240
-257
-250
-238
-241
-290
-183
644
1787
1489
-435
-1700
-1287
-603
-474
-447
-330
-256
-246
-257
-133
138
297
299
347
473
582
668
757
826
844
821
788
716
572
400
279
229
199
126
37
-6
-55
-131
-129
-74
-124
-248
-312
-317
-284
-237
-240
-244
-170
-99
-79
-29
-7
-88
-211
-363
-164
957
1982
1104
-849
-1469
-773
-318
-259
-88
62
39
-2
18
62
93
122
194
320
445
504
514
550
599
590
528
455
377
291
193
86
-7
-100
-201
-238
-214
-232
-279
-287
-317
-387
-408
-393
-405
-411
-394
-391
-393
-391
-382
-316
-268
-352
-437
-495
-501
219
1589
1703
-27
-1306
-957
-398
-354
-246
-79
-129
-194
-151
-97
-60
-33
9
108
248
390
508
583
646
707
737
758
768
692
558
456
354
224
137
80
8
-4
47
19
-68
-66
-44
-150
-291
-308
-271
-305
-337
-280
-232
-251
-246
-237
-266
-284
-330
-50
1127
2156
1198
-876
-1569
-868
-364
-269
-135
-77
-140
-173
-183
-194
-208
-228
-189
-97
-24
47
153
277
357
306
190
199
265
180
14
-87
-213
-398
-462
-378
-314
-296
-233
-174
-181
-181
-157
-170
-176
-146
-168
-218
-194
-199
-297
-298
-217
-274
-380
-498
-621
101
1813
2323
565
-1014
-786
-182
-141
-73
89
78
63
105
118
153
211
262
328
392
473
604
704
730
739
733
681
597
472
304
163
79
5
-76
-152
-247
-355
-417
-437
-442
-411
-352
-316
-298
-279
-274
-260
-192
-109
-95
-125
-119
-133
-190
-180
-174
4
924
1881
1159
-730
-1507
-899
-317
-151
-51
29
103
187
203
199
239
254
232
260
353
409
406
466
558
495
331
246
180
50
-72
-178
-282
-314
-310
-347
-360
-325
-322
-326
-296
-327
-413
-407
-314
-265
-263
-247
-238
-252
-235
-208
-237
-274
-326
-314
307
1444
1456
-283
-1731
-1503
-789
-537
-334
-100
-74
-71
-18
-1
93
227
203
162
339
566
590
510
533
621
622
554
512
451
312
187
121
38
-69
-140
-162
-177
-245
-339
-333
-225
-169
-214
-274
-314
-333
-298
-215
-151
-128
-91
-51
-92
-163
-259
-427
-61
1281
2107
959
-670
-846
-276
-131
-138
-31
-15
-19
39
68
119
209
227
223
306
384
359
353
440
489
454
469
507
402
230
163
109
-11
-72
-61
-85
-92
-45
-61
-146
-195
-223
-260
-255
-234
-228
-178
-102
-75
-83
-113
-133
-127
-202
-307
-349
-442
-23
1499
2363
691
-1515
-1646
-762
-519
-467
-262
-258
-263
-122
-84
-106
-19
55
72
147
261
344
425
514
552
509
432
386
331
158
-70
-186
-207
-265
-356
-411
-454
-508
-518
-496
-497
-495
-473
-471
-478
-461
-435
-408
-355
-261
-187
-181
-141
-117
-242
99
1421
2240
994
-842
-1120
-429
-135
-106
16
90
141
212
205
186
224
244
247
287
337
393
489
559
536
482
452
402
306
209
133
58
-11
-47
-62
-85
-97
-79
-60
-55
-62
-100
-162
-205
-235
-265
-281
-307
-343
-295
-213
-252
-308
-353
-452
126
1658
2147
364
-1387
-1253
-568
-461
-381
-188
-186
-225
-216
-237
-193
-70
11
43
59
71
128
229
309
365
428
459
398
273
159
84
32
3
-15
-50
-69
-12
87
118
54
-16
-25
-15
-30
-53
-59
-61
-107
-175
-160
-91
-106
-174
-262
-232
502
1653
1508
-158
-1205
-777
-187
-65
23
124
104
74
92
148
225
268
302
395
505
558
581
614
628
595
542
470
345
178
5
-173
-329
-403
-427
-476
-523
-519
-505
-518
-525
-506
-496
-518
-541
-532
-496
-468
-460
-439
-385
-338
-308
-325
-450
-240
866
1850
1040
-747
-1285
-658
-340
-394
-292
-203
-225
-166
-60
3
66
150
255
369
456
542
636
675
697
743
739
670
552
321
64
-76
-149
-189
-150
-128
-182
-186
-116
-77
-85
-112
-152
-180
-208
-251
-254
-214
-197
-168
-94
-91
-165
-215
-229
157
1266
1886
610
-1279
-1615
-824
-400
-338
-203
-140
-151
-99
-77
-92
-49
3
16
61
176
316
414
457
500
542
521
458
402
294
117
-6
-51
-130
-231
-245
-211
-219
-232
-217
-229
-271
-285
-252
-202
-184
-217
-239
-230
-260
-296
-259
-231
-263
-367
-571
-211
1304
2388
1215
-659
-896
-236
-89
-103
57
107
133
203
182
200
309
325
299
413
603
724
772
825
899
909
812
706
617
450
244
127
75
12
-54
-86
-73
-56
-96
-159
-186
-209
-240
-258
-309
-383
-404
-431
-534
-610
-632
-682
-744
-883
-905
15
1541
1459
-626
-2025
-1535
-824
-738
-628
-431
-429
-432
-334
-274
-245
-159
-46
32
105
238
395
495
543
564
536
464
378
271
135
0
-82
-113
-177
-280
-285
-175
-129
-188
-200
-130
-75
-43
-24
-45
-73
-103
-165
-169
-110
-135
-237
-373
-281
706
2005
1606
-379
-1391
-818
-300
-291
-200
-77
-31
92
184
178
214
259
256
327
483
596
662
742
801
791
733
648
539
401
246
111
3
-104
-180
-174
-141
-160
-203
-214
-205
-204
-190
-157
-175
-254
-297
-277
-257
-258
-277
-269
-267
-400
-209
910
1797
794
-972
-1303
-599
-300
-318
-218
-190
-232
-168
-93
-75
-30
48
122
201
300
431
580
695
765
818
827
762
669
566
402
238
162
75
-93
-196
-165
-113
-120
-175
-237
-261
-250
-224
-185
-142
-132
-164
-191
-195
-223
-240
-243
-301
38
1173
1794
429
-1519
-1822
-986
-535
-468
-378
-388
-460
-458
-469
-509
-499
-438
-354
-273
-184
-35
122
188
216
285
333
303
230
141
37
-58
-133
-219
-341
-402
-317
-229
-278
-320
-239
-152
-109
-54
-34
-83
-131
-161
-169
-114
-89
-156
-260
-406
-124
1174
2245
1270
-606
-1016
-332
-48
-47
129
223
186
239
345
366
327
338
394
400
395
485
565
503
449
556
658
587
435
321
218
85
-51
-136
-153
-137
-97
-10
66
62
51
89
94
40
2
-9
-9
-10
-41
-39
-11
-125
-267
-311
-469
-146
1386
2322
688
-1498
-1631
-784
-574
-558
-374
-336
-337
-237
-166
-123
-67
-58
-78
-38
69
182
277
366
435
460
431
348
258
186
100
7
-59
-120
-194
-243
-256
-281
-333
-372
-397
-407
-363
-306
-315
-339
-293
-211
-186
-229
-239
-250
-382
-90
1157
2004
847
-998
-1349
-686
-420
-422
-247
-112
-101
-36
62
66
31
73
114
100
164
294
342
358
405
403
379
399
371
265
212
236
242
198
125
54
27
28
-9
-75
-116
-154
-228
-296
-314
-319
-348
-331
-226
-150
-176
-291
-500
-269
1036
2174
1154
-1008
-1681
-948
-481
-409
-251
-148
-122
-47
-4
13
64
89
105
176
254
304
366
440
471
446
389
317
227
123
24
-52
-97
-119
-125
-110
-80
-54
-41
-39
-18
42
69
2
-48
-11
-18
-80
-78
-102
-204
-244
-319
-262
660
1852
1417
-338
-1126
-648
-273
-223
-125
-112
-162
-112
-68
-63
-15
29
56
158
327
454
503
502
460
402
368
330
252
164
75
-25
-101
-138
-163
-186
-208
-233
-266
-310
-339
-304
-262
-289
-282
-164
-126
-245
-312
-325
-449
-575
-636
-490
443
1668
1286
-652
-1703
-1187
-600
-425
-233
-148
-223
-203
-138
-132
-108
-67
-28
46
124
210
376
549
615
637
672
664
612
553
473
392
329
285
307
351
290
205
240
255
133
56
115
147
64
-43
-46
52
64
-77
-169
-183
-336
-311
572
1634
1107
-810
-1852
-1333
-644
-449
-335
-214
-211
-216
-170
-121
-75
-44
-39
-2
102
207
261
293
331
368
392
393
358
281
167
38
-65
-124
-156
-186
-199
-193
-220
-278
-317
-344
-362
-358
-368
-372
-318
-289
-319
-338
-377
-428
-490
-596
-153
1145
1628
33
-1716
-1685
-892
-569
-398
-174
-86
0
127
173
215
303
353
393
480
580
668
744
809
880
933
915
850
763
622
461
335
223
161
197
200
65
-70
-95
-99
-166
-268
-335
-327
-280
-256
-279
-318
-297
-243
-247
-243
-210
-107
570
1649
1472
-365
-1698
-1349
-625
-405
-293
-181
-209
-211
-149
-136
-109
-19
42
79
188
342
441
473
502
557
584
534
420
285
155
27
-89
-142
-148
-202
-285
-288
-243
-248
-282
-293
-285
-284
-290
-266
-212
-207
-243
-250
-283
-328
-334
-448
-260
965
2070
1069
-942
-1369
-549
-207
-264
-127
-14
-5
52
87
68
68
117
211
296
371
496
617
638
600
557
511
461
361
179
7
-74
-106
-149
-208
-253
-263
-258
-286
-340
-351
-298
-276
-325
-344
-325
-343
-311
-249
-350
-442
-417
-594
-341
1218
2319
854
-1279
-1417
-570
-389
-356
-54
42
-15
47
98
92
123
135
126
195
296
346
403
475
472
417
390
357
271
169
86
16
-57
-140
-209
-230
-224
-246
-282
-294
-287
-252
-194
-182
-199
-170
-148
-138
-60
-20
-71
-147
-304
-27
1293
2239
1044
-812
-1027
-337
-210
-300
-118
56
80
27
-27
6
58
55
86
178
254
294
329
380
441
465
433
385
335
258
166
94
44
15
7
-4
-31
-61
-112
-179
-215
-224
-254
-287
-300
-320
-337
-310
-287
-301
-350
-536
-457
730
2130
1453
-809
-1736
-963
-391
-377
-268
-179
-206
-148
-110
-134
-69
9
-5
21
145
245
284
324
357
350
332
307
226
113
28
-55
-154
-218
-225
-209
-188
-183
-199
-198
-167
-151
-138
-91
-51
-63
-63
4
16
-126
-248
-327
-432
145
1615
2021
279
-1326
-1105
-442
-361
-266
-82
-162
-278
-226
-155
-113
-64
-32
1
74
170
252
301
332
380
437
448
402
336
268
202
145
88
33
-7
-23
-14
3
1
-19
-34
-47
-76
-91
-86
-110
-111
-36
-33
-131
-200
-271
53
1240
2011
817
-985
-1263
-585
-303
-268
-151
-125
-148
-135
-136
-85
30
90
97
121
169
237
301
325
320
312
284
239
191
113
12
-45
-69
-111
-135
-116
-95
-73
-41
-36
-43
-40
-66
-98
-96
-131
-165
-96
-74
-172
-214
-268
-129
916
2068
1322
-731
-1482
-780
-323
-312
-181
-89
-135
-119
-85
-94
-76
-46
-32
0
56
131
220
300
357
379
352
306
253
155
46
-6
-52
-142
-202
-201
-200
-212
-214
-232
-256
-248
-251
-306
-331
-295
-277
-283
-285
-298
-337
-500
-450
595
1899
1364
-678
-1594
-969
-471
-424
-255
-101
-100
-65
-19
-15
9
33
51
105
175
254
363
444
453
462
500
489
407
323
256
188
134
94
58
49
59
38
-25
-79
-82
-69
-110
-195
-228
-185
-157
-174
-184
-191
-197
-231
-348
-116
902
1600
591
-1020
-1289
-613
-311
-305
-166
-57
-33
28
77
98
152
220
274
323
372
432
481
476
445
445
456
428
372
306
226
158
119
86
43
10
-5
-20
-42
-67
-95
-128
-169
-208
-217
-218
-244
-247
-234
-258
-277
-386
-475
228
1499
1413
-342
-1465
-1054
-529
-472
-364
-225
-232
-218
-176
-192
-176
-90
-38
-25
57
203
297
334
394
475
536
566
545
456
333
227
154
102
53
8
-10
-10
-27
-51
-49
-27
-18
-36
-63
-93
-142
-179
-167
-174
-222
-300
-437
-195
886
1637
504
-1370
-1761
-985
-538
-470
-339
-264
-267
-230
-207
-195
-141
-98
-77
-14
85
174
247
321
391
442
481
511
491
398
283
190
121
84
63
27
-6
-12
-20
-67
-127
-143
-125
-143
-197
-231
-240
-250
-278
-296
-249
-334
-509
129
1592
1795
-19
-1467
-1157
-516
-441
-384
-248
-266
-259
-156
-93
-56
20
101
161
234
352
453
461
445
489
533
551
588
573
434
289
240
212
151
104
68
32
39
42
-36
-98
-76
-107
-206
-209
-156
-197
-229
-174
-175
-217
-243
-270
226
1412
1705
129
-1427
-1331
-625
-395
-318
-212
-240
-251
-178
-158
-155
-90
-13
47
114
201
303
388
430
446
479
523
511
421
300
181
81
25
-10
-56
-89
-100
-134
-189
-225
-239
-256
-288
-303
-269
-241
-268
-271
-235
-237
-274
-355
-228
690
1749
1172
-682
-1460
-824
-324
-274
-136
-22
-45
-11
55
73
99
129
141
172
227
287
350
402
419
411
405
389
332
248
170
94
13
-40
-51
-62
-97
-129
-162
-209
-238
-226
-215
-234
-250
-245
-254
-256
-225
-235
-282
-327
-418
-147
903
1535
341
-1391
-1611
-838
-451
-358
-193
-126
-127
-65
-16
15
79
136
181
250
326
392
467
535
558
555
562
561
523
453
347
219
131
94
68
62
89
92
45
-7
-34
-50
-87
-135
-161
-192
-226
-200
-185
-247
-290
-385
-320
641
1850
1312
-637
-1492
-893
-415
-374
-264
-184
-207
-164
-110
-101
-66
-23
2
53
118
161
200
236
244
253
292
312
267
189
115
35
-46
-94
-111
-134
-178
-213
-219
-217
-226
-227
-220
-234
-254
-251
-258
-268
-238
-242
-290
-335
-442
-223
841
1689
805
-803
-1163
-593
-309
-259
-141
-113
-131
-78
-46
-45
-7
36
63
113
177
225
272
334
385
422
461
482
448
365
270
190
131
81
32
-8
-19
-6
-19
-74
-114
-116
-130
-143
-119
-113
-131
-100
-89
-130
-120
-191
-137
825
2005
1352
-708
-1558
-878
-344
-286
-160
-59
-81
-56
-11
0
26
67
115
177
222
256
313
373
402
415
437
442
396
312
236
184
136
88
51
27
17
13
-10
-50
-76
-82
-94
-118
-128
-127
-130
-119
-130
-168
-175
-299
-421
263
1474
1289
-494
-1536
-1025
-472
-442
-347
-224
-282
-296
-225
-211
-216
-194
-177
-149
-89
-25
27
54
40
14
12
6
-40
