# session 15
50
74
-2
-33
173
431
451
351
340
341
274
255
268
88
55
942
2019
1452
-306
-991
-420
-29
-23
82
174
165
197
232
229
260
309
330
364
443
512
509
463
442
444
429
395
319
196
106
67
12
-46
-58
-66
-101
-112
-99
-121
-169
-177
-158
-171
-197
-191
-183
-184
-182
-201
-204
-252
-431
-191
853
1357
127
-1330
-1293
-581
-372
-362
-222
-165
-171
-135
-122
-114
-65
-17
26
82
137
189
231
240
235
243
243
187
66
-56
-110
-109
-111
-137
-179
-195
-172
-166
-207
-253
-271
-262
-257
-269
-269
-261
-271
-242
-183
-200
-228
-295
-490
-149
1119
1692
319
-1216
-1157
-497
-340
-267
-48
14
-35
-49
-61
-18
124
239
266
284
325
380
441
433
368
377
422
364
253
191
158
122
63
1
6
35
-12
-63
-33
-19
-72
-102
-116
-165
-175
-121
-111
-136
-131
-146
-171
-230
-358
-15
1033
1412
206
-1029
-934
-381
-230
-176
-59
-32
-31
4
43
69
59
78
196
305
338
385
448
445
425
465
496
438
351
281
180
70
33
31
-12
-59
-68
-71
-95
-130
-159
-170
-176
-204
-221
-197
-190
-215
-222
-214
-216
-314
-533
-248
957
1636
394
-1258
-1361
-651
-399
-348
-187
-143
-152
-83
-38
-22
28
79
126
197
271
330
371
392
405
414
393
319
212
109
24
-34
-65
-88
-110
-115
-104
-106
-131
-155
-156
-143
-144
-164
-176
-176
-172
-148
-136
-160
-199
-337
-348
449
1569
1212
-536
-1412
-850
-321
-271
-166
-58
-86
-71
-13
0
25
73
115
170
240
304
357
370
343
331
342
310
223
131
51
-17
-56
-72
-88
-93
-81
-69
-71
-102
-142
-146
-128
-140
-158
-143
-136
-131
-104
-114
-137
-156
-318
-215
826
1787
941
-810
-1267
-630
-296
-257
-107
-48
-95
-58
-2
14
51
97
126
162
226
315
396
408
370
370
379
300
166
71
8
-52
-88
-91
-87
-94
-113
-128
-124
-113
-122
-136
-128
-122
-130
-124
-112
-109
-110
-149
-174
-188
-354
-200
957
1939
977
-838
-1246
-595
-301
-288
-162
-113
-134
-93
-54
-25
31
82
134
201
261
311
345
350
345
335
300
233
154
84
20
-37
-81
-109
-122
-126
-129
-126
-128
-158
-184
-167
-156
-182
-185
-158
-166
-169
-132
-150
-190
-219
-344
-40
1177
1846
511
-1184
-1214
-455
-229
-212
-81
-69
-93
-40
-19
-9
55
120
169
231
284
312
338
365
373
356
321
271
205
132
76
37
-13
-71
-116
-142
-144
-139
-164
-199
-193
-176
-192
-217
-203
-176
-194
-206
-174
-188
-231
-281
-411
-87
1082
1621
264
-1277
-1182
-429
-227
-210
-93
-92
-114
-55
-21
-4
47
96
144
207
260
296
318
323
333
364
379
340
268
199
141
89
42
2
-27
-42
-48
-46
-51
-79
-109
-111
-107
-128
-139
-121
-120
-119
-87
-96
-137
-165
-296
-156
826
1597
592
-1083
-1316
-554
-225
-218
-99
-56
-85
-31
16
21
60
114
154
204
261
307
336
354
373
401
405
351
266
192
135
73
12
-24
-39
-68
-104
-102
-87
-120
-173
-180
-160
-168
-183
-168
-156
-153
-133
-135
-162
-168
-246
-195
502
1223
530
-1061
-1546
-814
-273
-196
-102
-30
-52
-21
36
61
103
152
179
220
292
349
364
358
362
363
351
322
251
142
60
25
-4
-38
-59
-76
-91
-85
-78
-108
-152
-161
-144
-145
-165
-174
-168
-158
-135
-126
-140
-141
-215
-244
329
1198
863
-717
-1560
-991
-342
-209
-119
-3
1
15
60
78
111
155
187
244
315
360
394
413
392
365
371
354
274
176
104
53
13
-20
-43
-52
-59
-65
-59
-68
-108
-133
-124
-123
-124
-97
-104
-161
-165
-137
-161
-148
-168
-320
43
1143
1357
-215
-1596
-1262
-429
-212
-170
-41
-27
-33
29
54
65
113
160
209
282
344
376
389
381
358
338
313
259
185
119
57
1
-34
-56
-80
-97
-96
-91
-93
-113
-137
-139
-131
-143
-152
-143
-145
-135
-105
-119
-126
-138
-331
-250
760
1574
523
-1267
-1535
-657
-198
-156
-45
-11
-61
-23
24
31
66
121
180
249
309
345
355
335
314
328
351
338
275
180
85
27
0
-32
-77
-104
-98
-85
-89
-108
-130
-138
-129
-123
-134
-146
-137
-135
-141
-120
-117
-154
-214
-415
-439
424
1423
793
-863
-1310
-577
-170
-185
-96
-37
-70
-35
7
9
44
97
132
177
227
251
259
272
306
350
370
348
298
238
167
94
38
-6
-46
-76
-87
-91
-86
-79
-88
-111
-116
-109
-124
-143
-127
-114
-130
-121
-104
-136
-186
-322
-426
113
1027
773
-690
-1385
-768
-197
-130
-55
38
15
27
87
110
138
184
217
251
296
336
375
422
469
495
479
421
349
276
201
131
75
18
-41
-79
-98
-111
-102
-79
-92
-132
-151
-153
-158
-158
-154
-163
-166
-137
-119
-137
-136
-173
-244
80
758
613
-700
-1576
-1103
-371
-165
-95
19
28
39
104
118
117
161
204
241
297
346
367
383
415
437
410
346
271
191
118
63
12
-32
-62
-88
-113
-122
-118
-108
-107
-135
-174
-181
-173
-184
-192
-181
-174
-164
-146
-146
-151
-194
-292
-64
663
862
-254
-1431
-1290
-517
-191
-139
-21
29
15
51
88
104
144
195
242
293
338
373
400
404
393
392
375
306
211
136
82
33
-5
-26
-36
-45
-53
-54
-49
-52
-79
-114
-121
-111
-122
-134
-117
-109
-112
-90
-92
-109
-114
-253
-254
519
1340
637
-966
-1393
-653
-173
-122
-19
54
32
57
97
112
154
205
244
297
355
394
411
403
378
365
350
296
209
126
65
15
-32
-72
-98
-112
-121
-127
-124
-118
-131
-160
-174
-166
-170
-188
-181
-163
-168
-156
-138
-166
-175
-251
-438
-33
1152
1426
-99
-1421
-1085
-336
-187
-158
-39
-45
-55
5
28
44
97
146
196
262
318
348
354
340
332
337
318
255
173
99
34
-23
-69
-102
-127
-143
-150
-149
-140
-133
-142
-162
-165
-148
-148
-171
-169
-147
-151
-144
-120
-148
-176
-255
-453
-117
1059
1452
-10
-1405
-1107
-309
-142
-131
-11
-10
-30
25
55
75
131
184
235
291
331
350
356
350
350
362
353
299
218
143
81
23
-28
-66
-89
-103
-109
-112
-107
-99
-98
-112
-119
-106
-99
-117
-125
-102
-98
-113
-84
-72
-118
-168
-335
-384
378
1324
748
-857
-1311
-562
-101
-92
-8
57
29
55
92
101
143
199
234
276
325
364
392
413
436
471
483
428
328
236
159
78
0
-57
-99
-137
-164
-175
-174
-167
-158
-165
-196
-213
-199
-197
-219
-221
-206
-214
-208
-167
-168
-201
-227
-282
-60
670
902
-274
-1559
-1417
-584
-242
-174
-30
21
15
74
108
110
157
218
255
300
356
401
431
446
446
441
412
334
228
142
77
11
-48
-84
-110
-136
-145
-139
-139
-138
-130
-140
-163
-163
-150
-156
-162
-140
-120
-122
-103
-74
-81
-104
-167
-179
326
1159
961
-516
-1466
-1002
-302
-116
-44
64
77
86
132
158
193
242
276
314
373
429
464
468
452
441
427
370
270
167
89
31
-16
-50
-77
-98
-110
-111
-112
-113
-106
-109
-139
-168
-167
-167
-192
-199
-173
-167
-170
-137
-133
-155
-162
-280
-204
679
1497
615
-1131
-1514
-696
-221
-183
-69
1
-28
1
42
55
96
146
192
257
325
369
388
384
372
362
332
268
185
89
-3
-66
-100
-124
-140
-153
-170
-180
-178
-170
-159
-156
-177
-203
-204
-197
-210
-217
-194
-182
-182
-149
-135
-161
-170
-259
-201
627
1534
817
-995
-1598
-824
-248
-166
-53
30
2
27
74
88
127
185
239
316
401
461
496
504
481
452
430
379
273
148
54
-3
-46
-89
-119
-124
-141
-186
-198
-137
-77
-86
-129
-151
-159
-173
-180
-165
-139
-139
-152
-124
-115
-165
-214
-348
-308
599
1664
1056
-734
-1361
-672
-206
-171
-52
18
-39
-29
31
75
129
181
229
296
355
406
454
459
432
435
441
386
284
179
86
18
-27
-72
-117
-145
-155
-160
-174
-180
-157
-139
-173
-220
-222
-201
-211
-224
-206
-190
-194
-176
-160
-182
-200
-289
-327
312
1332
1064
-627
-1584
-1010
-331
-200
-112
5
7
32
89
100
117
170
231
299
367
437
500
517
490
456
416
348
262
171
80
4
-50
-85
-104
-115
-125
-137
-145
-138
-122
-128
-157
-176
-175
-175
-189
-201
-188
-168
-170
-157
-124
-132
-160
-239
-331
115
1139
1249
-256
-1526
-1206
-427
-205
-152
-30
-13
-12
40
52
61
123
194
253
316
384
450
481
461
431
389
300
197
121
40
-54
-107
-111
-121
-147
-150
-136
-143
-153
-135
-121
-140
-157
-153
-149
-154
-171
-181
-145
-111
-131
-130
-110
-129
-133
-219
-254
525
1716
1323
-650
-1642
-950
-275
-201
-104
24
7
11
60
84
125
183
241
328
425
501
565
591
552
491
439
363
260
162
64
-34
-97
-124
-149
-167
-165
-171
-188
-191
-181
-159
-129
-137
-184
-193
-161
-165
-186
-151
-105
-111
-104
-87
-121
-132
-236
-478
37
1568
2017
215
-1471
-1220
-411
-235
-181
-36
-34
-32
37
47
55
122
195
262
342
435
524
557
515
462
437
383
269
155
67
-34
-134
-184
-206
-243
-272
-275
-274
-275
-274
-276
-272
-260
-268
-286
-275
-253
-263
-279
-263
-241
-224
-189
-170
-173
-189
-309
-303
385
1228
731
-870
-1585
-970
-349
-193
-83
10
16
59
118
146
200
252
279
338
425
508
582
616
592
548
503
433
325
195
76
-8
-58
-87
-107
-114
-109
-100
-97
-105
-127
-139
-125
-118
-141
-156
-142
-141
-159
-156
-131
-122
-112
-91
-99
-103
-135
-290
-107
896
1594
567
-1078
-1343
-591
-175
-91
50
110
88
126
164
181
233
287
333
414
510
581
624
627
570
490
421
338
230
123
32
-41
-87
-113
-135
-145
-143
-137
-131
-134
-146
-143
-129
-140
-170
-173
-154
-164
-199
-198
-170
-170
-166
-140
-152
-159
-208
-407
-186
937
1597
364
-1334
-1468
-658
-281
-209
-67
-27
-57
-13
23
30
76
136
187
261
353
428
473
477
438
380
312
208
80
-22
-84
-150
-234
-290
-296
-292
-302
-308
-300
-295
-296
-281
-255
-251
-269
-272
-263
-266
-281
-291
-282
-269
-273
-262
-248
-262
-270
-383
-486
217
1524
1410
-532
-1781
-1203
-423
-284
-188
-51
-72
-64
13
46
82
154
222
307
417
517
589
608
573
525
485
420
315
202
112
29
-47
-90
-105
-125
-147
-148
-140
-135
-126
-120
-127
-121
-95
-87
-98
-94
-83
-91
-105
-97
-72
-58
-45
-10
4
-4
-13
-113
-22
852
1753
1016
-778
-1363
-593
-18
73
207
323
314
340
406
445
481
532
601
695
803
905
969
978
964
953
923
846
734
625
532
457
412
386
359
349
363
367
355
357
362
353
352
373
392
385
369
376
394
380
359
387
415
409
451
479
315
9
-378
-693
-265
872
1123
-212
-1592
-1995
-2153
-2513
-2754
-2905
-3172
-3318
-3044
-2598
-2512
-2721
-2743
-2554
-2287
-1763
-1121
-765
-566
-254
-30
-14
2
74
92
83
118
177
234
291
343
377
391
400
414
418
394
366
359
366
376
376
329
258
238
290
374
434
459
502
540
515
485
369
259
993
2465
2534
565
-883
-457
265
373
452
588
559
546
596
606
632
696
748
815
907
980
1028
1049
1018
947
864
774
668
546
420
311
223
150
102
77
53
30
5
-30
-60
-66
-75
-99
-116
-125
-158
-204
-231
-238
-251
-279
-290
-273
-273
-292
-293
-301
-302
-356
-535
-230
1014
1664
212
-1658
-1752
-897
-578
-521
-324
-247
-253
-176
-118
-103
-51
21
90
176
279
376
436
440
410
362
275
147
19
-84
-182
-283
-353
-374
-381
-394
-399
-397
-397
-388
-379
-395
-403
-369
-344
-366
-385
-364
-344
-354
-362
-340
-307
-295
-281
-256
-260
-272
-340
-462
-47
1129
1560
157
-1387
-1348
-605
-322
-221
-54
-18
-19
56
102
119
177
252
326
422
535
630
685
687
641
563
464
347
224
108
-1
-93
-147
-160
-143
-129
-137
-142
-124
-117
-127
-122
-112
-112
-108
-108
-126
-132
-118
-125
-152
-148
-119
-116
-110
-65
-63
-105
-171
-393
-237
1130
2428
1448
-745
-1361
-591
-191
-186
-44
30
3
56
111
130
189
268
350
446
538
625
705
734
704
649
572
464
341
222
116
25
-44
-80
-89
-102
-127
-136
-125
-121
-138
-153
-145
-132
-139
-164
-184
-187
-176
-173
-194
-212
-190
-155
-164
-177
-145
-146
-193
-242
-413
-333
766
1962
1227
-774
-1477
-774
-297
-239
-97
-22
-59
-16
30
31
78
150
201
260
345
442
517
533
510
469
379
242
112
7
-94
-193
-267
-309
-328
-336
-339
-331
-319
-325
-335
-326
-332
-359
-339
-286
-291
-327
-308
-272
-283
-297
-267
-227
-218
-209
-188
-183
-176
-231
-390
-88
1045
1664
473
-1119
-1239
-528
-235
-171
-8
42
22
84
129
130
195
302
352
379
470
596
667
674
649
580
466
347
246
150
36
-78
-143
-158
-165
-169
-162
-153
-152
-153
-151
-151
-162
-181
-191
-190
-182
-176
-177
-179
-172
-175
-176
-141
-120
-139
-145
-148
-164
-212
-418
-331
847
2136
1470
-511
-1274
-669
-251
-209
-69
7
-28
17
71
80
136
216
271
347
454
566
665
709
701
691
645
497
309
171
68
-29
-97
-128
-145
-151
-144
-143
-158
-171
-177
-189
-200
-197
-189
-194
-220
-244
-237
-217
-219
-227
-222
-219
-211
-199
-187
-169
-159
-166
-227
-355
-80
1020
1782
710
-1077
-1441
-726
-351
-251
-65
-34
