# session 26
82
39
161
-41
-537
-589
-201
-12
-54
-26
25
20
40
73
84
100
124
140
163
191
213
238
270
303
341
383
424
456
479
491
488
461
397
300
193
86
-18
-105
-165
-204
-227
-235
-234
-228
-220
-211
-203
-196
-191
-185
-180
-179
-178
-177
-176
-177
-178
-177
-175
-176
-176
-173
-170
-169
-169
-167
-159
-142
-129
-120
-99
-75
-79
-86
-73
-85
-129
-143
-133
-141
-140
-130
-146
-137
-107
-150
-173
-160
-109
590
1820
1637
-462
-1860
-1233
-321
-155
-88
49
34
31
88
90
94
128
143
156
185
205
225
255
287
317
354
396
440
485
528
561
579
578
547
474
361
233
106
-9
-101
-164
-211
-242
-253
-250
-242
-236
-231
-221
-208
-200
-198
-196
-193
-192
-191
-192
-194
-193
-188
-187
-187
-186
-186
-187
-181
-162
-146
-142
-128
-102
-99
-107
-94
-91
-123
-148
-150
-157
-150
-128
-141
-147
-113
-130
-157
-133
-100
396
1561
1821
57
-1705
-1498
-506
-173
-112
44
64
39
95
116
114
151
176
185
212
241
264
294
326
361
405
455
505
557
608
646
668
668
633
549
420
270
127
2
-100
-173
-219
-246
-258
-258
-254
-248
-241
-231
-218
-208
-202
-197
-191
-186
-182
-180
-177
-177
-178
-177
-177
-176
-178
-180
-178
-174
-172
-165
-148
-136
-124
-95
-77
-92
-96
-77
-94
-137
-142
-135
-148
-141
-133
-152
-131
-113
-165
-166
-161
-43
859
1987
1284
-959
-1886
-968
-201
-137
-46
60
22
40
92
89
103
134
142
155
179
197
223
252
273
303
348
393
436
481
520
543
555
548
503
417
307
187
71
-30
-108
-164
-198
-216
-223
-224
-220
-213
-203
-194
-188
-183
-177
-170
-164
-160
-158
-157
-156
-158
-160
-159
-157
-156
-156
-156
-157
-156
-153
-138
-116
-108
-102
-73
-53
-67
-69
-51
-71
-114
-118
-115
-130
-117
-109
-131
-107
-85
-138
-152
-184
-68
920
2102
1328
-966
-1838
-899
-184
-138
-34
65
24
52
103
92
106
137
144
164
194
210
228
259
292
327
369
414
462
513
556
586
606
607
561
460
325
187
58
-53
-139
-200
-238
-256
-267
-273
-268
-258
-252
-245
-235
-225
-217
-210
-206
-203
-203
-202
-198
-196
-195
-193
-193
-194
-193
-187
-179
-174
-171
-159
-144
-135
-117
-95
-98
-109
-97
-101
-136
-153
-148
-158
-157
-140
-148
-137
-106
-142
-174
-176
-120
582
1822
1695
-368
-1826
-1268
-353
-160
-82
64
53
49
111
118
126
170
190
198
223
248
272
304
337
370
414
469
526
576
619
661
692
691
646
553
419
270
127
-4
-111
-180
-220
-246
-258
-264
-272
-269
-251
-242
-237
-221
-207
-202
-192
-178
-174
-177
-179
-182
-180
-175
-177
-181
-179
-174
-168
-166
-170
-173
-163
-148
-136
-128
-116
-91
-67
-57
-39
-21
-61
-144
-178
-154
-135
-124
-118
-130
-119
-107
-143
-163
-163
31
913
1864
1149
-905
-1804
-1030
-297
-170
-61
48
23
42
96
93
95
124
151
191
233
250
262
283
308
345
389
437
498
560
596
621
654
655
586
464
316
160
19
-96
-179
-225
-248
-269
-284
-284
-284
-284
-271
-253
-242
-223
-190
-175
-177
-173
-163
-156
-152
-156
-167
-167
-159
-162
-169
-168
-169
-164
-140
-122
-125
-119
-93
-82
-89
-82
-74
-93
-114
-117
-119
-120
-114
-111
-105
-99
-110
-112
-133
-144
266
1175
1405
109
-1351
-1398
-623
-205
-98
21
67
60
96
122
128
153
177
193
217
239
258
284
316
350
394
446
501
564
630
685
725
742
715
622
473
306
145
1
-111
-185
-230
-255
-267
-275
-280
-277
-272
-265
-254
-241
-234
-226
-213
-206
-207
-203
-192
-188
-191
-192
-191
-189
-188
-189
-191
-182
-165
-153
-135
-101
-89
-109
-120
-119
-136
-156
-160
-167
-172
-164
-161
-148
-132
-151
-148
-159
-226
195
1307
1586
-20
-1668
-1504
-533
-141
-68
60
82
64
114
133
127
155
179
190
215
240
259
287
320
353
395
446
505
574
643
698
735
751
725
634
485
313
149
8
-103
-177
-221
-242
-251
-256
-261
-260
-254
-249
-240
-228
-219
-217
-214
-209
-201
-198
-201
-201
-198
-196
-195
-192
-190
-188
-184
-179
-175
-171
-166
-156
-138
-124
-116
-96
-72
-74
-87
-81
-85
-117
-131
-125
-132
-132
-123
-127
-115
-100
-127
-135
-145
-68
640
1661
1271
-675
-1804
-1150
-306
-114
-23
94
80
89
141
143
152
185
198
210
235
255
274
300
331
368
413
463
523
588
643
684
713
725
692
594
447
287
131
-7
-114
-189
-242
-275
-295
-303
-300
-292
-288
-285
-276
-265
-256
-244
-230
-223
-221
-219
-214
-208
-204
-203
-200
-198
-197
-193
-184
-181
-184
-182
-174
-168
-166
-155
-131
-112
-101
-78
-51
-51
-57
-43
-48
-84
-100
-95
-104
-103
-94
-102
-92
-74
-106
-125
-118
17
742
1662
1143
-796
-1813
-1112
-302
-131
-40
73
58
73
130
134
144
182
203
222
250
273
297
326
356
393
439
486
538
596
649
694
725
727
684
584
436
273
121
-12
-116
-181
-220
-245
-257
-257
-253
-246
-236
-228
-220
-212
-206
-198
-191
-191
-196
-195
-192
-194
-195
-196
-198
-194
-190
-191
-189
-185
-187
-188
-183
-176
-170
-164
-160
-160
-156
-142
-126
-122
-111
-81
-70
-87
-86
-69
-88
-121
-126
-128
-132
-119
-120
-128
-106
-113
-146
-137
-134
198
1228
1770
410
-1458
-1606
-634
-158
-95
37
78
52
103
132
126
157
186
192
214
242
262
287
315
344
382
429
478
531
587
635
668
685
679
630
524
382
232
93
-26
-116
-177
-217
-236
-242
-243
-241
-234
-225
-215
-203
-192
-185
-178
-176
-182
-182
-173
-170
-173
-171
-170
-174
-175
-173
-173
-174
-175
-177
-176
-172
-170
-170
-165
-160
-152
-137
-126
-120
-97
-72
-75
-78
-56
-59
-99
-114
-107
-119
-120
-105
-120
-111
-79
-125
-163
-145
-95
554
1792
1752
-261
-1757
-1227
-310
-135
-79
66
50
38
99
109
110
144
161
170
194
213
233
264
297
329
364
403
450
501
546
583
615
632
610
535
412
269
131
9
-92
-166
-216
-244
-254
-256
-256
-253
-247
-241
-232
-221
-212
-208
-206
-201
-197
-196
-194
-191
-188
-187
-185
-186
-188
-184
-180
-182
-183
-180
-174
-157
-140
-141
-131
-99
-91
-107
-97
-83
-115
-145
-139
-140
-151
-141
-139
-140
-116
-127
-159
-164
-170
257
1418
1891
356
-1489
-1513
-572
-186
-125
22
53
26
79
108
110
143
168
180
209
240
265
296
328
361
403
451
502
559
616
664
698
715
696
618
485
328
172
28
-91
-173
-222
-252
-269
-274
-272
-265
-255
-247
-238
-229
-220
-212
-206
-202
-196
-191
-193
-196
-189
-183
-188
-192
-191
-191
-192
-189
-187
-189
-176
-153
-143
-135
-107
-87
-98
-101
-86
-99
-135
-146
-146
-156
-145
-132
-150
-136
-109
-153
-176
-174
-58
776
1910
1396
-742
-1811
-1024
-236
-139
-52
65
33
44
102
101
110
142
155
175
207
225
244
277
310
342
382
434
489
537
580
615
635
631
589
498
367
222
84
-37
-130
-192
-228
-247
-254
-253
-245
-236
-226
-216
-208
-202
-197
-191
-189
-188
-185
-182
-181
-179
-177
-178
-182
-183
-179
-176
-175
-173
-172
-166
-148
-132
-128
-109
-75
-72
-87
-76
-67
-103
-131
-126
-133
-142
-125
-131
-138
-99
-116
-167
-155
-177
191
1438
2102
544
-1492
-1551
-525
-136
-113
31
58
23
79
102
90
122
149
153
171
194
211
237
266
290
320
364
412
456
497
531
553
560
542
482
381
262
144
32
-67
-143
-187
-214
-234
-242
-236
-225
-216
-209
-204
-196
-188
-184
-180
-177
-177
-176
-174
-173
-172
-167
-165
-168
-169
-167
-167
-167
-166
-160
-142
-126
-122
-104
-73
-70
-83
-69
-66
-109
-135
-127
-139
-147
-128
-137
-140
-100
-129
-175
-166
-199
254
1578
2052
264
-1641
-1449
-430
-141
-112
43
49
19
80
97
91
128
153
163
188
206
219
248
285
317
350
391
442
497
545
581
605
616
599
536
423
280
136
7
-97
-174
-221
-246
-260
-265
-265
-263
-257
-245
-233
-224
-218
-214
-210
-205
-200
-194
-192
-196
-199
-198
-195
-194
-194
-193
-190
-180
-163
-154
-148
-126
-104
-110
-115
-96
-99
-136
-150
-143
-154
-154
-136
-146
-141
-114
-148
-167
-154
-111
545
1765
1682
-336
-1806
-1271
-355
-162
-88
61
47
37
101
113
115
151
168
180
213
241
261
292
327
358
398
446
496
551
607
646
664
667
635
542
402
251
106
-27
-130
-195
-231
-253
-267
-267
-258
-251
-245
-233
-221
-216
-210
-204
-200
-193
-185
-186
-190
-188
-184
-185
-187
-187
-186
-183
-179
-174
-162
-148
-137
-116
-94
-100
-110
-93
-93
-132
-152
-145
-154
-153
-136
-156
-154
-110
-143
-179
-160
-161
389
1683
1866
-97
-1786
-1360
-368
-144
-98
53
44
23
87
99
98
133
150
160
189
212
231
258
287
318
358
404
450
499
545
583
607
606
570
488
367
228
96
-20
-112
-178
-220
-242
-248
-248
-246
-235
-222
-214
-208
-198
-189
-183
-176
-172
-172
-174
-174
-173
-173
-174
-175
-174
-173
-174
-176
-174
-165
-148
-135
-127
-105
-76
-77
-89
-77
-79
-118
-139
-133
-144
-146
-129
-144
-138
-98
-137
-171
-161
-181
399
1770
1967
-59
-1775
-1327
-335
-134
-95
56
44
27
94
104
101
137
156
164
188
206
226
260
290
320
366
418
465
512
557
593
622
634
605
520
393
248
104
-25
-125
-191
-233
-261
-277
-284
-280
-270
-260
-251
-241
-231
-223
-216
-210
-205
-202
-200
-198
-195
-192
-190
-190
-188
-185
-185
-183
-179
-174
-159
-142
-138
-128
-97
-86
-99
-92
-80
-108
-140
-139
-144
-153
-134
-132
-138
-98
-101
-154
-159
-182
138
1313
2068
687
-1388
-1625
-624
-161
-125
22
74
34
79
113
105
130
159
174
200
225
242
269
302
334
375
424
476
529
580
624
653
662
644
574
448
297
151
17
-97
-179
-227
-253
-267
-275
-276
-271
-262
-251
-237
-226
-219
-212
-203
-194
-187
-183
-181
-182
-184
-185
-183
-181
-181
-181
-180
-178
-174
-168
-167
-166
-149
-129
-124
-109
-73
-61
-78
-72
-60
-91
-126
-125
-129
-137
-122
-128
-135
-96
-111
-157
-141
-174
191
1469
2134
518
-1535
-1538
-480
-111
-100
44
65
27
87
114
104
134
155
157
176
199
215
239
270
298
330
370
413
455
494
525
547
554
533
472
372
255
138
26
-70
-136
-176
-202
-222
-230
-227
-221
-217
-209
-195
-185
-179
-173
-165
-160
-156
-154
-152
-151
-151
-150
-150
-153
-155
-153
-152
-152
-153
-155
-155
-152
-149
-147
-145
-141
-132
-117
-105
-99
-80
-59
-65
-69
-46
-49
-95
-115
-109
-126
-128
-110
-123
-114
-83
-129
-159
-159
-122
623
1954
1787
-390
-1809
-1149
-257
-131
-69
61
33
37
101
101
104
140
155
170
197
215
236
267
290
314
356
404
451
502
551
586
614
625
595
511
389
251
115
-8
-107
-176
-217
-243
-259
-261
-255
-250
-244
-234
-222
-211
-201
-190
-180
-176
-176
-171
-165
-167
-173
-174
-170
-169
-169
-168
-166
-165
-169
-169
-160
-151
-151
-147
-128
-111
-107
-92
-67
-64
-76
-63
-54
-86
-114
-109
-114
-123
-110
-117
-121
-92
-114
-152
-150
-156
328
1582
1965
207
-1643
-1480
-481
-158
-111
43
58
31
90
112
108
142
164
171
194
220
240
267
296
326
362
405
452
502
549
586
606
607
577
505
391
254
119
-1
-99
-170
-213
-238
-256
-264
-263
-259
-253
-240
-226
-215
-203
-191
-183
-177
-171
-168
-167
-166
-164
-166
-167
-166
-164
-164
-164
-166
-164
-158
-157
-160
-158
-150
-145
-141
-132
-113
-98
-95
-81
-54
-47
-56
-41
-32
-67
-100
-100
-109
-115
-98
-112
-119
-80
-103
-149
-133
-156
281
1588
2104
360
-1585
-1450
-427
-115
-92
55
62
31
91
104
93
128
152
162
190
213
228
253
282
307
339
381
429
480
528
566
595
611
601
547
448
321
184
49
-65
-142
-190
-226
-249
-255
-254
-254
-249
-237
-225
-216
-205
-195
-193
-191
-181
-172
-175
-180
-176
-173
-176
-173
-167
-168
-172
-173
-171
-163
-154
-153
-155
-150
-142
-129
-110
-99
-94
-71
-50
-57
-59
-35
-41
-81
-93
-89
-104
-103
-94
-116
-101
-62
-102
-138
-140
-54
719
1919
1587
-547
-1808
-1098
-234
-106
-32
99
72
72
131
132
138
172
184
197
224
247
269
292
314
349
393
433
482
541
588
620
644
643
596
498
362
213
69
-60
-161
-226
-263
-286
-299
-301
-295
-290
-289
-284
-274
-265
-259
-251
-239
-229
-225
-224
-220
-216
-217
-219
-219
-222
-226
-224
-220
-219
-219
-218
-216
-209
-205
-208
-204
-183
-166
-164
-148
-114
-103
-114
-103
-89
-119
-155
-153
-154
-164
-149
-152
-161
-122
-128
-179
-167
-185
127
1326
2096
657
-1451
-1617
-556
-111
-100
39
79
39
94
126
114
142
174
185
201
221
246
280
309
336
372
418
468
520
568
610
640
657
656
617
525
398
260
132
24
-57
-109
-135
-151
-160
-155
-143
-134
-126
-119
-116
-110
-96
-87
-81
-71
-63
-64
-61
-56
-59
-66
-65
-65
-69
-68
-63
-61
-59
-57
-60
-69
-71
-64
-60
-60
-48
-36
-36
-23
2
-5
-24
-9
-1
-47
-87
-85
-91
-106
-105
-123
-131
-106
-132
-175
-180
-181
291
1456
1762
60
-1690
-1527
-579
-275
-236
-98
-92
-129
-84
-75
-95
-77
-64
-62
-48
-39
-37
-22
-3
7
