# session 20
-4
-45
73
-69
-492
-572
-252
-71
-103
-78
-23
-25
-23
-4
2
-1
8
43
81
105
154
210
222
237
287
283
202
140
120
86
40
9
-28
-66
-74
-67
-56
-47
-71
-94
-63
-33
-45
-47
-54
-104
-130
-93
-57
-57
-56
-41
-51
-90
-114
-97
-62
-71
-122
-91
-30
-162
-161
490
1065
457
-642
-838
-371
-158
-145
-51
-31
-94
-60
24
33
13
34
45
18
51
165
246
260
274
285
266
248
234
198
156
124
84
36
6
-5
-15
-19
2
31
42
24
-7
-25
-31
-47
-60
-51
-51
-70
-62
-21
-4
-30
-53
-65
-98
-118
-89
-88
-103
-30
-56
-204
164
975
880
-314
-1002
-624
-221
-193
-136
-46
-47
-29
3
-13
2
59
78
74
97
129
169
234
286
299
304
293
213
105
55
45
-6
-74
-95
-97
-134
-168
-154
-120
-108
-112
-105
-82
-72
-91
-115
-124
-118
-102
-84
-58
-34
-45
-77
-86
-95
-105
-68
-50
-78
-42
-46
-148
166
898
872
-208
-938
-663
-262
-176
-91
-1
-24
-21
33
33
20
56
85
86
109
165
218
252
276
299
317
316
294
258
209
155
107
56
3
-32
-51
-77
-106
-107
-76
-53
-64
-77
-71
-70
-91
-118
-135
-127
-90
-48
-36
-63
-99
-107
-109
-128
-119
-84
-81
-78
-100
-194
7
689
950
146
-684
-594
-209
-157
-150
-45
-29
-46
-22
-27
-34
4
21
16
50
97
110
133
194
235
221
200
191
149
94
84
74
5
-48
-33
-30
-68
-82
-73
-77
-70
-44
-37
-40
-37
-54
-80
-77
-75
-84
-58
-13
-14
-40
-37
-39
-62
-42
-6
-38
-62
-53
-137
-26
627
1068
419
-533
-629
-227
-87
-98
-36
-3
0
22
20
15
36
44
46
76
119
145
165
191
220
244
244
212
164
122
85
48
15
-17
-49
-71
-79
-89
-102
-103
-92
-85
-95
-106
-99
-98
-129
-156
-154
-143
-125
-90
-72
-96
-116
-110
-120
-144
-134
-122
-123
-82
-119
-227
116
884
924
-80
-803
-579
-214
-170
-147
-71
-57
-55
-37
-29
-20
-14
-6
25
60
89
137
194
231
256
274
267
242
220
205
185
152
111
73
41
14
-5
-6
11
31
38
28
12
2
-4
-14
-25
-34
-45
-48
-24
7
2
-34
-59
-80
-113
-114
-96
-119
-111
-63
-145
-96
521
1020
389
-691
-905
-466
-216
-157
-71
-44
-62
-33
2
4
-1
10
32
57
88
134
183
223
253
271
269
254
236
210
165
112
72
33
-26
-73
-85
-84
-84
-80
-81
-82
-79
-88
-110
-119
-121
-129
-130
-122
-108
-86
-95
-151
-168
-128
-126
-155
-141
-139
-144
-96
-144
-177
308
952
631
-439
-887
-526
-219
-164
-101
-61
-75
-49
-14
-14
-7
19
45
82
125
148
171
230
306
342
339
323
284
232
203
177
120
70
54
30
-5
-6
8
-6
-23
-21
-24
-21
-1
1
-22
-38
-57
-72
-43
2
2
-31
-52
-60
-77
-97
-97
-93
-84
-53
-100
-162
214
910
863
-110
-732
-464
-127
-114
-101
-45
-62
-76
-58
-30
10
15
-4
19
60
79
102
136
161
176
178
170
160
152
133
83
15
-28
-50
-73
-82
-71
-69
-73
-85
-113
-107
-55
-43
-97
-131
-113
-100
-120
-125
-85
-54
-69
-83
-76
-86
-97
-85
-93
-133
-116
-53
-139
-192
342
1056
735
-397
-845
-436
-151
-153
-91
-47
-85
-69
-31
-33
-19
12
12
17
75
134
135
150
229
269
236
227
241
206
166
153
112
47
10
-13
-32
-28
-31
-58
-65
-43
-23
-14
-19
-37
-46
-51
-76
-89
-74
-65
-48
-16
-25
-51
-41
-51
-90
-58
-6
-48
-55
14
-90
-95
608
1330
755
-527
-905
-468
-230
-219
-121
-63
-76
-50
-50
-91
-61
10
23
18
60
99
109
160
252
297
286
286
295
252
175
118
79
42
13
-29
-88
-120
-121
-124
-121
-104
-99
-104
-99
-95
-107
-119
-110
-107
-132
-139
-96
-66
-84
-92
-67
-82
-153
-170
-105
-83
-98
-56
-106
-127
471
1273
903
-426
-1010
-577
-204
-174
-132
-64
-44
-28
-22
-8
23
25
31
76
107
122
170
225
249
281
334
352
310
244
189
151
115
72
36
3
-63
-124
-97
-39
-61
-95
-55
-34
-74
-66
-24
-65
-136
-125
-104
-133
-116
-48
-43
-81
-89
-85
-91
-114
-133
-110
-96
-109
-99
-162
-106
572
1318
857
-397
-859
-474
-227
-221
-144
-85
-101
-105
-91
-74
-64
-60
-32
-3
18
81
141
163
230
311
286
233
249
225
148
126
111
38
-13
-42
-102
-117
-86
-94
-80
-22
-39
-88
-58
-51
-103
-97
-74
-109
-124
-118
-128
-82
-7
-29
-103
-109
-66
-58
-90
-90
-53
-66
-86
-64
-106
68
832
1367
609
-588
-774
-312
-161
-172
-51
-20
-86
-65
-21
-17
7
25
11
48
130
145
130
213
321
306
261
306
327
271
243
208
101
37
53
31
-14
-11
-8
-26
-27
-21
-13
4
1
-29
-67
-116
-146
-117
-67
-70
-115
-117
-50
-9
-79
-176
-166
-111
-149
-211
-202
-184
-171
-190
-223
174
1012
1093
-27
-892
-699
-354
-312
-212
-140
-230
-208
-84
-98
-161
-119
-74
-94
-75
4
34
39
135
250
246
205
234
242
166
112
123
102
26
-28
-45
-55
-47
-51
-82
-72
-18
-9
-32
-29
-26
-36
-38
-59
-107
-107
-45
-6
3
35
47
15
-16
-61
-93
-41
-15
-49
-29
-85
-54
640
1367
751
-606
-966
-453
-203
-230
-134
-31
-28
-41
-43
-26
7
23
42
97
154
178
194
248
344
414
394
347
352
337
240
152
139
125
58
-11
-31
-19
-25
-70
-104
-73
-20
-31
-75
-70
-47
-76
-114
-108
-93
-91
-60
-31
-83
-164
-153
-108
-141
-155
-90
-83
-95
-69
-190
-128
657
1241
406
-833
-912
-357
-193
-217
-138
-111
-91
-18
-11
-49
-37
3
33
52
82
147
197
199
239
327
337
259
197
165
128
89
39
-20
-57
-77
-107
-147
-166
-154
-121
-93
-102
-130
-116
-81
-104
-161
-172
-154
-150
-137
-113
-101
-102
-125
-157
-139
-93
-104
-133
-71
16
-72
-197
176
912
907
-87
-773
-505
-128
-116
-85
26
10
-17
32
30
-6
23
78
106
109
116
172
233
233
253
323
306
222
213
195
97
65
90
33
-26
-7
-15
-41
-14
-24
-77
-56
-22
-59
-74
-44
-57
-95
-100
-77
-43
-42
-75
-89
-96
-135
-148
-96
-53
-85
-133
-94
-54
-108
96
731
921
52
-823
-684
-171
-78
-139
-57
-8
-32
-8
23
2
-2
43
84
114
147
146
123
167
267
308
255
191
175
154
80
29
57
59
-19
-56
-22
-40
-108
-102
-29
1
-37
-81
-78
-50
-90
-171
-147
-41
-18
-70
-99
-110
-100
-75
-107
-145
-93
-65
-110
-83
-91
-199
160
972
968
-137
-868
-598
-222
-153
-102
-44
-49
-62
-79
-68
-4
40
51
52
25
37
136
213
220
229
240
242
250
219
147
106
85
40
-3
-12
-8
-25
-60
-73
-42
7
2
-72
-81
16
34
-76
-137
-110
-80
-48
-19
-30
-60
-81
-97
-97
-70
-50
-80
-81
-12
-88
-153
436
1229
800
-563
-1067
-511
-119
-141
-94
-8
-42
-68
-33
-13
-8
4
14
35
82
124
140
160
220
299
328
286
246
222
174
154
154
56
-82
-75
1
-36
-118
-104
-44
-30
-46
-62
-102
-153
-159
-141
-150
-158
-141
-114
-61
-29
-89
-153
-145
-122
-97
-113
-183
-114
-35
-220
-19
951
1243
23
-1062
-844
-322
-242
-192
-44
-56
-126
-69
1
-28
-60
-25
25
84
142
131
129
223
274
237
272
342
296
218
221
206
88
-13
12
32
-48
-66
22
16
-87
-83
22
44
-36
-89
-78
-63
-69
-61
-22
-17
-80
-103
-29
-17
-106
-117
-74
-99
-55
4
-132
79
977
1232
-1
-1121
-884
-341
-288
-199
10
-28
-119
-35
49
41
11
-4
39
122
135
108
179
307
338
300
326
379
343
260
222
186
113
60
17
-62
-99
-56
-56
-118
-108
-36
-32
-80
-98
-100
-96
-77
-109
-152
-77
3
-67
-143
-127
-129
-131
-102
-151
-166
-47
-108
-215
374
1176
712
-658
-1132
-577
-183
-169
-122
-69
-86
-69
-34
-53
-83
-46
30
49
37
90
174
217
237
253
280
316
287
206
164
125
68
55
28
-46
-66
-57
-103
-114
-56
-45
-76
-68
-62
-107
-137
-111
-64
-23
-17
-60
-95
-91
-92
-96
-77
-88
-130
-89
-47
-183
-101
642
1149
376
-724
-774
-268
-106
-102
-55
-99
-77
54
47
-42
-17
40
44
61
99
128
165
201
217
238
259
241
196
148
113
111
103
18
-61
-23
22
-25
-55
-42
-52
-41
-21
-68
-95
-47
-38
-69
-59
-42
-41
-28
-32
-63
-83
-87
-86
-103
-105
-57
-136
-221
313
1112
775
-485
-930
-409
-126
-196
-128
-57
-74
-22
-2
-66
-61
-1
34
46
24
42
152
212
180
199
243
206
163
172
156
97
51
26
5
-41
-96
-71
1
-47
-164
-124
22
36
-67
-114
-88
-55
-36
-24
-20
-47
-91
-87
-54
-64
-101
-123
-100
-27
-88
-201
257
1051
798
-480
-1048
-533
-143
-171
-124
-64
-113
-66
35
3
-63
-8
103
141
98
87
186
296
298
263
295
344
333
276
209
162
140
101
20
-58
-89
-66
-20
-24
-82
-99
-54
-22
-49
-115
-146
-97
-58
-77
-62
-47
-114
-150
-111
-111
-120
-106
-147
-154
-121
-155
163
899
843
-383
-1172
-767
-280
-229
-157
-76
-104
-26
60
-30
-82
18
64
30
88
209
232
179
189
278
348
343
302
273
221
128
79
99
80
-5
-53
-48
-65
-82
-31
13
-40
-101
-77
-54
-95
-108
-39
24
-23
-128
-96
36
-22
-204
-178
-65
-80
-63
-103
-226
242
1121
933
-316
-915
-535
-222
-198
-160
-138
-97
-38
-84
-88
11
-14
-91
7
123
81
32
117
247
288
237
210
234
201
103
68
94
56
-4
2
-15
-92
-105
-50
-15
-2
-16
-58
-58
-24
-31
-55
-40
3
26
-15
-83
-97
-71
-44
-27
-72
-127
-72
-82
-170
264
1098
996
-175
-826
-490
-197
-201
-94
-19
-105
-108
-26
-22
-45
-35
-37
-30
45
148
181
151
163
219
231
214
200
147
108
127
84
-9
-3
24
-55
-117
-97
-109
-122
-52
-21
-94
-131
-114
-152
-181
-117
-69
-77
-67
-80
-144
-152
-100
-89
-128
-144
-97
-106
-180
195
1059
1150
-11
-885
-599
-163
-169
-174
-83
-80
-95
-70
-26
17
-2
-24
28
64
63
120
198
226
236
245
258
275
235
156
150
176
114
15
-33
-37
-21
-22
-70
-93
-40
1
-28
-69
-76
-78
-96
-111
-102
-70
-47
-68
-77
-43
-75
-148
-120
-93
-136
-102
-110
-129
382
1061
647
-578
-1051
-623
-258
-143
-63
-85
-113
-27
12
-18
4
28
37
95
124
125
207
272
255
302
385
355
294
294
266
189
133
102
47
-37
-67
-25
-17
-67
-76
-41
-26
-27
-45
-91
-107
-60
-26
-58
-95
-91
-93
-93
-64
-92
-171
-138
-72
-131
-150
-123
-189
130
930
959
-180
-933
-593
-222
-259
-192
-37
-54
-77
-23
-31
-59
-24
14
28
33
38
96
187
211
194
206
217
218
220
175
100
72
60
5
-38
-37
-59
-96
-88
-67
-49
-2
0
-67
-80
-44
-66
-100
-84
-57
-14
13
-56
-129
-82
-19
-55
-117
-123
-58
-6
-120
-135
468
1147
693
-470
-819
-381
-156
-157
-52
-5
-64
-80
-63
-41
-9
1
10
28
44
89
140
149
172
229
246
215
159
91
82
125
95
-3
-52
-41
-41
-59
-61
-34
1
3
-40
-65
-32
-7
-36
-55
-47
-65
-76
-18
34
-23
-102
-76
-31
-75
-103
-55
-20
-39
-155
-155
450
1194
818
-384
-851
-457
-184
-147
-52
-20
-80
-88
-60
-31
13
22
-20
-37
21
99
125
123
149
168
143
133
166
151
74
50
70
21
-60
-77
-71
-81
-85
-105
-132
-93
-23
-13
-49
-81
-110
-133
-119
-86
-82
-90
-57
-28
-56
-69
-47
-69
-114
-122
-74
-38
-158
-131
585
1278
629
-701
-1002
-437
-146
-139
-51
-38
-123
-95
9
26
-25
-29
22
49
73
136
172
166
200
255
258
248
269
289
266
178
80
72
86
0
-72
-16
27
-45
-102
-51
14
3
-27
-5
-2
-78
-130
-83
-19
-6
-21
-34
-41
-61
-82
-61
-53
-101
-82
-40
-141
30
775
1073
117
-928
-856
-305
-149
-189
-117
-24
17
16
-11
-29
-21
14
63
96
124
145
119
122
238
339
298
220
209
206
161
121
94
35
-30
-52
-58
-76
-84
-72
-38
-18
-56
-95
-72
-52
-74
-96
-124
-132
-72
-39
-91
-93
-49
-106
-180
-139
-92
-98
-111
-197
-108
544
1075
461
-610
-784
-316
-121
-167
-129
-63
-47
-49
-48
-36
-7
20
5
-24
22
106
116
101
150
193
169
148
165
131
33
-8
28
30
-22
-60
-75
-73
-44
-17
-24
-42
-31
-26
-79
-116
-67
-35
-77
-74
-23
-45
-73
-11
-6
-119
-138
-43
-45
-71
-21
-129
-145
542
1244
665
-568
-847
-333
-125
-202
-104
11
-25
-59
-26
23
71
70
25
21
62
104
151
177
189
256
301
218
131
155
197
184
119
16
-26
27
28
-46
-44
11
-24
-100
-80
-8
-4
-42
-68
-117
-158
-99
0
14
-44
-98
-139
-146
-82
-40
-87
-99
-112
-167
224
1033
958
-325
-1151
-746
-241
-197
-157
-82
-88
-2
