# session 10
161
151
175
171
96
37
64
93
72
58
58
29
-10
-33
-64
-97
-114
-140
-178
-186
-162
-132
-102
-101
-127
-125
-120
-138
-91
-90
-244
-83
529
587
-290
-892
-588
-181
-123
-99
-39
-51
-55
-27
-27
-21
18
60
94
129
163
186
188
179
169
143
92
44
23
5
-31
-76
-117
-149
-160
-155
-142
-113
-92
-117
-144
-138
-153
-146
-95
-211
-338
78
616
208
-744
-949
-507
-281
-278
-218
-201
-238
-226
-207
-199
-163
-137
-126
-77
-15
-5
-31
-47
-40
-26
-21
-38
-66
-84
-90
-101
-125
-143
-132
-100
-79
-67
-45
-46
-75
-61
-29
-41
-16
2
-128
-31
601
923
225
-575
-527
-126
10
45
125
141
120
130
149
166
194
229
249
253
270
301
315
316
321
320
310
296
264
221
194
171
133
93
62
52
73
121
143
103
63
81
77
56
111
55
-113
180
805
644
-291
-689
-314
-36
-27
34
90
72
98
137
123
118
144
161
173
197
208
209
215
201
152
111
106
95
46
-5
-15
-14
-47
-86
-88
-68
-57
-42
-31
-48
-65
-68
-83
-59
-27
-157
-198
273
699
204
-650
-753
-318
-104
-85
-21
8
-5
22
54
64
78
86
74
62
49
13
-46
-105
-151
-201
-267
-322
-352
-387
-429
-458
-476
-498
-517
-530
-533
-518
-488
-471
-478
-470
-443
-421
-362
-320
-394
-272
270
508
-131
-802
-666
-220
-67
-29
54
73
65
96
117
127
158
192
215
238
269
297
304
292
279
277
274
258
239
228
211
175
137
115
109
108
112
146
200
210
174
156
150
140
170
128
-20
159
765
922
239
-337
-221
28
48
58
105
104
106
122
124
132
151
173
212
254
282
308
332
335
325
313
293
266
246
226
194
148
79
-1
-45
-53
-59
-46
-24
-55
-103
-107
-120
-123
-92
-206
-283
200
758
322
-647
-850
-408
-174
-159
-103
-89
-106
-69
-43
-49
-27
6
29
69
112
114
91
84
86
60
14
-6
5
-8
-62
-105
-126
-176
-239
-260
-270
-305
-317
-302
-328
-365
-366
-391
-420
-409
-490
-505
-59
385
-60
-919
-1037
-555
-269
-199
-109
-81
-98
-55
-14
-13
8
50
90
131
167
194
214
214
188
180
196
180
139
137
144
100
54
52
36
-6
-9
23
46
52
39
21
16
4
18
68
3
-46
361
875
556
-328
-608
-228
36
61
108
143
132
148
173
188
211
235
260
298
329
342
346
336
309
275
242
214
186
156
129
112
99
79
50
28
19
18
25
37
33
9
-9
-30
-53
-43
-107
-266
-102
485
635
-74
-686
-541
-215
-158
-147
-96
-94
-87
-48
-27
-3
42
75
99
125
139
129
106
78
54
43
35
26
13
-13
-52
-81
-99
-125
-155
-169
-174
-178
-154
-117
-124
-150
-144
-153
-167
-134
-200
-313
-8
508
259
-651
-1008
-608
-277
-233
-191
-163
-195
-187
-155
-144
-110
-53
-7
38
92
127
135
140
147
141
138
156
165
140
104
78
52
21
-11
-40
-57
-56
-35
9
39
8
-31
-29
-38
-26
23
-90
-212
189
736
400
-494
-725
-324
-93
-76
-15
10
-14
12
48
59
87
124
152
189
241
290
329
353
360
352
336
307
269
230
189
148
111
72
22
-19
-20
2
29
74
107
88
69
70
37
43
78
-81
-163
356
847
318
-577
-661
-255
-108
-102
-45
-55
-78
-35
-17
-20
20
67
92
122
164
196
213
225
232
222
188
151
118
71
18
-19
-53
-107
-162
-182
-169
-151
-130
-129
-173
-201
-182
-195
-204
-161
-254
-352
66
615
236
-756
-1071
-661
-363
-313
-262
-230
-227
-205
-192
-171
-122
-94
-81
-43
-11
-1
26
60
64
54
64
82
91
87
72
45
16
-14
-49
-82
-98
-97
-80
-49
-36
-51
-54
-55
-66
-29
-32
-169
-46
549
761
18
-702
-555
-130
-15
11
86
89
82
123
151
167
204
240
268
305
344
368
365
345
329
323
309
282
255
231
199
168
145
109
64
41
42
53
81
107
84
41
26
7
-12
18
-52
-211
48
702
738
-64
-577
-350
-96
-101
-84
-44
-77
-95
-81
-89
-98
-83
-60
-31
2
31
48
53
56
57
49
39
29
2
-45
-87
-112
-141
-177
-201
-197
-178
-147
-98
-66
-80
-89
-71
-91
-97
-44
-123
-206
221
801
497
-426
-732
-358
-98
-62
0
31
16
44
68
52
62
103
126
138
160
167
151
134
124
96
62
42
16
-30
-74
-111
-160
-208
-241
-266
-277
-265
-234
-201
-201
-220
-212
-214
-219
-152
-166
-314
-104
505
499
-413
-1024
-739
-340
-267
-229
-160
-158
-142
-84
-41
3
55
89
125
181
227
246
244
233
221
215
207
190
169
149
129
107
79
45
23
20
19
19
42
70
73
69
59
28
51
106
3
-48
405
869
447
-385
-517
-112
88
96
147
169
148
155
171
184
215
245
270
311
360
386
382
373
366
344
313
290
262
222
184
149
107
60
14
-22
-38
-42
-37
-23
-35
-72
-87
-96
-120
-116
-169
-299
-96
493
587
-151
-733
-590
-317
-280
-254
-206
-226
-231
-199
-187
-176
-146
-114
-79
-40
-12
10
34
45
38
28
18
-1
-30
-62
-95
-128
-160
-187
-203
-213
-212
-181
-137
-136
-180
-196
-187
-218
-217
-168
-274
-349
111
646
264
-627
-833
-429
-191
-157
-91
-62
-71
-33
6
21
60
112
152
196
242
271
290
304
299
275
255
237
204
159
122
85
31
-25
-58
-77
-97
-105
-85
-65
-83
-105
-90
-104
-137
-86
-96
-222
40
667
596
-340
-848
-478
-97
-50
-9
50
34
42
82
92
102
128
148
175
204
208
206
211
199
170
147
119
87
76
64
24
-13
-28
-50
-76
-73
-59
-56
-45
-33
-46
-49
-33
-40
-15
8
-119
-90
467
836
211
-601
-549
-112
4
17
121
139
119
171
211
210
227
255
269
291
336
374
379
364
340
304
268
246
230
200
152
109
87
51
-18
-74
-84
-75
-64
-51
-72
-117
-133
-137
-148
-130
-189
-325
-102
487
541
-201
-726
-532
-228
-186
-200
-156
-121
-147
-179
-122
-50
-77
-109
-63
0
31
10
-32
0
53
9
-31
5
-21
-116
-147
-151
-203
-264
-311
-325
-275
-228
-241
-272
-312
-355
-365
-355
-329
-350
-501
-425
193
567
-74
-885
-851
-423
-270
-232
-137
-106
-109
-68
-24
5
48
104
158
206
244
278
323
361
351
327
327
303
242
213
215
193
170
165
150
138
142
153
197
244
220
189
212
202
184
196
82
78
606
1006
369
-580
-652
-182
25
31
75
88
72
89
115
128
133
142
178
217
220
216
230
233
201
140
74
46
50
22
-33
-56
-62
-99
-144
-159
-154
-158
-160
-145
-133
-126
-117
-133
-119
-57
-125
-197
196
692
333
-577
-849
-444
-143
-88
-45
-21
-25
-7
7
18
55
103
145
173
188
219
260
255
215
191
176
147
114
86
69
64
40
6
0
-22
-74
-80
-61
-112
-197
-230
-234
-257
-241
-175
-236
-335
-17
507
325
-486
-828
-484
-180
-139
-97
-38
-41
-50
-26
7
27
45
76
114
151
180
174
136
108
94
67
45
42
33
13
0
-14
-47
-83
-104
-118
-127
-114
-104
-130
-160
-157
-170
-187
-136
-148
-273
-72
498
520
-300
-876
-622
-221
-120
-78
-15
-15
-10
29
53
78
117
158
205
252
280
291
282
248
216
202
177
138
116
111
100
75
41
6
-10
-8
-11
-12
17
36
9
-4
13
5
20
29
-108
-99
394
702
94
-676
-637
-202
-46
-33
32
51
37
55
72
89
126
157
177
213
254
268
256
242
227
200
170
148
128
106
90
73
40
-1
-29
-48
-66
-64
-35
-22
-50
-76
-96
-131
-117
-94
-231
-261
227
652
163
-643
-701
-296
-150
-160
-95
-77
-102
-76
-53
-56
-33
2
17
33
63
83
76
59
55
56
44
25
9
-17
-48
-71
-94
-129
-161
-183
-195
-170
-98
-63
-118
-158
-126
-123
-131
-91
-177
-275
145
767
537
-354
-691
-357
-106
-71
-27
-12
-23
15
46
53
89
128
148
176
201
217
242
263
260
247
234
216
197
170
132
101
78
42
9
7
4
-15
0
33
4
-41
-25
-23
-41
7
-35
-137
210
781
489
-519
-886
-462
-164
-121
-17
23
-40
-59
-86
-114
-34
13
-74
-87
49
146
140
120
108
100
114
120
81
35
31
31
-56
-193
-220
-121
-29
15
51
59
23
-43
-119
-165
-174
-179
-215
-291
-176
282
441
-275
-1040
-903
-325
-1
110
107
66
165
254
187
203
351
391
351
377
416
437
478
499
495
489
448
412
462
511
460
417
485
563
526
345
-49
-615
-1053
-1179
-1096
-944
-870
-865
-747
-756
-1020
-734
188
384
-332
-614
-230
73
266
502
555
421
277
197
215
197
28
-28
217
435
410
423
542
394
-7
-204
-155
-174
-276
-334
-324
-168
-11
-192
-444
-270
17
44
77
100
-66
-47
224
317
200
-8
6
901
1915
1254
-548
-1345
-991
-668
-576
-495
-476
-414
-274
-193
-100
79
175
140
145
223
253
243
255
217
115
68
77
73
75
33
-46
72
373
514
478
485
449
224
-33
-108
-54
-117
-294
-346
-399
-704
-748
-39
506
-183
-1354
-1621
-1063
-616
-588
-732
-828
-851
-859
-821
-721
-611
-422
-220
-203
-145
164
368
429
734
1042
964
838
933
1020
1022
987
854
678
521
346
252
303
338
277
213
226
347
543
734
816
676
615
1132
1657
1115
25
-323
-109
-60
-1
194
234
239
368
445
531
695
647
422
372
447
411
260
89
17
30
-64
-257
-370
-453
-592
-683
-776
-989
-1154
-1162
-1193
-1257
-1226
-1217
-1256
-1162
-1094
-1222
-1204
-974
-744
-65
955
931
-248
-973
-739
-308
-19
77
27
128
286
177
-25
-76
-43
61
241
362
411
479
510
415
235
45
-124
-258
-350
-412
-466
-439
-286
-261
-452
-408
-59
46
11
330
583
369
274
527
541
205
93
546
1018
627
-357
-812
-618
-480
-528
-521
-446
-344
-236
-181
-163
-87
113
368
491
475
554
683
545
247
152
197
174
132
149
258
356
229
67
210
462
571
586
418
108
29
131
20
-160
-81
0
-54
293
1018
1112
373
-153
-76
41
35
107
130
-72
-351
-452
-401
-404
-378
-199
-13
364
1050
1231
642
433
822
638
-44
-124
183
96
-103
-5
106
33
-91
-223
-358
-447
-536
-691
-922
-1134
-1106
-890
-870
-832
-197
348
-378
-1607
-1753
-1107
-791
-766
-600
-365
-237
-175
110
627
884
910
1152
1324
1129
973
896
579
285
267
250
169
207
208
52
-8
42
-104
-371
-397
-286
-414
-618
-530
-373
-431
-490
-387
-226
-109
-79
213
1097
1700
952
-319
-647
-288
-181
-258
-237
-244
-190
6
78
3
-18
-84
-244
-258
-114
-71
-176
-232
-122
9
-33
-119
-10
149
63
-204
-345
-240
-38
87
117
92
86
223
388
392
563
1130
1366
892
843
1795
2203
1014
-376
-646
-409
-360
-215
33
45
-27
65
135
9
-201
-366
-456
-458
-426
-428
-376
-229
-202
-345
-356
-182
-95
-87
56
231
226
115
32
-100
-316
-397
-226
-45
-57
-162
-241
-275
-271
-346
-451
-211
244
92
-776
-1402
-1314
-1086
-1164
-1272
-1112
-857
-746
-783
-930
-1059
-955
-664
-416
-322
-283
14
560
898
1083
1484
1825
1868
1863
1702
1230
824
624
428
339
464
607
592
495
653
970
845
640
866
309
-1204
-1180
724
1594
554
-480
-609
-399
-219
-45
228
591
806
760
589
390
261
187
-50
-302
-115
312
386
195
171
213
76
-93
-180
-342
-571
-687
-661
-588
-629
-919
-1187
-1022
-676
-728
-1100
-1212
-919
-650
-694
-729
-284
495
935
673
25
-412
-329
37
274
269
113
-87
-192
-186
-225
-336
-355
-235
-161
-173
-71
68
63
132
126
-464
-1033
-705
-152
-185
-354
-280
-248
-318
-236
118
549
752
790
881
838
570
462
501
252
112
818
1596
1134
5
-370
-67
109
53
-57
-117
-30
51
-3
4
114
100
-11
9
150
237
209
151
152
146
59
-36
-118
-176
-73
72
48
156
587
865
774
677
602
321
75
86
97
-33
-197
-251
161
869
836
-52
-570
-384
-293
-469
-549
-557
-576
-554
-557
-525
-338
-216
-249
-63
357
546
562
725
692
249
28
229
217
-126
-314
-248
-150
-142
-197
-162
-79
-166
-337
-443
-596
-727
-656
-542
-559
-628
-623
-328
284
505
-243
-1194
-1275
-756
-440
-338
-261
-290
-195
148
290
157
169
348
574
809
797
630
636
604
391
181
7
93
264
-60
-18
690
-116
-2025
-1604
387
629
-168
-167
-44
-240
-272
-263
-304
-328
-491
-266
777
1405
611
-414
-519
-341
-432
-425
-312
-370
-411
-265
-100
-12
43
67
32
5
60
36
-131
-194
-277
-540
-438
-249
-1073
-1929
-1155
10
-48
-431
-344
-285
-214
90
303
456
635
474
277
686
1071
787
836
1721
1966
883
-171
-409
-389
-308
-76
-18
-92
80
343
434
500
676
904
1042
981
925
1038
998
739
700
835
758
622
612
501
336
394
530
599
759
897
826
735
622
340
175
249
248
192
199
181
501
1292
1517
613
-393
-718
-763
-852
-872
-879
-978
-1059
-1012
-918
-946
-1048
-979
-787
-734
-759
-727
-783
-930
-975
-898
-818
-906
-1110
-1034
-801
-913
-1016
-704
-536
-650
-535
