# session 15
32
37
31
19
17
9
-9
-14
-38
-64
-10
-35
-181
67
698
665
-218
-733
-426
-81
-31
4
51
36
42
73
81
96
131
157
174
195
218
229
220
205
196
182
155
120
85
50
12
-32
-76
-103
-106
-100
-82
-51
-46
-76
-85
-87
-105
-68
-82
-240
-102
498
644
-116
-734
-537
-181
-110
-80
-28
-42
-43
-13
-2
14
35
37
54
100
137
145
138
131
130
126
103
62
18
-23
-63
-102
-143
-177
-184
-170
-155
-139
-139
-171
-186
-184
-207
-177
-143
-286
-271
299
688
106
-665
-655
-282
-155
-120
-41
-25
-27
14
45
72
117
157
191
241
291
321
335
337
326
306
282
249
209
162
108
59
20
-16
-43
-45
-29
-9
-12
-43
-55
-49
-73
-58
-31
-160
-130
445
801
103
-777
-745
-287
-137
-111
-29
-28
-46
-1
25
35
75
109
124
153
192
228
247
227
201
201
179
111
51
22
-4
-28
-59
-106
-127
-123
-153
-174
-136
-123
-172
-203
-209
-192
-163
-249
-264
211
693
242
-690
-911
-501
-245
-198
-121
-78
-94
-77
-27
8
23
43
99
162
186
196
226
231
196
164
140
102
71
57
34
4
-16
-39
-65
-69
-59
-43
-22
-33
-64
-56
-51
-62
-9
-30
-182
40
664
644
-267
-814
-473
-80
-30
7
70
54
61
100
98
109
160
196
218
253
287
299
303
300
279
245
216
197
174
141
107
69
25
-4
-16
-22
-8
25
25
-3
-4
-12
-31
8
-40
-222
-37
602
707
-90
-686
-479
-150
-108
-100
-64
-77
-75
-54
-56
-46
-17
3
20
39
61
88
94
68
41
26
-2
-50
-97
-132
-167
-209
-249
-270
-276
-276
-247
-191
-173
-202
-200
-193
-226
-187
-148
-307
-252
402
773
66
-768
-714
-292
-152
-117
-46
-43
-50
-16
5
21
61
105
144
185
219
244
262
271
268
244
206
168
131
98
66
29
-8
-27
-35
-48
-47
-12
12
-8
-25
-26
-52
-34
26
-77
-126
378
873
344
-632
-773
-276
-9
22
75
90
92
146
165
142
168
226
256
265
292
338
359
325
268
219
177
136
88
24
-24
-44
-74
-128
-179
-212
-220
-192
-167
-197
-238
-218
-202
-228
-191
-182
-305
-137
454
540
-263
-866
-637
-255
-156
-104
-35
-32
-19
29
58
76
109
152
198
244
292
329
339
324
291
240
188
158
138
109
83
65
31
-20
-49
-50
-40
-22
-19
-46
-62
-67
-96
-78
-64
-225
-237
302
693
130
-647
-637
-225
-71
-56
0
17
6
13
22
45
76
92
106
130
148
159
160
144
122
107
90
52
-3
-57
-102
-146
-193
-237
-264
-268
-253
-225
-206
-235
-274
-268
-268
-272
-211
-248
-388
-94
573
537
-346
-845
-539
-199
-121
-43
23
17
45
104
131
147
176
222
277
324
359
392
399
374
351
333
291
238
203
157
85
34
22
-4
-45
-52
-32
-25
-37
-53
-53
-68
-103
-67
-45
-180
-53
583
759
-136
-954
-778
-302
-146
-79
-12
-42
-41
25
34
26
80
139
158
179
227
274
273
228
174
123
70
26
0
-26
-55
-74
-90
-118
-143
-150
-149
-151
-150
-157
-164
-163
-184
-167
-98
-170
-233
198
706
304
-621
-832
-379
-96
-56
10
45
30
55
92
108
136
174
208
250
298
329
328
306
281
249
199
158
146
139
124
110
87
54
34
31
35
46
56
39
14
-1
-27
-35
-12
-105
-208
141
706
544
-255
-590
-298
-89
-101
-81
-60
-80
-69
-52
-56
-37
-4
17
44
73
82
76
65
39
7
-11
-24
-52
-89
-125
-158
-192
-227
-250
-256
-251
-233
-203
-207
-243
-250
-249
-259
-216
-231
-394
-252
386
620
-80
-761
-675
-342
-240
-202
-141
-129
-109
-55
-10
27
70
121
184
241
279
310
331
333
324
306
278
250
224
196
162
122
82
50
33
34
52
82
86
40
15
35
15
6
46
-60
-113
381
873
365
-572
-714
-288
-95
-71
11
24
-12
12
40
45
72
106
128
160
206
246
260
247
223
184
128
77
43
13
-17
-39
-53
-75
-101
-111
-99
-74
-47
-43
-59
-49
-43
-67
-30
-21
-160
-41
528
666
-106
-758
-560
-164
-77
-65
-18
-24
-25
-5
-2
15
47
75
114
150
161
166
171
159
134
95
48
19
7
-7
-27
-58
-103
-133
-129
-121
-117
-99
-90
-122
-154
-153
-147
-123
-104
-228
-296
133
664
404
-356
-586
-306
-162
-178
-140
-112
-119
-96
-71
-65
-53
-34
-13
31
91
123
116
114
126
128
128
140
128
67
9
5
19
-7
-55
-72
-48
-7
22
8
-24
-25
-44
-87
-38
-11
-155
-14
637
818
-33
-788
-609
-178
-70
-48
8
15
38
91
105
114
162
211
238
267
314
355
355
321
284
241
187
132
73
5
-48
-71
-98
-138
-159
-154
-145
-126
-122
-174
-203
-159
-156
-172
-122
-181
-211
248
680
128
-812
-908
-421
-193
-167
-74
-16
-12
8
19
31
75
118
147
201
279
325
314
291
283
250
182
118
77
45
15
-8
-22
-33
-51
-76
-93
-81
-62
-84
-109
-90
-95
-111
-56
-111
-266
13
590
422
-472
-843
-442
-101
-45
11
52
36
59
90
93
123
169
199
237
282
303
306
306
289
247
206
181
147
100
65
45
14
-31
-64
-74
-87
-110
-97
-57
-59
-93
-115
-140
-127
-83
-196
-282
151
668
288
-594
-782
-363
-144
-153
-110
-79
-89
-73
-70
-81
-50
3
37
59
89
126
151
141
111
89
64
19
-30
-67
-98
-130
-164
-192
-203
-207
-207
-178
-122
-109
-151
-162
-148
-156
-105
-69
-211
-140
470
766
59
-701
-595
-166
-24
18
96
108
95
120
144
157
186
234
281
325
378
419
430
428
404
340
284
252
202
144
112
77
28
-2
-9
-19
-33
-18
16
-10
-83
-96
-98
-158
-150
-128
-219
-30
548
572
-309
-946
-701
-285
-148
-78
-35
-61
-42
19
31
28
62
102
125
163
226
259
232
194
166
107
32
-1
-8
-42
-90
-117
-127
-145
-174
-192
-181
-145
-119
-129
-143
-133
-151
-163
-96
-137
-291
-15
593
451
-490
-939
-558
-197
-140
-105
-74
-79
-49
-18
-12
22
84
137
183
236
297
339
336
312
299
280
237
201
181
144
97
69
32
-22
-34
-8
-10
-16
12
13
-31
-48
-53
-69
-36
-85
-244
-11
643
685
-168
-736
-489
-176
-149
-102
-20
-41
-77
-53
-20
-16
-8
42
96
108
118
172
215
197
166
172
163
99
41
34
15
-47
-82
-62
-58
-99
-112
-55
-10
-36
-59
-50
-87
-99
-14
-72
-183
238
863
552
-451
-795
-411
-168
-148
-58
-10
-56
-40
22
38
39
65
96
131
181
230
258
256
233
218
218
166
45
-32
-7
8
-35
-48
-22
-35
-81
-86
-46
-38
-88
-103
-80
-109
-113
-69
-196
-278
167
576
34
-823
-831
-326
-163
-220
-146
-80
-113
-112
-52
-13
6
51
98
105
123
187
209
164
141
126
59
16
46
34
-46
-74
-56
-85
-105
-63
-49
-71
-50
-29
-52
-66
-92
-127
-51
2
-173
-142
451
757
56
-714
-580
-107
-11
-64
6
57
17
1
69
145
155
147
194
268
312
315
286
250
226
206
172
135
102
67
36
9
-31
-68
-76
-72
-64
-30
8
-10
-60
-72
-79
-85
-26
-68
-254
-24
662
686
-228
-774
-436
-75
-37
11
62
33
51
95
98
135
206
240
258
301
336
340
331
317
278
215
161
132
103
50
-7
-48
-82
-121
-155
-179
-178
-135
-103
-138
-172
-155
-181
-210
-157
-233
-380
-26
580
351
-556
-896
-543
-286
-245
-177
-143
-159
-129
-93
-79
-38
17
55
106
178
242
286
309
303
276
240
194
140
85
28
-23
-60
-100
-150
-183
-192
-187
-159
-143
-185
-219
-206
-231
-242
-171
-237
-315
154
727
275
-775
-1025
-520
-186
-107
-19
12
1
46
74
82
145
214
234
249
289
335
363
343
282
231
207
177
123
77
68
68
41
6
-18
-44
-68
-69
-59
-69
-95
-99
-94
-123
-114
-57
-160
-238
234
789
378
-570
-783
-348
-112
-104
-32
28
24
41
75
98
129
174
215
246
278
308
326
326
300
245
189
159
137
100
61
26
-10
-39
-66
-102
-112
-79
-58
-65
-57
-48
-92
-151
-102
-41
-217
-309
244
827
385
-525
-698
-330
-166
-163
-117
-107
-113
-85
-79
-90
-80
-58
-6
76
138
161
168
176
190
178
126
87
86
89
99
117
82
17
24
85
120
189
301
285
147
96
99
42
41
4
-205
-33
710
845
-162
-969
-769
-388
-333
-289
-222
-254
-264
-214
-169
-115
-55
-8
63
152
200
212
237
259
233
170
124
100
74
49
22
-16
-53
-80
-108
-121
-93
-62
-108
-203
-220
-204
-269
-292
-256
-356
-238
436
741
-45
-842
-711
-317
-241
-207
-99
-32
23
51
46
94
173
203
215
248
275
289
295
276
221
150
92
52
4
-49
-72
-68
-69
-91
-122
-125
-91
-57
-48
-47
-48
-78
-128
-112
-51
-158
-307
64
763
746
-50
-523
-335
-108
-77
-54
-22
-19
-22
-26
-7
44
76
94
150
221
242
227
231
246
236
212
184
140
99
86
83
60
5
-66
-109
-114
-114
-128
-157
-184
-193
-218
-240
-178
-185
-363
-160
637
936
112
-681
-562
-184
-102
-87
-27
-11
1
26
44
78
111
138
193
246
249
229
241
260
213
127
90
47
-59
-108
-56
-45
-97
-119
-131
-141
-80
-9
-40
-96
-70
-53
-91
-46
9
-131
-94
516
905
247
-623
-635
-209
-56
-48
20
55
46
59
91
138
189
235
305
394
435
400
338
262
176
116
72
6
-47
-74
-119
-135
-74
-49
-111
-107
-14
-18
-143
-227
-210
-150
-118
-105
-105
-232
-327
96
731
545
-342
-741
-470
-251
-222
-167
-145
-160
-121
-104
-140
-120
-41
10
14
20
59
74
23
-7
22
0
-84
-106
-65
-64
-102
-122
-129
-147
-164
-149
-95
-53
-78
-111
-105
-132
-158
-92
-134
-301
1
745
805
-70
-675
-498
-218
-129
-31
18
-23
10
97
98
48
53
100
137
169
174
131
129
209
222
113
42
59
62
61
110
116
31
-21
14
54
81
111
87
52
96
120
62
63
44
-85
151
855
984
92
-674
-574
-208
-60
-53
-124
-161
-91
-96
-175
-118
9
46
82
216
330
300
226
247
251
122
50
125
133
50
-1
-111
-224
-66
193
156
11
99
116
-172
-240
127
300
79
-71
-63
124
758
1250
715
-242
-460
-128
-18
-185
-341
-361
-244
-110
-57
-30
-6
-13
-7
52
129
155
99
46
42
-7
-91
-104
-98
-119
-115
-157
-251
-237
-186
-238
-231
-124
-157
-291
-295
-245
-265
-245
-197
-276
-237
271
764
488
-251
-637
-583
-406
-245
-180
-199
-180
-122
-101
-144
-193
-108
76
147
120
126
90
40
123
205
104
-24
-15
0
-90
-176
-180
-190
-242
-240
-188
-183
-210
-197
-153
-140
-189
-201
-101
-90
-128
315
1010
883
-4
-453
-247
-41
63
190
179
94
122
170
162
193
272
344
400
434
437
416
395
394
381
307
200
137
146
161
115
57
48
41
11
10
36
17
-50
-87
-92
-143
-177
-110
-153
-346
-114
621
798
-20
-739
-625
-275
-181
-127
-25
-26
-63
-5
70
82
98
139
157
204
290
286
212
232
280
203
90
61
68
68
44
-23
-75
-93
-157
-231
-211
-154
-161
-208
-248
-289
-317
-271
-248
-400
-388
207
739
295
-550
-701
-355
-194
-162
-73
-54
-100
-85
-39
-30
-31
1
50
92
145
186
177
160
172
164
134
129
118
89
90
87
43
23
58
85
48
-4
12
12
-68
-42
52
-65
-229
-232
-220
57
704
765
-105
-721
-519
-242
-234
-198
-114
-115
-134
-102
-46
-3
25
73
149
209
226
230
232
206
167
129
64
6
7
-1
-40
-46
-80
-188
-252
-247
-228
-165
-109
-154
-223
-255
-270
-218
-204
-328
-129
614
975
334
-391
-395
-121
-14
52
94
47
36
79
81
80
130
179
196
220
250
248
223
196
147
68
14
6
3
-28
-93
-176
-210
-165
-123
-122
-99
-47
-54
-118
-127
-80
-57
-10
12
-163
-153
499
988
323
-699
-832
-390
-165
-110
-25
-6
-47
-49
-14
32
67
73
88
152
213
196
130
83
55
27
-7
-56
-74
-32
-13
-36
-17
-1
-53
-72
-5
65
107
115
90
81
76
53
51
-40
-140
270
959
777
-245
-747
-415
-111
-97
-70
-11
3
5
9
30
73
102
130
193
266
297
262
197
157
137
109
94
101
106
94
65
57
91
100
41
-11
4
51
64
27
-10
-25
-57
-59
-38
-171
-205
376
987
518
-503
-718
-278
-85
-115
-52
-2
-22
-25
-20
-16
-12
-25
-7
66
89
15
-43
-14
13
-37
-101
-100
-67
-59
-56
-37
-28
-45
-58
-57
-67
-81
-75
-97
-155
-177
-195
-249
-230
-234
-412
-264
494
799
-40
-865
-759
-400
-340
-285
-157
-135
-169
-151
-84
-29
-43
-61
-7
53
62
60
41
-4
-11
23
26
6
10
3
-51
-99
-109
-131
-171
-163
-109
-84
-110
-131
-105
-95
-153
-139
-48
-153
-213
392
1085
658
-409
-732
-377
-152
-83
6
6
-31
8
87
175
231
235
286
425
562
652
703
692
647
624
603
545
471
416
373
319
244
155
