# session 14
-2
-33
65
9
-368
-706
-711
-574
-509
-435
-285
-175
-183
-235
-237
-180
-116
-79
-60
-42
-50
-100
-135
-105
-64
-56
-49
-45
-36
13
13
-43
8
15
-161
87
880
957
-72
-753
-431
-39
-10
5
39
25
85
146
103
74
131
174
160
154
195
243
247
232
247
268
248
196
154
153
174
168
119
80
84
80
39
9
-17
-97
-149
-134
-250
-364
36
600
283
-704
-1094
-735
-469
-462
-379
-266
-263
-256
-183
-114
-62
-41
-75
-66
36
100
57
3
-15
-28
-20
12
16
-3
3
10
-10
-25
-23
-18
-11
-13
-12
3
4
11
-14
-199
-249
308
890
477
-432
-610
-216
-59
-70
44
128
125
133
122
138
260
349
317
321
405
404
311
285
338
335
266
233
219
137
37
5
-26
-104
-101
7
20
-122
-218
-218
-276
-333
-289
-338
-368
83
632
338
-539
-889
-605
-349
-277
-217
-211
-265
-247
-181
-180
-193
-127
-40
-1
24
56
64
48
37
73
150
174
123
92
94
66
36
48
69
91
109
71
6
4
25
34
106
98
-95
57
779
1051
265
-517
-455
-126
-41
6
99
129
141
173
192
196
179
168
212
275
296
304
304
247
171
160
198
221
215
197
172
146
112
73
59
66
42
-7
-49
-139
-249
-197
-99
-177
-21
613
785
-62
-864
-804
-474
-398
-380
-324
-316
-309
-282
-279
-293
-290
-237
-166
-159
-160
-52
57
8
-93
-90
-58
-93
-144
-155
-148
-160
-199
-232
-221
-167
-121
-119
-144
-190
-233
-182
-141
-221
-8
653
813
-17
-733
-570
-196
-112
-52
58
87
118
186
210
244
323
352
337
388
447
396
300
268
295
329
312
254
252
301
296
251
223
191
164
164
142
93
90
98
41
-12
-80
-279
-259
329
725
134
-669
-701
-362
-272
-288
-270
-327
-379
-322
-257
-257
-246
-182
-126
-121
-124
-90
-60
-66
-64
-57
-91
-102
-46
-14
-30
-4
40
27
5
46
108
129
122
107
59
54
113
-1
-165
221
880
720
-160
-590
-383
-211
-199
-142
-101
-111
-81
-32
-6
34
115
212
282
316
347
371
354
310
261
222
229
257
224
143
96
93
85
64
68
90
68
14
-19
-51
-52
15
-54
-207
120
753
593
-362
-842
-527
-206
-152
-116
-79
-100
-145
-203
-246
-244
-217
-182
-156
-158
-152
-120
-128
-183
-194
-159
-179
-230
-207
-150
-144
-143
-120
-122
-125
-90
-74
-76
-44
-34
-65
-76
-171
-293
66
823
884
4
-598
-380
-79
-39
11
54
0
-13
49
98
114
126
178
280
353
361
357
366
346
279
222
224
255
273
283
276
247
235
234
209
184
176
160
148
123
61
61
60
-107
-57
534
811
48
-825
-831
-420
-205
-123
-112
-188
-213
-200
-249
-274
-225
-230
-292
-274
-195
-157
-122
-64
-77
-158
-199
-178
-142
-120
-141
-177
-172
-160
-167
-114
-17
-6
-57
-78
-85
-33
56
-65
-187
304
1022
836
-79
-533
-361
-193
-136
-56
-37
-62
-48
-51
-83
-71
-15
35
69
112
170
208
208
209
221
206
167
147
135
112
103
115
112
93
91
99
79
67
85
62
22
51
-8
-136
205
922
914
0
-617
-448
-163
-81
-40
-39
-52
16
70
43
19
23
29
36
26
3
-8
-36
-82
-87
-94
-180
-280
-303
-284
-279
-267
-247
-263
-278
-210
-134
-154
-191
-228
-301
-263
-212
-356
-136
752
1084
153
-709
-576
-211
-139
-55
71
61
9
25
64
83
89
105
151
217
274
307
326
336
327
319
317
274
193
144
141
141
138
150
173
189
173
139
135
129
81
96
119
-35
-3
586
928
238
-627
-666
-310
-175
-125
-60
-97
-132
-58
22
43
42
33
42
86
87
29
13
15
-67
-151
-151
-161
-220
-272
-328
-380
-351
-279
-259
-262
-243
-259
-304
-276
-196
-134
-91
-159
-262
125
948
1084
193
-539
-460
-213
-201
-203
-168
-185
-194
-144
-74
-27
-21
-26
-5
38
85
119
130
134
151
177
196
182
133
96
81
31
-23
16
113
157
139
114
85
13
-59
-16
30
-50
194
981
1306
485
-432
-478
-158
-58
-51
-45
-84
-88
-51
-47
-76
-109
-95
6
110
117
51
-12
-46
-47
-51
-86
-116
-147
-212
-225
-148
-137
-228
-238
-144
-142
-243
-266
-244
-274
-202
-122
-322
-286
558
1169
443
-592
-651
-267
-177
-126
33
73
27
30
42
41
75
163
265
333
369
390
372
313
250
188
122
78
70
80
76
46
16
5
1
24
55
19
-30
17
74
79
100
23
-81
313
1012
919
-5
-540
-322
-65
-31
14
60
25
-20
-24
8
40
34
63
154
178
103
31
-28
-79
-87
-119
-213
-275
-283
-297
-315
-316
-308
-310
-322
-302
-242
-226
-248
-243
-242
-215
-135
-195
-195
414
1069
625
-371
-579
-211
-76
-72
5
3
-35
-19
-36
-72
-53
0
53
91
73
-3
-80
-116
-103
-69
-55
-62
-57
-46
-52
-51
-27
-2
8
18
29
21
13
24
7
-13
10
-63
-149
266
1033
1079
226
-384
-256
-12
20
27
58
63
64
55
42
50
67
79
91
113
162
216
219
196
208
216
150
40
-48
-97
-136
-192
-250
-283
-299
-324
-344
-330
-310
-329
-314
-222
-268
-412
-36
821
977
74
-704
-672
-382
-230
-119
-61
-76
-55
10
53
73
96
143
223
301
358
392
357
259
186
153
102
59
84
133
122
66
47
76
103
106
83
51
37
29
55
138
105
-31
233
892
974
180
-462
-379
-110
-28
6
29
12
5
7
13
43
48
6
-30
-44
-33
34
98
75
4
-62
-139
-199
-220
-259
-317
-347
-376
-404
-370
-317
-324
-337
-326
-362
-408
-344
-275
-388
-395
204
923
641
-368
-736
-352
-144
-206
-118
31
64
69
77
76
112
158
161
166
216
259
262
254
246
196
107
46
65
128
143
89
54
74
89
118
193
201
95
26
43
56
16
-119
-135
362
979
777
-54
-456
-260
-54
1
44
51
6
-34
-58
-74
-84
-87
-73
-48
-43
-70
-114
-143
-128
-85
-45
-13
8
-9
-52
-85
-107
-135
-163
-163
-144
-180
-241
-221
-193
-234
-236
-268
-324
95
835
727
-297
-864
-588
-314
-253
-102
2
-60
-88
-30
17
60
118
168
219
285
349
374
339
285
272
276
237
173
127
88
49
46
68
69
72
92
81
59
80
90
85
127
58
-90
242
956
939
12
-621
-478
-208
-116
-63
-71
-99
-27
61
72
78
119
133
122
173
262
266
186
103
36
9
21
5
-28
-15
-5
-37
-81
-152
-201
-161
-162
-293
-406
-431
-408
-333
-340
-474
-286
344
546
-163
-899
-900
-542
-309
-201
-198
-261
-246
-180
-163
-119
-12
38
22
55
126
156
169
181
146
91
77
64
15
-19
-18
-28
-45
-40
-25
-14
-13
-23
-16
0
4
54
75
-68
9
650
1043
406
-411
-412
-77
-34
-29
106
155
143
198
240
241
287
335
323
333
400
434
417
405
387
354
336
309
243
150
40
-47
-56
-23
0
23
24
-22
-73
-137
-218
-225
-237
-395
-344
247
651
69
-843
-1018
-637
-396
-348
-297
-261
-225
-161
-160
-176
-65
67
74
79
150
165
150
201
227
161
108
110
95
43
-6
-46
-74
-73
-43
-12
-7
-42
-83
-93
-100
-101
-48
-78
-202
81
813
963
152
-492
-320
-23
-45
-81
-2
26
-32
-76
-51
-12
-8
15
89
155
176
169
155
146
138
110
88
96
73
-6
-66
-101
-175
-247
-219
-134
-99
-107
-105
-127
-178
-181
-199
-339
-277
314
756
172
-823
-1043
-639
-414
-403
-345
-293
-264
-206
-185
-187
-134
-72
-32
34
105
129
127
119
114
131
149
139
133
154
178
182
175
153
108
73
74
86
100
116
100
87
111
16
-67
391
1069
829
-171
-579
-202
93
114
150
169
129
136
177
187
194
241
306
346
358
357
329
262
211
223
264
267
230
202
182
134
75
29
-19
-72
-112
-129
-101
-52
-59
-81
-68
-197
-405
-124
539
454
-550
-1153
-837
-460
-426
-392
-313
-321
-319
-271
-246
-219
-171
-139
-117
-75
-7
43
11
-25
42
99
53
36
87
80
29
16
14
18
51
56
6
-42
-44
-25
-22
-10
-26
-178
-187
363
881
421
-475
-617
-186
35
62
122
138
125
142
131
135
207
262
270
299
330
316
281
242
190
162
205
257
219
131
83
41
-30
-47
10
63
53
-25
-96
-113
-156
-203
-162
-214
-381
-139
477
468
-376
-983
-861
-593
-524
-505
-498
-511
-463
-352
-280
-313
-391
-391
-315
-240
-157
-78
-69
-63
-2
11
-25
11
62
19
-33
-12
13
7
28
75
86
60
53
79
84
66
68
2
-91
223
893
969
209
-322
-111
181
201
204
235
200
171
198
245
279
289
304
355
409
434
419
362
329
349
328
248
225
247
203
120
92
106
110
115
133
118
67
61
85
54
38
26
-116
-56
520
825
152
-621
-555
-138
8
41
81
21
-53
-63
-86
-131
-147
-141
-116
-65
-23
-25
-59
-92
-111
-144
-200
-227
-212
-205
-210
-204
-225
-283
-317
-317
-334
-374
-400
-413
-445
-459
-387
-380
-552
-454
153
387
-356
-1102
-981
-531
-330
-217
-89
-45
-37
-30
-44
-43
-17
5
39
91
125
123
101
85
84
107
143
159
155
166
171
146
145
174
173
175
224
262
261
266
263
260
315
291
138
324
964
1146
434
-210
-130
129
152
131
140
115
117
146
147
148
157
152
171
236
295
321
331
312
265
221
183
128
70
32
-2
-50
-100
-137
-157
-136
-87
-97
-153
-156
-149
-190
-191
-219
-348
-136
570
816
61
-675
-609
-306
-260
-271
-234
-224
-207
-180
-177
-171
-146
-111
-77
-66
-64
-57
-81
-133
-160
-151
-116
-79
-112
-217
-278
-266
-262
-268
-239
-219
-240
-261
-249
-211
-198
-191
-143
-179
-266
56
683
633
-225
-752
-515
-206
-146
-104
-48
-41
-20
23
51
73
91
110
148
195
222
225
219
207
204
225
238
217
189
172
144
115
104
82
57
83
123
103
82
105
99
98
136
48
2
450
951
592
-235
-446
-116
77
97
142
167
174
203
218
216
235
276
324
356
348
311
279
275
279
232
158
132
141
119
76
26
-47
-110
-133
-142
-141
-149
-197
-212
-166
-171
-187
-135
-198
-262
137
623
280
-585
-880
-547
-273
-254
-288
-273
-232
-204
-173
-146
-156
-145
-77
-36
-39
-22
-6
-20
-37
-50
-82
-137
-163
-119
-81
-129
-190
-199
-213
-249
-246
-223
-227
-217
-196
-223
-210
-120
-168
-229
194
777
547
-318
-692
-409
-151
-103
-64
-44
-70
-56
-9
13
33
73
109
132
159
191
214
223
221
216
228
240
212
168
175
207
175
108
95
113
99
82
91
98
65
3
20
96
19
5
479
901
446
-342
-470
-156
-5
26
78
82
66
80
102
133
159
170
202
246
275
311
336
307
257
227
195
148
104
69
30
-17
-52
-65
-73
-85
-68
-37
-57
-99
-91
-81
-71
-52
-173
-253
183
702
344
-503
-711
-368
-190
-182
-141
-140
-166
-165
-182
-195
-179
-169
-142
-83
-54
-62
-63
-75
-105
-109
-97
-118
-159
-181
-190
-209
-234
-250
-262
-278
-274
-238
-225
-244
-240
-243
-242
-154
-135
-264
-49
564
591
-217
-723
-455
-148
-119
-80
-17
-26
-20
9
20
52
100
120
135
168
203
237
263
262
249
258
270
249
212
194
172
123
93
115
142
138
124
122
133
148
128
126
217
206
4
137
800
1056
391
-266
-224
26
63
54
91
98
96
110
119
138
173
176
147
151
188
192
166
151
135
106
81
54
13
-32
-79
-129
-162
-172
-179
-169
-122
-91
-112
-121
-109
-132
-115
-82
-214
-234
287
738
260
-558
-691
-362
-212
-196
-146
-126
-123
-93
-80
-80
-62
-50
-51
-29
17
60
80
75
53
29
6
-30
-81
-136
-191
-257
-330
-389
-420
-414
-366
-317
-313
-322
-308
-312
-306
-229
-245
-348
-47
573
520
-324
-808
-532
-207
-130
-77
-44
-63
-40
-2
5
30
69
87
109
155
202
239
258
262
282
314
306
260
228
212
180
144
125
103
84
108
149
136
99
113
123
92
126
132
-6
133
723
884
162
-461
-315
15
81
95
149
159
161
181
193
216
247
250
244
261
281
283
272
246
200
148
106
77
56
33
-3
-43
-67
-78
-92
-96
-71
-52
-71
-80
-67
-89
-88
-39
-133
-229
152
646
321
-529
-798
-476
-257
-213
-139
-100
-117
-114
-103
-96
-75
-54
-35
-6
19
34
48
54
31
-9
-36
-40
-51
-83
-124
-168
-227
-277
-281
-258
-250
-250
-245
-246
-233
-213
-218
-186
-142
-248
-246
257
682
199
-606
-698
-321
-154
-141
-94
-86
-93
-58
-32
-20
12
52
90
126
150
165
182
190
182
178
178
161
128
100
86
67
30
-1
2
23
39
60
67
57
65
73
72
102
38
-111
144
831
968
227
-350
-226
2
22
53
98
80
84
115
121
134
170
200
220
242
267
279
264
233
206
177
138
92
38
-19
-69
-117
-158
-180
-191
-184
-145
-121
-151
-171
-165
-186
-165
-127
-274
-316
236
774
338
-524
-699
-370
-212
-196
-146
-137
-151
-129
-113
-104
-81
-66
-53
-22
8
22
35
43
36
17
-9
