# session 12
-2
-27
52
-30
-377
-614
-537
-424
-456
-489
-428
-359
-355
-345
-238
-118
-108
-115
-41
15
-11
-29
9
39
19
-19
-27
-8
-15
-56
-64
-23
3
34
77
-30
-103
378
1004
681
-318
-666
-277
-23
-27
31
101
123
178
200
130
90
150
226
244
223
211
212
175
93
40
49
64
66
74
62
26
4
-20
-60
-58
-20
-45
-108
-94
-70
-131
-143
-96
-202
-191
352
746
120
-802
-886
-457
-287
-310
-289
-276
-260
-223
-220
-215
-193
-197
-171
-66
39
82
86
88
98
92
85
120
166
179
171
119
43
50
109
89
38
40
25
-36
-84
-104
-66
-34
-147
-98
476
896
341
-508
-608
-247
-84
-46
28
42
43
94
106
78
100
143
139
137
183
215
200
198
248
285
250
205
222
258
263
260
252
214
159
122
109
77
0
-64
-78
-71
-64
-158
-332
-143
460
553
-242
-890
-761
-452
-350
-289
-304
-404
-379
-286
-303
-341
-313
-295
-286
-236
-165
-99
-69
-80
-60
5
27
12
24
21
-2
35
96
100
111
183
226
172
104
104
116
110
139
86
-44
264
1028
1157
272
-439
-294
29
75
64
71
46
53
74
62
69
118
170
212
254
296
314
280
204
129
88
89
88
41
1
17
14
-50
-97
-91
-67
-34
-7
-6
-45
-100
-67
-24
-234
-356
225
871
450
-519
-779
-442
-224
-151
-85
-94
-110
-83
-105
-175
-221
-243
-246
-226
-202
-177
-163
-196
-248
-263
-281
-332
-336
-291
-273
-230
-142
-124
-134
-79
-79
-143
-104
-24
-46
-97
-74
-31
-93
-69
445
1002
624
-324
-620
-279
-61
-24
43
74
67
81
75
57
59
49
55
138
249
293
276
261
267
271
252
217
191
178
166
146
122
100
96
128
167
163
132
133
138
124
156
136
-74
-57
604
1170
704
-207
-446
-159
-34
-66
-21
30
3
-32
-19
30
81
126
170
209
236
247
233
196
146
93
46
12
-12
-36
-72
-114
-151
-175
-182
-169
-152
-173
-216
-209
-189
-231
-236
-216
-343
-246
502
1020
304
-771
-938
-570
-433
-404
-305
-274
-297
-294
-304
-334
-349
-335
-303
-275
-249
-222
-219
-230
-203
-156
-137
-121
-88
-80
-96
-93
-88
-115
-146
-137
-108
-111
-126
-118
-137
-144
-62
-84
-217
107
835
839
-88
-673
-404
-58
9
61
127
133
150
180
196
238
301
345
379
422
467
485
462
427
401
374
351
347
356
364
351
306
277
287
287
270
270
254
224
230
221
177
171
53
-187
22
708
788
-21
-562
-348
-84
-54
-1
43
9
32
94
92
96
162
199
181
189
206
160
95
74
50
-19
-74
-78
-77
-111
-168
-213
-239
-276
-319
-311
-275
-299
-343
-331
-361
-432
-385
-374
-536
-345
292
315
-566
-1116
-806
-436
-371
-320
-270
-288
-258
-202
-199
-188
-145
-126
-109
-56
-17
-14
9
56
79
92
121
129
88
39
17
4
-31
-73
-80
-53
-39
-52
-62
-68
-103
-99
-19
-73
-205
145
809
683
-265
-760
-436
-88
-21
22
73
72
78
101
121
152
185
223
276
309
315
331
353
351
340
335
310
273
267
268
210
117
76
72
71
126
180
120
66
132
158
114
123
55
-2
403
870
437
-488
-694
-272
-43
-33
26
34
-11
33
87
66
80
151
174
170
214
256
249
233
227
218
187
126
87
88
49
-39
-87
-108
-160
-178
-133
-141
-212
-202
-160
-230
-267
-179
-243
-320
118
573
44
-940
-1120
-647
-362
-315
-258
-230
-238
-235
-211
-151
-99
-90
-45
32
51
44
74
84
58
62
88
92
80
58
28
4
-32
-77
-86
-63
-48
-47
-53
-71
-110
-142
-91
-48
-187
-172
364
698
61
-748
-721
-275
-90
-58
-4
16
29
45
33
44
86
106
113
146
192
221
233
242
246
256
287
296
266
243
218
153
103
97
79
49
68
102
86
49
32
14
17
10
-125
-136
343
768
330
-442
-547
-210
-93
-110
-40
-3
-22
-15
-5
-4
22
67
112
151
179
197
200
187
189
210
202
158
130
124
85
18
-22
-34
-51
-57
-25
-11
-57
-97
-118
-156
-122
-74
-215
-182
403
689
-105
-990
-922
-468
-302
-217
-101
-115
-166
-129
-88
-96
-88
-27
29
50
76
114
129
121
90
42
9
-11
-43
-71
-84
-98
-116
-150
-204
-213
-150
-118
-158
-151
-94
-118
-144
-107
-190
-183
332
723
126
-747
-772
-301
-108
-101
-34
15
36
73
87
95
126
149
164
198
235
246
245
254
256
228
205
206
203
192
174
132
99
105
98
85
132
175
133
109
148
138
119
137
29
6
488
928
472
-329
-447
-114
15
5
45
54
35
46
56
70
107
126
117
118
146
175
167
129
118
125
87
21
-8
-19
-56
-116
-179
-204
-181
-166
-182
-191
-193
-196
-193
-199
-164
-122
-250
-293
227
759
338
-540
-734
-386
-205
-172
-97
-86
-120
-88
-40
-27
-11
7
11
25
50
71
84
71
30
4
11
0
-49
-94
-131
-193
-258
-279
-280
-293
-288
-273
-295
-306
-276
-276
-251
-183
-265
-297
178
612
91
-785
-855
-384
-163
-125
-34
2
-13
19
53
77
124
149
146
174
224
255
272
272
249
230
228
225
218
203
178
142
107
88
77
66
81
94
59
36
45
22
37
91
-6
8
521
871
283
-503
-502
-104
51
85
151
163
154
175
190
208
238
259
278
305
330
353
372
372
347
315
290
259
215
167
117
51
-22
-74
-97
-97
-76
-66
-95
-114
-110
-127
-104
-78
-224
-239
314
777
285
-518
-599
-252
-110
-87
-28
-15
-27
-16
-13
-10
6
17
32
60
76
72
61
42
12
-18
-34
-42
-51
-73
-114
-167
-204
-225
-248
-256
-236
-238
-282
-291
-271
-304
-304
-246
-357
-459
-38
452
47
-812
-968
-541
-299
-274
-227
-201
-205
-178
-141
-114
-89
-62
-20
22
46
70
97
103
97
102
113
112
98
82
60
19
-20
-28
-13
6
39
59
28
-2
7
-8
-2
62
-33
-163
239
834
545
-368
-649
-263
-25
-11
56
110
108
132
150
148
176
212
234
276
329
360
371
374
371
363
348
333
311
266
216
177
134
89
62
61
94
122
89
55
61
39
41
106
17
-80
327
789
322
-595
-751
-322
-120
-112
-44
-34
-72
-42
-6
-9
7
42
77
121
148
144
143
147
126
84
52
41
25
-8
-40
-63
-99
-133
-142
-141
-143
-153
-181
-183
-149
-164
-181
-123
-181
-278
89
612
301
-596
-883
-492
-201
-143
-88
-66
-85
-68
-46
-44
-34
-21
-12
6
31
51
62
55
35
27
25
4
-28
-44
-55
-85
-123
-143
-145
-138
-121
-104
-109
-107
-93
-115
-115
-57
-135
-240
149
721
453
-437
-737
-378
-145
-138
-89
-47
-45
-10
21
36
77
119
138
163
194
217
231
229
211
199
200
193
166
130
105
76
35
7
-2
3
39
79
64
33
41
36
36
90
13
-162
110
748
745
-12
-444
-233
-31
-30
3
38
24
38
60
53
58
79
94
113
137
160
184
197
190
178
167
140
95
47
0
-55
-110
-142
-152
-157
-138
-101
-111
-153
-157
-164
-182
-124
-146
-312
-96
566
632
-202
-771
-547
-237
-181
-135
-87
-101
-92
-59
-43
-17
18
42
71
110
146
174
184
170
156
150
133
96
58
19
-22
-51
-72
-96
-103
-74
-46
-60
-91
-88
-94
-126
-97
-110
-247
-70
531
594
-264
-893
-646
-254
-159
-93
-29
-55
-49
4
22
46
90
113
138
183
216
233
246
249
235
205
169
135
101
71
40
-6
-50
-68
-72
-74
-56
-39
-61
-79
-75
-97
-90
-46
-137
-167
263
642
153
-648
-707
-264
-67
-76
-30
17
29
52
78
103
134
158
185
218
238
243
240
216
185
176
176
153
110
65
26
-9
-44
-72
-89
-93
-71
-48
-68
-92
-91
-122
-129
-70
-160
-257
172
686
251
-678
-833
-362
-117
-93
-18
14
-4
22
52
64
90
117
138
171
213
253
281
285
270
251
228
195
151
112
83
38
-25
-62
-67
-74
-64
-33
-41
-70
-55
-69
-111
-67
-111
-301
-70
566
492
-427
-881
-500
-161
-137
-92
-42
-70
-59
-10
-2
-4
26
68
97
112
133
177
206
184
152
145
122
65
18
-20
-77
-134
-161
-174
-182
-161
-120
-119
-157
-161
-157
-186
-143
-104
-268
-233
375
713
54
-693
-623
-249
-137
-107
-51
-54
-56
-21
3
24
58
83
106
151
212
264
301
319
308
276
247
218
167
111
76
46
0
-37
-46
-36
-12
0
-28
-34
-9
-54
-73
3
-97
-191
326
865
305
-710
-847
-383
-156
-98
-4
23
14
38
58
79
110
135
166
209
257
305
316
290
269
246
194
130
71
26
1
-20
-62
-113
-148
-152
-127
-106
-128
-161
-156
-163
-186
-142
-137
-232
-18
527
495
-343
-869
-570
-181
-98
-54
5
-5
-7
18
19
26
64
82
72
88
134
150
134
131
131
110
86
74
59
35
0
-47
-83
-73
-49
-59
-85
-95
-107
-113
-111
-126
-100
-80
-196
-100
487
744
17
-746
-633
-202
-77
-70
-22
-9
5
39
57
83
117
130
143
175
204
223
234
232
213
183
153
130
101
67
42
8
-37
-55
-52
-61
-57
-35
-52
-82
-83
-109
-114
-56
-143
-260
128
667
336
-542
-755
-343
-108
-93
-31
-1
-23
-5
22
38
73
106
121
143
175
203
222
229
220
208
194
172
144
122
103
71
21
-17
-28
-32
-23
2
-9
-46
-47
-58
-78
-30
-82
-262
-32
579
518
-356
-819
-483
-147
-101
-56
-7
-21
-10
20
25
43
75
98
122
146
157
161
156
135
112
94
70
38
3
-31
-68
-109
-146
-167
-170
-154
-127
-131
-163
-167
-173
-205
-166
-160
-332
-245
358
592
-103
-749
-597
-235
-149
-118
-54
-56
-63
-31
-9
-1
11
27
49
77
106
139
161
164
164
171
172
155
123
92
63
24
-15
-32
-38
-45
-24
8
-7
-27
-10
-31
-48
-6
-109
-222
209
770
369
-603
-828
-372
-99
-51
34
64
36
68
114
128
160
200
220
258
319
355
367
374
357
319
288
254
203
161
129
82
30
-1
-21
-41
-39
-16
-21
-55
-57
-59
-87
-47
-29
-175
-78
482
619
-184
-879
-687
-258
-140
-108
-60
-80
-86
-50
-43
-30
14
37
50
94
135
144
141
132
103
69
52
43
23
-6
-30
-46
-61
-74
-84
-84
-59
-41
-71
-92
-79
-109
-129
-85
-167
-245
158
628
212
-680
-865
-434
-176
-136
-69
-38
-53
-31
-3
8
35
66
88
120
154
175
182
178
166
146
120
92
66
39
12
-16
-49
-76
-89
-94
-84
-63
-75
-105
-101
-105
-124
-78
-106
-270
-85
511
555
-226
-728
-454
-103
-27
24
80
76
95
138
155
166
190
211
223
229
235
237
230
219
202
185
183
175
136
95
75
53
15
-15
-23
-10
13
12
-25
-51
-68
-98
-76
-73
-246
-256
265
625
76
-667
-677
-323
-204
-200
-156
-152
-152
-113
-90
-80
-47
-7
23
56
96
134
156
163
165
159
143
125
104
69
30
-6
-39
-65
-75
-67
-33
1
-14
-37
-22
-35
-53
-13
-107
-255
109
725
488
-440
-776
-399
-140
-117
-52
-13
-36
-20
14
29
54
86
115
155
196
221
237
247
234
199
175
166
141
101
69
37
-9
-45
-53
-61
-71
-56
-57
-92
-99
-95
-114
-83
-85
-187
13
567
565
-284
-877
-618
-204
-97
-63
0
5
-5
10
30
53
83
110
134
155
171
186
193
177
143
112
92
67
35
5
-24
-57
-90
-107
-110
-107
-88
-73
-91
-98
-81
-92
-76
-22
-120
-187
249
733
334
-507
-669
-286
-97
-101
-57
-32
-41
-21
-2
12
44
74
104
150
190
212
230
237
229
227
232
220
193
163
127
84
46
22
4
-6
6
17
-14
-56
-74
-119
-151
-103
-172
-363
-126
487
467
-317
-753
-497
-237
-204
-160
-121
-136
-121
-87
-77
-63
-34
-4
21
38
66
106
116
83
60
65
55
14
-26
-52
-83
-118
-134
-135
-139
-118
-65
-44
-74
-74
-54
-76
-42
7
-141
-162
412
896
404
-393
-471
-145
-29
-11
52
60
48
75
89
96
126
153
164
186
224
252
257
246
228
209
189
163
118
69
33
1
-36
-55
-57
-68
-63
-26
-17
-38
-43
-69
-71
6
-61
-193
196
796
466
-532
-834
-396
-122
-98
-14
43
23
35
63
75
101
137
162
183
211
238
245
231
209
175
135
98
56
13
-21
-60
-106
-136
-151
-169
-179
-166
-164
-191
-198
-201
-245
-233
-186
-303
-310
197
547
-71
-911
-916
-462
-270
-240
-169
-141
-134
-88
-42
0
53
96
130
168
202
226
236
229
208
181
157
139
125
111
96
70
38
20
14
7
13
25
9
-15
-13
-31
-48
-9
-78
-223
48
600
466
-347
-701
-358
-74
-50
-11
30
14
28
61
70
85
116
143
170
198
213
209
190
168
151
132
111
97
81
56
23
-17
-45
-43
-31
-19
15
33
-1
-25
-25
-47
-27
-24
-193
-166
435
833
243
-529
-534
-213
-143
-141
-83
-82
-93
-68
-50
-30
2
22
50
93
126
154
183
191
177
164
151
121
78
36
0
-29
-55
-80
-88
-72
-40
