# session 5
-46
-58
-41
58
121
60
20
55
67
67
96
107
89
65
34
5
-5
-2
12
30
31
11
-13
-33
-55
-75
-86
-85
-72
-55
-55
-70
-70
-67
-87
-63
-21
-127
-138
340
739
229
-586
-633
-188
5
20
91
115
91
113
142
148
170
206
229
245
267
291
301
285
252
224
210
202
194
190
184
160
126
94
61
24
-2
-13
-15
-2
8
-17
-46
-49
-68
-73
-30
-112
-220
130
669
432
-400
-672
-296
-43
-28
10
22
-16
-6
22
24
41
77
106
133
161
179
183
175
152
119
94
78
65
70
75
39
-27
-81
-127
-176
-208
-227
-243
-232
-206
-221
-262
-270
-272
-290
-252
-246
-379
-278
284
525
-112
-770
-668
-304
-201
-178
-113
-100
-100
-73
-60
-51
-25
1
25
55
81
89
81
72
65
61
65
84
111
128
122
98
75
54
27
-2
-16
-10
16
47
50
24
17
9
-30
-24
-14
-145
-122
390
713
118
-651
-625
-194
-27
-6
60
82
76
102
120
121
140
161
166
166
167
165
160
149
126
92
71
84
107
113
104
83
54
31
6
-32
-56
-50
-38
-25
-14
-32
-51
-41
-52
-58
-28
-100
-111
328
727
227
-641
-748
-297
-75
-68
-23
-7
-25
0
30
46
69
86
97
121
146
163
167
143
109
107
116
111
114
125
110
79
52
16
-23
-46
-65
-83
-83
-65
-54
-68
-76
-65
-83
-94
-38
-85
-206
100
679
521
-348
-729
-380
-95
-72
-25
20
1
4
29
41
57
70
77
91
109
131
151
140
105
78
59
45
52
63
54
31
12
-9
-41
-78
-97
-97
-93
-67
-19
-7
-35
-56
-88
-108
-59
-97
-250
-24
602
655
-123
-655
-456
-186
-158
-129
-83
-104
-115
-99
-94
-80
-57
-48
-41
-21
-2
7
5
-2
-12
-18
-12
9
27
21
-10
-46
-72
-96
-131
-164
-178
-166
-130
-89
-85
-110
-101
-83
-108
-83
-39
-152
-110
459
828
219
-579
-564
-154
-7
14
79
91
82
106
120
130
157
182
203
225
242
254
257
246
229
215
206
208
220
219
196
164
131
90
44
6
-16
-31
-36
-24
-23
-53
-66
-60
-94
-97
-51
-137
-133
380
792
210
-693
-756
-292
-98
-85
-17
-8
-41
-15
10
8
33
62
66
70
89
102
101
88
65
40
18
7
15
29
30
11
-16
-39
-61
-87
-104
-99
-79
-58
-55
-81
-98
-85
-94
-93
-35
-100
-202
175
757
514
-378
-698
-332
-77
-57
-3
38
25
46
77
82
99
132
155
176
204
222
219
206
189
164
143
137
135
127
114
92
56
17
-22
-66
-102
-113
-112
-102
-85
-96
-138
-157
-171
-188
-140
-155
-319
-166
445
579
-177
-774
-583
-257
-211
-196
-143
-148
-149
-126
-125
-121
-99
-81
-67
-50
-31
-13
-5
-16
-35
-45
-39
-22
-7
-7
-16
-32
-57
-91
-121
-139
-149
-146
-112
-68
-68
-97
-91
-76
-86
-38
-10
-138
-26
603
891
191
-543
-442
-66
31
61
127
125
127
157
157
168
206
222
234
270
300
310
313
307
290
274
264
259
259
254
232
196
166
140
104
68
55
60
67
72
65
45
42
35
-3
12
38
-84
-48
496
846
226
-601
-608
-188
-46
-51
9
29
6
4
-4
-3
42
94
123
136
146
169
181
151
113
100
83
61
56
35
-11
-47
-104
-211
-277
-303
-432
-598
-560
-390
-388
-507
-485
-384
-413
-433
-288
-240
-339
-102
310
-13
-877
-1058
-532
-294
-413
-331
-154
-215
-318
-173
99
244
247
203
118
73
185
316
259
108
55
100
163
187
162
177
254
261
171
130
155
106
22
108
292
284
156
202
314
277
296
442
369
283
803
1365
856
-188
-485
-164
93
286
360
169
21
25
-86
-205
-124
-75
-202
-262
-187
-196
-247
-126
-7
-149
-306
-229
-176
-327
-473
-505
-491
-437
-365
-290
-146
40
150
185
228
256
149
-80
-132
96
141
-15
455
1316
1064
-252
-975
-736
-437
-311
-157
-76
-78
-43
40
170
286
282
217
193
178
167
194
189
121
63
0
-79
-61
48
63
-33
1
281
505
428
352
477
440
135
-42
3
8
-106
-180
-129
-170
-402
-284
424
729
-95
-1130
-1361
-1085
-876
-802
-881
-1040
-986
-774
-724
-740
-584
-374
-200
-12
35
-66
64
449
643
646
814
923
652
407
496
565
507
520
476
322
287
352
364
330
241
136
152
189
84
5
-7
-148
-9
822
1272
356
-733
-727
-310
-151
82
304
270
357
552
333
-49
58
388
324
88
127
266
262
220
220
192
62
-135
-216
-167
-226
-414
-524
-579
-678
-712
-653
-645
-739
-854
-859
-706
-582
-638
-638
-377
-145
15
678
1588
1432
193
-561
-253
238
311
107
-83
-112
-86
-107
-88
-12
31
32
0
-29
23
82
44
-4
9
2
-37
-54
-87
-160
-204
-194
-170
-175
-176
-54
192
393
520
572
385
139
214
341
177
29
34
108
551
1034
563
-520
-923
-602
-381
-433
-465
-328
-138
-123
-219
-214
-214
-299
-283
-209
-250
-270
-97
180
396
505
538
452
252
173
312
428
354
199
102
30
-121
-249
-179
-55
-91
-141
-37
55
30
115
278
248
408
1117
1387
408
-691
-738
-310
-238
-379
-345
-113
84
87
74
246
455
511
440
288
136
166
320
364
349
397
367
197
18
-126
-238
-301
-376
-474
-566
-711
-844
-807
-691
-676
-700
-630
-507
-537
-770
-872
-704
-501
-3
943
1184
126
-777
-577
-161
-73
-22
21
90
259
262
154
224
272
146
108
180
200
251
376
468
527
574
557
486
414
332
211
85
16
5
-35
-95
-15
173
179
22
54
251
297
278
334
185
-89
175
924
1116
368
-444
-671
-568
-394
-182
-167
-419
-596
-545
-507
-580
-599
-503
-386
-326
-318
-274
-216
-331
-546
-570
-472
-391
-122
228
185
-105
-96
143
199
74
88
362
562
345
-37
-150
-68
-64
-116
-87
-73
-124
206
1049
1364
535
-311
-269
27
49
37
25
-71
-104
-68
-45
-14
-21
-15
198
507
650
761
957
913
578
386
394
357
339
348
204
72
179
334
312
153
-31
-150
-189
-288
-516
-669
-578
-405
-387
-561
-726
-441
315
610
-164
-1076
-1113
-684
-425
-183
24
-67
-121
62
18
-225
-188
-13
25
126
265
159
-25
17
97
-36
-182
-136
-40
-6
13
-10
-67
-20
116
139
5
-97
-92
-119
-229
-277
-251
-320
-408
-294
-168
-210
169
1299
1943
959
-505
-673
97
349
-25
-190
28
257
334
299
253
280
255
71
-71
-21
65
91
111
75
-36
-95
-109
-184
-284
-398
-597
-695
-531
-452
-676
-772
-509
-273
-269
-304
-289
-233
-64
170
240
106
239
989
1580
926
-433
-986
-583
-179
-81
-40
-1
50
148
201
171
157
211
261
202
103
181
362
307
93
123
323
337
335
611
797
524
229
333
504
439
306
195
102
126
145
-2
-120
-70
-27
-104
-332
-602
-406
265
408
-260
-736
-641
-441
-197
15
-177
-554
-593
-308
-111
-185
-98
391
567
240
322
691
366
-189
-71
214
65
-165
-211
-289
-481
-629
-626
-553
-484
-355
-193
-105
43
300
275
-159
-521
-559
-459
-357
-405
-468
118
1086
964
-281
-937
-526
-79
84
299
519
643
638
429
276
394
415
158
43
231
372
334
330
387
305
120
29
-43
-227
-358
-320
-223
-140
-136
-257
-381
-462
-564
-537
-335
-279
-416
-413
-270
-250
-302
-118
547
1427
1611
739
-202
-343
-92
-57
-123
-61
23
-2
-37
53
172
146
45
7
16
79
176
168
91
98
94
-5
-30
41
9
-102
-113
-22
79
129
129
208
336
260
63
74
191
190
191
166
-105
-380
-136
618
1107
614
-366
-751
-592
-595
-669
-500
-285
-160
-143
-328
-543
-499
-274
-216
-454
-655
-533
-311
-138
76
144
47
154
338
281
232
324
398
549
613
299
31
120
137
-57
-155
-137
-106
-38
39
103
107
37
266
845
846
-79
-789
-630
-296
-244
-252
-239
-256
-239
-115
94
224
261
412
613
607
413
186
65
132
198
134
133
233
284
284
250
179
87
-83
-286
-396
-455
-486
-396
-289
-319
-365
-337
-381
-469
-454
-515
-613
-171
578
454
-450
-796
-507
-365
-164
235
239
24
129
245
210
321
361
124
-46
-39
-19
28
111
170
234
312
371
408
420
390
291
159
106
143
145
59
-38
-43
3
-71
-199
-179
-146
-166
11
275
521
1145
1693
1004
-401
-896
-469
-211
-264
-195
-34
16
-5
-30
-123
-280
-348
-308
-317
-379
-318
-131
-72
-260
-401
-216
-16
-214
-525
-497
-282
-163
-106
-130
-282
-329
-122
72
25
-62
37
141
32
-20
214
276
-23
192
1195
1553
524
-482
-472
-175
-40
128
107
75
392
215
-699
-849
-9
338
56
30
169
122
64
85
88
122
268
420
471
531
639
610
482
468
430
169
-83
-70
46
32
-59
-86
-103
-218
-314
-329
-463
-529
-30
556
241
-572
-738
-390
-367
-630
-658
-484
-511
-726
-748
-530
-377
-386
-403
-291
-62
110
193
345
433
279
163
257
284
186
176
193
73
-92
-163
-178
-191
-177
-141
-102
-53
-29
7
192
417
355
-48
-353
-14
680
622
-333
-944
-695
-337
-240
-154
-36
78
273
508
688
796
813
746
619
464
423
523
531
400
326
301
245
260
308
255
212
214
33
-269
-330
-169
-135
-233
-197
-99
-167
-282
-322
-418
-524
-543
-530
-190
586
805
-95
-939
-815
-430
-413
-431
-290
-212
-211
-162
-102
-120
-169
-129
-15
25
-38
-54
5
20
15
93
170
208
375
614
600
341
178
161
84
-33
-38
26
30
-31
-76
-78
-87
-70
-1
-60
-110
418
1204
1046
30
-474
-206
-8
-35
22
57
-16
-23
29
-18
-153
-207
-118
-47
-61
-3
115
113
52
76
97
15
-124
-220
-222
-210
-282
-358
-344
-325
-353
-333
-258
-234
-268
-281
-257
-261
-264
-162
-100
-214
13
883
1334
551
-408
-472
-145
-48
-17
51
31
-14
25
109
155
146
130
136
136
114
98
104
105
75
47
58
67
35
23
65
91
60
25
47
108
131
118
141
156
92
24
-5
-42
-55
-92
-196
19
661
832
51
-699
-654
-292
-94
1
19
-25
-21
-7
-40
-43
-6
17
36
52
45
31
23
10
-7
-31
-56
-55
-29
-4
15
6
-39
-86
-123
-177
-222
-210
-174
-167
-163
-121
-88
-104
-80
-33
-112
-44
526
924
309
-624
-779
-449
-321
-296
-206
-165
-155
-112
-71
-31
11
35
67
122
167
196
227
251
254
242
220
205
225
263
277
269
254
221
181
162
153
141
136
124
96
81
59
30
56
23
-137
44
720
949
229
-446
-383
-138
-115
-98
-37
-35
-48
-43
-40
-36
-32
-30
-22
-15
-1
18
11
-25
-49
-56
-61
-51
-23
-6
-21
-63
-115
-165
-217
-252
-250
-227
-219
-235
-262
-283
-300
-308
-275
-267
-349
-209
345
614
15
-702
-693
-326
-168
-118
-41
-21
-15
38
79
81
89
121
160
185
196
206
214
213
207
198
199
219
245
253
247
232
196
141
88
54
40
44
59
51
10
-12
-18
-27
9
9
-104
55
642
799
31
-665
-502
-76
35
28
64
62
44
36
8
-16
-22
-33
-38
-41
-71
-95
-58
-7
-18
-63
-89
-92
-67
-32
-50
-107
-128
-141
-185
-189
-150
-145
-150
-129
-129
-138
-152
-187
-149
-85
-160
-52
508
746
51
-696
-631
-227
-73
-47
-11
-13
-2
39
53
49
64
85
103
120
135
153
172
182
185
186
184
188
219
255
251
217
178
131
104
105
74
30
67
126
103
58
28
-23
-5
25
-106
-32
556
811
64
-693
-540
-95
7
24
92
71
45
68
51
64
165
218
179
153
158
153
148
149
151
156
151
136
126
114
94
61
1
-59
-95
-142
-201
-210
-183
-199
-244
-257
-276
-321
-295
-290
-438
-344
214
363
-421
-1096
-881
-450
-356
-343
-284
-278
-269
-234
-221
-199
-165
-152
-138
-113
-94
-65
-21
17
40
61
92
133
161
162
146
122
82
26
-24
-50
-56
-34
1
-7
-45
-44
-46
-70
-21
-29
-194
-8
674
816
-28
-699
-509
-150
-64
-7
70
81
92
121
143
177
190
186
246
334
346
343
412
472
448
414
424
439
444
446
417
351
286
229
160
99
85
121
153
135
103
85
54
60
119
39
-56
323
848
542
-362
-703
-396
-165
-122
-55
-19
-37
-24
-6
-10
5
45
74
81
84
95
101
94
90
75
24
-24
-18
5
-3
-28
-69
-129
-161
-159
-198
-262
-259
-229
-272
-324
-325
-350
-370
-347
-408
-399
-14
257
-268
-1032
-1075
-611
-345
-307
-268
-233
-210
-160
-112
-84
-53
-17
13
38
60
74
84
96
104
103
113
144
172
180
183
171
124
70
42
22
3
21
48
24
-12
-10
-15
-13
45
12
-106
135
720
782
87
-427
-290
-44
7
51
110
109
102
103
74
51
63
71
53
50
81
111
122
128
133
139
157
187
215
224
198
144
86
39
-3
-51
-88
-79
-54
-78
-118
-119
-121
-113
-64
-125
-161
299
889
592
-334
-676
-360
-141
-116
-66
-56
-84
-60
-45
-55
-28
11
25
35
22
-10
14
49
-18
-87
-16
97
131
107
51
-19
-61
-88
-111
-115
-123
-126
-82
-36
-29
-2
33
8
