# session 8
43
7
105
113
-210
-613
-786
-933
-1234
-1413
-1351
-1256
-1190
-1162
-1243
-1223
-963
-820
-952
-1057
-1079
-1077
-911
-724
-672
-494
-305
-391
-65
1063
1671
960
155
140
353
416
443
319
86
57
188
213
163
191
250
277
327
379
393
440
522
544
519
482
397
289
203
138
124
134
103
99
134
80
28
128
222
188
60
-178
-355
-349
-472
-572
67
960
696
-517
-1091
-738
-468
-587
-701
-799
-1000
-1094
-1004
-931
-857
-675
-538
-551
-628
-713
-698
-499
-276
-175
-186
-327
-444
-222
261
578
592
588
737
859
814
679
562
551
559
376
139
102
124
118
175
154
256
958
1571
993
-96
-342
9
98
-3
8
9
-44
23
167
138
22
133
331
363
464
677
610
385
446
589
433
136
-18
-2
89
85
-132
-394
-434
-318
-307
-409
-440
-380
-343
-414
-580
-668
-582
-574
-701
-420
276
325
-574
-1225
-1018
-621
-415
-267
-148
40
216
117
96
513
801
548
240
236
297
265
272
376
444
391
315
324
376
359
238
87
-27
-109
-154
-192
-291
-333
-187
-77
-142
-125
-16
-77
-112
140
463
844
1322
1164
137
-514
-149
268
163
-3
34
102
57
-65
-118
-138
-258
-423
-604
-787
-777
-588
-438
-307
-238
-355
-370
-214
-371
-682
-528
-219
-208
-152
-43
-190
-170
207
390
407
665
829
527
159
106
125
134
614
1337
1139
54
-513
-212
119
242
383
419
287
157
90
65
47
-14
-55
-40
-59
-83
-32
-5
2
163
417
536
474
306
124
-6
-137
-255
-213
-104
-141
-189
-92
-73
-213
-278
-316
-517
-689
-712
-832
-879
-433
-11
-461
-1360
-1667
-1317
-924
-776
-687
-418
-149
-176
-283
-198
-47
120
348
449
418
566
885
1000
862
788
764
546
307
279
255
120
54
59
62
129
213
222
233
269
265
260
241
180
217
204
-115
-155
585
1063
400
-429
-512
-250
41
266
77
-127
223
370
-182
-433
-77
19
-114
83
301
218
99
8
-155
-256
-251
-261
-241
-74
99
31
-148
-87
107
44
-231
-378
-358
-344
-313
-188
-104
-72
84
73
-256
174
1770
2548
1237
-385
-684
-398
-395
-454
-445
-464
-403
-307
-300
-256
-137
-87
-70
-1
45
24
-47
-169
-250
-248
-309
-383
-285
-255
-419
-253
281
520
611
1002
1047
500
339
538
155
-369
-210
58
-46
-79
-20
24
445
867
424
-465
-875
-883
-857
-849
-967
-1095
-959
-792
-818
-690
-374
-372
-588
-461
-113
53
211
401
312
210
444
619
527
523
693
869
923
736
505
488
490
358
303
351
331
294
363
488
595
620
503
538
1054
1382
643
-421
-590
-265
-239
-238
-95
-166
-263
-29
226
248
320
453
326
73
-13
-97
-257
-233
-85
-78
-116
-45
-2
-96
-210
-269
-444
-785
-1000
-1040
-1156
-1201
-1047
-1196
-1677
-1715
-1200
-788
-744
-887
-820
-150
546
251
-580
-749
-374
-78
258
604
638
595
822
1136
1175
896
610
531
498
356
231
254
338
296
192
278
409
293
228
365
98
-482
-424
115
212
-9
-6
66
-19
-114
-77
78
257
407
432
249
325
1092
1552
592
-751
-971
-485
-215
-80
32
-37
-116
-44
-36
-220
-377
-332
-235
-243
-193
27
133
-45
-179
-51
32
-129
-296
-329
-274
-83
61
-162
-403
-156
167
71
-53
152
403
428
317
294
269
-36
-78
804
1490
682
-554
-793
-443
-188
-112
-224
-105
328
160
-581
-764
-452
-408
-444
-289
-233
-255
-105
95
209
423
813
1092
986
713
673
710
478
206
178
191
127
133
159
88
-3
-50
-126
-243
-356
-533
-684
-421
143
238
-263
-655
-666
-509
-251
-8
65
44
-34
-149
-134
-37
-9
52
120
15
-89
-68
-206
-448
-436
-348
-474
-541
-390
-307
-348
-375
-458
-515
-305
-45
-49
-41
229
402
324
331
443
409
237
63
225
928
1297
494
-528
-590
-212
-117
7
306
376
207
147
227
243
143
61
103
166
143
182
315
294
151
125
97
-62
-138
-102
-208
-419
-493
-463
-496
-510
-405
-373
-525
-620
-535
-477
-503
-461
-405
-459
-312
342
956
788
124
-237
-139
27
52
126
356
476
367
237
160
116
130
113
56
112
260
380
519
712
835
733
427
181
141
116
-20
-150
-204
-209
-180
-136
-67
-17
-79
-120
17
112
55
68
95
174
751
1365
917
-171
-596
-372
-182
-46
111
122
28
-24
-41
-66
-99
-120
-111
-96
-112
-124
-72
-53
-167
-238
-128
-62
-180
-299
-333
-380
-431
-403
-335
-321
-324
-258
-199
-256
-324
-297
-270
-259
-213
-310
-389
203
1080
844
-368
-954
-651
-398
-350
-222
-96
-3
101
160
263
410
379
190
76
82
125
159
164
144
115
85
53
7
-15
31
61
18
3
62
106
98
101
127
101
19
-17
13
36
40
-38
-148
138
776
813
-32
-719
-658
-339
-142
-17
68
91
54
35
113
184
154
122
147
193
237
266
308
357
332
261
202
93
-13
18
64
-10
-90
-104
-127
-163
-162
-135
-136
-166
-156
-114
-105
-72
-39
-107
126
980
1510
779
-294
-484
-197
-171
-232
-175
-149
-144
-94
-70
-72
-39
7
24
29
60
106
121
81
-2
-75
-92
-108
-175
-200
-157
-172
-256
-282
-217
-131
-95
-137
-201
-191
-108
-33
29
85
12
-120
135
710
677
-180
-786
-603
-294
-244
-186
-87
-117
-193
-192
-160
-155
-160
-149
-118
-74
-24
19
22
-2
0
15
-7
-25
10
44
23
-16
-21
-6
6
29
70
94
79
63
58
20
-10
27
-21
-140
139
767
773
-36
-566
-381
-158
-166
-139
-90
-104
-88
-47
-33
-6
47
85
114
154
192
215
229
236
241
262
295
314
317
312
293
254
199
141
100
99
134
157
131
106
111
96
110
158
44
-48
415
1010
662
-324
-692
-388
-175
-151
-97
-68
-75
-47
-18
-2
25
50
75
105
116
122
153
159
103
52
52
45
-4
-39
-37
-55
-108
-149
-174
-205
-220
-198
-173
-187
-212
-208
-205
-193
-152
-200
-234
124
579
298
-514
-825
-525
-273
-232
-207
-183
-174
-160
-153
-120
-59
-43
-59
-40
-1
21
34
45
43
18
-6
2
29
34
13
-11
-37
-67
-91
-112
-126
-110
-92
-113
-123
-104
-123
-135
-97
-165
-208
178
604
230
-569
-726
-311
-60
-36
13
50
32
29
55
85
104
115
135
152
153
160
191
219
218
210
231
246
231
222
216
166
86
29
17
31
34
30
31
9
-14
17
49
62
43
-92
-59
511
948
395
-442
-491
-118
-13
-18
55
71
55
90
108
93
106
142
163
171
194
230
264
288
295
302
338
363
321
249
202
164
105
28
-40
-64
-41
-2
-8
-69
-120
-148
-181
-158
-153
-309
-262
301
629
34
-710
-722
-392
-268
-227
-154
-140
-150
-142
-135
-105
-52
-29
-28
-4
36
66
94
120
122
105
106
122
118
91
61
17
-49
-117
-175
-214
-216
-206
-243
-289
-274
-275
-334
-327
-318
-404
-210
330
314
-555
-1168
-917
-485
-322
-233
-163
-153
-110
-44
-31
-29
6
46
73
106
149
185
210
232
240
236
239
241
217
181
153
115
59
13
-13
-30
-34
-38
-71
-95
-87
-108
-104
-41
-116
-176
287
831
447
-447
-644
-244
-7
70
179
195
164
224
283
277
287
331
362
386
429
478
512
530
532
518
503
484
441
394
372
334
244
165
141
133
112
95
76
43
8
-26
-39
2
-33
-217
-132
452
731
91
-654
-671
-381
-306
-313
-284
-290
-296
-285
-297
-301
-271
-242
-223
-193
-155
-140
-147
-148
-145
-151
-145
-117
-88
-82
-120
-194
-245
-255
-256
-251
-238
-260
-316
-325
-287
-297
-320
-264
-284
-407
-164
427
403
-431
-924
-593
-187
-87
-21
73
112
156
214
238
258
293
311
310
316
324
316
301
284
248
211
210
223
211
183
149
95
37
-5
-38
-47
-28
-48
-105
-95
-54
-76
-52
16
-58
21
581
869
191
-586
-533
-126
34
84
138
132
147
190
185
171
197
225
241
257
288
343
380
349
285
250
237
209
159
98
40
-7
-50
-93
-119
-119
-106
-101
-123
-142
-136
-151
-152
-113
-194
-266
127
651
365
-495
-801
-474
-237
-215
-169
-127
-135
-137
-131
-125
-109
-89
-74
-67
-65
-48
-18
-9
-32
-66
-91
-120
-157
-185
-218
-274
-319
-336
-355
-367
-335
-284
-272
-290
-275
-232
-211
-192
-191
-282
-190
385
810
323
-447
-506
-133
14
11
56
78
79
96
102
116
139
139
161
238
305
327
342
355
341
324
341
368
361
318
265
218
179
149
128
139
174
168
138
180
210
99
27
96
16
-67
421
1040
750
-127
-458
-229
-78
-61
-13
4
-9
20
53
48
49
93
148
162
154
187
278
369
388
332
274
256
246
210
140
41
-57
-139
-219
-297
-358
-400
-450
-500
-523
-536
-499
-390
-443
-558
-62
745
494
-683
-1197
-842
-607
-605
-491
-404
-417
-381
-315
-279
-241
-207
-169
-87
-4
25
48
112
179
207
209
216
239
254
232
181
128
76
37
41
67
49
-6
-23
-5
-14
2
45
-84
-205
247
906
671
-252
-611
-294
-72
-59
9
76
91
123
150
144
151
175
189
197
212
238
270
279
249
225
255
305
295
223
166
161
148
57
-93
-198
-186
-131
-153
-220
-243
-260
-310
-340
-418
-513
-171
572
671
-222
-943
-787
-384
-231
-180
-151
-155
-114
-54
-29
-3
27
47
92
162
212
240
263
271
268
279
315
371
423
441
418
381
342
295
253
233
212
163
111
97
90
72
107
77
-104
75
858
1166
282
-616
-530
-161
-142
-161
-105
-155
-205
-155
-112
-99
-71
-47
-30
7
56
80
73
70
74
36
-36
-60
-39
-41
-66
-98
-150
-199
-227
-251
-270
-278
-282
-295
-336
-355
-340
-439
-528
-152
402
148
-789
-1184
-805
-448
-359
-294
-248
-236
-203
-167
-122
-72
-83
-104
-34
91
175
189
172
178
194
179
163
169
164
138
113
93
90
113
144
164
157
124
96
76
38
44
83
-43
-133
360
1016
732
-216
-522
-140
59
11
69
142
118
112
151
189
204
182
185
275
374
392
367
347
318
290
284
281
255
209
159
112
62
9
-19
10
72
122
163
201
167
41
-51
-88
-215
-217
292
770
262
-772
-1060
-634
-380
-412
-382
-301
-262
-229
-216
-207
-147
-76
-41
-23
-8
16
50
50
14
18
58
69
61
65
49
3
-23
-17
-19
-29
-12
4
-14
-27
-47
-95
-89
-111
-309
-214
544
968
182
-773
-758
-330
-217
-211
-127
-100
-120
-116
-77
4
50
14
-18
9
63
110
118
84
60
75
101
98
78
84
99
72
27
3
-19
-27
-8
-19
-52
-23
16
-10
-6
5
-86
46
559
624
-236
-983
-810
-391
-351
-397
-331
-310
-291
-195
-139
-152
-137
-98
-74
11
190
313
288
238
263
302
311
332
362
349
296
240
195
162
141
139
166
188
178
168
139
71
60
44
-80
86
751
1044
375
-358
-372
-109
-1
69
114
83
77
111
117
104
111
130
141
144
157
158
120
77
70
78
63
19
-8
9
18
-22
-65
-73
-82
-101
-105
-111
-136
-135
-99
-80
-128
-326
-540
-278
371
364
-564
-1212
-950
-517
-405
-372
-315
-285
-213
-137
-139
-123
-40
5
13
65
111
95
85
86
32
-9
35
90
104
110
100
71
67
85
105
144
163
111
52
28
-5
8
30
-115
-109
496
950
278
-713
-749
-240
-59
-57
33
46
5
45
73
44
41
61
81
137
190
188
176
174
160
162
184
175
147
146
158
144
105
70
47
26
6
-46
-127
-126
-48
-17
15
38
-123
-164
320
634
-25
-889
-928
-548
-446
-465
-384
-337
-346
-333
-304
-246
-164
-128
-114
-59
4
63
161
233
217
209
268
315
305
276
259
270
281
249
210
204
189
139
103
99
82
50
62
50
-105
-95
427
838
337
-483
-610
-282
-147
-132
-53
-18
-34
-15
28
61
58
25
53
147
207
229
243
205
150
165
219
270
331
342
264
184
142
94
62
76
78
20
-78
-164
-215
-234
-144
25
22
-16
381
803
339
-637
-984
-666
-393
-316
-225
-140
-149
-199
-235
-291
-360
-322
-146
-10
-23
-35
20
-15
-123
-108
-36
-64
-93
-41
-6
0
6
-33
-81
-68
-46
-60
-75
-78
-93
-106
-64
-44
-162
-78
519
868
201
-653
-655
-233
-88
-81
-16
18
33
67
81
102
147
162
161
218
292
287
244
246
249
206
164
170
218
259
225
153
136
133
76
30
44
67
70
59
6
-71
-86
-106
-248
-165
449
834
193
-690
-752
-410
-357
-369
-275
-334
-460
-410
-325
-341
-344
-312
-286
-217
-160
-189
-186
-115
-119
-168
-85
103
202
155
97
112
136
148
186
216
215
219
205
159
115
71
76
140
91
81
558
1096
729
-205
-533
-237
-57
-81
-66
-39
-24
18
40
44
72
96
113
167
221
220
216
218
163
115
151
168
116
104
130
112
84
70
36
20
49
41
-22
-37
-13
-48
-73
-47
-138
-142
393
948
550
-369
-662
-376
-182
-143
-129
-178
-223
-207
-198
-208
-218
-230
-240
-242
-191
-78
-35
-110
-153
-103
-61
-53
-38
-49
-74
-55
-30
-49
-47
-12
-18
-62
-76
-55
-52
-85
-75
-39
-125
-97
441
935
499
-361
-547
-207
-36
-9
48
40
