# session 11
-44
-25
-79
8
279
451
451
456
486
464
417
362
282
199
137
101
91
88
54
-3
-37
-45
-56
-36
-17
-108
-45
516
1002
607
-166
-331
-46
102
137
189
186
178
227
251
224
213
238
267
278
285
306
320
303
280
282
307
345
391
413
381
312
244
199
160
111
72
39
-18
-78
-122
-173
-173
-160
-299
-282
291
729
173
-676
-759
-397
-265
-264
-207
-186
-185
-160
-164
-187
-172
-134
-121
-122
-96
-52
-25
-28
-46
-46
-18
5
-2
-19
-43
-81
-110
-116
-135
-163
-150
-124
-152
-183
-164
-157
-164
-146
-209
-222
201
665
292
-561
-783
-419
-200
-166
-97
-82
-117
-86
-38
-41
-43
-15
18
50
87
121
145
165
166
159
191
244
256
238
216
169
92
19
-32
-58
-76
-136
-247
-311
-297
-306
-307
-252
-306
-316
181
735
370
-534
-799
-434
-177
-128
-88
-69
-51
0
20
24
66
97
92
110
153
170
195
255
273
230
204
200
187
179
152
61
-26
-24
-3
-49
-91
-69
-69
-105
-84
-65
-87
-38
-50
-155
158
759
570
-363
-738
-347
-45
-2
66
101
81
100
107
87
115
161
191
264
379
457
490
507
494
476
501
514
456
381
330
278
205
108
26
30
78
58
-1
9
31
-51
-93
6
-70
-278
79
768
533
-507
-915
-506
-212
-204
-164
-152
-210
-211
-186
-208
-226
-201
-168
-144
-105
-85
-119
-104
-10
18
-46
-95
-118
-126
-130
-191
-288
-351
-388
-376
-310
-303
-335
-243
-111
-143
-199
-119
-174
-352
-19
715
706
-175
-695
-437
-170
-183
-143
-59
-85
-93
-38
-51
-76
-9
44
31
50
110
156
192
216
245
297
303
263
264
267
183
92
95
126
104
80
96
91
53
53
70
57
29
-62
-60
380
813
330
-634
-833
-360
-108
-117
-58
3
-1
4
32
88
123
98
112
185
200
202
281
305
218
194
258
266
211
155
98
59
45
15
-39
-72
-58
-37
-71
-116
-107
-100
-87
-64
-171
-182
318
733
155
-764
-825
-336
-171
-246
-186
-71
-56
-106
-122
-74
-30
-17
-5
-6
-2
53
105
113
130
141
98
63
72
53
-11
-77
-119
-114
-75
-55
-43
-24
-28
-36
-26
-29
-9
-2
-130
-96
433
812
291
-485
-574
-260
-129
-115
-90
-105
-105
-75
-76
-80
-65
-69
-65
-11
34
31
52
133
192
181
158
161
167
158
134
90
48
38
47
57
73
82
79
76
40
2
34
-25
-199
25
667
735
-25
-550
-393
-180
-154
-101
-64
-90
-71
-27
-24
-12
28
60
90
134
171
186
189
195
203
212
210
182
139
93
31
-39
-77
-95
-116
-94
-57
-95
-143
-131
-143
-133
-86
-220
-253
330
797
116
-925
-1047
-586
-358
-303
-225
-209
-219
-187
-163
-135
-84
-62
-66
-35
34
102
163
213
236
252
272
264
225
195
157
89
27
-4
-37
-73
-77
-74
-96
-100
-98
-124
-94
-75
-212
-127
481
773
56
-742
-668
-243
-109
-71
40
100
119
156
179
199
236
278
320
345
350
383
439
453
416
368
329
294
261
228
192
142
83
32
-7
-25
-11
-12
-61
-105
-133
-151
-112
-134
-299
-189
385
589
-74
-711
-617
-294
-193
-156
-111
-121
-123
-91
-67
-47
-23
6
50
89
119
152
159
138
132
126
81
48
53
27
-35
-70
-105
-190
-267
-285
-313
-383
-401
-373
-436
-509
-440
-445
-546
-239
268
-8
-867
-1109
-688
-406
-342
-249
-232
-256
-136
9
32
40
106
157
182
232
294
324
321
324
354
393
418
424
397
320
218
150
137
156
188
229
245
211
184
185
174
211
250
107
107
675
1107
545
-297
-377
-18
135
152
180
172
170
186
169
155
183
222
256
292
338
373
374
360
357
354
352
358
334
253
153
67
6
-34
-73
-112
-151
-226
-319
-370
-394
-402
-432
-563
-524
-1
368
-217
-1110
-1220
-767
-493
-420
-319
-244
-265
-315
-289
-187
-134
-171
-181
-109
-19
42
74
100
136
153
135
113
90
46
6
4
20
13
-15
-11
15
-9
-58
-84
-133
-158
-105
-199
-320
137
815
503
-566
-969
-585
-311
-274
-183
-109
-91
-53
-52
-75
-39
-1
2
64
175
227
234
249
246
222
230
259
260
234
193
135
74
34
27
58
109
153
220
297
257
123
52
-63
-245
44
757
720
-320
-1008
-767
-449
-438
-396
-319
-343
-357
-322
-260
-134
-42
-44
27
194
264
254
300
329
293
303
356
358
331
331
327
292
264
272
305
351
391
403
410
410
378
363
318
111
102
714
1191
548
-472
-618
-203
-47
-56
7
10
-23
14
21
-42
-46
17
47
48
53
46
38
39
22
-5
-2
18
20
-8
-63
-103
-106
-118
-160
-192
-247
-335
-328
-224
-199
-205
-112
-138
-251
51
487
91
-869
-1188
-823
-577
-573
-540
-478
-425
-384
-387
-371
-305
-259
-225
-158
-98
-77
-70
-49
-17
4
-7
-45
-59
-9
46
28
-18
-12
23
35
22
0
-4
12
-5
-16
58
48
-67
218
839
770
-115
-614
-341
-69
-73
-56
2
24
60
99
113
138
180
218
242
272
312
323
291
276
294
281
242
239
252
233
201
182
162
133
112
105
85
48
30
14
-4
7
-91
-278
-22
697
895
253
-245
-89
157
139
29
-74
-161
-182
-176
-201
-221
-206
-200
-184
-107
-58
-92
-75
2
3
-18
24
26
-8
49
131
112
74
97
102
62
63
111
130
97
70
128
184
44
1
536
1082
664
-253
-532
-263
-120
-107
-53
-41
-54
-42
-71
-84
1
62
19
2
57
74
36
14
-15
-91
-151
-113
-30
-29
-103
-137
-114
-109
-148
-176
-173
-185
-208
-207
-219
-211
-157
-244
-319
135
677
252
-749
-1025
-569
-230
-170
-149
-158
-196
-181
-136
-144
-204
-240
-232
-212
-136
-4
37
-49
-95
-47
-37
-78
-75
-47
-55
-69
-45
-5
15
18
36
52
42
44
48
60
147
130
-94
66
835
1106
293
-464
-383
-97
-31
43
126
125
146
173
126
86
112
143
155
167
186
213
233
224
207
208
201
181
175
153
121
158
211
171
146
244
316
250
184
201
208
201
192
53
-9
471
1065
769
-163
-578
-371
-208
-184
-108
-37
16
89
96
48
42
9
-120
-208
-175
-141
-176
-196
-176
-195
-253
-269
-260
-306
-365
-338
-251
-208
-233
-263
-269
-300
-329
-285
-254
-292
-285
-344
-475
-42
900
950
-183
-904
-587
-229
-212
-143
-41
-44
-13
66
99
104
105
115
163
211
205
185
180
161
147
154
113
25
-9
-3
-40
-88
-86
-55
6
90
101
29
10
38
2
-2
54
-27
9
585
1046
507
-386
-565
-253
-82
-47
-5
19
17
-28
-73
-38
23
62
131
206
235
254
259
217
160
73
-78
-201
-212
-177
-184
-224
-260
-275
-261
-225
-199
-204
-206
-184
-200
-244
-212
-203
-277
15
812
1133
371
-460
-444
-98
-24
-31
54
113
131
154
173
196
231
253
269
321
410
466
437
364
291
211
132
87
44
-44
-125
-146
-144
-148
-146
-138
-132
-132
-139
-162
-172
-100
-51
-168
-62
588
966
319
-517
-565
-218
-79
-58
-21
6
46
72
64
79
114
131
141
159
189
198
145
99
119
101
15
-9
0
-106
-268
-337
-351
-394
-423
-404
-398
-434
-453
-430
-414
-369
-263
-275
-343
75
833
787
-220
-879
-638
-262
-169
-128
-71
-56
-38
5
54
89
95
97
118
146
193
253
265
215
164
137
105
70
62
74
71
54
63
99
116
98
64
44
42
8
-46
-43
-89
-171
159
829
836
-21
-578
-317
40
94
97
148
180
189
147
85
80
96
106
157
200
175
131
89
51
58
67
19
-26
-46
-105
-184
-247
-311
-326
-281
-296
-377
-390
-348
-371
-414
-361
-338
-476
-381
299
824
328
-560
-739
-370
-128
-60
-2
47
97
138
155
185
223
248
288
341
371
385
387
364
347
372
399
373
307
239
178
132
110
87
57
52
63
41
21
38
9
-38
-14
-107
-241
196
941
755
-279
-758
-455
-224
-213
-144
-98
-100
-28
41
28
25
71
95
92
120
155
137
90
52
5
-6
105
250
259
177
133
80
-65
-217
-282
-324
-397
-429
-424
-460
-444
-359
-451
-516
5
613
236
-697
-953
-614
-411
-344
-242
-217
-233
-195
-171
-158
-83
4
31
44
107
178
190
177
192
210
206
195
166
119
96
87
70
63
68
76
97
101
76
73
66
38
62
19
-100
231
954
938
-20
-621
-367
-58
-27
21
86
61
51
101
159
206
237
268
306
318
328
369
359
276
246
282
260
174
104
47
-15
-64
-100
-101
-37
-2
-82
-172
-180
-205
-259
-221
-243
-435
-290
369
535
-303
-1031
-871
-490
-411
-388
-313
-260
-177
-124
-153
-142
-82
-61
-8
102
160
180
236
259
215
185
182
173
164
125
32
-49
-67
-40
7
49
41
0
-14
-25
-67
-60
-64
-233
-206
437
945
403
-474
-592
-274
-174
-158
-66
-27
-22
34
98
130
139
138
135
153
207
267
280
263
251
213
146
116
133
125
61
-22
-104
-175
-204
-165
-103
-70
-17
78
102
47
13
-95
-215
134
760
583
-451
-1060
-785
-380
-255
-226
-213
-241
-255
-204
-120
-83
-84
-41
31
81
124
158
159
143
126
125
153
187
192
170
137
102
84
92
123
163
177
171
176
148
94
129
120
-69
74
788
997
85
-716
-507
-79
-45
-54
33
23
-23
-11
-6
-21
-1
47
90
113
113
100
84
87
120
148
136
113
105
79
35
22
24
-3
-42
-71
-100
-101
-66
-69
-102
-96
-176
-408
-328
312
600
-199
-1117
-1090
-651
-516
-438
-290
-316
-371
-262
-207
-261
-201
-62
-40
-87
-54
24
29
-30
-48
-33
-49
-20
100
153
95
65
66
28
22
72
77
45
61
80
43
60
136
48
-70
314
930
758
-107
-512
-248
-21
-3
38
83
88
106
123
119
114
126
180
264
307
281
274
327
334
258
239
316
355
313
271
250
220
186
141
89
67
34
-56
-137
-185
-224
-209
-222
-291
-6
636
704
-84
-694
-585
-330
-261
-217
-178
-196
-247
-303
-308
-275
-261
-212
-115
-49
-10
12
-10
-22
30
108
135
88
47
62
41
-45
-73
-37
-27
-10
27
8
-29
-16
-6
18
67
-47
-166
242
821
524
-413
-755
-402
-133
-95
-49
-9
4
33
26
-10
4
52
75
98
165
215
181
140
159
140
59
29
49
55
74
79
22
-16
-8
-32
-59
-49
-54
-81
-104
-111
-77
-123
-256
-17
627
724
-48
-627
-446
-135
-43
26
50
-18
-34
-20
-47
-47
-33
-72
-103
-61
22
92
110
79
54
27
-57
-156
-190
-184
-180
-158
-120
-102
-95
-84
-94
-100
-57
-37
-94
-77
7
-144
-342
70
780
650
-227
-649
-399
-177
-148
-106
-100
-138
-111
-52
-21
8
43
74
120
177
217
227
192
116
78
116
147
128
122
142
129
93
94
136
185
226
240
218
192
170
146
160
140
-5
99
750
1145
489
-449
-612
-283
-85
13
114
146
158
196
210
195
174
140
100
72
55
40
14
-21
-63
-117
-193
-282
-334
-314
-267
-266
-300
-306
-261
-208
-224
-297
-299
-246
-283
-300
-153
-164
-353
59
967
932
-201
-856
-543
-210
-168
-98
-45
-82
-73
-39
-53
-45
11
47
54
90
148
168
160
181
201
156
78
27
-8
-26
0
29
24
31
76
120
135
115
76
39
31
117
176
18
25
594
945
288
-553
-600
-273
-147
-82
-23
-66
-79
-10
29
44
70
65
33
-10
-62
-81
-73
-96
-146
-178
-197
-225
-239
-229
-234
-267
-284
-273
-249
-209
-183
-209
-223
-157
-103
-97
2
76
-61
104
930
1360
574
-334
-341
-58
-43
-24
37
-6
-8
44
31
33
79
71
43
66
84
62
40
43
65
73
45
36
79
103
80
58
38
5
-11
-9
7
28
17
-9
-23
-35
-22
-34
-40
373
1136
1197
268
-445
-325
-50
3
55
104
70
44
27
-16
3
96
155
162
186
221
213
155
67
-34
-102
-128
-179
-272
-329
-317
-306
-342
-385
-381
-335
-314
-341
-344
-369
-469
-424
-219
-256
-246
489
1134
453
-696
-863
-433
-281
-260
-151
-119
-141
-98
-34
15
60
93
120
152
178
190
179
148
131
150
166
136
104
124
143
116
115
152
134
93
116
118
50
32
83
136
195
140
-16
213
860
973
212
-414
-319
-51
20
52
76
58
73
103
89
68
69
66
57
79
147
218
214
133
52
23
18
-7
-64
-132
-196
-265
-342
-392
-366
-273
-222
-288
-361
-336
-322
-350
-308
-321
-376
73
900
911
-28
-575
-347
-158
-155
-16
100
81
81
78
41
54
75
58
69
110
139
168
175
125
60
21
-21
-64
-85
-108
-141
-146
-125
-104
-67
-19
-28
-84
-96
-98
-144
-117
-69
-167
-5
747
1169
450
-475
-534
-162
-28
9
106
136
107
113
132
139
156
168
153
134
123
102
102
153
180
130
80
67
25
-57
-136
-201
-245
-271
-312
-347
-337
-338
-379
-404
-423
-415
-345
-385
-415
126
890
665
-404
-906
-561
-217
-161
-144
-91
-30
0
-17
24
140
188
187
260
351
371
365
360
347
345
318
225
140
124
145
151
141
145
159
140
120
158
