# session 17
-16
-18
8
-38
-146
-163
-79
-6
40
77
81
63
47
22
-21
-66
-102
-126
-137
-140
-146
-155
-161
-165
-175
-197
-215
-222
-216
-193
-165
-152
-154
-166
-170
-158
-164
-163
-113
-168
-277
93
817
769
-193
-771
-496
-174
-136
-90
-29
-38
-26
16
33
54
93
134
183
238
277
291
278
247
218
192
158
113
73
54
49
39
28
24
6
-20
-32
-46
-78
-95
-86
-76
-56
-26
-23
-52
-73
-65
-66
-87
-62
-67
-194
-31
678
1036
310
-559
-569
-207
-112
-104
-39
-33
-40
-4
12
16
49
90
132
186
228
232
220
211
201
185
154
108
62
32
13
-5
-19
-29
-41
-55
-64
-77
-102
-125
-137
-133
-101
-59
-45
-62
-93
-115
-105
-102
-119
-86
-113
-245
22
781
937
29
-723
-567
-216
-144
-104
-47
-63
-56
-11
7
27
73
118
162
212
251
273
283
271
243
211
174
123
74
42
13
-24
-52
-58
-55
-63
-84
-105
-116
-129
-142
-135
-108
-97
-96
-92
-116
-145
-128
-131
-154
-98
-119
-231
130
841
696
-389
-977
-631
-257
-182
-100
-24
-37
-31
8
24
47
97
146
195
257
313
338
335
321
295
247
187
127
80
47
22
4
-9
-24
-45
-65
-75
-82
-104
-136
-153
-144
-126
-117
-115
-114
-121
-132
-137
-151
-149
-98
-132
-221
105
764
708
-279
-933
-655
-241
-151
-99
-16
-19
-24
15
35
51
100
152
195
247
300
329
319
287
258
227
173
117
76
37
10
14
22
2
-26
-40
-48
-62
-78
-96
-113
-117
-97
-73
-69
-78
-96
-116
-107
-96
-110
-78
-73
-181
17
692
877
11
-800
-684
-271
-142
-91
-16
-18
-27
1
20
46
90
122
162
223
275
295
291
273
252
226
184
133
85
48
26
14
1
-16
-31
-46
-66
-86
-105
-128
-149
-162
-163
-144
-116
-107
-117
-135
-151
-150
-151
-160
-119
-130
-248
-5
738
942
58
-755
-639
-258
-169
-136
-64
-65
-66
-27
-7
9
46
88
136
192
239
266
267
243
215
191
157
111
69
43
26
12
3
-4
-11
-23
-38
-50
-59
-78
-104
-122
-127
-112
-76
-46
-44
-59
-80
-87
-76
-84
-79
-45
-131
-158
379
1048
721
-328
-738
-392
-145
-132
-77
-38
-53
-33
-4
5
31
69
105
153
204
235
246
239
217
192
166
128
80
39
16
2
-12
-27
-42
-56
-66
-77
-86
-95
-115
-144
-162
-167
-155
-116
-80
-82
-105
-122
-130
-120
-124
-130
-88
-131
-226
156
914
891
-114
-773
-541
-218
-174
-131
-72
-83
-76
-40
-24
-1
38
76
122
174
215
242
256
250
233
211
178
134
91
59
39
22
5
-9
-19
-28
-40
-54
-61
-63
-75
-98
-119
-132
-119
-77
-47
-53
-69
-92
-102
-85
-98
-108
-60
-125
-170
362
1052
681
-458
-883
-487
-197
-153
-73
-29
-47
-26
0
10
49
97
132
187
255
308
336
343
334
321
295
235
158
100
66
38
10
-14
-39
-61
-70
-78
-96
-110
-116
-128
-146
-158
-154
-126
-92
-89
-108
-124
-128
-114
-117
-143
-107
-90
-203
8
742
936
-32
-924
-784
-337
-206
-132
-26
-29
-49
-23
-7
18
71
116
157
219
285
324
329
309
277
243
205
151
88
35
7
-3
-15
-34
-43
-41
-56
-86
-102
-103
-113
-131
-146
-154
-145
-118
-98
-95
-93
-108
-132
-120
-109
-123
-88
-101
-202
94
827
891
-107
-874
-670
-266
-165
-110
-40
-48
-43
-6
8
28
68
109
162
223
270
302
313
296
265
235
197
146
93
54
32
21
11
1
-10
-23
-40
-57
-69
-79
-98
-124
-143
-149
-141
-112
-76
-67
-79
-95
-108
-100
-92
-91
-45
-52
-169
74
828
1052
163
-680
-582
-206
-132
-115
-43
-37
-44
-14
10
33
66
100
141
193
242
280
290
266
230
202
174
125
59
8
-10
-10
-20
-40
-53
-59
-74
-91
-98
-106
-129
-149
-158
-176
-193
-168
-117
-102
-118
-130
-143
-145
-132
-149
-150
-106
-176
-175
407
1087
715
-379
-804
-458
-201
-187
-146
-106
-111
-91
-52
-28
-6
30
75
120
177
245
275
266
273
277
232
182
158
121
76
57
42
21
18
17
-8
-33
-41
-47
-69
-93
-103
-109
-132
-132
-69
-12
-33
-77
-87
-92
-82
-66
-82
-59
-37
-160
-12
772
1192
315
-777
-813
-340
-175
-139
-46
-32
-48
-18
1
19
65
103
143
217
294
341
352
334
311
291
249
173
95
47
24
0
-29
-47
-58
-69
-78
-96
-125
-144
-154
-172
-180
-178
-182
-170
-139
-143
-166
-164
-170
-178
-155
-147
-130
-123
-236
-109
604
1002
188
-847
-864
-366
-199
-196
-101
-43
-39
-12
13
31
65
105
150
219
297
352
371
359
329
294
254
203
140
81
43
30
25
13
8
10
-5
-32
-43
-55
-80
-105
-128
-150
-145
-113
-98
-117
-140
-146
-141
-120
-96
-109
-111
-74
-159
-201
352
1107
828
-303
-807
-460
-194
-185
-109
-50
-74
-55
-29
-38
0
62
90
135
202
246
277
292
262
229
215
163
84
37
19
6
-2
-18
-33
-29
-29
-42
-49
-60
-90
-115
-122
-120
-125
-129
-96
-30
1
-27
-69
-97
-97
-83
-95
-91
-40
-104
-149
364
1110
899
-176
-721
-439
-184
-179
-121
-46
-49
-59
-50
-30
1
27
62
110
148
196
256
266
238
221
194
139
92
49
-3
-35
-41
-47
-52
-57
-71
-86
-94
-114
-139
-147
-145
-155
-177
-194
-166
-98
-67
-97
-118
-111
-113
-115
-118
-129
-95
-102
-184
120
904
1104
181
-684
-618
-263
-174
-140
-77
-73
-48
-4
-3
9
60
95
128
195
263
302
323
330
319
282
229
176
118
56
31
39
17
-29
-46
-50
-74
-91
-87
-85
-93
-114
-143
-159
-160
-153
-109
-66
-89
-126
-119
-119
-136
-140
-137
-86
-87
-224
6
803
1032
34
-910
-797
-352
-222
-156
-52
-45
-59
-38
-29
0
61
101
137
209
283
330
359
365
334
280
224
174
119
55
16
18
16
-9
-20
-19
-41
-67
-69
-72
-95
-114
-123
-133
-140
-126
-88
-59
-67
-91
-113
-116
-82
-65
-91
-70
-74
-161
123
864
983
7
-819
-663
-248
-139
-99
-31
-20
-3
28
32
51
91
116
166
260
332
353
354
339
300
258
225
180
106
29
-15
-34
-47
-54
-63
-72
-72
-77
-103
-123
-133
-159
-179
-177
-182
-187
-156
-119
-110
-113
-136
-160
-139
-128
-139
-102
-137
-205
209
924
781
-275
-865
-581
-274
-220
-124
-48
-80
-85
-51
-35
-2
48
77
112
187
268
307
305
283
252
215
177
133
79
29
3
-7
-20
-27
-19
-16
-30
-42
-51
-72
-98
-116
-127
-128
-110
-77
-56
-62
-72
-72
-86
-102
-91
-78
-51
-40
-148
-91
529
1042
461
-567
-761
-345
-156
-143
-54
-22
-51
-30
-5
-10
18
87
140
173
228
294
309
272
240
218
183
137
84
39
32
51
67
73
43
-7
-3
28
1
-36
-32
-69
-136
-119
-56
-55
-83
-69
-34
-24
-56
-98
-105
-115
-123
-53
-58
-228
-13
780
1008
55
-793
-628
-240
-181
-115
-29
-79
-73
7
-28
-83
-4
85
84
113
217
270
256
259
236
146
102
118
71
13
58
71
-45
-93
-26
-35
-98
-83
-75
-119
-130
-149
-202
-186
-131
-125
-123
-96
-104
-157
-183
-138
-103
-148
-152
-85
-163
-230
257
980
812
-225
-808
-523
-196
-184
-150
-48
-70
-142
-96
6
11
-28
29
126
136
131
212
285
252
186
162
148
124
114
101
61
17
-6
-30
-69
-77
-24
22
-3
-58
-98
-121
-123
-102
-62
2
22
-55
-124
-92
-44
-23
-2
-4
-3
-24
-132
66
826
1158
272
-713
-652
-190
-109
-122
-3
13
-47
4
87
82
71
133
205
243
297
378
409
373
355
381
375
294
190
121
90
65
40
39
56
37
-21
-51
-34
-29
-71
-127
-158
-167
-181
-181
-138
-106
-144
-189
-176
-163
-216
-261
-176
-114
-279
-229
478
950
194
-894
-1010
-521
-272
-220
-157
-136
-117
-58
-32
-47
-42
1
64
129
193
253
284
267
232
213
178
102
36
2
-39
-78
-71
-46
-66
-112
-116
-98
-121
-142
-130
-149
-184
-188
-223
-248
-151
-73
-143
-181
-133
-140
-151
-127
-171
-193
-161
-168
140
841
917
-54
-821
-591
-142
-84
-121
-26
78
86
-4
-73
-1
129
166
145
201
331
396
386
394
354
218
172
256
262
161
104
100
94
101
118
112
105
113
82
28
39
66
3
-80
-71
-7
46
60
28
-9
-33
-54
-36
-24
-73
-65
-41
-128
100
859
1120
238
-637
-568
-214
-169
-162
-77
-77
-113
-96
-53
-28
-49
-64
3
92
132
180
224
173
87
84
102
52
-23
-70
-102
-114
-87
-68
-107
-153
-126
-92
-158
-238
-192
-101
-126
-232
-253
-150
-65
-94
-123
-65
-62
-150
-130
-42
-99
-161
-113
-165
-36
699
1179
414
-677
-806
-383
-215
-182
-87
-52
-55
-24
7
26
25
21
97
222
277
300
365
383
324
305
315
240
135
99
73
14
-2
22
4
-38
-46
-47
-79
-116
-128
-127
-140
-159
-163
-152
-130
-115
-127
-134
-119
-123
-134
-135
-162
-146
-91
-183
-163
438
968
401
-646
-870
-445
-214
-180
-88
-34
-40
-10
21
19
45
97
124
152
232
312
333
336
347
317
254
219
189
122
72
67
59
41
31
17
9
19
9
-32
-56
-52
-65
-107
-133
-125
-105
-78
-53
-62
-90
-102
-110
-119
-113
-110
-94
-87
-180
-84
568
1094
531
-484
-707
-339
-169
-160
-82
-51
-73
-55
-31
-22
5
40
69
107
164
221
246
236
222
211
184
144
104
61
17
-10
-21
-28
-40
-53
-56
-53
-62
-82
-98
-116
-143
-165
-172
-174
-162
-121
-77
-72
-92
-107
-125
-131
-109
-108
-120
-90
-132
-175
258
982
904
-76
-692
-485
-200
-160
-117
-65
-69
-54
-26
-14
16
55
86
137
207
261
292
305
293
272
251
219
173
122
70
35
26
24
12
0
-7
-15
-26
-39
-54
-63
-63
-75
-105
-124
-117
-100
-75
-55
-66
-82
-79
-86
-92
-84
-102
-89
-52
-145
-55
627
1096
374
-698
-834
-391
-190
-141
-51
-38
-56
-22
-8
-13
13
40
66
123
183
214
240
263
246
192
145
114
72
13
-38
-63
-65
-62
-66
-77
-87
-91
-96
-111
-129
-136
-138
-148
-161
-166
-157
-126
-94
-95
-104
-91
-94
-107
-92
-94
-98
-58
-114
-145
351
1012
703
-367
-815
-454
-162
-123
-52
6
-7
3
33
49
73
103
131
178
237
291
335
354
335
299
265
228
179
128
83
49
33
29
23
14
2
-13
-27
-39
-55
-71
-81
-95
-120
-136
-135
-124
-89
-47
-48
-83
-99
-102
-109
-104
-113
-114
-75
-126
-155
320
1012
812
-218
-750
-473
-199
-175
-132
-89
-105
-93
-65
-57
-37
1
37
77
124
168
201
211
200
184
162
126
82
41
3
-29
-48
-55
-59
-61
-60
-62
-68
-75
-84
-96
-104
-113
-132
-151
-157
-149
-125
-81
-48
-57
-79
-82
-83
-79
-65
-79
-79
-43
-101
-34
599
1209
713
-391
-736
-373
-155
-137
-64
-21
-36
-21
5
24
54
81
114
174
237
287
330
348
330
299
269
227
164
100
52
24
7
-10
-24
-33
-40
-49
-60
-73
-78
-84
-102
-117
-118
-129
-150
-147
-113
-82
-82
-103
-118
-135
-149
-136
-142
-159
-110
-121
-202
154
880
823
-249
-960
-701
-310
-220
-151
-70
-74
-71
-38
-18
9
41
65
112
185
250
299
327
320
290
255
214
167
116
65
23
4
2
1
0
-2
-7
-18
-30
-41
-55
-71
-76
-83
-108
-132
-131
-111
-80
-48
-41
-60
-66
-66
-73
-67
-67
-72
-39
-73
-145
227
971
977
-20
-735
-544
-214
-161
-118
-53
-62
-59
-27
-21
-12
22
57
95
143
190
229
253
248
222
191
159
118
70
23
-15
-38
-48
-52
-52
-54
-62
-72
-78
-82
-93
-105
-111
-115
-129
-150
-162
-157
-132
-88
-52
-61
-87
-90
-93
-101
-89
-88
-88
-54
-100
-119
359
1054
872
-145
-700
-457
-194
-164
-117
-67
-75
-66
-42
-30
-2
34
64
103
151
201
252
278
271
252
236
208
162
109
63
24
-5
-16
-10
-9
-16
-23
-32
-45
-47
-48
-61
-66
-63
-80
-113
-130
-119
-93
-57
-28
-36
-63
-72
-79
-86
-69
-73
-85
-44
-95
-151
333
1072
831
-327
-914
-582
-249
-184
-99
-37
-51
-36
-16
-11
31
73
83
117
189
251
298
332
332
297
252
206
162
112
48
-10
-39
-52
-62
-63
-60
-68
-79
-90
-104
-116
-122
-126
-135
-151
-163
-158
-134
-101
-81
-91
-104
-99
-105
-112
-92
-90
-87
-36
-89
-133
353
1037
758
-322
-811
-481
-196
-153
-80
-30
-48
-33
-6
-4
12
43
73
118
176
231
274
294
284
256
221
182
143
100
53
13
-8
-11
-6
-4
-8
-15
-24
-33
-42
-55
-69
-77
-87
-107
-131
-144
-140
-111
-67
-48
-71
-93
-96
-108
-118
-106
-111
-111
-83
-144
-120
429
1059
711
-326
-755
-451
-215
-197
-139
-92
-108
-98
-69
-59
-38
-1
35
75
124
176
222
248
245
222
202
185
158
115
72
33
-1
-17
-10
5
11
10
-4
-28
-40
-36
-38
-49
-49
-50
-68
-88
-93
-79
-40
1
1
-25
-32
-41
-59
-42
-22
-37
-16
-28
-107
209
977
1088
64
-810
-663
-237
-135
-84
18
-4
