# session 13
6
-21
69
-12
-352
-569
-511
-452
-475
-450
-394
-368
-332
-275
-227
-176
-115
-60
-19
2
-4
-19
-23
-24
-42
-66
-77
-84
-101
-122
-131
-132
-126
-97
-69
-83
-95
-73
-86
-87
-31
-124
-236
179
724
341
-573
-750
-307
-92
-81
2
30
-8
10
37
41
75
115
138
167
198
216
222
208
183
172
151
101
63
53
32
-14
-67
-106
-115
-111
-111
-95
-71
-83
-99
-91
-105
-102
-76
-195
-265
174
679
346
-447
-641
-312
-128
-116
-68
-39
-45
-20
14
31
53
85
114
144
181
214
231
243
251
241
227
206
165
123
95
53
0
-23
-27
-40
-36
-1
9
-15
-14
-15
-74
-74
-17
-138
-173
360
815
236
-682
-757
-315
-135
-115
-35
-15
-34
2
38
52
82
118
154
196
222
234
246
246
223
187
150
120
93
57
28
13
-22
-66
-71
-56
-59
-51
-39
-64
-81
-69
-81
-75
-65
-159
-84
418
670
51
-662
-599
-192
-52
-39
9
10
-2
31
58
72
94
112
130
158
178
189
196
182
145
115
99
80
55
23
-19
-58
-85
-112
-133
-143
-143
-132
-134
-161
-169
-165
-198
-183
-145
-266
-252
279
614
-31
-847
-804
-337
-149
-114
-53
-41
-38
-2
10
20
59
91
112
149
187
200
193
171
140
110
88
64
34
9
-3
-26
-67
-93
-90
-93
-99
-79
-67
-96
-109
-103
-124
-108
-96
-213
-137
370
554
-122
-770
-614
-196
-70
-52
-8
-7
3
44
54
64
107
140
156
190
229
241
241
245
245
229
205
185
157
116
82
58
29
13
14
4
-5
14
22
7
11
-1
-42
4
44
-90
6
591
764
-53
-789
-589
-131
-15
18
100
97
72
98
122
141
176
205
226
260
302
329
324
302
280
253
210
162
122
81
32
-25
-77
-103
-116
-137
-140
-106
-102
-148
-166
-173
-210
-178
-156
-331
-310
267
589
-60
-794
-718
-343
-234
-198
-132
-144
-164
-140
-125
-105
-69
-48
-31
6
44
67
77
86
84
63
36
10
-19
-48
-76
-111
-144
-166
-183
-189
-161
-104
-83
-110
-108
-94
-131
-108
-49
-189
-189
424
858
179
-741
-736
-260
-71
-33
40
47
38
70
87
105
153
184
197
238
296
330
333
316
287
259
231
188
133
97
73
31
-21
-57
-77
-86
-80
-63
-66
-94
-102
-100
-128
-97
-36
-151
-151
392
770
109
-793
-787
-284
-75
-47
23
40
33
64
74
71
108
159
190
221
257
285
295
284
253
210
169
137
110
86
65
35
1
-22
-33
-43
-50
-40
-24
-39
-65
-67
-83
-79
-45
-170
-280
175
775
416
-536
-748
-292
-78
-100
-27
4
-41
-32
-47
-97
-44
57
105
182
285
306
270
233
178
136
143
166
180
139
17
-60
-7
53
12
-90
-132
-58
12
-46
-150
-251
-388
-395
-163
-43
-208
-61
663
1026
401
-370
-488
-252
-78
15
13
-43
-28
30
39
26
52
26
-179
-398
-388
-286
-312
-382
-420
-490
-519
-414
-309
-335
-400
-352
-220
-165
-181
-92
80
159
180
237
241
174
200
230
-104
-470
191
1509
1447
-193
-1158
-689
-229
-303
-265
-117
-169
-217
-115
-41
-7
119
262
314
374
519
668
719
645
513
398
264
118
72
99
76
72
207
327
240
131
231
352
323
319
335
185
44
2
-209
-285
322
896
379
-677
-1113
-922
-629
-414
-293
-238
-271
-421
-446
-271
-288
-534
-581
-476
-535
-607
-469
-216
-4
37
-53
-75
-69
-49
187
451
411
282
310
329
201
3
-151
-214
-260
-351
-385
-310
-320
-412
-27
944
1406
728
-90
-181
75
215
191
43
8
166
190
65
156
438
657
897
1226
1400
1299
1141
1118
1101
865
506
313
247
93
-54
-34
-3
-134
-301
-334
-303
-354
-458
-555
-717
-930
-1126
-1359
-1306
-506
307
-65
-1205
-1803
-1561
-979
-582
-545
-416
41
368
437
490
437
323
445
687
742
574
321
150
90
11
-71
-58
-37
-77
-90
-74
-97
-135
-213
-411
-612
-646
-608
-641
-675
-634
-519
-341
-314
-520
-325
708
1582
1173
140
-174
217
491
464
358
178
-26
-71
-19
-34
-60
-45
-79
-140
-169
-259
-402
-431
-330
-210
-115
-63
-49
-31
10
84
142
67
-82
-84
58
127
52
-9
58
94
14
111
410
673
1274
2188
2043
526
-601
-538
-254
-164
-15
18
-85
-23
133
233
401
592
585
417
302
319
371
335
229
138
64
22
34
18
-17
49
158
220
274
238
27
-156
-180
-200
-262
-275
-251
-214
-252
-466
-510
-26
379
-47
-878
-1310
-1327
-1261
-1191
-1080
-980
-1004
-1101
-1102
-1068
-1028
-751
-353
-195
-88
204
425
567
836
1061
1231
1522
1637
1428
1207
910
441
224
244
15
-310
-297
-130
-125
-187
-177
-126
-51
-19
-142
-106
512
1092
614
-474
-877
-491
-175
-265
-359
-149
51
-31
47
555
915
764
515
463
385
138
-77
-130
-138
-156
-150
-245
-496
-663
-586
-427
-394
-541
-734
-831
-908
-1038
-1075
-867
-461
-157
-209
-366
-278
42
634
1277
1209
433
-100
-59
174
393
550
683
847
875
687
493
396
299
198
182
245
275
249
269
366
435
405
278
3
-435
-818
-905
-777
-667
-623
-530
-409
-391
-292
174
686
794
726
724
538
262
435
959
1000
240
-493
-432
-3
86
-75
-190
-312
-466
-529
-442
-284
-259
-418
-564
-640
-696
-557
-225
-71
-225
-412
-316
34
143
-108
-132
115
130
140
419
442
108
68
466
767
578
90
-155
-107
-293
-549
-23
915
804
-328
-928
-532
-36
130
152
54
-108
-156
-150
-229
-307
-261
-135
-23
103
373
776
1062
1074
971
835
477
-69
-371
-243
-37
-16
-25
61
159
182
88
-81
-234
-297
-205
-204
-511
-525
-158
-568
-1492
-1416
-854
-952
-1053
-764
-651
-571
-345
-253
-82
232
290
294
503
649
879
1367
1506
1169
962
785
332
100
218
107
-181
-186
-52
-79
-168
-178
-130
-127
-280
-510
-611
-593
-652
-706
-572
-532
-684
-258
845
1193
296
-262
402
1092
905
573
621
435
-18
35
367
251
16
117
223
159
147
143
-14
-189
-245
-328
-490
-486
-272
-154
-216
-250
-196
-177
-350
-659
-651
-284
-289
-656
-486
-20
-78
-215
-47
179
944
1968
1680
459
103
383
209
-156
-261
-266
-280
-293
-255
-105
28
57
190
455
506
266
66
-58
-300
-466
-358
-248
-291
-276
-199
-206
-147
147
476
617
666
671
501
299
230
20
-332
-358
-208
-280
-76
643
831
24
-693
-649
-464
-609
-806
-786
-621
-487
-423
-345
-299
-356
-343
-203
-199
-334
-268
-55
-43
-130
-35
93
122
227
420
572
737
892
880
767
686
550
298
42
-126
-187
-189
-176
-94
-15
76
691
1608
1403
141
-405
-327
-901
-1283
-553
47
-116
-156
15
-44
-89
76
296
518
648
626
588
487
218
-39
-183
-254
-134
96
122
14
8
-19
-142
-210
-297
-477
-551
-536
-584
-657
-885
-1116
-753
-387
-1068
-1782
-1393
-965
-1103
-893
-336
-126
-121
-27
54
125
313
515
493
399
608
971
1129
1170
1143
910
678
640
585
420
287
233
230
195
85
88
278
375
257
102
-46
-201
-245
-225
-251
-226
-244
-315
226
1303
1377
181
-519
-174
171
356
568
353
-45
-72
-121
-355
-309
-140
-181
-170
-40
-28
-82
-119
-198
-261
-291
-360
-401
-360
-295
-186
-77
-128
-239
-178
-100
-234
-381
-317
-208
-235
-228
0
125
-78
235
1431
1848
645
-322
-11
348
195
92
89
5
-89
-161
-153
-83
-60
11
125
182
423
697
423
110
320
-147
-1532
-1749
-541
-8
-388
-421
-208
-235
-214
-35
160
421
611
475
196
180
321
81
-423
-284
555
865
170
-517
-526
-252
-76
-2
9
18
21
-104
-328
-428
-363
-350
-353
-164
-163
-617
-733
-158
191
-18
-214
-248
-199
-29
101
142
231
330
384
432
483
608
784
758
484
262
204
54
-260
-277
328
853
403
-529
-828
-551
-334
-159
63
79
-78
-162
-193
-221
-199
-176
-163
-58
82
129
161
256
286
254
378
598
580
333
126
6
-73
-160
-369
-525
-327
-42
-41
-118
-100
-153
-205
-187
-323
-401
28
452
5
-887
-1141
-743
-418
-367
-333
-233
-145
-107
-132
-216
-288
-216
-2
149
163
245
442
505
424
472
644
734
783
846
784
589
390
213
77
40
59
57
50
98
187
285
441
497
197
5
519
961
284
-731
-853
-467
-353
-330
-202
-200
-263
-148
7
47
174
368
262
24
155
357
144
-72
62
104
-74
-83
25
-23
-125
-176
-223
-220
-215
-343
-491
-536
-591
-643
-550
-431
-382
-290
-226
-171
228
617
127
-822
-1087
-760
-484
-244
-26
2
17
150
249
267
253
239
281
322
304
301
287
167
28
-23
-53
-123
-156
-95
-46
-63
63
453
779
724
461
255
104
-14
-92
-195
-246
-227
-417
-541
176
1125
744
-599
-1162
-744
-264
74
376
541
605
593
458
341
357
402
385
367
417
445
350
238
242
281
258
171
2
-180
-234
-271
-423
-466
-313
-285
-444
-519
-520
-581
-631
-635
-574
-451
-490
-529
33
758
405
-731
-1137
-658
-323
-355
-292
-134
-87
-46
59
103
69
67
144
247
252
179
199
267
240
261
411
513
580
737
838
733
529
371
278
195
84
-40
-144
-194
-200
-227
-245
-236
-286
-130
546
1039
493
-428
-636
-334
-148
-73
1
15
6
13
42
95
111
102
146
198
224
262
296
338
412
433
346
190
-5
-164
-188
-139
-146
-203
-226
-216
-250
-321
-341
-325
-349
-327
-248
-324
-322
278
886
406
-634
-922
-565
-352
-311
-245
-226
-218
-175
-174
-195
-169
-104
-8
99
172
248
328
322
292
343
294
38
-98
-12
-108
-400
-423
-223
-198
-276
-248
-226
-257
-231
-196
-217
-191
-170
-288
-184
438
809
233
-502
-492
-142
-26
-13
53
108
151
184
192
223
285
327
338
352
377
387
376
357
343
354
351
276
212
242
245
122
-4
-39
-54
-69
31
270
498
593
564
460
331
162
-67
-60
455
830
286
-570
-737
-468
-376
-357
-283
-286
-286
-208
-194
-250
-246
-205
-206
-201
-154
-121
-111
-81
-51
-54
-69
-74
-81
-101
-138
-180
-196
-187
-174
-154
-136
-147
-160
-147
-144
-134
-84
-124
-213
75
626
534
-298
-774
-484
-110
4
48
69
69
121
162
136
109
116
147
198
239
244
238
237
222
201
197
195
184
189
191
152
102
84
73
50
47
55
46
50
61
25
9
31
-45
-38
367
658
109
-705
-770
-341
-152
-156
-106
-101
-155
-150
-128
-160
-209
-202
-139
-102
-116
-100
-47
-37
-51
-25
0
-11
-18
-12
-38
-92
-129
-149
-157
-139
-108
-115
-141
-126
-113
-128
-77
-46
-124
92
682
730
-87
-660
-393
-13
49
82
159
159
151
173
171
179
208
212
219
269
320
333
320
297
284
283
259
200
144
110
81
42
-8
-62
-84
-42
23
14
-44
-48
-19
9
56
-53
-265
9
670
616
-247
-707
-450
-215
-180
-106
-70
-104
-70
-18
-27
-24
20
50
69
109
156
190
207
202
185
189
192
143
66
14
-36
-105
-145
-150
-148
-116
-83
-109
-126
-114
-154
-146
-97
-239
-193
482
828
-34
-985
-907
-462
-333
-261
-158
-182
-215
-186
-177
-166
-128
-108
-103
-82
-40
18
68
81
68
52
44
38
23
-6
-45
-82
-93
-80
-72
-62
-30
-19
-47
-60
-79
-103
-56
-80
-203
91
748
670
-285
-828
-529
-192
-114
-38
19
5
24
63
71
91
128
157
192
244
295
335
357
359
362
369
361
337
309
272
217
160
135
130
122
149
195
176
129
117
104
128
149
-30
-93
454
929
399
-447
-518
-146
-16
0
97
164
177
180
181
188
180
160
175
191
163
140
137
111
84
79
57
9
-31
-68
-114
-149
-180
-225
-247
-221
-209
-243
-253
-249
-302
-317
-256
-363
-527
-145
554
449
-457
-935
-686
-464
-459
-388
-338
-402
-404
-336
-332
-346
-297
-234
-195
-164
-142
-111
-57
-27
-23
23
81
71
47
61
50
9
9
44
69
89
93
79
83
51
-39
-31
12
-151
-163
439
882
231
-745
-844
-357
-82
-31
21
67
108
137
135
171
230
228
234
322
403
411
397
395
397
403
396
355
308
276
245
208
160
104
82
108
114
87
102
113
33
2
72
-23
-139
289
891
628
-251
-574
-255
11
89
143
150
125
108
89
96
119
125
142
158
158
196
254
248
196
164
157
137
98
62
21
-43
-87
-87
-116
-166
-152
-124
-156
-184
-211
-282
-322
-394
-494
-186
386
186
-795
-1267
-898
-529
-456
-423
-405
-401
-332
-300
-348
-340
-264
-234
-247
-224
-169
-118
-82
-61
-40
-17
-16
-35
-44
-61
-113
-158
-160
-145
-121
-80
-79
-129
-141
-133
-155
-112
-80
-216
-98
563
852
97
-692
-594
-181
-49
4
91
100
98
137
170
212
275
317
344
400
476
523
533
530
523
514
514
494
448
424
400
311
210
172
160
144
150
168
195
193
117
96
151
28
-54
429
881
322
-601
-694
-262
-81
-47
45
51
12
45
75
72
91
119
139
174
205
198
163
138
128
117
108
103
77
29
-26
-94
-153
-185
-216
-234
-230
-267
-324
-317
-306
-317
-285
-332
-403
-62
443
180
-683
-1000
-641
-346
-274
-203
-167
-180
-150
-106
-81
-43
-18
-23
-12
26
50
58
74
87
67
29
0
