# session 7
-116
-169
61
-178
-1132
-1805
-1753
-1612
-1647
-1596
-1504
-1523
-1580
-1594
-1575
-1560
-1571
-1556
-1510
-1500
-1505
-1461
-1394
-1346
-1309
-1277
-1234
-1163
-1096
-1054
-1022
-1002
-929
-826
-862
-823
-282
261
-103
-925
-1079
-650
-361
-272
-177
-116
-83
-17
41
80
136
202
250
286
329
374
393
396
420
446
442
452
495
508
482
473
484
476
458
453
449
455
482
491
485
499
492
478
542
523
370
603
1227
1215
367
-143
107
373
381
408
451
435
444
466
442
411
417
443
455
450
443
432
406
381
361
333
306
291
272
243
213
177
129
84
65
61
56
63
67
39
7
-17
-53
-42
-53
-220
-183
378
698
61
-714
-703
-354
-268
-279
-241
-246
-261
-250
-251
-250
-244
-242
-220
-189
-187
-194
-185
-189
-211
-216
-197
-188
-207
-240
-270
-303
-345
-383
-408
-425
-430
-412
-390
-402
-430
-424
-415
-417
-372
-379
-466
-219
404
498
-267
-852
-649
-284
-189
-155
-100
-94
-80
-45
-32
-18
12
36
61
100
142
168
173
168
162
162
177
196
190
163
143
128
100
65
48
47
57
87
108
97
98
104
78
110
167
61
92
627
964
362
-387
-351
27
146
159
201
197
197
221
223
232
255
264
276
303
327
338
330
303
278
262
243
217
196
177
146
105
67
38
19
0
-20
-20
-6
-28
-62
-61
-65
-62
-20
-98
-211
150
751
567
-310
-684
-356
-98
-86
-61
-43
-67
-58
-43
-51
-45
-28
-14
10
36
53
56
38
4
-29
-45
-38
-23
-34
-68
-97
-126
-167
-208
-234
-247
-249
-240
-244
-270
-285
-290
-314
-298
-255
-347
-391
7
400
-23
-810
-917
-492
-256
-209
-127
-100
-125
-96
-63
-75
-74
-51
-40
-34
-9
13
14
6
1
7
31
70
103
114
105
82
49
13
-13
-23
-18
6
32
26
-1
-11
-29
-64
-38
-27
-149
-50
514
796
206
-467
-436
-109
14
48
98
116
131
156
167
188
218
236
258
291
320
337
346
354
351
336
334
347
340
315
302
279
216
154
138
144
140
149
163
132
88
75
46
38
86
-9
-122
271
816
487
-440
-743
-387
-160
-152
-108
-95
-126
-86
-29
-35
-41
2
47
65
83
110
122
106
78
58
45
24
-4
-24
-49
-94
-142
-181
-215
-237
-252
-259
-241
-226
-251
-271
-273
-299
-281
-241
-333
-287
221
519
-100
-880
-858
-424
-234
-191
-124
-101
-99
-74
-59
-39
-1
20
37
80
123
141
145
145
141
141
145
146
140
127
107
77
38
2
-22
-37
-41
-28
-14
-29
-46
-48
-75
-79
-8
-52
-171
150
756
634
-216
-615
-292
-15
-8
7
28
0
-1
12
5
11
28
35
49
77
105
121
120
110
104
105
110
116
110
91
66
39
9
-25
-48
-55
-45
-19
-4
-35
-67
-67
-90
-100
-64
-159
-282
80
688
561
-226
-593
-353
-145
-113
-56
-1
14
42
72
97
132
159
183
229
273
289
293
300
294
269
247
238
228
203
164
119
75
28
-15
-36
-39
-36
-15
1
-25
-49
-59
-105
-103
-53
-166
-199
299
702
110
-801
-884
-433
-211
-162
-79
-52
-62
-41
-28
-11
37
73
84
101
122
134
137
128
100
64
41
38
35
14
-14
-35
-55
-82
-104
-110
-111
-111
-90
-69
-87
-104
-93
-93
-71
-31
-126
-158
264
651
186
-614
-694
-275
-98
-119
-87
-88
-132
-130
-118
-122
-112
-91
-74
-52
-28
-14
-13
-22
-32
-30
-10
23
40
28
13
4
-15
-44
-62
-67
-66
-52
-22
-13
-37
-43
-33
-39
8
41
-86
-28
518
781
116
-600
-485
-64
52
56
110
111
98
126
144
148
168
191
208
224
237
245
237
209
181
173
175
175
168
145
107
72
45
15
-10
-16
-14
-3
25
29
-7
-19
-13
-38
-16
-3
-137
-66
464
646
-64
-705
-516
-122
-44
-23
46
37
16
36
40
40
60
74
88
117
129
120
110
96
78
76
78
60
31
-2
-44
-79
-99
-126
-154
-158
-147
-130
-102
-98
-115
-112
-130
-160
-104
-107
-262
-78
539
608
-197
-755
-518
-197
-157
-125
-70
-86
-87
-51
-37
-28
-2
22
41
65
93
127
156
162
153
151
154
135
91
48
8
-37
-77
-107
-131
-140
-130
-104
-69
-66
-96
-99
-105
-131
-82
-76
-225
-39
621
692
-245
-932
-662
-226
-116
-53
19
5
8
53
66
72
103
130
153
201
262
297
297
285
278
273
256
221
178
137
100
60
17
-23
-52
-67
-74
-73
-62
-70
-100
-98
-101
-142
-113
-83
-193
-55
501
559
-304
-947
-670
-223
-119
-77
-2
-4
-12
15
31
51
84
109
142
187
217
236
260
267
243
214
193
165
128
102
87
71
48
16
-6
-10
-13
-12
1
-10
-41
-46
-59
-83
-45
-75
-236
-69
506
561
-213
-737
-471
-122
-81
-75
-32
-38
-29
5
13
26
59
83
103
128
141
139
133
119
106
101
95
88
85
59
3
-37
-52
-80
-118
-133
-135
-131
-105
-97
-127
-137
-147
-186
-159
-142
-279
-174
403
554
-248
-924
-692
-249
-147
-115
-34
-30
-48
-27
-7
6
30
65
93
101
112
139
163
164
147
130
127
121
101
79
56
29
0
-32
-62
-71
-70
-61
-31
-13
-32
-37
-27
-50
-24
4
-140
-116
446
806
223
-514
-490
-145
-60
-61
-2
9
6
42
71
94
134
170
198
237
289
345
389
396
371
357
358
328
269
220
161
84
43
30
-21
-79
-69
-22
5
3
-28
-45
-26
-25
-6
45
-47
-65
437
837
195
-778
-852
-372
-164
-125
-39
-33
-54
-14
0
-6
40
83
92
111
133
141
153
159
135
88
39
-3
-38
-84
-141
-178
-193
-223
-266
-284
-288
-308
-325
-336
-376
-412
-414
-430
-416
-345
-390
-417
12
477
59
-826
-990
-506
-207
-175
-139
-130
-158
-135
-94
-73
-39
5
44
86
123
146
166
177
169
154
153
153
138
119
109
100
84
59
29
13
14
11
16
34
29
19
33
27
43
104
15
-82
340
919
629
-228
-446
-51
156
148
213
263
246
257
283
285
286
298
312
329
342
351
349
332
311
293
267
226
180
140
106
72
36
4
-23
-50
-72
-75
-54
-38
-72
-130
-162
-194
-216
-183
-253
-424
-189
465
586
-104
-619
-485
-266
-236
-201
-153
-142
-104
-54
-32
-4
39
77
116
154
182
204
223
232
234
232
222
201
164
121
82
42
-3
-40
-55
-56
-47
-14
26
26
13
36
32
0
36
6
-105
190
758
549
-436
-887
-506
-160
-100
-23
32
2
3
19
7
22
53
51
40
36
19
-10
-57
-126
-186
-237
-301
-361
-394
-415
-433
-440
-432
-423
-414
-400
-383
-363
-339
-341
-367
-368
-366
-376
-329
-335
-453
-210
468
545
-343
-970
-672
-234
-139
-88
-4
9
40
108
141
172
228
271
301
340
381
402
397
381
374
377
372
363
352
334
309
286
252
207
174
160
157
166
185
179
142
124
130
116
132
153
35
35
524
935
481
-267
-345
-24
76
65
119
127
109
131
138
126
135
151
159
166
165
154
135
105
72
46
21
-10
-43
-74
-99
-116
-139
-173
-199
-197
-178
-149
-110
-97
-136
-165
-164
-186
-172
-118
-213
-264
210
757
411
-463
-719
-380
-165
-136
-78
-50
-64
-39
-9
-5
14
59
112
156
176
181
198
220
211
178
165
162
134
97
75
48
10
-23
-53
-75
-85
-98
-101
-92
-113
-150
-150
-159
-187
-161
-203
-305
-24
489
273
-632
-1024
-638
-282
-211
-155
-113
-133
-132
-109
-95
-67
-37
-21
0
23
41
56
61
48
33
30
28
13
-9
-27
-36
-40
-51
-75
-94
-94
-90
-80
-68
-88
-122
-116
-115
-135
-95
-101
-220
-16
615
753
7
-579
-379
-45
6
32
103
120
143
186
204
226
265
294
326
368
394
401
399
386
366
350
331
305
274
231
183
151
127
83
36
15
12
14
31
37
0
-25
-26
-54
-49
-24
-165
-217
269
713
246
-553
-655
-316
-178
-156
-92
-86
-108
-88
-71
-69
-53
-32
-11
16
39
59
78
83
67
52
43
22
-18
-64
-104
-138
-170
-208
-243
-260
-259
-241
-199
-166
-182
-207
-188
-181
-180
-128
-177
-309
-6
661
665
-152
-652
-432
-172
-134
-83
-30
-40
-28
9
25
45
83
116
149
189
218
239
264
280
274
266
258
237
204
160
109
72
43
8
-20
-32
-41
-33
-10
-29
-75
-72
-70
-108
-74
-53
-177
-34
547
630
-230
-898
-650
-224
-131
-79
15
3
-24
17
44
41
73
129
164
193
226
229
207
205
202
172
145
130
105
75
52
31
8
-19
-43
-54
-60
-67
-63
-66
-106
-135
-136
-169
-176
-136
-232
-283
157
602
154
-689
-799
-366
-157
-143
-74
-41
-64
-48
-9
14
37
66
95
123
153
179
184
172
160
151
145
148
145
120
81
45
17
-6
-28
-44
-53
-55
-37
-8
-10
-33
-34
-42
-46
0
-58
-193
98
706
615
-239
-675
-370
-83
-51
-7
33
12
15
36
44
71
108
131
163
197
213
221
227
206
170
156
148
115
71
38
6
-32
-74
-112
-134
-146
-160
-150
-108
-97
-138
-160
-160
-176
-134
-109
-267
-240
314
631
10
-733
-707
-357
-241
-206
-147
-152
-151
-108
-88
-72
-19
31
58
88
125
149
155
156
174
213
235
208
171
162
155
131
107
87
67
54
48
49
79
106
78
43
49
27
-7
41
5
-130
147
742
599
-347
-826
-484
-148
-90
-20
34
12
24
41
27
58
107
108
122
176
210
208
197
178
164
162
134
79
53
48
16
-27
-57
-91
-119
-118
-111
-113
-111
-120
-141
-139
-148
-183
-147
-107
-224
-156
391
642
-71
-865
-790
-331
-168
-154
-90
-75
-103
-94
-60
-27
3
37
66
74
88
129
146
113
84
95
104
76
40
24
13
0
4
3
-41
-82
-64
-38
-49
-58
-64
-79
-79
-77
-61
-16
-102
-238
94
697
512
-426
-848
-483
-158
-97
-17
31
-2
20
76
90
106
146
180
207
236
262
278
271
251
238
222
189
159
141
112
77
58
47
33
15
-7
-17
12
50
28
-25
-28
-23
-52
-17
-9
-187
-125
506
829
111
-701
-632
-215
-92
-67
3
-8
-31
12
42
49
69
88
109
148
180
189
191
182
153
122
109
109
102
74
42
28
2
-58
-106
-113
-117
-119
-90
-65
-89
-114
-110
-123
-123
-99
-211
-298
98
611
303
-541
-790
-415
-172
-160
-120
-93
-109
-85
-58
-62
-43
0
27
51
83
107
121
126
114
99
95
88
63
28
-9
-45
-83
-133
-184
-202
-191
-168
-124
-82
-96
-125
-98
-84
-117
-81
-61
-196
-81
533
800
107
-632
-572
-202
-65
-5
55
7
-35
37
106
101
108
146
160
184
233
223
179
207
254
229
189
189
167
98
61
81
72
11
-20
-27
-58
-53
-1
1
-36
-27
-16
-65
-87
-41
-95
-139
253
726
347
-567
-808
-384
-135
-110
-4
52
-8
-11
38
49
76
127
148
183
236
225
207
245
232
146
108
113
84
33
4
3
9
-27
-100
-141
-132
-126
-130
-121
-134
-174
-152
-102
-120
-114
-88
-202
-131
439
703
-18
-780
-654
-208
-76
-50
14
6
-14
16
39
60
97
125
153
202
241
246
232
214
190
173
166
146
112
89
78
55
23
-6
-34
-53
-60
-64
-52
-34
-52
-74
-62
-85
-111
-67
-135
-266
69
653
433
-485
-847
-461
-157
-124
-68
-16
-29
-15
21
37
55
80
99
124
154
171
166
143
111
81
55
26
-4
-39
-83
-130
-174
-220
-260
-280
-289
-297
-284
-250
-242
-269
-280
-275
-285
-246
-187
-283
-307
171
653
257
-568
-744
-377
-159
-123
-63
-28
-25
1
20
36
82
131
156
177
211
255
295
310
311
321
333
331
319
306
288
268
242
211
183
159
143
144
161
183
179
151
144
133
98
128
127
7
213
827
821
-138
-785
-491
-81
0
52
119
103
100
127
133
153
194
214
225
255
289
293
273
262
262
232
177
150
146
109
53
22
-17
-92
-149
-165
-198
-244
-242
-230
-289
-361
-372
-379
-373
-343
-432
-473
-42
427
30
-850
-1071
-662
-372
-306
-252
-232
-230
-188
-159
-143
-97
-50
-9
45
89
110
119
108
83
68
56
28
6
9
16
-7
-44
-61
-68
-87
-101
-98
-88
-78
-83
-103
-107
-108
-124
-96
-84
-202
-124
411
665
7
-726
-629
-183
-35
-18
45
55
51
89
110
118
152
195
236
276
300
312
310
276
223
186
168
156
151
141
120
110
103
67
30
39
55
34
20
34
26
9
12
-13
-37
0
-48
-164
89
614
506
-306
-730
-405
-63
-9
22
63
47
52
80
83
95
135
175
205
226
242
247
222
174
141
126
110
96
90
72
39
10
-15
-53
-82
-77
-74
-90
-86
-80
-110
-118
-101
-138
-150
-99
-187
-226
245
680
153
-742
-819
-338
-122
-114
-54
-39
-63
-34
-5
-3
16
52
96
147
180
188
189
182
161
139
130
122
100
67
35
11
-2
-22
-64
-105
-112
-96
-79
-64
-70
-95
-89
-85
-127
-108
-84
-218
-95
575
821
-17
-807
-642
-219
-132
-121
-70
-80
-77
-37
-23
-28
-39
-50
-38
-7
