# session 6
-11
93
-232
255
1434
1479
591
413
795
842
762
794
734
686
773
839
835
816
764
700
668
653
632
592
540
487
425
372
357
333
250
155
95
45
-20
-72
-76
-43
-24
-61
-144
-222
-293
-349
-340
-395
-519
-139
763
917
-99
-862
-624
-224
-141
-98
-47
-51
-27
-7
-20
1
50
91
138
171
174
180
208
226
210
182
164
150
127
99
74
54
23
-18
-34
-15
12
20
-18
-74
-75
-71
-119
-101
-93
-246
-109
577
831
35
-742
-659
-322
-247
-214
-155
-180
-183
-110
-51
-11
28
18
-28
-24
33
67
70
60
7
-79
-110
-83
-93
-142
-155
-142
-167
-210
-218
-197
-176
-155
-126
-99
-64
-35
-70
-99
-51
-79
-23
592
1264
871
-228
-687
-448
-303
-327
-281
-255
-276
-247
-203
-204
-208
-163
-89
-34
7
57
94
95
68
26
3
16
25
3
-14
-5
3
-22
-67
-85
-56
-11
14
7
13
70
107
99
115
58
-37
326
1031
980
24
-588
-401
-146
-107
-51
-13
-31
7
67
87
122
171
194
211
226
219
219
221
179
123
113
120
102
73
44
1
-24
-8
-41
-154
-195
-135
-173
-300
-281
-178
-214
-252
-162
-226
-298
277
1044
719
-404
-849
-497
-233
-185
-92
-56
-108
-101
-62
-62
-60
-12
56
104
120
129
153
175
167
132
105
97
82
68
69
70
63
63
66
69
70
64
54
32
25
66
79
65
133
142
59
389
1044
929
-47
-579
-286
-9
-5
43
88
36
30
80
79
77
125
142
116
161
256
267
199
131
53
-26
-37
-22
-63
-113
-108
-104
-143
-186
-217
-244
-253
-258
-312
-389
-394
-351
-324
-275
-278
-364
-96
661
963
222
-627
-693
-378
-263
-295
-308
-312
-315
-311
-287
-243
-225
-242
-233
-183
-131
-96
-86
-99
-100
-75
-53
-33
13
55
56
41
29
34
82
122
104
113
170
174
160
176
162
179
206
108
287
1045
1403
590
-347
-391
-70
20
39
71
25
-23
-22
3
60
139
208
253
271
273
275
266
228
176
138
117
85
45
20
-4
-45
-77
-111
-182
-233
-208
-192
-255
-309
-300
-315
-337
-290
-356
-514
-129
752
812
-274
-1038
-791
-401
-317
-235
-123
-99
-92
-66
-37
8
49
78
115
154
195
236
244
216
185
157
130
118
122
144
174
155
96
87
110
91
95
142
109
39
79
102
14
34
104
3
185
890
1086
227
-553
-471
-139
-18
42
63
24
29
47
23
6
0
-5
39
120
183
210
187
139
134
148
88
-37
-125
-145
-171
-235
-278
-292
-340
-403
-400
-321
-249
-248
-293
-337
-363
-312
-228
-283
-192
480
1064
553
-431
-645
-289
-145
-159
-93
-73
-121
-151
-179
-190
-137
-75
-39
-2
23
22
35
51
32
6
13
34
46
42
36
46
38
-2
-9
15
15
19
28
7
22
83
106
141
151
11
116
855
1394
793
-211
-462
-181
-33
-13
11
-18
-60
-82
-126
-136
-64
22
77
127
185
224
222
183
130
85
61
37
2
-14
-18
-66
-144
-183
-217
-280
-293
-253
-260
-273
-220
-228
-290
-226
-213
-372
-79
780
956
-23
-819
-670
-310
-195
-105
-33
-50
-43
2
35
83
131
152
190
246
275
286
280
235
192
197
199
165
162
213
224
150
80
91
122
116
140
205
193
110
88
90
48
53
39
-41
235
896
985
157
-535
-467
-205
-139
-105
-69
-81
-75
-70
-100
-110
-77
-43
-23
-11
-8
-12
-19
-44
-99
-140
-133
-133
-179
-214
-221
-249
-294
-334
-377
-390
-338
-289
-318
-382
-384
-320
-273
-249
-229
-253
-66
620
1124
550
-426
-589
-210
-107
-171
-99
-40
-65
-72
-65
-68
-60
-51
-36
-2
30
42
50
50
41
42
55
73
100
113
89
59
49
48
71
116
138
153
177
156
129
163
192
197
195
116
246
932
1436
822
-202
-445
-147
-12
1
30
-2
-30
-15
-61
-130
-126
-78
-25
52
130
165
157
139
124
94
51
21
-12
-64
-99
-124
-175
-218
-226
-233
-234
-214
-227
-265
-249
-245
-299
-265
-235
-376
-124
808
1156
134
-871
-762
-322
-216
-163
-67
-35
17
74
67
71
107
119
137
188
221
226
224
205
162
129
128
131
109
70
56
83
99
59
9
-3
-4
-16
-33
-51
-64
-76
-74
-27
-61
-205
15
734
976
163
-676
-658
-319
-228
-199
-116
-109
-134
-120
-106
-84
-11
87
160
187
188
210
248
231
172
142
122
75
40
14
-60
-141
-160
-148
-156
-174
-180
-179
-200
-241
-255
-250
-266
-240
-220
-306
-134
555
922
239
-628
-690
-343
-209
-170
-85
-50
-47
-33
-27
-4
35
53
84
149
194
210
225
210
164
156
177
163
135
147
165
154
131
114
92
71
84
133
153
101
47
44
48
75
99
-4
63
706
1242
715
-272
-544
-264
-119
-100
-55
-64
-95
-100
-125
-152
-152
-138
-103
-74
-89
-97
-54
-30
-85
-171
-200
-155
-94
-79
-137
-221
-250
-225
-247
-332
-348
-258
-229
-329
-384
-334
-329
-351
-291
-258
-132
469
1071
687
-313
-665
-311
-67
-71
-33
36
57
68
80
97
126
141
142
168
223
274
303
302
274
234
199
179
176
183
186
166
135
120
130
140
155
188
196
154
134
143
120
127
130
-12
79
768
1188
465
-491
-540
-152
-71
-105
-28
5
-32
-47
-44
-39
-27
-14
8
51
88
93
95
108
73
-11
-55
-62
-129
-220
-233
-217
-271
-337
-350
-369
-398
-382
-368
-382
-351
-336
-385
-316
-176
-266
-243
414
942
350
-602
-719
-335
-173
-116
-23
-37
-67
-24
-26
-73
-72
-41
-2
53
93
117
148
153
109
81
101
115
106
115
129
105
72
61
41
23
66
124
109
65
83
129
129
130
145
59
56
584
1272
1072
106
-417
-232
-35
-32
-16
-13
-61
-76
-69
-87
-106
-97
-71
-35
14
55
70
77
88
88
76
57
19
-23
-37
-46
-97
-170
-237
-289
-278
-211
-210
-272
-264
-257
-362
-380
-263
-340
-355
350
1105
598
-595
-907
-454
-235
-245
-148
-83
-97
-55
-5
-8
-1
36
66
96
142
188
206
189
153
112
91
134
204
200
135
108
116
88
40
39
99
152
128
86
157
243
164
74
133
85
10
475
1108
808
-167
-568
-289
-50
12
57
48
1
-25
-49
-53
-18
25
66
93
82
76
90
57
-6
-50
-124
-221
-234
-197
-217
-261
-255
-234
-256
-291
-277
-221
-183
-192
-220
-211
-183
-185
-179
-174
-157
207
942
1138
335
-459
-452
-163
-94
-81
-52
-99
-141
-117
-101
-111
-108
-89
-63
-32
-2
27
51
50
36
43
62
60
42
38
34
14
12
26
16
19
93
174
171
134
139
125
70
111
183
110
277
1000
1370
580
-411
-507
-156
-35
-28
5
-25
-87
-119
-117
-65
7
51
60
46
48
64
3
-134
-213
-198
-184
-203
-218
-224
-230
-238
-253
-268
-277
-278
-246
-190
-183
-218
-227
-243
-252
-124
-72
-324
-222
700
1232
383
-662
-676
-248
-113
-76
2
6
18
83
81
22
14
58
94
127
177
210
202
174
138
105
98
100
81
57
42
23
13
23
50
105
173
199
173
143
151
161
119
113
154
61
66
632
1150
599
-443
-683
-268
-43
-49
-34
-48
-100
-117
-109
-93
-82
-95
-105
-64
16
66
37
-24
-51
-61
-86
-107
-121
-150
-187
-230
-281
-302
-283
-277
-286
-263
-229
-243
-258
-197
-148
-187
-187
-138
-103
276
1050
1220
322
-513
-477
-187
-152
-151
-109
-139
-165
-125
-72
-24
24
45
50
82
134
158
143
122
114
117
134
147
136
116
104
111
128
119
96
128
206
240
202
157
149
138
116
171
190
31
175
942
1322
491
-499
-527
-120
-2
-3
49
18
-55
-39
20
48
60
86
116
130
114
79
51
27
-10
-41
-68
-105
-122
-120
-171
-281
-375
-389
-355
-375
-415
-359
-349
-500
-540
-405
-388
-424
-375
-476
-409
398
1039
339
-776
-892
-422
-222
-172
-79
-62
-62
-12
19
34
70
91
80
75
103
147
156
116
82
93
113
104
83
85
90
54
6
11
51
65
67
107
164
184
201
250
242
187
222
210
113
463
1175
1102
114
-469
-231
23
28
59
83
29
-13
-34
-41
8
69
81
60
29
3
-1
4
-19
-66
-117
-162
-185
-175
-153
-167
-223
-267
-282
-296
-298
-278
-277
-316
-347
-333
-306
-284
-201
-121
-177
-34
675
1206
633
-350
-559
-228
-89
-82
-15
-19
-86
-99
-85
-70
-3
92
152
176
185
189
216
264
268
203
144
140
144
136
131
100
40
5
10
36
77
105
103
108
133
114
59
93
134
-9
46
759
1317
679
-394
-611
-239
-57
-30
-2
-43
-81
-69
-54
-10
44
52
74
143
179
155
138
138
87
-15
-102
-150
-146
-109
-126
-205
-246
-256
-322
-386
-356
-310
-360
-435
-402
-331
-363
-397
-360
-495
-616
15
992
803
-459
-1097
-742
-405
-352
-256
-186
-201
-163
-103
-89
-56
1
26
42
101
190
264
293
278
241
215
212
208
170
142
174
202
156
115
140
150
129
158
207
191
152
124
99
154
198
74
187
846
1164
433
-393
-380
-44
42
62
106
51
-24
-32
-5
34
62
57
53
67
82
70
31
5
13
-1
-59
-109
-130
-153
-181
-198
-202
-220
-262
-285
-263
-235
-254
-294
-272
-199
-183
-163
-72
-123
-201
319
1132
989
-45
-578
-319
-83
-65
-14
-9
-88
-114
-110
-120
-79
-10
10
23
68
96
99
112
106
71
59
75
73
55
59
80
69
13
-25
-8
22
53
94
92
39
18
7
-52
-57
-26
-61
209
968
1260
442
-444
-473
-178
-104
-72
-31
-94
-153
-118
-61
-34
-22
5
58
120
163
156
110
68
54
57
53
16
-36
-62
-83
-136
-207
-264
-278
-260
-251
-252
-257
-279
-279
-256
-258
-228
-230
-387
-202
690
1159
235
-890
-911
-432
-274
-231
-125
-100
-84
7
68
69
63
75
109
148
161
158
157
133
93
86
110
112
84
68
89
113
102
69
47
41
63
123
167
137
95
88
45
10
66
35
-10
443
1086
826
-176
-627
-320
-44
4
52
63
12
-16
-27
-27
16
78
131
161
135
84
72
70
22
-40
-67
-76
-92
-122
-158
-166
-165
-228
-305
-299
-270
-284
-273
-261
-302
-289
-216
-206
-156
-55
-110
34
788
1283
615
-344
-482
-189
-108
-96
-23
-33
-98
-121
-117
-97
-65
-47
-21
20
39
46
75
85
45
10
11
13
17
47
56
16
-5
6
-13
-24
38
111
138
128
87
54
58
70
60
-34
-50
472
1242
1106
61
-535
-300
-43
-20
17
4
-104
-146
-93
-39
-21
-10
53
138
167
164
167
142
110
101
59
-23
-73
-91
-115
-128
-145
-216
-312
-360
-332
-269
-232
-248
-274
-272
-281
-277
-206
-234
-349
46
930
1028
-36
-825
-594
-207
-170
-138
-19
19
20
47
65
73
91
114
140
173
201
223
234
197
135
112
71
-24
-28
70
86
37
57
82
39
-2
16
75
104
55
21
41
-4
-56
-27
-85
-59
487
960
396
-600
-795
-362
-102
-71
-58
-81
-130
-149
-147
-123
-61
12
34
12
31
76
50
0
19
28
-37
-74
-69
-107
-145
-116
-113
-167
-175
-147
-164
-160
-101
-107
-167
-138
-89
-113
-76
-54
-165
122
1006
1337
469
-410
-400
-99
-17
19
46
12
-10
-47
-103
-73
12
51
68
97
113
114
107
78
40
24
20
4
-10
-3
5
-3
-18
-29
-20
12
53
81
81
58
55
69
48
44
88
31
39
595
1295
1038
17
-484
-265
-79
-79
-36
-35
-115
-142
-116
-93
-40
46
117
164
193
204
203
188
145
81
36
13
-14
-53
-91
-117
-133
-187
-311
-424
-433
-380
-376
-419
-413
-356
-352
-350
-256
-304
-457
13
983
998
-163
-908
-657
-333
-275
-162
-58
-71
-59
-18
-32
-49
-13
40
73
95
121
132
111
88
94
97
77
59
71
98
120
121
93
69
84
99
87
114
165
148
116
128
108
97
121
16
40
634
1115
522
-446
-594
-222
-71
-42
47
50
-9
-4
41
71
75
75
96
119
134
160
154
74
-2
-2
21
3
-53
-121
-174
-200
-215
-237
-267
-293
-291
-268
-273
-313
-321
-278
-287
-349
-287
-185
-263
-93
689
1122
371
-542
-550
-193
-112
-98
-32
-31
-27
-3
-50
-106
-82
-30
8
45
66
63
64
54
11
-26
-30
-31
-40
-43
-53
-73
-73
-59
-56
-51
-26
-4
2
4
9
27
38
46
99
107
68
430
1206
1350
465
-290
-206
69
100
119
163
133
117
153
169
162
162
168
184
223
278
325
342
335
334
341
324
277
234
209
179
122
58
18
-1
-17
-17
0
-18
-74
-110
-142
-175
-154
-217
-367
-60
696
725
-304
-1049
-842
-501
-458
-400
-318
-345
-363
-327
-306
-277
-226
-193
-161
-115
-91
-82
-65
-71
-112
-123
-82
-47
-47
-58
-80
-125
-180
-219
-232
-243
-261
-252
-235
-256
-278
-274
-275
-245
-243
-356
-193
496
831
115
-700
-655
-270
-158
-127
-42
-24
-11
59
105
116
144
188
228
260
293
329
344
319
288
283
284
281
286
289
277
253
211
159
141
164
183
188
201
195
151
116
95
82
97
13
-134
166
844
839
-22
-544
-326
-90
-57
-17
-9
