# session 2
69
-10
303
113
-1041
-2005
-2040
-1882
-1991
-2015
-1929
-1949
-1990
-1988
-2015
-2041
-2013
-1941
-1836
-1714
-1592
-1454
-1265
-1080
-1055
-1146
-1054
-783
-690
-811
-874
-889
-989
-1081
-1103
-1141
-1146
-1102
-1137
-1026
-482
-94
-516
-1130
-1112
-731
-502
-409
-329
-210
-72
-57
-107
-47
6
-50
-55
8
-23
-115
-155
-169
-200
-226
-229
-211
-189
-180
-162
-120
-63
19
131
237
322
403
489
576
639
649
632
655
694
651
586
638
693
595
517
589
615
525
487
568
678
718
690
662
556
461
770
1223
956
159
-150
91
278
340
424
467
494
565
634
696
774
844
887
907
901
881
853
788
701
642
596
520
449
413
350
262
224
198
114
24
-32
-87
-139
-197
-300
-391
-418
-447
-515
-582
-645
-710
-754
-789
-843
-922
-1016
-1110
-1195
-1262
-1297
-1334
-1368
-1338
-1329
-1347
-1030
-477
-517
-1220
-1615
-1359
-977
-716
-500
-329
-155
74
304
533
746
874
937
995
1026
1020
1025
1037
1022
978
934
912
903
875
820
774
751
719
669
620
569
500
428
372
320
263
212
176
146
122
109
94
67
48
58
66
41
1
-47
-99
-112
-112
-154
-155
-145
-241
-79
558
763
-70
-891
-805
-413
-309
-292
-237
-238
-246
-233
-237
-233
-213
-212
-217
-207
-193
-183
-172
-158
-142
-133
-134
-132
-132
-141
-142
-124
-110
-121
-144
-172
-204
-234
-259
-280
-288
-280
-271
-267
-262
-251
-247
-249
-235
-196
-159
-147
-149
-155
-163
-154
-143
-172
-174
-121
-191
-220
272
845
497
-415
-696
-355
-139
-114
-57
-29
-44
-23
11
32
53
66
65
72
85
90
99
127
163
182
190
202
214
211
195
187
193
195
185
164
129
90
66
47
28
25
37
42
41
40
33
26
32
47
71
100
107
89
65
41
36
51
44
52
88
23
46
543
1020
595
-280
-488
-145
23
9
46
68
52
65
77
68
68
77
80
79
75
80
93
105
112
113
107
100
98
95
84
77
84
93
80
52
25
-1
-24
-35
-37
-37
-31
-25
-29
-35
-40
-50
-61
-61
-42
-3
22
6
-19
-29
-44
-53
-52
-64
-45
-26
-108
18
622
962
321
-516
-578
-233
-110
-115
-82
-70
-71
-63
-72
-76
-62
-59
-61
-50
-31
-12
-3
-3
-3
7
19
16
-4
-26
-33
-25
-14
-14
-33
-66
-102
-132
-149
-155
-165
-179
-179
-160
-145
-144
-147
-143
-135
-134
-145
-160
-143
-97
-71
-83
-92
-93
-102
-100
-102
-104
-60
-83
-163
157
841
871
-26
-681
-501
-169
-101
-73
-26
-33
-34
-11
-1
9
18
16
24
44
49
53
79
104
109
110
113
107
98
93
85
81
89
94
78
48
27
23
14
-2
-7
-5
-8
-5
8
15
19
30
37
29
5
-17
-19
-8
13
41
56
42
19
4
-3
9
14
6
26
3
-50
265
918
978
152
-485
-342
-54
-27
-29
5
-8
-12
9
3
-3
12
22
20
17
18
33
50
48
44
56
57
38
20
9
1
2
12
20
11
-16
-41
-54
-74
-92
-75
-56
-75
-92
-69
-51
-58
-63
-60
-62
-62
-65
-71
-73
-83
-102
-113
-104
-68
-29
-30
-54
-62
-73
-83
-63
-56
-57
-15
-29
8
487
1072
810
-116
-538
-288
-91
-100
-73
-48
-80
-84
-66
-63
-56
-44
-36
-23
-15
-19
-6
15
9
12
50
55
6
-13
7
3
-13
-8
4
9
-4
-42
-78
-92
-82
-63
-64
-69
-39
-11
-28
-35
-18
-29
-51
-35
-9
-8
-19
-31
-44
-59
-61
-28
26
49
35
24
18
8
11
-3
-24
10
6
-3
398
1058
977
60
-511
-321
-76
-63
-31
19
5
0
16
11
5
12
25
39
48
55
68
75
72
79
93
97
87
73
50
28
36
57
48
12
-23
-48
-69
-90
-111
-118
-109
-111
-123
-121
-105
-94
-90
-94
-116
-131
-119
-114
-142
-172
-175
-165
-144
-104
-78
-89
-105
-110
-113
-103
-100
-102
-64
-87
-114
300
979
878
-70
-627
-390
-114
-90
-58
-19
-37
-31
-13
-22
-17
7
21
32
45
52
66
90
105
112
121
120
110
113
120
116
117
127
118
93
77
62
33
4
-8
-6
1
5
6
3
4
9
6
0
4
7
-10
-30
-34
-39
-51
-37
5
29
14
-16
-41
-44
-28
-41
-54
-14
-52
-100
303
935
770
-170
-666
-399
-126
-106
-80
-40
-52
-47
-29
-34
-39
-29
-17
-4
5
8
19
34
39
38
45
54
51
39
27
22
29
45
47
24
-7
-33
-61
-84
-85
-81
-88
-91
-83
-79
-78
-61
-40
-43
-65
-85
-94
-96
-91
-66
-21
2
-8
-22
-40
-64
-55
-44
-52
-18
-33
-103
210
868
882
17
-582
-388
-90
-51
-31
6
-10
-7
17
16
20
33
29
30
48
57
53
63
86
103
106
97
89
86
81
77
77
78
72
54
25
-3
-26
-51
-70
-69
-54
-46
-45
-45
-45
-46
-47
-46
-53
-72
-85
-81
-68
-33
7
3
-24
-36
-45
-49
-55
-72
-33
-11
-112
71
760
1010
196
-630
-572
-210
-118
-96
-42
-60
-81
-53
-37
-37
-21
1
12
15
18
31
56
83
97
103
108
106
97
89
79
66
62
64
50
17
-21
-59
-81
-84
-89
-109
-119
-105
-93
-104
-115
-110
-112
-132
-148
-155
-153
-122
-76
-63
-85
-112
-129
-117
-94
-103
-83
-46
-111
-7
576
960
384
-450
-542
-198
-49
-24
14
1
-8
30
54
61
70
78
96
120
130
138
149
156
167
171
159
158
169
163
146
138
132
127
126
106
66
23
-9
-23
-14
-17
-39
-44
-25
-13
-13
-17
-28
-48
-74
-80
-34
17
-1
-46
-42
-35
-63
-80
-83
-67
-23
-82
-130
287
873
627
-305
-711
-402
-138
-110
-83
-68
-80
-63
-62
-82
-64
-36
-35
-45
-45
-24
1
1
-2
14
21
16
17
19
16
17
22
24
16
2
-9
-34
-67
-76
-80
-98
-91
-57
-47
-53
-47
-51
-64
-56
-48
-51
-27
6
-5
-28
-34
-54
-62
-45
-51
-34
-15
-102
33
655
951
233
-593
-575
-204
-90
-57
14
6
-19
7
15
3
19
52
71
70
74
93
107
110
128
157
161
145
132
125
126
139
143
132
118
84
35
17
19
-16
-54
-40
-10
-14
-19
-5
-15
-49
-62
-62
-59
-21
24
8
-29
-40
-65
-82
-60
-64
-62
-39
-118
-28
575
962
317
-578
-654
-275
-114
-81
-33
-58
-90
-57
-32
-38
-35
-18
-4
-5
-13
4
36
46
36
40
58
66
51
39
46
54
53
54
44
7
-25
-43
-76
-100
-86
-81
-107
-115
-99
-101
-110
-115
-136
-144
-109
-76
-77
-82
-91
-126
-133
-93
-100
-114
-28
-33
-145
192
862
733
-253
-761
-429
-115
-81
-18
42
11
10
47
43
25
40
71
81
69
70
99
128
140
147
154
160
164
153
130
128
145
143
121
103
77
30
-6
-13
-14
-24
-28
-11
2
-11
-25
-17
-19
-33
-3
48
40
-2
-7
-15
-51
-57
-50
-45
-15
-73
-110
326
892
569
-403
-753
-385
-122
-96
-49
-36
-61
-24
5
-16
-9
18
7
-7
18
40
36
51
94
103
71
58
71
67
55
59
72
68
40
0
-28
-42
-60
-80
-84
-82
-86
-80
-68
-78
-92
-82
-71
-62
-30
-14
-38
-57
-63
-80
-87
-96
-104
-55
-67
-157
142
803
779
-165
-779
-517
-164
-106
-65
-12
-31
-27
1
-6
-2
29
37
28
38
54
63
81
97
95
103
118
101
73
82
103
95
76
62
39
11
-15
-34
-49
-67
-74
-55
-42
-62
-77
-58
-38
-39
-24
13
26
4
-17
-36
-54
-54
-72
-82
-36
-61
-64
386
945
609
-376
-744
-371
-77
-45
-15
17
22
44
57
58
74
80
65
64
80
93
100
110
110
95
76
65
55
45
33
22
25
32
12
-29
-59
-83
-108
-115
-107
-105
-105
-94
-85
-90
-101
-90
-48
1
20
-1
-30
-50
-64
-58
-59
-83
-55
-33
-112
81
720
920
126
-660
-594
-230
-133
-125
-74
-67
-74
-54
-36
-30
-33
-41
-33
-8
10
27
50
65
69
71
68
64
71
85
95
105
116
108
72
35
11
-13
-32
-42
-61
-80
-79
-67
-63
-62
-56
-35
6
39
35
15
9
5
5
13
-13
-19
43
3
-25
447
1031
664
-350
-710
-349
-89
-52
5
24
-14
-14
2
6
17
20
17
16
-4
-13
25
54
48
59
84
76
54
57
59
46
40
40
19
-15
-41
-70
-105
-125
-127
-123
-109
-90
-79
-76
-82
-81
-47
3
10
-13
-18
-26
-44
-35
-40
-60
-16
-32
-99
259
893
722
-273
-776
-434
-105
-73
-41
-6
-21
-2
19
-2
-1
32
53
51
38
42
69
77
66
78
103
100
79
69
70
77
87
81
51
25
8
-21
-55
-72
-73
-74
-78
-82
-87
-88
-93
-110
-108
-68
-24
-15
-24
-28
-40
-60
-50
-39
-56
-29
-25
-117
84
701
830
30
-649
-491
-127
-55
-43
12
11
2
24
26
16
23
31
25
25
44
65
73
76
83
92
99
100
90
72
53
44
54
60
41
1
-43
-81
-106
-113
-111
-110
-110
-108
-101
-89
-78
-77
-90
-102
-101
-94
-66
-22
-10
-41
-71
-81
-78
-84
-96
-63
-58
-153
10
629
892
190
-582
-549
-200
-106
-95
-42
-49
-58
-22
-12
-21
-11
-3
6
25
36
42
65
84
85
95
112
113
110
108
99
102
112
91
67
73
46
-26
-65
-66
-67
-41
9
34
39
44
41
68
135
160
134
156
225
240
202
194
245
305
316
272
218
189
180
161
136
142
147
79
12
-11
-128
-106
500
1116
715
-241
-553
-303
-187
-136
45
102
-32
-125
-170
-309
-429
-368
-259
-245
-233
-192
-179
-103
45
59
-89
-182
-125
-11
23
-57
-126
-110
-79
-78
-120
-206
-290
-370
-417
-358
-301
-402
-603
-821
-1002
-1042
-979
-975
-1064
-1153
-1139
-1069
-1136
-1261
-1098
-638
-266
-136
20
291
342
169
239
471
425
282
402
882
1777
2349
1527
112
-181
386
526
313
370
546
574
579
634
659
674
747
840
867
841
877
979
929
709
747
1134
1243
900
771
996
1093
1117
1231
1130
917
965
969
690
540
574
370
-57
-367
-526
-705
-915
-1030
-1115
-1247
-1134
-728
-597
-910
-1229
-1457
-1670
-1810
-2085
-2443
-2414
-2195
-2077
-1495
-552
-444
-1240
-1834
-1890
-1639
-1033
-352
-23
134
319
453
657
815
591
326
426
541
476
509
606
613
688
869
955
916
947
1139
1338
1372
1242
1044
847
715
716
899
1192
1368
1339
1371
1625
1761
1588
1515
1627
1399
880
613
443
19
-393
-687
-1112
-1450
-1390
-1256
-1389
-1572
-1606
-1675
-1713
-1308
-789
-1083
-2005
-2541
-2608
-2563
-2257
-1896
-1844
-1754
-1557
-1653
-1675
-1265
-1043
-1097
-691
-86
20
217
975
1449
1467
1750
1894
1376
1048
1250
1153
719
582
664
628
505
356
279
368
412
336
412
576
554
502
555
522
458
577
778
881
942
1083
1175
1046
1014
1295
1294
845
679
768
649
896
1548
1318
162
-496
-347
-112
-5
-71
-465
-947
-1229
-1357
-1434
-1501
-1492
-1314
-1168
-1183
-1076
-839
-760
-769
-796
-771
-210
775
1176
842
643
787
820
651
366
2
-194
-139
-109
-164
-125
-35
-31
-65
-9
99
52
-228
-528
-644
-601
-527
-530
-553
-423
-257
-299
-311
49
536
866
1345
2139
2534
1886
761
107
23
152
373
592
654
578
478
380
240
67
-37
-129
-426
-825
-1016
-1067
-1131
-1122
-1061
-972
-788
-770
-1069
-1257
-1104
-858
-703
-609
-334
127
143
-440
-817
-714
-642
-712
-692
-617
-571
-508
-449
-466
-488
-335
-37
145
145
129
120
42
-116
-424
-666
-252
556
525
-421
-930
-601
-249
-49
490
1410
2320
2811
2771
2536
2347
1987
1448
1094
973
908
950
1072
1093
1055
1006
849
650
497
295
40
-240
-648
-1083
-1339
-1550
-1776
-1741
-1548
-1611
-1764
-1655
-1543
-1631
-1537
-1195
-961
-650
4
507
783
1709
3034
3089
1787
887
857
751
460
370
312
221
303
436
404
276
161
4
-223
-431
-581
-708
-792
-788
-691
-521
-370
-338
-312
-97
257
544
677
686
550
246
-21
-98
-247
-546
-536
-173
11
-66
-107
-152
-274
-310
-263
-313
-497
-775
-1099
-1327
-1416
-1530
-1645
-1507
-1225
-1217
-1468
-1565
-1369
-1121
-1073
-985
-147
1223
1602
575
-328
-200
279
515
563
513
386
241
156
121
41
9
170
379
467
475
453
431
421
328
160
71
69
88
133
175
253
398
387
254
480
1060
1498
1716
1790
1579
1282
1179
979
552
415
711
901
825
804
864
837
731
561
415
436
406
30
-468
-637
-297
209
77
-801
-1342
-1044
-737
-840
-890
-753
-592
-403
-271
-142
166
309
-8
-267
-121
56
75
100
144
165
137
41
5
58
64
98
256
380
396
374
255
35
-143
-266
-369
-357
-280
-300
-321
-237
-215
-249
-89
257
619
927
991
724
447
326
179
50
69
165
482
1064
1211
513
-226
-342
-268
-354
-375
-390
-620
-855
-884
-895
-1014
-1068
-960
-857
-931
-1116
-1173
-1029
-896
-921
-1004
-950
-626
-282
-337
-538
-394
-173
-250
-457
-601
-656
-630
-604
-610
-689
-907
-1020
-797
-506
-429
-439
-416
-415
-459
-529
-605
-612
-554
-534
-501
-341
-257
-329
24
986
1592
1285
877
1012
1292
1292
1169
1175
1175
922
668
794
1016
981
978
1137
1120
1006
1090
1113
899
831
953
826
501
393
483
533
538
