# session 4
-46
-135
137
-79
-1244
-2238
-2237
-1925
-1898
-1865
-1687
-1595
-1633
-1669
-1613
-1427
-1089
-731
-745
-1351
-2077
-2264
-1905
-1465
-1182
-1002
-886
-826
-751
-624
-509
-462
-469
-482
-457
-394
-330
-293
-291
-312
-330
-354
-382
-365
-312
-275
-180
39
247
335
404
507
548
512
481
486
514
539
521
487
473
463
460
472
441
360
299
235
88
-37
17
145
170
138
167
400
963
1392
930
-113
-619
-375
-55
54
106
143
154
172
177
150
123
104
92
86
59
16
19
115
232
225
108
61
106
100
63
90
107
37
-28
-39
-96
-224
-309
-312
-302
-305
-287
-222
-120
-34
11
58
121
164
176
149
80
14
-7
30
84
88
115
254
425
791
1568
2016
1254
-16
-507
-252
46
189
220
176
182
220
199
190
220
202
170
201
232
200
157
145
133
102
72
50
14
-41
-72
-57
-44
-84
-173
-276
-340
-324
-283
-327
-431
-480
-458
-441
-455
-464
-450
-432
-406
-347
-304
-336
-371
-330
-284
-315
-356
-345
-320
-330
-293
62
726
979
326
-517
-681
-372
-162
-120
-121
-144
-162
-168
-186
-180
-136
-122
-149
-155
-149
-210
-351
-496
-561
-514
-383
-234
-112
-27
14
35
91
156
149
90
57
55
57
72
87
85
84
100
135
194
237
226
225
287
321
296
307
352
346
309
268
197
157
193
263
533
1124
1435
823
-160
-512
-247
43
212
332
323
207
108
37
-14
-16
-7
-24
-25
-10
-32
-64
-64
-63
-80
-80
-61
-54
-57
-44
-17
3
-5
-41
-82
-107
-126
-165
-209
-201
-144
-129
-184
-217
-197
-190
-211
-199
-155
-142
-160
-173
-198
-226
-204
-178
-215
-255
-275
-264
118
1002
1473
715
-428
-729
-376
-138
-97
-49
9
57
91
86
61
40
22
17
30
38
35
38
47
49
50
52
45
39
44
39
35
49
48
2
-46
-60
-70
-95
-108
-106
-107
-114
-113
-112
-120
-120
-107
-106
-114
-100
-86
-101
-106
-91
-83
-72
-89
-137
-115
-82
42
801
1846
1637
111
-848
-570
-166
-129
-99
-45
-78
-90
-59
-57
-63
-52
-46
-38
-5
41
77
93
97
118
167
189
164
152
191
235
233
196
143
77
15
-17
-27
-48
-88
-127
-144
-147
-157
-177
-198
-217
-212
-181
-172
-196
-216
-238
-266
-275
-271
-252
-218
-232
-276
-269
-179
183
823
986
191
-674
-719
-340
-137
-51
22
7
-33
-17
14
46
95
121
114
125
165
206
232
233
234
264
273
243
244
256
215
182
187
148
80
55
42
16
16
36
35
8
-19
-29
-30
-35
-33
-5
13
0
8
45
53
36
30
1
-28
4
12
-42
-36
1
110
628
1258
994
-76
-662
-465
-326
-421
-334
-184
-220
-236
-120
-53
-66
-71
-75
-58
-13
-16
-44
-20
14
41
105
151
135
120
133
160
200
212
166
123
103
50
-23
-61
-79
-113
-147
-160
-161
-161
-162
-170
-185
-197
-210
-223
-226
-229
-252
-283
-293
-287
-278
-284
-309
-318
-298
-208
103
518
458
-250
-901
-935
-626
-403
-301
-233
-208
-227
-246
-245
-246
-252
-235
-182
-84
89
320
532
668
717
681
596
513
452
385
293
201
127
52
-13
-22
10
43
88
142
164
158
162
179
209
243
210
87
3
48
120
105
32
-22
-33
-29
-42
-51
-42
-50
-67
-75
15
461
1087
1022
58
-744
-711
-370
-221
-171
-139
-164
-190
-180
-161
-138
-122
-123
-108
-72
-60
-67
-46
-3
28
53
85
127
190
256
290
306
336
354
332
297
268
235
201
181
168
159
157
147
120
84
44
0
-36
-54
-56
-53
-58
-64
-56
-55
-50
3
33
-23
-54
-8
108
569
1297
1332
319
-581
-539
-161
-43
-34
-3
-12
-19
1
3
0
17
34
49
60
50
10
-37
-53
-26
14
23
3
-1
24
37
31
34
32
-3
-61
-125
-184
-224
-247
-277
-313
-336
-350
-370
-395
-417
-431
-435
-435
-447
-462
-464
-464
-483
-518
-545
-550
-538
-528
-524
-505
-475
-363
20
462
298
-508
-1091
-998
-660
-450
-330
-243
-190
-129
-51
8
34
71
165
282
347
340
302
287
333
413
452
432
401
369
346
397
485
476
403
370
302
148
31
-8
-38
-53
-35
-45
-96
-139
-147
-96
-2
44
20
3
16
22
24
53
101
126
116
98
95
112
120
196
627
1264
1222
226
-667
-680
-276
-58
-54
-100
-110
-71
-12
56
107
112
96
99
126
153
149
142
188
248
254
240
277
345
374
348
326
352
388
397
404
430
443
413
347
278
220
161
119
124
153
165
156
131
84
45
28
5
-30
-50
-70
-102
-106
-99
-144
-185
-203
-200
203
1111
1411
334
-879
-955
-470
-272
-249
-203
-182
-154
-135
-158
-135
-72
-56
-57
-47
-48
-32
-6
-26
-52
-27
6
5
6
21
25
17
-13
-79
-161
-227
-280
-319
-341
-358
-371
-372
-364
-357
-346
-337
-343
-347
-320
-291
-298
-311
-312
-334
-358
-347
-341
-357
-368
-392
-415
-420
-384
-38
633
791
-52
-938
-990
-667
-546
-518
-479
-493
-491
-441
-409
-387
-361
-348
-322
-272
-233
-208
-175
-140
-104
-58
-13
15
43
88
137
169
196
237
267
294
364
446
484
501
516
505
488
487
472
436
405
386
376
372
363
362
372
365
341
330
322
310
303
290
289
316
373
653
1214
1400
667
-305
-563
-243
27
117
164
175
135
91
79
99
123
136
149
174
184
157
133
146
161
158
173
198
201
202
212
195
155
120
82
32
-15
-48
-53
-21
9
-7
-46
-57
-44
-50
-75
-80
-73
-95
-135
-153
-156
-180
-212
-215
-213
-231
-249
-278
-316
-336
-312
-3
732
1128
385
-748
-1037
-644
-360
-274
-205
-181
-182
-153
-123
-104
-87
-78
-67
-48
-33
-24
-17
-10
6
27
41
54
67
81
101
102
64
9
-40
-92
-145
-195
-248
-284
-281
-254
-234
-232
-239
-237
-226
-220
-215
-212
-219
-222
-209
-202
-215
-231
-241
-234
-206
-193
-196
-192
-188
59
746
1171
523
-516
-755
-384
-195
-208
-172
-140
-145
-130
-114
-102
-73
-54
-48
-29
-4
8
11
17
27
39
52
66
81
101
127
153
164
157
134
100
72
63
60
45
30
34
46
43
36
39
39
35
43
59
77
95
99
92
95
100
88
89
114
110
81
88
126
357
972
1402
824
-270
-668
-328
-33
26
71
115
118
137
174
204
242
298
341
361
372
366
345
336
347
353
344
332
324
319
318
308
272
220
161
80
-9
-67
-111
-163
-191
-201
-243
-285
-276
-258
-259
-229
-183
-181
-195
-175
-168
-195
-197
-176
-186
-200
-197
-214
-224
-211
-108
362
1032
981
-27
-865
-797
-389
-217
-191
-161
-151
-157
-163
-163
-137
-103
-94
-91
-77
-72
-63
-27
4
1
-1
8
6
16
57
86
79
44
-14
-69
-95
-126
-184
-221
-209
-203
-235
-255
-240
-236
-258
-265
-252
-255
-271
-262
-241
-247
-256
-238
-238
-261
-249
-233
-261
-278
-270
-114
464
1064
734
-318
-827
-545
-272
-254
-225
-183
-193
-179
-143
-135
-125
-97
-74
-59
-35
-4
20
45
81
113
130
151
185
218
246
272
280
258
214
172
144
125
104
92
99
107
117
133
156
200
247
243
208
207
219
210
210
228
236
236
231
224
226
229
231
247
252
347
810
1418
1295
285
-528
-463
-60
109
123
194
320
371
290
226
274
309
293
330
396
412
416
444
448
427
422
427
405
361
325
311
298
243
168
147
159
109
26
-1
-6
-39
-69
-87
-103
-115
-139
-180
-208
-225
-269
-328
-349
-342
-372
-441
-496
-525
-547
-561
-584
-608
-602
-555
-315
215
476
-138
-1052
-1271
-931
-713
-687
-651
-630
-630
-611
-614
-631
-612
-595
-609
-619
-610
-599
-582
-549
-506
-454
-380
-287
-206
-158
-139
-154
-214
-301
-367
-407
-450
-482
-484
-494
-517
-492
-436
-400
-328
-193
-87
-34
35
115
185
272
360
437
535
611
605
599
651
665
622
603
584
687
1221
1818
1538
502
-108
70
368
462
502
509
475
473
481
460
457
481
483
464
455
450
441
443
446
421
399
420
449
447
434
417
372
309
250
191
133
84
37
-5
-28
-40
-57
-81
-107
-121
-128
-145
-160
-163
-181
-208
-199
-173
-184
-202
-192
-193
-202
-185
-203
-247
-257
-251
86
1000
1509
588
-750
-1012
-560
-339
-312
-252
-246
-257
-223
-216
-216
-177
-151
-154
-134
-99
-76
-54
-23
2
20
40
59
70
78
87
88
64
13
-43
-86
-110
-125
-144
-156
-162
-174
-176
-150
-136
-151
-164
-182
-203
-179
-131
-129
-161
-184
-184
-188
-225
-242
-187
-162
-232
-274
-257
-195
207
933
1036
68
-842
-798
-405
-302
-291
-228
-242
-275
-249
-226
-204
-163
-126
-75
-2
48
81
124
135
106
102
127
115
91
124
156
123
82
58
5
-51
-67
-85
-127
-160
-169
-163
-160
-167
-165
-156
-162
-167
-150
-139
-148
-146
-129
-126
-133
-121
-106
-120
-133
-107
-84
-98
-97
-64
55
445
926
815
20
-572
-457
-113
37
93
158
193
213
255
306
344
369
395
418
430
441
455
463
475
499
509
505
515
543
557
543
514
482
434
368
307
268
238
195
123
41
-19
-64
-119
-162
-180
-196
-203
-185
-173
-169
-139
-109
-116
-129
-108
-71
-55
-55
-59
-62
-67
-90
28
562
1127
823
-211
-816
-644
-336
-220
-168
-119
-96
-99
-103
-75
-53
-58
-26
18
-7
-45
-21
10
17
43
93
129
130
113
113
119
91
33
-15
-37
-55
-94
-156
-203
-210
-197
-198
-218
-237
-246
-250
-255
-257
-259
-265
-269
-262
-246
-238
-243
-246
-252
-263
-254
-247
-273
-280
-225
-59
359
787
555
-302
-857
-707
-378
-254
-251
-265
-270
-255
-246
-241
-209
-167
-138
-104
-62
-31
-10
15
44
72
99
119
121
117
121
120
99
68
21
-46
-96
-115
-136
-168
-185
-182
-175
-173
-175
-168
-143
-108
-61
19
96
114
112
162
232
280
314
335
383
496
550
451
326
255
356
861
1330
866
-259
-842
-649
-357
-227
-142
-110
-110
-65
-3
45
96
150
201
248
281
299
314
328
343
360
377
394
406
402
386
356
312
264
202
119
70
87
107
101
107
113
90
74
84
81
68
69
66
45
28
12
-7
-16
-23
-48
-64
-64
-72
-75
-84
-126
-143
-138
-38
492
1205
1029
-105
-843
-639
-301
-253
-238
-202
-219
-225
-206
-196
-184
-170
-158
-140
-120
-101
-91
-95
-88
-66
-54
-49
-41
-47
-61
-59
-68
-121
-190
-241
-271
-289
-301
-312
-314
-302
-290
-285
-285
-285
-287
-290
-292
-288
-280
-277
-265
-229
-194
-193
-206
-211
-203
-174
-150
-147
-134
-123
51
667
1239
816
-295
-797
-483
-175
-137
-116
-81
-82
-69
-46
-36
-17
7
18
33
54
65
73
94
115
127
144
173
189
186
194
206
169
79
-25
-110
-143
-137
-129
-69
63
111
28
-2
91
149
117
100
134
146
115
93
86
55
14
6
-1
-27
-24
-15
-54
-74
-33
101
579
1243
1161
99
-749
-646
-244
-84
9
93
79
85
152
165
137
138
150
184
252
295
308
344
369
358
376
436
463
454
458
446
379
297
236
180
130
95
60
26
6
-11
-48
-97
-131
-153
-192
-245
-277
-287
-304
-316
-297
-275
-288
-303
-294
-309
-335
-301
-276
-321
-347
-356
-223
467
1288
964
-352
-1032
-695
-339
-280
-198
-129
-155
-147
-99
-76
-51
-23
-8
38
106
113
79
97
161
192
186
191
222
236
214
206
218
162
42
-18
-13
-40
-80
-79
-74
-87
-77
-65
-94
-124
-119
-118
-121
-102
-101
-128
-119
-79
-78
-91
-95
-139
-177
-135
-122
-181
-212
-235
-42
760
1463
833
-512
-912
-459
-252
-334
-305
-240
-216
-211
-278
-329
-284
-272
-322
-306
-243
-236
-237
-193
-165
-173
-153
-123
-130
-131
-89
-51
-56
-82
-100
-120
-151
-159
-111
-64
-71
-64
20
101
88
39
57
124
159
167
198
235
253
268
284
287
287
282
266
273
292
285
268
218
230
675
1414
1435
437
-420
-373
-3
135
152
176
176
158
136
129
154
171
161
152
151
152
158
165
179
202
209
210
239
270
253
208
177
147
78
-34
-145
-211
-234
-252
-285
-317
-329
-323
-306
-289
-273
-263
-261
-254
-231
-209
-203
-193
-169
-147
-141
-149
-162
-157
-126
-109
-117
-113
-83
99
590
984
599
-301
-750
-541
-232
-101
-62
-53
-53
-66
-127
-185
-184
-178
-191
-159
-91
-63
-62
-10
78
117
104
99
119
155
178
135
49
5
16
22
-5
-54
-86
-102
-141
-184
-169
-122
-109
-111
-104
-109
-110
-86
-68
-83
-95
-63
-9
10
-7
-14
3
26
22
-8
-22
-34
21
450
1126
1137
210
-585
-536
-186
-58
-41
-11
1
-6
-29
-48
-18
46
82
81
88
115
124
127
163
190
172
168
209
238
233
227
201
133
58
11
-14
-25
-32
-51
-66
-72
-91
-100
-80
-87
-135
-140
-88
-61
-73
-89
-113
-107
-41
-20
-93
-118
-49
-34
-130
-222
-215
-171
-170
-11
533
964
535
-379
-731
-439
-185
-215
-314
-322
-243
-189
-217
-266
-305
-322
-268
-179
-122
-75
-44
-76
-111
-73
9
77
96
102
176
306
361
278
150
97
114
126
114
113
114
110
146
213
218
151
119
147
190
247
296
284
223
171
152
146
116
58
4
-24
-19
3
19
