# session 28
59
70
15
38
224
409
449
417
404
403
401
395
376
355
346
336
321
318
337
356
344
323
339
364
350
339
373
415
429
425
415
415
408
354
283
234
183
98
14
-30
-48
-67
-90
-107
-103
-77
-82
-135
-144
-91
-81
-120
-138
-139
-132
-114
-110
-115
-109
-118
-145
-157
-147
-128
-128
-153
-164
-165
-197
-203
-149
-124
-160
-186
-178
-154
-128
-117
-112
-107
-122
-145
-149
-144
-138
-142
-147
-133
-133
-151
-124
-26
312
1022
1402
575
-753
-1125
-590
-195
-176
-169
-109
-89
-91
-85
-81
-94
-104
-71
-23
-21
-34
-25
-25
-21
24
65
64
73
115
139
134
153
206
243
253
255
236
205
202
199
150
77
15
-26
-35
-28
-29
-46
-80
-92
-46
8
-6
-52
-56
-38
-52
-69
-43
-14
-28
-51
-51
-43
-43
-51
-58
-56
-52
-55
-56
-53
-56
-64
-66
-69
-76
-70
-57
-53
-50
-42
-34
-16
1
-13
-40
-47
-42
-38
-46
-56
-42
-33
-48
-18
79
329
915
1404
890
-381
-1063
-764
-295
-116
-61
-31
-32
-17
1
-1
1
9
6
6
18
31
38
50
68
78
83
95
110
122
137
160
178
188
199
208
208
208
210
201
174
130
74
20
-21
-57
-90
-104
-98
-95
-106
-109
-97
-93
-102
-104
-97
-95
-96
-94
-95
-98
-98
-103
-112
-112
-106
-107
-110
-108
-109
-110
-108
-102
-91
-75
-69
-59
-37
-37
-68
-91
-93
-90
-80
-85
-97
-75
-72
-104
-61
73
380
1055
1552
881
-526
-1166
-793
-336
-167
-84
-45
-51
-38
-22
-21
-10
4
8
14
28
42
51
60
75
90
103
121
146
164
177
200
231
254
265
275
284
284
269
233
173
100
35
-15
-60
-96
-115
-124
-129
-127
-121
-116
-112
-109
-106
-101
-96
-92
-92
-94
-94
-94
-96
-96
-97
-101
-103
-103
-105
-107
-107
-110
-113
-110
-108
-106
-93
-73
-60
-47
-34
-43
-67
-81
-85
-78
-69
-74
-68
-53
-74
-77
-20
145
709
1512
1428
96
-1025
-912
-346
-133
-101
-53
-54
-64
-38
-23
-22
-16
-9
-1
5
7
13
31
49
61
73
87
103
123
146
166
184
204
226
242
247
250
256
243
195
128
67
13
-37
-79
-106
-121
-127
-128
-126
-124
-124
-121
-112
-107
-106
-103
-99
-100
-96
-89
-89
-92
-91
-90
-93
-96
-100
-106
-108
-100
-85
-75
-68
-49
-39
-65
-92
-94
-92
-90
-89
-94
-79
-67
-100
-93
-12
191
827
1613
1329
-142
-1150
-887
-330
-160
-118
-65
-70
-63
-34
-32
-31
-15
-8
-4
5
13
23
38
48
61
83
105
125
147
172
198
225
251
272
286
294
295
281
245
182
108
37
-24
-71
-104
-125
-137
-140
-136
-132
-130
-128
-123
-116
-110
-107
-104
-100
-99
-99
-97
-98
-100
-100
-96
-99
-104
-107
-107
-111
-116
-111
-96
-85
-76
-55
-41
-59
-81
-87
-89
-83
-80
-92
-80
-66
-99
-102
-44
164
908
1838
1543
-82
-1143
-809
-246
-149
-137
-79
-91
-92
-60
-56
-54
-38
-33
-29
-16
-7
4
21
35
48
66
90
113
136
162
189
215
242
266
282
289
291
279
239
173
99
31
-26
-73
-106
-126
-137
-139
-136
-137
-137
-124
-112
-112
-117
-111
-98
-88
-88
-96
-103
-106
-105
-105
-107
-109
-109
-110
-110
-110
-111
-112
-110
-102
-90
-79
-61
-37
-33
-55
-75
-83
-88
-84
-84
-88
-70
-69
-97
-70
38
341
1008
1466
778
-554
-1043
-562
-140
-91
-75
-38
-44
-34
-11
-8
-1
11
15
18
27
34
36
41
59
81
93
101
115
133
151
170
184
194
205
217
220
217
215
199
158
104
55
22
3
-18
-41
-54
-64
-80
-77
-52
-48
-77
-88
-72
-65
-61
-47
-48
-60
-55
-47
-51
-48
-37
-47
-63
-63
-63
-74
-78
-75
-81
-87
-86
-85
-82
-69
-57
-51
-42
-41
-65
-89
-97
-101
-101
-102
-106
-88
-77
-99
-77
18
210
677
1173
863
-275
-1063
-890
-398
-155
-86
-53
-48
-41
-24
-17
-18
-22
-23
-21
-24
-17
13
30
17
25
78
125
137
138
145
164
196
214
217
248
288
293
287
278
225
162
137
102
34
0
3
-10
-26
-28
-40
-47
-36
-42
-63
-62
-47
-29
-14
-38
-80
-81
-60
-55
-59
-75
-91
-86
-106
-142
-114
-68
-91
-118
-98
-104
-146
-141
-104
-115
-141
-121
-93
-82
-77
-94
-132
-143
-124
-103
-105
-131
-148
-147
-146
-106
-48
99
715
1593
1472
50
-1076
-927
-363
-147
-99
-64
-80
-79
-42
-12
9
6
-12
7
51
60
52
67
80
81
105
145
158
169
213
257
273
285
310
339
353
345
315
264
201
140
78
10
-50
-89
-116
-143
-163
-170
-169
-156
-130
-131
-159
-148
-108
-118
-153
-136
-107
-124
-140
-122
-112
-125
-128
-123
-130
-143
-143
-130
-124
-127
-127
-126
-133
-129
-106
-90
-77
-56
-53
-77
-93
-96
-91
-72
-65
-80
-86
-91
-79
-33
39
504
1593
2126
922
-736
-989
-350
-113
-174
-114
-64
-69
-47
-51
-72
-53
-33
-36
-33
-16
10
22
5
-4
32
74
95
120
155
175
176
182
215
255
268
261
250
226
183
124
47
-23
-63
-85
-107
-127
-135
-120
-97
-108
-137
-127
-91
-86
-101
-96
-87
-87
-70
-55
-79
-99
-73
-51
-76
-94
-76
-70
-96
-108
-90
-71
-76
-98
-110
-106
-110
-125
-124
-107
-89
-56
-20
-33
-79
-95
-83
-81
-99
-113
-87
-53
-78
-93
-36
95
586
1466
1636
392
-923
-953
-355
-132
-143
-90
-69
-79
-45
-11
-15
-35
-44
-28
-8
0
9
18
18
28
61
94
103
104
132
179
211
222
236
254
258
249
245
242
205
133
76
57
33
-21
-62
-62
-45
-42
-52
-50
-37
-40
-51
-44
-33
-47
-75
-82
-68
-60
-62
-57
-57
-79
-92
-84
-92
-118
-120
-105
-105
-115
-125
-130
-119
-113
-126
-128
-109
-98
-79
-35
6
18
8
-19
-42
-49
-43
-24
-18
-44
-46
-28
-59
-70
9
191
707
1387
1194
-114
-1122
-968
-441
-221
-143
-92
-118
-122
-74
-40
-13
24
50
72
100
112
95
77
82
96
105
115
130
142
140
135
146
167
176
183
192
196
196
186
151
97
33
-32
-79
-102
-114
-121
-126
-133
-141
-144
-143
-138
-121
-103
-95
-92
-82
-64
-42
-38
-51
-51
-34
-31
-42
-54
-66
-62
-36
-21
-32
-47
-49
-47
-53
-73
-78
-47
-12
2
-5
-36
-71
-75
-52
-34
-40
-58
-49
-44
-89
-90
-16
180
874
1791
1539
-79
-1198
-896
-301
-158
-135
-98
-125
-111
-72
-93
-96
-60
-62
-73
-42
-17
-30
-30
1
26
35
56
91
111
120
153
194
208
209
232
253
238
209
201
177
92
3
-23
-46
-118
-160
-120
-89
-117
-139
-115
-85
-65
-40
-21
-25
-29
-19
-12
-15
-21
-22
-15
-15
-30
-32
-25
-45
-66
-42
-10
-17
-46
-53
-35
-29
-57
-72
-45
-27
-27
4
20
-49
-120
-101
-68
-91
-113
-102
-76
-56
-75
-95
-33
211
805
1398
1004
-355
-1218
-917
-324
-102
-88
-84
-58
-18
-13
-36
-37
-15
10
17
-4
-12
19
43
36
45
86
124
144
153
155
166
202
236
240
227
233
269
286
231
142
96
78
25
-41
-78
-99
-111
-104
-103
-121
-125
-102
-86
-100
-126
-124
-77
-55
-113
-170
-139
-84
-89
-127
-141
-120
-98
-119
-158
-143
-97
-113
-155
-123
-66
-70
-73
-36
-31
-63
-82
-111
-126
-69
-18
-40
-72
-91
-87
10
292
923
1626
1357
-93
-1210
-1014
-375
-125
-88
-56
-61
-45
0
5
-6
4
-4
-30
-29
4
47
71
55
40
67
101
117
125
134
175
230
248
272
327
331
275
245
244
218
161
77
-12
-70
-94
-95
-78
-69
-71
-49
-28
-47
-59
-28
-9
-30
-39
-29
-34
-44
-53
-75
-90
-74
-66
-89
-112
-123
-135
-142
-144
-148
-143
-136
-139
-140
-149
-162
-130
-79
-95
-139
-127
-119
-152
-146
-116
-130
-137
-133
-161
-157
-53
396
1382
1935
860
-827
-1198
-521
-170
-203
-152
-104
-137
-132
-101
-91
-91
-81
-36
-1
-25
-25
32
44
13
44
112
138
156
187
187
187
229
254
239
241
254
241
225
184
86
56
158
211
120
32
13
-1
-18
-22
-29
-27
-16
-21
-36
-41
-44
-48
-42
-29
-22
-21
-30
-44
-47
-42
-41
-45
-52
-63
-67
-70
-82
-92
-92
-97
-101
-92
-82
-72
-47
-29
-60
-126
-159
-122
-51
-26
-70
-105
-100
-119
-126
-70
75
630
1540
1564
103
-1227
-1094
-398
-170
-180
-138
-126
-119
-98
-105
-92
-58
-66
-89
-70
-23
-1
-20
-28
5
35
50
79
103
113
136
156
164
188
212
209
194
189
181
145
79
12
-38
-75
-86
-81
-88
-88
-86
-129
-162
-100
-33
-42
-54
-51
-86
-104
-64
-39
-54
-68
-67
-62
-73
-95
-86
-71
-95
-102
-54
-32
-60
-79
-75
-57
-28
-24
-29
0
24
18
44
76
37
-14
-6
10
1
-15
-30
-28
-27
-46
-29
44
331
1085
1651
863
-737
-1361
-813
-271
-110
-33
-16
-45
-11
32
25
17
35
57
67
67
76
94
111
130
132
125
147
178
183
190
217
237
251
265
260
246
248
253
231
176
106
44
-4
-48
-90
-107
-90
-84
-106
-109
-97
-116
-130
-102
-84
-103
-117
-111
-106
-112
-121
-118
-108
-118
-142
-141
-124
-121
-131
-135
-128
-120
-117
-124
-125
-101
-75
-71
-61
-46
-63
-91
-96
-90
-84
-82
-101
-97
-62
-80
-108
-37
138
632
1439
1500
169
-1146
-1087
-406
-162
-167
-93
-64
-91
-75
-50
-46
-43
-37
-25
-12
1
13
18
21
42
67
75
80
96
123
154
167
165
184
209
199
189
206
198
143
91
54
6
-39
-66
-90
-111
-109
-97
-95
-96
-88
-81
-79
-72
-65
-70
-76
-75
-76
-73
-68
-68
-67
-60
-61
-74
-84
-81
-60
-31
-20
-22
-20
-21
-37
-60
-74
-67
-52
-57
-58
-42
-68
-94
-9
184
559
1148
1298
388
-812
-1121
-678
-275
-98
-14
-2
-8
10
13
9
32
48
39
41
54
53
55
86
120
121
115
134
155
160
172
197
213
223
237
236
220
216
219
208
175
121
68
41
15
-25
-46
-51
-70
-80
-58
-55
-86
-95
-72
-73
-102
-112
-100
-103
-124
-126
-106
-115
-156
-168
-143
-136
-148
-139
-120
-114
-102
-93
-113
-134
-138
-141
-134
-124
-129
-120
-119
-158
-130
5
278
931
1569
1035
-510
-1350
-947
-387
-211
-141
-103
-119
-94
-57
-58
-56
-56
-61
-37
-4
0
-9
3
46
83
74
58
93
150
173
173
191
228
256
257
247
249
252
223
162
95
35
-18
-59
-81
-83
-78
-75
-66
-54
-47
-44
-34
-23
-17
-10
-6
-8
-11
-12
-22
-36
-40
-48
-69
-77
-71
-75
-78
-68
-62
-55
-40
-46
-74
-91
-95
-95
-95
-100
-88
-73
-99
-102
-28
167
724
1450
1298
4
-1006
-817
-259
-99
-103
-58
-52
-55
-31
-26
-25
-7
-1
-5
8
26
29
28
46
68
73
88
119
117
112
158
190
173
186
217
201
192
214
186
127
99
60
-3
-32
-45
-80
-104
-103
-103
-106
-104
-104
-109
-113
-118
-125
-132
-139
-146
-151
-150
-149
-149
-136
-112
-99
-95
-86
-93
-122
-136
-131
-125
-117
-117
-117
-99
-102
-118
-70
62
384
944
1139
346
-780
-1100
-670
-271
-132
-78
-56
-55
-39
-19
-12
-7
1
7
17
33
48
54
57
71
93
112
129
150
174
201
227
247
263
279
290
292
284
257
208
149
92
40
-6
-38
-57
-66
-67
-65
-66
-69
-70
-67
-63
-62
-61
-61
-61
-60
-60
-64
-73
-80
-80
-81
-88
-94
-92
-83
-73
-63
-49
-39
-52
-75
-89
-90
-82
-81
-89
-77
-69
-93
-84
-15
179
750
1395
1078
-219
-1048
-762
-257
-126
-112
-70
-72
-69
-44
-38
-36
-26
-22
-21
-13
-6
2
12
24
38
55
73
92
112
133
155
175
191
205
214
219
220
214
189
146
94
44
-2
-39
-67
-86
-94
-96
-95
-94
-92
-90
-89
-89
-89
-90
-90
-89
-87
-86
-85
-86
-88
-89
-89
-91
-94
-97
-97
-93
-82
-72
-64
-51
-49
-70
-94
-101
-96
-92
-97
-95
-79
-91
-107
-68
31
373
1057
1342
470
-762
-1040
-532
-173
-110
-65
-30
-29
-9
8
9
16
24
25
30
37
40
47
56
66
78
92
104
117
131
148
164
178
190
198
204
209
209
199
169
123
74
28
-12
-46
-68
-78
-84
-87
-87
-85
-83
-80
-80
-81
-81
-77
-75
-74
-73
-72
-68
-63
-61
-60
-59
-57
-55
-56
-58
-59
-58
-59
-62
-62
-61
-62
-61
-56
-55
-46
-27
-14
-5
3
-5
-29
-48
-47
-34
-36
-46
-32
-33
-62
-44
39
273
849
1333
827
-410
-1034
-690
-232
-98
-66
-37
-44
-40
-17
-13
-20
-15
-4
2
2
6
22
38
47
57
72
91
107
119
129
142
156
166
172
181
198
208
204
193
173
133
80
33
-5
-40
-65
-72
-73
-77
-80
-80
-76
-72
-68
-67
-68
-70
-70
-72
-73
-71
-71
-76
-78
-78
-81
-85
-87
-89
-92
-92
-91
-89
-89
-91
-92
-90
-85
-75
-62
-49
-31
-17
-30
-56
-68
-67
-60
-61
-69
-57
-51
-75
-58
22
231
792
1357
952
-327
-1087
-797
-303
-135
-92
-55
-58
-52
-32
-32
-32
-26
-27
-27
-23
-23
-23
-17
-9
-1
8
20
31
42
54
