# session 7
-38
-75
66
-43
-604
-1034
-978
-819
-806
-769
-685
-664
-673
-675
-700
-734
-746
-754
-763
-755
-729
-705
-684
-660
-639
-619
-591
-558
-531
-508
-478
-441
-414
-397
-373
-351
-323
-286
-279
-277
-262
-247
78
890
1252
341
-792
-859
-344
-133
-110
-32
-2
-7
29
63
90
130
164
191
225
259
289
310
325
347
374
387
389
390
376
333
270
217
186
166
148
136
122
112
112
105
86
79
82
70
58
68
88
92
79
71
63
40
37
57
41
11
-9
-24
265
995
1274
398
-632
-689
-257
-108
-113
-64
-66
-90
-58
-26
-20
-3
19
32
49
67
84
105
121
129
150
179
191
192
176
129
71
29
-10
-47
-67
-80
-97
-102
-98
-105
-115
-113
-107
-104
-101
-100
-93
-75
-65
-76
-88
-97
-106
-97
-88
-107
-117
-129
-100
271
884
865
-51
-804
-696
-299
-154
-128
-87
-83
-91
-72
-45
-22
0
15
32
59
90
111
125
155
188
200
216
244
236
183
125
66
7
-29
-58
-107
-141
-141
-142
-155
-156
-155
-162
-164
-157
-147
-133
-115
-104
-114
-131
-133
-130
-122
-89
-74
-113
-143
-137
-6
477
993
693
-326
-921
-707
-332
-159
-77
-51
-58
-28
6
15
46
86
104
129
163
182
206
257
314
355
382
391
379
350
298
223
145
79
21
-24
-47
-59
-76
-86
-85
-90
-103
-113
-120
-124
-122
-124
-127
-120
-117
-128
-133
-140
-151
-136
-129
-157
-166
-174
-55
534
1166
764
-430
-967
-589
-225
-167
-122
-79
-88
-69
-36
-26
-1
45
80
107
134
156
180
212
243
263
277
287
287
266
222
157
95
54
23
-8
-26
-30
-39
-53
-56
-53
-58
-66
-70
-68
-61
-61
-60
-45
-40
-58
-53
-20
-13
-36
-41
-23
-51
-116
112
810
1214
528
-531
-751
-332
-135
-183
-119
-18
-46
-99
-56
-5
-40
-53
34
79
33
40
95
85
70
115
142
126
116
94
33
-36
-93
-129
-149
-183
-229
-250
-240
-231
-245
-269
-262
-237
-256
-296
-279
-223
-192
-199
-226
-249
-240
-219
-218
-212
-200
-207
-232
-249
-78
450
854
410
-522
-892
-577
-236
-107
-34
19
39
67
101
130
173
224
264
291
305
315
348
394
419
432
453
460
440
415
368
281
205
168
121
52
13
10
4
-3
0
-10
-30
-39
-44
-47
-40
-47
-63
-52
-38
-55
-77
-82
-74
-64
-83
-115
-126
-91
222
871
1066
215
-801
-935
-508
-230
-139
-80
-56
-29
29
64
76
103
139
162
179
208
241
276
318
340
331
333
355
342
279
206
129
45
-16
-42
-61
-83
-97
-114
-131
-132
-128
-139
-147
-141
-144
-162
-166
-150
-143
-153
-156
-149
-158
-170
-169
-180
-183
-190
-174
207
970
1123
125
-863
-829
-379
-230
-212
-153
-157
-173
-134
-99
-85
-67
-52
-33
-4
20
45
85
125
148
150
145
148
148
116
61
14
-32
-84
-122
-132
-137
-151
-158
-157
-158
-159
-158
-149
-138
-142
-150
-131
-101
-107
-131
-133
-129
-137
-129
-120
-133
-133
-140
-80
365
996
884
-92
-781
-612
-242
-139
-121
-77
-65
-59
-34
-13
9
46
83
110
138
176
208
227
254
292
312
309
312
318
288
218
149
99
60
29
7
-11
-21
-20
-20
-26
-26
-19
-9
1
-6
-28
-30
-7
-7
-31
-35
-36
-59
-59
-42
-58
-86
-106
-1
501
1077
791
-292
-926
-670
-274
-150
-93
-33
-32
-38
-16
18
53
70
81
114
144
160
198
248
274
295
336
358
337
298
244
164
85
36
-1
-42
-73
-88
-98
-106
-108
-113
-120
-128
-137
-136
-134
-143
-142
-131
-138
-151
-153
-166
-172
-145
-150
-189
-198
-210
-5
704
1205
498
-725
-1027
-549
-255
-225
-165
-127
-145
-129
-97
-76
-44
-11
12
38
66
96
136
173
195
216
237
250
248
222
168
101
46
6
-21
-38
-49
-55
-57
-58
-65
-71
-72
-75
-77
-68
-70
-85
-79
-57
-60
-73
-78
-92
-90
-70
-86
-101
-112
-124
240
1080
1332
332
-724
-732
-297
-158
-145
-95
-97
-97
-64
-58
-49
-8
19
32
62
98
128
157
188
213
221
219
222
222
196
138
67
6
-41
-74
-95
-106
-116
-130
-140
-139
-134
-137
-151
-160
-159
-158
-149
-123
-101
-107
-131
-158
-166
-141
-118
-135
-139
-110
-139
-57
484
1082
793
-221
-784
-569
-247
-138
-80
-41
-51
-45
-19
-11
-3
24
54
77
97
126
166
206
239
272
304
325
329
301
239
162
88
24
-19
-44
-67
-92
-107
-113
-117
-122
-127
-136
-147
-149
-140
-141
-150
-143
-130
-138
-152
-153
-156
-148
-121
-120
-131
-137
-109
231
907
1060
174
-760
-787
-357
-133
-58
8
22
28
61
83
106
148
182
206
238
273
305
340
367
370
364
377
399
388
335
268
206
153
109
76
65
72
27
-111
-248
-278
-236
-205
-190
-172
-160
-148
-138
-163
-200
-192
-152
-133
-138
-143
-130
-114
-125
-136
-129
-49
322
858
798
-84
-842
-798
-408
-193
-114
-71
-69
-64
-37
-11
16
45
68
95
128
162
200
244
284
315
333
339
345
343
295
205
122
72
34
2
-17
-32
-51
-62
-62
-83
-141
-195
-212
-233
-293
-350
-345
-281
-212
-183
-181
-170
-169
-187
-179
-158
-161
-161
-182
-103
449
1166
949
-206
-902
-632
-242
-165
-138
-94
-108
-111
-80
-63
-49
-23
7
40
72
96
119
148
172
178
177
180
175
153
113
47
-33
-88
-110
-123
-145
-166
-167
-166
-195
-222
-215
-212
-237
-253
-245
-237
-236
-229
-209
-198
-208
-222
-227
-225
-212
-204
-211
-208
-199
-94
326
816
635
-224
-800
-647
-298
-156
-112
-73
-60
-40
-8
15
46
82
102
132
185
235
271
309
346
380
406
420
429
437
418
361
305
275
255
233
224
227
222
209
204
198
193
197
191
176
185
199
190
192
208
200
191
194
180
174
188
164
133
141
177
468
1108
1321
469
-585
-748
-326
-61
17
80
101
100
127
162
193
221
240
269
313
350
377
419
463
483
482
493
499
455
382
318
224
99
26
24
13
-43
-108
-133
-123
-125
-152
-178
-195
-209
-215
-228
-264
-291
-280
-273
-309
-352
-367
-377
-401
-420
-421
-431
-481
-459
-92
479
468
-403
-1227
-1272
-940
-766
-729
-716
-713
-677
-628
-618
-605
-574
-565
-558
-531
-509
-487
-439
-388
-348
-296
-235
-185
-155
-168
-231
-304
-360
-404
-429
-435
-458
-490
-490
-479
-491
-503
-500
-509
-546
-595
-628
-650
-689
-733
-758
-787
-828
-856
-888
-928
-948
-969
-1000
-1016
-1036
-892
-381
-12
-544
-1555
-1948
-1628
-1267
-1103
-991
-901
-841
-767
-669
-557
-436
-300
-164
-66
80
450
991
1590
2371
3227
3942
4966
6510
7554
7470
6980
6537
5918
5287
4925
4684
4457
4268
4034
3782
3600
3406
3186
3014
2803
2570
2525
2462
2084
1771
1779
1721
1525
1273
1183
2028
2126
-2557
-10832
-15936
-14980
-10789
-6445
-3902
-3685
-4002
-3394
-2502
-1978
-1634
-1426
-1278
-888
-340
6
61
-49
-175
-222
-255
-382
-540
-598
-541
-459
-437
-468
-486
-491
-524
-579
-630
-667
-672
-646
-623
-601
-558
-516
-490
-458
-420
-401
-397
-386
-368
-348
-325
-307
-285
-242
-197
-178
-169
-154
-135
-98
-68
-74
-55
-29
38
552
1427
1475
291
-683
-518
-39
84
123
213
222
222
273
304
319
360
398
420
455
504
541
564
589
610
605
583
569
561
537
485
419
362
320
290
268
255
245
238
232
220
200
187
187
187
172
153
149
147
141
150
167
161
144
130
109
98
105
78
32
44
65
174
700
1333
1062
-87
-807
-579
-158
-24
15
73
90
82
92
115
133
160
203
233
238
255
290
314
331
352
356
342
333
324
278
185
95
42
-7
-56
-62
-48
-71
-103
-102
-93
-99
-107
-113
-125
-149
-176
-185
-178
-185
-206
-204
-188
-202
-225
-218
-222
-248
-241
-232
-265
-279
-256
-77
542
1166
741
-524
-1180
-853
-434
-317
-257
-201
-202
-203
-182
-154
-118
-89
-61
-22
12
40
80
124
155
174
186
187
178
152
99
27
-38
-84
-116
-140
-157
-168
-168
-162
-158
-157
-154
-152
-155
-158
-164
-170
-170
-166
-166
-164
-160
-151
-135
-124
-124
-125
-129
-127
-105
-101
-117
-121
-102
195
938
1341
560
-607
-848
-393
-136
-121
-75
-45
-53
-30
-2
7
27
53
79
115
147
168
196
231
260
275
277
275
275
258
208
147
94
47
9
-14
-26
-38
-50
-61
-71
-77
-80
-85
-94
-105
-110
-107
-107
-118
-126
-120
-113
-120
-120
-96
-83
-99
-107
-99
-99
-102
-112
-126
-108
-83
25
482
1051
855
-169
-883
-725
-322
-155
-94
-41
-29
-22
-5
6
37
78
98
121
164
191
205
239
278
299
309
319
327
321
288
224
150
88
46
26
13
-6
-19
-8
15
19
12
11
7
-2
3
8
-6
-16
-17
-36
-49
-28
-21
-42
-30
2
-9
-36
-38
-41
-43
-45
-63
-65
-45
98
626
1218
916
-255
-1014
-827
-404
-223
-147
-96
-85
-71
-55
-50
-22
15
30
47
77
93
103
134
170
183
192
216
229
207
156
87
5
-68
-113
-140
-165
-180
-181
-178
-178
-177
-174
-175
-176
-172
-172
-181
-186
-182
-180
-178
-169
-163
-159
-135
-108
-111
-125
-126
-125
-114
-97
-110
-117
-106
-45
380
1127
1202
157
-818
-769
-308
-135
-110
-59
-50
-55
-26
-5
5
34
75
104
129
161
192
219
261
309
324
315
325
334
301
239
178
117
63
34
19
-1
-23
-36
-41
-43
-47
-61
-74
-79
-85
-99
-113
-122
-125
-117
-97
-88
-100
-95
-67
-65
-93
-101
-93
-98
-90
-79
-100
-111
-94
-1
394
931
832
-51
-737
-650
-302
-156
-121
-97
-99
-98
-87
-86
-82
-63
-37
-15
2
27
62
87
103
126
152
173
187
184
159
115
67
25
-14
-46
-58
-50
-34
-28
-40
-51
-43
-34
-34
-34
-44
-61
-63
-56
-66
-85
-86
-78
-84
-93
-74
-48
-60
-90
-105
-107
-101
-106
-122
-107
-52
155
684
1122
698
-339
-893
-681
-319
-136
-53
-29
-35
-26
-18
-10
27
72
97
121
159
207
254
297
346
394
407
394
392
381
330
255
170
83
23
0
-15
-31
-42
-46
-43
-37
-43
-52
-53
-55
-67
-77
-81
-92
-101
-97
-94
-106
-109
-93
-86
-98
-108
-111
-118
-112
-106
-135
-155
-132
-71
262
960
1238
410
-699
-944
-547
-265
-176
-110
-90
-97
-74
-55
-53
-38
-6
25
49
76
116
162
195
218
237
237
214
189
167
119
38
-39
-84
-117
-161
-195
-194
-177
-178
-186
-181
-171
-171
-175
-171
-167
-171
-173
-167
-160
-157
-162
-156
-129
-112
-132
-151
-144
-147
-153
-136
-134
-148
-133
-73
223
865
1192
530
-460
-712
-370
-130
-72
-19
7
1
15
36
51
69
80
83
104
143
162
165
203
267
288
274
281
288
250
192
141
83
18
-34
-63
-72
-74
-81
-84
-73
-52
-47
-65
-77
-75
-85
-101
-95
-88
-91
-74
-48
-37
-16
17
25
19
17
8
14
52
49
5
17
57
208
760
1325
919
-265
-886
-596
-220
-121
-74
-31
-38
-34
-15
-8
10
39
60
71
87
126
172
207
248
292
296
267
249
230
176
101
26
-43
-99
-133
-153
-170
-182
-186
-184
-178
-170
-170
-177
-181
-189
-203
-205
-200
-207
-218
-219
-216
-207
-187
-182
-201
-216
-215
-213
-201
-198
-211
-202
-181
1
613
1198
782
-366
-910
-592
-255
-193
-153
-109
-114
-100
-68
-58
-44
-10
21
47
79
117
158
200
249
294
311
301
292
282
249
196
146
103
66
40
22
10
4
-4
-13
-13
-18
-25
-18
-19
-40
-41
-24
-29
-46
-45
-33
-2
46
65
42
30
53
80
79
70
98
140
140
125
135
276
739
1215
907
-131
-802
-641
-261
-99
-40
-4
-1
3
-12
-59
-58
2
42
32
34
110
150
-2
-196
-187
-79
-52
-29
33
30
-44
-112
-156
-189
-210
-224
-232
-226
-205
-183
-175
-172
-160
-147
-142
-134
-125
-122
-118
-114
-119
-116
-91
-71
-73
-68
-42
-27
-28
-28
-34
-45
-34
-28
-58
-61
-42
14
449
1225
1316
262
-737
-728
-299
-130
-95
-40
-35
-40
-5
14
-2
12
71
103
102
140
211
249
272
313
330
310
298
290
251
185
110
34
-28
-62
-78
-91
-101
-95
-80
-77
-83
-76
-63
-63
-67
-62
-59
-58
-52
-51
-52
-43
-32
-29
-18
5
12
-5
-16
-24
-43
-42
-20
-34
-59
-67
-51
246
892
1096
291
-653
-761
-380
-188
-159
-106
-71
-77
-80
-81
-80
-75
-69
-49
-17
7
28
73
130
165
183
203
208
180
150
131
79
-10
-81
-114
-134
-155
-169
-168
-161
-165
-177
-176
-173
-181
-191
-202
-219
-229
-232
-239
-246
-239
-237
-242
-232
-218
-222
-218
-192
-181
-179
-156
-139
-154
-154
-132
-135
-133
-92
-2
342
949
1086
265
-683
-825
-448
-191
-82
23
73
68
89
127
150
177
212
237
266
308
353
402
458
511
545
547
527
510
488
431
350
275
210
147
102
90
88
75
63
70
79
67
51
56
61
41
16
20
28
4
-22
-22
-25
-39
-43
-49
-64
-67
-66
-79
-75
-56
-59
-75
-81
-91
-89
-76
-97
-126
-122
-32
387
1034
1032
39
-884
-897
-496
-290
-220
-165
-166
-178
-161
-154
-152
-133
-111
-93
-69
-42
-11
33
83
119
133
138
136
118
77
17
-53
-120
-174
