# session 25
10
-4
32
61
-28
-177
-220
-183
-177
-186
-173
-165
-164
-155
-149
-149
-149
-140
-115
-89
-74
-56
-42
-53
-74
-81
-75
-66
-67
-64
-43
-47
-66
-30
70
400
1109
1493
700
-567
-921
-450
-112
-73
-42
-14
-21
-4
13
12
19
30
33
38
46
50
57
68
78
90
107
123
139
156
174
192
209
223
234
242
245
244
234
209
165
112
62
18
-19
-47
-67
-82
-89
-93
-98
-104
-106
-109
-113
-117
-118
-118
-121
-128
-133
-137
-143
-148
-148
-154
-164
-168
-172
-183
-190
-191
-199
-211
-216
-218
-215
-203
-194
-185
-174
-181
-210
-233
-240
-240
-243
-251
-247
-238
-255
-263
-226
-84
385
1038
987
-87
-1071
-1062
-578
-332
-292
-268
-262
-261
-244
-232
-213
-177
-169
-201
-216
-188
-156
-141
-123
-97
-85
-77
-50
-7
26
40
50
73
100
115
125
147
166
163
136
99
60
21
-15
-42
-59
-61
-52
-43
-35
-20
-1
8
12
21
33
48
66
77
81
98
119
122
117
128
144
153
160
169
182
201
216
239
276
288
269
264
273
271
284
320
349
388
419
410
436
545
805
1379
1878
1430
221
-456
-195
230
393
479
563
603
638
673
678
672
669
663
656
659
667
662
642
627
630
646
669
696
730
774
827
891
966
1032
1097
1185
1228
1114
866
613
423
267
119
-9
-99
-161
-221
-276
-314
-343
-377
-410
-445
-491
-543
-586
-618
-649
-679
-709
-740
-777
-828
-884
-936
-985
-1032
-1070
-1106
-1151
-1194
-1225
-1259
-1300
-1337
-1379
-1435
-1494
-1553
-1614
-1670
-1728
-1791
-1840
-1901
-1987
-2033
-2024
-1862
-1323
-795
-1219
-2435
-3094
-2755
-2257
-2049
-1918
-1852
-1914
-1942
-1897
-1941
-2088
-2215
-2279
-2305
-2291
-2258
-2233
-2177
-2045
-1836
-1540
-1121
-550
131
687
781
389
-138
-556
-882
-1086
-1047
-742
-238
454
1654
3893
6757
8623
8611
7618
6663
5803
4900
4086
3547
3367
3351
3184
2936
2936
3120
3182
3315
3872
4461
4518
4315
4236
4018
3564
3264
3049
2484
1768
1267
667
-168
-559
-216
214
273
137
-33
-256
-481
-674
-864
-1029
-1178
-1391
-1581
-1583
-1376
-818
15
118
-1118
-2414
-2474
-1874
-1503
-1264
-1055
-1061
-1159
-1171
-1183
-1238
-1280
-1321
-1382
-1429
-1453
-1473
-1495
-1509
-1502
-1478
-1463
-1464
-1446
-1389
-1319
-1262
-1210
-1152
-1099
-1062
-1036
-1014
-1000
-999
-1006
-1016
-1024
-1031
-1033
-1020
-1000
-972
-927
-879
-843
-802
-746
-704
-678
-630
-566
-527
-501
-454
-408
-386
-365
-329
-290
-255
-223
-191
-160
-135
-113
-81
-50
-24
14
62
104
141
166
169
171
188
205
230
259
271
291
313
306
332
432
669
1272
1928
1605
266
-638
-407
122
324
384
430
423
430
466
473
470
487
500
498
504
517
521
529
549
564
569
581
599
609
616
634
651
659
666
669
664
656
647
621
571
508
445
389
336
284
251
235
214
188
178
179
172
160
152
142
131
123
113
97
84
71
51
30
16
6
-9
-32
-48
-48
-55
-75
-86
-91
-99
-101
-97
-97
-86
-78
-104
-141
-158
-168
-175
-177
-195
-203
-194
-223
-235
-170
-24
471
1276
1315
38
-1200
-1201
-633
-381
-335
-280
-274
-277
-247
-237
-240
-228
-215
-209
-202
-193
-182
-171
-160
-146
-125
-103
-82
-60
-36
-13
11
37
61
80
92
95
90
73
35
-21
-78
-126
-167
-201
-222
-232
-236
-234
-227
-221
-214
-203
-191
-180
-170
-162
-152
-143
-139
-136
-130
-125
-123
-120
-115
-112
-112
-110
-105
-101
-100
-97
-91
-83
-79
-74
-66
-59
-56
-51
-45
-43
-44
-43
-43
-33
-10
10
24
43
51
34
13
5
11
18
13
17
35
20
7
59
200
662
1445
1586
448
-796
-871
-302
-42
-31
10
25
14
36
50
47
54
61
65
74
82
84
92
107
102
58
15
35
101
138
149
187
214
193
205
275
285
225
219
258
239
184
147
100
49
32
24
1
-12
-7
-7
-8
-6
-7
-9
-10
-16
-17
-15
-39
-92
-136
-154
-155
-146
-138
-139
-136
-127
-122
-121
-120
-122
-125
-119
-109
-108
-114
-113
-104
-99
-92
-79
-68
-52
-36
-44
-70
-87
-90
-84
-80
-90
-84
-68
-92
-98
-38
99
589
1385
1428
188
-1004
-987
-422
-176
-135
-79
-72
-78
-51
-38
-38
-27
-21
-18
-7
2
10
25
40
52
67
89
109
128
151
173
198
225
233
221
218
236
246
229
195
145
70
-14
-70
-91
-103
-116
-119
-114
-111
-109
-104
-98
-94
-92
-87
-82
-78
-73
-70
-69
-69
-68
-68
-70
-71
-72
-76
-82
-90
-95
-99
-105
-110
-107
-100
-94
-91
-86
-82
-82
-87
-94
-94
-79
-63
-52
-36
-26
-41
-62
-69
-66
-57
-61
-65
-47
-54
-81
-45
61
444
1302
1773
803
-713
-1074
-482
-128
-126
-87
-55
-72
-53
-33
-38
-29
-14
-9
-4
2
8
20
36
50
63
79
96
112
130
152
176
200
220
238
249
253
254
246
219
172
114
61
15
-25
-56
-73
-83
-90
-92
-89
-87
-84
-82
-90
-102
-98
-85
-79
-80
-77
-73
-72
-71
-70
-71
-74
-77
-78
-79
-82
-85
-88
-90
-91
-91
-90
-88
-87
-85
-82
-81
-81
-82
-84
-77
-58
-43
-34
-15
-3
-20
-44
-56
-56
-50
-55
-62
-44
-45
-73
-44
57
390
1144
1610
781
-652
-1087
-548
-154
-120
-88
-54
-69
-57
-35
-36
-29
-16
-12
-7
0
11
23
18
5
16
46
71
88
110
134
154
175
196
213
223
228
231
228
210
171
115
56
12
-17
-40
-59
-66
-65
-66
-66
-62
-57
-55
-54
-52
-49
-49
-50
-50
-52
-54
-51
-48
-53
-62
-66
-68
-72
-77
-76
-72
-69
-70
-69
-66
-64
-66
-71
-75
-74
-67
-59
-57
-61
-63
-57
-54
-59
-62
-54
-42
-33
-23
-4
2
-18
-39
-50
-57
-56
-59
-66
-50
-45
-66
-35
85
407
1030
1358
610
-630
-1045
-608
-216
-120
-75
-47
-56
-45
-24
-17
-9
-1
-3
1
11
20
31
43
53
64
79
91
103
122
141
149
158
174
182
185
193
199
197
190
174
137
86
43
9
-25
-55
-67
-67
-68
-71
-71
-67
-60
-58
-61
-65
-67
-70
-70
-73
-79
-83
-82
-83
-87
-91
-93
-95
-98
-99
-101
-101
-99
-98
-98
-98
-99
-102
-98
-83
-72
-63
-42
-32
-53
-77
-84
-83
-76
-77
-84
-66
-60
-90
-62
47
326
1000
1549
920
-513
-1158
-728
-260
-146
-95
-52
-59
-45
-21
-21
-14
2
6
11
23
32
44
60
72
81
97
117
136
157
182
205
227
250
268
280
287
288
276
248
198
136
75
22
-19
-46
-66
-75
-75
-76
-81
-79
-72
-72
-76
-73
-67
-64
-61
-59
-58
-57
-57
-60
-63
-65
-67
-70
-72
-74
-75
-72
-73
-85
-94
-90
-97
-142
-197
-208
-174
-148
-146
-137
-111
-84
-57
-35
-42
-77
-109
-112
-97
-91
-88
-69
-66
-86
-58
48
361
1035
1474
766
-570
-1058
-580
-165
-119
-100
-59
-64
-54
-34
-33
-28
-16
-14
-9
1
8
16
28
40
54
70
86
103
122
140
156
173
188
198
204
208
209
206
193
164
122
78
38
7
-16
-34
-44
-47
-47
-44
-42
-41
-40
-38
-37
-37
-36
-34
-35
-38
-39
-40
-43
-46
-47
-49
-52
-54
-56
-60
-63
-63
-65
-69
-72
-73
-73
-74
-73
-63
-44
-29
-17
-3
-6
-32
-55
-59
-53
-54
-63
-55
-44
-64
-66
-13
132
595
1250
1178
36
-989
-933
-387
-131
-98
-69
-61
-61
-40
-31
-35
-30
-23
-21
-20
-12
5
18
21
31
52
69
81
95
111
124
134
146
161
171
174
178
179
172
152
117
75
32
-10
-44
-64
-77
-85
-86
-84
-86
-86
-77
-75
-83
-81
-74
-79
-82
-70
-69
-86
-91
-85
-92
-101
-95
-86
-91
-96
-94
-93
-100
-98
-78
-59
-50
-39
-33
-47
-64
-76
-83
-78
-78
-86
-68
-55
-83
-62
59
302
830
1357
993
-253
-1091
-908
-424
-194
-106
-59
-58
-43
-17
-25
-30
1
12
-7
34
84
55
111
245
161
85
390
574
245
33
252
351
156
60
201
366
346
195
143
189
144
42
18
15
-42
-88
-83
-73
-78
-85
-93
-103
-108
-105
-97
-97
-112
-122
-108
-91
-92
-103
-112
-115
-118
-129
-137
-130
-135
-154
-149
-132
-137
-129
-88
-85
-121
-118
-66
-21
-19
-44
-62
-67
-72
-59
-45
-52
-45
-34
-60
-55
28
234
772
1369
1061
-208
-1075
-857
-348
-162
-120
-84
-87
-74
-49
-56
-50
-30
-43
-63
-53
-30
-8
9
10
12
33
60
78
99
130
155
172
198
227
239
241
251
257
230
181
138
90
23
-30
-52
-68
-84
-89
-86
-83
-79
-76
-73
-69
-67
-64
-54
-53
-61
-58
-49
-53
-57
-49
-49
-60
-63
-55
-48
-53
-68
-72
-63
-69
-84
-74
-56
-46
-18
9
-6
-37
-48
-42
-37
-53
-73
-51
-33
-68
-59
42
325
1008
1592
1014
-401
-1068
-652
-198
-125
-103
-54
-59
-62
-43
-35
-31
-27
-31
-26
-9
4
5
11
35
51
44
47
81
121
142
144
150
178
205
203
190
197
200
174
136
95
41
-13
-49
-75
-92
-99
-108
-112
-107
-110
-118
-108
-95
-97
-97
-90
-84
-83
-91
-94
-84
-86
-97
-94
-89
-97
-100
-98
-103
-107
-105
-106
-104
-91
-74
-55
-44
-52
-70
-84
-94
-95
-88
-90
-86
-68
-81
-95
-35
101
504
1250
1509
511
-816
-1104
-590
-226
-138
-81
-54
-58
-44
-37
-43
-32
-17
-14
-8
5
17
26
38
49
62
79
96
107
119
137
161
183
198
208
215
217
213
209
196
164
114
64
26
0
-24
-45
-55
-57
-51
-41
-39
-46
-42
-32
-33
-40
-35
-24
-26
-30
-22
-21
-43
-55
-33
-11
-24
-52
-50
-27
-17
-22
-28
-36
-40
-41
-40
-28
-17
-17
-12
-9
-32
-62
-76
-83
-84
-88
-96
-85
-82
-106
-90
1
254
825
1266
723
-516
-1145
-825
-364
-190
-130
-93
-91
-78
-58
-55
-52
-42
-38
-35
-27
-17
-7
2
15
30
46
61
78
96
118
138
153
168
184
199
210
217
218
207
177
136
92
50
13
-15
-30
-38
-46
-50
-48
-46
-47
-48
-46
-44
-44
-45
-46
-49
-53
-58
-63
-65
-67
-72
-77
-81
-84
-83
-80
-78
-79
-79
-78
-79
-80
-83
-82
-68
-48
-38
-26
-11
-16
-39
-57
-61
-54
-56
-69
-53
-38
-72
-74
-3
205
863
1657
1358
-119
-1089
-787
-251
-138
-129
-82
-86
-81
-55
-58
-62
-49
-45
-40
-28
-17
-5
9
20
34
55
76
95
119
143
166
190
213
230
240
248
251
244
221
178
118
55
-1
-48
-84
-111
-126
-134
-139
-139
-136
-131
-125
-117
-110
-105
-101
-96
-92
-89
-87
-85
-84
-81
-81
-82
-84
-86
-88
-90
-93
-98
-102
-105
-105
-93
-76
-65
-47
-31
-42
-66
-77
-79
-75
-73
-81
-69
-61
-92
-86
-20
214
960
1795
1382
-214
-1145
-757
-223
-142
-130
-77
-89
-84
-54
-55
-53
-36
-30
-26
-14
-5
2
15
29
44
65
89
110
133
161
187
205
223
245
262
273
278
269
233
175
111
50
-4
-47
-84
-111
-124
-123
-122
-124
-122
-118
-115
-111
-107
-103
-100
-97
-92
-89
-89
-90
-88
-86
-87
-85
-85
-89
-92
-89
-87
-95
-101
-102
-103
-93
-72
-64
-59
-41
-34
-55
-74
-76
-68
-60
-68
-61
-28
-41
-84
-65
41
462
1321
1675
608
-826
-1063
-458
-136
-131
-92
-68
-83
-62
-43
-43
-33
-23
-22
-13
-4
3
15
27
36
49
64
81
103
122
135
151
171
185
193
202
208
207
199
177
139
93
49
11
-19
-41
-53
-55
-55
-54
-53
-50
-44
-40
-41
-43
-43
-43
-42
-41
-44
-49
-51
-50
-50
-55
-61
-60
-56
-56
-60
-65
-69
-67
-63
-64
-68
-67
-66
-61
-43
-30
-24
-5
2
-24
-50
-55
-56
-55
-53
-51
-45
-60
-75
-39
62
408
1078
1350
492
-745
-1079
-610
-222
-124
-90
-74
-75
-57
-48
-57
-54
-39
-31
-30
-27
-15
-5
1
14
31
44
56
71
86
103
117
124
133
147
156
161
165
166
154
125
83
38
-6
-42
-64
-78
-89
-91
-89
-91
-92
-88
-88
-93
-90
-85
-87
-89
-84
-82
-86
-88
-89
-91
-91
-93
-99
-102
-97
-95
-100
-102
-98
-93
-91
-85
-71
-58
-44
-24
-15
-33
-55
-61
-56
-49
-52
-56
-38
-38
-60
-24
78
346
983
1467
842
-496
-1088
-682
-221
-92
-46
-13
-16
0
22
23
28
38
42
48
59
66
76
95
108
114
135
161
174
198
220
209
213
258
278
267
285
310
289
247
205
151
93
54
26
-1
-16
-12
-14
-23
-15
3
4
-8
-11
-10
-15
-25
-33
-28
-11
-4
-20
-48
-70
-74
-69
-67
-72
-78
-81
-79
-77
-77
-78
-77
-72
-66
-65
-68
-71
-73
-62
-42
-48
-54
-19
-1
-53
-104
-105
-102
-110
-113
-111
-104
-104
-113
-83
12
232
651
923
466
-482
-962
-694
-291
-145
-127
-109
-101
-95
-87
-81
-68
-68
-91
-93
-60
-52
-81
-89
-67
-53
-50
-42
-34
-28
-17
-7
-4
-1
5
2
2
18
31
22
7
5
6
-10
-36
-56
-69
-78
-78
-74
-75
-71
-60
-55
-54
-49
-44
-45
-43
-40
-38
-34
-27
-22
-19
-13
-6
2
7
12
21
37
54
64
68
83
114
146
175
211
233
225
215
224
240
260
280
297
317
334
344
378
483
769
1301
1706
1315
59
