# session 35
8
23
-29
5
161
256
256
282
438
931
1566
1392
192
-740
-592
-89
87
104
138
133
122
136
136
126
126
119
111
115
119
115
117
127
133
135
146
161
169
177
192
210
221
227
232
236
236
235
232
210
165
109
52
-1
-49
-87
-112
-125
-132
-138
-141
-139
-134
-132
-133
-133
-133
-128
-123
-122
-123
-120
-120
-124
-128
-134
-141
-142
-141
-145
-145
-144
-147
-149
-146
-144
-141
-138
-137
-136
-135
-135
-134
-130
-120
-107
-95
-82
-66
-67
-85
-100
-104
-106
-99
-97
-100
-86
-85
-104
-68
28
271
868
1366
835
-427
-1039
-688
-251
-123
-73
-34
-38
-27
-5
-6
-4
9
14
17
26
36
44
55
68
83
100
116
133
152
170
184
199
215
226
235
244
251
253
248
226
182
130
80
34
-4
-31
-46
-56
-61
-63
-63
-61
-59
-56
-53
-50
-49
-48
-46
-44
-45
-46
-46
-47
-52
-56
-57
-58
-61
-63
-63
-63
-64
-63
-61
-61
-61
-61
-61
-60
-59
-59
-59
-59
-60
-60
-59
-59
-61
-60
-59
-60
-60
-59
-58
-60
-60
-57
-45
-31
-21
-7
3
-9
-32
-43
-48
-47
-41
-48
-48
-31
-44
-55
0
119
498
1184
1350
367
-775
-894
-388
-124
-93
-49
-32
-40
-21
-9
-15
-10
-4
-3
4
14
22
31
42
55
68
81
97
112
127
144
160
174
187
201
212
217
220
222
217
196
157
108
60
15
-24
-55
-76
-88
-94
-96
-96
-93
-87
-81
-80
-79
-76
-73
-69
-64
-63
-64
-66
-69
-73
-74
-76
-82
-84
-79
-80
-86
-84
-79
-81
-85
-81
-80
-80
-72
-65
-71
-77
-72
-65
-62
-59
-67
-76
-57
-38
-51
-51
-22
-17
-21
-4
-10
-32
-14
9
-2
-10
-4
-3
0
9
23
38
33
5
-14
-23
-33
-32
-36
-50
-42
-42
-68
-32
90
361
911
1287
695
-492
-1020
-688
-288
-142
-72
-41
-51
-36
-13
-10
-2
11
15
19
31
42
51
62
72
82
95
110
123
136
148
156
167
182
191
195
198
202
207
208
192
157
114
68
20
-20
-48
-66
-75
-79
-83
-83
-78
-76
-74
-71
-69
-70
-67
-65
-71
-76
-77
-76
-78
-85
-90
-88
-84
-87
-92
-91
-88
-86
-83
-80
-82
-86
-83
-78
-79
-83
-83
-76
-73
-78
-82
-85
-84
-67
-49
-40
-28
-17
-30
-54
-68
-73
-67
-64
-74
-64
-51
-79
-70
11
200
771
1485
1243
-88
-1010
-773
-266
-123
-94
-44
-49
-45
-19
-19
-22
-9
-4
-3
8
17
24
35
49
65
82
98
114
135
158
180
202
224
247
267
276
283
300
303
257
183
117
56
-10
-64
-95
-114
-130
-138
-136
-136
-136
-132
-127
-125
-121
-112
-105
-100
-97
-97
-95
-92
-91
-93
-96
-98
-100
-101
-102
-103
-105
-105
-104
-102
-98
-94
-92
-93
-92
-92
-90
-91
-95
-88
-67
-56
-56
-38
-18
-30
-57
-69
-72
-65
-59
-68
-61
-47
-72
-71
3
180
728
1489
1372
66
-978
-811
-267
-104
-91
-40
-37
-43
-18
-11
-11
1
8
9
17
26
34
46
64
81
99
118
135
148
173
203
220
235
263
290
304
314
313
293
250
189
119
57
7
-44
-91
-116
-117
-116
-123
-126
-121
-119
-116
-113
-118
-129
-124
-107
-99
-99
-93
-87
-90
-93
-93
-93
-92
-93
-93
-92
-90
-90
-93
-96
-94
-90
-87
-87
-89
-94
-96
-91
-79
-65
-54
-38
-22
-32
-61
-78
-79
-71
-70
-81
-71
-53
-78
-77
-5
163
709
1490
1394
63
-1032
-880
-307
-119
-104
-53
-49
-57
-36
-32
-33
-22
-21
-24
-16
-6
-1
9
22
32
46
65
86
107
130
154
178
201
224
243
256
268
275
268
238
185
120
60
8
-35
-67
-88
-100
-107
-112
-113
-112
-113
-116
-117
-119
-122
-124
-122
-124
-130
-131
-128
-127
-127
-129
-132
-134
-134
-136
-135
-130
-127
-127
-125
-122
-118
-112
-108
-106
-103
-100
-97
-85
-65
-53
-42
-27
-33
-60
-77
-80
-76
-74
-78
-72
-58
-71
-70
-6
141
559
1184
1189
138
-908
-919
-374
-86
-41
-5
9
6
25
39
41
51
59
62
69
78
87
99
112
124
141
160
179
199
219
239
256
276
298
315
324
329
331
330
316
277
222
171
129
86
49
29
20
12
12
18
18
14
16
15
8
9
11
5
-3
-3
-5
-9
-13
-21
-28
-27
-27
-35
-39
-35
-36
-45
-48
-45
-46
-52
-56
-58
-57
-55
-52
-43
-33
-26
-20
-23
-42
-65
-81
-84
-76
-84
-97
-84
-89
-122
-83
45
322
888
1261
628
-607
-1150
-796
-364
-204
-141
-114
-124
-120
-107
-107
-110
-109
-106
-104
-102
-97
-89
-86
-80
-69
-60
-51
-37
-24
-17
-7
8
18
22
29
33
33
33
23
-9
-59
-116
-173
-224
-263
-290
-305
-313
-315
-314
-314
-314
-311
-310
-312
-308
-303
-303
-302
-299
-300
-301
-298
-294
-292
-291
-289
-284
-274
-266
-262
-257
-252
-245
-237
-230
-218
-195
-170
-152
-126
-107
-117
-133
-133
-124
-107
-92
-91
-70
-44
-56
-38
52
256
818
1495
1251
-38
-939
-691
-134
70
120
175
188
206
244
264
277
302
320
332
353
380
388
374
382
420
451
490
572
649
665
666
695
730
759
786
795
801
823
831
805
768
713
632
581
582
572
544
546
563
550
535
548
559
544
532
543
558
555
536
516
517
538
552
536
495
463
472
489
471
442
432
417
398
395
386
356
326
302
287
286
283
277
279
266
217
158
115
79
34
-30
-83
-84
-90
-176
-256
-242
-126
298
975
956
-252
-1434
-1468
-958
-762
-768
-752
-799
-870
-884
-900
-944
-977
-998
-1025
-1054
-1077
-1093
-1113
-1147
-1192
-1233
-1261
-1283
-1312
-1349
-1387
-1421
-1459
-1497
-1536
-1597
-1695
-1812
-1939
-2090
-2254
-2407
-2539
-2638
-2697
-2729
-2754
-2771
-2759
-2719
-2697
-2715
-2731
-2732
-2761
-2813
-2847
-2864
-2885
-2911
-2944
-2983
-3017
-3047
-3088
-3124
-3121
-3088
-3054
-3021
-2993
-2986
-3005
-3056
-3104
-3115
-3148
-3279
-3543
-3915
-3979
-3031
-1006
1340
3386
5013
6301
7524
8982
10513
11703
12482
12997
13197
13020
12606
12052
11362
10693
10195
9717
9112
8564
8288
8204
8116
8016
8029
8058
7948
8003
8380
8497
8144
7342
5025
1373
-556
352
1257
682
-211
-1242
-2377
-2077
-5
1996
2713
2982
3578
3233
1881
2588
4262
894
-6270
-9642
-8905
-8725
-9105
-8675
-8434
-8527
-8301
-8068
-7942
-7652
-7380
-7266
-7181
-7137
-7171
-7208
-7143
-6961
-6846
-6829
-6650
-6394
-6187
-5658
-5252
-6173
-8102
-9928
-11429
-11504
-8725
-4620
-1844
-958
-1633
-3168
-3959
-3573
-3065
-2468
-1018
845
2024
2318
2287
2269
2058
1496
1115
1495
2171
2441
2606
3039
3508
4139
5112
5861
6108
5964
4884
2823
1002
-86
-1116
-2179
-2858
-3156
-3186
-2963
-2567
-2045
-1479
-888
-82
949
1977
2977
4105
5540
7165
8193
8335
8623
9380
9507
9076
9293
9847
9636
8847
8082
7265
6125
4751
3813
3639
3189
1783
378
-731
-2550
-5159
-8119
-11530
-14522
-15736
-15607
-15305
-15019
-14697
-14311
-13776
-13551
-13426
-11728
-8009
-3989
-638
2463
5089
6570
7110
7348
7494
7467
7223
6784
6240
5739
5340
4935
4422
3891
3497
3225
2962
2709
2538
2452
2460
2589
2798
3026
3255
3462
3663
3927
4231
4486
4690
4854
4929
4936
5015
5216
5404
5432
5357
5321
5307
5203
5008
4805
4618
4361
3946
3423
2876
2333
1908
1734
1703
1562
1167
517
-338
-1362
-2539
-3903
-5208
-5726
-5554
-5706
-5749
-5432
-7041
-9723
-8645
-4985
-4420
-6136
-6350
-5940
-6221
-6200
-5878
-5835
-5712
-5444
-5317
-5185
-4939
-4716
-4535
-4349
-4170
-3978
-3761
-3561
-3389
-3203
-2983
-2777
-2614
-2428
-2135
-1770
-1440
-1180
-956
-744
-548
-377
-219
-61
90
229
370
516
644
744
830
912
984
1053
1127
1193
1256
1342
1408
1418
1465
1600
1834
2348
2931
2711
1588
799
1016
1513
1686
1714
1755
1760
1762
1785
1781
1764
1770
1774
1758
1739
1722
1707
1701
1689
1663
1650
1649
1630
1598
1581
1562
1522
1482
1467
1457
1423
1373
1327
1282
1216
1127
1043
972
896
814
752
710
664
620
591
553
505
476
455
415
369
331
288
240
204
182
161
130
93
58
24
-16
-53
-81
-104
-127
-148
-178
-217
-247
-265
-287
-311
-324
-341
-373
-395
-390
-385
-391
-396
-412
-447
-486
-514
-519
-517
-536
-547
-531
-539
-550
-486
-329
43
587
600
-335
-1301
-1342
-859
-598
-553
-514
-500
-502
-480
-468
-465
-448
-434
-437
-428
-399
-377
-373
-357
-323
-306
-301
-276
-245
-232
-216
-189
-175
-170
-149
-124
-114
-117
-117
-105
-105
-143
-186
-185
-163
-169
-196
-206
-193
-178
-169
-162
-146
-125
-116
-118
-123
-126
-128
-121
-109
-101
-91
-71
-54
-61
-75
-62
-35
-39
-57
-50
-33
-24
-11
-13
-32
-24
14
34
35
37
24
8
8
2
-14
-28
-37
-22
-14
-73
-114
-32
173
598
1103
965
-31
-919
-975
-666
-548
-543
-484
-390
-288
-206
-154
-76
28
85
97
108
101
64
-1
-100
-212
-308
-417
-541
-640
-718
-771
-757
-699
-649
-597
-532
-478
-435
-424
-467
-496
-470
-470
-504
-497
-477
-487
-460
-396
-371
-340
-270
-264
-321
-357
-403
-470
-459
-376
-306
-276
-275
-186
19
72
30
116
-194
-802
-51
2316
4396
5485
6234
6454
5986
5430
4880
4094
3396
3166
3324
3565
3738
3891
3952
3801
3607
3468
3106
2333
1331
540
95
-784
-2563
-3815
-3255
-2354
-3027
-4279
-4030
-2564
-1595
-1613
-1996
-2311
-2403
-2273
-2147
-2122
-2052
-1901
-1777
-1678
-1556
-1447
-1401
-1408
-1445
-1496
-1539
-1560
-1563
-1545
-1499
-1407
-1249
-1051
-886
-778
-683
-592
-527
-492
-474
-452
-423
-412
-427
-441
-428
-388
-350
-336
-314
-259
-206
-174
-146
-117
-88
-60
-44
-21
28
59
49
57
88
89
82
125
170
165
162
197
222
223
248
282
279
267
298
343
357
358
381
409
409
389
379
373
366
371
375
368
368
370
377
412
529
911
1507
1573
623
-462
-614
-116
219
289
322
337
327
338
349
349
352
351
343
340
342
343
342
345
350
348
342
347
357
358
353
347
344
348
347
336
327
321
312
298
272
227
177
127
74
30
6
-10
-29
-45
-54
-58
-63
-70
-80
-98
-119
-124
-121
-133
-154
-163
-159
-158
-168
-183
-194
-197
-196
-199
-210
-220
-220
-220
-229
-224
-205
-196
-188
-173
-177
-206
-231
-240
-232
-225
-248
-270
-254
-247
-260
-224
-105
213
802
1108
444
-707
-1192
-860
-438
-268
-208
-171
-154
-138
-126
-120
-111
-105
-96
-79
-62
-49
-38
-29
4
35
-6
-76
-64
12
59
78
106
136
156
171
185
204
216
206
182
147
97
49
19
-6
-24
-20
-22
-46
-40
8
35
25
20
27
24
15
3
-30
-70
-72
-35
-27
-47
-11
67
71
-7
-40
-16
-80
-254
-351
-301
-268
-286
-225
-134
-136
-141
-77
-56
-80
-45
6
-5
-27
-20
-30
-73
4
448
1072
1060
107
-824
-852
-366
-71
-9
13
19
38
95
120
99
102
118
86
51
83
130
138
147
176
175
141
122
139
164
185
218
252
257
251
272
301
299
267
203
125
83
70
38
-9
-49
-83
-90
-73
-85
-132
-156
-133
-93
-72
-77
-79
-70
-68
-69
-58
-56
-86
-138
-184
-195
-172
-141
-123
-124
-130
-121
-106
-93
-70
-56
-82
-105
-90
-75
-83
-92
-93
-78
-75
-90
-66
-4
219
923
1641
1168
-303
-1097
-738
-261
-138
-85
-49
-69
-53
-23
-27
-28
-21
-9
14
15
0
14
36
38
52
85
108
114
120
141
173
189
195
216
240
240
231
230
214
167
101
36
-15
-55
-95
-128
-133
-121
-121
-128
-125
-123
-128
-122
-112
-115
-122
-126
-126
-116
-107
-117
-128
-116
-101
-111
-127
-118
-102
-107
-114
-109
-109
-103
-78
-54
-46
-47
-58
-75
-91
-92
-74
-73
-87
-76
-73
-95
-69
8
291
1056
1703
1077
-418
-1104
-671
-205
-121
-89
-45
-57
-48
-20
-22
-21
0
6
-2
6
24
31
35
45
58
79
109
128
132
144
171
194
204
219
244
250
234
228
221
176
111
64
21
-28
-67
-90
-106
-112
-104
-103
-107
-101
-94
-100
-113
-116
-114
-116
-119
-112
-101
-102
-115
-118
-108
-106
-112
-113
-115
-111
-100
-111
-133
-115
-76
-74
-84
-59
-30
-38
-59
-67
-77
-86
-81
-84
-85
-59
-57
-86
-70
67
513
1207
1311
297
-825
-932
-422
-141
-103
-66
-44
-45
-28
-17
-16
-6
0
0
5
10
13
21
32
44
58
74
91
108
123
139
155
170
184
194
196
199
213
216
195
163
118
61
21
-14
-55
-55
-25
-32
-49
-30
-15
-23
-24
-19
-14
6
18
3
-10
-4
0
-4
-8
-11
-13
-15
-19
-25
-32
-38
-44
-52
-61
-70
-76
-73
-65
-63
-63
-63
-79
-109
-128
-136
-139
-132
-132
-132
-118
-118
-122
-61
94
407
867
986
292
-696
-1027
-657
-237
-69
-23
1
14
27
39
44
48
51
56
64
69
74
86
99
110
122
136
149
165
181
195
207
221
233
243
250
254
253
245
223
182
128
75
28
-12
-41
-60
-71
-77
-80
-83
-86
-86
-85
-88
-91
-94
-95
-98
-100
-103
-107
-111
-116
-123
-129
-132
-135
-138
-140
-140
-140
-141
-143
-143
-141
-140
-143
-145
-146
-147
-139
-120
-105
-92
-79
-85
-110
-128
-132
-130
-127
-132
-126
-112
-128
-135
-80
61
508
1206
1254
172
-914
-927
-393
-142
-119
-82
-66
-67
-45
-33
-33
-21
-11
-6
5
17
27
43
60
77
95
116
137
158
180
203
225
246
265
281
292
302
310
310
293
258
214
170
130
98
76
65
62
61
