# session 11
17
-27
107
105
-336
-707
-562
-430
-438
-117
-284
-1866
-3507
-3620
-2768
-2007
-1490
-1198
-1083
-961
-842
-766
-664
-600
-615
-590
-537
-557
-589
-561
-544
-568
-580
-594
-634
-645
-621
-586
-533
-495
-235
704
1681
1185
-530
-1482
-1133
-674
-579
-431
-216
-150
-138
-58
10
-16
-71
-76
-78
-98
-52
40
60
69
155
197
133
95
77
-35
-173
-239
-280
-317
-288
-203
-130
-95
-46
64
186
235
243
278
298
250
191
158
85
-8
-19
-23
-124
-157
-35
34
34
104
226
680
1644
2062
1028
-331
-645
-292
-40
63
42
-16
149
435
513
354
163
153
376
616
672
616
609
676
738
727
654
589
564
533
477
424
368
290
223
166
81
14
28
61
36
1
-17
-77
-137
-133
-154
-196
-93
113
214
214
196
158
148
188
210
229
231
241
671
1519
1649
499
-642
-673
-171
91
159
196
197
211
234
213
190
214
233
221
227
257
261
244
228
179
85
51
174
341
373
304
279
292
259
214
225
225
167
151
142
73
256
403
-968
-3886
-5656
-4811
-3254
-2659
-2471
-2075
-1683
-1364
-1038
-785
-664
-618
-551
-478
-318
340
1265
1218
-6
-909
-728
-281
-142
-95
-36
-55
-96
-60
34
99
112
130
163
184
222
279
308
375
556
714
726
723
831
965
1000
910
725
518
348
228
161
140
126
102
101
116
96
75
112
139
116
99
78
53
106
192
242
319
375
321
253
237
458
1228
1952
1486
156
-633
-578
-304
-84
47
29
-14
40
85
31
-37
-18
55
109
129
135
156
217
305
409
535
643
682
670
622
520
400
278
109
-67
-159
-205
-265
-288
-268
-295
-392
-488
-540
-586
-663
-703
-659
-642
-715
-751
-726
-754
-799
-779
-740
-682
-565
-298
295
875
619
-374
-982
-805
-455
-284
-224
-324
-527
-586
-508
-484
-485
-417
-330
-273
-213
-100
78
258
379
485
669
911
1077
1177
1392
1641
1687
1663
1751
1722
1490
1356
1332
1155
900
763
645
483
398
365
261
119
-18
-133
-139
-82
-142
-256
-258
-269
-407
-490
-409
-121
579
1360
1224
101
-798
-869
-686
-676
-701
-667
-651
-686
-716
-684
-638
-648
-666
-652
-654
-669
-661
-687
-785
-843
-814
-809
-820
-709
-531
-477
-544
-585
-542
-456
-372
-329
-322
-318
-324
-380
-444
-464
-507
-598
-628
-599
-655
-764
-747
-611
-509
-451
-357
-297
-298
-235
-116
212
1108
1876
1227
-239
-770
-341
-2
119
220
164
55
109
214
220
153
97
112
182
220
213
236
318
432
564
696
787
847
925
1010
1082
1163
1221
1177
1102
1127
1183
1143
1080
1097
1121
1079
1004
927
845
786
738
668
592
514
397
249
148
111
51
-35
-78
-59
179
674
783
31
-815
-904
-525
-251
-165
-169
-170
-165
-247
-381
-504
-674
-866
-977
-1031
-1083
-1127
-1155
-1161
-1136
-1075
-988
-901
-820
-731
-664
-600
-476
-352
-277
-163
6
144
234
252
165
51
-55
-189
-289
-313
-340
-419
-542
-674
-754
-812
-897
-893
-746
-594
-495
-291
291
1140
1394
542
-500
-686
-272
61
237
405
570
714
821
883
947
991
922
773
665
585
484
412
380
335
307
320
286
181
79
-4
-70
-110
-159
-235
-290
-307
-303
-292
-293
-292
-263
-213
-149
-93
-75
-61
-9
38
21
-73
-221
-354
-440
-554
-677
-700
-585
-136
726
1144
292
-949
-1217
-729
-364
-191
8
221
515
887
1084
1041
985
981
894
721
585
491
411
405
431
317
115
45
84
68
36
58
66
37
56
156
291
411
480
471
411
372
388
415
407
367
338
353
371
317
195
53
-97
-221
-312
-418
-484
-463
-341
161
920
826
-507
-1652
-1594
-1094
-941
-959
-892
-784
-703
-692
-740
-761
-702
-580
-438
-296
-170
-109
-88
-26
13
-69
-166
-205
-293
-425
-511
-584
-625
-579
-548
-558
-481
-341
-253
-176
-66
53
212
385
463
456
494
598
633
569
529
491
346
209
193
140
-30
4
611
1364
1190
23
-850
-793
-485
-354
-144
119
180
156
259
411
465
441
416
420
414
377
388
483
540
501
453
393
261
147
132
95
-53
-205
-275
-319
-376
-433
-504
-563
-543
-467
-429
-427
-378
-293
-241
-213
-196
-225
-230
-128
-28
-19
-41
-46
19
177
331
604
1055
998
-19
-1078
-1237
-856
-568
-389
-233
-165
-154
-124
-79
-41
14
135
358
676
1000
1230
1423
1662
1791
1711
1626
1602
1456
1221
1075
946
713
445
186
-100
-363
-548
-648
-584
-373
-259
-323
-333
-215
-142
-177
-259
-339
-337
-252
-182
-154
-173
-250
-268
-237
-285
-72
634
913
-46
-1308
-1633
-1278
-1014
-904
-815
-810
-854
-877
-916
-968
-995
-983
-926
-855
-799
-714
-601
-513
-427
-303
-170
-54
24
27
-37
-124
-214
-287
-314
-332
-409
-499
-505
-461
-472
-524
-516
-426
-308
-192
-91
-47
-47
61
353
706
1004
1164
1137
1093
1133
1196
1659
2552
2575
1180
-35
-88
104
19
41
120
63
2
-70
-135
-22
68
-72
-88
174
305
238
331
530
588
618
684
646
576
574
509
385
338
292
136
-39
-131
-159
-159
-127
-64
-12
-13
-56
-99
-123
-150
-216
-302
-315
-238
-179
-187
-198
-178
-154
-127
57
581
1083
819
-67
-558
-352
-30
89
37
-146
-292
-331
-416
-528
-538
-515
-513
-492
-514
-575
-532
-422
-380
-346
-263
-206
-124
63
199
171
134
132
36
-115
-220
-307
-361
-347
-358
-413
-411
-371
-393
-432
-410
-394
-433
-454
-428
-397
-348
-275
-175
31
280
409
701
1441
1855
1084
-117
-460
-40
345
521
630
664
642
581
457
325
231
133
54
51
84
103
128
138
92
47
67
93
63
20
7
-11
-60
-109
-131
-131
-116
-116
-131
-101
-30
18
55
82
33
-60
-118
-169
-253
-371
-557
-770
-906
-997
-1068
-1025
-903
-584
362
1443
1194
-320
-1236
-895
-366
-229
-179
-48
93
146
77
19
64
120
146
177
190
185
203
225
224
240
308
385
415
454
565
661
651
590
536
501
520
554
523
469
467
475
451
398
291
166
123
133
71
-28
-62
-75
-120
-152
-182
-230
-250
-204
77
623
755
-41
-973
-1127
-810
-601
-475
-352
-308
-286
-207
-113
-90
-149
-153
-35
84
141
153
64
-117
-293
-428
-527
-584
-580
-490
-368
-292
-212
-81
26
81
136
202
284
371
380
290
186
92
15
44
139
103
-47
-105
-77
-53
34
117
53
-24
25
202
646
1097
761
-285
-915
-736
-396
-242
-108
14
51
100
204
274
315
393
431
345
254
275
322
306
277
269
216
106
38
49
33
-62
-155
-201
-244
-307
-371
-427
-485
-531
-555
-595
-652
-650
-581
-499
-409
-329
-292
-258
-194
-152
-180
-245
-255
-199
-103
269
1025
1338
411
-948
-1424
-1109
-800
-647
-495
-392
-336
-245
-158
-125
-80
34
145
185
214
301
406
472
507
540
537
453
391
477
569
498
381
328
273
247
273
236
216
391
571
556
580
754
795
687
714
836
828
744
695
652
584
469
346
335
351
335
725
1546
1687
620
-453
-547
-197
-64
-71
-97
-194
-295
-333
-369
-406
-382
-315
-273
-250
-210
-154
-101
-38
44
83
-9
-185
-290
-300
-336
-419
-475
-530
-634
-737
-799
-846
-902
-968
-995
-913
-770
-672
-587
-446
-335
-344
-379
-354
-330
-302
-240
-238
-279
-260
-184
172
929
1224
322
-846
-1097
-746
-564
-557
-536
-547
-547
-449
-343
-312
-293
-251
-206
-117
33
150
214
320
454
506
476
438
406
372
313
191
43
-69
-191
-395
-596
-661
-615
-587
-615
-619
-545
-484
-519
-530
-396
-243
-166
-52
125
269
398
529
633
771
937
1251
1979
2509
1742
251
-335
37
320
327
359
371
355
476
710
905
1018
1066
1033
957
882
747
542
409
421
504
547
471
346
297
255
161
148
149
-51
-280
-278
-216
-242
-201
-136
-229
-350
-340
-310
-333
-323
-219
-66
1
-67
-108
-35
7
-20
21
51
60
568
1527
1636
408
-713
-728
-383
-370
-474
-501
-523
-561
-596
-587
-498
-399
-329
-231
-148
-174
-243
-257
-262
-305
-321
-291
-297
-367
-441
-483
-509
-512
-479
-428
-360
-303
-334
-419
-430
-388
-407
-492
-591
-677
-741
-797
-831
-806
-780
-813
-809
-707
-601
-499
-380
-294
69
1004
1610
853
-367
-568
-8
362
492
584
565
479
421
351
265
220
221
220
175
109
99
155
218
259
304
336
325
341
443
512
450
364
345
351
349
355
383
459
571
661
715
739
681
529
394
347
282
117
-51
-128
-157
-188
-207
-189
-150
-146
27
606
944
161
-1114
-1556
-1224
-947
-825
-656
-535
-468
-338
-183
-83
-8
82
173
227
200
124
84
62
-5
-47
8
76
101
139
178
148
102
116
131
97
63
66
87
117
159
211
277
339
364
364
364
312
197
115
99
70
11
-31
-45
-63
-77
168
865
1356
768
-422
-982
-740
-404
-370
-479
-372
-32
146
88
114
232
232
143
55
-29
-60
-64
-139
-202
-131
-18
24
67
155
181
123
72
-20
-218
-357
-311
-252
-292
-312
-264
-208
-144
-80
-37
46
160
186
169
257
398
455
457
464
450
333
38
-176
127
538
37
-1191
-1867
-1663
-1317
-1152
-1024
-933
-872
-751
-620
-539
-461
-344
-196
-50
52
131
224
285
297
318
336
291
211
193
266
316
223
51
-61
-72
-2
90
124
125
176
269
359
444
525
589
605
558
493
432
369
385
517
599
561
556
539
494
884
1554
1249
-209
-1216
-1057
-693
-661
-635
-544
-540
-600
-666
-688
-626
-565
-582
-573
-467
-393
-392
-278
-41
124
225
373
488
498
457
414
414
410
285
108
28
-10
-104
-175
-180
-224
-307
-278
-157
-128
-154
-67
49
66
118
295
510
728
877
980
1316
1736
1996
2569
2762
663
-2408
-2837
-1006
2
-86
-78
-108
-353
-457
-371
-186
-11
-18
-176
-373
-507
-384
-64
148
191
171
121
131
265
408
479
531
555
485
343
189
36
-84
-135
-180
-254
-284
-257
-259
-287
-288
-297
-357
-432
-507
-595
-640
-620
-633
-690
-678
-567
-220
488
907
234
-933
-1358
-998
-577
-335
-196
-170
-221
-265
-294
-326
-383
-453
-482
-465
-454
-478
-477
-366
-205
-136
-134
-76
26
114
181
175
110
111
193
305
472
625
655
634
631
589
530
501
429
311
258
273
277
257
248
257
240
144
47
72
106
51
373
1292
1663
558
-836
-1071
-585
-274
-86
113
171
160
184
168
118
88
38
-20
-32
-44
-85
-95
-82
-109
-149
-174
-223
-287
-320
-328
-337
-348
-357
-359
-336
-299
-244
-123
61
215
294
377
519
626
616
553
475
340
197
106
23
-56
-98
-145
-168
-141
-91
322
1250
1607
536
-788
-1029
-649
-388
-167
1
2
63
203
229
250
382
448
370
311
365
445
453
405
381
400
401
350
284
211
105
1
-89
-219
-306
-221
-109
-161
-260
-249
-215
-234
-224
-149
-66
-7
36
69
61
-19
-131
-219
-291
-375
-459
-498
-504
-463
-139
476
615
-252
-1295
-1500
-1116
-849
-773
-711
-689
-710
-690
-634
-601
-577
-519
-413
-258
-71
126
322
476
529
498
446
371
245
110
13
-65
-159
-256
-336
-396
-429
-418
-384
-347
-285
-214
-176
-130
-41
42
108
180
234
266
305
353
408
437
427
471
555
671
1180
1961
1864
574
-485
-434
7
208
255
209
89
39
76
121
145
114
25
-59
-97
-94
-46
49
150
227
297
368
431
477
495
467
413
350
285
236
208
200
207
177
139
171
93
-243
-487
-346
-105
-38
-71
-105
-121
-124
-140
-159
-180
-210
-218
-222
9
841
1586
961
-575
-1304
-969
-548
-387
-310
-248
-136
-27
-34
-44
27
54
2
-47
-97
-175
-246
-296
-338
-359
-345
-311
-272
-246
-249
-259
-243
-221
-227
-228
-184
-129
-95
-59
-48
-123
-209
-202
-160
-148
-108
-59
-90
-142
-116
-88
-112
-97
-59
-96
-165
-173
90
801
1297
637
-603
-1041
-670
-366
-297
-229
-179
-174
-155
-129
-105
-69
-45
-39
-2
76
137
170
209
234
222
225
257
274
269
244
187
139
127
113
93
90
98
108
102
58
12
15
43
61
98
171
218
206
202
236
244
236
263
270
243
251
270
461
1086
1572
1006
-141
-602
-313
-57
-20
0
-4
-29
-12
-4
-28
-14
30
39
27
40
75
110
130
122
109
107
92
65
65
70
35
-9
-27
-51
-81
-80
-67
-84
-129
-198
-286
-354
-388
-426
-471
-471
-430
-402
-386
-355
-336
-327
-286
-260
-274
-249
-164
122
825
1361
745
-575
-1175
-868
-503
-372
-295
-253
-249
-247
-253
-222
-140
-86
-69
-42
-12
30
101
138
138
177
229
240
275
345
358
311
257
177
93
101
166
146
42
-6
25
36
9
10
39
32
-6
-15
6
22
20
-10
-51
-38
17
29
-8
-68
-19
465
1183
1134
79
-804
-775
-413
-270
-265
-271
-267
-236
-201
-189
-190
-188
-155
-93
-41
-10
19
43
51
59
89
126
156
189
211
202
173
141
102
65
48
35
13
-8
-23
-37
-39
-35
-42
-44
-17
21
46
69
94
92
51
15
26
26
-21
-58
-89
2
529
1140
849
-267
-952
-764
-395
-241
-167
-117
-105
-92
-63
-22
22
51
73
100
121
134
160
200
231
241
256
292
323
339
327
256
147
66
30
-4
-71
-151
-203
-225
-229
-212
-201
-215
-212
-179
-160
-159
-147
-130
-119
-110
-102
-73
-24
-23
-44
-10
52
360
1148
1621
809
-494
-872
-487
-178
-59
