# session 13
20
-21
101
30
-420
-770
-708
-550
-521
-486
-406
-356
-325
-282
-230
-180
-154
-142
-110
-74
-44
-3
27
24
16
14
-9
-55
-110
-171
-226
-261
-284
-294
-284
-264
-261
-260
-234
-208
-207
-209
-198
-184
-167
-151
-150
-159
-157
-147
-141
-141
-141
-128
-97
-80
-94
-102
-101
-113
-103
-81
-105
-112
-90
-14
538
1514
1623
323
-865
-823
-342
-182
-131
-54
-60
-76
-52
-42
-27
7
25
41
78
108
129
170
229
275
286
274
265
253
212
145
69
-9
-69
-103
-131
-159
-162
-142
-124
-114
-95
-68
-48
-40
-40
-47
-50
-49
-73
-121
-145
-133
-124
-133
-140
-127
-100
-83
-90
-100
-96
-98
-97
-80
-87
-97
-77
-44
262
1038
1486
729
-466
-787
-387
-113
-55
16
66
77
105
132
146
169
200
239
292
344
387
428
463
495
534
545
505
468
456
409
318
240
185
118
57
28
11
-5
-16
-29
-42
-33
-14
-16
-34
-42
-39
-36
-40
-65
-103
-126
-133
-153
-173
-172
-182
-218
-229
-202
-192
-212
-229
-257
-316
-339
-304
-313
-366
-356
-286
15
766
1298
642
-656
-1192
-843
-447
-303
-249
-220
-200
-173
-150
-109
-58
-24
14
72
127
175
236
298
346
373
368
344
337
345
304
193
91
37
-30
-115
-147
-139
-153
-175
-177
-176
-168
-141
-129
-145
-162
-174
-190
-198
-205
-223
-236
-237
-250
-270
-269
-247
-239
-246
-221
-149
-99
-101
-93
-63
-73
-98
-96
-114
-134
-134
-67
446
1390
1575
364
-873
-927
-437
-217
-145
-65
-52
-44
-7
3
11
48
80
104
142
187
232
288
351
403
434
449
444
411
352
274
193
123
64
14
-18
-42
-66
-75
-69
-64
-63
-60
-55
-50
-45
-42
-41
-44
-60
-77
-78
-78
-94
-112
-116
-119
-121
-112
-103
-102
-93
-86
-102
-114
-110
-108
-96
-77
-89
-100
-93
-3
458
1163
1166
137
-800
-805
-400
-194
-123
-64
-45
-36
-17
-6
14
44
66
95
137
172
199
240
293
343
380
403
404
379
339
285
212
136
68
7
-35
-56
-73
-85
-72
-50
-47
-54
-42
-12
6
1
-6
-9
-8
4
9
-3
7
43
63
71
96
112
107
107
111
117
133
127
94
87
112
111
87
89
51
-104
-233
-218
-254
-399
-402
-183
264
941
1168
263
-983
-1332
-935
-598
-493
-485
-558
-571
-390
-221
-290
-348
-117
29
-226
-289
240
622
374
143
311
362
98
-62
-40
-72
-110
-165
-419
-645
-567
-432
-438
-381
-206
-108
-157
-247
-324
-474
-629
-491
-167
-177
-521
-628
-287
200
547
682
710
807
1004
1158
1167
1109
1068
971
757
567
527
501
368
315
468
584
509
404
257
-44
-149
406
1374
1870
1301
111
-644
-606
-385
-390
-493
-813
-1296
-1215
-653
-715
-1326
-1384
-965
-760
-564
-88
296
369
408
602
790
774
544
169
-239
-522
-654
-775
-930
-989
-944
-954
-890
-529
-321
-652
-784
-426
-610
-1163
-738
-40
-527
-1186
-791
-334
-535
-588
-255
-1
242
381
-3
-439
-328
-97
-51
135
398
478
504
528
431
257
34
-206
-308
-232
87
858
1780
2103
1596
753
385
909
1596
1565
1258
1321
1324
1025
964
1228
1404
1427
1375
1241
1159
1123
859
419
164
88
-55
-192
-169
-114
-88
3
20
-82
10
156
-208
-865
-1170
-1172
-1097
-948
-929
-938
-675
-655
-1076
-1004
-414
-340
-682
-737
-655
-514
5
525
389
-205
-555
-386
-25
139
133
138
115
72
147
283
334
365
549
714
429
-141
-369
-323
-366
-149
484
851
636
291
85
-44
-105
-191
-382
-468
-338
-260
-406
-542
-431
-248
-286
-424
-359
-239
-303
-274
-107
-400
-1150
-1541
-1347
-1002
-634
-314
-332
-489
-398
-405
-817
-1108
-1038
-1022
-972
-598
-332
-377
-214
148
156
35
352
735
623
424
540
563
331
252
325
296
387
929
1644
1701
746
-213
-137
230
-140
-525
-151
206
15
-80
219
536
735
929
1092
1109
964
743
437
-10
-365
-358
-160
-48
1
96
199
176
-6
-124
-84
-198
-492
-507
-274
-316
-582
-566
-238
-70
-323
-483
-19
335
-201
-602
-1
526
571
1312
2326
1797
149
-629
-281
104
139
125
236
323
272
297
402
77
-676
-1004
-578
-154
-237
-376
-140
287
589
579
375
474
861
821
419
417
601
418
270
399
372
201
145
97
105
262
273
51
-73
-4
-1
-263
-565
-485
-258
-492
-877
-802
-657
-802
-723
-410
-493
-747
-486
12
-31
-518
-541
43
121
-541
-626
14
176
28
262
192
-447
-689
-269
373
980
969
51
-845
-871
-324
79
-97
-609
-704
-314
-120
-234
-217
21
296
370
196
225
552
508
9
-287
-284
-289
-253
-159
-127
-93
-37
-70
-150
-176
-187
-279
-388
-241
139
274
124
146
254
140
7
-50
-124
44
369
313
71
218
545
654
754
1010
1132
937
601
260
-71
-281
-374
-474
-262
544
1094
427
-749
-1112
-708
-408
-478
-601
-510
-271
-135
-141
-134
-128
-244
-407
-461
-453
-529
-656
-627
-380
-149
-80
80
375
347
-34
-204
-70
-15
-110
-223
-303
-316
-316
-340
-318
-338
-498
-609
-533
-427
-394
-319
-188
-273
-613
-625
86
1134
2098
2783
2929
2734
2662
2446
1851
1381
1049
628
856
1743
1665
230
-990
-1217
-978
-673
-524
-661
-767
-579
-380
-474
-625
-430
-74
-50
-281
-409
-468
-535
-569
-580
-371
85
277
131
127
254
337
604
902
757
253
-207
-460
-535
-541
-557
-585
-635
-664
-611
-575
-628
-634
-511
-373
-290
-278
-402
-576
-597
-507
-488
-532
-589
-628
-512
-352
-380
-69
989
1522
581
-292
35
274
-190
-290
97
188
-13
-164
-234
-221
-207
-272
-269
-160
-81
71
427
788
980
1094
1168
1142
1070
1002
783
375
177
422
655
539
357
219
17
-31
197
595
1097
1180
426
-298
-227
-38
-226
-333
-312
-438
-479
-381
-472
-478
-62
27
-767
-1484
-1377
-1106
-945
-337
218
-363
-1589
-2143
-1821
-1188
-653
-385
-210
87
280
192
125
320
554
532
392
396
318
-20
-165
52
174
134
175
122
-95
-141
49
213
250
247
304
356
228
-22
-169
-206
-265
-333
-289
-85
157
302
373
350
148
-57
-46
63
120
211
356
407
312
218
236
279
413
916
1492
1320
446
-150
-105
88
128
90
0
-131
-274
-407
-404
-217
-59
4
139
283
280
267
358
473
597
682
588
353
148
65
106
152
107
82
95
-63
-344
-407
-256
-217
-288
-235
-179
-295
-319
-51
230
309
277
146
-91
-281
-395
-491
-436
-182
45
129
172
205
263
536
1002
1125
511
-324
-622
-429
-232
-142
-52
-30
-113
-166
-139
-168
-279
-267
-154
-304
-717
-945
-908
-833
-712
-584
-630
-725
-659
-550
-547
-512
-355
-292
-376
-285
-49
-19
-51
80
87
-79
-16
305
533
496
269
96
175
309
176
-113
-213
-126
-143
-316
-302
108
551
629
631
1099
1747
1607
498
-561
-799
-524
-253
-98
-87
-224
-312
-227
-140
-167
-172
-101
-93
-162
-159
-66
-4
65
222
295
208
244
434
444
266
175
152
30
-142
-251
-314
-383
-464
-607
-821
-923
-827
-765
-863
-949
-969
-1006
-986
-836
-613
-321
44
380
573
630
674
719
594
508
1046
1853
1686
521
-314
-383
-287
-119
175
174
-21
192
690
955
987
946
833
762
810
846
851
1000
1267
1338
1104
826
667
588
639
817
942
930
783
476
147
25
95
201
267
289
309
317
216
72
3
-90
-238
-295
-337
-522
-753
-915
-1028
-1116
-1221
-1301
-1238
-1138
-988
-389
419
326
-790
-1551
-1195
-490
-227
-249
-149
86
244
192
-50
-334
-494
-510
-468
-413
-386
-457
-593
-693
-653
-396
-120
-161
-381
-370
-199
-252
-573
-883
-1032
-1119
-1168
-1072
-929
-878
-748
-453
-240
-181
-158
-193
-210
-80
24
14
94
194
113
80
288
491
564
703
986
1453
2180
2698
2256
1067
179
-36
-122
-400
-622
-634
-625
-697
-730
-684
-598
-433
-228
-126
-140
-165
-149
-72
75
221
322
452
592
547
336
279
457
587
584
659
897
1143
1183
1089
1156
1134
848
999
1178
592
826
1384
-311
467
7749
11669
5504
-1427
-3313
-4727
-6363
-6112
-5750
-5992
-5016
-2813
-1296
-1655
-2943
-3415
-2869
-2117
-1383
-512
485
1164
1033
517
362
694
1480
2185
1874
668
-853
-1885
-1229
-1107
-4650
-7056
-2690
2919
3279
1780
2115
2095
1035
1941
4896
5656
2830
176
-263
-227
-505
-399
174
983
1689
1912
1828
1681
1412
1095
837
669
715
907
982
933
873
889
1195
1627
1582
1181
1136
1389
1441
1242
728
-119
-724
-770
-732
-853
-880
-847
-860
-600
28
521
599
529
488
415
383
429
393
260
229
339
438
452
496
631
657
411
65
-177
-296
-284
-163
-24
157
504
1010
1510
1839
1972
1993
1955
1815
1555
1241
952
689
417
222
407
987
1181
354
-790
-1270
-1326
-1636
-2113
-2360
-2385
-2453
-2625
-2691
-2595
-2474
-2240
-1859
-1775
-2243
-2838
-3165
-3349
-3563
-3665
-3561
-3391
-3122
-2765
-2637
-2176
-489
1059
879
552
918
-293
-2886
-4363
-5578
-7712
-8990
-9618
-11016
-10801
-7653
-4747
-3271
-2373
-3481
-5744
-6293
-7463
-10611
-10421
-6686
-4857
-4006
-5748
-17100
-26733
-17081
-339
7267
16146
23700
4122
-34832
-51143
-31565
-2727
15369
26534
34436
36358
35017
31014
21087
13301
15894
20219
18565
16065
15387
13674
11345
9751
8302
6568
4173
1630
-114
-1964
-3692
-4091
-5178
-5090
4099
19699
28468
28127
26709
26502
25759
24298
21285
17128
13527
10264
8154
7777
6726
7300
11172
5716
-16204
-36281
-39408
-36154
-36581
-32030
-15814
2050
10293
10875
10977
11727
10870
10214
13005
16079
16724
19727
20410
4824
-19283
-31101
-32604
-35185
-35539
-31412
-28610
-26793
-23091
-20174
-19426
-18682
-17486
-16648
-16017
-15280
-14298
-13049
-11781
-10561
-9325
-8099
-6756
-5343
-4094
-2695
-840
965
2364
3527
4186
4171
4217
4419
3659
1989
1176
1890
2523
1665
392
957
3655
6536
8022
7991
7092
6380
6135
5606
5384
5833
3674
-2037
-5244
-2957
-89
1018
2345
2899
2551
5045
9933
13172
14598
14444
10772
5737
3631
3758
3555
3240
3262
3079
2856
2862
2786
2608
2510
2381
2185
2045
1930
1796
1718
1662
1553
1478
1462
1382
1272
1233
1279
1540
1860
1521
408
-490
-629
-502
-460
-400
-364
-414
-447
-482
-595
-703
-725
-714
-691
-627
-548
-506
-512
-532
-518
-468
-426
-421
-479
-609
-739
-798
-853
-982
-1113
-1150
-1141
-1157
-1147
-1060
-972
-914
-809
-655
-488
-214
252
794
1240
1520
1584
1381
940
373
-139
-447
-564
-474
-85
243
-144
-1014
-1387
-1036
-587
-312
-113
-124
-384
-587
-590
-537
-487
-402
-298
-202
-131
-68
59
285
559
775
867
875
834
691
467
260
90
-35
-145
-421
-928
-1420
-1678
-1739
-1693
-1574
-1455
-1406
-1402
-1388
-1370
-1396
-1469
-1547
-1616
-1674
-1680
-1626
-1545
-1427
-1246
-909
-325
63
-436
-1484
-1979
-1724
-1407
-1309
-1269
-1260
-1308
-1356
-1358
-1321
-1313
-1356
-1339
-1227
-1103
-954
-729
-510
-367
-254
-143
-60
18
103
131
84
37
12
-40
-113
-153
-143
-93
2
103
136
99
93
192
330
423
532
699
826
880
954
1058
1102
1076
1083
1157
1261
1614
2317
2599
1769
660
474
982
1339
1432
1467
1446
1411
1429
1425
1361
1306
1291
1295
1283
1236
1211
1243
1251
1188
1129
1121
1131
1112
1042
975
976
997
976
942
950
983
967
935
998
1029
940
1035
1083
131
-1629
-2808
-3199
-3678
-4174
-4317
-4648
-5059
-4308
-2407
-812
-12
685
1615
2452
2664
2196
1928
2635
3798
4488
4661
4650
4358
3732
3069
2484
1926
1593
1622
1784
1886
1994
2086
2023
1955
2079
2203
2396
3005
3277
2134
447
-239
-289
-777
-1507
-1915
-2142
-2407
-2652
-2854
-2996
-3027
-3049
-3138
-3158
-3094
-3142
-3275
-3300
-3315
-3472
-3603
-3569
-3481
-3370
-3170
-2898
-2554
-2270
-2454
-3158
-3704
-3613
-3322
-3343
-3466
-3356
-3169
-3105
-3082
-3052
-3045
-2970
-2783
-2575
-2347
-2048
-1749
-1520
-1313
-1064
-778
-528
-349
-195
-39
120
304
448
515
558
467
264
205
-199
-1706
-3580
-4555
-4684
-4441
-3608
-1579
1751
5180
8113
11534
14507
15894
17985
19641
15855
9030
4706
1447
-1818
-2672
-2574
-3345
-3053
-1637
-955
-653
-97
157
174
326
405
362
386
421
436
522
603
595
589
649
719
749
745
732
691
585
470
377
217
21
-75
-141
-289
-415
-465
-547
-630
-595
-491
-429
-414
-429
-468
-504
-563
-674
-759
-754
-733
-748
-732
-663
-538
-237
92
-112
-939
-1620
-1601
-1162
-782
-644
-690
-759
-797
-840
-836
-769
-748
-764
-720
-665
-659
-634
-581
-571
-566
-517
-507
-555
-565
-561
-587
-545
-466
-497
-497
-325
-201
-230
-220
-150
-130
-108
-44
0
60
248
532
755
859
897
908
918
865
623
352
352
577
903
1259
1129
194
-741
-869
-533
-339
-336
-397
-453
-453
-461
-493
-420
-281
-251
-282
-240
-182
-119
68
296
292
19
-285
-492
-670
-791
-739
-602
-545
-544
-582
-708
-805
-768
-702
-668
-651
-675
-656
-537
-466
-467
-374
-179
-6
98
149
208
283
285
252
310
548
1098
1670
1448
438
-274
-236
8
148
239
273
327
455
499
431
427
500
535
567
647
681
625
555
512
562
781
1051
1117
912
665
564
465
266
218
378
360
88
-47
12
-56
-229
-222
-109
-190
-403
-429
-282
-248
-331
-336
-290
-293
-265
-87
194
428
670
1049
1191
586
-381
-866
-767
-544
-415
-374
-384
-335
-243
-282
-432
-517
-521
-510
-472
-409
-343
-268
-221
-196
-96
27
37
8
46
53
20
83
148
55
-6
132
229
186
265
459
502
465
498
443
261
141
49
-137
-330
-461
-557
-568
-462
-298
-96
233
818
1448
1459
639
-226
-403
-89
200
291
247
169
124
78
-27
-125
-144
-154
-205
-220
-204
-278
-409
-458
-450
-517
-646
-700
-623
-515
-439
-320
-162
-131
-241
-293
-200
