# session 27
-7
-6
21
-99
-298
-317
-210
-176
-179
-147
-122
-116
-127
-160
-182
-201
-258
-302
-285
-277
-313
-349
-373
-365
-285
-190
-171
-196
-206
-207
-208
-204
-199
-186
-177
-187
-186
-159
-141
-146
-150
-147
-144
-133
-116
-115
-125
-126
-115
-96
-69
-48
-31
-13
-14
-37
-50
-40
-31
-35
-26
2
-1
-27
-1
96
393
1030
1414
703
-562
-1002
-532
-107
-33
-8
33
26
17
29
40
46
45
48
67
80
75
79
96
105
112
137
157
155
160
188
217
236
254
264
265
261
252
243
245
233
187
131
87
49
15
-3
-8
-10
-8
-6
-13
-20
-17
-16
-26
-30
-18
-21
-40
-38
-23
-39
-64
-57
-39
-46
-62
-64
-67
-87
-96
-77
-58
-65
-75
-77
-85
-93
-74
-40
-22
-14
-9
-26
-55
-62
-61
-71
-78
-77
-71
-71
-86
-78
-21
140
615
1206
1024
-134
-1062
-934
-389
-144
-112
-88
-77
-63
-43
-52
-58
-41
-33
-36
-29
-17
-8
3
12
21
39
62
71
71
82
109
140
158
164
175
188
180
162
158
154
123
74
35
3
-39
-80
-95
-90
-88
-93
-98
-96
-83
-71
-73
-85
-90
-83
-74
-75
-81
-81
-80
-84
-82
-76
-81
-91
-87
-81
-82
-81
-79
-83
-81
-72
-66
-62
-49
-30
-13
-12
-32
-51
-58
-63
-61
-62
-63
-44
-39
-72
-48
81
368
934
1357
817
-432
-1109
-828
-356
-153
-78
-37
-39
-33
-11
0
8
20
32
45
45
31
31
58
83
93
100
112
130
148
162
175
193
212
226
230
226
226
232
220
184
139
91
37
-8
-39
-62
-77
-81
-76
-73
-78
-80
-67
-58
-68
-73
-61
-59
-78
-83
-62
-57
-80
-89
-78
-80
-92
-87
-80
-88
-93
-88
-89
-92
-86
-86
-84
-64
-49
-44
-24
-11
-40
-71
-73
-69
-71
-76
-76
-59
-65
-93
-58
51
358
1057
1534
803
-598
-1125
-650
-212
-127
-88
-51
-61
-60
-44
-30
-13
-5
-6
0
2
2
12
26
36
52
74
89
101
119
143
164
185
205
222
234
236
229
220
203
166
111
51
-8
-57
-87
-103
-113
-117
-113
-108
-108
-113
-115
-111
-106
-102
-95
-92
-96
-99
-100
-102
-104
-106
-107
-110
-116
-122
-118
-110
-112
-116
-116
-115
-114
-113
-113
-103
-84
-73
-57
-25
-11
-33
-63
-83
-84
-65
-55
-54
-47
-63
-80
-23
99
417
1074
1428
636
-657
-1036
-516
-112
-61
-36
0
-9
-9
5
20
42
52
44
46
56
53
52
72
99
113
124
141
160
173
185
202
217
231
242
248
251
245
217
185
159
122
72
27
-14
-61
-99
-104
-87
-87
-111
-122
-111
-102
-103
-101
-83
-61
-73
-100
-82
-45
-50
-66
-58
-59
-75
-79
-73
-73
-79
-84
-86
-87
-83
-69
-57
-52
-45
-44
-70
-101
-114
-117
-116
-118
-123
-112
-104
-121
-88
35
259
703
1117
771
-319
-1069
-919
-450
-189
-92
-50
-46
-37
-18
-12
-10
-2
6
11
17
24
35
49
62
75
93
111
127
144
161
177
195
216
230
236
244
250
246
225
188
139
85
35
-7
-40
-60
-71
-78
-80
-78
-76
-75
-72
-70
-70
-70
-70
-70
-70
-71
-74
-79
-83
-85
-87
-90
-93
-94
-94
-94
-92
-92
-92
-92
-92
-89
-75
-58
-51
-37
-20
-29
-56
-72
-74
-69
-69
-77
-68
-60
-86
-79
-8
192
798
1515
1222
-163
-1094
-824
-284
-131
-109
-66
-70
-66
-37
-33
-34
-21
-14
-10
-2
6
13
24
37
53
71
90
110
131
151
170
192
215
235
251
259
260
257
242
201
139
76
25
-16
-47
-71
-87
-95
-93
-93
-96
-97
-92
-84
-76
-72
-76
-87
-95
-86
-65
-54
-60
-61
-51
-42
-41
-43
-51
-59
-60
-59
-63
-68
-63
-49
-39
-38
-29
-15
-28
-60
-79
-82
-79
-82
-93
-88
-85
-109
-93
-9
193
702
1224
868
-339
-1115
-879
-375
-163
-101
-64
-60
-48
-30
-30
-26
-10
-6
-5
4
14
21
30
44
62
79
93
108
126
148
171
191
206
222
237
245
246
242
221
177
123
72
21
-25
-56
-74
-87
-93
-94
-93
-93
-90
-88
-85
-80
-79
-79
-79
-79
-80
-79
-79
-83
-85
-87
-91
-94
-94
-92
-92
-91
-91
-93
-96
-97
-89
-73
-61
-50
-31
-26
-49
-71
-75
-71
-65
-73
-80
-59
-61
-90
-60
38
386
1206
1721
842
-677
-1130
-572
-173
-132
-87
-57
-76
-51
-26
-35
-29
-12
-8
-1
10
15
24
38
52
67
85
104
126
146
165
189
213
233
256
277
281
273
264
232
167
94
39
-1
-41
-85
-110
-107
-105
-114
-113
-105
-98
-90
-87
-96
-102
-92
-79
-77
-78
-78
-85
-93
-85
-78
-90
-97
-91
-93
-102
-102
-100
-106
-99
-76
-64
-61
-43
-37
-65
-87
-79
-71
-87
-111
-97
-67
-98
-125
-69
45
497
1421
1741
540
-936
-1097
-453
-152
-157
-109
-79
-100
-91
-65
-52
-45
-34
-25
-32
-30
0
19
13
23
47
58
80
113
125
131
159
192
213
230
238
230
219
209
175
110
46
-3
-52
-101
-129
-135
-131
-131
-136
-129
-115
-122
-126
-101
-86
-100
-102
-88
-93
-103
-95
-86
-81
-76
-81
-94
-98
-99
-100
-101
-104
-98
-78
-68
-63
-46
-39
-52
-59
-62
-74
-79
-79
-82
-72
-73
-83
-50
27
349
1186
1810
1025
-570
-1163
-610
-155
-131
-101
-25
-26
-47
-34
-1
19
8
4
24
33
34
50
69
74
81
108
141
150
153
180
209
224
243
259
269
281
279
250
208
155
95
39
-12
-57
-86
-101
-110
-113
-108
-103
-103
-106
-98
-76
-76
-104
-108
-80
-78
-98
-95
-78
-82
-91
-84
-79
-98
-110
-90
-77
-103
-123
-103
-92
-115
-113
-71
-56
-69
-48
-21
-48
-89
-98
-94
-89
-88
-95
-81
-76
-97
-66
58
397
1083
1459
625
-771
-1215
-686
-231
-130
-84
-54
-60
-41
-20
-14
3
2
-18
-6
22
19
17
52
79
70
65
83
98
109
133
160
173
176
181
190
197
197
199
195
158
102
54
6
-40
-56
-59
-78
-89
-77
-69
-78
-80
-71
-67
-69
-65
-64
-72
-74
-67
-64
-65
-68
-73
-71
-63
-68
-80
-80
-75
-76
-80
-81
-70
-54
-48
-43
-17
1
-25
-61
-69
-65
-56
-49
-65
-69
-50
-66
-72
13
202
675
1324
1231
28
-1056
-1030
-495
-209
-111
-48
-54
-66
-34
-14
-22
-20
0
12
7
13
36
48
56
80
101
109
127
148
159
175
200
217
230
248
260
255
247
238
204
136
63
8
-33
-64
-82
-87
-88
-90
-92
-87
-75
-70
-70
-70
-69
-70
-68
-67
-70
-71
-69
-69
-70
-73
-77
-80
-80
-80
-80
-78
-76
-75
-74
-72
-70
-67
-68
-68
-56
-38
-29
-16
-5
-19
-47
-62
-63
-57
-57
-69
-60
-48
-73
-65
18
226
777
1377
1030
-264
-1070
-766
-250
-110
-93
-60
-68
-61
-33
-29
-26
-26
-30
-15
-18
-44
-18
38
39
18
40
83
109
114
116
131
152
165
171
176
182
187
191
186
166
128
81
30
-18
-55
-82
-102
-113
-116
-117
-118
-116
-110
-102
-97
-99
-100
-90
-78
-75
-80
-80
-75
-71
-73
-79
-85
-86
-84
-87
-90
-80
-69
-61
-42
-31
-51
-75
-79
-78
-77
-75
-84
-75
-59
-84
-81
-6
148
652
1409
1353
81
-1031
-948
-391
-156
-106
-54
-50
-49
-22
-15
-15
-2
5
7
17
26
34
46
60
74
89
105
124
146
167
185
203
224
244
257
261
261
254
228
181
121
61
8
-37
-74
-105
-125
-125
-116
-129
-151
-130
-87
-87
-111
-92
-73
-97
-97
-55
-52
-83
-82
-70
-78
-79
-66
-55
-54
-71
-86
-76
-72
-89
-90
-80
-88
-84
-60
-55
-53
-34
-47
-92
-102
-77
-68
-80
-89
-77
-68
-90
-72
15
183
674
1356
1243
32
-971
-862
-328
-85
-38
-26
-43
-49
-33
8
45
23
0
27
25
-2
17
43
57
89
99
83
95
104
105
146
182
179
187
193
176
188
201
165
140
147
102
11
-42
-53
-72
-90
-81
-80
-118
-133
-92
-69
-87
-89
-79
-99
-113
-91
-71
-75
-86
-97
-106
-101
-95
-107
-103
-77
-93
-131
-101
-45
-50
-77
-60
-36
-56
-81
-74
-68
-87
-96
-79
-76
-88
-80
-68
-62
-26
101
507
1159
1288
316
-880
-1100
-562
-167
-93
-61
-12
-6
-28
-33
0
42
42
19
18
41
60
64
52
54
85
101
88
107
162
169
129
136
200
229
201
187
202
193
159
131
89
23
-23
-39
-58
-76
-92
-104
-84
-62
-94
-112
-68
-58
-102
-101
-74
-89
-91
-52
-52
-100
-112
-78
-74
-109
-104
-55
-48
-76
-73
-65
-73
-48
8
22
-18
-48
-53
-70
-83
-66
-57
-50
-33
-63
-78
6
178
645
1354
1327
95
-1065
-1036
-445
-165
-123
-67
-41
-45
-23
-12
-24
-19
0
4
1
17
45
66
64
50
65
104
120
130
165
178
171
197
227
225
234
247
233
214
179
112
56
14
-32
-66
-91
-117
-121
-111
-115
-121
-120
-115
-100
-90
-92
-88
-77
-82
-90
-86
-90
-101
-100
-99
-96
-77
-73
-94
-96
-82
-101
-125
-89
-35
-51
-91
-49
14
-21
-84
-73
-54
-72
-81
-79
-73
-56
-68
-76
-27
105
575
1326
1344
118
-1077
-1081
-494
-185
-101
-47
-55
-62
-24
-13
-22
3
31
24
-1
-1
40
70
59
60
94
106
104
125
136
133
172
230
239
223
226
225
212
207
185
131
77
27
-29
-68
-91
-129
-149
-120
-91
-94
-102
-99
-97
-97
-90
-79
-73
-73
-73
-72
-72
-73
-72
-74
-79
-82
-81
-83
-85
-83
-80
-81
-86
-84
-67
-49
-36
-17
-8
-29
-52
-57
-58
-54
-54
-62
-51
-46
-76
-66
2
236
947
1684
1222
-290
-1124
-730
-212
-119
-105
-60
-67
-61
-32
-30
-29
-15
-8
-4
1
6
19
36
46
54
67
84
108
131
148
162
177
187
203
225
229
216
209
192
146
86
32
-10
-48
-87
-115
-117
-116
-125
-122
-114
-120
-120
-103
-95
-99
-98
-92
-89
-89
-90
-85
-77
-82
-92
-92
-88
-90
-89
-88
-92
-91
-88
-92
-89
-66
-48
-41
-26
-21
-44
-65
-73
-79
-75
-72
-74
-56
-52
-81
-50
66
325
914
1414
886
-435
-1141
-817
-330
-152
-89
-46
-48
-39
-16
-11
-8
5
13
12
14
25
38
47
60
79
95
108
121
138
161
183
199
209
222
237
247
248
236
211
172
120
59
5
-36
-68
-89
-99
-101
-102
-101
-96
-93
-92
-87
-81
-78
-76
-72
-70
-69
-67
-70
-75
-74
-71
-73
-79
-83
-80
-76
-75
-77
-76
-73
-72
-72
-70
-67
-67
-68
-69
-68
-61
-48
-32
-14
0
-7
-31
-46
-51
-55
-55
-58
-57
-43
-55
-77
-31
90
461
1211
1555
625
-738
-1058
-511
-140
-102
-77
-49
-45
-20
-10
-16
0
13
3
5
25
38
43
52
61
66
79
98
110
116
129
148
164
179
188
193
207
220
208
177
143
96
43
1
-38
-75
-97
-109
-121
-124
-119
-115
-111
-103
-98
-96
-94
-91
-88
-85
-84
-82
-78
-79
-85
-87
-84
-87
-93
-97
-102
-106
-106
-102
-100
-103
-107
-109
-98
-79
-68
-57
-39
-37
-62
-81
-84
-78
-68
-73
-78
-57
-61
-91
-62
37
389
1192
1664
764
-735
-1175
-616
-195
-129
-81
-48
-60
-40
-16
-16
-8
3
6
14
24
30
41
57
72
89
110
132
153
178
206
236
262
285
306
321
326
323
303
254
184
111
46
-10
-54
-86
-107
-118
-122
-125
-124
-122
-118
-112
-106
-102
-100
-96
-91
-87
-85
-83
-82
-81
-81
-84
-88
-91
-93
-95
-95
-94
-92
-89
-89
-90
-89
-88
-88
-84
-88
-100
-96
-87
-106
-122
-92
-66
-86
-105
-96
-91
-85
-54
-23
-14
-14
-23
-47
-66
-63
-64
-73
-54
-43
-80
-69
19
227
863
1644
1356
-104
-1059
-738
-193
-96
-102
-45
-45
-61
-44
-24
-7
2
-3
-6
13
41
55
62
74
81
87
105
124
142
173
203
221
240
252
253
257
265
257
241
222
179
105
27
-20
-35
-40
-54
-73
-90
-98
-100
-102
-90
-69
-72
-87
-86
-91
-103
-83
-49
-55
-76
-76
-82
-101
-96
-78
-75
-78
-81
-89
-94
-87
-81
-86
-105
-116
-87
-54
-85
-125
-87
-40
-66
-89
-65
-71
-106
-98
-67
-60
-53
-47
-55
-43
-4
3
-29
-47
-54
-66
-68
-67
-61
-30
-24
-54
-27
104
471
1118
1328
415
-795
-1024
-489
-134
-97
-83
-53
-33
-25
-56
-56
13
31
-24
-17
37
33
14
49
81
70
66
89
110
135
177
203
195
193
218
248
256
241
235
236
187
117
85
51
-18
-55
-41
-42
-72
-93
-86
-69
-64
-62
-48
-52
-80
-85
-66
-70
-72
-43
-34
-62
-79
-86
-108
-110
-72
-52
-76
-92
-90
-110
-119
-73
-41
-69
-97
-104
-103
-71
-48
-79
-97
-71
-75
-90
-53
-33
-59
-37
19
7
-43
-58
-60
-54
-39
-48
-51
-27
-50
-73
11
158
484
1106
1331
443
-776
-1082
-618
-227
-91
-30
-14
-13
-1
-11
-15
21
48
42
41
50
50
53
72
85
91
117
155
168
160
172
190
180
184
237
272
261
265
262
200
146
146
115
25
-39
-67
-107
-131
-104
-89
-120
-138
-112
-80
-73
-93
-111
-88
-59
-79
-100
-76
-78
-122
-110
-61
-77
-108
-86
-82
-127
-132
-80
-52
-81
