# session 16
52
-136
437
2
-2354
-4289
-4208
-3609
-3602
-3491
-3100
-2803
-2222
-1361
-1340
-2424
-3236
-2948
-2285
-1927
-1739
-1550
-1427
-1373
-1310
-1243
-1261
-1358
-1407
-1373
-1337
-1305
-1227
-1119
-990
-792
-594
-577
-740
-877
-905
-928
-1006
-1100
-1180
-1249
-1295
-1297
-1335
-1528
-1772
-1808
-1623
-1417
-1205
-906
-609
-405
-241
-84
44
152
251
330
403
470
493
500
544
591
593
605
666
725
755
805
906
1000
1018
978
953
948
947
976
1008
1022
1068
1153
1415
2086
2595
1924
536
-24
420
826
871
875
861
779
757
808
840
850
868
883
887
915
954
902
748
653
698
781
820
800
664
418
212
165
202
142
-65
-232
-207
-91
-32
-8
31
68
89
111
135
145
141
138
138
132
118
107
101
92
82
74
61
50
56
58
31
-1
-5
0
-5
-11
-13
-17
-30
-50
-61
-56
-66
-110
-143
-128
-104
-121
-155
-153
-138
-201
-417
-856
-1474
-1920
-1844
-1340
-747
-487
-987
-1931
-2326
-1956
-1488
-1219
-999
-832
-742
-649
-544
-458
-382
-312
-243
-168
-98
-38
26
108
188
248
313
374
332
210
165
191
135
10
-62
-73
-76
-69
-44
-13
16
42
67
96
122
136
143
148
157
171
177
174
175
184
188
193
198
198
198
207
213
207
202
209
220
223
224
229
232
233
240
241
223
216
227
225
210
212
209
178
172
217
252
237
217
223
223
222
246
245
210
235
330
582
1148
1512
853
-376
-893
-520
-73
27
-59
-80
-9
-45
-195
-213
-80
7
3
15
71
61
-64
-138
-55
68
144
211
255
247
230
220
185
122
58
7
-30
-54
-67
-72
-75
-77
-73
-67
-64
-64
-64
-64
-68
-77
-85
-91
-98
-104
-108
-113
-121
-127
-129
-132
-135
-136
-137
-141
-144
-145
-144
-151
-163
-169
-163
-160
-161
-159
-169
-207
-244
-239
-211
-187
-163
-153
-172
-185
-173
-173
-181
-173
-181
-188
-148
-36
360
1032
1116
37
-1148
-1250
-695
-378
-330
-289
-248
-214
-172
-148
-129
-94
-62
-38
-7
34
81
130
183
244
305
347
365
362
339
309
269
192
106
55
9
-59
-101
-88
-64
-62
-62
-45
-27
-21
-10
17
34
37
46
62
67
74
90
106
111
112
131
155
153
164
199
194
207
277
158
-204
-377
-201
-26
14
71
150
183
196
209
226
256
295
339
361
378
456
473
248
-9
17
187
237
239
302
332
284
287
555
1107
1354
638
-497
-834
-363
-124
-418
-654
-560
-372
-222
-76
58
193
307
257
21
-228
-392
-508
-585
-576
-474
-343
-251
-166
-46
10
-90
-208
-162
-8
93
117
118
106
90
105
143
169
174
145
56
-65
-159
-236
-331
-429
-506
-569
-624
-672
-710
-742
-777
-794
-790
-816
-811
-643
-395
-241
-121
64
200
222
234
265
282
298
272
146
-10
-111
-177
-237
-286
-313
-259
-91
96
221
335
464
565
666
756
782
840
953
1128
1724
2529
2252
696
-437
-324
37
27
-34
-46
-116
-179
-207
-223
-220
-233
-284
-322
-337
-346
-338
-314
-290
-262
-232
-227
-227
-182
-104
-23
70
135
106
59
106
169
120
42
73
164
228
271
297
276
184
17
-157
-274
-371
-431
-339
-151
-51
-34
27
99
54
-137
-362
-434
-319
-228
-286
-334
-291
-261
-267
-245
-191
-177
-306
-522
-615
-584
-574
-558
-461
-346
-265
-218
-206
-203
-170
-95
-28
-24
-22
59
252
741
1393
1332
237
-727
-649
-134
86
124
178
190
180
197
211
217
221
232
272
268
143
35
95
216
274
324
405
466
494
488
429
356
320
287
232
185
154
123
113
126
134
131
131
134
131
124
111
98
89
73
55
45
27
0
-16
-24
-37
-45
-47
-65
-83
-75
-58
-65
-91
-102
-90
-85
-94
-94
-88
-103
-127
-141
-155
-161
-155
-163
-162
-119
-122
-248
-359
-331
-272
-269
-249
-221
-241
-221
-117
90
558
1006
619
-531
-1246
-1026
-554
-321
-219
-161
-147
-122
-85
-71
-61
-31
0
28
62
95
128
176
231
286
341
383
394
389
377
341
280
209
136
64
1
-48
-80
-98
-105
-105
-98
-89
-85
-82
-78
-77
-79
-81
-79
-79
-84
-90
-94
-99
-102
-101
-97
-94
-92
-90
-84
-83
-100
-120
-119
-107
-101
-98
-97
-102
-105
-95
-79
-62
-37
-19
-30
-52
-50
-44
-55
-40
-23
-55
-56
10
193
814
1592
1302
-159
-1114
-802
-256
-121
-83
-18
-20
-12
26
35
42
65
83
103
134
166
202
249
308
373
433
473
488
477
438
377
300
217
134
63
4
-46
-85
-106
-111
-107
-102
-97
-94
-94
-93
-90
-91
-97
-101
-101
-104
-114
-121
-122
-125
-128
-129
-130
-131
-129
-128
-128
-124
-118
-121
-126
-122
-116
-120
-125
-120
-106
-95
-87
-73
-56
-61
-89
-103
-94
-94
-92
-74
-81
-99
-63
42
391
1044
1244
316
-860
-1040
-512
-187
-133
-84
-55
-61
-43
-23
-15
6
28
43
64
91
121
160
209
262
315
360
388
396
384
351
296
230
165
101
37
-19
-63
-92
-101
-100
-95
-89
-81
-75
-71
-68
-65
-66
-72
-79
-83
-89
-96
-102
-105
-107
-106
-101
-96
-95
-96
-95
-92
-90
-90
-91
-91
-88
-83
-80
-78
-77
-75
-70
-65
-64
-66
-66
-68
-72
-69
-62
-57
-46
-22
-15
-40
-65
-65
-61
-57
-42
-49
-62
-17
92
379
923
1151
412
-703
-1041
-613
-216
-94
-37
6
6
5
24
50
79
100
111
120
136
166
204
238
277
334
387
411
413
415
409
358
274
214
180
126
57
0
-44
-68
-74
-75
-67
-61
-75
-89
-86
-86
-94
-90
-85
-93
-101
-102
-103
-108
-113
-117
-121
-124
-132
-143
-151
-152
-151
-149
-146
-143
-141
-138
-132
-126
-123
-121
-121
-125
-127
-121
-110
-103
-92
-68
-49
-61
-87
-87
-82
-98
-89
-68
-98
-98
-30
137
713
1470
1226
-180
-1159
-913
-382
-211
-148
-83
-86
-80
-46
-33
-18
6
20
38
73
108
142
186
244
311
378
436
469
469
445
403
336
251
170
98
33
-23
-64
-91
-103
-105
-102
-98
-96
-94
-86
-77
-71
-69
-70
-73
-79
-90
-98
-99
-102
-112
-116
-115
-117
-118
-115
-115
-113
-108
-104
-100
-94
-90
-86
-79
-73
-69
-66
-63
-61
-60
-53
-38
-25
-18
-3
18
16
-11
-25
-18
-24
-26
-7
-16
-34
7
120
459
1062
1221
331
-779
-954
-453
-122
-56
-13
13
14
40
61
52
37
38
58
88
120
150
176
210
260
306
341
379
406
407
402
378
309
245
195
69
-119
-231
-236
-214
-199
-185
-166
-137
-117
-120
-122
-118
-133
-169
-213
-256
-273
-259
-245
-240
-226
-200
-180
-169
-156
-141
-130
-122
-115
-109
-105
-99
-92
-86
-80
-77
-77
-70
-56
-51
-47
-28
-11
-20
-41
-43
-40
-53
-49
-31
-54
-64
3
141
522
1114
1119
97
-944
-1012
-529
-221
-113
-48
-30
-23
4
22
35
55
70
92
124
148
172
217
276
332
386
440
481
498
486
447
390
316
229
150
81
14
-38
-68
-90
-104
-109
-103
-89
-79
-82
-85
-82
-83
-86
-88
-98
-106
-104
-106
-118
-124
-121
-125
-132
-134
-134
-133
-125
-119
-122
-126
-122
-115
-112
-113
-113
-115
-120
-120
-106
-90
-80
-66
-44
-28
-36
-61
-71
-73
-80
-65
-48
-74
-81
-27
165
747
1400
1069
-257
-1091
-789
-277
-147
-123
-60
-45
-40
-14
2
15
30
43
66
97
121
149
194
250
305
354
395
420
423
408
376
329
265
190
118
61
11
-38
-70
-78
-79
-85
-88
-89
-90
-87
-82
-87
-97
-99
-97
-102
-112
-116
-117
-125
-136
-132
-123
-127
-136
-133
-127
-127
-125
-120
-114
-111
-112
-115
-111
-104
-108
-113
-105
-98
-98
-95
-92
-93
-83
-67
-63
-54
-23
-8
-37
-64
-55
-46
-47
-36
-43
-72
-51
36
290
847
1188
527
-656
-1075
-637
-230
-136
-99
-63
-62
-51
-36
-31
-19
-4
8
28
50
72
104
146
192
242
292
334
362
370
357
336
305
254
192
141
91
35
-4
-23
-44
-45
-14
5
-2
-3
-4
-19
-8
24
15
-23
-24
2
4
-10
-14
-13
-12
-10
-12
-13
-12
-17
-27
-28
-19
-15
-19
-24
-32
-45
-68
-102
-135
-159
-175
-177
-156
-128
-115
-111
-95
-70
-52
-43
-35
-27
-31
-46
-50
-44
-45
-43
-39
-52
-36
46
207
592
1066
906
-104
-990
-1002
-566
-271
-153
-97
-75
-71
-69
-44
-4
-7
-37
-14
50
81
80
96
148
211
256
290
334
374
387
371
340
296
235
162
92
31
-22
-67
-95
-104
-105
-104
-98
-90
-85
-76
-57
-48
-54
-58
-61
-73
-81
-83
-94
-105
-104
-110
-123
-119
-110
-112
-107
-97
-102
-112
-107
-101
-109
-119
-118
-115
-107
-96
-87
-79
-59
-40
-45
-68
-73
-66
-80
-81
-56
-74
-92
-40
101
590
1397
1455
189
-1063
-1081
-515
-251
-178
-94
-73
-73
-40
-22
-15
5
23
41
70
98
126
170
229
294
367
439
493
517
513
481
421
337
240
146
65
0
-51
-93
-124
-138
-137
-132
-126
-119
-110
-102
-97
-93
-91
-90
-89
-93
-102
-109
-113
-118
-126
-137
-144
-144
-142
-144
-145
-143
-143
-142
-140
-142
-137
-123
-114
-103
-79
-59
-68
-93
-100
-92
-100
-101
-82
-97
-118
-80
29
463
1293
1540
420
-924
-1075
-492
-199
-177
-127
-95
-84
-49
-44
-53
-17
29
31
19
54
121
160
171
216
297
370
420
449
455
439
406
350
273
191
113
43
-17
-68
-100
-110
-115
-122
-117
-102
-94
-95
-91
-81
-79
-86
-91
-95
-100
-102
-100
-104
-113
-113
-107
-110
-118
-119
-118
-120
-121
-128
-143
-142
-125
-118
-114
-91
-64
-58
-71
-87
-95
-106
-119
-102
-92
-127
-117
-34
169
765
1426
1030
-378
-1216
-891
-375
-211
-137
-73
-76
-63
-29
-23
-16
5
19
36
66
98
131
171
225
295
371
436
481
499
486
446
382
298
205
119
45
-17
-63
-94
-111
-119
-117
-112
-104
-96
-90
-87
-84
-78
-73
-73
-78
-83
-88
-93
-95
-96
-99
-105
-110
-111
-112
-114
-114
-115
-118
-119
-111
-102
-99
-100
-104
-105
-96
-86
-79
-62
-40
-37
-63
-82
-76
-80
-91
-69
-67
-104
-82
21
342
1107
1638
830
-688
-1200
-657
-231
-174
-121
-76
-88
-66
-35
-32
-17
7
21
39
66
96
130
174
227
287
347
398
430
437
418
378
315
235
154
83
20
-34
-79
-113
-129
-127
-121
-119
-113
-102
-96
-93
-91
-90
-87
-85
-89
-96
-101
-104
-107
-111
-114
-113
-113
-116
-117
-114
-113
-113
-113
-111
-111
-110
-107
-105
-101
-100
-105
-105
-95
-86
-83
-67
-43
-41
-67
-84
-74
-75
-84
-62
-63
-100
-72
29
339
1111
1655
827
-718
-1212
-629
-196
-153
-102
-54
-67
-47
-18
-13
5
30
42
60
84
109
142
186
239
296
351
400
430
428
402
367
319
249
170
104
48
-7
-54
-82
-92
-93
-88
-83
-82
-76
-72
-96
-138
-150
-130
-112
-105
-99
-101
-119
-134
-129
-116
-110
-109
-105
-96
-91
-89
-86
-81
-73
-66
-63
-61
-54
-48
-47
-45
-41
-39
-40
-41
-42
-45
-48
-44
-28
-3
-2
-47
-92
-89
-81
-82
-60
-64
-104
-88
8
337
1040
1351
395
-961
-1221
-619
-239
-184
-122
-81
-84
-56
-30
-30
-14
9
21
40
70
100
133
175
223
277
332
381
414
422
407
377
333
277
212
148
88
34
-9
-34
-44
-46
-47
-48
-45
-40
-37
-39
-40
-41
-43
-47
-53
-60
-64
-69
-76
-83
-84
-83
-85
-86
-83
-83
-86
-86
-82
-81
-82
-83
-82
-81
-78
-75
-74
-73
-73
-71
-67
-63
-60
-57
-54
-52
-49
-46
-44
-43
-42
-40
-35
-32
-33
-34
-34
-35
-36
-36
-36
-32
-29
-30
-32
-35
-35
-24
-6
1
9
30
33
0
-28
-18
-16
-33
-24
-19
-48
-30
68
334
914
1304
651
-603
-1089
-656
-234
-136
-94
-58
-62
-47
-24
-20
-11
8
23
39
57
80
111
140
168
207
256
297
327
348
349
334
313
282
237
182
125
70
21
-22
-52
-65
-68
-70
-72
-70
-65
-63
-62
-63
-63
-65
-71
-78
-76
-76
-85
-91
-86
-86
-93
-98
-101
-103
-99
-93
-97
-104
-101
-95
-94
-92
-86
-85
-88
-87
-83
-81
-80
-76
-72
-70
-69
-66
-63
-62
-62
-62
-60
-60
-64
-59
-43
-28
-17
2
17
8
-18
-35
-34
-40
-50
-36
-32
-64
-55
30
243
743
1181
724
-455
-1077
-742
-277
-134
-91
-47
-42
-31
-6
1
10
30
48
61
78
101
132
163
195
233
285
340
379
397
404
398
370
328
279
218
151
92
40
-6
-41
-59
-67
-69
-72
-75
-74
-73
-73
-71
-68
-73
-85
-92
-91
-93
-99
-101
-97
-97
-100
-99
-93
-94
-99
-101
-101
-102
-97
-92
-93
-91
-87
-95
-108
-109
-106
-108
-109
-108
-107
-106
-106
-104
-99
-93
-88
-83
-75
-62
-40
-22
-19
-18
-11
-19
-46
-53
-44
-47
-42
-39
-68
-53
55
234
615
1063
863
-143
-968
-947
-536
-253
-119
-63
-58
-42
-13
-1
4
17
35
50
66
91
117
144
186
237
274
310
361
402
417
422
422
403
354
282
210
151
90
25
-17
-31
-46
-64
-72
-71
-70
-68
-67
-67
-66
-66
-70
-76
-82
-91
-100
-105
-106
-109
-113
-112
-109
-105
-102
-100
-98
-97
-93
-89
-87
-86
-83
-82
-84
-81
-63
-46
-35
-11
15
10
-17
-30
