# session 36
2
4
14
-27
-94
-97
-55
-36
-28
-11
-3
-13
-37
-76
-119
-155
-186
-209
-219
-220
-220
-216
-209
-202
-195
-188
-184
-180
-173
-165
-159
-154
-148
-144
-140
-134
-130
-127
-124
-120
-116
-112
-108
-103
-99
-95
-91
-87
-84
-82
-77
-72
-67
-62
-56
-52
-49
-45
-41
-37
-35
-32
-28
-24
-22
-19
-20
-21
-21
-13
3
20
31
47
54
39
16
4
4
10
8
4
19
19
-2
27
120
387
983
1384
753
-458
-920
-495
-90
-14
6
33
26
33
50
49
50
56
57
60
65
69
78
89
96
108
127
146
160
172
186
198
210
222
229
231
234
236
233
222
201
165
118
70
28
-7
-34
-48
-56
-65
-68
-64
-63
-65
-66
-67
-70
-69
-67
-70
-76
-78
-76
-78
-83
-88
-88
-86
-90
-96
-98
-96
-96
-99
-102
-103
-103
-103
-101
-99
-101
-103
-101
-98
-101
-102
-97
-96
-101
-102
-99
-100
-102
-100
-98
-91
-75
-58
-43
-33
-40
-62
-76
-78
-75
-72
-74
-68
-58
-73
-76
-12
132
513
1103
1175
253
-794
-946
-486
-167
-84
-45
-25
-21
-3
9
10
13
14
15
23
35
47
61
73
85
102
115
120
133
155
173
184
198
215
226
227
225
227
225
205
174
138
92
37
-9
-41
-66
-81
-83
-82
-82
-82
-83
-83
-77
-74
-79
-83
-80
-75
-74
-76
-82
-86
-85
-85
-89
-91
-89
-88
-86
-83
-83
-84
-85
-86
-85
-83
-84
-85
-83
-80
-78
-78
-79
-81
-78
-65
-48
-39
-24
-7
-13
-39
-55
-58
-54
-50
-57
-52
-37
-55
-59
4
160
616
1283
1273
179
-869
-871
-357
-101
-56
-15
-3
-5
13
21
20
25
28
28
33
41
48
57
65
75
89
106
122
139
157
175
190
206
223
235
240
242
243
235
211
169
113
56
6
-34
-65
-87
-98
-101
-101
-100
-100
-100
-98
-98
-99
-98
-96
-96
-95
-94
-95
-97
-99
-99
-100
-101
-102
-102
-102
-104
-104
-104
-103
-102
-100
-99
-100
-100
-96
-93
-91
-89
-86
-85
-84
-80
-79
-84
-90
-90
-80
-62
-48
-37
-20
-14
-32
-55
-66
-63
-56
-59
-62
-45
-48
-68
-32
76
387
1016
1345
595
-614
-971
-502
-128
-69
-44
-18
-23
-10
7
7
11
19
19
21
28
34
44
57
71
85
102
119
137
155
171
189
209
227
240
250
258
264
264
253
226
182
128
76
31
-3
-27
-41
-49
-55
-57
-56
-55
-55
-54
-52
-49
-46
-47
-50
-50
-47
-45
-49
-53
-50
-45
-44
-44
-40
-43
-56
-64
-64
-55
-47
-51
-57
-42
-27
-35
-47
-37
-18
-12
-19
-23
-20
-18
-16
-6
-21
-107
-221
-269
-255
-253
-259
-214
-150
-129
-134
-128
-118
-108
-101
-102
-89
-77
-98
-86
5
190
616
1116
935
-96
-944
-888
-424
-155
-66
-25
-18
-11
7
13
14
19
21
25
35
44
51
62
77
92
107
123
142
159
172
190
212
229
243
257
267
271
273
270
251
211
158
104
53
10
-20
-37
-48
-54
-55
-55
-57
-57
-56
-55
-57
-58
-58
-59
-60
-61
-63
-67
-71
-74
-76
-80
-81
-82
-82
-83
-82
-80
-80
-81
-80
-77
-75
-75
-76
-76
-74
-72
-73
-74
-76
-77
-67
-51
-41
-29
-16
-23
-48
-66
-72
-68
-65
-72
-65
-57
-83
-80
-8
180
741
1453
1257
-40
-997
-786
-255
-102
-95
-54
-55
-58
-34
-29
-29
-16
-12
-12
-5
3
11
23
37
51
67
84
102
122
143
165
188
210
228
243
254
259
260
249
217
162
101
43
-9
-50
-80
-99
-109
-112
-114
-116
-115
-114
-113
-114
-113
-112
-110
-109
-106
-104
-101
-100
-99
-98
-97
-95
-96
-96
-96
-97
-98
-99
-99
-98
-97
-96
-95
-92
-90
-91
-91
-91
-80
-60
-46
-35
-19
-20
-45
-64
-67
-65
-63
-68
-65
-51
-61
-73
-30
86
449
1113
1334
439
-745
-973
-460
-114
-64
-38
-16
-20
-7
6
7
13
19
20
26
33
37
45
55
66
81
98
112
127
149
170
188
206
226
241
249
254
257
255
239
203
150
93
42
0
-34
-56
-65
-68
-71
-74
-74
-72
-72
-74
-73
-72
-73
-75
-75
-74
-76
-77
-75
-73
-75
-79
-79
-77
-78
-79
-78
-79
-82
-83
-83
-84
-82
-74
-72
-77
-78
-71
-70
-74
-75
-74
-71
-59
-43
-35
-23
-7
-16
-43
-59
-65
-69
-64
-66
-67
-52
-59
-74
-24
120
494
1085
1201
312
-774
-981
-522
-174
-78
-38
-19
-20
-11
0
3
5
7
11
16
21
30
43
50
54
62
75
93
106
115
131
154
170
177
188
201
213
221
223
210
186
149
99
45
-1
-38
-68
-86
-93
-93
-96
-99
-95
-89
-89
-90
-88
-92
-98
-93
-88
-94
-99
-98
-96
-95
-96
-97
-97
-98
-100
-98
-93
-97
-98
-89
-89
-93
-81
-65
-55
-38
-31
-50
-71
-77
-75
-66
-68
-90
-92
-76
-91
-85
-6
183
673
1291
1160
26
-966
-949
-450
-161
-74
-30
-12
7
27
23
26
49
54
36
33
48
61
71
81
93
118
147
160
161
174
204
231
250
270
286
293
300
311
299
247
174
112
54
-13
-60
-76
-86
-102
-110
-108
-107
-107
-106
-100
-93
-96
-104
-104
-101
-99
-97
-100
-107
-105
-97
-100
-109
-111
-108
-111
-113
-110
-105
-105
-105
-104
-102
-97
-94
-103
-111
-106
-102
-103
-93
-75
-67
-54
-34
-36
-66
-91
-99
-94
-87
-92
-88
-70
-82
-91
-37
113
566
1273
1333
237
-891
-928
-383
-107
-65
-30
-31
-43
-25
-15
-10
7
13
9
13
23
38
55
72
85
91
99
116
138
155
173
192
210
227
245
258
264
267
263
244
201
144
83
24
-21
-47
-75
-100
-98
-92
-110
-127
-121
-114
-109
-103
-101
-97
-91
-97
-107
-106
-98
-92
-85
-79
-76
-72
-68
-67
-66
-64
-64
-62
-58
-56
-60
-65
-65
-64
-66
-68
-70
-69
-54
-34
-24
-14
-5
-18
-45
-60
-65
-67
-66
-67
-58
-43
-57
-67
-14
136
532
1083
1063
116
-836
-880
-400
-117
-63
-31
-14
-16
-5
6
7
12
19
21
21
25
32
37
45
62
77
88
103
121
139
158
173
183
195
210
221
228
239
247
234
200
161
123
74
24
-6
-27
-48
-59
-62
-67
-67
-66
-75
-80
-71
-70
-79
-82
-87
-96
-95
-92
-99
-100
-94
-96
-102
-100
-102
-107
-104
-104
-113
-114
-106
-105
-107
-99
-92
-98
-107
-99
-79
-67
-56
-34
-27
-51
-74
-84
-88
-80
-76
-87
-74
-53
-71
-62
32
224
655
1154
984
-18
-874
-881
-459
-172
-67
-31
-17
-2
7
7
14
22
23
27
33
39
51
63
71
81
93
104
120
131
135
151
173
181
186
200
205
211
229
229
199
168
136
85
33
-5
-35
-61
-70
-71
-76
-85
-86
-81
-77
-69
-64
-76
-87
-81
-76
-83
-88
-87
-89
-98
-102
-96
-91
-98
-102
-95
-92
-94
-93
-92
-92
-95
-103
-102
-79
-60
-56
-44
-37
-60
-85
-91
-97
-101
-97
-96
-85
-87
-108
-73
17
247
898
1548
1085
-316
-1069
-707
-228
-113
-73
-33
-52
-48
-11
1
-7
-14
-7
14
24
20
31
48
60
76
94
107
126
151
175
200
223
239
260
287
292
284
289
284
234
161
96
36
-17
-51
-81
-109
-110
-96
-101
-117
-119
-109
-104
-108
-114
-114
-103
-91
-91
-103
-107
-98
-93
-97
-101
-104
-105
-103
-104
-108
-111
-111
-108
-106
-104
-102
-102
-105
-105
-102
-94
-79
-62
-44
-31
-39
-61
-77
-80
-74
-71
-85
-87
-69
-82
-95
-40
109
560
1288
1387
286
-887
-944
-389
-118
-93
-50
-31
-42
-29
-16
-12
-2
4
9
19
26
32
43
55
65
78
95
111
127
145
164
184
204
223
239
253
261
263
258
237
191
130
72
22
-21
-56
-78
-86
-85
-87
-91
-92
-90
-87
-86
-86
-88
-89
-88
-89
-89
-88
-89
-92
-92
-90
-93
-98
-99
-97
-99
-100
-97
-95
-96
-95
-91
-90
-88
-86
-86
-87
-87
-84
-74
-57
-40
-22
-9
-19
-45
-62
-65
-60
-55
-61
-58
-44
-55
-57
-3
147
570
1160
1128
123
-842
-849
-355
-92
-51
-23
-12
-12
4
12
9
14
19
21
25
32
38
46
55
65
77
92
107
121
136
151
166
179
191
202
210
216
222
224
214
185
141
93
50
13
-19
-39
-49
-53
-57
-61
-62
-65
-68
-67
-64
-64
-67
-66
-64
-69
-74
-72
-70
-71
-73
-77
-82
-80
-79
-86
-92
-87
-86
-94
-94
-86
-88
-96
-96
-93
-96
-98
-94
-82
-63
-46
-35
-32
-48
-71
-80
-79
-78
-76
-75
-71
-65
-83
-85
-17
138
515
1073
1122
217
-810
-978
-531
-189
-82
-38
-22
-19
-4
5
3
7
17
26
33
37
42
54
66
71
80
100
117
128
139
151
162
173
182
193
205
207
208
223
226
179
113
87
71
5
-76
-91
-64
-67
-91
-93
-85
-92
-98
-87
-76
-80
-86
-87
-91
-93
-90
-91
-95
-96
-97
-98
-96
-99
-106
-99
-89
-93
-96
-84
-67
-49
-32
-31
-54
-75
-80
-84
-85
-82
-87
-82
-67
-88
-96
-18
142
551
1215
1321
304
-861
-1048
-587
-259
-135
-65
-52
-53
-30
-20
-22
-10
1
7
18
29
39
54
74
92
107
123
145
170
193
217
244
272
297
319
334
344
344
322
268
193
113
34
-32
-79
-107
-124
-131
-130
-128
-128
-128
-125
-120
-120
-122
-122
-121
-121
-122
-123
-124
-125
-129
-131
-131
-132
-134
-133
-131
-129
-126
-124
-122
-122
-125
-123
-108
-93
-86
-67
-49
-61
-86
-96
-99
-93
-90
-102
-92
-75
-106
-110
-44
162
875
1831
1642
62
-1068
-787
-219
-128
-130
-66
-75
-79
-44
-42
-44
-28
-22
-19
-6
4
12
25
38
53
71
91
112
135
158
182
204
225
244
260
269
273
270
249
201
133
61
-3
-54
-91
-118
-132
-135
-134
-132
-128
-123
-118
-113
-107
-104
-102
-97
-94
-95
-95
-91
-89
-91
-94
-96
-98
-99
-101
-103
-104
-105
-106
-109
-110
-99
-80
-71
-60
-40
-40
-66
-85
-90
-90
-85
-89
-94
-77
-82
-109
-82
20
413
1275
1744
787
-708
-1071
-489
-131
-121
-84
-53
-70
-50
-30
-35
-25
-12
-11
-4
6
14
24
36
47
63
82
101
120
142
163
182
202
221
236
246
252
253
243
214
164
100
39
-11
-53
-84
-99
-103
-104
-104
-103
-102
-99
-94
-92
-92
-93
-92
-91
-91
-91
-90
-89
-89
-90
-91
-91
-92
-93
-94
-93
-93
-92
-91
-89
-90
-91
-90
-87
-74
-57
-46
-32
-16
-22
-49
-67
-70
-67
-65
-70
-67
-54
-66
-76
-36
92
498
1146
1227
235
-854
-945
-420
-115
-69
-37
-19
-19
-3
7
7
14
20
21
27
33
39
48
59
71
84
98
113
128
144
160
174
188
202
212
218
223
229
229
214
179
132
81
34
-5
-33
-50
-59
-65
-68
-68
-67
-67
-68
-70
-71
-72
-73
-74
-73
-71
-73
-76
-76
-77
-78
-78
-80
-81
-81
-82
-83
-82
-80
-76
-73
-74
-76
-73
-68
-68
-70
-69
-57
-38
-24
-12
1
-6
-33
-55
-61
-53
-46
-53
-52
-37
-55
-71
-24
99
463
1053
1131
212
-816
-938
-467
-155
-79
-48
-38
-34
-18
-10
-5
4
5
7
13
10
11
28
46
51
56
70
86
101
113
119
130
147
162
172
181
179
174
186
196
173
120
54
-2
-28
-47
-89
-123
-115
-90
-84
-96
-107
-104
-90
-84
-91
-94
-89
-89
-93
-93
-90
-92
-96
-98
-99
-99
-100
-104
-104
-99
-104
-107
-91
-73
-68
-68
-79
-103
-117
-117
-115
-116
-122
-120
-104
-116
-127
-47
143
501
1010
1131
381
-655
-1020
-710
-330
-137
-64
-44
-32
-9
6
16
26
31
36
47
57
64
76
93
109
123
139
155
170
187
204
222
238
252
264
274
283
289
287
268
229
176
122
73
31
-1
-19
-28
-29
-27
-24
-19
-17
-16
-10
-6
-11
-18
-17
-17
-20
-22
-23
-26
-29
-30
-31
-34
-36
-36
-35
-34
-33
-31
-30
-34
-34
-19
0
10
23
34
17
-12
-24
-26
-24
-27
-38
-30
-20
-47
-46
23
209
774
1495
1287
-43
-1033
-839
-301
-121
-93
-50
-53
-56
-36
-34
-38
-34
-35
-34
-30
-30
-24
-12
-4
3
17
34
51
68
85
103
121
138
153
165
173
174
171
156
116
52
-18
-82
-140
-188
-223
-245
-256
-259
-262
-266
-266
-266
-268
-267
-266
-267
-268
-268
-269
-272
-271
-271
-273
-276
-277
-280
-283
-284
-282
-282
-282
-280
-277
-270
-253
-235
-222
-205
-194
-210
-229
-232
-230
-222
-215
-217
-201
-189
-211
-199
-128
103
784
1515
1126
-303
-1147
-810
-295
-167
-133
-79
-78
-68
-34
-20
-8
12
26
41
61
80
98
117
140
168
198
227
256
287
319
351
383
413
439
463
485
501
507
496
462
406
346
294
246
207
189
188
193
198
202
209
218
226
235
244
247
249
255
256
253
252
253
252
245
237
234
231
221
208
201
199
189
175
171
181
188
184
183
182
158
125
106
91
82
76
59
47
42
10
-6
35
172
618
1252
1173
28
-1026
-1020
-509
-266
-243
-224
-236
-265
-273
-287
-310
-331
-355
-378
-394
-413
-428
-434
-446
-459
-460
-458
-461
-470
-476
-473
-467
-469
-473
-474
-477
