# session 19
-10
7
-58
-14
226
417
413
358
347
339
325
310
288
275
268
247
231
229
216
192
181
174
160
149
143
133
123
117
106
90
79
77
74
62
46
36
30
24
18
13
10
12
15
13
17
31
30
5
-21
-32
-33
-44
-61
-52
-43
-75
-68
36
237
706
1261
1044
-113
-1024
-944
-489
-264
-185
-130
-122
-122
-104
-90
-81
-72
-70
-63
-54
-48
-38
-23
-9
-2
7
29
57
85
115
149
187
228
258
272
274
264
233
189
140
84
28
-21
-74
-131
-170
-177
-167
-156
-148
-136
-121
-114
-116
-111
-97
-86
-82
-77
-71
-66
-60
-58
-60
-62
-62
-60
-61
-62
-58
-52
-52
-49
-42
-45
-50
-43
-40
-51
-60
-56
-50
-49
-51
-52
-54
-54
-53
-51
-50
-53
-59
-62
-63
-61
-56
-50
-44
-34
-16
-5
-10
-29
-56
-67
-54
-57
-80
-68
-56
-80
-60
50
345
980
1438
824
-460
-1014
-633
-236
-149
-103
-65
-80
-68
-34
-26
-21
-6
4
10
16
24
43
66
78
87
111
141
165
195
234
273
315
362
386
381
374
363
326
265
192
119
62
18
-41
-98
-112
-107
-125
-143
-128
-111
-114
-117
-110
-106
-101
-88
-85
-88
-84
-82
-92
-100
-97
-95
-96
-95
-93
-94
-101
-109
-104
-88
-88
-104
-107
-100
-104
-108
-100
-91
-81
-79
-90
-92
-82
-84
-92
-86
-78
-65
-35
-13
-2
13
9
-23
-44
-35
-27
-40
-46
-22
-15
-42
-10
111
368
893
1290
770
-419
-1055
-786
-346
-161
-94
-60
-53
-37
-22
-23
-12
4
6
10
29
47
51
50
61
79
100
124
150
177
210
245
281
323
356
364
366
363
327
266
202
128
46
-12
-47
-80
-104
-108
-105
-104
-102
-102
-96
-82
-73
-72
-70
-69
-78
-82
-76
-77
-87
-88
-87
-95
-100
-96
-98
-106
-108
-108
-113
-113
-114
-118
-114
-107
-110
-108
-96
-94
-101
-100
-99
-98
-82
-63
-57
-46
-24
-23
-51
-80
-83
-69
-77
-87
-64
-62
-90
-52
81
416
1053
1386
627
-629
-1071
-661
-275
-167
-109
-71
-74
-59
-32
-24
-21
-9
7
17
22
31
48
66
86
108
130
156
190
221
250
293
348
386
404
416
420
390
328
258
189
115
49
4
-30
-63
-90
-101
-100
-98
-100
-100
-94
-93
-93
-86
-81
-89
-98
-103
-112
-116
-107
-104
-113
-117
-113
-105
-98
-100
-106
-102
-94
-91
-84
-76
-72
-67
-63
-59
-50
-45
-47
-42
-38
-42
-40
-29
-24
-30
-41
-49
-50
-48
-48
-50
-53
-54
-54
-60
-69
-73
-75
-75
-76
-85
-89
-72
-45
-33
-35
-34
-38
-56
-67
-54
-48
-57
-52
-54
-66
-23
88
358
912
1262
648
-509
-980
-622
-240
-124
-70
-44
-53
-40
-21
-15
-1
9
10
17
27
30
43
65
80
86
104
136
160
176
208
252
286
310
334
353
363
361
345
317
279
229
175
121
71
32
11
5
4
2
-5
-9
-7
-12
-36
-65
-72
-59
-54
-65
-72
-77
-97
-117
-126
-150
-189
-203
-194
-184
-169
-159
-175
-189
-181
-183
-203
-213
-213
-219
-222
-217
-210
-199
-176
-144
-118
-103
-93
-72
-53
-51
-55
-53
-52
-59
-74
-91
-98
-84
-57
-25
5
14
5
-6
-11
-1
14
21
40
60
30
19
105
291
727
1313
1248
199
-793
-837
-403
-149
-55
11
21
25
60
79
86
105
117
117
130
153
164
166
179
199
206
204
213
228
239
258
287
308
323
343
348
324
281
228
165
92
13
-52
-93
-122
-147
-161
-175
-196
-206
-203
-195
-180
-166
-166
-175
-189
-214
-239
-246
-242
-243
-251
-262
-269
-262
-250
-245
-241
-230
-214
-184
-132
-91
-89
-90
-63
-41
-40
-27
2
14
8
3
5
6
-3
-19
-31
-35
-34
-25
-14
-11
-15
-18
-20
-11
11
27
26
24
14
-28
-73
-94
-123
-157
-141
-103
-103
-103
-63
-39
-57
-65
-38
-14
-24
-30
7
32
22
55
183
509
1096
1395
712
-425
-823
-433
-72
19
65
102
107
128
150
153
162
178
179
173
178
185
167
124
87
70
70
84
97
108
152
226
297
346
353
306
263
273
269
190
104
68
38
-9
-41
-68
-118
-175
-217
-246
-276
-305
-303
-275
-249
-227
-212
-217
-210
-186
-203
-245
-246
-223
-210
-181
-147
-146
-149
-129
-120
-124
-104
-71
-61
-62
-54
-45
-37
-26
-15
-15
-18
-19
-18
-14
-6
-2
10
28
29
12
6
19
32
37
39
41
43
44
45
46
39
25
10
-11
-26
-14
-2
-18
-33
-23
-20
-44
-69
-80
-80
-68
-67
-66
-38
-19
-21
23
147
466
1022
1225
452
-677
-1052
-697
-335
-182
-98
-57
-34
9
44
65
94
117
131
146
157
166
188
216
221
199
175
160
146
137
150
182
230
282
315
331
355
379
365
310
250
203
147
73
0
-51
-87
-131
-173
-177
-157
-179
-262
-338
-354
-372
-460
-534
-479
-356
-282
-242
-189
-140
-110
-97
-100
-106
-96
-75
-59
-46
-26
1
26
43
52
41
21
14
5
-26
-54
-64
-77
-78
-46
-13
0
8
8
3
2
-16
-42
-32
-7
-25
-64
-77
-72
-74
-98
-117
-107
-100
-92
-27
117
478
1085
1276
449
-666
-947
-539
-218
-130
-72
-32
-29
-24
-18
-15
-2
9
1
-2
10
11
4
25
63
77
89
135
184
195
192
211
262
330
384
415
434
432
397
342
255
127
25
-1
3
-6
-16
-16
-14
-5
2
-7
-13
-1
3
-26
-52
-57
-75
-97
-80
-71
-117
-165
-179
-198
-213
-198
-187
-196
-182
-150
-147
-163
-165
-167
-170
-152
-126
-118
-116
-98
-78
-71
-69
-63
-56
-59
-63
-57
-45
-39
-35
-31
-30
-35
-37
-33
-25
-11
9
21
23
27
26
10
-9
-10
-5
-17
-20
3
-4
-31
13
128
402
970
1302
634
-553
-1026
-674
-284
-144
-79
-50
-52
-37
-31
-44
-53
-82
-150
-214
-232
-205
-157
-107
-63
-26
7
46
85
115
147
191
240
284
314
334
352
360
343
303
252
193
131
76
31
-2
-27
-40
-44
-42
-34
-23
-15
-11
-6
-1
2
6
12
18
21
22
24
24
20
17
21
25
22
19
19
5
-23
-37
-35
-44
-63
-71
-68
-78
-100
-106
-90
-71
-56
-47
-45
-47
-35
-8
1
-30
-62
-60
-41
-28
-19
-29
-73
-131
-176
-177
-151
-146
-141
-108
-106
-120
-66
57
373
1002
1340
614
-595
-1035
-664
-312
-229
-179
-112
-80
-68
-62
-58
-42
-14
8
18
29
54
89
123
138
125
111
134
170
170
142
135
179
267
361
404
380
343
340
334
287
216
150
101
69
29
-37
-115
-173
-207
-248
-308
-337
-294
-227
-199
-194
-162
-111
-75
-56
-38
-15
7
13
-9
-44
-59
-56
-69
-102
-133
-172
-239
-291
-274
-231
-228
-249
-251
-243
-242
-234
-204
-163
-135
-131
-146
-168
-173
-152
-126
-120
-124
-109
-81
-59
-39
-16
-10
-19
-20
-37
-91
-130
-117
-81
-55
-47
-36
-10
-11
-15
54
199
558
1204
1445
597
-575
-861
-426
-98
-7
56
84
80
100
118
120
130
146
152
151
153
158
161
162
161
160
173
206
240
265
302
353
392
416
440
466
482
473
435
375
302
222
141
68
23
18
29
29
24
27
27
30
46
62
65
60
57
59
62
53
27
-1
-20
-32
-34
-35
-54
-83
-95
-87
-77
-79
-93
-109
-125
-159
-212
-257
-284
-312
-333
-314
-263
-226
-213
-201
-184
-193
-226
-239
-211
-168
-116
-58
-33
-71
-135
-183
-207
-222
-237
-241
-227
-208
-185
-146
-111
-105
-103
-87
-97
-141
-173
-191
-228
-262
-263
-230
-174
-140
-149
-145
-128
-155
-188
-137
174
812
1144
433
-725
-1090
-665
-297
-214
-173
-130
-114
-80
-26
16
42
45
16
-19
-6
56
110
123
135
165
168
141
149
197
238
278
332
375
405
432
441
427
403
358
294
246
212
165
125
110
100
94
97
82
61
79
111
108
98
107
97
60
44
44
25
16
37
35
2
-18
-29
-46
-45
-31
-34
-47
-61
-82
-98
-92
-83
-82
-74
-58
-53
-57
-45
-15
0
-12
-13
7
17
16
31
49
56
75
103
119
134
150
161
173
165
95
2
-63
-125
-191
-223
-231
-222
-183
-147
-147
-135
-81
-22
12
27
39
66
108
150
194
235
250
230
182
127
97
83
66
92
151
165
180
274
484
975
1531
1273
94
-769
-630
-191
-41
-28
-15
-42
-87
-151
-248
-340
-413
-494
-577
-637
-690
-751
-800
-842
-896
-890
-745
-578
-542
-564
-484
-304
-124
8
103
177
230
264
284
282
256
215
168
116
72
45
35
36
40
46
57
68
68
70
85
99
105
109
113
117
125
128
121
119
122
120
117
121
113
84
58
43
25
6
-6
-7
3
20
31
41
56
69
73
68
59
52
45
28
-16
-78
-136
-203
-313
-417
-415
-322
-239
-187
-130
-95
-115
-135
-103
-56
-35
-23
-7
3
30
79
86
29
-13
6
44
78
107
119
133
155
140
137
209
347
722
1331
1362
325
-735
-772
-270
-16
30
89
116
62
-45
-113
-58
41
84
104
138
160
174
191
202
211
220
210
197
208
225
238
295
386
420
383
375
423
458
457
430
337
197
107
84
68
60
64
4
-119
-177
-142
-109
-106
-118
-158
-180
-142
-119
-173
-259
-326
-377
-422
-466
-512
-532
-492
-405
-317
-254
-215
-203
-209
-202
-176
-155
-167
-202
-201
-147
-114
-138
-174
-204
-245
-271
-277
-311
-386
-452
-449
-375
-286
-222
-167
-125
-123
-139
-157
-177
-171
-146
-144
-133
-74
-19
11
51
78
74
61
-4
-121
-162
-100
-37
8
32
29
80
219
518
1106
1511
919
-300
-860
-531
-127
9
85
130
73
10
30
65
39
0
19
72
110
133
152
172
181
160
150
186
217
233
266
231
105
68
186
300
342
368
374
347
309
260
196
141
97
56
27
13
8
9
14
19
24
30
33
32
35
43
49
49
50
52
49
43
41
40
37
35
35
32
29
28
15
-20
-79
-137
-147
-108
-94
-135
-155
-131
-155
-258
-330
-309
-255
-215
-178
-137
-107
-91
-80
-71
-74
-76
-57
-64
-117
-138
-112
-121
-140
-94
-20
6
-23
-72
-81
-45
-28
-25
-5
-12
-16
60
240
683
1323
1344
303
-765
-833
-361
-121
-91
-71
-85
-100
-81
-81
-97
-92
-77
-63
-46
-26
-12
-4
3
16
12
-27
-55
-30
14
31
44
89
138
161
173
184
179
150
100
30
-36
-78
-114
-161
-185
-177
-181
-199
-184
-154
-154
-159
-136
-101
-78
-72
-72
-83
-101
-97
-71
-54
-39
-21
-15
9
27
-45
-143
-133
-66
-48
-49
-26
-9
-3
9
18
14
10
15
22
24
30
34
34
38
43
43
49
62
71
80
86
72
47
31
30
33
23
17
26
13
5
76
234
598
1173
1272
357
-747
-963
-535
-221
-122
-65
-50
-51
-29
-23
-31
-18
-3
-6
-5
2
0
1
24
55
63
55
68
88
79
83
163
262
304
307
313
310
290
251
184
90
-7
-82
-130
-159
-183
-200
-201
-190
-180
-174
-167
-152
-134
-125
-125
-115
-98
-92
-89
-70
-61
-78
-86
-66
-45
-39
-41
-43
-41
-39
-45
-55
-41
-4
8
-11
-7
15
6
-16
-10
0
-6
2
25
33
19
8
22
42
38
27
32
38
38
44
45
43
63
86
82
60
29
6
13
17
11
28
21
-29
-9
125
470
1155
1599
913
-415
-993
-651
-285
-205
-153
-98
-100
-85
-44
-30
-7
32
4
-96
-178
-205
-182
-111
-21
47
69
36
-10
-15
1
3
33
122
217
265
263
228
172
98
24
-46
-122
-191
-229
-248
-270
-295
-315
-309
-264
-208
-179
-176
-171
-148
-124
-114
-99
-71
-50
-37
-22
-24
-36
-26
-7
-10
-27
-35
-31
-25
-31
-49
-61
-57
-53
-54
-41
-27
-28
-19
8
21
6
-11
-13
-14
-20
-15
-8
-23
-36
-31
-37
-56
-46
-14
3
4
-2
-16
-33
-41
-37
-37
-30
-6
-16
-46
15
179
516
1136
1469
732
-526
-1008
-637
-249
-125
-64
-25
-24
-17
-4
2
14
27
40
58
61
53
70
105
117
112
121
148
170
179
193
237
302
345
362
382
397
387
358
316
247
168
103
32
-47
-93
-102
-116
-128
-121
-120
-119
-90
-79
-110
-108
-56
-37
-54
-49
-35
-53
-71
-54
-32
-34
-41
-43
-48
-43
-30
-23
-29
-40
-31
2
17
2
2
10
-7
-9
24
32
11
14
21
-1
-11
2
-5
-25
-32
-45
-63
-59
-49
-52
-58
-58
-46
-35
-69
-132
-152
-118
-101
-166
-276
-317
-260
5
673
1202
573
-844
-1508
-1123
-693
-607
-564
-495
-456
-397
-325
-259
-193
-159
-144
-95
-36
-6
18
39
47
78
132
164
182
222
265
301
353
413
446
456
474
497
487
446
394
325
246
173
104
61
65
65
29
8
27
37
24
30
64
70
35
26
54
63
58
74
74
28
-16
-19
-8
-4
-2
-3
-8
-18
-29
-25
-4
4
-11
-26
-25
-23
-26
-27
-25
-25
-31
-28
-17
-18
-24
-2
22
3
-33
-48
-54
-62
-69
-71
-58
-67
-96
-60
68
365
936
1265
581
-651
-1157
-791
-385
-256
-211
-183
-177
-162
-154
-160
-154
-143
-141
-141
-135
-124
-109
-96
-88
-81
-72
-52
-22
8
