# session 12
-22
-127
207
-69
-1437
-2510
-2444
-2125
-2117
-2051
-1881
-1795
-1688
-1528
-1422
-1357
-1298
-1268
-1256
-1249
-1249
-1235
-1197
-1155
-1117
-1069
-1008
-945
-889
-836
-778
-732
-700
-643
-567
-527
-518
-493
-462
-431
-388
-375
-381
-353
-302
6
810
1323
563
-714
-1058
-596
-260
-166
-79
-40
-44
-16
12
31
67
98
124
167
209
234
265
313
347
359
383
424
436
411
373
323
266
233
222
211
212
221
221
223
232
236
246
262
262
251
255
275
304
333
338
316
302
296
280
289
298
321
715
1456
1530
490
-458
-409
-16
82
81
124
119
107
114
92
77
100
114
106
99
100
120
155
178
181
184
196
214
231
233
208
166
120
79
58
55
47
27
12
11
8
-5
-16
-20
-27
-34
-14
19
21
-4
-27
-39
-26
-7
-20
-42
-74
-20
455
1156
1069
-7
-834
-715
-334
-226
-200
-147
-165
-213
-224
-226
-232
-222
-193
-166
-151
-128
-80
-38
-31
-14
36
77
93
94
60
3
-36
-71
-130
-187
-213
-216
-217
-225
-239
-262
-285
-280
-264
-289
-317
-296
-276
-287
-289
-299
-329
-324
-331
-390
-410
-376
-129
622
1246
611
-776
-1320
-888
-482
-374
-304
-253
-231
-189
-154
-139
-104
-55
-22
6
54
105
142
187
242
276
286
293
303
301
270
207
138
92
70
50
30
23
27
24
13
-2
-20
-26
-22
-35
-50
-34
-20
-35
-51
-62
-67
-44
-41
-68
-57
-60
117
900
1655
1086
-328
-861
-402
-59
-26
45
106
104
131
155
159
195
224
217
233
287
317
314
331
373
392
391
408
422
413
401
369
292
235
233
227
199
187
178
149
121
87
38
0
-17
-41
-68
-74
-85
-127
-173
-200
-221
-234
-252
-274
-286
-313
-198
332
852
481
-551
-1067
-804
-461
-347
-310
-302
-315
-299
-270
-251
-223
-192
-165
-142
-126
-103
-76
-59
-35
-3
18
42
78
87
54
12
-18
-41
-56
-61
-67
-68
-55
-44
-39
-34
-50
-74
-62
-47
-66
-63
-27
-35
-79
-94
-101
-123
-141
-160
-183
-207
-142
291
956
944
-66
-977
-946
-493
-259
-185
-118
-80
-54
-19
19
65
108
142
184
225
250
284
331
370
400
424
433
437
431
394
321
243
188
148
108
78
60
45
27
13
-3
-30
-61
-75
-82
-109
-136
-134
-135
-161
-187
-207
-211
-188
-201
-243
-248
-263
-31
833
1511
747
-706
-1124
-628
-336
-328
-269
-236
-249
-218
-189
-175
-136
-98
-69
-20
29
61
101
150
183
200
211
221
230
222
177
115
67
35
8
-15
-29
-39
-47
-51
-54
-60
-65
-63
-50
-35
-14
22
51
54
54
49
39
60
67
28
25
-11
27
773
1953
1874
284
-805
-531
-97
-105
-118
-74
-119
-130
-85
-78
-81
-57
-33
-10
16
34
54
77
92
94
91
90
98
102
82
42
2
-33
-62
-81
-97
-116
-131
-139
-147
-160
-173
-184
-190
-190
-189
-192
-184
-165
-166
-184
-198
-210
-218
-215
-232
-249
-271
-325
-70
758
1242
414
-803
-1004
-528
-304
-295
-236
-215
-224
-186
-157
-151
-118
-74
-48
-24
9
45
84
120
158
201
234
251
273
289
258
191
148
136
115
76
54
50
41
31
37
47
36
7
-7
7
22
22
29
47
47
32
28
24
12
15
15
4
-7
-59
42
637
1209
742
-384
-817
-459
-159
-85
-20
-13
-43
-3
40
33
38
70
94
108
136
171
192
216
267
316
331
322
312
289
238
170
107
50
0
-32
-57
-87
-107
-113
-123
-141
-156
-166
-175
-182
-183
-183
-181
-173
-162
-161
-166
-184
-208
-206
-196
-213
-223
-247
-210
256
976
893
-171
-909
-692
-306
-237
-217
-165
-175
-173
-139
-134
-133
-99
-63
-40
-16
11
41
77
116
149
177
203
217
208
172
126
84
48
11
-23
-45
-51
-50
-55
-56
-46
-48
-65
-73
-69
-55
-34
-31
-49
-43
-30
-62
-98
-96
-94
-93
-74
-83
-105
-110
-46
356
989
943
-63
-887
-764
-300
-86
-8
45
39
44
84
101
111
150
186
192
202
241
290
334
395
466
501
493
475
444
383
306
235
163
87
25
-13
-37
-54
-73
-99
-124
-143
-160
-173
-175
-170
-169
-173
-176
-164
-149
-154
-166
-175
-195
-198
-175
-188
-214
-205
-193
90
853
1233
349
-871
-1062
-549
-266
-233
-186
-163
-169
-151
-132
-115
-87
-64
-41
-10
25
65
104
139
178
218
244
253
241
198
131
66
13
-25
-50
-69
-83
-88
-82
-82
-88
-91
-85
-84
-92
-92
-77
-71
-78
-69
-47
-42
-45
-54
-69
-59
-50
-80
-82
-96
-97
427
1404
1462
173
-824
-598
-137
-92
-96
-31
-42
-48
-14
-9
-8
22
45
52
66
93
122
148
169
181
184
187
194
194
170
124
73
34
5
-20
-42
-64
-80
-88
-91
-93
-100
-110
-117
-119
-120
-116
-110
-110
-106
-90
-87
-104
-117
-129
-135
-128
-137
-159
-174
-205
-46
547
986
419
-621
-910
-500
-223
-200
-164
-136
-151
-139
-116
-109
-91
-64
-43
-9
33
65
97
145
188
218
253
291
297
262
208
150
100
58
19
-8
-19
-34
-50
-41
-23
-29
-42
-32
-22
-32
-29
-2
6
-2
18
40
19
-2
5
9
6
2
-21
-31
-36
-23
268
863
987
145
-797
-890
-456
-189
-122
-69
-47
-69
-73
-40
-1
24
50
88
125
155
193
250
314
361
394
429
443
412
351
277
197
130
85
42
0
-29
-48
-60
-63
-64
-78
-96
-100
-97
-105
-110
-106
-113
-123
-111
-103
-119
-131
-142
-158
-148
-137
-162
-177
-186
-70
500
1129
734
-504
-1108
-730
-323
-246
-200
-158
-174
-163
-133
-129
-115
-82
-55
-26
10
44
80
126
171
204
223
241
252
228
165
93
36
-6
-38
-62
-76
-84
-89
-88
-83
-76
-70
-70
-71
-71
-68
-58
-50
-51
-44
-26
-20
-34
-61
-77
-55
-45
-82
-93
-107
-63
463
1269
1140
-92
-910
-640
-212
-148
-133
-77
-84
-90
-69
-64
-53
-24
1
23
51
81
112
144
171
192
210
228
240
226
179
117
60
13
-25
-57
-83
-103
-116
-123
-128
-132
-138
-148
-160
-165
-162
-159
-157
-155
-147
-128
-115
-125
-131
-130
-136
-123
-108
-118
-119
-141
-68
459
1118
855
-278
-925
-628
-209
-101
-73
-33
-26
-13
10
20
38
72
106
141
179
222
261
297
342
391
419
435
449
422
340
261
213
163
96
40
6
-17
-27
-20
-19
-45
-69
-64
-62
-80
-87
-70
-58
-63
-64
-47
-35
-45
-59
-72
-81
-64
-51
-78
-98
-109
-46
412
1077
938
-178
-994
-821
-374
-204
-149
-107
-114
-116
-99
-92
-71
-35
-13
6
31
55
88
135
183
227
266
286
276
236
164
76
4
-44
-80
-115
-146
-161
-166
-170
-171
-165
-162
-162
-162
-164
-166
-156
-143
-145
-147
-123
-99
-104
-119
-130
-133
-116
-108
-123
-117
-126
-32
518
1145
777
-411
-974
-584
-190
-139
-106
-55
-63
-54
-31
-32
-22
5
28
59
91
116
157
206
236
256
274
281
284
277
233
166
110
68
33
8
-6
-15
-19
-21
-28
-34
-35
-43
-54
-63
-70
-73
-71
-74
-69
-45
-39
-59
-73
-76
-88
-98
-106
-118
-132
-185
-138
359
1046
922
-129
-875
-683
-268
-157
-145
-103
-91
-76
-70
-117
-139
-80
-12
22
56
110
169
216
253
290
327
357
377
371
325
261
203
150
99
59
27
7
3
-3
-17
-24
-31
-53
-68
-71
-87
-106
-101
-90
-93
-92
-87
-94
-108
-121
-134
-124
-112
-136
-158
-184
-185
157
808
858
-82
-930
-858
-421
-230
-176
-131
-139
-141
-107
-102
-113
-82
-30
10
51
104
159
217
277
322
350
366
368
340
285
220
152
83
31
5
-15
-39
-47
-38
-48
-75
-84
-78
-89
-110
-118
-117
-115
-114
-111
-102
-96
-109
-126
-135
-142
-138
-124
-122
-112
-117
-89
326
1066
1129
123
-766
-679
-254
-123
-109
-56
-50
-67
-57
-59
-61
-32
1
15
36
77
117
155
196
227
237
240
247
250
233
186
124
74
45
24
12
7
7
7
-4
-23
-35
-40
-54
-74
-95
-106
-96
-89
-106
-111
-73
-51
-81
-105
-102
-102
-95
-92
-116
-128
-132
-50
398
982
798
-219
-904
-706
-300
-163
-126
-83
-86
-95
-78
-56
-34
-8
12
29
61
108
150
175
191
209
230
243
242
224
177
103
34
-15
-59
-97
-124
-146
-157
-148
-138
-140
-144
-154
-176
-191
-197
-202
-203
-196
-184
-159
-125
-104
-97
-85
-73
-67
-53
-47
-56
-49
-47
-18
322
911
938
73
-727
-699
-297
-107
-82
-55
-24
3
22
32
51
80
113
149
178
206
243
278
309
340
350
359
396
406
348
282
240
178
112
82
68
54
46
42
44
54
54
37
23
12
-5
-13
-4
-11
-39
-47
-23
-21
-54
-76
-81
-99
-105
-95
-120
-151
-152
-130
167
847
1106
269
-802
-984
-561
-292
-230
-197
-202
-221
-217
-219
-212
-174
-139
-123
-104
-75
-35
17
60
87
111
127
119
90
37
-49
-124
-152
-179
-231
-257
-247
-248
-251
-228
-199
-179
-142
-98
-76
-58
-36
-29
-30
-15
7
34
66
74
50
24
-2
-31
-25
-27
-70
-80
-89
-1
637
1523
1337
-1
-857
-589
-173
-116
-104
-58
-68
-69
-46
-32
-4
25
36
64
120
168
198
244
315
366
364
350
361
363
328
272
207
145
107
88
69
48
34
23
13
7
-2
-22
-47
-63
-71
-81
-86
-88
-94
-102
-105
-103
-91
-82
-96
-121
-135
-132
-113
-113
-130
-123
-153
-79
540
1342
1082
-220
-1000
-716
-309
-236
-198
-136
-141
-145
-128
-123
-113
-98
-85
-46
7
43
77
126
163
171
173
182
182
165
136
84
7
-50
-67
-80
-111
-131
-130
-123
-128
-151
-166
-153
-144
-161
-173
-169
-174
-185
-190
-188
-178
-165
-153
-131
-108
-114
-134
-140
-134
-115
-106
-119
-112
-113
-82
343
1080
1115
85
-808
-723
-292
-139
-113
-65
-60
-59
-21
-1
-4
8
33
54
80
114
149
188
234
272
292
304
318
327
312
266
208
158
113
75
55
44
33
28
30
33
30
20
12
12
12
4
-4
-1
6
6
-3
-6
-3
-1
7
29
36
21
14
15
5
11
19
-4
-12
7
97
510
1077
940
-60
-834
-741
-335
-140
-89
-61
-53
-46
-35
-22
1
21
34
57
88
119
161
213
258
287
307
323
324
294
229
148
74
8
-58
-107
-127
-147
-173
-180
-175
-186
-202
-203
-199
-199
-208
-228
-249
-259
-258
-258
-267
-274
-270
-267
-272
-253
-211
-193
-203
-203
-214
-242
-223
-178
-183
-181
-145
-39
454
1179
1071
-122
-1058
-942
-483
-288
-216
-155
-141
-126
-98
-82
-57
-16
16
44
83
131
185
241
291
328
351
364
368
352
302
230
154
91
55
33
11
-4
-7
-6
-10
-8
0
1
-4
-8
-14
-21
-19
-19
-29
-37
-35
-31
-25
-23
-25
-10
21
27
7
-2
-10
-20
-18
-29
-46
-42
-42
219
1020
1574
830
-478
-852
-420
-157
-145
-87
-42
-47
-30
-25
-29
0
28
38
64
104
139
179
217
233
242
254
260
257
247
214
159
103
54
13
-7
-16
-30
-45
-58
-70
-78
-83
-87
-87
-84
-86
-96
-102
-99
-97
-108
-121
-120
-110
-102
-98
-87
-66
-56
-69
-87
-109
-126
-108
-100
-140
-150
-125
-25
425
1008
804
-269
-1010
-835
-418
-254
-202
-164
-166
-159
-134
-119
-92
-54
-33
-13
19
52
85
129
175
216
247
270
287
289
257
194
120
53
1
-27
-50
-80
-96
-90
-97
-121
-122
-103
-104
-121
-128
-130
-138
-141
-141
-145
-149
-152
-156
-155
-155
-164
-161
-138
-115
-119
-147
-164
-157
-140
-136
-158
-155
-117
-46
348
1112
1295
254
-919
-1038
-540
-244
-145
-64
-39
-35
2
38
64
100
142
182
228
282
331
372
418
465
499
517
520
495
446
379
291
199
131
84
39
7
-5
-15
-25
-28
-35
-51
-59
-52
-44
-46
-51
-45
-35
-43
-61
-61
-52
-56
-61
-60
-58
-46
-26
-29
-45
-42
-38
-35
-7
-5
-34
-27
-15
167
863
1513
988
-339
-942
-594
-226
-141
-95
-69
-84
-78
-74
-85
-78
-67
-60
-34
0
31
80
141
185
212
231
239
238
223
175
101
30
-30
-81
-121
-156
-186
-197
-197
-212
-232
-234
-236
-252
-259
-254
-254
-256
-262
-278
-285
-273
-265
-266
-258
-240
-232
-229
-210
-181
-176
-195
-195
-173
-152
-143
-150
-140
-105
-38
334
1089
1366
476
-666
-872
-430
-145
-74
-22
-9
-22
-11
-10
-16
7
33
35
47
80
122
176
241
287
309
327
344
351
329
266
199
156
105
38
10
28
32
12
1
8
15
17
12
3
-3
-9
-26
-45
-54
-67
-95
-124
-140
-154
-179
-210
-235
-241
-228
-229
-264
-296
-306
-332
-351
-336
-343
-346
-317
-266
180
1181
1577
461
-886
-1002
-473
-276
-272
-203
-180
-168
-104
-63
-42
1
43
79
131
186
242
307
366
408
435
441
436
437
426
385
331
275
224
197
193
186
174
170
170
172
178
180
168
152
145
144
133
116
109
107
96
85
73
50
47
80
81
28
5
34
32
-9
-30
-42
-62
-47
-20
-34
-32
-11
133
775
1582
1322
-43
-926
-688
-259
-161
-123
-75
-92
-98
-85
-104
-121
-111
-100
-87
-66
-47
-26
7
36
44
37
19
-8
-36
-69
-125
-200
-272
-329
-366
-387
