# session 39
281
187
406
295
-587
-1413
-1465
-1251
-1263
-1273
-1175
-1130
-1129
-1109
-1076
-1031
-1012
-1018
-979
-916
-889
-868
-836
-817
-810
-801
-750
-670
-650
-637
-528
-298
383
1471
1567
-42
-1558
-1460
-723
-472
-452
-380
-380
-390
-346
-327
-330
-315
-300
-292
-292
-288
-257
-223
-218
-203
-126
-15
67
112
164
240
300
310
294
285
278
260
230
190
137
72
4
-47
-68
-56
-18
19
41
54
48
32
40
60
56
43
45
44
40
39
27
12
12
23
32
32
33
53
68
56
59
74
59
52
99
133
115
103
140
201
210
154
143
183
162
153
278
624
1356
1923
1150
-597
-1447
-950
-318
-111
-37
-9
-39
-41
-38
-41
-10
12
-5
-10
2
-10
-41
-58
-60
-54
-28
28
107
195
271
317
348
380
390
367
351
353
323
247
169
111
72
45
15
-16
-30
-31
-44
-69
-81
-81
-93
-102
-90
-76
-74
-77
-90
-103
-103
-112
-146
-168
-167
-172
-191
-201
-186
-169
-171
-159
-119
-123
-181
-217
-221
-225
-227
-242
-248
-235
-277
-311
-213
22
637
1572
1552
-52
-1492
-1328
-543
-246
-193
-116
-118
-117
-65
-50
-45
-12
6
11
26
40
57
86
105
111
126
153
176
191
205
221
233
237
237
235
227
204
163
108
43
-25
-84
-126
-151
-168
-173
-164
-154
-153
-156
-148
-131
-121
-128
-138
-138
-140
-146
-148
-151
-155
-151
-149
-157
-159
-153
-156
-159
-148
-145
-153
-148
-128
-105
-77
-61
-74
-96
-109
-108
-91
-89
-97
-69
-66
-102
-65
34
434
1576
2492
1484
-592
-1269
-537
-71
-101
-48
11
-26
-7
35
37
57
100
121
116
118
156
208
243
277
312
325
339
373
385
377
404
453
463
443
433
431
412
355
252
123
11
-54
-79
-107
-147
-150
-110
-79
-80
-102
-128
-131
-107
-76
-46
-21
-20
-43
-82
-121
-149
-167
-192
-220
-236
-240
-244
-251
-252
-241
-213
-167
-125
-117
-126
-108
-73
-53
-36
-24
-51
-103
-132
-130
-110
-101
-106
-89
-91
-154
-166
-117
107
1002
2099
1664
-283
-1414
-939
-355
-332
-330
-264
-302
-327
-312
-333
-351
-347
-350
-349
-337
-324
-305
-277
-250
-230
-214
-191
-155
-116
-76
-19
50
97
124
155
191
209
201
173
128
76
28
-6
-25
-34
-36
-26
-10
-2
3
8
7
3
9
16
18
16
9
14
37
49
43
41
41
33
36
50
56
57
59
54
49
50
47
40
36
22
-8
-34
-52
-80
-108
-109
-106
-112
-91
-48
-39
-63
-72
-60
-37
-23
-16
6
10
-4
42
146
550
1613
2433
1509
-374
-1000
-327
143
143
177
220
198
227
267
265
275
298
305
312
327
343
356
367
377
391
403
409
417
440
464
463
457
455
427
374
329
268
152
3
-134
-231
-288
-335
-385
-411
-410
-419
-440
-448
-459
-479
-473
-446
-442
-454
-454
-454
-469
-485
-494
-500
-496
-480
-476
-496
-514
-516
-525
-542
-549
-554
-579
-596
-562
-496
-434
-384
-340
-293
-244
-207
-183
-154
-125
-108
-83
-35
9
34
35
1
-48
-55
-19
-14
-42
-21
31
60
117
282
766
1602
1888
818
-592
-869
-328
5
63
116
127
120
159
174
157
163
175
173
181
201
212
216
225
238
246
254
271
296
317
325
325
328
336
339
338
332
323
308
273
214
148
91
39
-9
-41
-51
-49
-46
-48
-55
-60
-57
-53
-56
-63
-69
-75
-78
-74
-77
-96
-111
-112
-107
-107
-113
-128
-144
-147
-140
-139
-149
-157
-150
-137
-128
-104
-73
-80
-119
-145
-149
-133
-123
-136
-124
-110
-150
-131
-14
278
1150
2117
1566
-377
-1432
-898
-268
-189
-159
-109
-172
-193
-154
-155
-148
-109
-92
-90
-70
-42
-18
2
17
32
55
84
117
153
186
216
244
266
292
313
298
250
198
133
47
-27
-86
-149
-186
-185
-189
-191
-164
-143
-144
-140
-140
-148
-133
-115
-124
-129
-121
-137
-168
-181
-185
-188
-184
-188
-193
-174
-154
-158
-162
-146
-126
-120
-124
-118
-98
-86
-71
-37
-23
-47
-70
-78
-73
-71
-83
-67
-36
-58
-62
2
232
1072
2187
1933
74
-1208
-852
-200
-89
-72
-2
-17
-3
48
39
28
60
85
88
93
113
134
130
127
166
214
225
223
243
267
286
314
317
282
272
297
292
247
193
122
38
-28
-78
-129
-159
-161
-156
-154
-145
-130
-120
-134
-142
-101
-74
-112
-140
-121
-113
-110
-82
-77
-100
-107
-107
-126
-132
-112
-113
-144
-157
-139
-135
-147
-135
-105
-102
-123
-141
-161
-187
-190
-178
-194
-209
-186
-187
-206
-145
43
548
1370
1576
431
-960
-1185
-628
-305
-262
-201
-152
-159
-169
-160
-136
-125
-136
-129
-107
-104
-104
-78
-42
-14
4
18
47
76
85
101
142
165
162
172
197
203
197
186
144
77
29
4
-34
-79
-91
-77
-79
-95
-83
-56
-56
-65
-54
-46
-51
-37
-8
-5
-12
3
21
18
16
29
51
75
91
91
85
87
103
130
150
164
190
218
220
213
203
177
167
184
196
218
233
207
243
371
631
1358
2196
1784
112
-917
-541
70
242
306
382
396
379
281
114
8
-55
-128
-127
-35
47
83
88
43
-19
-57
-93
-130
-133
-128
-145
-155
-148
-147
-153
-160
-178
-210
-273
-371
-469
-537
-586
-621
-639
-641
-631
-621
-621
-630
-640
-622
-577
-572
-616
-622
-573
-532
-520
-517
-506
-475
-449
-448
-436
-405
-392
-381
-352
-343
-344
-284
-173
-84
-24
29
44
16
11
69
131
134
137
192
206
169
199
375
1059
2343
2777
1142
-878
-1109
-254
120
94
158
227
265
297
272
262
280
235
191
230
279
302
338
367
383
410
409
373
373
406
405
390
421
469
484
489
510
498
414
306
204
89
0
-11
3
-32
-101
-136
-111
-82
-99
-131
-149
-201
-304
-385
-405
-431
-491
-483
-375
-298
-290
-251
-202
-233
-264
-215
-178
-201
-190
-141
-130
-118
-57
-40
-101
-148
-150
-134
-115
-139
-175
-137
-124
-211
-230
-117
271
1259
2068
1219
-689
-1487
-916
-403
-345
-279
-194
-197
-173
-122
-99
-64
-24
-19
-14
25
71
93
96
109
148
188
199
201
216
234
256
298
337
338
309
288
279
237
148
63
5
-66
-142
-173
-176
-188
-188
-166
-160
-171
-161
-136
-130
-136
-130
-122
-115
-99
-89
-104
-117
-100
-86
-101
-110
-101
-116
-141
-123
-97
-111
-113
-71
-59
-90
-106
-118
-143
-137
-116
-118
-118
-132
-147
-114
-50
415
1660
2485
1312
-701
-1223
-511
-138
-185
-138
-93
-113
-84
-61
-70
-61
-50
-51
-37
-4
35
57
65
90
120
134
150
185
229
271
295
297
300
313
340
362
327
233
143
71
-19
-97
-113
-108
-131
-144
-126
-112
-118
-135
-161
-163
-133
-149
-217
-223
-169
-184
-253
-250
-199
-204
-240
-243
-236
-247
-246
-214
-192
-196
-181
-149
-148
-132
-57
-20
-59
-72
-67
-97
-92
-58
-73
-89
-74
-64
-48
22
485
1562
2129
960
-766
-1114
-455
-122
-141
-91
-52
-57
-18
2
-10
8
22
7
33
87
80
60
105
149
158
193
233
222
215
271
342
353
321
335
399
415
357
295
236
133
27
-27
-61
-91
-96
-103
-104
-78
-94
-137
-97
-62
-140
-157
-51
-57
-176
-167
-68
-80
-149
-155
-145
-166
-189
-191
-154
-120
-175
-249
-204
-131
-156
-167
-111
-115
-164
-165
-165
-182
-168
-159
-164
-150
-179
-221
-142
-20
269
1123
1898
1242
-423
-1256
-887
-391
-233
-179
-129
-102
-95
-92
-64
-52
-73
-49
5
9
8
35
49
74
128
148
134
144
178
231
298
317
303
324
343
329
348
349
239
103
10
-100
-194
-187
-161
-202
-230
-209
-214
-228
-191
-166
-187
-188
-136
-73
-78
-143
-140
-77
-85
-112
-76
-65
-88
-94
-118
-117
-50
-33
-92
-80
12
35
-37
-85
-70
-72
-91
-72
-38
-52
-104
-97
-31
22
465
1600
2233
1091
-631
-1040
-505
-250
-227
-92
-33
-64
-27
4
-2
27
22
-31
-2
92
120
85
83
144
210
194
157
232
320
291
309
412
388
318
420
514
408
254
142
33
-25
-71
-180
-247
-230
-251
-297
-276
-241
-260
-259
-188
-163
-240
-266
-165
-115
-198
-220
-122
-118
-219
-212
-148
-172
-175
-104
-107
-217
-285
-209
-73
-72
-184
-161
-25
-51
-197
-217
-156
-164
-175
-120
-117
-210
-247
-148
309
1455
2392
1529
-470
-1307
-726
-217
-216
-254
-233
-205
-149
-144
-174
-166
-155
-117
-40
-38
-84
-83
-87
-73
41
144
120
70
134
277
313
206
204
390
472
365
331
332
144
-43
-25
-37
-224
-321
-213
-153
-237
-248
-166
-180
-234
-180
-116
-139
-160
-127
-102
-115
-112
-83
-95
-119
-69
-38
-104
-135
-78
-42
-61
-130
-192
-105
22
-63
-185
-83
36
8
-3
0
-41
-7
8
-117
-118
34
-5
-138
-93
104
851
2256
2657
958
-866
-904
-190
-65
-156
-10
119
109
67
47
75
121
111
80
139
276
338
266
222
304
395
432
478
509
514
572
637
620
587
574
567
611
577
326
142
207
175
-72
-201
-156
-165
-254
-334
-434
-558
-587
-509
-509
-619
-612
-467
-436
-493
-387
-194
-168
-274
-304
-216
-136
-141
-180
-208
-240
-212
-120
-166
-332
-280
-77
-125
-270
-216
-238
-386
-317
-192
-246
-254
-191
-206
-233
-286
-352
-296
-239
-283
-287
-259
-265
-265
-95
759
2139
2351
613
-1126
-1186
-547
-459
-541
-330
-181
-297
-434
-438
-418
-469
-450
-291
-226
-266
-157
-69
-223
-228
46
64
-108
20
157
73
182
380
296
162
129
15
-186
-266
-64
201
242
121
-151
-302
145
530
95
-349
-210
-63
-9
192
275
161
117
142
80
-13
-11
119
345
397
104
-60
144
234
177
255
272
227
233
51
-109
120
381
366
222
68
60
155
143
166
268
216
135
174
125
35
152
263
88
-20
221
323
82
64
290
238
98
209
229
102
228
426
338
192
263
461
495
239
113
363
424
151
191
436
322
201
375
686
1620
2906
2685
839
-333
-65
313
248
180
258
391
440
321
265
391
415
248
118
31
-112
-200
-242
-437
-694
-788
-800
-848
-867
-892
-996
-1063
-1054
-1085
-1101
-1032
-1032
-1109
-1072
-987
-999
-1008
-980
-979
-934
-832
-793
-785
-717
-631
-540
-417
-372
-435
-398
-206
-117
-206
-220
-105
-90
-188
-207
-174
-216
-280
-313
-356
-386
-368
-325
-282
-274
-300
-267
-173
-145
-188
-177
-83
-31
-85
-113
-32
-8
-103
-148
-128
-142
-118
-28
9
29
123
202
197
194
233
252
238
251
300
333
336
343
372
394
400
445
569
919
1729
2422
1767
63
-836
-421
143
332
448
496
422
425
536
582
526
491
534
579
566
520
477
475
537
591
549
483
526
617
604
540
543
585
609
607
570
528
502
449
338
188
70
46
52
-27
-152
-201
-194
-216
-226
-176
-167
-252
-298
-258
-277
-357
-337
-277
-334
-408
-387
-379
-418
-405
-378
-432
-500
-485
-457
-502
-528
-462
-418
-455
-486
-478
-481
-483
-441
-403
-436
-481
-440
-365
-359
-379
-338
-292
-315
-312
-236
-231
-291
-244
-168
-212
-222
-114
-86
-134
-40
244
810
1537
1473
112
-1211
-1181
-453
-116
-70
37
63
-24
-11
74
76
69
129
135
70
90
176
190
161
153
136
149
213
214
139
122
154
145
143
177
184
189
231
239
183
129
97
30
-57
-75
-56
-96
-112
-38
-42
-133
-91
36
37
-36
-40
2
32
28
-8
-8
46
64
15
-11
35
69
30
-11
15
51
23
-22
-5
40
29
-6
3
4
-42
-62
-9
39
-29
-157
-99
145
198
-10
-93
24
33
-76
-69
-12
-49
-69
-34
-40
23
209
488
1148
1833
1204
-562
-1410
-856
-319
-205
-47
4
-99
-37
62
-21
-96
-46
31
89
68
-39
-61
28
58
46
95
132
130
127
109
142
256
248
120
170
347
317
146
100
124
45
-103
-181
-180
-229
-332
-339
-268
-255
-290
-299
-272
-250
-301
-350
-272
-183
-227
-276
-236
-233
-287
-269
-202
-209
-251
-225
-189
-222
-247
-208
-181
-183
-141
-108
-157
-165
-42
36
13
95
228
182
139
287
353
227
149
124
58
52
72
49
100
161
117
121
287
825
1838
2210
867
-833
-1046
-361
-74
-70
-5
-19
-43
34
64
27
29
40
8
2
54
76
41
37
81
107
109
124
149
160
155
176
238
284
289
285
273
260
234
128
-14
-59
-55
-117
-197
-249
-277
-235
-162
-166
-206
-200
-186
-207
-212
-178
-153
-170
-190
-172
-146
-144
-156
-169
-168
-147
-144
-159
-156
-148
-139
-89
-54
-110
-183
-187
-169
-168
-144
-103
-85
-69
-46
-59
-69
-26
-12
-45
-10
57
31
-39
-57
-49
-57
-73
-81
-91
-121
-118
-53
107
677
1561
1558
145
-1122
-1008
-376
-159
-122
-64
-104
-125
-67
-61
-82
-40
0
-7
-5
24
47
54
63
98
152
174
149
136
192
261
240
193
257
331
264
201
259
273
187
127
85
10
-24
-16
-40
-64
-44
-44
-80
-74
-50
-110
-164
-72
31
-13
-79
-78
-82
-73
-43
-75
-121
-115
-131
-167
-142
-106
-111
-95
-58
-70
-104
-105
-102
-118
-110
-74
-55
-46
-23
-10
-2
27
37
16
12
13
-18
-35
-13
3
2
2
18
74
245
617
997
896
193
-488
-564
-228
24
80
74
56
40
31
-6
-31
37
110
78
14
11
32
21
-14
-32
-5
30
21
-7
-8
-2
-8
-12
-15
-32
-50
-53
