# session 37
-9
-31
32
-42
-338
-562
-558
-500
-497
-494
-467
-447
-453
-441
-363
-203
226
908
1008
-29
-1194
-1338
-821
-461
-328
-247
-219
-210
-183
-168
-157
-136
-120
-109
-89
-70
-61
-50
-32
-8
15
34
50
63
76
98
124
138
141
152
168
171
167
171
167
131
75
23
-23
-58
-72
-82
-108
-126
-114
-97
-94
-89
-77
-67
-58
-51
-50
-50
-45
-42
-39
-32
-28
-31
-36
-35
-26
-17
-18
-20
-11
-7
-16
-14
16
41
45
51
58
43
24
22
20
13
16
20
28
34
10
13
91
235
656
1358
1455
371
-811
-918
-391
-91
-29
24
49
45
45
36
32
42
41
38
47
54
58
70
82
88
93
105
127
146
152
157
176
196
200
205
221
226
215
203
183
141
84
24
-27
-70
-102
-124
-135
-146
-156
-156
-147
-146
-149
-139
-126
-129
-136
-129
-121
-124
-125
-121
-125
-134
-133
-133
-142
-147
-143
-142
-144
-144
-144
-140
-120
-100
-91
-83
-82
-102
-120
-123
-120
-114
-117
-124
-102
-94
-129
-114
-27
201
829
1479
1076
-283
-1092
-799
-317
-171
-122
-66
-65
-66
-43
-26
-23
-27
-15
10
15
8
10
18
43
74
80
95
147
179
167
175
219
254
273
290
299
300
297
273
210
132
71
24
-20
-59
-88
-109
-117
-118
-120
-122
-118
-108
-103
-103
-99
-93
-89
-81
-75
-70
-61
-55
-63
-69
-67
-61
-55
-57
-65
-64
-59
-60
-59
-56
-63
-60
-44
-44
-60
-59
-42
-33
-34
-30
-19
-11
-7
14
47
48
21
1
-10
-14
-7
-16
-32
-15
-10
-40
-17
86
354
961
1448
935
-301
-952
-671
-264
-141
-105
-73
-80
-77
-62
-59
-53
-43
-41
-39
-33
-28
-15
3
12
20
37
58
76
95
113
128
143
161
178
191
198
205
211
208
185
137
79
29
-15
-57
-84
-93
-102
-113
-113
-107
-102
-102
-100
-93
-87
-87
-89
-86
-84
-83
-78
-74
-78
-83
-86
-88
-86
-82
-83
-83
-77
-74
-77
-78
-74
-76
-85
-81
-58
-40
-33
-19
-14
-34
-57
-64
-63
-58
-59
-66
-50
-44
-69
-49
40
298
933
1456
894
-407
-987
-583
-165
-91
-60
-18
-26
-17
4
0
0
12
19
23
27
31
44
59
67
78
96
115
136
154
168
185
204
223
241
255
261
262
259
241
200
142
81
26
-23
-64
-95
-114
-119
-124
-138
-144
-133
-129
-141
-140
-125
-135
-152
-131
-107
-135
-166
-157
-159
-182
-154
-92
-80
-110
-126
-126
-129
-128
-130
-135
-138
-143
-141
-110
-93
-131
-151
-96
-59
-104
-129
-88
-75
-116
-127
-94
-92
-127
-127
-84
-78
-112
-86
10
236
792
1308
878
-339
-990
-638
-171
-78
-87
-56
-41
-15
22
24
3
4
35
52
33
24
52
82
90
93
110
144
169
173
186
216
237
250
272
290
301
316
325
311
283
247
189
131
99
73
33
17
29
32
20
8
9
25
31
13
15
49
54
19
10
40
62
62
48
32
34
50
52
43
46
53
50
45
45
40
38
51
60
48
37
45
57
67
60
44
75
119
27
-159
-248
-243
-269
-287
-223
-147
-125
-117
-115
-193
-324
-388
-372
-193
280
565
-77
-1227
-1683
-1249
-705
-448
-345
-278
-216
-160
-137
-106
-48
-18
-18
4
34
56
88
120
135
151
174
197
215
230
255
279
287
307
339
338
309
291
300
335
346
262
139
94
92
46
6
28
42
11
1
26
27
6
14
36
33
27
26
4
-9
18
34
16
5
7
5
-1
-11
-14
-7
-18
-37
-33
-43
-78
-57
-14
-71
-172
-169
-106
-105
-136
-114
-78
-87
-91
-66
-84
-101
-32
110
495
1150
1278
310
-805
-964
-499
-184
-86
-28
-10
-20
-9
13
18
9
12
32
42
31
24
45
74
84
86
101
132
165
175
169
185
225
258
267
259
254
266
260
192
97
28
-18
-63
-97
-111
-121
-132
-132
-125
-121
-122
-126
-121
-114
-119
-130
-128
-123
-120
-111
-113
-126
-122
-110
-114
-118
-122
-139
-135
-101
-92
-116
-120
-108
-116
-125
-103
-71
-67
-78
-60
-30
-28
-42
-61
-88
-89
-64
-70
-80
-52
-58
-80
-32
96
481
1156
1311
338
-792
-916
-406
-120
-84
-48
-27
-37
-29
-14
-12
-13
-3
16
25
27
35
31
28
62
91
84
99
145
159
147
166
204
223
223
223
236
243
226
207
189
136
66
30
10
-30
-64
-73
-78
-82
-80
-81
-81
-74
-80
-94
-86
-72
-84
-96
-80
-65
-79
-90
-80
-78
-91
-90
-82
-91
-103
-110
-122
-132
-122
-97
-79
-71
-62
-50
-57
-68
-63
-79
-107
-89
-68
-92
-91
-69
-95
-96
-11
205
733
1272
911
-312
-1058
-752
-242
-107
-90
-29
-20
-36
-13
12
15
9
7
26
43
35
37
70
87
82
93
105
100
118
167
188
172
171
194
204
195
205
225
206
149
107
87
47
-17
-54
-48
-42
-58
-67
-53
-47
-64
-76
-68
-53
-47
-57
-74
-69
-49
-54
-77
-69
-45
-57
-75
-58
-49
-79
-90
-65
-61
-78
-72
-46
-31
-34
-29
-16
-36
-81
-86
-63
-60
-67
-69
-71
-71
-84
-90
-47
119
570
1139
1057
53
-879
-893
-420
-144
-89
-65
-44
-25
-12
-19
-25
-14
1
16
21
10
11
32
35
28
60
107
117
114
128
144
158
169
167
171
196
207
186
178
187
161
96
43
8
-35
-70
-82
-89
-101
-106
-111
-110
-92
-85
-102
-107
-99
-113
-133
-120
-98
-107
-131
-136
-124
-117
-119
-122
-124
-116
-98
-83
-71
-60
-69
-96
-112
-112
-106
-102
-107
-104
-87
-97
-103
-40
97
466
1091
1245
337
-790
-1006
-557
-235
-128
-43
-11
-30
-28
-12
3
23
33
29
28
42
57
54
45
61
95
122
138
153
172
193
207
221
252
288
287
257
254
268
229
159
126
106
57
-3
-46
-55
-45
-57
-80
-64
-43
-72
-106
-81
-47
-67
-91
-64
-31
-45
-68
-64
-52
-56
-64
-62
-68
-87
-79
-29
-9
-45
-59
-44
-59
-81
-71
-64
-93
-135
-136
-84
-82
-153
-137
-23
145
581
1092
818
-306
-1085
-889
-386
-173
-140
-108
-86
-70
-54
-55
-44
-11
-1
-13
1
26
32
37
57
79
97
116
140
166
175
176
203
233
227
218
239
261
253
225
184
131
79
32
-9
-40
-59
-67
-71
-76
-78
-80
-85
-87
-82
-81
-90
-94
-90
-88
-93
-97
-101
-106
-110
-112
-114
-116
-118
-117
-107
-94
-86
-71
-57
-69
-91
-102
-108
-108
-102
-103
-93
-87
-114
-108
-51
104
682
1477
1326
-15
-1030
-831
-289
-128
-114
-69
-69
-69
-40
-33
-35
-24
-15
-13
-4
6
18
32
47
64
82
101
119
135
152
175
199
216
221
221
231
252
255
222
178
132
69
2
-40
-67
-93
-104
-101
-101
-107
-108
-103
-100
-105
-110
-108
-102
-99
-98
-95
-96
-99
-100
-100
-103
-101
-91
-84
-77
-58
-47
-67
-97
-111
-112
-102
-103
-111
-93
-87
-112
-93
-37
193
930
1656
1147
-327
-1063
-658
-199
-129
-108
-70
-85
-76
-49
-52
-50
-37
-39
-41
-28
-16
-5
10
27
41
57
76
97
119
139
157
177
196
211
221
229
234
227
199
151
93
37
-12
-51
-79
-93
-99
-103
-105
-105
-104
-103
-100
-99
-98
-95
-96
-97
-95
-94
-96
-97
-97
-93
-80
-67
-61
-49
-41
-57
-85
-98
-97
-92
-97
-100
-81
-81
-105
-82
-10
241
918
1480
900
-445
-1050
-650
-216
-127
-103
-73
-80
-69
-49
-48
-45
-36
-34
-28
-20
-14
-1
16
29
40
56
75
93
110
127
143
157
169
180
189
195
200
198
177
139
93
42
-5
-37
-57
-71
-78
-84
-89
-83
-74
-85
-102
-101
-93
-93
-94
-89
-86
-88
-91
-92
-87
-74
-58
-46
-33
-25
-39
-65
-81
-84
-77
-79
-92
-85
-77
-95
-82
-31
139
715
1383
1093
-175
-1004
-754
-265
-124
-115
-82
-75
-67
-48
-47
-46
-31
-22
-19
-12
-2
10
25
39
54
69
84
101
120
136
149
162
172
180
187
195
202
199
177
138
91
40
-6
-39
-57
-68
-74
-77
-78
-79
-84
-84
-72
-64
-72
-79
-77
-77
-88
-99
-84
-51
-53
-89
-98
-74
-56
-47
-51
-74
-93
-94
-94
-101
-107
-97
-85
-103
-110
-68
39
445
1150
1283
277
-848
-957
-447
-155
-108
-74
-56
-53
-32
-22
-24
-18
-13
-8
3
7
12
28
42
48
60
77
95
111
119
127
144
153
150
156
171
176
171
166
146
105
55
12
-26
-60
-82
-89
-92
-95
-94
-91
-92
-93
-94
-96
-91
-86
-92
-98
-92
-89
-97
-102
-97
-90
-82
-66
-41
-26
-47
-83
-98
-94
-89
-93
-101
-86
-72
-91
-77
-1
189
729
1362
1119
-100
-990
-845
-368
-161
-97
-44
-22
-2
10
-3
4
34
47
45
50
69
94
113
117
116
135
170
188
186
192
204
219
241
252
247
243
229
178
93
3
-58
-98
-158
-220
-219
-174
-153
-161
-165
-154
-127
-105
-121
-138
-102
-60
-82
-132
-145
-119
-104
-117
-126
-107
-86
-80
-66
-57
-75
-102
-113
-114
-111
-114
-125
-120
-119
-158
-145
-46
155
796
1716
1602
55
-1197
-1030
-420
-219
-154
-67
-88
-107
-39
1
-26
-26
14
11
-20
19
95
95
59
86
137
158
181
202
199
218
262
267
248
258
269
236
190
149
88
13
-38
-74
-117
-146
-154
-161
-165
-157
-141
-125
-112
-107
-103
-96
-87
-84
-93
-102
-93
-86
-102
-113
-104
-97
-92
-86
-86
-74
-57
-75
-110
-120
-109
-105
-120
-119
-85
-90
-127
-77
64
454
1270
1674
655
-839
-1152
-550
-177
-116
-51
-30
-42
-20
-15
-17
12
28
14
17
37
49
58
76
95
105
113
125
143
165
183
190
192
194
196
199
198
183
155
115
66
12
-35
-62
-75
-92
-102
-99
-100
-105
-101
-93
-94
-97
-99
-103
-104
-105
-109
-111
-113
-117
-120
-120
-120
-120
-120
-123
-122
-110
-98
-88
-71
-63
-76
-94
-107
-103
-94
-104
-101
-79
-101
-115
-63
57
593
1583
1779
427
-956
-954
-344
-141
-141
-81
-76
-84
-52
-46
-52
-36
-27
-25
-12
2
11
26
45
62
79
99
120
139
158
176
193
207
217
224
227
228
221
195
146
87
28
-25
-67
-93
-106
-111
-111
-108
-106
-105
-105
-105
-104
-102
-103
-104
-104
-101
-100
-102
-103
-105
-107
-107
-105
-107
-108
-109
-111
-103
-85
-77
-66
-43
-55
-110
-140
-131
-116
-107
-109
-99
-81
-100
-113
-77
29
556
1527
1732
439
-907
-914
-314
-116
-133
-80
-71
-84
-54
-42
-43
-23
-13
-21
-16
1
15
37
71
93
98
112
132
130
132
166
202
216
222
226
222
222
223
204
169
123
64
9
-27
-55
-80
-93
-100
-112
-111
-93
-86
-103
-112
-98
-91
-95
-93
-86
-81
-78
-81
-92
-95
-94
-101
-107
-102
-101
-110
-113
-107
-105
-110
-107
-96
-85
-73
-53
-34
-30
-53
-87
-90
-67
-71
-82
-59
-62
-93
-64
28
335
1038
1444
647
-649
-1004
-505
-143
-89
-58
-44
-47
-19
-12
-29
-13
9
6
3
13
24
40
66
81
77
78
108
144
154
155
168
183
190
198
205
210
214
204
180
152
116
64
13
-16
-32
-50
-65
-64
-63
-71
-72
-65
-69
-76
-76
-75
-71
-69
-79
-88
-80
-77
-88
-91
-89
-97
-99
-89
-88
-101
-109
-103
-98
-102
-107
-105
-103
-93
-69
-51
-47
-43
-49
-76
-91
-76
-74
-95
-85
-60
-82
-90
-41
83
532
1216
1199
101
-909
-872
-354
-116
-88
-45
-22
-32
-30
-17
-3
3
2
13
29
28
27
49
67
68
78
102
120
134
140
144
159
176
183
189
197
199
197
194
181
147
102
58
18
-15
-35
-45
-52
-56
-58
-62
-70
-72
-70
-74
-82
-83
-80
-85
-89
-84
-85
-95
-98
-96
-95
-89
-84
-93
-101
-97
-89
-82
-80
-83
-83
-79
-76
-67
-52
-35
-16
-4
-18
-49
-61
-51
-44
-49
-47
-45
-57
-45
-4
100
498
1114
1137
176
-814
-893
-410
-94
-30
-12
-6
-37
-35
29
51
0
-3
46
50
43
73
87
94
137
164
150
144
156
176
186
167
161
185
189
179
191
195
179
159
119
65
28
-16
-78
-105
-91
-104
-140
-138
-123
-149
-169
-155
-165
-187
-162
-145
-176
-174
-129
-141
-190
-178
-139
-145
-157
-138
-133
-157
-153
-94
-53
-101
-152
-106
-49
-53
-47
-41
-91
-107
-43
-17
-63
-75
-53
-57
-43
20
226
818
1456
1115
-193
-1027
-749
-215
-43
-51
-73
-61
20
61
5
-35
4
53
44
17
51
105
96
64
87
148
165
118
118
208
243
194
202
247
225
204
245
261
207
155
124
54
-42
-56
-7
-38
-119
-114
-64
-62
-85
-99
-95
-70
-61
-81
-108
-135
-124
-82
-79
-97
-84
-97
-144
-120
-50
-61
-123
-129
-105
-122
-152
-130
-79
-61
-59
-39
-37
-60
-83
-102
-95
-52
-43
-76
-74
-61
-86
-85
2
288
859
1222
655
-479
-991
-623
-171
-71
-88
-47
-5
-7
-22
-3
26
-6
-50
-3
75
69
24
27
60
76
84
92
103
125
152
166
171
170
166
177
205
219
205
173
142
110
65
25
10
-8
-50
-75
-55
-41
-64
-77
-55
-48
-74
-88
-85
-83
-72
-57
-67
-81
-74
-75
-96
-95
-74
-74
-85
-81
-79
-84
-78
-64
-51
