# session 17
15
85
-109
8
768
1429
1433
1228
1182
1110
963
863
779
677
597
540
501
474
443
416
405
391
367
349
337
319
296
271
247
223
201
178
151
125
107
92
71
48
32
17
4
-7
-22
-35
-42
-54
-73
-80
-83
-100
-113
-116
-126
-132
-118
-108
-108
-99
-95
-118
-152
-165
-159
-163
-176
-169
-179
-204
-161
-39
301
1008
1379
508
-882
-1304
-819
-431
-332
-257
-222
-236
-214
-188
-183
-167
-147
-136
-116
-89
-64
-34
5
51
105
169
238
303
346
362
357
327
265
176
81
-2
-70
-132
-182
-209
-227
-238
-189
-73
26
63
86
111
76
-14
-62
-32
-1
-22
-62
-81
-87
-92
-95
-97
-102
-108
-112
-111
-108
-106
-103
-102
-104
-107
-98
-84
-93
-117
-110
-77
-68
-70
-29
26
17
-31
-26
22
37
21
36
77
97
101
132
170
161
134
163
194
141
106
176
205
139
149
319
649
1041
1033
332
-447
-544
-127
164
157
99
126
157
138
123
133
136
136
156
176
179
195
226
221
197
218
250
257
296
322
214
89
146
219
11
-398
-733
-935
-1087
-1207
-1297
-1376
-1425
-1434
-1460
-1520
-1486
-1272
-988
-757
-595
-504
-460
-362
-207
-113
-99
-96
-93
-85
-45
-17
-10
44
143
228
293
360
418
463
502
536
560
571
582
594
601
617
642
649
640
653
682
690
683
690
715
730
725
711
693
667
637
599
571
595
639
591
412
215
164
274
340
332
604
1072
894
-131
-961
-891
-407
-122
-74
-60
44
184
195
52
-120
-253
-364
-478
-557
-503
-352
-274
-262
-144
54
163
182
213
253
223
79
-61
-22
151
300
413
489
486
490
516
441
332
329
311
147
-67
-244
-393
-510
-614
-728
-804
-825
-848
-890
-932
-1010
-1119
-1130
-976
-789
-687
-616
-532
-466
-419
-366
-314
-275
-251
-231
-197
-188
-220
-224
-178
-127
-84
-82
-158
-240
-285
-397
-617
-832
-962
-1008
-1006
-1058
-1204
-1302
-1252
-1112
-917
-716
-633
-653
-668
-638
-496
-237
-27
93
224
294
211
149
303
606
849
944
1035
1343
1861
2335
2480
2071
1176
403
292
594
798
882
987
1056
1103
1194
1205
1065
931
877
810
735
724
736
739
812
948
1016
982
939
916
857
756
674
636
603
535
450
387
345
284
140
-101
-331
-438
-473
-534
-587
-576
-547
-542
-542
-543
-552
-557
-565
-591
-619
-631
-637
-645
-650
-653
-652
-650
-650
-645
-635
-629
-625
-614
-600
-587
-574
-560
-546
-530
-515
-504
-493
-482
-468
-455
-444
-435
-425
-411
-388
-358
-331
-302
-267
-244
-252
-270
-267
-240
-206
-162
-127
-142
-150
-77
98
559
1255
1345
347
-701
-761
-283
-34
15
52
42
13
18
22
20
28
37
46
62
79
100
133
170
209
259
318
386
464
537
582
604
596
535
450
399
363
287
186
105
50
12
-11
-21
-23
-21
-19
-9
3
-4
-18
-15
-3
-4
-10
-5
0
-4
-5
-5
-13
-10
6
-1
-33
-34
-8
-2
-8
-1
-2
-17
-15
-1
1
-2
-3
-6
-5
6
16
18
11
4
27
85
129
135
162
237
288
289
328
414
448
455
578
768
804
678
579
525
458
489
664
944
1359
1568
921
-404
-1383
-1593
-1544
-1621
-1650
-1454
-1171
-970
-834
-713
-621
-553
-483
-406
-313
-222
-193
-222
-177
-3
150
183
193
232
247
237
226
188
130
80
30
-23
-58
-78
-102
-135
-163
-162
-144
-136
-120
-82
-64
-84
-102
-112
-142
-174
-197
-224
-216
-159
-138
-188
-230
-229
-229
-231
-217
-222
-251
-255
-244
-258
-232
-101
54
138
171
192
201
212
239
258
237
194
185
222
262
279
298
334
363
367
367
365
324
247
199
217
256
260
241
198
92
0
25
147
480
1049
1140
183
-934
-1069
-522
-133
-1
71
89
91
136
179
197
215
223
220
240
276
292
298
325
374
434
492
537
576
618
659
674
650
601
551
495
409
294
188
121
53
-56
-142
-145
-133
-151
-159
-183
-279
-383
-413
-401
-398
-407
-420
-426
-411
-396
-399
-410
-442
-527
-624
-662
-641
-602
-557
-512
-524
-646
-809
-873
-808
-706
-634
-583
-534
-486
-457
-438
-408
-380
-326
-195
-74
-94
-195
-240
-229
-236
-244
-208
-178
-193
-166
-65
166
749
1359
1029
-212
-1028
-837
-402
-251
-219
-193
-202
-204
-188
-177
-167
-160
-155
-147
-135
-113
-100
-104
-30
202
490
693
807
902
1002
1093
1156
1197
1221
1216
1181
1145
1121
1105
1103
1104
1103
1150
1214
1096
788
614
687
696
507
356
333
277
121
-62
-202
-283
-334
-370
-378
-384
-407
-426
-445
-472
-438
-337
-289
-330
-369
-377
-393
-417
-434
-448
-460
-458
-446
-434
-423
-419
-425
-425
-415
-413
-422
-441
-472
-463
-415
-419
-444
-377
-221
150
767
888
-101
-1308
-1546
-1072
-710
-577
-496
-467
-465
-439
-412
-392
-372
-351
-323
-299
-237
-62
179
385
580
770
829
725
590
506
460
428
386
323
261
189
92
-9
-99
-167
-181
-149
-102
-30
53
130
272
496
704
869
1000
983
766
517
376
304
236
175
133
104
83
66
50
26
-6
-32
-41
-49
-65
-75
-76
-89
-104
-93
-69
-68
-83
-87
-81
-87
-117
-150
-158
-156
-167
-182
-194
-209
-220
-222
-218
-201
-173
-145
-121
-110
-129
-155
-158
-157
-177
-178
-158
-174
-183
-112
47
488
1198
1305
248
-907
-1002
-487
-215
-174
-127
-107
-112
-95
-81
-77
-66
-50
-32
-13
2
19
40
67
99
136
183
241
297
345
383
400
393
371
330
269
200
130
68
18
-21
-53
-69
-76
-83
-88
-83
-75
-70
-68
-64
-62
-62
-60
-58
-63
-68
-71
-74
-79
-82
-83
-83
-83
-81
-76
-71
-68
-64
-62
-61
-58
-51
-46
-43
-41
-36
-30
-29
-30
-30
-30
-31
-33
-33
-34
-39
-43
-45
-48
-48
-42
-40
-43
-43
-40
-43
-48
-50
-52
-56
-56
-53
-48
-36
-21
-14
-9
7
13
-11
-35
-31
-28
-37
-22
-4
-26
-25
46
229
706
1258
1030
-105
-962
-836
-373
-179
-135
-93
-85
-88
-70
-48
-34
-29
-24
-13
-1
25
46
41
53
100
143
183
236
271
291
328
358
359
351
335
294
238
182
126
72
15
-37
-68
-81
-88
-88
-78
-71
-71
-67
-59
-52
-48
-46
-48
-50
-49
-50
-55
-65
-71
-66
-57
-64
-78
-79
-71
-71
-76
-74
-74
-79
-79
-74
-72
-72
-72
-74
-76
-72
-69
-68
-67
-67
-67
-60
-45
-32
-24
-16
-7
-16
-43
-62
-55
-50
-63
-58
-50
-79
-79
12
195
622
1161
1008
-84
-1025
-989
-511
-249
-158
-98
-84
-78
-57
-47
-39
-23
-13
-4
12
29
47
72
96
128
173
221
269
322
374
408
420
414
384
329
257
177
100
30
-27
-70
-102
-124
-131
-127
-121
-116
-110
-104
-96
-89
-85
-84
-82
-83
-88
-91
-92
-96
-100
-101
-102
-105
-108
-109
-110
-107
-101
-100
-98
-93
-87
-87
-86
-80
-76
-76
-76
-73
-70
-70
-68
-64
-62
-60
-58
-54
-50
-49
-49
-48
-49
-44
-27
-11
0
15
26
15
-12
-25
-19
-25
-36
-18
-16
-51
-29
72
350
1035
1589
956
-464
-1077
-641
-215
-147
-105
-57
-67
-55
-30
-29
-20
-2
6
16
33
50
70
96
125
160
198
239
287
335
372
396
403
390
359
309
243
172
106
45
-8
-49
-79
-99
-109
-108
-105
-102
-96
-88
-84
-84
-86
-85
-83
-88
-94
-94
-94
-100
-105
-108
-114
-115
-112
-115
-120
-118
-109
-106
-113
-115
-106
-101
-105
-107
-102
-97
-94
-95
-96
-89
-81
-85
-93
-90
-79
-75
-76
-71
-64
-68
-75
-73
-64
-46
-24
-11
-3
8
6
-17
-37
-32
-23
-30
-25
-14
-34
-28
58
203
551
1073
1075
159
-816
-955
-554
-247
-115
-45
-25
-15
8
18
22
37
49
51
62
84
100
107
120
142
174
213
255
304
357
395
409
411
398
357
299
236
156
70
5
-49
-95
-114
-116
-122
-117
-99
-95
-98
-90
-92
-108
-99
-76
-84
-100
-96
-90
-96
-104
-110
-102
-84
-95
-128
-134
-115
-109
-113
-108
-97
-86
-86
-103
-117
-102
-77
-80
-97
-87
-67
-73
-86
-83
-79
-79
-74
-74
-77
-73
-69
-69
-54
-28
-17
-11
-6
-24
-53
-51
-42
-53
-51
-55
-80
-44
64
342
1030
1598
980
-427
-1022
-580
-174
-132
-106
-72
-90
-74
-40
-38
-34
-17
-4
4
20
49
74
74
81
123
178
223
264
309
358
392
392
373
351
299
214
139
84
24
-35
-71
-89
-101
-111
-115
-114
-115
-112
-100
-95
-95
-88
-89
-95
-92
-92
-100
-101
-100
-103
-102
-102
-105
-105
-100
-90
-91
-105
-106
-95
-98
-104
-89
-75
-84
-94
-79
-59
-68
-82
-67
-50
-64
-82
-80
-70
-65
-63
-47
-20
-12
-18
-5
6
-15
-40
-39
-38
-42
-22
-7
-35
-39
33
221
694
1217
945
-192
-981
-767
-278
-121
-108
-58
-36
-44
-41
-30
-12
6
11
13
37
68
71
63
91
137
167
200
248
292
324
348
356
342
325
308
262
178
101
59
15
-43
-67
-63
-86
-108
-81
-59
-80
-93
-78
-71
-71
-66
-73
-87
-89
-84
-88
-97
-99
-91
-80
-82
-95
-100
-94
-94
-95
-96
-100
-84
-57
-69
-107
-105
-82
-83
-82
-62
-66
-91
-91
-74
-72
-75
-62
-48
-55
-69
-71
-57
-31
-3
10
14
17
1
-31
-37
-16
-23
-59
-64
-42
-28
-1
81
354
862
1064
370
-660
-963
-557
-190
-82
-37
-9
-14
-5
30
49
42
45
64
62
56
81
110
117
136
172
197
220
262
294
302
315
333
325
295
258
210
151
93
38
-16
-58
-81
-93
-100
-102
-93
-83
-85
-92
-88
-76
-70
-71
-72
-69
-68
-76
-86
-90
-90
-88
-84
-83
-84
-81
-81
-86
-88
-85
-82
-81
-80
-80
-82
-82
-81
-83
-85
-83
-77
-70
-67
-66
-62
-59
-57
-57
-55
-49
-34
-18
-4
13
27
18
-11
-27
-20
-21
-33
-25
-18
-40
-32
48
228
627
1004
683
-314
-974
-796
-354
-150
-96
-63
-53
-46
-28
-21
-14
0
7
9
19
30
41
58
82
105
126
154
190
227
263
293
310
315
312
291
245
197
156
100
36
-7
-30
-52
-62
-45
-16
-17
-58
-85
-63
-37
-36
-31
-18
-30
-50
-45
-49
-85
-103
-81
-71
-88
-93
-86
-89
-91
-87
-96
-111
-110
-97
-92
-93
-93
-96
-94
-81
-76
-93
-101
-80
-64
-61
-40
-14
-22
-50
-62
-66
-79
-81
-48
-5
-8
-32
-18
68
385
960
1156
394
-675
-978
-565
-161
-3
55
76
76
73
62
55
57
50
38
33
36
42
51
61
77
103
133
164
207
249
272
287
305
306
282
241
185
120
61
9
-39
-79
-106
-113
-109
-110
-115
-114
-110
-111
-111
-107
-107
-110
-105
-102
-113
-112
-83
-65
-84
-106
-105
-102
-110
-116
-117
-114
-106
-98
-94
-93
-94
-87
-79
-85
-85
-52
-31
-54
-72
-58
-46
-52
-49
-26
18
51
25
-30
-46
-24
-15
-28
-27
-16
-32
-28
60
238
592
1006
874
-30
-880
-947
-548
-245
-116
-58
-48
-50
-36
-18
-6
7
15
23
52
79
79
83
113
138
161
207
254
286
327
373
403
417
405
355
288
222
155
86
20
-35
-73
-94
-107
-117
-117
-107
-102
-98
-84
-74
-75
-69
-55
-57
-72
-79
-81
-82
-79
-80
-91
-96
-92
-100
-112
-105
-96
-106
-110
-91
-81
-93
-104
-99
-87
-77
-80
-88
-86
-78
-77
-78
-77
-78
-85
-97
-96
-74
-49
-39
-27
-8
-4
-24
-49
-53
-45
-52
-44
-20
-48
-75
-11
150
580
1259
1323
250
-865
-908
-384
-138
-116
-75
-59
-59
-27
-11
-14
4
24
33
51
72
71
67
86
119
157
192
217
255
317
348
336
341
360
335
277
219
149
70
14
-28
-68
-91
-100
-117
-124
-109
-96
-93
-84
-81
-91
-88
-70
-67
-81
-79
-59
-58
-78
-90
-88
-86
-83
-81
-85
-90
-84
-66
-58
-80
-99
-83
-69
-81
-84
-69
-61
-65
-70
-64
-52
-57
-78
-78
-61
-58
-64
-59
-53
-53
-47
-43
-51
-53
-43
-35
-29
-23
-23
-23
-21
-26
-31
-27
-25
-33
-45
-50
-33
-6
9
35
82
114
120
127
134
133
127
107
78
59
46
27
13
14
20
22
23
32
38
16
-21
-43
-48
-62
-76
-63
-64
-95
-76
21
243
695
1008
498
-547
-1014
-676
-276
-158
-117
-77
-69
-53
-29
-24
-16
0
8
19
40
52
51
56
77
99
117
146
183
214
237
260
275
271
258
251
236
196
141
92
51
6
-41
-73
-92
-103
-103
-100
-101
-85
-45
-16
12
61
86
53
9
-18
-6
110
263
277
153
55
26
0
-26
-35
-51
-80
-90
-90
-103
-104
-71
-52
-73
-94
-95
-99
-104
-98
-89
-86
-89
-98
-102
-90
-80
-86
-91
-83
-78
-87
-89
-77
-70
-76
-81
-79
-72
-63
-62
-69
-71
-68
-68
-67
-57
-41
-26
-13
-7
-11
-27
-49
-63
-56
-47
-45
-39
-57
-79
-15
131
409
926
1211
554
-598
-1084
-775
-397
-232
-147
-115
-113
-85
-57
-48
-35
-18
-8
4
18
34
52
69
85
108
140
175
217
261
301
337
365
373
359
331
287
224
151
81
18
-34
-73
-99
-114
-118
-115
-110
-101
-90
-79
-71
-62
-51
-44
-41
-36
-30
-30
-36
-43
-44
-40
-38
-43
-46
-40
-31
-31
-34
-27
-24
-34
-36
-25
-16
-13
-6
