# session 41
-14
-33
23
18
-187
-428
-487
-446
-454
-466
-439
-424
-425
-409
-386
-369
-351
-328
-310
-300
-289
-272
-257
-252
-248
-239
-230
-227
-228
-229
-223
-213
-206
-193
-175
-160
-144
-129
-137
-162
-176
-178
-173
-166
-170
-164
-145
-157
-170
-131
-9
429
1172
1328
312
-846
-982
-475
-156
-70
-14
6
11
36
54
62
76
85
91
102
112
122
137
152
165
181
200
218
235
251
264
275
289
297
296
293
293
282
253
209
157
104
61
27
1
-19
-28
-30
-31
-34
-37
-38
-37
-35
-36
-38
-38
-41
-44
-44
-43
-46
-48
-50
-55
-58
-61
-67
-70
-69
-63
-49
-37
-31
-20
-20
-44
-68
-76
-78
-74
-73
-80
-72
-69
-92
-81
-15
209
827
1421
986
-317
-1060
-758
-280
-128
-88
-54
-55
-45
-24
-21
-17
-8
-5
1
11
16
24
39
53
63
77
98
117
130
144
157
171
181
188
192
194
191
175
145
102
54
9
-29
-62
-85
-96
-97
-99
-102
-103
-101
-101
-101
-103
-105
-102
-94
-90
-88
-83
-83
-83
-79
-82
-82
-69
-70
-92
-94
-84
-96
-106
-94
-101
-129
-125
-89
-73
-74
-58
-33
-32
-52
-71
-84
-93
-94
-86
-87
-92
-77
-76
-98
-66
49
320
869
1259
734
-410
-993
-717
-296
-127
-67
-31
-24
-9
13
19
20
26
35
45
54
61
70
84
96
104
113
127
139
146
152
163
171
171
169
172
175
176
172
155
119
73
30
-6
-32
-50
-60
-65
-68
-71
-70
-67
-67
-67
-65
-69
-79
-84
-81
-77
-75
-74
-74
-70
-64
-62
-63
-62
-59
-57
-56
-54
-53
-52
-53
-56
-58
-62
-67
-66
-65
-75
-79
-61
-41
-32
-19
-13
-33
-58
-67
-68
-63
-65
-68
-51
-52
-80
-55
37
325
1022
1541
876
-491
-1037
-594
-175
-96
-60
-25
-32
-16
5
4
9
20
21
25
35
41
49
59
71
85
100
115
131
148
162
175
188
199
205
208
210
209
196
165
118
67
20
-21
-53
-74
-88
-95
-97
-94
-92
-92
-91
-90
-88
-87
-85
-85
-86
-87
-86
-82
-81
-82
-83
-84
-86
-86
-88
-91
-93
-92
-92
-92
-90
-88
-84
-80
-79
-78
-76
-77
-78
-74
-72
-74
-74
-71
-74
-77
-75
-71
-60
-41
-29
-17
-2
-9
-34
-48
-51
-48
-40
-42
-41
-32
-48
-45
20
169
603
1238
1213
138
-876
-857
-342
-94
-54
-15
-5
-3
19
23
16
23
31
32
38
45
52
62
73
83
96
111
126
140
153
165
178
187
192
195
196
196
193
182
159
122
77
34
-3
-33
-54
-63
-67
-72
-73
-70
-66
-63
-63
-67
-69
-70
-70
-69
-68
-71
-73
-71
-70
-73
-77
-78
-79
-81
-83
-86
-89
-89
-87
-90
-91
-88
-86
-86
-85
-84
-84
-84
-79
-75
-72
-70
-68
-68
-68
-69
-68
-59
-44
-34
-26
-12
-13
-38
-57
-62
-60
-52
-51
-52
-39
-45
-62
-17
99
413
1039
1350
582
-621
-973
-519
-148
-64
-21
4
-2
12
29
27
28
35
39
43
49
56
67
77
86
96
110
126
139
150
164
176
182
195
205
192
185
205
203
153
100
65
28
-10
-40
-61
-70
-75
-73
-61
-63
-84
-89
-76
-72
-77
-77
-78
-78
-72
-74
-82
-83
-78
-82
-86
-84
-85
-86
-82
-82
-87
-85
-82
-86
-84
-78
-84
-91
-89
-86
-85
-81
-81
-87
-87
-81
-76
-68
-56
-43
-26
-25
-49
-71
-76
-72
-68
-72
-64
-46
-60
-77
-28
112
497
1122
1243
311
-778
-912
-410
-107
-59
-25
-10
-12
10
21
18
29
37
32
36
50
60
66
74
82
93
110
128
142
154
166
177
186
195
200
199
195
191
180
155
116
71
31
-5
-36
-55
-62
-67
-72
-70
-65
-65
-70
-70
-66
-66
-69
-72
-75
-76
-76
-79
-79
-77
-80
-83
-80
-78
-85
-90
-88
-89
-95
-95
-90
-89
-91
-86
-80
-80
-84
-85
-83
-80
-80
-70
-52
-38
-27
-16
-24
-47
-65
-73
-71
-60
-64
-68
-53
-60
-73
-27
109
495
1110
1201
258
-806
-918
-420
-120
-63
-24
-9
-11
16
29
17
23
41
40
36
45
60
83
103
96
81
97
126
138
147
166
192
217
227
216
206
205
199
182
158
122
81
42
6
-23
-38
-44
-51
-61
-68
-66
-58
-58
-66
-70
-69
-69
-73
-75
-76
-78
-80
-81
-80
-81
-89
-98
-96
-94
-102
-109
-109
-112
-116
-112
-108
-102
-94
-97
-108
-108
-109
-121
-104
-56
-46
-73
-66
-36
-47
-82
-96
-87
-70
-71
-84
-72
-62
-78
-47
60
339
944
1371
750
-517
-1053
-638
-186
-72
-45
-14
-9
9
27
26
30
40
42
48
54
55
66
83
95
106
119
131
145
171
197
207
207
212
216
215
219
225
209
179
141
76
2
-32
-43
-77
-109
-105
-97
-98
-95
-98
-108
-108
-100
-96
-95
-94
-87
-85
-98
-103
-90
-90
-99
-95
-90
-90
-89
-90
-93
-90
-89
-93
-94
-94
-90
-82
-76
-73
-64
-40
-16
-24
-52
-72
-89
-101
-94
-89
-79
-55
-70
-94
-52
72
472
1209
1452
480
-773
-1010
-508
-168
-89
-43
-33
-39
-13
11
15
11
5
17
41
44
38
55
85
96
98
120
144
143
146
175
198
211
233
243
228
221
218
184
135
97
53
-4
-48
-79
-98
-104
-109
-107
-88
-81
-104
-115
-95
-80
-90
-94
-87
-88
-91
-87
-96
-101
-84
-80
-98
-98
-86
-90
-91
-85
-98
-108
-85
-74
-100
-107
-83
-74
-71
-59
-47
-28
-13
-31
-59
-67
-74
-84
-88
-84
-59
-49
-80
-69
27
308
955
1448
826
-507
-1068
-635
-190
-85
-48
-24
-34
-16
10
14
16
21
32
49
50
54
79
94
87
101
130
136
137
162
186
189
195
214
223
225
227
219
197
172
138
82
17
-29
-49
-62
-75
-78
-71
-68
-75
-83
-83
-79
-74
-64
-55
-64
-76
-68
-62
-83
-110
-111
-103
-101
-97
-103
-131
-144
-122
-104
-122
-158
-159
-117
-90
-107
-114
-87
-74
-74
-42
-18
-68
-132
-131
-104
-92
-85
-80
-77
-83
-108
-98
9
284
803
1191
738
-367
-1000
-769
-337
-147
-72
-16
-7
-12
12
52
65
43
30
50
74
74
69
86
116
133
142
159
175
187
194
191
202
236
243
222
227
232
197
164
135
73
31
28
-6
-59
-63
-46
-54
-58
-41
-46
-72
-68
-40
-49
-81
-74
-56
-75
-96
-88
-71
-64
-76
-97
-101
-87
-85
-95
-84
-63
-78
-111
-108
-86
-73
-52
-30
-20
2
17
-19
-78
-95
-58
-27
-44
-48
-30
-78
-115
-23
182
688
1398
1302
21
-1072
-971
-408
-171
-147
-144
-138
-89
-57
-82
-82
-74
-88
-45
27
10
-35
-3
52
75
99
125
144
184
219
210
212
269
308
284
257
259
248
207
158
94
14
-44
-67
-88
-120
-131
-110
-93
-112
-138
-128
-110
-114
-112
-92
-90
-102
-87
-71
-101
-138
-124
-103
-120
-131
-109
-108
-138
-134
-92
-87
-110
-84
-49
-74
-103
-105
-129
-132
-85
-81
-119
-124
-120
-101
-39
138
715
1473
1291
-71
-1127
-958
-374
-138
-98
-53
-33
-30
-24
-12
3
15
33
39
22
35
70
69
64
94
108
114
160
200
197
206
245
269
275
279
271
259
245
210
151
94
55
14
-33
-53
-59
-89
-108
-95
-94
-97
-78
-77
-95
-79
-69
-98
-103
-75
-78
-95
-80
-68
-84
-91
-82
-77
-65
-47
-51
-64
-45
-24
-48
-87
-100
-102
-100
-96
-101
-94
-76
-79
-75
-33
183
783
1340
890
-405
-1156
-856
-342
-154
-103
-58
-58
-61
-36
-11
-6
-8
8
29
22
12
35
58
60
71
95
109
123
148
166
181
213
236
220
198
205
220
207
167
117
66
15
-26
-56
-85
-104
-102
-105
-120
-120
-101
-97
-107
-105
-99
-100
-96
-83
-82
-91
-99
-101
-100
-100
-102
-103
-93
-73
-60
-60
-49
-30
-42
-80
-100
-98
-91
-87
-93
-87
-67
-81
-92
-34
87
435
1065
1244
343
-819
-1071
-597
-215
-89
-30
-12
-21
-5
14
17
24
37
41
42
48
59
74
87
92
105
136
163
170
178
204
227
236
244
258
268
268
255
228
189
138
82
34
-5
-36
-53
-57
-60
-68
-72
-72
-76
-77
-67
-63
-80
-95
-91
-87
-91
-90
-85
-84
-83
-82
-78
-73
-71
-74
-76
-74
-75
-78
-82
-90
-98
-99
-99
-105
-105
-98
-102
-114
-115
-109
-107
-105
-98
-94
-94
-92
-83
-67
-47
-32
-21
-13
-19
-37
-51
-62
-60
-51
-58
-61
-39
-48
-68
-26
97
492
1214
1426
430
-802
-981
-445
-128
-80
-39
-20
-24
-1
13
12
23
26
21
29
42
47
54
67
80
94
111
127
141
156
171
185
198
208
216
225
233
235
227
202
160
113
66
23
-11
-36
-52
-62
-66
-67
-66
-66
-62
-58
-58
-58
-55
-57
-64
-63
-56
-53
-50
-43
-49
-57
-50
-48
-58
-56
-59
-78
-68
-39
-55
-93
-86
-61
-59
-60
-55
-59
-59
-48
-45
-49
-50
-52
-54
-51
-50
-55
-58
-55
-53
-59
-63
-61
-59
-61
-57
-54
-64
-69
-49
-24
-26
-35
-20
-4
-21
-49
-57
-54
-49
-50
-59
-54
-46
-62
-42
46
249
755
1315
1047
-124
-967
-809
-335
-130
-66
-14
-10
-11
10
17
14
25
40
45
38
38
54
72
79
84
96
112
130
146
159
168
179
192
203
211
214
213
210
199
171
124
67
12
-31
-61
-89
-112
-118
-118
-119
-112
-101
-102
-108
-99
-91
-95
-93
-80
-75
-80
-83
-82
-81
-81
-83
-88
-91
-92
-93
-94
-94
-95
-98
-100
-100
-98
-99
-101
-101
-98
-97
-99
-101
-99
-96
-93
-83
-69
-61
-50
-30
-22
-40
-62
-73
-73
-61
-57
-62
-45
-39
-61
-32
68
322
942
1491
984
-341
-1028
-677
-208
-75
-25
26
18
12
32
42
47
54
55
57
68
79
84
89
101
117
128
142
163
180
199
224
247
264
276
282
281
278
263
226
169
106
46
-3
-43
-74
-91
-102
-110
-111
-109
-108
-98
-82
-79
-90
-95
-97
-100
-93
-78
-78
-86
-83
-75
-67
-59
-66
-81
-76
-65
-67
-75
-79
-85
-90
-91
-94
-96
-93
-94
-101
-107
-110
-112
-116
-121
-124
-122
-122
-128
-131
-125
-117
-111
-106
-106
-105
-92
-75
-66
-63
-54
-30
-15
-35
-61
-65
-69
-72
-66
-71
-69
-59
-80
-66
27
228
803
1560
1386
31
-1000
-819
-287
-111
-60
6
-3
-9
26
34
29
42
51
52
54
56
62
73
86
100
117
135
157
185
209
227
249
285
315
319
316
327
327
289
224
152
82
20
-31
-72
-97
-106
-111
-120
-126
-129
-128
-119
-112
-117
-114
-102
-106
-113
-105
-99
-106
-110
-102
-94
-91
-94
-95
-94
-97
-101
-100
-98
-96
-92
-88
-87
-87
-87
-88
-85
-84
-85
-81
-75
-75
-78
-77
-73
-72
-73
-76
-70
-58
-59
-72
-71
-57
-56
-63
-61
-49
-32
-19
-16
-7
6
-3
-27
-41
-43
-39
-36
-36
-28
-34
-54
-18
92
389
1031
1459
786
-492
-967
-530
-141
-76
-38
-1
-18
-15
12
18
17
25
33
37
41
45
46
52
72
93
103
113
131
151
170
194
213
223
236
247
249
254
255
227
177
126
77
29
-8
-37
-61
-78
-86
-87
-81
-77
-77
-77
-72
-69
-70
-67
-63
-63
-61
-56
-55
-57
-55
-50
-48
-52
-57
-58
-54
-50
-56
-61
-59
-58
-62
-62
-58
-55
-52
-52
-58
-61
-60
-65
-69
-66
-62
-62
-69
-85
-85
-66
-67
-95
-107
-92
-81
-81
-79
-75
-80
-94
-101
-97
-92
-80
-61
-55
-61
-58
-46
-32
-28
-47
-69
-75
-65
-58
-71
-68
-40
-54
-76
-2
165
520
1074
1159
261
-776
-904
-428
-120
-49
-10
4
2
20
39
36
25
33
55
54
39
48
72
88
98
109
132
156
160
164
190
211
215
231
253
251
243
246
243
220
178
123
74
36
-6
-43
-54
-57
-74
-84
-76
-68
-72
-72
-65
-67
-76
-72
-63
-74
-86
-76
-66
-78
-85
-74
-71
-80
-82
-81
-81
-77
-74
-78
-81
-80
-81
-80
-70
-61
-68
-76
-68
-58
-62
-63
-57
-60
-70
-68
-60
-55
-51
-52
-57
-55
-47
-46
-49
-40
-20
-7
7
23
21
-3
-22
-28
-24
-19
-28
-32
-12
-17
-40
7
142
464
1028
1232
433
-682
-939
-464
-111
-49
-26
-1
15
33
20
0
22
45
38
32
36
40
51
65
73
84
94
105
131
153
157
173
197
194
188
206
218
211
204
184
142
97
49
-6
-53
-83
-101
-110
-115
-118
-117
-110
-104
-110
-117
-107
-91
-95
-106
-104
-98
-100
-101
-98
-100
-100
-101
-108
-110
-102
-92
-96
-109
-113
-102
-92
-102
-116
-108
-92
-99
-118
-112
-92
-90
-83
-50
-31
-54
-81
-82
-88
-104
-92
-76
-97
-105
-78
-84
-86
-1
230
754
1333
1099
-96
-1039
-945
-433
-157
-64
-21
-31
-35
-7
5
-1
23
59
50
26
53
96
86
65
85
129
163
178
194
226
253
267
296
317
307
316
345
318
248
190
128
43
-19
-38
-58
-93
-112
-118
-125
-110
-91
-106
-104
-69
-75
-98
-66
-47
-87
-98
-65
-60
-80
-79
-60
-49
-60
-74
-68
-58
-60
-57
-53
-66
-67
-40
-22
-20
-11
-20
-52
-35
14
-4
-59
-14
106
137
56
-24
-63
-70
-18
44
26
-29
-36
-2
