# session 15
10
62
-107
75
817
1359
1318
1181
1188
1150
1090
1104
1093
1040
1030
1038
1014
988
971
931
868
800
724
647
573
489
404
347
316
279
237
210
201
195
172
142
122
109
89
63
40
36
45
36
6
-11
-19
-54
-87
-83
-85
-97
-62
6
222
733
1012
344
-744
-1092
-707
-365
-252
-178
-144
-157
-147
-122
-109
-95
-71
-45
-28
-18
5
52
102
133
137
116
84
53
26
-9
-62
-119
-158
-191
-238
-270
-262
-252
-262
-274
-277
-282
-288
-296
-305
-306
-299
-293
-288
-278
-261
-256
-275
-291
-287
-280
-270
-259
-266
-255
-199
-67
320
823
678
-316
-1110
-979
-495
-279
-229
-174
-145
-134
-115
-95
-71
-48
-24
12
44
66
110
169
204
213
212
204
198
195
170
130
99
60
8
-17
-8
-7
-23
-26
-9
8
14
4
-11
-6
12
10
-2
10
44
72
86
93
87
62
42
53
78
91
84
65
78
158
318
649
1041
924
79
-728
-785
-372
-48
90
151
182
205
226
252
292
326
342
361
399
446
492
528
561
587
587
560
539
539
537
506
444
370
304
260
229
196
172
166
149
104
66
62
56
25
-5
-24
-48
-69
-82
-104
-123
-119
-117
-140
-162
-174
-197
-214
-215
-236
-247
-197
-108
161
683
822
7
-1016
-1212
-796
-487
-385
-327
-307
-321
-340
-347
-330
-310
-306
-300
-284
-261
-226
-189
-153
-119
-128
-173
-187
-176
-212
-279
-313
-341
-392
-426
-433
-443
-458
-469
-475
-468
-455
-457
-468
-472
-475
-479
-479
-483
-487
-480
-462
-440
-417
-407
-412
-412
-399
-385
-372
-364
-357
-327
-272
-101
354
776
436
-552
-1141
-931
-533
-354
-278
-227
-208
-175
-132
-109
-83
-43
-5
42
107
167
205
245
315
386
410
402
412
435
440
427
398
357
337
351
371
386
409
429
441
463
497
521
536
553
581
609
623
642
675
685
684
720
771
776
755
767
807
829
845
862
855
882
1004
1214
1614
2047
1812
784
6
134
596
838
946
1020
1026
1014
1016
975
875
785
779
817
800
731
668
603
534
509
488
387
248
160
94
-11
-123
-187
-234
-313
-403
-446
-454
-479
-506
-495
-478
-496
-543
-607
-674
-723
-772
-835
-851
-786
-720
-707
-705
-715
-781
-871
-951
-1049
-1117
-1072
-916
-654
-324
52
678
1488
1670
878
135
286
840
1162
1311
1442
1519
1529
1470
1326
1098
789
448
138
-143
-411
-649
-852
-1037
-1234
-1427
-1562
-1699
-1908
-2109
-2449
-3143
-3699
-3553
-3199
-3275
-3526
-3635
-3728
-3851
-3941
-4019
-4100
-4271
-4565
-4909
-5400
-5965
-6058
-5464
-4568
-3690
-3112
-3175
-3611
-3642
-3132
-2778
-2876
-2876
-2424
-1746
-961
-30
807
1314
1616
1946
2365
2795
3133
3424
3757
4032
4226
4553
4942
5162
5375
5602
5716
6238
6842
5382
1351
-2579
-4542
-5247
-5589
-5839
-5835
-4870
-3133
-1507
668
3987
6621
7265
7282
7831
8462
8796
8941
8900
8690
8317
7704
7047
6691
6454
5860
5180
5131
5596
6051
6511
6741
6245
5407
4662
3689
2749
2515
2656
2644
2654
2816
3236
4046
4656
4728
4814
4440
3065
2353
1656
-3831
-13300
-17702
-12853
-4844
-53
1181
1293
1072
-967
-4607
-6570
-5959
-5374
-5844
-6657
-7290
-6745
-5523
-5810
-6992
-6877
-6226
-6428
-6704
-6486
-6251
-6018
-5638
-5305
-5031
-4697
-4374
-4114
-3849
-3549
-3266
-3045
-2859
-2662
-2467
-2288
-2101
-1917
-1767
-1614
-1422
-1239
-1080
-904
-747
-636
-489
-331
-246
-110
115
412
1189
2237
2060
410
-691
-252
489
738
850
967
1020
1120
1237
1288
1330
1386
1434
1505
1593
1662
1727
1804
1874
1927
1961
1974
1964
1942
1920
1889
1845
1816
1771
1673
1645
1709
1584
1280
1221
1379
1320
1122
1128
1233
1250
1254
1273
1253
1234
1239
1240
1237
1218
1194
1186
1142
1091
1141
1084
666
268
353
610
818
1518
2437
2077
415
-595
-217
346
448
461
499
482
480
469
425
439
488
475
430
407
395
381
371
365
352
317
265
223
188
130
48
-36
-109
-163
-196
-223
-247
-259
-266
-261
-245
-292
-407
-458
-406
-360
-356
-350
-346
-355
-355
-348
-350
-356
-354
-350
-368
-406
-428
-415
-450
-689
-1098
-1381
-1414
-1223
-562
276
64
-1306
-2182
-1821
-1210
-960
-826
-726
-705
-662
-601
-577
-552
-508
-465
-410
-356
-326
-291
-231
-178
-141
-105
-85
-81
-82
-107
-161
-204
-228
-256
-277
-276
-276
-272
-249
-224
-217
-222
-223
-205
-177
-165
-166
-160
-144
-119
-83
-59
-54
-31
-2
-5
-11
9
13
16
54
54
29
103
250
614
1408
1803
760
-787
-1149
-554
-151
-53
37
71
63
103
142
163
190
203
217
265
323
376
441
506
544
555
545
519
486
446
390
318
247
190
154
139
133
127
126
133
137
140
143
138
134
139
127
121
145
119
26
-9
4
-51
-110
-73
-25
-24
-22
14
65
60
23
75
174
482
1377
2098
1249
-466
-1016
-376
83
134
206
281
292
268
206
220
275
139
-102
-175
-122
-94
-79
-54
-53
-74
-115
-172
-201
-200
-221
-275
-329
-379
-431
-470
-487
-493
-502
-513
-524
-540
-563
-582
-586
-589
-606
-618
-619
-623
-634
-659
-710
-755
-740
-684
-651
-647
-638
-624
-581
-494
-455
-485
-440
-322
-83
608
1321
816
-715
-1496
-1012
-391
-175
-54
60
106
164
260
346
414
466
512
556
595
640
697
759
815
855
879
901
902
870
828
782
711
643
615
603
584
580
591
589
579
589
608
614
615
631
637
609
585
599
619
627
646
670
683
707
733
729
722
742
745
737
767
777
735
759
882
1187
1834
2161
1154
-495
-1095
-601
-150
-45
-38
-145
-342
-496
-580
-596
-560
-512
-462
-444
-459
-458
-503
-540
-245
272
366
-76
-499
-690
-867
-1062
-1197
-1304
-1396
-1455
-1504
-1538
-1538
-1541
-1571
-1607
-1646
-1679
-1684
-1683
-1693
-1686
-1693
-1725
-1700
-1677
-1747
-1639
-1193
-888
-1070
-1400
-1549
-1603
-1688
-1761
-1676
-1386
-1173
-1318
-1347
-339
1289
1627
251
-807
-393
370
581
489
236
-154
-355
-268
-100
111
410
668
842
1058
1320
1522
1662
1791
1889
1940
1964
1975
1977
1965
1928
1876
1830
1783
1732
1706
1706
1651
1488
1279
1146
1127
1143
1117
1062
1008
955
899
839
769
698
629
553
485
459
474
478
419
322
248
189
125
115
122
40
-42
-19
104
586
1358
1302
-73
-1317
-1266
-669
-410
-355
-301
-313
-329
-309
-307
-304
-274
-258
-251
-207
-144
-108
-75
-18
27
43
56
63
48
27
6
-32
-100
-175
-232
-303
-428
-555
-684
-916
-1186
-1313
-1324
-1350
-1360
-1297
-1233
-1221
-1204
-1134
-1057
-1012
-972
-916
-856
-784
-693
-611
-564
-528
-473
-417
-375
-313
-265
-275
-227
-73
165
736
1427
1103
-372
-1362
-1039
-407
-182
-85
34
79
108
165
201
225
267
317
356
382
425
498
564
599
622
630
617
607
597
559
493
414
336
281
250
227
213
200
168
143
155
168
150
129
121
106
77
51
42
46
41
7
-25
-11
12
-3
-13
4
-13
-47
-44
-51
-72
-54
-79
-148
-118
-20
327
1207
1687
588
-1012
-1277
-597
-257
-251
-176
-113
-127
-120
-49
-13
-85
-52
-23
-518
-1085
-786
-165
-201
-464
-375
-268
-323
-307
-242
-245
-259
-242
-237
-251
-231
-168
-127
-111
-54
19
31
20
63
138
185
195
204
223
231
224
229
246
256
255
253
274
321
348
327
311
321
305
283
311
327
307
346
444
704
1282
1576
724
-657
-1119
-615
-150
-42
-36
-70
-129
-125
-66
16
121
220
306
400
489
568
671
793
893
960
997
1014
1055
1074
924
596
290
114
-5
-125
-233
-312
-363
-395
-415
-419
-406
-404
-424
-442
-432
-406
-395
-396
-379
-343
-322
-321
-312
-290
-260
-232
-228
-231
-211
-210
-260
-272
-229
-236
-252
-195
-101
311
1228
1625
563
-812
-988
-415
-152
-174
-56
197
340
339
428
607
624
600
779
917
772
580
525
503
478
461
397
309
265
217
85
-81
-172
-198
-253
-355
-474
-610
-731
-802
-826
-769
-654
-649
-817
-999
-1086
-1162
-1303
-1421
-1432
-1442
-1550
-1591
-1475
-1483
-1702
-1708
-1375
-1184
-1349
-1518
-1440
-1274
-1322
-1584
-1690
-1567
-1322
-583
397
226
-1132
-1780
-1025
-142
58
-27
74
384
670
800
890
1024
1140
1218
1305
1405
1499
1585
1662
1735
1787
1788
1744
1693
1634
1557
1483
1416
1331
1236
1157
1098
1060
1030
991
942
883
824
777
736
687
638
590
532
476
422
368
327
298
268
240
206
158
131
131
102
39
-1
-27
-69
-90
-104
-149
-152
-114
28
625
1331
890
-657
-1561
-1176
-596
-434
-382
-334
-370
-389
-351
-328
-323
-298
-258
-228
-213
-184
-129
-70
-10
49
64
37
28
21
-41
-130
-191
-240
-288
-319
-337
-354
-359
-347
-337
-342
-344
-316
-270
-245
-240
-229
-204
-177
-147
-108
-80
-63
-26
27
72
115
145
173
253
235
-127
-637
-774
-460
-191
-257
-319
-123
141
567
1175
1016
-300
-1338
-1058
-270
134
217
224
198
94
-102
-345
-650
-904
-855
-735
-943
-1142
-863
-399
-193
-215
-292
-352
-391
-403
-316
-184
-137
-41
166
186
-10
-101
-75
-103
-145
-104
75
295
241
-23
-56
73
25
-60
-60
-127
-132
71
207
158
136
178
242
415
562
496
457
681
921
966
921
839
797
965
1191
1354
1762
2032
1123
-434
-923
-334
16
-112
-219
-263
-293
-278
-320
-371
-329
-307
-349
-344
-263
-97
186
498
690
698
562
462
610
883
866
502
224
232
331
420
453
271
-57
-271
-375
-533
-698
-780
-851
-923
-907
-878
-953
-964
-794
-699
-815
-921
-965
-1087
-1208
-1229
-1224
-1191
-1120
-1065
-899
-578
-456
-688
-858
-710
-529
-528
-539
-277
485
1270
845
-781
-1834
-1538
-906
-502
-144
-26
-228
-395
-406
-355
-286
-287
-286
-22
437
736
840
1031
1343
1561
1675
1827
2012
2154
2241
2294
2342
2381
2377
2375
2391
2365
2334
2341
2250
1967
1579
1160
782
569
478
371
253
134
21
61
198
134
-118
-321
-460
-530
-477
-472
-612
-709
-730
-815
-800
-504
-223
-245
-436
-622
-703
-637
-462
143
1148
1164
-381
-1556
-1110
-414
-533
-810
-730
-539
-440
-437
-500
-583
-650
-651
-525
-294
-82
55
213
417
581
718
809
697
374
-11
-336
-486
-607
-1093
-1805
-2103
-1895
-1666
-1589
-1460
-1304
-1423
-1893
-2401
-2681
-2807
-2933
-3149
-3482
-3614
-3237
-2763
-2533
-2054
-1181
-525
-184
250
743
912
589
142
118
434
659
781
926
1014
1067
1162
1226
1330
1729
2300
2371
1582
645
487
958
1298
1318
1269
1223
1162
1150
1189
1187
1100
981
897
862
874
934
970
938
921
932
909
904
902
781
635
595
529
339
133
4
-42
-67
-110
-87
33
130
157
198
299
372
347
361
467
460
397
522
615
437
307
403
445
388
415
472
457
440
444
408
366
355
318
259
234
191
119
132
217
345
681
1066
887
81
-573
-554
-153
146
235
251
278
307
330
338
331
335
355
366
360
318
228
141
98
38
-128
-374
-564
-640
-732
-951
-1244
-1539
-1794
-1941
-1985
-1982
-1938
-1866
-1782
-1704
-1790
-2117
-2437
-2494
-2297
-2005
-1897
-2159
-2511
-2508
-2180
-1954
-2049
-2224
-2126
-1773
-1521
-1567
-1677
-1512
-1094
-699
-406
-130
94
258
451
585
545
507
661
918
1142
1440
2059
2726
2572
1478
591
687
1270
1683
1865
1993
2125
2218
2293
2377
2417
2512
2698
2556
2005
1722
1841
1690
1185
816
606
367
174
52
-81
-218
-349
-485
-588
-664
-745
-799
-828
-849
-840
-844
-872
-783
-590
-503
-502
-414
-294
-256
-218
-146
-157
-172
50
464
857
1250
1569
1500
1103
813
738
642
491
492
654
725
657
633
622
566
615
672
677
1055
1539
949
-486
-1066
-576
-365
-679
-672
-279
2
182
390
440
346
389
545
590
584
671
762
806
860
871
839
849
713
295
-34
-74
-229
-688
-1129
-1377
-1535
-1675
-1800
-1858
-1803
-1761
-1831
-1905
-2040
-2444
-2842
-2773
-2463
-2356
-2341
-2303
-2437
-2635
-2706
-2774
-2675
-2171
-1826
-2098
-2395
-2343
-2289
-2070
-1350
-635
-262
157
467
236
37
455
1025
1469
2094
2513
2055
1215
984
1379
1794
1996
2095
2168
2243
2298
2196
1782
1252
1185
1611
1612
856
367
715
1168
1215
1137
1152
1195
1078
735
558
706
565
-35
-380
-340
-476
-762
-797
-653
-570
-582
-595
-469
-243
-92
14
176
312
379
437
474
478
482
480
487
527
534
486
481
516
492
455
473
467
398
351
347
325
263
237
313
398
539
1060
1570
980
-451
-1130
-714
-242
-123
-76
-57
-97
-135
-177
-175
-101
-70
-99
-68
-2
-1
-8
42
69
71
142
188
75
-63
-97
-126
-203
-273
-355
-445
-483
-489
-504
-511
-505
-500
-513
-552
-570
-539
-534
-567
-550
-510
-518
-490
-374
-294
-322
-398
-458
-447
-378
-358
-400
-385
-322
-348
-419
-389
-333
-354
-374
-364
-363
-321
-222
46
609
877
121
-1014
-1292
-792
-382
-271
-219
-177
-161
-133
-103
-87
-46
12
37
57
121
185
208
250
339
399
391
395
443
460
419
358
286
228
197
135
66
81
130
119
91
95
99
94
106
129
126
103
100
111
104
91
88
87
94
99
86
81
105
131
144
134
86
41
55
91
107
126
114
61
71
174
436
1018
1442
828
-455
-1048
-688
-225
-50
25
71
72
79
94
93
97
126
165
170
132
125
203
297
337
353
368
377
400
374
199
-12
-76
-60
-99
-154
-173
-185
-185
-170
-173
-174
-148
-133
-144
-167
-200
-237
-289
-356
-361
-298
-273
-297
-289
-252
-224
-202
-190
-175
-140
-116
-130
-162
-183
-172
-122
-70
-77
-104
-56
39
287
969
1552
926
-514
-1130
-670
-219
-131
-115
-150
-188
-85
36
55
54
