# session 14
86
-8
233
192
-667
-1552
-1615
-1358
-1367
-1374
-1225
-1117
-1010
-827
-688
-627
-542
-438
-326
28
646
828
100
-789
-957
-604
-296
-144
-92
-124
-140
-84
-39
-64
-80
-34
-24
-83
-87
-36
-70
-189
-303
-384
-394
-344
-339
-364
-351
-344
-371
-407
-444
-433
-369
-361
-407
-416
-388
-338
-293
-350
-480
-499
-383
-291
-294
-342
-377
-386
-395
-425
-430
-383
-267
116
744
878
50
-880
-957
-479
-93
152
324
357
330
338
329
282
250
233
185
115
68
88
191
294
296
278
375
488
491
476
508
520
516
536
559
603
669
723
811
935
987
986
1038
1095
1081
1025
943
840
741
638
528
430
319
208
159
174
348
793
1053
487
-561
-1138
-1086
-914
-832
-789
-794
-770
-648
-551
-533
-466
-343
-259
-199
-128
-66
-31
-59
-116
-92
-45
-82
-115
-84
-102
-193
-273
-305
-314
-349
-424
-484
-467
-394
-353
-359
-347
-306
-271
-256
-274
-296
-277
-284
-327
-306
-316
-468
-532
-404
-211
237
850
746
-211
-839
-603
-226
-116
-43
61
153
311
493
604
690
788
855
892
914
899
857
841
836
767
643
542
476
419
370
317
230
133
68
3
-76
-118
-144
-199
-210
-160
-165
-248
-332
-407
-489
-561
-566
-472
-370
-319
-248
-188
-213
-206
-81
175
610
869
378
-545
-979
-788
-507
-372
-329
-329
-309
-288
-349
-452
-527
-579
-584
-539
-530
-561
-524
-418
-356
-374
-425
-470
-459
-348
-236
-288
-455
-568
-613
-628
-565
-460
-406
-405
-414
-392
-309
-208
-114
-1
76
79
87
159
321
570
771
860
991
1203
1502
2126
2768
2420
1101
189
311
725
860
829
777
697
586
468
390
344
268
174
97
9
-94
-152
-158
-170
-194
-193
-178
-159
-118
-59
-4
28
11
-17
8
19
-48
-106
-114
-145
-182
-140
-69
-129
-308
-389
-312
-286
-390
-445
-348
-225
-210
-217
-107
-4
56
416
981
926
43
-724
-660
-118
220
214
170
181
30
-253
-373
-306
-309
-434
-464
-361
-364
-488
-504
-439
-473
-536
-494
-368
-163
99
277
314
324
350
337
339
427
494
466
465
554
613
556
443
361
319
233
76
-44
-69
-75
-118
-177
-202
-178
-138
17
322
336
-295
-1082
-1362
-1175
-880
-638
-515
-500
-500
-452
-310
-97
12
-48
-102
-60
19
135
231
184
60
12
28
36
50
60
22
-66
-185
-281
-254
-152
-166
-269
-275
-214
-180
-119
-76
-126
-142
-85
-65
-50
-53
-198
-311
-174
-31
-126
-211
-26
342
787
1120
873
70
-444
-224
253
556
707
802
890
954
965
1010
1104
1128
1104
1092
1030
913
779
588
394
307
257
167
107
90
41
-40
-141
-289
-469
-684
-1000
-1366
-1642
-1800
-1887
-1896
-1832
-1756
-1693
-1622
-1545
-1478
-1420
-1393
-1381
-1226
-847
-437
-162
59
389
954
1551
1566
918
406
473
700
757
719
640
545
492
458
463
553
625
594
533
487
468
531
622
654
701
800
868
889
881
831
760
665
533
459
495
520
459
390
364
324
271
289
378
462
533
628
732
782
756
736
800
858
819
790
839
955
1334
1828
1553
288
-801
-925
-621
-464
-399
-336
-348
-426
-465
-443
-447
-517
-594
-641
-677
-722
-790
-857
-874
-854
-836
-788
-707
-708
-833
-948
-967
-995
-1096
-1178
-1214
-1282
-1298
-1119
-844
-684
-673
-754
-879
-972
-1014
-1075
-1157
-1219
-1256
-1256
-1214
-1169
-1128
-1101
-1056
-782
-360
-463
-1255
-1793
-1446
-761
-326
-76
129
217
212
249
343
382
369
389
359
170
-40
-200
-518
-1051
-1548
-1865
-2024
-1985
-1806
-1678
-1584
-1400
-1185
-894
-398
10
107
372
1121
1874
2258
2446
2545
2466
2273
2095
1915
1790
1923
2253
2497
2641
2799
2897
2905
2910
3056
3522
4013
3763
2810
2163
2236
2477
2504
2423
2296
2105
1953
1922
1939
1906
1854
1878
1956
1926
1773
1644
1371
579
-549
-1464
-2045
-2451
-2639
-2542
-2233
-1791
-1240
-601
57
528
428
-212
-455
372
1587
2332
2598
2399
1418
28
-479
-10
-738
-3461
-5377
-4762
-3630
-3479
-3479
-3171
-2824
-2482
-2515
-3136
-3674
-3687
-3514
-3405
-3316
-3211
-3045
-2858
-2758
-2712
-2686
-2716
-2722
-2584
-2348
-2093
-1789
-1426
-1036
-600
-162
147
344
569
795
893
884
869
845
786
758
785
763
718
847
1119
1267
1235
1177
1159
1132
1066
997
974
955
901
878
853
717
585
602
709
933
1209
988
92
-641
-583
-164
76
155
227
291
319
338
395
492
600
732
917
1129
1342
1618
1986
2361
2676
2937
3098
3116
3054
2958
2794
2589
2403
2239
2091
1963
1840
1707
1467
969
298
-237
-526
-736
-956
-1086
-1076
-1022
-979
-903
-833
-839
-862
-843
-813
-800
-805
-736
-455
-238
-655
-1551
-2061
-1887
-1528
-1330
-1226
-1159
-1132
-1101
-1056
-1030
-1014
-988
-971
-974
-965
-905
-807
-715
-649
-612
-609
-630
-642
-626
-598
-552
-492
-483
-526
-522
-478
-493
-544
-544
-525
-540
-563
-585
-626
-654
-649
-641
-627
-570
-487
-395
-265
-140
-54
58
217
544
1286
1989
1666
535
-62
256
725
929
1002
1035
1049
1074
1095
1113
1114
1073
1008
929
801
633
474
355
313
353
426
497
557
599
635
664
656
610
569
532
479
432
414
401
348
232
129
111
93
9
-36
-5
-15
-96
-159
-189
-232
-271
-297
-407
-570
-556
-426
-604
-1164
-1682
-1851
-1659
-1208
-755
-559
-526
-393
-162
39
253
485
641
737
733
476
106
-40
23
59
38
36
59
120
213
274
277
253
215
193
203
182
95
22
4
-26
-101
-190
-259
-293
-333
-426
-515
-552
-584
-629
-661
-685
-697
-691
-688
-664
-598
-453
-125
180
-70
-853
-1418
-1367
-1032
-758
-549
-324
-100
72
214
363
487
567
624
646
633
633
650
664
685
699
684
675
684
697
719
724
669
584
510
443
386
344
303
279
278
250
185
152
141
97
57
68
64
9
-30
-7
33
39
17
0
-20
5
322
964
1227
471
-687
-1161
-926
-638
-538
-534
-580
-631
-655
-653
-607
-540
-503
-480
-455
-432
-340
-159
-20
19
45
86
101
126
194
243
211
133
79
66
59
47
68
131
200
252
294
317
315
317
325
322
325
342
325
254
178
137
111
54
-22
-49
-6
171
606
960
533
-498
-1060
-801
-364
-148
-46
13
23
37
68
93
113
132
147
153
170
202
207
185
191
208
191
174
196
205
173
137
105
49
0
-1
-1
-39
-67
-75
-114
-164
-175
-183
-219
-224
-168
-112
-101
-109
-99
-79
-56
-12
32
39
61
129
239
593
1155
1168
281
-563
-577
-218
-64
-44
-33
-67
-109
-136
-186
-233
-223
-171
-146
-166
-194
-213
-249
-301
-344
-370
-382
-383
-383
-381
-375
-384
-405
-418
-423
-417
-389
-356
-332
-308
-285
-277
-272
-264
-266
-272
-265
-251
-239
-222
-199
-194
-207
-193
-170
-182
-178
-100
103
528
886
514
-500
-1152
-1000
-595
-361
-241
-173
-154
-121
-49
38
111
150
163
180
199
207
212
229
258
287
316
357
402
450
505
542
533
496
466
448
428
402
382
369
351
330
324
334
354
363
353
346
352
344
318
297
275
232
197
181
167
178
230
415
903
1346
954
-126
-751
-527
-113
75
141
170
185
213
219
211
234
264
267
259
248
226
207
202
202
186
159
150
159
159
158
173
191
192
159
78
-14
-64
-78
-114
-204
-312
-386
-423
-447
-464
-467
-445
-406
-375
-357
-339
-326
-306
-277
-285
-311
-301
-280
-73
511
844
143
-946
-1207
-768
-461
-397
-345
-320
-322
-299
-290
-287
-245
-208
-208
-197
-172
-163
-152
-132
-129
-125
-87
-40
-9
4
-13
-43
-69
-114
-173
-202
-207
-220
-241
-267
-300
-319
-321
-329
-339
-336
-330
-327
-316
-304
-302
-304
-307
-303
-284
-269
-249
-184
-87
142
587
796
238
-630
-908
-586
-260
-135
-79
-33
-7
-4
-1
39
111
180
239
294
336
372
424
489
535
556
583
622
652
672
678
643
596
587
590
580
590
601
569
524
497
461
415
397
399
368
306
281
301
295
244
185
127
84
60
4
-70
-87
-20
235
680
749
-8
-937
-1147
-777
-418
-214
-97
-63
-50
4
66
112
162
213
238
255
293
337
357
366
393
432
454
447
415
367
320
266
188
102
38
-10
-70
-142
-215
-275
-298
-293
-311
-362
-413
-481
-589
-682
-729
-800
-953
-1133
-1207
-1094
-918
-858
-840
-711
-531
-243
268
482
-194
-1140
-1314
-829
-427
-268
-166
-102
-71
-26
18
39
57
78
92
104
119
137
163
196
220
223
221
239
272
300
310
280
221
202
237
265
265
268
273
279
308
344
360
378
407
432
459
499
521
517
513
493
449
437
451
420
387
393
427
734
1362
1491
579
-427
-542
-163
29
51
60
34
4
-10
-43
-78
-103
-137
-186
-242
-289
-308
-317
-336
-347
-338
-323
-301
-277
-273
-292
-312
-328
-342
-346
-339
-339
-351
-360
-365
-369
-365
-359
-353
-340
-331
-338
-335
-314
-306
-318
-332
-357
-386
-390
-392
-406
-386
-300
-77
290
397
-173
-994
-1276
-980
-619
-436
-371
-335
-277
-214
-174
-135
-92
-63
-41
-18
6
36
57
85
144
212
258
299
338
366
388
391
367
340
315
299
314
341
347
346
365
402
445
500
565
601
578
542
538
532
488
439
407
384
369
341
296
292
345
509
928
1302
924
-89
-703
-524
-127
88
184
227
250
286
306
302
322
362
388
405
425
449
477
507
521
529
560
605
616
583
533
484
444
414
388
344
262
168
116
83
-22
-185
-306
-380
-475
-585
-670
-725
-753
-745
-704
-646
-618
-624
-599
-554
-550
-537
-481
-319
164
663
299
-830
-1463
-1174
-746
-603
-545
-507
-519
-508
-474
-465
-452
-429
-429
-438
-423
-403
-399
-395
-379
-363
-350
-330
-306
-281
-272
-303
-352
-365
-359
-386
-414
-402
-400
-427
-422
-383
-363
-344
-297
-258
-237
-203
-160
-119
-78
-44
-26
-23
-27
-19
-8
-2
26
93
288
716
1016
590
-305
-730
-451
-29
200
299
332
340
362
379
385
400
415
421
423
415
422
457
483
489
507
533
552
590
630
621
574
546
543
530
510
511
526
530
530
533
525
501
474
449
424
390
353
330
313
284
243
197
154
137
135
104
88
129
230
563
1101
1082
75
-952
-1032
-575
-305
-235
-198
-209
-235
-231
-225
-221
-205
-176
-126
-63
-13
26
70
102
106
103
113
119
111
91
53
1
-50
-88
-114
-135
-154
-166
-172
-178
-182
-185
-195
-204
-197
-190
-201
-208
-194
-191
-218
-252
-269
-263
-250
-265
-284
-257
-196
41
578
831
119
-937
-1202
-774
-435
-337
-281
-249
-241
-221
-208
-197
-168
-143
-132
-114
-92
-80
-70
-56
-47
-46
-46
-36
-21
-15
-29
-59
-95
-123
-140
-159
-179
-194
-210
-225
-230
-225
-228
-237
-233
-219
-214
-211
-202
-205
-219
-219
-213
-214
-194
-168
-175
-164
-119
-59
257
871
989
97
-871
-933
-475
-206
-128
-73
-56
-49
-14
18
38
69
115
152
163
183
239
284
299
336
389
410
416
436
442
416
380
345
305
276
273
277
274
275
276
265
264
289
308
306
314
326
314
300
308
310
291
274
256
245
260
271
266
292
363
606
1147
1469
859
-226
-652
-324
48
210
289
312
302
302
284
241
179
113
103
144
152
134
143
150
128
107
87
48
7
-42
-119
-200
-254
-300
-343
-371
-396
-427
-448
-457
-461
-480
-540
-603
-607
-557
-506
-495
-511
-502
-471
-480
-528
-548
-521
-485
-486
-498
-474
-445
-265
313
782
245
-879
-1283
-838
-383
-207
-138
-122
-108
-56
-21
-3
30
55
71
98
124
140
160
181
197
214
223
213
197
198
208
186
131
89
66
32
12
31
36
9
-1
11
6
-11
-16
-5
7
-5
-31
-25
-2
-4
-9
-1
-8
-19
-12
-22
-33
1
75
332
829
984
285
-615
-787
-393
-98
-24
3
18
24
48
73
83
101
138
174
188
196
215
238
258
287
320
346
374
399
394
358
313
275
239
196
153
120
87
55
30
3
-30
-56
-72
-77
-75
-79
-95
-114
-128
-128
-126
-146
-185
-216
-224
-238
-272
-263
-205
-78
298
726
451
-549
-1211
-1035
-618
-393
-275
-218
-211
-176
-122
-92
-59
-8
36
61
85
119
163
204
232
253
280
306
311
294
268
233
190
158
135
102
69
54
48
38
36
40
41
42
42
40
43
52
53
55
68
77
73
62
47
39
55
56
31
37
90
291
780
1081
487
-558
-923
-550
-182
-47
25
53
51
84
114
102
90
108
146
172
175
192
242
280
279
267
262
256
247
232
196
139
90
64
31
-25
-70
-84
-92
-110
-129
-144
-155
-166
-191
-218
-230
-241
-257
-254
-243
-260
-294
-324
-347
-352
-374
-444
-473
-427
-318
63
630
553
-431
-1246
-1180
-810
-674
-667
-660
-602
-465
-379
-400
-417
-387
-341
-306
-315
-337
-350
-419
-536
-599
-596
-605
-573
-346
-13
164
187
186
119
11
21
120
138
123
304
632
729
589
730
1222
1477
1288
1064
1012
959
816
654
520
472
537
584
506
432
478
524
554
821
1171
872
-148
-921
-894
-529
-286
-185
-172
-188
-167
-143
-144
-125
-76
-41
-19
13
42
50
62
88
105
108
119
134
124
75
17
-20
-35
-2
79
119
88
76
96
87
67
68
68
61
57
34
-20
-89
-144
-173
-208
-266
-305
-306
-305
-306
-310
-339
-353
-319
-210
143
603
432
-545
-1312
-1183
-700
-448
-362
-304
-281
-253
-209
-191
-177
-128
