# session 8
54
46
31
-9
62
347
722
1018
1158
1199
1286
1325
1165
1012
972
802
592
657
954
1333
1622
1489
1036
823
937
1026
974
840
745
823
845
605
402
355
222
143
287
348
247
255
313
258
159
-32
-266
-240
-91
-157
-233
-195
-273
-303
-128
-39
55
416
656
546
440
330
48
-86
24
7
-89
61
213
-43
-509
-719
-627
-504
-471
-486
-619
-862
-949
-787
-477
40
458
67
-868
-1195
-763
-452
-441
-301
-221
-537
-808
-628
-444
-694
-1027
-993
-714
-492
-377
-311
-305
-364
-361
-209
-55
-23
-69
-145
-186
-168
-151
-71
76
84
-20
-44
-61
-141
-205
-309
-405
-244
89
315
540
856
916
614
366
334
240
67
87
246
222
42
35
242
437
563
668
703
672
754
1084
1406
1164
352
-241
-168
150
329
432
545
642
646
504
330
197
-58
-470
-755
-724
-541
-451
-415
-239
-31
-22
-121
-169
-166
-57
82
-23
-327
-448
-225
62
87
-63
-138
-189
-232
-97
52
-7
-80
-91
-185
-180
76
360
619
916
1022
869
729
586
233
-118
-216
-283
-392
-274
-30
157
486
647
-40
-1075
-1359
-957
-590
-486
-579
-689
-592
-469
-516
-459
-251
-178
-52
245
145
-314
-276
154
110
-209
-69
293
308
182
260
335
248
172
94
-38
-53
-20
-125
-179
-80
-42
-49
40
102
137
309
412
238
122
219
130
-235
-482
-475
-430
-467
-429
-155
98
-130
-758
-1109
-877
-537
-436
-406
-469
-647
-534
-231
-350
-541
-136
263
16
-224
57
443
658
751
735
707
644
557
794
1125
818
240
254
480
250
-112
-206
-134
29
222
307
362
446
386
245
256
198
-144
-257
195
499
219
121
568
782
496
294
288
232
183
139
16
-77
-139
-232
-130
271
568
350
-229
-643
-536
-34
358
304
83
109
220
149
169
423
548
514
589
635
557
528
529
559
526
26
-530
-210
464
450
173
257
345
266
237
158
21
108
297
202
-128
-442
-820
-1276
-1503
-1492
-1546
-1622
-1555
-1543
-1703
-1812
-1873
-2106
-2353
-2298
-1949
-1237
-159
432
-136
-958
-953
-400
124
548
722
561
393
388
350
179
-11
-93
-35
12
-130
-365
-426
-292
-176
-148
-147
-144
-9
390
764
686
366
475
1175
1871
2069
2060
2243
2238
1654
996
744
635
464
411
470
441
355
614
1401
1919
1322
270
-147
-143
-294
-492
-625
-736
-764
-810
-899
-888
-861
-778
-427
-172
-375
-478
-88
275
338
391
478
523
551
434
299
496
704
441
84
82
134
-67
-301
-326
-225
-134
-4
107
-14
-193
-84
22
-217
-375
-255
-324
-459
-158
219
187
44
38
-46
-254
-397
-409
-356
-302
-293
-362
-465
-523
-505
-427
-366
-366
-361
-324
-139
385
801
311
-708
-1112
-890
-807
-834
-616
-435
-520
-593
-550
-557
-509
-255
-42
-107
-189
6
304
501
698
922
1048
1064
975
799
656
529
300
58
-90
-240
-410
-491
-476
-396
-273
-308
-683
-1133
-1192
-837
-442
-250
-227
-177
110
559
793
655
431
385
393
157
-310
-623
-597
-272
558
1587
1617
518
-258
-62
383
612
651
547
491
564
586
551
594
607
433
219
150
91
-132
-395
-510
-429
-257
-188
-189
-133
-173
-267
-71
221
165
22
220
539
609
499
417
293
108
191
535
528
10
-468
-675
-804
-851
-805
-770
-665
-553
-706
-860
-488
197
650
895
1241
1640
1694
1167
430
83
248
585
664
307
-112
-172
-144
-373
-521
-320
-177
-348
-482
-337
-107
74
271
458
566
643
732
754
662
590
567
343
-98
-408
-560
-826
-1128
-1225
-1135
-995
-887
-830
-759
-640
-531
-505
-566
-554
-325
-49
37
-57
-263
-486
-528
-410
-312
-265
-339
-418
-127
187
-205
-848
-862
-529
-475
-577
-559
-500
-469
-331
5
385
530
432
395
480
324
-53
-78
238
255
-56
-291
-481
-678
-646
-335
59
288
268
156
-93
-439
-217
719
1399
1335
1095
1082
1109
1014
1072
1526
1847
1461
830
488
78
-524
-793
-702
-675
-739
-776
-792
-595
37
789
868
-21
-988
-1042
-476
-175
-207
-144
-7
-20
-69
8
141
247
293
241
167
180
229
250
275
282
230
244
388
483
477
604
852
913
773
656
522
242
-21
-56
46
30
-102
-135
-89
-155
-272
-312
-359
-410
-326
-187
-176
-208
-129
-80
-204
-280
-132
48
240
705
1175
953
74
-648
-820
-769
-785
-827
-831
-842
-905
-957
-883
-675
-466
-346
-297
-288
-299
-320
-369
-402
-342
-243
-204
-245
-332
-356
-295
-281
-223
30
200
129
79
31
-133
-209
-266
-393
-403
-644
-952
56
1902
2214
1164
807
1150
1216
1145
1144
1078
1008
919
788
866
1287
1877
2165
1627
512
-203
-159
102
192
157
63
-33
-128
-261
-263
-59
22
-127
-216
-219
-287
-302
-210
-199
-330
-506
-584
-478
-347
-342
-367
-428
-612
-745
-733
-771
-883
-910
-879
-857
-801
-778
-846
-828
-690
-663
-657
-434
-311
-593
-848
-742
-658
-842
-993
-916
-791
-765
-625
-122
363
111
-741
-1292
-1212
-928
-712
-485
-217
31
170
108
1
83
115
11
490
1559
1971
1538
1409
1736
1837
1750
1677
1418
1012
655
330
60
-112
-251
-374
-447
-487
-524
-548
-487
-373
-436
-568
-258
478
1134
1597
1860
1666
1209
987
949
829
680
542
344
153
65
186
656
1122
830
-125
-701
-516
-228
-222
-295
-366
-475
-519
-479
-468
-465
-376
-273
-260
-229
-70
40
-85
-273
-283
-211
-224
-251
-242
-296
-382
-377
-309
-243
-142
-15
84
188
313
366
332
339
429
481
414
330
336
371
347
308
300
298
316
345
307
214
137
141
455
1035
1100
241
-661
-777
-458
-285
-300
-403
-567
-719
-823
-907
-975
-1000
-945
-826
-745
-720
-648
-498
-356
-291
-274
-231
-162
-131
-100
-38
-83
-242
-310
-280
-307
-366
-367
-333
-275
-210
-205
-206
-116
-16
-9
-19
15
-2
-96
-142
-132
-169
-237
-290
-335
-342
-309
-135
468
1185
1069
166
-335
-36
396
622
761
817
800
778
712
631
607
558
409
259
193
184
205
248
291
324
346
345
326
306
266
174
53
-44
-124
-196
-217
-196
-196
-187
-120
-62
-55
-18
78
131
85
6
-68
-174
-295
-378
-448
-503
-519
-549
-613
-676
-673
-300
463
665
-290
-1336
-1393
-898
-582
-458
-372
-286
-184
-179
-305
-386
-374
-373
-351
-265
-208
-201
-146
-49
26
90
147
177
218
295
333
285
208
143
75
27
36
72
108
152
183
203
246
315
389
444
487
567
643
627
601
680
778
788
735
657
566
541
808
1411
1719
1076
-3
-464
-252
-13
37
65
115
112
64
58
102
126
134
167
202
259
375
483
558
691
881
1006
1035
1006
945
850
702
467
167
-106
-286
-377
-404
-380
-332
-301
-297
-283
-223
-151
-126
-107
-19
78
76
26
50
118
121
61
8
-75
-211
-124
377
684
79
-952
-1371
-1135
-885
-824
-785
-731
-714
-703
-656
-631
-694
-782
-809
-791
-753
-672
-552
-423
-292
-153
-3
143
258
342
402
410
341
217
82
-29
-123
-226
-316
-364
-405
-458
-494
-534
-627
-740
-802
-842
-931
-1026
-1079
-1157
-1249
-1241
-1190
-1218
-1248
-1192
-1000
-580
-226
-509
-1242
-1621
-1443
-1141
-988
-993
-1108
-1268
-1446
-1605
-1684
-1712
-1734
-1703
-1604
-1482
-1313
-1066
-814
-611
-453
-364
-317
-192
-9
56
-27
-135
-238
-363
-445
-442
-434
-433
-326
-148
-50
-23
11
35
86
248
448
573
669
844
1154
1594
2101
2616
3083
3369
3462
3715
4292
4509
3730
2617
2228
2492
2744
2843
2937
3021
3049
3012
2940
2939
3019
3050
3048
3146
3282
3323
3344
3452
3565
3578
3523
3495
3482
3399
3345
3480
3663
3821
4040
4045
3965
4386
4652
4847
7699
12637
13962
10256
6155
3151
-877
-4840
-5750
-4531
-4929
-7274
-7401
-2850
4061
10579
16091
19530
19138
14863
7496
-1925
-10189
-14738
-17541
-21021
-24145
-24467
-20269
-14771
-16609
-25892
-31189
-30647
-31560
-27401
-11375
-811
-10969
-26954
-27803
-14722
-2250
2300
2662
3219
3716
3997
5343
7389
8970
9949
10744
11757
12628
12337
11142
10258
9678
9368
10005
10443
9845
10038
9837
7544
7890
9092
3351
3298
19846
22961
-7611
-36281
-36940
-31244
-33119
-32908
-30635
-30947
-30391
-29160
-29318
-28118
-27515
-29238
-20984
5473
34430
47733
47354
44506
44376
42950
33204
19400
13748
15223
13648
9590
8577
8948
8438
8413
8731
8026
6636
5597
5303
5422
5424
5304
5287
5279
5133
4845
4429
3940
3481
3125
2709
1867
687
-11
283
852
627
-277
-998
-1445
-1698
-1314
-1294
-3699
-7253
-7719
-4407
-1816
-3000
-5134
-4194
-970
999
688
-636
-2187
-3631
-4500
-4734
-4640
-4445
-4257
-4090
-3935
-3763
-3447
-2978
-2611
-2499
-2501
-2485
-2509
-2611
-2654
-2527
-2332
-2190
-2114
-2100
-2122
-2099
-2044
-2054
-2114
-2134
-2110
-2064
-1931
-1683
-1441
-1316
-1280
-1308
-1419
-1527
-1571
-1524
-1053
-60
497
-166
-1164
-1342
-972
-786
-810
-837
-864
-903
-955
-1004
-1012
-992
-953
-886
-805
-686
-496
-314
-147
112
354
437
549
809
987
994
998
1000
923
868
908
946
921
915
954
935
872
882
877
726
530
364
140
-78
-194
-330
-525
-608
-604
-645
-615
-461
-213
476
1515
1664
463
-585
-400
219
425
431
556
725
819
838
822
799
780
783
815
849
878
907
930
966
1024
1060
1068
1107
1158
1135
1056
1034
1065
1028
930
883
868
794
682
552
383
237
168
106
32
16
15
-52
-90
-26
35
63
107
123
168
336
463
667
1365
1956
1288
-123
-737
-411
-36
68
99
215
385
451
488
667
811
780
810
965
1014
944
938
1012
1018
854
571
321
188
148
147
113
11
-89
-177
-419
-894
-1414
-1760
-1872
-1796
-1658
-1563
-1474
-1310
-1072
-858
-742
-619
-353
-71
54
112
194
268
392
635
1045
1748
2430
2344
1520
913
997
1361
1636
1857
2094
2276
2346
2336
2265
2112
1893
1640
1385
1177
1006
845
707
548
362
239
-244
-1855
-4310
-6381
-7610
-8414
-8940
-9138
-9178
-9111
-8817
-8342
-7829
-7279
-6619
-5871
-5124
-4409
-3743
-3148
-2589
-2079
-1668
-1467
-1998
-3819
-5985
-6050
-3324
-194
2505
6873
11281
11006
7729
7124
8863
9450
8848
7983
6771
5870
5690
5546
5211
5030
5005
4988
4950
4885
4846
4792
4508
4003
3610
3451
3075
2001
500
-716
-1480
-2214
-3146
-4085
-4853
-5510
-6158
-6845
-7631
-8343
-8488
-7826
-6630
-5273
-4027
-2952
-1842
-719
72
500
805
1020
1116
1119
1006
881
931
1263
1922
2461
2061
906
219
415
797
940
991
1041
1055
1030
960
849
735
667
698
838
1046
1308
1615
1919
2144
2210
2093
1879
1664
1487
1371
1288
1161
981
796
595
391
334
482
666
830
997
791
-23
-795
-913
-695
-577
-495
-344
-192
-123
-125
-83
19
76
83
88
241
800
1305
756
-584
-1316
-1103
-741
-583
-498
-493
-541
-523
-465
-447
-453
-449
-471
-565
-691
-769
-804
-814
-760
-626
-480
-407
-400
-389
-413
-609
-948
-1243
-1421
-1554
-1683
-1794
-1888
-1980
-2058
-2104
-2137
-2179
-2224
-2222
-2112
-1903
-1630
-1294
-973
-755
-531
-274
-146
-65
120
317
788
1747
2154
1146
-95
-263
133
301
337
380
377
394
420
401
419
503
576
622
645
617
563
552
600
652
672
689
723
748
743
711
678
691
751
792
760
694
683
734
738
640
507
424
414
412
360
301
272
226
154
107
83
47
-11
-51
-48
-51
68
553
1055
836
27
-470
-345
-41
75
22
-20
18
27
-35
-90
-177
-365
-509
-478
-391
-336
-244
-119
-10
136
341
542
696
769
739
680
643
568
455
387
356
296
243
251
253
179
82
-12
-130
-205
-180
-146
-180
-237
-267
-237
-127
-27
-72
-193
-191
-37
271
838
1255
741
-442
-1104
-916
-530
-285
-74
127
281
361
342
266
185
127
113
93
33
36
120
156
152
190
203
146
120
138
95
-22
-157
-308
-454
-528
-525
-505
-488
-446
-366
-303
-308
-343
-380
-496
-712
-901
-1031
-1204
-1400
-1503
-1520
-1541
-1595
-1621
-1604
-1495
-936
127
627
-194
-1218
-1193
-563
-158
40
194
278
357
477
575
629
647
629
577
527
565
662
666
580
539
555
586
624
650
687
711
609
433
341
299
219
156
127
85
70
119
155
155
219
354
451
485
474
383
250
156
68
-21
-45
-61
-110
-100
-8
330
1069
1471
690
-515
-862
-536
-344
-331
-303
-298
-300
-310
-357
-317
-181
-133
-140
-58
28
64
162
283
305
272
232
153
74
21
-73
-190
-252
-287
-334
-328
-257
-187
-114
-17
46
48
73
222
497
769
935
1028
1018
767
300
-151
-439
-599
-704
-747
-741
-750
-575
43
543
55
-976
-1337
-938
-511
-275
-123
-113
-153
-50
110
151
109
75
104
251
445
563
672
877
1096
1210
1216
1149
1029
872
695
548
444
330
217
170
149
88
60
124
174
127
36
-58
-165
-262
-328
-389
-456
-492
-493
-496
-479
-427
-410
-406
-324
-134
345
1032
966
-377
-1785
-2072
-1692
-1429
-1325
-1299
-1342
-1324
-1221
-1123
-1022
-872
-660
-392
-102
125
223
276
445
679
807
852
870
789
718
787
733
437
329
480
373
19
-37
193
257
121
64
144
232
265
271
279
277
266
276
294
249
176
232
414
549
563
515
689
1411
2102
1628
286
-466
-347
-195
-239
-220
-196
-245
-273
-278
-291
-286
-287
-338
-403
-406
-348
-308
-316
-313
-269
-224
-198
-163
-99
-45
-42
-68
-103
-172
-264
-333
-388
-469
-568
-669
-786
-890
-907
-860
-841
-822
-739
-631
-510
-353
-258
-266
-206
-70
-71
-151
-85
135
607
1307
1484
716
-57
-15
364
513
537
564
513
347
185
161
118
-14
199
721
996
1556
2825
2994
997
-951
-1177
-874
-1000
-1083
-979
-935
-883
-759
-609
-418
-220
-82
-9
1
-67
-178
-239
-200
-117
-55
-8
