# session 5
59
-58
303
81
-1312
-2542
-2516
-1753
-1147
-1280
-2149
-2800
-2594
-2118
-1915
-1816
-1718
-1706
-1706
-1650
-1576
-1507
-1451
-1415
-1369
-1300
-1238
-1189
-1123
-1050
-1000
-949
-868
-813
-810
-794
-760
-768
-815
-850
-875
-896
-896
-876
-869
-882
-884
-871
-863
-864
-856
-822
-756
-685
-635
-592
-545
-504
-463
-390
-294
-234
-201
-135
-54
6
81
164
207
238
369
783
1378
1466
701
-94
-115
284
520
619
709
749
776
828
872
925
1000
1040
1029
1029
1066
1109
1152
1206
1239
1227
1204
1193
1170
1132
1098
1052
976
889
809
736
671
621
580
551
534
505
438
362
316
286
247
208
168
104
34
0
-9
-25
-34
-40
-77
-144
-202
-211
-203
-260
-321
-284
-239
-61
573
1120
598
-567
-1071
-773
-417
-249
-149
-112
-118
-122
-138
-151
-136
-116
-114
-132
-145
-124
-85
-62
-53
-48
-49
-51
-52
-59
-74
-100
-150
-224
-296
-341
-367
-394
-414
-415
-406
-405
-413
-429
-428
-390
-341
-331
-355
-358
-321
-313
-366
-381
-297
-229
-263
-310
-310
-310
-308
-271
-258
-274
-240
-199
-64
521
1223
951
-231
-916
-665
-323
-238
-154
-102
-136
-108
-59
-100
-107
1
65
21
17
96
152
179
219
228
208
228
267
274
274
270
228
170
125
70
-3
-51
-62
-59
-68
-94
-97
-60
-38
-55
-44
11
35
12
-10
-21
-35
-49
-51
-31
-1
10
5
2
-4
-7
1
-7
-33
-44
-45
86
539
927
548
-374
-863
-667
-335
-165
-67
0
27
56
113
174
206
223
251
272
263
254
268
282
289
306
327
332
325
313
299
280
233
148
75
40
-3
-58
-64
-42
-54
-76
-75
-73
-72
-71
-93
-112
-104
-106
-120
-107
-94
-103
-100
-81
-71
-66
-75
-110
-142
-158
-173
-190
-214
-226
-227
-182
209
990
1258
368
-723
-914
-530
-265
-145
-63
-46
-32
9
29
48
89
116
121
135
164
195
233
285
335
366
382
381
354
317
293
267
211
129
52
-12
-69
-110
-126
-133
-141
-130
-108
-110
-124
-125
-123
-132
-148
-160
-150
-125
-123
-154
-187
-192
-170
-153
-161
-164
-148
-142
-145
-133
-136
-151
-142
-126
123
865
1428
833
-374
-830
-500
-226
-175
-118
-81
-90
-77
-57
-60
-63
-49
-24
-1
9
15
41
79
107
131
166
192
191
191
190
154
89
36
-1
-47
-93
-116
-118
-116
-114
-104
-90
-86
-90
-95
-107
-126
-134
-132
-136
-144
-151
-160
-169
-172
-174
-175
-165
-158
-174
-187
-181
-181
-185
-164
-152
-163
-148
-107
62
536
947
591
-320
-821
-647
-316
-146
-87
-67
-52
-29
-10
6
24
48
86
129
159
179
195
212
243
286
325
353
370
385
405
408
384
355
314
238
158
110
74
40
29
31
12
-18
-26
-25
-34
-35
-21
-7
0
-14
-54
-82
-84
-94
-109
-103
-97
-110
-108
-84
-77
-86
-81
-77
-104
-123
-105
-110
-136
-127
-102
160
939
1531
877
-438
-919
-541
-246
-198
-135
-98
-108
-81
-55
-52
-20
16
27
55
94
107
121
158
201
248
286
288
284
293
284
240
180
114
37
-41
-100
-128
-138
-148
-159
-157
-142
-129
-123
-109
-87
-83
-91
-84
-75
-89
-103
-89
-82
-102
-118
-116
-121
-134
-133
-121
-119
-120
-104
-78
-58
-53
-65
-78
-82
-84
-76
-69
-92
-106
-85
-8
345
949
1060
261
-616
-739
-415
-199
-116
-66
-62
-68
-58
-55
-57
-41
-16
3
20
41
61
76
94
127
169
198
204
204
211
217
202
164
109
38
-30
-72
-105
-146
-173
-175
-167
-161
-164
-174
-180
-177
-179
-183
-178
-166
-153
-145
-147
-144
-116
-83
-68
-56
-39
-24
1
31
35
27
33
37
33
54
89
91
78
82
73
43
48
61
35
28
75
266
784
1261
891
-157
-767
-586
-238
-87
-22
20
48
90
119
117
112
114
121
136
142
144
163
197
226
247
259
273
290
284
255
224
185
113
20
-65
-130
-184
-232
-257
-263
-265
-261
-248
-235
-214
-193
-205
-231
-229
-219
-229
-234
-221
-225
-242
-230
-206
-213
-228
-220
-216
-219
-201
-185
-200
-210
-192
-168
-144
-114
-105
-114
-116
-111
-97
-76
-86
-101
-69
-4
285
973
1384
704
-423
-778
-436
-157
-74
-18
10
26
48
51
82
157
188
166
182
253
309
326
329
334
330
329
356
379
384
425
449
363
260
211
165
161
149
-16
-175
-113
98
276
173
-121
-17
441
540
320
295
326
184
103
96
-49
-93
146
236
61
20
-52
-334
-203
220
-12
-414
-24
367
81
-79
-4
-462
-1190
-1425
-1299
-1295
-1235
-558
500
794
13
-699
-664
-444
-362
-125
174
210
195
487
748
532
387
680
472
-250
-98
465
94
-252
75
-130
-396
431
964
375
276
865
627
-218
-372
63
299
196
-69
-261
-87
289
392
305
371
402
197
34
24
-9
-21
27
-65
-218
-185
-238
-566
-618
-303
-312
-515
-380
-497
-1237
-1644
-1418
-1543
-2203
-2499
-2207
-1809
-1308
-481
279
320
-355
-962
-824
-215
138
102
-30
-242
-553
-741
-802
-986
-1200
-1098
-703
-372
-301
-269
114
752
1122
1250
1597
2047
2296
2581
2946
2918
2478
2159
2092
1956
1681
1398
1035
606
367
307
177
51
84
142
152
178
171
170
278
336
169
-37
-53
-14
-81
10
346
405
112
27
93
-1
23
33
-446
-921
-737
-199
254
418
58
-489
-518
-56
301
275
31
-161
-256
-449
-724
-788
-678
-766
-1038
-1098
-859
-618
-567
-628
-653
-512
-108
444
824
975
1163
1401
1457
1361
1240
1049
750
384
27
-240
-445
-585
-577
-521
-548
-527
-414
-396
-448
-433
-472
-671
-886
-1006
-1069
-1075
-1004
-921
-896
-884
-732
-440
-315
-547
-807
-811
-813
-783
-151
851
1062
203
-735
-960
-575
-110
97
189
337
386
310
315
397
397
310
226
200
275
506
802
946
889
691
429
353
504
635
906
1352
1231
489
211
650
1032
1016
609
-150
-774
-899
-826
-790
-626
-342
-179
-114
7
-6
-224
-149
211
-164
-1466
-2340
-2090
-1565
-1401
-1353
-1163
-786
-462
-650
-1074
-934
-426
-318
-449
-323
-119
35
422
920
1099
1100
1294
1462
1300
1062
865
470
155
333
527
316
309
778
1014
915
1095
1392
1291
1077
1134
1213
1093
996
1074
1066
797
555
429
-10
-714
-1010
-761
-418
-128
135
197
91
114
193
1
-309
-414
-522
-812
-912
-722
-769
-1201
-1453
-1234
-889
-725
-645
-242
623
973
-72
-1368
-1472
-967
-836
-868
-757
-523
-76
370
475
418
417
320
159
146
173
130
112
11
-195
-112
265
440
473
749
982
791
560
684
835
684
459
302
6
-330
-340
-150
-182
-471
-744
-754
-462
-167
-99
-99
-59
-68
-65
-3
-24
-190
-387
-474
-484
-561
-576
-376
-299
-462
-404
-65
343
938
1260
509
-708
-1113
-766
-463
-348
-249
-220
-240
-96
189
287
178
205
358
371
332
312
188
181
464
681
681
727
885
1106
1288
1171
862
765
802
654
410
276
147
-188
-599
-591
42
737
742
107
-328
-192
-120
-449
-580
-349
-360
-510
-223
155
140
127
285
105
-513
-1101
-1402
-1492
-1265
-433
510
378
-718
-1225
-688
-137
-68
-245
-683
-1321
-1737
-1802
-1662
-1207
-390
369
687
677
710
918
1029
871
667
527
296
124
359
764
831
800
1066
1206
923
689
667
621
716
989
1000
758
605
281
-333
-548
-294
-413
-849
-805
-440
-374
-501
-501
-384
-238
-169
-179
-100
8
-50
-136
-41
276
764
919
181
-963
-1515
-1286
-873
-851
-1041
-851
-517
-566
-515
-86
-57
-486
-553
-367
-525
-665
-289
170
249
246
462
647
594
488
402
143
-195
-285
-213
-261
-309
-202
-148
-247
-360
-459
-490
-397
-381
-432
-185
248
466
613
944
1265
1342
1199
1050
1052
1012
770
557
477
374
287
329
544
1034
1492
1183
129
-708
-813
-628
-566
-477
-235
-122
-218
-146
152
294
260
279
229
9
-120
-31
27
-104
-223
-159
-11
168
351
393
352
357
270
93
-55
-351
-662
-475
-17
68
-98
-160
-199
-245
-217
-136
10
-8
-331
-345
88
-1
-577
-583
-352
-635
-686
-157
26
-183
-145
56
505
1312
1488
585
-250
-348
-190
-134
-256
-456
-420
-260
-279
-258
-119
-219
-344
69
649
535
-15
60
717
857
344
124
373
468
477
791
1049
934
844
897
677
298
190
-29
-679
-819
-34
422
13
-205
103
113
-359
-640
-476
-368
-578
-656
-400
-322
-527
-526
-429
-669
-861
-647
-571
-753
-454
167
-51
-1140
-1820
-1563
-1074
-873
-854
-875
-839
-699
-640
-798
-1061
-1313
-1442
-1288
-946
-739
-748
-762
-685
-662
-747
-704
-317
183
430
554
818
1108
1444
1971
2250
1842
1202
933
877
672
440
430
563
611
525
425
347
220
117
-23
-499
-1028
-1006
-671
-461
-136
398
834
1135
1322
1464
2021
2900
3065
2196
1274
975
991
946
843
706
440
74
-203
-302
-298
-297
-342
-317
-193
-170
-174
15
91
-84
-11
78
-538
-1099
-526
201
-166
-778
-573
-170
-311
-589
-438
-74
-35
-119
253
599
294
170
658
619
-35
-79
319
168
-296
-458
-402
-355
-374
-522
-751
-898
-850
-459
389
1204
1145
359
-90
135
461
593
643
638
588
602
778
1066
1166
961
666
-194
-2276
-4166
-3608
-1300
121
124
-65
-46
-17
63
138
218
424
458
98
-337
-823
-1674
-2524
-2785
-2718
-2753
-2659
-2216
-1704
-1315
-947
-532
17
700
925
134
-980
-1262
-854
-609
-437
125
692
765
673
923
1398
1548
1167
776
803
859
601
396
531
811
1090
1375
1546
1518
1450
1465
1452
1316
1159
1070
975
794
594
443
317
240
245
253
231
255
306
231
-69
-459
-709
-809
-872
-851
-726
-617
-561
-506
-385
-157
10
-99
-355
-488
-498
-507
-490
-349
-152
-20
250
870
1279
733
-308
-708
-374
-84
-98
-169
-296
-493
-571
-593
-723
-772
-597
-386
-258
-201
-191
-146
-94
-125
-171
-232
-228
77
304
170
634
1787
1880
754
193
367
249
1
22
40
38
208
390
388
248
94
-21
-103
-104
1
112
175
247
308
314
329
355
281
113
-7
-56
-89
132
807
1272
733
-309
-785
-590
-321
-328
-485
-486
-333
-281
-315
-279
-249
-316
-420
-515
-572
-554
-474
-387
-316
-219
-102
-54
-94
-164
-228
-227
-159
-195
-402
-598
-683
-737
-778
-795
-798
-655
-356
-152
-69
83
179
102
112
292
385
331
329
542
934
1225
1189
959
718
502
573
1107
1441
858
-140
-596
-400
-66
17
-28
20
-165
-351
503
1592
960
-601
-1101
-942
-1020
-846
-338
-115
-133
17
302
436
327
137
15
-23
-9
-29
-128
-166
-62
-2
-131
-269
-245
-205
-204
-92
-142
-473
-398
-199
-753
-414
1986
3119
1106
-665
-442
-259
-572
-405
-199
-201
394
1328
1287
204
-590
-497
-169
-36
56
97
35
5
-61
-306
-489
-372
-154
-60
-47
-44
-68
-136
-209
-179
-26
97
120
130
160
263
444
459
187
-90
-163
-145
-205
-373
-508
-485
-424
-456
-492
-440
-370
-367
-418
-427
-363
-323
-369
-416
-372
-285
-268
-282
-213
-46
332
953
1202
536
-420
-764
-558
-249
14
96
-24
-85
-45
-58
3
190
266
228
261
309
293
283
299
336
414
483
490
475
493
514
490
436
363
266
201
185
128
42
30
61
44
20
51
67
35
75
197
209
44
-200
-494
-766
-837
-712
-566
-468
-403
-166
556
1268
872
-385
-1044
-787
-461
-343
-224
-157
-147
-73
12
58
128
186
165
183
315
366
243
205
347
415
332
293
343
373
369
363
347
302
229
144
53
-45
-102
-129
-237
-388
-377
-221
-148
-146
-20
171
205
97
17
-30
-127
-217
-233
-246
-259
-188
4
461
1118
1221
394
-426
-437
-120
-21
-10
-8
-85
-107
-24
24
39
82
61
-53
-131
-154
-228
-351
-427
-444
-478
-586
-728
-770
-632
-415
-282
-224
-155
-120
-181
-249
-251
-248
-253
-229
-222
-215
-126
-63
-127
-177
-137
-126
-148
-150
-157
-108
-10
-27
-86
1
171
601
1428
1731
821
-158
-154
173
179
195
361
447
409
293
232
395
545
339
36
26
133
89
41
89
105
118
160
119
106
225
182
-39
15
335
483
402
258
71
-105
-196
-249
-294
-295
-277
-283
-286
-259
-246
-263
-274
-296
-353
-375
-348
-363
-376
-286
-140
143
629
785
143
-667
-812
-492
-303
-283
-211
-117
-108
-87
61
229
278
246
206
171
134
71
3
-30
-89
-173
-125
34
87
41
23
-64
-272
-406
-377
-319
-303
-265
-144
31
152
191
284
477
553
402
263
274
256
158
115
82
-46
-185
-206
-147
-88
133
678
1077
667
-231
-695
-574
-353
-223
-139
-146
-225
-266
-253
-204
-88
101
285
389
418
410
375
321
247
177
187
266
295
267
273
289
256
199
121
29
-15
-32
-80
-112
-101
-122
-160
-157
-163
-197
-181
-148
-167
-149
-37
66
74
-9
-102
-94
1
268
921
1421
793
-540
-1167
-938
-698
-642
-589
-615
-642
-529
-430
-443
-428
-352
-295
-245
-162
-61
14
37
82
203
293
301
311
320
276
234
213
146
60
28
-9
-115
-183
-158
-188
-279
-253
-150
-134
-116
0
73
39
28
63
69
83
131
165
207
250
324
786
1600
1725
659
-440
-567
-222
-94
-102
-79
-99
-147
-137
-106
-112
-113
-71
-43
-60
-57
-8
22
13
28
80
104
70
49
93
144
153
172
190
109
-28
-91
-103
-144
-184
-190
-203
-221
-208
-178
-154
-127
-97
-66
-47
-50
-55
-60
-81
-86
-72
6
408
1045
1123
343
-400
-441
-175
-53
-48
-61
