# session 20
19
26
-6
99
307
361
271
225
228
212
193
186
183
178
169
159
150
140
140
147
144
130
115
92
70
69
79
75
61
50
43
41
43
39
22
6
10
20
13
0
3
9
1
-2
7
7
0
-1
-5
-14
-11
-4
-3
-1
-2
-25
-50
-56
-49
-53
-68
-80
-99
-119
-86
6
236
768
1192
672
-531
-1134
-814
-395
-276
-225
-164
-144
-130
-120
-135
-170
-209
-226
-241
-302
-350
-320
-267
-226
-168
-122
-102
-57
10
54
94
152
201
233
264
291
305
303
280
249
212
151
91
66
53
20
1
7
6
3
23
36
25
29
53
59
39
21
17
5
-18
-28
-24
-40
-73
-80
-70
-79
-98
-103
-101
-100
-102
-103
-84
-54
-43
-49
-40
-12
3
-13
-27
-10
2
-1
22
59
59
55
81
84
45
19
20
25
25
17
-3
-44
-107
-129
-72
85
510
1041
884
-160
-1034
-999
-561
-295
-174
-108
-100
-87
-55
-42
-33
-14
-2
12
34
49
52
57
74
100
122
134
151
184
214
230
247
277
310
336
356
364
355
333
296
242
185
129
75
37
10
-25
-55
-64
-99
-177
-208
-171
-155
-149
-105
-132
-270
-348
-288
-201
-160
-150
-144
-116
-81
-72
-75
-80
-94
-96
-80
-79
-84
-69
-56
-56
-44
-17
3
3
1
17
42
63
88
104
88
67
65
61
65
85
79
65
76
63
52
129
341
824
1409
1269
140
-852
-848
-381
-112
-5
56
56
73
109
44
-105
-183
-143
-70
-66
-167
-315
-421
-483
-563
-644
-621
-466
-285
-168
-95
-25
40
95
155
223
262
257
245
240
203
137
80
31
-19
-36
-21
-18
-32
-33
-22
-11
0
10
13
21
27
18
9
17
24
17
7
5
5
-1
-16
-28
-31
-25
-17
-16
-26
-32
-27
-27
-43
-54
-43
-26
-20
-17
0
19
10
-26
-53
-51
-37
-46
-59
-41
-46
-87
-57
68
386
1050
1472
744
-599
-1115
-706
-320
-225
-161
-114
-118
-114
-107
-100
-79
-73
-71
-40
-13
-18
-16
3
16
35
73
102
121
159
213
257
292
327
357
382
399
400
370
308
232
153
77
20
-16
-46
-73
-84
-88
-96
-100
-93
-83
-80
-84
-84
-71
-62
-76
-92
-87
-76
-81
-94
-96
-98
-116
-128
-114
-104
-113
-116
-108
-110
-114
-115
-132
-147
-128
-114
-129
-114
-44
0
-25
-65
-73
-59
-54
-72
-88
-78
-68
-66
-28
61
368
1058
1496
781
-541
-1047
-635
-242
-159
-122
-79
-70
-64
-52
-29
-7
-7
2
25
26
28
56
73
91
138
168
167
183
207
222
270
341
364
359
393
429
404
348
305
254
181
88
-13
-74
-81
-98
-149
-182
-169
-155
-178
-215
-213
-178
-168
-192
-216
-225
-234
-244
-248
-251
-257
-259
-243
-213
-192
-194
-206
-214
-208
-184
-156
-146
-149
-137
-108
-87
-81
-80
-87
-96
-87
-79
-87
-58
-22
-74
-121
-63
140
750
1558
1399
10
-1059
-902
-387
-205
-138
-74
-83
-92
-77
-71
-43
-3
9
12
30
45
47
51
70
92
108
129
161
193
215
236
266
302
349
406
437
417
382
355
295
209
156
115
41
-29
-52
-46
-42
-52
-70
-73
-63
-66
-84
-82
-52
-35
-52
-69
-70
-90
-126
-128
-103
-103
-124
-136
-151
-176
-179
-168
-177
-189
-174
-153
-149
-153
-146
-118
-81
-61
-71
-96
-100
-76
-77
-102
-83
-65
-110
-112
-1
374
1238
1883
1097
-531
-1158
-639
-209
-176
-146
-112
-136
-118
-79
-81
-80
-54
-37
-41
-41
-19
10
29
41
56
79
106
131
156
191
235
273
301
328
353
361
344
316
276
205
113
31
-24
-60
-85
-106
-120
-119
-109
-99
-89
-85
-91
-89
-75
-76
-86
-72
-48
-54
-68
-61
-53
-59
-65
-66
-69
-75
-78
-75
-79
-96
-92
-64
-49
-41
-21
-14
-27
-20
-9
-31
-57
-54
-43
-29
-29
-65
-72
-18
152
743
1526
1325
-86
-1127
-895
-327
-168
-143
-86
-102
-122
-93
-85
-92
-83
-81
-84
-81
-91
-95
-70
-50
-47
-37
-43
-54
-20
34
64
76
81
99
141
155
137
132
113
62
16
-33
-97
-127
-133
-161
-183
-168
-155
-168
-174
-165
-167
-172
-146
-119
-136
-158
-139
-125
-159
-192
-172
-125
-114
-143
-165
-170
-178
-173
-137
-103
-93
-96
-98
-94
-90
-90
-73
-34
-11
-3
17
31
22
10
10
22
33
32
43
59
46
47
117
307
764
1271
1036
-53
-867
-708
-198
28
65
105
149
188
207
202
208
227
232
234
249
276
308
331
343
360
378
384
404
454
499
517
537
574
606
622
628
635
650
656
633
592
550
506
462
431
410
392
373
340
281
204
129
66
12
-44
-107
-168
-223
-278
-334
-384
-427
-464
-501
-543
-587
-628
-662
-694
-730
-771
-801
-819
-840
-865
-883
-904
-925
-921
-894
-875
-857
-807
-736
-692
-680
-659
-616
-584
-578
-559
-483
-374
-302
-260
-197
-157
-171
-144
-34
160
590
1064
844
-152
-889
-753
-274
0
108
167
191
216
241
247
262
296
323
348
376
401
420
422
397
370
363
361
359
370
389
398
405
427
450
452
446
456
473
465
421
368
319
263
214
189
171
146
134
134
128
124
129
126
113
104
95
80
74
75
66
45
36
36
20
-5
-9
-4
-16
-25
-16
-17
-33
-35
-30
-40
-51
-46
-38
-31
-16
-9
-27
-59
-90
-97
-82
-81
-96
-92
-101
-132
-97
43
388
1000
1285
520
-709
-1155
-780
-397
-261
-195
-172
-176
-149
-123
-124
-121
-110
-111
-108
-81
-55
-59
-66
-42
-10
3
13
35
63
100
143
170
181
199
216
216
213
202
158
89
14
-58
-102
-109
-130
-186
-217
-198
-177
-177
-168
-154
-163
-178
-162
-145
-155
-167
-168
-167
-161
-158
-170
-180
-177
-169
-158
-149
-162
-173
-148
-121
-131
-133
-99
-78
-89
-104
-115
-138
-153
-142
-131
-116
-85
-99
-144
-110
90
683
1553
1587
228
-1107
-1160
-597
-295
-180
-118
-136
-110
-27
9
-3
-14
-11
13
50
73
76
89
136
169
157
145
198
353
565
680
667
734
914
950
805
724
703
573
423
339
204
48
8
-7
-84
-109
-66
-57
-79
-82
-77
-75
-81
-97
-72
-9
-3
-66
-126
-138
-71
-27
-143
-231
-107
-38
-169
-212
-119
-135
-217
-208
-196
-196
-128
-138
-267
-270
-195
-256
-279
-196
-257
-354
-178
303
1002
1358
530
-933
-1480
-1020
-615
-466
-319
-313
-384
-336
-299
-316
-274
-263
-319
-297
-204
-148
-112
-42
42
92
98
121
215
319
342
313
352
474
536
447
316
238
132
23
68
140
76
-32
-249
-465
-238
77
-163
-462
-337
-252
-294
-161
-79
-207
-267
-192
-173
-252
-258
-119
-98
-248
-192
30
14
-55
128
251
168
224
429
481
413
420
469
456
410
418
440
347
210
227
301
481
1256
2174
1801
334
-436
-159
107
109
125
67
-42
-62
-95
-161
-165
-163
-191
-185
-195
-255
-251
-177
-150
-164
-157
-148
-125
-69
-32
-21
3
20
30
67
101
100
77
27
-30
-77
-128
-136
-68
-29
-72
-115
-127
-160
-213
-226
-163
-87
-92
-161
-214
-228
-227
-227
-236
-252
-266
-267
-261
-266
-268
-248
-232
-240
-240
-222
-228
-265
-286
-272
-246
-223
-210
-198
-181
-180
-179
-137
-37
369
1207
1584
600
-793
-1086
-550
-229
-182
-124
-95
-64
17
41
-2
-21
-5
37
72
61
42
66
100
110
120
150
181
204
239
284
313
324
334
345
354
360
349
310
252
183
116
70
42
13
-6
-11
-13
-21
-32
-43
-44
-26
0
20
24
7
-17
-29
-36
-47
-51
-41
-48
-79
-87
-68
-59
-58
-45
-44
-68
-91
-89
-74
-79
-93
-74
-74
-110
-80
17
293
1029
1634
930
-601
-1206
-690
-241
-191
-155
-108
-122
-111
-83
-75
-66
-54
-54
-51
-44
-37
-29
-14
10
33
48
65
90
113
137
166
189
198
202
217
224
203
170
136
90
34
-15
-55
-78
-80
-82
-89
-86
-83
-95
-105
-86
-61
-64
-83
-91
-86
-81
-86
-89
-74
-72
-92
-80
-50
-71
-102
-73
-48
-82
-104
-84
-70
-80
-93
-76
-66
-112
-97
66
323
856
1555
1358
-75
-1225
-1070
-476
-242
-163
-85
-90
-101
-67
-46
-52
-61
-60
-48
-33
-14
-1
2
13
54
121
185
226
230
217
271
361
339
263
292
322
240
173
164
129
116
116
-5
-143
-125
-92
-176
-212
-142
-130
-198
-210
-165
-176
-214
-164
-76
-110
-220
-201
-103
-163
-285
-229
-136
-170
-160
-72
-79
-112
-44
3
-71
-160
-168
-133
-119
-95
-11
190
691
1255
950
-364
-1368
-1265
-748
-451
-244
-64
-81
-161
-39
95
1
5
212
146
-44
124
165
-324
-626
-261
266
341
63
61
334
276
85
222
236
-36
37
378
304
-95
-188
138
332
89
-68
123
168
118
302
312
205
476
552
96
-13
318
326
125
122
143
85
73
99
99
90
152
304
377
275
158
140
127
67
23
10
-19
-42
-42
72
665
1604
1673
371
-853
-880
-451
-336
-331
-288
-310
-317
-280
-280
-285
-266
-250
-233
-212
-201
-187
-172
-168
-161
-138
-116
-101
-83
-59
-36
-16
6
27
38
40
36
14
-34
-94
-156
-205
-224
-218
-207
-200
-195
-197
-200
-198
-177
-139
-120
-127
-117
-98
-98
-69
2
36
-2
-55
-84
-94
-96
-107
-132
-159
-171
-164
-172
-189
-171
-163
-198
-183
-96
144
769
1324
801
-518
-1168
-824
-402
-268
-196
-162
-155
-65
30
20
-29
-35
15
113
242
359
402
343
255
213
205
200
199
206
233
274
293
281
272
282
299
300
299
346
404
355
206
81
24
18
36
33
4
-12
-17
-24
-17
-12
-19
-4
25
22
-5
-17
-25
-64
-106
-79
-9
3
-48
-81
-84
-87
-62
-9
-25
-113
-128
-77
87
766
1630
1300
-270
-1219
-842
-326
-261
-236
-170
-190
-189
-149
-145
-143
-115
-101
-104
-93
-65
-42
-35
-25
1
24
37
50
72
95
111
123
135
144
147
142
127
103
68
24
-25
-71
-102
-112
-115
-119
-120
-117
-115
-111
-108
-108
-110
-114
-118
-120
-121
-120
-113
-110
-114
-104
-81
-73
-88
-109
-117
-108
-104
-110
-94
-83
-106
-104
-62
141
778
1406
947
-387
-1063
-680
-227
-142
-116
-69
-75
-69
-44
-36
-26
-9
-1
5
17
29
41
56
71
88
108
126
144
164
185
203
217
228
235
239
239
232
212
176
129
84
53
25
1
-10
-14
-24
-31
-33
-42
-54
-52
-43
-51
-68
-65
-48
-46
-61
-65
-40
-10
-17
-51
-68
-63
-63
-77
-82
-72
-79
-103
-93
-20
243
782
1076
457
-620
-1056
-733
-351
-205
-148
-116
-109
-96
-79
-68
-57
-52
-51
-44
-35
-24
-6
13
25
35
51
73
91
104
115
128
141
150
157
164
166
157
136
104
66
32
6
-15
-32
-40
-42
-44
-47
-49
-48
-49
-53
-57
-60
-62
-61
-55
-57
-66
-54
-20
-1
-8
-19
-21
-18
-33
-52
-41
-39
-66
-64
-26
202
892
1468
855
-513
-1068
-620
-210
-155
-126
-86
-94
-83
-61
-58
-51
-39
-34
-25
-14
-4
8
22
36
54
72
88
105
122
136
147
155
159
162
164
163
151
124
89
51
15
-13
-29
-37
-44
-47
-47
-45
-45
-44
-44
-46
-49
-52
-54
-52
-51
-57
-60
-45
-28
-35
-64
-87
-87
-88
-99
-85
-77
-109
-121
-117
29
720
1551
1179
-325
-1149
-721
-224
-187
-185
-130
-142
-139
-107
-107
-106
-88
-82
-80
-71
-63
-53
-38
-26
-13
4
21
36
51
65
74
80
84
86
88
88
79
57
24
-11
-45
-71
-85
-93
-96
-96
-96
-98
-98
-96
-96
-98
-100
-101
-102
-100
-97
-100
-97
-77
-61
-72
-101
-118
-116
-119
-125
-113
-111
-131
-151
-168
47
736
1252
630
-594
-1018
-562
-145
-60
-45
3
27
75
303
635
763
700
700
693
527
356
299
265
216
190
175
155
142
132
115
101
96
91
86
87
89
79
52
14
-26
-61
-90
-112
-126
-133
-139
-144
-146
-148
-148
-144
-140
-139
-134
-130
-132
-125
-104
-94
-112
-141
-153
-149
-150
-154
-139
-138
-161
-165
-134
65
551
812
192
-805
-1096
-674
-289
-173
-131
-106
-101
-86
-71
-66
-55
-44
-35
-24
-11
0
11
25
41
58
74
90
105
118
127
136
144
152
158
162
163
155
130
97
66
38
16
1
-8
-13
-12
-11
-10
-10
-13
-15
-15
-18
-20
-17
-19
-25
-17
2
4
-19
-44
-47
-46
-58
-52
-43
-67
-94
-114
-1
573
1273
981
-300
-1056
-699
-201
-112
-108
-63
-66
-64
-40
-37
-36
-22
-18
-15
-4
4
10
23
37
49
61
76
90
99
104
109
114
116
116
117
119
117
102
75
42
15
-5
-19
-28
-32
-33
-32
-31
-31
-32
-34
-35
-36
-38
-36
-34
-37
-34
-17
-2
-12
-42
-61
-60
-67
-72
-59
-64
-91
-113
-105
202
925
1231
353
-812
-966
-424
-131
-122
-91
-65
-73
-56
-39
-39
-31
-21
-19
-13
-4
4
15
30
44
57
70
82
94
104
109
112
114
116
120
126
128
120
101
72
40
15
0
-11
-19
-23
-23
-23
-24
-25
-26
-29
-32
-33
-33
-31
-28
-31
-31
-16
0
-8
-37
-54
-55
-64
-69
-57
-64
-87
-103
-101
160
831
1170
383
-766
-989
-475
-152
-126
-103
-81
-89
-74
-59
-60
-54
-47
-47
-40
-28
-17
-6
