# session 10
535
809
-1061
-174
5224
7149
2052
-2491
-2322
-66
4986
13124
19263
21427
21618
19555
16966
18680
23580
26360
26626
26289
25162
24090
23615
22101
21045
21640
18377
11220
10218
15955
18294
16181
15333
15329
14289
13542
13215
12489
11834
11407
10837
10275
9832
9344
8852
8444
8039
7606
7230
6883
6469
6132
5904
5499
5184
5175
3983
535
-3077
-4610
-5008
-5918
-7113
-7928
-8559
-9362
-10246
-10796
-10696
-10124
-9581
-9316
-9215
-9139
-9097
-9127
-9112
-8939
-8804
-8740
-8365
-8034
-8603
-9418
-9230
-8543
-8290
-8134
-7769
-7517
-7426
-7455
-7771
-8228
-8484
-8514
-8406
-8148
-7857
-7718
-7688
-7603
-7484
-7446
-7482
-7528
-7510
-7367
-7028
-6218
-4984
-4368
-5041
-5859
-5605
-4780
-4217
-3836
-3454
-3145
-2845
-2511
-2182
-1783
-1456
-1458
-1483
-1098
-535
-130
243
654
958
1160
1354
1529
1672
1812
1937
2019
2068
2139
2251
2345
2396
2454
2536
2625
2725
2835
2938
3043
3142
3200
3238
3291
3332
3337
3342
3374
3411
3422
3408
3405
3410
3380
3345
3338
3284
3200
3129
3049
3359
4364
4891
3732
2101
1782
2315
2512
2454
2491
2469
2367
2320
2300
2263
2226
2181
2130
2088
2037
1991
2004
2053
2059
2024
1994
1961
1913
1860
1786
1683
1584
1504
1430
1361
1289
1208
1158
1146
1124
1073
1022
976
914
852
805
764
715
647
558
490
430
255
-63
-356
-500
-546
-548
-534
-550
-558
-539
-548
-280
542
1040
185
-1170
-1547
-1185
-1028
-1080
-1099
-1189
-1321
-1411
-1532
-1662
-1713
-1719
-1726
-1710
-1669
-1624
-1582
-1539
-1508
-1558
-1697
-1812
-1836
-1839
-1869
-1891
-1884
-1853
-1784
-1674
-1560
-1460
-1354
-1243
-1161
-1116
-1088
-1052
-1016
-1020
-1075
-1122
-1126
-1110
-1107
-1120
-1120
-1093
-1064
-1046
-1018
-987
-966
-911
-842
-830
-811
-764
-677
-130
871
1057
-161
-1280
-1155
-606
-434
-374
-239
-176
-145
-75
-17
29
90
154
222
303
382
454
526
588
629
663
706
735
732
711
665
583
507
468
435
390
362
356
365
390
406
399
393
404
411
407
406
405
394
386
394
398
394
403
412
404
401
392
370
399
434
398
371
345
439
1182
2206
1942
347
-601
-234
230
278
318
367
318
308
337
325
328
372
412
437
458
481
515
552
579
594
598
594
583
554
494
398
290
199
148
132
128
112
92
86
76
44
6
-16
-38
-69
-92
-102
-109
-110
-99
-93
-99
-109
-121
-134
-139
-161
-199
-197
-189
-227
-252
-322
-315
411
1597
1522
-118
-1260
-972
-493
-479
-475
-404
-431
-447
-432
-451
-451
-408
-369
-332
-287
-251
-222
-189
-149
-116
-107
-120
-130
-132
-152
-198
-255
-309
-349
-364
-365
-380
-400
-399
-386
-379
-375
-374
-375
-360
-324
-292
-274
-256
-230
-206
-193
-174
-133
-112
-144
-181
-189
-179
-144
-131
-165
-158
-137
-18
622
1473
1263
-40
-838
-545
-121
-37
7
65
43
28
55
72
68
69
94
117
130
172
225
241
253
242
109
-62
-93
-46
-73
-144
-201
-276
-343
-365
-399
-416
-294
-86
51
126
206
258
264
280
310
318
300
283
286
303
310
315
338
337
294
272
279
270
278
291
245
203
194
284
827
1588
1398
120
-749
-513
-32
132
182
207
172
147
145
144
166
208
249
268
261
310
391
296
36
-106
-72
-44
-43
7
59
51
0
-74
-134
-149
-147
-161
-180
-190
-202
-226
-248
-248
-246
-270
-300
-302
-302
-320
-327
-313
-300
-292
-277
-270
-270
-265
-272
-283
-251
-234
-289
-313
-295
-150
547
1433
1122
-390
-1291
-933
-452
-398
-374
-275
-239
-244
-264
-270
-214
-139
-96
-45
32
97
127
153
206
265
297
314
326
300
232
150
55
-47
-112
-131
-147
-171
-184
-187
-194
-204
-215
-226
-232
-241
-257
-274
-290
-298
-285
-269
-264
-248
-231
-242
-253
-250
-265
-268
-247
-254
-260
-284
-284
286
1444
1712
376
-880
-786
-260
-148
-132
-32
-9
-8
34
65
102
149
183
229
293
342
386
445
507
555
585
604
632
663
661
624
580
537
502
490
489
490
505
519
514
501
492
482
473
460
437
424
403
323
226
205
240
249
248
268
258
210
201
214
205
232
237
144
144
235
234
385
592
47
-961
-1166
-653
-388
-368
-295
-356
-500
-501
-473
-491
-445
-404
-391
-287
-229
-278
-167
-168
-780
-1350
-1085
-575
-495
-531
-467
-501
-575
-564
-560
-570
-517
-448
-433
-449
-442
-400
-351
-324
-313
-301
-283
-260
-239
-237
-231
-196
-174
-178
-141
-90
-105
-112
-49
2
35
81
92
93
104
201
772
1611
1463
102
-856
-593
-63
106
179
201
90
37
93
122
136
191
247
289
339
392
449
513
569
608
633
649
660
624
520
426
384
301
147
48
53
78
68
61
94
103
5
-101
-84
-24
-27
-38
-25
-35
-58
-56
-42
-44
-49
-35
-26
-48
-68
-71
-86
-88
-82
-124
-149
-147
-114
408
1408
1512
131
-1074
-933
-387
-256
-239
-173
-188
-211
-191
-188
-179
-149
-125
-102
-61
-12
42
97
151
196
222
235
244
236
199
144
83
23
-29
-58
-57
-45
-55
-85
-107
-124
-144
-155
-156
-170
-195
-218
-237
-249
-252
-257
-264
-273
-287
-281
-249
-237
-240
-238
-261
-267
-228
-256
-260
-135
-350
-988
-828
589
1470
526
-849
-1052
-536
-267
-223
-152
-112
-110
-83
-54
-34
3
49
98
154
220
293
366
433
492
528
531
526
532
528
494
439
381
334
305
294
295
293
285
282
286
283
267
256
251
243
238
237
229
213
197
180
163
147
128
103
84
70
64
77
94
76
37
11
-11
-15
21
23
-38
-83
-111
82
857
1583
1018
-422
-1067
-684
-306
-244
-220
-221
-270
-302
-297
-237
-223
-365
-461
-322
-135
-59
26
140
177
193
244
243
248
274
3
-544
-780
-586
-451
-513
-554
-544
-522
-501
-534
-555
-484
-413
-404
-377
-329
-311
-294
-263
-249
-229
-192
-172
-171
-171
-169
-149
-114
-95
-90
-82
-50
-2
9
22
105
70
-215
-394
-220
-33
-47
-25
67
233
899
1780
1539
82
-898
-652
-130
52
114
146
93
35
41
105
184
234
268
304
336
378
436
485
522
557
579
583
577
557
506
422
323
227
150
94
52
20
-7
-30
-44
-49
-56
-70
-80
-86
-93
-107
-128
-150
-160
-164
-180
-203
-217
-221
-227
-239
-256
-267
-260
-243
-236
-231
-206
-175
-176
-191
-179
-166
-160
-140
-141
-145
-118
-82
273
1206
1746
819
-592
-905
-438
-223
-238
-192
-180
-198
-162
-128
-120
-104
-82
-50
-3
36
63
103
157
200
223
243
262
270
272
267
232
164
95
56
43
36
34
44
53
56
61
56
45
47
49
26
-2
-16
-19
-12
-12
-34
-43
-19
2
-7
-32
-44
-44
-71
-127
-144
-117
-100
-88
-65
-59
-56
-37
-37
-50
-43
-66
-114
-119
-48
305
978
1170
254
-886
-1126
-708
-380
-281
-295
-376
-442
-463
-473
-460
-416
-365
-300
-215
-134
-61
26
122
206
286
362
408
433
436
349
197
108
93
66
33
26
12
-5
16
52
61
55
56
71
103
124
83
9
-11
28
64
77
79
71
67
67
66
74
95
110
115
120
136
161
171
161
154
150
142
151
139
76
42
55
175
719
1501
1438
228
-798
-720
-276
-248
-382
-347
-320
-388
-360
-229
-163
-148
-90
-40
-39
-1
114
238
332
410
466
485
478
464
434
378
297
206
123
61
16
-15
-32
-44
-58
-70
-75
-78
-90
-109
-123
-138
-164
-189
-203
-220
-244
-270
-295
-313
-322
-341
-364
-370
-368
-366
-357
-362
-395
-422
-447
-480
-483
-481
-519
-532
-522
-378
317
1190
894
-593
-1540
-1274
-813
-702
-649
-587
-595
-582
-540
-528
-517
-480
-436
-391
-345
-300
-241
-159
-64
28
110
173
212
229
224
195
147
92
40
1
-17
-23
-28
-29
-20
-6
5
13
26
41
54
63
67
65
69
99
126
124
148
228
278
272
307
416
507
506
449
445
497
486
469
675
1050
1278
1457
2093
2925
2781
1509
522
590
987
1123
1150
1171
1132
1092
1079
1067
1062
1059
1040
1016
1010
1037
1080
1111
1147
1202
1244
1266
1264
1153
875
416
-247
-945
-1387
-1572
-1690
-1775
-1798
-1793
-1771
-1723
-1652
-1560
-1484
-1450
-1418
-1369
-1315
-1259
-1210
-1175
-1119
-1039
-969
-904
-830
-759
-682
-605
-579
-587
-570
-555
-561
-540
-516
-513
-485
-428
-112
737
1373
673
-755
-1317
-904
-480
-317
-193
-93
-46
-12
16
49
95
141
190
246
296
340
387
449
535
618
656
651
615
543
452
354
223
57
-110
-266
-381
-423
-511
-742
-924
-874
-752
-713
-663
-615
-670
-703
-696
-865
-1095
-1110
-1014
-890
-667
-630
-937
-1094
-794
-453
-478
-665
-534
-79
135
-107
-321
-212
-94
-198
-106
699
1529
928
-815
-1820
-1630
-1298
-1193
-1087
-1102
-1338
-1531
-1323
-840
-804
-1370
-1642
-1108
-235
474
801
913
1659
3505
5528
6743
7312
7581
7470
7102
6616
5825
4882
4191
3553
2732
2070
1561
822
116
-188
-371
-597
-710
-865
-1188
-1421
-1472
-1484
-1393
-1112
-823
-687
-639
-625
-745
-952
-928
-557
-130
57
-101
-420
-450
-243
-314
-488
-285
179
925
1748
1377
-349
-1570
-1613
-1734
-2245
-2337
-2017
-1861
-1948
-1977
-1721
-1306
-1200
-1390
-1119
-498
-717
-1583
-1839
-1875
-2270
-1993
-1184
-1223
-1383
-576
17
-176
30
550
385
17
192
439
370
314
344
207
-166
-712
-1187
-1243
-975
-762
-656
-579
-471
-180
90
-32
-179
157
710
1071
1165
1068
1060
1065
632
121
174
458
625
955
1495
1908
1635
470
-461
-378
-652
-2013
-2706
-1931
-1126
-914
-702
-501
-446
-244
30
164
270
278
111
61
118
-36
-258
-320
-372
-392
-269
-283
-501
-523
-390
-431
-369
27
327
397
545
703
774
941
1070
899
630
521
497
423
265
87
-32
-181
-375
-357
-94
112
303
843
1730
2526
2817
2592
2193
1849
1720
2201
2998
2819
1495
545
673
1126
1404
1472
1232
778
201
-464
-893
-977
-1051
-1158
-1142
-1131
-1165
-1031
-706
-407
-218
10
152
-248
-963
-1143
-875
-894
-1029
-919
-1024
-1400
-1420
-1143
-1031
-937
-633
-289
-38
163
382
665
900
866
549
171
-86
-200
-248
-326
-473
-633
-736
-696
-388
47
214
256
550
642
631
1833
3263
2048
-779
-1596
-611
-270
-542
-403
-101
-126
-381
-483
-339
-398
-820
-1164
-1327
-1541
-1626
-1420
-1236
-1164
-901
-515
-358
-307
4
451
597
450
482
747
652
37
-419
-374
-309
-523
-729
-828
-1020
-1081
-730
-446
-610
-660
-242
131
209
246
191
-99
-368
-425
-405
-430
-475
-514
-539
-525
-453
-213
560
1985
3181
3075
2029
1322
1327
1500
1474
1231
973
1026
1326
1486
1442
1309
1022
653
415
295
199
138
39
-218
-501
-545
-397
-359
-525
-701
-770
-869
-1062
-1041
-682
-461
-591
-656
-492
-300
-212
-349
-615
-725
-783
-920
-843
-657
-804
-961
-715
-403
69
944
1178
232
-527
-374
-132
-117
-69
-134
-350
-475
-500
-508
-503
-510
-509
-430
-195
299
990
1644
2159
2500
2525
2298
2141
2113
1963
1682
1478
1374
1309
1295
1282
1188
979
737
617
495
192
-105
-484
-1163
-1477
-1062
-865
-1244
-1426
-1302
-1319
-1339
-1110
-769
-534
-587
-921
-1235
-1368
-1500
-1691
-1758
-1695
-1622
-1488
-1280
-1124
-1020
-1000
-1008
-484
585
876
-190
-1193
-990
-215
127
-124
-533
-752
-877
-1033
-1055
-931
-895
-940
-855
-509
202
1184
1976
2337
2516
2632
2569
2434
2334
2102
1776
1666
1731
1629
1402
1323
1272
1054
911
988
975
737
501
256
-151
-590
-904
-1063
-1006
-844
-789
-813
-848
-922
-930
-846
-834
-851
-843
-1041
-1317
-1224
-816
-233
486
421
-1024
-2363
-2242
-1501
-1121
-850
-476
-136
220
605
983
1488
2037
2295
2243
2139
1957
1572
1187
1010
963
899
724
467
351
352
160
-72
85
370
275
2
-15
128
75
-240
-493
-487
-476
-586
-581
-519
-553
-434
-134
-2
24
148
176
82
40
-177
-764
-1364
-1658
-1706
-1634
-1502
-1143
-428
-34
-685
-1722
-2009
-1568
-1098
-949
-1025
-1026
-880
-856
-971
-940
-800
-779
-794
-660
-451
-319
-246
-133
28
190
395
697
1026
1352
1773
2222
2434
2328
2065
1809
1601
1346
996
740
652
500
309
360
517
497
419
407
420
517
598
490
365
295
93
-8
263
535
534
477
437
495
973
1565
1341
221
-794
-1111
-1100
-1215
-1515
-1815
-1877
-1717
-1573
-1479
-1305
-1058
-798
-504
-199
10
58
-16
-135
-266
-393
-502
-521
-353
-129
-75
-65
130
360
402
335
321
424
587
688
766
960
1195
1290
1285
1320
1363
1253
935
604
506
514
366
242
379
642
964
1233
1088
774
865
1209
1602
2045
1821
633
-372
-561
-589
-686
-623
-678
-951
-1070
-1035
-1075
-1136
-1163
-1218
-1269
-1257
-1199
-1184
-1310
-1496
-1636
-1711
-1464
-981
-1164
-2048
-2275
-1559
-1012
-815
-425
-146
-330
-532
-481
-489
-689
-846
-804
-692
-675
-647
-453
-228
-66
243
760
1146
1127
1000
1178
1365
1171
1096
1430
1442
1094
1477
2419
2304
993
58
21
147
274
530
574
395
281
101
-105
75
450
513
415
485
542
390
156
5
27
148
144
129
396
577
247
-27
217
292
-300
-989
-1235
-1235
-1395
-1738
-1982
-1998
-1849
-1566
-1270
-1095
-903
-632
-483
-407
-176
55
20
-180
-305
-270
-217
-363
-621
-679
-450
46
736
1014
339
-588
-727
-323
-127
-46
245
595
898
1216
1401
1372
1319
1245
970
640
503
460
404
439
521
550
692
1020
1302
1427
1464
1386
1136
811
605
577
567
482
397
283
125
120
259
216
-37
-188
-200
-270
-352
-316
-343
-561
-610
-222
224
355
315
257
173
156
211
361
780
1066
421
-855
-1553
-1373
-1040
-992
-1097
-1154
-1101
-1022
-1000
-941
-822
-789
-787
-627
-391
-215
-5
242
372
404
489
612
577
291
-22
-110
-133
-329
