# session 3
151
178
39
159
671
1069
1197
1362
1553
1578
1509
1456
1398
1283
1044
746
558
456
430
700
1126
1173
871
683
575
384
449
922
1314
1341
1322
1423
1388
1153
912
703
516
463
478
409
342
366
361
272
364
934
1599
1496
637
-22
-73
24
-71
-212
-125
98
-1
-545
-1104
-1252
-972
-751
-995
-1176
-755
-437
-808
-1158
-1022
-908
-999
-996
-836
-578
-328
-303
-396
-358
-379
-575
-571
-297
-178
-255
-235
-174
-162
-85
-104
-250
-167
-162
-726
-1061
-566
-231
-510
-543
-235
-169
-105
274
565
588
667
897
1090
1113
942
677
500
544
822
962
375
-747
-1394
-1193
-743
-415
-106
190
374
294
-41
-136
134
99
-317
-714
-1595
-2985
-3314
-2087
-884
-593
-617
-571
-561
-568
-482
-236
40
67
-88
-108
-7
28
72
232
392
381
154
-112
-176
-123
-158
-156
19
199
317
437
478
438
424
345
187
303
761
993
784
652
717
574
299
176
199
631
1529
1961
1357
561
434
789
1071
1018
714
432
325
310
335
417
429
318
330
581
813
859
811
749
738
773
806
999
1297
1194
723
478
386
135
170
676
943
624
136
-225
-402
-365
-324
-466
-627
-697
-785
-910
-1039
-1182
-1253
-1207
-1124
-1082
-1228
-1612
-1890
-1823
-1721
-1767
-1707
-1461
-1208
-1039
-979
-957
-870
-727
-406
92
173
-401
-922
-1050
-1122
-1043
-622
-268
-200
-160
-73
-9
18
-94
-256
-193
11
74
52
121
231
305
401
541
650
694
719
725
712
726
746
761
804
708
372
278
808
1454
1637
1454
1068
579
384
483
368
198
517
1029
1178
1039
826
551
243
-68
-366
-653
-889
-818
-416
-243
-472
-543
-359
-225
85
467
111
-835
-1279
-978
-382
332
922
1090
1008
914
686
306
46
-21
-136
-377
-515
-457
-356
-251
-67
102
177
237
276
257
291
419
544
639
754
922
1042
850
337
-86
-217
-296
-395
-304
-92
-98
-344
-584
-801
-1109
-1376
-1428
-1327
-1187
-977
-656
-363
-296
-388
-423
-401
-448
-577
-712
-753
-586
-35
817
1194
536
-353
-495
-212
-143
-179
-112
-92
-257
-545
-729
-654
-442
-158
235
414
140
-135
-18
243
380
396
314
236
307
511
751
917
918
808
625
293
-64
-194
-143
-81
28
184
223
140
129
248
352
353
315
307
311
292
265
249
246
249
245
228
200
164
129
85
23
-9
8
141
571
1083
958
91
-678
-817
-637
-515
-506
-536
-493
-352
-238
-215
-225
-243
-296
-382
-484
-561
-557
-447
-271
-105
7
90
153
147
78
27
23
-4
-90
-138
-102
-82
-69
33
106
29
-28
55
138
91
-44
-141
-136
-111
-115
-70
37
135
224
310
306
215
195
251
232
223
376
507
431
264
254
731
1563
1691
583
-665
-1027
-831
-599
-345
-128
-92
-186
-268
-270
-237
-252
-290
-261
-166
-71
-17
-3
36
144
226
196
133
115
118
133
162
170
173
213
236
190
129
96
38
-58
-131
-207
-343
-462
-477
-438
-401
-360
-318
-268
-235
-319
-495
-582
-520
-402
-296
-244
-234
-186
-142
-180
-239
-255
-28
688
1308
835
-353
-928
-686
-372
-260
-204
-154
-86
-23
-17
-19
-13
-53
-68
31
169
297
454
645
900
1172
1202
916
653
590
510
379
416
513
365
132
191
390
322
-8
-340
-541
-587
-561
-558
-500
-337
-211
-186
-163
-101
-27
17
16
32
77
41
-60
-75
-20
-20
-55
-58
-27
15
145
557
1086
1031
213
-538
-620
-349
-164
-162
-268
-336
-295
-230
-183
-122
-89
-128
-179
-178
-150
-126
-96
-71
-94
-139
-154
-170
-220
-261
-269
-275
-266
-214
-135
-46
0
-25
-15
72
135
184
195
75
-31
-141
-412
-449
-388
-949
-978
665
1703
621
-237
284
655
581
702
701
430
270
201
75
150
696
1186
659
-614
-1266
-932
-436
-217
-135
-111
-108
-68
-35
-44
-34
5
17
8
29
48
8
-23
28
99
106
75
69
88
98
95
105
125
133
115
101
130
177
208
237
245
178
63
-16
-22
9
-17
-123
-189
-149
-103
-94
-47
5
-30
-122
-230
-350
-445
-543
-672
-689
-581
-508
-194
612
1102
473
-514
-763
-468
-237
-100
6
0
-67
-110
-120
-81
-16
23
62
168
371
666
928
975
778
431
69
-84
29
120
7
-146
-230
-319
-409
-423
-330
-146
28
55
-49
-161
-237
-282
-286
-250
-175
-67
9
18
6
12
23
27
25
41
74
72
47
65
85
51
36
82
276
808
1343
1119
275
-198
-56
118
93
46
30
17
17
32
45
5
-94
-185
-242
-268
-267
-289
-311
-255
-223
-352
-494
-469
-391
-397
-407
-335
-222
-102
-12
22
63
143
195
207
210
170
104
63
7
-76
-89
-17
26
13
66
243
431
492
383
166
43
151
293
166
-150
-313
-279
-133
409
1270
1405
362
-733
-967
-707
-441
-251
-207
-229
-150
-61
-80
-112
-70
8
40
-26
-93
-7
124
89
25
113
153
49
31
99
86
72
83
15
48
302
436
310
245
289
172
-47
-109
-55
-59
-101
-91
-69
-107
-177
-230
-276
-329
-393
-456
-483
-492
-506
-466
-400
-425
-479
-442
-237
407
1331
1434
305
-763
-792
-367
-151
-68
-13
-14
-30
-66
-113
-73
29
98
145
176
260
532
792
678
342
174
171
158
113
85
102
142
171
209
205
84
-28
-19
-19
-101
-145
-105
-48
-4
18
-7
-35
-9
30
21
-15
-37
-32
15
71
53
-30
-59
-20
-22
-70
-71
-52
78
574
1107
884
22
-507
-417
-218
-184
-219
-240
-246
-271
-314
-330
-325
-317
-282
-211
-129
-88
-98
-93
-75
-103
-104
-28
-6
-53
-44
-16
-50
-49
32
102
126
142
166
182
156
102
76
66
20
-50
-83
-47
-3
-32
-84
-52
42
120
140
84
-4
-42
-34
-52
-63
24
113
86
222
682
822
135
-705
-877
-582
-353
-239
-128
-58
-20
40
87
88
87
82
47
31
56
47
12
46
107
110
132
218
258
233
234
262
257
248
278
309
288
234
196
172
124
49
-12
-19
12
35
29
-19
-114
-189
-191
-206
-316
-408
-400
-418
-490
-466
-378
-363
-354
-284
-87
455
1048
836
-126
-759
-690
-459
-319
-193
-143
-164
-144
-110
-119
-129
-109
-65
16
120
188
235
310
349
275
171
133
114
63
25
36
42
-13
-63
-20
13
-82
-196
-196
-137
-88
-43
-13
-4
3
18
56
120
160
160
162
157
106
64
106
168
173
152
129
121
150
252
584
1081
1115
388
-362
-454
-160
31
35
-52
-129
-121
-66
-56
-111
-190
-227
-202
-204
-262
-257
-164
-102
-87
-61
-91
-213
-288
-249
-218
-244
-246
-204
-156
-95
-20
47
91
74
19
51
176
249
211
141
100
95
119
163
210
218
140
12
-78
-103
-68
25
79
39
42
166
448
995
1414
970
-102
-830
-918
-716
-518
-453
-377
-163
-102
-331
-514
-510
-485
-438
-291
-126
-2
126
269
410
518
495
293
62
-44
-53
-4
107
176
116
29
55
176
251
226
180
98
-79
-182
-96
-25
-71
-91
-48
-11
22
30
-16
-90
-174
-208
-105
28
-17
-174
-256
-248
-34
567
1070
754
-65
-500
-461
-349
-241
-149
-159
-172
-156
-246
-343
-282
-214
-255
-278
-247
-183
1
199
168
-9
-106
-178
-318
-405
-334
-149
64
192
186
153
175
174
92
15
8
9
-64
-169
-201
-142
-48
70
228
381
448
428
399
384
357
336
342
327
288
297
334
414
738
1145
1002
271
-290
-305
-97
20
-26
-142
-165
-117
-121
-132
-110
-117
-140
-137
-137
-149
-157
-176
-214
-268
-317
-341
-377
-432
-457
-482
-530
-512
-413
-330
-260
-173
-140
-157
-112
-29
-7
-39
-80
-129
-153
-88
54
145
119
61
58
90
129
185
247
226
68
-95
-89
179
705
1069
684
-187
-617
-393
-108
-108
-223
-255
-222
-199
-155
-36
122
249
287
248
236
269
274
290
362
426
469
519
516
465
480
545
568
565
563
553
556
565
551
538
518
474
461
435
307
238
339
340
149
71
105
-14
-136
-74
-64
-183
-255
-375
-579
-617
-555
-445
96
705
256
-1026
-1703
-1470
-1110
-927
-844
-916
-1004
-881
-674
-612
-629
-585
-549
-556
-471
-407
-643
-934
-816
-466
-334
-417
-549
-769
-1088
-1378
-1500
-1412
-1195
-929
-631
-366
-210
-115
-34
-30
-81
-52
113
418
820
1118
1158
1062
994
941
892
892
917
914
888
859
852
891
1038
1453
1985
1926
991
42
-135
143
319
368
378
307
220
237
313
327
285
292
375
436
384
271
210
193
167
164
174
111
11
-31
-28
-31
-80
-215
-306
-213
-122
-210
-292
-263
-277
-312
-248
-175
-157
-120
-80
-52
28
92
26
-18
109
179
18
-146
-138
-79
-92
-106
169
717
711
-260
-1128
-1034
-607
-478
-433
-340
-299
-237
-153
-130
-79
51
118
48
-34
25
174
244
238
257
278
277
311
351
341
346
408
455
430
379
378
433
472
446
395
359
275
131
78
115
-1
-216
-239
-206
-349
-428
-335
-392
-604
-675
-661
-751
-826
-813
-844
-739
-277
-48
-677
-1556
-1765
-1458
-1209
-1114
-1072
-1063
-1063
-1038
-980
-900
-788
-590
-304
-9
250
443
532
559
594
600
540
483
461
420
391
423
435
370
289
217
123
7
-161
-359
-376
-137
48
-19
-116
-89
-80
-136
-158
-98
97
398
623
729
859
979
962
911
922
907
1035
1610
2124
1683
613
49
181
422
558
635
616
559
534
481
377
253
124
44
21
-34
-112
-104
-34
-19
-59
-79
-59
-36
-46
-107
-171
-180
-151
-131
-131
-150
-181
-224
-316
-420
-438
-409
-428
-455
-445
-439
-420
-358
-314
-324
-317
-237
-165
-193
-256
-268
-297
-406
-386
138
952
1024
-18
-1022
-1079
-711
-484
-261
-66
-91
-171
-143
-127
-167
-153
-63
21
28
-36
-76
-5
125
205
239
301
359
318
210
132
107
130
180
187
146
143
184
199
177
157
152
160
195
250
252
171
88
67
74
101
121
23
-141
-160
-95
-116
-108
-43
22
474
1285
1326
209
-784
-829
-528
-402
-358
-346
-341
-240
-120
-94
-113
-132
-181
-211
-177
-191
-331
-470
-494
-404
-246
-172
-316
-545
-665
-703
-745
-780
-767
-705
-634
-563
-471
-420
-490
-645
-845
-1039
-957
-409
241
513
468
421
443
441
323
158
211
455
508
381
489
823
1060
1376
2068
2576
2136
1141
600
706
961
1066
1006
865
762
711
655
612
585
512
416
357
303
232
185
152
109
56
-20
-77
-59
-46
-78
-54
-28
-153
-326
-374
-348
-371
-453
-525
-538
-555
-652
-797
-923
-994
-1006
-1014
-1047
-1072
-1082
-1099
-1135
-1156
-1088
-991
-971
-982
-968
-785
-111
648
378
-827
-1570
-1412
-1139
-1068
-893
-582
-354
-265
-234
-140
69
237
263
340
492
484
441
639
869
843
677
592
673
839
892
811
782
830
831
770
700
643
610
593
564
525
496
493
501
460
371
328
368
380
299
208
150
71
-4
-23
-33
-52
-71
-89
125
708
1036
449
-518
-909
-738
-552
-474
-408
-396
-436
-423
-350
-292
-229
-107
38
155
242
310
393
506
592
622
618
578
517
480
441
400
443
491
384
240
244
291
228
117
40
-40
-123
-114
0
129
239
321
322
284
313
331
116
-355
-812
-1036
-1113
-1225
-1382
-1474
-1238
-462
295
108
-764
-1189
-954
-670
-546
-485
-492
-485
-406
-336
-266
-151
-61
-39
-54
-57
3
98
132
115
101
74
44
58
66
20
-15
-26
-61
-33
120
211
136
63
59
19
-19
30
74
25
-48
-76
-84
-130
-222
-297
-326
-355
-355
-272
-211
-222
-229
-268
-102
699
1462
1018
-99
-504
-265
-103
-6
81
24
1
100
127
89
109
140
148
172
173
129
113
138
149
160
201
233
242
255
247
227
274
377
436
453
505
569
551
439
326
274
252
237
235
226
220
259
283
244
254
328
296
187
190
251
230
188
200
363
803
1130
710
-159
-566
-389
-198
-229
-302
-293
-246
-234
-238
-233
-280
-388
-472
-510
-543
-566
-562
-561
-557
-501
-406
-337
-289
-219
-157
-154
-176
-177
-174
-188
-177
-135
-134
-135
-37
21
-149
-363
-346
-197
-144
-199
-270
-353
-443
-470
-453
-503
-615
-724
-856
-977
-976
-751
-129
715
984
374
-303
-421
-229
-19
160
257
375
633
872
963
1000
1016
949
846
786
740
679
636
603
546
514
536
533
491
493
528
522
497
478
421
325
224
133
75
29
-68
-169
-190
-190
-239
-280
-300
-377
-479
-481
-404
-366
-353
-310
-308
-386
-440
-467
-468
-141
507
627
-222
-1132
-1243
-858
-539
-376
-300
-258
-221
-218
-206
-101
14
14
-56
-91
-84
-63
-21
8
-14
-40
-31
-35
-53
-31
-11
-83
-251
-409
-436
-364
-300
-234
-152
-117
-99
-55
-53
-107
-142
-141
-131
-119
-76
-3
31
41
137
285
371
406
415
392
409
629
1149
1600
1324
449
-98
12
281
405
449
442
414
415
417
397
363
310
237
140
42
17
61
53
-8
17
139
200
122
-17
-122
-175
-220
-285
-331
-320
-297
-291
-228
-89
24
69
102
156
241
343
367
224
-84
-368
-335
-92
-93
-326
-343
-138
-87
-212
-295
-247
112
777
992
235
-724
-1020
-864
-687
-526
-440
-477
-504
-489
-495
-514
-572
-687
-731
-595
-356
-158
-38
47
113
172
238
260
223
231
322
397
412
421
421
391
370
375
361
318
268
212
166
142
91
-5
-70
-71
-99
-172
-204
-236
-372
-506
-498
-450
-497
-583
-581
-368
62
