# session 18
-12
-28
0
61
26
-114
-179
-145
-136
-153
-147
-146
-156
-155
-154
-157
-158
-158
-159
-159
-158
-155
-152
-150
-146
-141
-141
-141
-138
-135
-133
-132
-128
-126
-126
-123
-119
-116
-115
-112
-109
-108
-108
-109
-107
-105
-103
-104
-105
-105
-103
-101
-99
-97
-96
-93
-90
-88
-89
-78
-53
-45
-49
-13
41
58
126
291
384
328
289
311
263
175
177
298
686
1309
1373
341
-794
-909
-419
-177
-151
-88
-63
-89
-78
-54
-43
-25
-9
-10
-9
2
12
21
29
44
70
100
131
168
213
262
306
336
350
351
338
299
237
173
112
46
-15
-57
-88
-117
-135
-139
-144
-148
-141
-129
-120
-117
-108
-95
-87
-85
-86
-84
-81
-78
-78
-80
-84
-88
-93
-99
-101
-96
-92
-96
-97
-93
-88
-83
-79
-80
-83
-80
-73
-64
-51
-40
-39
-45
-51
-53
-53
-52
-54
-57
-58
-57
-56
-58
-59
-50
-36
-27
-20
-5
4
-10
-30
-40
-37
-38
-49
-45
-29
-49
-58
18
185
602
1231
1256
203
-893
-984
-506
-232
-153
-87
-67
-68
-46
-31
-26
-12
1
10
22
37
53
72
91
114
143
177
217
265
317
370
416
444
451
440
407
350
274
188
107
39
-16
-61
-93
-113
-124
-124
-119
-113
-109
-103
-96
-89
-85
-81
-80
-79
-76
-75
-78
-82
-84
-85
-86
-89
-90
-91
-93
-96
-98
-97
-94
-95
-97
-96
-93
-93
-94
-92
-93
-94
-93
-91
-91
-90
-90
-93
-93
-91
-91
-94
-97
-99
-97
-99
-104
-76
-25
-13
-48
-71
-71
-77
-87
-86
-85
-93
-101
-102
-100
-106
-113
-108
-102
-99
-55
49
150
203
236
268
271
239
196
164
138
91
32
8
1
-25
-33
-27
-60
-68
25
267
788
1272
877
-320
-1034
-745
-273
-153
-154
-123
-127
-142
-134
-128
-122
-113
-112
-115
-110
-94
-70
-32
33
110
168
198
212
235
275
317
367
450
541
584
558
481
380
289
214
145
88
48
17
-13
-41
-59
-59
-44
-24
-10
-11
-22
-30
-31
-31
-30
-24
-20
-29
-45
-48
-42
-41
-34
-28
-48
-91
-127
-144
-130
-90
-51
-24
-11
-14
-16
1
8
-19
-53
-72
-86
-103
-114
-117
-124
-138
-147
-157
-171
-184
-192
-193
-188
-180
-177
-181
-188
-188
-185
-189
-187
-176
-176
-181
-166
-144
-135
-123
-104
-96
-97
-116
-144
-134
-96
-88
-100
-108
-106
-55
87
409
936
1158
481
-581
-952
-597
-250
-147
-100
-66
-57
-37
-18
-12
2
24
34
33
43
62
74
90
128
153
150
169
226
280
308
337
378
414
427
410
370
315
262
212
155
91
35
-8
-38
-43
-32
-28
-30
-19
-5
-5
9
46
45
-6
-23
39
87
52
11
15
9
-12
-3
11
7
6
12
19
25
27
25
28
40
59
54
12
-7
30
57
36
7
-4
-5
4
15
19
14
5
8
17
10
15
32
-1
-16
127
301
280
142
77
58
12
-25
-19
-4
-11
-30
-22
12
4
-97
-251
-349
-332
-262
-206
-162
-155
-178
-108
54
225
457
529
1
-822
-1130
-893
-660
-574
-487
-411
-375
-343
-310
-274
-237
-219
-211
-190
-161
-144
-132
-113
-87
-58
-26
1
28
72
125
166
200
235
249
234
226
229
182
82
8
-39
-109
-151
-131
-105
-54
65
185
254
277
237
204
280
382
408
442
541
639
715
746
638
418
233
129
58
1
-37
-66
-111
-160
-144
-63
-37
-121
-190
-110
60
137
77
-6
-58
-110
-151
-153
-155
-168
-98
92
236
201
115
113
108
24
-26
6
-37
-198
-305
-267
-22
522
924
419
-719
-1295
-975
-481
-252
-169
-134
-129
-114
-97
-97
-96
-88
-80
-67
-51
-34
-10
13
30
57
97
127
153
201
266
333
384
414
430
424
379
315
221
51
-130
-193
-164
-148
-150
-134
-112
-92
-68
-46
-27
-4
16
33
51
69
81
92
104
114
120
127
134
135
129
126
133
149
164
153
116
87
82
83
90
115
151
172
180
166
72
-73
-129
-96
-109
-142
-97
-72
-177
-305
-339
-333
-365
-392
-382
-404
-439
-356
-147
241
883
1162
313
-994
-1396
-922
-531
-459
-423
-399
-426
-438
-427
-415
-401
-389
-352
-267
-163
-73
-22
-41
-71
-11
115
194
220
276
376
469
531
570
584
570
533
480
412
332
256
198
152
114
95
93
97
102
103
105
113
110
94
89
70
2
-69
-104
-131
-157
-159
-134
-90
-58
-67
-75
-36
-4
-32
-73
-98
-142
-191
-171
-107
-97
-134
-127
-75
-47
-53
-47
-17
-9
-37
-61
-52
-39
-45
-44
-33
-51
-71
-36
102
509
1101
1134
212
-756
-845
-420
-174
-110
-47
-26
-47
-39
-10
5
13
35
66
69
50
72
135
168
161
177
224
254
273
319
368
394
417
410
345
301
335
376
347
254
157
101
72
43
26
22
22
33
42
38
44
55
57
48
16
-21
-7
20
-11
-32
11
8
-85
-134
-95
-75
-101
-117
-134
-181
-213
-195
-164
-152
-156
-185
-242
-308
-396
-502
-548
-515
-497
-502
-458
-437
-480
-449
-309
-86
364
815
527
-513
-1228
-1038
-543
-316
-263
-226
-211
-177
-115
-81
-42
11
9
-7
43
93
101
123
156
179
215
245
264
312
346
336
356
405
411
388
358
307
271
246
178
104
80
60
11
-12
5
16
6
0
15
36
29
17
40
48
-3
-41
-22
-3
-15
-24
-13
5
8
-14
-30
-12
6
-12
-22
-4
-1
-12
6
15
-17
-18
36
54
27
43
79
61
28
23
16
8
17
22
12
9
37
125
402
889
1064
385
-633
-973
-595
-209
-92
-59
-29
-19
-7
6
5
10
27
33
34
49
60
50
45
58
70
76
93
128
170
202
220
226
222
217
220
209
148
61
11
-8
-62
-143
-159
-120
-126
-168
-170
-168
-203
-203
-149
-118
-135
-158
-177
-180
-155
-133
-129
-124
-120
-114
-101
-92
-101
-122
-143
-145
-132
-127
-128
-128
-126
-108
-78
-62
-62
-55
-50
-60
-58
-31
-13
-23
-36
-41
-27
-2
-2
-18
-6
14
15
31
64
76
58
27
4
10
26
26
29
23
-4
10
96
325
810
1183
728
-360
-975
-740
-315
-142
-89
-30
2
-7
-17
7
36
34
36
52
43
41
79
92
76
106
164
187
193
203
212
238
274
294
315
327
292
241
208
156
90
56
41
4
-45
-70
-61
-57
-79
-83
-53
-51
-74
-63
-47
-75
-98
-76
-57
-66
-75
-81
-97
-104
-91
-84
-100
-113
-109
-109
-115
-110
-102
-100
-94
-96
-107
-95
-76
-101
-130
-105
-78
-102
-119
-93
-87
-111
-111
-99
-108
-109
-90
-88
-102
-100
-94
-98
-88
-78
-93
-87
-59
-95
-108
89
358
386
221
114
91
56
19
21
38
42
43
46
38
32
40
33
30
71
101
55
-1
-4
-7
-34
-11
80
303
775
1118
638
-393
-870
-556
-196
-126
-110
-68
-75
-95
-83
-65
-71
-86
-70
-32
-21
-33
-28
-6
22
54
82
106
136
171
193
202
222
257
286
295
276
242
227
216
157
80
56
57
24
-14
-17
-16
-29
-30
-21
-24
-30
-30
-34
-44
-52
-58
-62
-65
-69
-78
-84
-88
-93
-101
-106
-109
-115
-122
-119
-111
-108
-96
-74
-72
-91
-101
-99
-103
-108
-108
-106
-104
-103
-105
-105
-104
-100
-91
-79
-72
-61
-50
-61
-89
-109
-109
-103
-108
-106
-89
-98
-117
-72
54
370
932
1149
394
-715
-1068
-700
-345
-211
-136
-97
-98
-87
-53
-26
-15
16
86
135
116
80
80
96
103
113
138
171
201
230
265
299
326
343
347
338
310
258
190
121
58
1
-48
-85
-110
-122
-126
-128
-123
-114
-114
-109
-80
-39
17
93
146
165
203
246
217
140
89
57
21
-4
-18
-30
-39
-49
-54
-21
27
35
16
7
3
-10
-19
-22
-26
-29
-31
-37
-45
-54
-62
-71
-78
-84
-93
-102
-106
-105
-107
-109
-99
-75
-56
-45
-29
-11
-10
-27
-45
-43
-16
7
18
20
-5
-17
46
232
668
1166
969
-128
-1070
-1065
-623
-386
-326
-297
-283
-248
-199
-177
-158
-128
-109
-97
-81
-69
-58
-42
-30
-20
8
50
83
109
146
190
227
256
273
275
266
247
202
135
72
26
-9
-41
-77
-97
-70
-19
-2
-17
-30
-28
-2
37
50
51
88
132
132
110
98
95
111
135
133
113
105
96
61
23
-1
-18
-32
-37
-41
-49
-55
-57
-60
-63
-61
-61
-65
-57
-35
-25
-36
-47
-52
-55
-57
-55
-51
-50
-55
-55
-51
-50
-50
-46
-46
-54
-56
-53
-49
-40
-20
0
8
12
16
4
-23
-39
-33
-29
-43
-42
-28
-47
-59
8
151
484
1031
1170
355
-720
-1010
-625
-277
-152
-96
-68
-62
-54
-37
-10
4
-4
-4
10
14
16
29
40
52
72
93
112
137
170
206
240
269
291
301
300
291
266
216
151
88
26
-29
-70
-99
-124
-133
-126
-122
-122
-114
-99
-87
-83
-82
-77
-71
-72
-72
-77
-105
-141
-145
-126
-117
-116
-111
-110
-114
-110
-98
-90
-87
-86
-89
-88
-80
-73
-71
-68
-65
-62
-59
-57
-55
-53
-47
-42
-42
-43
-42
-38
-37
-37
-35
-32
-20
-5
6
20
38
39
18
-4
-7
1
-3
-10
5
3
-24
7
123
413
994
1363
741
-451
-959
-613
-229
-120
-75
-43
-43
-29
-9
-7
-1
10
14
21
32
41
50
61
75
95
118
141
168
202
237
273
308
335
347
345
327
288
232
166
97
40
-2
-41
-79
-106
-118
-125
-131
-131
-126
-121
-116
-111
-108
-108
-109
-110
-110
-108
-110
-114
-117
-120
-124
-125
-126
-130
-131
-134
-139
-136
-125
-124
-129
-124
-115
-116
-115
-109
-107
-110
-105
-95
-90
-89
-84
-80
-79
-76
-72
-66
-62
-63
-64
-59
-56
-54
-45
-30
-17
-4
14
23
12
-13
-31
-22
-1
-6
-17
-7
-14
-16
64
229
596
1160
1240
327
-754
-963
-540
-218
-108
-44
-15
-13
3
21
28
38
53
64
70
77
87
95
108
133
156
173
201
236
264
296
339
375
396
408
407
385
348
295
227
159
104
56
8
-28
-46
-52
-57
-61
-64
-70
-87
-106
-109
-102
-96
-85
-70
-63
-63
-66
-69
-72
-75
-80
-85
-86
-87
-92
-97
-96
-94
-98
-100
-97
-96
-99
-97
-95
-101
-108
-112
-115
-117
-117
-115
-112
-111
-112
-113
-111
-102
-89
-77
-65
-49
-41
-57
-84
-98
-93
-91
-98
-87
-82
-112
-103
-9
213
753
1327
1008
-226
-1057
-855
-395
-239
-198
-152
-150
-146
-124
-116
-107
-91
-83
-75
-60
-48
-35
-17
1
19
44
73
106
143
182
219
258
293
310
305
283
242
182
109
33
-37
-96
-149
-193
-219
-232
-240
-243
-241
-240
-242
-246
-247
-245
-245
-243
-227
-199
-176
-160
-147
-140
-132
-116
-104
-101
-94
-84
-82
-79
-63
-51
-49
-42
-27
-15
-6
7
18
27
44
58
61
77
110
130
130
134
142
149
163
185
205
205
193
209
249
264
282
375
495
536
527
539
532
480
438
419
420
430
414
460
662
930
1326
1897
1987
1064
1
-120
390
707
753
767
757
733
754
723
528
286
160
108
1
-202
-451
-658
-781
-869
-926
-908
-891
-986
-1131
-1209
-1187
-1092
-1006
-979
-928
-803
-681
-600
-519
-450
-455
-559
-720
-861
-920
-858
-708
-575
-527
-530
-508
-447
-433
-510
-569
-504
-354
-255
-285
-375
-378
-261
-128
-99
-199
-308
-294
-188
-108
-82
-60
-3
74
133
167
208
250
232
173
159
194
227
254
232
123
44
91
182
242
286
310
306
309
333
342
331
368
454
490
482
520
658
1094
1749
1730
604
-489
-577
-270
-278
-350
-229
-84
-8
41
74
108
159
193
202
216
236
238
225
221
236
270
309
341
371
416
467
510
548
581
593
581
549
488
405
325
251
175
107
55
12
-22
-45
-61
-72
-77
-80
-84
-89
-96
-105
-116
-125
-134
-143
-150
-162
-182
-197
-197
-199
-217
-236
-247
-263
-281
-294
-307
-321
-322
-306
-291
-288
-294
-295
-289
-283
-285
-291
-291
-286
-283
-280
-274
-273
-277
-278
-275
-272
-270
-267
-260
-253
-247
-233
-223
-225
-228
-229
-239
-261
-270
-258
-249
-244
-214
-191
-192
-134
7
294
880
1329
793
-428
-1029
-715
-301
-152
-66
13
53
90
113
111
121
154
198
232
224
194
186
193
196
213
236
229
215
246
307
355
397
441
465
464
459
447
412
351
273
199
145
96
44
9
-3
-13
-28
-34
-27
-21
-27
-36
-34
-23
-19
-25
-30
-29
-33
-42
-49
-55
-62
-65
-62
-62
-75
-90
-88
-76
-78
-88
-87
-82
-93
-111
-116
-108
-100
-95
-95
-96
-94
-92
-86
-70
-57
-51
-38
-23
-27
-45
-62
-73
-71
-68
-69
-54
-57
-90
-59
68
360
984
1459
854
-481
-1111
-756
-334
-215
-157
-115
-118
-104
-81
-77
-69
-57
-52
-41
-23
-11
1
16
34
54
79
108
142
184
230
275
317
349
365
364
346
310
250
175
101
28
-35
-63
-100
-208
-315
-316
-257
-226
-211
-186
-165
-151
-135
-122
-112
-100
-90
-85
-81
-76
-73
-71
-69
-66
-65
-64
-62
-60
-56
-50
-45
-40
-36
-32
-30
-27
-19
-11
-4
0
1
2
4
11
19
25
29
32
37
43
46
49
52
54
57
61
65
68
67
66
66
75
91
103
114
131
140
123
87
50
20
7
15
28
