# session 2
-22
-38
2
8
-129
-302
-334
-280
-275
-278
-236
-222
-258
-268
-241
-229
-233
-231
-221
-211
-211
-210
-191
-122
149
626
775
180
-602
-783
-473
-225
-168
-155
-139
-118
-90
-77
-75
-66
-55
-46
-29
-12
1
19
43
62
78
94
112
126
141
161
180
186
193
213
228
217
193
165
125
81
42
11
-9
-18
-23
-25
-21
-17
-16
-17
-20
-23
-17
-11
-16
-22
-21
-21
-26
-27
-27
-30
-29
-28
-35
-42
-42
-46
-56
-64
-68
-71
-64
-47
-33
-19
-13
-32
-60
-71
-66
-62
-65
-65
-53
-52
-62
-56
-18
174
641
999
649
-190
-680
-571
-280
-108
-41
-22
-21
-12
6
19
27
36
49
57
63
75
93
109
121
132
145
164
181
188
199
215
222
223
234
246
236
207
172
124
68
22
-14
-45
-70
-88
-97
-99
-96
-97
-104
-116
-128
-130
-127
-123
-112
-94
-79
-71
-64
-55
-54
-64
-79
-100
-122
-137
-144
-145
-137
-116
-89
-70
-65
-54
-41
-55
-93
-116
-118
-116
-109
-103
-101
-97
-110
-121
-100
-43
241
865
1188
539
-472
-793
-497
-243
-162
-111
-89
-87
-73
-65
-52
-25
-17
-20
1
32
58
86
105
107
116
140
160
173
195
222
241
253
264
273
274
255
212
151
80
15
-32
-68
-100
-119
-120
-112
-103
-98
-92
-79
-68
-63
-56
-42
-35
-30
-17
-8
-9
-11
-6
-3
-16
-32
-27
-23
-46
-58
-58
-73
-54
-5
-39
-119
-106
-63
-106
-153
-116
-68
-81
-107
-93
-73
-89
-89
-40
-18
-49
-61
-45
-46
-50
-42
-32
-17
-18
-20
18
100
406
1014
1254
517
-445
-607
-247
-67
-47
-17
-63
-116
-49
10
-38
-83
-54
-15
-1
9
26
41
28
3
28
94
130
126
119
134
168
184
176
180
197
203
196
162
89
24
2
-32
-102
-142
-129
-123
-141
-135
-102
-91
-100
-99
-97
-95
-71
-61
-99
-116
-66
-35
-74
-105
-81
-46
-44
-73
-107
-108
-81
-78
-109
-117
-76
-32
-24
-45
-71
-75
-45
-23
-35
-28
13
4
-52
-64
-41
-43
-44
-22
-17
-29
-19
-5
-23
-43
-28
-4
-5
-11
-6
-11
-24
-13
28
60
51
23
11
15
13
-4
-14
2
20
20
13
48
339
965
1287
650
-331
-586
-246
-61
-82
-38
14
-7
-12
13
26
29
23
34
74
75
43
63
102
87
76
94
81
62
76
89
94
110
119
120
122
131
156
150
71
-5
-24
-44
-85
-110
-122
-122
-96
-83
-126
-170
-141
-90
-107
-141
-115
-85
-102
-109
-93
-92
-87
-74
-94
-119
-94
-55
-66
-93
-85
-70
-72
-68
-62
-73
-70
-48
-54
-76
-70
-53
-45
-35
-37
-55
-60
-55
-54
-39
-22
-27
-40
-43
-38
-31
-25
-17
-10
-19
-25
-8
4
-8
-18
-13
-9
-8
-10
-13
-11
-9
-10
2
24
39
46
46
34
11
3
17
16
-9
-5
20
10
-12
21
229
712
1086
722
-132
-548
-343
-85
-16
-4
-19
-49
-35
3
18
25
31
29
32
41
45
46
55
69
79
86
94
105
118
135
155
167
171
177
184
183
175
157
131
97
50
0
-39
-70
-95
-101
-103
-119
-121
-98
-85
-96
-102
-91
-81
-88
-96
-84
-69
-75
-83
-79
-77
-86
-87
-80
-80
-80
-73
-73
-83
-91
-93
-90
-87
-89
-95
-96
-97
-101
-100
-95
-104
-114
-98
-81
-103
-131
-112
-82
-83
-86
-79
-83
-85
-76
-72
-59
-34
-30
-32
-15
-11
-23
-12
5
7
21
47
52
43
34
24
27
51
63
54
47
32
13
29
78
247
679
1044
717
-125
-586
-401
-100
4
23
39
44
53
56
47
49
67
78
77
78
87
96
103
111
122
136
147
154
163
174
185
194
201
204
204
201
193
175
141
89
30
-20
-60
-92
-114
-125
-126
-124
-133
-139
-128
-130
-157
-153
-114
-103
-122
-122
-102
-84
-83
-103
-122
-119
-112
-118
-121
-116
-113
-116
-122
-127
-126
-120
-120
-123
-117
-108
-110
-114
-108
-102
-104
-99
-88
-88
-89
-80
-74
-70
-56
-41
-30
-15
-6
-17
-35
-43
-37
-34
-40
-32
-22
-42
-48
-5
116
484
996
981
186
-578
-631
-304
-106
-54
-20
-1
3
8
14
20
26
35
46
47
49
62
77
87
99
112
128
148
166
185
211
237
259
279
291
289
277
248
196
130
68
15
-33
-73
-100
-107
-108
-111
-116
-115
-103
-86
-82
-86
-87
-86
-88
-85
-75
-72
-80
-80
-71
-70
-78
-79
-74
-77
-78
-71
-67
-70
-66
-59
-59
-55
-48
-56
-72
-69
-57
-57
-61
-57
-59
-62
-53
-39
-29
-15
-8
-17
-32
-42
-46
-50
-58
-51
-33
-49
-74
-53
53
426
1036
1159
357
-523
-606
-253
-91
-83
-57
-53
-62
-44
-32
-35
-29
-18
-9
3
19
30
42
57
72
80
88
102
124
145
159
172
192
213
221
220
220
202
152
91
44
-1
-45
-78
-101
-114
-112
-108
-108
-103
-100
-99
-92
-85
-86
-83
-74
-72
-73
-73
-73
-72
-71
-76
-80
-79
-83
-91
-92
-94
-105
-112
-104
-96
-95
-92
-90
-93
-94
-91
-84
-75
-62
-47
-30
-25
-40
-55
-59
-58
-58
-60
-58
-49
-59
-76
-55
14
276
849
1192
628
-365
-741
-454
-161
-69
-36
-22
-17
3
9
-2
1
22
39
44
44
53
71
91
106
116
131
152
168
181
203
226
239
251
268
272
257
227
178
112
45
-14
-64
-103
-134
-153
-153
-149
-148
-145
-137
-130
-124
-120
-117
-107
-98
-100
-102
-93
-82
-81
-87
-95
-99
-98
-101
-104
-96
-92
-97
-100
-98
-99
-97
-89
-85
-82
-60
-32
-33
-54
-66
-73
-73
-61
-57
-53
-46
-64
-75
-40
83
520
1176
1205
263
-610
-592
-213
-86
-82
-34
-11
-16
-12
-9
-7
4
14
21
31
43
57
69
80
94
111
126
146
170
190
210
229
242
254
263
253
223
179
121
65
24
-26
-85
-106
-95
-108
-127
-112
-95
-103
-109
-106
-110
-114
-103
-87
-90
-103
-102
-98
-109
-118
-116
-115
-117
-119
-120
-120
-116
-115
-113
-101
-90
-85
-74
-60
-61
-73
-86
-90
-78
-66
-69
-61
-51
-71
-76
-26
113
514
1059
1032
167
-653
-696
-339
-137
-90
-57
-39
-35
-29
-25
-17
-4
4
6
11
30
50
58
73
100
122
134
140
144
157
189
231
256
252
241
236
214
170
114
37
-48
-93
-114
-154
-179
-155
-133
-144
-150
-132
-122
-132
-124
-91
-77
-92
-96
-88
-94
-93
-77
-80
-111
-123
-96
-72
-82
-100
-98
-86
-83
-87
-90
-89
-83
-69
-46
-23
-8
2
4
-2
-11
-16
-14
-13
-16
-5
0
-17
-12
25
163
603
1124
976
88
-579
-497
-168
-37
-13
13
16
11
22
38
45
46
47
49
51
58
69
77
82
81
86
107
129
136
140
156
172
176
177
182
187
183
161
116
60
7
-34
-65
-89
-105
-113
-119
-122
-120
-122
-127
-118
-99
-92
-92
-91
-92
-89
-82
-85
-93
-93
-93
-95
-89
-85
-91
-92
-84
-78
-79
-84
-88
-86
-73
-56
-47
-41
-33
-35
-52
-67
-69
-65
-69
-76
-67
-59
-71
-74
-56
43
403
887
851
94
-615
-652
-327
-128
-78
-53
-43
-37
-20
-11
-8
6
16
14
16
29
40
52
73
84
79
87
118
140
145
155
173
191
211
224
217
203
184
138
75
27
-16
-67
-100
-106
-111
-121
-125
-128
-125
-111
-102
-102
-96
-83
-75
-73
-73
-77
-85
-82
-72
-72
-81
-83
-79
-80
-82
-75
-73
-84
-86
-71
-56
-49
-33
-14
-19
-42
-55
-53
-48
-48
-55
-46
-30
-48
-68
-45
62
458
1097
1213
371
-572
-725
-385
-159
-87
-43
-38
-42
-17
4
2
6
22
32
37
54
75
88
98
116
138
159
175
189
213
245
270
280
286
295
295
274
232
174
104
37
-14
-53
-86
-105
-106
-103
-110
-116
-110
-103
-104
-103
-96
-92
-93
-91
-91
-96
-98
-107
-122
-126
-122
-125
-128
-126
-127
-133
-134
-134
-129
-118
-115
-121
-120
-113
-111
-104
-89
-78
-68
-63
-72
-87
-91
-84
-75
-77
-78
-68
-75
-89
-69
23
368
981
1184
448
-481
-645
-298
-107
-91
-60
-49
-58
-37
-18
-22
-22
-13
2
16
24
30
40
51
62
75
88
105
128
146
159
173
189
201
205
205
206
201
171
117
62
18
-20
-48
-64
-79
-90
-83
-71
-74
-79
-70
-61
-64
-65
-58
-60
-70
-66
-50
-49
-61
-62
-55
-56
-61
-67
-67
-59
-56
-62
-58
-42
-43
-55
-48
-32
-34
-47
-51
-48
-39
-25
-14
-5
3
-1
-18
-37
-52
-55
-54
-60
-56
-52
-76
-77
-18
155
610
1125
940
-22
-749
-672
-313
-144
-84
-41
-38
-40
-19
-2
3
-2
-6
6
23
28
37
58
73
81
98
121
140
150
165
192
212
215
223
236
233
217
190
139
73
22
-21
-73
-118
-144
-157
-161
-160
-160
-159
-154
-148
-140
-126
-119
-121
-121
-117
-113
-109
-109
-113
-117
-118
-120
-120
-120
-123
-130
-135
-132
-122
-113
-108
-99
-73
-45
-51
-85
-100
-90
-80
-79
-83
-79
-70
-81
-87
-63
43
477
1172
1273
343
-633
-722
-335
-135
-88
-39
-31
-41
-25
-16
-15
4
24
34
51
73
85
97
122
147
164
185
215
244
274
304
332
356
374
383
382
366
323
259
194
134
82
48
28
9
-7
-19
-25
-21
-8
3
2
-1
8
19
16
10
10
6
0
0
-4
-16
-27
-33
-33
-40
-48
-31
-28
-83
-89
-6
-5
-119
-136
-48
-56
-145
-163
-120
-85
-58
-54
-89
-112
-105
-114
-148
-169
-163
-158
-182
-199
-165
-98
87
548
978
728
-137
-757
-721
-477
-391
-324
-237
-343
-498
-404
-274
-347
-420
-466
-630
-733
-679
-584
-384
-175
-195
-206
-17
51
-56
-35
83
105
51
-25
-91
-78
-16
0
-23
-61
-144
-257
-333
-318
-231
-250
-422
-470
-332
-251
-207
-258
-612
-652
179
912
767
536
683
713
636
730
780
726
768
811
753
661
530
432
494
593
599
555
466
379
385
393
372
413
422
348
365
468
538
777
1271
1475
871
-207
-908
-790
-236
26
-83
-30
234
289
200
264
292
70
-113
13
221
218
72
14
142
284
208
133
382
632
550
475
566
508
333
310
394
465
412
121
-155
-172
-339
-988
-1626
-1815
-1807
-1798
-1679
-1538
-1471
-1270
-949
-855
-992
-1032
-921
-793
-660
-535
-469
-429
-445
-557
-619
-590
-644
-690
-593
-856
-1862
-2800
-2742
-2094
-1630
-1155
-430
47
188
516
930
966
851
959
1156
1465
2052
2376
1837
963
606
728
894
984
1008
992
1000
995
959
981
1020
1048
1164
1218
995
788
838
778
482
381
506
493
425
601
856
814
399
-162
-605
-801
-768
-653
-636
-716
-792
-871
-938
-922
-861
-812
-766
-732
-666
-531
-468
-514
-488
-393
-397
-461
-479
-469
-416
-311
-262
-298
-305
-275
-272
-195
1
115
123
268
527
664
675
680
722
737
637
532
596
710
737
736
783
1049
1475
1445
807
294
157
19
13
337
507
239
-99
-260
-327
-332
-265
-199
-176
-160
-146
-173
-214
-228
-276
-412
-537
-498
-334
-282
-401
-485
-469
-438
-369
-282
-255
-237
-227
-286
-329
-337
-411
-458
-412
-467
-631
-789
-1038
-1194
-917
-599
-705
-847
-717
-612
-531
-212
184
383
423
439
487
542
556
567
587
533
454
498
597
586
521
537
571
486
349
402
792
1314
1437
907
151
-331
-499
-418
-180
-93
-216
-287
-340
-527
-635
-489
-324
-350
-412
-330
-286
-368
-232
88
34
-317
-348
-65
106
136
219
344
380
357
432
572
592
468
300
144
-20
-263
-512
-574
-520
-522
-462
-271
-155
-173
-191
-191
-153
-7
50
-120
-138
191
345
120
16
158
158
42
86
173
119
100
246
360
335
352
480
612
713
750
680
655
862
1253
1567
1443
656
-476
-1203
-1176
-865
-792
-837
-779
-791
-916
-906
-827
-892
-900
-712
-626
-706
-664
-502
-405
-333
-224
-116
13
127
116
26
49
204
241
81
76
354
503
315
85
31
76
122
195
328
397
326
348
593
744
688
795
1092
1199
1161
1248
1353
1366
1397
1420
1378
1384
1442
1412
1322
1284
1283
1288
1305
1304
1326
1412
1403
1276
1294
1410
1121
27
-1841
-3847
-5001
-5022
-4575
-4179
-3797
-3400
-3068
-2795
-2608
-2491
-2283
-1951
-1609
-1293
-1043
-938
-898
-784
-623
-530
-474
-339
-184
-91
95
361
434
380
409
350
187
281
590
622
287
73
274
544
519
330
213
230
401
611
706
764
893
979
939
896
971
1113
1169
1074
982
1037
1089
1000
941
1022
1121
1153
1097
977
923
928
833
701
754
1063
1360
1068
78
-700
-664
-486
-577
-451
-274
-523
-649
-391
-396
-543
-351
-304
-645
-736
-472
-357
-422
-397
-335
-394
-485
-432
-213
31
157
164
120
44
-6
-24
-149
-383
-589
-775
-890
-821
-705
-601
-345
-81
-11
87
295
384
421
584
747
781
754
727
710
700
648
523
395
376
445
472
450
412
352
410
539
409
302
701
961
544
348
613
136
-1076
-1652
-1368
-1079
-1073
-1102
-1008
-849
-764
-734
-672
-612
-550
-476
-503
-568
-477
-339
-364
-463
-468
-408
-362
-312
-259
-261
-241
-58
98
-71
-350
-364
-304
-502
-729
-688
-558
-538
-537
-446
-218
48
113
118
429
845
999
1092
1283
1300
1121
1039
1039
896
641
493
508
554
528
471
463
482
438
341
291
319
